#Acq. time (s)=	45
#Accumulations=	2
#Range (cm-¹)=	200...3150
#Windows=	2
#Auto scanning=	Off
#Autofocus=	Off
#Macrospot=	Off
#AutoExposure=	Off
#Spike filter=	Multiple accum.
#Delay time (s)=	0
#Binning=	1
#Readout mode=	Signal
#DeNoise=	Off
#ICS correction=	On
#Dark correction=	Off
#Inst. Process=	Off
#Detector Gain=	Best Dynamic Range
#Detector ADC=	20 kHz       
#Detector temperature (°C)=	-69.85
#Instrument=	LabRAM HR Evol
#Detector=	Synapse
#Objective=	x100
#Grating=	600 gr/mm
#ND Filter=	100%
#Laser (nm)=	532 
#Hole=	100.021
#Range=	Auto
#Laser Pol.=	No
#Raman. Pol.=	No
#Laser Pol. (°)=	-0.0007625
#Raman Pol. (°)=	89.9995
#Collection=	Microscope
#StageXY=	Marzhauser
#StageZ=	Marzhauser
#X (µm)=	-961.9
#Y (µm)=	-2834.7
#Z (µm)=	528.2
#Full time(mm:ss)=	3:18
#Project=	
#Sample=	
#Site=	
#Title=	Mb_00_13_20_2x_45s_532 nm_x100_100%_600 gr_mm
#Remark=	
#Date=	06.07.2022 11:16
#Acquired=	06.07.2022 11:16:38
#Base:Fit=	10.08.2022 10:16:56
#Base:Sub=	10.08.2022 10:17:24
#Filter:Polynom=	16.08.2022 10:36:38
#AxisType[0]=Intens
#AxisUnit[0]=Cnt
#AxisType[1]=Spectr
#AxisUnit[1]=1/cm
200.398	-79.3719
202.213	-80.739
204.027	-81.3362
205.843	-82.7774
207.657	-84.7085
209.47	-84.1047
211.283	-82.248
213.097	-79.9889
214.909	-76.0473
216.721	-70.5865
218.533	-63.9227
220.344	-57.6335
222.157	-50.9953
223.967	-42.1233
225.777	-35.1318
227.587	-29.5796
229.396	-23.8543
231.205	-16.085
233.016	-9.4768
234.824	-4.09429
236.632	3.28827
238.439	8.6863
240.247	12.5966
242.053	15.8993
243.86	18.5545
245.666	24.1232
247.474	29.7696
249.279	33.3507
251.085	38.0605
252.889	41.2846
254.694	45.2859
256.498	49.3325
258.301	50.1137
260.105	51.4141
261.908	51.6573
263.71	52.6085
265.513	53.4692
267.315	55.6458
269.116	55.4967
270.918	53.9254
272.718	51.211
274.519	51.9848
276.319	47.8376
278.119	42.0298
279.918	37.9093
281.718	34.7733
283.516	30.6513
285.315	25.9417
287.113	22.2001
288.911	19.5583
290.708	16.5665
292.505	13.8166
294.302	12.6498
296.098	13.1658
297.894	13.7241
299.69	13.3129
301.485	13.8146
303.278	14.3038
305.073	17.167
306.867	19.8175
308.661	21.3669
310.454	20.8576
312.247	21.6863
314.04	21.7906
315.833	21.1509
317.623	22.4046
319.415	22.1135
321.206	24.8316
322.997	24.1597
324.788	24.4948
326.579	23.5525
328.367	21.1172
330.156	21.217
331.946	22.4908
333.735	23.279
335.523	24.4053
337.31	24.2981
339.098	22.2748
340.885	21.4534
342.673	20.3744
344.458	18.689
346.244	18.7999
348.03	15.3219
349.816	14.0882
351.6	12.3592
353.385	12.762
355.17	12.4411
356.953	12.4748
358.737	9.98481
360.521	7.79401
362.304	8.28826
364.085	9.41306
365.868	10.541
367.65	12.2276
369.431	15.0329
371.212	18.3383
372.994	22.0581
374.773	24.3309
376.554	28.3903
378.332	31.9378
380.112	36.5204
381.892	41.6948
383.669	49.5347
385.448	56.9097
387.225	64.7104
389.003	72.9581
390.781	81.002
392.557	87.9345
394.334	97.7677
396.109	104.633
397.885	110.945
399.66	115.397
401.436	120.011
403.211	125.173
404.984	130.046
406.759	133.526
408.532	134.475
410.306	137.518
412.078	137.691
413.851	137.977
415.623	137.326
417.395	138.533
419.166	138.938
420.938	134.922
422.708	133.108
424.477	131.494
426.248	127.642
428.017	122.732
429.788	117.707
431.556	112.61
433.326	105.925
435.093	102.766
436.86	94.9748
438.629	89.7262
440.395	84.5632
442.163	79.2669
443.929	72.631
445.694	66.6289
447.461	59.3356
449.226	55.2916
450.99	51.4162
452.756	46.0438
454.52	43.2565
456.285	38.6489
458.048	36.1907
459.811	34.1419
461.573	30.3944
463.337	27.9571
465.099	27.6601
466.86	28.0058
468.623	29.7232
470.384	31.6525
472.144	33.7623
473.906	35.5338
475.666	36.9165
477.425	37.5874
479.184	38.3353
480.944	40.3539
482.703	43.8016
484.461	43.6646
486.218	43.2072
487.975	43.1245
489.734	45.2563
491.491	48.3669
493.247	49.4938
495.003	52.2908
496.759	52.3866
498.516	53.8215
500.271	54.7431
502.025	54.0653
503.779	55.7453
505.533	56.3569
507.287	55.1825
509.042	54.9016
510.795	56.4542
512.547	52.9092
514.299	50.3141
516.051	50.7336
517.803	49.08
519.554	49.2951
521.305	48.7224
523.055	48.5099
524.805	47.3568
526.555	45.3823
528.307	43.7481
530.056	42.7055
531.805	40.476
533.553	38.8689
535.301	36.498
537.049	36.5119
538.797	35.2962
540.544	34.3995
542.291	34.0158
544.037	32.5771
545.783	32.3335
547.529	31.0103
549.275	27.504
551.02	26.5047
552.765	24.9647
554.509	22.8285
556.253	20.042
557.997	18.2071
559.738	16.7157
561.482	13.8783
563.224	12.0785
564.967	12.1605
566.709	10.7599
568.451	11.5647
570.192	10.4259
571.933	8.9799
573.674	10.1563
575.415	9.1636
577.153	8.52079
578.893	6.62835
580.632	6.39954
582.371	5.95827
584.11	3.83213
585.849	3.5323
587.587	2.25305
589.323	0.570553
591.06	0.493715
592.797	-2.16727
594.534	-4.44473
596.271	-3.51152
598.005	-2.73081
599.741	-3.05997
601.476	-2.57943
603.211	-0.896767
604.944	-1.41381
606.679	-1.05461
608.413	-1.30066
610.147	-1.09752
611.878	-1.39471
613.611	-2.0034
615.344	0.484184
617.077	2.64827
618.807	0.249671
620.539	0.946079
622.27	1.69709
623.999	5.26763
625.73	6.67899
627.461	8.95998
629.189	11.9323
630.919	13.9705
632.648	16.8706
634.376	17.9471
636.105	21.2388
637.833	23.697
639.559	25.6756
641.287	26.8899
643.013	28.6803
644.74	29.9286
646.467	30.7691
648.192	31.7944
649.918	34.1555
651.642	35.5855
653.368	34.2664
655.091	33.8752
656.816	33.7951
658.538	35.2071
660.263	34.0008
661.987	31.0953
663.708	30.922
665.432	30.4138
667.153	31.9256
668.875	29.1126
670.596	28.8285
672.318	26.8892
674.037	24.5954
675.759	23.4129
677.478	23.7838
679.196	21.9826
680.917	22.4502
682.635	22.4155
684.355	22.1067
686.072	18.508
687.791	16.2822
689.508	16.2277
691.224	11.629
692.942	10.094
694.658	8.1938
696.376	7.71158
698.091	8.08281
699.805	7.60637
701.522	6.88137
703.236	6.35894
704.95	4.45795
706.665	5.56713
708.379	5.52048
710.093	5.45482
711.806	4.01208
713.518	3.59819
715.23	3.38317
716.943	1.95206
718.655	2.66426
720.366	0.693633
722.078	0.310986
723.788	-1.3753
725.498	-1.19017
727.208	-1.46708
728.919	-0.164031
730.628	1.23137
732.337	2.18966
734.045	3.66919
735.755	4.73467
737.463	5.99083
739.17	6.81608
740.877	8.50388
742.584	11.2512
744.292	14.8103
745.998	15.7024
747.704	19.0669
749.409	20.5339
751.114	25.3581
752.819	28.1626
754.526	31.4394
756.23	35.8321
757.934	39.5035
759.637	43.3789
761.34	47.9862
763.043	51.1129
764.746	54.0358
766.448	57.7871
768.152	59.1774
769.853	58.7859
771.554	59.3144
773.255	61.5288
774.956	63.2743
776.656	63.4637
778.356	66.6661
780.056	66.3854
781.755	67.5429
783.454	65.8096
785.153	64.9333
786.851	64.4872
788.549	63.2725
790.247	59.3085
791.944	56.7741
793.641	54.8098
795.338	52.5915
797.034	50.6023
798.73	50.1442
800.426	47.5724
802.121	46.0624
803.817	45.193
805.511	43.7715
807.206	43.5586
808.9	43.1288
810.592	41.198
812.286	40.48
813.979	42.3331
815.672	41.3731
817.364	41.9665
819.057	41.6594
820.748	41.5858
822.44	40.1822
824.129	41.4759
825.82	40.0376
827.511	38.3841
829.201	37.9933
830.891	35.7246
832.581	35.1682
834.269	34.8022
835.958	35.1374
837.646	33.8603
839.335	34.4847
841.023	34.0102
842.709	35.3861
844.396	33.4458
846.084	31.4601
847.77	29.4718
849.455	28.5273
851.141	25.616
852.827	23.376
854.513	21.7574
856.196	22.8572
857.881	22.6508
859.566	22.1966
861.248	21.8888
862.932	21.8521
864.616	20.1005
866.297	21.3817
867.98	20.9122
869.663	20.9019
871.343	19.1779
873.026	18.0347
874.707	17.4207
876.387	17.3914
878.068	16.9812
879.747	16.9992
881.428	16.2005
883.108	16.3259
884.786	16.4909
886.465	17.2742
888.143	18.0233
889.822	21.0098
891.498	23.114
893.177	22.7883
894.855	23.3536
896.53	25.1988
898.208	26.8464
899.883	26.4894
901.56	25.9514
903.234	24.4279
904.91	25.0632
906.584	24.1667
908.26	25.5843
909.933	21.8413
911.608	23.4909
913.28	25.2432
914.955	25.4996
916.627	27.022
918.298	29.3641
919.972	29.8885
921.643	30.9688
923.315	32.152
924.986	31.9182
926.656	31.8507
928.328	30.5727
929.997	29.132
931.668	31.7246
933.337	32.7323
935.006	33.1226
936.676	33.7788
938.344	34.7693
940.012	36.6932
941.681	37.918
943.348	40.2012
945.014	41.0948
946.683	41.4844
948.349	39.9501
950.015	39.7105
951.682	40.4457
953.347	40.4068
955.012	38.479
956.676	39.714
958.343	38.2431
960.006	37.721
961.67	39.0883
963.333	40.4021
964.998	40.9169
966.661	46.0225
968.323	50.4908
969.985	53.5817
971.649	59.4524
973.31	67.007
974.971	72.1252
976.632	78.8348
978.293	85.9509
979.953	93.1295
981.615	99.4976
983.274	105.634
984.933	111.044
986.592	119.825
988.251	128.313
989.909	131.928
991.567	138.161
993.225	143.301
994.884	152.496
996.541	157.353
998.198	160.832
999.855	167.324
1001.51	173.378
1003.17	174.573
1004.82	176.161
1006.48	177.878
1008.13	177.629
1009.79	179.106
1011.44	178.137
1013.1	180.609
1014.75	183.18
1016.4	182.801
1018.06	185.17
1019.71	187.402
1021.36	190.984
1023.01	192.13
1024.66	194.005
1026.32	196.261
1027.97	195.579
1029.62	195.25
1031.27	194.393
1032.92	195.612
1034.57	194.781
1036.22	192.029
1037.87	189.285
1039.52	190.46
1041.16	189.69
1042.81	190.416
1044.46	191.238
1046.11	190.804
1047.76	192.106
1049.4	194.477
1051.05	194.761
1052.7	195.942
1054.34	199.704
1055.99	203.358
1057.63	204.677
1059.28	204.412
1060.92	203.733
1062.57	206.358
1064.21	206.966
1065.85	207.859
1067.5	207.373
1069.14	206.586
1070.78	204.644
1072.43	201.419
1074.07	201.809
1075.71	199.901
1077.35	199.733
1078.99	196.143
1080.63	193.033
1082.27	191.33
1083.91	187.761
1085.55	182.782
1087.19	179.961
1088.83	178.378
1090.47	175.275
1092.11	177.615
1093.75	180.592
1095.39	184.746
1097.03	183.743
1098.66	185.411
1100.3	188.907
1101.94	189.455
1103.57	190.045
1105.21	190.762
1106.84	192.748
1108.48	192.514
1110.11	194.14
1111.75	195.627
1113.38	197.349
1115.02	198.258
1116.65	198.991
1118.29	201.606
1119.92	204.363
1121.55	208.751
1123.19	209.735
1124.82	210.919
1126.45	213.441
1128.08	215.954
1129.71	218.96
1131.34	221.48
1132.97	227.577
1134.6	231.306
1136.23	236.64
1137.86	239.252
1139.49	244.316
1141.12	248.381
1142.75	255.676
1144.38	261.108
1146.01	264.188
1147.64	268.982
1149.26	273.1
1150.89	275.147
1152.52	278.467
1154.15	282.256
1155.77	287.471
1157.4	292.072
1159.02	294.457
1160.65	296.511
1162.27	298.474
1163.9	302.457
1165.52	305.438
1167.15	308.176
1168.77	311.869
1170.39	315.745
1172.02	318.64
1173.64	324.107
1175.26	327.251
1176.89	329.896
1178.51	331.848
1180.13	338.84
1181.75	344.771
1183.37	348.603
1184.99	354.48
1186.61	359.827
1188.23	363.202
1189.85	368.784
1191.47	374.806
1193.09	380.029
1194.71	384.453
1196.33	388.321
1197.94	395.043
1199.56	402.466
1201.18	408.103
1202.8	413.854
1204.41	420.305
1206.03	426.761
1207.65	432.292
1209.26	439.208
1210.88	449.648
1212.49	457.592
1214.11	465.853
1215.72	472.089
1217.34	482.02
1218.95	490.005
1220.57	499.184
1222.18	504.405
1223.79	513.278
1225.41	520.078
1227.02	527.741
1228.63	532.9
1230.24	537.496
1231.85	541.267
1233.47	548.976
1235.08	556.201
1236.69	564.1
1238.3	568.297
1239.91	571.943
1241.52	578.494
1243.13	585.393
1244.74	590.77
1246.34	593.743
1247.95	598.667
1249.56	602.526
1251.17	606.838
1252.78	611.269
1254.38	616.678
1255.99	622.002
1257.6	626.549
1259.2	631.459
1260.81	638.927
1262.42	643.048
1264.02	647.519
1265.63	652.577
1267.23	656.906
1268.84	661.005
1270.44	667.225
1272.04	673.814
1273.65	678.891
1275.25	684.29
1276.85	691.485
1278.46	700.102
1280.06	705.729
1281.66	711.76
1283.26	720.707
1284.86	728.854
1286.46	734.444
1288.07	744.598
1289.67	753.138
1291.27	761.799
1292.87	769.131
1294.47	778.732
1296.06	787.821
1297.66	795.651
1299.26	802.82
1300.86	811.452
1302.46	821.524
1304.06	832.343
1305.65	841.625
1307.25	848.703
1308.85	855.969
1310.44	864.808
1312.04	872.13
1313.64	883.975
1315.23	892.719
1316.83	900.89
1318.42	905.077
1320.02	910.438
1321.61	915.5
1323.2	922.289
1324.8	924.725
1326.39	930.98
1327.99	935.731
1329.58	940.102
1331.17	944.325
1332.76	948.626
1334.36	953.422
1335.95	957.279
1337.54	960.868
1339.13	965.539
1340.72	969.004
1342.31	968.668
1343.9	970.932
1345.49	970.929
1347.08	970.56
1348.67	971.544
1350.26	972.578
1351.85	972.35
1353.43	969.373
1355.02	967.837
1356.61	966.682
1358.2	964.133
1359.78	960.064
1361.37	957.599
1362.96	954.765
1364.54	950.578
1366.13	947.735
1367.71	945.25
1369.3	939.462
1370.88	935.439
1372.47	930.708
1374.05	925.967
1375.64	920.91
1377.22	914.051
1378.8	910.633
1380.39	905.237
1381.97	898.567
1383.55	893.61
1385.13	887.367
1386.72	881.618
1388.3	876.002
1389.88	868.252
1391.46	863.962
1393.04	858.985
1394.62	851.161
1396.2	845.664
1397.78	840.544
1399.36	837.726
1400.94	835.812
1402.52	834.142
1404.1	830.921
1405.68	828.097
1407.25	824.608
1408.83	821.916
1410.41	820.31
1411.98	820.898
1413.56	822.098
1415.14	821.709
1416.71	821.836
1418.29	824.41
1419.87	826.081
1421.44	827.619
1423.02	831.209
1424.59	833.309
1426.16	837.647
1427.74	840.989
1429.31	842.718
1430.89	844.925
1432.46	847.535
1434.03	850.36
1435.6	854.835
1437.18	856.098
1438.75	856.975
1440.32	858.523
1441.89	861.171
1443.46	861.737
1445.03	861.198
1446.6	859.29
1448.17	855.496
1449.74	852.485
1451.31	849.809
1452.88	847.654
1454.45	843.106
1456.02	837.369
1457.59	835.467
1459.16	830.526
1460.72	826.39
1462.29	819.776
1463.86	813.08
1465.43	806.973
1466.99	800.268
1468.56	794.042
1470.13	788.992
1471.69	781.722
1473.26	776.059
1474.82	771.197
1476.38	764.284
1477.95	758.162
1479.51	752.055
1481.08	745.823
1482.64	739.871
1484.2	733.986
1485.77	727.603
1487.33	724.24
1488.89	722.877
1490.46	721.546
1492.02	720.807
1493.58	718.247
1495.14	717.63
1496.7	717.477
1498.26	716.777
1499.82	716.349
1501.38	717.168
1502.94	719.6
1504.5	720.38
1506.06	722.099
1507.62	723.808
1509.18	725.263
1510.73	727.104
1512.29	731.503
1513.85	734.31
1515.41	736.62
1516.96	740.044
1518.52	743.16
1520.08	747.415
1521.63	749.417
1523.19	752.332
1524.75	755.995
1526.3	756.4
1527.85	759.394
1529.41	762.169
1530.96	767.078
1532.52	772.929
1534.07	776.901
1535.62	784.07
1537.18	788.803
1538.73	792.978
1540.28	797.39
1541.84	805.419
1543.39	810.71
1544.94	817.793
1546.49	823.488
1548.04	829.461
1549.59	835.145
1551.14	841.985
1552.69	848.519
1554.25	854.395
1555.79	860.574
1557.34	867.062
1558.89	873.889
1560.44	878.031
1561.99	884.054
1563.54	889.074
1565.08	896.14
1566.63	900.111
1568.18	904.937
1569.73	909.208
1571.27	912.875
1572.82	915.338
1574.37	918.629
1575.91	921.871
1577.46	924.028
1579	927.563
1580.55	930.868
1582.09	931.504
1583.64	933.792
1585.18	931.739
1586.73	931.49
1588.27	930.658
1589.81	928.831
1591.35	924.852
1592.9	921.66
1594.44	914.369
1595.98	905.728
1597.52	897.327
1599.06	887.649
1600.61	876.015
1602.15	861.487
1603.69	846.21
1605.23	833.612
1606.77	819.682
1608.31	805.619
1609.85	790.273
1611.39	773.264
1612.93	755.786
1614.46	737.365
1616	719.075
1617.54	702.499
1619.08	685.339
1620.61	666.684
1622.15	650.44
1623.69	633.404
1625.23	618.417
1626.76	600.017
1628.3	584.13
1629.83	568.547
1631.37	551.065
1632.9	535.188
1634.44	519.09
1635.97	504.659
1637.51	485.819
1639.04	470.415
1640.57	456.38
1642.11	442.269
1643.64	428.868
1645.17	417.68
1646.71	405.069
1648.24	394.594
1649.77	383.463
1651.3	374.307
1652.83	364.745
1654.36	355.236
1655.89	346.752
1657.42	338.797
1658.96	329.094
1660.48	319.337
1662.01	307.664
1663.54	298.926
1665.07	289.499
1666.6	279.689
1668.13	271.133
1669.66	261.332
1671.19	250.24
1672.71	240.722
1674.24	230.828
1675.77	222.318
1677.29	210.843
1678.82	201.014
1680.35	190.62
1681.87	180.318
1683.4	170.782
1684.92	161.212
1686.45	152.791
1687.97	141.892
1689.5	133.023
1691.02	125.048
1692.54	116.954
1694.07	111.122
1695.59	103.667
1697.11	96.8765
1698.64	92.6207
1700.16	86.3593
1701.68	80.3084
1703.2	72.7822
1704.72	68.2065
1706.25	62.615
1707.77	56.5138
1709.29	52.8015
1710.81	48.433
1712.33	44.9112
1713.85	40.061
1715.37	38.486
1716.89	34.4796
1718.41	29.2833
1719.92	25.0623
1721.44	23.1763
1722.96	21.415
1724.48	20.7358
1725.99	17.3956
1727.51	16.0016
1729.03	14.3756
1730.55	12.7018
1732.06	11.8187
1733.58	10.5165
1735.09	7.73311
1736.61	6.0182
1738.13	5.09245
1739.64	4.6169
1741.15	4.8503
1742.67	4.6107
1744.18	5.02519
1745.7	4.41173
1747.21	5.01215
1748.72	6.60114
1750.24	6.69108
1751.75	6.72598
1753.26	4.97835
1754.77	5.5072
1756.29	4.64235
1757.8	5.75132
1759.31	5.81187
1760.82	4.64835
1762.33	4.29058
1763.84	3.4361
1765.35	4.18627
1766.86	3.43119
1768.37	4.75186
1769.88	5.58721
1771.39	4.70654
1772.9	5.14482
1774.4	5.4258
1775.91	3.811
1777.42	4.27755
1778.93	4.4613
1780.44	4.31334
1781.94	4.72186
1783.45	4.96325
1784.96	3.97255
1786.46	4.16993
1787.97	3.2282
1789.47	3.63135
1790.98	1.0178
1792.48	-0.820093
1793.99	1.25957
1795.49	3.14247
1797	5.0526
1798.5	6.48717
1800.01	6.96679
1801.51	6.61554
1803.01	7.47246
1804.51	6.72977
1806.02	5.32909
1807.52	3.3333
1809.02	2.45235
1810.52	3.9155
1812.02	2.68008
1813.52	1.53363
1815.02	2.55438
1816.53	2.86862
1818.03	2.46873
1819.52	1.73219
1821.02	2.31922
1822.52	1.69943
1824.02	0.173271
1825.52	0.612948
1827.02	1.51798
1828.52	2.50084
1830.02	3.1339
1831.51	1.66926
1833.01	2.72982
1834.51	2.75549
1836.01	3.87347
1837.5	5.43483
1839	3.86639
1840.49	3.63998
1841.99	3.67181
1843.49	4.19442
1844.98	4.62565
1846.48	5.2502
1847.97	6.68468
1849.47	3.48161
1850.96	4.64147
1852.45	4.69184
1853.95	6.15019
1855.44	4.30073
1856.93	6.32464
1858.42	5.85533
1859.92	6.03263
1861.41	6.54742
1862.9	9.73703
1864.39	10.9682
1865.88	11.3798
1867.38	16.2177
1868.87	16.9773
1870.36	16.5844
1871.85	15.6401
1873.34	15.075
1874.83	14.606
1876.32	13.676
1877.81	12.0821
1879.29	12.3895
1880.78	10.9221
1882.27	10.1334
1882.53	10.4803
1884.03	10.9656
1885.52	7.80605
1887.01	7.98873
1888.51	10.8178
1890	10.7925
1891.5	11.6382
1892.99	11.8875
1894.48	14.8906
1895.97	15.0584
1897.47	20.9906
1898.96	27.0161
1900.45	28.7447
1901.94	28.4886
1903.43	29.4756
1904.92	30.4259
1906.41	30.2691
1907.9	30.4785
1909.39	32.3975
1910.88	33.2389
1912.37	30.9735
1913.86	33.3985
1915.35	34.6722
1916.84	36.1202
1918.33	34.5985
1919.81	33.2985
1921.3	33.3802
1922.79	32.54
1924.28	35.7664
1925.76	35.5113
1927.25	35.7313
1928.73	32.1144
1930.22	31.2319
1931.71	28.436
1933.19	27.5251
1934.68	27.7557
1936.16	27.902
1937.65	23.0511
1939.13	23.3958
1940.62	24.0671
1942.1	18.9457
1943.58	18.2833
1945.07	16.4922
1946.55	17.0698
1948.03	16.4242
1949.51	15.5429
1951	12.1293
1952.48	12.9868
1953.96	10.9202
1955.44	10.6779
1956.92	10.7915
1958.4	10.7211
1959.88	10.7205
1961.36	14.6248
1962.84	16.6968
1964.32	15.1738
1965.8	14.8193
1967.28	17.1503
1968.76	20.236
1970.24	23.3974
1971.72	27.3972
1973.2	28.1038
1974.67	25.4498
1976.15	24.6008
1977.63	27.0911
1979.1	25.9087
1980.58	25.9485
1982.06	28.7334
1983.54	28.2746
1985.01	27.1432
1986.49	28.3134
1987.96	32.2894
1989.44	32.6713
1990.91	32.1618
1992.39	30.9737
1993.86	33.8443
1995.33	38.4461
1996.81	37.6488
1998.28	37.8656
1999.75	37.3099
2001.23	32.6407
2002.7	33.2285
2004.17	34.4078
2005.65	37.9794
2007.12	39.9125
2008.59	42.6717
2010.06	42.2581
2011.53	43.1889
2013	46.2174
2014.47	47.7293
2015.94	47.2746
2017.41	50.1342
2018.88	51.4851
2020.35	53.2842
2021.82	51.2102
2023.29	51.0385
2024.76	51.3107
2026.23	55.4146
2027.69	55.7583
2029.16	56.3922
2030.63	58.7632
2032.1	59.7144
2033.56	61.5573
2035.03	63.894
2036.5	64.8864
2037.96	66.3332
2039.43	68.2184
2040.89	71.2489
2042.36	72.6085
2043.83	74.0178
2045.29	73.481
2046.75	70.9242
2048.22	68.1181
2049.68	67.3733
2051.15	65.6586
2052.61	63.0051
2054.07	63.0999
2055.54	61.664
2057	60.7141
2058.46	61.6306
2059.92	63.5888
2061.39	60.716
2062.85	57.2045
2064.31	56.6372
2065.77	56.4314
2067.23	58.9397
2068.69	57.8808
2070.15	57.2814
2071.61	56.558
2073.07	54.6302
2074.53	55.4076
2075.99	58.3288
2077.45	59.3629
2078.91	59.4418
2080.37	57.1709
2081.82	56.3358
2083.28	56.7015
2084.74	59.3567
2086.2	60.2755
2087.65	63.0401
2089.11	64.5356
2090.57	64.2249
2092.02	63.367
2093.48	63.0675
2094.94	64.7205
2096.39	66.8714
2097.85	69.7864
2099.3	70.4388
2100.76	72.3502
2102.21	73.9512
2103.66	74.6869
2105.12	75.6337
2106.57	77.0716
2108.03	78.6818
2109.48	77.0153
2110.93	75.4635
2112.38	75.3184
2113.84	75.0072
2115.29	75.8483
2116.74	75.389
2118.19	74.3902
2119.64	70.6461
2121.09	70.8935
2122.54	71.8474
2123.99	70.9933
2125.45	70.5606
2126.89	69.0387
2128.34	66.5197
2129.79	65.9532
2131.24	64.8647
2132.69	65.1855
2134.14	60.8142
2135.59	61.3672
2137.04	62.1942
2138.48	60.7815
2139.93	61.189
2141.38	61.7453
2142.83	63.7659
2144.27	60.4927
2145.72	63.379
2147.17	64.7498
2148.61	62.8096
2150.06	62.3792
2151.5	61.4469
2152.95	62.4866
2154.39	61.8998
2155.84	61.8582
2157.28	62.083
2158.73	60.4536
2160.17	61.5908
2161.61	60.8142
2163.06	59.9532
2164.5	62.2354
2165.94	65.1071
2167.38	68.1381
2168.83	68.9607
2170.27	70.4915
2171.71	70.896
2173.15	75.1316
2174.59	75.9137
2176.03	76.6103
2177.47	79.3907
2178.91	78.8299
2180.36	77.9748
2181.8	77.4533
2183.23	80.0696
2184.67	79.6158
2186.11	80.5105
2187.55	81.1049
2188.99	79.5562
2190.43	78.843
2191.87	77.1128
2193.3	77.8707
2194.74	75.868
2196.18	74.971
2197.62	76.617
2199.05	76.2967
2200.49	76.3157
2201.93	78.9508
2203.36	76.5853
2204.8	75.3342
2206.23	73.6874
2207.67	74.7948
2209.1	76.3968
2210.54	76.2608
2211.97	79.7526
2213.41	80.8689
2214.84	78.5008
2216.27	77.2333
2217.71	79.0487
2219.14	76.5461
2220.57	75.0311
2222.01	74.817
2223.44	76.3421
2224.87	77.8063
2226.3	76.0501
2227.73	78.6572
2229.16	80.8001
2230.6	82.7788
2232.03	85.4857
2233.46	87.4834
2234.89	88.9819
2236.32	90.2455
2237.75	91.254
2239.18	90.6839
2240.61	91.7947
2242.03	91.7463
2243.46	94.0947
2244.89	93.5225
2246.32	93.2151
2247.75	91.5978
2249.17	89.7865
2250.6	87.1219
2252.03	86.1703
2253.46	84.9029
2254.88	84.842
2256.31	81.916
2257.73	82.6093
2259.16	81.028
2260.59	79.1282
2262.01	78.2179
2263.44	77.3298
2264.86	76.4051
2266.29	76.3302
2267.71	75.9141
2269.14	72.4067
2270.56	70.6347
2271.98	70.3827
2273.4	69.1191
2274.83	66.5324
2276.25	66.6162
2277.67	67.9262
2279.09	67.4304
2280.52	68.7725
2281.94	67.7653
2283.36	69.7226
2284.78	67.444
2286.2	67.0872
2287.62	68.299
2289.04	66.5981
2290.46	63.4687
2291.88	64.4368
2293.3	63.7129
2294.72	66.8005
2296.14	65.116
2297.56	64.7881
2298.98	64.0601
2300.4	62.9251
2301.82	60.6681
2303.23	59.7532
2304.65	58.6423
2306.07	55.6959
2307.49	54.6186
2308.9	55.2883
2310.32	55.096
2311.73	55.4269
2313.15	53.6048
2314.57	53.226
2315.98	51.5032
2317.4	51.047
2318.81	47.1006
2320.23	48.0724
2321.64	45.5962
2323.06	42.8252
2324.47	42.2768
2325.88	42.0562
2327.3	40.8471
2328.71	42.018
2330.12	40.1855
2331.54	39.5377
2332.95	40.4522
2334.36	39.7351
2335.77	37.3671
2337.18	36.4531
2338.6	33.9683
2340.01	33.0224
2341.42	33.0442
2342.83	33.1183
2344.24	34.1392
2345.65	32.6355
2347.06	31.3612
2348.47	31.9819
2349.88	31.7579
2351.29	32.8377
2352.7	33.6403
2354.1	33.078
2355.51	31.7171
2356.92	31.1604
2358.33	29.7043
2359.74	27.8118
2361.14	28.8082
2362.55	28.7357
2363.96	28.0252
2365.36	29.9106
2366.77	28.2358
2368.18	31.1581
2369.58	31.6918
2370.99	33.0545
2372.39	34.3188
2373.8	36.818
2375.2	34.9085
2376.61	34.5034
2378.01	35.1716
2379.42	36.4163
2380.82	35.1442
2382.22	34.9463
2383.63	36.7047
2385.03	36.9168
2386.43	36.4427
2387.84	35.5817
2389.24	35.0294
2390.64	35.8049
2392.04	32.9025
2393.44	35.5953
2394.84	37.4711
2396.25	37.6971
2397.65	38.6991
2399.05	38.1182
2400.45	36.2818
2401.85	37.9793
2403.25	37.1324
2404.65	33.6702
2406.05	30.5117
2407.45	28.4667
2408.84	27.9148
2410.24	28.5973
2411.64	30.6719
2413.04	33.8827
2414.44	34.3819
2415.83	33.9066
2417.23	33.8353
2418.63	33.5023
2420.02	34.2938
2421.42	33.0133
2422.82	32.9683
2424.21	32.0487
2425.61	30.9962
2427	30.0131
2428.4	29.8304
2429.8	27.7713
2431.19	25.7081
2432.58	25.0607
2433.98	28.3289
2435.37	30.612
2436.77	31.4548
2438.16	33.2146
2439.55	30.5649
2440.95	27.8841
2442.34	25.229
2443.73	23.467
2445.12	22.6376
2446.51	23.1997
2447.91	21.0969
2449.3	21.848
2450.69	20.5183
2452.08	19.3781
2453.47	19.4858
2454.86	17.1319
2456.25	15.5976
2457.64	13.6367
2459.03	12.4172
2460.42	10.9035
2461.81	10.1935
2463.2	10.1953
2464.59	6.55111
2465.98	6.57063
2467.36	5.87531
2468.75	4.6868
2470.14	7.03118
2471.53	6.87824
2472.92	3.17584
2474.3	3.44598
2475.69	6.19459
2477.08	7.10377
2478.46	8.42251
2479.85	9.52885
2481.23	8.45914
2482.62	8.15885
2484	7.10825
2485.39	3.7505
2486.77	0.753732
2488.16	1.29186
2489.54	1.7308
2490.93	-1.70518
2492.31	0.0284101
2493.69	0.261305
2495.08	-0.420763
2496.46	-0.145114
2497.84	0.148439
2499.23	-3.33421
2500.61	-0.600396
2501.99	3.86405
2503.37	5.78667
2504.75	6.76868
2506.13	4.85299
2507.52	3.83853
2508.9	2.70403
2510.28	6.37258
2511.66	7.04864
2513.04	7.85052
2514.42	10.6674
2515.8	11.1407
2517.18	13.5137
2518.55	16.2565
2519.93	16.2082
2521.31	19.2619
2522.69	21.8117
2524.07	22.2043
2525.45	25.0512
2526.82	25.6483
2528.2	28.9171
2529.58	32.1304
2530.95	36.2428
2532.33	38.3806
2533.71	39.3043
2535.08	42.2688
2536.46	43.6367
2537.84	44.2169
2539.21	46.4719
2540.59	45.6334
2541.96	48.1998
2543.34	51.3833
2544.71	50.5139
2546.08	49.7743
2547.46	49.836
2548.83	49.8818
2550.2	49.5498
2551.58	49.3707
2552.95	47.8013
2554.32	47.4404
2555.7	50.7635
2557.07	49.85
2558.44	49.4814
2559.81	49.7698
2561.18	49.8228
2562.55	49.4681
2563.93	47.4664
2565.3	47.6754
2566.67	47.7802
2568.04	45.4627
2569.41	48.1784
2570.78	48.0607
2572.15	42.8739
2573.51	40.2466
2574.88	38.4317
2576.25	38.1644
2577.62	38.8983
2578.99	39.2865
2580.36	36.3545
2581.73	37.8373
2583.09	38.7556
2584.46	39.0739
2585.83	38.7928
2587.19	33.9888
2588.56	35.0105
2589.93	34.9966
2591.29	33.7166
2592.66	33.7633
2594.02	35.5718
2595.39	34.6571
2596.75	34.9379
2598.12	34.411
2599.48	34.0568
2600.85	32.0947
2602.21	31.1935
2603.58	29.9923
2604.94	29.339
2606.3	28.9625
2607.67	28.8762
2609.03	30.0744
2610.39	31.3888
2611.76	29.3594
2613.12	28.932
2614.48	30.7695
2615.84	28.5148
2617.2	28.5397
2618.56	29.3257
2619.92	28.7952
2621.28	29.2428
2622.65	30.8526
2624.01	32.0702
2625.37	32.2864
2626.72	35.1939
2628.08	34.7656
2629.44	33.2817
2630.8	36.7587
2632.16	37.8741
2633.52	38.1194
2634.88	38.9145
2636.24	37.4688
2637.59	39.2601
2638.95	39.2963
2640.31	36.2627
2641.67	39.4537
2643.02	40.375
2644.38	41.1576
2645.74	42.3719
2647.09	43.2281
2648.45	43.1302
2649.8	44.8458
2651.16	43.5266
2652.51	43.6069
2653.87	41.1383
2655.22	38.9321
2656.58	41.0415
2657.93	39.6275
2659.29	40.8008
2660.64	40.8797
2661.99	41.0841
2663.35	40.3663
2664.7	40.0383
2666.05	41.2018
2667.41	43.0471
2668.76	42.8611
2670.11	44.0187
2671.46	44.5274
2672.81	45.8102
2674.16	46.5857
2675.51	47.4845
2676.87	48.2343
2678.22	47.2994
2679.57	44.7296
2680.92	45.6014
2682.27	43.9094
2683.62	43.1072
2684.97	44.3968
2686.31	44.8387
2687.66	44.966
2689.01	45.6544
2690.36	45.9992
2691.71	48.2706
2693.06	47.7176
2694.4	46.5343
2695.75	46.0226
2697.1	48.18
2698.45	48.633
2699.79	50.2591
2701.14	51.2149
2702.49	53.1014
2703.83	51.9834
2705.18	55.1724
2706.52	54.7983
2707.87	55.2353
2709.21	58.6138
2710.56	58.1817
2711.9	59.7205
2713.25	59.9582
2714.59	60.1956
2715.94	59.025
2717.28	58.8858
2718.62	58.6734
2719.97	59.1845
2721.31	60.2384
2722.65	60.8467
2723.99	62.4246
2725.34	62.9605
2726.68	63.1682
2728.02	61.7955
2729.36	61.7509
2730.7	59.6192
2732.04	59.3546
2733.39	59.8203
2734.73	59.6642
2736.07	60.9637
2737.41	59.0097
2738.75	56.5578
2740.08	55.4534
2741.43	51.9681
2742.76	48.646
2744.1	46.0388
2745.44	45.2879
2746.78	41.6783
2748.12	41.441
2749.46	39.412
2750.79	38.2047
2752.13	35.7042
2753.47	32.4194
2754.81	31.5087
2756.14	30.4659
2757.48	28.7003
2758.81	28.1386
2760.15	24.2555
2761.49	22.8822
2762.82	20.2565
2764.16	18.7253
2765.49	19.0922
2766.83	18.1635
2768.16	16.6488
2769.5	17.3676
2770.83	14.8075
2772.16	16.9131
2773.5	16.3942
2774.83	17.1078
2776.17	17.9148
2777.5	16.9906
2778.83	17.6737
2780.16	18.7439
2781.5	19.2824
2782.83	20.5407
2784.16	22.1908
2785.49	25.1867
2786.82	25.9349
2788.15	26.2005
2789.49	25.6013
2790.82	24.5291
2792.15	24.8921
2793.48	23.8823
2794.81	23.3728
2796.14	23.2546
2797.46	22.4512
2798.79	25.1277
2800.12	26.8727
2801.45	26.4316
2802.78	25.2483
2804.11	20.7341
2805.44	18.6546
2806.76	16.8912
2808.09	12.2598
2809.42	9.99176
2810.75	9.56437
2812.07	8.66577
2813.4	7.57141
2814.73	8.64567
2816.05	6.75412
2817.38	5.5222
2818.7	7.53687
2820.03	9.34132
2821.36	11.0014
2822.68	11.8578
2824.01	12.8457
2825.33	14.4482
2826.65	17.3166
2827.98	21.4997
2829.3	26.5817
2830.63	32.7791
2831.95	39.706
2833.27	43.7831
2834.6	50.2778
2835.92	57.2198
2837.24	61.8563
2838.56	74.7944
2839.88	82.3811
2841.21	92.1541
2842.53	102.661
2843.85	112.871
2845.17	123.72
2846.49	136.32
2847.81	151.32
2849.13	166.173
2850.45	179.217
2851.77	192.38
2853.09	205.72
2854.41	217.781
2855.73	230.779
2857.05	239.761
2858.37	252.328
2859.69	261.469
2861	272.884
2862.32	283.486
2863.64	293.655
2864.96	302.253
2866.28	309.56
2867.59	313.409
2868.91	319.878
2870.23	326.041
2871.54	331.508
2872.86	335.339
2874.17	340.139
2875.49	346.893
2876.81	353.483
2878.12	358.526
2879.44	362.667
2880.75	365.037
2882.07	370.833
2883.38	376.887
2884.69	381.518
2886.01	384.641
2887.32	388.274
2888.63	392.575
2889.95	396.319
2891.26	400.224
2892.57	406.894
2893.89	410.849
2895.2	416.13
2896.51	420.894
2897.82	427.361
2899.13	433.186
2900.44	439.267
2901.76	450.044
2903.07	458.587
2904.38	471.504
2905.69	481.138
2907	493.059
2908.31	507.072
2909.62	520.833
2910.93	534.737
2912.24	548.346
2913.55	561.388
2914.85	571.761
2916.16	583.295
2917.47	593.289
2918.78	603.684
2920.09	611.714
2921.4	619.046
2922.7	622.944
2924.01	630.903
2925.32	634.203
2926.62	638.165
2927.93	638.719
2929.24	636.843
2930.54	635.677
2931.85	632.298
2933.15	629.831
2934.46	626.327
2935.76	618.847
2937.07	611.788
2938.37	603.097
2939.68	595.138
2940.98	585.58
2942.29	573.461
2943.59	561.588
2944.89	550.936
2946.2	539.755
2947.5	528.657
2948.8	513.942
2950.11	500.711
2951.41	488.929
2952.71	475.983
2954.01	461.95
2955.32	447.024
2956.62	435.21
2957.92	422.064
2959.22	408.466
2960.52	395.741
2961.82	384.175
2963.12	374.887
2964.42	363.751
2965.72	354.125
2967.02	345.412
2968.32	334.16
2969.62	328.333
2970.92	319.031
2972.22	310.039
2973.51	303.975
2974.81	294.96
2976.11	284.962
2977.41	275.2
2978.71	267.533
2980	260.056
2981.3	251.349
2982.6	242.426
2983.9	233.784
2985.19	222.237
2986.49	209.584
2987.78	199.642
2989.08	190.513
2990.38	179.368
2991.67	168.308
2992.97	159.474
2994.26	148.835
2995.56	141.092
2996.85	130.065
2998.14	120.48
2999.44	109.625
3000.73	99.7716
3002.03	90.0908
3003.32	79.6789
3004.61	73.1241
3005.91	64.1566
3007.2	54.8979
3008.49	49.2094
3009.78	44.042
3011.07	36.8722
3012.37	31.4018
3013.66	27.5034
3014.95	24.7845
3016.24	20.2617
3017.53	14.2384
3018.82	10.9148
3020.11	6.37131
3021.4	6.61959
3022.69	3.33878
3023.98	3.01919
3025.27	2.05701
3026.56	2.33483
3027.85	2.22843
3029.14	1.35168
3030.43	2.76347
3031.71	1.64783
3033	-1.02298
3034.29	0.339277
3035.58	-0.539023
3036.87	1.50371
3038.15	4.55756
3039.44	5.60008
3040.73	6.91954
3042.01	10.1898
3043.3	13.9385
3044.59	14.1744
3045.87	17.5603
3047.16	18.7016
3048.44	20.0841
3049.73	20.4211
3051.01	24.7232
3052.3	28.4503
3053.58	30.422
3054.87	30.0171
3056.15	32.3
3057.43	36.046
3058.72	36.4673
3060	37.9673
3061.29	37.1054
3062.57	39.1716
3063.85	40.7787
3065.13	42.2638
3066.42	43.4347
3067.7	45.8875
3068.98	47.7602
3070.26	49.5168
3071.54	52.86
3072.82	56.3153
3074.11	57.5188
3075.39	58.8098
3076.67	61.1097
3077.95	63.3365
3079.23	64.4282
3080.51	64.2546
3081.79	63.5891
3083.07	66.6297
3084.35	67.3474
3085.63	69.0325
3086.9	70.0225
3088.18	71.9474
3089.46	72.4403
3090.74	73.0669
3092.02	73.6485
3093.29	75.6232
3094.57	77.326
3095.85	77.2576
3097.13	80.6088
3098.4	86.6777
3099.68	91.4292
3100.95	96.3698
3102.23	100.614
3103.51	104.698
3104.78	110.324
3106.06	115.183
3107.33	117.642
3108.61	121.322
3109.88	128.444
3111.16	132.108
3112.43	137.934
3113.71	144.312
3114.98	150.749
3116.25	153.785
3117.53	158.96
3118.8	162.872
3120.07	170.093
3121.35	175.055
3122.62	179.16
3123.89	183.551
3125.16	189.372
3126.44	196.309
3127.71	200.988
3128.98	207.505
3130.25	212.443
3131.52	218.162
3132.79	222.408
3134.06	228.024
3135.33	230.493
3136.6	233.017
3137.87	235.418
3139.14	238.336
3140.41	240.259
3141.68	242.228
3142.95	243.872
3144.22	245.701
3145.49	247.581
3146.76	247.876
3148.02	252.166
3149.29	255.716
