#Acq. time (s)=	45
#Accumulations=	2
#Range (cm-¹)=	200...3150
#Windows=	2
#Auto scanning=	Off
#Autofocus=	Off
#Macrospot=	Off
#AutoExposure=	Off
#Spike filter=	Multiple accum.
#Delay time (s)=	0
#Binning=	1
#Readout mode=	Signal
#DeNoise=	Off
#ICS correction=	On
#Dark correction=	Off
#Inst. Process=	Off
#Detector Gain=	Best Dynamic Range
#Detector ADC=	20 kHz       
#Detector temperature (°C)=	-69.85
#Instrument=	LabRAM HR Evol
#Detector=	Synapse
#Objective=	x100
#Grating=	600 gr/mm
#ND Filter=	100%
#Laser (nm)=	532 
#Hole=	100.021
#Range=	Auto
#Laser Pol.=	No
#Raman. Pol.=	No
#Laser Pol. (°)=	-0.0007625
#Raman Pol. (°)=	89.9995
#Collection=	Microscope
#StageXY=	Marzhauser
#StageZ=	Marzhauser
#X (µm)=	-1076.7
#Y (µm)=	-2876.3
#Z (µm)=	528.6
#Full time(mm:ss)=	3:18
#Project=	
#Sample=	
#Site=	
#Title=	Mb_00_13_49_2x_45s_532 nm_x100_100%_600 gr_mm
#Remark=	
#Date=	06.07.2022 13:51
#Acquired=	06.07.2022 13:51:42
#Base:Fit=	10.08.2022 10:16:56
#Base:Sub=	10.08.2022 10:17:24
#Filter:Polynom=	16.08.2022 10:36:38
#AxisType[0]=Intens
#AxisUnit[0]=Cnt
#AxisType[1]=Spectr
#AxisUnit[1]=1/cm
200.398	8.59249
202.213	8.2855
204.027	8.75838
205.843	8.32789
207.657	6.55195
209.47	5.12225
211.283	4.10395
213.097	3.76805
214.909	3.66766
216.721	4.42095
218.533	6.33837
220.344	7.51186
222.157	9.9751
223.967	13.9794
225.777	15.9026
227.587	19.0839
229.396	22.7404
231.205	27.4186
233.016	31.5785
234.824	34.8225
236.632	38.0317
238.439	41.1475
240.247	43.8483
242.053	47.531
243.86	49.0001
245.666	50.8059
247.474	53.0162
249.279	55.2346
251.085	57.8828
252.889	58.7297
254.694	60.1462
256.498	62.4323
258.301	64.1796
260.105	64.7598
261.908	65.9745
263.71	67.4739
265.513	68.4961
267.315	67.9585
269.116	67.8459
270.918	66.4334
272.718	64.3584
274.519	62.5365
276.319	61.1894
278.119	59.8461
279.918	59.567
281.718	56.7046
283.516	54.2423
285.315	50.6348
287.113	47.8257
288.911	44.5319
290.708	42.2117
292.505	38.756
294.302	35.7762
296.098	33.62
297.894	33.216
299.69	31.2874
301.485	29.8125
303.278	27.3572
305.073	25.8838
306.867	24.3924
308.661	24.0822
310.454	23.0779
312.247	23.2461
314.04	23.187
315.833	21.636
317.623	21.6524
319.415	21.4484
321.206	19.8661
322.997	18.0947
324.788	16.7429
326.579	15.8961
328.367	15.7008
330.156	14.6995
331.946	14.0797
333.735	12.5269
335.523	12.8186
337.31	12.4478
339.098	12.8949
340.885	13.0296
342.673	12.2773
344.458	13.9156
346.244	13.5143
348.03	12.1388
349.816	11.5595
351.6	11.1947
353.385	9.95074
355.17	8.93595
356.953	8.8759
358.737	9.66893
360.521	8.48451
362.304	9.20998
364.085	11.1114
365.868	12.4295
367.65	14.8568
369.431	16.4735
371.212	17.3906
372.994	18.6111
374.773	19.8654
376.554	21.5488
378.332	22.4427
380.112	24.406
381.892	26.6361
383.669	28.9554
385.448	30.2653
387.225	32.8773
389.003	35.3326
390.781	37.9344
392.557	41.3896
394.334	45.1818
396.109	47.3734
397.885	50.8141
399.66	51.8198
401.436	53.4554
403.211	54.5908
404.984	54.9095
406.759	55.2699
408.532	55.5223
410.306	55.5465
412.078	56.1122
413.851	56.9406
415.623	57.0187
417.395	56.8918
419.166	56.0811
420.938	55.6185
422.708	54.898
424.477	54.2007
426.248	53.0709
428.017	52.2843
429.788	49.8293
431.556	47.2902
433.326	45.4361
435.093	42.2675
436.86	39.7333
438.629	38.2489
440.395	35.6295
442.163	33.5225
443.929	31.919
445.694	30.2703
447.461	28.3005
449.226	26.3567
450.99	25.6091
452.756	23.9752
454.52	22.9125
456.285	21.6085
458.048	20.3116
459.811	18.7002
461.573	16.874
463.337	16.1817
465.099	16.0052
466.86	15.7951
468.623	15.9284
470.384	16.0995
472.144	16.3501
473.906	17.7495
475.666	18.8094
477.425	19.5546
479.184	19.6164
480.944	19.5413
482.703	19.525
484.461	19.3975
486.218	19.8084
487.975	19.3034
489.734	19.2736
491.491	19.2518
493.247	18.6384
495.003	18.7361
496.759	19.0575
498.516	19.0018
500.271	18.3777
502.025	19.009
503.779	18.6476
505.533	19.4325
507.287	19.1234
509.042	19.0253
510.795	19.6208
512.547	20.0089
514.299	20.1149
516.051	19.8466
517.803	19.3402
519.554	18.9182
521.305	19.5355
523.055	19.7756
524.805	18.9253
526.555	18.8626
528.307	18.2376
530.056	18.2729
531.805	18.2603
533.553	18.193
535.301	17.8874
537.049	17.703
538.797	18.0944
540.544	17.6916
542.291	18.375
544.037	18.0066
545.783	17.9164
547.529	17.4399
549.275	16.0243
551.02	16.075
552.765	16.1521
554.509	14.9667
556.253	12.9601
557.997	13.1079
559.738	11.5432
561.482	10.9228
563.224	9.61797
564.967	8.97331
566.709	8.30906
568.451	7.53918
570.192	7.3945
571.933	6.7666
573.674	6.31399
575.415	5.05164
577.153	4.75788
578.893	5.29421
580.632	5.18542
582.371	6.19402
584.11	6.48865
585.849	6.3666
587.587	6.56502
589.323	7.47398
591.06	6.98628
592.797	6.88518
594.534	5.45701
596.271	5.99944
598.005	5.92468
599.741	5.9837
601.476	5.83851
603.211	5.14274
604.944	6.12333
606.679	6.12059
608.413	7.82007
610.147	8.67134
611.878	8.95439
613.611	9.53607
615.344	9.57184
617.077	10.5865
618.807	11.1527
620.539	12.567
622.27	13.1689
623.999	13.3273
625.73	13.7839
627.461	13.1353
629.189	14.3273
630.919	14.6797
632.648	15.6026
634.376	16.183
636.105	15.4385
637.833	15.8473
639.559	15.2535
641.287	15.4026
643.013	16.0541
644.74	16.7838
646.467	16.0261
648.192	17.3421
649.918	16.8527
651.642	15.7914
653.368	15.9559
655.091	16.7487
656.816	17.64
658.538	18.8789
660.263	18.3991
661.987	18.5715
663.708	19.0434
665.432	19.5187
667.153	20.2672
668.875	19.8016
670.596	19.3893
672.318	19.2764
674.037	18.7697
675.759	18.1525
677.478	16.2279
679.196	15.1294
680.917	15.4734
682.635	16.2833
684.355	16.1994
686.072	16.7969
687.791	17.0094
689.508	17.1515
691.224	19.0397
692.942	19.7467
694.658	21.6741
696.376	21.8279
698.091	21.9489
699.805	22.4984
701.522	22.5361
703.236	23.5228
704.95	24.2132
706.665	24.8671
708.379	25.3965
710.093	25.5802
711.806	26.7501
713.518	27.315
715.23	29.1775
716.943	28.7632
718.655	28.8116
720.366	28.7605
722.078	28.2881
723.788	28.6583
725.498	29.843
727.208	29.2054
728.919	29.7253
730.628	29.2615
732.337	29.6167
734.045	30.4313
735.755	29.9617
737.463	30.3347
739.17	30.8736
740.877	32.0779
742.584	31.854
744.292	32.9106
745.998	32.5069
747.704	33.6515
749.409	34.5212
751.114	35.2911
752.819	36.3647
754.526	36.9823
756.23	37.354
757.934	37.4946
759.637	37.0928
761.34	36.2637
763.043	36.6378
764.746	38.0722
766.448	39.9491
768.152	40.843
769.853	42.6608
771.554	44.7559
773.255	45.3916
774.956	47.0677
776.656	49.3474
778.356	50.5805
780.056	51.4628
781.755	51.322
783.454	52.5515
785.153	54.2343
786.851	55.1138
788.549	56.4442
790.247	57.7624
791.944	58.1691
793.641	59.2498
795.338	58.738
797.034	58.5963
798.73	58.5929
800.426	60.1057
802.121	59.6759
803.817	60.3823
805.511	61.1211
807.206	60.3872
808.9	60.8211
810.592	61.5395
812.286	62.222
813.979	64.5303
815.672	65.1294
817.364	65.5323
819.057	65.873
820.748	65.2313
822.44	65.3481
824.129	65.2211
825.82	66.3735
827.511	66.8379
829.201	68.6921
830.891	69.0349
832.581	69.5716
834.269	70.3949
835.958	70.2128
837.646	71.2222
839.335	69.2
841.023	65.8662
842.709	64.8258
844.396	63.8994
846.084	62.1353
847.77	63.1131
849.455	63.5175
851.141	63.8769
852.827	63.0516
854.513	62.1279
856.196	59.5242
857.881	58.5859
859.566	58.2054
861.248	56.685
862.932	55.2207
864.616	53.3788
866.297	51.2814
867.98	48.445
869.663	46.6024
871.343	45.1244
873.026	43.092
874.707	42.4146
876.387	40.8645
878.068	39.7918
879.747	38.2748
881.428	38.0719
883.108	37.9129
884.786	37.9445
886.465	35.6625
888.143	36.0498
889.822	35.9729
891.498	35.5405
893.177	36.2397
894.855	36.4413
896.53	36.5465
898.208	36.0699
899.883	35.5365
901.56	35.4281
903.234	35.299
904.91	34.8406
906.584	34.7994
908.26	34.7581
909.933	34.705
911.608	35.4295
913.28	35.0916
914.955	34.8291
916.627	35.382
918.298	34.7356
919.972	34.1569
921.643	34.8373
923.315	32.6748
924.986	32.5471
926.656	33.1102
928.328	33.8473
929.997	34.2561
931.668	34.5291
933.337	33.2041
935.006	32.8763
936.676	31.6996
938.344	31.1197
940.012	30.0127
941.681	30.4895
943.348	28.5126
945.014	26.5102
946.683	25.2153
948.349	23.8871
950.015	22.1887
951.682	21.9392
953.347	23.9502
955.012	24.7342
956.676	24.4867
958.343	23.2159
960.006	22.4444
961.67	22.8422
963.333	22.9348
964.998	23.8001
966.661	24.5919
968.323	25.9713
969.985	26.6149
971.649	28.7923
973.31	29.6293
974.971	31.0899
976.632	32.8175
978.293	35.4229
979.953	37.7279
981.615	40.0524
983.274	40.8669
984.933	42.8325
986.592	42.2016
988.251	43.1623
989.909	44.072
991.567	44.096
993.225	45.6128
994.884	46.9714
996.541	47.8058
998.198	49.6503
999.855	50.3501
1001.51	50.1911
1003.17	51.1882
1004.82	50.2827
1006.48	47.8284
1008.13	47.4304
1009.79	45.9592
1011.44	45.8207
1013.1	44.4508
1014.75	44.8038
1016.4	46.1201
1018.06	47.9287
1019.71	48.5693
1021.36	48.9599
1023.01	48.5669
1024.66	49.2158
1026.32	49.1372
1027.97	50.1492
1029.62	51.3317
1031.27	52.373
1032.92	53.7061
1034.57	54.7453
1036.22	54.4128
1037.87	54.6279
1039.52	53.9802
1041.16	53.2749
1042.81	54.314
1044.46	54.9605
1046.11	55.1022
1047.76	56.2498
1049.4	56.067
1051.05	56.23
1052.7	56.7829
1054.34	56.5041
1055.99	56.0841
1057.63	55.1194
1059.28	55.1275
1060.92	54.7827
1062.57	52.6294
1064.21	51.0075
1065.85	49.1167
1067.5	48.0551
1069.14	46.7534
1070.78	46.3424
1072.43	43.4006
1074.07	41.0548
1075.71	39.9732
1077.35	37.9995
1078.99	35.813
1080.63	31.8801
1082.27	28.8471
1083.91	25.611
1085.55	22.3918
1087.19	18.8999
1088.83	16.6845
1090.47	15.8976
1092.11	14.2807
1093.75	14.7702
1095.39	14.631
1097.03	16.2118
1098.66	15.8118
1100.3	16.9781
1101.94	17.0111
1103.57	16.0949
1105.21	15.5319
1106.84	15.521
1108.48	15.2366
1110.11	14.7975
1111.75	13.2577
1113.38	12.7871
1115.02	12.2066
1116.65	11.6435
1118.29	11.0752
1119.92	12.6496
1121.55	12.4238
1123.19	12.5487
1124.82	13.5538
1126.45	14.5732
1128.08	14.2068
1129.71	13.5269
1131.34	12.5214
1132.97	12.8465
1134.6	12.6354
1136.23	12.3552
1137.86	13.8741
1139.49	14.8328
1141.12	16.3763
1142.75	16.6887
1144.38	17.1907
1146.01	18.0633
1147.64	18.5556
1149.26	19.7711
1150.89	20.5655
1152.52	19.7376
1154.15	19.1037
1155.77	19.4868
1157.4	18.8576
1159.02	18.1481
1160.65	16.7243
1162.27	15.7147
1163.9	15.6891
1165.52	15.0046
1167.15	15.194
1168.77	15.3115
1170.39	16.1684
1172.02	16.9261
1173.64	17.4545
1175.26	18.1653
1176.89	17.6162
1178.51	18.6755
1180.13	18.1419
1181.75	19.22
1183.37	18.0649
1184.99	17.7176
1186.61	16.8988
1188.23	16.2337
1189.85	16.4254
1191.47	17.1253
1193.09	18.1674
1194.71	20.1804
1196.33	21.8718
1197.94	24.3163
1199.56	24.759
1201.18	27.3816
1202.8	28.5185
1204.41	29.0187
1206.03	30.1528
1207.65	30.5433
1209.26	31.0538
1210.88	32.746
1212.49	35.893
1214.11	38.4585
1215.72	40.5124
1217.34	42.6417
1218.95	45.3218
1220.57	46.0964
1222.18	48.1103
1223.79	50.2286
1225.41	51.2593
1227.02	51.5522
1228.63	53.0689
1230.24	55.5545
1231.85	56.7233
1233.47	57.5315
1235.08	58.3036
1236.69	58.5256
1238.3	58.2174
1239.91	58.8223
1241.52	59.5927
1243.13	60.4483
1244.74	61.7187
1246.34	62.3434
1247.95	62.8294
1249.56	62.7898
1251.17	63.0351
1252.78	62.8437
1254.38	62.9866
1255.99	62.7655
1257.6	62.1262
1259.2	62.3517
1260.81	62.0528
1262.42	62.5112
1264.02	61.5788
1265.63	61.9481
1267.23	62.2551
1268.84	62.5677
1270.44	63.6533
1272.04	64.3788
1273.65	64.165
1275.25	64.7185
1276.85	64.4832
1278.46	64.8558
1280.06	64.7245
1281.66	66.8081
1283.26	67.9843
1284.86	67.979
1286.46	69.522
1288.07	71.2089
1289.67	71.6821
1291.27	74.1487
1292.87	75.4764
1294.47	76.0305
1296.06	77.7077
1297.66	78.9419
1299.26	81.0921
1300.86	81.5731
1302.46	82.3687
1304.06	82.6177
1305.65	83.6395
1307.25	85.2539
1308.85	88.1274
1310.44	89.5881
1312.04	89.897
1313.64	90.364
1315.23	90.296
1316.83	90.3372
1318.42	90.9528
1320.02	92.1953
1321.61	92.0303
1323.2	91.3913
1324.8	91.3671
1326.39	90.336
1327.99	89.7687
1329.58	89.5851
1331.17	88.8317
1332.76	89.0346
1334.36	87.7721
1335.95	87.1224
1337.54	86.4666
1339.13	86.1106
1340.72	85.8296
1342.31	85.0955
1343.9	84.0212
1345.49	83.6649
1347.08	81.4784
1348.67	78.9055
1350.26	77.7945
1351.85	76.424
1353.43	74.8847
1355.02	75.5187
1356.61	74.2908
1358.2	73.672
1359.78	72.1208
1361.37	71.7483
1362.96	70.1224
1364.54	68.1144
1366.13	67.9008
1367.71	66.4331
1369.3	64.9099
1370.88	65.9662
1372.47	63.6586
1374.05	64.0544
1375.64	63.8041
1377.22	62.247
1378.8	62.3238
1380.39	61.836
1381.97	61.5078
1383.55	61.5845
1385.13	61.8053
1386.72	60.9859
1388.3	61.2183
1389.88	60.5292
1391.46	60.898
1393.04	60.9624
1394.62	60.3665
1396.2	60.4046
1397.78	60.4438
1399.36	60.4336
1400.94	59.2341
1402.52	59.6238
1404.1	59.9596
1405.68	61.1926
1407.25	62.0556
1408.83	64.1289
1410.41	65.2022
1411.98	67.3387
1413.56	68.7612
1415.14	70.4192
1416.71	72.2607
1418.29	72.9306
1419.87	75.3579
1421.44	77.9891
1423.02	79.662
1424.59	82.1279
1426.16	83.5476
1427.74	86.635
1429.31	90.2953
1430.89	93.7907
1432.46	97.2223
1434.03	99.7298
1435.6	100.579
1437.18	103.031
1438.75	104.194
1440.32	107.698
1441.89	108.843
1443.46	109.524
1445.03	110.591
1446.6	110.381
1448.17	111.106
1449.74	111.666
1451.31	110.891
1452.88	112.301
1454.45	111.017
1456.02	111.06
1457.59	110.079
1459.16	108.162
1460.72	107.077
1462.29	104.734
1463.86	103.128
1465.43	101.028
1466.99	99.2422
1468.56	96.8085
1470.13	94.5589
1471.69	91.1428
1473.26	87.0558
1474.82	83.5082
1476.38	80.8284
1477.95	77.6613
1479.51	74.857
1481.08	72.4659
1482.64	70.0681
1484.2	68.6394
1485.77	66.2138
1487.33	64.3756
1488.89	61.5892
1490.46	59.5178
1492.02	56.9247
1493.58	54.894
1495.14	52.8329
1496.7	51.832
1498.26	50.2715
1499.82	48.8926
1501.38	47.3736
1502.94	46.8798
1504.5	45.1097
1506.06	43.7877
1507.62	40.1919
1509.18	36.6817
1510.73	35.8403
1512.29	35.9814
1513.85	36.5739
1515.41	36.9937
1516.96	37.3563
1518.52	39.2859
1520.08	40.3302
1521.63	40.4019
1523.19	40.8842
1524.75	41.9368
1526.3	42.4136
1527.85	43.3815
1529.41	44.3382
1530.96	45.4941
1532.52	45.1129
1534.07	46.3136
1535.62	45.8392
1537.18	46.7418
1538.73	47.6012
1540.28	46.7178
1541.84	48.168
1543.39	48.7833
1544.94	50.3079
1546.49	51.0388
1548.04	50.9989
1549.59	51.3868
1551.14	51.4095
1552.69	53.8889
1554.25	55.7677
1555.79	56.5537
1557.34	58.0906
1558.89	58.3705
1560.44	59.5474
1561.99	60.0268
1563.54	60.6329
1565.08	60.1526
1566.63	60.5395
1568.18	60.226
1569.73	61.3554
1571.27	62.4718
1572.82	62.3985
1574.37	63.4414
1575.91	62.5385
1577.46	63.4868
1579	62.9342
1580.55	62.2609
1582.09	61.7205
1583.64	61.8838
1585.18	61.8047
1586.73	64.8223
1588.27	69.8003
1589.81	72.3772
1591.35	73.5572
1592.9	75.0532
1594.44	76.2827
1595.98	77.3115
1597.52	77.0438
1599.06	75.8236
1600.61	75.1513
1602.15	74.7287
1603.69	74.0062
1605.23	74.5975
1606.77	74.102
1608.31	73.7644
1609.85	73.614
1611.39	73.9842
1612.93	74.2159
1614.46	73.2013
1616	73.0162
1617.54	72.2479
1619.08	71.7127
1620.61	71.1541
1622.15	71.6028
1623.69	70.805
1625.23	71.3533
1626.76	72.718
1628.3	72.7485
1629.83	73.8736
1631.37	73.7168
1632.9	72.9233
1634.44	72.3967
1635.97	72.3454
1637.51	72.8899
1639.04	72.2795
1640.57	72.4224
1642.11	73.3612
1643.64	74.2791
1645.17	74.6127
1646.71	76.0028
1648.24	75.6277
1649.77	75.7933
1651.3	76.0411
1652.83	75.7308
1654.36	75.8481
1655.89	75.9642
1657.42	76.2737
1658.96	76.6784
1660.48	76.1587
1662.01	75.8446
1663.54	75.8842
1665.07	75.9801
1666.6	74.4575
1668.13	73.6934
1669.66	72.4535
1671.19	70.6478
1672.71	69.2495
1674.24	66.0904
1675.77	63.7083
1677.29	61.6048
1678.82	60.0221
1680.35	58.75
1681.87	56.7119
1683.4	53.6993
1684.92	51.2954
1686.45	49.7986
1687.97	47.4954
1689.5	44.8743
1691.02	40.9637
1692.54	38.5727
1694.07	35.8074
1695.59	34.1869
1697.11	33.2526
1698.64	31.4971
1700.16	28.4756
1701.68	28.2069
1703.2	26.0665
1704.72	23.8263
1706.25	21.7856
1707.77	20.2818
1709.29	18.3362
1710.81	16.9974
1712.33	15.7943
1713.85	14.1308
1715.37	12.4188
1716.89	11.3693
1718.41	11.1121
1719.92	9.53998
1721.44	8.89351
1722.96	7.85191
1724.48	6.99255
1725.99	7.15751
1727.51	6.29058
1729.03	5.12086
1730.55	4.76722
1732.06	5.18184
1733.58	4.73406
1735.09	4.94691
1736.61	4.13327
1738.13	3.43851
1739.64	3.08014
1741.15	2.86612
1742.67	2.52994
1744.18	2.47104
1745.7	2.34586
1747.21	1.65224
1748.72	1.28399
1750.24	0.646794
1751.75	0.572645
1753.26	0.962029
1754.77	1.09328
1756.29	0.746432
1757.8	0.0896622
1759.31	-0.00642829
1760.82	0.515907
1762.33	1.06893
1763.84	0.743357
1765.35	0.681857
1766.86	0.782002
1768.37	1.13616
1769.88	1.67726
1771.39	2.1743
1772.9	1.89606
1774.4	1.23384
1775.91	1.76515
1777.42	2.83842
1778.93	2.26967
1780.44	2.15235
1781.94	2.19872
1783.45	2.9848
1784.96	2.7965
1786.46	2.65959
1787.97	2.97146
1789.47	3.28336
1790.98	3.75115
1792.48	3.46843
1793.99	4.20828
1795.49	4.48786
1797	4.35958
1798.5	3.84015
1800.01	3.95457
1801.51	3.9624
1803.01	3.39919
1804.51	3.53661
1806.02	3.52406
1807.52	3.84008
1809.02	4.11204
1810.52	4.42247
1812.02	3.96902
1813.52	3.95139
1815.02	4.0403
1816.53	3.71025
1818.03	3.42837
1819.52	3.12611
1821.02	3.45187
1822.52	3.42936
1824.02	3.74752
1825.52	3.62566
1827.02	4.05474
1828.52	3.86328
1830.02	3.47614
1831.51	3.27038
1833.01	3.5673
1834.51	4.08083
1836.01	4.18037
1837.5	4.53567
1839	5.09922
1840.49	5.02777
1841.99	5.02819
1843.49	4.52787
1844.98	4.46552
1846.48	4.37494
1847.97	3.52223
1849.47	3.13441
1850.96	3.36111
1852.45	3.16146
1853.95	2.53071
1855.44	2.2113
1856.93	2.25606
1858.42	2.57545
1859.92	2.56538
1861.41	2.73756
1862.9	2.90041
1864.39	2.21179
1865.88	2.58419
1867.38	2.82906
1868.87	2.8412
1870.36	2.64276
1871.85	2.54893
1873.34	3.15089
1874.83	3.85356
1876.32	4.56285
1877.81	5.7524
1879.29	6.79954
1880.78	7.01052
1882.27	7.63259
1882.53	8.19619
1884.03	7.50804
1885.52	7.45986
1887.01	7.61383
1888.51	8.05948
1890	8.50966
1891.5	9.37959
1892.99	10.2234
1894.48	10.6941
1895.97	11.2655
1897.47	11.3023
1898.96	11.4673
1900.45	11.2232
1901.94	11.0688
1903.43	11.4122
1904.92	12.0821
1906.41	12.2361
1907.9	12.0251
1909.39	12.1557
1910.88	12.5614
1912.37	11.8658
1913.86	11.4824
1915.35	11.9805
1916.84	11.1609
1918.33	10.8455
1919.81	10.3049
1921.3	9.43572
1922.79	9.05473
1924.28	8.29243
1925.76	7.99694
1927.25	7.30997
1928.73	7.17641
1930.22	7.24147
1931.71	6.50132
1933.19	6.19378
1934.68	5.62779
1936.16	5.41726
1937.65	5.14927
1939.13	5.45002
1940.62	4.78195
1942.1	4.71859
1943.58	4.98134
1945.07	5.31623
1946.55	5.01774
1948.03	4.48097
1949.51	4.45454
1951	4.16311
1952.48	2.69667
1953.96	2.00177
1955.44	1.94525
1956.92	1.27911
1958.4	0.744548
1959.88	0.898621
1961.36	0.767297
1962.84	0.489485
1964.32	0.313286
1965.8	0.160965
1967.28	0.107816
1968.76	0.296798
1970.24	1.17296
1971.72	1.31595
1973.2	1.94852
1974.67	1.74596
1976.15	2.68139
1977.63	2.47181
1979.1	3.10824
1980.58	3.81934
1982.06	4.14409
1983.54	5.31326
1985.01	6.76634
1986.49	7.05239
1987.96	8.24374
1989.44	8.4186
1990.91	8.09017
1992.39	8.4598
1993.86	8.77411
1995.33	9.15839
1996.81	8.78111
1998.28	9.24684
1999.75	10.0281
2001.23	10.3882
2002.7	11.0466
2004.17	11.2011
2005.65	10.7474
2007.12	11.2784
2008.59	10.8888
2010.06	11.4958
2011.53	10.8463
2013	10.0241
2014.47	10.2311
2015.94	10.0416
2017.41	9.75696
2018.88	9.59794
2020.35	9.33085
2021.82	9.40737
2023.29	9.38827
2024.76	8.6797
2026.23	7.71539
2027.69	9.06715
2029.16	8.44753
2030.63	8.65098
2032.1	9.33656
2033.56	8.88461
2035.03	8.40198
2036.5	8.79713
2037.96	8.61977
2039.43	8.9783
2040.89	8.86259
2042.36	9.22756
2043.83	9.20575
2045.29	8.72523
2046.75	8.94784
2048.22	9.14299
2049.68	10.0711
2051.15	10.3703
2052.61	11.0446
2054.07	11.8848
2055.54	12.0523
2057	12.0595
2058.46	11.9528
2059.92	11.1034
2061.39	11.1056
2062.85	10.7486
2064.31	10.8827
2065.77	11.538
2067.23	11.7024
2068.69	11.5528
2070.15	11.1624
2071.61	11.999
2073.07	11.9081
2074.53	11.7171
2075.99	11.8425
2077.45	10.5516
2078.91	10.6818
2080.37	11.0855
2081.82	10.79
2083.28	11.5663
2084.74	11.0002
2086.2	10.9474
2087.65	11.6433
2089.11	12.2239
2090.57	13.0892
2092.02	13.3221
2093.48	13.6867
2094.94	13.8425
2096.39	13.3425
2097.85	12.5746
2099.3	12.8168
2100.76	13.014
2102.21	11.8505
2103.66	12.0531
2105.12	10.5712
2106.57	9.53708
2108.03	9.94176
2109.48	10.4534
2110.93	10.661
2112.38	10.8073
2113.84	10.4412
2115.29	11.361
2116.74	11.0398
2118.19	12.6075
2119.64	13.7646
2121.09	14.5123
2122.54	14.7015
2123.99	14.5358
2125.45	14.8253
2126.89	14.9252
2128.34	14.9563
2129.79	14.512
2131.24	15.4798
2132.69	15.36
2134.14	16.6331
2135.59	16.8395
2137.04	16.5357
2138.48	16.5557
2139.93	16.1573
2141.38	16.024
2142.83	16.1838
2144.27	16.1983
2145.72	15.3851
2147.17	14.903
2148.61	14.786
2150.06	14.6162
2151.5	14.9992
2152.95	14.6841
2154.39	14.03
2155.84	14.1977
2157.28	13.6705
2158.73	13.1099
2160.17	13.1231
2161.61	12.6346
2163.06	11.8707
2164.5	12.0641
2165.94	11.1663
2167.38	10.4844
2168.83	10.1316
2170.27	9.3339
2171.71	9.41419
2173.15	8.9861
2174.59	9.11435
2176.03	9.29934
2177.47	9.40868
2178.91	10.0008
2180.36	10.8305
2181.8	9.91322
2183.23	9.48712
2184.67	9.09783
2186.11	9.89934
2187.55	10.5534
2188.99	10.537
2190.43	11.9954
2191.87	11.9503
2193.3	11.8233
2194.74	11.6088
2196.18	12.1081
2197.62	12.5146
2199.05	12.6954
2200.49	13.2574
2201.93	13.2335
2203.36	13.7319
2204.8	14.2535
2206.23	15.076
2207.67	14.1925
2209.1	14.4229
2210.54	14.4051
2211.97	14.8031
2213.41	15.5797
2214.84	15.1032
2216.27	14.9367
2217.71	15.0817
2219.14	15.6862
2220.57	16.0038
2222.01	16.5215
2223.44	16.472
2224.87	15.907
2226.3	16.0863
2227.73	15.9305
2229.16	15.6221
2230.6	15.1272
2232.03	14.7593
2233.46	15.2654
2234.89	15.8772
2236.32	15.6336
2237.75	15.1437
2239.18	14.9044
2240.61	14.9578
2242.03	14.369
2243.46	14.8046
2244.89	15.7559
2246.32	15.4624
2247.75	14.8867
2249.17	15.0832
2250.6	13.8278
2252.03	13.7235
2253.46	13.4605
2254.88	14.8893
2256.31	15.7686
2257.73	15.6687
2259.16	14.6667
2260.59	14.4397
2262.01	14.4644
2263.44	15.0893
2264.86	15.0172
2266.29	15.1591
2267.71	15.3414
2269.14	15.0552
2270.56	14.8632
2271.98	14.5883
2273.4	14.4161
2274.83	14.3066
2276.25	14.648
2277.67	14.1802
2279.09	14.1003
2280.52	13.8912
2281.94	13.8449
2283.36	14.394
2284.78	14.1588
2286.2	13.6855
2287.62	14.1135
2289.04	13.6209
2290.46	12.2928
2291.88	10.9589
2293.3	10.6961
2294.72	9.62312
2296.14	10.1745
2297.56	10.553
2298.98	10.4879
2300.4	11.2323
2301.82	11.1877
2303.23	10.5534
2304.65	11.5428
2306.07	11.6765
2307.49	11.5743
2308.9	11.7077
2310.32	12.5137
2311.73	12.8867
2313.15	12.9029
2314.57	12.9809
2315.98	12.7611
2317.4	11.995
2318.81	11.6995
2320.23	11.9079
2321.64	11.4339
2323.06	12.4874
2324.47	12.6087
2325.88	12.313
2327.3	11.3363
2328.71	10.5082
2330.12	9.93758
2331.54	9.85747
2332.95	9.77034
2334.36	10.2606
2335.77	8.9747
2337.18	7.93485
2338.6	7.08751
2340.01	6.74865
2341.42	6.19565
2342.83	5.91506
2344.24	5.2074
2345.65	4.93097
2347.06	3.95883
2348.47	3.30858
2349.88	2.87737
2351.29	2.23551
2352.7	1.82097
2354.1	0.950485
2355.51	0.0179463
2356.92	-0.560267
2358.33	-1.05588
2359.74	-1.38157
2361.14	-1.64187
2362.55	-0.801392
2363.96	0.217515
2365.36	0.593931
2366.77	1.51514
2368.18	1.19172
2369.58	1.87121
2370.99	2.54942
2372.39	2.08604
2373.8	2.63495
2375.2	4.07897
2376.61	4.09771
2378.01	4.00128
2379.42	4.16528
2380.82	5.16705
2382.22	4.87552
2383.63	4.40099
2385.03	4.30397
2386.43	4.61906
2387.84	5.60911
2389.24	5.92549
2390.64	6.54329
2392.04	7.14944
2393.44	7.70645
2394.84	7.68016
2396.25	7.35909
2397.65	8.0462
2399.05	7.8546
2400.45	7.76842
2401.85	8.2132
2403.25	8.20835
2404.65	8.19624
2406.05	7.73003
2407.45	7.80889
2408.84	8.77036
2410.24	9.07423
2411.64	8.69613
2413.04	8.00573
2414.44	7.72207
2415.83	7.60263
2417.23	7.26117
2418.63	7.86739
2420.02	8.05384
2421.42	7.62054
2422.82	6.61343
2424.21	5.92192
2425.61	5.42751
2427	5.42291
2428.4	5.25484
2429.8	4.55144
2431.19	3.82839
2432.58	3.46316
2433.98	2.90014
2435.37	2.46672
2436.77	2.66261
2438.16	3.0332
2439.55	3.19898
2440.95	3.63964
2442.34	3.21484
2443.73	3.17943
2445.12	3.08166
2446.51	2.6891
2447.91	3.19766
2449.3	3.49886
2450.69	3.18865
2452.08	2.26749
2453.47	1.32126
2454.86	2.25091
2456.25	2.69578
2457.64	2.99272
2459.03	2.86147
2460.42	2.94497
2461.81	3.32484
2463.2	3.1707
2464.59	2.68758
2465.98	2.88765
2467.36	2.89647
2468.75	2.91046
2470.14	3.05391
2471.53	3.04276
2472.92	2.57919
2474.3	3.07735
2475.69	2.79467
2477.08	2.46122
2478.46	2.87834
2479.85	2.52752
2481.23	2.36008
2482.62	2.40596
2484	3.3856
2485.39	3.1572
2486.77	2.81652
2488.16	2.78622
2489.54	2.50044
2490.93	2.27252
2492.31	1.36112
2493.69	1.86896
2495.08	2.29524
2496.46	2.79429
2497.84	2.90093
2499.23	2.8865
2500.61	2.65722
2501.99	2.86128
2503.37	3.62426
2504.75	4.4417
2506.13	4.64185
2507.52	5.23149
2508.9	5.35335
2510.28	5.10424
2511.66	4.78045
2513.04	5.16656
2514.42	5.12196
2515.8	5.39615
2517.18	4.82296
2518.55	4.82864
2519.93	4.56907
2521.31	4.62635
2522.69	4.97995
2524.07	5.47363
2525.45	5.35752
2526.82	5.81498
2528.2	5.76932
2529.58	6.09911
2530.95	6.02579
2532.33	5.45015
2533.71	5.26603
2535.08	5.46406
2536.46	4.97581
2537.84	5.23961
2539.21	4.20708
2540.59	3.97174
2541.96	3.49952
2543.34	3.11231
2544.71	2.52196
2546.08	2.52978
2547.46	3.13335
2548.83	2.83708
2550.2	2.77283
2551.58	2.56125
2552.95	1.93408
2554.32	1.63144
2555.7	1.69213
2557.07	2.14341
2558.44	2.25851
2559.81	1.58253
2561.18	1.66531
2562.55	2.35396
2563.93	2.54071
2565.3	3.10364
2566.67	2.98698
2568.04	2.42273
2569.41	2.70645
2570.78	3.27976
2572.15	4.04785
2573.51	3.39477
2574.88	2.81805
2576.25	3.56626
2577.62	2.82548
2578.99	3.05923
2580.36	3.05761
2581.73	3.28286
2583.09	3.54246
2584.46	4.11677
2585.83	4.59362
2587.19	6.0938
2588.56	5.75294
2589.93	5.83637
2591.29	6.21432
2592.66	7.29568
2594.02	7.43596
2595.39	7.5619
2596.75	7.53655
2598.12	7.46539
2599.48	7.06317
2600.85	7.17905
2602.21	7.25575
2603.58	7.08386
2604.94	6.80625
2606.3	6.88076
2607.67	6.73074
2609.03	6.77925
2610.39	6.26193
2611.76	5.82588
2613.12	5.46853
2614.48	5.85961
2615.84	5.67987
2617.2	5.58355
2618.56	5.69912
2619.92	4.93402
2621.28	4.79586
2622.65	5.71534
2624.01	5.76137
2625.37	5.93089
2626.72	6.37586
2628.08	6.06731
2629.44	6.78794
2630.8	6.27532
2632.16	6.19343
2633.52	6.34033
2634.88	5.22679
2636.24	4.86691
2637.59	5.59746
2638.95	5.55404
2640.31	5.65822
2641.67	5.22848
2643.02	5.74156
2644.38	6.43584
2645.74	6.10887
2647.09	6.674
2648.45	7.38746
2649.8	7.87566
2651.16	8.60281
2652.51	8.62345
2653.87	9.45866
2655.22	9.19173
2656.58	8.81126
2657.93	8.83712
2659.29	9.45414
2660.64	9.09557
2661.99	8.19125
2663.35	8.57867
2664.7	8.60921
2666.05	8.67638
2667.41	8.94992
2668.76	8.85476
2670.11	8.89909
2671.46	8.66315
2672.81	8.69285
2674.16	8.44653
2675.51	7.7544
2676.87	6.97884
2678.22	6.60583
2679.57	6.18777
2680.92	6.40246
2682.27	6.44498
2683.62	6.31871
2684.97	6.92265
2686.31	6.84845
2687.66	6.90518
2689.01	7.31434
2690.36	8.04115
2691.71	7.5349
2693.06	7.18881
2694.4	7.0691
2695.75	6.35106
2697.1	6.32254
2698.45	5.8201
2699.79	6.00995
2701.14	6.32823
2702.49	6.47628
2703.83	7.73359
2705.18	7.5294
2706.52	7.13427
2707.87	8.35014
2709.21	8.65604
2710.56	8.67715
2711.9	8.85638
2713.25	8.77104
2714.59	9.55663
2715.94	9.95916
2717.28	9.84412
2718.62	10.4031
2719.97	10.4061
2721.31	10.809
2722.65	10.0037
2723.99	10.3828
2725.34	10.7118
2726.68	11.1784
2728.02	10.176
2729.36	10.4242
2730.7	10.5414
2732.04	10.2487
2733.39	10.2223
2734.73	9.97453
2736.07	9.14304
2737.41	8.61831
2738.75	7.82478
2740.08	7.4745
2741.43	7.20332
2742.76	6.55371
2744.1	6.49848
2745.44	6.08431
2746.78	6.54034
2748.12	7.17812
2749.46	6.81833
2750.79	7.56492
2752.13	7.35482
2753.47	6.15198
2754.81	6.21958
2756.14	5.47919
2757.48	5.91586
2758.81	5.42361
2760.15	5.04277
2761.49	4.83574
2762.82	4.54131
2764.16	4.28339
2765.49	3.91025
2766.83	3.90122
2768.16	4.31907
2769.5	3.92854
2770.83	3.2948
2772.16	2.41551
2773.5	2.49331
2774.83	2.60021
2776.17	1.58649
2777.5	1.42208
2778.83	1.46457
2780.16	1.45937
2781.5	1.4236
2782.83	1.41312
2784.16	1.0406
2785.49	0.389744
2786.82	0.565281
2788.15	0.281822
2789.49	-0.0405513
2790.82	0.407537
2792.15	-0.0834664
2793.48	-0.429892
2794.81	-1.07875
2796.14	-0.728027
2797.46	-1.35437
2798.79	-1.78592
2800.12	-1.39344
2801.45	-1.75975
2802.78	-2.34442
2804.11	-2.47952
2805.44	-2.68408
2806.76	-2.05601
2808.09	-2.19525
2809.42	-1.98435
2810.75	-1.59868
2812.07	-1.4162
2813.4	-0.485368
2814.73	0.119947
2816.05	0.0758296
2817.38	0.810042
2818.7	1.48234
2820.03	2.28041
2821.36	4.42329
2822.68	5.72898
2824.01	7.58859
2825.33	8.43423
2826.65	9.51985
2827.98	10.7488
2829.3	12.227
2830.63	13.4228
2831.95	15.2236
2833.27	16.8457
2834.6	18.716
2835.92	20.8768
2837.24	22.9011
2838.56	25.5475
2839.88	28.362
2841.21	31.596
2842.53	34.5935
2843.85	37.7011
2845.17	41.5352
2846.49	44.8961
2847.81	48.9106
2849.13	53.208
2850.45	56.8407
2851.77	61.1758
2853.09	65.0104
2854.41	69.0321
2855.73	73.3209
2857.05	77.2152
2858.37	80.4171
2859.69	84.3264
2861	88.0734
2862.32	91.6673
2863.64	94.6717
2864.96	98.4818
2866.28	102.128
2867.59	104.982
2868.91	108.562
2870.23	112.193
2871.54	115.65
2872.86	119.341
2874.17	121.753
2875.49	124.564
2876.81	127.122
2878.12	129.478
2879.44	131.366
2880.75	133.484
2882.07	134.905
2883.38	137.055
2884.69	139.744
2886.01	141.955
2887.32	143.08
2888.63	144.306
2889.95	145.576
2891.26	147.001
2892.57	148.213
2893.89	148.676
2895.2	150.232
2896.51	151.517
2897.82	153.51
2899.13	155.549
2900.44	158.064
2901.76	161.472
2903.07	163.972
2904.38	167.318
2905.69	170.53
2907	174.401
2908.31	179.029
2909.62	183.325
2910.93	187.427
2912.24	192.143
2913.55	197.514
2914.85	201.69
2916.16	205.263
2917.47	208.692
2918.78	212.1
2920.09	215.707
2921.4	219.031
2922.7	221.658
2924.01	224.619
2925.32	227.386
2926.62	228.642
2927.93	229.619
2929.24	231.161
2930.54	232.191
2931.85	232.798
2933.15	233.149
2934.46	233.443
2935.76	232.591
2937.07	230.395
2938.37	228.758
2939.68	226.999
2940.98	224.74
2942.29	222.142
2943.59	219.233
2944.89	215.78
2946.2	213.576
2947.5	210.11
2948.8	206.741
2950.11	202.528
2951.41	198.535
2952.71	194.059
2954.01	189.963
2955.32	185.886
2956.62	180.881
2957.92	176.439
2959.22	171.644
2960.52	168.356
2961.82	164.151
2963.12	160.518
2964.42	156.435
2965.72	153.143
2967.02	149.516
2968.32	145.412
2969.62	142.46
2970.92	139.384
2972.22	136.18
2973.51	132.988
2974.81	128.654
2976.11	124.968
2977.41	122.269
2978.71	118.294
2980	114.23
2981.3	110.289
2982.6	106.425
2983.9	103.096
2985.19	99.2686
2986.49	95.6964
2987.78	91.4954
2989.08	87.4788
2990.38	83.213
2991.67	78.8555
2992.97	75.4217
2994.26	71.7059
2995.56	67.6622
2996.85	63.9558
2998.14	60.1253
2999.44	56.5557
3000.73	52.194
3002.03	48.5017
3003.32	45.8662
3004.61	42.6939
3005.91	39.5005
3007.2	36.3109
3008.49	33.6172
3009.78	30.9578
3011.07	29.7442
3012.37	26.2837
3013.66	23.7788
3014.95	21.0234
3016.24	19.662
3017.53	17.3358
3018.82	15.5367
3020.11	14.4995
3021.4	12.2818
3022.69	10.9751
3023.98	9.65178
3025.27	9.01426
3026.56	7.08494
3027.85	5.75121
3029.14	4.90654
3030.43	4.03182
3031.71	3.57292
3033	3.22475
3034.29	3.16341
3035.58	2.51228
3036.87	1.98296
3038.15	2.40609
3039.44	2.95407
3040.73	3.31375
3042.01	3.6867
3043.3	4.21369
3044.59	4.91618
3045.87	5.18095
3047.16	5.48683
3048.44	5.7608
3049.73	6.17724
3051.01	6.96357
3052.3	7.43052
3053.58	7.53523
3054.87	6.7885
3056.15	6.7707
3057.43	6.81679
3058.72	6.95872
3060	6.71601
3061.29	6.33931
3062.57	5.95366
3063.85	6.25319
3065.13	5.68101
3066.42	5.74931
3067.7	6.18513
3068.98	5.91399
3070.26	5.61383
3071.54	5.13613
3072.82	5.17722
3074.11	5.23844
3075.39	4.77773
3076.67	3.17504
3077.95	2.89782
3079.23	2.32489
3080.51	2.68138
3081.79	1.87199
3083.07	1.60306
3084.35	0.908162
3085.63	0.171922
3086.9	-0.206285
3088.18	-0.0335057
3089.46	-0.656396
3090.74	-0.903811
3092.02	-1.31107
3093.29	-1.03126
3094.57	-0.9427
3095.85	-0.239584
3097.13	-0.623144
3098.4	-0.275033
3099.68	0.0993763
3100.95	0.524683
3102.23	1.61998
3103.51	1.44783
3104.78	1.20273
3106.06	1.49856
3107.33	2.1906
3108.61	2.73783
3109.88	3.04974
3111.16	3.27116
3112.43	3.66826
3113.71	4.80448
3114.98	5.16852
3116.25	5.23284
3117.53	5.36798
3118.8	5.47727
3120.07	6.70186
3121.35	7.17507
3122.62	7.77614
3123.89	7.9289
3125.16	8.72485
3126.44	9.57383
3127.71	10.3287
3128.98	10.3968
3130.25	11.0924
3131.52	11.7723
3132.79	11.4783
3134.06	11.8601
3135.33	12.602
3136.6	13.2567
3137.87	13.5442
3139.14	13.5946
3140.41	13.7258
3141.68	14.0825
3142.95	14.296
3144.22	14.5541
3145.49	14.9011
3146.76	15.0714
3148.02	15.291
3149.29	15.7254
