#Acq. time (s)=	45
#Accumulations=	2
#Range (cm-¹)=	200...3150
#Windows=	2
#Auto scanning=	Off
#Autofocus=	Off
#Macrospot=	Off
#AutoExposure=	Off
#Spike filter=	Multiple accum.
#Delay time (s)=	0
#Binning=	1
#Readout mode=	Signal
#DeNoise=	Off
#ICS correction=	On
#Dark correction=	Off
#Inst. Process=	Off
#Detector Gain=	Best Dynamic Range
#Detector ADC=	20 kHz       
#Detector temperature (°C)=	-69.85
#Instrument=	LabRAM HR Evol
#Detector=	Synapse
#Objective=	x100
#Grating=	600 gr/mm
#ND Filter=	100%
#Laser (nm)=	532 
#Hole=	100.021
#Range=	Auto
#Laser Pol.=	No
#Raman. Pol.=	No
#Laser Pol. (°)=	-0.0007625
#Raman Pol. (°)=	89.9995
#Collection=	Microscope
#StageXY=	Marzhauser
#StageZ=	Marzhauser
#X (µm)=	-974.7
#Y (µm)=	-2924.1
#Z (µm)=	527.75
#Full time(mm:ss)=	3:18
#Project=	
#Sample=	
#Site=	
#Title=	Mb_00_13_05_2x_45s_532 nm_x100_100%_600 gr_mm
#Remark=	
#Date=	06.07.2022 10:02
#Acquired=	06.07.2022 10:02:08
#Base:Fit=	10.08.2022 10:16:36
#Base:Fit=	10.08.2022 10:16:56
#Base:Sub=	10.08.2022 10:17:24
#Filter:Polynom=	16.08.2022 10:36:38
#AxisType[0]=Intens
#AxisUnit[0]=Cnt
#AxisType[1]=Spectr
#AxisUnit[1]=1/cm
200.398	18.0346
202.213	21.9881
204.027	20.9573
205.843	21.2764
207.657	21.419
209.47	21.5671
211.283	22.4019
213.097	23.0549
214.909	23.5624
216.721	26.0644
218.533	30.757
220.344	34.589
222.157	40.2415
223.967	45.8576
225.777	51.9401
227.587	57.7743
229.396	63.7681
231.205	69.7685
233.016	74.4442
234.824	78.0643
236.632	83.4933
238.439	88.0387
240.247	91.7407
242.053	95.079
243.86	97.4985
245.666	100.31
247.474	102.332
249.279	105.081
251.085	106.252
252.889	108.693
254.694	111.517
256.498	112.958
258.301	114.987
260.105	116.182
261.908	117.057
263.71	117.043
265.513	117.363
267.315	115.824
269.116	114.131
270.918	111.898
272.718	109.404
274.519	107.213
276.319	103.941
278.119	100.102
279.918	96.0232
281.718	91.4184
283.516	84.943
285.315	78.8292
287.113	72.5266
288.911	68.3062
290.708	62.8915
292.505	58.9622
294.302	55.6736
296.098	50.7343
297.894	46.2099
299.69	42.4976
301.485	38.7139
303.278	34.3933
305.073	31.6564
306.867	30.3121
308.661	28.2996
310.454	25.8667
312.247	24.6472
314.04	21.2139
315.833	20.5192
317.623	18.5417
319.415	17.3773
321.206	15.9953
322.997	13.6032
324.788	13.2553
326.579	13.4513
328.367	12.7761
330.156	12.786
331.946	13.3602
333.735	12.7857
335.523	13.7011
337.31	12.6815
339.098	13.2228
340.885	12.1426
342.673	10.837
344.458	10.0309
346.244	9.25548
348.03	8.76204
349.816	7.98017
351.6	7.41541
353.385	6.05888
355.17	6.90331
356.953	6.15087
358.737	5.79692
360.521	5.91116
362.304	8.14273
364.085	9.91538
365.868	12.5244
367.65	14.2286
369.431	16.0796
371.212	18.098
372.994	19.9342
374.773	23.3475
376.554	26.4023
378.332	28.5829
380.112	32.4088
381.892	36.6418
383.669	39.9399
385.448	43.636
387.225	47.9577
389.003	53.1313
390.781	58.4936
392.557	62.7824
394.334	67.0014
396.109	71.8122
397.885	75.8231
399.66	78.4541
401.436	81.451
403.211	84.7575
404.984	89.1243
406.759	90.8379
408.532	92.4142
410.306	93.9457
412.078	94.0931
413.851	95.4013
415.623	94.7503
417.395	93.4339
419.166	92.0181
420.938	89.5001
422.708	87.0228
424.477	84.0791
426.248	79.9025
428.017	77.0299
429.788	72.8033
431.556	68.3561
433.326	64.6386
435.093	60.4342
436.86	54.149
438.629	48.13
440.395	42.8525
442.163	37.8334
443.929	33.8651
445.694	28.1793
447.461	24.3764
449.226	20.7371
450.99	17.7018
452.756	14.0383
454.52	9.9193
456.285	5.50348
458.048	3.20884
459.811	1.3945
461.573	-0.631703
463.337	-0.630565
465.099	-0.422271
466.86	-0.433546
468.623	1.15881
470.384	1.67954
472.144	2.08028
473.906	3.42521
475.666	5.30951
477.425	6.18444
479.184	5.69614
480.944	5.1976
482.703	6.54278
484.461	8.58829
486.218	10.0557
487.975	10.8246
489.734	13.3942
491.491	14.9104
493.247	16.7648
495.003	18.8127
496.759	19.5382
498.516	22.338
500.271	23.4079
502.025	25.8536
503.779	27.5624
505.533	28.8644
507.287	30.3178
509.042	33.202
510.795	35.9432
512.547	37.3409
514.299	40.0696
516.051	41.9538
517.803	42.4918
519.554	43.2793
521.305	43.8725
523.055	43.5782
524.805	44.1324
526.555	44.4887
528.307	44.3936
530.056	43.7822
531.805	42.7658
533.553	40.8826
535.301	39.8633
537.049	38.7972
538.797	38.8904
540.544	37.3508
542.291	36.123
544.037	35.7652
545.783	36.215
547.529	33.9123
549.275	32.5065
551.02	31.3542
552.765	29.5653
554.509	26.534
556.253	24.6804
557.997	22.6596
559.738	20.5627
561.482	20.0894
563.224	18.2581
564.967	16.0463
566.709	15.087
568.451	14.8691
570.192	14.1855
571.933	14.1777
573.674	12.8004
575.415	11.7489
577.153	12.3161
578.893	12.1885
580.632	11.1027
582.371	9.59362
584.11	9.00696
585.849	9.54105
587.587	8.28028
589.323	8.51686
591.06	8.37498
592.797	6.34539
594.534	7.37732
596.271	8.63649
598.005	7.64472
599.741	8.68994
601.476	9.01092
603.211	7.99645
604.944	8.26017
606.679	9.67909
608.413	9.50927
610.147	9.50979
611.878	9.17823
613.611	8.00946
615.344	6.04064
617.077	5.25717
618.807	4.43046
620.539	4.36958
622.27	5.14345
623.999	5.77743
625.73	6.50994
627.461	6.6938
629.189	9.34367
630.919	10.589
632.648	11.9768
634.376	12.8277
636.105	14.9703
637.833	15.6598
639.559	16.8249
641.287	17.8787
643.013	20.8972
644.74	21.6639
646.467	22.7716
648.192	23.8698
649.918	23.2493
651.642	23.2967
653.368	23.2153
655.091	22.8218
656.816	23.2864
658.538	23.6274
660.263	23.0642
661.987	23.0884
663.708	22.9423
665.432	22.2601
667.153	21.4222
668.875	21.656
670.596	22.4346
672.318	22.9334
674.037	22.6709
675.759	23.0749
677.478	22.058
679.196	21.5389
680.917	22.3013
682.635	21.6554
684.355	21.7507
686.072	22.5665
687.791	21.4096
689.508	20.8021
691.224	20.2031
692.942	19.9424
694.658	18.1197
696.376	17.827
698.091	16.0987
699.805	17.0339
701.522	16.9332
703.236	17.9342
704.95	18.7776
706.665	19.6571
708.379	22.2852
710.093	24.5009
711.806	26.4616
713.518	27.6766
715.23	28.5748
716.943	28.1872
718.655	29.3522
720.366	29.8305
722.078	30.3297
723.788	31.3457
725.498	31.8245
727.208	32.4157
728.919	32.9999
730.628	32.7782
732.337	33.8382
734.045	33.6701
735.755	32.7345
737.463	33.069
739.17	33.5442
740.877	34.9859
742.584	36.786
744.292	37.2817
745.998	37.0854
747.704	37.8924
749.409	38.8241
751.114	39.7012
752.819	40.2436
754.526	41.6815
756.23	42.98
757.934	43.5809
759.637	42.4269
761.34	41.7383
763.043	40.6147
764.746	40.9447
766.448	41.4067
768.152	42.4259
769.853	41.741
771.554	42.1598
773.255	42.5314
774.956	43.2771
776.656	43.9205
778.356	46.0209
780.056	45.997
781.755	45.6888
783.454	47.1715
785.153	49.7085
786.851	50.0434
788.549	50.8671
790.247	52.2448
791.944	53.5311
793.641	55.0484
795.338	54.5132
797.034	54.2117
798.73	54.5596
800.426	54.8139
802.121	56.9219
803.817	58.515
805.511	59.6276
807.206	61.1694
808.9	61.0303
810.592	61.1324
812.286	62.2299
813.979	61.876
815.672	63.0898
817.364	64.0741
819.057	64.252
820.748	65.1524
822.44	66.2182
824.129	67.9937
825.82	68.9866
827.511	69.6579
829.201	69.3367
830.891	70.0265
832.581	71.3671
834.269	70.8862
835.958	70.629
837.646	71.3189
839.335	70.5029
841.023	69.1057
842.709	67.6608
844.396	65.7301
846.084	64.7938
847.77	64.1615
849.455	64.8004
851.141	64.4973
852.827	61.8801
854.513	59.4073
856.196	58.0974
857.881	55.8132
859.566	55.5225
861.248	53.7033
862.932	51.7715
864.616	50.2557
866.297	49.6925
867.98	49.9672
869.663	48.5474
871.343	46.3391
873.026	45.3793
874.707	44.6095
876.387	42.617
878.068	40.4478
879.747	39.5374
881.428	39.2486
883.108	39.9561
884.786	40.2622
886.465	40.513
888.143	39.5394
889.822	38.9616
891.498	37.5166
893.177	36.8595
894.855	37.763
896.53	38.0195
898.208	38.8371
899.883	41.5908
901.56	41.9183
903.234	42.8552
904.91	43.9725
906.584	45.0837
908.26	46.718
909.933	46.6495
911.608	47.0121
913.28	47.8166
914.955	47.682
916.627	47.9325
918.298	48.2816
919.972	49.2132
921.643	49.6535
923.315	49.1951
924.986	49.482
926.656	49.1417
928.328	49.1783
929.997	49.8454
931.668	50.0684
933.337	50.0499
935.006	50.0349
936.676	49.1302
938.344	49.0552
940.012	48.7659
941.681	47.8599
943.348	48.084
945.014	46.6653
946.683	45.4794
948.349	45.1102
950.015	44.1181
951.682	43.2293
953.347	42.4677
955.012	41.4364
956.676	39.6487
958.343	38.0577
960.006	37.2443
961.67	38.9947
963.333	42.1185
964.998	43.9137
966.661	45.9971
968.323	47.9198
969.985	48.686
971.649	50.3471
973.31	52.1106
974.971	55.1653
976.632	57.0435
978.293	60.0213
979.953	60.7858
981.615	62.3511
983.274	62.887
984.933	64.2833
986.592	65.149
988.251	65.8112
989.909	66.6185
991.567	67.3476
993.225	68.8324
994.884	69.9507
996.541	71.197
998.198	71.8414
999.855	72.2877
1001.51	72.702
1003.17	72.8891
1004.82	72.2449
1006.48	72.7596
1008.13	73.0787
1009.79	73.1159
1011.44	72.7914
1013.1	73.0953
1014.75	74.5421
1016.4	76.7297
1018.06	78.9095
1019.71	81.5114
1021.36	83.7811
1023.01	86.5006
1024.66	88.8146
1026.32	91.7937
1027.97	94.9896
1029.62	96.8693
1031.27	100.389
1032.92	102.483
1034.57	103.927
1036.22	104.684
1037.87	105.86
1039.52	107.012
1041.16	110.075
1042.81	112.496
1044.46	115.252
1046.11	116.682
1047.76	116.23
1049.4	115.972
1051.05	114.922
1052.7	113.494
1054.34	112.764
1055.99	111.989
1057.63	110.419
1059.28	107.464
1060.92	106.221
1062.57	102.63
1064.21	99.585
1065.85	95.9645
1067.5	92.6264
1069.14	88.0833
1070.78	85.1081
1072.43	80.5881
1074.07	77.3817
1075.71	74.4671
1077.35	68.9911
1078.99	63.7527
1080.63	58.896
1082.27	53.6508
1083.91	50.2993
1085.55	46.3592
1087.19	42.0762
1088.83	39.6973
1090.47	37.4992
1092.11	35.4613
1093.75	35.3019
1095.39	36.2307
1097.03	37.429
1098.66	38.1541
1100.3	38.4706
1101.94	39.4852
1103.57	39.155
1105.21	38.7915
1106.84	36.2831
1108.48	35.4558
1110.11	35.3965
1111.75	34.0009
1113.38	32.1182
1115.02	29.2225
1116.65	26.8739
1118.29	25.9305
1119.92	24.2838
1121.55	23.8673
1123.19	21.6833
1124.82	20.0246
1126.45	17.8232
1128.08	16.8681
1129.71	15.1474
1131.34	14.3506
1132.97	13.3076
1134.6	14.0985
1136.23	13.6632
1137.86	12.8512
1139.49	11.6705
1141.12	11.4725
1142.75	10.2582
1144.38	8.97328
1146.01	8.29692
1147.64	8.6191
1149.26	7.42279
1150.89	7.4663
1152.52	7.5009
1154.15	8.01672
1155.77	8.7841
1157.4	8.44679
1159.02	8.12598
1160.65	8.08294
1162.27	8.36466
1163.9	8.10368
1165.52	9.57897
1167.15	11.4461
1168.77	12.8604
1170.39	15.2553
1172.02	17.8079
1173.64	19.9269
1175.26	22.3287
1176.89	24.1671
1178.51	24.4988
1180.13	26.5087
1181.75	28.3547
1183.37	30.406
1184.99	31.8939
1186.61	32.7759
1188.23	34.9781
1189.85	38.4361
1191.47	39.2948
1193.09	41.4333
1194.71	42.598
1196.33	45.3141
1197.94	48.382
1199.56	51.8907
1201.18	53.6516
1202.8	56.073
1204.41	57.5691
1206.03	60.4507
1207.65	63.1881
1209.26	66.3631
1210.88	68.2543
1212.49	71.3837
1214.11	73.9815
1215.72	76.9459
1217.34	78.4261
1218.95	80.3844
1220.57	82.6055
1222.18	85.8809
1223.79	87.9342
1225.41	89.3515
1227.02	91.9592
1228.63	92.0266
1230.24	93.2277
1231.85	96.0754
1233.47	97.8512
1235.08	100.137
1236.69	100.667
1238.3	101
1239.91	101.82
1241.52	101.991
1243.13	102.555
1244.74	103.948
1246.34	106.18
1247.95	106.856
1249.56	105.57
1251.17	105.37
1252.78	105.57
1254.38	104.684
1255.99	104.616
1257.6	103.779
1259.2	102.857
1260.81	104.045
1262.42	104.493
1264.02	104.763
1265.63	104.366
1267.23	104.158
1268.84	104.755
1270.44	103.978
1272.04	103.918
1273.65	105.438
1275.25	105.388
1276.85	106.44
1278.46	106.296
1280.06	107.535
1281.66	107.267
1283.26	107.608
1284.86	108.316
1286.46	109.155
1288.07	110.038
1289.67	111.033
1291.27	112.415
1292.87	114.407
1294.47	114.46
1296.06	115.388
1297.66	116.659
1299.26	118.983
1300.86	120.481
1302.46	121.098
1304.06	120.925
1305.65	122.625
1307.25	124.704
1308.85	125.761
1310.44	127.256
1312.04	128.346
1313.64	129.545
1315.23	129.649
1316.83	129.183
1318.42	128.94
1320.02	129.414
1321.61	129.519
1323.2	129.257
1324.8	129.266
1326.39	128.305
1327.99	127.294
1329.58	127.144
1331.17	127.93
1332.76	127.774
1334.36	127.531
1335.95	127.845
1337.54	126.851
1339.13	126.524
1340.72	125.922
1342.31	124.662
1343.9	122.094
1345.49	120.577
1347.08	119.606
1348.67	119.406
1350.26	118.052
1351.85	116.996
1353.43	115.226
1355.02	114.81
1356.61	112.435
1358.2	109.253
1359.78	108.171
1361.37	104.007
1362.96	102.459
1364.54	100.552
1366.13	99.4956
1367.71	97.4862
1369.3	95.4642
1370.88	93.7059
1372.47	91.6331
1374.05	89.966
1375.64	89.1685
1377.22	88.0429
1378.8	87.227
1380.39	84.1666
1381.97	82.5992
1383.55	82.1203
1385.13	82.8251
1386.72	81.8087
1388.3	81.3416
1389.88	80.2688
1391.46	79.7346
1393.04	78.3278
1394.62	76.7401
1396.2	75.8657
1397.78	75.3642
1399.36	75.3731
1400.94	75.0273
1402.52	76.5582
1404.1	78.3413
1405.68	80.1676
1407.25	82.1533
1408.83	86.8129
1410.41	89.1763
1411.98	93.1346
1413.56	97.932
1415.14	102.503
1416.71	106.239
1418.29	110.848
1419.87	115.8
1421.44	119.937
1423.02	125.383
1424.59	132.708
1426.16	138.323
1427.74	144.381
1429.31	148.914
1430.89	153.291
1432.46	157.7
1434.03	162.072
1435.6	164.856
1437.18	168.25
1438.75	172.401
1440.32	175.055
1441.89	178.319
1443.46	181.032
1445.03	184.284
1446.6	183.924
1448.17	184.101
1449.74	183.789
1451.31	182.007
1452.88	180.837
1454.45	178.184
1456.02	175.203
1457.59	171.091
1459.16	167.359
1460.72	164.116
1462.29	160.043
1463.86	156.138
1465.43	150.398
1466.99	143.935
1468.56	137.712
1470.13	130.342
1471.69	124.177
1473.26	118.835
1474.82	113.07
1476.38	106.815
1477.95	100.34
1479.51	95.0794
1481.08	90.1577
1482.64	85.4756
1484.2	80.6828
1485.77	77.0203
1487.33	73.8246
1488.89	68.2422
1490.46	66.0471
1492.02	62.5605
1493.58	59.0811
1495.14	56.2035
1496.7	55.167
1498.26	53.5772
1499.82	52.1036
1501.38	51.6185
1502.94	51.0333
1504.5	48.7502
1506.06	48.0093
1507.62	46.8321
1509.18	45.9823
1510.73	46.1242
1512.29	45.6776
1513.85	45.1912
1515.41	45.2672
1516.96	45.3641
1518.52	46.0668
1520.08	46.2775
1521.63	48.2524
1523.19	48.1109
1524.75	46.9832
1526.3	47.3397
1527.85	47.7501
1529.41	47.5529
1530.96	48.9339
1532.52	49.1918
1534.07	49.9192
1535.62	50.4987
1537.18	52.919
1538.73	54.5765
1540.28	55.4683
1541.84	56.5534
1543.39	56.3877
1544.94	58.2157
1546.49	59.0959
1548.04	59.8865
1549.59	61.5639
1551.14	62.7378
1552.69	63.3643
1554.25	63.3998
1555.79	64.1752
1557.34	65.6067
1558.89	66.1268
1560.44	67.5461
1561.99	67.3389
1563.54	67.5406
1565.08	67.4812
1566.63	69.488
1568.18	71.878
1569.73	74.2441
1571.27	76.7603
1572.82	78.4195
1574.37	80.2155
1575.91	81.2897
1577.46	82.8242
1579	84.316
1580.55	85.7129
1582.09	87.3774
1583.64	89.9604
1585.18	91.2191
1586.73	92.0823
1588.27	94.1547
1589.81	95.5075
1591.35	96.5991
1592.9	98.333
1594.44	99.5995
1595.98	101.644
1597.52	102.502
1599.06	103.68
1600.61	103.567
1602.15	104.623
1603.69	104.326
1605.23	103.776
1606.77	102.599
1608.31	103.082
1609.85	101.631
1611.39	101.305
1612.93	101.676
1614.46	103.319
1616	103.704
1617.54	103.952
1619.08	104.086
1620.61	104.996
1622.15	106.282
1623.69	106.112
1625.23	108.015
1626.76	109.561
1628.3	110.366
1629.83	111.435
1631.37	112.546
1632.9	114.147
1634.44	116.268
1635.97	117.803
1637.51	119.156
1639.04	121.02
1640.57	124.098
1642.11	126.716
1643.64	129.463
1645.17	131.681
1646.71	133.521
1648.24	134.75
1649.77	135.498
1651.3	137.884
1652.83	138.36
1654.36	138.837
1655.89	139.081
1657.42	139.024
1658.96	139.507
1660.48	138.989
1662.01	137.996
1663.54	136.831
1665.07	136.355
1666.6	134.798
1668.13	131.433
1669.66	128.724
1671.19	125.361
1672.71	121.76
1674.24	117.211
1675.77	112.314
1677.29	107.977
1678.82	102.39
1680.35	97.1223
1681.87	91.1186
1683.4	85.2785
1684.92	80.4465
1686.45	75.4411
1687.97	71.1119
1689.5	66.947
1691.02	62.6019
1692.54	57.9676
1694.07	52.1016
1695.59	47.2457
1697.11	43.9752
1698.64	39.7206
1700.16	37.331
1701.68	35.2449
1703.2	31.5703
1704.72	28.4617
1706.25	25.9281
1707.77	24.4835
1709.29	21.5222
1710.81	19.2945
1712.33	16.3796
1713.85	14.132
1715.37	12.8435
1716.89	11.5644
1718.41	9.743
1719.92	8.83007
1721.44	8.11055
1722.96	7.09387
1724.48	6.62228
1725.99	6.56472
1727.51	6.75758
1729.03	5.44671
1730.55	5.76132
1732.06	5.39876
1733.58	6.22537
1735.09	7.0077
1736.61	7.20642
1738.13	7.45505
1739.64	7.75004
1741.15	8.13781
1742.67	7.70894
1744.18	6.52702
1745.7	6.86884
1747.21	7.00007
1748.72	7.81015
1750.24	7.60097
1751.75	7.57321
1753.26	7.85787
1754.77	6.5468
1756.29	6.36964
1757.8	5.22674
1759.31	5.60751
1760.82	6.77332
1762.33	6.70136
1763.84	6.32772
1765.35	6.2659
1766.86	6.42698
1768.37	6.03213
1769.88	4.79089
1771.39	5.4174
1772.9	5.36087
1774.4	4.48221
1775.91	4.41422
1777.42	3.41969
1778.93	2.4218
1780.44	2.64085
1781.94	2.35286
1783.45	2.37691
1784.96	1.18885
1786.46	0.938478
1787.97	0.711112
1789.47	0.396256
1790.98	0.791386
1792.48	0.834667
1793.99	1.1508
1795.49	1.04486
1797	0.97491
1798.5	1.35358
1800.01	0.897198
1801.51	1.22622
1803.01	0.9207
1804.51	0.143995
1806.02	0.788115
1807.52	1.193
1809.02	1.74746
1810.52	1.83662
1812.02	2.004
1813.52	2.45975
1815.02	2.97065
1816.53	3.01469
1818.03	2.66346
1819.52	2.7151
1821.02	2.89625
1822.52	3.26245
1824.02	3.2957
1825.52	2.76823
1827.02	2.98554
1828.52	3.14217
1830.02	2.94985
1831.51	3.81606
1833.01	4.12159
1834.51	4.93188
1836.01	5.3535
1837.5	5.01596
1839	4.93439
1840.49	4.30592
1841.99	3.68645
1843.49	3.46088
1844.98	3.69786
1846.48	4.49141
1847.97	4.65817
1849.47	4.35395
1850.96	5.21626
1852.45	5.91796
1853.95	6.79443
1855.44	7.7556
1856.93	8.06567
1858.42	8.69422
1859.92	8.97019
1861.41	9.13976
1862.9	9.10593
1864.39	8.92069
1865.88	9.77842
1867.38	9.77712
1868.87	9.8216
1870.36	9.48673
1871.85	9.24579
1873.34	9.09191
1874.83	9.44577
1876.32	9.4403
1877.81	9.40435
1879.29	8.76095
1880.78	8.79978
1882.27	8.58999
1882.53	8.35919
1884.03	8.56647
1885.52	8.33474
1887.01	8.35181
1888.51	7.89025
1890	6.57388
1891.5	5.27623
1892.99	5.23658
1894.48	5.19479
1895.97	5.73295
1897.47	5.54609
1898.96	5.68719
1900.45	6.04926
1901.94	6.14934
1903.43	6.3813
1904.92	6.90794
1906.41	7.10043
1907.9	7.81105
1909.39	7.61857
1910.88	7.77524
1912.37	8.30076
1913.86	8.46404
1915.35	9.60816
1916.84	10.7321
1918.33	11.0723
1919.81	11.6966
1921.3	11.7194
1922.79	12.0521
1924.28	12.5953
1925.76	12.2735
1927.25	12.3093
1928.73	12.1253
1930.22	11.5126
1931.71	11.1402
1933.19	10.9397
1934.68	10.2525
1936.16	9.91791
1937.65	10.5561
1939.13	9.96055
1940.62	8.54105
1942.1	8.83962
1943.58	8.69649
1945.07	8.04766
1946.55	7.8293
1948.03	7.67247
1949.51	6.86076
1951	6.40344
1952.48	5.98198
1953.96	5.89407
1955.44	5.49846
1956.92	4.94931
1958.4	4.57628
1959.88	3.7462
1961.36	3.23607
1962.84	2.52161
1964.32	2.33183
1965.8	3.23836
1967.28	3.5501
1968.76	3.31659
1970.24	2.78076
1971.72	2.7599
1973.2	3.66264
1974.67	4.36105
1976.15	4.7983
1977.63	5.58846
1979.1	6.35562
1980.58	6.31631
1982.06	6.58652
1983.54	6.26253
1985.01	6.76465
1986.49	6.75411
1987.96	6.67909
1989.44	6.69599
1990.91	6.83447
1992.39	6.82514
1993.86	7.18326
1995.33	6.59361
1996.81	6.74974
1998.28	7.35464
1999.75	7.27634
2001.23	8.28487
2002.7	8.74327
2004.17	9.04581
2005.65	9.51486
2007.12	10.3683
2008.59	9.80424
2010.06	9.4727
2011.53	9.18221
2013	7.84261
2014.47	8.11852
2015.94	9.76417
2017.41	9.17026
2018.88	9.06896
2020.35	9.28745
2021.82	9.22074
2023.29	10.4022
2024.76	10.7158
2026.23	10.5038
2027.69	10.5064
2029.16	10.6754
2030.63	11.2089
2032.1	11.069
2033.56	11.2312
2035.03	10.95
2036.5	11.0558
2037.96	10.8644
2039.43	10.0605
2040.89	9.49562
2042.36	9.70087
2043.83	10.0728
2045.29	11.5937
2046.75	11.9533
2048.22	11.65
2049.68	11.3758
2051.15	11.9271
2052.61	11.6749
2054.07	11.0852
2055.54	10.9995
2057	11.3969
2058.46	12.3014
2059.92	12.0661
2061.39	12.4134
2062.85	12.6034
2064.31	13.4809
2065.77	12.8621
2067.23	13.4844
2068.69	13.9366
2070.15	15.7368
2071.61	16.3646
2073.07	15.8529
2074.53	15.9442
2075.99	15.8633
2077.45	15.0237
2078.91	14.7905
2080.37	14.2821
2081.82	12.8103
2083.28	12.1933
2084.74	12.6888
2086.2	12.6885
2087.65	12.6954
2089.11	12.6872
2090.57	12.0694
2092.02	12.0799
2093.48	11.3255
2094.94	11.294
2096.39	10.8994
2097.85	9.70321
2099.3	9.51764
2100.76	10.6853
2102.21	10.3339
2103.66	9.74947
2105.12	8.92529
2106.57	8.97076
2108.03	8.50561
2109.48	8.47744
2110.93	8.6599
2112.38	8.83482
2113.84	9.0881
2115.29	8.58192
2116.74	8.2586
2118.19	8.07819
2119.64	7.22717
2121.09	7.00808
2122.54	6.68038
2123.99	6.47614
2125.45	6.24443
2126.89	5.71266
2128.34	6.11851
2129.79	6.4604
2131.24	5.8527
2132.69	4.58627
2134.14	4.36984
2135.59	3.82916
2137.04	4.01778
2138.48	3.92084
2139.93	5.03967
2141.38	4.92
2142.83	5.9965
2144.27	4.68562
2145.72	4.81434
2147.17	4.79209
2148.61	4.85422
2150.06	4.08161
2151.5	4.22279
2152.95	3.86194
2154.39	3.56546
2155.84	3.96459
2157.28	4.30175
2158.73	3.44589
2160.17	3.7269
2161.61	3.86279
2163.06	3.93897
2164.5	3.86657
2165.94	4.18667
2167.38	4.68068
2168.83	5.44079
2170.27	6.25876
2171.71	7.14291
2173.15	7.27748
2174.59	6.70167
2176.03	7.59426
2177.47	7.86434
2178.91	9.29065
2180.36	9.45188
2181.8	9.89575
2183.23	9.35701
2184.67	8.97459
2186.11	8.34512
2187.55	7.60644
2188.99	7.28947
2190.43	7.63675
2191.87	8.01513
2193.3	7.68384
2194.74	6.36645
2196.18	6.57795
2197.62	6.24155
2199.05	5.44644
2200.49	6.0367
2201.93	4.9698
2203.36	3.8947
2204.8	4.02376
2206.23	4.93605
2207.67	4.45306
2209.1	4.46754
2210.54	4.50957
2211.97	4.30581
2213.41	4.31286
2214.84	4.94685
2216.27	4.40466
2217.71	5.33983
2219.14	5.45363
2220.57	5.63627
2222.01	6.2241
2223.44	7.0056
2224.87	6.94002
2226.3	6.48185
2227.73	7.17074
2229.16	6.66383
2230.6	7.20635
2232.03	7.20929
2233.46	7.01227
2234.89	7.24971
2236.32	7.33832
2237.75	7.51952
2239.18	7.87213
2240.61	8.38818
2242.03	7.81934
2243.46	8.3413
2244.89	8.8637
2246.32	8.83711
2247.75	9.20701
2249.17	9.06501
2250.6	9.56738
2252.03	9.29092
2253.46	9.16444
2254.88	8.25714
2256.31	8.84794
2257.73	8.29808
2259.16	8.04023
2260.59	7.88692
2262.01	8.20421
2263.44	7.59281
2264.86	6.20548
2266.29	6.03459
2267.71	7.04025
2269.14	6.26015
2270.56	7.07895
2271.98	7.50386
2273.4	7.09497
2274.83	6.90243
2276.25	7.1383
2277.67	6.41997
2279.09	5.24798
2280.52	5.74376
2281.94	5.87897
2283.36	5.94841
2284.78	6.32506
2286.2	6.39181
2287.62	6.63945
2289.04	7.06526
2290.46	6.63149
2291.88	6.23844
2293.3	6.49046
2294.72	5.75389
2296.14	5.46979
2297.56	4.67505
2298.98	5.58334
2300.4	5.81788
2301.82	6.21218
2303.23	6.24518
2304.65	6.94888
2306.07	7.66538
2307.49	8.16517
2308.9	9.35704
2310.32	9.58597
2311.73	9.30872
2313.15	9.57304
2314.57	10.2604
2315.98	10.129
2317.4	9.70019
2318.81	10.2432
2320.23	10.6022
2321.64	11.3698
2323.06	11.5627
2324.47	11.6507
2325.88	10.85
2327.3	10.6438
2328.71	10.7519
2330.12	11.2747
2331.54	11.4059
2332.95	11.7749
2334.36	11.772
2335.77	11.9219
2337.18	12.9032
2338.6	12.5003
2340.01	12.0587
2341.42	12.6949
2342.83	11.4623
2344.24	10.9374
2345.65	10.5172
2347.06	9.84826
2348.47	8.63682
2349.88	7.57923
2351.29	6.94391
2352.7	5.90311
2354.1	5.17324
2355.51	4.19768
2356.92	4.10194
2358.33	3.81089
2359.74	2.63357
2361.14	2.21351
2362.55	2.75479
2363.96	3.01965
2365.36	3.09572
2366.77	3.59574
2368.18	2.77331
2369.58	3.72119
2370.99	3.75274
2372.39	3.54792
2373.8	4.39527
2375.2	3.9793
2376.61	3.82207
2378.01	3.39797
2379.42	4.08469
2380.82	3.88247
2382.22	3.94188
2383.63	4.31432
2385.03	4.71546
2386.43	5.15269
2387.84	5.37262
2389.24	5.96675
2390.64	5.89282
2392.04	6.31904
2393.44	6.46548
2394.84	7.17872
2396.25	5.95375
2397.65	6.414
2399.05	6.42669
2400.45	6.21539
2401.85	6.03078
2403.25	6.19415
2404.65	6.53294
2406.05	6.32157
2407.45	5.63702
2408.84	5.1242
2410.24	5.305
2411.64	5.2052
2413.04	4.4259
2414.44	4.79735
2415.83	4.85621
2417.23	4.72319
2418.63	4.33422
2420.02	3.88532
2421.42	3.96065
2422.82	4.321
2424.21	4.58379
2425.61	4.61589
2427	5.14424
2428.4	4.75871
2429.8	3.98398
2431.19	4.71936
2432.58	4.72785
2433.98	4.23634
2435.37	4.33202
2436.77	4.5265
2438.16	3.88469
2439.55	3.78289
2440.95	4.16895
2442.34	4.39236
2443.73	4.47378
2445.12	3.90174
2446.51	3.74924
2447.91	4.19849
2449.3	4.41526
2450.69	4.56432
2452.08	4.25784
2453.47	4.80639
2454.86	5.11805
2456.25	5.32926
2457.64	4.97499
2459.03	5.14829
2460.42	5.58304
2461.81	5.69556
2463.2	5.67037
2464.59	4.70512
2465.98	3.74343
2467.36	4.40544
2468.75	4.14033
2470.14	4.83101
2471.53	4.8791
2472.92	4.37675
2474.3	4.76862
2475.69	3.96613
2477.08	4.36288
2478.46	5.0227
2479.85	5.46379
2481.23	5.70195
2482.62	6.4084
2484	6.57384
2485.39	6.51515
2486.77	6.45924
2488.16	5.92407
2489.54	5.35847
2490.93	5.69977
2492.31	5.666
2493.69	5.53961
2495.08	5.42207
2496.46	4.87887
2497.84	4.44376
2499.23	4.41279
2500.61	4.35606
2501.99	4.09948
2503.37	4.13476
2504.75	4.43236
2506.13	4.58498
2507.52	4.27072
2508.9	3.45119
2510.28	3.70931
2511.66	3.97394
2513.04	3.59861
2514.42	3.43051
2515.8	3.76897
2517.18	4.65387
2518.55	5.38485
2519.93	5.99369
2521.31	6.21087
2522.69	6.83747
2524.07	7.48889
2525.45	8.09719
2526.82	8.12096
2528.2	8.24471
2529.58	8.69078
2530.95	7.99538
2532.33	8.58674
2533.71	8.38332
2535.08	8.84786
2536.46	8.84297
2537.84	8.34498
2539.21	8.20771
2540.59	7.40041
2541.96	7.88696
2543.34	8.05436
2544.71	7.58562
2546.08	8.08354
2547.46	8.50464
2548.83	9.05407
2550.2	9.0043
2551.58	8.65036
2552.95	8.30419
2554.32	8.95419
2555.7	9.1704
2557.07	8.52997
2558.44	8.58301
2559.81	8.84822
2561.18	8.80147
2562.55	8.49408
2563.93	8.5574
2565.3	8.53536
2566.67	9.54849
2568.04	9.54422
2569.41	9.12542
2570.78	9.04538
2572.15	9.28871
2573.51	9.85589
2574.88	10.3193
2576.25	10.0772
2577.62	9.72733
2578.99	10.9373
2580.36	11.4694
2581.73	11.5128
2583.09	12.3537
2584.46	12.2276
2585.83	11.9254
2587.19	12.035
2588.56	12.1755
2589.93	11.8758
2591.29	12.0387
2592.66	11.9734
2594.02	11.4807
2595.39	10.7847
2596.75	11.1077
2598.12	11.1457
2599.48	10.7339
2600.85	10.4535
2602.21	10.469
2603.58	10.4715
2604.94	10.1199
2606.3	9.53903
2607.67	8.95506
2609.03	9.14976
2610.39	9.83281
2611.76	9.25813
2613.12	8.51727
2614.48	8.90351
2615.84	9.12471
2617.2	8.65643
2618.56	8.18363
2619.92	7.79506
2621.28	8.33273
2622.65	9.11547
2624.01	8.59941
2625.37	8.13862
2626.72	8.46518
2628.08	7.61718
2629.44	7.6002
2630.8	7.34553
2632.16	8.16093
2633.52	8.19827
2634.88	8.24886
2636.24	7.83508
2637.59	7.80352
2638.95	8.37233
2640.31	9.36179
2641.67	9.3771
2643.02	8.89039
2644.38	9.29701
2645.74	9.98072
2647.09	10.7504
2648.45	11.5
2649.8	11.8225
2651.16	11.7511
2652.51	11.2442
2653.87	11.6115
2655.22	12.0578
2656.58	12.3663
2657.93	11.9884
2659.29	12.369
2660.64	12.9718
2661.99	12.9328
2663.35	13.4512
2664.7	13.8156
2666.05	12.9861
2667.41	12.9172
2668.76	12.7837
2670.11	13.2073
2671.46	13.4904
2672.81	13.5204
2674.16	12.9955
2675.51	13.5942
2676.87	14.2523
2678.22	14.1772
2679.57	14.4049
2680.92	13.9623
2682.27	14.8553
2683.62	13.9381
2684.97	13.5301
2686.31	13.8515
2687.66	13.2326
2689.01	13.6322
2690.36	13.6007
2691.71	12.4398
2693.06	11.9042
2694.4	12.126
2695.75	12.3697
2697.1	13.4611
2698.45	13.6567
2699.79	14.4587
2701.14	14.1854
2702.49	13.7711
2703.83	13.9993
2705.18	14.4562
2706.52	14.914
2707.87	14.7993
2709.21	15.5069
2710.56	16.4679
2711.9	17.4654
2713.25	17.8199
2714.59	18.5773
2715.94	19.1128
2717.28	18.4001
2718.62	18.7565
2719.97	19.0161
2721.31	19.9162
2722.65	20.4602
2723.99	20.9979
2725.34	20.3031
2726.68	21.1405
2728.02	21.3031
2729.36	20.8947
2730.7	21.2172
2732.04	20.4463
2733.39	20.4666
2734.73	21.3124
2736.07	20.6565
2737.41	20.6079
2738.75	20.7172
2740.08	20.5255
2741.43	19.8824
2742.76	19.7925
2744.1	18.4263
2745.44	17.9503
2746.78	17.346
2748.12	16.2308
2749.46	14.7199
2750.79	13.9426
2752.13	13.8898
2753.47	13.3846
2754.81	12.2229
2756.14	12.0405
2757.48	11.1358
2758.81	10.7659
2760.15	9.68988
2761.49	9.05105
2762.82	8.64685
2764.16	8.02817
2765.49	6.5637
2766.83	5.7436
2768.16	4.97058
2769.5	3.88329
2770.83	3.84741
2772.16	3.07252
2773.5	2.14384
2774.83	1.91619
2776.17	1.75698
2777.5	1.02254
2778.83	0.951698
2780.16	1.10957
2781.5	1.23407
2782.83	0.983843
2784.16	0.328789
2785.49	0.795803
2786.82	1.08468
2788.15	1.15022
2789.49	0.897303
2790.82	0.864471
2792.15	0.699501
2793.48	1.60537
2794.81	0.356781
2796.14	0.165589
2797.46	-0.267922
2798.79	-1.32675
2800.12	-0.903961
2801.45	-1.16802
2802.78	-1.73969
2804.11	-2.34037
2805.44	-2.12761
2806.76	-2.49018
2808.09	-3.81963
2809.42	-4.93487
2810.75	-5.29124
2812.07	-4.23968
2813.4	-4.50697
2814.73	-3.67745
2816.05	-2.43466
2817.38	0.195768
2818.7	1.92685
2820.03	3.98086
2821.36	6.45621
2822.68	8.80365
2824.01	11.6096
2825.33	14.5306
2826.65	17.4863
2827.98	21.663
2829.3	25.7848
2830.63	29.3126
2831.95	33.0586
2833.27	38.0536
2834.6	42.9607
2835.92	48.0626
2837.24	53.5102
2838.56	59.7005
2839.88	66.4802
2841.21	73.6397
2842.53	81.7125
2843.85	90.3366
2845.17	99.3486
2846.49	108.842
2847.81	118.591
2849.13	128.26
2850.45	138.574
2851.77	148.56
2853.09	158.839
2854.41	168.487
2855.73	178.569
2857.05	187.483
2858.37	196.519
2859.69	204.618
2861	212.444
2862.32	221.26
2863.64	228.917
2864.96	236.636
2866.28	244.579
2867.59	251.195
2868.91	257.209
2870.23	263.099
2871.54	268.581
2872.86	273.698
2874.17	278.183
2875.49	282.868
2876.81	288.883
2878.12	293.107
2879.44	296.985
2880.75	300.936
2882.07	304.535
2883.38	307.426
2884.69	309.961
2886.01	312.484
2887.32	315.52
2888.63	317.864
2889.95	321.078
2891.26	323.815
2892.57	326.712
2893.89	329.861
2895.2	333.699
2896.51	337.661
2897.82	341.895
2899.13	347.094
2900.44	351.746
2901.76	357.435
2903.07	363.752
2904.38	371.725
2905.69	379.92
2907	389.205
2908.31	398.306
2909.62	407.154
2910.93	417.174
2912.24	426.542
2913.55	435.932
2914.85	444.877
2916.16	452.71
2917.47	460.246
2918.78	468.883
2920.09	475.282
2921.4	481.244
2922.7	486.605
2924.01	491.358
2925.32	494.795
2926.62	497.208
2927.93	499.356
2929.24	499.256
2930.54	499.13
2931.85	497.304
2933.15	495.509
2934.46	492.211
2935.76	488.299
2937.07	483.01
2938.37	477.829
2939.68	470.547
2940.98	463.97
2942.29	455.315
2943.59	445.159
2944.89	435.833
2946.2	426.771
2947.5	416.768
2948.8	406.772
2950.11	396.073
2951.41	386.126
2952.71	376.021
2954.01	364.968
2955.32	354.885
2956.62	344.024
2957.92	334.013
2959.22	324.434
2960.52	314.849
2961.82	305.16
2963.12	296.038
2964.42	287.674
2965.72	279.416
2967.02	272.593
2968.32	265.429
2969.62	259.146
2970.92	251.847
2972.22	245.32
2973.51	238.036
2974.81	231.695
2976.11	225.766
2977.41	218.717
2978.71	212.193
2980	205.277
2981.3	198.621
2982.6	192.163
2983.9	185.247
2985.19	177.473
2986.49	170.199
2987.78	162.305
2989.08	153.718
2990.38	145.718
2991.67	137.744
2992.97	130.83
2994.26	122.502
2995.56	115.559
2996.85	108.45
2998.14	101.67
2999.44	93.6811
3000.73	86.2225
3002.03	79.8322
3003.32	72.4052
3004.61	65.6766
3005.91	59.8852
3007.2	52.9866
3008.49	47.6255
3009.78	42.8666
3011.07	38.3611
3012.37	32.9841
3013.66	29.1474
3014.95	24.7661
3016.24	21.2597
3017.53	17.6999
3018.82	14.5195
3020.11	11.2401
3021.4	8.83496
3022.69	7.3577
3023.98	5.29407
3025.27	3.9089
3026.56	3.21259
3027.85	2.86791
3029.14	2.01946
3030.43	1.23503
3031.71	1.25115
3033	0.837897
3034.29	1.43009
3035.58	1.30066
3036.87	2.28119
3038.15	2.71113
3039.44	3.33899
3040.73	5.03513
3042.01	5.88833
3043.3	6.63609
3044.59	7.99544
3045.87	8.6701
3047.16	8.74045
3048.44	9.85267
3049.73	10.8172
3051.01	11.1415
3052.3	11.4978
3053.58	12.0096
3054.87	12.5373
3056.15	12.1861
3057.43	12.4067
3058.72	12.3503
3060	12.4189
3061.29	12.3904
3062.57	12.1263
3063.85	11.5276
3065.13	11.6414
3066.42	11.8767
3067.7	10.7425
3068.98	10.3503
3070.26	9.69799
3071.54	9.2054
3072.82	8.19273
3074.11	8.06574
3075.39	6.98432
3076.67	5.93855
3077.95	5.12195
3079.23	3.65163
3080.51	2.2609
3081.79	1.40873
3083.07	0.915389
3084.35	0.53832
3085.63	0.181181
3086.9	-0.436188
3088.18	-1.38967
3089.46	-0.911108
3090.74	-1.28093
3092.02	-1.53157
3093.29	-2.10689
3094.57	-2.2218
3095.85	-1.18633
3097.13	-1.20579
3098.4	-0.786834
3099.68	-0.0414793
3100.95	0.864448
3102.23	2.13037
3103.51	3.67035
3104.78	5.2922
3106.06	5.77744
3107.33	6.60881
3108.61	8.09538
3109.88	8.63856
3111.16	10.2088
3112.43	11.8556
3113.71	12.8849
3114.98	13.9266
3116.25	14.8635
3117.53	15.7497
3118.8	17.0598
3120.07	18.3684
3121.35	20.4392
3122.62	21.8951
3123.89	22.9326
3125.16	24.4387
3126.44	25.7399
3127.71	26.7962
3128.98	28.6038
3130.25	29.7134
3131.52	30.4469
3132.79	31.9853
3134.06	33.7134
3135.33	35.2031
3136.6	35.7075
3137.87	37.3428
3139.14	37.7784
3140.41	38.921
3141.68	40.1525
3142.95	41.1927
3144.22	42.4809
3145.49	43.6248
3146.76	44.6106
3148.02	46.5347
3149.29	49.3342
