#Acq. time (s)=	45
#Accumulations=	2
#Range (cm-¹)=	200...3150
#Windows=	2
#Auto scanning=	Off
#Autofocus=	Off
#Macrospot=	Off
#AutoExposure=	Off
#Spike filter=	Multiple accum.
#Delay time (s)=	0
#Binning=	1
#Readout mode=	Signal
#DeNoise=	Off
#ICS correction=	On
#Dark correction=	Off
#Inst. Process=	Off
#Detector Gain=	Best Dynamic Range
#Detector ADC=	20 kHz       
#Detector temperature (°C)=	-69.85
#Instrument=	LabRAM HR Evol
#Detector=	Synapse
#Objective=	x100
#Grating=	600 gr/mm
#ND Filter=	100%
#Laser (nm)=	532 
#Hole=	100.021
#Range=	Auto
#Laser Pol.=	No
#Raman. Pol.=	No
#Laser Pol. (°)=	-0.0007625
#Raman Pol. (°)=	89.9995
#Collection=	Microscope
#StageXY=	Marzhauser
#StageZ=	Marzhauser
#X (µm)=	-1005.4
#Y (µm)=	-2957.1
#Z (µm)=	527.8
#Full time(mm:ss)=	3:18
#Project=	
#Sample=	
#Site=	
#Title=	Mb_00_13_12_2x_45s_532 nm_x100_100%_600 gr_mm
#Remark=	
#Date=	06.07.2022 10:29
#Acquired=	06.07.2022 10:29:28
#Base:Fit=	10.08.2022 10:16:56
#Base:Sub=	10.08.2022 10:17:24
#Filter:Polynom=	16.08.2022 10:36:38
#AxisType[0]=Intens
#AxisUnit[0]=Cnt
#AxisType[1]=Spectr
#AxisUnit[1]=1/cm
200.398	3.73352
202.213	1.09374
204.027	0.513306
205.843	-0.786526
207.657	-2.01207
209.47	-2.87964
211.283	-2.89887
213.097	-2.16869
214.909	0.307393
216.721	2.67705
218.533	5.78121
220.344	10.3368
222.157	14.996
223.967	19.7077
225.777	23.2893
227.587	29.1785
229.396	35.6504
231.205	40.012
233.016	43.9803
234.824	46.4417
236.632	50.0655
238.439	53.2481
240.247	56.4333
242.053	58.4269
243.86	60.7111
245.666	62.2878
247.474	65.0687
249.279	67.3566
251.085	70.3889
252.889	72.9695
254.694	75.7324
256.498	76.3783
258.301	78.7239
260.105	79.383
261.908	79.1284
263.71	79.6219
265.513	78.2809
267.315	77.2841
269.116	75.1721
270.918	72.0126
272.718	69.5706
274.519	66.3097
276.319	62.2255
278.119	58.3268
279.918	55.3298
281.718	52.3968
283.516	49.4993
285.315	45.1072
287.113	42.2447
288.911	39.1097
290.708	36.3407
292.505	33.8075
294.302	30.5516
296.098	28.7784
297.894	26.7207
299.69	25.4698
301.485	24.5613
303.278	24.1637
305.073	23.6627
306.867	21.9133
308.661	20.9441
310.454	19.5801
312.247	18.9369
314.04	17.6208
315.833	17.121
317.623	16.8776
319.415	15.9842
321.206	14.362
322.997	13.9946
324.788	13.659
326.579	14.0506
328.367	13.1656
330.156	12.3981
331.946	11.862
333.735	12.0357
335.523	12.3216
337.31	12.317
339.098	13.165
340.885	13.5165
342.673	12.107
344.458	11.9717
346.244	11.6613
348.03	11.346
349.816	8.76279
351.6	8.24058
353.385	7.10038
355.17	5.73223
356.953	5.16816
358.737	3.69809
360.521	3.13792
362.304	3.94327
364.085	4.94921
365.868	6.70464
367.65	9.28957
369.431	11.7105
371.212	14.6448
372.994	16.8291
374.773	19.9785
376.554	22.8137
378.332	24.041
380.112	27.004
381.892	29.6911
383.669	32.4774
385.448	35.9198
387.225	38.8339
389.003	43.5631
390.781	46.9701
392.557	51.0602
394.334	53.2364
396.109	55.4494
397.885	57.9083
399.66	60.1309
401.436	63.755
403.211	65.402
404.984	67.6663
406.759	69.4071
408.532	71.5817
410.306	73.0523
412.078	73.8467
413.851	73.7684
415.623	73.6027
417.395	73.211
419.166	72.846
420.938	73.3095
422.708	71.518
424.477	69.0085
426.248	66.0734
428.017	64.7464
429.788	60.9143
431.556	57.8915
433.326	54.8568
435.093	51.5982
436.86	47.4635
438.629	43.7691
440.395	40.6125
442.163	37.1577
443.929	34.851
445.694	32.6319
447.461	30.1067
449.226	28.3732
450.99	26.5709
452.756	24.8789
454.52	23.205
456.285	19.4219
458.048	18.8586
459.811	17.5447
461.573	15.5164
463.337	14.5913
465.099	13.2623
466.86	12.5812
468.623	13.6041
470.384	13.8077
472.144	14.2793
473.906	14.1367
475.666	14.3802
477.425	15.1907
479.184	14.7584
480.944	16.2482
482.703	15.5285
484.461	17.2048
486.218	18.5744
487.975	19.7684
489.734	20.3692
491.491	22.7179
493.247	24.4648
495.003	26.2962
496.759	27.7626
498.516	29.4709
500.271	30.5599
502.025	31.8949
503.779	33.8813
505.533	33.7139
507.287	35.0307
509.042	36.3737
510.795	34.8784
512.547	35.3778
514.299	36.5048
516.051	38.3392
517.803	38.7647
519.554	39.4936
521.305	39.0481
523.055	40.4854
524.805	40.7701
526.555	41.971
528.307	42.4053
530.056	43.0104
531.805	42.9836
533.553	41.8005
535.301	41.4241
537.049	40.0761
538.797	39.7753
540.544	38.8726
542.291	38.9743
544.037	37.5754
545.783	38.5994
547.529	36.5979
549.275	35.5205
551.02	35.4767
552.765	34.1757
554.509	32.4392
556.253	31.0031
557.997	29.2207
559.738	27.9408
561.482	26.6605
563.224	25.779
564.967	24.909
566.709	23.3997
568.451	22.1945
570.192	21.0947
571.933	20.5837
573.674	18.7791
575.415	17.0552
577.153	16.2915
578.893	16.6817
580.632	14.7937
582.371	13.6418
584.11	13.3729
585.849	12.698
587.587	11.2757
589.323	10.0697
591.06	9.97607
592.797	7.7662
594.534	6.70199
596.271	5.24408
598.005	3.30572
599.741	4.10725
601.476	4.51169
603.211	4.05167
604.944	3.76454
606.679	3.90313
608.413	4.20935
610.147	5.40035
611.878	5.16228
613.611	5.4536
615.344	5.13134
617.077	5.33384
618.807	5.54638
620.539	5.79033
622.27	7.17238
623.999	8.65631
625.73	10.1745
627.461	10.6111
629.189	12.2793
630.919	13.4554
632.648	15.5057
634.376	16.2807
636.105	17.0671
637.833	18.3446
639.559	19.0144
641.287	20.0063
643.013	20.7862
644.74	22.3892
646.467	23.1209
648.192	23.5129
649.918	23.4021
651.642	23.0643
653.368	22.5317
655.091	22.9897
656.816	24.1222
658.538	23.4147
660.263	23.9121
661.987	24.5115
663.708	24.4282
665.432	24.2461
667.153	24.5437
668.875	24.1408
670.596	24.4331
672.318	24.3761
674.037	23.5732
675.759	23.8974
677.478	22.9957
679.196	21.3726
680.917	21.4669
682.635	22.4217
684.355	21.9302
686.072	22.6835
687.791	23.1633
689.508	23.6339
691.224	24.2533
692.942	24.23
694.658	23.7887
696.376	24.0488
698.091	23.7877
699.805	24.9417
701.522	24.4733
703.236	24.9567
704.95	24.5636
706.665	25.1109
708.379	25.5889
710.093	25.3813
711.806	25.3256
713.518	26.04
715.23	26.6132
716.943	27.3384
718.655	27.1256
720.366	26.9944
722.078	27.8304
723.788	28.9073
725.498	29.1762
727.208	28.8148
728.919	29.0208
730.628	29.1878
732.337	28.1395
734.045	27.2446
735.755	26.2775
737.463	26.3267
739.17	26.221
740.877	26.8794
742.584	28.966
744.292	29.1615
745.998	30.7001
747.704	30.8368
749.409	30.8467
751.114	33.3552
752.819	35.3925
754.526	36.1408
756.23	37.8459
757.934	39.7762
759.637	39.8847
761.34	41.0921
763.043	41.0344
764.746	42.601
766.448	43.4994
768.152	44.0172
769.853	44.8033
771.554	46.7171
773.255	48.3106
774.956	49.3573
776.656	50.1691
778.356	50.6223
780.056	51.8756
781.755	52.8083
783.454	53.5163
785.153	55.2525
786.851	55.2367
788.549	56.0227
790.247	57.154
791.944	57.7993
793.641	59.477
795.338	60.2654
797.034	62.2222
798.73	62.065
800.426	62.407
802.121	63.6816
803.817	64.0979
805.511	65.3614
807.206	65.911
808.9	65.8012
810.592	64.4283
812.286	63.4547
813.979	63.3171
815.672	63.0212
817.364	62.9892
819.057	62.412
820.748	63.1005
822.44	63.8389
824.129	63.7433
825.82	64.0597
827.511	63.9691
829.201	62.9274
830.891	63.628
832.581	63.0208
834.269	62.591
835.958	62.4713
837.646	61.9572
839.335	60.274
841.023	59.097
842.709	58.009
844.396	56.1557
846.084	55.2076
847.77	52.5127
849.455	51.4849
851.141	50.4975
852.827	49.3337
854.513	47.8703
856.196	47.034
857.881	45.6325
859.566	44.5711
861.248	43.4038
862.932	41.6338
864.616	40.7231
866.297	39.962
867.98	40.4599
869.663	39.5203
871.343	37.8374
873.026	37.283
874.707	37.5742
876.387	37.2798
878.068	36.9338
879.747	35.2279
881.428	35.1536
883.108	34.4012
884.786	34.6151
886.465	34.283
888.143	33.2346
889.822	32.4945
891.498	32.4631
893.177	32.0708
894.855	31.4507
896.53	31.2637
898.208	30.809
899.883	31.305
901.56	30.9958
903.234	30.6168
904.91	29.8255
906.584	29.6089
908.26	28.9285
909.933	28.7341
911.608	29.0848
913.28	28.9797
914.955	28.3347
916.627	26.7049
918.298	26.9086
919.972	26.3536
921.643	26.3394
923.315	24.9471
924.986	25.1064
926.656	26.681
928.328	27.3566
929.997	26.7421
931.668	25.8934
933.337	26.8397
935.006	27.4432
936.676	27.7093
938.344	27.5618
940.012	27.363
941.681	27.1449
943.348	28.1383
945.014	28.4091
946.683	27.2312
948.349	27.1349
950.015	27.5894
951.682	27.3092
953.347	25.6687
955.012	26.3164
956.676	25.2418
958.343	25.2557
960.006	23.5657
961.67	23.3845
963.333	24.3363
964.998	27.0118
966.661	28.3294
968.323	29.0689
969.985	31.0744
971.649	32.3426
973.31	34.9932
974.971	37.7213
976.632	39.1598
978.293	40.7926
979.953	42.4282
981.615	44.4546
983.274	47.9111
984.933	49.1009
986.592	50.3609
988.251	50.9907
989.909	53.0654
991.567	53.9409
993.225	54.5572
994.884	54.9368
996.541	55.0524
998.198	55.1361
999.855	56.4753
1001.51	56.9777
1003.17	55.7915
1004.82	56.0086
1006.48	55.6569
1008.13	56.2053
1009.79	55.4885
1011.44	54.8588
1013.1	53.0877
1014.75	54.3083
1016.4	55.5195
1018.06	57.4158
1019.71	58.6424
1021.36	59.1412
1023.01	60.2641
1024.66	62.1671
1026.32	63.2536
1027.97	62.9012
1029.62	62.4159
1031.27	62.4678
1032.92	62.1658
1034.57	61.8685
1036.22	60.9769
1037.87	61.4298
1039.52	60.1778
1041.16	61.2995
1042.81	62.0219
1044.46	64.8321
1046.11	65.8199
1047.76	65.4899
1049.4	64.8277
1051.05	64.9397
1052.7	64.9656
1054.34	64.203
1055.99	64.8361
1057.63	64.1425
1059.28	62.8058
1060.92	62.2893
1062.57	60.5628
1064.21	58.1769
1065.85	55.3151
1067.5	52.0647
1069.14	50.2066
1070.78	46.7055
1072.43	43.9221
1074.07	40.237
1075.71	36.3852
1077.35	32.7714
1078.99	29.0788
1080.63	25.822
1082.27	22.9136
1083.91	18.1475
1085.55	15.3529
1087.19	13.4213
1088.83	12.0106
1090.47	11.4445
1092.11	11.3004
1093.75	11.9572
1095.39	11.4317
1097.03	13.7175
1098.66	13.5951
1100.3	15.3085
1101.94	14.3688
1103.57	13.9531
1105.21	13.8457
1106.84	13.7062
1108.48	12.2534
1110.11	11.6086
1111.75	11.2009
1113.38	11.0162
1115.02	11.416
1116.65	11.2239
1118.29	10.9022
1119.92	10.9105
1121.55	10.5241
1123.19	10.2682
1124.82	10.5706
1126.45	9.06542
1128.08	7.44044
1129.71	6.81641
1131.34	8.26499
1132.97	7.69342
1134.6	6.83486
1136.23	7.03389
1137.86	7.47325
1139.49	6.23523
1141.12	5.68064
1142.75	5.52471
1144.38	4.81263
1146.01	4.91371
1147.64	4.99106
1149.26	5.78678
1150.89	5.16479
1152.52	3.17845
1154.15	3.11241
1155.77	2.36637
1157.4	2.91811
1159.02	2.76297
1160.65	2.70496
1162.27	2.76482
1163.9	2.56682
1165.52	2.78193
1167.15	3.90737
1168.77	4.93584
1170.39	5.29658
1172.02	6.11165
1173.64	6.80969
1175.26	6.7374
1176.89	7.76148
1178.51	9.84714
1180.13	9.81225
1181.75	10.9111
1183.37	10.6608
1184.99	12.011
1186.61	12.8145
1188.23	13.3647
1189.85	13.2095
1191.47	15.4214
1193.09	17.0089
1194.71	18.9266
1196.33	19.0878
1197.94	20.0784
1199.56	21.4456
1201.18	22.8686
1202.8	24.8393
1204.41	26.0671
1206.03	27.1986
1207.65	28.2253
1209.26	31.0662
1210.88	33.4402
1212.49	35.2357
1214.11	37.0365
1215.72	40.2578
1217.34	42.4698
1218.95	43.8979
1220.57	45.3847
1222.18	48.1445
1223.79	49.3063
1225.41	51.213
1227.02	51.7468
1228.63	53.0362
1230.24	52.8564
1231.85	53.0564
1233.47	53.5919
1235.08	54.8346
1236.69	55.1709
1238.3	55.8175
1239.91	56.1474
1241.52	57.2805
1243.13	57.9933
1244.74	58.4485
1246.34	59.1458
1247.95	60.2635
1249.56	60.3436
1251.17	59.4928
1252.78	59.8538
1254.38	59.0368
1255.99	58.648
1257.6	57.914
1259.2	57.2321
1260.81	55.0179
1262.42	55.0889
1264.02	54.3023
1265.63	53.5506
1267.23	53.0902
1268.84	52.0974
1270.44	52.1736
1272.04	53.0191
1273.65	52.8029
1275.25	53.498
1276.85	53.1764
1278.46	55.0785
1280.06	55.1396
1281.66	55.7517
1283.26	56.8809
1284.86	57.2512
1286.46	58.7547
1288.07	59.7954
1289.67	61.6994
1291.27	62.5247
1292.87	64.1204
1294.47	65.4184
1296.06	65.7302
1297.66	65.4897
1299.26	66.8805
1300.86	67.9507
1302.46	69.6722
1304.06	70.4721
1305.65	72.3512
1307.25	73.4925
1308.85	75.6012
1310.44	76.5509
1312.04	79.0886
1313.64	80.5916
1315.23	82.6314
1316.83	83.8061
1318.42	84.7875
1320.02	85.6051
1321.61	86.1919
1323.2	85.4321
1324.8	85.6197
1326.39	85.5298
1327.99	85.0563
1329.58	83.9784
1331.17	83.5554
1332.76	82.856
1334.36	81.7876
1335.95	81.226
1337.54	80.0108
1339.13	79.8361
1340.72	78.4979
1342.31	77.6734
1343.9	76.1121
1345.49	75.2503
1347.08	73.3778
1348.67	71.9861
1350.26	71.7508
1351.85	71.5933
1353.43	70.7209
1355.02	70.2537
1356.61	68.4553
1358.2	67.527
1359.78	66.2746
1361.37	66.2362
1362.96	64.2694
1364.54	62.4335
1366.13	61.969
1367.71	59.4088
1369.3	59.3737
1370.88	58.3215
1372.47	57.6181
1374.05	56.711
1375.64	55.7944
1377.22	55.4314
1378.8	54.6284
1380.39	53.9352
1381.97	53.7687
1383.55	53.9488
1385.13	53.5363
1386.72	53.2725
1388.3	53.3084
1389.88	52.43
1391.46	51.3445
1393.04	49.7659
1394.62	48.4224
1396.2	47.4464
1397.78	45.8778
1399.36	46.45
1400.94	47.0676
1402.52	47.5087
1404.1	47.948
1405.68	48.9031
1407.25	50.2887
1408.83	51.6822
1410.41	52.5999
1411.98	54.5132
1413.56	56.8971
1415.14	60.8879
1416.71	64.1702
1418.29	67.5164
1419.87	70.2055
1421.44	73.4655
1423.02	78.0469
1424.59	81.5665
1426.16	85.617
1427.74	90.9794
1429.31	96.5705
1430.89	100.391
1432.46	104.121
1434.03	107.88
1435.6	111.372
1437.18	115.024
1438.75	118.411
1440.32	120.345
1441.89	122.123
1443.46	124.969
1445.03	127.846
1446.6	128.763
1448.17	130.679
1449.74	130.255
1451.31	129.726
1452.88	128.607
1454.45	125.709
1456.02	124.453
1457.59	121.978
1459.16	119.017
1460.72	116.45
1462.29	113.188
1463.86	109.502
1465.43	104.759
1466.99	100.601
1468.56	94.7179
1470.13	89.33
1471.69	83.318
1473.26	78.9459
1474.82	74.6395
1476.38	70.303
1477.95	66.2829
1479.51	60.6722
1481.08	56.2223
1482.64	50.8455
1484.2	47.9707
1485.77	43.793
1487.33	40.9337
1488.89	37.8746
1490.46	36.6416
1492.02	34.037
1493.58	32.5446
1495.14	28.9737
1496.7	27.0536
1498.26	25.8129
1499.82	25.1917
1501.38	25.2085
1502.94	22.929
1504.5	23.3819
1506.06	23.279
1507.62	23.0123
1509.18	21.9231
1510.73	22.5107
1512.29	22.8631
1513.85	23.837
1515.41	24.0305
1516.96	24.289
1518.52	24.8012
1520.08	25.9359
1521.63	26.5381
1523.19	27.6558
1524.75	28.0666
1526.3	28.4602
1527.85	28.4856
1529.41	29.1612
1530.96	30.172
1532.52	30.5058
1534.07	31.9352
1535.62	32.3467
1537.18	33.032
1538.73	34.6188
1540.28	35.7072
1541.84	36.4908
1543.39	36.0438
1544.94	37.1319
1546.49	37.171
1548.04	37.7619
1549.59	38.7619
1551.14	40.0333
1552.69	39.4038
1554.25	39.2876
1555.79	39.1344
1557.34	39.1937
1558.89	39.2482
1560.44	39.326
1561.99	40.2663
1563.54	40.6377
1565.08	41.4816
1566.63	42.4087
1568.18	43.2706
1569.73	43.763
1571.27	46.1775
1572.82	47.3006
1574.37	48.9436
1575.91	50.6027
1577.46	52.2507
1579	53.4328
1580.55	53.636
1582.09	55.782
1583.64	56.2881
1585.18	57.7038
1586.73	58.4993
1588.27	59.7402
1589.81	60.9435
1591.35	61.4095
1592.9	62.041
1594.44	63.3657
1595.98	64.8297
1597.52	65.7241
1599.06	65.9257
1600.61	66.0214
1602.15	66.481
1603.69	65.9753
1605.23	66.6488
1606.77	67.617
1608.31	67.9937
1609.85	66.7237
1611.39	67.1136
1612.93	66.9881
1614.46	67.6975
1616	67.6531
1617.54	67.6551
1619.08	67.2143
1620.61	66.7748
1622.15	67.1761
1623.69	66.8416
1625.23	66.785
1626.76	66.3624
1628.3	65.6599
1629.83	66.5606
1631.37	67.4018
1632.9	67.295
1634.44	66.8724
1635.97	68.1946
1637.51	69.842
1639.04	71.1597
1640.57	72.5814
1642.11	73.95
1643.64	76.6017
1645.17	78.1784
1646.71	79.6124
1648.24	81.481
1649.77	81.9347
1651.3	83.0598
1652.83	83.4426
1654.36	83.3453
1655.89	82.21
1657.42	81.535
1658.96	81.3227
1660.48	81.2751
1662.01	80.8326
1663.54	80.1703
1665.07	79.8985
1666.6	79.5103
1668.13	77.682
1669.66	76.1343
1671.19	74.2599
1672.71	72.124
1674.24	68.4575
1675.77	65.8331
1677.29	63.9385
1678.82	61.6873
1680.35	58.7995
1681.87	56.0662
1683.4	53.6142
1684.92	49.5951
1686.45	46.1338
1687.97	43.6996
1689.5	40.549
1691.02	37.8913
1692.54	34.6237
1694.07	32.4569
1695.59	29.7469
1697.11	26.5562
1698.64	25.2605
1700.16	22.5397
1701.68	20.2602
1703.2	18.0913
1704.72	17.1921
1706.25	15.6781
1707.77	14.1632
1709.29	12.6923
1710.81	12.3521
1712.33	12.1675
1713.85	10.4559
1715.37	9.46466
1716.89	8.41137
1718.41	8.07747
1719.92	8.01008
1721.44	7.73634
1722.96	6.55886
1724.48	6.77875
1725.99	6.44037
1727.51	5.37004
1729.03	4.17768
1730.55	4.44826
1732.06	4.46328
1733.58	4.93147
1735.09	4.70615
1736.61	4.69163
1738.13	4.83512
1739.64	4.72497
1741.15	4.293
1742.67	3.6288
1744.18	2.46769
1745.7	2.77127
1747.21	2.90754
1748.72	2.44955
1750.24	2.39256
1751.75	3.57208
1753.26	3.00262
1754.77	2.20363
1756.29	2.01614
1757.8	1.56358
1759.31	2.01647
1760.82	1.4821
1762.33	1.48737
1763.84	0.838295
1765.35	1.01391
1766.86	0.6356
1768.37	1.3831
1769.88	1.52172
1771.39	1.12431
1772.9	0.768996
1774.4	1.52986
1775.91	1.1837
1777.42	1.21481
1778.93	1.68379
1780.44	2.37253
1781.94	2.56463
1783.45	3.06647
1784.96	2.10748
1786.46	2.28664
1787.97	1.99173
1789.47	2.06952
1790.98	2.54904
1792.48	2.98473
1793.99	3.49605
1795.49	4.23394
1797	4.31069
1798.5	3.90396
1800.01	4.03264
1801.51	4.09764
1803.01	3.32779
1804.51	3.21717
1806.02	3.57297
1807.52	3.38527
1809.02	3.50241
1810.52	3.19895
1812.02	3.39886
1813.52	3.1548
1815.02	3.39649
1816.53	3.5672
1818.03	4.48253
1819.52	4.93924
1821.02	5.8114
1822.52	5.4977
1824.02	4.76363
1825.52	4.56529
1827.02	4.65672
1828.52	4.93966
1830.02	5.14036
1831.51	4.90807
1833.01	4.99651
1834.51	4.9023
1836.01	4.60427
1837.5	3.98476
1839	4.0757
1840.49	4.56914
1841.99	4.17016
1843.49	4.48473
1844.98	4.44233
1846.48	4.36107
1847.97	3.76937
1849.47	3.4798
1850.96	2.87065
1852.45	3.20341
1853.95	3.01076
1855.44	3.61748
1856.93	4.06012
1858.42	3.93434
1859.92	3.93859
1861.41	4.45881
1862.9	4.30629
1864.39	4.9754
1865.88	5.29508
1867.38	5.76824
1868.87	5.67123
1870.36	5.78406
1871.85	5.28632
1873.34	5.10263
1874.83	5.26369
1876.32	5.39331
1877.81	5.83099
1879.29	6.05191
1880.78	6.12023
1882.27	6.39204
1882.53	6.84135
1884.03	6.23647
1885.52	6.01663
1887.01	5.94267
1888.51	6.65745
1890	6.39409
1891.5	6.76386
1892.99	5.37519
1894.48	4.9075
1895.97	4.23881
1897.47	4.47372
1898.96	6.04559
1900.45	6.34225
1901.94	6.53794
1903.43	5.36957
1904.92	5.77767
1906.41	5.57421
1907.9	5.31757
1909.39	4.72307
1910.88	4.10875
1912.37	3.63825
1913.86	3.04534
1915.35	2.49982
1916.84	1.88652
1918.33	1.58036
1919.81	0.670727
1921.3	-0.537637
1922.79	-0.735484
1924.28	-0.173317
1925.76	0.603045
1927.25	0.321604
1928.73	1.60441
1930.22	1.52938
1931.71	1.4618
1933.19	1.90581
1934.68	2.46467
1936.16	2.74394
1937.65	3.56162
1939.13	4.01003
1940.62	3.30701
1942.1	2.80626
1943.58	3.83349
1945.07	4.19382
1946.55	4.49886
1948.03	5.50582
1949.51	5.45044
1951	5.52398
1952.48	4.83216
1953.96	4.63586
1955.44	4.60401
1956.92	4.91775
1958.4	3.94917
1959.88	3.69046
1961.36	3.75967
1962.84	3.52543
1964.32	4.18195
1965.8	4.07398
1967.28	3.82888
1968.76	4.30494
1970.24	4.52341
1971.72	4.62977
1973.2	4.67459
1974.67	4.47951
1976.15	4.55213
1977.63	4.21079
1979.1	4.29031
1980.58	3.24473
1982.06	2.69416
1983.54	2.54734
1985.01	2.63957
1986.49	2.63538
1987.96	2.56074
1989.44	2.66929
1990.91	3.47866
1992.39	3.8252
1993.86	3.34021
1995.33	3.59864
1996.81	3.79238
1998.28	4.10339
1999.75	4.5618
2001.23	4.29865
2002.7	4.67044
2004.17	4.80113
2005.65	5.22258
2007.12	5.72685
2008.59	5.26405
2010.06	5.38398
2011.53	5.82756
2013	5.60027
2014.47	5.66394
2015.94	6.4304
2017.41	7.53343
2018.88	7.06636
2020.35	6.55929
2021.82	6.23324
2023.29	5.34145
2024.76	5.14864
2026.23	5.06106
2027.69	4.46412
2029.16	3.93197
2030.63	3.78086
2032.1	2.73425
2033.56	2.42909
2035.03	2.2834
2036.5	2.14363
2037.96	2.53028
2039.43	1.62699
2040.89	1.73029
2042.36	2.02363
2043.83	2.46149
2045.29	2.45328
2046.75	2.64216
2048.22	3.1143
2049.68	2.25761
2051.15	2.96335
2052.61	3.27917
2054.07	3.25927
2055.54	3.28224
2057	3.83349
2058.46	3.66773
2059.92	3.70444
2061.39	4.18338
2062.85	4.14806
2064.31	4.3687
2065.77	4.04814
2067.23	3.85571
2068.69	4.77429
2070.15	4.8244
2071.61	5.2477
2073.07	5.80923
2074.53	5.89768
2075.99	6.37477
2077.45	6.72167
2078.91	6.11305
2080.37	5.97923
2081.82	5.30264
2083.28	6.0339
2084.74	6.16164
2086.2	6.39328
2087.65	7.2436
2089.11	6.88522
2090.57	7.36306
2092.02	7.28637
2093.48	6.9963
2094.94	7.58586
2096.39	7.55589
2097.85	8.21415
2099.3	8.1071
2100.76	7.90404
2102.21	7.89324
2103.66	7.99669
2105.12	7.82701
2106.57	8.26664
2108.03	8.1159
2109.48	7.88045
2110.93	7.59269
2112.38	7.54586
2113.84	7.17855
2115.29	8.09242
2116.74	8.33427
2118.19	7.32859
2119.64	6.97817
2121.09	7.52944
2122.54	7.10239
2123.99	6.6893
2125.45	6.33419
2126.89	5.51485
2128.34	5.44351
2129.79	5.31631
2131.24	4.09059
2132.69	4.09053
2134.14	3.805
2135.59	3.46069
2137.04	3.33361
2138.48	2.87023
2139.93	2.36645
2141.38	2.34483
2142.83	1.51616
2144.27	1.1238
2145.72	1.33404
2147.17	0.399009
2148.61	-0.131152
2150.06	-0.94956
2151.5	-1.18342
2152.95	-0.181501
2154.39	0.646767
2155.84	1.81566
2157.28	2.64549
2158.73	3.84755
2160.17	4.56638
2161.61	4.91541
2163.06	6.21731
2164.5	5.86179
2165.94	6.77666
2167.38	8.08234
2168.83	7.6985
2170.27	8.36601
2171.71	8.46161
2173.15	8.71111
2174.59	8.93061
2176.03	9.3806
2177.47	9.80249
2178.91	9.74355
2180.36	8.81102
2181.8	9.2529
2183.23	9.61498
2184.67	9.75085
2186.11	9.74371
2187.55	10.3623
2188.99	9.36149
2190.43	8.74203
2191.87	8.85981
2193.3	9.68431
2194.74	8.35382
2196.18	8.49137
2197.62	8.60419
2199.05	8.25553
2200.49	7.79642
2201.93	7.25099
2203.36	6.69311
2204.8	6.69488
2206.23	6.10403
2207.67	5.74692
2209.1	5.13877
2210.54	5.18763
2211.97	5.36765
2213.41	5.24374
2214.84	5.0284
2216.27	5.34398
2217.71	5.66702
2219.14	4.97607
2220.57	5.77853
2222.01	6.53185
2223.44	7.26744
2224.87	8.35626
2226.3	8.68981
2227.73	9.00599
2229.16	8.83178
2230.6	9.23619
2232.03	9.72667
2233.46	10.1072
2234.89	10.2796
2236.32	10.0446
2237.75	11.566
2239.18	10.9463
2240.61	10.4617
2242.03	11.1318
2243.46	11.0953
2244.89	10.8949
2246.32	10.6404
2247.75	10.7599
2249.17	10.9399
2250.6	10.1337
2252.03	9.4295
2253.46	9.55163
2254.88	8.75148
2256.31	8.12006
2257.73	7.84094
2259.16	8.22426
2260.59	7.93996
2262.01	7.81688
2263.44	7.14419
2264.86	6.63948
2266.29	5.96164
2267.71	5.94831
2269.14	5.02891
2270.56	5.55455
2271.98	4.58692
2273.4	4.06695
2274.83	3.10545
2276.25	2.59074
2277.67	2.94779
2279.09	2.59331
2280.52	2.24776
2281.94	1.73938
2283.36	2.20589
2284.78	2.1966
2286.2	2.3683
2287.62	2.37786
2289.04	1.75629
2290.46	1.55503
2291.88	1.37594
2293.3	1.56686
2294.72	1.42037
2296.14	1.96384
2297.56	1.96874
2298.98	1.7852
2300.4	2.18968
2301.82	3.45853
2303.23	3.27178
2304.65	3.02966
2306.07	3.30294
2307.49	3.47332
2308.9	4.01981
2310.32	3.84807
2311.73	4.60761
2313.15	4.20656
2314.57	4.04827
2315.98	3.9944
2317.4	4.37122
2318.81	4.54282
2320.23	4.51711
2321.64	4.07714
2323.06	4.45227
2324.47	4.68019
2325.88	5.05655
2327.3	4.87936
2328.71	4.59578
2330.12	4.59595
2331.54	3.28813
2332.95	3.03958
2334.36	2.69619
2335.77	2.56981
2337.18	2.54262
2338.6	1.82674
2340.01	1.4409
2341.42	1.36594
2342.83	0.254426
2344.24	0.136825
2345.65	-0.738751
2347.06	-0.34236
2348.47	-0.388155
2349.88	-0.789669
2351.29	-1.03598
2352.7	-1.15063
2354.1	-0.865969
2355.51	-0.82389
2356.92	-1.24355
2358.33	-1.56603
2359.74	-1.68462
2361.14	-1.38186
2362.55	-0.691803
2363.96	0.056189
2365.36	0.127144
2366.77	0.0211112
2368.18	-0.0455324
2369.58	-0.165028
2370.99	0.501742
2372.39	0.998229
2373.8	0.539015
2375.2	1.11372
2376.61	1.7052
2378.01	1.92956
2379.42	2.95792
2380.82	2.96036
2382.22	3.63691
2383.63	3.56402
2385.03	3.5704
2386.43	4.04959
2387.84	5.06239
2389.24	5.71664
2390.64	6.48897
2392.04	6.88678
2393.44	7.37173
2394.84	7.09237
2396.25	7.26977
2397.65	7.33882
2399.05	6.92982
2400.45	7.02249
2401.85	7.25926
2403.25	7.89108
2404.65	7.72708
2406.05	7.12762
2407.45	6.89965
2408.84	7.27598
2410.24	7.27439
2411.64	7.40762
2413.04	7.6694
2414.44	7.39946
2415.83	7.30557
2417.23	7.62142
2418.63	7.63354
2420.02	7.36464
2421.42	7.27747
2422.82	7.42432
2424.21	7.76052
2425.61	8.10089
2427	7.53098
2428.4	7.85534
2429.8	7.88043
2431.19	7.84031
2432.58	7.66717
2433.98	7.78154
2435.37	8.04492
2436.77	7.73084
2438.16	7.35934
2439.55	7.14683
2440.95	7.1148
2442.34	6.88032
2443.73	6.05523
2445.12	5.60471
2446.51	5.01992
2447.91	4.83743
2449.3	4.62624
2450.69	4.17006
2452.08	4.19979
2453.47	3.44938
2454.86	3.1909
2456.25	3.6865
2457.64	4.13167
2459.03	3.76296
2460.42	4.01937
2461.81	3.34186
2463.2	3.40603
2464.59	3.06346
2465.98	2.40253
2467.36	2.45333
2468.75	1.56938
2470.14	2.18664
2471.53	2.43057
2472.92	1.82959
2474.3	1.87176
2475.69	1.07933
2477.08	1.45591
2478.46	1.0858
2479.85	1.01803
2481.23	0.990973
2482.62	1.15245
2484	0.602839
2485.39	0.632373
2486.77	0.924066
2488.16	1.24449
2489.54	1.21672
2490.93	1.52873
2492.31	1.99845
2493.69	2.57594
2495.08	2.89381
2496.46	3.13064
2497.84	4.13853
2499.23	3.75678
2500.61	4.01541
2501.99	4.47844
2503.37	5.06457
2504.75	4.45858
2506.13	4.05753
2507.52	4.058
2508.9	4.30059
2510.28	4.24297
2511.66	4.67776
2513.04	4.79079
2514.42	4.95545
2515.8	5.2592
2517.18	6.66868
2518.55	6.47779
2519.93	6.62641
2521.31	7.11543
2522.69	7.13477
2524.07	7.95383
2525.45	8.51093
2526.82	8.36224
2528.2	8.56268
2529.58	9.51546
2530.95	8.52511
2532.33	9.07135
2533.71	9.14305
2535.08	9.25797
2536.46	10.1097
2537.84	10.0306
2539.21	9.89235
2540.59	9.3469
2541.96	9.1131
2543.34	8.75701
2544.71	7.92395
2546.08	8.79631
2547.46	9.47756
2548.83	9.99171
2550.2	9.62129
2551.58	9.64023
2552.95	10.2073
2554.32	10.3171
2555.7	10.4349
2557.07	10.124
2558.44	10.4063
2559.81	10.3618
2561.18	10.4483
2562.55	10.4268
2563.93	10.2021
2565.3	9.7537
2566.67	10.2922
2568.04	9.71151
2569.41	9.74224
2570.78	9.41417
2572.15	9.15695
2573.51	9.31285
2574.88	9.39344
2576.25	9.27122
2577.62	9.62912
2578.99	9.65023
2580.36	9.6876
2581.73	8.73727
2583.09	8.46647
2584.46	8.75695
2585.83	9.09874
2587.19	8.67519
2588.56	9.37151
2589.93	9.67004
2591.29	9.16036
2592.66	9.27992
2594.02	8.99175
2595.39	9.27394
2596.75	10.0533
2598.12	10.2998
2599.48	9.13314
2600.85	9.47082
2602.21	9.3872
2603.58	9.00792
2604.94	8.89927
2606.3	7.76795
2607.67	7.52463
2609.03	7.72371
2610.39	7.61947
2611.76	7.48555
2613.12	8.16857
2614.48	8.49256
2615.84	9.06027
2617.2	8.46826
2618.56	8.93984
2619.92	9.07338
2621.28	8.7513
2622.65	8.36518
2624.01	8.06499
2625.37	7.9737
2626.72	8.70768
2628.08	8.53012
2629.44	9.23652
2630.8	9.9595
2632.16	9.94114
2633.52	10.5524
2634.88	10.817
2636.24	10.4112
2637.59	9.6872
2638.95	10.0129
2640.31	10.6302
2641.67	11.4
2643.02	12.0043
2644.38	11.7027
2645.74	12.287
2647.09	12.3535
2648.45	13.0494
2649.8	13.4015
2651.16	14.4901
2652.51	15.1237
2653.87	15.3088
2655.22	15.6915
2656.58	15.8772
2657.93	15.6306
2659.29	15.7956
2660.64	15.5496
2661.99	16.1654
2663.35	16.2677
2664.7	16.3209
2666.05	16.4268
2667.41	15.9276
2668.76	16.1603
2670.11	15.98
2671.46	15.4916
2672.81	15.4925
2674.16	15.3205
2675.51	15.728
2676.87	15.6466
2678.22	15.578
2679.57	15.7448
2680.92	16.1206
2682.27	16.0545
2683.62	16.6126
2684.97	16.3605
2686.31	16.7037
2687.66	16.6828
2689.01	16.702
2690.36	17.0921
2691.71	16.7456
2693.06	17.0834
2694.4	17.7444
2695.75	17.8842
2697.1	18.0764
2698.45	17.6907
2699.79	17.2746
2701.14	17.3922
2702.49	16.6877
2703.83	16.6868
2705.18	17.0135
2706.52	17.9537
2707.87	18.4525
2709.21	19.2842
2710.56	19.916
2711.9	20.1083
2713.25	21.3512
2714.59	22.2535
2715.94	23.13
2717.28	22.9468
2718.62	23.0029
2719.97	23.0917
2721.31	22.8156
2722.65	22.6283
2723.99	22.6599
2725.34	22.0569
2726.68	22.0384
2728.02	22.2599
2729.36	22.4074
2730.7	22.3179
2732.04	22.4506
2733.39	21.8942
2734.73	21.0294
2736.07	20.2247
2737.41	19.7523
2738.75	19.865
2740.08	20.2224
2741.43	19.6955
2742.76	18.9838
2744.1	19.1372
2745.44	19.2229
2746.78	18.7741
2748.12	19.2735
2749.46	18.8771
2750.79	19.5871
2752.13	19.1598
2753.47	18.9469
2754.81	19.049
2756.14	18.2637
2757.48	17.4109
2758.81	17.0551
2760.15	16.5307
2761.49	16.6535
2762.82	16.1428
2764.16	15.3044
2765.49	14.9254
2766.83	14.5955
2768.16	14.5142
2769.5	14.0176
2770.83	13.6634
2772.16	13.3735
2773.5	12.5976
2774.83	12.2193
2776.17	12.3371
2777.5	11.7524
2778.83	10.9382
2780.16	10.6932
2781.5	10.5643
2782.83	10.21
2784.16	8.78509
2785.49	8.56832
2786.82	8.3442
2788.15	8.28953
2789.49	7.40267
2790.82	7.06294
2792.15	6.53569
2793.48	6.25427
2794.81	6.47399
2796.14	6.07061
2797.46	5.69856
2798.79	4.78858
2800.12	3.98539
2801.45	4.00234
2802.78	4.27537
2804.11	4.1864
2805.44	3.84313
2806.76	3.33496
2808.09	2.82528
2809.42	3.0381
2810.75	3.67025
2812.07	3.9302
2813.4	5.28577
2814.73	6.5846
2816.05	7.69881
2817.38	9.36416
2818.7	10.2563
2820.03	12.334
2821.36	14.7194
2822.68	17.0294
2824.01	20.4391
2825.33	23.6862
2826.65	27.0009
2827.98	30.8953
2829.3	33.943
2830.63	37.5612
2831.95	40.7813
2833.27	44.5285
2834.6	48.4333
2835.92	51.7477
2837.24	56.0169
2838.56	60.5834
2839.88	65.8979
2841.21	71.9253
2842.53	78.3483
2843.85	85.3679
2845.17	92.1054
2846.49	99.1716
2847.81	106.394
2849.13	113.617
2850.45	120.512
2851.77	128.148
2853.09	135.348
2854.41	141.832
2855.73	148.531
2857.05	156.039
2858.37	162.989
2859.69	170.214
2861	176.541
2862.32	181.824
2863.64	186.836
2864.96	192.725
2866.28	198.708
2867.59	203.482
2868.91	206.693
2870.23	210.045
2871.54	214.393
2872.86	218.169
2874.17	222.032
2875.49	225.321
2876.81	228.86
2878.12	231.852
2879.44	234.709
2880.75	236.684
2882.07	239.349
2883.38	241.616
2884.69	243.992
2886.01	246.766
2887.32	249.055
2888.63	251.841
2889.95	254.737
2891.26	256.004
2892.57	258.819
2893.89	260.98
2895.2	263.715
2896.51	266.144
2897.82	269.85
2899.13	273.927
2900.44	277.908
2901.76	281.92
2903.07	287.075
2904.38	292.492
2905.69	298.341
2907	304.368
2908.31	310.143
2909.62	316.631
2910.93	322.566
2912.24	329.499
2913.55	335.368
2914.85	341.887
2916.16	347.667
2917.47	352.912
2918.78	358.284
2920.09	362.946
2921.4	367.392
2922.7	370.537
2924.01	373.537
2925.32	375.325
2926.62	376.243
2927.93	377.604
2929.24	377.438
2930.54	376.565
2931.85	374.852
2933.15	371.901
2934.46	369.593
2935.76	367.589
2937.07	364.262
2938.37	359.631
2939.68	355.576
2940.98	350.073
2942.29	345.106
2943.59	339.222
2944.89	332.452
2946.2	326.543
2947.5	320.104
2948.8	312.849
2950.11	306.232
2951.41	299.813
2952.71	292.582
2954.01	286.689
2955.32	279.542
2956.62	271.954
2957.92	265.416
2959.22	258.699
2960.52	252.394
2961.82	245.318
2963.12	240.245
2964.42	233.239
2965.72	227.242
2967.02	221.343
2968.32	216.009
2969.62	210.479
2970.92	205.824
2972.22	200.175
2973.51	194.847
2974.81	189.598
2976.11	184.171
2977.41	178.219
2978.71	171.859
2980	166.919
2981.3	160.359
2982.6	154.168
2983.9	148.24
2985.19	141.871
2986.49	135.469
2987.78	129.244
2989.08	122.449
2990.38	116.345
2991.67	110.182
2992.97	103.685
2994.26	97.108
2995.56	91.9012
2996.85	86.6964
2998.14	81.9385
2999.44	76.7681
3000.73	71.5761
3002.03	66.4824
3003.32	61.7016
3004.61	57.6261
3005.91	52.88
3007.2	49.2409
3008.49	45.0874
3009.78	41.0841
3011.07	38.1132
3012.37	34.8742
3013.66	31.6969
3014.95	29.7012
3016.24	26.5117
3017.53	23.4051
3018.82	21.5311
3020.11	18.1803
3021.4	16.107
3022.69	14.7652
3023.98	12.6235
3025.27	10.8198
3026.56	9.412
3027.85	8.54941
3029.14	6.70934
3030.43	6.25272
3031.71	5.90393
3033	4.98602
3034.29	3.81237
3035.58	3.81237
3036.87	2.8359
3038.15	3.0976
3039.44	3.20801
3040.73	3.77351
3042.01	3.75152
3043.3	4.04807
3044.59	4.73984
3045.87	4.63275
3047.16	5.12878
3048.44	5.78275
3049.73	5.84801
3051.01	6.14827
3052.3	6.19205
3053.58	6.79185
3054.87	7.59934
3056.15	7.45024
3057.43	8.16035
3058.72	8.4294
3060	9.29355
3061.29	9.32455
3062.57	9.8184
3063.85	9.15676
3065.13	9.61785
3066.42	10.4123
3067.7	10.1163
3068.98	10.3603
3070.26	9.85534
3071.54	9.94373
3072.82	9.96089
3074.11	9.62543
3075.39	9.44626
3076.67	8.77245
3077.95	7.9072
3079.23	7.17266
3080.51	5.68985
3081.79	5.02536
3083.07	4.39288
3084.35	3.17275
3085.63	3.39451
3086.9	2.90192
3088.18	1.65691
3089.46	1.63211
3090.74	1.65619
3092.02	1.29134
3093.29	1.17974
3094.57	2.10447
3095.85	2.46827
3097.13	1.96717
3098.4	3.0658
3099.68	4.51405
3100.95	3.8748
3102.23	3.79078
3103.51	3.76847
3104.78	3.84539
3106.06	4.21416
3107.33	4.82945
3108.61	4.97612
3109.88	5.27544
3111.16	6.29097
3112.43	6.4878
3113.71	7.24429
3114.98	7.79881
3116.25	8.88774
3117.53	9.57676
3118.8	10.0776
3120.07	11.0189
3121.35	11.97
3122.62	12.7107
3123.89	14.0905
3125.16	14.5029
3126.44	15.4542
3127.71	15.9901
3128.98	17.3133
3130.25	18.1296
3131.52	17.8288
3132.79	19.0092
3134.06	19.7043
3135.33	21.0862
3136.6	21.7861
3137.87	22.1454
3139.14	22.9788
3140.41	23.6005
3141.68	24.8947
3142.95	26.075
3144.22	27.5021
3145.49	29.0777
3146.76	30.8259
3148.02	32.2774
3149.29	33.0788
