#Acq. time (s)=	45
#Accumulations=	2
#Range (cm-¹)=	200...3150
#Windows=	2
#Auto scanning=	Off
#Autofocus=	Off
#Macrospot=	Off
#AutoExposure=	Off
#Spike filter=	Multiple accum.
#Delay time (s)=	0
#Binning=	1
#Readout mode=	Signal
#DeNoise=	Off
#ICS correction=	On
#Dark correction=	Off
#Inst. Process=	Off
#Detector Gain=	Best Dynamic Range
#Detector ADC=	20 kHz       
#Detector temperature (°C)=	-69.85
#Instrument=	LabRAM HR Evol
#Detector=	Synapse
#Objective=	x100
#Grating=	600 gr/mm
#ND Filter=	100%
#Laser (nm)=	532 
#Hole=	100.021
#Range=	Auto
#Laser Pol.=	No
#Raman. Pol.=	No
#Laser Pol. (°)=	-0.0007625
#Raman Pol. (°)=	89.9995
#Collection=	Microscope
#StageXY=	Marzhauser
#StageZ=	Marzhauser
#X (µm)=	-1059.9
#Y (µm)=	-2885.2
#Z (µm)=	528
#Full time(mm:ss)=	3:18
#Project=	
#Sample=	
#Site=	
#Title=	Mb_00_13_46_2x_45s_532 nm_x100_100%_600 gr_mm
#Remark=	
#Date=	06.07.2022 13:23
#Acquired=	06.07.2022 13:23:01
#Base:Fit=	10.08.2022 10:16:56
#Base:Sub=	10.08.2022 10:17:24
#Filter:Polynom=	16.08.2022 10:36:38
#AxisType[0]=Intens
#AxisUnit[0]=Cnt
#AxisType[1]=Spectr
#AxisUnit[1]=1/cm
200.398	21.8733
202.213	18.0328
204.027	13.9383
205.843	9.60159
207.657	4.99268
209.47	1.36718
211.283	-1.29523
213.097	-2.25831
214.909	-1.67923
216.721	-0.242752
218.533	4.86024
220.344	12.4994
222.157	20.2334
223.967	29.2736
225.777	39.9142
227.587	50.3423
229.396	61.6962
231.205	73.7367
233.016	85.1849
234.824	97.8611
236.632	109.156
238.439	119.871
240.247	129.23
242.053	137.796
243.86	145.158
245.666	151.647
247.474	160.877
249.279	167.999
251.085	174.019
252.889	181.18
254.694	187.392
256.498	193.592
258.301	198.479
260.105	200.654
261.908	202.008
263.71	201.258
265.513	200.567
267.315	197.654
269.116	195.659
270.918	189.951
272.718	186.953
274.519	180.586
276.319	173.155
278.119	165.835
279.918	157.274
281.718	146.936
283.516	138.203
285.315	128.221
287.113	117.61
288.911	106.959
290.708	96.9086
292.505	87.5458
294.302	78.4094
296.098	68.8205
297.894	60.8133
299.69	52.703
301.485	47.2328
303.278	41.6022
305.073	37.4799
306.867	34.1688
308.661	33.6254
310.454	31.15
312.247	28.3616
314.04	28.1891
315.833	26.7821
317.623	26.8274
319.415	27.5479
321.206	27.2313
322.997	27.1859
324.788	27.378
326.579	26.5024
328.367	24.7186
330.156	24.0459
331.946	23.5457
333.735	22.9518
335.523	22.9881
337.31	23.1189
339.098	22.0417
340.885	22.2245
342.673	22.036
344.458	19.6928
346.244	17.8959
348.03	15.771
349.816	14.0262
351.6	13.3217
353.385	11.1769
355.17	8.8274
356.953	8.46444
358.737	8.90139
360.521	7.3436
362.304	9.33101
364.085	10.0214
365.868	14.4848
367.65	19.0575
369.431	22.5352
371.212	29.1173
372.994	34.1106
374.773	38.9705
376.554	43.3207
378.332	48.1778
380.112	55.2185
381.892	63.7574
383.669	73.0324
385.448	83.7987
387.225	97.551
389.003	109.77
390.781	122.404
392.557	135.008
394.334	147.524
396.109	159.887
397.885	171.411
399.66	178.452
401.436	186.651
403.211	194.602
404.984	200.284
406.759	207.126
408.532	209.257
410.306	210.259
412.078	212.274
413.851	211.374
415.623	210.069
417.395	208.376
419.166	207.809
420.938	203.462
422.708	198.827
424.477	193.975
426.248	188.02
428.017	179.741
429.788	171.24
431.556	161.6
433.326	151.504
435.093	141.495
436.86	131.812
438.629	121.965
440.395	110.807
442.163	99.713
443.929	90.4306
445.694	83.5281
447.461	75.2318
449.226	67.3821
450.99	61.0271
452.756	54.6313
454.52	48.8849
456.285	42.122
458.048	37.4981
459.811	33.2031
461.573	27.9468
463.337	24.4171
465.099	21.6566
466.86	22.4574
468.623	24.901
470.384	26.9145
472.144	29.6912
473.906	32.776
475.666	35.2446
477.425	36.1172
479.184	39.3701
480.944	40.5021
482.703	43.3273
484.461	46.352
486.218	46.3917
487.975	46.7378
489.734	49.3943
491.491	50.9855
493.247	51.8479
495.003	51.9698
496.759	53.3327
498.516	55.7314
500.271	57.2644
502.025	57.1683
503.779	60.0545
505.533	61.3063
507.287	61.9459
509.042	61.4213
510.795	61.6729
512.547	62.3361
514.299	62.3953
516.051	63.3767
517.803	65.1916
519.554	65.9343
521.305	67.3267
523.055	68.7897
524.805	70.0749
526.555	71.3977
528.307	71.3827
530.056	72.3577
531.805	73.935
533.553	72.8864
535.301	72.3088
537.049	71.2967
538.797	70.4351
540.544	69.2571
542.291	68.4931
544.037	67.4256
545.783	68.7457
547.529	64.6662
549.275	62.0312
551.02	59.7099
552.765	58.0817
554.509	55.3301
556.253	53.3401
557.997	51.9849
559.738	50.75
561.482	48.9352
563.224	47.7338
564.967	46.6936
566.709	44.9814
568.451	44.0582
570.192	45.0895
571.933	43.2166
573.674	40.4944
575.415	38.7175
577.153	36.5596
578.893	35.86
580.632	34.3462
582.371	33.3236
584.11	32.424
585.849	29.6353
587.587	28.651
589.323	27.6591
591.06	27.8243
592.797	26.8019
594.534	25.7239
596.271	24.4377
598.005	25.4865
599.741	26.7437
601.476	27.8382
603.211	30.5476
604.944	31.0079
606.679	31.2498
608.413	31.7531
610.147	31.2347
611.878	31.6654
613.611	31.8143
615.344	31.8653
617.077	32.3007
618.807	31.7589
620.539	30.4947
622.27	31.1425
623.999	32.0616
625.73	33.427
627.461	34.3274
629.189	37.0715
630.919	39.3208
632.648	41.2939
634.376	40.2391
636.105	43.5811
637.833	46.6383
639.559	48.4287
641.287	50.3778
643.013	53.1471
644.74	53.4124
646.467	53.1373
648.192	53.413
649.918	54.4469
651.642	55.1453
653.368	56.5388
655.091	58.37
656.816	57.7269
658.538	55.8341
660.263	53.7448
661.987	51.6665
663.708	49.8395
665.432	48.6423
667.153	46.0415
668.875	44.1212
670.596	43.1963
672.318	42.2147
674.037	41.1401
675.759	39.5282
677.478	37.7129
679.196	35.9795
680.917	33.7294
682.635	33.2906
684.355	32.1726
686.072	29.7544
687.791	28.209
689.508	27.5091
691.224	23.0217
692.942	21.2927
694.658	18.4342
696.376	16.357
698.091	14.885
699.805	11.9148
701.522	10.1816
703.236	8.54141
704.95	8.05574
706.665	8.77472
708.379	9.35275
710.093	10.6774
711.806	10.9211
713.518	12.0128
715.23	13.9926
716.943	14.6376
718.655	16.6944
720.366	19.6999
722.078	20.1961
723.788	21.1323
725.498	21.3344
727.208	21.3844
728.919	21.062
730.628	21.0749
732.337	22.212
734.045	24.7633
735.755	27.3779
737.463	27.9288
739.17	28.4297
740.877	27.7777
742.584	28.2526
744.292	29.5565
745.998	30.2746
747.704	30.7957
749.409	33.0861
751.114	34.6461
752.819	36.758
754.526	38.0033
756.23	40.8269
757.934	41.2421
759.637	42.6197
761.34	43.8685
763.043	43.6314
764.746	44.6251
766.448	45.8027
768.152	45.6986
769.853	46.1423
771.554	48.0377
773.255	48.2826
774.956	50.0337
776.656	49.7102
778.356	50.47
780.056	48.6081
781.755	49.3736
783.454	49.7926
785.153	50.1385
786.851	50.4388
788.549	50.681
790.247	50.288
791.944	50.1464
793.641	50.4844
795.338	51.3758
797.034	51.4708
798.73	52.9532
800.426	52.7633
802.121	52.3662
803.817	54.4907
805.511	54.0293
807.206	52.1362
808.9	53.1255
810.592	52.7655
812.286	53.2237
813.979	52.9234
815.672	52.8843
817.364	52.7023
819.057	53.2901
820.748	53.4122
822.44	53.2831
824.129	54.9837
825.82	55.1852
827.511	56.0657
829.201	56.5779
830.891	56.4336
832.581	57.3723
834.269	58.7099
835.958	57.9069
837.646	58.0909
839.335	56.5787
841.023	56.3246
842.709	55.8327
844.396	55.806
846.084	54.3354
847.77	53.0589
849.455	52.3062
851.141	52.8128
852.827	51.929
854.513	51.4757
856.196	49.1752
857.881	46.5898
859.566	45.5538
861.248	41.9859
862.932	39.3255
864.616	37.4855
866.297	35.7959
867.98	33.1304
869.663	31.1789
871.343	28.4212
873.026	27.1607
874.707	27.175
876.387	26.979
878.068	24.9512
879.747	24.0774
881.428	23.4157
883.108	22.5727
884.786	21.7694
886.465	22.1597
888.143	22.9703
889.822	21.6817
891.498	20.8596
893.177	20.397
894.855	19.4449
896.53	18.1264
898.208	15.5526
899.883	14.9299
901.56	14.2021
903.234	16.0273
904.91	17.2884
906.584	17.9088
908.26	17.4897
909.933	16.355
911.608	17.271
913.28	17.9764
914.955	18.6703
916.627	19.486
918.298	17.9079
919.972	17.7684
921.643	18.556
923.315	18.3955
924.986	21.3067
926.656	21.0509
928.328	20.1811
929.997	19.8772
931.668	20.2273
933.337	20.0993
935.006	20.0494
936.676	18.5671
938.344	17.1536
940.012	16.1343
941.681	16.0457
943.348	15.9077
945.014	15.9643
946.683	16.9465
948.349	15.2704
950.015	14.9375
951.682	14.9708
953.347	15.975
955.012	15.3215
956.676	14.5421
958.343	12.9002
960.006	9.07032
961.67	8.78823
963.333	11.129
964.998	12.8573
966.661	14.0562
968.323	16.2279
969.985	20.662
971.649	25.1722
973.31	31.283
974.971	37.059
976.632	44.0153
978.293	52.1732
979.953	59.5041
981.615	68.6421
983.274	78.0922
984.933	86.3179
986.592	94.4894
988.251	98.7246
989.909	104.453
991.567	110.327
993.225	115.031
994.884	119.545
996.541	124.865
998.198	127.273
999.855	130.299
1001.51	131.382
1003.17	133.895
1004.82	134.653
1006.48	133.143
1008.13	131.892
1009.79	127.076
1011.44	124.478
1013.1	121.775
1014.75	119.381
1016.4	117.479
1018.06	116.539
1019.71	116.678
1021.36	116.538
1023.01	117.673
1024.66	121.043
1026.32	123.963
1027.97	128.793
1029.62	132.05
1031.27	134.23
1032.92	138.016
1034.57	140.278
1036.22	142.629
1037.87	142.725
1039.52	143.896
1041.16	144.6
1042.81	147.699
1044.46	153.163
1046.11	155.295
1047.76	158.126
1049.4	160.475
1051.05	163.405
1052.7	168.492
1054.34	169.779
1055.99	172.865
1057.63	172.701
1059.28	172.911
1060.92	174.005
1062.57	170.917
1064.21	168.558
1065.85	164.509
1067.5	159.052
1069.14	154.01
1070.78	147.07
1072.43	140.207
1074.07	132.334
1075.71	122.661
1077.35	112.898
1078.99	102.932
1080.63	90.4515
1082.27	81.2413
1083.91	69.9418
1085.55	59.4525
1087.19	48.0964
1088.83	37.0507
1090.47	27.5466
1092.11	20.032
1093.75	13.8414
1095.39	8.25416
1097.03	5.02226
1098.66	2.75394
1100.3	1.88735
1101.94	1.8408
1103.57	3.71374
1105.21	6.12256
1106.84	8.01071
1108.48	8.4357
1110.11	10.6969
1111.75	11.0472
1113.38	11.4668
1115.02	12.6664
1116.65	12.8948
1118.29	13.5405
1119.92	14.1544
1121.55	15.241
1123.19	15.5008
1124.82	17.5912
1126.45	17.6998
1128.08	17.3529
1129.71	16.4418
1131.34	16.433
1132.97	16.755
1134.6	17.8593
1136.23	18.5035
1137.86	19.5701
1139.49	18.617
1141.12	20.0918
1142.75	19.9411
1144.38	18.5731
1146.01	18.1165
1147.64	17.7457
1149.26	16.0013
1150.89	16.3845
1152.52	14.4681
1154.15	14.0391
1155.77	14.01
1157.4	12.5638
1159.02	11.3191
1160.65	12.1962
1162.27	11.3605
1163.9	10.9894
1165.52	10.2754
1167.15	9.33292
1168.77	7.9422
1170.39	8.19622
1172.02	8.46989
1173.64	7.25719
1175.26	5.58054
1176.89	4.97404
1178.51	6.6605
1180.13	7.03732
1181.75	7.43598
1183.37	9.24339
1184.99	10.0683
1186.61	11.0732
1188.23	11.0748
1189.85	12.7195
1191.47	15.0178
1193.09	17.4641
1194.71	18.562
1196.33	20.8624
1197.94	22.4278
1199.56	25.3563
1201.18	27.3155
1202.8	29.7229
1204.41	32.4114
1206.03	34.6916
1207.65	35.7139
1209.26	38.9788
1210.88	41.2218
1212.49	44.8635
1214.11	48.6354
1215.72	52.2919
1217.34	55.0974
1218.95	56.8446
1220.57	59.2298
1222.18	61.6992
1223.79	63.2151
1225.41	66.3865
1227.02	68.1772
1228.63	71.2278
1230.24	72.9418
1231.85	75.2545
1233.47	76.568
1235.08	79.3883
1236.69	80.3937
1238.3	81.1578
1239.91	82.8731
1241.52	85.281
1243.13	85.1903
1244.74	84.4515
1246.34	85.51
1247.95	85.4195
1249.56	84.6757
1251.17	84.7245
1252.78	83.4142
1254.38	80.9533
1255.99	80.8191
1257.6	80.8231
1259.2	80.8458
1260.81	79.2964
1262.42	78.6128
1264.02	78.2419
1265.63	77.0268
1267.23	76.1679
1268.84	72.3568
1270.44	72.5007
1272.04	72.392
1273.65	72.5561
1275.25	72.4039
1276.85	72.4575
1278.46	72.3983
1280.06	74.068
1281.66	74.2181
1283.26	76.092
1284.86	77.776
1286.46	79.3246
1288.07	81.4298
1289.67	82.6062
1291.27	82.4021
1292.87	83.4947
1294.47	86.223
1296.06	86.8465
1297.66	88.0791
1299.26	89.4976
1300.86	91.3838
1302.46	92.3254
1304.06	93.6268
1305.65	94.9606
1307.25	96.6613
1308.85	98.8882
1310.44	99.4952
1312.04	102.614
1313.64	103.97
1315.23	105.992
1316.83	106.692
1318.42	109.393
1320.02	110.034
1321.61	111.257
1323.2	110.318
1324.8	108.874
1326.39	109.95
1327.99	109.424
1329.58	109.238
1331.17	108.799
1332.76	108.521
1334.36	107.763
1335.95	108.851
1337.54	108.688
1339.13	106.835
1340.72	105.894
1342.31	106.761
1343.9	106.068
1345.49	104.372
1347.08	103.511
1348.67	102.789
1350.26	104.752
1351.85	103.882
1353.43	103.731
1355.02	103.018
1356.61	101.901
1358.2	101.772
1359.78	101.305
1361.37	99.1251
1362.96	100.098
1364.54	97.4594
1366.13	95.5438
1367.71	93.2445
1369.3	90.3619
1370.88	89.0813
1372.47	86.822
1374.05	84.1943
1375.64	81.0893
1377.22	79.9263
1378.8	78.4736
1380.39	77.3598
1381.97	75.8101
1383.55	75.173
1385.13	75.6285
1386.72	75.2447
1388.3	74.446
1389.88	73.3521
1391.46	73.5152
1393.04	69.3656
1394.62	70.1535
1396.2	67.5738
1397.78	66.9624
1399.36	64.144
1400.94	63.5764
1402.52	64.2758
1404.1	65.1165
1405.68	66.8581
1407.25	67.7344
1408.83	70.6323
1410.41	73.6265
1411.98	77.9365
1413.56	82.3199
1415.14	87.6461
1416.71	91.154
1418.29	96.608
1419.87	102.137
1421.44	107.207
1423.02	111.551
1424.59	116.031
1426.16	122.772
1427.74	128.479
1429.31	135.011
1430.89	140.044
1432.46	146.41
1434.03	151.461
1435.6	156.384
1437.18	160.096
1438.75	162.815
1440.32	167.486
1441.89	170.966
1443.46	171.755
1445.03	174.307
1446.6	174.685
1448.17	174.848
1449.74	175.095
1451.31	174.842
1452.88	173.622
1454.45	172.931
1456.02	172.587
1457.59	170.562
1459.16	166.22
1460.72	163.472
1462.29	160.182
1463.86	156.561
1465.43	151.767
1466.99	145.956
1468.56	139.542
1470.13	132.978
1471.69	125.943
1473.26	122.573
1474.82	116.974
1476.38	111.593
1477.95	106.702
1479.51	102.388
1481.08	98.1927
1482.64	92.8723
1484.2	89.3425
1485.77	85.8156
1487.33	84.2033
1488.89	81.8922
1490.46	79.6492
1492.02	77.0374
1493.58	74.3484
1495.14	70.9502
1496.7	69.4333
1498.26	65.4815
1499.82	64.6806
1501.38	63.2313
1502.94	61.7948
1504.5	61.4924
1506.06	61.4524
1507.62	60.5941
1509.18	60.0297
1510.73	58.7927
1512.29	56.9585
1513.85	54.1397
1515.41	53.5562
1516.96	53.4371
1518.52	53.6843
1520.08	52.2881
1521.63	52.179
1523.19	51.1645
1524.75	50.3778
1526.3	51.0338
1527.85	49.9077
1529.41	49.7992
1530.96	48.2855
1532.52	50.0983
1534.07	49.2511
1535.62	49.9367
1537.18	49.9399
1538.73	52.1034
1540.28	53.4086
1541.84	54.0028
1543.39	54.8783
1544.94	54.9702
1546.49	55.8652
1548.04	56.9009
1549.59	58.2948
1551.14	60.255
1552.69	61.4209
1554.25	61.7741
1555.79	64.7436
1557.34	64.7542
1558.89	65.4816
1560.44	67.7116
1561.99	69.0382
1563.54	69.1359
1565.08	70.8856
1566.63	71.6775
1568.18	73.8361
1569.73	74.1503
1571.27	75.9984
1572.82	77.0409
1574.37	79.5498
1575.91	81.7598
1577.46	83.7344
1579	84.3634
1580.55	87.1212
1582.09	88.6919
1583.64	90.6015
1585.18	91.9048
1586.73	93.9091
1588.27	95.4392
1589.81	96.1462
1591.35	96.845
1592.9	100.683
1594.44	101.203
1595.98	101.434
1597.52	102.301
1599.06	103.114
1600.61	103.055
1602.15	102.905
1603.69	104.5
1605.23	103.928
1606.77	104.293
1608.31	104.226
1609.85	104.573
1611.39	103.807
1612.93	103.966
1614.46	103.243
1616	103.081
1617.54	103.339
1619.08	102.255
1620.61	101.932
1622.15	100.813
1623.69	99.926
1625.23	100.601
1626.76	100.005
1628.3	98.6872
1629.83	97.3652
1631.37	96.7067
1632.9	96.2286
1634.44	94.6514
1635.97	93.5245
1637.51	93.5387
1639.04	91.7794
1640.57	92.4062
1642.11	93.4634
1643.64	94.3571
1645.17	94.0786
1646.71	93.25
1648.24	93.4063
1649.77	93.6763
1651.3	95.399
1652.83	95.1153
1654.36	94.423
1655.89	94.4432
1657.42	93.5089
1658.96	93.2754
1660.48	92.018
1662.01	91.3336
1663.54	90.6797
1665.07	87.827
1666.6	85.5022
1668.13	85.1468
1669.66	85.1089
1671.19	81.4889
1672.71	79.0484
1674.24	76.3472
1675.77	75.061
1677.29	72.1529
1678.82	68.9092
1680.35	66.6929
1681.87	61.994
1683.4	58.5955
1684.92	55.8193
1686.45	52.2628
1687.97	49.4531
1689.5	45.2443
1691.02	42.4086
1692.54	39.6388
1694.07	36.6986
1695.59	33.1856
1697.11	30.7493
1698.64	27.3471
1700.16	25.6805
1701.68	23.0612
1703.2	20.5714
1704.72	18.0312
1706.25	17.1427
1707.77	15.5885
1709.29	14.0543
1710.81	11.4963
1712.33	9.14427
1713.85	8.59213
1715.37	6.54367
1716.89	6.34341
1718.41	4.97576
1719.92	3.5794
1721.44	0.886168
1722.96	1.75168
1724.48	1.09752
1725.99	1.0948
1727.51	-0.105709
1729.03	-0.592853
1730.55	-1.49053
1732.06	-2.47275
1733.58	-1.89937
1735.09	-1.09229
1736.61	-2.79244
1738.13	-1.77693
1739.64	-2.38337
1741.15	-2.19352
1742.67	-2.12505
1744.18	-1.69395
1745.7	-1.90717
1747.21	-2.50031
1748.72	-1.67718
1750.24	-1.53558
1751.75	-0.791766
1753.26	-2.32984
1754.77	-2.33127
1756.29	-1.926
1757.8	-1.83526
1759.31	-0.876808
1760.82	0.0494944
1762.33	0.237055
1763.84	0.23361
1765.35	0.0328919
1766.86	0.655014
1768.37	1.74477
1769.88	1.24126
1771.39	1.90308
1772.9	3.13739
1774.4	3.24546
1775.91	4.13471
1777.42	4.92316
1778.93	6.58915
1780.44	6.38944
1781.94	7.46779
1783.45	8.07474
1784.96	8.03587
1786.46	7.22884
1787.97	7.43754
1789.47	7.36785
1790.98	7.24281
1792.48	6.79885
1793.99	6.64957
1795.49	6.64304
1797	6.7891
1798.5	7.58913
1800.01	6.50713
1801.51	5.8749
1803.01	5.44853
1804.51	5.55744
1806.02	4.37437
1807.52	4.36713
1809.02	5.07199
1810.52	3.66003
1812.02	3.678
1813.52	3.78401
1815.02	3.14361
1816.53	3.71901
1818.03	3.45152
1819.52	4.29115
1821.02	3.43964
1822.52	3.42246
1824.02	4.05612
1825.52	3.92611
1827.02	4.25045
1828.52	3.52299
1830.02	3.93617
1831.51	3.38754
1833.01	3.05674
1834.51	2.97201
1836.01	3.3603
1837.5	3.21177
1839	3.34256
1840.49	3.47117
1841.99	4.63456
1843.49	5.7184
1844.98	5.97311
1846.48	6.93512
1847.97	6.95583
1849.47	7.35363
1850.96	8.60837
1852.45	8.74946
1853.95	9.93267
1855.44	8.585
1856.93	8.16524
1858.42	8.0807
1859.92	7.25802
1861.41	7.56409
1862.9	7.10182
1864.39	7.01386
1865.88	7.24621
1867.38	6.77793
1868.87	6.29184
1870.36	6.77752
1871.85	6.66201
1873.34	5.7674
1874.83	5.31874
1876.32	5.85348
1877.81	6.37516
1879.29	6.83497
1880.78	7.50769
1882.27	8.02174
1882.53	8.84007
1884.03	9.48095
1885.52	10.7525
1887.01	12.1701
1888.51	12.8168
1890	13.2667
1891.5	13.6182
1892.99	13.3958
1894.48	13.3275
1895.97	14.5127
1897.47	13.9997
1898.96	12.954
1900.45	12.8519
1901.94	13.6047
1903.43	14.1349
1904.92	14.1322
1906.41	14.6538
1907.9	15.6954
1909.39	16.2174
1910.88	16.475
1912.37	16.2186
1913.86	16.6181
1915.35	17.3919
1916.84	16.0039
1918.33	15.988
1919.81	16.1174
1921.3	16.2219
1922.79	15.4732
1924.28	14.5402
1925.76	12.7186
1927.25	11.6302
1928.73	9.80043
1930.22	9.47345
1931.71	8.49771
1933.19	8.55049
1934.68	8.12085
1936.16	7.10354
1937.65	7.19017
1939.13	6.72255
1940.62	6.29959
1942.1	6.76713
1943.58	7.71791
1945.07	7.2598
1946.55	6.82857
1948.03	7.93245
1949.51	8.80302
1951	9.35145
1952.48	11.3254
1953.96	13.7365
1955.44	14.809
1956.92	16.414
1958.4	17.4799
1959.88	18.2569
1961.36	17.5138
1962.84	16.4787
1964.32	16.9207
1965.8	17.1988
1967.28	17.4127
1968.76	17.281
1970.24	17.4445
1971.72	17.2729
1973.2	17.5626
1974.67	19.0498
1976.15	19.1301
1977.63	18.3417
1979.1	17.5491
1980.58	18.5801
1982.06	18.694
1983.54	17.8295
1985.01	17.4473
1986.49	17.3669
1987.96	18.1819
1989.44	17.4962
1990.91	17.0803
1992.39	17.4656
1993.86	17.0979
1995.33	16.7394
1996.81	15.6263
1998.28	15.7288
1999.75	15.4168
2001.23	14.382
2002.7	14.7432
2004.17	13.238
2005.65	13.178
2007.12	13.7664
2008.59	12.4354
2010.06	11.4382
2011.53	11.3632
2013	10.2385
2014.47	10.6345
2015.94	9.95121
2017.41	9.37946
2018.88	8.69131
2020.35	8.14983
2021.82	9.72826
2023.29	10.4223
2024.76	11.7824
2026.23	12.8612
2027.69	12.8352
2029.16	12.3609
2030.63	12.7826
2032.1	12.6053
2033.56	12.7941
2035.03	12.5223
2036.5	13.0713
2037.96	13.6977
2039.43	14.1644
2040.89	14.5269
2042.36	13.4052
2043.83	13.4761
2045.29	14.0026
2046.75	14.725
2048.22	15.9542
2049.68	15.7857
2051.15	16.4939
2052.61	17.0457
2054.07	18.8927
2055.54	19.39
2057	20.1111
2058.46	21.8881
2059.92	22.5708
2061.39	23.3662
2062.85	22.8585
2064.31	24.4295
2065.77	24.2298
2067.23	25.1361
2068.69	25.0671
2070.15	24.2139
2071.61	24.268
2073.07	23.8195
2074.53	22.4441
2075.99	21.7588
2077.45	21.5834
2078.91	21.7231
2080.37	20.8585
2081.82	20.5122
2083.28	20.4829
2084.74	20.1319
2086.2	20.4041
2087.65	21.8485
2089.11	20.7263
2090.57	20.7412
2092.02	20.8242
2093.48	20.5517
2094.94	22.3017
2096.39	21.4936
2097.85	21.0572
2099.3	20.7466
2100.76	21.7697
2102.21	21.5845
2103.66	21.883
2105.12	21.9586
2106.57	21.7362
2108.03	21.2715
2109.48	20.325
2110.93	21.2649
2112.38	21.8526
2113.84	21.2069
2115.29	20.0197
2116.74	21.9955
2118.19	23.1757
2119.64	22.7929
2121.09	21.9203
2122.54	22.6551
2123.99	21.9472
2125.45	22.1317
2126.89	22.9797
2128.34	21.7863
2129.79	21.6315
2131.24	21.511
2132.69	19.9371
2134.14	19.0634
2135.59	17.4154
2137.04	16.9652
2138.48	15.4739
2139.93	15.6126
2141.38	14.6604
2142.83	14.3357
2144.27	14.3425
2145.72	14.1314
2147.17	13.3605
2148.61	14.2738
2150.06	15.5604
2151.5	15.5041
2152.95	15.7242
2154.39	16.4723
2155.84	16.9927
2157.28	16.9431
2158.73	17.9784
2160.17	17.7213
2161.61	16.7396
2163.06	16.992
2164.5	17.6893
2165.94	17.1703
2167.38	17.5772
2168.83	17.5525
2170.27	19.4783
2171.71	21.1694
2173.15	22.7691
2174.59	22.4352
2176.03	22.3858
2177.47	22.8518
2178.91	23.2659
2180.36	24.3757
2181.8	25.5069
2183.23	26.3658
2184.67	26.443
2186.11	26.8941
2187.55	28.5698
2188.99	29.994
2190.43	30.6212
2191.87	29.681
2193.3	31.2697
2194.74	32.7431
2196.18	31.7403
2197.62	32.0223
2199.05	31.201
2200.49	30.3685
2201.93	30.0689
2203.36	29.5093
2204.8	28.5963
2206.23	27.2681
2207.67	26.8979
2209.1	27.0103
2210.54	26.8039
2211.97	27.5511
2213.41	27.5704
2214.84	27.1959
2216.27	26.8615
2217.71	27.436
2219.14	27.1408
2220.57	28.2481
2222.01	27.6557
2223.44	26.5024
2224.87	25.2371
2226.3	24.1575
2227.73	23.4715
2229.16	23.0255
2230.6	23.8934
2232.03	22.8871
2233.46	22.0953
2234.89	21.8313
2236.32	21.6247
2237.75	20.9149
2239.18	20.8779
2240.61	21.6888
2242.03	22.2752
2243.46	21.8245
2244.89	21.6926
2246.32	21.4758
2247.75	21.5904
2249.17	22.2122
2250.6	22.7944
2252.03	23.9144
2253.46	24.8667
2254.88	24.4038
2256.31	25.4452
2257.73	25.7835
2259.16	25.8772
2260.59	25.2116
2262.01	25.0454
2263.44	24.3845
2264.86	24.1457
2266.29	23.2777
2267.71	22.418
2269.14	22.0487
2270.56	22.4541
2271.98	23.1536
2273.4	22.224
2274.83	21.9955
2276.25	20.8221
2277.67	20.6437
2279.09	20.6184
2280.52	21.0466
2281.94	21.3958
2283.36	21.7086
2284.78	21.7234
2286.2	20.323
2287.62	21.1264
2289.04	20.1864
2290.46	18.6609
2291.88	17.6482
2293.3	15.213
2294.72	14.5463
2296.14	14.2915
2297.56	15.3584
2298.98	16.5766
2300.4	17.2627
2301.82	17.172
2303.23	15.7172
2304.65	16.0066
2306.07	15.3417
2307.49	15.2457
2308.9	15.1243
2310.32	15.6098
2311.73	15.6113
2313.15	14.8748
2314.57	15.4275
2315.98	15.6439
2317.4	15.4379
2318.81	14.4978
2320.23	13.9605
2321.64	14.9857
2323.06	14.5556
2324.47	13.6055
2325.88	12.6688
2327.3	12.5843
2328.71	11.855
2330.12	11.345
2331.54	11.1737
2332.95	10.5544
2334.36	9.85931
2335.77	9.11977
2337.18	9.29211
2338.6	8.51408
2340.01	8.85569
2341.42	9.03344
2342.83	8.42537
2344.24	6.99029
2345.65	6.68925
2347.06	6.44545
2348.47	6.03805
2349.88	4.71999
2351.29	4.3187
2352.7	3.63885
2354.1	3.45947
2355.51	2.71074
2356.92	0.992666
2358.33	0.66877
2359.74	-0.503648
2361.14	-1.13176
2362.55	-0.486881
2363.96	1.42226
2365.36	2.25589
2366.77	3.32445
2368.18	4.03551
2369.58	4.46781
2370.99	4.51698
2372.39	4.55476
2373.8	3.74902
2375.2	3.70217
2376.61	3.50271
2378.01	4.80813
2379.42	4.54104
2380.82	5.3548
2382.22	5.06845
2383.63	5.05463
2385.03	7.14267
2386.43	7.46
2387.84	7.58396
2389.24	8.67182
2390.64	9.74985
2392.04	10.847
2393.44	11.45
2394.84	12.8474
2396.25	13.8264
2397.65	13.5426
2399.05	13.822
2400.45	12.98
2401.85	12.8066
2403.25	13.1682
2404.65	12.7603
2406.05	12.5782
2407.45	12.6104
2408.84	12.1721
2410.24	12.7401
2411.64	11.7974
2413.04	10.1727
2414.44	9.21769
2415.83	9.23392
2417.23	8.92806
2418.63	9.25382
2420.02	8.12567
2421.42	8.28733
2422.82	9.2476
2424.21	8.6909
2425.61	7.68921
2427	7.51911
2428.4	6.66796
2429.8	6.1789
2431.19	5.14301
2432.58	6.49652
2433.98	6.38926
2435.37	5.40941
2436.77	6.28271
2438.16	5.65293
2439.55	4.76393
2440.95	3.49784
2442.34	2.68649
2443.73	1.92193
2445.12	1.91757
2446.51	1.55162
2447.91	0.727842
2449.3	0.285459
2450.69	0.152645
2452.08	0.169685
2453.47	0.253674
2454.86	1.7578
2456.25	1.94486
2457.64	2.68089
2459.03	3.35487
2460.42	2.87409
2461.81	4.44826
2463.2	5.2324
2464.59	5.6402
2465.98	4.57809
2467.36	4.06278
2468.75	3.19455
2470.14	2.87041
2471.53	3.67158
2472.92	3.71064
2474.3	4.4184
2475.69	4.06633
2477.08	4.66447
2478.46	4.31698
2479.85	4.64213
2481.23	4.47402
2482.62	4.66999
2484	4.90297
2485.39	4.85833
2486.77	5.64676
2488.16	5.5023
2489.54	5.43047
2490.93	6.03367
2492.31	5.97374
2493.69	4.4681
2495.08	4.38631
2496.46	4.34351
2497.84	3.68072
2499.23	3.79972
2500.61	3.00691
2501.99	4.78069
2503.37	4.0989
2504.75	3.54626
2506.13	3.76294
2507.52	3.45087
2508.9	2.98936
2510.28	3.6177
2511.66	3.94924
2513.04	4.76817
2514.42	4.24842
2515.8	4.05018
2517.18	4.4343
2518.55	5.80705
2519.93	5.96187
2521.31	7.62401
2522.69	7.60638
2524.07	8.29664
2525.45	8.94563
2526.82	9.45179
2528.2	8.92079
2529.58	9.25874
2530.95	10.5573
2532.33	9.86744
2533.71	9.70882
2535.08	8.56579
2536.46	9.09602
2537.84	8.19054
2539.21	9.14934
2540.59	8.50326
2541.96	8.22146
2543.34	8.57499
2544.71	6.66706
2546.08	6.24561
2547.46	5.1903
2548.83	5.325
2550.2	4.68877
2551.58	3.62296
2552.95	2.71721
2554.32	2.65502
2555.7	3.37075
2557.07	2.95772
2558.44	3.47446
2559.81	1.68773
2561.18	1.43143
2562.55	1.12488
2563.93	1.95804
2565.3	2.292
2566.67	2.00992
2568.04	1.37352
2569.41	1.67275
2570.78	3.41125
2572.15	2.7153
2573.51	2.90314
2574.88	3.77882
2576.25	4.00789
2577.62	4.05243
2578.99	5.43624
2580.36	5.90808
2581.73	7.36361
2583.09	7.20087
2584.46	7.71088
2585.83	8.63111
2587.19	10.389
2588.56	10.1482
2589.93	10.7321
2591.29	11.2086
2592.66	11.8348
2594.02	12.797
2595.39	12.6432
2596.75	12.6527
2598.12	13.2968
2599.48	13.3864
2600.85	12.5317
2602.21	12.2634
2603.58	10.9323
2604.94	11.2025
2606.3	10.4136
2607.67	10.3019
2609.03	9.85267
2610.39	9.79674
2611.76	9.16575
2613.12	9.56222
2614.48	8.98663
2615.84	8.34973
2617.2	7.88681
2618.56	6.6347
2619.92	6.57374
2621.28	6.99864
2622.65	6.58632
2624.01	6.7996
2625.37	5.70677
2626.72	5.31113
2628.08	4.5176
2629.44	5.48966
2630.8	6.17376
2632.16	7.01189
2633.52	6.05112
2634.88	4.89534
2636.24	4.62025
2637.59	4.91319
2638.95	5.13139
2640.31	3.78673
2641.67	4.01243
2643.02	3.99479
2644.38	6.07082
2645.74	6.85803
2647.09	8.2789
2648.45	7.72119
2649.8	7.99003
2651.16	7.62232
2652.51	7.99719
2653.87	9.11519
2655.22	10.0398
2656.58	9.90365
2657.93	10.4118
2659.29	10.8244
2660.64	10.4474
2661.99	10.7699
2663.35	11.2527
2664.7	11.8153
2666.05	11.7082
2667.41	12.1657
2668.76	11.9022
2670.11	12.2421
2671.46	11.8544
2672.81	12.9702
2674.16	12.6947
2675.51	12.7687
2676.87	13.2374
2678.22	13.283
2679.57	12.4882
2680.92	13.2138
2682.27	12.046
2683.62	11.9687
2684.97	12.3433
2686.31	11.911
2687.66	13.0274
2689.01	12.874
2690.36	11.7932
2691.71	13.412
2693.06	13.6098
2694.4	14.668
2695.75	14.2663
2697.1	13.7738
2698.45	13.5276
2699.79	13.4662
2701.14	13.0729
2702.49	12.4547
2703.83	13.1264
2705.18	14.2971
2706.52	14.6234
2707.87	14.344
2709.21	16.25
2710.56	17.2811
2711.9	19.3734
2713.25	18.8586
2714.59	19.0577
2715.94	18.774
2717.28	19.5095
2718.62	20.3077
2719.97	20.6996
2721.31	20.6181
2722.65	21.4756
2723.99	21.6415
2725.34	21.4376
2726.68	20.9677
2728.02	22.4175
2729.36	22.7588
2730.7	23.0042
2732.04	23.0328
2733.39	23.1743
2734.73	22.9173
2736.07	21.7704
2737.41	21.0927
2738.75	19.9064
2740.08	19.5158
2741.43	17.9057
2742.76	17.158
2744.1	16.2251
2745.44	14.7548
2746.78	13.5268
2748.12	13.5963
2749.46	12.1779
2750.79	11.49
2752.13	11.3676
2753.47	11.0101
2754.81	11.318
2756.14	9.54478
2757.48	8.64115
2758.81	9.13338
2760.15	7.43424
2761.49	6.20784
2762.82	4.98678
2764.16	4.79898
2765.49	5.57141
2766.83	5.95021
2768.16	5.82139
2769.5	5.53089
2770.83	5.66572
2772.16	5.66776
2773.5	5.46937
2774.83	5.5317
2776.17	6.45699
2777.5	6.68139
2778.83	5.94603
2780.16	5.64671
2781.5	5.341
2782.83	5.25148
2784.16	4.57102
2785.49	4.63476
2786.82	4.66092
2788.15	4.54928
2789.49	5.17065
2790.82	4.45718
2792.15	4.01767
2793.48	3.78398
2794.81	4.61654
2796.14	4.5012
2797.46	4.79395
2798.79	4.61566
2800.12	4.36341
2801.45	2.8411
2802.78	1.77505
2804.11	1.07711
2805.44	0.17554
2806.76	-0.462686
2808.09	-1.8067
2809.42	-1.32531
2810.75	-0.776115
2812.07	-0.376161
2813.4	0.907148
2814.73	2.22513
2816.05	3.48352
2817.38	5.947
2818.7	9.54574
2820.03	12.1759
2821.36	15.8476
2822.68	19.7239
2824.01	24.3839
2825.33	29.1316
2826.65	32.6316
2827.98	37.8398
2829.3	43.3772
2830.63	49.0941
2831.95	54.6128
2833.27	59.714
2834.6	65.2243
2835.92	71.0239
2837.24	77.3981
2838.56	84.1794
2839.88	91.7168
2841.21	98.5524
2842.53	106.462
2843.85	113.836
2845.17	121.184
2846.49	130.28
2847.81	137.867
2849.13	146.953
2850.45	156.639
2851.77	166.723
2853.09	176.065
2854.41	185.682
2855.73	195.293
2857.05	203.385
2858.37	212.458
2859.69	220.79
2861	229.486
2862.32	237.845
2863.64	244.513
2864.96	251.306
2866.28	257.774
2867.59	262.869
2868.91	267.697
2870.23	274.163
2871.54	279.319
2872.86	284.084
2874.17	289.868
2875.49	294.302
2876.81	298.022
2878.12	301.873
2879.44	306.855
2880.75	310.307
2882.07	313.974
2883.38	318.317
2884.69	322.786
2886.01	326.027
2887.32	330.108
2888.63	332.431
2889.95	334.435
2891.26	336.446
2892.57	339.011
2893.89	342.513
2895.2	344.203
2896.51	345.892
2897.82	348.623
2899.13	352.088
2900.44	356.349
2901.76	361.909
2903.07	367.079
2904.38	371.962
2905.69	377.999
2907	383.467
2908.31	390.269
2909.62	397.591
2910.93	405.354
2912.24	414.27
2913.55	422.794
2914.85	431.5
2916.16	439.406
2917.47	446.357
2918.78	452.131
2920.09	457.778
2921.4	462.725
2922.7	467.156
2924.01	470.819
2925.32	473.571
2926.62	475.553
2927.93	476.828
2929.24	477.085
2930.54	477.096
2931.85	474.813
2933.15	473.303
2934.46	471.109
2935.76	468.396
2937.07	463.655
2938.37	457.81
2939.68	451.712
2940.98	444.64
2942.29	438.221
2943.59	431.887
2944.89	424.663
2946.2	415.279
2947.5	407.039
2948.8	398.669
2950.11	389.64
2951.41	379.337
2952.71	369.391
2954.01	358.895
2955.32	349.293
2956.62	339.041
2957.92	329.316
2959.22	318.934
2960.52	308.65
2961.82	299.739
2963.12	292.566
2964.42	285.035
2965.72	277.36
2967.02	268.749
2968.32	260.13
2969.62	252.887
2970.92	246.25
2972.22	239.585
2973.51	234.043
2974.81	228.212
2976.11	221.637
2977.41	215.565
2978.71	208.096
2980	200.194
2981.3	192.882
2982.6	185.056
2983.9	176.911
2985.19	170.231
2986.49	162.756
2987.78	155.151
2989.08	147.229
2990.38	139.127
2991.67	132.024
2992.97	125.093
2994.26	118.651
2995.56	111.569
2996.85	104.728
2998.14	99.4236
2999.44	92.3979
3000.73	85.3634
3002.03	79.4195
3003.32	72.5829
3004.61	67.1263
3005.91	61.8942
3007.2	56.3641
3008.49	51.7094
3009.78	46.7963
3011.07	41.6345
3012.37	37.2338
3013.66	33.6756
3014.95	29.2995
3016.24	25.5529
3017.53	23.3626
3018.82	19.446
3020.11	16.0686
3021.4	12.4021
3022.69	9.98654
3023.98	7.9148
3025.27	6.16663
3026.56	5.53758
3027.85	4.4096
3029.14	2.25094
3030.43	0.705583
3031.71	-0.201417
3033	0.174273
3034.29	-0.143321
3035.58	-0.829725
3036.87	-0.677166
3038.15	0.105465
3039.44	0.472935
3040.73	0.460466
3042.01	0.600272
3043.3	0.866839
3044.59	1.66264
3045.87	2.51056
3047.16	2.98376
3048.44	3.27328
3049.73	3.95711
3051.01	4.45426
3052.3	5.57918
3053.58	5.72764
3054.87	5.69635
3056.15	7.32618
3057.43	7.84883
3058.72	8.53859
3060	8.55085
3061.29	9.0594
3062.57	8.39437
3063.85	8.3924
3065.13	8.28075
3066.42	8.45636
3067.7	7.65903
3068.98	7.22334
3070.26	7.10892
3071.54	7.56256
3072.82	7.82302
3074.11	7.46701
3075.39	6.53113
3076.67	5.57267
3077.95	5.35274
3079.23	4.43445
3080.51	3.78353
3081.79	3.81337
3083.07	1.81727
3084.35	1.35836
3085.63	1.76345
3086.9	2.07406
3088.18	1.74414
3089.46	1.93806
3090.74	1.69016
3092.02	0.814401
3093.29	0.133573
3094.57	1.29767
3095.85	0.986927
3097.13	0.468437
3098.4	0.630724
3099.68	1.38131
3100.95	2.48509
3102.23	2.84167
3103.51	3.71339
3104.78	3.5344
3106.06	4.16633
3107.33	4.68667
3108.61	5.3962
3109.88	5.37649
3111.16	5.95833
3112.43	6.97114
3113.71	7.93047
3114.98	8.81576
3116.25	9.17869
3117.53	9.47822
3118.8	10.4756
3120.07	11.7392
3121.35	12.7917
3122.62	13.4468
3123.89	14.3693
3125.16	15.2261
3126.44	15.9894
3127.71	17.871
3128.98	18.5737
3130.25	19.7253
3131.52	20.5791
3132.79	22.1091
3134.06	23.9582
3135.33	25.5701
3136.6	26.4943
3137.87	27.6531
3139.14	29.04
3140.41	30.9674
3141.68	33.1424
3142.95	34.7703
3144.22	36.2761
3145.49	37.5177
3146.76	39.6246
3148.02	40.383
3149.29	39.2746
