#Acq. time (s)=	45
#Accumulations=	2
#Range (cm-¹)=	200...3150
#Windows=	2
#Auto scanning=	Off
#Autofocus=	Off
#Macrospot=	Off
#AutoExposure=	Off
#Spike filter=	Multiple accum.
#Delay time (s)=	0
#Binning=	1
#Readout mode=	Signal
#DeNoise=	Off
#ICS correction=	On
#Dark correction=	Off
#Inst. Process=	Off
#Detector Gain=	Best Dynamic Range
#Detector ADC=	20 kHz       
#Detector temperature (°C)=	-69.85
#Instrument=	LabRAM HR Evol
#Detector=	Synapse
#Objective=	x100
#Grating=	600 gr/mm
#ND Filter=	100%
#Laser (nm)=	532 
#Hole=	100.021
#Range=	Auto
#Laser Pol.=	No
#Raman. Pol.=	No
#Laser Pol. (°)=	-0.0007625
#Raman Pol. (°)=	89.9995
#Collection=	Microscope
#StageXY=	Marzhauser
#StageZ=	Marzhauser
#X (µm)=	-975.8
#Y (µm)=	-2926.5
#Z (µm)=	527.5
#Full time(mm:ss)=	3:18
#Project=	
#Sample=	
#Site=	
#Title=	Mb_00_13_04_2x_45s_532 nm_x100_100%_600 gr_mm
#Remark=	
#Date=	06.07.2022 09:58
#Acquired=	06.07.2022 09:58:13
#Base:Fit=	10.08.2022 10:16:36
#Base:Fit=	10.08.2022 10:16:56
#Base:Sub=	10.08.2022 10:17:24
#Filter:Polynom=	16.08.2022 10:36:38
#AxisType[0]=Intens
#AxisUnit[0]=Cnt
#AxisType[1]=Spectr
#AxisUnit[1]=1/cm
200.398	15.9916
202.213	12.6696
204.027	8.61577
205.843	6.11928
207.657	2.92871
209.47	0.497412
211.283	-0.741456
213.097	-0.681883
214.909	-0.426448
216.721	1.37132
218.533	3.70008
220.344	6.04978
222.157	9.27472
223.967	13.0621
225.777	17.1535
227.587	20.9288
229.396	24.2888
231.205	27.6356
233.016	30.5514
234.824	33.4735
236.632	36.4175
238.439	39.0927
240.247	40.9938
242.053	43.4552
243.86	45.3156
245.666	46.5177
247.474	48.893
249.279	51.3329
251.085	53.8607
252.889	55.5331
254.694	57.7069
256.498	58.5742
258.301	60.0904
260.105	60.4833
261.908	60.5946
263.71	60.5552
265.513	59.968
267.315	60.1463
269.116	59.0647
270.918	58.4309
272.718	56.5736
274.519	55.791
276.319	53.9829
278.119	51.1946
279.918	47.9379
281.718	44.6985
283.516	42.4622
285.315	39.6347
287.113	36.5754
288.911	33.5816
290.708	30.8477
292.505	29.5735
294.302	27.7605
296.098	24.6652
297.894	24.9044
299.69	23.5074
301.485	23.4568
303.278	22.576
305.073	21.4355
306.867	21.2908
308.661	20.4049
310.454	20.041
312.247	20.5983
314.04	19.5308
315.833	18.6664
317.623	18.1186
319.415	17.7534
321.206	17.4427
322.997	15.6203
324.788	15.1635
326.579	14.5338
328.367	13.6497
330.156	12.9756
331.946	12.9614
333.735	12.3933
335.523	11.0006
337.31	10.6853
339.098	9.69117
340.885	8.52996
342.673	7.13879
344.458	6.65068
346.244	5.42818
348.03	4.29872
349.816	3.51084
351.6	1.71306
353.385	0.213871
355.17	-0.851105
356.953	-0.0963329
358.737	0.354758
360.521	1.43371
362.304	2.56203
364.085	3.7467
365.868	3.97549
367.65	4.73056
369.431	5.90341
371.212	7.89194
372.994	8.99264
374.773	9.32699
376.554	10.9042
378.332	12.8266
380.112	16.1464
381.892	19.1323
383.669	21.998
385.448	25.1369
387.225	29.7415
389.003	32.4382
390.781	36.6109
392.557	40.3921
394.334	44.2017
396.109	46.9481
397.885	49.1456
399.66	52.2462
401.436	54.6531
403.211	55.3026
404.984	57.4015
406.759	58.516
408.532	59.2359
410.306	58.3768
412.078	58.2606
413.851	59.6158
415.623	58.7249
417.395	57.7231
419.166	56.6028
420.938	54.5113
422.708	52.3235
424.477	49.2169
426.248	47.9026
428.017	45.084
429.788	42.3093
431.556	39.8587
433.326	37.7085
435.093	33.681
436.86	29.7516
438.629	27.2813
440.395	24.3842
442.163	21.453
443.929	19.6954
445.694	18.0959
447.461	15.9738
449.226	14.0403
450.99	12.2118
452.756	9.17366
454.52	7.81831
456.285	6.07942
458.048	4.31022
459.811	2.15707
461.573	1.74866
463.337	2.19726
465.099	1.73332
466.86	2.89615
468.623	4.3723
470.384	5.76969
472.144	7.71442
473.906	8.49479
475.666	9.73985
477.425	11.5115
479.184	13.6953
480.944	14.246
482.703	14.9636
484.461	15.1071
486.218	15.5913
487.975	16.202
489.734	16.0625
491.491	16.3565
493.247	17.2583
495.003	17.823
496.759	18.7457
498.516	19.3224
500.271	21.8287
502.025	21.5617
503.779	21.4225
505.533	22.0835
507.287	21.5405
509.042	21.4219
510.795	21.0397
512.547	21.3924
514.299	23.116
516.051	22.4288
517.803	22.3927
519.554	21.7172
521.305	21.4315
523.055	21.0678
524.805	22.3018
526.555	22.5705
528.307	21.6658
530.056	21.089
531.805	21.6751
533.553	20.6871
535.301	20.1902
537.049	19.92
538.797	19.7287
540.544	19.0551
542.291	19.4864
544.037	19.8219
545.783	19.2804
547.529	18.2219
549.275	18.1167
551.02	17.0709
552.765	15.8831
554.509	16.6799
556.253	15.3424
557.997	15.1445
559.738	15.4743
561.482	15.4746
563.224	14.6805
564.967	14.4533
566.709	13.0227
568.451	11.6812
570.192	11.8344
571.933	10.821
573.674	10.4713
575.415	10.0949
577.153	10.0858
578.893	10.0236
580.632	9.94541
582.371	9.3624
584.11	8.72528
585.849	9.1532
587.587	8.57901
589.323	6.93163
591.06	6.3
592.797	4.8905
594.534	3.32495
596.271	2.86229
598.005	2.85147
599.741	3.70695
601.476	4.21475
603.211	3.32382
604.944	3.10458
606.679	2.72427
608.413	3.00046
610.147	3.85812
611.878	3.46692
613.611	2.4745
615.344	2.20857
617.077	2.08718
618.807	2.27899
620.539	2.44582
622.27	4.42703
623.999	5.44012
625.73	4.71631
627.461	4.26027
629.189	5.13518
630.919	5.05188
632.648	4.92648
634.376	5.1244
636.105	5.57702
637.833	6.4462
639.559	7.1127
641.287	7.88344
643.013	9.03735
644.74	11.2786
646.467	12.9055
648.192	12.9964
649.918	12.6513
651.642	13.6857
653.368	15.0949
655.091	16.7554
656.816	18.1457
658.538	18.1736
660.263	18.9802
661.987	19.3223
663.708	19.8943
665.432	20.9592
667.153	21.9655
668.875	21.7741
670.596	23.052
672.318	23.107
674.037	22.2172
675.759	21.1506
677.478	20.1737
679.196	20.5894
680.917	20.2674
682.635	20.6954
684.355	21.271
686.072	21.1606
687.791	21.9464
689.508	20.3945
691.224	19.6022
692.942	19.4219
694.658	17.7991
696.376	17.7783
698.091	16.6767
699.805	17.0554
701.522	16.4384
703.236	16.1001
704.95	16.3851
706.665	16.2517
708.379	15.9204
710.093	15.2801
711.806	13.8491
713.518	14.7436
715.23	15.1457
716.943	14.2183
718.655	15.0099
720.366	14.7455
722.078	14.7383
723.788	15.452
725.498	16.5061
727.208	16.2486
728.919	16.3278
730.628	16.4725
732.337	16.9448
734.045	17.3405
735.755	19.0333
737.463	20.5527
739.17	23.5458
740.877	24.3562
742.584	25.5613
744.292	26.8472
745.998	28.1682
747.704	29.5256
749.409	29.8149
751.114	31.486
752.819	33.0772
754.526	34.0439
756.23	35.3528
757.934	36.6235
759.637	38.8645
761.34	41.0595
763.043	44.4372
764.746	46.7061
766.448	47.5746
768.152	49.8981
769.853	51.1425
771.554	52.6327
773.255	53.5345
774.956	53.5902
776.656	55.4012
778.356	56.5223
780.056	58.3854
781.755	60.5494
783.454	61.841
785.153	62.829
786.851	63.4595
788.549	65.3128
790.247	66.149
791.944	66.3708
793.641	66.2184
795.338	66.2952
797.034	66.2161
798.73	65.6253
800.426	64.8453
802.121	64.2947
803.817	62.9644
805.511	62.1602
807.206	61.9373
808.9	61.1688
810.592	61.4276
812.286	60.0263
813.979	60.491
815.672	61.1285
817.364	61.7522
819.057	61.6887
820.748	60.8557
822.44	60.6238
824.129	60.3614
825.82	58.3691
827.511	57.6858
829.201	56.9162
830.891	56.4323
832.581	55.2182
834.269	55.0298
835.958	54.9363
837.646	54.171
839.335	53.3646
841.023	52.6868
842.709	53.175
844.396	53.0211
846.084	52.677
847.77	52.266
849.455	50.3559
851.141	49.5836
852.827	49.3047
854.513	48.3853
856.196	48.4626
857.881	47.9355
859.566	47.9427
861.248	47.1515
862.932	46.4049
864.616	46.5615
866.297	44.0778
867.98	43.5746
869.663	41.7948
871.343	41.2019
873.026	40.0467
874.707	37.8506
876.387	36.189
878.068	34.4863
879.747	34.2378
881.428	33.6811
883.108	31.7294
884.786	30.8368
886.465	29.7873
888.143	28.4201
889.822	28.6082
891.498	29.5302
893.177	29.8792
894.855	30.1084
896.53	29.6203
898.208	29.8649
899.883	30.3115
901.56	30.2267
903.234	30.173
904.91	30.0623
906.584	30.4882
908.26	29.8518
909.933	29.5993
911.608	29.892
913.28	30.4101
914.955	30.3273
916.627	29.8566
918.298	30.1501
919.972	30.064
921.643	30.8158
923.315	32.4795
924.986	33.0611
926.656	34.2905
928.328	34.7644
929.997	34.5506
931.668	35.3974
933.337	35.5384
935.006	35.8035
936.676	36.3196
938.344	36.1834
940.012	35.6239
941.681	34.4109
943.348	33.9494
945.014	34.3339
946.683	35.2895
948.349	35.6317
950.015	34.0915
951.682	34.7611
953.347	33.6811
955.012	32.8863
956.676	32.5347
958.343	31.0983
960.006	30.0318
961.67	29.529
963.333	30.6265
964.998	31.1733
966.661	31.8861
968.323	32.3373
969.985	33.4002
971.649	33.8847
973.31	34.0494
974.971	35.9012
976.632	35.8024
978.293	36.2461
979.953	35.4805
981.615	35.6023
983.274	35.624
984.933	34.8745
986.592	33.9569
988.251	33.4165
989.909	33.7294
991.567	33.3747
993.225	34.0297
994.884	33.2992
996.541	32.6443
998.198	32.6468
999.855	32.2187
1001.51	32.2852
1003.17	31.5494
1004.82	30.6733
1006.48	29.889
1008.13	29.0223
1009.79	29.2211
1011.44	28.5934
1013.1	28.5536
1014.75	29.711
1016.4	30.9409
1018.06	32.2696
1019.71	35.1277
1021.36	37.5462
1023.01	40.015
1024.66	43.3745
1026.32	47.8951
1027.97	50.841
1029.62	53.676
1031.27	54.6007
1032.92	57.1878
1034.57	59.4836
1036.22	60.6752
1037.87	62.0387
1039.52	63.848
1041.16	64.5168
1042.81	66.3775
1044.46	68.7826
1046.11	71.1502
1047.76	71.864
1049.4	72.2584
1051.05	72.1855
1052.7	71.4412
1054.34	71.3968
1055.99	70.8396
1057.63	70.5434
1059.28	69.5826
1060.92	67.6081
1062.57	64.0747
1064.21	62.0246
1065.85	59.1609
1067.5	56.0486
1069.14	53.9838
1070.78	51.5522
1072.43	50.1494
1074.07	46.1811
1075.71	43.6059
1077.35	39.4934
1078.99	36.7329
1080.63	33.993
1082.27	30.3978
1083.91	28.2457
1085.55	25.4121
1087.19	23.7956
1088.83	22.3314
1090.47	21.8316
1092.11	22.0585
1093.75	21.2478
1095.39	21.0155
1097.03	22.1333
1098.66	22.962
1100.3	22.7934
1101.94	22.905
1103.57	23.5567
1105.21	22.7608
1106.84	22.0529
1108.48	22.0781
1110.11	19.6223
1111.75	19.6473
1113.38	18.3477
1115.02	18.379
1116.65	16.9622
1118.29	16.6972
1119.92	15.2619
1121.55	14.0665
1123.19	13.2465
1124.82	12.6275
1126.45	11.6166
1128.08	11.1743
1129.71	11.2215
1131.34	11.4579
1132.97	11.0059
1134.6	11.0519
1136.23	11.4214
1137.86	10.6529
1139.49	10.4679
1141.12	10.5438
1142.75	9.75706
1144.38	9.64728
1146.01	10.1815
1147.64	10.5189
1149.26	10.8859
1150.89	11.7822
1152.52	11.0834
1154.15	11.0976
1155.77	9.90014
1157.4	10.4588
1159.02	10.6904
1160.65	11.0349
1162.27	11.935
1163.9	12.3969
1165.52	13.3229
1167.15	13.298
1168.77	14.6145
1170.39	15.9534
1172.02	17.6005
1173.64	18.7234
1175.26	18.3356
1176.89	17.8675
1178.51	19.2164
1180.13	19.6342
1181.75	19.8857
1183.37	20.7215
1184.99	20.8184
1186.61	20.8567
1188.23	21.0754
1189.85	22.6873
1191.47	23.4774
1193.09	25.0079
1194.71	26.5006
1196.33	27.7524
1197.94	29.3161
1199.56	30.5134
1201.18	30.3687
1202.8	32.727
1204.41	33.3095
1206.03	33.8836
1207.65	36.4277
1209.26	38.0739
1210.88	40.5508
1212.49	42.1663
1214.11	43.7965
1215.72	46.1332
1217.34	47.0834
1218.95	49.1293
1220.57	50.1181
1222.18	52.0309
1223.79	53.4206
1225.41	53.8379
1227.02	53.8241
1228.63	54.3368
1230.24	54.3187
1231.85	55.0199
1233.47	55.1236
1235.08	55.8522
1236.69	56.8932
1238.3	57.2523
1239.91	57.0955
1241.52	56.082
1243.13	55.8429
1244.74	56.5581
1246.34	56.6337
1247.95	57.3896
1249.56	59.2823
1251.17	58.5381
1252.78	57.6803
1254.38	56.9303
1255.99	56.4193
1257.6	55.5437
1259.2	55.9637
1260.81	55.4897
1262.42	54.4729
1264.02	54.3979
1265.63	53.9551
1267.23	55.3064
1268.84	55.7578
1270.44	56.7456
1272.04	57.1675
1273.65	57.2709
1275.25	58.2708
1276.85	58.495
1278.46	57.8359
1280.06	57.9684
1281.66	59.0179
1283.26	61.3169
1284.86	61.0441
1286.46	62.5456
1288.07	64.4346
1289.67	64.7972
1291.27	67.433
1292.87	68.3036
1294.47	69.3539
1296.06	71.2156
1297.66	71.7483
1299.26	72.5449
1300.86	72.672
1302.46	75.0884
1304.06	75.8459
1305.65	76.8447
1307.25	76.9365
1308.85	78.6342
1310.44	79.1469
1312.04	80.2983
1313.64	80.7569
1315.23	80.4595
1316.83	80.4002
1318.42	80.3056
1320.02	80.6517
1321.61	80.2794
1323.2	81.512
1324.8	81.7874
1326.39	81.7934
1327.99	83.0458
1329.58	82.1683
1331.17	80.9488
1332.76	81.2039
1334.36	80.9326
1335.95	80.6085
1337.54	79.8938
1339.13	79.6378
1340.72	78.7053
1342.31	78.6622
1343.9	78.8957
1345.49	77.6348
1347.08	77.3339
1348.67	75.864
1350.26	75.1222
1351.85	74.5449
1353.43	74.5228
1355.02	73.6024
1356.61	73.2561
1358.2	72.6908
1359.78	73.1667
1361.37	72.819
1362.96	71.2055
1364.54	69.7504
1366.13	68.5071
1367.71	67.3034
1369.3	67.5275
1370.88	67.0919
1372.47	65.5439
1374.05	64.1589
1375.64	62.8971
1377.22	61.12
1378.8	61.0944
1380.39	61.1007
1381.97	60.8593
1383.55	59.4717
1385.13	58.1252
1386.72	57.2187
1388.3	57.3989
1389.88	56.7845
1391.46	57.1323
1393.04	56.9512
1394.62	56.5156
1396.2	56.505
1397.78	56.0506
1399.36	56.6
1400.94	56.4457
1402.52	58.0612
1404.1	58.2468
1405.68	60.0285
1407.25	60.844
1408.83	61.3271
1410.41	63.8467
1411.98	65.9167
1413.56	67.3799
1415.14	69.9601
1416.71	71.7092
1418.29	73.6143
1419.87	76.2529
1421.44	79.0062
1423.02	81.5176
1424.59	84.5359
1426.16	87.9214
1427.74	92.5941
1429.31	96.7013
1430.89	98.8192
1432.46	101.095
1434.03	102.54
1435.6	105.571
1437.18	107.452
1438.75	109.208
1440.32	110.268
1441.89	111.679
1443.46	112.697
1445.03	112.844
1446.6	113.062
1448.17	113.64
1449.74	113.187
1451.31	111.79
1452.88	111.538
1454.45	110.116
1456.02	109.86
1457.59	108.253
1459.16	106.939
1460.72	103.71
1462.29	102.562
1463.86	100.542
1465.43	98.3237
1466.99	95.6165
1468.56	93.096
1470.13	89.803
1471.69	87.0681
1473.26	83.9314
1474.82	80.7081
1476.38	77.6692
1477.95	75.9954
1479.51	72.2726
1481.08	69.7472
1482.64	67.3634
1484.2	64.8689
1485.77	62.0981
1487.33	60.2663
1488.89	58.5651
1490.46	56.2622
1492.02	53.8302
1493.58	51.8898
1495.14	49.4763
1496.7	48.1949
1498.26	47.0008
1499.82	45.5341
1501.38	44.5391
1502.94	42.8654
1504.5	41.944
1506.06	41.9826
1507.62	39.9318
1509.18	38.0902
1510.73	38.2747
1512.29	37.3583
1513.85	36.6636
1515.41	35.2738
1516.96	34.9805
1518.52	34.544
1520.08	33.6358
1521.63	32.2138
1523.19	32.7303
1524.75	33.4774
1526.3	33.8556
1527.85	34.4309
1529.41	34.2356
1530.96	34.7247
1532.52	34.7849
1534.07	36.0884
1535.62	35.94
1537.18	37.031
1538.73	36.6979
1540.28	38.1032
1541.84	38.8256
1543.39	39.917
1544.94	40.6943
1546.49	41.7796
1548.04	43.9229
1549.59	45.6219
1551.14	46.3886
1552.69	47.9589
1554.25	48.4821
1555.79	49.5149
1557.34	50.1202
1558.89	50.9358
1560.44	51.3708
1561.99	52.1407
1563.54	52.6038
1565.08	53.6557
1566.63	52.8649
1568.18	53.5057
1569.73	54.0089
1571.27	54.7321
1572.82	56.016
1574.37	56.8261
1575.91	56.4322
1577.46	57.0047
1579	58.4567
1580.55	58.8834
1582.09	60.238
1583.64	60.6521
1585.18	60.7104
1586.73	60.7882
1588.27	62.2441
1589.81	62.1922
1591.35	63.7688
1592.9	64.346
1594.44	64.9391
1595.98	64.138
1597.52	63.4856
1599.06	63.4891
1600.61	64.9012
1602.15	63.7718
1603.69	62.962
1605.23	63.3401
1606.77	63.5878
1608.31	63.3021
1609.85	62.7468
1611.39	62.3619
1612.93	62.2883
1614.46	61.8053
1616	61.6858
1617.54	62.2609
1619.08	62.5433
1620.61	62.3157
1622.15	61.5736
1623.69	61.5803
1625.23	61.771
1626.76	61.671
1628.3	61.7632
1629.83	61.8809
1631.37	61.2719
1632.9	62.5823
1634.44	62.7858
1635.97	62.5478
1637.51	63.6964
1639.04	64.0026
1640.57	63.8923
1642.11	64.6194
1643.64	64.5105
1645.17	66.0194
1646.71	66.7321
1648.24	67.1845
1649.77	68.0629
1651.3	69.1283
1652.83	69.5798
1654.36	70.6661
1655.89	71.5591
1657.42	70.838
1658.96	72.1882
1660.48	71.9095
1662.01	72.3255
1663.54	72.6239
1665.07	73.2617
1666.6	72.5769
1668.13	71.6561
1669.66	70.4735
1671.19	68.9263
1672.71	67.1793
1674.24	65.406
1675.77	64.2948
1677.29	62.5892
1678.82	59.8877
1680.35	58.5865
1681.87	56.2361
1683.4	53.8722
1684.92	50.8781
1686.45	48.1006
1687.97	46.3256
1689.5	43.573
1691.02	40.4328
1692.54	39.0994
1694.07	36.8349
1695.59	34.5801
1697.11	32.5582
1698.64	29.8595
1700.16	27.8409
1701.68	25.9224
1703.2	24.1784
1704.72	22.2352
1706.25	20.2493
1707.77	19.2447
1709.29	18.3613
1710.81	16.3494
1712.33	14.8555
1713.85	13.7721
1715.37	11.6768
1716.89	11.2754
1718.41	10.3109
1719.92	9.86855
1721.44	9.72266
1722.96	9.79974
1724.48	9.36764
1725.99	9.4283
1727.51	9.35473
1729.03	8.6784
1730.55	8.2219
1732.06	8.8563
1733.58	9.38535
1735.09	10.3207
1736.61	10.2198
1738.13	11.4279
1739.64	11.4454
1741.15	11.2529
1742.67	10.7227
1744.18	10.2468
1745.7	10.0748
1747.21	9.23635
1748.72	8.69252
1750.24	8.02812
1751.75	8.3102
1753.26	6.76619
1754.77	6.99373
1756.29	6.65078
1757.8	6.78229
1759.31	6.99183
1760.82	6.75064
1762.33	6.55253
1763.84	7.09495
1765.35	6.58493
1766.86	5.7087
1768.37	5.58296
1769.88	5.12338
1771.39	5.76735
1772.9	4.82167
1774.4	3.64133
1775.91	3.61189
1777.42	3.36829
1778.93	3.48309
1780.44	3.52939
1781.94	3.51219
1783.45	4.2002
1784.96	3.82718
1786.46	3.57525
1787.97	2.74804
1789.47	2.69089
1790.98	2.20291
1792.48	2.5862
1793.99	3.02736
1795.49	3.3713
1797	3.04981
1798.5	2.96984
1800.01	2.98764
1801.51	3.84217
1803.01	4.96731
1804.51	5.76753
1806.02	5.52889
1807.52	6.29615
1809.02	7.06167
1810.52	7.37865
1812.02	7.21856
1813.52	6.63756
1815.02	5.93503
1816.53	5.41378
1818.03	5.60897
1819.52	5.14064
1821.02	5.38022
1822.52	5.07953
1824.02	4.43727
1825.52	4.49319
1827.02	4.50246
1828.52	4.79007
1830.02	5.45486
1831.51	5.66075
1833.01	6.03744
1834.51	5.62035
1836.01	5.71851
1837.5	5.65599
1839	5.40356
1840.49	5.09679
1841.99	4.98331
1843.49	5.6804
1844.98	6.06174
1846.48	5.97624
1847.97	4.94559
1849.47	4.72906
1850.96	5.0172
1852.45	4.87755
1853.95	4.59349
1855.44	5.13385
1856.93	5.22949
1858.42	5.30189
1859.92	4.97968
1861.41	4.72436
1862.9	4.65368
1864.39	5.46489
1865.88	5.62027
1867.38	6.46196
1868.87	6.46416
1870.36	5.96309
1871.85	6.13197
1873.34	6.00498
1874.83	6.3038
1876.32	6.42972
1877.81	6.45182
1879.29	5.8432
1880.78	6.15815
1882.27	6.71293
1882.53	6.82967
1884.03	6.17711
1885.52	5.48648
1887.01	5.32343
1888.51	5.74661
1890	6.332
1891.5	7.23125
1892.99	7.25538
1894.48	8.03247
1895.97	7.70406
1897.47	8.10904
1898.96	7.9823
1900.45	8.5464
1901.94	8.96306
1903.43	8.80653
1904.92	8.65754
1906.41	8.95726
1907.9	8.96269
1909.39	8.60671
1910.88	8.36255
1912.37	8.76571
1913.86	9.2047
1915.35	9.00387
1916.84	8.66523
1918.33	8.72305
1919.81	8.53648
1921.3	8.045
1922.79	6.43712
1924.28	6.81094
1925.76	6.56045
1927.25	6.12743
1928.73	6.12267
1930.22	5.48266
1931.71	5.16344
1933.19	4.82362
1934.68	4.91145
1936.16	4.59028
1937.65	4.63875
1939.13	4.63889
1940.62	4.27108
1942.1	3.07325
1943.58	3.11679
1945.07	3.9319
1946.55	4.00931
1948.03	4.37759
1949.51	4.99464
1951	5.78643
1952.48	6.29336
1953.96	6.78314
1955.44	6.73368
1956.92	7.34479
1958.4	6.88799
1959.88	7.5273
1961.36	7.6143
1962.84	8.32467
1964.32	8.5939
1965.8	7.98579
1967.28	7.98873
1968.76	7.68444
1970.24	7.64098
1971.72	8.16775
1973.2	8.87053
1974.67	10.5154
1976.15	10.1308
1977.63	10.3106
1979.1	10.2741
1980.58	10.7076
1982.06	10.4058
1983.54	10.6044
1985.01	11.1853
1986.49	11.6545
1987.96	11.9514
1989.44	10.8213
1990.91	10.8226
1992.39	10.8442
1993.86	9.83841
1995.33	8.72382
1996.81	7.90942
1998.28	9.74944
1999.75	8.73048
2001.23	8.93125
2002.7	9.2337
2004.17	9.81828
2005.65	9.96001
2007.12	10.2494
2008.59	10.135
2010.06	10.7705
2011.53	11.1164
2013	10.677
2014.47	10.1717
2015.94	10.1743
2017.41	10.8812
2018.88	10.8381
2020.35	10.9103
2021.82	11.0498
2023.29	11.5875
2024.76	11.2407
2026.23	10.8571
2027.69	10.6193
2029.16	10.6751
2030.63	10.7503
2032.1	9.86212
2033.56	9.80873
2035.03	9.121
2036.5	9.89919
2037.96	9.68347
2039.43	9.72768
2040.89	10.1255
2042.36	10.4638
2043.83	10.8841
2045.29	11.9878
2046.75	12.4205
2048.22	11.9722
2049.68	11.4344
2051.15	11.8563
2052.61	11.8416
2054.07	11.9345
2055.54	12.3741
2057	12.4731
2058.46	12.4084
2059.92	12.7796
2061.39	12.863
2062.85	12.636
2064.31	12.7351
2065.77	12.167
2067.23	11.8932
2068.69	11.6841
2070.15	12.0869
2071.61	11.935
2073.07	10.7531
2074.53	11.4326
2075.99	11.711
2077.45	11.5849
2078.91	11.3777
2080.37	11.2435
2081.82	11.1889
2083.28	10.7714
2084.74	9.75922
2086.2	8.66043
2087.65	8.27501
2089.11	7.99714
2090.57	8.18403
2092.02	8.23537
2093.48	8.92305
2094.94	8.34415
2096.39	7.90012
2097.85	7.38589
2099.3	6.69218
2100.76	6.2852
2102.21	5.41142
2103.66	5.25554
2105.12	4.30609
2106.57	3.96517
2108.03	3.25834
2109.48	3.47215
2110.93	2.86237
2112.38	2.92151
2113.84	2.18651
2115.29	2.56923
2116.74	2.68701
2118.19	4.18265
2119.64	3.06504
2121.09	2.74542
2122.54	2.65707
2123.99	2.53558
2125.45	2.59494
2126.89	2.94386
2128.34	3.31471
2129.79	3.06686
2131.24	3.39596
2132.69	3.87581
2134.14	3.95129
2135.59	3.42304
2137.04	3.14091
2138.48	3.80463
2139.93	4.51964
2141.38	3.78768
2142.83	4.42762
2144.27	4.28225
2145.72	5.00657
2147.17	6.02046
2148.61	6.27576
2150.06	7.11768
2151.5	7.63175
2152.95	8.24392
2154.39	8.79979
2155.84	8.82561
2157.28	8.51486
2158.73	8.86595
2160.17	10.5749
2161.61	11.1384
2163.06	11.4005
2164.5	11.4729
2165.94	11.1361
2167.38	10.1337
2168.83	9.77493
2170.27	9.1078
2171.71	8.86179
2173.15	9.18342
2174.59	9.17651
2176.03	8.88778
2177.47	8.17304
2178.91	8.08677
2180.36	6.85715
2181.8	7.47481
2183.23	6.85461
2184.67	6.62778
2186.11	6.26169
2187.55	7.18274
2188.99	6.87555
2190.43	7.05946
2191.87	5.97494
2193.3	6.09346
2194.74	6.2915
2196.18	7.16702
2197.62	7.55859
2199.05	7.44085
2200.49	7.03941
2201.93	7.20506
2203.36	7.76709
2204.8	7.26703
2206.23	7.19731
2207.67	7.65961
2209.1	8.86739
2210.54	9.13696
2211.97	8.90706
2213.41	7.93299
2214.84	9.02272
2216.27	9.36066
2217.71	9.98663
2219.14	10.9196
2220.57	11.7085
2222.01	12.4603
2223.44	11.9045
2224.87	11.9531
2226.3	11.9432
2227.73	11.2904
2229.16	11.1395
2230.6	11.6704
2232.03	11.3424
2233.46	9.97989
2234.89	9.20952
2236.32	9.58301
2237.75	8.93271
2239.18	8.12335
2240.61	7.79286
2242.03	7.55289
2243.46	8.14051
2244.89	8.20497
2246.32	7.92776
2247.75	7.43913
2249.17	8.07911
2250.6	8.6402
2252.03	8.37463
2253.46	8.34402
2254.88	8.6695
2256.31	8.22885
2257.73	8.55938
2259.16	9.20619
2260.59	9.08096
2262.01	9.3155
2263.44	9.30013
2264.86	9.34389
2266.29	10.1273
2267.71	10.4491
2269.14	10.087
2270.56	10.104
2271.98	10.0046
2273.4	10.4465
2274.83	10.7751
2276.25	10.3228
2277.67	10.9542
2279.09	11.6787
2280.52	10.9491
2281.94	10.013
2283.36	9.23095
2284.78	8.55152
2286.2	9.05935
2287.62	8.79999
2289.04	8.29717
2290.46	7.74078
2291.88	6.5671
2293.3	5.60105
2294.72	5.16121
2296.14	5.01646
2297.56	5.14058
2298.98	4.61879
2300.4	5.09258
2301.82	4.29694
2303.23	3.56337
2304.65	3.83905
2306.07	3.97723
2307.49	3.81275
2308.9	3.37281
2310.32	2.57749
2311.73	2.72754
2313.15	3.38916
2314.57	3.86564
2315.98	4.28381
2317.4	3.82612
2318.81	4.56902
2320.23	5.00415
2321.64	4.30868
2323.06	3.17473
2324.47	2.26891
2325.88	2.54341
2327.3	2.07709
2328.71	3.63636
2330.12	3.95665
2331.54	3.61721
2332.95	3.89498
2334.36	4.24747
2335.77	4.45539
2337.18	4.57144
2338.6	4.58137
2340.01	5.49171
2341.42	5.41345
2342.83	5.46202
2344.24	5.5415
2345.65	5.64576
2347.06	4.4811
2348.47	5.18546
2349.88	5.12133
2351.29	4.02532
2352.7	3.58625
2354.1	3.88424
2355.51	4.15079
2356.92	4.36206
2358.33	4.62009
2359.74	4.24633
2361.14	3.85268
2362.55	4.09867
2363.96	4.17465
2365.36	4.75252
2366.77	5.48087
2368.18	5.06545
2369.58	4.87404
2370.99	4.68929
2372.39	3.83939
2373.8	3.94698
2375.2	4.40425
2376.61	3.63955
2378.01	3.22064
2379.42	3.15627
2380.82	2.82059
2382.22	3.79209
2383.63	4.1429
2385.03	3.81269
2386.43	4.11364
2387.84	4.14672
2389.24	4.95503
2390.64	3.9154
2392.04	3.49968
2393.44	3.46368
2394.84	3.89293
2396.25	4.70764
2397.65	5.02694
2399.05	5.79199
2400.45	5.20131
2401.85	5.48447
2403.25	5.1239
2404.65	4.78049
2406.05	4.76834
2407.45	5.14545
2408.84	5.47259
2410.24	5.71111
2411.64	5.0644
2413.04	4.58619
2414.44	5.07324
2415.83	5.26438
2417.23	4.54857
2418.63	5.18318
2420.02	3.93348
2421.42	4.23472
2422.82	4.4446
2424.21	5.13112
2425.61	4.55645
2427	4.0195
2428.4	4.03288
2429.8	3.58505
2431.19	3.84434
2432.58	3.40858
2433.98	3.26975
2435.37	3.32029
2436.77	3.11041
2438.16	1.86687
2439.55	1.93688
2440.95	1.67972
2442.34	1.98578
2443.73	1.8645
2445.12	2.59265
2446.51	2.17312
2447.91	2.22001
2449.3	2.36015
2450.69	2.80676
2452.08	2.98667
2453.47	2.21666
2454.86	1.88092
2456.25	2.33067
2457.64	2.15184
2459.03	2.16937
2460.42	1.62726
2461.81	2.3511
2463.2	2.0337
2464.59	1.47671
2465.98	1.11681
2467.36	1.11769
2468.75	1.54867
2470.14	0.716219
2471.53	1.36038
2472.92	1.23901
2474.3	1.84559
2475.69	1.38988
2477.08	2.19014
2478.46	2.29117
2479.85	2.41679
2481.23	2.2672
2482.62	2.05786
2484	2.23374
2485.39	1.53175
2486.77	2.16193
2488.16	2.44396
2489.54	2.30531
2490.93	2.78786
2492.31	2.16575
2493.69	1.70301
2495.08	1.58439
2496.46	1.60239
2497.84	1.75606
2499.23	1.86268
2500.61	1.91069
2501.99	1.00808
2503.37	1.74326
2504.75	0.81873
2506.13	1.00198
2507.52	1.23144
2508.9	1.0083
2510.28	0.988048
2511.66	1.19515
2513.04	0.516169
2514.42	0.439153
2515.8	0.201264
2517.18	0.252874
2518.55	-0.218581
2519.93	-0.299433
2521.31	-0.304699
2522.69	-0.745423
2524.07	-0.77687
2525.45	-0.528057
2526.82	-0.20626
2528.2	0.205192
2529.58	0.922517
2530.95	1.09902
2532.33	0.49297
2533.71	0.592976
2535.08	1.182
2536.46	1.56898
2537.84	1.67153
2539.21	1.26596
2540.59	1.96668
2541.96	2.44102
2543.34	1.88082
2544.71	1.79413
2546.08	2.91998
2547.46	3.18892
2548.83	2.6016
2550.2	3.06964
2551.58	2.86806
2552.95	3.20421
2554.32	3.83624
2555.7	4.09297
2557.07	3.47239
2558.44	3.16244
2559.81	3.46938
2561.18	3.86771
2562.55	3.93744
2563.93	4.55932
2565.3	4.69444
2566.67	4.79389
2568.04	4.66561
2569.41	4.93984
2570.78	4.16418
2572.15	3.99686
2573.51	3.14439
2574.88	3.16211
2576.25	2.19576
2577.62	1.29657
2578.99	1.83489
2580.36	2.17489
2581.73	2.8091
2583.09	3.33405
2584.46	3.7087
2585.83	3.44587
2587.19	3.43001
2588.56	3.44496
2589.93	3.54226
2591.29	4.0339
2592.66	4.23267
2594.02	4.96319
2595.39	5.65859
2596.75	5.67406
2598.12	6.00961
2599.48	5.36311
2600.85	4.66752
2602.21	4.94191
2603.58	4.85661
2604.94	4.86323
2606.3	5.08439
2607.67	4.72409
2609.03	5.50203
2610.39	5.73117
2611.76	5.06433
2613.12	5.51467
2614.48	6.01446
2615.84	6.14935
2617.2	5.7383
2618.56	6.25801
2619.92	5.75117
2621.28	6.42256
2622.65	6.63719
2624.01	7.06213
2625.37	6.90061
2626.72	6.61171
2628.08	6.86556
2629.44	7.1528
2630.8	6.44231
2632.16	6.91341
2633.52	7.08375
2634.88	6.8337
2636.24	6.6431
2637.59	6.56393
2638.95	4.97874
2640.31	4.85788
2641.67	4.36256
2643.02	4.3952
2644.38	4.76424
2645.74	5.5979
2647.09	5.94205
2648.45	5.57406
2649.8	5.68588
2651.16	5.46365
2652.51	5.41021
2653.87	5.46423
2655.22	5.69241
2656.58	5.53407
2657.93	6.25509
2659.29	6.15509
2660.64	6.29778
2661.99	6.658
2663.35	6.94615
2664.7	7.29183
2666.05	7.56245
2667.41	7.72624
2668.76	7.75864
2670.11	7.99356
2671.46	8.02805
2672.81	8.21267
2674.16	8.31645
2675.51	7.90274
2676.87	8.11338
2678.22	8.30328
2679.57	8.0287
2680.92	8.87585
2682.27	9.41266
2683.62	9.78538
2684.97	9.87385
2686.31	10.007
2687.66	9.9137
2689.01	11.0234
2690.36	10.5902
2691.71	10.3709
2693.06	10.3839
2694.4	11.0881
2695.75	12.1301
2697.1	13.4238
2698.45	13.2548
2699.79	13.839
2701.14	13.7629
2702.49	13.9963
2703.83	14.3209
2705.18	14.0212
2706.52	13.8173
2707.87	14.6189
2709.21	14.4682
2710.56	15.2271
2711.9	15.4907
2713.25	15.3732
2714.59	15.7904
2715.94	16.1332
2717.28	16.4016
2718.62	16.4606
2719.97	16.4349
2721.31	16.4356
2722.65	16.8277
2723.99	16.3323
2725.34	17.0311
2726.68	17.0704
2728.02	17.4694
2729.36	16.6356
2730.7	16.1128
2732.04	15.3605
2733.39	14.3085
2734.73	13.3568
2736.07	12.6336
2737.41	11.4248
2738.75	10.6625
2740.08	10.6551
2741.43	10.5147
2742.76	9.28696
2744.1	8.67795
2745.44	8.196
2746.78	7.36579
2748.12	7.43753
2749.46	6.91816
2750.79	6.32692
2752.13	5.10874
2753.47	4.4045
2754.81	4.79497
2756.14	5.02613
2757.48	4.12078
2758.81	4.34983
2760.15	4.62381
2761.49	4.08287
2762.82	4.03924
2764.16	3.69387
2765.49	2.7596
2766.83	2.77707
2768.16	3.25356
2769.5	3.36566
2770.83	2.97053
2772.16	2.2087
2773.5	2.31381
2774.83	2.57351
2776.17	2.27498
2777.5	2.49869
2778.83	2.1807
2780.16	2.08779
2781.5	1.77276
2782.83	2.18947
2784.16	1.64913
2785.49	1.72677
2786.82	1.62316
2788.15	1.23482
2789.49	1.88263
2790.82	1.11074
2792.15	1.27116
2793.48	0.345819
2794.81	0.0121715
2796.14	-0.0931649
2797.46	0.271778
2798.79	-0.0586459
2800.12	-0.196241
2801.45	-0.109079
2802.78	0.315165
2804.11	0.258015
2805.44	0.799697
2806.76	0.848727
2808.09	0.141951
2809.42	-0.253757
2810.75	0.127236
2812.07	0.799275
2813.4	1.97343
2814.73	2.97841
2816.05	4.40261
2817.38	6.08611
2818.7	7.96739
2820.03	10.5498
2821.36	13.3128
2822.68	14.9496
2824.01	18.0552
2825.33	20.6338
2826.65	23.2258
2827.98	26.2388
2829.3	29.8119
2830.63	33.0957
2831.95	35.5792
2833.27	39.0095
2834.6	42.8319
2835.92	46.2495
2837.24	50.1165
2838.56	54.4021
2839.88	58.6799
2841.21	63.6952
2842.53	68.7226
2843.85	74.0652
2845.17	79.8806
2846.49	85.4665
2847.81	90.9192
2849.13	97.1379
2850.45	102.268
2851.77	108.729
2853.09	114.1
2854.41	119.977
2855.73	125.994
2857.05	131.237
2858.37	136.732
2859.69	141.472
2861	146.693
2862.32	151.183
2863.64	155.955
2864.96	160.473
2866.28	164.563
2867.59	168.118
2868.91	171.503
2870.23	174.842
2871.54	178.148
2872.86	180.441
2874.17	183.863
2875.49	186.589
2876.81	188.682
2878.12	191.784
2879.44	193.759
2880.75	196.114
2882.07	198.5
2883.38	200.196
2884.69	202.162
2886.01	204.069
2887.32	206.248
2888.63	207.745
2889.95	209.813
2891.26	209.875
2892.57	211.863
2893.89	213.907
2895.2	215.677
2896.51	218.074
2897.82	220.181
2899.13	223.7
2900.44	226.871
2901.76	229.98
2903.07	233.703
2904.38	237.193
2905.69	241.714
2907	246.338
2908.31	250.809
2909.62	254.559
2910.93	258.991
2912.24	263.269
2913.55	267.79
2914.85	272.132
2916.16	275.979
2917.47	279.32
2918.78	281.774
2920.09	285.236
2921.4	287.435
2922.7	289.437
2924.01	290.414
2925.32	291.827
2926.62	292.669
2927.93	292.958
2929.24	293.653
2930.54	292.262
2931.85	290.112
2933.15	288.666
2934.46	286.731
2935.76	284.626
2937.07	281.333
2938.37	277.603
2939.68	274.195
2940.98	270.408
2942.29	266.268
2943.59	262.2
2944.89	257.025
2946.2	252.209
2947.5	247.946
2948.8	242.762
2950.11	238.075
2951.41	232.891
2952.71	227.205
2954.01	221.91
2955.32	216.42
2956.62	210.505
2957.92	205.76
2959.22	200.414
2960.52	195.712
2961.82	190.463
2963.12	185.51
2964.42	181.139
2965.72	176.599
2967.02	172.037
2968.32	167.651
2969.62	162.901
2970.92	158.138
2972.22	153.142
2973.51	149.028
2974.81	143.767
2976.11	139.371
2977.41	134.457
2978.71	129.464
2980	124.096
2981.3	118.432
2982.6	113.362
2983.9	108.302
2985.19	103.416
2986.49	98.1975
2987.78	93.9738
2989.08	89.1492
2990.38	84.3004
2991.67	79.2062
2992.97	74.299
2994.26	69.6289
2995.56	65.2318
2996.85	60.7212
2998.14	56.7962
2999.44	52.3908
3000.73	48.3223
3002.03	44.214
3003.32	41.041
3004.61	37.5568
3005.91	33.9084
3007.2	30.7572
3008.49	27.3653
3009.78	24.0332
3011.07	21.7861
3012.37	19.6494
3013.66	16.1547
3014.95	14.2357
3016.24	11.8733
3017.53	9.61798
3018.82	8.20163
3020.11	5.62139
3021.4	4.66932
3022.69	3.70872
3023.98	2.83062
3025.27	2.28097
3026.56	1.17565
3027.85	1.24691
3029.14	0.667129
3030.43	0.262386
3031.71	0.0289034
3033	-0.140197
3034.29	-0.424403
3035.58	0.0165151
3036.87	0.86393
3038.15	1.1439
3039.44	1.27404
3040.73	1.56599
3042.01	1.90242
3043.3	2.44955
3044.59	2.96619
3045.87	3.62063
3047.16	4.99815
3048.44	5.55643
3049.73	5.91674
3051.01	6.79225
3052.3	7.2203
3053.58	7.48082
3054.87	7.02258
3056.15	7.00482
3057.43	6.873
3058.72	7.15999
3060	7.72981
3061.29	6.66143
3062.57	6.29764
3063.85	6.60599
3065.13	6.77704
3066.42	7.42536
3067.7	7.97589
3068.98	7.38412
3070.26	7.38309
3071.54	7.46823
3072.82	6.80146
3074.11	6.66686
3075.39	6.6312
3076.67	5.72533
3077.95	5.0389
3079.23	4.6966
3080.51	4.05738
3081.79	3.58186
3083.07	3.32025
3084.35	2.95494
3085.63	2.94744
3086.9	2.28313
3088.18	2.38377
3089.46	2.81914
3090.74	2.8944
3092.02	3.49741
3093.29	3.15093
3094.57	3.46893
3095.85	3.77361
3097.13	3.87147
3098.4	4.08311
3099.68	4.51493
3100.95	4.11295
3102.23	4.91017
3103.51	5.51056
3104.78	5.54707
3106.06	6.04561
3107.33	6.89355
3108.61	7.35656
3109.88	8.01815
3111.16	8.34817
3112.43	8.67242
3113.71	9.7293
3114.98	10.9142
3116.25	11.9771
3117.53	12.4943
3118.8	12.4506
3120.07	13.2045
3121.35	13.995
3122.62	14.9575
3123.89	15.9218
3125.16	16.3603
3126.44	17.7897
3127.71	19.7631
3128.98	20.735
3130.25	21.8626
3131.52	22.4595
3132.79	22.6471
3134.06	23.6517
3135.33	23.9384
3136.6	24.4984
3137.87	24.7077
3139.14	24.9299
3140.41	25.1311
3141.68	25.2925
3142.95	25.5432
3144.22	25.5715
3145.49	25.5669
3146.76	24.9452
3148.02	24.5122
3149.29	23.6925
