#Acq. time (s)=	45
#Accumulations=	2
#Range (cm-¹)=	200...3150
#Windows=	2
#Auto scanning=	Off
#Autofocus=	Off
#Macrospot=	Off
#AutoExposure=	Off
#Spike filter=	Multiple accum.
#Delay time (s)=	0
#Binning=	1
#Readout mode=	Signal
#DeNoise=	Off
#ICS correction=	On
#Dark correction=	Off
#Inst. Process=	Off
#Detector Gain=	Best Dynamic Range
#Detector ADC=	20 kHz       
#Detector temperature (°C)=	-69.85
#Instrument=	LabRAM HR Evol
#Detector=	Synapse
#Objective=	x100
#Grating=	600 gr/mm
#ND Filter=	100%
#Laser (nm)=	532 
#Hole=	100.021
#Range=	Auto
#Laser Pol.=	No
#Raman. Pol.=	No
#Laser Pol. (°)=	-0.0007625
#Raman Pol. (°)=	89.9995
#Collection=	Microscope
#StageXY=	Marzhauser
#StageZ=	Marzhauser
#X (µm)=	-979.8
#Y (µm)=	-2944.6
#Z (µm)=	527.55
#Full time(mm:ss)=	3:19
#Project=	
#Sample=	
#Site=	
#Title=	Mb_00_13_01_2x_45s_532 nm_x100_100%_600 gr_mm
#Remark=	
#Date=	06.07.2022 09:46
#Acquired=	06.07.2022 09:46:24
#Base:Fit=	10.08.2022 10:16:36
#Base:Fit=	10.08.2022 10:16:56
#Base:Sub=	10.08.2022 10:17:24
#Filter:Polynom=	16.08.2022 10:36:38
#AxisType[0]=Intens
#AxisUnit[0]=Cnt
#AxisType[1]=Spectr
#AxisUnit[1]=1/cm
200.398	12.7819
202.213	12.0644
204.027	9.5401
205.843	6.49706
207.657	3.3528
209.47	0.237183
211.283	-2.36496
213.097	-4.39138
214.909	-4.64555
216.721	-2.46991
218.533	-1.9117
220.344	1.94628
222.157	5.12554
223.967	8.39769
225.777	10.7627
227.587	13.9563
229.396	16.7209
231.205	19.9978
233.016	24.3515
234.824	28.1792
236.632	32.0473
238.439	35.767
240.247	37.9407
242.053	40.2409
243.86	42.7724
245.666	44.5627
247.474	47.1765
249.279	50.0753
251.085	53.2855
252.889	55.1447
254.694	56.6663
256.498	58.6222
258.301	59.6635
260.105	60.015
261.908	60.0639
263.71	59.8574
265.513	60.1904
267.315	59.4119
269.116	57.9749
270.918	55.9034
272.718	54.6712
274.519	52.9143
276.319	51.1273
278.119	47.9155
279.918	45.3105
281.718	42.006
283.516	38.0298
285.315	34.1643
287.113	30.3324
288.911	27.1225
290.708	22.8833
292.505	19.1456
294.302	16.8387
296.098	14.9123
297.894	12.6828
299.69	10.705
301.485	9.13234
303.278	8.66924
305.073	8.63326
306.867	8.35815
308.661	6.31771
310.454	5.62186
312.247	3.93384
314.04	4.10815
315.833	3.73599
317.623	3.8454
319.415	3.68333
321.206	4.07225
322.997	4.81866
324.788	5.23506
326.579	5.33215
328.367	5.31904
330.156	3.71875
331.946	4.36253
333.735	4.79998
335.523	4.24862
337.31	3.82745
339.098	3.51399
340.885	3.67351
342.673	2.95621
344.458	1.43614
346.244	0.887126
348.03	0.0907366
349.816	-0.328524
351.6	-0.0636156
353.385	0.0671212
355.17	-0.679741
356.953	-2.04159
358.737	-2.32264
360.521	-1.55258
362.304	-0.295553
364.085	0.13633
365.868	1.58584
367.65	3.97847
369.431	5.66618
371.212	7.04273
372.994	7.73786
374.773	9.57529
376.554	12.403
378.332	15.3228
380.112	18.1669
381.892	22.1031
383.669	27.193
385.448	31.1254
387.225	35.3573
389.003	39.506
390.781	44.5669
392.557	49.7966
394.334	53.4094
396.109	56.384
397.885	58.9905
399.66	62.8125
401.436	66.821
403.211	69.8104
404.984	70.4365
406.759	71.786
408.532	73.4318
410.306	74.689
412.078	75.0349
413.851	75.0383
415.623	73.9074
417.395	72.6699
419.166	71.6981
420.938	71.1367
422.708	69.5695
424.477	66.8679
426.248	64.3822
428.017	62.8461
429.788	60.5572
431.556	57.4843
433.326	53.8901
435.093	50.731
436.86	48.2234
438.629	45.5259
440.395	41.7247
442.163	38.315
443.929	34.1984
445.694	31.0356
447.461	27.9577
449.226	24.9137
450.99	21.4317
452.756	18.9801
454.52	16.6231
456.285	14.0196
458.048	12.2118
459.811	10.2867
461.573	7.61235
463.337	8.16806
465.099	8.45479
466.86	8.53927
468.623	9.29968
470.384	11.1939
472.144	11.5175
473.906	12.1947
475.666	12.1045
477.425	12.63
479.184	13.0956
480.944	14.312
482.703	15.0309
484.461	16.1598
486.218	16.9205
487.975	18.6976
489.734	18.8744
491.491	19.7158
493.247	20.4358
495.003	22.5852
496.759	24.7325
498.516	26.7779
500.271	28.7894
502.025	30.2909
503.779	32.8147
505.533	35.0604
507.287	37.6612
509.042	38.6332
510.795	40.7029
512.547	41.8483
514.299	42.1395
516.051	44.8604
517.803	45.3886
519.554	47.3566
521.305	48.0293
523.055	48.66
524.805	48.8438
526.555	48.5345
528.307	48.3381
530.056	48.4627
531.805	46.8222
533.553	46.7278
535.301	46.4952
537.049	46.2654
538.797	45.5564
540.544	44.9281
542.291	43.3931
544.037	41.8632
545.783	40.9112
547.529	38.6045
549.275	37.0599
551.02	37.1408
552.765	34.8873
554.509	34.7943
556.253	34.268
557.997	33.3273
559.738	31.8207
561.482	31.5067
563.224	29.8733
564.967	30.0588
566.709	27.8229
568.451	27.3653
570.192	25.2649
571.933	22.6571
573.674	20.7383
575.415	20.0127
577.153	19.2655
578.893	18.3799
580.632	18.5906
582.371	19.4344
584.11	19.604
585.849	20.2842
587.587	19.9753
589.323	19.6032
591.06	19.7836
592.797	19.7169
594.534	19.651
596.271	18.6143
598.005	18.1173
599.741	17.5636
601.476	16.7239
603.211	18.1875
604.944	18.1233
606.679	18.0693
608.413	17.1563
610.147	16.4133
611.878	17.4105
613.611	19.0724
615.344	19.5997
617.077	18.5949
618.807	18.5027
620.539	18.4561
622.27	19.0848
623.999	19.4538
625.73	21.0119
627.461	21.9857
629.189	24.0215
630.919	25.8303
632.648	28.1747
634.376	29.6196
636.105	31.5058
637.833	33.6577
639.559	36.2201
641.287	38.0753
643.013	37.7141
644.74	37.537
646.467	37.6993
648.192	37.2906
649.918	36.9791
651.642	37.0678
653.368	35.5399
655.091	36.3444
656.816	35.5891
658.538	35.3503
660.263	36.0257
661.987	35.9607
663.708	35.2787
665.432	34.6782
667.153	35.3677
668.875	34.2732
670.596	34.2367
672.318	33.5246
674.037	32.6602
675.759	31.5307
677.478	30.6313
679.196	30.2704
680.917	28.9618
682.635	27.5567
684.355	27.1025
686.072	27.895
687.791	27.0404
689.508	27.1352
691.224	27.4745
692.942	26.1842
694.658	27.2056
696.376	28.3357
698.091	28.7628
699.805	28.2603
701.522	27.1279
703.236	27.178
704.95	28.1039
706.665	28.2211
708.379	30.7662
710.093	32.8817
711.806	34.9472
713.518	35.8434
715.23	37.1529
716.943	38.2583
718.655	38.1785
720.366	38.7376
722.078	39.5243
723.788	40.4604
725.498	40.3503
727.208	39.3142
728.919	40.1337
730.628	39.6473
732.337	39.7474
734.045	38.8195
735.755	38.5593
737.463	38.422
739.17	37.7012
740.877	38.8575
742.584	39.2298
744.292	40.456
745.998	41.565
747.704	42.3787
749.409	43.0327
751.114	45.2919
752.819	45.7122
754.526	46.5022
756.23	48.3124
757.934	49.0685
759.637	50.5305
761.34	51.1799
763.043	52.6134
764.746	53.6969
766.448	54.6487
768.152	55.2925
769.853	56.2205
771.554	57.418
773.255	57.2879
774.956	59.2481
776.656	60.4947
778.356	60.919
780.056	62.4456
781.755	62.7105
783.454	62.9025
785.153	64.3221
786.851	65.6622
788.549	66.5753
790.247	67.9814
791.944	69.2429
793.641	70.4264
795.338	70.6571
797.034	69.6627
798.73	69.7925
800.426	69.5735
802.121	69.6118
803.817	69.3512
805.511	69.2238
807.206	67.9069
808.9	68.4508
810.592	68.3556
812.286	68.7263
813.979	69.024
815.672	67.1143
817.364	68.0472
819.057	67.6712
820.748	67.6953
822.44	69.2695
824.129	70.3526
825.82	72.4116
827.511	73.586
829.201	74.1352
830.891	74.7951
832.581	74.9865
834.269	73.2482
835.958	72.3199
837.646	71.2065
839.335	70.321
841.023	68.9699
842.709	67.6202
844.396	66.0604
846.084	65.0145
847.77	62.808
849.455	60.3428
851.141	58.0765
852.827	56.6125
854.513	54.7932
856.196	53.7226
857.881	52.2644
859.566	51.4036
861.248	49.9205
862.932	47.9296
864.616	47.4422
866.297	46.1683
867.98	46.1534
869.663	45.5172
871.343	43.6278
873.026	41.4634
874.707	40.7923
876.387	39.809
878.068	38.676
879.747	37.6279
881.428	37.0482
883.108	37.4732
884.786	36.9739
886.465	36.5971
888.143	36.4182
889.822	35.793
891.498	35.9157
893.177	36.6676
894.855	37.171
896.53	36.0814
898.208	35.5185
899.883	35.7879
901.56	36.7197
903.234	36.2068
904.91	36.5979
906.584	38.3273
908.26	39.4928
909.933	40.8062
911.608	40.661
913.28	41.2949
914.955	42.2633
916.627	41.9021
918.298	39.8981
919.972	40.8163
921.643	40.3242
923.315	39.6138
924.986	40.1994
926.656	40.6703
928.328	40.2931
929.997	40.3374
931.668	40.0459
933.337	40.0376
935.006	39.5913
936.676	39.7114
938.344	39.5038
940.012	40.0488
941.681	40.0143
943.348	40.4273
945.014	41.0243
946.683	38.946
948.349	39.7365
950.015	39.4082
951.682	40.1395
953.347	38.4914
955.012	36.4046
956.676	35.3813
958.343	34.4545
960.006	32.7789
961.67	31.478
963.333	31.7007
964.998	32.7635
966.661	34.4053
968.323	35.4367
969.985	35.366
971.649	35.7912
973.31	37.0688
974.971	37.4619
976.632	39.3506
978.293	41.8548
979.953	42.4684
981.615	43.6837
983.274	45.5199
984.933	45.753
986.592	46.4526
988.251	48.183
989.909	50.1346
991.567	51.2513
993.225	52.1929
994.884	52.3575
996.541	54.7675
998.198	55.9973
999.855	56.5281
1001.51	56.5069
1003.17	57.6624
1004.82	57.5992
1006.48	58.3682
1008.13	59.2421
1009.79	58.896
1011.44	58.6081
1013.1	60.2707
1014.75	60.9179
1016.4	62.0463
1018.06	63.4765
1019.71	66.8
1021.36	69.5808
1023.01	72.7293
1024.66	76.174
1026.32	78.8045
1027.97	80.632
1029.62	82.114
1031.27	84.7804
1032.92	85.2443
1034.57	85.6186
1036.22	84.9293
1037.87	84.4959
1039.52	84.9741
1041.16	85.8723
1042.81	86.9686
1044.46	89.2726
1046.11	90.6004
1047.76	91.2151
1049.4	92.0835
1051.05	91.7152
1052.7	89.7516
1054.34	88.7792
1055.99	87.1638
1057.63	84.7434
1059.28	83.6365
1060.92	81.1233
1062.57	76.646
1064.21	73.3813
1065.85	70.3686
1067.5	66.5793
1069.14	62.7054
1070.78	58.816
1072.43	53.9971
1074.07	49.2859
1075.71	45.7705
1077.35	41.7986
1078.99	38.794
1080.63	34.0453
1082.27	28.9191
1083.91	23.8105
1085.55	20.3525
1087.19	17.1631
1088.83	14.2376
1090.47	12.6067
1092.11	11.619
1093.75	11.3776
1095.39	13.2761
1097.03	13.1052
1098.66	14.1662
1100.3	14.9279
1101.94	16.3963
1103.57	17.1215
1105.21	18.0887
1106.84	18.593
1108.48	18.1256
1110.11	17.5853
1111.75	17.3162
1113.38	16.3134
1115.02	15.3046
1116.65	14.3141
1118.29	13.2138
1119.92	13.1124
1121.55	12.3996
1123.19	12.4834
1124.82	11.9624
1126.45	12.0848
1128.08	12.545
1129.71	12.6901
1131.34	12.8475
1132.97	11.264
1134.6	11.5473
1136.23	12.1157
1137.86	12.0855
1139.49	12.9899
1141.12	12.9573
1142.75	11.9007
1144.38	12.001
1146.01	12.4512
1147.64	11.7573
1149.26	11.2462
1150.89	11.0517
1152.52	10.3483
1154.15	10.884
1155.77	11.6866
1157.4	12.3407
1159.02	12.4686
1160.65	11.8641
1162.27	10.942
1163.9	11.545
1165.52	12.2389
1167.15	12.5651
1168.77	13.0973
1170.39	14.8626
1172.02	16.2912
1173.64	17.0213
1175.26	17.2318
1176.89	18.0485
1178.51	17.505
1180.13	17.7733
1181.75	17.5913
1183.37	18.4742
1184.99	18.7011
1186.61	19.5652
1188.23	19.466
1189.85	18.709
1191.47	19.1411
1193.09	20.0907
1194.71	20.2973
1196.33	21.395
1197.94	22.8885
1199.56	25.2212
1201.18	27.643
1202.8	29.0218
1204.41	31.6674
1206.03	34.3083
1207.65	37.4688
1209.26	40.2277
1210.88	40.9809
1212.49	44.096
1214.11	46.1491
1215.72	48.7218
1217.34	51.0713
1218.95	53.6565
1220.57	55.5255
1222.18	57.6416
1223.79	60.8246
1225.41	63.4205
1227.02	63.6092
1228.63	65.9196
1230.24	67.5883
1231.85	69.0486
1233.47	70.4589
1235.08	72.5521
1236.69	74.1759
1238.3	74.8466
1239.91	76.5617
1241.52	77.7174
1243.13	78.5165
1244.74	79.3083
1246.34	79.2085
1247.95	78.9167
1249.56	79.4548
1251.17	79.9415
1252.78	77.7861
1254.38	76.7751
1255.99	76.8034
1257.6	75.8972
1259.2	75.3316
1260.81	73.51
1262.42	73.0632
1264.02	74.0244
1265.63	73.0155
1267.23	72.9072
1268.84	71.9147
1270.44	72.5264
1272.04	73.5618
1273.65	72.8507
1275.25	72.6539
1276.85	74.3324
1278.46	74.3483
1280.06	75.7108
1281.66	76.1899
1283.26	76.5177
1284.86	77.2982
1286.46	77.5438
1288.07	78.3426
1289.67	78.2263
1291.27	79.0053
1292.87	81.8732
1294.47	83.7999
1296.06	85.9381
1297.66	88.0697
1299.26	89.6469
1300.86	91.325
1302.46	93.4077
1304.06	95.6681
1305.65	97.2392
1307.25	99.4825
1308.85	101.769
1310.44	102.352
1312.04	104.843
1313.64	107.52
1315.23	108.962
1316.83	110.518
1318.42	113.068
1320.02	114.75
1321.61	114.615
1323.2	114.993
1324.8	115.743
1326.39	115.522
1327.99	114.278
1329.58	113.95
1331.17	113.389
1332.76	112.991
1334.36	113.194
1335.95	112.617
1337.54	111.103
1339.13	110.279
1340.72	108.02
1342.31	107.621
1343.9	106.793
1345.49	104.068
1347.08	101.009
1348.67	99.5418
1350.26	98.1057
1351.85	96.3143
1353.43	93.5495
1355.02	92.7854
1356.61	90.8741
1358.2	88.9625
1359.78	87.7298
1361.37	85.6142
1362.96	82.68
1364.54	80.8837
1366.13	78.1276
1367.71	77.7716
1369.3	75.6962
1370.88	74.3624
1372.47	72.3291
1374.05	71.1264
1375.64	68.5602
1377.22	67.8821
1378.8	67.3729
1380.39	66.2682
1381.97	65.6105
1383.55	65.7249
1385.13	63.992
1386.72	62.9533
1388.3	62.9143
1389.88	63.6671
1391.46	64.8365
1393.04	64.9117
1394.62	64.0272
1396.2	64.5744
1397.78	65.2042
1399.36	64.584
1400.94	64.322
1402.52	66.1206
1404.1	66.3256
1405.68	67.0552
1407.25	69.4497
1408.83	72.8922
1410.41	75.2862
1411.98	79.7429
1413.56	82.4381
1415.14	85.9366
1416.71	89.1474
1418.29	93.4026
1419.87	98.0462
1421.44	104.106
1423.02	109.368
1424.59	114.596
1426.16	120.505
1427.74	126.859
1429.31	132.717
1430.89	138.172
1432.46	142.932
1434.03	148.025
1435.6	152.732
1437.18	158.025
1438.75	160.868
1440.32	163.262
1441.89	166.09
1443.46	169.101
1445.03	169.696
1446.6	171.322
1448.17	170.567
1449.74	171.167
1451.31	172.175
1452.88	171.946
1454.45	169.234
1456.02	167.265
1457.59	164.003
1459.16	160.691
1460.72	158.191
1462.29	153.948
1463.86	148.115
1465.43	145.071
1466.99	140.298
1468.56	134.007
1470.13	126.925
1471.69	120.457
1473.26	112.922
1474.82	106.475
1476.38	99.9158
1477.95	94.409
1479.51	89.0834
1481.08	84.2598
1482.64	79.3741
1484.2	75.7108
1485.77	71.3855
1487.33	66.8043
1488.89	63.4441
1490.46	62.5146
1492.02	59.1825
1493.58	57.1872
1495.14	56.0683
1496.7	55.044
1498.26	53.3594
1499.82	52.631
1501.38	51.0735
1502.94	50.2321
1504.5	49.4961
1506.06	49.1331
1507.62	50.1341
1509.18	49.7444
1510.73	49.1166
1512.29	48.929
1513.85	49.3647
1515.41	49.2978
1516.96	49.0513
1518.52	49.0247
1520.08	49.4992
1521.63	49.2193
1523.19	49.9384
1524.75	51.1101
1526.3	51.5926
1527.85	53.2637
1529.41	53.3319
1530.96	53.1736
1532.52	53.8389
1534.07	55.1228
1535.62	55.3214
1537.18	55.2102
1538.73	55.8236
1540.28	55.7272
1541.84	56.0428
1543.39	57.9172
1544.94	57.4029
1546.49	57.4871
1548.04	57.9518
1549.59	59.6456
1551.14	60.317
1552.69	62.0574
1554.25	63.8869
1555.79	66.5039
1557.34	67.8238
1558.89	68.6047
1560.44	70.1275
1561.99	71.3123
1563.54	72.5326
1565.08	74.3908
1566.63	76.6813
1568.18	79.7469
1569.73	80.2669
1571.27	81.0129
1572.82	81.7155
1574.37	80.5319
1575.91	82.5448
1577.46	84.4933
1579	85.4936
1580.55	88.3308
1582.09	90.627
1583.64	92.8753
1585.18	95.6782
1586.73	97.4723
1588.27	98.7254
1589.81	101.498
1591.35	102.906
1592.9	104.704
1594.44	106.197
1595.98	107.545
1597.52	109.346
1599.06	111.035
1600.61	112.888
1602.15	112.638
1603.69	113.552
1605.23	113.601
1606.77	114.121
1608.31	114.42
1609.85	114.591
1611.39	113.4
1612.93	112.978
1614.46	113.511
1616	114.858
1617.54	115.841
1619.08	116.59
1620.61	118.695
1622.15	119.374
1623.69	121.27
1625.23	123.582
1626.76	125.234
1628.3	126.782
1629.83	128.578
1631.37	129.741
1632.9	130.897
1634.44	132.401
1635.97	135.075
1637.51	137.293
1639.04	140.075
1640.57	142.592
1642.11	144.232
1643.64	146.324
1645.17	149.098
1646.71	149.729
1648.24	150.848
1649.77	153.064
1651.3	154.622
1652.83	157.151
1654.36	158.217
1655.89	160.641
1657.42	161.911
1658.96	162.508
1660.48	164.669
1662.01	164.577
1663.54	163.501
1665.07	162.603
1666.6	161.91
1668.13	158.846
1669.66	157.663
1671.19	155.059
1672.71	152.077
1674.24	148.054
1675.77	144.683
1677.29	140.629
1678.82	135.747
1680.35	131.793
1681.87	127.243
1683.4	123.51
1684.92	118.508
1686.45	113.837
1687.97	109.34
1689.5	106.251
1691.02	102.727
1692.54	98.5894
1694.07	95.2776
1695.59	92.364
1697.11	90.1056
1698.64	86.7208
1700.16	83.7373
1701.68	80.9888
1703.2	78.2774
1704.72	75.7394
1706.25	72.6863
1707.77	69.3061
1709.29	66.9697
1710.81	66.0672
1712.33	63.9626
1713.85	61.8806
1715.37	60.1615
1716.89	58.1363
1718.41	56.8383
1719.92	55.5128
1721.44	54.6542
1722.96	53.8163
1724.48	52.5104
1725.99	52.3267
1727.51	50.8873
1729.03	50.6791
1730.55	51.6742
1732.06	51.5071
1733.58	50.4123
1735.09	50.6388
1736.61	50.989
1738.13	49.0137
1739.64	49.2114
1741.15	48.3959
1742.67	46.7541
1744.18	45.1799
1745.7	44.927
1747.21	43.7709
1748.72	43.2827
1750.24	42.2286
1751.75	42.4684
1753.26	42.171
1754.77	42.0576
1756.29	41.894
1757.8	41.8819
1759.31	41.1055
1760.82	41.365
1762.33	41.2392
1763.84	40.7866
1765.35	40.2941
1766.86	39.5653
1768.37	38.9038
1769.88	38.7959
1771.39	38.0542
1772.9	37.9249
1774.4	36.4277
1775.91	35.2734
1777.42	34.8022
1778.93	33.9073
1780.44	32.0571
1781.94	31.7595
1783.45	31.1174
1784.96	30.5299
1786.46	30.0341
1787.97	28.31
1789.47	27.8584
1790.98	27.2957
1792.48	27.8349
1793.99	28.0412
1795.49	27.5135
1797	27.6035
1798.5	26.8664
1800.01	25.8978
1801.51	25.2157
1803.01	24.7189
1804.51	24.8673
1806.02	24.2338
1807.52	23.3996
1809.02	23.6693
1810.52	22.9061
1812.02	22.2292
1813.52	20.9282
1815.02	20.4013
1816.53	19.9038
1818.03	19.4567
1819.52	19.7619
1821.02	19.8436
1822.52	20.1361
1824.02	19.7835
1825.52	20.2393
1827.02	20.7223
1828.52	20.293
1830.02	19.7285
1831.51	19.36
1833.01	19.5786
1834.51	19.0851
1836.01	19.2772
1837.5	18.0496
1839	17.7724
1840.49	17.6724
1841.99	17.5872
1843.49	17.274
1844.98	17.0182
1846.48	17.3044
1847.97	17.2503
1849.47	16.3779
1850.96	16.0776
1852.45	15.3674
1853.95	14.6696
1855.44	14.0231
1856.93	14.5616
1858.42	13.476
1859.92	12.9174
1861.41	12.4555
1862.9	11.5806
1864.39	12.5128
1865.88	11.7836
1867.38	10.7668
1868.87	9.06057
1870.36	8.99356
1871.85	8.30538
1873.34	7.03086
1874.83	6.49715
1876.32	5.90799
1877.81	5.59331
1879.29	4.71051
1880.78	4.36607
1882.27	4.7019
1882.53	4.61592
1884.03	3.96898
1885.52	4.69506
1887.01	5.31776
1888.51	5.53477
1890	5.56841
1891.5	5.46232
1892.99	6.22513
1894.48	7.06486
1895.97	8.15582
1897.47	9.12853
1898.96	9.94051
1900.45	9.51848
1901.94	9.10789
1903.43	10.0264
1904.92	10.8351
1906.41	11.9298
1907.9	12.3492
1909.39	12.783
1910.88	12.9632
1912.37	12.8275
1913.86	13.6925
1915.35	14.4097
1916.84	13.7705
1918.33	13.6458
1919.81	12.9831
1921.3	12.1078
1922.79	11.3061
1924.28	10.6384
1925.76	9.7318
1927.25	9.64602
1928.73	9.63563
1930.22	8.83138
1931.71	7.54383
1933.19	7.13807
1934.68	6.43176
1936.16	5.53194
1937.65	5.74292
1939.13	4.65888
1940.62	4.45351
1942.1	4.52731
1943.58	3.5894
1945.07	2.21679
1946.55	1.61686
1948.03	0.859026
1949.51	0.887062
1951	0.471273
1952.48	0.539732
1953.96	-0.200724
1955.44	0.387888
1956.92	0.260107
1958.4	0.646702
1959.88	0.188025
1961.36	0.631395
1962.84	0.399789
1964.32	1.09724
1965.8	2.3976
1967.28	2.43682
1968.76	2.92994
1970.24	3.36456
1971.72	2.79129
1973.2	3.1773
1974.67	4.25046
1976.15	5.28014
1977.63	6.91222
1979.1	6.45151
1980.58	6.639
1982.06	7.27795
1983.54	6.67095
1985.01	7.11334
1986.49	6.87079
1987.96	8.58713
1989.44	8.48563
1990.91	8.8135
1992.39	9.1794
1993.86	8.92543
1995.33	9.85375
1996.81	10.107
1998.28	10.4106
1999.75	11.4582
2001.23	12.2442
2002.7	12.9605
2004.17	13.4125
2005.65	14.8256
2007.12	15.0612
2008.59	16.0141
2010.06	16.1975
2011.53	16.6033
2013	16.5908
2014.47	16.6005
2015.94	15.7314
2017.41	15.3033
2018.88	16.431
2020.35	17.1631
2021.82	16.3888
2023.29	16.9357
2024.76	16.9094
2026.23	17.3726
2027.69	17.6861
2029.16	18.8117
2030.63	18.8901
2032.1	19.0786
2033.56	18.6213
2035.03	19.5523
2036.5	18.5771
2037.96	19.1709
2039.43	18.238
2040.89	18.0711
2042.36	19.0429
2043.83	19.1838
2045.29	18.3876
2046.75	18.4551
2048.22	18.064
2049.68	17.5508
2051.15	16.168
2052.61	15.0322
2054.07	15.3263
2055.54	14.9858
2057	14.1458
2058.46	14.0892
2059.92	14.0001
2061.39	15.1855
2062.85	15.1341
2064.31	15.3214
2065.77	14.4537
2067.23	14.6904
2068.69	14.6289
2070.15	13.9176
2071.61	14.6236
2073.07	14.993
2074.53	13.7844
2075.99	14.2756
2077.45	13.3355
2078.91	13.3589
2080.37	12.3545
2081.82	12.9327
2083.28	12.0165
2084.74	12.5139
2086.2	12.5717
2087.65	13.0755
2089.11	13.6388
2090.57	15.0435
2092.02	14.6104
2093.48	15.1944
2094.94	16.0071
2096.39	17.4248
2097.85	18.4901
2099.3	19.1111
2100.76	19.4559
2102.21	19.1556
2103.66	19.0327
2105.12	18.7486
2106.57	18.7344
2108.03	19.0663
2109.48	19.0739
2110.93	18.7862
2112.38	17.0242
2113.84	17.3468
2115.29	16.9936
2116.74	15.7844
2118.19	15.3906
2119.64	14.51
2121.09	13.8952
2122.54	13.4345
2123.99	11.6971
2125.45	10.8093
2126.89	10.3276
2128.34	10.176
2129.79	10.2321
2131.24	10.2949
2132.69	10.1658
2134.14	9.89502
2135.59	9.55385
2137.04	9.04583
2138.48	8.08743
2139.93	7.9749
2141.38	7.29961
2142.83	8.61675
2144.27	8.44273
2145.72	7.52725
2147.17	7.33476
2148.61	8.8528
2150.06	8.02619
2151.5	8.42285
2152.95	7.75982
2154.39	8.41302
2155.84	8.5071
2157.28	8.73312
2158.73	8.13916
2160.17	8.66836
2161.61	8.6902
2163.06	8.32009
2164.5	7.70194
2165.94	8.95802
2167.38	9.555
2168.83	10.4827
2170.27	11.0014
2171.71	11.8831
2173.15	12.3465
2174.59	11.8711
2176.03	11.7531
2177.47	12.4102
2178.91	12.527
2180.36	12.3767
2181.8	12.205
2183.23	11.8354
2184.67	12.1363
2186.11	12.4198
2187.55	12.9336
2188.99	12.7824
2190.43	13.0364
2191.87	12.134
2193.3	11.8861
2194.74	11.4635
2196.18	11.132
2197.62	11.7932
2199.05	12.805
2200.49	13.6117
2201.93	13.4045
2203.36	13.994
2204.8	13.7271
2206.23	14.6129
2207.67	15.1327
2209.1	15.1676
2210.54	14.6707
2211.97	15.6777
2213.41	16.397
2214.84	16.6078
2216.27	16.1381
2217.71	16.9674
2219.14	16.7058
2220.57	16.5621
2222.01	15.8342
2223.44	15.0444
2224.87	14.3064
2226.3	13.8885
2227.73	13.3729
2229.16	12.9515
2230.6	13.2485
2232.03	13.0998
2233.46	13.3577
2234.89	13.5593
2236.32	14.2053
2237.75	14.539
2239.18	15.2674
2240.61	15.9357
2242.03	15.8716
2243.46	16.2908
2244.89	15.8337
2246.32	15.7286
2247.75	15.9101
2249.17	15.5944
2250.6	15.4749
2252.03	15.3131
2253.46	14.8988
2254.88	14.6208
2256.31	14.317
2257.73	13.0832
2259.16	12.1567
2260.59	11.6844
2262.01	10.9621
2263.44	11.0726
2264.86	10.5323
2266.29	9.72832
2267.71	10.384
2269.14	10.3064
2270.56	10.1326
2271.98	10.598
2273.4	10.0648
2274.83	10.4323
2276.25	9.53103
2277.67	9.8632
2279.09	9.49156
2280.52	9.36532
2281.94	9.35554
2283.36	9.32046
2284.78	8.9015
2286.2	7.86397
2287.62	7.83057
2289.04	7.26247
2290.46	5.50878
2291.88	5.73369
2293.3	5.52799
2294.72	5.03299
2296.14	5.92014
2297.56	6.35827
2298.98	7.1654
2300.4	7.55659
2301.82	8.01322
2303.23	7.48345
2304.65	8.09555
2306.07	7.49709
2307.49	7.44031
2308.9	8.15668
2310.32	8.52977
2311.73	9.01743
2313.15	9.74117
2314.57	10.3544
2315.98	9.83546
2317.4	9.74164
2318.81	9.77467
2320.23	9.72526
2321.64	9.95105
2323.06	9.43289
2324.47	9.8139
2325.88	10.3347
2327.3	10.3121
2328.71	9.84202
2330.12	10.6874
2331.54	11.8543
2332.95	11.8607
2334.36	12.3921
2335.77	11.9309
2337.18	12.0949
2338.6	12.9307
2340.01	12.6079
2341.42	12.3257
2342.83	12.211
2344.24	11.1836
2345.65	11.0085
2347.06	10.4992
2348.47	10.4843
2349.88	10.0466
2351.29	9.71665
2352.7	9.33607
2354.1	8.12346
2355.51	7.6404
2356.92	7.5436
2358.33	7.25681
2359.74	7.18854
2361.14	7.26978
2362.55	7.26801
2363.96	7.6822
2365.36	7.38299
2366.77	7.05532
2368.18	6.8361
2369.58	6.50614
2370.99	5.76245
2372.39	5.32931
2373.8	4.86544
2375.2	5.06696
2376.61	5.33814
2378.01	6.08235
2379.42	5.96056
2380.82	5.53977
2382.22	6.54752
2383.63	6.91
2385.03	6.93204
2386.43	6.12623
2387.84	6.87668
2389.24	6.80596
2390.64	5.3549
2392.04	5.42006
2393.44	5.50379
2394.84	5.33047
2396.25	3.90641
2397.65	4.03687
2399.05	4.09415
2400.45	4.6968
2401.85	4.74088
2403.25	4.67651
2404.65	4.80036
2406.05	4.48945
2407.45	4.58023
2408.84	3.79681
2410.24	3.42098
2411.64	3.77588
2413.04	4.4522
2414.44	4.87832
2415.83	5.65404
2417.23	6.18604
2418.63	6.4891
2420.02	7.23221
2421.42	7.0501
2422.82	7.00002
2424.21	7.3753
2425.61	8.46584
2427	8.53571
2428.4	8.07225
2429.8	8.29911
2431.19	8.55119
2432.58	8.35913
2433.98	8.31019
2435.37	7.47644
2436.77	8.10353
2438.16	7.92357
2439.55	7.5341
2440.95	7.42229
2442.34	7.30221
2443.73	6.89448
2445.12	7.19941
2446.51	6.59539
2447.91	6.0852
2449.3	6.35535
2450.69	5.9325
2452.08	5.28619
2453.47	4.12704
2454.86	4.20333
2456.25	2.76198
2457.64	2.06312
2459.03	1.23892
2460.42	1.29753
2461.81	1.44972
2463.2	0.135991
2464.59	-0.60933
2465.98	-0.375273
2467.36	0.678488
2468.75	0.286007
2470.14	0.0296362
2471.53	-0.900017
2472.92	-1.08764
2474.3	-1.14284
2475.69	-1.06546
2477.08	-0.426322
2478.46	-0.375282
2479.85	0.503985
2481.23	1.16941
2482.62	1.08415
2484	1.36928
2485.39	1.26277
2486.77	1.87237
2488.16	2.49588
2489.54	2.34651
2490.93	2.40466
2492.31	2.66553
2493.69	3.48427
2495.08	4.30336
2496.46	4.85882
2497.84	4.9145
2499.23	4.61999
2500.61	4.95255
2501.99	3.4774
2503.37	3.03136
2504.75	3.26533
2506.13	3.9308
2507.52	3.59761
2508.9	3.52711
2510.28	2.4756
2511.66	2.41222
2513.04	2.98014
2514.42	3.2446
2515.8	2.3758
2517.18	2.46061
2518.55	2.51485
2519.93	1.67545
2521.31	2.08967
2522.69	2.39871
2524.07	2.5724
2525.45	1.12745
2526.82	0.809401
2528.2	1.02384
2529.58	0.907118
2530.95	-0.120601
2532.33	0.0867867
2533.71	0.759983
2535.08	1.76337
2536.46	1.76149
2537.84	1.19639
2539.21	0.871247
2540.59	0.718628
2541.96	1.63831
2543.34	1.0549
2544.71	0.688326
2546.08	1.02443
2547.46	1.18765
2548.83	1.60283
2550.2	1.97411
2551.58	2.06535
2552.95	3.09635
2554.32	3.67612
2555.7	4.67219
2557.07	5.12193
2558.44	5.35069
2559.81	7.10327
2561.18	7.47368
2562.55	8.38431
2563.93	8.60518
2565.3	8.60331
2566.67	8.15302
2568.04	8.67865
2569.41	8.9514
2570.78	8.7454
2572.15	10.0271
2573.51	10.7316
2574.88	11.4207
2576.25	10.9814
2577.62	11.2102
2578.99	11.1525
2580.36	11.3697
2581.73	11.1139
2583.09	10.5461
2584.46	10.7407
2585.83	10.632
2587.19	10.1566
2588.56	9.93545
2589.93	9.71765
2591.29	9.9531
2592.66	9.5725
2594.02	8.93619
2595.39	8.40683
2596.75	9.34029
2598.12	9.74998
2599.48	9.55197
2600.85	10.0105
2602.21	9.66553
2603.58	8.78947
2604.94	7.59579
2606.3	6.46541
2607.67	5.42683
2609.03	5.17132
2610.39	5.21585
2611.76	4.418
2613.12	4.69122
2614.48	5.73501
2615.84	6.13821
2617.2	6.00316
2618.56	6.52857
2619.92	6.4514
2621.28	6.93575
2622.65	7.21881
2624.01	7.33302
2625.37	7.36524
2626.72	7.18129
2628.08	7.19589
2629.44	6.54155
2630.8	6.98153
2632.16	7.2901
2633.52	8.03798
2634.88	8.87807
2636.24	9.2026
2637.59	8.67946
2638.95	9.88426
2640.31	10.0344
2641.67	9.97006
2643.02	10.2107
2644.38	9.94533
2645.74	9.89219
2647.09	9.71261
2648.45	9.42544
2649.8	10.0015
2651.16	9.91238
2652.51	10.5873
2653.87	9.81078
2655.22	10.648
2656.58	11.2635
2657.93	11.3495
2659.29	11.768
2660.64	11.2027
2661.99	11.068
2663.35	11.296
2664.7	12.5927
2666.05	11.5423
2667.41	11.1643
2668.76	10.5579
2670.11	9.63013
2671.46	8.40182
2672.81	7.67977
2674.16	7.4935
2675.51	7.39234
2676.87	8.18575
2678.22	8.0076
2679.57	7.86776
2680.92	7.95672
2682.27	8.36798
2683.62	8.53246
2684.97	8.61957
2686.31	8.19019
2687.66	7.37886
2689.01	7.79399
2690.36	7.94882
2691.71	7.45753
2693.06	6.91325
2694.4	7.16434
2695.75	7.42147
2697.1	8.4132
2698.45	9.18468
2699.79	10.3129
2701.14	10.7201
2702.49	11.8682
2703.83	11.8046
2705.18	12.3678
2706.52	13.5003
2707.87	12.874
2709.21	13.9619
2710.56	15.1675
2711.9	15.3472
2713.25	15.9268
2714.59	16.4435
2715.94	17.0318
2717.28	17.865
2718.62	18.566
2719.97	19.1365
2721.31	18.2686
2722.65	18.9452
2723.99	18.6908
2725.34	19.4027
2726.68	19.6134
2728.02	18.8208
2729.36	18.995
2730.7	19.026
2732.04	18.5631
2733.39	17.8159
2734.73	17.7046
2736.07	17.2499
2737.41	16.1122
2738.75	15.4493
2740.08	15.6591
2741.43	15.809
2742.76	14.5555
2744.1	14.1022
2745.44	12.7801
2746.78	12.756
2748.12	11.7677
2749.46	10.5524
2750.79	9.66133
2752.13	9.04393
2753.47	7.34686
2754.81	7.50871
2756.14	7.71914
2757.48	7.30486
2758.81	6.58325
2760.15	6.05048
2761.49	6.39496
2762.82	5.11415
2764.16	4.98052
2765.49	4.79029
2766.83	4.55854
2768.16	3.54855
2769.5	3.15326
2770.83	2.44623
2772.16	2.50692
2773.5	1.89736
2774.83	2.11205
2776.17	2.17967
2777.5	1.99809
2778.83	1.81315
2780.16	1.19725
2781.5	1.4958
2782.83	1.99306
2784.16	1.44325
2785.49	1.23789
2786.82	0.762307
2788.15	0.627754
2789.49	0.922093
2790.82	0.727232
2792.15	1.44352
2793.48	0.660626
2794.81	0.665642
2796.14	1.17798
2797.46	1.28241
2798.79	1.17632
2800.12	1.37587
2801.45	-0.0891504
2802.78	-0.263853
2804.11	-1.49674
2805.44	-1.69436
2806.76	-1.59357
2808.09	-2.08888
2809.42	-3.27158
2810.75	-2.88038
2812.07	-3.20514
2813.4	-2.72418
2814.73	-2.19646
2816.05	-1.6952
2817.38	-0.259784
2818.7	1.54601
2820.03	2.93961
2821.36	5.06822
2822.68	7.81441
2824.01	9.767
2825.33	11.6436
2826.65	14.7251
2827.98	17.5888
2829.3	20.6712
2830.63	24.9054
2831.95	29.1849
2833.27	32.9181
2834.6	37.0757
2835.92	41.5053
2837.24	46.72
2838.56	52.9806
2839.88	59.3663
2841.21	66.2931
2842.53	73.3894
2843.85	81.0611
2845.17	89.8529
2846.49	98.3527
2847.81	107.645
2849.13	116.559
2850.45	126.081
2851.77	135.884
2853.09	146.081
2854.41	155.28
2855.73	164.661
2857.05	174.262
2858.37	183.671
2859.69	191.795
2861	201.142
2862.32	208.707
2863.64	216.53
2864.96	223.249
2866.28	229.749
2867.59	236.506
2868.91	243.565
2870.23	249.515
2871.54	255.92
2872.86	261.904
2874.17	266.333
2875.49	270.262
2876.81	274.424
2878.12	278.425
2879.44	282.124
2880.75	285.817
2882.07	288.665
2883.38	291.918
2884.69	295.292
2886.01	298.656
2887.32	301.063
2888.63	304.616
2889.95	307.65
2891.26	310.532
2892.57	314.49
2893.89	318.136
2895.2	322.731
2896.51	326.196
2897.82	330.154
2899.13	334.106
2900.44	339.529
2901.76	344.982
2903.07	351.78
2904.38	360.134
2905.69	367.691
2907	376.184
2908.31	386.259
2909.62	396.022
2910.93	407.145
2912.24	416.035
2913.55	425.433
2914.85	435.417
2916.16	444.553
2917.47	452.6
2918.78	460.615
2920.09	467.638
2921.4	475.014
2922.7	480.126
2924.01	484.502
2925.32	488.241
2926.62	491.299
2927.93	492.755
2929.24	494.319
2930.54	494.538
2931.85	494.044
2933.15	493.864
2934.46	491.255
2935.76	487.17
2937.07	482.312
2938.37	476.481
2939.68	469.606
2940.98	462.213
2942.29	455.229
2943.59	447.744
2944.89	439.888
2946.2	430.705
2947.5	421.714
2948.8	413.138
2950.11	404.78
2951.41	395.999
2952.71	386.345
2954.01	377.595
2955.32	368.164
2956.62	358.4
2957.92	348.844
2959.22	339.001
2960.52	328.441
2961.82	317.939
2963.12	309.153
2964.42	300.671
2965.72	292.624
2967.02	284.496
2968.32	278.028
2969.62	271.57
2970.92	264.559
2972.22	258.636
2973.51	252.46
2974.81	245.117
2976.11	237.576
2977.41	229.649
2978.71	222.81
2980	214.889
2981.3	206.585
2982.6	198.911
2983.9	191.411
2985.19	183.364
2986.49	174.81
2987.78	165.78
2989.08	157.942
2990.38	149.47
2991.67	141.274
2992.97	133.178
2994.26	125.174
2995.56	117.238
2996.85	109.767
2998.14	102.874
2999.44	95.0315
3000.73	87.4875
3002.03	81.2402
3003.32	75.0719
3004.61	68.305
3005.91	62.7447
3007.2	57.4792
3008.49	51.7711
3009.78	46.7587
3011.07	41.6014
3012.37	38.6733
3013.66	34.5418
3014.95	30.6814
3016.24	27.2868
3017.53	23.732
3018.82	20.4848
3020.11	17.7459
3021.4	15.8086
3022.69	13.4425
3023.98	12.0446
3025.27	10.1203
3026.56	8.84139
3027.85	8.41282
3029.14	7.63902
3030.43	7.3096
3031.71	7.45605
3033	7.21328
3034.29	7.26473
3035.58	6.61165
3036.87	6.59504
3038.15	6.85129
3039.44	6.66959
3040.73	6.84112
3042.01	7.28595
3043.3	7.02558
3044.59	6.93855
3045.87	7.24128
3047.16	7.43968
3048.44	7.91705
3049.73	8.63097
3051.01	8.70676
3052.3	8.93191
3053.58	9.02172
3054.87	8.21091
3056.15	8.21912
3057.43	7.74714
3058.72	7.86523
3060	7.52705
3061.29	7.424
3062.57	7.57058
3063.85	7.1174
3065.13	6.38727
3066.42	5.99679
3067.7	5.28156
3068.98	4.62196
3070.26	4.09798
3071.54	3.09078
3072.82	2.73116
3074.11	2.59839
3075.39	2.31274
3076.67	1.60674
3077.95	0.754694
3079.23	1.17121
3080.51	0.392563
3081.79	0.388567
3083.07	0.288961
3084.35	0.0695092
3085.63	-0.15478
3086.9	-1.39816
3088.18	-2.07795
3089.46	-1.92937
3090.74	-1.63535
3092.02	-1.32187
3093.29	-0.768068
3094.57	-0.569079
3095.85	-0.54885
3097.13	-0.429222
3098.4	0.206114
3099.68	0.244603
3100.95	1.28691
3102.23	2.27968
3103.51	2.13149
3104.78	2.87516
3106.06	3.46553
3107.33	3.44098
3108.61	4.01341
3109.88	4.32809
3111.16	5.18969
3112.43	6.55833
3113.71	7.22563
3114.98	7.63326
3116.25	8.77604
3117.53	9.66867
3118.8	10.2125
3120.07	11.3406
3121.35	12.4901
3122.62	14.1461
3123.89	15.17
3125.16	16.8479
3126.44	18.3239
3127.71	19.2812
3128.98	20.9135
3130.25	22.4237
3131.52	23.7869
3132.79	25.5825
3134.06	26.9351
3135.33	29.0459
3136.6	30.9445
3137.87	32.284
3139.14	33.5202
3140.41	34.9019
3141.68	36.5753
3142.95	37.7934
3144.22	39.0854
3145.49	40.1159
3146.76	41.8508
3148.02	43.5942
3149.29	45.3598
