#Acq. time (s)=	45
#Accumulations=	2
#Range (cm-¹)=	200...3150
#Windows=	2
#Auto scanning=	Off
#Autofocus=	Off
#Macrospot=	Off
#AutoExposure=	Off
#Spike filter=	Multiple accum.
#Delay time (s)=	0
#Binning=	1
#Readout mode=	Signal
#DeNoise=	Off
#ICS correction=	On
#Dark correction=	Off
#Inst. Process=	Off
#Detector Gain=	Best Dynamic Range
#Detector ADC=	20 kHz       
#Detector temperature (°C)=	-69.85
#Instrument=	LabRAM HR Evol
#Detector=	Synapse
#Objective=	x100
#Grating=	600 gr/mm
#ND Filter=	100%
#Laser (nm)=	532 
#Hole=	100.021
#Range=	Auto
#Laser Pol.=	No
#Raman. Pol.=	No
#Laser Pol. (°)=	-0.0007625
#Raman Pol. (°)=	89.9995
#Collection=	Microscope
#StageXY=	Marzhauser
#StageZ=	Marzhauser
#X (µm)=	-1056.9
#Y (µm)=	-2876.3
#Z (µm)=	527.9
#Full time(mm:ss)=	3:18
#Project=	
#Sample=	
#Site=	
#Title=	Mb_00_13_47_2x_45s_532 nm_x100_100%_600 gr_mm
#Remark=	
#Date=	06.07.2022 13:35
#Acquired=	06.07.2022 13:35:50
#Base:Fit=	10.08.2022 10:16:56
#Base:Sub=	10.08.2022 10:17:24
#Filter:Polynom=	16.08.2022 10:36:38
#AxisType[0]=Intens
#AxisUnit[0]=Cnt
#AxisType[1]=Spectr
#AxisUnit[1]=1/cm
200.398	14.347
202.213	12.7318
204.027	7.14363
205.843	2.04232
207.657	-3.04252
209.47	-6.28541
211.283	-7.78263
213.097	-8.04567
214.909	-5.63191
216.721	0.150729
218.533	5.8737
220.344	13.6116
222.157	26.0397
223.967	37.9401
225.777	48.647
227.587	62.5999
229.396	76.7252
231.205	91.6309
233.016	104.581
234.824	116.579
236.632	128.211
238.439	140.177
240.247	149.351
242.053	159.244
243.86	166.906
245.666	173.991
247.474	182.339
249.279	191.808
251.085	198.625
252.889	202.101
254.694	206.826
256.498	211.922
258.301	216.193
260.105	218.567
261.908	217.069
263.71	217.226
265.513	216.354
267.315	214.226
269.116	208.907
270.918	204.863
272.718	199.358
274.519	191.448
276.319	182.956
278.119	174.034
279.918	162.74
281.718	149.635
283.516	138.185
285.315	125.261
287.113	113.021
288.911	98.7471
290.708	89.0827
292.505	79.0037
294.302	69.0916
296.098	60.6974
297.894	53.4701
299.69	46.0128
301.485	39.3028
303.278	33.604
305.073	29.502
306.867	26.1181
308.661	22.8008
310.454	20.3695
312.247	19.2238
314.04	15.3825
315.833	14.2709
317.623	14.7286
319.415	14.9536
321.206	14.601
322.997	13.4098
324.788	13.8798
326.579	13.2824
328.367	13.2271
330.156	11.1916
331.946	11.8137
333.735	10.4977
335.523	9.99527
337.31	9.55685
339.098	10.0363
340.885	6.94982
342.673	6.26782
344.458	8.13258
346.244	8.1715
348.03	8.09254
349.816	6.42891
351.6	6.30014
353.385	6.5241
355.17	4.89874
356.953	1.18193
358.737	0.42899
360.521	1.04173
362.304	0.98705
364.085	3.06073
365.868	7.30786
367.65	12.7611
369.431	16.9247
371.212	22.063
372.994	27.634
374.773	32.0085
376.554	39.0213
378.332	45.4135
380.112	54.1885
381.892	61.549
383.669	71.5504
385.448	84.085
387.225	96.3436
389.003	107.282
390.781	119.645
392.557	130.245
394.334	139.725
396.109	150.617
397.885	159.887
399.66	167.114
401.436	175.248
403.211	182.444
404.984	188.967
406.759	194.218
408.532	198.321
410.306	199.933
412.078	200.916
413.851	200.765
415.623	199.464
417.395	198.004
419.166	195.928
420.938	194.049
422.708	190.498
424.477	184.969
426.248	179.54
428.017	171.97
429.788	162.951
431.556	154.792
433.326	144.829
435.093	133.895
436.86	123.111
438.629	111.171
440.395	99.848
442.163	87.3137
443.929	76.6953
445.694	66.6109
447.461	59.4805
449.226	50.8092
450.99	44.0123
452.756	38.2419
454.52	30.4607
456.285	23.6581
458.048	15.6883
459.811	9.0543
461.573	3.85745
463.337	0.670032
465.099	-2.31185
466.86	-3.51879
468.623	-3.16934
470.384	-0.557259
472.144	1.33568
473.906	2.90783
475.666	4.9768
477.425	4.14986
479.184	5.60934
480.944	7.34077
482.703	9.00547
484.461	12.7666
486.218	14.7976
487.975	17.7151
489.734	20.0827
491.491	23.5127
493.247	26.1585
495.003	30.0988
496.759	33.3677
498.516	36.557
500.271	39.8709
502.025	43.9829
503.779	48.2349
505.533	52.1146
507.287	55.5527
509.042	58.6376
510.795	60.8853
512.547	63.6521
514.299	66.9488
516.051	68.5361
517.803	70.4055
519.554	71.7155
521.305	74.0549
523.055	76.1306
524.805	78.1231
526.555	78.6141
528.307	80.2938
530.056	81.308
531.805	82.4757
533.553	82.3624
535.301	81.0796
537.049	78.9119
538.797	78.0604
540.544	76.1434
542.291	74.5011
544.037	71.5662
545.783	68.8348
547.529	65.7
549.275	62.8355
551.02	59.071
552.765	55.1876
554.509	53.4336
556.253	50.8193
557.997	48.5848
559.738	44.2397
561.482	42.25
563.224	38.4716
564.967	35.0995
566.709	33.3448
568.451	32.5795
570.192	30.545
571.933	27.2681
573.674	24.3547
575.415	21.5779
577.153	18.0658
578.893	19.0182
580.632	17.0708
582.371	15.4525
584.11	14.5909
585.849	13.9886
587.587	13.1358
589.323	12.2989
591.06	11.4099
592.797	10.8957
594.534	10.8566
596.271	11.3176
598.005	10.7551
599.741	10.9567
601.476	11.6758
603.211	11.3099
604.944	11.3432
606.679	12.4906
608.413	13.981
610.147	14.275
611.878	15.5988
613.611	16.9522
615.344	17.0525
617.077	16.3631
618.807	17.2394
620.539	16.5843
622.27	16.1626
623.999	18.4327
625.73	20.6428
627.461	22.5187
629.189	22.7673
630.919	25.4469
632.648	28.8663
634.376	30.953
636.105	34.1933
637.833	36.5091
639.559	39.9942
641.287	42.8237
643.013	45.395
644.74	46.9607
646.467	48.3436
648.192	49.5541
649.918	50.2833
651.642	52.2412
653.368	51.6989
655.091	52.1998
656.816	50.8412
658.538	49.6995
660.263	50.1379
661.987	49.97
663.708	48.8041
665.432	48.8651
667.153	46.502
668.875	45.2212
670.596	44.5295
672.318	41.8762
674.037	39.6675
675.759	37.2832
677.478	35.5884
679.196	32.6358
680.917	29.7809
682.635	27.501
684.355	24.3664
686.072	21.814
687.791	20.1442
689.508	15.9403
691.224	13.4236
692.942	12.43
694.658	10.9697
696.376	8.67911
698.091	7.01367
699.805	4.03852
701.522	0.428799
703.236	-0.809941
704.95	-1.27155
706.665	-1.62659
708.379	-1.24422
710.093	-1.27226
711.806	-0.896081
713.518	-0.653228
715.23	0.0588521
716.943	2.57156
718.655	1.92248
720.366	3.62959
722.078	4.50637
723.788	4.2143
725.498	5.03182
727.208	5.92003
728.919	6.61764
730.628	6.96746
732.337	7.45914
734.045	8.77284
735.755	9.3824
737.463	10.6566
739.17	12.2385
740.877	13.6448
742.584	14.2754
744.292	16.6413
745.998	17.7487
747.704	18.8759
749.409	20.8824
751.114	24.1129
752.819	27.8293
754.526	30.5395
756.23	34.4433
757.934	36.6866
759.637	40.0522
761.34	42.4861
763.043	45.0599
764.746	47.4378
766.448	50.443
768.152	54.2297
769.853	56.3627
771.554	58.6398
773.255	59.909
774.956	62.0547
776.656	63.6082
778.356	65.5679
780.056	65.8057
781.755	65.5355
783.454	67.1869
785.153	66.6585
786.851	67.0346
788.549	67.5904
790.247	69.3253
791.944	69.9008
793.641	68.5806
795.338	68.939
797.034	67.8758
798.73	66.1581
800.426	65.2526
802.121	64.3683
803.817	62.6709
805.511	61.6891
807.206	58.9582
808.9	56.7747
810.592	56.3854
812.286	55.9683
813.979	54.668
815.672	54.0857
817.364	51.0925
819.057	49.9379
820.748	47.8754
822.44	49.0313
824.129	46.909
825.82	46.0378
827.511	46.2135
829.201	48.0106
830.891	47.2458
832.581	47.8755
834.269	48.5487
835.958	47.5109
837.646	47.9505
839.335	47.7253
841.023	47.1625
842.709	44.8557
844.396	43.0022
846.084	40.9028
847.77	39.0086
849.455	37.6552
851.141	37.1274
852.827	35.1667
854.513	30.6
856.196	27.43
857.881	24.7041
859.566	24.2942
861.248	22.7136
862.932	21.8732
864.616	20.3258
866.297	19.5096
867.98	17.3697
869.663	14.9042
871.343	13.7038
873.026	13.3346
874.707	12.5258
876.387	10.863
878.068	8.65617
879.747	7.08094
881.428	4.74781
883.108	3.87271
884.786	3.25227
886.465	2.46671
888.143	3.16943
889.822	2.21437
891.498	3.11856
893.177	2.1737
894.855	2.47467
896.53	2.06584
898.208	2.27497
899.883	2.03717
901.56	0.763507
903.234	2.93496
904.91	4.1999
906.584	5.97551
908.26	5.31484
909.933	8.40112
911.608	8.18034
913.28	9.97115
914.955	8.82338
916.627	8.84218
918.298	8.44573
919.972	7.5106
921.643	9.11169
923.315	8.33879
924.986	7.73982
926.656	7.11651
928.328	7.31432
929.997	7.32811
931.668	8.24857
933.337	8.67852
935.006	9.96523
936.676	7.40722
938.344	7.09685
940.012	9.35728
941.681	9.22931
943.348	9.87549
945.014	9.15652
946.683	8.06355
948.349	7.62872
950.015	8.03065
951.682	6.57698
953.347	7.07948
955.012	6.34089
956.676	5.04571
958.343	2.41714
960.006	0.36904
961.67	-0.617015
963.333	1.11592
964.998	4.07582
966.661	7.06251
968.323	10.0047
969.985	11.9545
971.649	15.2756
973.31	16.9991
974.971	20.1184
976.632	22.0383
978.293	25.1256
979.953	29.6996
981.615	32.4775
983.274	33.8538
984.933	36.1467
986.592	39.1716
988.251	40.2424
989.909	43.2924
991.567	46.2301
993.225	48.3291
994.884	48.0803
996.541	51.1521
998.198	52.5835
999.855	53.8428
1001.51	55.812
1003.17	55.1731
1004.82	57.4889
1006.48	56.5757
1008.13	57.1115
1009.79	57.1341
1011.44	57.2891
1013.1	56.4816
1014.75	58.9886
1016.4	62.7964
1018.06	68.792
1019.71	74.7225
1021.36	84.8763
1023.01	95.8329
1024.66	106.37
1026.32	118.25
1027.97	129.457
1029.62	140.647
1031.27	150.567
1032.92	160.263
1034.57	167.868
1036.22	175.896
1037.87	181.617
1039.52	187.805
1041.16	194.901
1042.81	201.292
1044.46	208.069
1046.11	214.278
1047.76	218.549
1049.4	221.022
1051.05	223.674
1052.7	223.074
1054.34	223.289
1055.99	221.676
1057.63	219.853
1059.28	215.435
1060.92	211.158
1062.57	206.297
1064.21	199.523
1065.85	192.246
1067.5	184.719
1069.14	175.157
1070.78	165.703
1072.43	157.087
1074.07	147.198
1075.71	134.806
1077.35	123.484
1078.99	113.09
1080.63	100.232
1082.27	87.1578
1083.91	74.2723
1085.55	60.2986
1087.19	50.2038
1088.83	39.1551
1090.47	30.7724
1092.11	22.3125
1093.75	16.7922
1095.39	13.487
1097.03	12.7595
1098.66	12.5544
1100.3	13.2119
1101.94	14.9274
1103.57	15.4956
1105.21	16.1523
1106.84	15.6272
1108.48	14.8329
1110.11	14.0104
1111.75	12.0353
1113.38	10.3646
1115.02	10.3531
1116.65	8.88169
1118.29	7.18773
1119.92	4.5575
1121.55	3.85655
1123.19	3.05287
1124.82	2.12718
1126.45	2.84005
1128.08	2.10718
1129.71	2.6704
1131.34	1.65504
1132.97	2.96064
1134.6	-0.213525
1136.23	-0.13194
1137.86	1.17544
1139.49	2.55672
1141.12	2.64855
1142.75	4.99371
1144.38	6.53629
1146.01	7.65714
1147.64	7.41555
1149.26	7.93025
1150.89	8.82187
1152.52	9.74569
1154.15	10.7034
1155.77	12.0611
1157.4	11.4951
1159.02	12.4954
1160.65	12.9892
1162.27	12.4783
1163.9	13.545
1165.52	12.1065
1167.15	13.5906
1168.77	14.2478
1170.39	14.2321
1172.02	14.113
1173.64	14.5205
1175.26	15.5238
1176.89	15.3217
1178.51	15.7003
1180.13	17.6379
1181.75	19.1955
1183.37	19.2517
1184.99	19.4923
1186.61	19.629
1188.23	20.7791
1189.85	22.9358
1191.47	25.3328
1193.09	27.3974
1194.71	30.4099
1196.33	33.2966
1197.94	35.9488
1199.56	39.574
1201.18	42.7346
1202.8	48.0616
1204.41	53.249
1206.03	57.8015
1207.65	61.9083
1209.26	65.3131
1210.88	70.5326
1212.49	73.8073
1214.11	78.9379
1215.72	83.3782
1217.34	89.8601
1218.95	96.0888
1220.57	101.2
1222.18	106.111
1223.79	109.605
1225.41	112.173
1227.02	113.804
1228.63	116.666
1230.24	119.006
1231.85	121.475
1233.47	123.012
1235.08	126.223
1236.69	129.285
1238.3	130.805
1239.91	131.433
1241.52	131.307
1243.13	132.179
1244.74	131.777
1246.34	130.92
1247.95	132.141
1249.56	130.085
1251.17	129.06
1252.78	128.301
1254.38	126.699
1255.99	124.537
1257.6	122.922
1259.2	122.274
1260.81	119.814
1262.42	115.283
1264.02	113.079
1265.63	114.801
1267.23	111.435
1268.84	112.874
1270.44	110.474
1272.04	110.23
1273.65	110.568
1275.25	111.834
1276.85	113.698
1278.46	114.575
1280.06	114.662
1281.66	115.963
1283.26	116.453
1284.86	118.955
1286.46	119.22
1288.07	120.388
1289.67	121.11
1291.27	123.149
1292.87	125.551
1294.47	128.078
1296.06	131.511
1297.66	132.352
1299.26	134.63
1300.86	136.554
1302.46	137.896
1304.06	139.807
1305.65	142.416
1307.25	144.805
1308.85	148.676
1310.44	151.044
1312.04	155.122
1313.64	159.14
1315.23	162.332
1316.83	164.15
1318.42	165.943
1320.02	165.559
1321.61	165.517
1323.2	167.781
1324.8	168.272
1326.39	168.88
1327.99	166.645
1329.58	164.898
1331.17	165.258
1332.76	163.205
1334.36	160.736
1335.95	159.192
1337.54	157.164
1339.13	155.551
1340.72	152.155
1342.31	150.159
1343.9	151.45
1345.49	149.527
1347.08	145.419
1348.67	145.897
1350.26	142.63
1351.85	142.526
1353.43	139.744
1355.02	136.673
1356.61	132.653
1358.2	130.24
1359.78	128.63
1361.37	127.306
1362.96	124.559
1364.54	124.703
1366.13	121.093
1367.71	119.468
1369.3	116.576
1370.88	115.08
1372.47	113.095
1374.05	111.173
1375.64	109.948
1377.22	108.627
1378.8	108.547
1380.39	107.024
1381.97	107.541
1383.55	107.837
1385.13	105.655
1386.72	105.613
1388.3	106.29
1389.88	105.863
1391.46	105.936
1393.04	104.558
1394.62	101.539
1396.2	100.577
1397.78	98.7993
1399.36	95.8978
1400.94	96.2773
1402.52	97.0565
1404.1	97.2558
1405.68	96.9906
1407.25	98.8231
1408.83	102.922
1410.41	105.384
1411.98	106.88
1413.56	112.104
1415.14	118.371
1416.71	124.079
1418.29	130.35
1419.87	137.143
1421.44	145.342
1423.02	154.401
1424.59	160.52
1426.16	168.366
1427.74	174.94
1429.31	180.422
1430.89	187.352
1432.46	196.28
1434.03	205.443
1435.6	213.106
1437.18	220.923
1438.75	225.114
1440.32	231.147
1441.89	237.619
1443.46	242.209
1445.03	244.226
1446.6	246.58
1448.17	247.186
1449.74	247.17
1451.31	247.751
1452.88	248.045
1454.45	245.838
1456.02	243.934
1457.59	241.098
1459.16	237.684
1460.72	234.514
1462.29	227.598
1463.86	219.413
1465.43	212.857
1466.99	206.624
1468.56	198.261
1470.13	190.155
1471.69	180.12
1473.26	170.917
1474.82	163.911
1476.38	156.311
1477.95	148.913
1479.51	142.509
1481.08	135.501
1482.64	127.726
1484.2	120.808
1485.77	114.297
1487.33	107.187
1488.89	101.145
1490.46	97.6661
1492.02	93.4659
1493.58	89.4312
1495.14	84.1648
1496.7	80.9079
1498.26	78.0725
1499.82	75.4208
1501.38	71.8992
1502.94	68.4093
1504.5	65.8874
1506.06	64.3587
1507.62	64.056
1509.18	64.566
1510.73	64.2782
1512.29	63.0583
1513.85	61.3846
1515.41	61.7695
1516.96	61.2816
1518.52	61.6402
1520.08	60.8508
1521.63	59.6278
1523.19	59.8786
1524.75	58.648
1526.3	59.0285
1527.85	59.9419
1529.41	61.4096
1530.96	61.9013
1532.52	61.0146
1534.07	62.344
1535.62	63.5294
1537.18	64.2826
1538.73	64.9235
1540.28	64.4707
1541.84	65.9446
1543.39	68.4504
1544.94	71.4487
1546.49	71.9247
1548.04	74.2115
1549.59	75.5239
1551.14	78.927
1552.69	81.7813
1554.25	82.8264
1555.79	83.4119
1557.34	84.8373
1558.89	85.8161
1560.44	87.2463
1561.99	89.4235
1563.54	91.2744
1565.08	94.2417
1566.63	97.0357
1568.18	100.03
1569.73	101.941
1571.27	106.412
1572.82	108.728
1574.37	113.377
1575.91	116.036
1577.46	119.204
1579	122.285
1580.55	126.511
1582.09	128.832
1583.64	133.134
1585.18	136.627
1586.73	139.772
1588.27	141.299
1589.81	145.095
1591.35	146.335
1592.9	147.879
1594.44	149.152
1595.98	150.427
1597.52	151.116
1599.06	149.741
1600.61	150.342
1602.15	148.209
1603.69	147.861
1605.23	146.72
1606.77	144.731
1608.31	144.185
1609.85	142.428
1611.39	142.557
1612.93	141.715
1614.46	140.729
1616	139.697
1617.54	139.911
1619.08	140.441
1620.61	139.684
1622.15	139.387
1623.69	139.425
1625.23	139.476
1626.76	137.627
1628.3	138.483
1629.83	138.453
1631.37	137.381
1632.9	137.982
1634.44	138.807
1635.97	140.211
1637.51	140.53
1639.04	141.102
1640.57	142.952
1642.11	144.699
1643.64	146.971
1645.17	149.527
1646.71	152.577
1648.24	154.282
1649.77	153.777
1651.3	156.294
1652.83	157.184
1654.36	159.025
1655.89	159.908
1657.42	158.766
1658.96	158.808
1660.48	160.441
1662.01	159.937
1663.54	156.253
1665.07	153.516
1666.6	151.641
1668.13	148.593
1669.66	145.791
1671.19	142.235
1672.71	136.164
1674.24	130.339
1675.77	124.734
1677.29	121.07
1678.82	115.733
1680.35	111.691
1681.87	107.328
1683.4	101.332
1684.92	95.9136
1686.45	90.2441
1687.97	86.4864
1689.5	82.7578
1691.02	79.1003
1692.54	75.2558
1694.07	69.809
1695.59	64.7841
1697.11	59.2877
1698.64	54.5831
1700.16	49.3063
1701.68	43.9049
1703.2	40.3915
1704.72	38.1549
1706.25	34.3641
1707.77	31.0129
1709.29	28.4271
1710.81	25.7511
1712.33	22.6358
1713.85	19.5828
1715.37	19.0492
1716.89	17.7793
1718.41	17.5723
1719.92	16.5198
1721.44	15.4894
1722.96	14.5281
1724.48	13.5167
1725.99	13.8975
1727.51	14.6668
1729.03	13.8715
1730.55	13.7963
1732.06	13.8743
1733.58	14.1082
1735.09	15.9148
1736.61	15.898
1738.13	14.598
1739.64	12.9872
1741.15	13.9864
1742.67	13.9275
1744.18	13.6207
1745.7	12.7903
1747.21	11.9004
1748.72	10.8453
1750.24	11.6213
1751.75	11.8021
1753.26	11.8877
1754.77	11.9575
1756.29	11.0851
1757.8	9.75024
1759.31	9.45767
1760.82	10.7729
1762.33	11.6226
1763.84	12.0113
1765.35	12.0749
1766.86	11.363
1768.37	9.37428
1769.88	7.49751
1771.39	7.326
1772.9	5.7055
1774.4	4.27499
1775.91	3.84746
1777.42	4.65786
1778.93	5.58483
1780.44	4.6959
1781.94	3.78239
1783.45	2.55554
1784.96	1.73768
1786.46	1.86979
1787.97	1.32021
1789.47	2.03102
1790.98	2.37059
1792.48	1.59744
1793.99	2.63319
1795.49	1.80834
1797	2.40051
1798.5	2.99883
1800.01	3.59254
1801.51	2.761
1803.01	3.04832
1804.51	4.02963
1806.02	4.83281
1807.52	5.16813
1809.02	5.10702
1810.52	4.49406
1812.02	3.47076
1813.52	2.71125
1815.02	1.90484
1816.53	2.30609
1818.03	2.01737
1819.52	2.06838
1821.02	2.40364
1822.52	2.40442
1824.02	2.66884
1825.52	3.63925
1827.02	3.99656
1828.52	2.90357
1830.02	2.65574
1831.51	3.53376
1833.01	4.17391
1834.51	5.11693
1836.01	5.72478
1837.5	5.73906
1839	5.02091
1840.49	5.43184
1841.99	5.7152
1843.49	6.2325
1844.98	7.294
1846.48	7.64388
1847.97	7.79392
1849.47	8.62047
1850.96	8.61632
1852.45	9.17582
1853.95	9.40385
1855.44	9.39756
1856.93	9.4088
1858.42	10.4874
1859.92	11.6565
1861.41	12.0289
1862.9	12.4692
1864.39	12.8746
1865.88	12.3567
1867.38	12.042
1868.87	11.7569
1870.36	9.74716
1871.85	9.47636
1873.34	8.67041
1874.83	7.61306
1876.32	7.74527
1877.81	8.40811
1879.29	8.29135
1880.78	7.80788
1882.27	7.71959
1882.53	7.54192
1884.03	7.2742
1885.52	7.07678
1887.01	6.80951
1888.51	7.78203
1890	9.41274
1891.5	9.02715
1892.99	9.38111
1894.48	9.03363
1895.97	8.40823
1897.47	9.28366
1898.96	9.37825
1900.45	9.43033
1901.94	8.73061
1903.43	9.16991
1904.92	10.3348
1906.41	9.94667
1907.9	10.9492
1909.39	11.9916
1910.88	12.9145
1912.37	13.0662
1913.86	15.9596
1915.35	16.8459
1916.84	17.5049
1918.33	16.6188
1919.81	16.3219
1921.3	15.95
1922.79	16.0554
1924.28	14.6337
1925.76	15.3139
1927.25	15.1523
1928.73	14.9312
1930.22	13.915
1931.71	13.9144
1933.19	12.7977
1934.68	11.6978
1936.16	10.5907
1937.65	7.84172
1939.13	5.94909
1940.62	4.69664
1942.1	3.43409
1943.58	3.27167
1945.07	3.87766
1946.55	3.11857
1948.03	3.72231
1949.51	4.70949
1951	5.08589
1952.48	5.3835
1953.96	5.22126
1955.44	4.45999
1956.92	4.33482
1958.4	4.38204
1959.88	4.34914
1961.36	4.49587
1962.84	5.34268
1964.32	5.76523
1965.8	5.53486
1967.28	6.1541
1968.76	6.77179
1970.24	6.49358
1971.72	6.77813
1973.2	6.60635
1974.67	6.32552
1976.15	6.13559
1977.63	6.48637
1979.1	7.41765
1980.58	8.50082
1982.06	10.3903
1983.54	10.8293
1985.01	10.7762
1986.49	11.1694
1987.96	11.894
1989.44	11.1856
1990.91	12.0291
1992.39	12.1424
1993.86	12.9335
1995.33	12.5479
1996.81	13.4581
1998.28	12.7452
1999.75	13.5651
2001.23	14.1392
2002.7	13.6381
2004.17	13.1064
2005.65	14.3137
2007.12	14.6704
2008.59	13.9748
2010.06	13.0385
2011.53	12.9923
2013	13.5074
2014.47	14.4
2015.94	14.1163
2017.41	14.9956
2018.88	14.9656
2020.35	15.0595
2021.82	16.0618
2023.29	16.6938
2024.76	15.8895
2026.23	14.883
2027.69	13.7205
2029.16	13.3136
2030.63	14.4664
2032.1	14.6263
2033.56	14.3699
2035.03	15.402
2036.5	16.1379
2037.96	16.2577
2039.43	15.9222
2040.89	15.9841
2042.36	15.2381
2043.83	12.875
2045.29	12.9017
2046.75	12.4508
2048.22	12.3273
2049.68	13.2964
2051.15	13.5656
2052.61	14.0702
2054.07	15.1512
2055.54	15.5697
2057	15.7884
2058.46	17.298
2059.92	18.7093
2061.39	18.07
2062.85	18.8555
2064.31	18.419
2065.77	18.0494
2067.23	18.1428
2068.69	18.0341
2070.15	18.3335
2071.61	17.9603
2073.07	18.7177
2074.53	19.7667
2075.99	19.8028
2077.45	20.3958
2078.91	20.0772
2080.37	19.3578
2081.82	18.2492
2083.28	18.2689
2084.74	18.0581
2086.2	18.1637
2087.65	18.2607
2089.11	18.4119
2090.57	19.2933
2092.02	19.4929
2093.48	18.9717
2094.94	18.6054
2096.39	17.424
2097.85	16.168
2099.3	15.4598
2100.76	15.4116
2102.21	17.3478
2103.66	19.3636
2105.12	19.6785
2106.57	18.9972
2108.03	19.7694
2109.48	19.2932
2110.93	18.4501
2112.38	19.5666
2113.84	19.6365
2115.29	18.7528
2116.74	17.4748
2118.19	18.3261
2119.64	17.9664
2121.09	18.5584
2122.54	18.957
2123.99	19.5474
2125.45	19.7511
2126.89	20.0094
2128.34	20.0481
2129.79	19.6688
2131.24	19.1442
2132.69	17.9558
2134.14	16.4665
2135.59	17.5627
2137.04	16.9705
2138.48	18.2698
2139.93	18.8365
2141.38	18.0143
2142.83	17.3439
2144.27	17.2854
2145.72	17.1137
2147.17	16.587
2148.61	16.0204
2150.06	15.4192
2151.5	15.7803
2152.95	16.0792
2154.39	15.3562
2155.84	15.3621
2157.28	16.08
2158.73	16.0769
2160.17	15.4954
2161.61	16.4726
2163.06	16.7459
2164.5	16.6408
2165.94	15.7773
2167.38	16.3723
2168.83	16.4737
2170.27	17.8125
2171.71	17.9348
2173.15	19.7128
2174.59	20.6122
2176.03	19.3434
2177.47	19.5723
2178.91	19.7762
2180.36	20.1581
2181.8	20.2878
2183.23	21.3845
2184.67	21.893
2186.11	20.4383
2187.55	19.9014
2188.99	19.6447
2190.43	20.9567
2191.87	21.027
2193.3	20.938
2194.74	21.7493
2196.18	21.8756
2197.62	22.0658
2199.05	21.6518
2200.49	21.2514
2201.93	20.204
2203.36	18.6439
2204.8	18.8411
2206.23	17.896
2207.67	17.8208
2209.1	16.9884
2210.54	16.5788
2211.97	16.3136
2213.41	16.4498
2214.84	16.2686
2216.27	17.0884
2217.71	17.4268
2219.14	17.1756
2220.57	18.2598
2222.01	18.2683
2223.44	17.7195
2224.87	17.0545
2226.3	17.7791
2227.73	18.0967
2229.16	17.7062
2230.6	18.4514
2232.03	18.468
2233.46	19.7093
2234.89	19.0042
2236.32	19.9182
2237.75	19.6025
2239.18	20.8704
2240.61	20.7622
2242.03	21.1225
2243.46	20.5787
2244.89	21.0481
2246.32	20.1493
2247.75	20.8746
2249.17	22.5988
2250.6	21.7006
2252.03	21.1322
2253.46	22.1506
2254.88	23.6198
2256.31	22.4007
2257.73	21.7506
2259.16	22.5298
2260.59	21.9235
2262.01	22.2103
2263.44	21.9124
2264.86	21.4315
2266.29	21.8293
2267.71	20.9716
2269.14	20.1587
2270.56	19.1215
2271.98	18.0703
2273.4	17.3521
2274.83	17.4382
2276.25	18.4988
2277.67	18.4336
2279.09	19.4068
2280.52	19.3875
2281.94	19.4341
2283.36	20.1076
2284.78	19.2587
2286.2	17.7406
2287.62	16.3944
2289.04	15.7455
2290.46	14.7407
2291.88	13.9721
2293.3	13.6778
2294.72	12.428
2296.14	13.2111
2297.56	13.012
2298.98	12.4019
2300.4	12.4538
2301.82	12.8128
2303.23	12.2372
2304.65	13.9898
2306.07	14.0504
2307.49	15.4879
2308.9	14.8326
2310.32	15.2012
2311.73	14.6568
2313.15	13.8566
2314.57	13.7068
2315.98	14.6869
2317.4	13.7243
2318.81	15.0349
2320.23	14.4641
2321.64	14.2842
2323.06	14.8414
2324.47	15.501
2325.88	14.6807
2327.3	13.3035
2328.71	13.3612
2330.12	13.3543
2331.54	12.6128
2332.95	13.4654
2334.36	12.9557
2335.77	12.5571
2337.18	12.8162
2338.6	12.4216
2340.01	12.3605
2341.42	12.6059
2342.83	11.3622
2344.24	11.1284
2345.65	11.5839
2347.06	11.0976
2348.47	10.1158
2349.88	9.98202
2351.29	9.47603
2352.7	9.94145
2354.1	9.1713
2355.51	8.09942
2356.92	7.59879
2358.33	7.28399
2359.74	8.90463
2361.14	8.53582
2362.55	8.44335
2363.96	9.83585
2365.36	9.63349
2366.77	10.3378
2368.18	10.7442
2369.58	10.4818
2370.99	10.3737
2372.39	11.1382
2373.8	11.3968
2375.2	12.2025
2376.61	11.0848
2378.01	11.345
2379.42	10.8329
2380.82	10.6535
2382.22	9.35593
2383.63	9.52259
2385.03	10.5466
2386.43	10.3002
2387.84	9.46319
2389.24	9.21247
2390.64	7.74224
2392.04	7.37949
2393.44	8.04349
2394.84	7.18917
2396.25	5.89817
2397.65	5.91079
2399.05	5.90454
2400.45	4.96792
2401.85	5.13174
2403.25	5.89183
2404.65	5.10384
2406.05	4.46899
2407.45	4.82517
2408.84	4.83247
2410.24	5.66862
2411.64	6.02987
2413.04	5.93932
2414.44	6.79372
2415.83	8.30125
2417.23	9.47695
2418.63	10.5553
2420.02	13.0732
2421.42	14.3368
2422.82	14.9246
2424.21	15.2915
2425.61	15.6884
2427	16.5416
2428.4	16.6593
2429.8	16.0596
2431.19	15.7741
2432.58	15.6366
2433.98	17.355
2435.37	15.5305
2436.77	15.037
2438.16	14.4387
2439.55	13.627
2440.95	13.4633
2442.34	12.9661
2443.73	11.2209
2445.12	10.4907
2446.51	7.91302
2447.91	7.76899
2449.3	6.70231
2450.69	4.99031
2452.08	3.53881
2453.47	4.86848
2454.86	4.71657
2456.25	3.18901
2457.64	0.713188
2459.03	-1.14273
2460.42	-1.11079
2461.81	-1.61775
2463.2	-1.45619
2464.59	-2.86198
2465.98	-3.34635
2467.36	-2.70029
2468.75	-2.62286
2470.14	-3.40128
2471.53	-2.82395
2472.92	-2.26782
2474.3	-2.33094
2475.69	-1.03104
2477.08	-0.00450389
2478.46	0.924502
2479.85	1.30445
2481.23	3.30261
2482.62	4.63315
2484	6.23404
2485.39	6.77598
2486.77	7.59953
2488.16	8.5563
2489.54	9.44489
2490.93	9.55008
2492.31	9.79517
2493.69	9.93444
2495.08	10.45
2496.46	10.1075
2497.84	11.0047
2499.23	12.0682
2500.61	13.2261
2501.99	13.7934
2503.37	14.9549
2504.75	14.1566
2506.13	16.3925
2507.52	15.6499
2508.9	15.8481
2510.28	15.035
2511.66	14.521
2513.04	13.8011
2514.42	13.167
2515.8	13.79
2517.18	15.2997
2518.55	14.7968
2519.93	13.8814
2521.31	14.7926
2522.69	16.255
2524.07	15.5448
2525.45	15.2402
2526.82	16.3523
2528.2	17.5321
2529.58	17.4459
2530.95	17.5625
2532.33	16.9955
2533.71	17.3093
2535.08	17.6008
2536.46	18.1276
2537.84	18.4251
2539.21	18.7932
2540.59	19.6203
2541.96	20.2823
2543.34	20.3469
2544.71	21.7669
2546.08	22.0224
2547.46	23.3285
2548.83	23.9548
2550.2	25.5475
2551.58	24.1664
2552.95	24.5156
2554.32	23.6208
2555.7	25.1804
2557.07	25.6133
2558.44	24.8669
2559.81	26.2379
2561.18	26.2442
2562.55	26.4386
2563.93	27.2256
2565.3	27.4006
2566.67	29.2723
2568.04	29.1432
2569.41	28.0744
2570.78	28.3969
2572.15	28.654
2573.51	27.6677
2574.88	27.4232
2576.25	26.5799
2577.62	26.3496
2578.99	25.5253
2580.36	24.8168
2581.73	24.3569
2583.09	24.1417
2584.46	24.0062
2585.83	23.146
2587.19	21.9907
2588.56	22.489
2589.93	23.7111
2591.29	24.5489
2592.66	23.6796
2594.02	23.7159
2595.39	22.9223
2596.75	21.5356
2598.12	20.4748
2599.48	20.5351
2600.85	19.4213
2602.21	20.3561
2603.58	20.2659
2604.94	20.3067
2606.3	20.0651
2607.67	19.9912
2609.03	19.8841
2610.39	20.0451
2611.76	19.8522
2613.12	20.2368
2614.48	18.1349
2615.84	18.4501
2617.2	18.838
2618.56	19.0779
2619.92	19.7532
2621.28	20.9122
2622.65	20.5269
2624.01	20.9736
2625.37	19.0579
2626.72	18.3383
2628.08	19.7533
2629.44	20.0199
2630.8	20.9763
2632.16	21.4396
2633.52	21.2103
2634.88	21.6069
2636.24	21.0937
2637.59	20.5778
2638.95	21.8218
2640.31	22.3095
2641.67	22.4298
2643.02	23.4641
2644.38	23.9112
2645.74	23.7656
2647.09	23.474
2648.45	23.3642
2649.8	23.7383
2651.16	23.5099
2652.51	23.45
2653.87	24.1275
2655.22	24.6821
2656.58	25.8818
2657.93	25.6975
2659.29	25.0996
2660.64	24.1762
2661.99	24.3851
2663.35	24.1937
2664.7	24.9682
2666.05	25.6002
2667.41	25.8135
2668.76	25.2102
2670.11	25.6934
2671.46	24.974
2672.81	24.8178
2674.16	25.7558
2675.51	26.2846
2676.87	26.4849
2678.22	26.707
2679.57	27.1822
2680.92	27.0264
2682.27	27.4133
2683.62	28.9214
2684.97	29.018
2686.31	29.6506
2687.66	29.9685
2689.01	29.5198
2690.36	29.5378
2691.71	28.4567
2693.06	27.9278
2694.4	28.7218
2695.75	30.5538
2697.1	30.9233
2698.45	30.8357
2699.79	31.1128
2701.14	31.0349
2702.49	31.6405
2703.83	31.9723
2705.18	32.9022
2706.52	34.8388
2707.87	35.8149
2709.21	36.5787
2710.56	37.0644
2711.9	37.4166
2713.25	38.7543
2714.59	37.904
2715.94	38.3326
2717.28	39.5264
2718.62	38.8667
2719.97	39.1229
2721.31	40.7843
2722.65	41.4219
2723.99	41.3504
2725.34	40.2856
2726.68	39.5077
2728.02	39.1114
2729.36	39.7925
2730.7	39.3888
2732.04	39.2805
2733.39	37.9682
2734.73	36.2179
2736.07	35.4592
2737.41	35.5555
2738.75	34.6811
2740.08	34.6506
2741.43	33.3774
2742.76	31.4004
2744.1	30.1487
2745.44	28.1542
2746.78	26.9268
2748.12	26.0326
2749.46	24.8992
2750.79	23.7379
2752.13	22.0461
2753.47	21.9926
2754.81	20.1797
2756.14	19.4404
2757.48	18.081
2758.81	15.5719
2760.15	14.3929
2761.49	13.9469
2762.82	14.0491
2764.16	13.2477
2765.49	12.7083
2766.83	11.4967
2768.16	10.9696
2769.5	10.4274
2770.83	10.5599
2772.16	10.1769
2773.5	9.26121
2774.83	8.5521
2776.17	8.91662
2777.5	8.40886
2778.83	8.9411
2780.16	9.35799
2781.5	7.99851
2782.83	9.26127
2784.16	10.0585
2785.49	9.9486
2786.82	11.6671
2788.15	12.9106
2789.49	12.4259
2790.82	11.8471
2792.15	11.9042
2793.48	11.7832
2794.81	10.7661
2796.14	10.0942
2797.46	8.45463
2798.79	8.59147
2800.12	7.80155
2801.45	8.0638
2802.78	8.49226
2804.11	8.01915
2805.44	6.95767
2806.76	5.8693
2808.09	5.43384
2809.42	4.76517
2810.75	5.24236
2812.07	4.62984
2813.4	5.91921
2814.73	6.94433
2816.05	6.94235
2817.38	9.95516
2818.7	11.9977
2820.03	15.0894
2821.36	17.733
2822.68	21.123
2824.01	23.2952
2825.33	26.3866
2826.65	30.4311
2827.98	35.9007
2829.3	40.2443
2830.63	44.2368
2831.95	49.092
2833.27	54.2367
2834.6	60.3629
2835.92	67.0133
2837.24	73.1507
2838.56	78.9775
2839.88	88.2655
2841.21	97.9244
2842.53	107.331
2843.85	116.796
2845.17	127.995
2846.49	138.368
2847.81	149.069
2849.13	162.302
2850.45	174.772
2851.77	187.919
2853.09	200.688
2854.41	212.55
2855.73	224.311
2857.05	235.538
2858.37	247.441
2859.69	258.519
2861	268.965
2862.32	280.321
2863.64	290.176
2864.96	300.125
2866.28	308.913
2867.59	317.395
2868.91	325.431
2870.23	331.64
2871.54	339.984
2872.86	346.241
2874.17	352.436
2875.49	357.484
2876.81	364.729
2878.12	369.551
2879.44	374.913
2880.75	379.92
2882.07	385.169
2883.38	391.23
2884.69	395.576
2886.01	399.885
2887.32	405.435
2888.63	408.412
2889.95	412.78
2891.26	416.288
2892.57	421.481
2893.89	425.705
2895.2	430.63
2896.51	436.201
2897.82	442.638
2899.13	448.594
2900.44	455.699
2901.76	463.093
2903.07	470.1
2904.38	480.583
2905.69	493.421
2907	502.959
2908.31	514.455
2909.62	526.771
2910.93	539.943
2912.24	553.129
2913.55	566.294
2914.85	580.628
2916.16	594.184
2917.47	607.051
2918.78	619.178
2920.09	629.662
2921.4	639.874
2922.7	649.185
2924.01	657.247
2925.32	663.546
2926.62	668.586
2927.93	672.305
2929.24	673.983
2930.54	676.179
2931.85	676.615
2933.15	674.353
2934.46	671.735
2935.76	668.341
2937.07	664.096
2938.37	657.318
2939.68	650.087
2940.98	641.417
2942.29	632.215
2943.59	621.217
2944.89	610.865
2946.2	599.234
2947.5	588.627
2948.8	576.336
2950.11	563.65
2951.41	549.721
2952.71	536.571
2954.01	522.889
2955.32	509.728
2956.62	495.214
2957.92	482.022
2959.22	467.753
2960.52	455.048
2961.82	441.453
2963.12	428.649
2964.42	415.008
2965.72	402.995
2967.02	390.603
2968.32	380.469
2969.62	370.541
2970.92	359.79
2972.22	349.002
2973.51	339.097
2974.81	329.429
2976.11	320.034
2977.41	311.023
2978.71	300.46
2980	290.324
2981.3	281.284
2982.6	271.605
2983.9	261.281
2985.19	249.833
2986.49	238.889
2987.78	228.396
2989.08	216.71
2990.38	206.225
2991.67	195.456
2992.97	184.571
2994.26	174.003
2995.56	164.771
2996.85	153.949
2998.14	143.093
2999.44	132.994
3000.73	124.822
3002.03	114.908
3003.32	105.431
3004.61	95.6336
3005.91	86.8243
3007.2	78.9105
3008.49	71.2
3009.78	63.5063
3011.07	57.6754
3012.37	52.7407
3013.66	45.5001
3014.95	40.3221
3016.24	34.5898
3017.53	30.0234
3018.82	25.306
3020.11	20.668
3021.4	17.3264
3022.69	13.9738
3023.98	10.9752
3025.27	7.79675
3026.56	5.63044
3027.85	3.46782
3029.14	-0.0774252
3030.43	-0.64333
3031.71	-0.999868
3033	-1.71383
3034.29	-2.79263
3035.58	-2.8204
3036.87	-1.61086
3038.15	-1.28119
3039.44	-0.63312
3040.73	0.984565
3042.01	1.61596
3043.3	2.03902
3044.59	3.88338
3045.87	6.84404
3047.16	7.92474
3048.44	8.88492
3049.73	9.78147
3051.01	11.1773
3052.3	12.7751
3053.58	13.0533
3054.87	15.2214
3056.15	16.122
3057.43	16.7242
3058.72	18.0386
3060	19.0257
3061.29	17.7209
3062.57	17.9167
3063.85	18.8303
3065.13	19.8065
3066.42	19.7443
3067.7	19.2618
3068.98	19.57
3070.26	19.2269
3071.54	19.0974
3072.82	19.0588
3074.11	18.2576
3075.39	18.446
3076.67	17.2397
3077.95	16.3334
3079.23	16.3977
3080.51	14.4661
3081.79	13.8746
3083.07	13.5448
3084.35	13.3909
3085.63	13.2479
3086.9	12.426
3088.18	11.5454
3089.46	11.5525
3090.74	11.7056
3092.02	12.0244
3093.29	11.6268
3094.57	14.0159
3095.85	14.5762
3097.13	15.0422
3098.4	17.0636
3099.68	19.0126
3100.95	20.6708
3102.23	20.7186
3103.51	22.2325
3104.78	24.3301
3106.06	25.8282
3107.33	27.873
3108.61	29.3252
3109.88	31.2102
3111.16	33.3257
3112.43	34.8461
3113.71	36.9473
3114.98	39.6619
3116.25	42.0667
3117.53	44.8075
3118.8	47.9661
3120.07	50.2129
3121.35	52.9358
3122.62	56.4028
3123.89	58.8542
3125.16	61.0167
3126.44	64.9305
3127.71	68.488
3128.98	71.2862
3130.25	74.8245
3131.52	77.5438
3132.79	81.2727
3134.06	84.5387
3135.33	88.4187
3136.6	91.4229
3137.87	94.5861
3139.14	99.0857
3140.41	102.742
3141.68	105.99
3142.95	109.46
3144.22	113.095
3145.49	116.481
3146.76	119.453
3148.02	121.86
3149.29	123.113
