#Acq. time (s)=	45
#Accumulations=	2
#Range (cm-¹)=	200...3150
#Windows=	2
#Auto scanning=	Off
#Autofocus=	Off
#Macrospot=	Off
#AutoExposure=	Off
#Spike filter=	Multiple accum.
#Delay time (s)=	0
#Binning=	1
#Readout mode=	Signal
#DeNoise=	Off
#ICS correction=	On
#Dark correction=	Off
#Inst. Process=	Off
#Detector Gain=	Best Dynamic Range
#Detector ADC=	20 kHz       
#Detector temperature (°C)=	-69.85
#Instrument=	LabRAM HR Evol
#Detector=	Synapse
#Objective=	x100
#Grating=	600 gr/mm
#ND Filter=	100%
#Laser (nm)=	532 
#Hole=	100.021
#Range=	Auto
#Laser Pol.=	No
#Raman. Pol.=	No
#Laser Pol. (°)=	-0.0007625
#Raman Pol. (°)=	89.9995
#Collection=	Microscope
#StageXY=	Marzhauser
#StageZ=	Marzhauser
#X (µm)=	-995.3
#Y (µm)=	-2854.5
#Z (µm)=	528.9
#Full time(mm:ss)=	3:18
#Project=	
#Sample=	
#Site=	
#Title=	Mb_00_13_30_2x_45s_532 nm_x100_100%_600 gr_mm
#Remark=	
#Date=	06.07.2022 12:00
#Acquired=	06.07.2022 12:00:03
#Base:Fit=	10.08.2022 10:16:56
#Base:Sub=	10.08.2022 10:17:24
#Filter:Polynom=	16.08.2022 10:36:38
#AxisType[0]=Intens
#AxisUnit[0]=Cnt
#AxisType[1]=Spectr
#AxisUnit[1]=1/cm
200.398	4.8778
202.213	2.08996
204.027	1.33819
205.843	0.13998
207.657	-0.844385
209.47	-1.88057
211.283	-2.53556
213.097	-2.64569
214.909	-1.49572
216.721	0.369367
218.533	3.63049
220.344	7.84206
222.157	11.5486
223.967	14.1559
225.777	17.8711
227.587	21.5198
229.396	24.2295
231.205	27.1069
233.016	29.4587
234.824	32.2579
236.632	35.2094
238.439	37.2192
240.247	39.7371
242.053	41.551
243.86	42.3582
245.666	43.0843
247.474	44.4103
249.279	45.6697
251.085	46.4658
252.889	47.8696
254.694	48.8206
256.498	48.8053
258.301	49.9018
260.105	50.4239
261.908	49.4474
263.71	49.9505
265.513	48.463
267.315	48.4099
269.116	47.8029
270.918	46.3021
272.718	44.5234
274.519	42.3301
276.319	40.0259
278.119	37.1147
279.918	33.9637
281.718	32.0635
283.516	28.9448
285.315	26.1398
287.113	23.808
288.911	20.7092
290.708	18.7216
292.505	16.4488
294.302	13.7551
296.098	12.4971
297.894	11.2504
299.69	10.1724
301.485	9.62958
303.278	9.27197
305.073	9.94316
306.867	9.55253
308.661	10.2482
310.454	9.97655
312.247	9.08042
314.04	8.72523
315.833	8.44173
317.623	8.24579
319.415	7.45724
321.206	7.45818
322.997	7.93406
324.788	8.88479
326.579	8.94767
328.367	9.14545
330.156	10.1461
331.946	8.98002
333.735	8.2214
335.523	8.16009
337.31	7.64159
339.098	7.81286
340.885	7.81516
342.673	7.86869
344.458	7.78992
346.244	8.25619
348.03	8.9118
349.816	7.97151
351.6	6.69512
353.385	5.32599
355.17	4.10896
356.953	4.26843
358.737	3.07302
360.521	2.40123
362.304	3.32763
364.085	3.14235
365.868	3.45567
367.65	5.4206
369.431	7.0981
371.212	8.07715
372.994	8.98527
374.773	9.85887
376.554	11.7977
378.332	13.0094
380.112	15.3672
381.892	17.2214
383.669	20.9526
385.448	23.6903
387.225	26.0458
389.003	28.655
390.781	31.3348
392.557	35.0441
394.334	37.615
396.109	39.0988
397.885	42.1647
399.66	43.2596
401.436	45.8198
403.211	46.4737
404.984	47.1844
406.759	48.5371
408.532	48.6162
410.306	49.6943
412.078	50.2934
413.851	51.0359
415.623	50.8512
417.395	50.9179
419.166	50.6307
420.938	48.9986
422.708	48.2766
424.477	46.9048
426.248	46.1488
428.017	45.0663
429.788	43.2052
431.556	40.9608
433.326	39.3789
435.093	36.6467
436.86	34.0673
438.629	31.0121
440.395	27.7597
442.163	25.1874
443.929	23.0964
445.694	20.5486
447.461	19.3315
449.226	17.2996
450.99	15.9136
452.756	13.8187
454.52	13.0074
456.285	11.9542
458.048	10.5329
459.811	8.0551
461.573	7.38946
463.337	6.30729
465.099	6.70676
466.86	5.89865
468.623	6.27017
470.384	7.32484
472.144	7.91715
473.906	7.50148
475.666	8.01867
477.425	7.55161
479.184	8.18303
480.944	8.23841
482.703	6.7428
484.461	6.8649
486.218	7.38369
487.975	6.2268
489.734	6.96509
491.491	5.69406
493.247	7.57144
495.003	8.63062
496.759	9.48599
498.516	11.1824
500.271	12.8068
502.025	15.0384
503.779	15.589
505.533	17.0081
507.287	18.5913
509.042	20.1505
510.795	21.3077
512.547	22.3969
514.299	24.5101
516.051	24.9494
517.803	25.7848
519.554	26.6298
521.305	27.9083
523.055	26.8708
524.805	27.3694
526.555	26.7974
528.307	27.0055
530.056	27.0479
531.805	25.9347
533.553	26.3652
535.301	26.0126
537.049	25.4421
538.797	25.1832
540.544	25.0613
542.291	25.7763
544.037	25.4299
545.783	24.8633
547.529	23.8888
549.275	24.6866
551.02	24.3483
552.765	23.596
554.509	22.901
556.253	22.042
557.997	20.547
559.738	18.8702
561.482	18.0423
563.224	17.5681
564.967	15.6714
566.709	14.9152
568.451	13.0604
570.192	12.3828
571.933	11.2454
573.674	10.9641
575.415	9.45557
577.153	10.3351
578.893	10.2954
580.632	10.7836
582.371	10.1749
584.11	9.24218
585.849	9.95232
587.587	9.8588
589.323	9.66628
591.06	8.62639
592.797	9.2613
594.534	9.72709
596.271	10.354
598.005	9.51875
599.741	9.41574
601.476	9.58115
603.211	9.15804
604.944	8.60431
606.679	8.18672
608.413	7.65642
610.147	6.35601
611.878	7.50579
613.611	7.3881
615.344	7.5678
617.077	6.42836
618.807	5.96007
620.539	7.16345
622.27	7.59456
623.999	8.28041
625.73	9.3174
627.461	10.8169
629.189	12.392
630.919	12.158
632.648	12.787
634.376	13.7608
636.105	13.9437
637.833	14.3003
639.559	14.2112
641.287	14.9041
643.013	14.249
644.74	16.4268
646.467	17.8831
648.192	18.9062
649.918	19.0052
651.642	18.3431
653.368	19.509
655.091	19.7876
656.816	20.165
658.538	20.8569
660.263	22.5882
661.987	22.7048
663.708	24.2241
665.432	24.9474
667.153	25.467
668.875	25.6669
670.596	25.6885
672.318	25.8651
674.037	25.3233
675.759	26.175
677.478	26.2251
679.196	26.8772
680.917	27.4587
682.635	27.5755
684.355	27.1608
686.072	27.0645
687.791	27.146
689.508	27.0525
691.224	25.7931
692.942	25.8127
694.658	26.1759
696.376	25.9589
698.091	26.1526
699.805	25.0611
701.522	24.413
703.236	22.9686
704.95	23.6848
706.665	24.5109
708.379	24.426
710.093	24.6833
711.806	25.8487
713.518	26.6964
715.23	25.4161
716.943	25.3566
718.655	25.5401
720.366	25.8866
722.078	25.5567
723.788	27.1398
725.498	26.9988
727.208	28.0113
728.919	28.5887
730.628	29.9614
732.337	29.2864
734.045	30.1316
735.755	31.3403
737.463	32.6962
739.17	33.2178
740.877	34.6137
742.584	36.7536
744.292	38.654
745.998	39.6016
747.704	41.0157
749.409	43.1284
751.114	44.7449
752.819	45.7948
754.526	47.0246
756.23	48.9071
757.934	50.3052
759.637	52.9998
761.34	55.1409
763.043	56.8899
764.746	58.505
766.448	60.4955
768.152	61.3252
769.853	62.8384
771.554	63.5705
773.255	65.6028
774.956	65.5101
776.656	65.6712
778.356	67.4643
780.056	67.3042
781.755	67.4641
783.454	67.8502
785.153	67.7956
786.851	68.4193
788.549	68.5142
790.247	69.2137
791.944	69.6848
793.641	70.134
795.338	70.3124
797.034	70.0943
798.73	69.4552
800.426	67.9418
802.121	68.5739
803.817	68.2878
805.511	68.8015
807.206	69.2926
808.9	69.9045
810.592	69.5933
812.286	69.5343
813.979	69.2135
815.672	69.1439
817.364	69.9383
819.057	70.0135
820.748	69.4527
822.44	69.1069
824.129	68.5218
825.82	69.0944
827.511	68.5722
829.201	67.909
830.891	67.1853
832.581	67.9921
834.269	68.055
835.958	67.3375
837.646	68.1404
839.335	66.7737
841.023	66.4469
842.709	65.8425
844.396	65.3078
846.084	63.6925
847.77	62.4135
849.455	61.1786
851.141	60.1248
852.827	58.8092
854.513	58.7665
856.196	58.1135
857.881	56.8466
859.566	54.7193
861.248	53.6728
862.932	53.0991
864.616	51.2106
866.297	50.0408
867.98	49.2207
869.663	49.5182
871.343	48.9741
873.026	48.5891
874.707	47.547
876.387	46.7035
878.068	46.1317
879.747	45.3771
881.428	44.7309
883.108	43.9463
884.786	43.888
886.465	44.23
888.143	44.4825
889.822	45.5303
891.498	45.0579
893.177	45.197
894.855	45.7182
896.53	45.3204
898.208	45.5336
899.883	46.0448
901.56	46.3936
903.234	46.4978
904.91	47.1254
906.584	47.4271
908.26	47.1496
909.933	46.7948
911.608	45.5765
913.28	46.0921
914.955	46.2998
916.627	46.2216
918.298	45.5436
919.972	45.5126
921.643	45.4253
923.315	44.4258
924.986	45.1735
926.656	45.1744
928.328	45.3132
929.997	45.4271
931.668	45.9823
933.337	45.7697
935.006	44.4692
936.676	44.6207
938.344	44.5137
940.012	43.1686
941.681	41.454
943.348	40.5435
945.014	39.8386
946.683	40.1353
948.349	38.9766
950.015	38.2302
951.682	38.5347
953.347	37.9752
955.012	35.8097
956.676	34.5434
958.343	32.5757
960.006	30.5163
961.67	30.9478
963.333	30.5939
964.998	31.0403
966.661	31.9972
968.323	32.3164
969.985	32.9229
971.649	35.0783
973.31	36.2741
974.971	36.1571
976.632	37.7002
978.293	37.6942
979.953	37.2974
981.615	38.5969
983.274	39.462
984.933	39.6786
986.592	39.7815
988.251	39.7341
989.909	39.6537
991.567	39.3414
993.225	38.962
994.884	39.734
996.541	41.6905
998.198	41.0698
999.855	40.8584
1001.51	41.2919
1003.17	42.1083
1004.82	41.4411
1006.48	41.4897
1008.13	41.3835
1009.79	41.3553
1011.44	41.1206
1013.1	40.2371
1014.75	40.0695
1016.4	39.3226
1018.06	40.3291
1019.71	42.4692
1021.36	44.1863
1023.01	46.0773
1024.66	48.3618
1026.32	50.397
1027.97	51.8903
1029.62	53.5153
1031.27	54.7754
1032.92	55.6409
1034.57	56.6313
1036.22	56.2626
1037.87	56.8011
1039.52	57.7857
1041.16	58.6967
1042.81	59.444
1044.46	61.6308
1046.11	62.3577
1047.76	64.3134
1049.4	64.7412
1051.05	64.891
1052.7	64.7296
1054.34	64.8175
1055.99	63.1102
1057.63	62.6479
1059.28	62.2727
1060.92	61.1778
1062.57	60.9027
1064.21	60.359
1065.85	58.4755
1067.5	57.358
1069.14	56.5017
1070.78	55.7447
1072.43	53.3146
1074.07	51.4665
1075.71	49.1411
1077.35	46.4245
1078.99	43.4391
1080.63	39.0417
1082.27	35.8148
1083.91	33.3947
1085.55	30.8434
1087.19	28.745
1088.83	27.3562
1090.47	26.6192
1092.11	25.4553
1093.75	25.3781
1095.39	24.9563
1097.03	25.142
1098.66	24.7725
1100.3	25.3271
1101.94	25.7084
1103.57	25.0928
1105.21	24.2162
1106.84	23.6075
1108.48	22.9437
1110.11	22.0663
1111.75	21.6997
1113.38	20.4128
1115.02	18.8667
1116.65	17.4138
1118.29	16.1191
1119.92	16.258
1121.55	15.625
1123.19	14.3814
1124.82	12.6198
1126.45	12.7398
1128.08	12.558
1129.71	12.0826
1131.34	11.0804
1132.97	10.1848
1134.6	9.10384
1136.23	8.79123
1137.86	8.10803
1139.49	7.33304
1141.12	6.99495
1142.75	8.04824
1144.38	8.17918
1146.01	8.04081
1147.64	8.88013
1149.26	9.11827
1150.89	9.43143
1152.52	10.001
1154.15	9.68932
1155.77	10.6963
1157.4	10.3878
1159.02	9.68835
1160.65	10.0317
1162.27	10.1086
1163.9	11.7858
1165.52	12.7266
1167.15	12.7437
1168.77	13.5946
1170.39	14.5043
1172.02	15.8804
1173.64	16.6406
1175.26	17.3855
1176.89	17.2491
1178.51	17.7664
1180.13	17.2787
1181.75	17.4224
1183.37	17.6497
1184.99	18.0672
1186.61	19.01
1188.23	20.1173
1189.85	20.227
1191.47	20.565
1193.09	21.3022
1194.71	21.9976
1196.33	21.761
1197.94	22.0612
1199.56	23.6887
1201.18	24.4221
1202.8	25.2584
1204.41	25.6817
1206.03	25.9203
1207.65	28.1456
1209.26	28.1159
1210.88	28.9468
1212.49	30.3501
1214.11	30.177
1215.72	31.4057
1217.34	32.2538
1218.95	34.638
1220.57	36.6942
1222.18	39.2316
1223.79	42.2153
1225.41	43.4808
1227.02	45.6416
1228.63	47.2701
1230.24	48.0516
1231.85	49.6516
1233.47	51.4723
1235.08	51.4494
1236.69	52.3174
1238.3	52.4327
1239.91	53.8809
1241.52	54.79
1243.13	55.9179
1244.74	55.8188
1246.34	56.0703
1247.95	55.9711
1249.56	56.9171
1251.17	57.0115
1252.78	56.5159
1254.38	56.4745
1255.99	56.1517
1257.6	55.194
1259.2	54.7563
1260.81	54.5445
1262.42	54.7275
1264.02	54.9547
1265.63	54.9116
1267.23	54.9358
1268.84	55.4949
1270.44	55.9503
1272.04	57.4317
1273.65	57.2448
1275.25	57.4065
1276.85	58.0642
1278.46	59.2712
1280.06	59.8687
1281.66	61.0903
1283.26	62.0296
1284.86	62.7899
1286.46	63.0466
1288.07	63.8912
1289.67	64.4326
1291.27	66.4067
1292.87	66.6032
1294.47	66.8167
1296.06	68.4369
1297.66	69.9994
1299.26	70.9079
1300.86	72.3135
1302.46	72.3671
1304.06	73.2321
1305.65	74.6076
1307.25	75.6559
1308.85	75.8889
1310.44	76.9677
1312.04	78.3624
1313.64	78.9899
1315.23	78.779
1316.83	78.6013
1318.42	78.4515
1320.02	78.4681
1321.61	77.7069
1323.2	77.7929
1324.8	76.6947
1326.39	76.138
1327.99	74.7389
1329.58	73.8347
1331.17	73.052
1332.76	73.093
1334.36	73.0776
1335.95	72.8157
1337.54	71.512
1339.13	71.9524
1340.72	72.217
1342.31	71.5495
1343.9	71.0435
1345.49	69.8504
1347.08	69.8182
1348.67	69.396
1350.26	69.4329
1351.85	69.053
1353.43	67.3198
1355.02	68.3634
1356.61	67.9314
1358.2	67.0815
1359.78	66.8958
1361.37	67.3591
1362.96	65.6403
1364.54	65.3949
1366.13	64.4715
1367.71	64.7125
1369.3	64.4171
1370.88	63.6053
1372.47	62.7364
1374.05	62.9478
1375.64	62.2421
1377.22	62.4127
1378.8	61.0342
1380.39	61.7945
1381.97	60.458
1383.55	61.1176
1385.13	61.8346
1386.72	60.4966
1388.3	60.1508
1389.88	59.1066
1391.46	57.9759
1393.04	56.6531
1394.62	55.6744
1396.2	54.1649
1397.78	53.5244
1399.36	52.2322
1400.94	51.8067
1402.52	50.7898
1404.1	49.9784
1405.68	49.5582
1407.25	49.2845
1408.83	50.2563
1410.41	51.9432
1411.98	53.9291
1413.56	54.4855
1415.14	54.9406
1416.71	56.1858
1418.29	58.6112
1419.87	60.4805
1421.44	62.6904
1423.02	63.9065
1424.59	66.3699
1426.16	69.7239
1427.74	73.6468
1429.31	77.2133
1430.89	80.2661
1432.46	83.23
1434.03	87.2578
1435.6	90.1217
1437.18	94.3025
1438.75	96.6981
1440.32	99.9781
1441.89	101.644
1443.46	104.055
1445.03	105.772
1446.6	107.38
1448.17	108.52
1449.74	109.787
1451.31	110.323
1452.88	109.528
1454.45	108.551
1456.02	108.423
1457.59	106.987
1459.16	106.746
1460.72	104.065
1462.29	102.257
1463.86	99.543
1465.43	96.3068
1466.99	94.1632
1468.56	90.6468
1470.13	87.2668
1471.69	83.0901
1473.26	79.1773
1474.82	74.497
1476.38	70.8433
1477.95	67.3274
1479.51	64.4727
1481.08	61.3199
1482.64	58.4053
1484.2	55.2151
1485.77	52.022
1487.33	49.7937
1488.89	47.208
1490.46	44.9883
1492.02	40.6588
1493.58	37.9904
1495.14	36.8405
1496.7	34.7639
1498.26	33.1474
1499.82	31.5
1501.38	29.436
1502.94	29.228
1504.5	28.8206
1506.06	28.8537
1507.62	28.3725
1509.18	27.6879
1510.73	27.5649
1512.29	28.2742
1513.85	28.0376
1515.41	27.5773
1516.96	26.6464
1518.52	27.1221
1520.08	27.5434
1521.63	27.9822
1523.19	28.8618
1524.75	29.9381
1526.3	30.9836
1527.85	31.2433
1529.41	31.1973
1530.96	30.8994
1532.52	31.7628
1534.07	33.0311
1535.62	34.0602
1537.18	35.0875
1538.73	34.7692
1540.28	35.9753
1541.84	37.0886
1543.39	38.9629
1544.94	40.3743
1546.49	40.7626
1548.04	40.5457
1549.59	41.8978
1551.14	42.8573
1552.69	44.2953
1554.25	45.7235
1555.79	46.8233
1557.34	46.9339
1558.89	47.0783
1560.44	48.0014
1561.99	47.9338
1563.54	48.2888
1565.08	50.0266
1566.63	50.3061
1568.18	50.6814
1569.73	50.3778
1571.27	51.1689
1572.82	51.7105
1574.37	51.8957
1575.91	52.6801
1577.46	52.8662
1579	54.2617
1580.55	55.0653
1582.09	56.1345
1583.64	56.9554
1585.18	57.3564
1586.73	57.6723
1588.27	58.3754
1589.81	58.3895
1591.35	58.1661
1592.9	59.2426
1594.44	59.8998
1595.98	60.5601
1597.52	61.6071
1599.06	61.7608
1600.61	62.1268
1602.15	63.017
1603.69	61.9776
1605.23	61.4136
1606.77	61.1855
1608.31	60.6438
1609.85	60.9861
1611.39	60.9199
1612.93	59.9577
1614.46	59.0622
1616	58.7098
1617.54	59.8285
1619.08	59.9016
1620.61	59.2076
1622.15	58.5273
1623.69	59.0637
1625.23	59.4978
1626.76	60.2254
1628.3	60.6481
1629.83	61.5726
1631.37	61.3342
1632.9	61.8012
1634.44	61.4239
1635.97	62.5969
1637.51	63.7164
1639.04	63.7666
1640.57	65.557
1642.11	66.1577
1643.64	66.334
1645.17	67.0985
1646.71	67.0868
1648.24	67.8998
1649.77	68.8073
1651.3	68.8844
1652.83	69.955
1654.36	70.5202
1655.89	72.0057
1657.42	71.31
1658.96	71.0047
1660.48	71.0171
1662.01	70.4681
1663.54	69.6233
1665.07	67.9693
1666.6	67.2006
1668.13	66.8016
1669.66	65.6854
1671.19	64.5881
1672.71	63.1562
1674.24	61.8584
1675.77	59.8942
1677.29	57.8658
1678.82	55.2657
1680.35	52.6714
1681.87	49.8135
1683.4	47.2197
1684.92	43.5201
1686.45	41.4687
1687.97	38.403
1689.5	35.6818
1691.02	33.6095
1692.54	30.8419
1694.07	28.9138
1695.59	26.4174
1697.11	24.5657
1698.64	23.3673
1700.16	22.0942
1701.68	19.935
1703.2	18.9325
1704.72	17.0878
1706.25	16.1526
1707.77	15.0364
1709.29	13.8558
1710.81	12.1482
1712.33	11.5981
1713.85	10.7309
1715.37	9.917
1716.89	9.53622
1718.41	8.17715
1719.92	8.01904
1721.44	7.3838
1722.96	7.60155
1724.48	7.7371
1725.99	6.89356
1727.51	6.71193
1729.03	7.26513
1730.55	6.72681
1732.06	6.44013
1733.58	5.1071
1735.09	4.90641
1736.61	4.64077
1738.13	3.71995
1739.64	3.01083
1741.15	2.23053
1742.67	2.31273
1744.18	2.95173
1745.7	2.92426
1747.21	2.97571
1748.72	2.26461
1750.24	2.16478
1751.75	1.9164
1753.26	1.94392
1754.77	1.42201
1756.29	1.51782
1757.8	0.719785
1759.31	0.661482
1760.82	-0.076877
1762.33	0.481481
1763.84	0.0402698
1765.35	0.130878
1766.86	0.632766
1768.37	0.634477
1769.88	1.84514
1771.39	2.15671
1772.9	2.29592
1774.4	2.54676
1775.91	2.89656
1777.42	3.24617
1778.93	3.38315
1780.44	2.94018
1781.94	4.52439
1783.45	3.81984
1784.96	3.01178
1786.46	2.34853
1787.97	3.01957
1789.47	3.21091
1790.98	3.13923
1792.48	3.50746
1793.99	3.29322
1795.49	3.51024
1797	3.75536
1798.5	4.09801
1800.01	4.29063
1801.51	4.51807
1803.01	4.24484
1804.51	2.923
1806.02	2.4701
1807.52	2.60745
1809.02	2.42211
1810.52	2.65582
1812.02	2.16005
1813.52	2.5427
1815.02	2.02175
1816.53	1.9461
1818.03	2.36674
1819.52	3.19902
1821.02	2.9917
1822.52	2.59259
1824.02	2.74535
1825.52	3.42565
1827.02	3.96883
1828.52	4.01126
1830.02	4.11588
1831.51	4.1116
1833.01	3.70981
1834.51	3.22917
1836.01	3.53789
1837.5	3.68331
1839	3.59734
1840.49	3.79573
1841.99	3.85781
1843.49	3.03461
1844.98	3.24511
1846.48	3.54016
1847.97	4.01135
1849.47	3.62124
1850.96	3.37824
1852.45	2.90077
1853.95	2.57692
1855.44	3.88115
1856.93	3.3587
1858.42	2.57745
1859.92	2.78261
1861.41	3.54542
1862.9	4.10949
1864.39	4.58275
1865.88	4.38355
1867.38	4.91761
1868.87	5.4601
1870.36	6.68074
1871.85	7.05905
1873.34	7.32594
1874.83	6.72589
1876.32	6.76142
1877.81	5.9101
1879.29	6.66496
1880.78	7.499
1882.27	7.82798
1882.53	7.31384
1884.03	7.3394
1885.52	7.38712
1887.01	7.36506
1888.51	7.05967
1890	6.88298
1891.5	7.12514
1892.99	7.18019
1894.48	6.98584
1895.97	6.40963
1897.47	6.84028
1898.96	6.442
1900.45	5.41621
1901.94	5.10616
1903.43	4.55481
1904.92	4.02696
1906.41	2.9713
1907.9	3.55307
1909.39	3.7139
1910.88	3.89515
1912.37	3.64014
1913.86	3.44048
1915.35	2.95031
1916.84	2.5851
1918.33	2.64699
1919.81	3.11301
1921.3	2.84878
1922.79	2.14231
1924.28	2.35776
1925.76	3.08435
1927.25	3.24694
1928.73	3.10423
1930.22	2.20084
1931.71	2.99107
1933.19	3.3864
1934.68	3.71283
1936.16	3.50923
1937.65	4.26902
1939.13	4.38268
1940.62	4.86321
1942.1	5.75956
1943.58	5.70294
1945.07	5.42003
1946.55	5.94189
1948.03	5.78529
1949.51	6.46444
1951	5.48142
1952.48	6.11644
1953.96	5.28118
1955.44	5.40661
1956.92	5.29165
1958.4	5.79032
1959.88	5.70934
1961.36	4.99322
1962.84	5.06597
1964.32	5.01189
1965.8	5.12098
1967.28	4.70226
1968.76	4.35799
1970.24	4.34394
1971.72	4.67285
1973.2	4.07234
1974.67	4.81298
1976.15	5.03049
1977.63	5.27391
1979.1	5.63739
1980.58	5.86375
1982.06	6.27601
1983.54	5.69252
1985.01	5.91538
1986.49	5.56943
1987.96	5.54105
1989.44	5.02383
1990.91	4.76789
1992.39	4.13237
1993.86	4.55816
1995.33	3.26418
1996.81	3.16421
1998.28	3.11549
1999.75	3.59055
2001.23	3.20983
2002.7	3.10426
2004.17	3.31449
2005.65	2.99444
2007.12	3.47886
2008.59	3.38341
2010.06	3.22843
2011.53	3.48972
2013	3.71405
2014.47	3.59708
2015.94	3.53841
2017.41	3.25224
2018.88	3.38682
2020.35	2.8189
2021.82	2.12776
2023.29	2.0612
2024.76	1.6587
2026.23	1.76992
2027.69	1.82249
2029.16	2.7827
2030.63	2.35527
2032.1	2.5834
2033.56	2.62981
2035.03	3.25759
2036.5	4.36914
2037.96	4.78949
2039.43	4.37086
2040.89	5.11707
2042.36	5.74744
2043.83	5.72955
2045.29	5.97527
2046.75	5.56035
2048.22	6.70754
2049.68	6.40638
2051.15	7.59373
2052.61	7.37251
2054.07	7.24576
2055.54	7.64352
2057	7.60221
2058.46	8.30795
2059.92	7.77175
2061.39	7.52186
2062.85	7.4006
2064.31	7.78335
2065.77	7.39134
2067.23	7.74132
2068.69	7.4264
2070.15	7.9313
2071.61	8.32924
2073.07	8.47145
2074.53	8.53875
2075.99	8.78755
2077.45	8.80844
2078.91	9.21926
2080.37	9.67354
2081.82	9.03874
2083.28	9.32678
2084.74	9.13797
2086.2	9.32704
2087.65	9.30324
2089.11	8.64214
2090.57	8.46299
2092.02	7.51651
2093.48	7.62047
2094.94	7.92364
2096.39	7.88234
2097.85	8.01427
2099.3	8.51485
2100.76	9.03025
2102.21	9.17206
2103.66	8.86614
2105.12	8.67493
2106.57	8.51046
2108.03	8.87354
2109.48	8.61378
2110.93	7.88184
2112.38	7.78799
2113.84	8.02037
2115.29	7.28526
2116.74	6.52547
2118.19	6.5063
2119.64	6.84218
2121.09	7.49076
2122.54	7.31595
2123.99	7.69487
2125.45	6.87252
2126.89	7.19382
2128.34	8.06193
2129.79	7.54757
2131.24	7.5894
2132.69	7.45154
2134.14	7.86917
2135.59	7.75108
2137.04	8.01494
2138.48	7.84134
2139.93	8.41745
2141.38	8.14753
2142.83	8.20786
2144.27	8.63558
2145.72	8.7602
2147.17	8.48895
2148.61	7.78374
2150.06	7.57149
2151.5	8.13132
2152.95	7.76477
2154.39	7.51568
2155.84	7.49313
2157.28	7.25806
2158.73	7.76538
2160.17	7.63886
2161.61	7.10629
2163.06	7.46745
2164.5	7.86406
2165.94	8.72704
2167.38	9.40585
2168.83	9.75581
2170.27	10.2528
2171.71	10.2307
2173.15	10.243
2174.59	10.1446
2176.03	9.61039
2177.47	8.64252
2178.91	9.32699
2180.36	10.4894
2181.8	10.6832
2183.23	10.281
2184.67	11.261
2186.11	10.8636
2187.55	10.4039
2188.99	10.332
2190.43	9.94334
2191.87	10.2567
2193.3	9.92756
2194.74	10.419
2196.18	9.67279
2197.62	9.22188
2199.05	10.0011
2200.49	10.3014
2201.93	10.7076
2203.36	9.95843
2204.8	9.82386
2206.23	9.40929
2207.67	8.64897
2209.1	8.44597
2210.54	7.58323
2211.97	7.40354
2213.41	6.69148
2214.84	6.51102
2216.27	6.29995
2217.71	5.47482
2219.14	5.01659
2220.57	5.44352
2222.01	5.98411
2223.44	5.26992
2224.87	4.30515
2226.3	3.54161
2227.73	4.12571
2229.16	4.77881
2230.6	5.01695
2232.03	4.69737
2233.46	5.50255
2234.89	5.72302
2236.32	6.07193
2237.75	6.57098
2239.18	7.04012
2240.61	6.2936
2242.03	5.78507
2243.46	5.55533
2244.89	5.69173
2246.32	5.9626
2247.75	6.04527
2249.17	6.60987
2250.6	8.05998
2252.03	8.06406
2253.46	8.08288
2254.88	8.10355
2256.31	8.73629
2257.73	7.63234
2259.16	7.68394
2260.59	8.34364
2262.01	8.17793
2263.44	9.26834
2264.86	10.2607
2266.29	10.945
2267.71	10.8018
2269.14	12.3465
2270.56	13.5105
2271.98	13.5239
2273.4	13.9974
2274.83	12.0292
2276.25	11.9139
2277.67	11.9078
2279.09	11.9438
2280.52	12.0627
2281.94	11.6658
2283.36	12.2503
2284.78	11.6374
2286.2	11.1256
2287.62	11.3246
2289.04	11.3496
2290.46	11.0559
2291.88	10.7814
2293.3	11.1234
2294.72	11.2709
2296.14	12.0906
2297.56	12.0994
2298.98	13.0862
2300.4	13.3561
2301.82	12.6544
2303.23	12.4801
2304.65	12.3122
2306.07	11.2422
2307.49	11.0671
2308.9	10.6857
2310.32	10.1495
2311.73	9.52278
2313.15	9.77231
2314.57	9.43328
2315.98	9.00675
2317.4	8.86449
2318.81	8.56696
2320.23	8.55048
2321.64	8.17009
2323.06	7.79279
2324.47	8.31964
2325.88	8.29289
2327.3	8.01336
2328.71	7.62503
2330.12	8.06728
2331.54	8.29589
2332.95	7.92587
2334.36	8.1066
2335.77	7.76264
2337.18	7.25361
2338.6	6.51751
2340.01	6.53501
2341.42	5.93083
2342.83	4.14506
2344.24	3.47908
2345.65	2.42422
2347.06	2.7267
2348.47	2.81119
2349.88	2.81484
2351.29	2.43699
2352.7	2.46529
2354.1	2.55861
2355.51	2.14444
2356.92	2.29893
2358.33	2.98745
2359.74	3.12434
2361.14	3.25054
2362.55	4.33791
2363.96	5.30595
2365.36	5.63618
2366.77	5.47338
2368.18	5.13612
2369.58	5.74899
2370.99	5.84953
2372.39	5.67029
2373.8	6.22549
2375.2	6.40145
2376.61	6.85736
2378.01	7.23782
2379.42	7.24466
2380.82	7.26636
2382.22	6.92485
2383.63	6.33999
2385.03	5.37805
2386.43	5.27186
2387.84	5.80742
2389.24	5.68226
2390.64	5.82878
2392.04	5.76033
2393.44	6.54094
2394.84	6.72245
2396.25	6.27247
2397.65	5.64286
2399.05	5.24301
2400.45	5.62075
2401.85	5.54394
2403.25	4.70997
2404.65	4.1287
2406.05	3.91697
2407.45	3.88496
2408.84	3.43094
2410.24	3.96155
2411.64	4.18271
2413.04	4.50579
2414.44	4.66805
2415.83	4.50312
2417.23	4.54272
2418.63	4.5948
2420.02	4.00105
2421.42	3.67467
2422.82	3.53371
2424.21	3.32621
2425.61	4.21237
2427	5.01928
2428.4	4.70251
2429.8	4.65061
2431.19	4.51092
2432.58	4.50677
2433.98	4.18179
2435.37	3.8019
2436.77	3.85896
2438.16	3.65256
2439.55	3.89687
2440.95	3.72712
2442.34	3.70074
2443.73	3.20022
2445.12	2.63944
2446.51	2.25973
2447.91	1.51925
2449.3	0.522712
2450.69	-0.483765
2452.08	-1.01696
2453.47	-1.04535
2454.86	-0.970123
2456.25	-0.49793
2457.64	-0.0949994
2459.03	-0.357801
2460.42	-0.0527918
2461.81	0.127228
2463.2	0.708148
2464.59	0.323663
2465.98	0.0769681
2467.36	0.180565
2468.75	0.432222
2470.14	0.786769
2471.53	0.580972
2472.92	0.609982
2474.3	0.719706
2475.69	1.12468
2477.08	1.57286
2478.46	1.33408
2479.85	2.03196
2481.23	2.0932
2482.62	2.20947
2484	1.67166
2485.39	2.63591
2486.77	3.13097
2488.16	2.85198
2489.54	2.81041
2490.93	3.24073
2492.31	3.40083
2493.69	3.28224
2495.08	4.116
2496.46	3.46379
2497.84	2.5863
2499.23	2.8879
2500.61	3.1087
2501.99	3.10692
2503.37	2.83397
2504.75	3.6449
2506.13	3.76961
2507.52	2.97293
2508.9	3.31024
2510.28	3.61112
2511.66	3.51218
2513.04	3.03979
2514.42	3.60309
2515.8	3.86234
2517.18	3.88904
2518.55	3.85028
2519.93	4.43344
2521.31	4.98258
2522.69	5.45625
2524.07	5.60022
2525.45	5.73162
2526.82	5.60662
2528.2	6.0492
2529.58	6.41295
2530.95	6.37873
2532.33	6.52391
2533.71	6.33372
2535.08	6.9985
2536.46	7.33697
2537.84	7.59902
2539.21	8.03839
2540.59	8.4824
2541.96	9.0148
2543.34	9.04388
2544.71	9.66278
2546.08	10.3858
2547.46	10.2602
2548.83	10.8291
2550.2	11.137
2551.58	11.1977
2552.95	11.108
2554.32	11.6538
2555.7	11.6395
2557.07	11.5984
2558.44	11.7764
2559.81	11.4771
2561.18	11.418
2562.55	11.2252
2563.93	11.6296
2565.3	11.0208
2566.67	10.4082
2568.04	10.1798
2569.41	10.249
2570.78	10.1949
2572.15	10.414
2573.51	10.6599
2574.88	10.2851
2576.25	10.8179
2577.62	11.5359
2578.99	11.6871
2580.36	11.1605
2581.73	11.1085
2583.09	11.9665
2584.46	11.6985
2585.83	11.5798
2587.19	11.0284
2588.56	10.9503
2589.93	10.5005
2591.29	10.1797
2592.66	9.7276
2594.02	9.64499
2595.39	8.90769
2596.75	9.26643
2598.12	8.59886
2599.48	8.16733
2600.85	8.71479
2602.21	8.94973
2603.58	9.26417
2604.94	8.81333
2606.3	8.77452
2607.67	9.26916
2609.03	9.17529
2610.39	9.32231
2611.76	9.1723
2613.12	8.95659
2614.48	9.17085
2615.84	8.91547
2617.2	8.80112
2618.56	8.7078
2619.92	9.05587
2621.28	8.98072
2622.65	8.83439
2624.01	8.77961
2625.37	8.816
2626.72	8.78132
2628.08	8.38357
2629.44	7.89012
2630.8	7.79828
2632.16	7.5196
2633.52	7.6141
2634.88	7.41346
2636.24	7.94653
2637.59	8.84435
2638.95	9.67277
2640.31	9.97569
2641.67	9.884
2643.02	9.97695
2644.38	9.85181
2645.74	9.44197
2647.09	9.4095
2648.45	10.0395
2649.8	10.3641
2651.16	10.4544
2652.51	9.76165
2653.87	10.1102
2655.22	9.46168
2656.58	9.35377
2657.93	8.67879
2659.29	8.58102
2660.64	8.50836
2661.99	8.14686
2663.35	8.15864
2664.7	8.30737
2666.05	7.62325
2667.41	7.39836
2668.76	7.35386
2670.11	7.07298
2671.46	6.73194
2672.81	6.40832
2674.16	6.57132
2675.51	6.51051
2676.87	6.4945
2678.22	6.61654
2679.57	6.41284
2680.92	6.71646
2682.27	6.95772
2683.62	7.10342
2684.97	6.32961
2686.31	6.2234
2687.66	5.86871
2689.01	5.26661
2690.36	5.41651
2691.71	5.63669
2693.06	5.27328
2694.4	5.53066
2695.75	5.31781
2697.1	6.0214
2698.45	6.5621
2699.79	6.24969
2701.14	6.52693
2702.49	6.50579
2703.83	6.58756
2705.18	6.85056
2706.52	7.2344
2707.87	8.3871
2709.21	8.49689
2710.56	8.84584
2711.9	9.13398
2713.25	9.79887
2714.59	9.98131
2715.94	10.6547
2717.28	10.784
2718.62	10.8206
2719.97	11.0662
2721.31	11.2593
2722.65	10.5399
2723.99	11.5663
2725.34	11.6201
2726.68	11.9685
2728.02	11.8698
2729.36	11.7907
2730.7	12.2771
2732.04	11.4599
2733.39	11.9588
2734.73	12.363
2736.07	12.2407
2737.41	12.4544
2738.75	12.4787
2740.08	12.5675
2741.43	12.4366
2742.76	12.353
2744.1	12.6161
2745.44	12.4769
2746.78	12.1727
2748.12	11.7416
2749.46	10.74
2750.79	10.5495
2752.13	10.1744
2753.47	10.0547
2754.81	10.0982
2756.14	9.94634
2757.48	9.81777
2758.81	9.9382
2760.15	9.7486
2761.49	10.28
2762.82	9.79346
2764.16	9.34638
2765.49	8.31364
2766.83	8.02279
2768.16	7.77767
2769.5	7.26211
2770.83	8.01242
2772.16	8.44817
2773.5	8.31706
2774.83	8.06981
2776.17	6.97598
2777.5	6.00535
2778.83	5.51928
2780.16	5.61473
2781.5	5.6455
2782.83	5.30303
2784.16	4.79769
2785.49	4.14787
2786.82	3.93286
2788.15	3.39534
2789.49	2.64413
2790.82	2.57086
2792.15	1.73262
2793.48	1.42493
2794.81	1.33885
2796.14	0.606319
2797.46	0.484981
2798.79	-0.238946
2800.12	0.468676
2801.45	0.0325093
2802.78	-0.350806
2804.11	-0.202267
2805.44	-0.570394
2806.76	-1.27208
2808.09	-2.07102
2809.42	-2.36178
2810.75	-2.57124
2812.07	-2.41831
2813.4	-1.73509
2814.73	-1.57214
2816.05	-0.830301
2817.38	-0.0433029
2818.7	1.17148
2820.03	1.73437
2821.36	2.92093
2822.68	4.03108
2824.01	6.02372
2825.33	8.03742
2826.65	9.3811
2827.98	11.2845
2829.3	12.9941
2830.63	15.0313
2831.95	17.3831
2833.27	19.8125
2834.6	22.136
2835.92	25.1339
2837.24	28.7491
2838.56	30.3855
2839.88	33.574
2841.21	37.2256
2842.53	40.4138
2843.85	44.2839
2845.17	48.6933
2846.49	53.0666
2847.81	58.0777
2849.13	61.7299
2850.45	66.3116
2851.77	70.7143
2853.09	75.0018
2854.41	79.6366
2855.73	83.6229
2857.05	89.0286
2858.37	93.2547
2859.69	97.5187
2861	101.724
2862.32	105.949
2863.64	110.683
2864.96	114.4
2866.28	118.406
2867.59	121.522
2868.91	124.284
2870.23	127.349
2871.54	129.905
2872.86	132.245
2874.17	135.01
2875.49	138.519
2876.81	141.4
2878.12	144.009
2879.44	145.753
2880.75	147.068
2882.07	148.806
2883.38	150.75
2884.69	153.586
2886.01	155.669
2887.32	157.327
2888.63	159.451
2889.95	161.34
2891.26	163.139
2892.57	164.694
2893.89	167.129
2895.2	169.349
2896.51	172.092
2897.82	174.117
2899.13	176.43
2900.44	178.929
2901.76	181.754
2903.07	184.148
2904.38	186.586
2905.69	190.592
2907	193.996
2908.31	198.227
2909.62	203.096
2910.93	206.948
2912.24	211.03
2913.55	215.369
2914.85	218.883
2916.16	223.169
2917.47	226.619
2918.78	230.395
2920.09	233.447
2921.4	236.44
2922.7	239.207
2924.01	239.959
2925.32	241.739
2926.62	243.232
2927.93	244.211
2929.24	244.018
2930.54	243.574
2931.85	243.038
2933.15	242.073
2934.46	240.694
2935.76	239.442
2937.07	236.98
2938.37	234.297
2939.68	231.458
2940.98	228.209
2942.29	224.299
2943.59	220.291
2944.89	216.148
2946.2	212.501
2947.5	208.556
2948.8	204.738
2950.11	200.552
2951.41	195.464
2952.71	190.251
2954.01	185.906
2955.32	180.788
2956.62	176.11
2957.92	171.701
2959.22	167.272
2960.52	162.629
2961.82	158.216
2963.12	152.586
2964.42	148.15
2965.72	143.778
2967.02	139.711
2968.32	135.541
2969.62	132.227
2970.92	129.093
2972.22	125.22
2973.51	121.674
2974.81	117.989
2976.11	114.321
2977.41	110.894
2978.71	107.419
2980	103.515
2981.3	99.3807
2982.6	95.3922
2983.9	91.9088
2985.19	88.4
2986.49	84.7199
2987.78	80.1838
2989.08	76.1772
2990.38	73.3022
2991.67	69.6165
2992.97	65.5508
2994.26	61.496
2995.56	58.1242
2996.85	54.5239
2998.14	51.6044
2999.44	48.1487
3000.73	44.9212
3002.03	41.0636
3003.32	37.4154
3004.61	34.1741
3005.91	32.0666
3007.2	29.236
3008.49	26.1792
3009.78	23.507
3011.07	21.6617
3012.37	19.7387
3013.66	17.3168
3014.95	14.7944
3016.24	13.1962
3017.53	11.5476
3018.82	9.88046
3020.11	8.55676
3021.4	7.51042
3022.69	7.09844
3023.98	5.38099
3025.27	4.02346
3026.56	2.7867
3027.85	1.66056
3029.14	0.988691
3030.43	0.269055
3031.71	-0.30381
3033	-0.152418
3034.29	-0.237168
3035.58	-0.356903
3036.87	-0.432822
3038.15	0.712875
3039.44	1.05926
3040.73	1.19411
3042.01	1.4472
3043.3	1.97359
3044.59	2.44055
3045.87	3.34051
3047.16	3.94605
3048.44	5.15482
3049.73	6.10669
3051.01	5.63112
3052.3	6.21649
3053.58	6.83799
3054.87	7.55509
3056.15	7.66066
3057.43	8.29347
3058.72	8.19304
3060	8.72042
3061.29	8.4452
3062.57	8.07101
3063.85	8.25441
3065.13	7.829
3066.42	7.45251
3067.7	8.12581
3068.98	7.8934
3070.26	7.95915
3071.54	7.07576
3072.82	7.44932
3074.11	7.33904
3075.39	6.56975
3076.67	6.30134
3077.95	5.31836
3079.23	4.73477
3080.51	4.31711
3081.79	3.54933
3083.07	3.55063
3084.35	3.08646
3085.63	3.08076
3086.9	3.07255
3088.18	2.42271
3089.46	2.73534
3090.74	2.72578
3092.02	2.65959
3093.29	3.0341
3094.57	3.45924
3095.85	4.09945
3097.13	5.15125
3098.4	5.26808
3099.68	5.69928
3100.95	6.03089
3102.23	5.9378
3103.51	6.09259
3104.78	7.08083
3106.06	7.64901
3107.33	8.27824
3108.61	8.87922
3109.88	9.4303
3111.16	10.2384
3112.43	11.5578
3113.71	12.1619
3114.98	12.7427
3116.25	14.2454
3117.53	15.3198
3118.8	15.9932
3120.07	16.3892
3121.35	17.0188
3122.62	17.2483
3123.89	18.4767
3125.16	18.9229
3126.44	20.0432
3127.71	21.5882
3128.98	21.4568
3130.25	22.5719
3131.52	23.1204
3132.79	23.0982
3134.06	24.4684
3135.33	25.2604
3136.6	25.8642
3137.87	25.8385
3139.14	26.5939
3140.41	28.0208
3141.68	28.5002
3142.95	29.3139
3144.22	30.1153
3145.49	30.4485
3146.76	30.4463
3148.02	30.807
3149.29	28.4352
