#Acq. time (s)=	45
#Accumulations=	2
#Range (cm-¹)=	200...3150
#Windows=	2
#Auto scanning=	Off
#Autofocus=	Off
#Macrospot=	Off
#AutoExposure=	Off
#Spike filter=	Multiple accum.
#Delay time (s)=	0
#Binning=	1
#Readout mode=	Signal
#DeNoise=	Off
#ICS correction=	On
#Dark correction=	Off
#Inst. Process=	Off
#Detector Gain=	Best Dynamic Range
#Detector ADC=	20 kHz       
#Detector temperature (°C)=	-69.85
#Instrument=	LabRAM HR Evol
#Detector=	Synapse
#Objective=	x100
#Grating=	600 gr/mm
#ND Filter=	100%
#Laser (nm)=	532 
#Hole=	100.021
#Range=	Auto
#Laser Pol.=	No
#Raman. Pol.=	No
#Laser Pol. (°)=	-0.0007625
#Raman Pol. (°)=	89.9995
#Collection=	Microscope
#StageXY=	Marzhauser
#StageZ=	Marzhauser
#X (µm)=	-1019.8
#Y (µm)=	-2895.7
#Z (µm)=	528.75
#Full time(mm:ss)=	3:18
#Project=	
#Sample=	
#Site=	
#Title=	Mb_00_13_37_2x_45s_532 nm_x100_100%_600 gr_mm
#Remark=	
#Date=	06.07.2022 12:43
#Acquired=	06.07.2022 12:43:36
#Base:Fit=	10.08.2022 10:16:56
#Base:Sub=	10.08.2022 10:17:24
#Filter:Polynom=	16.08.2022 10:36:38
#AxisType[0]=Intens
#AxisUnit[0]=Cnt
#AxisType[1]=Spectr
#AxisUnit[1]=1/cm
200.398	14.2835
202.213	9.02238
204.027	5.17124
205.843	1.53812
207.657	-2.68265
209.47	-6.41136
211.283	-8.59238
213.097	-8.70415
214.909	-6.67549
216.721	-5.02387
218.533	0.393903
220.344	7.35861
222.157	15.704
223.967	25.8956
225.777	36.0691
227.587	46.5773
229.396	58.5112
231.205	70.6094
233.016	82.9715
234.824	96.2581
236.632	107.74
238.439	117.242
240.247	126.226
242.053	135.528
243.86	143.324
245.666	150.631
247.474	161.056
249.279	168.813
251.085	176.051
252.889	184.398
254.694	191.201
256.498	197.478
258.301	203.037
260.105	205.606
261.908	207.73
263.71	208.597
265.513	208.356
267.315	208.209
269.116	206.781
270.918	204.782
272.718	201.729
274.519	198.697
276.319	193.302
278.119	187.767
279.918	179.633
281.718	170.028
283.516	160.47
285.315	150.27
287.113	141.11
288.911	131.802
290.708	121.867
292.505	112.475
294.302	103.692
296.098	96.0081
297.894	87.5583
299.69	80.8925
301.485	76.4726
303.278	71.567
305.073	66.2534
306.867	61.0865
308.661	58.7343
310.454	54.9436
312.247	52.6553
314.04	50.6875
315.833	48.5887
317.623	46.5678
319.415	45.584
321.206	44.81
322.997	42.774
324.788	42.372
326.579	40.1824
328.367	38.1825
330.156	37.5387
331.946	37.2564
333.735	36.5571
335.523	35.7487
337.31	34.4624
339.098	31.22
340.885	30.0716
342.673	28.8403
344.458	26.2724
346.244	23.8874
348.03	21.584
349.816	19.0582
351.6	16.6675
353.385	14.7832
355.17	11.2731
356.953	8.54048
358.737	7.26384
360.521	3.97356
362.304	2.33777
364.085	0.78994
365.868	-0.678476
367.65	-0.209824
369.431	-0.782724
371.212	1.22731
372.994	4.20253
374.773	7.78916
376.554	10.2221
378.332	13.2514
380.112	16.5945
381.892	22.7988
383.669	30.5157
385.448	37.4351
387.225	45.6557
389.003	56.8289
390.781	67.8516
392.557	76.963
394.334	86.7811
396.109	96.3496
397.885	105.803
399.66	113.683
401.436	121.564
403.211	128.254
404.984	133.832
406.759	138.126
408.532	144.048
410.306	148.65
412.078	150.989
413.851	154.64
415.623	155.878
417.395	155.632
419.166	156.451
420.938	155.125
422.708	153.038
424.477	149.488
426.248	144.976
428.017	139.507
429.788	134.305
431.556	127.308
433.326	120.531
435.093	113.306
436.86	105.471
438.629	96.3353
440.395	87.5529
442.163	79.2382
443.929	70.1892
445.694	62.5077
447.461	55.61
449.226	48.1228
450.99	41.6711
452.756	34.9218
454.52	29.2687
456.285	23.2762
458.048	18.0854
459.811	13.1733
461.573	8.58641
463.337	5.29451
465.099	2.91795
466.86	2.93348
468.623	4.11296
470.384	5.65904
472.144	7.53126
473.906	9.12971
475.666	12.6806
477.425	15.2907
479.184	17.4029
480.944	17.9888
482.703	18.1853
484.461	18.4899
486.218	20.1741
487.975	21.3156
489.734	22.1679
491.491	23.2937
493.247	24.6226
495.003	25.8957
496.759	27.7774
498.516	27.9569
500.271	28.5758
502.025	30.1353
503.779	30.6091
505.533	31.3617
507.287	32.4858
509.042	32.0178
510.795	33.5605
512.547	34.4025
514.299	35.4529
516.051	36.0611
517.803	36.3116
519.554	36.8777
521.305	39.0205
523.055	39.2902
524.805	40.3117
526.555	40.2018
528.307	41.5231
530.056	41.6348
531.805	41.4575
533.553	40.7389
535.301	40.5316
537.049	38.842
538.797	36.9279
540.544	36.208
542.291	34.5146
544.037	32.2568
545.783	31.8754
547.529	30.1124
549.275	28.8231
551.02	28.4196
552.765	27.0879
554.509	25.2426
556.253	22.9542
557.997	21.6865
559.738	20.774
561.482	19.4917
563.224	18.5529
564.967	16.5564
566.709	14.9505
568.451	12.5104
570.192	12.3448
571.933	12.0802
573.674	11.1932
575.415	9.72382
577.153	7.11568
578.893	6.73534
580.632	5.47561
582.371	4.87718
584.11	3.57632
585.849	2.92472
587.587	3.68701
589.323	2.55711
591.06	1.84605
592.797	2.85484
594.534	1.50064
596.271	1.53469
598.005	2.7903
599.741	3.72378
601.476	3.04625
603.211	2.55624
604.944	2.77581
606.679	3.4273
608.413	4.21305
610.147	3.42516
611.878	3.73748
613.611	3.14785
615.344	3.91281
617.077	3.77881
618.807	3.87392
620.539	4.03925
622.27	4.52621
623.999	4.9885
625.73	5.44188
627.461	7.10186
629.189	8.37941
630.919	10.8627
632.648	13.7888
634.376	15.4151
636.105	17.7804
637.833	21.0382
639.559	23.1822
641.287	26.5236
643.013	29.0412
644.74	32.2948
646.467	34.8413
648.192	36.4869
649.918	38.5676
651.642	40.5443
653.368	41.3273
655.091	41.2313
656.816	41.4193
658.538	40.8336
660.263	41.1503
661.987	40.6809
663.708	40.7303
665.432	40.4095
667.153	40.0249
668.875	40.1677
670.596	38.844
672.318	38.8813
674.037	37.5924
675.759	35.0542
677.478	33.928
679.196	33.0397
680.917	30.3554
682.635	28.8401
684.355	28.9109
686.072	26.8051
687.791	24.9717
689.508	22.9824
691.224	21.023
692.942	18.7957
694.658	16.6679
696.376	14.2636
698.091	11.6742
699.805	10.8493
701.522	9.67197
703.236	7.99801
704.95	6.9208
706.665	5.831
708.379	5.75857
710.093	5.47601
711.806	4.15948
713.518	5.27625
715.23	5.70118
716.943	7.11138
718.655	7.50788
720.366	7.27934
722.078	8.01751
723.788	8.43724
725.498	8.64873
727.208	9.84732
728.919	9.63888
730.628	10.7623
732.337	11.749
734.045	11.105
735.755	11.2986
737.463	11.3699
739.17	11.8039
740.877	13.7074
742.584	15.0779
744.292	17.2466
745.998	18.9667
747.704	21.572
749.409	24.6587
751.114	26.0116
752.819	29.6067
754.526	31.1465
756.23	32.0397
757.934	34.4026
759.637	35.3164
761.34	37.7245
763.043	40.9541
764.746	43.3349
766.448	44.3405
768.152	46.9086
769.853	50.3002
771.554	51.4438
773.255	53.0924
774.956	53.8341
776.656	57.1786
778.356	58.7906
780.056	60.3036
781.755	62.5424
783.454	62.4587
785.153	63.8384
786.851	65.0989
788.549	66.1396
790.247	66.4741
791.944	66.6834
793.641	67.1652
795.338	66.1588
797.034	65.9255
798.73	66.4907
800.426	65.8476
802.121	66.0176
803.817	65.2446
805.511	64.5505
807.206	64.9945
808.9	63.0468
810.592	61.9748
812.286	62.8575
813.979	62.2494
815.672	60.964
817.364	60.4855
819.057	58.766
820.748	59.1066
822.44	58.8223
824.129	59.1271
825.82	58.7728
827.511	57.9312
829.201	57.0384
830.891	56.856
832.581	56.5387
834.269	54.9106
835.958	53.0046
837.646	51.4697
839.335	48.9342
841.023	47.8492
842.709	45.7555
844.396	43.9994
846.084	42.4639
847.77	41.3718
849.455	39.0033
851.141	38.3698
852.827	37.7069
854.513	35.7872
856.196	34.3834
857.881	33.2696
859.566	33.677
861.248	32.9729
862.932	31.1189
864.616	29.3694
866.297	27.6625
867.98	25.8792
869.663	26.1278
871.343	25.7966
873.026	25.3436
874.707	25.4038
876.387	23.883
878.068	23.568
879.747	23.3518
881.428	22.4421
883.108	22.715
884.786	23.6053
886.465	24.6874
888.143	24.8335
889.822	25.0728
891.498	25.5551
893.177	25.7547
894.855	27.1196
896.53	28.6236
898.208	27.8495
899.883	28.8207
901.56	30.0303
903.234	31.1277
904.91	33.1527
906.584	34.6677
908.26	35.341
909.933	36.2748
911.608	36.5693
913.28	37.524
914.955	38.5219
916.627	38.4448
918.298	36.7738
919.972	36.5182
921.643	35.6889
923.315	36.1558
924.986	36.41
926.656	36.3211
928.328	37.8188
929.997	37.4436
931.668	36.8954
933.337	36.0523
935.006	35.0478
936.676	32.983
938.344	31.9417
940.012	31.5387
941.681	30.762
943.348	30.0962
945.014	29.985
946.683	30.3891
948.349	29.1158
950.015	29.0562
951.682	28.0455
953.347	27.3456
955.012	26.7475
956.676	26.4118
958.343	26.2532
960.006	25.6832
961.67	27.7022
963.333	29.5845
964.998	31.049
966.661	33.0017
968.323	35.3908
969.985	36.2155
971.649	36.9954
973.31	37.9266
974.971	38.7163
976.632	39.6036
978.293	40.4146
979.953	41.8772
981.615	43.8694
983.274	45.6334
984.933	46.2053
986.592	48.8636
988.251	50.4679
989.909	51.5438
991.567	51.6887
993.225	53.507
994.884	54.4208
996.541	55.89
998.198	55.7979
999.855	55.7118
1001.51	55.3666
1003.17	56.8197
1004.82	57.4784
1006.48	58.6881
1008.13	58.2846
1009.79	56.4309
1011.44	54.9035
1013.1	52.6541
1014.75	50.7265
1016.4	52.4203
1018.06	52.8232
1019.71	55.6367
1021.36	60.374
1023.01	66.0997
1024.66	75.0711
1026.32	83.3193
1027.97	92.2833
1029.62	100.632
1031.27	108.068
1032.92	116.867
1034.57	124.744
1036.22	133.893
1037.87	141.962
1039.52	149.909
1041.16	157.398
1042.81	163.183
1044.46	168.661
1046.11	172.697
1047.76	175.712
1049.4	177.866
1051.05	179.492
1052.7	180.257
1054.34	181.245
1055.99	181.102
1057.63	182.09
1059.28	181.873
1060.92	180.79
1062.57	179.618
1064.21	177.018
1065.85	172.839
1067.5	168.662
1069.14	163.26
1070.78	156.586
1072.43	149.529
1074.07	141.754
1075.71	134.969
1077.35	125.227
1078.99	116.079
1080.63	105.495
1082.27	94.7337
1083.91	84.3817
1085.55	75.2082
1087.19	65.7648
1088.83	55.6427
1090.47	47.5849
1092.11	39.2535
1093.75	32.6449
1095.39	25.7007
1097.03	21.8797
1098.66	19.5404
1100.3	16.058
1101.94	15.9261
1103.57	16.7746
1105.21	17.7187
1106.84	18.9851
1108.48	17.9891
1110.11	17.5673
1111.75	16.3604
1113.38	16.0649
1115.02	14.7225
1116.65	14.3277
1118.29	13.8223
1119.92	12.1765
1121.55	12.0909
1123.19	10.2195
1124.82	8.57538
1126.45	8.24449
1128.08	7.95382
1129.71	6.61014
1131.34	6.31447
1132.97	6.29184
1134.6	6.26109
1136.23	6.26895
1137.86	6.52848
1139.49	7.44068
1141.12	7.04275
1142.75	7.14999
1144.38	7.53005
1146.01	6.15474
1147.64	5.9394
1149.26	6.62389
1150.89	6.56495
1152.52	6.63778
1154.15	6.47585
1155.77	7.07275
1157.4	8.06773
1159.02	7.09365
1160.65	8.05801
1162.27	8.07132
1163.9	9.48183
1165.52	11.0825
1167.15	11.4496
1168.77	12.6793
1170.39	12.5469
1172.02	14.1943
1173.64	13.3694
1175.26	13.0228
1176.89	12.8668
1178.51	13.2755
1180.13	12.8398
1181.75	12.9226
1183.37	14.366
1184.99	16.2067
1186.61	15.6155
1188.23	16.0014
1189.85	17.2709
1191.47	17.9637
1193.09	19.2088
1194.71	21.3565
1196.33	22.0368
1197.94	23.8575
1199.56	24.4945
1201.18	24.685
1202.8	27.4439
1204.41	28.3629
1206.03	29.5062
1207.65	31.0791
1209.26	31.3711
1210.88	32.5087
1212.49	34.5841
1214.11	34.6749
1215.72	36.2591
1217.34	38.1258
1218.95	38.7044
1220.57	39.4204
1222.18	41.4949
1223.79	42.9304
1225.41	45.1813
1227.02	46.0657
1228.63	48.093
1230.24	49.2961
1231.85	49.0704
1233.47	48.8702
1235.08	49.9244
1236.69	50.8613
1238.3	51.3363
1239.91	50.7754
1241.52	50.9881
1243.13	51.3405
1244.74	49.4043
1246.34	47.9568
1247.95	46.6832
1249.56	48.0607
1251.17	45.453
1252.78	45.146
1254.38	42.5949
1255.99	42.2144
1257.6	41.0338
1259.2	40.6234
1260.81	40.1454
1262.42	40.1948
1264.02	39.9499
1265.63	40.2065
1267.23	39.8007
1268.84	41.1215
1270.44	41.186
1272.04	41.596
1273.65	41.4572
1275.25	42.2637
1276.85	43.4092
1278.46	43.0784
1280.06	44.4933
1281.66	45.951
1283.26	46.7927
1284.86	46.4544
1286.46	46.7332
1288.07	47.6406
1289.67	49.9132
1291.27	51.0867
1292.87	51.0884
1294.47	53.3596
1296.06	55.7284
1297.66	56.3042
1299.26	57.285
1300.86	59.6229
1302.46	61.4196
1304.06	61.5507
1305.65	61.5643
1307.25	61.6129
1308.85	62.301
1310.44	61.9429
1312.04	62.7692
1313.64	62.3813
1315.23	62.081
1316.83	62.9275
1318.42	63.1927
1320.02	62.2847
1321.61	62.4463
1323.2	60.9075
1324.8	58.5698
1326.39	60.0065
1327.99	59.1467
1329.58	57.9923
1331.17	55.6158
1332.76	55.6463
1334.36	54.4492
1335.95	53.8414
1337.54	53.9236
1339.13	53.2538
1340.72	53.2598
1342.31	51.8611
1343.9	51.5955
1345.49	52.5886
1347.08	51.918
1348.67	51.6503
1350.26	51.8744
1351.85	52.8972
1353.43	51.8072
1355.02	51.339
1356.61	50.2046
1358.2	50.2085
1359.78	51.9208
1361.37	51.8088
1362.96	51.4805
1364.54	52.3745
1366.13	53.2302
1367.71	54.1705
1369.3	54.4696
1370.88	54.5876
1372.47	56.7368
1374.05	58.0038
1375.64	57.4181
1377.22	58.0941
1378.8	59.4887
1380.39	60.5283
1381.97	60.4775
1383.55	60.8251
1385.13	62.2343
1386.72	63.6456
1388.3	63.3881
1389.88	64.4335
1391.46	65.9987
1393.04	65.3223
1394.62	66.2271
1396.2	67.5704
1397.78	68.425
1399.36	68.6853
1400.94	70.0737
1402.52	70.1739
1404.1	72.2352
1405.68	73.7984
1407.25	74.1149
1408.83	76.4012
1410.41	78.3155
1411.98	79.8839
1413.56	82.029
1415.14	84.3859
1416.71	87.3614
1418.29	89.0133
1419.87	92.1643
1421.44	93.4357
1423.02	97.0824
1424.59	100.586
1426.16	101.62
1427.74	104.411
1429.31	107.375
1430.89	109.236
1432.46	110.819
1434.03	114.295
1435.6	117.055
1437.18	119.94
1438.75	121.945
1440.32	122.538
1441.89	123.33
1443.46	124.922
1445.03	125.277
1446.6	125.619
1448.17	125.166
1449.74	125.941
1451.31	125.082
1452.88	124.188
1454.45	123.985
1456.02	123.148
1457.59	120.801
1459.16	118.092
1460.72	115.405
1462.29	112.304
1463.86	108.961
1465.43	104.873
1466.99	101.198
1468.56	98.3134
1470.13	94.7493
1471.69	91.2198
1473.26	88.6833
1474.82	85.5408
1476.38	82.9971
1477.95	78.4497
1479.51	75.3753
1481.08	71.6782
1482.64	69.3119
1484.2	66.1654
1485.77	63.3096
1487.33	61.0567
1488.89	57.2118
1490.46	54.5209
1492.02	52.8104
1493.58	49.542
1495.14	48.5159
1496.7	47.7919
1498.26	45.9016
1499.82	43.9974
1501.38	43.2146
1502.94	42.7758
1504.5	41.2197
1506.06	42.9789
1507.62	43.0938
1509.18	43.2629
1510.73	43.8358
1512.29	44.245
1513.85	43.5663
1515.41	43.9393
1516.96	44.903
1518.52	44.6338
1520.08	45.3046
1521.63	46.5358
1523.19	45.9621
1524.75	45.5172
1526.3	46.4166
1527.85	46.5538
1529.41	47.8677
1530.96	49.4739
1532.52	50.1396
1534.07	50.222
1535.62	51.4623
1537.18	53.2615
1538.73	54.1777
1540.28	54.7867
1541.84	55.5379
1543.39	56.884
1544.94	57.7763
1546.49	58.874
1548.04	60.3919
1549.59	61.4179
1551.14	61.716
1552.69	62.7979
1554.25	64.3456
1555.79	64.4727
1557.34	66.6496
1558.89	67.6228
1560.44	68.6136
1561.99	69.9241
1563.54	69.7596
1565.08	70.3571
1566.63	69.9577
1568.18	71.6312
1569.73	73.2215
1571.27	73.2994
1572.82	75.052
1574.37	75.0765
1575.91	75.2871
1577.46	76.0133
1579	77.3254
1580.55	79.14
1582.09	79.7953
1583.64	79.9689
1585.18	78.5796
1586.73	79.0369
1588.27	78.7719
1589.81	78.9232
1591.35	78.1049
1592.9	78.3538
1594.44	77.0655
1595.98	75.9337
1597.52	75.1323
1599.06	74.1513
1600.61	71.9611
1602.15	71.0552
1603.69	70.6279
1605.23	69.5128
1606.77	69.4899
1608.31	67.6132
1609.85	65.8648
1611.39	63.6115
1612.93	61.5705
1614.46	60.0817
1616	57.8862
1617.54	55.3002
1619.08	53.5021
1620.61	51.4407
1622.15	49.3061
1623.69	47.9362
1625.23	45.5257
1626.76	43.8626
1628.3	41.692
1629.83	40.2704
1631.37	38.6948
1632.9	36.8447
1634.44	36.2884
1635.97	34.0626
1637.51	33.2866
1639.04	31.6426
1640.57	30.4987
1642.11	30.0203
1643.64	29.4963
1645.17	28.9717
1646.71	28.5491
1648.24	26.8613
1649.77	25.8401
1651.3	25.3675
1652.83	24.3758
1654.36	24.2461
1655.89	23.4829
1657.42	22.4631
1658.96	21.5438
1660.48	20.7261
1662.01	20.6939
1663.54	21.1365
1665.07	20.965
1666.6	20.0292
1668.13	19.2497
1669.66	18.2097
1671.19	16.336
1672.71	16.1266
1674.24	15.2153
1675.77	15.062
1677.29	14.099
1678.82	13.9688
1680.35	13.1303
1681.87	12.5187
1683.4	11.8504
1684.92	10.9613
1686.45	10.6301
1687.97	9.44758
1689.5	8.81532
1691.02	9.47749
1692.54	8.87983
1694.07	7.69375
1695.59	7.23577
1697.11	7.3409
1698.64	6.90345
1700.16	6.22427
1701.68	5.12519
1703.2	5.56801
1704.72	4.85234
1706.25	4.3048
1707.77	4.28339
1709.29	4.16903
1710.81	3.12934
1712.33	2.79551
1713.85	3.08229
1715.37	2.76327
1716.89	2.90337
1718.41	2.12133
1719.92	1.97551
1721.44	2.04267
1722.96	2.94971
1724.48	2.0482
1725.99	2.4939
1727.51	2.96081
1729.03	2.57362
1730.55	3.11423
1732.06	3.01169
1733.58	3.34581
1735.09	4.25133
1736.61	4.70002
1738.13	4.22646
1739.64	4.77834
1741.15	4.88946
1742.67	4.53518
1744.18	4.46262
1745.7	3.29881
1747.21	3.48206
1748.72	3.528
1750.24	3.55946
1751.75	3.97491
1753.26	3.40144
1754.77	3.70638
1756.29	3.52973
1757.8	3.49397
1759.31	3.16961
1760.82	2.45459
1762.33	2.3882
1763.84	2.63957
1765.35	3.61146
1766.86	3.96022
1768.37	4.02301
1769.88	3.45555
1771.39	3.96075
1772.9	3.79596
1774.4	2.70312
1775.91	2.36294
1777.42	2.22299
1778.93	1.94389
1780.44	1.57089
1781.94	1.73893
1783.45	2.02781
1784.96	2.4547
1786.46	2.07314
1787.97	2.7613
1789.47	2.31095
1790.98	2.10255
1792.48	1.88684
1793.99	1.98175
1795.49	2.18196
1797	2.35036
1798.5	2.67909
1800.01	1.73472
1801.51	2.16998
1803.01	2.0752
1804.51	1.93623
1806.02	2.43839
1807.52	3.18287
1809.02	3.27098
1810.52	4.24292
1812.02	3.88668
1813.52	3.84969
1815.02	4.11764
1816.53	4.14106
1818.03	3.43798
1819.52	3.00935
1821.02	2.60824
1822.52	2.26346
1824.02	2.255
1825.52	2.34172
1827.02	3.26034
1828.52	3.12172
1830.02	3.83425
1831.51	3.56117
1833.01	3.73285
1834.51	3.55087
1836.01	4.82632
1837.5	5.77563
1839	6.0333
1840.49	5.74749
1841.99	6.2233
1843.49	7.04823
1844.98	6.26058
1846.48	5.53953
1847.97	4.24012
1849.47	5.31037
1850.96	5.29172
1852.45	5.35837
1853.95	5.19055
1855.44	5.06816
1856.93	4.90095
1858.42	4.03153
1859.92	3.89212
1861.41	3.14027
1862.9	2.24756
1864.39	2.51913
1865.88	2.19884
1867.38	1.64243
1868.87	1.35973
1870.36	1.57047
1871.85	1.58824
1873.34	1.96606
1874.83	1.25163
1876.32	1.4116
1877.81	1.9824
1879.29	2.23284
1880.78	3.6393
1882.27	4.47566
1882.53	5.07749
1884.03	5.26333
1885.52	5.94324
1887.01	6.45644
1888.51	6.22098
1890	7.28044
1891.5	7.12625
1892.99	7.65992
1894.48	8.08711
1895.97	8.68286
1897.47	10.4539
1898.96	11.3821
1900.45	11.8365
1901.94	12.2136
1903.43	13.329
1904.92	12.6164
1906.41	12.4479
1907.9	12.4985
1909.39	14.1896
1910.88	13.1785
1912.37	12.7804
1913.86	13.1244
1915.35	12.6471
1916.84	11.6342
1918.33	10.2148
1919.81	10.6801
1921.3	10.1541
1922.79	10.7648
1924.28	9.1807
1925.76	8.72186
1927.25	8.66717
1928.73	8.48222
1930.22	7.69973
1931.71	7.10684
1933.19	6.39523
1934.68	6.84505
1936.16	6.82596
1937.65	6.24637
1939.13	4.91511
1940.62	6.0814
1942.1	6.39893
1943.58	6.90222
1945.07	6.76946
1946.55	7.52616
1948.03	7.62473
1949.51	8.64258
1951	10.3611
1952.48	10.8327
1953.96	11.1355
1955.44	12.2731
1956.92	11.7741
1958.4	10.9961
1959.88	11.2762
1961.36	11.9124
1962.84	12.5462
1964.32	13.0166
1965.8	13.1859
1967.28	13.4531
1968.76	13.9692
1970.24	13.4913
1971.72	13.1704
1973.2	12.2457
1974.67	11.0272
1976.15	10.9759
1977.63	9.84334
1979.1	8.74845
1980.58	8.36167
1982.06	9.45935
1983.54	8.73246
1985.01	8.19213
1986.49	8.13176
1987.96	8.66172
1989.44	8.24163
1990.91	8.39966
1992.39	8.29328
1993.86	8.30597
1995.33	6.97633
1996.81	7.3642
1998.28	7.11873
1999.75	7.36656
2001.23	7.01955
2002.7	6.41836
2004.17	5.48334
2005.65	6.37633
2007.12	6.58167
2008.59	7.49854
2010.06	7.76038
2011.53	7.64617
2013	8.28632
2014.47	9.39971
2015.94	9.07951
2017.41	8.51423
2018.88	8.44053
2020.35	10.5385
2021.82	10.7345
2023.29	11.15
2024.76	10.9725
2026.23	10.6886
2027.69	11.446
2029.16	11.664
2030.63	10.266
2032.1	10.8182
2033.56	10.8646
2035.03	11.1196
2036.5	10.1425
2037.96	9.89857
2039.43	10.0756
2040.89	9.06866
2042.36	8.83755
2043.83	8.85176
2045.29	9.15315
2046.75	9.11733
2048.22	8.69162
2049.68	9.26642
2051.15	10.3095
2052.61	10.5527
2054.07	11.0194
2055.54	11.3006
2057	10.2876
2058.46	12.0706
2059.92	11.0873
2061.39	10.4583
2062.85	9.97828
2064.31	8.94951
2065.77	7.1151
2067.23	6.40936
2068.69	6.09134
2070.15	6.26007
2071.61	6.30223
2073.07	6.11866
2074.53	6.27959
2075.99	6.60685
2077.45	6.56614
2078.91	7.2427
2080.37	7.03261
2081.82	6.86907
2083.28	7.00157
2084.74	6.11377
2086.2	5.50516
2087.65	5.44258
2089.11	6.23319
2090.57	5.97542
2092.02	7.68985
2093.48	7.19284
2094.94	6.74454
2096.39	6.74145
2097.85	6.41998
2099.3	6.9035
2100.76	7.45625
2102.21	6.86164
2103.66	7.46463
2105.12	8.07998
2106.57	8.37967
2108.03	8.90701
2109.48	9.69245
2110.93	9.95202
2112.38	10.0959
2113.84	10.6938
2115.29	12.0099
2116.74	13.203
2118.19	12.9035
2119.64	13.7583
2121.09	13.3451
2122.54	13.1678
2123.99	13.9222
2125.45	13.7301
2126.89	14.5341
2128.34	13.7565
2129.79	13.8654
2131.24	14.7207
2132.69	14.0066
2134.14	13.457
2135.59	14.7228
2137.04	14.2801
2138.48	14.4345
2139.93	14.4605
2141.38	14.7697
2142.83	14.3901
2144.27	14.4648
2145.72	14.8649
2147.17	15.0795
2148.61	14.7966
2150.06	14.49
2151.5	14.514
2152.95	14.6191
2154.39	13.6869
2155.84	13.146
2157.28	11.6449
2158.73	11.6853
2160.17	11.1902
2161.61	11.5462
2163.06	10.2585
2164.5	10.3501
2165.94	10.1396
2167.38	10.7179
2168.83	10.5454
2170.27	10.1513
2171.71	9.56637
2173.15	8.85096
2174.59	8.30293
2176.03	8.29497
2177.47	8.52383
2178.91	8.63417
2180.36	8.49972
2181.8	8.25739
2183.23	7.48753
2184.67	7.83419
2186.11	8.54214
2187.55	9.47329
2188.99	10.2615
2190.43	9.80072
2191.87	10.1286
2193.3	9.71465
2194.74	10.3996
2196.18	11.7574
2197.62	11.7888
2199.05	11.8475
2200.49	11.1773
2201.93	11.3858
2203.36	11.7286
2204.8	12.0177
2206.23	11.9841
2207.67	12.3599
2209.1	11.9542
2210.54	10.9443
2211.97	10.7665
2213.41	11.9153
2214.84	11.7538
2216.27	12.2352
2217.71	11.6894
2219.14	11.3096
2220.57	11.5429
2222.01	10.9298
2223.44	11.5507
2224.87	11.2796
2226.3	10.7723
2227.73	11.1218
2229.16	11.0716
2230.6	11.6607
2232.03	10.6434
2233.46	11.857
2234.89	11.8886
2236.32	12.781
2237.75	12.5719
2239.18	11.9379
2240.61	11.7799
2242.03	11.0597
2243.46	10.5057
2244.89	11.8635
2246.32	12.8816
2247.75	13.7276
2249.17	14.2327
2250.6	14.3885
2252.03	14.3024
2253.46	13.4159
2254.88	13.2281
2256.31	13.3679
2257.73	13.6073
2259.16	14.3363
2260.59	13.0674
2262.01	12.7636
2263.44	12.0577
2264.86	11.52
2266.29	10.0547
2267.71	9.30149
2269.14	8.85431
2270.56	9.12385
2271.98	9.20313
2273.4	10.4196
2274.83	11.1195
2276.25	10.811
2277.67	10.194
2279.09	9.83363
2280.52	10.0368
2281.94	10.5031
2283.36	10.9306
2284.78	10.7737
2286.2	11.3426
2287.62	11.5454
2289.04	12.0319
2290.46	13.0215
2291.88	13.2578
2293.3	12.7255
2294.72	13.187
2296.14	14.0959
2297.56	14.4882
2298.98	15.3364
2300.4	15.1014
2301.82	14.8327
2303.23	16.0242
2304.65	16.7934
2306.07	17.0217
2307.49	16.8813
2308.9	16.7132
2310.32	16.3861
2311.73	17.1798
2313.15	16.7902
2314.57	17.8348
2315.98	18.7069
2317.4	18.6831
2318.81	18.3294
2320.23	17.3945
2321.64	17.2188
2323.06	16.8534
2324.47	15.7581
2325.88	15.7351
2327.3	15.3701
2328.71	14.7765
2330.12	13.973
2331.54	12.0007
2332.95	12.4753
2334.36	11.2756
2335.77	9.97425
2337.18	9.25469
2338.6	9.54212
2340.01	10.2998
2341.42	10.9224
2342.83	10.8251
2344.24	9.9754
2345.65	7.07128
2347.06	6.52194
2348.47	6.24656
2349.88	6.54977
2351.29	6.87441
2352.7	6.5641
2354.1	6.15862
2355.51	6.10456
2356.92	6.96302
2358.33	5.87418
2359.74	4.37844
2361.14	4.07099
2362.55	4.30776
2363.96	4.24035
2365.36	4.2981
2366.77	4.68668
2368.18	3.38104
2369.58	2.12173
2370.99	1.21486
2372.39	0.751817
2373.8	1.35843
2375.2	1.08817
2376.61	0.870062
2378.01	0.601522
2379.42	0.728231
2380.82	0.744725
2382.22	2.12239
2383.63	1.26147
2385.03	2.53223
2386.43	2.1446
2387.84	2.65771
2389.24	1.78682
2390.64	2.17936
2392.04	2.96291
2393.44	2.83791
2394.84	2.12307
2396.25	1.82122
2397.65	1.56984
2399.05	1.16339
2400.45	1.43621
2401.85	2.74171
2403.25	3.71041
2404.65	2.95478
2406.05	2.45913
2407.45	3.72139
2408.84	4.35861
2410.24	5.6047
2411.64	6.29844
2413.04	6.31344
2414.44	7.17964
2415.83	8.61081
2417.23	10.1132
2418.63	11.1117
2420.02	12.7061
2421.42	14.0529
2422.82	13.5286
2424.21	13.5314
2425.61	13.4017
2427	13.7522
2428.4	13.5098
2429.8	13.1062
2431.19	14.8874
2432.58	15.5895
2433.98	13.9339
2435.37	12.7766
2436.77	13.6765
2438.16	13.8495
2439.55	14.4983
2440.95	15.2623
2442.34	15.3473
2443.73	15.4441
2445.12	15.6389
2446.51	15.0224
2447.91	15.2355
2449.3	15.4874
2450.69	16.2323
2452.08	16.0895
2453.47	13.9175
2454.86	13.3121
2456.25	13.311
2457.64	12.1409
2459.03	10.6091
2460.42	10.1312
2461.81	10.2521
2463.2	9.27375
2464.59	8.16426
2465.98	7.66516
2467.36	8.45883
2468.75	7.66124
2470.14	8.30235
2471.53	8.86946
2472.92	7.90195
2474.3	7.76549
2475.69	8.11855
2477.08	8.92084
2478.46	8.12376
2479.85	8.58085
2481.23	8.41279
2482.62	8.60663
2484	8.62582
2485.39	7.14219
2486.77	6.72833
2488.16	6.96124
2489.54	6.01983
2490.93	5.85874
2492.31	3.81642
2493.69	4.47943
2495.08	5.76476
2496.46	6.58888
2497.84	6.77053
2499.23	5.81145
2500.61	5.68512
2501.99	4.53167
2503.37	3.24236
2504.75	4.20692
2506.13	4.8307
2507.52	3.78026
2508.9	3.59404
2510.28	2.94139
2511.66	3.18184
2513.04	2.90128
2514.42	4.4344
2515.8	5.11807
2517.18	6.37063
2518.55	6.39658
2519.93	5.64993
2521.31	5.33392
2522.69	5.63914
2524.07	6.12254
2525.45	7.3477
2526.82	7.32913
2528.2	8.00873
2529.58	8.65184
2530.95	9.47619
2532.33	9.03502
2533.71	10.7673
2535.08	11.5729
2536.46	13.0756
2537.84	12.7116
2539.21	13.8462
2540.59	14.2535
2541.96	13.9275
2543.34	13.8015
2544.71	14.397
2546.08	14.857
2547.46	13.5724
2548.83	15.0478
2550.2	15.4958
2551.58	15.3167
2552.95	15.1811
2554.32	15.5813
2555.7	15.9455
2557.07	15.8648
2558.44	16.0222
2559.81	16.7858
2561.18	15.9473
2562.55	17.2938
2563.93	17.4645
2565.3	16.4366
2566.67	16.1676
2568.04	15.6187
2569.41	15.6014
2570.78	15.9883
2572.15	16.4402
2573.51	16.7128
2574.88	16.3666
2576.25	16.6293
2577.62	16.8102
2578.99	17.0735
2580.36	16.8657
2581.73	18.374
2583.09	19.6532
2584.46	19.9709
2585.83	20.1449
2587.19	18.7346
2588.56	18.7719
2589.93	19.011
2591.29	18.4516
2592.66	16.8146
2594.02	16.8756
2595.39	16.558
2596.75	15.8039
2598.12	15.6022
2599.48	15.8094
2600.85	16.5932
2602.21	16.9848
2603.58	15.9255
2604.94	16.0201
2606.3	14.6848
2607.67	13.9756
2609.03	13.2756
2610.39	12.0771
2611.76	11.4537
2613.12	11.4498
2614.48	10.1051
2615.84	8.37923
2617.2	8.63538
2618.56	7.94352
2619.92	7.94021
2621.28	7.3701
2622.65	7.66389
2624.01	7.28365
2625.37	7.72324
2626.72	8.01929
2628.08	7.90623
2629.44	7.46631
2630.8	7.48098
2632.16	6.51722
2633.52	6.85013
2634.88	7.6489
2636.24	7.14906
2637.59	7.56202
2638.95	7.93995
2640.31	8.22745
2641.67	7.13014
2643.02	6.87045
2644.38	6.86268
2645.74	6.62177
2647.09	6.54943
2648.45	6.50171
2649.8	7.48144
2651.16	6.9406
2652.51	7.24569
2653.87	7.22736
2655.22	7.10061
2656.58	7.38396
2657.93	6.89169
2659.29	7.62052
2660.64	7.49421
2661.99	9.68564
2663.35	11.0772
2664.7	12.1092
2666.05	12.8354
2667.41	14.1973
2668.76	15.3704
2670.11	14.6116
2671.46	14.5588
2672.81	15.1437
2674.16	15.2372
2675.51	15.8399
2676.87	16.349
2678.22	16.738
2679.57	16.7139
2680.92	16.8321
2682.27	16.6946
2683.62	17.3557
2684.97	18.3897
2686.31	19.4533
2687.66	20.089
2689.01	19.8601
2690.36	21.195
2691.71	21.2994
2693.06	21.7484
2694.4	21.0375
2695.75	19.8214
2697.1	18.9988
2698.45	18.897
2699.79	19.5262
2701.14	20.5117
2702.49	21.3533
2703.83	21.4296
2705.18	21.5475
2706.52	21.2055
2707.87	20.6652
2709.21	20.5859
2710.56	21.3791
2711.9	21.3878
2713.25	21.7528
2714.59	21.9217
2715.94	22.5247
2717.28	22.9897
2718.62	23.0437
2719.97	24.296
2721.31	23.7458
2722.65	23.2192
2723.99	22.1272
2725.34	22.498
2726.68	22.9585
2728.02	22.5465
2729.36	22.2427
2730.7	21.0877
2732.04	21.0811
2733.39	20.7862
2734.73	19.9616
2736.07	19.1731
2737.41	18.4858
2738.75	17.5948
2740.08	16.645
2741.43	15.6845
2742.76	15.1501
2744.1	14.7158
2745.44	13.5858
2746.78	12.2788
2748.12	12.1782
2749.46	12.3052
2750.79	11.4554
2752.13	10.4984
2753.47	9.58839
2754.81	8.84096
2756.14	8.17653
2757.48	8.44012
2758.81	7.09715
2760.15	7.0625
2761.49	5.45498
2762.82	5.72026
2764.16	5.81622
2765.49	6.51514
2766.83	7.82473
2768.16	7.88493
2769.5	8.37757
2770.83	7.6323
2772.16	7.54682
2773.5	7.90131
2774.83	8.05932
2776.17	8.32915
2777.5	7.99218
2778.83	8.33561
2780.16	8.74061
2781.5	7.79356
2782.83	7.34913
2784.16	7.20264
2785.49	6.65532
2786.82	6.37215
2788.15	5.34044
2789.49	4.46986
2790.82	3.3915
2792.15	4.04967
2793.48	2.36204
2794.81	1.54695
2796.14	0.920074
2797.46	1.29797
2798.79	1.62865
2800.12	0.847831
2801.45	-0.227363
2802.78	-0.236037
2804.11	-1.05595
2805.44	-2.55996
2806.76	-2.94968
2808.09	-2.55339
2809.42	-2.5717
2810.75	-3.16013
2812.07	-3.56323
2813.4	-3.09807
2814.73	-1.48058
2816.05	-0.739908
2817.38	0.455156
2818.7	3.44893
2820.03	7.09333
2821.36	11.8856
2822.68	15.2503
2824.01	18.8029
2825.33	22.6743
2826.65	28.5608
2827.98	32.8984
2829.3	38.4135
2830.63	42.9615
2831.95	48.8274
2833.27	54.2873
2834.6	57.4703
2835.92	61.5554
2837.24	65.9181
2838.56	70.657
2839.88	75.9951
2841.21	80.6123
2842.53	85.1672
2843.85	89.6102
2845.17	93.2856
2846.49	96.6137
2847.81	100.048
2849.13	104.136
2850.45	108.753
2851.77	113.037
2853.09	117.016
2854.41	120.569
2855.73	123.983
2857.05	127.488
2858.37	130.835
2859.69	132.423
2861	135.915
2862.32	138.77
2863.64	139.946
2864.96	141.679
2866.28	142.932
2867.59	144.111
2868.91	145.498
2870.23	146.058
2871.54	146.194
2872.86	146.574
2874.17	148.435
2875.49	148.351
2876.81	149.136
2878.12	150.305
2879.44	151.316
2880.75	152.913
2882.07	153.683
2883.38	155.384
2884.69	156.665
2886.01	157.162
2887.32	157.509
2888.63	155.176
2889.95	155.095
2891.26	155.541
2892.57	155.564
2893.89	154.809
2895.2	153.112
2896.51	151.55
2897.82	151.616
2899.13	149.992
2900.44	148.452
2901.76	147.849
2903.07	147.012
2904.38	146.465
2905.69	146.866
2907	146.282
2908.31	146.481
2909.62	146.901
2910.93	146.938
2912.24	147.99
2913.55	149.23
2914.85	150.043
2916.16	151.136
2917.47	152.175
2918.78	152.681
2920.09	153.226
2921.4	153.521
2922.7	153.677
2924.01	153.629
2925.32	154.553
2926.62	154.587
2927.93	153.452
2929.24	153.177
2930.54	153.744
2931.85	152.806
2933.15	152.079
2934.46	150.709
2935.76	148.839
2937.07	147.375
2938.37	145.828
2939.68	143.938
2940.98	140.974
2942.29	138.863
2943.59	136.369
2944.89	133.892
2946.2	130.656
2947.5	127.163
2948.8	123
2950.11	118.25
2951.41	114.369
2952.71	110.227
2954.01	104.735
2955.32	102.173
2956.62	98.1669
2957.92	93.3969
2959.22	88.9914
2960.52	84.7904
2961.82	82.0974
2963.12	78.9407
2964.42	74.4545
2965.72	70.8471
2967.02	67.6031
2968.32	65.109
2969.62	62.9666
2970.92	60.9047
2972.22	57.4235
2973.51	54.5429
2974.81	51.5495
2976.11	49.1006
2977.41	46.54
2978.71	44.0937
2980	41.9538
2981.3	40.3287
2982.6	38.0139
2983.9	34.9439
2985.19	33.3637
2986.49	31.1689
2987.78	30.4467
2989.08	29.0264
2990.38	27.3272
2991.67	24.4993
2992.97	23.58
2994.26	23.6358
2995.56	21.6424
2996.85	20.1725
2998.14	19.1492
2999.44	17.5853
3000.73	16.5724
3002.03	15.4164
3003.32	14.6423
3004.61	13.3188
3005.91	11.9502
3007.2	11.1334
3008.49	10.4607
3009.78	9.87146
3011.07	8.24978
3012.37	7.65434
3013.66	7.1848
3014.95	6.91107
3016.24	6.46201
3017.53	5.94578
3018.82	4.34252
3020.11	4.38938
3021.4	3.94144
3022.69	3.25816
3023.98	3.2291
3025.27	2.9596
3026.56	2.73918
3027.85	2.67778
3029.14	2.37776
3030.43	2.44818
3031.71	2.44495
3033	2.0935
3034.29	1.3312
3035.58	1.6527
3036.87	1.64161
3038.15	2.78129
3039.44	2.46276
3040.73	1.76973
3042.01	1.42094
3043.3	2.48159
3044.59	3.04959
3045.87	3.68426
3047.16	4.13189
3048.44	4.07072
3049.73	5.87339
3051.01	5.07652
3052.3	6.71394
3053.58	6.85106
3054.87	7.3276
3056.15	8.56066
3057.43	9.04217
3058.72	8.75676
3060	8.14101
3061.29	8.46033
3062.57	9.15154
3063.85	9.42003
3065.13	10.4058
3066.42	11.0783
3067.7	12.2067
3068.98	12.8393
3070.26	13.9232
3071.54	15.6133
3072.82	16.4033
3074.11	17.94
3075.39	19.0643
3076.67	20.7992
3077.95	21.9384
3079.23	22.6787
3080.51	23.6137
3081.79	25.2489
3083.07	25.7054
3084.35	27.9575
3085.63	29.4265
3086.9	30.4304
3088.18	31.9027
3089.46	33.3435
3090.74	34.9341
3092.02	36.0756
3093.29	36.9478
3094.57	38.3201
3095.85	40.8053
3097.13	41.8861
3098.4	43.4098
3099.68	45.7517
3100.95	47.5866
3102.23	48.8702
3103.51	49.9628
3104.78	52.1356
3106.06	55.1385
3107.33	57.4749
3108.61	58.6548
3109.88	60.4408
3111.16	61.8761
3112.43	63.1394
3113.71	65.8603
3114.98	67.4747
3116.25	70.1524
3117.53	71.7878
3118.8	73.4844
3120.07	74.8292
3121.35	76.0395
3122.62	78.3006
3123.89	80.8655
3125.16	83.1898
3126.44	86.1686
3127.71	88.2253
3128.98	91.1098
3130.25	93.1798
3131.52	96.1078
3132.79	98.1488
3134.06	100.008
3135.33	102.337
3136.6	104.893
3137.87	107.978
3139.14	110.472
3140.41	112.823
3141.68	115.235
3142.95	117.776
3144.22	120.316
3145.49	122.83
3146.76	125.56
3148.02	127.853
3149.29	131.667
