#Acq. time (s)=	45
#Accumulations=	2
#Range (cm-¹)=	200...3150
#Windows=	2
#Auto scanning=	Off
#Autofocus=	Off
#Macrospot=	Off
#AutoExposure=	Off
#Spike filter=	Multiple accum.
#Delay time (s)=	0
#Binning=	1
#Readout mode=	Signal
#DeNoise=	Off
#ICS correction=	On
#Dark correction=	Off
#Inst. Process=	Off
#Detector Gain=	Best Dynamic Range
#Detector ADC=	20 kHz       
#Detector temperature (°C)=	-69.85
#Instrument=	LabRAM HR Evol
#Detector=	Synapse
#Objective=	x100
#Grating=	600 gr/mm
#ND Filter=	100%
#Laser (nm)=	532 
#Hole=	100.021
#Range=	Auto
#Laser Pol.=	No
#Raman. Pol.=	No
#Laser Pol. (°)=	-0.0007625
#Raman Pol. (°)=	89.9995
#Collection=	Microscope
#StageXY=	Marzhauser
#StageZ=	Marzhauser
#X (µm)=	-984.3
#Y (µm)=	-2867.3
#Z (µm)=	528.65
#Full time(mm:ss)=	3:19
#Project=	
#Sample=	
#Site=	
#Title=	Mb_00_13_31_2x_45s_532 nm_x100_100%_600 gr_mm
#Remark=	
#Date=	06.07.2022 12:06
#Acquired=	06.07.2022 12:06:51
#Base:Fit=	10.08.2022 10:16:56
#Base:Sub=	10.08.2022 10:17:24
#Filter:Polynom=	16.08.2022 10:36:38
#AxisType[0]=Intens
#AxisUnit[0]=Cnt
#AxisType[1]=Spectr
#AxisUnit[1]=1/cm
200.398	20.55
202.213	12.2081
204.027	8.64037
205.843	3.77193
207.657	-0.703071
209.47	-4.39733
211.283	-6.99059
213.097	-7.82715
214.909	-6.73696
216.721	-1.7846
218.533	3.70779
220.344	10.112
222.157	22.03
223.967	29.892
225.777	39.7683
227.587	50.5996
229.396	61.5851
231.205	72.6926
233.016	83.6309
234.824	93.9436
236.632	102.124
238.439	110.004
240.247	117.185
242.053	123.521
243.86	128.901
245.666	135.076
247.474	142.289
249.279	149.393
251.085	155.244
252.889	159.839
254.694	164.333
256.498	167.154
258.301	170.221
260.105	169.804
261.908	171.41
263.71	170.002
265.513	168.475
267.315	166.622
269.116	163.897
270.918	159.46
272.718	154.944
274.519	148.433
276.319	143.851
278.119	136.266
279.918	127.483
281.718	116.966
283.516	106.3
285.315	96.8559
287.113	88.1201
288.911	80.1247
290.708	70.7591
292.505	63.1073
294.302	53.4948
296.098	46.1468
297.894	40.0739
299.69	35.4445
301.485	31.6841
303.278	28.6414
305.073	27.4074
306.867	24.9201
308.661	21.1291
310.454	20.1657
312.247	18.8468
314.04	15.402
315.833	15.9786
317.623	16.1204
319.415	16.2184
321.206	15.9022
322.997	14.5325
324.788	13.0721
326.579	12.6436
328.367	11.6492
330.156	11.5583
331.946	11.2427
333.735	10.0686
335.523	9.96342
337.31	8.82915
339.098	8.46213
340.885	8.17197
342.673	8.11231
344.458	6.61234
346.244	6.31267
348.03	5.44778
349.816	4.46969
351.6	3.99703
353.385	3.45963
355.17	3.59563
356.953	4.07162
358.737	2.77919
360.521	4.1767
362.304	5.82229
364.085	7.96192
365.868	11.8911
367.65	13.9725
369.431	17.6018
371.212	21.634
372.994	25.3027
374.773	31.0508
376.554	36.9232
378.332	42.9164
380.112	49.5231
381.892	59.1558
383.669	68.3953
385.448	79.9715
387.225	92.333
389.003	103.3
390.781	114.352
392.557	125.548
394.334	136.367
396.109	145.366
397.885	154.893
399.66	163.655
401.436	169.108
403.211	176.766
404.984	182.349
406.759	186.93
408.532	189.978
410.306	191.741
412.078	191.679
413.851	192.747
415.623	193.478
417.395	191.047
419.166	190.146
420.938	186.951
422.708	182.063
424.477	178.197
426.248	173.725
428.017	168.25
429.788	161.449
431.556	153.629
433.326	145.304
435.093	136.583
436.86	125.721
438.629	114.684
440.395	104.711
442.163	96.4335
443.929	86.2916
445.694	77.9826
447.461	68.2261
449.226	59.8403
450.99	50.6785
452.756	43.0242
454.52	35.5467
456.285	27.8446
458.048	22.8297
459.811	18.347
461.573	15.3613
463.337	14.0686
465.099	12.1206
466.86	12.1949
468.623	14.291
470.384	17.5716
472.144	18.6133
473.906	20.4003
475.666	22.0657
477.425	23.9065
479.184	26.5364
480.944	27.881
482.703	30.4896
484.461	30.9986
486.218	31.7155
487.975	33.854
489.734	36.3013
491.491	39.7236
493.247	43.0876
495.003	46.4947
496.759	49.3531
498.516	52.5045
500.271	56.2165
502.025	60.855
503.779	64.1519
505.533	67.0091
507.287	71.1978
509.042	73.6452
510.795	73.9513
512.547	76.3076
514.299	78.986
516.051	80.235
517.803	80.8373
519.554	82.0013
521.305	82.331
523.055	82.4611
524.805	82.9866
526.555	84.0811
528.307	86.403
530.056	85.2014
531.805	84.6263
533.553	83.9822
535.301	81.5681
537.049	81.8104
538.797	82.2422
540.544	80.7861
542.291	79.6145
544.037	78.0366
545.783	78.3468
547.529	76.1042
549.275	73.8532
551.02	71.1137
552.765	67.1766
554.509	64.2745
556.253	61.8917
557.997	59.7204
559.738	55.4101
561.482	52.8148
563.224	51.6219
564.967	49.0589
566.709	46.2403
568.451	44.3941
570.192	42.2237
571.933	39.0918
573.674	38.3992
575.415	37.1433
577.153	36.5665
578.893	35.8547
580.632	36.2541
582.371	34.6009
584.11	34.4812
585.849	34.451
587.587	33.2402
589.323	33.1108
591.06	31.3018
592.797	29.4949
594.534	28.499
596.271	26.195
598.005	24.356
599.741	26.2486
601.476	27.1834
603.211	28.1744
604.944	28.5408
606.679	28.9111
608.413	29.5917
610.147	30.2414
611.878	31.0108
613.611	30.795
615.344	30.2151
617.077	28.428
618.807	30.7533
620.539	30.8763
622.27	32.3688
623.999	33.3228
625.73	34.5594
627.461	36.0678
629.189	39.0588
630.919	40.416
632.648	42.4069
634.376	42.9088
636.105	45.0577
637.833	46.3909
639.559	46.7924
641.287	47.8411
643.013	48.6432
644.74	49.931
646.467	51.0054
648.192	52.6313
649.918	53.6904
651.642	53.3524
653.368	53.0042
655.091	54.0061
656.816	53.7207
658.538	53.3277
660.263	52.5963
661.987	51.7154
663.708	49.844
665.432	48.3371
667.153	48.0185
668.875	46.3812
670.596	45.6267
672.318	43.0183
674.037	39.8865
675.759	37.2205
677.478	33.5377
679.196	31.3469
680.917	30.8721
682.635	28.5373
684.355	26.3526
686.072	25.3995
687.791	22.7628
689.508	20.7438
691.224	17.6273
692.942	17.0377
694.658	14.3521
696.376	13.752
698.091	12.6724
699.805	11.2917
701.522	10.1995
703.236	10.133
704.95	11.413
706.665	11.7935
708.379	13.1018
710.093	13.9543
711.806	16.1652
713.518	17.1577
715.23	16.9799
716.943	17.1855
718.655	18.3228
720.366	18.4056
722.078	19.2364
723.788	21.454
725.498	22.0148
727.208	22.9815
728.919	24.4495
730.628	25.896
732.337	26.7336
734.045	27.5445
735.755	27.996
737.463	28.164
739.17	29.153
740.877	31.342
742.584	31.1127
744.292	31.9268
745.998	34.0781
747.704	34.8335
749.409	36.6108
751.114	41.2937
752.819	44.8414
754.526	45.8224
756.23	46.2308
757.934	47.8413
759.637	48.7511
761.34	48.488
763.043	51.7738
764.746	52.9894
766.448	54.6053
768.152	55.3691
769.853	57.4881
771.554	59.9498
773.255	61.6698
774.956	64.1734
776.656	66.0863
778.356	67.277
780.056	63.2468
781.755	62.7133
783.454	61.8654
785.153	64.5991
786.851	66.2046
788.549	68.3701
790.247	71.119
791.944	73.0015
793.641	75.079
795.338	76.5799
797.034	78.2293
798.73	79.2526
800.426	79.5466
802.121	80.6366
803.817	79.2071
805.511	78.7282
807.206	81.071
808.9	82.2777
810.592	81.0775
812.286	80.8635
813.979	80.2866
815.672	78.9855
817.364	79.3287
819.057	81.4742
820.748	82.5652
822.44	82.3842
824.129	82.4424
825.82	82.8032
827.511	81.2765
829.201	81.2449
830.891	80.8886
832.581	79.7978
834.269	79.6803
835.958	77.0185
837.646	73.3178
839.335	68.7585
841.023	66.788
842.709	64.3733
844.396	60.5585
846.084	56.5103
847.77	53.7478
849.455	49.1723
851.141	46.5976
852.827	44.0123
854.513	39.3253
856.196	36.0048
857.881	32.6378
859.566	27.8916
861.248	23.7583
862.932	20.1619
864.616	16.401
866.297	17.4935
867.98	18.9977
869.663	19.3994
871.343	17.4435
873.026	16.319
874.707	16.1294
876.387	14.818
878.068	15.3511
879.747	14.3636
881.428	13.7304
883.108	11.4619
884.786	10.6261
886.465	10.3957
888.143	10.4229
889.822	12.5185
891.498	15.1658
893.177	15.0377
894.855	15.2512
896.53	15.4102
898.208	16.3338
899.883	17.6816
901.56	20.7547
903.234	22.4116
904.91	21.8028
906.584	21.5731
908.26	21.456
909.933	21.8133
911.608	21.2191
913.28	21.1001
914.955	21.5206
916.627	21.2877
918.298	20.8997
919.972	20.9838
921.643	20.1071
923.315	19.8266
924.986	21.8079
926.656	20.0347
928.328	19.11
929.997	18.8714
931.668	18.4895
933.337	19.5097
935.006	20.2424
936.676	19.3211
938.344	17.776
940.012	17.9388
941.681	16.4924
943.348	16.287
945.014	16.1156
946.683	15.9665
948.349	15.4131
950.015	15.7092
951.682	15.34
953.347	16.6373
955.012	17.1773
956.676	16.653
958.343	14.4664
960.006	11.6276
961.67	11.3489
963.333	12.5044
964.998	13.9878
966.661	17.6043
968.323	21.4903
969.985	25.0166
971.649	29.2601
973.31	32.8545
974.971	38.657
976.632	41.9671
978.293	47.2768
979.953	51.9295
981.615	57.0429
983.274	61.1945
984.933	63.905
986.592	66.8321
988.251	69.0525
989.909	72.2346
991.567	74.0789
993.225	76.0668
994.884	78.7314
996.541	81.4041
998.198	84.4908
999.855	85.7295
1001.51	86.4448
1003.17	87.2237
1004.82	85.7842
1006.48	87.0169
1008.13	87.4223
1009.79	85.587
1011.44	84.0907
1013.1	84.438
1014.75	83.7991
1016.4	85.4041
1018.06	88.2625
1019.71	91.2632
1021.36	96.6705
1023.01	102.924
1024.66	110.596
1026.32	118.765
1027.97	124.085
1029.62	130.162
1031.27	135.826
1032.92	141.403
1034.57	146.275
1036.22	148.908
1037.87	151.497
1039.52	153.44
1041.16	154.937
1042.81	158.527
1044.46	164.042
1046.11	168.638
1047.76	171.441
1049.4	174.599
1051.05	175.379
1052.7	175.845
1054.34	177.325
1055.99	177.114
1057.63	177.059
1059.28	172.708
1060.92	169.573
1062.57	165.424
1064.21	161.606
1065.85	154.538
1067.5	147.364
1069.14	140.667
1070.78	132.051
1072.43	123.658
1074.07	116.144
1075.71	107.612
1077.35	98.4406
1078.99	89.2491
1080.63	79.206
1082.27	69.8536
1083.91	59.9729
1085.55	50.1707
1087.19	42.0868
1088.83	34.825
1090.47	28.8567
1092.11	22.6545
1093.75	20.0428
1095.39	19.58
1097.03	18.5066
1098.66	19.239
1100.3	20.5964
1101.94	21.5726
1103.57	23.1161
1105.21	24.2547
1106.84	24.7147
1108.48	24.6009
1110.11	23.0266
1111.75	22.7509
1113.38	22.3294
1115.02	22.804
1116.65	21.7051
1118.29	21.0489
1119.92	21.3257
1121.55	20.788
1123.19	20.4079
1124.82	19.8162
1126.45	20.1144
1128.08	21.0704
1129.71	20.6483
1131.34	20.1974
1132.97	18.8969
1134.6	19.7737
1136.23	20.4351
1137.86	19.0188
1139.49	18.1801
1141.12	16.77
1142.75	16.218
1144.38	15.6418
1146.01	13.9803
1147.64	10.708
1149.26	9.04696
1150.89	10.1049
1152.52	8.86145
1154.15	8.36265
1155.77	7.16762
1157.4	5.88642
1159.02	4.53689
1160.65	4.27382
1162.27	3.72179
1163.9	3.72567
1165.52	1.19021
1167.15	2.23774
1168.77	3.57992
1170.39	3.04208
1172.02	2.73612
1173.64	2.65312
1175.26	4.29856
1176.89	4.5561
1178.51	4.1841
1180.13	5.62383
1181.75	6.20453
1183.37	7.79249
1184.99	8.73632
1186.61	11.2321
1188.23	11.4551
1189.85	12.1982
1191.47	15.1421
1193.09	17.6596
1194.71	20.4034
1196.33	24.3905
1197.94	25.7364
1199.56	28.6692
1201.18	33.7031
1202.8	37.6651
1204.41	40.7399
1206.03	43.9108
1207.65	48.5152
1209.26	52.9923
1210.88	55.3872
1212.49	61.1367
1214.11	64.9059
1215.72	70.3229
1217.34	74.1783
1218.95	78.1935
1220.57	83.4804
1222.18	86.3625
1223.79	90.2638
1225.41	93.8906
1227.02	96.4367
1228.63	98.0947
1230.24	101.876
1231.85	104.847
1233.47	104.802
1235.08	107.363
1236.69	107.748
1238.3	110.27
1239.91	111.64
1241.52	112.766
1243.13	113.972
1244.74	113.34
1246.34	112.916
1247.95	114.595
1249.56	113.477
1251.17	112.791
1252.78	112.75
1254.38	113.027
1255.99	111.753
1257.6	109.922
1259.2	107.59
1260.81	106.826
1262.42	105.604
1264.02	103.931
1265.63	102.912
1267.23	102.763
1268.84	101.435
1270.44	100.629
1272.04	101.421
1273.65	100.177
1275.25	100.148
1276.85	100.917
1278.46	102.27
1280.06	104.915
1281.66	106.922
1283.26	106.725
1284.86	109.392
1286.46	110.72
1288.07	113.18
1289.67	115.054
1291.27	116.647
1292.87	119.265
1294.47	120.379
1296.06	123.937
1297.66	125.382
1299.26	126.48
1300.86	129.859
1302.46	131.711
1304.06	134.819
1305.65	135.55
1307.25	137.037
1308.85	140.481
1310.44	144.948
1312.04	147.513
1313.64	151.156
1315.23	154.317
1316.83	156.986
1318.42	160.079
1320.02	161.881
1321.61	162.956
1323.2	164.793
1324.8	165.607
1326.39	166.465
1327.99	167.493
1329.58	167.985
1331.17	167.677
1332.76	168.025
1334.36	165.807
1335.95	165.006
1337.54	162.825
1339.13	162.3
1340.72	160.149
1342.31	158.683
1343.9	157.34
1345.49	155.764
1347.08	154.206
1348.67	151.549
1350.26	149.249
1351.85	148.034
1353.43	145.398
1355.02	143.789
1356.61	142.287
1358.2	139.315
1359.78	137.074
1361.37	133.417
1362.96	129.799
1364.54	127.092
1366.13	123.233
1367.71	119.492
1369.3	114.689
1370.88	110.874
1372.47	108.101
1374.05	105.091
1375.64	102.605
1377.22	100.533
1378.8	99.188
1380.39	99.3438
1381.97	96.9101
1383.55	95.3159
1385.13	93.3871
1386.72	93.9576
1388.3	94.2323
1389.88	93.9004
1391.46	93.7461
1393.04	93.4753
1394.62	93.6243
1396.2	93.9086
1397.78	93.232
1399.36	94.4427
1400.94	95.747
1402.52	97.3302
1404.1	99.4917
1405.68	102.036
1407.25	106.018
1408.83	109.031
1410.41	112.797
1411.98	116.546
1413.56	121.011
1415.14	127.038
1416.71	131.321
1418.29	138.04
1419.87	143.5
1421.44	151.921
1423.02	159.467
1424.59	166.703
1426.16	174.472
1427.74	182.584
1429.31	192.305
1430.89	199.726
1432.46	207.506
1434.03	215.36
1435.6	223.954
1437.18	230.437
1438.75	237.283
1440.32	240.654
1441.89	246.074
1443.46	249.813
1445.03	252.094
1446.6	253.337
1448.17	255.128
1449.74	256.33
1451.31	255.814
1452.88	255.009
1454.45	252.896
1456.02	251.491
1457.59	246.07
1459.16	241.664
1460.72	236.107
1462.29	230.392
1463.86	222.974
1465.43	216.905
1466.99	209.467
1468.56	203.794
1470.13	195.714
1471.69	187.889
1473.26	179.54
1474.82	171.178
1476.38	162.931
1477.95	156.483
1479.51	148.478
1481.08	141.753
1482.64	135.043
1484.2	128.564
1485.77	120.921
1487.33	115.215
1488.89	107.873
1490.46	100.458
1492.02	95.6923
1493.58	89.2819
1495.14	84.8463
1496.7	81.5227
1498.26	78.5795
1499.82	76.6839
1501.38	74.5049
1502.94	72.5161
1504.5	70.9203
1506.06	70.656
1507.62	70.488
1509.18	69.7005
1510.73	70.1685
1512.29	69.7425
1513.85	69.7573
1515.41	68.293
1516.96	67.4807
1518.52	65.3525
1520.08	65.451
1521.63	65.2682
1523.19	66.7465
1524.75	66.1911
1526.3	65.7116
1527.85	65.0766
1529.41	63.8657
1530.96	63.2756
1532.52	62.0643
1534.07	63.0085
1535.62	61.7919
1537.18	62.4864
1538.73	62.9175
1540.28	63.4818
1541.84	64.6118
1543.39	65.9995
1544.94	68.7315
1546.49	70.034
1548.04	69.8518
1549.59	71.8825
1551.14	74.5848
1552.69	76.0161
1554.25	77.2131
1555.79	79.1591
1557.34	80.2265
1558.89	82.1224
1560.44	83.2572
1561.99	84.5319
1563.54	85.2958
1565.08	87.2789
1566.63	86.3344
1568.18	88.9046
1569.73	91.383
1571.27	94.8948
1572.82	98.4553
1574.37	100.503
1575.91	102.789
1577.46	105.475
1579	108.307
1580.55	112.273
1582.09	116.53
1583.64	119.268
1585.18	121.591
1586.73	123.411
1588.27	124.908
1589.81	126.047
1591.35	127.539
1592.9	129.695
1594.44	130.968
1595.98	132.059
1597.52	133.673
1599.06	135.664
1600.61	134.762
1602.15	133.664
1603.69	132.755
1605.23	132.175
1606.77	131.276
1608.31	131.651
1609.85	131.644
1611.39	130.662
1612.93	128.58
1614.46	127.983
1616	127.331
1617.54	128.308
1619.08	128.115
1620.61	127.559
1622.15	127.382
1623.69	125.768
1625.23	127.136
1626.76	129.071
1628.3	129.394
1629.83	127.568
1631.37	128.655
1632.9	129.592
1634.44	130.171
1635.97	130.651
1637.51	131.092
1639.04	131.852
1640.57	133.092
1642.11	134.267
1643.64	135.599
1645.17	138.55
1646.71	140.835
1648.24	143.422
1649.77	143.658
1651.3	144.913
1652.83	145.386
1654.36	145.604
1655.89	145.958
1657.42	146.16
1658.96	143.746
1660.48	141.655
1662.01	140.362
1663.54	139.789
1665.07	138.103
1666.6	136.215
1668.13	133.986
1669.66	131.121
1671.19	128.964
1672.71	126.007
1674.24	123.504
1675.77	119.704
1677.29	113.202
1678.82	108.759
1680.35	104.311
1681.87	100.294
1683.4	94.8113
1684.92	89.8214
1686.45	83.9088
1687.97	78.3985
1689.5	74.6032
1691.02	70.7139
1692.54	66.0381
1694.07	61.9638
1695.59	56.5355
1697.11	52.2037
1698.64	48.2488
1700.16	45.3501
1701.68	42.9849
1703.2	38.6307
1704.72	34.6001
1706.25	31.5543
1707.77	29.552
1709.29	26.7716
1710.81	24.2583
1712.33	22.4209
1713.85	20.7983
1715.37	18.9007
1716.89	18.094
1718.41	16.2101
1719.92	14.3868
1721.44	13.2289
1722.96	12.7893
1724.48	10.6353
1725.99	9.1749
1727.51	9.14872
1729.03	9.45285
1730.55	9.98787
1732.06	9.66086
1733.58	8.94903
1735.09	9.30664
1736.61	10.5551
1738.13	10.6332
1739.64	10.7731
1741.15	11.1846
1742.67	11.9936
1744.18	12.5259
1745.7	13.4845
1747.21	15.331
1748.72	15.6639
1750.24	15.2214
1751.75	13.8049
1753.26	13.69
1754.77	14.2671
1756.29	13.7323
1757.8	13.5279
1759.31	13.146
1760.82	14.007
1762.33	14.5572
1763.84	13.3674
1765.35	13.3078
1766.86	11.8925
1768.37	10.9993
1769.88	10.6219
1771.39	9.40736
1772.9	8.38207
1774.4	8.00294
1775.91	7.17103
1777.42	7.26739
1778.93	6.69726
1780.44	6.79802
1781.94	6.83153
1783.45	6.74609
1784.96	5.9835
1786.46	5.86969
1787.97	4.97984
1789.47	4.00411
1790.98	3.51621
1792.48	3.42884
1793.99	2.26409
1795.49	2.77301
1797	3.31188
1798.5	4.43443
1800.01	4.44915
1801.51	5.27358
1803.01	6.50698
1804.51	6.24457
1806.02	4.93094
1807.52	4.79397
1809.02	5.94739
1810.52	6.05339
1812.02	6.12021
1813.52	6.18931
1815.02	7.41578
1816.53	7.54361
1818.03	8.08258
1819.52	7.91079
1821.02	7.85291
1822.52	8.12482
1824.02	7.85263
1825.52	7.57716
1827.02	8.00153
1828.52	7.56878
1830.02	6.92521
1831.51	6.83038
1833.01	7.60234
1834.51	7.85191
1836.01	7.5104
1837.5	7.11326
1839	5.69922
1840.49	6.39768
1841.99	6.33847
1843.49	6.81221
1844.98	6.94734
1846.48	6.19604
1847.97	7.05676
1849.47	7.75155
1850.96	8.25343
1852.45	9.3102
1853.95	9.68011
1855.44	9.34738
1856.93	9.96765
1858.42	10.3592
1859.92	10.9845
1861.41	12.3643
1862.9	12.429
1864.39	14.3958
1865.88	15.7633
1867.38	16.1494
1868.87	17.0071
1870.36	16.6904
1871.85	17.4402
1873.34	17.0671
1874.83	16.6122
1876.32	14.5546
1877.81	14.597
1879.29	14.321
1880.78	14.2631
1882.27	14.8466
1882.53	14.3426
1884.03	12.8842
1885.52	11.9557
1887.01	11.9649
1888.51	11.7655
1890	11.5615
1891.5	11.543
1892.99	11.4498
1894.48	11.6978
1895.97	11.7968
1897.47	10.9054
1898.96	9.91973
1900.45	9.61531
1901.94	8.65587
1903.43	8.12973
1904.92	7.97549
1906.41	7.33308
1907.9	7.25319
1909.39	6.67438
1910.88	6.47742
1912.37	6.28867
1913.86	6.26014
1915.35	6.12268
1916.84	6.24022
1918.33	6.49741
1919.81	8.80142
1921.3	9.7578
1922.79	10.7281
1924.28	11.3708
1925.76	12.1531
1927.25	12.2822
1928.73	13.1354
1930.22	14.051
1931.71	14.9533
1933.19	15.2297
1934.68	15.8721
1936.16	15.1814
1937.65	15.4617
1939.13	15.2155
1940.62	13.9394
1942.1	13.146
1943.58	11.0717
1945.07	11.3932
1946.55	10.5996
1948.03	10.229
1949.51	9.71986
1951	11.0634
1952.48	10.7171
1953.96	9.81984
1955.44	9.55381
1956.92	8.71311
1958.4	8.27788
1959.88	8.17045
1961.36	9.18017
1962.84	8.94289
1964.32	9.02498
1965.8	8.1968
1967.28	8.09168
1968.76	7.818
1970.24	6.58812
1971.72	5.98055
1973.2	6.06979
1974.67	6.43723
1976.15	5.44912
1977.63	4.51595
1979.1	4.76625
1980.58	5.51182
1982.06	5.97517
1983.54	6.00003
1985.01	6.89919
1986.49	7.68487
1987.96	8.20933
1989.44	9.53288
1990.91	11.6862
1992.39	12.54
1993.86	14.3018
1995.33	13.7224
1996.81	14.0888
1998.28	13.7026
1999.75	14.265
2001.23	14.2516
2002.7	14.8217
2004.17	15.4911
2005.65	16.4301
2007.12	16.1819
2008.59	16.3821
2010.06	15.5803
2011.53	15.7912
2013	15.5148
2014.47	15.0419
2015.94	15.7422
2017.41	15.5059
2018.88	14.8025
2020.35	14.3003
2021.82	12.7122
2023.29	12.7639
2024.76	12.1227
2026.23	11.3675
2027.69	12.3712
2029.16	12.1039
2030.63	12.45
2032.1	10.9834
2033.56	9.87132
2035.03	10.1626
2036.5	8.31604
2037.96	8.0066
2039.43	7.44761
2040.89	6.46289
2042.36	6.21439
2043.83	5.99176
2045.29	6.29831
2046.75	5.69335
2048.22	4.03382
2049.68	2.85498
2051.15	3.18777
2052.61	3.25082
2054.07	3.32324
2055.54	1.82225
2057	2.37597
2058.46	1.85967
2059.92	2.09246
2061.39	2.73319
2062.85	3.15843
2064.31	3.81724
2065.77	3.43552
2067.23	4.43954
2068.69	5.01365
2070.15	4.9364
2071.61	6.1757
2073.07	7.5345
2074.53	8.71921
2075.99	10.303
2077.45	10.7436
2078.91	10.9285
2080.37	11.5134
2081.82	13.1394
2083.28	13.7581
2084.74	14.6134
2086.2	14.6527
2087.65	16.1742
2089.11	15.6576
2090.57	14.3167
2092.02	13.8301
2093.48	15.7196
2094.94	16.1213
2096.39	16.2271
2097.85	16.6453
2099.3	17.0465
2100.76	17.5182
2102.21	15.7669
2103.66	15.0971
2105.12	13.7607
2106.57	13.3449
2108.03	13.1685
2109.48	11.5726
2110.93	12.2831
2112.38	11.6415
2113.84	12.1208
2115.29	13.2586
2116.74	12.992
2118.19	12.3015
2119.64	11.5625
2121.09	10.9904
2122.54	10.8335
2123.99	10.6852
2125.45	10.3338
2126.89	10.4678
2128.34	9.9079
2129.79	10.18
2131.24	10.3062
2132.69	10.9438
2134.14	10.4654
2135.59	10.1736
2137.04	11.4479
2138.48	11.8352
2139.93	12.8251
2141.38	12.9164
2142.83	13.0798
2144.27	13.6779
2145.72	14.4636
2147.17	15.7725
2148.61	16.4361
2150.06	16.5813
2151.5	18.0807
2152.95	18.2827
2154.39	18.8015
2155.84	18.3564
2157.28	17.7681
2158.73	18.5342
2160.17	18.9492
2161.61	18.5685
2163.06	18.5089
2164.5	18.734
2165.94	18.9567
2167.38	17.0673
2168.83	16.7688
2170.27	17.2354
2171.71	16.568
2173.15	15.9833
2174.59	15.9221
2176.03	16.3302
2177.47	16.2151
2178.91	16.3793
2180.36	17.2698
2181.8	18.3563
2183.23	18.9132
2184.67	19.8595
2186.11	20.2613
2187.55	19.1799
2188.99	18.4493
2190.43	18.5909
2191.87	17.4905
2193.3	16.6136
2194.74	16.7427
2196.18	17.1825
2197.62	17.9556
2199.05	17.571
2200.49	17.7535
2201.93	17.1968
2203.36	17.4512
2204.8	16.6309
2206.23	16.3647
2207.67	17.3566
2209.1	17.4098
2210.54	16.098
2211.97	16.1607
2213.41	15.828
2214.84	17.0469
2216.27	16.6994
2217.71	18.2243
2219.14	19.0181
2220.57	18.4349
2222.01	19.4062
2223.44	18.9311
2224.87	19.0616
2226.3	19.2137
2227.73	19.5861
2229.16	20.079
2230.6	21.6682
2232.03	21.9896
2233.46	22.7288
2234.89	22.0226
2236.32	22.7292
2237.75	23.5722
2239.18	24.7613
2240.61	24.727
2242.03	24.9862
2243.46	25.0544
2244.89	25.8666
2246.32	25.8986
2247.75	24.9894
2249.17	24.747
2250.6	24.8918
2252.03	24.5738
2253.46	24.5433
2254.88	23.4429
2256.31	22.9509
2257.73	22.0138
2259.16	21.8037
2260.59	21.3816
2262.01	20.983
2263.44	21.4361
2264.86	22.5726
2266.29	23.6705
2267.71	22.5257
2269.14	22.6268
2270.56	21.093
2271.98	20.3487
2273.4	19.1649
2274.83	19.2582
2276.25	19.3313
2277.67	19.1541
2279.09	19.2647
2280.52	19.3459
2281.94	20.0829
2283.36	20.2963
2284.78	21.1471
2286.2	21.6139
2287.62	20.5246
2289.04	20.7976
2290.46	19.9215
2291.88	19.154
2293.3	19.1078
2294.72	17.9791
2296.14	18.4708
2297.56	19.6499
2298.98	20.6117
2300.4	20.822
2301.82	21.8032
2303.23	22.027
2304.65	21.3149
2306.07	20.9736
2307.49	20.9313
2308.9	20.739
2310.32	20.6615
2311.73	18.2175
2313.15	18.1338
2314.57	17.0578
2315.98	17.0222
2317.4	16.3899
2318.81	17.0051
2320.23	16.7327
2321.64	17.5295
2323.06	16.7903
2324.47	15.9121
2325.88	14.0973
2327.3	13.2341
2328.71	12.6421
2330.12	12.0107
2331.54	10.4763
2332.95	11.8684
2334.36	12.1116
2335.77	11.4524
2337.18	9.52044
2338.6	7.5811
2340.01	8.45541
2341.42	7.63557
2342.83	8.85131
2344.24	9.05361
2345.65	9.11501
2347.06	8.32837
2348.47	7.97071
2349.88	7.6496
2351.29	7.32298
2352.7	5.55536
2354.1	4.32141
2355.51	4.17446
2356.92	2.76756
2358.33	2.15804
2359.74	2.40048
2361.14	2.50063
2362.55	2.85312
2363.96	4.23666
2365.36	4.88148
2366.77	4.85085
2368.18	5.89436
2369.58	5.60499
2370.99	5.59825
2372.39	6.09251
2373.8	5.56263
2375.2	5.14449
2376.61	5.31923
2378.01	5.2817
2379.42	6.46185
2380.82	5.48244
2382.22	4.70181
2383.63	6.21545
2385.03	7.36687
2386.43	8.04201
2387.84	7.89489
2389.24	7.06122
2390.64	6.83826
2392.04	6.84269
2393.44	5.24963
2394.84	5.79181
2396.25	6.26646
2397.65	7.21799
2399.05	7.10375
2400.45	7.4173
2401.85	7.94951
2403.25	9.44572
2404.65	9.00834
2406.05	8.42409
2407.45	7.67411
2408.84	8.68963
2410.24	9.84728
2411.64	9.11262
2413.04	9.0485
2414.44	7.94365
2415.83	7.14705
2417.23	5.8157
2418.63	6.32163
2420.02	5.73314
2421.42	6.06595
2422.82	6.21617
2424.21	6.26206
2425.61	6.65526
2427	7.5561
2428.4	8.14487
2429.8	8.47062
2431.19	8.47595
2432.58	8.14524
2433.98	7.86737
2435.37	7.61009
2436.77	7.44467
2438.16	8.13107
2439.55	7.71309
2440.95	7.00375
2442.34	6.516
2443.73	5.71525
2445.12	5.54899
2446.51	4.77888
2447.91	3.43883
2449.3	3.51544
2450.69	2.42487
2452.08	2.47397
2453.47	2.60729
2454.86	2.0181
2456.25	1.75788
2457.64	1.63328
2459.03	1.80904
2460.42	3.06355
2461.81	1.49275
2463.2	1.81825
2464.59	3.3926
2465.98	4.01709
2467.36	3.42229
2468.75	2.53218
2470.14	2.6715
2471.53	3.62843
2472.92	3.07256
2474.3	2.67165
2475.69	1.59897
2477.08	1.53947
2478.46	1.76901
2479.85	1.02578
2481.23	0.159249
2482.62	0.106195
2484	0.803328
2485.39	0.570964
2486.77	0.403749
2488.16	1.37595
2489.54	0.751831
2490.93	0.53886
2492.31	-0.34392
2493.69	0.0160816
2495.08	0.962413
2496.46	0.306053
2497.84	-0.0562226
2499.23	0.166201
2500.61	0.538923
2501.99	0.739994
2503.37	1.36244
2504.75	2.60408
2506.13	1.7251
2507.52	2.29072
2508.9	2.94311
2510.28	2.84466
2511.66	3.84374
2513.04	3.89278
2514.42	4.26568
2515.8	4.28181
2517.18	4.60621
2518.55	5.83394
2519.93	6.26738
2521.31	6.65218
2522.69	8.21616
2524.07	7.85767
2525.45	8.62423
2526.82	8.6422
2528.2	9.21017
2529.58	9.5054
2530.95	9.90914
2532.33	11.2022
2533.71	11.3053
2535.08	11.9241
2536.46	10.6116
2537.84	10.3873
2539.21	11.3151
2540.59	11.1899
2541.96	10.0527
2543.34	9.69272
2544.71	9.69515
2546.08	9.13992
2547.46	8.62002
2548.83	8.08811
2550.2	7.24192
2551.58	7.60618
2552.95	7.43202
2554.32	6.6697
2555.7	5.95988
2557.07	5.07646
2558.44	4.44109
2559.81	3.88696
2561.18	3.72074
2562.55	3.44638
2563.93	3.55191
2565.3	3.74067
2566.67	5.01788
2568.04	6.07807
2569.41	7.02034
2570.78	7.8287
2572.15	8.64317
2573.51	9.68665
2574.88	10.0046
2576.25	11.21
2577.62	11.9397
2578.99	11.1146
2580.36	12.1771
2581.73	12.1677
2583.09	12.3334
2584.46	11.8522
2585.83	11.8869
2587.19	12.7429
2588.56	12.565
2589.93	11.9836
2591.29	11.6496
2592.66	11.5189
2594.02	12.3806
2595.39	12.7217
2596.75	12.6463
2598.12	12.2602
2599.48	12.6328
2600.85	10.7354
2602.21	11.4856
2603.58	11.9923
2604.94	9.90603
2606.3	9.30099
2607.67	9.00164
2609.03	7.80341
2610.39	7.56847
2611.76	7.13809
2613.12	6.58473
2614.48	5.12541
2615.84	4.50559
2617.2	4.73796
2618.56	4.21218
2619.92	5.23111
2621.28	5.26621
2622.65	4.89689
2624.01	4.01438
2625.37	3.91871
2626.72	4.31582
2628.08	4.06776
2629.44	4.80662
2630.8	5.31519
2632.16	6.64464
2633.52	6.76462
2634.88	7.5979
2636.24	7.52908
2637.59	8.39457
2638.95	9.12729
2640.31	9.85641
2641.67	10.0213
2643.02	9.25953
2644.38	10.0083
2645.74	10.6201
2647.09	10.3775
2648.45	11.975
2649.8	12.5093
2651.16	12.4759
2652.51	13.175
2653.87	13.8299
2655.22	14.6852
2656.58	14.6329
2657.93	15.3141
2659.29	16.3772
2660.64	16.5793
2661.99	16.5335
2663.35	16.8042
2664.7	16.4061
2666.05	16.8958
2667.41	17.3787
2668.76	17.3548
2670.11	18.8645
2671.46	18.2201
2672.81	17.2765
2674.16	17.7017
2675.51	17.7422
2676.87	17.5231
2678.22	17.1071
2679.57	17.1558
2680.92	16.1013
2682.27	15.752
2683.62	15.3731
2684.97	15.5901
2686.31	14.7398
2687.66	14.9538
2689.01	14.3682
2690.36	13.954
2691.71	13.9856
2693.06	13.2586
2694.4	13.0888
2695.75	12.3187
2697.1	12.6799
2698.45	13.1867
2699.79	14.4686
2701.14	14.9977
2702.49	15.7483
2703.83	16.1413
2705.18	17.4943
2706.52	18.2234
2707.87	18.6546
2709.21	18.7244
2710.56	20.0589
2711.9	22.1432
2713.25	22.5929
2714.59	23.6388
2715.94	25.2302
2717.28	26.3194
2718.62	27.4623
2719.97	27.6216
2721.31	28.0179
2722.65	28.9644
2723.99	29.36
2725.34	30.4501
2726.68	30.4349
2728.02	29.5442
2729.36	30.1567
2730.7	30.233
2732.04	30.6695
2733.39	31.6258
2734.73	31.4349
2736.07	30.5815
2737.41	29.8545
2738.75	28.9505
2740.08	27.9249
2741.43	27.2971
2742.76	26.3426
2744.1	25.5824
2745.44	24.697
2746.78	23.842
2748.12	22.4286
2749.46	22.7738
2750.79	20.7533
2752.13	20.1464
2753.47	20.0412
2754.81	19.7329
2756.14	18.6234
2757.48	18.4351
2758.81	18.079
2760.15	16.7506
2761.49	15.5471
2762.82	14.6024
2764.16	14.454
2765.49	14.6291
2766.83	15.1039
2768.16	13.4673
2769.5	12.1431
2770.83	12.038
2772.16	11.6854
2773.5	11.1694
2774.83	10.8058
2776.17	10.8812
2777.5	10.7312
2778.83	9.2108
2780.16	9.16899
2781.5	8.8522
2782.83	7.21992
2784.16	6.23398
2785.49	5.71708
2786.82	4.18202
2788.15	4.01064
2789.49	3.53589
2790.82	3.34656
2792.15	2.04681
2793.48	0.566334
2794.81	0.148213
2796.14	-0.148683
2797.46	0.299173
2798.79	-0.293541
2800.12	-0.719283
2801.45	-1.42672
2802.78	-1.99492
2804.11	-2.57941
2805.44	-2.92624
2806.76	-3.05038
2808.09	-3.96643
2809.42	-4.08637
2810.75	-3.64915
2812.07	-3.54946
2813.4	-2.6961
2814.73	-0.424361
2816.05	1.62147
2817.38	3.78823
2818.7	8.13285
2820.03	12.6446
2821.36	16.0574
2822.68	20.6573
2824.01	25.8696
2825.33	30.7412
2826.65	34.9517
2827.98	41.403
2829.3	48.8572
2830.63	55.0261
2831.95	62.212
2833.27	68.8123
2834.6	74.2632
2835.92	81.8896
2837.24	91.5481
2838.56	99.6631
2839.88	109.112
2841.21	119.566
2842.53	129.006
2843.85	139.985
2845.17	150.749
2846.49	162.416
2847.81	173.681
2849.13	185.936
2850.45	199.411
2851.77	212.737
2853.09	225.259
2854.41	238.949
2855.73	250.317
2857.05	262.816
2858.37	274.122
2859.69	287.127
2861	298.989
2862.32	309.203
2863.64	319.415
2864.96	328.293
2866.28	337.852
2867.59	346.238
2868.91	353.756
2870.23	360.848
2871.54	368.299
2872.86	374.597
2874.17	381.506
2875.49	388.714
2876.81	395.134
2878.12	401.173
2879.44	407.587
2880.75	413.425
2882.07	418.848
2883.38	423.246
2884.69	427.51
2886.01	432.14
2887.32	435.009
2888.63	439.681
2889.95	443.776
2891.26	447.271
2892.57	450.857
2893.89	456.097
2895.2	459.496
2896.51	463.169
2897.82	468.512
2899.13	473.62
2900.44	479.635
2901.76	488.823
2903.07	497.107
2904.38	505.007
2905.69	515.397
2907	526.53
2908.31	537.542
2909.62	549.094
2910.93	560.147
2912.24	571.413
2913.55	584.044
2914.85	595.693
2916.16	606.887
2917.47	617.014
2918.78	626.398
2920.09	634.539
2921.4	640.731
2922.7	647.908
2924.01	652.94
2925.32	658.025
2926.62	660.93
2927.93	662.003
2929.24	662.564
2930.54	661.781
2931.85	660.435
2933.15	657.833
2934.46	654.816
2935.76	649.784
2937.07	643.908
2938.37	637.405
2939.68	630.117
2940.98	621.223
2942.29	611.59
2943.59	602.069
2944.89	591.251
2946.2	578.223
2947.5	566.299
2948.8	553.189
2950.11	541.364
2951.41	527.259
2952.71	513.144
2954.01	500.1
2955.32	485.892
2956.62	471.943
2957.92	459.732
2959.22	447.483
2960.52	433.822
2961.82	420.783
2963.12	409.411
2964.42	398.51
2965.72	386.816
2967.02	377.499
2968.32	365.737
2969.62	356.611
2970.92	347.188
2972.22	337.822
2973.51	327.565
2974.81	316.703
2976.11	307.191
2977.41	297.582
2978.71	287.772
2980	277.283
2981.3	266.133
2982.6	254.139
2983.9	243.533
2985.19	231.787
2986.49	221.24
2987.78	211.04
2989.08	200.372
2990.38	190.301
2991.67	179.52
2992.97	168.647
2994.26	158.788
2995.56	148.783
2996.85	139.508
2998.14	131.203
2999.44	121.904
3000.73	112.383
3002.03	103.668
3003.32	95.5694
3004.61	87.8475
3005.91	80.3477
3007.2	73.0608
3008.49	66.6241
3009.78	59.0137
3011.07	51.9641
3012.37	47.251
3013.66	41.5491
3014.95	36.1985
3016.24	30.5032
3017.53	26.8072
3018.82	23.7711
3020.11	20.2924
3021.4	17.9649
3022.69	15.3869
3023.98	12.6556
3025.27	10.0176
3026.56	7.58968
3027.85	6.42404
3029.14	4.75734
3030.43	2.83636
3031.71	2.48666
3033	1.46921
3034.29	1.40911
3035.58	0.632727
3036.87	1.39406
3038.15	1.04101
3039.44	1.56113
3040.73	3.09702
3042.01	3.58895
3043.3	3.94148
3044.59	4.43633
3045.87	4.78026
3047.16	5.42976
3048.44	6.63703
3049.73	8.13827
3051.01	9.64432
3052.3	10.1078
3053.58	10.4665
3054.87	10.3572
3056.15	10.5526
3057.43	10.3528
3058.72	10.4205
3060	10.1901
3061.29	11.2189
3062.57	10.6972
3063.85	9.99474
3065.13	10.1325
3066.42	9.16793
3067.7	8.59533
3068.98	8.62872
3070.26	8.39744
3071.54	8.0971
3072.82	6.68587
3074.11	5.55376
3075.39	5.95132
3076.67	5.406
3077.95	4.82535
3079.23	3.55974
3080.51	2.70122
3081.79	2.10765
3083.07	1.39225
3084.35	-0.101988
3085.63	-0.499976
3086.9	-0.935844
3088.18	-0.944414
3089.46	-2.48769
3090.74	-3.36979
3092.02	-3.73021
3093.29	-3.57531
3094.57	-3.15321
3095.85	-2.85719
3097.13	-1.52364
3098.4	-1.27776
3099.68	-0.529477
3100.95	0.8436
3102.23	1.36874
3103.51	3.15813
3104.78	3.59432
3106.06	3.3
3107.33	4.55741
3108.61	5.2378
3109.88	6.76882
3111.16	8.00708
3112.43	9.66779
3113.71	12.4797
3114.98	13.989
3116.25	15.6192
3117.53	17.5392
3118.8	18.7369
3120.07	20.934
3121.35	22.3731
3122.62	24.8553
3123.89	26.899
3125.16	29.0162
3126.44	30.159
3127.71	33.1271
3128.98	34.8211
3130.25	36.0119
3131.52	39.1301
3132.79	42.1436
3134.06	44.4625
3135.33	46.1186
3136.6	48.159
3137.87	51.1494
3139.14	53.0586
3140.41	54.0735
3141.68	55.411
3142.95	56.4042
3144.22	57.4836
3145.49	58.1544
3146.76	58.6706
3148.02	58.6098
3149.29	56.891
