#Acq. time (s)=	45
#Accumulations=	2
#Range (cm-¹)=	200...3150
#Windows=	2
#Auto scanning=	Off
#Autofocus=	Off
#Macrospot=	Off
#AutoExposure=	Off
#Spike filter=	Multiple accum.
#Delay time (s)=	0
#Binning=	1
#Readout mode=	Signal
#DeNoise=	Off
#ICS correction=	On
#Dark correction=	Off
#Inst. Process=	Off
#Detector Gain=	Best Dynamic Range
#Detector ADC=	20 kHz       
#Detector temperature (°C)=	-69.85
#Instrument=	LabRAM HR Evol
#Detector=	Synapse
#Objective=	x100
#Grating=	600 gr/mm
#ND Filter=	100%
#Laser (nm)=	532 
#Hole=	100.021
#Range=	Auto
#Laser Pol.=	No
#Raman. Pol.=	No
#Laser Pol. (°)=	-0.0007625
#Raman Pol. (°)=	89.9995
#Collection=	Microscope
#StageXY=	Marzhauser
#StageZ=	Marzhauser
#X (µm)=	-1055.8
#Y (µm)=	-2896.6
#Z (µm)=	528.4
#Full time(mm:ss)=	3:18
#Project=	
#Sample=	
#Site=	
#Title=	Mb_00_13_45_2x_45s_532 nm_x100_100%_600 gr_mm
#Remark=	
#Date=	06.07.2022 13:18
#Acquired=	06.07.2022 13:18:09
#Base:Fit=	10.08.2022 10:16:56
#Base:Sub=	10.08.2022 10:17:24
#Filter:Polynom=	16.08.2022 10:36:38
#AxisType[0]=Intens
#AxisUnit[0]=Cnt
#AxisType[1]=Spectr
#AxisUnit[1]=1/cm
200.398	33.1303
202.213	26.4255
204.027	18.1549
205.843	11.4464
207.657	0.467069
209.47	-9.50223
211.283	-16.4958
213.097	-19.6717
214.909	-18.7298
216.721	-13.8979
218.533	-6.25194
220.344	3.02817
222.157	15.7943
223.967	27.9676
225.777	41.298
227.587	56.9058
229.396	73.8689
231.205	89.5422
233.016	104.817
234.824	118.189
236.632	131.567
238.439	145.254
240.247	158.214
242.053	168.287
243.86	178.947
245.666	186.595
247.474	197.425
249.279	208.906
251.085	218.468
252.889	227.298
254.694	234.796
256.498	239.919
258.301	245.175
260.105	248.49
261.908	250.682
263.71	250.674
265.513	250.461
267.315	249.042
269.116	245.212
270.918	238.5
272.718	233.742
274.519	226.235
276.319	215.653
278.119	206.449
279.918	194.234
281.718	181.138
283.516	169.179
285.315	155.739
287.113	141.742
288.911	126.201
290.708	111.55
292.505	96.4034
294.302	84.1661
296.098	72.6065
297.894	65.918
299.69	61.0831
301.485	54.4786
303.278	48.4241
305.073	43.6835
306.867	39.9504
308.661	37.2649
310.454	33.2936
312.247	30.8604
314.04	28.0666
315.833	26.5343
317.623	25.7616
319.415	23.6014
321.206	22.0891
322.997	21.5017
324.788	21.3214
326.579	20.7834
328.367	19.8424
330.156	19.4147
331.946	17.4491
333.735	16.7871
335.523	14.7876
337.31	13.7859
339.098	14.5069
340.885	12.5089
342.673	11.9307
344.458	10.8268
346.244	9.32627
348.03	9.42647
349.816	8.93684
351.6	7.56336
353.385	5.91128
355.17	5.71276
356.953	5.18572
358.737	6.35768
360.521	6.65877
362.304	9.76431
364.085	13.0207
365.868	17.9836
367.65	23.1701
369.431	29.7942
371.212	36.1369
372.994	43.0412
374.773	48.0229
376.554	54.8218
378.332	61.0737
380.112	70.0205
381.892	80.1692
383.669	94.5441
385.448	107.982
387.225	121.277
389.003	137.003
390.781	151.275
392.557	164.117
394.334	179.224
396.109	191.94
397.885	203.004
399.66	212.701
401.436	221.354
403.211	228.908
404.984	234.639
406.759	239.784
408.532	244.082
410.306	247.882
412.078	249.32
413.851	249.41
415.623	248.4
417.395	246.616
419.166	244.479
420.938	239.104
422.708	232.884
424.477	226.243
426.248	218.076
428.017	210.44
429.788	200.222
431.556	189.861
433.326	178.039
435.093	167.584
436.86	155.807
438.629	143.224
440.395	129.149
442.163	117.543
443.929	105.448
445.694	93.4919
447.461	84.4044
449.226	72.8865
450.99	64.3431
452.756	56.5962
454.52	47.8695
456.285	39.148
458.048	32.3974
459.811	24.3583
461.573	18.1198
463.337	13.9045
465.099	12.1161
466.86	11.3436
468.623	13.1972
470.384	15.7185
472.144	18.4414
473.906	20.0541
475.666	22.5098
477.425	26.0477
479.184	28.0322
480.944	29.9267
482.703	32.0422
484.461	33.8344
486.218	35.6099
487.975	38.307
489.734	39.7459
491.491	42.9333
493.247	46.699
495.003	49.6983
496.759	54.0037
498.516	58.11
500.271	62.3134
502.025	66.1763
503.779	70.2561
505.533	72.1718
507.287	74.4976
509.042	78.2939
510.795	80.7706
512.547	83.3306
514.299	87.5979
516.051	90.2425
517.803	91.2318
519.554	92.453
521.305	95.0664
523.055	96.3873
524.805	96.3222
526.555	96.9231
528.307	96.4502
530.056	97.4663
531.805	96.7291
533.553	97.1776
535.301	96.5834
537.049	95.5018
538.797	95.989
540.544	95.084
542.291	92.5337
544.037	91.0723
545.783	88.1949
547.529	84.2556
549.275	82.1983
551.02	81.2644
552.765	78.4546
554.509	75.3097
556.253	70.9193
557.997	67.2043
559.738	65.3504
561.482	63.6948
563.224	61.5825
564.967	58.6052
566.709	55.0738
568.451	51.052
570.192	49.2215
571.933	47.7097
573.674	46.0575
575.415	44.9578
577.153	43.2751
578.893	41.4907
580.632	39.6611
582.371	38.2528
584.11	36.6681
585.849	34.8547
587.587	33.866
589.323	32.7556
591.06	31.3893
592.797	30.2101
594.534	29.0599
596.271	29.603
598.005	28.4771
599.741	27.6427
601.476	28.4314
603.211	26.4304
604.944	27.3042
606.679	28.5856
608.413	29.3441
610.147	28.5559
611.878	31.0884
613.611	30.6172
615.344	31.6251
617.077	33.0618
618.807	33.3436
620.539	35.1191
622.27	35.9242
623.999	37.5086
625.73	38.543
627.461	39.2253
629.189	40.9778
630.919	44.0041
632.648	45.6578
634.376	49.2981
636.105	52.4286
637.833	55.0962
639.559	57.6343
641.287	60.2379
643.013	62.632
644.74	65.2666
646.467	66.7203
648.192	67.2075
649.918	67.0191
651.642	67.3094
653.368	67.3027
655.091	68.1648
656.816	69.0365
658.538	67.7023
660.263	66.5095
661.987	64.1713
663.708	61.7646
665.432	59.5327
667.153	57.7302
668.875	57.061
670.596	54.4486
672.318	53.32
674.037	51.7876
675.759	49.3457
677.478	46.6401
679.196	44.1956
680.917	41.0128
682.635	38.4086
684.355	35.6557
686.072	32.3577
687.791	30.5013
689.508	28.0942
691.224	26.3948
692.942	21.7081
694.658	18.1895
696.376	15.4043
698.091	13.3661
699.805	10.2345
701.522	9.60352
703.236	7.51851
704.95	6.6134
706.665	6.72229
708.379	5.97835
710.093	5.19862
711.806	7.74844
713.518	8.43807
715.23	9.22673
716.943	10.5896
718.655	11.812
720.366	12.9952
722.078	14.1255
723.788	15.7668
725.498	16.0968
727.208	16.816
728.919	16.7956
730.628	17.9958
732.337	18.3709
734.045	19.7787
735.755	19.83
737.463	20.2093
739.17	22.0024
740.877	22.3189
742.584	22.7016
744.292	23.9369
745.998	26.5168
747.704	28.0933
749.409	31.0891
751.114	34.4241
752.819	37.3728
754.526	39.3716
756.23	41.5759
757.934	42.1972
759.637	44.0635
761.34	46.2239
763.043	46.8107
764.746	48.2407
766.448	50.4091
768.152	50.9933
769.853	53.0414
771.554	53.7085
773.255	54.513
774.956	54.4926
776.656	53.5885
778.356	54.3392
780.056	54.9379
781.755	56.144
783.454	57.0935
785.153	59.193
786.851	58.9975
788.549	60.1575
790.247	60.3606
791.944	60.5383
793.641	61.5914
795.338	60.2815
797.034	60.9199
798.73	59.4732
800.426	58.4667
802.121	58.3508
803.817	58.5123
805.511	57.5169
807.206	57.014
808.9	55.5386
810.592	53.775
812.286	53.8737
813.979	52.0876
815.672	51.5111
817.364	49.497
819.057	48.2973
820.748	47.7633
822.44	48.6488
824.129	48.7545
825.82	46.7132
827.511	49.048
829.201	50.7589
830.891	51.6908
832.581	49.9969
834.269	50.9811
835.958	50.1142
837.646	48.9117
839.335	48.4194
841.023	48.7469
842.709	47.352
844.396	47.4882
846.084	47.1432
847.77	46.9311
849.455	45.1689
851.141	44.5116
852.827	43.0511
854.513	42.0043
856.196	40.8673
857.881	39.9051
859.566	36.4365
861.248	36.1808
862.932	36.0075
864.616	33.6854
866.297	33.5258
867.98	32.4821
869.663	31.3895
871.343	29.8098
873.026	28.8427
874.707	26.7425
876.387	26.1477
878.068	24.9217
879.747	22.2424
881.428	22.3003
883.108	20.8981
884.786	19.3185
886.465	18.9336
888.143	17.3221
889.822	15.1984
891.498	14.227
893.177	10.6605
894.855	9.03368
896.53	8.65037
898.208	6.44952
899.883	7.04898
901.56	5.5923
903.234	5.95834
904.91	6.56707
906.584	7.00677
908.26	5.95027
909.933	6.01838
911.608	6.71252
913.28	5.21472
914.955	4.58602
916.627	4.40713
918.298	6.0244
919.972	6.43056
921.643	8.38683
923.315	9.32398
924.986	9.24897
926.656	8.94242
928.328	9.33792
929.997	10.8879
931.668	12.1879
933.337	11.9314
935.006	14.7127
936.676	15.314
938.344	15.5133
940.012	16.4274
941.681	15.8256
943.348	15.2124
945.014	17.387
946.683	17.7498
948.349	17.8804
950.015	17.6466
951.682	17.7579
953.347	18.7194
955.012	19.0433
956.676	16.1825
958.343	15.1982
960.006	14.1463
961.67	14.4158
963.333	16.2126
964.998	18.2334
966.661	21.0059
968.323	24.0639
969.985	26.5261
971.649	30.5441
973.31	34.8577
974.971	40.0516
976.632	44.2625
978.293	49.8726
979.953	54.6821
981.615	59.6568
983.274	64.9381
984.933	68.0603
986.592	73.1502
988.251	76.7154
989.909	80.4471
991.567	82.5379
993.225	85.2117
994.884	89.3201
996.541	93.0676
998.198	95.2567
999.855	98.6726
1001.51	101.289
1003.17	102.559
1004.82	103.044
1006.48	101.706
1008.13	99.3878
1009.79	97.8819
1011.44	97.0497
1013.1	97.2501
1014.75	98.4307
1016.4	99.3915
1018.06	102.98
1019.71	107.469
1021.36	115.459
1023.01	123.643
1024.66	132.685
1026.32	141.625
1027.97	151.427
1029.62	161.127
1031.27	169.011
1032.92	177.066
1034.57	185.032
1036.22	190.933
1037.87	196.432
1039.52	199.872
1041.16	207.548
1042.81	213.322
1044.46	218.664
1046.11	223.789
1047.76	227.03
1049.4	229.554
1051.05	231.545
1052.7	234.811
1054.34	236.08
1055.99	236.283
1057.63	234.925
1059.28	232.149
1060.92	228.073
1062.57	223.043
1064.21	217.778
1065.85	209.98
1067.5	201.587
1069.14	194.369
1070.78	185.407
1072.43	174.922
1074.07	163.767
1075.71	152.045
1077.35	139.972
1078.99	125.378
1080.63	110.544
1082.27	97.376
1083.91	82.1951
1085.55	66.673
1087.19	52.7954
1088.83	38.5608
1090.47	25.6915
1092.11	17.6814
1093.75	11.7281
1095.39	8.67536
1097.03	6.51238
1098.66	6.18622
1100.3	7.42649
1101.94	9.55734
1103.57	11.9519
1105.21	14.0178
1106.84	16.0758
1108.48	15.4164
1110.11	16.415
1111.75	15.9045
1113.38	14.9229
1115.02	14.0629
1116.65	12.1634
1118.29	10.9112
1119.92	11.8027
1121.55	10.5925
1123.19	11.4526
1124.82	10.6164
1126.45	10.6628
1128.08	11.1104
1129.71	11.2457
1131.34	11.3177
1132.97	13.7619
1134.6	14.8725
1136.23	15.0114
1137.86	17.0184
1139.49	17.1567
1141.12	17.5324
1142.75	17.4415
1144.38	17.1852
1146.01	17.8422
1147.64	16.172
1149.26	16.8192
1150.89	16.5555
1152.52	14.6404
1154.15	12.9871
1155.77	11.3741
1157.4	10.4615
1159.02	8.18505
1160.65	5.84926
1162.27	4.25369
1163.9	3.19491
1165.52	2.3898
1167.15	0.852789
1168.77	0.297564
1170.39	1.08184
1172.02	2.69569
1173.64	4.32678
1175.26	5.70319
1176.89	7.8331
1178.51	9.04286
1180.13	11.0339
1181.75	12.6625
1183.37	15.6026
1184.99	16.0544
1186.61	18.1419
1188.23	18.4335
1189.85	18.931
1191.47	21.5386
1193.09	23.2752
1194.71	25.7892
1196.33	28.4201
1197.94	31.9826
1199.56	35.1528
1201.18	40.2241
1202.8	41.5677
1204.41	43.8429
1206.03	47.5302
1207.65	51.1259
1209.26	54.19
1210.88	58.7384
1212.49	64.7098
1214.11	68.7168
1215.72	72.6623
1217.34	77.4737
1218.95	80.5311
1220.57	82.9352
1222.18	86.8367
1223.79	89.9767
1225.41	93.0265
1227.02	97.4492
1228.63	98.7765
1230.24	102.112
1231.85	103.324
1233.47	105.288
1235.08	106.654
1236.69	107.154
1238.3	109.833
1239.91	110.071
1241.52	111.304
1243.13	110.223
1244.74	110.945
1246.34	111.681
1247.95	111.371
1249.56	113.601
1251.17	114.142
1252.78	112.986
1254.38	111.745
1255.99	111.272
1257.6	110.332
1259.2	108.482
1260.81	107.205
1262.42	107.11
1264.02	106.061
1265.63	104.389
1267.23	104.493
1268.84	103.018
1270.44	102.658
1272.04	101.837
1273.65	101.514
1275.25	101.089
1276.85	102.155
1278.46	102.569
1280.06	103.018
1281.66	105.002
1283.26	104.763
1284.86	107
1286.46	111.372
1288.07	113.763
1289.67	117.409
1291.27	120.915
1292.87	122.838
1294.47	123.072
1296.06	126.259
1297.66	128.782
1299.26	130.243
1300.86	133.565
1302.46	137.118
1304.06	138.757
1305.65	141.182
1307.25	143.525
1308.85	145.003
1310.44	148.469
1312.04	150.386
1313.64	152.694
1315.23	154.866
1316.83	159.057
1318.42	161.638
1320.02	160.727
1321.61	160.087
1323.2	158.281
1324.8	159.887
1326.39	158.576
1327.99	157.619
1329.58	158.33
1331.17	156.004
1332.76	154.541
1334.36	152.776
1335.95	151.72
1337.54	150.945
1339.13	151.192
1340.72	149.659
1342.31	149.257
1343.9	147.535
1345.49	145.853
1347.08	144.004
1348.67	142.766
1350.26	141.198
1351.85	139.442
1353.43	137.916
1355.02	136.112
1356.61	134.548
1358.2	132.939
1359.78	131.276
1361.37	130.054
1362.96	128.67
1364.54	127.962
1366.13	126.99
1367.71	124.025
1369.3	121.984
1370.88	119.291
1372.47	117.688
1374.05	115.227
1375.64	114.099
1377.22	112.957
1378.8	111.685
1380.39	110.487
1381.97	109.028
1383.55	108.779
1385.13	108.663
1386.72	108.734
1388.3	108.33
1389.88	106.638
1391.46	106.074
1393.04	104.156
1394.62	102.518
1396.2	100.894
1397.78	98.2254
1399.36	95.8458
1400.94	96.5972
1402.52	96.0788
1404.1	99.737
1405.68	102.385
1407.25	105.469
1408.83	109.884
1410.41	112.055
1411.98	116.62
1413.56	122.044
1415.14	129.965
1416.71	136.775
1418.29	144.322
1419.87	151.752
1421.44	160.764
1423.02	167.369
1424.59	175.088
1426.16	183.249
1427.74	190.925
1429.31	198.4
1430.89	205.99
1432.46	213.394
1434.03	220.903
1435.6	228.833
1437.18	236.226
1438.75	241.85
1440.32	247.019
1441.89	251.203
1443.46	255.145
1445.03	256.715
1446.6	260.05
1448.17	261.018
1449.74	260.985
1451.31	261.224
1452.88	259.323
1454.45	256.69
1456.02	253.469
1457.59	249.672
1459.16	244.102
1460.72	238.92
1462.29	233.869
1463.86	226.396
1465.43	218.107
1466.99	209.195
1468.56	201.002
1470.13	191.814
1471.69	183.242
1473.26	175.855
1474.82	169.471
1476.38	161.434
1477.95	152.834
1479.51	146.148
1481.08	138.777
1482.64	133.088
1484.2	125.481
1485.77	117.562
1487.33	112.521
1488.89	106.288
1490.46	102.95
1492.02	99.1423
1493.58	96.5962
1495.14	92.6182
1496.7	88.9313
1498.26	85.9458
1499.82	82.174
1501.38	80.3236
1502.94	80.0038
1504.5	78.4069
1506.06	76.9753
1507.62	75.8263
1509.18	75.1833
1510.73	74.3649
1512.29	74.4918
1513.85	74.2519
1515.41	72.192
1516.96	72.4993
1518.52	70.5714
1520.08	69.3164
1521.63	69.7078
1523.19	68.574
1524.75	69.1736
1526.3	67.6998
1527.85	66.8296
1529.41	66.7371
1530.96	65.5448
1532.52	65.3023
1534.07	67.4952
1535.62	68.5241
1537.18	69.8875
1538.73	72.2973
1540.28	73.0298
1541.84	72.9915
1543.39	73.3681
1544.94	75.5111
1546.49	76.8592
1548.04	77.6908
1549.59	80.3818
1551.14	82.4048
1552.69	84.2958
1554.25	84.2677
1555.79	87.1155
1557.34	87.4181
1558.89	88.9994
1560.44	88.96
1561.99	89.8839
1563.54	91.0032
1565.08	93.67
1566.63	97.4171
1568.18	99.6428
1569.73	102.879
1571.27	105.998
1572.82	110.08
1574.37	112.751
1575.91	116.983
1577.46	121.272
1579	125.89
1580.55	129.823
1582.09	133.253
1583.64	136.889
1585.18	141.141
1586.73	145.28
1588.27	148.047
1589.81	151.433
1591.35	153.069
1592.9	154.633
1594.44	156.867
1595.98	156.068
1597.52	158.009
1599.06	158.824
1600.61	158.927
1602.15	159.543
1603.69	159.963
1605.23	159.488
1606.77	159.112
1608.31	158.762
1609.85	158.667
1611.39	158.44
1612.93	157.837
1614.46	156.689
1616	154.233
1617.54	153.495
1619.08	151.81
1620.61	151.058
1622.15	150.193
1623.69	148.521
1625.23	148.078
1626.76	148.742
1628.3	148.13
1629.83	146.15
1631.37	145.774
1632.9	146.237
1634.44	145.069
1635.97	146.934
1637.51	147.219
1639.04	149.025
1640.57	151.505
1642.11	155.088
1643.64	157.408
1645.17	158.539
1646.71	161.73
1648.24	163.163
1649.77	163.95
1651.3	163.433
1652.83	163.851
1654.36	166.391
1655.89	167.909
1657.42	166.692
1658.96	166.292
1660.48	165.978
1662.01	164.592
1663.54	161.648
1665.07	157.945
1666.6	155.436
1668.13	151.973
1669.66	149.233
1671.19	144.97
1672.71	139.911
1674.24	135.976
1675.77	130.609
1677.29	127.03
1678.82	121.951
1680.35	115.676
1681.87	109.693
1683.4	103.155
1684.92	97.8685
1686.45	93.3668
1687.97	87.9446
1689.5	82.1526
1691.02	75.4423
1692.54	69.1483
1694.07	65.6538
1695.59	59.7271
1697.11	55.4609
1698.64	52.609
1700.16	49.4896
1701.68	48.3378
1703.2	45.0012
1704.72	42.317
1706.25	40.2796
1707.77	37.6616
1709.29	35.1299
1710.81	32.3754
1712.33	30.0036
1713.85	27.9892
1715.37	26.3634
1716.89	25.2215
1718.41	23.7789
1719.92	21.3033
1721.44	19.1513
1722.96	17.5599
1724.48	14.7105
1725.99	13.1333
1727.51	13.4121
1729.03	13.4107
1730.55	13.2503
1732.06	11.8622
1733.58	9.52313
1735.09	10.4257
1736.61	9.17975
1738.13	7.5175
1739.64	7.07506
1741.15	6.92023
1742.67	7.81784
1744.18	5.93917
1745.7	5.7533
1747.21	5.33977
1748.72	5.32907
1750.24	4.95493
1751.75	5.01241
1753.26	5.35878
1754.77	5.0965
1756.29	4.35866
1757.8	4.73716
1759.31	3.56137
1760.82	3.59457
1762.33	3.60918
1763.84	2.42292
1765.35	2.34594
1766.86	2.50934
1768.37	3.17144
1769.88	4.44783
1771.39	4.59167
1772.9	5.0971
1774.4	6.95235
1775.91	6.01122
1777.42	6.35873
1778.93	4.94213
1780.44	4.90463
1781.94	3.31795
1783.45	2.41996
1784.96	2.75489
1786.46	2.50548
1787.97	2.58642
1789.47	3.15567
1790.98	3.65417
1792.48	2.90785
1793.99	2.99202
1795.49	3.25436
1797	2.90846
1798.5	3.76473
1800.01	3.47122
1801.51	3.85021
1803.01	3.98647
1804.51	3.93703
1806.02	4.81502
1807.52	6.06949
1809.02	6.17777
1810.52	6.88625
1812.02	7.04687
1813.52	7.03742
1815.02	7.20019
1816.53	7.71795
1818.03	7.88902
1819.52	7.95811
1821.02	8.72156
1822.52	9.20465
1824.02	8.53426
1825.52	8.1933
1827.02	9.95851
1828.52	9.34774
1830.02	9.20144
1831.51	8.97776
1833.01	9.28106
1834.51	8.92171
1836.01	8.93163
1837.5	9.27886
1839	9.40236
1840.49	10.21
1841.99	9.87552
1843.49	9.2025
1844.98	8.82639
1846.48	9.32617
1847.97	9.24642
1849.47	9.2624
1850.96	8.9815
1852.45	8.86953
1853.95	9.32951
1855.44	9.68966
1856.93	10.0025
1858.42	9.66074
1859.92	9.02379
1861.41	8.5738
1862.9	9.23217
1864.39	8.01858
1865.88	8.22594
1867.38	6.66154
1868.87	7.49997
1870.36	7.42576
1871.85	7.49925
1873.34	7.70744
1874.83	8.12274
1876.32	8.66374
1877.81	10.001
1879.29	10.233
1880.78	10.9291
1882.27	10.0854
1882.53	9.99765
1884.03	11.2504
1885.52	12.4667
1887.01	12.8382
1888.51	13.209
1890	14.7041
1891.5	15.4988
1892.99	16.3749
1894.48	16.0144
1895.97	15.4318
1897.47	15.4223
1898.96	15.1676
1900.45	15.2608
1901.94	14.939
1903.43	16.5146
1904.92	17.0171
1906.41	17.8187
1907.9	16.7646
1909.39	16.771
1910.88	16.6784
1912.37	15.2296
1913.86	14.4007
1915.35	14.6113
1916.84	13.9616
1918.33	14.6931
1919.81	14.6091
1921.3	13.9222
1922.79	14.3793
1924.28	13.9433
1925.76	13.1266
1927.25	12.9982
1928.73	11.6405
1930.22	9.72741
1931.71	7.7445
1933.19	7.15245
1934.68	8.0615
1936.16	8.07628
1937.65	6.87099
1939.13	8.28189
1940.62	7.50376
1942.1	8.29497
1943.58	7.38427
1945.07	7.07198
1946.55	6.89563
1948.03	6.14298
1949.51	5.974
1951	5.22654
1952.48	4.63315
1953.96	5.47679
1955.44	6.05474
1956.92	7.07866
1958.4	7.72914
1959.88	7.04815
1961.36	6.65084
1962.84	7.30809
1964.32	7.46242
1965.8	6.77767
1967.28	6.98892
1968.76	5.53845
1970.24	5.96289
1971.72	7.36543
1973.2	7.02244
1974.67	8.617
1976.15	9.80391
1977.63	10.3082
1979.1	10.9571
1980.58	11.4775
1982.06	11.0477
1983.54	12.2332
1985.01	12.7807
1986.49	12.4377
1987.96	14.1854
1989.44	14.7072
1990.91	15.0926
1992.39	16.4061
1993.86	16.4924
1995.33	17.7539
1996.81	19.6834
1998.28	19.7065
1999.75	20.9406
2001.23	21.436
2002.7	22.7114
2004.17	23.613
2005.65	23.8956
2007.12	24.438
2008.59	25.4167
2010.06	23.6959
2011.53	23.6464
2013	23.1107
2014.47	22.563
2015.94	21.9903
2017.41	21.2121
2018.88	22.1229
2020.35	21.5251
2021.82	20.6688
2023.29	21.4151
2024.76	21.439
2026.23	21.6139
2027.69	21.4523
2029.16	21.4054
2030.63	20.3641
2032.1	20.8934
2033.56	21.4052
2035.03	21.8047
2036.5	21.1611
2037.96	21.3178
2039.43	21.1862
2040.89	21.3177
2042.36	21.4543
2043.83	22.2643
2045.29	22.3838
2046.75	22.3555
2048.22	23.6726
2049.68	23.0086
2051.15	23.5988
2052.61	24.4191
2054.07	23.3094
2055.54	23.4328
2057	24.0653
2058.46	24.9847
2059.92	24.3458
2061.39	24.7919
2062.85	24.2057
2064.31	24.5797
2065.77	24.5484
2067.23	25.0552
2068.69	25.4442
2070.15	25.0363
2071.61	23.4071
2073.07	22.6755
2074.53	22.3892
2075.99	21.7558
2077.45	20.6687
2078.91	20.7529
2080.37	21.2529
2081.82	21.1985
2083.28	21.6542
2084.74	22.3164
2086.2	21.8958
2087.65	22.3201
2089.11	22.3137
2090.57	23.1045
2092.02	23.7058
2093.48	24.4623
2094.94	25.6086
2096.39	25.5933
2097.85	26.754
2099.3	26.7051
2100.76	26.8377
2102.21	27.1527
2103.66	26.8718
2105.12	27.3196
2106.57	26.5262
2108.03	24.8866
2109.48	24.8519
2110.93	25.609
2112.38	25.2215
2113.84	24.8955
2115.29	25.501
2116.74	24.3609
2118.19	24.2545
2119.64	23.1669
2121.09	22.564
2122.54	22.045
2123.99	21.463
2125.45	21.0093
2126.89	19.7838
2128.34	19.5414
2129.79	20.1156
2131.24	19.9844
2132.69	18.2625
2134.14	17.3368
2135.59	15.9303
2137.04	15.9293
2138.48	15.6513
2139.93	16.0431
2141.38	15.345
2142.83	14.6449
2144.27	13.8425
2145.72	15.4738
2147.17	17.3208
2148.61	16.0827
2150.06	17.0201
2151.5	17.1111
2152.95	16.1811
2154.39	15.8904
2155.84	16.7585
2157.28	16.626
2158.73	17.0537
2160.17	18.5457
2161.61	20.1178
2163.06	20.9005
2164.5	22.2958
2165.94	22.8674
2167.38	23.2177
2168.83	23.1216
2170.27	23.4843
2171.71	22.4563
2173.15	21.8752
2174.59	21.5679
2176.03	21.4205
2177.47	21.3689
2178.91	20.3451
2180.36	21.5126
2181.8	22.2083
2183.23	23.2052
2184.67	23.3096
2186.11	22.433
2187.55	23.2388
2188.99	22.3651
2190.43	21.8857
2191.87	22.0652
2193.3	23.031
2194.74	23.4079
2196.18	23.6644
2197.62	24.7379
2199.05	24.9632
2200.49	26.0323
2201.93	27.2865
2203.36	26.0203
2204.8	26.2337
2206.23	26.0344
2207.67	26.7226
2209.1	27.1385
2210.54	27.0055
2211.97	27.5162
2213.41	27.1416
2214.84	27.7621
2216.27	28.2213
2217.71	29.3027
2219.14	28.6148
2220.57	27.7027
2222.01	28.0629
2223.44	27.6186
2224.87	27.7722
2226.3	29.2472
2227.73	29.5293
2229.16	29.7342
2230.6	30.632
2232.03	31.0801
2233.46	30.9945
2234.89	31.0118
2236.32	31.2725
2237.75	29.1949
2239.18	29.4247
2240.61	28.7422
2242.03	27.642
2243.46	26.9189
2244.89	26.21
2246.32	25.1822
2247.75	24.9249
2249.17	24.6265
2250.6	23.7763
2252.03	24.4634
2253.46	22.9023
2254.88	23.4377
2256.31	22.4358
2257.73	22.0055
2259.16	22.2086
2260.59	21.658
2262.01	22.3494
2263.44	22.7758
2264.86	21.8952
2266.29	21.6579
2267.71	20.9829
2269.14	20.326
2270.56	19.968
2271.98	19.0137
2273.4	17.6501
2274.83	17.0933
2276.25	17.0865
2277.67	16.1968
2279.09	15.3609
2280.52	14.4561
2281.94	13.817
2283.36	13.6366
2284.78	13.8682
2286.2	14.0488
2287.62	13.8767
2289.04	12.8914
2290.46	12.2553
2291.88	12.0504
2293.3	12.1381
2294.72	13.5652
2296.14	14.347
2297.56	15.2379
2298.98	15.8321
2300.4	16.7612
2301.82	18.2369
2303.23	19.1543
2304.65	19.5545
2306.07	19.3065
2307.49	19.3557
2308.9	19.5793
2310.32	20.7392
2311.73	20.5772
2313.15	20.3334
2314.57	20.784
2315.98	20.7142
2317.4	20.979
2318.81	21.1051
2320.23	20.6271
2321.64	20.4447
2323.06	19.6804
2324.47	20.783
2325.88	21.2041
2327.3	20.4219
2328.71	20.5515
2330.12	20.1431
2331.54	19.0697
2332.95	17.9988
2334.36	16.5827
2335.77	15.9097
2337.18	15.6415
2338.6	14.1895
2340.01	14.5434
2341.42	12.8529
2342.83	10.7678
2344.24	9.9178
2345.65	9.29425
2347.06	6.88471
2348.47	6.27142
2349.88	4.86273
2351.29	4.18256
2352.7	3.55866
2354.1	3.51228
2355.51	3.1424
2356.92	3.53703
2358.33	3.00196
2359.74	2.09908
2361.14	3.49024
2362.55	3.4095
2363.96	4.81526
2365.36	5.20582
2366.77	5.87532
2368.18	5.95084
2369.58	6.96929
2370.99	6.85474
2372.39	6.79598
2373.8	6.52585
2375.2	5.26219
2376.61	5.53138
2378.01	6.82716
2379.42	7.66829
2380.82	6.6332
2382.22	5.47741
2383.63	5.07316
2385.03	4.89355
2386.43	4.7533
2387.84	5.33215
2389.24	4.93692
2390.64	4.88323
2392.04	4.77335
2393.44	4.30175
2394.84	5.5534
2396.25	3.70079
2397.65	4.78224
2399.05	4.81143
2400.45	4.43691
2401.85	3.49769
2403.25	3.83938
2404.65	3.75719
2406.05	4.50369
2407.45	4.68413
2408.84	4.25155
2410.24	4.33592
2411.64	2.9835
2413.04	4.20092
2414.44	4.59758
2415.83	4.92254
2417.23	4.92533
2418.63	6.51356
2420.02	5.4626
2421.42	6.24058
2422.82	7.26377
2424.21	7.98208
2425.61	8.6903
2427	8.72515
2428.4	8.47282
2429.8	8.64105
2431.19	9.65407
2432.58	8.27061
2433.98	9.3652
2435.37	9.10182
2436.77	8.62669
2438.16	7.90625
2439.55	7.82682
2440.95	7.4557
2442.34	7.13428
2443.73	7.62349
2445.12	7.58565
2446.51	7.08339
2447.91	6.44774
2449.3	5.26162
2450.69	3.65896
2452.08	3.2418
2453.47	4.34678
2454.86	4.50878
2456.25	4.18557
2457.64	3.72823
2459.03	2.73174
2460.42	1.50687
2461.81	0.747854
2463.2	0.415269
2464.59	-0.0629784
2465.98	-1.21099
2467.36	-0.268683
2468.75	-1.7545
2470.14	-1.3934
2471.53	-2.5806
2472.92	-1.56986
2474.3	-1.63861
2475.69	-0.579652
2477.08	-0.931707
2478.46	-0.791081
2479.85	-0.723123
2481.23	-0.526499
2482.62	-0.874626
2484	-1.87277
2485.39	-1.1341
2486.77	-1.94646
2488.16	-1.85479
2489.54	-2.76082
2490.93	-1.01945
2492.31	-0.436801
2493.69	-0.110914
2495.08	-1.21831
2496.46	-1.4248
2497.84	-0.914769
2499.23	-1.54519
2500.61	-1.19831
2501.99	-0.544923
2503.37	0.705053
2504.75	0.217476
2506.13	-0.560088
2507.52	-0.323056
2508.9	-0.48722
2510.28	-0.583015
2511.66	-0.375624
2513.04	-0.538759
2514.42	-0.266662
2515.8	-0.878927
2517.18	-0.493466
2518.55	-0.0644538
2519.93	-0.23028
2521.31	-0.592399
2522.69	0.294591
2524.07	0.0239303
2525.45	0.140407
2526.82	-0.0542814
2528.2	0.516646
2529.58	0.715497
2530.95	1.27346
2532.33	2.18686
2533.71	3.6617
2535.08	4.44909
2536.46	5.42924
2537.84	5.58226
2539.21	6.36146
2540.59	6.55491
2541.96	7.19819
2543.34	7.40282
2544.71	8.0275
2546.08	7.81181
2547.46	8.87817
2548.83	7.97398
2550.2	7.76573
2551.58	7.51422
2552.95	7.84806
2554.32	9.17745
2555.7	8.89653
2557.07	10.4372
2558.44	9.7979
2559.81	10.3102
2561.18	9.74738
2562.55	9.49418
2563.93	9.56524
2565.3	9.87777
2566.67	9.48905
2568.04	9.53166
2569.41	9.67241
2570.78	9.7382
2572.15	7.42194
2573.51	7.31126
2574.88	6.90534
2576.25	6.54852
2577.62	6.56854
2578.99	6.49932
2580.36	7.57342
2581.73	6.03284
2583.09	5.5275
2584.46	4.2783
2585.83	4.20108
2587.19	3.19286
2588.56	2.99088
2589.93	3.42041
2591.29	3.68177
2592.66	2.89474
2594.02	3.14967
2595.39	3.98476
2596.75	4.21733
2598.12	3.46457
2599.48	3.43868
2600.85	4.0429
2602.21	4.55292
2603.58	3.70453
2604.94	3.4935
2606.3	3.29069
2607.67	3.23093
2609.03	3.21577
2610.39	3.22728
2611.76	3.82804
2613.12	4.72632
2614.48	4.41781
2615.84	4.61262
2617.2	3.46735
2618.56	4.06647
2619.92	5.16238
2621.28	6.0953
2622.65	6.97878
2624.01	7.48525
2625.37	7.78903
2626.72	7.56605
2628.08	10.0039
2629.44	10.7212
2630.8	11.5779
2632.16	12.207
2633.52	11.5807
2634.88	12.1909
2636.24	12.4322
2637.59	12.5344
2638.95	13.812
2640.31	13.5564
2641.67	15.1671
2643.02	14.8431
2644.38	14.9963
2645.74	15.4515
2647.09	15.9394
2648.45	16.0398
2649.8	14.4466
2651.16	14.3198
2652.51	14.7492
2653.87	14.6855
2655.22	14.6487
2656.58	14.8997
2657.93	13.7295
2659.29	12.6816
2660.64	12.2831
2661.99	11.8653
2663.35	11.4719
2664.7	11.0552
2666.05	11.046
2667.41	11.8539
2668.76	11.8658
2670.11	11.4596
2671.46	11.0601
2672.81	10.2304
2674.16	9.83286
2675.51	9.77598
2676.87	9.94943
2678.22	9.66383
2679.57	9.58021
2680.92	9.24469
2682.27	9.13076
2683.62	8.89243
2684.97	9.53714
2686.31	10.3344
2687.66	9.69328
2689.01	10.2982
2690.36	10.1595
2691.71	10.186
2693.06	10.0866
2694.4	11.0037
2695.75	10.5799
2697.1	9.95359
2698.45	10.3128
2699.79	10.1664
2701.14	11.1124
2702.49	12.4813
2703.83	13.4356
2705.18	15.2427
2706.52	16.8417
2707.87	17.2137
2709.21	18.2803
2710.56	18.709
2711.9	18.6141
2713.25	19.017
2714.59	18.715
2715.94	19.2793
2717.28	19.465
2718.62	20.1839
2719.97	20.5241
2721.31	21.1181
2722.65	21.1081
2723.99	20.2914
2725.34	19.5696
2726.68	20.0705
2728.02	20.5636
2729.36	20.2552
2730.7	20.7511
2732.04	20.8139
2733.39	21.0426
2734.73	21.0095
2736.07	20.6493
2737.41	19.5929
2738.75	18.9946
2740.08	18.3134
2741.43	18.547
2742.76	17.2058
2744.1	17.2148
2745.44	15.996
2746.78	15.0504
2748.12	14.4317
2749.46	14.1181
2750.79	12.0311
2752.13	11.064
2753.47	9.59473
2754.81	8.17723
2756.14	8.65117
2757.48	6.10776
2758.81	5.66451
2760.15	5.94288
2761.49	4.89108
2762.82	4.01297
2764.16	4.88519
2765.49	4.29448
2766.83	3.78502
2768.16	4.09522
2769.5	3.88024
2770.83	3.899
2772.16	2.89506
2773.5	2.80412
2774.83	1.92369
2776.17	1.29081
2777.5	0.785151
2778.83	-0.176364
2780.16	-0.472947
2781.5	-0.489752
2782.83	1.05685
2784.16	0.0405011
2785.49	-0.203894
2786.82	-0.743809
2788.15	-0.292867
2789.49	-1.00205
2790.82	-0.708223
2792.15	-1.45831
2793.48	-1.11557
2794.81	-1.68218
2796.14	-1.58226
2797.46	-0.820491
2798.79	-0.563614
2800.12	0.345557
2801.45	-0.404495
2802.78	-0.375921
2804.11	-0.942906
2805.44	-0.330594
2806.76	-0.611984
2808.09	-1.34379
2809.42	-2.29023
2810.75	-1.53033
2812.07	-1.93626
2813.4	-0.689121
2814.73	2.05201
2816.05	3.38785
2817.38	5.56582
2818.7	9.00737
2820.03	13.4464
2821.36	17.4261
2822.68	21.8262
2824.01	24.8159
2825.33	29.9093
2826.65	34.2522
2827.98	39.5902
2829.3	45.4215
2830.63	50.5026
2831.95	55.2904
2833.27	61.508
2834.6	67.496
2835.92	74.5818
2837.24	81.304
2838.56	89.0301
2839.88	97.7057
2841.21	105.711
2842.53	114.881
2843.85	125.271
2845.17	134.995
2846.49	146.5
2847.81	158.517
2849.13	170.025
2850.45	180.535
2851.77	194.007
2853.09	206.291
2854.41	217.802
2855.73	229.734
2857.05	240.403
2858.37	251.281
2859.69	262.644
2861	273.093
2862.32	283.878
2863.64	293.961
2864.96	302.799
2866.28	311.424
2867.59	319.255
2868.91	326.921
2870.23	333.224
2871.54	339.909
2872.86	346.263
2874.17	352.822
2875.49	358.843
2876.81	364.887
2878.12	370.917
2879.44	376.777
2880.75	382.15
2882.07	385.712
2883.38	390.35
2884.69	394.453
2886.01	399.139
2887.32	401.099
2888.63	403.075
2889.95	405.414
2891.26	409.641
2892.57	413.485
2893.89	416.942
2895.2	420.795
2896.51	425.241
2897.82	430.405
2899.13	436.352
2900.44	442.744
2901.76	451.441
2903.07	458.312
2904.38	467.891
2905.69	477.483
2907	489.302
2908.31	500.187
2909.62	513.838
2910.93	525.404
2912.24	538.947
2913.55	551.227
2914.85	562.908
2916.16	574.507
2917.47	586.807
2918.78	595.818
2920.09	604.984
2921.4	613.882
2922.7	620.016
2924.01	626.645
2925.32	631.399
2926.62	635.468
2927.93	638.54
2929.24	640.413
2930.54	640.815
2931.85	640.057
2933.15	638.386
2934.46	634.855
2935.76	631.058
2937.07	626.794
2938.37	620.52
2939.68	613.011
2940.98	605.005
2942.29	596.106
2943.59	586.503
2944.89	575.556
2946.2	563.77
2947.5	551.397
2948.8	538.133
2950.11	525.295
2951.41	512.578
2952.71	497.497
2954.01	485.003
2955.32	472.795
2956.62	459.652
2957.92	446.28
2959.22	433.807
2960.52	421.63
2961.82	408.653
2963.12	396.188
2964.42	384.725
2965.72	373.953
2967.02	364.528
2968.32	353.494
2969.62	345.077
2970.92	336.461
2972.22	328.036
2973.51	317.839
2974.81	309.539
2976.11	299.726
2977.41	290.541
2978.71	280.951
2980	271.568
2981.3	261.513
2982.6	252.029
2983.9	242.12
2985.19	232.426
2986.49	222.15
2987.78	210.878
2989.08	200.874
2990.38	190.678
2991.67	180.748
2992.97	170.876
2994.26	161.367
2995.56	152.325
2996.85	143.329
2998.14	134.842
2999.44	126.509
3000.73	117.622
3002.03	108.857
3003.32	100.159
3004.61	92.4703
3005.91	85.0218
3007.2	76.6186
3008.49	70.1474
3009.78	62.7435
3011.07	55.8899
3012.37	49.3576
3013.66	43.1821
3014.95	38.7852
3016.24	33.5221
3017.53	27.9833
3018.82	23.5238
3020.11	18.9256
3021.4	15.0699
3022.69	13.0675
3023.98	10.4304
3025.27	7.90437
3026.56	6.06269
3027.85	4.17676
3029.14	3.26269
3030.43	2.75401
3031.71	2.12936
3033	0.950987
3034.29	0.312259
3035.58	-0.42674
3036.87	-0.80626
3038.15	0.100014
3039.44	1.086
3040.73	1.86386
3042.01	2.26253
3043.3	3.13096
3044.59	3.99436
3045.87	4.6922
3047.16	6.39032
3048.44	6.65871
3049.73	5.98363
3051.01	6.69769
3052.3	6.4048
3053.58	7.79663
3054.87	8.13785
3056.15	9.16154
3057.43	9.70138
3058.72	10.8015
3060	12.0561
3061.29	11.6696
3062.57	11.4099
3063.85	10.7994
3065.13	9.58306
3066.42	9.58047
3067.7	9.04113
3068.98	9.02252
3070.26	8.86745
3071.54	8.99581
3072.82	8.67981
3074.11	6.87409
3075.39	6.68907
3076.67	6.53102
3077.95	6.26705
3079.23	5.79736
3080.51	4.59893
3081.79	4.28489
3083.07	4.16592
3084.35	4.10693
3085.63	4.96228
3086.9	5.94078
3088.18	4.98082
3089.46	4.53338
3090.74	4.32419
3092.02	3.65228
3093.29	4.05744
3094.57	4.09692
3095.85	4.6901
3097.13	5.24442
3098.4	5.19798
3099.68	6.24903
3100.95	7.53258
3102.23	8.67543
3103.51	9.3576
3104.78	10.3447
3106.06	11.6827
3107.33	12.6082
3108.61	14.0505
3109.88	15.7609
3111.16	16.7624
3112.43	17.9386
3113.71	19.7747
3114.98	22.4245
3116.25	23.7671
3117.53	26.0533
3118.8	27.3916
3120.07	29.5211
3121.35	31.0326
3122.62	33.1537
3123.89	34.3696
3125.16	35.2107
3126.44	37.4426
3127.71	38.4563
3128.98	40.4266
3130.25	42.8179
3131.52	44.6891
3132.79	47.3487
3134.06	49.5537
3135.33	51.3092
3136.6	52.2075
3137.87	54.4951
3139.14	56.4678
3140.41	57.6124
3141.68	58.5167
3142.95	59.5631
3144.22	60.5657
3145.49	61.1535
3146.76	61.6829
3148.02	61.6848
3149.29	59.3056
