#Acq. time (s)=	45
#Accumulations=	2
#Range (cm-¹)=	200...3150
#Windows=	2
#Auto scanning=	Off
#Autofocus=	Off
#Macrospot=	Off
#AutoExposure=	Off
#Spike filter=	Multiple accum.
#Delay time (s)=	0
#Binning=	1
#Readout mode=	Signal
#DeNoise=	Off
#ICS correction=	On
#Dark correction=	Off
#Inst. Process=	Off
#Detector Gain=	Best Dynamic Range
#Detector ADC=	20 kHz       
#Detector temperature (°C)=	-69.85
#Instrument=	LabRAM HR Evol
#Detector=	Synapse
#Objective=	x100
#Grating=	600 gr/mm
#ND Filter=	100%
#Laser (nm)=	532 
#Hole=	100.021
#Range=	Auto
#Laser Pol.=	No
#Raman. Pol.=	No
#Laser Pol. (°)=	-0.0007625
#Raman Pol. (°)=	89.9995
#Collection=	Microscope
#StageXY=	Marzhauser
#StageZ=	Marzhauser
#X (µm)=	-977.2
#Y (µm)=	-2935.3
#Z (µm)=	527.55
#Full time(mm:ss)=	3:18
#Project=	
#Sample=	
#Site=	
#Title=	Mb_00_13_02_2x_45s_532 nm_x100_100%_600 gr_mm
#Remark=	
#Date=	06.07.2022 09:50
#Acquired=	06.07.2022 09:50:24
#Base:Fit=	10.08.2022 10:16:36
#Base:Fit=	10.08.2022 10:16:56
#Base:Sub=	10.08.2022 10:17:24
#Filter:Polynom=	16.08.2022 10:36:38
#AxisType[0]=Intens
#AxisUnit[0]=Cnt
#AxisType[1]=Spectr
#AxisUnit[1]=1/cm
200.398	19.6618
202.213	16.641
204.027	12.7826
205.843	8.68895
207.657	5.87679
209.47	3.4007
211.283	1.62491
213.097	0.932124
214.909	0.453936
216.721	2.96624
218.533	6.5158
220.344	9.16539
222.157	11.526
223.967	14.029
225.777	18.1678
227.587	21.9965
229.396	27.2949
231.205	31.808
233.016	35.139
234.824	38.3701
236.632	41.9215
238.439	45.2365
240.247	47.7875
242.053	49.6052
243.86	52.275
245.666	55.3928
247.474	57.4773
249.279	59.9765
251.085	63.3885
252.889	67.4744
254.694	70.0425
256.498	72.0759
258.301	73.9832
260.105	74.4779
261.908	74.9435
263.71	75.6838
265.513	75.626
267.315	74.0983
269.116	72.3383
270.918	70.9737
272.718	68.2109
274.519	64.7537
276.319	61.6015
278.119	59.4754
279.918	57.0253
281.718	51.6484
283.516	48.0003
285.315	43.264
287.113	39.5984
288.911	36.1039
290.708	31.6662
292.505	27.8049
294.302	24.0656
296.098	20.2756
297.894	16.9648
299.69	15.7344
301.485	13.3308
303.278	11.2607
305.073	10.0113
306.867	10.7519
308.661	9.17075
310.454	6.90071
312.247	5.4137
314.04	3.70868
315.833	4.30959
317.623	4.52927
319.415	3.76773
321.206	2.30817
322.997	1.77795
324.788	1.21227
326.579	1.15434
328.367	1.51824
330.156	1.87969
331.946	1.59201
333.735	3.36334
335.523	4.4292
337.31	4.03777
339.098	3.88412
340.885	4.08759
342.673	2.78899
344.458	2.28242
346.244	2.71931
348.03	1.2408
349.816	1.40213
351.6	1.31068
353.385	0.399847
355.17	-0.752702
356.953	-1.7651
358.737	-2.28228
360.521	-2.60046
362.304	-0.892756
364.085	-0.119028
365.868	1.06139
367.65	2.15962
369.431	3.03072
371.212	4.00982
372.994	6.72217
374.773	8.47022
376.554	11.0881
378.332	14.0602
380.112	16.7396
381.892	21.0716
383.669	26.3489
385.448	31.7554
387.225	38.486
389.003	43.68
390.781	48.7278
392.557	54.2324
394.334	59.6834
396.109	64.5467
397.885	67.8124
399.66	70.165
401.436	72.9646
403.211	76.1732
404.984	79.6993
406.759	80.9969
408.532	82.1798
410.306	83.4646
412.078	84.4368
413.851	83.5788
415.623	83.2501
417.395	82.1235
419.166	80.9332
420.938	78.8398
422.708	77.8883
424.477	74.8843
426.248	73.1061
428.017	69.3406
429.788	66.9788
431.556	64.6113
433.326	59.6847
435.093	55.0826
436.86	50.6004
438.629	46.0548
440.395	40.8185
442.163	36.8328
443.929	33.216
445.694	29.0782
447.461	24.937
449.226	21.7945
450.99	19.3778
452.756	14.6537
454.52	11.4642
456.285	9.83896
458.048	7.08568
459.811	5.97537
461.573	5.24784
463.337	4.69655
465.099	4.215
466.86	4.09759
468.623	6.42936
470.384	9.26943
472.144	10.9684
473.906	11.7661
475.666	13.3764
477.425	14.7649
479.184	16.0904
480.944	17.0936
482.703	18.2361
484.461	19.0988
486.218	18.6628
487.975	18.5735
489.734	20.1882
491.491	21.9538
493.247	21.926
495.003	23.2932
496.759	25.1933
498.516	25.6385
500.271	28.1496
502.025	29.0697
503.779	30.6447
505.533	32.8782
507.287	35.124
509.042	36.4994
510.795	38.3581
512.547	38.7205
514.299	40.737
516.051	39.9181
517.803	40.9855
519.554	41.3235
521.305	40.5834
523.055	42.4441
524.805	43.7011
526.555	43.4331
528.307	43.3735
530.056	44.8226
531.805	44.0598
533.553	43.9146
535.301	43.7778
537.049	43.8733
538.797	43.2688
540.544	42.516
542.291	42.0768
544.037	42.0778
545.783	40.3549
547.529	39.7527
549.275	38.1268
551.02	37.2755
552.765	35.6895
554.509	35.7805
556.253	35.5864
557.997	34.8876
559.738	32.9254
561.482	31.6287
563.224	30.3401
564.967	28.9201
566.709	26.7956
568.451	25.8312
570.192	24.1317
571.933	21.7233
573.674	20.2737
575.415	18.7993
577.153	18.2783
578.893	17.372
580.632	16.0619
582.371	15.5256
584.11	14.0297
585.849	12.3499
587.587	10.7284
589.323	8.17679
591.06	7.04378
592.797	5.66405
594.534	4.22865
596.271	3.57107
598.005	2.36387
599.741	1.58257
601.476	1.97928
603.211	2.0712
604.944	2.124
606.679	2.91168
608.413	3.46387
610.147	4.28274
611.878	4.79948
613.611	4.04467
615.344	3.99799
617.077	6.09063
618.807	5.08336
620.539	5.43206
622.27	6.17691
623.999	7.04969
625.73	8.20601
627.461	10.2451
629.189	9.90005
630.919	11.8261
632.648	12.6235
634.376	14.1337
636.105	15.2296
637.833	17.6451
639.559	17.7434
641.287	19.8146
643.013	20.0091
644.74	18.6463
646.467	15.7957
648.192	15.1144
649.918	17.4558
651.642	19.8484
653.368	21.4953
655.091	23.3274
656.816	24.4936
658.538	26.3644
660.263	27.066
661.987	28.0471
663.708	29.6528
665.432	30.3974
667.153	30.3546
668.875	29.9148
670.596	31.1597
672.318	31.877
674.037	32.8393
675.759	33.6563
677.478	34.829
679.196	34.1289
680.917	35.3965
682.635	35.2459
684.355	34.8493
686.072	35.291
687.791	34.8087
689.508	35.358
691.224	34.3249
692.942	33.1847
694.658	32.0139
696.376	30.9776
698.091	30.2919
699.805	28.2707
701.522	27.4204
703.236	27.6395
704.95	25.9294
706.665	26.8559
708.379	28.222
710.093	27.3593
711.806	29.1043
713.518	28.1504
715.23	26.1614
716.943	25.6289
718.655	24.1911
720.366	21.0351
722.078	20.1789
723.788	18.2813
725.498	16.0144
727.208	14.3625
728.919	11.542
730.628	10.0715
732.337	10.4518
734.045	13.2992
735.755	16.6495
737.463	17.1728
739.17	17.0879
740.877	18.2408
742.584	19.4333
744.292	19.507
745.998	21.3371
747.704	22.7861
749.409	24.3482
751.114	26.0726
752.819	27.9078
754.526	29.9875
756.23	32.5088
757.934	33.2271
759.637	34.7129
761.34	33.8167
763.043	36.1276
764.746	36.8081
766.448	39.0024
768.152	39.1065
769.853	40.4708
771.554	41.5988
773.255	41.1166
774.956	42.713
776.656	42.1194
778.356	43.8223
780.056	44.7156
781.755	45.396
783.454	47.6371
785.153	47.8276
786.851	49.7864
788.549	51.8622
790.247	52.2828
791.944	53.7169
793.641	54.204
795.338	54.5406
797.034	55.5879
798.73	54.5328
800.426	54.3864
802.121	52.2861
803.817	51.4697
805.511	50.8219
807.206	51.1726
808.9	50.2516
810.592	51.7822
812.286	52.6575
813.979	52.4559
815.672	52.7948
817.364	53.6453
819.057	54.7904
820.748	55.4751
822.44	54.8715
824.129	54.4703
825.82	56.4388
827.511	56.6885
829.201	55.949
830.891	56.698
832.581	55.7386
834.269	56.5035
835.958	56.4152
837.646	56.6353
839.335	56.1414
841.023	55.3093
842.709	54.2106
844.396	53.4283
846.084	52.1223
847.77	52.1009
849.455	49.2997
851.141	47.104
852.827	46.0211
854.513	46.1208
856.196	44.1429
857.881	41.8947
859.566	42.1202
861.248	40.6151
862.932	40.7064
864.616	38.0737
866.297	37.3722
867.98	36.2778
869.663	33.8465
871.343	31.708
873.026	29.717
874.707	28.2417
876.387	28.6844
878.068	27.7466
879.747	26.6581
881.428	25.3241
883.108	24.1108
884.786	22.4811
886.465	21.5283
888.143	22.2638
889.822	22.3241
891.498	22.1023
893.177	23.1589
894.855	23.8873
896.53	23.602
898.208	22.8936
899.883	24.0185
901.56	24.3089
903.234	23.2182
904.91	23.6422
906.584	24.1265
908.26	25.8294
909.933	26.6971
911.608	26.3469
913.28	27.0297
914.955	29.1855
916.627	30.7
918.298	33.2045
919.972	34.5703
921.643	35.8593
923.315	34.9722
924.986	34.2979
926.656	33.6306
928.328	34.3145
929.997	34.4348
931.668	34.5692
933.337	35.2735
935.006	35.7537
936.676	37.1782
938.344	36.8614
940.012	35.1235
941.681	35.0446
943.348	35.6808
945.014	35.383
946.683	34.2154
948.349	32.4287
950.015	32.3454
951.682	31.7931
953.347	32.1415
955.012	31.5658
956.676	31.583
958.343	31.7111
960.006	32.3919
961.67	31.8937
963.333	32.6688
964.998	34.1554
966.661	35.0412
968.323	37.9347
969.985	39.817
971.649	40.7023
973.31	42.2017
974.971	42.7578
976.632	44.0593
978.293	45.5585
979.953	47.3494
981.615	49.2551
983.274	49.1712
984.933	50.0958
986.592	51.0841
988.251	52.7007
989.909	54.1054
991.567	54.7694
993.225	55.0831
994.884	56.9325
996.541	58.208
998.198	58.542
999.855	58.4787
1001.51	58.846
1003.17	57.7273
1004.82	57.3708
1006.48	56.2877
1008.13	56.1383
1009.79	55.481
1011.44	54.8491
1013.1	54.9782
1014.75	55.0342
1016.4	56.2264
1018.06	57.634
1019.71	59.5582
1021.36	61.7438
1023.01	64.811
1024.66	68.7332
1026.32	73.5405
1027.97	76.9601
1029.62	79.5399
1031.27	82.9363
1032.92	86.3761
1034.57	89.4332
1036.22	93.2812
1037.87	94.878
1039.52	97.3064
1041.16	100.896
1042.81	104.353
1044.46	106.733
1046.11	107.59
1047.76	109.055
1049.4	110.279
1051.05	111.54
1052.7	110.971
1054.34	109.562
1055.99	109.498
1057.63	107.849
1059.28	106.158
1060.92	105.337
1062.57	103.418
1064.21	100.012
1065.85	95.3298
1067.5	93.1694
1069.14	89.1215
1070.78	85.0523
1072.43	80.2248
1074.07	74.8581
1075.71	69.934
1077.35	65.1034
1078.99	59.078
1080.63	53.5422
1082.27	48.5391
1083.91	44.3978
1085.55	39.2956
1087.19	35.6895
1088.83	31.2958
1090.47	27.3153
1092.11	24.3141
1093.75	22.3466
1095.39	22.8911
1097.03	23.576
1098.66	22.279
1100.3	22.8301
1101.94	23.7664
1103.57	24.7449
1105.21	26.1292
1106.84	26.7166
1108.48	27.948
1110.11	27.3223
1111.75	26.0172
1113.38	25.839
1115.02	25.6864
1116.65	25.5802
1118.29	24.9605
1119.92	24.1284
1121.55	24.4295
1123.19	24.0974
1124.82	24.1863
1126.45	22.2867
1128.08	21.883
1129.71	22.6057
1131.34	22.0921
1132.97	22.0152
1134.6	21.7663
1136.23	20.2176
1137.86	20.6145
1139.49	19.7583
1141.12	19.2839
1142.75	20.1063
1144.38	18.7474
1146.01	18.099
1147.64	17.092
1149.26	16.2337
1150.89	15.4383
1152.52	13.3539
1154.15	12.0527
1155.77	10.2617
1157.4	8.81657
1159.02	8.56892
1160.65	7.56935
1162.27	7.62995
1163.9	7.56155
1165.52	7.62769
1167.15	7.46273
1168.77	8.24709
1170.39	8.43718
1172.02	7.62893
1173.64	7.72433
1175.26	8.12659
1176.89	7.84927
1178.51	9.01242
1180.13	7.84144
1181.75	10.7696
1183.37	10.4103
1184.99	10.3
1186.61	12.1941
1188.23	13.0162
1189.85	14.8696
1191.47	15.6183
1193.09	15.8138
1194.71	17.0783
1196.33	18.9181
1197.94	21.2364
1199.56	23.3297
1201.18	26.3377
1202.8	28.3188
1204.41	30.7856
1206.03	33.5122
1207.65	34.6229
1209.26	37.8561
1210.88	41.4089
1212.49	43.6571
1214.11	47.2783
1215.72	51.2032
1217.34	54.9061
1218.95	58.7376
1220.57	62.0599
1222.18	64.006
1223.79	67.207
1225.41	68.7096
1227.02	70.8154
1228.63	72.3481
1230.24	73.9928
1231.85	75.6095
1233.47	76.5218
1235.08	76.6197
1236.69	76.9733
1238.3	77.8982
1239.91	78.3433
1241.52	78.886
1243.13	79.73
1244.74	80.6292
1246.34	80.1989
1247.95	79.9969
1249.56	78.9307
1251.17	78.8551
1252.78	77.6984
1254.38	77.8629
1255.99	76.0811
1257.6	74.6959
1259.2	75.4058
1260.81	74.8603
1262.42	74.5923
1264.02	73.8013
1265.63	73.5519
1267.23	73.5651
1268.84	72.3891
1270.44	72.1176
1272.04	71.3508
1273.65	70.5437
1275.25	71.1084
1276.85	72.3566
1278.46	74.2834
1280.06	73.854
1281.66	75.0053
1283.26	75.7556
1284.86	78.731
1286.46	79.6252
1288.07	81.8429
1289.67	84.068
1291.27	85.6177
1292.87	86.6598
1294.47	90.3798
1296.06	91.9794
1297.66	93.0002
1299.26	94.6332
1300.86	97.265
1302.46	99.0592
1304.06	100.878
1305.65	102.872
1307.25	106.554
1308.85	107.829
1310.44	110.171
1312.04	111.246
1313.64	112.273
1315.23	113.178
1316.83	115.472
1318.42	116.186
1320.02	117.21
1321.61	118.795
1323.2	118.678
1324.8	118.083
1326.39	116.937
1327.99	116.783
1329.58	116.41
1331.17	116.264
1332.76	115.696
1334.36	113.863
1335.95	112.211
1337.54	111.562
1339.13	110.133
1340.72	108.634
1342.31	106.559
1343.9	104.255
1345.49	102.345
1347.08	100.865
1348.67	99.8386
1350.26	99.2096
1351.85	97.6202
1353.43	96.0835
1355.02	95.2776
1356.61	94.0842
1358.2	92.1496
1359.78	89.4617
1361.37	90.7138
1362.96	89.6988
1364.54	88.8817
1366.13	86.4579
1367.71	85.1422
1369.3	83.2425
1370.88	81.8125
1372.47	80.9484
1374.05	80.369
1375.64	78.7651
1377.22	79.6414
1378.8	79.6485
1380.39	79.3704
1381.97	78.7896
1383.55	78.219
1385.13	79.2905
1386.72	78.701
1388.3	77.9689
1389.88	79.2037
1391.46	78.159
1393.04	77.6683
1394.62	77.3083
1396.2	77.2596
1397.78	75.4905
1399.36	74.5472
1400.94	73.8854
1402.52	74.3077
1404.1	74.6852
1405.68	76.0207
1407.25	76.142
1408.83	77.9058
1410.41	79.876
1411.98	82.7256
1413.56	85.4466
1415.14	88.3257
1416.71	91.9996
1418.29	96.6248
1419.87	101.654
1421.44	105.432
1423.02	109.933
1424.59	115.575
1426.16	120.306
1427.74	125.385
1429.31	129.053
1430.89	132.872
1432.46	137.948
1434.03	141.92
1435.6	145.894
1437.18	149.728
1438.75	153.397
1440.32	156.776
1441.89	157.998
1443.46	158.206
1445.03	159.596
1446.6	159.656
1448.17	159.409
1449.74	158.856
1451.31	157.84
1452.88	156.882
1454.45	155.589
1456.02	154.285
1457.59	150.054
1459.16	147.116
1460.72	142.491
1462.29	137.439
1463.86	133.526
1465.43	128.494
1466.99	123.466
1468.56	116.078
1470.13	109.7
1471.69	103.491
1473.26	97.7023
1474.82	92.4308
1476.38	85.2751
1477.95	80.5049
1479.51	75.3739
1481.08	71.0958
1482.64	65.695
1484.2	62.7933
1485.77	58.9412
1487.33	58.2703
1488.89	55.8588
1490.46	54.9092
1492.02	52.6433
1493.58	51.5928
1495.14	51.1904
1496.7	50.0146
1498.26	47.9424
1499.82	46.751
1501.38	47.0955
1502.94	48.0886
1504.5	47.6366
1506.06	46.8721
1507.62	46.8702
1509.18	49.1808
1510.73	50.6547
1512.29	50.3312
1513.85	51.5476
1515.41	52.5104
1516.96	51.5701
1518.52	51.9201
1520.08	51.8195
1521.63	50.6048
1523.19	51.5198
1524.75	50.6918
1526.3	51.1832
1527.85	53.2339
1529.41	53.6245
1530.96	53.1218
1532.52	53.2285
1534.07	52.2864
1535.62	50.197
1537.18	49.9788
1538.73	48.5778
1540.28	48.5104
1541.84	48.2208
1543.39	46.6474
1544.94	44.9429
1546.49	44.0133
1548.04	45.0252
1549.59	44.9921
1551.14	45.1472
1552.69	45.1489
1554.25	44.2712
1555.79	45.3851
1557.34	44.8002
1558.89	46.3894
1560.44	46.9395
1561.99	48.4027
1563.54	49.2659
1565.08	50.2973
1566.63	51.5933
1568.18	52.7439
1569.73	54.2627
1571.27	57.1256
1572.82	58.0681
1574.37	59.9178
1575.91	61.3939
1577.46	63.7701
1579	65.6991
1580.55	68.3709
1582.09	69.4028
1583.64	72.2534
1585.18	75.2436
1586.73	77.0684
1588.27	77.8682
1589.81	78.352
1591.35	79.7493
1592.9	80.2314
1594.44	80.158
1595.98	82.1012
1597.52	83.1926
1599.06	83.9978
1600.61	85.1064
1602.15	86.1454
1603.69	88.0387
1605.23	89.5775
1606.77	89.8017
1608.31	90.1687
1609.85	90.2315
1611.39	90.3555
1612.93	90.8849
1614.46	91.4738
1616	92.3255
1617.54	91.9657
1619.08	91.4715
1620.61	91.3529
1622.15	91.6612
1623.69	92.8895
1625.23	94.8778
1626.76	96.2596
1628.3	96.9119
1629.83	97.596
1631.37	99.0893
1632.9	100.83
1634.44	101.479
1635.97	102.724
1637.51	103.795
1639.04	104.352
1640.57	107.35
1642.11	107.741
1643.64	109.974
1645.17	110.203
1646.71	111.373
1648.24	111.773
1649.77	111.657
1651.3	112.057
1652.83	111.772
1654.36	112.101
1655.89	112.043
1657.42	112.335
1658.96	111.17
1660.48	110.342
1662.01	108.737
1663.54	106.754
1665.07	105.386
1666.6	102.44
1668.13	100.663
1669.66	98.8212
1671.19	96.2688
1672.71	93.4807
1674.24	91.0127
1675.77	87.7349
1677.29	85.2295
1678.82	82.0171
1680.35	78.6257
1681.87	74.9463
1683.4	71.0893
1684.92	66.6442
1686.45	62.9698
1687.97	58.8789
1689.5	55.0026
1691.02	50.1512
1692.54	46.8033
1694.07	42.5908
1695.59	40.4057
1697.11	38.0106
1698.64	35.9191
1700.16	33.5107
1701.68	31.4224
1703.2	28.7485
1704.72	26.7543
1706.25	25.5048
1707.77	23.445
1709.29	21.2479
1710.81	18.7606
1712.33	17.8173
1713.85	17.3061
1715.37	16.7471
1716.89	16.5032
1718.41	13.7335
1719.92	12.8003
1721.44	11.4929
1722.96	11.6466
1724.48	11.4539
1725.99	11.9086
1727.51	11.8977
1729.03	11.7381
1730.55	12.5123
1732.06	12.4246
1733.58	13.0189
1735.09	13.16
1736.61	12.9741
1738.13	13.4972
1739.64	12.8205
1741.15	12.8609
1742.67	12.4384
1744.18	12.7959
1745.7	12.9282
1747.21	12.1462
1748.72	12.2364
1750.24	13.2439
1751.75	12.4078
1753.26	11.6785
1754.77	11.0744
1756.29	10.1878
1757.8	9.30762
1759.31	7.73242
1760.82	6.61153
1762.33	5.89322
1763.84	5.25934
1765.35	4.43022
1766.86	4.17299
1768.37	4.34627
1769.88	4.09911
1771.39	3.90742
1772.9	2.85571
1774.4	2.33482
1775.91	1.67991
1777.42	2.39304
1778.93	2.71383
1780.44	3.27328
1781.94	3.1394
1783.45	2.41431
1784.96	2.83448
1786.46	2.63152
1787.97	3.0276
1789.47	3.01505
1790.98	2.35164
1792.48	1.46927
1793.99	1.02716
1795.49	0.825924
1797	0.904465
1798.5	1.40104
1800.01	1.54492
1801.51	2.55957
1803.01	2.38829
1804.51	2.45987
1806.02	2.62895
1807.52	2.79976
1809.02	3.94902
1810.52	4.24673
1812.02	4.55103
1813.52	4.99182
1815.02	4.96496
1816.53	5.50336
1818.03	5.23958
1819.52	4.99995
1821.02	5.0033
1822.52	5.31155
1824.02	5.42523
1825.52	5.61449
1827.02	4.27125
1828.52	4.40958
1830.02	4.66717
1831.51	4.40659
1833.01	3.95477
1834.51	3.97535
1836.01	5.05148
1837.5	5.31352
1839	5.60858
1840.49	5.12856
1841.99	5.9585
1843.49	5.39799
1844.98	4.76625
1846.48	4.17956
1847.97	4.93807
1849.47	5.4445
1850.96	5.37857
1852.45	6.42399
1853.95	6.68835
1855.44	6.69838
1856.93	6.77271
1858.42	6.23357
1859.92	6.65336
1861.41	6.31916
1862.9	6.66741
1864.39	7.0362
1865.88	7.32009
1867.38	7.671
1868.87	7.28128
1870.36	7.65657
1871.85	8.50358
1873.34	9.2136
1874.83	10.1875
1876.32	10.8388
1877.81	9.79317
1879.29	9.90103
1880.78	10.5516
1882.27	10.4831
1882.53	10.1867
1884.03	9.73855
1885.52	9.23327
1887.01	8.34529
1888.51	8.29367
1890	7.14362
1891.5	6.97053
1892.99	6.29521
1894.48	6.60086
1895.97	7.4985
1897.47	7.76571
1898.96	7.97696
1900.45	8.00115
1901.94	8.92261
1903.43	8.66851
1904.92	9.09838
1906.41	8.30021
1907.9	7.82921
1909.39	7.92706
1910.88	7.33354
1912.37	7.41429
1913.86	7.23179
1915.35	6.93311
1916.84	6.32246
1918.33	6.57956
1919.81	7.47054
1921.3	8.28576
1922.79	7.70314
1924.28	7.99101
1925.76	9.05964
1927.25	9.1488
1928.73	8.59636
1930.22	7.86182
1931.71	7.35384
1933.19	6.87142
1934.68	7.61075
1936.16	7.41419
1937.65	6.78187
1939.13	6.7466
1940.62	5.9317
1942.1	6.27098
1943.58	6.53071
1945.07	7.22251
1946.55	6.8398
1948.03	7.22133
1949.51	6.25526
1951	5.69053
1952.48	6.28547
1953.96	5.68619
1955.44	4.65611
1956.92	4.61862
1958.4	4.41319
1959.88	4.21136
1961.36	3.46602
1962.84	3.44889
1964.32	2.84203
1965.8	4.01102
1967.28	4.25685
1968.76	5.48066
1970.24	6.24248
1971.72	5.90323
1973.2	4.85133
1974.67	5.49506
1976.15	6.02954
1977.63	6.74976
1979.1	7.2865
1980.58	7.5961
1982.06	8.14451
1983.54	8.34103
1985.01	8.38904
1986.49	8.96994
1987.96	9.30359
1989.44	9.85674
1990.91	9.96921
1992.39	10.3205
1993.86	10.2305
1995.33	10.4106
1996.81	10.8844
1998.28	11.1615
1999.75	11.091
2001.23	10.6964
2002.7	10.714
2004.17	9.86561
2005.65	9.09814
2007.12	9.15621
2008.59	10.3966
2010.06	9.94667
2011.53	10.8176
2013	11.2224
2014.47	11.6468
2015.94	11.0128
2017.41	11.1973
2018.88	11.9386
2020.35	11.9108
2021.82	11.967
2023.29	11.6703
2024.76	11.7546
2026.23	11.1809
2027.69	10.536
2029.16	9.92673
2030.63	9.98673
2032.1	9.42753
2033.56	8.81747
2035.03	9.06377
2036.5	9.38618
2037.96	9.72375
2039.43	10.0031
2040.89	10.5179
2042.36	10.1898
2043.83	10.2279
2045.29	10.1862
2046.75	10.7044
2048.22	11.9018
2049.68	11.2814
2051.15	10.9654
2052.61	10.4108
2054.07	9.93992
2055.54	9.41959
2057	8.74755
2058.46	9.84203
2059.92	10.1058
2061.39	10.3305
2062.85	10.6401
2064.31	10.1226
2065.77	9.53524
2067.23	9.22229
2068.69	9.80658
2070.15	9.48065
2071.61	8.89696
2073.07	7.96673
2074.53	7.06529
2075.99	6.37961
2077.45	5.11384
2078.91	5.76391
2080.37	7.44951
2081.82	7.72042
2083.28	7.06694
2084.74	7.09253
2086.2	6.18686
2087.65	5.87901
2089.11	5.26617
2090.57	6.07431
2092.02	5.95323
2093.48	4.85859
2094.94	4.44018
2096.39	3.76276
2097.85	3.57786
2099.3	3.33828
2100.76	3.39489
2102.21	3.26455
2103.66	4.09508
2105.12	3.66895
2106.57	5.04028
2108.03	5.77127
2109.48	5.9301
2110.93	6.90585
2112.38	6.90789
2113.84	8.2112
2115.29	7.94027
2116.74	7.42511
2118.19	7.47926
2119.64	6.5654
2121.09	6.79486
2122.54	6.89971
2123.99	7.94994
2125.45	7.80691
2126.89	8.99064
2128.34	10.0022
2129.79	9.93534
2131.24	10.4652
2132.69	10.0637
2134.14	10.4182
2135.59	10.5427
2137.04	9.93836
2138.48	10.094
2139.93	9.81134
2141.38	10.1958
2142.83	9.29492
2144.27	9.32722
2145.72	7.82939
2147.17	8.28979
2148.61	9.26413
2150.06	10.3299
2151.5	10.9885
2152.95	10.3482
2154.39	9.67869
2155.84	9.79825
2157.28	10.2843
2158.73	9.53634
2160.17	9.45267
2161.61	9.44919
2163.06	9.82208
2164.5	9.17627
2165.94	9.50256
2167.38	9.70172
2168.83	8.90781
2170.27	9.51111
2171.71	10.8197
2173.15	10.3462
2174.59	9.96891
2176.03	9.4466
2177.47	9.10516
2178.91	9.25879
2180.36	7.95957
2181.8	7.98048
2183.23	7.76116
2184.67	7.20862
2186.11	6.4287
2187.55	5.45682
2188.99	4.71863
2190.43	5.89321
2191.87	6.34553
2193.3	6.94042
2194.74	7.29002
2196.18	7.3279
2197.62	6.00095
2199.05	7.38047
2200.49	6.87751
2201.93	6.5442
2203.36	6.12193
2204.8	5.8186
2206.23	5.55491
2207.67	4.74943
2209.1	3.97611
2210.54	3.98963
2211.97	3.77137
2213.41	3.85892
2214.84	3.28516
2216.27	4.08447
2217.71	3.76164
2219.14	4.77521
2220.57	5.4955
2222.01	6.10021
2223.44	5.38404
2224.87	5.96315
2226.3	6.4708
2227.73	7.03387
2229.16	7.23324
2230.6	7.71493
2232.03	7.92489
2233.46	8.1076
2234.89	8.36928
2236.32	7.69319
2237.75	8.09668
2239.18	6.73023
2240.61	7.13353
2242.03	6.89863
2243.46	7.66861
2244.89	6.84216
2246.32	7.20434
2247.75	8.25643
2249.17	9.17558
2250.6	8.93749
2252.03	9.52377
2253.46	10.0354
2254.88	10.3172
2256.31	9.99389
2257.73	9.61731
2259.16	10.4655
2260.59	11.441
2262.01	11.682
2263.44	10.8431
2264.86	9.83231
2266.29	10.2816
2267.71	9.69647
2269.14	9.57029
2270.56	9.81896
2271.98	9.16223
2273.4	8.77966
2274.83	7.62022
2276.25	8.12723
2277.67	8.62626
2279.09	9.5616
2280.52	9.84094
2281.94	9.9591
2283.36	10.188
2284.78	9.42588
2286.2	9.53759
2287.62	8.42875
2289.04	7.37041
2290.46	6.88471
2291.88	7.40907
2293.3	6.62847
2294.72	5.95488
2296.14	6.92285
2297.56	6.63905
2298.98	7.5334
2300.4	7.88217
2301.82	7.20608
2303.23	6.50985
2304.65	6.77435
2306.07	7.62706
2307.49	7.37279
2308.9	7.62612
2310.32	7.5386
2311.73	8.25491
2313.15	8.80704
2314.57	10.7771
2315.98	11.3019
2317.4	11.7364
2318.81	11.731
2320.23	11.8449
2321.64	11.9499
2323.06	12.6524
2324.47	11.8209
2325.88	11.8149
2327.3	11.2879
2328.71	11.1427
2330.12	10.52
2331.54	9.60163
2332.95	8.65726
2334.36	8.51752
2335.77	7.56065
2337.18	7.85337
2338.6	8.17807
2340.01	8.95373
2341.42	8.22971
2342.83	8.25488
2344.24	8.43875
2345.65	8.59345
2347.06	9.48389
2348.47	8.5751
2349.88	7.03851
2351.29	5.40197
2352.7	4.9537
2354.1	4.2827
2355.51	3.38766
2356.92	2.59265
2358.33	1.57584
2359.74	2.2275
2361.14	2.26792
2362.55	2.00903
2363.96	1.49235
2365.36	2.51936
2366.77	3.05541
2368.18	2.8913
2369.58	2.88779
2370.99	2.46363
2372.39	2.37626
2373.8	3.27418
2375.2	4.195
2376.61	4.7919
2378.01	3.66308
2379.42	4.08707
2380.82	4.75327
2382.22	5.78796
2383.63	7.12232
2385.03	7.34362
2386.43	7.38063
2387.84	6.64658
2389.24	7.28485
2390.64	7.87687
2392.04	7.07628
2393.44	6.17772
2394.84	5.72342
2396.25	5.46299
2397.65	5.7936
2399.05	6.30747
2400.45	5.94219
2401.85	6.91147
2403.25	7.65336
2404.65	8.40498
2406.05	7.94367
2407.45	8.93337
2408.84	9.59146
2410.24	9.2917
2411.64	9.00564
2413.04	9.06895
2414.44	10.5137
2415.83	11.1899
2417.23	11.5758
2418.63	10.492
2420.02	10.8102
2421.42	12.1204
2422.82	12.0922
2424.21	11.8906
2425.61	12.4638
2427	11.5476
2428.4	11.837
2429.8	12.2246
2431.19	12.036
2432.58	12.3423
2433.98	12.4604
2435.37	13.4845
2436.77	13.1654
2438.16	13.426
2439.55	13.9449
2440.95	13.911
2442.34	13.5119
2443.73	13.1822
2445.12	13.2845
2446.51	13.2456
2447.91	13.686
2449.3	14.0914
2450.69	13.5918
2452.08	13.8213
2453.47	13.8971
2454.86	13.2653
2456.25	12.3384
2457.64	11.5701
2459.03	11.6688
2460.42	10.7105
2461.81	9.4157
2463.2	8.87853
2464.59	8.81415
2465.98	8.5528
2467.36	9.35481
2468.75	8.25562
2470.14	7.47931
2471.53	6.87438
2472.92	6.60376
2474.3	6.29161
2475.69	5.51005
2477.08	5.20416
2478.46	5.30313
2479.85	4.81831
2481.23	5.4429
2482.62	5.43692
2484	6.13399
2485.39	5.53342
2486.77	5.31447
2488.16	5.19007
2489.54	4.96039
2490.93	4.02508
2492.31	4.07826
2493.69	4.47521
2495.08	4.0401
2496.46	3.64196
2497.84	4.63596
2499.23	4.44921
2500.61	4.62034
2501.99	4.28068
2503.37	3.56727
2504.75	4.02751
2506.13	4.57925
2507.52	4.90389
2508.9	5.71466
2510.28	5.44328
2511.66	5.60928
2513.04	6.48654
2514.42	7.17805
2515.8	8.42749
2517.18	8.97437
2518.55	9.18393
2519.93	9.61577
2521.31	10.3161
2522.69	9.72395
2524.07	9.03294
2525.45	8.36717
2526.82	8.96181
2528.2	9.3449
2529.58	9.83329
2530.95	9.27143
2532.33	10.5027
2533.71	11.0316
2535.08	12.0671
2536.46	12.1366
2537.84	11.3708
2539.21	12.1197
2540.59	12.4226
2541.96	12.9151
2543.34	12.3806
2544.71	11.6657
2546.08	11.0014
2547.46	11.3139
2548.83	10.9902
2550.2	11.2188
2551.58	10.5807
2552.95	10.2499
2554.32	10.5516
2555.7	10.39
2557.07	9.97834
2558.44	8.68878
2559.81	8.69765
2561.18	9.33706
2562.55	7.94061
2563.93	7.23425
2565.3	7.93191
2566.67	7.59902
2568.04	8.10079
2569.41	7.97826
2570.78	7.72146
2572.15	8.60372
2573.51	8.81258
2574.88	9.11485
2576.25	7.95346
2577.62	8.33266
2578.99	7.36121
2580.36	6.91665
2581.73	7.33604
2583.09	7.71138
2584.46	7.95557
2585.83	7.30247
2587.19	7.84842
2588.56	7.31103
2589.93	7.72012
2591.29	7.02667
2592.66	7.40273
2594.02	8.53192
2595.39	9.74339
2596.75	10.3228
2598.12	11.093
2599.48	11.384
2600.85	12.2307
2602.21	13.0061
2603.58	12.9471
2604.94	12.4729
2606.3	12.9904
2607.67	13.536
2609.03	13.8748
2610.39	12.6143
2611.76	12.7911
2613.12	13.2594
2614.48	13.3502
2615.84	13.6962
2617.2	13.439
2618.56	14.2068
2619.92	14.0462
2621.28	13.7722
2622.65	13.2924
2624.01	13.2251
2625.37	13.6118
2626.72	13.0168
2628.08	13.1059
2629.44	12.0265
2630.8	11.5559
2632.16	11.7846
2633.52	11.5229
2634.88	11.3412
2636.24	10.9973
2637.59	9.83949
2638.95	9.41222
2640.31	8.98101
2641.67	7.76009
2643.02	8.14751
2644.38	7.27397
2645.74	7.66727
2647.09	7.28709
2648.45	7.41567
2649.8	7.20541
2651.16	7.35281
2652.51	6.47776
2653.87	6.9761
2655.22	7.14636
2656.58	6.5829
2657.93	6.3846
2659.29	5.98875
2660.64	7.35883
2661.99	7.8075
2663.35	7.60602
2664.7	7.84409
2666.05	8.00743
2667.41	7.98807
2668.76	8.161
2670.11	8.84721
2671.46	8.61652
2672.81	9.5186
2674.16	10.6943
2675.51	10.4808
2676.87	10.4356
2678.22	11.1855
2679.57	12.6482
2680.92	13.3939
2682.27	13.433
2683.62	14.263
2684.97	14.4057
2686.31	15.0171
2687.66	14.3508
2689.01	13.6483
2690.36	13.3346
2691.71	13.8815
2693.06	13.943
2694.4	14.0972
2695.75	14.3574
2697.1	14.4651
2698.45	15.3977
2699.79	15.766
2701.14	16.4865
2702.49	16.989
2703.83	17.0568
2705.18	18.4165
2706.52	19.2775
2707.87	19.5193
2709.21	20.3915
2710.56	21.5213
2711.9	21.5267
2713.25	21.9689
2714.59	22.2278
2715.94	21.9068
2717.28	20.9681
2718.62	21.273
2719.97	20.7512
2721.31	22.0302
2722.65	20.9368
2723.99	20.2045
2725.34	20.7648
2726.68	20.5807
2728.02	21.0941
2729.36	20.9774
2730.7	21.3307
2732.04	20.5478
2733.39	20.7202
2734.73	19.373
2736.07	17.9366
2737.41	17.3648
2738.75	16.2428
2740.08	15.7357
2741.43	15.1302
2742.76	14.9332
2744.1	14.9372
2745.44	15.407
2746.78	14.6014
2748.12	13.8315
2749.46	13.7853
2750.79	12.8692
2752.13	11.8245
2753.47	10.5727
2754.81	9.75418
2756.14	9.56795
2757.48	9.66455
2758.81	9.62542
2760.15	10.0174
2761.49	10.1003
2762.82	10.2174
2764.16	10.4544
2765.49	9.89341
2766.83	9.16588
2768.16	9.591
2769.5	9.21825
2770.83	9.59177
2772.16	9.68681
2773.5	9.24823
2774.83	8.69745
2776.17	8.92392
2777.5	8.23364
2778.83	8.11864
2780.16	7.68367
2781.5	7.18515
2782.83	6.37449
2784.16	6.29916
2785.49	6.66718
2786.82	6.502
2788.15	5.65584
2789.49	4.3946
2790.82	4.14303
2792.15	4.35934
2793.48	2.89462
2794.81	3.28419
2796.14	2.21363
2797.46	1.58526
2798.79	0.125517
2800.12	-0.0920705
2801.45	-2.03315
2802.78	-2.41709
2804.11	-1.30228
2805.44	-1.54659
2806.76	-1.11508
2808.09	-1.46809
2809.42	-1.57852
2810.75	-2.00477
2812.07	-1.87247
2813.4	-1.83882
2814.73	-1.65856
2816.05	-0.549988
2817.38	0.0426037
2818.7	1.52049
2820.03	3.13686
2821.36	5.77294
2822.68	8.5181
2824.01	10.8624
2825.33	13.0815
2826.65	16.3311
2827.98	19.1445
2829.3	22.3688
2830.63	24.2077
2831.95	27.071
2833.27	30.1553
2834.6	34.2801
2835.92	37.9705
2837.24	41.7913
2838.56	46.0978
2839.88	51.3004
2841.21	56.404
2842.53	60.7635
2843.85	66.4835
2845.17	72.6076
2846.49	78.6438
2847.81	85.6177
2849.13	92.0817
2850.45	99.9096
2851.77	106.945
2853.09	113.576
2854.41	120.851
2855.73	129.103
2857.05	136.018
2858.37	143.242
2859.69	150.517
2861	157.367
2862.32	162.938
2863.64	169.523
2864.96	174.397
2866.28	178.793
2867.59	182.559
2868.91	187.541
2870.23	192.145
2871.54	195.833
2872.86	199.767
2874.17	203.786
2875.49	206.687
2876.81	210.118
2878.12	213.194
2879.44	216.675
2880.75	219.539
2882.07	223.213
2883.38	226.546
2884.69	228.623
2886.01	230.302
2887.32	232.313
2888.63	234.184
2889.95	235.685
2891.26	237.63
2892.57	239.187
2893.89	241.165
2895.2	245.026
2896.51	247.662
2897.82	251.952
2899.13	254.904
2900.44	259.559
2901.76	263.743
2903.07	268.95
2904.38	274.26
2905.69	279.885
2907	286.245
2908.31	292.465
2909.62	300.146
2910.93	307.158
2912.24	314.5
2913.55	321.906
2914.85	330.08
2916.16	338.046
2917.47	345.015
2918.78	350.568
2920.09	356.141
2921.4	360.233
2922.7	363.135
2924.01	366.549
2925.32	368.532
2926.62	368.93
2927.93	369.026
2929.24	369.55
2930.54	367.671
2931.85	366.162
2933.15	364.603
2934.46	363.445
2935.76	360.239
2937.07	356.924
2938.37	352.965
2939.68	347.745
2940.98	341.983
2942.29	337.512
2943.59	332.317
2944.89	326.095
2946.2	319.776
2947.5	312.837
2948.8	305.357
2950.11	296.894
2951.41	288.31
2952.71	280.561
2954.01	273.503
2955.32	266.449
2956.62	258.988
2957.92	251.864
2959.22	245.463
2960.52	239.306
2961.82	231.135
2963.12	224.139
2964.42	217.612
2965.72	211.994
2967.02	205.94
2968.32	200.862
2969.62	195.317
2970.92	190.668
2972.22	186.605
2973.51	181.846
2974.81	176.619
2976.11	172.203
2977.41	166.89
2978.71	162.917
2980	158.167
2981.3	151.84
2982.6	146.285
2983.9	139.766
2985.19	133.981
2986.49	128.39
2987.78	122.405
2989.08	116.585
2990.38	109.625
2991.67	102.789
2992.97	96.6505
2994.26	91.4622
2995.56	85.339
2996.85	80.0369
2998.14	74.4396
2999.44	69.639
3000.73	64.9732
3002.03	60.0662
3003.32	55.3965
3004.61	49.9075
3005.91	46.1018
3007.2	42.601
3008.49	37.8166
3009.78	33.4875
3011.07	29.6054
3012.37	24.7544
3013.66	21.425
3014.95	18.334
3016.24	15.9253
3017.53	13.6804
3018.82	11.3272
3020.11	9.25728
3021.4	6.84433
3022.69	5.212
3023.98	2.88598
3025.27	1.71084
3026.56	0.355765
3027.85	-0.453732
3029.14	-0.412557
3030.43	-0.775109
3031.71	-1.12358
3033	-0.901643
3034.29	-0.740502
3035.58	-0.922093
3036.87	-0.418463
3038.15	-0.533012
3039.44	-0.272642
3040.73	0.885372
3042.01	1.92801
3043.3	4.22092
3044.59	5.11955
3045.87	5.98115
3047.16	6.78595
3048.44	7.40024
3049.73	7.07073
3051.01	7.11193
3052.3	7.62978
3053.58	7.03094
3054.87	7.07778
3056.15	7.09895
3057.43	7.62026
3058.72	8.16358
3060	8.08708
3061.29	8.28045
3062.57	8.6399
3063.85	8.34591
3065.13	8.32109
3066.42	7.09702
3067.7	6.70731
3068.98	6.39228
3070.26	7.28137
3071.54	7.12297
3072.82	6.53371
3074.11	5.86197
3075.39	5.36634
3076.67	5.86273
3077.95	6.81704
3079.23	7.11038
3080.51	6.93261
3081.79	6.1652
3083.07	6.32728
3084.35	6.89415
3085.63	7.43179
3086.9	7.5893
3088.18	7.74457
3089.46	8.13581
3090.74	8.51839
3092.02	9.36733
3093.29	10.2746
3094.57	11.5389
3095.85	11.9063
3097.13	12.3108
3098.4	13.4285
3099.68	14.7896
3100.95	16.0088
3102.23	16.8304
3103.51	17.9784
3104.78	18.2774
3106.06	19.1179
3107.33	19.8917
3108.61	20.9619
3109.88	21.5113
3111.16	22.6024
3112.43	24.2025
3113.71	25.6639
3114.98	27.329
3116.25	29.3211
3117.53	30.2855
3118.8	32.2616
3120.07	33.3354
3121.35	34.8789
3122.62	36.3983
3123.89	37.5331
3125.16	39.0753
3126.44	40.1142
3127.71	40.9813
3128.98	43.1998
3130.25	44.5697
3131.52	46.2772
3132.79	48.1251
3134.06	49.7684
3135.33	50.8021
3136.6	52.7381
3137.87	54.1493
3139.14	57.0455
3140.41	59.2846
3141.68	60.7213
3142.95	62.004
3144.22	63.118
3145.49	64.079
3146.76	64.5301
3148.02	64.2464
3149.29	63.2999
