#Acq. time (s)=	45
#Accumulations=	2
#Range (cm-¹)=	200...3150
#Windows=	2
#Auto scanning=	Off
#Autofocus=	Off
#Macrospot=	Off
#AutoExposure=	Off
#Spike filter=	Multiple accum.
#Delay time (s)=	0
#Binning=	1
#Readout mode=	Signal
#DeNoise=	Off
#ICS correction=	On
#Dark correction=	Off
#Inst. Process=	Off
#Detector Gain=	Best Dynamic Range
#Detector ADC=	20 kHz       
#Detector temperature (°C)=	-69.85
#Instrument=	LabRAM HR Evol
#Detector=	Synapse
#Objective=	x100
#Grating=	600 gr/mm
#ND Filter=	100%
#Laser (nm)=	532 
#Hole=	100.021
#Range=	Auto
#Laser Pol.=	No
#Raman. Pol.=	No
#Laser Pol. (°)=	-0.0007625
#Raman Pol. (°)=	89.9995
#Collection=	Microscope
#StageXY=	Marzhauser
#StageZ=	Marzhauser
#X (µm)=	-957.7
#Y (µm)=	-2829.7
#Z (µm)=	528.2
#Full time(mm:ss)=	3:19
#Project=	
#Sample=	
#Site=	
#Title=	Mb_00_13_18_2x_45s_532 nm_x100_100%_600 gr_mm
#Remark=	
#Date=	06.07.2022 11:01
#Acquired=	06.07.2022 11:01:13
#Base:Fit=	10.08.2022 10:16:56
#Base:Sub=	10.08.2022 10:17:24
#Filter:Polynom=	16.08.2022 10:36:38
#AxisType[0]=Intens
#AxisUnit[0]=Cnt
#AxisType[1]=Spectr
#AxisUnit[1]=1/cm
200.398	14.8891
202.213	14.3653
204.027	12.6521
205.843	10.7542
207.657	8.13444
209.47	6.35031
211.283	6.08497
213.097	7.14125
214.909	9.70336
216.721	11.7054
218.533	17.8891
220.344	23.6779
222.157	28.8365
223.967	35.9931
225.777	42.0383
227.587	48.6454
229.396	56.6365
231.205	63.6647
233.016	69.0343
234.824	76.8348
236.632	84.5155
238.439	90.1114
240.247	95.7757
242.053	101.533
243.86	105.007
245.666	108.962
247.474	113.619
249.279	117.386
251.085	121.004
252.889	123.472
254.694	126.135
256.498	128.932
258.301	131.217
260.105	131.322
261.908	130.884
263.71	130.139
265.513	130.915
267.315	128.93
269.116	125.942
270.918	124.507
272.718	121.988
274.519	117.919
276.319	113.908
278.119	107.918
279.918	104.373
281.718	99.8278
283.516	94.5332
285.315	86.7188
287.113	80.5919
288.911	73.2573
290.708	66.5326
292.505	61.4995
294.302	56.8439
296.098	51.7464
297.894	47.7149
299.69	44.0111
301.485	42.7414
303.278	40.6911
305.073	37.2149
306.867	35.3116
308.661	35.9278
310.454	32.9472
312.247	30.1456
314.04	29.376
315.833	27.9193
317.623	28.1624
319.415	27.8528
321.206	26.2121
322.997	25.8435
324.788	25.3514
326.579	24.9494
328.367	23.0254
330.156	22.0871
331.946	21.6473
333.735	20.3047
335.523	20.1489
337.31	18.7053
339.098	16.9476
340.885	14.8457
342.673	14.0316
344.458	13.2954
346.244	9.91509
348.03	6.92614
349.816	5.17596
351.6	3.5789
353.385	3.599
355.17	3.75762
356.953	2.67991
358.737	3.44243
360.521	5.64683
362.304	6.42402
364.085	7.30811
365.868	9.97308
367.65	12.3315
369.431	15.571
371.212	18.7203
372.994	21.0273
374.773	23.6417
376.554	24.6511
378.332	24.0127
380.112	27.5973
381.892	37.5389
383.669	47.8785
385.448	57.5842
387.225	68.8696
389.003	79.5007
390.781	89.5084
392.557	98.4376
394.334	105.607
396.109	114.926
397.885	121.635
399.66	127.285
401.436	132.839
403.211	138.863
404.984	143.554
406.759	147.134
408.532	149.008
410.306	151.064
412.078	152.563
413.851	152.22
415.623	152.917
417.395	150.382
419.166	148.466
420.938	146.051
422.708	142.673
424.477	138.201
426.248	132.463
428.017	126.09
429.788	119.339
431.556	113.685
433.326	104.771
435.093	96.7137
436.86	88.3264
438.629	81.4819
440.395	73.9428
442.163	66.0638
443.929	59.5747
445.694	51.0029
447.461	44.2371
449.226	37.1403
450.99	31.2017
452.756	24.6783
454.52	18.0146
456.285	11.4848
458.048	5.60216
459.811	-0.165388
461.573	-5.06708
463.337	-8.17861
465.099	-12.2581
466.86	-9.9649
468.623	-4.39662
470.384	1.12798
472.144	2.59613
473.906	4.80566
475.666	6.80894
477.425	6.40731
479.184	7.98877
480.944	9.22111
482.703	9.67572
484.461	11.3821
486.218	12.5619
487.975	13.4476
489.734	15.5851
491.491	16.6452
493.247	17.7238
495.003	18.4102
496.759	20.7315
498.516	22.9844
500.271	25.1272
502.025	27.7162
503.779	29.0187
505.533	30.19
507.287	31.9995
509.042	34.2859
510.795	36.4418
512.547	37.4382
514.299	38.5453
516.051	38.4958
517.803	38.7557
519.554	40.0351
521.305	39.8447
523.055	41.7517
524.805	41.9844
526.555	43.0827
528.307	42.707
530.056	42.9154
531.805	43.6439
533.553	43.4676
535.301	43.4469
537.049	42.6662
538.797	41.8788
540.544	40.2971
542.291	39.5841
544.037	38.353
545.783	36.9744
547.529	36.1204
549.275	35.2359
551.02	32.2548
552.765	30.1349
554.509	29.8746
556.253	27.8484
557.997	27.8401
559.738	28.1338
561.482	26.5813
563.224	23.5266
564.967	21.2721
566.709	20.2787
568.451	19.2136
570.192	17.8854
571.933	15.8759
573.674	14.359
575.415	12.3805
577.153	11.9321
578.893	8.95791
580.632	9.37016
582.371	8.6188
584.11	10.2608
585.849	9.99739
587.587	9.82865
589.323	8.34404
591.06	6.24729
592.797	6.10691
594.534	6.71097
596.271	5.99983
598.005	4.46921
599.741	3.82632
601.476	2.57462
603.211	1.33583
604.944	1.52931
606.679	1.50712
608.413	0.979538
610.147	0.962755
611.878	0.529095
613.611	0.516744
615.344	-0.181119
617.077	0.207273
618.807	0.403116
620.539	0.740112
622.27	-0.32156
623.999	0.570021
625.73	2.1208
627.461	2.41268
629.189	3.50855
630.919	4.40491
632.648	6.92715
634.376	8.22059
636.105	8.69357
637.833	9.5323
639.559	12.3536
641.287	14.347
643.013	15.6012
644.74	18.5899
646.467	19.222
648.192	19.3969
649.918	21.8534
651.642	22.0413
653.368	22.8533
655.091	24.3825
656.816	24.0035
658.538	24.726
660.263	25.5659
661.987	25.9801
663.708	26.5902
665.432	26.8754
667.153	28.1206
668.875	27.339
670.596	29.3
672.318	27.7978
674.037	27.2252
675.759	25.1335
677.478	24.3809
679.196	24.121
680.917	23.1065
682.635	20.7601
684.355	20.06
686.072	20.1357
687.791	18.5999
689.508	17.4286
691.224	15.1726
692.942	13.2491
694.658	11.8242
696.376	11.0465
698.091	9.33501
699.805	7.43691
701.522	4.74267
703.236	5.42413
704.95	4.4876
706.665	4.9596
708.379	4.3515
710.093	5.31545
711.806	4.46844
713.518	4.01299
715.23	4.65035
716.943	4.89361
718.655	4.27784
720.366	3.25833
722.078	4.19407
723.788	5.65643
725.498	6.25349
727.208	6.79982
728.919	7.41828
730.628	7.80217
732.337	7.43316
734.045	8.22898
735.755	8.23808
737.463	7.75942
739.17	8.60701
740.877	9.37418
742.584	8.91427
744.292	9.89477
745.998	11.4821
747.704	13.0497
749.409	13.7812
751.114	15.1813
752.819	16.5356
754.526	17.2371
756.23	18.6569
757.934	19.0834
759.637	20.2721
761.34	20.6731
763.043	22.3228
764.746	24.2318
766.448	26.0743
768.152	28.0222
769.853	30.6454
771.554	33.4322
773.255	34.3169
774.956	34.9103
776.656	35.4087
778.356	36.7044
780.056	38.3736
781.755	39.967
783.454	40.6823
785.153	41.5417
786.851	42.0181
788.549	44.9904
790.247	44.5484
791.944	45.7361
793.641	45.4803
795.338	45.5917
797.034	45.6773
798.73	44.9658
800.426	44.7855
802.121	45.2575
803.817	44.829
805.511	44.4619
807.206	44.9766
808.9	44.5735
810.592	43.9511
812.286	43.5412
813.979	43.8258
815.672	43.4035
817.364	43.4365
819.057	43.2771
820.748	44.4753
822.44	44.8008
824.129	44.3345
825.82	46.311
827.511	46.6405
829.201	48.1974
830.891	47.8056
832.581	47.1307
834.269	46.6182
835.958	46.2654
837.646	45.5502
839.335	46.0751
841.023	45.3101
842.709	45.8432
844.396	44.6229
846.084	43.1115
847.77	42.4696
849.455	41.5172
851.141	42.0763
852.827	41.4301
854.513	41.1852
856.196	40.0226
857.881	38.3589
859.566	37.4582
861.248	35.6125
862.932	35.4155
864.616	34.5212
866.297	33.7024
867.98	32.3702
869.663	30.871
871.343	30.8119
873.026	29.5717
874.707	27.1841
876.387	26.6283
878.068	26.0646
879.747	25.1928
881.428	24.2892
883.108	21.6806
884.786	21.3705
886.465	21.9784
888.143	19.857
889.822	14.5068
891.498	10.3524
893.177	6.31845
894.855	5.86718
896.53	11.5357
898.208	16.0299
899.883	20.6349
901.56	25.4394
903.234	29.8454
904.91	33.7311
906.584	35.7694
908.26	39.9184
909.933	44.931
911.608	46.5437
913.28	49.1376
914.955	49.2702
916.627	52.5935
918.298	53.462
919.972	53.4348
921.643	54.0028
923.315	55.0756
924.986	54.6726
926.656	56.1401
928.328	55.0469
929.997	54.6391
931.668	55.678
933.337	55.3364
935.006	55.3914
936.676	54.0596
938.344	53.03
940.012	51.1035
941.681	51.3962
943.348	49.7372
945.014	48.0602
946.683	47.5043
948.349	46.2181
950.015	44.2563
951.682	42.5318
953.347	40.8014
955.012	37.3866
956.676	33.6587
958.343	31.3569
960.006	28.9713
961.67	26.2341
963.333	23.8581
964.998	20.9598
966.661	18.8425
968.323	18.3021
969.985	16.7839
971.649	14.4245
973.31	14.6488
974.971	18.6117
976.632	25.5381
978.293	34.5197
979.953	41.3408
981.615	43.5293
983.274	44.841
984.933	47.277
986.592	47.366
988.251	48.9861
989.909	50.382
991.567	51.5911
993.225	51.2754
994.884	50.022
996.541	49.079
998.198	49.1409
999.855	50.3586
1001.51	49.3716
1003.17	48.8694
1004.82	50.4168
1006.48	50.9764
1008.13	50.8937
1009.79	50.659
1011.44	49.8401
1013.1	49.5892
1014.75	48.6054
1016.4	49.004
1018.06	51.4071
1019.71	55.0192
1021.36	59.2059
1023.01	65.9773
1024.66	72.4924
1026.32	77.463
1027.97	83.1675
1029.62	87.7895
1031.27	93.0067
1032.92	96.2233
1034.57	101.286
1036.22	104.838
1037.87	107.255
1039.52	110.771
1041.16	113.955
1042.81	117.382
1044.46	120.67
1046.11	124.429
1047.76	126.157
1049.4	128.181
1051.05	128.86
1052.7	128.55
1054.34	127.876
1055.99	126.268
1057.63	124.241
1059.28	122.724
1060.92	120.752
1062.57	115.919
1064.21	113.596
1065.85	109.228
1067.5	106.588
1069.14	100.031
1070.78	95.4409
1072.43	89.4873
1074.07	83.4518
1075.71	77.5977
1077.35	71.7973
1078.99	63.4839
1080.63	57.2388
1082.27	49.3397
1083.91	41.5169
1085.55	35.3877
1087.19	30.4663
1088.83	24.3577
1090.47	20.7527
1092.11	18.7669
1093.75	15.9385
1095.39	13.4577
1097.03	13.549
1098.66	16.4571
1100.3	17.484
1101.94	18.6755
1103.57	20.6214
1105.21	21.4317
1106.84	21.7326
1108.48	22.4956
1110.11	21.9415
1111.75	20.7958
1113.38	19.6617
1115.02	17.8544
1116.65	17.932
1118.29	16.6694
1119.92	15.9675
1121.55	15.5754
1123.19	14.6459
1124.82	14.7526
1126.45	14.6076
1128.08	13.04
1129.71	12.74
1131.34	11.6876
1132.97	11.7665
1134.6	11.3288
1136.23	11.0371
1137.86	12.1321
1139.49	13.9414
1141.12	15.5253
1142.75	15.8166
1144.38	15.2607
1146.01	16.6305
1147.64	16.5347
1149.26	15.5586
1150.89	13.2091
1152.52	13.087
1154.15	12.3674
1155.77	10.885
1157.4	9.88907
1159.02	7.11282
1160.65	5.17027
1162.27	5.93896
1163.9	5.64517
1165.52	6.12368
1167.15	6.57753
1168.77	7.20262
1170.39	7.89192
1172.02	9.11103
1173.64	9.59648
1175.26	9.46769
1176.89	10.09
1178.51	13.0686
1180.13	13.9864
1181.75	13.5634
1183.37	15.095
1184.99	15.4146
1186.61	16.3109
1188.23	17.9059
1189.85	17.9531
1191.47	17.7917
1193.09	19.4276
1194.71	21.931
1196.33	23.4783
1197.94	25.413
1199.56	27.2375
1201.18	28.5675
1202.8	28.0464
1204.41	29.6833
1206.03	33.7899
1207.65	36.3732
1209.26	37.2396
1210.88	40.4945
1212.49	42.5881
1214.11	45.6696
1215.72	47.8793
1217.34	49.9556
1218.95	53.4531
1220.57	56.6937
1222.18	58.3791
1223.79	59.8919
1225.41	62.3728
1227.02	63.3424
1228.63	65.3407
1230.24	65.2728
1231.85	66.5394
1233.47	68.1725
1235.08	68.3991
1236.69	69.3879
1238.3	70.3233
1239.91	70.6521
1241.52	71.3927
1243.13	72.4115
1244.74	72.6575
1246.34	73.6928
1247.95	73.7562
1249.56	74.7713
1251.17	74.0359
1252.78	73.6526
1254.38	74.0065
1255.99	74.3231
1257.6	74.4659
1259.2	74.6907
1260.81	72.7121
1262.42	70.7251
1264.02	69.64
1265.63	66.8705
1267.23	67.9967
1268.84	67.0921
1270.44	65.6777
1272.04	64.9631
1273.65	66.0939
1275.25	66.6025
1276.85	66.1177
1278.46	65.4999
1280.06	65.7916
1281.66	65.6261
1283.26	66.5546
1284.86	69.5832
1286.46	71.5386
1288.07	72.561
1289.67	72.7604
1291.27	75.3034
1292.87	77.392
1294.47	80.0475
1296.06	81.4481
1297.66	83.9254
1299.26	87.2285
1300.86	89.3664
1302.46	90.7415
1304.06	93.7664
1305.65	95.2736
1307.25	95.8706
1308.85	98.5003
1310.44	99.7155
1312.04	102.559
1313.64	103.337
1315.23	104.365
1316.83	104.434
1318.42	104.372
1320.02	104.849
1321.61	104.597
1323.2	106.468
1324.8	106.825
1326.39	107.371
1327.99	105.929
1329.58	103.759
1331.17	102.648
1332.76	102.349
1334.36	101.835
1335.95	100.21
1337.54	99.1719
1339.13	96.9105
1340.72	95.1319
1342.31	93.8902
1343.9	92.9788
1345.49	91.5854
1347.08	92.1474
1348.67	89.642
1350.26	89.2733
1351.85	89.4373
1353.43	88.867
1355.02	87.6259
1356.61	85.7473
1358.2	82.5561
1359.78	81.9009
1361.37	81.9392
1362.96	81.3291
1364.54	79.9088
1366.13	79.1641
1367.71	78.5081
1369.3	76.6591
1370.88	76.3089
1372.47	74.967
1374.05	74.5439
1375.64	72.4526
1377.22	71.6708
1378.8	70.7829
1380.39	70.32
1381.97	70.7557
1383.55	70.7436
1385.13	69.5944
1386.72	69.0544
1388.3	69.8856
1389.88	69.6331
1391.46	69.0169
1393.04	66.4227
1394.62	67.3509
1396.2	66.1123
1397.78	67.2121
1399.36	69.1764
1400.94	71.064
1402.52	71.3345
1404.1	71.9685
1405.68	71.9272
1407.25	72.505
1408.83	74.2249
1410.41	77.6454
1411.98	80.5334
1413.56	84.4934
1415.14	86.135
1416.71	90.2393
1418.29	92.6321
1419.87	96.5879
1421.44	100.387
1423.02	104.752
1424.59	110.543
1426.16	114.334
1427.74	120.012
1429.31	123.723
1430.89	126.679
1432.46	129.515
1434.03	131.82
1435.6	134.348
1437.18	135.904
1438.75	139.158
1440.32	141.607
1441.89	142.396
1443.46	144.061
1445.03	145.329
1446.6	145.663
1448.17	145.107
1449.74	145.068
1451.31	144.586
1452.88	144.636
1454.45	143.603
1456.02	143.267
1457.59	141.882
1459.16	139.733
1460.72	136.417
1462.29	132.807
1463.86	130.106
1465.43	126.944
1466.99	123.876
1468.56	119.743
1470.13	115.49
1471.69	112.408
1473.26	108.92
1474.82	103.121
1476.38	99.1713
1477.95	96.0235
1479.51	91.4173
1481.08	85.8835
1482.64	83.5447
1484.2	78.635
1485.77	75.8734
1487.33	72.9281
1488.89	69.7899
1490.46	65.8515
1492.02	62.7547
1493.58	59.2334
1495.14	60.1036
1496.7	58.0313
1498.26	57.478
1499.82	56.2504
1501.38	55.2161
1502.94	53.114
1504.5	50.8241
1506.06	50.9825
1507.62	48.0334
1509.18	47.1667
1510.73	44.9776
1512.29	43.8152
1513.85	45.4647
1515.41	44.7075
1516.96	43.8272
1518.52	43.6124
1520.08	43.9042
1521.63	45.0071
1523.19	44.5833
1524.75	45.9032
1526.3	45.773
1527.85	46.9156
1529.41	48.2772
1530.96	47.937
1532.52	47.138
1534.07	46.7746
1535.62	46.9296
1537.18	47.2767
1538.73	48.0315
1540.28	50.6485
1541.84	51.1868
1543.39	51.977
1544.94	54.2655
1546.49	53.7424
1548.04	54.322
1549.59	54.5897
1551.14	53.4288
1552.69	54.7711
1554.25	55.7083
1555.79	57.4131
1557.34	56.65
1558.89	56.9015
1560.44	58.5034
1561.99	58.8766
1563.54	60.4463
1565.08	61.7035
1566.63	61.4699
1568.18	64.0733
1569.73	66.7301
1571.27	69.2214
1572.82	71.4626
1574.37	72.2197
1575.91	74.2467
1577.46	76.3556
1579	77.2111
1580.55	80.4442
1582.09	83.038
1583.64	83.3948
1585.18	84.7466
1586.73	86.2082
1588.27	87.2661
1589.81	89.566
1591.35	91.766
1592.9	92.1581
1594.44	92.7982
1595.98	94.7981
1597.52	94.7769
1599.06	95.5562
1600.61	94.1664
1602.15	94.3715
1603.69	93.8403
1605.23	94.3125
1606.77	92.2681
1608.31	90.3786
1609.85	89.2231
1611.39	88.2381
1612.93	87.6875
1614.46	87.5361
1616	86.9683
1617.54	85.6758
1619.08	82.8543
1620.61	82.1729
1622.15	80.7843
1623.69	78.3473
1625.23	78.1499
1626.76	76.8791
1628.3	76.6515
1629.83	77.2649
1631.37	77.1085
1632.9	77.8821
1634.44	78.1118
1635.97	79.8701
1637.51	80.5149
1639.04	80.5022
1640.57	81.6934
1642.11	83.4395
1643.64	84.6567
1645.17	87.1555
1646.71	87.8028
1648.24	89.6029
1649.77	91.0533
1651.3	91.2741
1652.83	91.4935
1654.36	91.5238
1655.89	90.9657
1657.42	92.0386
1658.96	90.6316
1660.48	90.0708
1662.01	91.5423
1663.54	91.2462
1665.07	90.8617
1666.6	90.1803
1668.13	88.6706
1669.66	86.2072
1671.19	83.3148
1672.71	81.62
1674.24	78.1042
1675.77	76.617
1677.29	73.1445
1678.82	71.6162
1680.35	68.0426
1681.87	64.4656
1683.4	60.1103
1684.92	57.4674
1686.45	53.2789
1687.97	50.6465
1689.5	46.905
1691.02	43.9319
1692.54	39.276
1694.07	35.8223
1695.59	34.2301
1697.11	32.773
1698.64	31.3802
1700.16	30.2756
1701.68	28.2574
1703.2	26.6678
1704.72	25.5393
1706.25	24.3905
1707.77	24.4856
1709.29	23.3079
1710.81	22.817
1712.33	22.4685
1713.85	22.2439
1715.37	22.4429
1716.89	22.2413
1718.41	21.3913
1719.92	19.9847
1721.44	19.1712
1722.96	17.8071
1724.48	17.6579
1725.99	16.9593
1727.51	16.2362
1729.03	15.6692
1730.55	14.4696
1732.06	14.6598
1733.58	14.414
1735.09	13.2669
1736.61	12.9729
1738.13	12.3562
1739.64	11.8173
1741.15	11.2733
1742.67	10.8752
1744.18	10.3767
1745.7	9.67576
1747.21	9.50915
1748.72	8.56279
1750.24	7.20484
1751.75	7.02485
1753.26	5.76286
1754.77	4.54935
1756.29	3.48835
1757.8	3.58704
1759.31	2.47354
1760.82	1.97587
1762.33	0.856101
1763.84	0.830107
1765.35	0.588039
1766.86	0.962171
1768.37	1.49526
1769.88	2.42912
1771.39	3.364
1772.9	3.29938
1774.4	3.5397
1775.91	2.81412
1777.42	3.15724
1778.93	4.18957
1780.44	4.57901
1781.94	5.46623
1783.45	7.3177
1784.96	7.35389
1786.46	7.708
1787.97	8.45928
1789.47	8.78016
1790.98	8.68604
1792.48	9.06956
1793.99	8.99109
1795.49	8.85998
1797	8.9177
1798.5	10.1276
1800.01	11.7573
1801.51	11.4206
1803.01	11.7862
1804.51	10.0772
1806.02	10.489
1807.52	11.3211
1809.02	10.0552
1810.52	10.1922
1812.02	11.2315
1813.52	11.4072
1815.02	11.5828
1816.53	11.8444
1818.03	12.3142
1819.52	11.6082
1821.02	10.3399
1822.52	10.2356
1824.02	9.55191
1825.52	9.3067
1827.02	9.58856
1828.52	9.31514
1830.02	8.92522
1831.51	9.83013
1833.01	10.155
1834.51	9.2641
1836.01	8.95454
1837.5	7.79423
1839	7.85022
1840.49	8.02254
1841.99	7.64665
1843.49	8.50037
1844.98	8.44599
1846.48	8.32204
1847.97	8.87963
1849.47	8.76282
1850.96	9.49211
1852.45	9.73239
1853.95	9.13744
1855.44	8.65556
1856.93	10.173
1858.42	9.9134
1859.92	10.374
1861.41	10.8885
1862.9	12.5717
1864.39	11.8396
1865.88	12.7701
1867.38	12.2876
1868.87	11.7647
1870.36	12.0458
1871.85	13.0497
1873.34	13.8367
1874.83	13.6717
1876.32	12.9563
1877.81	13.6063
1879.29	12.1254
1880.78	12.9391
1882.27	13.3579
1882.53	14.3856
1884.03	15.2882
1885.52	14.7866
1887.01	13.8945
1888.51	12.9402
1890	13.636
1891.5	12.3841
1892.99	11.7455
1894.48	11.0562
1895.97	10.3763
1897.47	9.63559
1898.96	8.48782
1900.45	8.6958
1901.94	7.77445
1903.43	7.50347
1904.92	8.43062
1906.41	7.31005
1907.9	5.79586
1909.39	5.59376
1910.88	5.06204
1912.37	6.50294
1913.86	6.7137
1915.35	6.87458
1916.84	7.24041
1918.33	6.82443
1919.81	6.83807
1921.3	7.08001
1922.79	7.05559
1924.28	8.12549
1925.76	8.81787
1927.25	9.61794
1928.73	10.2332
1930.22	11.2708
1931.71	11.5042
1933.19	11.9565
1934.68	12.3259
1936.16	12.2171
1937.65	11.2344
1939.13	12.6013
1940.62	12.1988
1942.1	12.4031
1943.58	14.1682
1945.07	14.0728
1946.55	14.0627
1948.03	15.0827
1949.51	15.7217
1951	16.178
1952.48	15.968
1953.96	17.0543
1955.44	17.6721
1956.92	17.2882
1958.4	14.5062
1959.88	13.4618
1961.36	12.5496
1962.84	12.5367
1964.32	12.2797
1965.8	11.5348
1967.28	11.4485
1968.76	10.1645
1970.24	9.67756
1971.72	10.733
1973.2	10.7193
1974.67	10.8728
1976.15	10.3531
1977.63	11.6166
1979.1	11.1268
1980.58	10.0936
1982.06	11.0942
1983.54	11.7519
1985.01	12.0003
1986.49	12.1292
1987.96	11.2117
1989.44	10.6046
1990.91	10.2404
1992.39	9.54086
1993.86	9.65401
1995.33	9.94138
1996.81	10.0757
1998.28	9.52249
1999.75	9.15728
2001.23	8.16527
2002.7	8.37897
2004.17	8.02024
2005.65	7.92699
2007.12	7.57217
2008.59	7.93478
2010.06	7.93552
2011.53	7.97671
2013	9.14193
2014.47	9.54391
2015.94	10.4349
2017.41	13.168
2018.88	13.1333
2020.35	14.1781
2021.82	13.9641
2023.29	13.5584
2024.76	13.5935
2026.23	14.0433
2027.69	12.9761
2029.16	13.141
2030.63	12.2579
2032.1	11.6244
2033.56	13.2454
2035.03	13.4406
2036.5	15.0993
2037.96	14.9941
2039.43	16.3333
2040.89	15.7854
2042.36	16.7958
2043.83	18.4094
2045.29	19.2068
2046.75	19.8049
2048.22	20.7978
2049.68	22.8121
2051.15	23.2803
2052.61	22.555
2054.07	24.1666
2055.54	24.875
2057	23.031
2058.46	21.9513
2059.92	21.0854
2061.39	21.4198
2062.85	21.9348
2064.31	22.1834
2065.77	21.2908
2067.23	20.222
2068.69	19.902
2070.15	18.638
2071.61	18.1437
2073.07	19.0116
2074.53	18.676
2075.99	19.3102
2077.45	19.1228
2078.91	20.6898
2080.37	21.3743
2081.82	21.9635
2083.28	23.4353
2084.74	23.5095
2086.2	24.3739
2087.65	24.7338
2089.11	25.6805
2090.57	24.848
2092.02	22.7196
2093.48	21.7928
2094.94	20.6331
2096.39	20.026
2097.85	19.7898
2099.3	18.5995
2100.76	17.0889
2102.21	17.1315
2103.66	16.6628
2105.12	16.9232
2106.57	16.9932
2108.03	17.0273
2109.48	17.8762
2110.93	16.8028
2112.38	16.8338
2113.84	16.4816
2115.29	17.6459
2116.74	17.5236
2118.19	16.9671
2119.64	16.7714
2121.09	16.1471
2122.54	16.7497
2123.99	16.3884
2125.45	16.3117
2126.89	17.0849
2128.34	16.0714
2129.79	13.8401
2131.24	14.1591
2132.69	14.8868
2134.14	15.0791
2135.59	14.1019
2137.04	12.5072
2138.48	11.4186
2139.93	11.9661
2141.38	12.0647
2142.83	11.8017
2144.27	13.7287
2145.72	14.2033
2147.17	14.7082
2148.61	16.6843
2150.06	16.9434
2151.5	18.3898
2152.95	18.7957
2154.39	18.604
2155.84	18.458
2157.28	18.797
2158.73	18.5778
2160.17	16.9998
2161.61	16.6896
2163.06	15.4504
2164.5	15.6049
2165.94	16.0621
2167.38	14.4368
2168.83	13.7202
2170.27	12.7939
2171.71	12.1488
2173.15	11.6595
2174.59	11.8989
2176.03	12.3336
2177.47	11.9991
2178.91	11.8886
2180.36	11.5982
2181.8	11.5769
2183.23	11.7666
2184.67	11.8125
2186.11	12.5607
2187.55	12.9388
2188.99	13.5592
2190.43	13.839
2191.87	13.4725
2193.3	13.7013
2194.74	14.2298
2196.18	12.6826
2197.62	11.3866
2199.05	11.3234
2200.49	10.4272
2201.93	10.1137
2203.36	10.9014
2204.8	12.5395
2206.23	13.0695
2207.67	13.092
2209.1	12.7969
2210.54	13.1545
2211.97	14.5358
2213.41	15.2237
2214.84	15.4834
2216.27	15.7651
2217.71	15.869
2219.14	16.9381
2220.57	17.3765
2222.01	17.4945
2223.44	18.2713
2224.87	17.6655
2226.3	17.9186
2227.73	17.9913
2229.16	18.9667
2230.6	18.2819
2232.03	17.9749
2233.46	18.3678
2234.89	18.3113
2236.32	17.8773
2237.75	16.5801
2239.18	15.7966
2240.61	15.3893
2242.03	15.513
2243.46	16.7495
2244.89	18.2057
2246.32	19.0505
2247.75	19.2417
2249.17	18.7234
2250.6	18.7477
2252.03	19.1101
2253.46	20.3368
2254.88	20.844
2256.31	20.4585
2257.73	20.4777
2259.16	20.129
2260.59	19.252
2262.01	19.19
2263.44	18.3919
2264.86	19.3591
2266.29	19.1535
2267.71	18.8585
2269.14	19.3928
2270.56	19.584
2271.98	19.4451
2273.4	19.7954
2274.83	19.747
2276.25	20.2192
2277.67	18.7423
2279.09	17.1055
2280.52	15.1176
2281.94	15.3191
2283.36	14.9894
2284.78	13.3048
2286.2	12.306
2287.62	12.4247
2289.04	11.9998
2290.46	10.5315
2291.88	9.30357
2293.3	8.32227
2294.72	7.1377
2296.14	6.54466
2297.56	6.98986
2298.98	8.07587
2300.4	8.95364
2301.82	8.73439
2303.23	8.37897
2304.65	7.04907
2306.07	8.22723
2307.49	8.14443
2308.9	7.85883
2310.32	8.57161
2311.73	9.11002
2313.15	9.80457
2314.57	9.74016
2315.98	9.56889
2317.4	7.74383
2318.81	7.34038
2320.23	7.21704
2321.64	8.04637
2323.06	7.51388
2324.47	7.27639
2325.88	7.55109
2327.3	7.90973
2328.71	8.02483
2330.12	8.809
2331.54	8.89022
2332.95	10.0127
2334.36	9.24424
2335.77	9.64045
2337.18	8.74796
2338.6	8.2174
2340.01	7.84393
2341.42	7.53237
2342.83	6.66431
2344.24	7.59964
2345.65	8.00964
2347.06	7.73471
2348.47	6.90993
2349.88	5.60182
2351.29	4.41803
2352.7	4.48268
2354.1	3.46961
2355.51	3.88343
2356.92	4.36145
2358.33	3.78832
2359.74	3.76128
2361.14	3.26803
2362.55	3.67211
2363.96	3.86243
2365.36	4.80326
2366.77	5.94045
2368.18	7.23872
2369.58	8.97262
2370.99	8.12419
2372.39	7.90329
2373.8	7.0571
2375.2	6.53016
2376.61	7.40606
2378.01	6.78585
2379.42	6.56312
2380.82	6.32788
2382.22	6.08664
2383.63	5.82298
2385.03	4.95628
2386.43	4.43863
2387.84	3.86506
2389.24	3.86522
2390.64	2.9418
2392.04	3.33797
2393.44	3.0269
2394.84	3.66203
2396.25	4.18223
2397.65	3.64163
2399.05	3.63308
2400.45	4.79778
2401.85	4.11927
2403.25	5.20371
2404.65	4.52481
2406.05	4.87087
2407.45	5.28677
2408.84	6.03553
2410.24	6.52088
2411.64	6.81032
2413.04	6.81606
2414.44	7.58537
2415.83	7.09709
2417.23	6.04258
2418.63	5.60749
2420.02	5.25825
2421.42	5.34549
2422.82	5.11841
2424.21	5.7231
2425.61	6.20557
2427	6.79544
2428.4	7.29711
2429.8	7.3913
2431.19	6.06296
2432.58	6.98004
2433.98	6.16821
2435.37	7.10036
2436.77	7.21342
2438.16	7.15553
2439.55	7.18486
2440.95	6.56587
2442.34	6.63487
2443.73	6.43499
2445.12	5.70845
2446.51	5.89566
2447.91	5.20182
2449.3	3.69974
2450.69	3.63515
2452.08	4.26234
2453.47	5.33251
2454.86	4.94041
2456.25	5.06185
2457.64	4.97299
2459.03	5.13122
2460.42	5.5865
2461.81	6.63994
2463.2	5.65061
2464.59	5.55113
2465.98	5.40977
2467.36	5.06678
2468.75	4.93965
2470.14	5.39596
2471.53	5.14116
2472.92	5.54134
2474.3	4.49816
2475.69	3.76455
2477.08	5.08997
2478.46	4.20442
2479.85	3.2338
2481.23	2.68282
2482.62	1.83677
2484	1.08043
2485.39	1.04506
2486.77	0.737712
2488.16	0.0820626
2489.54	-0.557504
2490.93	-1.38009
2492.31	-1.24487
2493.69	-1.047
2495.08	0.725302
2496.46	2.14823
2497.84	1.99659
2499.23	1.20204
2500.61	0.577572
2501.99	1.41928
2503.37	1.22341
2504.75	2.07994
2506.13	2.0708
2507.52	2.10428
2508.9	2.52941
2510.28	2.96694
2511.66	2.86605
2513.04	2.70676
2514.42	2.05195
2515.8	2.1669
2517.18	3.38235
2518.55	3.65313
2519.93	5.99935
2521.31	7.02508
2522.69	7.32025
2524.07	7.20881
2525.45	6.19967
2526.82	5.73264
2528.2	5.70111
2529.58	4.8715
2530.95	5.11055
2532.33	4.51309
2533.71	4.87456
2535.08	4.85418
2536.46	6.26895
2537.84	7.1344
2539.21	8.70762
2540.59	8.95962
2541.96	8.51746
2543.34	8.82078
2544.71	8.87091
2546.08	9.96792
2547.46	8.92971
2548.83	9.49146
2550.2	9.38953
2551.58	9.58998
2552.95	8.91125
2554.32	10.1241
2555.7	10.0173
2557.07	10.3271
2558.44	11.6027
2559.81	11.4727
2561.18	12.2448
2562.55	13.0586
2563.93	14.8285
2565.3	13.7026
2566.67	13.7778
2568.04	13.3266
2569.41	13.8795
2570.78	14.9601
2572.15	13.8608
2573.51	12.9745
2574.88	12.5983
2576.25	12.1276
2577.62	12.7508
2578.99	11.1634
2580.36	10.7419
2581.73	10.6656
2583.09	9.48835
2584.46	9.73458
2585.83	10.1799
2587.19	9.08019
2588.56	8.91237
2589.93	8.245
2591.29	8.15803
2592.66	7.96239
2594.02	7.47116
2595.39	7.51794
2596.75	7.37506
2598.12	7.26672
2599.48	8.45219
2600.85	8.54551
2602.21	9.65187
2603.58	10.2177
2604.94	10.686
2606.3	10.0244
2607.67	10.1315
2609.03	9.02237
2610.39	9.01986
2611.76	9.14228
2613.12	9.80996
2614.48	10.7742
2615.84	11.354
2617.2	12.1075
2618.56	11.6682
2619.92	11.492
2621.28	10.94
2622.65	12.4358
2624.01	11.7126
2625.37	11.5637
2626.72	11.189
2628.08	10.7282
2629.44	11.7109
2630.8	12.267
2632.16	12.3757
2633.52	12.1827
2634.88	11.2474
2636.24	9.94353
2637.59	10.0751
2638.95	9.5288
2640.31	8.50534
2641.67	8.81964
2643.02	9.02139
2644.38	9.24481
2645.74	10.1439
2647.09	9.3898
2648.45	11.1846
2649.8	11.7817
2651.16	11.0079
2652.51	12.0973
2653.87	11.9414
2655.22	12.3528
2656.58	11.8562
2657.93	12.4785
2659.29	13.3513
2660.64	13.4399
2661.99	14.15
2663.35	13.8379
2664.7	13.9952
2666.05	13.6971
2667.41	13.7509
2668.76	13.5056
2670.11	14.0102
2671.46	13.8398
2672.81	13.6666
2674.16	13.7304
2675.51	14.047
2676.87	13.4599
2678.22	14.6692
2679.57	15.5477
2680.92	15.0658
2682.27	14.8334
2683.62	14.2441
2684.97	13.1815
2686.31	12.5288
2687.66	12.2431
2689.01	11.7435
2690.36	11.6588
2691.71	10.5348
2693.06	10.8608
2694.4	11.4998
2695.75	12.0134
2697.1	11.9743
2698.45	12.135
2699.79	11.7118
2701.14	11.6019
2702.49	11.2741
2703.83	12.1322
2705.18	13.2311
2706.52	14.283
2707.87	15.144
2709.21	16.5122
2710.56	17.5877
2711.9	18.8207
2713.25	20.8148
2714.59	20.9373
2715.94	21.798
2717.28	21.4099
2718.62	21.1788
2719.97	22.0081
2721.31	22.0511
2722.65	23.5344
2723.99	24.8749
2725.34	26.5719
2726.68	27.8622
2728.02	29.1296
2729.36	29.4659
2730.7	29.3437
2732.04	28.4886
2733.39	28.5991
2734.73	28.3149
2736.07	28.0983
2737.41	28.5881
2738.75	27.552
2740.08	26.5886
2741.43	25.9647
2742.76	25.2539
2744.1	24.0551
2745.44	23.0633
2746.78	22.0688
2748.12	20.9522
2749.46	21.1555
2750.79	20.026
2752.13	19.151
2753.47	18.8951
2754.81	18.2022
2756.14	17.4838
2757.48	17.0854
2758.81	17.2465
2760.15	16.8027
2761.49	16.6129
2762.82	15.688
2764.16	14.9019
2765.49	14.6246
2766.83	13.4227
2768.16	14.0333
2769.5	13.1224
2770.83	11.8254
2772.16	11.9147
2773.5	10.7269
2774.83	9.74802
2776.17	10.1679
2777.5	9.22667
2778.83	9.14893
2780.16	8.5514
2781.5	7.66099
2782.83	7.68132
2784.16	8.23073
2785.49	8.63207
2786.82	9.27878
2788.15	9.84228
2789.49	10.6794
2790.82	9.46337
2792.15	8.19341
2793.48	7.02764
2794.81	5.63545
2796.14	3.88364
2797.46	3.9395
2798.79	2.39257
2800.12	2.03423
2801.45	0.710278
2802.78	-0.0516994
2804.11	0.515625
2805.44	-0.538517
2806.76	-0.582416
2808.09	-0.760461
2809.42	-0.0974936
2810.75	0.657455
2812.07	0.828718
2813.4	2.74406
2814.73	3.84168
2816.05	6.00569
2817.38	8.42156
2818.7	11.2847
2820.03	14.487
2821.36	17.9786
2822.68	20.6238
2824.01	23.9472
2825.33	27.7725
2826.65	31.4194
2827.98	35.7544
2829.3	39.1819
2830.63	43.7204
2831.95	47.3782
2833.27	51.5321
2834.6	56.0495
2835.92	59.6435
2837.24	64.2708
2838.56	70.051
2839.88	74.9367
2841.21	82.0247
2842.53	89.0907
2843.85	93.7314
2845.17	101.385
2846.49	107.675
2847.81	115.36
2849.13	122.187
2850.45	129.72
2851.77	136.425
2853.09	143.103
2854.41	148.773
2855.73	154.457
2857.05	159.715
2858.37	166.223
2859.69	173.862
2861	180.301
2862.32	185.809
2863.64	191.385
2864.96	194.926
2866.28	199.958
2867.59	204.808
2868.91	208.657
2870.23	213.752
2871.54	217.627
2872.86	222.172
2874.17	225.432
2875.49	228.823
2876.81	231.939
2878.12	234.297
2879.44	237.882
2880.75	240.349
2882.07	243.761
2883.38	246.6
2884.69	249.342
2886.01	251.647
2887.32	254.502
2888.63	255.97
2889.95	258.473
2891.26	260.444
2892.57	262.137
2893.89	264.51
2895.2	267.001
2896.51	269.213
2897.82	271.464
2899.13	273.817
2900.44	276.596
2901.76	279.323
2903.07	282.694
2904.38	286.343
2905.69	290.461
2907	295.457
2908.31	299.17
2909.62	303.753
2910.93	310.48
2912.24	314.994
2913.55	321.167
2914.85	327.277
2916.16	332.074
2917.47	336.207
2918.78	339.648
2920.09	343.192
2921.4	346.326
2922.7	350.513
2924.01	353.17
2925.32	355.824
2926.62	356.341
2927.93	356.191
2929.24	356.758
2930.54	356.915
2931.85	355.572
2933.15	353.739
2934.46	351.007
2935.76	349.467
2937.07	346.626
2938.37	341.846
2939.68	337.63
2940.98	332.737
2942.29	327.572
2943.59	320.913
2944.89	315.293
2946.2	310.169
2947.5	303.598
2948.8	297.414
2950.11	290.506
2951.41	284.433
2952.71	278.014
2954.01	270.705
2955.32	265.677
2956.62	258.554
2957.92	250.993
2959.22	245.427
2960.52	237.21
2961.82	230.605
2963.12	223.459
2964.42	216.176
2965.72	209.709
2967.02	203.206
2968.32	197.314
2969.62	192.017
2970.92	186.907
2972.22	181.553
2973.51	176.488
2974.81	172.595
2976.11	168.044
2977.41	161.823
2978.71	156.387
2980	150.909
2981.3	144.348
2982.6	138.532
2983.9	133.485
2985.19	128.491
2986.49	122.633
2987.78	117.302
2989.08	111.642
2990.38	106.93
2991.67	101.784
2992.97	95.2763
2994.26	89.7552
2995.56	84.5005
2996.85	78.5006
2998.14	74.7742
2999.44	70.5379
3000.73	65.9128
3002.03	60.8092
3003.32	55.3168
3004.61	52.1746
3005.91	46.8257
3007.2	42.6708
3008.49	38.2752
3009.78	36.2336
3011.07	34.1613
3012.37	30.2159
3013.66	28.4584
3014.95	25.9667
3016.24	23.0938
3017.53	20.1719
3018.82	18.1206
3020.11	16.4234
3021.4	13.4979
3022.69	11.5576
3023.98	10.7592
3025.27	8.84213
3026.56	8.14924
3027.85	6.50286
3029.14	6.47373
3030.43	5.24227
3031.71	4.66584
3033	3.97247
3034.29	3.31993
3035.58	2.9662
3036.87	3.04882
3038.15	3.06313
3039.44	3.03218
3040.73	1.83745
3042.01	1.04251
3043.3	1.59019
3044.59	2.7315
3045.87	3.55549
3047.16	3.78181
3048.44	5.01458
3049.73	4.41211
3051.01	3.90985
3052.3	3.12561
3053.58	4.38091
3054.87	4.38041
3056.15	3.69641
3057.43	3.44863
3058.72	3.82788
3060	3.48728
3061.29	3.92701
3062.57	4.81938
3063.85	3.81078
3065.13	2.93421
3066.42	3.15858
3067.7	3.28527
3068.98	3.4382
3070.26	3.00269
3071.54	2.49979
3072.82	2.99203
3074.11	3.24666
3075.39	2.53004
3076.67	1.04025
3077.95	0.570288
3079.23	-0.101727
3080.51	0.186325
3081.79	1.22797
3083.07	1.56958
3084.35	1.86403
3085.63	1.35317
3086.9	0.659805
3088.18	-0.150131
3089.46	0.31992
3090.74	-0.305086
3092.02	0.292695
3093.29	-0.21975
3094.57	-1.11364
3095.85	-1.19382
3097.13	-0.29755
3098.4	0.339553
3099.68	1.9496
3100.95	2.36997
3102.23	3.07871
3103.51	3.84692
3104.78	3.98153
3106.06	5.79135
3107.33	6.93351
3108.61	8.34431
3109.88	9.05297
3111.16	8.57117
3112.43	9.28747
3113.71	8.72027
3114.98	9.81483
3116.25	10.5306
3117.53	12.397
3118.8	12.9705
3120.07	13.5928
3121.35	14.937
3122.62	15.3662
3123.89	16.1458
3125.16	17.982
3126.44	18.5019
3127.71	18.4662
3128.98	19.6768
3130.25	20.7759
3131.52	21.5939
3132.79	22.1209
3134.06	22.92
3135.33	23.2376
3136.6	24.6627
3137.87	24.7262
3139.14	25.6146
3140.41	26.2705
3141.68	26.8451
3142.95	27.0923
3144.22	26.9422
3145.49	26.8786
3146.76	27.1719
3148.02	28.0179
3149.29	30.4911
