#Acq. time (s)=	45
#Accumulations=	2
#Range (cm-¹)=	200...3150
#Windows=	2
#Auto scanning=	Off
#Autofocus=	Off
#Macrospot=	Off
#AutoExposure=	Off
#Spike filter=	Multiple accum.
#Delay time (s)=	0
#Binning=	1
#Readout mode=	Signal
#DeNoise=	Off
#ICS correction=	On
#Dark correction=	Off
#Inst. Process=	Off
#Detector Gain=	Best Dynamic Range
#Detector ADC=	20 kHz       
#Detector temperature (°C)=	-69.85
#Instrument=	LabRAM HR Evol
#Detector=	Synapse
#Objective=	x100
#Grating=	600 gr/mm
#ND Filter=	100%
#Laser (nm)=	532 
#Hole=	100.021
#Range=	Auto
#Laser Pol.=	No
#Raman. Pol.=	No
#Laser Pol. (°)=	-0.0007625
#Raman Pol. (°)=	89.9995
#Collection=	Microscope
#StageXY=	Marzhauser
#StageZ=	Marzhauser
#X (µm)=	-1003
#Y (µm)=	-2827.3
#Z (µm)=	528.3
#Full time(mm:ss)=	3:18
#Project=	
#Sample=	
#Site=	
#Title=	Mb_00_13_32_2x_45s_532 nm_x100_100%_600 gr_mm
#Remark=	
#Date=	06.07.2022 12:19
#Acquired=	06.07.2022 12:19:00
#Base:Fit=	10.08.2022 10:16:56
#Base:Sub=	10.08.2022 10:17:24
#Filter:Polynom=	16.08.2022 10:36:38
#AxisType[0]=Intens
#AxisUnit[0]=Cnt
#AxisType[1]=Spectr
#AxisUnit[1]=1/cm
200.398	29.9968
202.213	24.8305
204.027	18.0303
205.843	10.9719
207.657	3.69925
209.47	-2.2982
211.283	-6.6615
213.097	-8.83815
214.909	-9.93438
216.721	-9.02723
218.533	-6.28619
220.344	1.46131
222.157	8.55386
223.967	16.4856
225.777	26.0711
227.587	35.3342
229.396	44.9462
231.205	53.2666
233.016	61.2908
234.824	69.4416
236.632	79.2374
238.439	88.0508
240.247	95.3817
242.053	102.781
243.86	109.086
245.666	114.187
247.474	122.515
249.279	129.877
251.085	134.981
252.889	141.85
254.694	147.314
256.498	150.839
258.301	154.079
260.105	156.429
261.908	159.262
263.71	160.573
265.513	161.165
267.315	160.755
269.116	160.305
270.918	159.454
272.718	156.869
274.519	153.425
276.319	149.099
278.119	142.527
279.918	137.24
281.718	129.716
283.516	120.345
285.315	112.397
287.113	104.916
288.911	96.3676
290.708	88.4805
292.505	80.4575
294.302	72.3555
296.098	65.6154
297.894	60.1231
299.69	54.7771
301.485	49.8864
303.278	46.8545
305.073	43.1949
306.867	40.4787
308.661	38.1276
310.454	36.8996
312.247	32.9922
314.04	29.9632
315.833	28.1753
317.623	25.88
319.415	23.1452
321.206	21.58
322.997	20.6301
324.788	19.5575
326.579	19.5592
328.367	15.9894
330.156	13.7882
331.946	13.7851
333.735	11.7231
335.523	9.52425
337.31	8.3605
339.098	6.93874
340.885	6.53762
342.673	6.75375
344.458	5.7335
346.244	5.29035
348.03	5.45599
349.816	6.05757
351.6	5.30047
353.385	4.20685
355.17	4.14403
356.953	2.37508
358.737	1.68122
360.521	1.78135
362.304	2.53474
364.085	6.32444
365.868	8.4062
367.65	11.9995
369.431	15.4494
371.212	18.4991
372.994	21.7476
374.773	26.9246
376.554	30.5797
378.332	34.8038
380.112	40.2769
381.892	47.7951
383.669	56.7882
385.448	66.3387
387.225	75.4195
389.003	85.2113
390.781	97.1063
392.557	106.488
394.334	113.223
396.109	119.919
397.885	126.887
399.66	132.832
401.436	138.225
403.211	143.378
404.984	148.784
406.759	153.749
408.532	156.258
410.306	157.718
412.078	157.813
413.851	156.369
415.623	156.939
417.395	155.626
419.166	154.313
420.938	152.513
422.708	148.52
424.477	145.297
426.248	141.549
428.017	136.675
429.788	130.812
431.556	123.151
433.326	116.325
435.093	108.647
436.86	100.344
438.629	91.5376
440.395	81.8492
442.163	73.7925
443.929	66.3057
445.694	59.2245
447.461	54.3166
449.226	49.5662
450.99	44.0673
452.756	40.3567
454.52	35.048
456.285	29.5622
458.048	25.285
459.811	23.795
461.573	22.2063
463.337	21.6955
465.099	20.6601
466.86	22.4101
468.623	24.1129
470.384	26.8584
472.144	29.467
473.906	30.358
475.666	33.9133
477.425	36.4451
479.184	38.2723
480.944	37.9029
482.703	39.1057
484.461	41.3975
486.218	43.8354
487.975	45.809
489.734	49.4697
491.491	51.167
493.247	53.7289
495.003	56.0958
496.759	56.224
498.516	58.2683
500.271	61.5072
502.025	63.6515
503.779	66.3005
505.533	66.2172
507.287	67.6699
509.042	68.8713
510.795	67.9434
512.547	68.7008
514.299	69.3507
516.051	69.4914
517.803	70.0098
519.554	70.8929
521.305	71.9462
523.055	72.3712
524.805	72.0745
526.555	72.3877
528.307	73.5575
530.056	74.7048
531.805	74.4535
533.553	74.0519
535.301	73.1219
537.049	71.2258
538.797	71.2894
540.544	69.8207
542.291	67.9218
544.037	65.778
545.783	63.9442
547.529	60.9316
549.275	57.8731
551.02	54.3519
552.765	52.5356
554.509	50.2931
556.253	49.2227
557.997	46.9358
559.738	45.2617
561.482	42.7248
563.224	41.7881
564.967	39.1851
566.709	37.588
568.451	36.1627
570.192	34.9293
571.933	33.7457
573.674	30.283
575.415	29.2252
577.153	27.893
578.893	24.8144
580.632	23.3831
582.371	21.1648
584.11	20.2017
585.849	19.5493
587.587	18.2252
589.323	14.5178
591.06	12.6835
592.797	11.412
594.534	11.8863
596.271	9.95221
598.005	9.98311
599.741	12.1939
601.476	11.0813
603.211	9.76824
604.944	9.53367
606.679	10.2732
608.413	8.89579
610.147	7.95635
611.878	8.08327
613.611	6.86551
615.344	6.20345
617.077	5.66616
618.807	4.69776
620.539	4.56657
622.27	5.7947
623.999	6.47962
625.73	7.12429
627.461	6.77453
629.189	7.90406
630.919	8.2363
632.648	9.66521
634.376	12.9562
636.105	17.67
637.833	20.9238
639.559	23.8543
641.287	26.1336
643.013	28.9609
644.74	29.4532
646.467	31.5103
648.192	33.7136
649.918	36.0543
651.642	35.4806
653.368	35.3653
655.091	36.5492
656.816	36.469
658.538	36.8457
660.263	34.8984
661.987	35.4238
663.708	34.5714
665.432	32.6648
667.153	32.3845
668.875	32.5491
670.596	33.1596
672.318	32.4581
674.037	30.6054
675.759	28.0417
677.478	27.1776
679.196	26.6942
680.917	24.6843
682.635	22.0372
684.355	19.9696
686.072	16.7802
687.791	12.8696
689.508	11.8134
691.224	9.55545
692.942	7.37989
694.658	5.37241
696.376	3.55271
698.091	3.07664
699.805	2.42253
701.522	2.52335
703.236	3.74962
704.95	3.68802
706.665	4.62693
708.379	4.97091
710.093	5.58879
711.806	5.75957
713.518	7.02297
715.23	8.24088
716.943	8.89774
718.655	10.3998
720.366	12.6673
722.078	14.0838
723.788	13.5276
725.498	13.3392
727.208	14.5638
728.919	13.6314
730.628	14.3834
732.337	14.7608
734.045	15.5437
735.755	15.8214
737.463	15.8191
739.17	18.3016
740.877	20.029
742.584	19.9786
744.292	21.7551
745.998	21.8855
747.704	23.5312
749.409	24.8939
751.114	25.5967
752.819	27.9457
754.526	30.2037
756.23	31.2281
757.934	31.6915
759.637	31.592
761.34	32.2164
763.043	32.9281
764.746	33.7314
766.448	33.3615
768.152	34.8431
769.853	35.7673
771.554	36.7966
773.255	38.0201
774.956	40.7618
776.656	41.0047
778.356	41.241
780.056	42.7365
781.755	44.0168
783.454	45.6269
785.153	44.7255
786.851	43.6555
788.549	44.9278
790.247	43.5442
791.944	42.3919
793.641	40.9728
795.338	42.3472
797.034	41.1748
798.73	40.8547
800.426	40.9112
802.121	40.927
803.817	40.8505
805.511	40.9568
807.206	39.5475
808.9	37.2191
810.592	36.7748
812.286	36.9514
813.979	36.6996
815.672	38.5078
817.364	38.6175
819.057	39.4678
820.748	40.5115
822.44	41.3898
824.129	40.4416
825.82	41.4952
827.511	41.3767
829.201	41.7627
830.891	41.6908
832.581	42.3854
834.269	42.1589
835.958	42.6145
837.646	42.4015
839.335	42.3886
841.023	41.5898
842.709	41.3058
844.396	41.8406
846.084	40.6343
847.77	39.1463
849.455	38.1141
851.141	38.7151
852.827	36.9752
854.513	35.3928
856.196	35.3513
857.881	34.4446
859.566	33.6458
861.248	30.0946
862.932	28.4022
864.616	27.5971
866.297	26.9083
867.98	24.3875
869.663	23.8859
871.343	23.8267
873.026	23.1183
874.707	20.5535
876.387	19.9629
878.068	20.4347
879.747	20.1808
881.428	19.1505
883.108	18.5808
884.786	16.959
886.465	15.2159
888.143	12.6825
889.822	11.5831
891.498	11.1207
893.177	12.696
894.855	12.6148
896.53	13.8923
898.208	14.2245
899.883	15.9046
901.56	14.2742
903.234	13.6093
904.91	12.0669
906.584	9.95296
908.26	9.71351
909.933	10.7638
911.608	9.65652
913.28	8.89
914.955	9.0677
916.627	8.37006
918.298	9.13292
919.972	9.30179
921.643	10.1386
923.315	10.734
924.986	11.2461
926.656	11.154
928.328	11.4612
929.997	11.8271
931.668	11.8642
933.337	12.1528
935.006	12.4405
936.676	11.0028
938.344	11.4709
940.012	11.819
941.681	11.5413
943.348	10.8517
945.014	10.0119
946.683	11.6258
948.349	12.1157
950.015	13.4871
951.682	12.2459
953.347	14.0082
955.012	12.9645
956.676	10.6746
958.343	9.08054
960.006	10.0428
961.67	11.3995
963.333	12.0452
964.998	14.889
966.661	16.6957
968.323	19.5557
969.985	25.3207
971.649	28.8707
973.31	33.8936
974.971	39.6695
976.632	46.2449
978.293	50.5793
979.953	56.4278
981.615	59.9087
983.274	63.7257
984.933	64.9324
986.592	68.2883
988.251	70.8399
989.909	73.9422
991.567	78.3882
993.225	80.4254
994.884	82.6744
996.541	83.9502
998.198	86.3469
999.855	89.0669
1001.51	90.9082
1003.17	92.0948
1004.82	92.6711
1006.48	92.2883
1008.13	92.4959
1009.79	90.1571
1011.44	90.3573
1013.1	90.3292
1014.75	89.7378
1016.4	89.77
1018.06	91.2706
1019.71	94.357
1021.36	100.497
1023.01	105.727
1024.66	110.667
1026.32	115.083
1027.97	120.463
1029.62	126.129
1031.27	130.321
1032.92	133.892
1034.57	136.872
1036.22	137.976
1037.87	139.043
1039.52	140.403
1041.16	142.133
1042.81	146.63
1044.46	147.573
1046.11	149.829
1047.76	153.59
1049.4	155.044
1051.05	155.743
1052.7	157.648
1054.34	157.037
1055.99	158.164
1057.63	158.66
1059.28	157.185
1060.92	152.324
1062.57	149.264
1064.21	144.584
1065.85	139.758
1067.5	134.173
1069.14	129.812
1070.78	123.581
1072.43	117.295
1074.07	112.791
1075.71	104.696
1077.35	97.3936
1078.99	88.8405
1080.63	80.5661
1082.27	72.8
1083.91	63.901
1085.55	56.3537
1087.19	47.8405
1088.83	41.8576
1090.47	35.8794
1092.11	31.7783
1093.75	31.8042
1095.39	31.4455
1097.03	30.901
1098.66	31.5475
1100.3	33.671
1101.94	34.8472
1103.57	36.031
1105.21	34.3861
1106.84	33.574
1108.48	32.2388
1110.11	32.5214
1111.75	30.885
1113.38	29.248
1115.02	25.7255
1116.65	24.1458
1118.29	20.7935
1119.92	21.1536
1121.55	19.6015
1123.19	19.0887
1124.82	18.7191
1126.45	17.2887
1128.08	18.7205
1129.71	18.3724
1131.34	18.8075
1132.97	18.4002
1134.6	20.2327
1136.23	19.6147
1137.86	17.6776
1139.49	17.4498
1141.12	16.2868
1142.75	14.6824
1144.38	16.0218
1146.01	15.2985
1147.64	15.2294
1149.26	13.5532
1150.89	13.0759
1152.52	12.5334
1154.15	11.7738
1155.77	11.2848
1157.4	9.18036
1159.02	9.12949
1160.65	8.79947
1162.27	7.64219
1163.9	7.16209
1165.52	7.56025
1167.15	8.08607
1168.77	10.0251
1170.39	11.9894
1172.02	14.025
1173.64	16.569
1175.26	18.7295
1176.89	19.6122
1178.51	20.6253
1180.13	21.2622
1181.75	20.8193
1183.37	22.0895
1184.99	25.2661
1186.61	26.0852
1188.23	28.1376
1189.85	29.8042
1191.47	33.0431
1193.09	35.882
1194.71	37.8939
1196.33	40.6995
1197.94	45.9274
1199.56	47.5984
1201.18	51.6251
1202.8	55.6476
1204.41	59.9721
1206.03	64.014
1207.65	70.5166
1209.26	75.0518
1210.88	80.8093
1212.49	86.0479
1214.11	90.2948
1215.72	94.0875
1217.34	98.5011
1218.95	101.543
1220.57	106.42
1222.18	109.239
1223.79	113.144
1225.41	117.432
1227.02	120.576
1228.63	122.774
1230.24	126.144
1231.85	130.415
1233.47	133.377
1235.08	133.867
1236.69	136.641
1238.3	138.436
1239.91	139.605
1241.52	139.536
1243.13	139.248
1244.74	140.573
1246.34	140.334
1247.95	140.967
1249.56	141.972
1251.17	141.053
1252.78	140.087
1254.38	138.303
1255.99	137.038
1257.6	134.781
1259.2	133.456
1260.81	130.141
1262.42	128.881
1264.02	128.483
1265.63	126.73
1267.23	125.291
1268.84	124.98
1270.44	123.793
1272.04	124.397
1273.65	124.418
1275.25	123.854
1276.85	124.63
1278.46	125.737
1280.06	126.092
1281.66	131.024
1283.26	132.881
1284.86	135.285
1286.46	138.147
1288.07	140.788
1289.67	142.513
1291.27	145.436
1292.87	148.403
1294.47	152.52
1296.06	155.091
1297.66	158.267
1299.26	161.579
1300.86	164.665
1302.46	168.697
1304.06	171.669
1305.65	173.542
1307.25	178.12
1308.85	181.837
1310.44	186.324
1312.04	188.827
1313.64	192.055
1315.23	194.76
1316.83	198.9
1318.42	200.681
1320.02	200.829
1321.61	202.041
1323.2	201.888
1324.8	202.308
1326.39	200.934
1327.99	202.701
1329.58	201.828
1331.17	200.35
1332.76	199.766
1334.36	199.829
1335.95	198.929
1337.54	197.761
1339.13	194.828
1340.72	192.611
1342.31	192.086
1343.9	190.905
1345.49	189.422
1347.08	187.755
1348.67	183.829
1350.26	181.432
1351.85	179.659
1353.43	177.667
1355.02	176.271
1356.61	174.227
1358.2	170.845
1359.78	168.42
1361.37	165.193
1362.96	159.463
1364.54	156.196
1366.13	152.768
1367.71	149.257
1369.3	146.786
1370.88	144.52
1372.47	142.955
1374.05	139.783
1375.64	137.04
1377.22	134.776
1378.8	134.822
1380.39	132.472
1381.97	131.971
1383.55	130.497
1385.13	129.92
1386.72	130.708
1388.3	129.9
1389.88	129.247
1391.46	129.253
1393.04	128.741
1394.62	127.275
1396.2	126.382
1397.78	123.935
1399.36	123.979
1400.94	124.93
1402.52	124.867
1404.1	126.65
1405.68	128.008
1407.25	131.946
1408.83	135.077
1410.41	140.629
1411.98	144.765
1413.56	148.617
1415.14	153.759
1416.71	161.006
1418.29	165.707
1419.87	173.424
1421.44	180.754
1423.02	186.873
1424.59	193.853
1426.16	201.693
1427.74	209.239
1429.31	218.498
1430.89	225.28
1432.46	233.832
1434.03	241.009
1435.6	246.866
1437.18	250.65
1438.75	257.27
1440.32	260.551
1441.89	264.344
1443.46	266.878
1445.03	268.565
1446.6	271.767
1448.17	274.5
1449.74	274.139
1451.31	273.384
1452.88	272.364
1454.45	273.069
1456.02	271.258
1457.59	267.778
1459.16	263.781
1460.72	258.843
1462.29	251.773
1463.86	244.543
1465.43	238.871
1466.99	230.251
1468.56	222.909
1470.13	215.197
1471.69	206.295
1473.26	198.441
1474.82	190.712
1476.38	182.916
1477.95	175.593
1479.51	167.562
1481.08	160.721
1482.64	153.096
1484.2	146.875
1485.77	142.189
1487.33	136.288
1488.89	130.924
1490.46	124.284
1492.02	118.833
1493.58	115.606
1495.14	111.985
1496.7	106.432
1498.26	104.986
1499.82	102.776
1501.38	100.982
1502.94	100.009
1504.5	98.3258
1506.06	96.7868
1507.62	95.6943
1509.18	94.3564
1510.73	93.5545
1512.29	90.7928
1513.85	87.4169
1515.41	84.9787
1516.96	84.2133
1518.52	82.1193
1520.08	82.3145
1521.63	81.224
1523.19	80.7341
1524.75	82.6509
1526.3	82.3865
1527.85	82.5362
1529.41	82.6393
1530.96	85.5557
1532.52	86.2255
1534.07	85.8996
1535.62	84.8513
1537.18	86.4467
1538.73	87.1442
1540.28	87.3208
1541.84	89.453
1543.39	92.2441
1544.94	93.595
1546.49	95.7185
1548.04	97.1952
1549.59	98.2337
1551.14	100.783
1552.69	102.573
1554.25	104.422
1555.79	107.071
1557.34	108.427
1558.89	109.716
1560.44	110.331
1561.99	112.407
1563.54	113.964
1565.08	114.555
1566.63	117.085
1568.18	118.549
1569.73	122.196
1571.27	126.101
1572.82	128.894
1574.37	132.371
1575.91	136.489
1577.46	138.65
1579	141.545
1580.55	142.522
1582.09	144.665
1583.64	147.242
1585.18	148.561
1586.73	150.884
1588.27	151.544
1589.81	152.521
1591.35	154.07
1592.9	156.446
1594.44	157.472
1595.98	159.518
1597.52	160.021
1599.06	159.854
1600.61	161.203
1602.15	163.465
1603.69	162.962
1605.23	163.025
1606.77	162.728
1608.31	163.892
1609.85	161.544
1611.39	162.815
1612.93	161.582
1614.46	162.329
1616	160.005
1617.54	159.684
1619.08	161.427
1620.61	161.678
1622.15	161.144
1623.69	160.134
1625.23	161.521
1626.76	163.543
1628.3	164.904
1629.83	165.275
1631.37	166.329
1632.9	168.212
1634.44	166.948
1635.97	168.965
1637.51	172.327
1639.04	175.666
1640.57	179.048
1642.11	181.791
1643.64	185.138
1645.17	188.567
1646.71	192.386
1648.24	192.791
1649.77	195.461
1651.3	197.864
1652.83	198.251
1654.36	198.318
1655.89	198.206
1657.42	197.788
1658.96	197.223
1660.48	196.996
1662.01	195.15
1663.54	193.759
1665.07	189.075
1666.6	185.805
1668.13	182.818
1669.66	178.615
1671.19	172.696
1672.71	168.352
1674.24	162.168
1675.77	157.711
1677.29	151.634
1678.82	145.41
1680.35	137.332
1681.87	131.452
1683.4	124.4
1684.92	117.387
1686.45	110.497
1687.97	102.85
1689.5	95.5588
1691.02	88.6042
1692.54	83.0018
1694.07	78.6313
1695.59	72.3922
1697.11	67.1781
1698.64	63.5453
1700.16	59.2826
1701.68	55.1388
1703.2	51.6101
1704.72	46.9486
1706.25	43.4861
1707.77	40.2165
1709.29	37.3154
1710.81	34.8599
1712.33	35.3822
1713.85	34.3415
1715.37	31.8499
1716.89	30.8231
1718.41	28.2237
1719.92	28.0191
1721.44	27.9858
1722.96	26.6234
1724.48	26.0053
1725.99	25.187
1727.51	25.0967
1729.03	23.7517
1730.55	23.6772
1732.06	23.7542
1733.58	23.8324
1735.09	23.7879
1736.61	23.6392
1738.13	21.6767
1739.64	21.5901
1741.15	20.4006
1742.67	20.4529
1744.18	19.17
1745.7	17.7096
1747.21	16.3788
1748.72	16.0902
1750.24	15.4593
1751.75	14.9969
1753.26	13.2709
1754.77	12.045
1756.29	10.4497
1757.8	10.7489
1759.31	9.28391
1760.82	8.54181
1762.33	6.90338
1763.84	4.86752
1765.35	5.95833
1766.86	4.35786
1768.37	3.82941
1769.88	2.40218
1771.39	2.24976
1772.9	2.82992
1774.4	2.02624
1775.91	0.330223
1777.42	-0.701019
1778.93	-0.798193
1780.44	-1.56862
1781.94	-2.16698
1783.45	-2.19211
1784.96	-1.69223
1786.46	-0.281627
1787.97	-0.77741
1789.47	-0.876478
1790.98	-0.683555
1792.48	-0.201304
1793.99	0.344133
1795.49	1.6035
1797	1.87011
1798.5	1.96759
1800.01	2.42742
1801.51	2.64499
1803.01	3.86448
1804.51	2.61573
1806.02	3.64174
1807.52	3.70092
1809.02	3.1441
1810.52	4.03301
1812.02	4.3075
1813.52	5.16045
1815.02	6.18116
1816.53	6.04979
1818.03	5.41
1819.52	4.98617
1821.02	5.07945
1822.52	5.91805
1824.02	6.29612
1825.52	6.299
1827.02	5.51847
1828.52	4.81569
1830.02	5.84119
1831.51	6.78538
1833.01	7.3825
1834.51	6.41249
1836.01	5.9918
1837.5	6.46984
1839	6.41171
1840.49	7.34895
1841.99	6.83892
1843.49	7.24151
1844.98	7.64211
1846.48	7.881
1847.97	8.64061
1849.47	8.64318
1850.96	7.83197
1852.45	8.01512
1853.95	7.9456
1855.44	7.8094
1856.93	7.72189
1858.42	7.3538
1859.92	7.95685
1861.41	8.10606
1862.9	7.43701
1864.39	8.69165
1865.88	7.90189
1867.38	9.01809
1868.87	9.96762
1870.36	9.43867
1871.85	9.66146
1873.34	10.8326
1874.83	10.9531
1876.32	10.5652
1877.81	9.6665
1879.29	9.29808
1880.78	9.81923
1882.27	10.3726
1882.53	10.6112
1884.03	11.2579
1885.52	11.7102
1887.01	11.5403
1888.51	11.644
1890	11.3096
1891.5	10.7862
1892.99	11.5567
1894.48	13.4998
1895.97	13.8461
1897.47	14.0938
1898.96	14.824
1900.45	16.8308
1901.94	18.778
1903.43	20.5897
1904.92	20.457
1906.41	20.2648
1907.9	20.7445
1909.39	21.12
1910.88	22.0183
1912.37	22.2104
1913.86	22.0019
1915.35	21.1169
1916.84	21.5136
1918.33	20.5244
1919.81	19.1311
1921.3	17.7917
1922.79	17.2939
1924.28	17.3967
1925.76	17.7538
1927.25	16.2323
1928.73	14.9911
1930.22	14.7826
1931.71	13.8958
1933.19	12.1338
1934.68	9.87396
1936.16	8.6702
1937.65	7.71446
1939.13	6.24734
1940.62	5.4788
1942.1	4.48627
1943.58	3.04049
1945.07	3.47043
1946.55	2.669
1948.03	1.55999
1949.51	0.687694
1951	0.0625246
1952.48	-0.426397
1953.96	0.33639
1955.44	-0.577062
1956.92	-0.345316
1958.4	-0.00444565
1959.88	0.188296
1961.36	0.227225
1962.84	0.705184
1964.32	0.483391
1965.8	1.47104
1967.28	2.4883
1968.76	4.05237
1970.24	5.08073
1971.72	6.45235
1973.2	7.00603
1974.67	7.84672
1976.15	7.7508
1977.63	7.96968
1979.1	8.2213
1980.58	8.5934
1982.06	9.12458
1983.54	9.52736
1985.01	10.1987
1986.49	10.5281
1987.96	10.3838
1989.44	10.8505
1990.91	10.8678
1992.39	9.93609
1993.86	10.5294
1995.33	10.2389
1996.81	11.4061
1998.28	10.6378
1999.75	8.78242
2001.23	8.12844
2002.7	7.85171
2004.17	7.95106
2005.65	6.73014
2007.12	5.14948
2008.59	5.40293
2010.06	5.67536
2011.53	6.73407
2013	5.53337
2014.47	5.12633
2015.94	5.21574
2017.41	5.35479
2018.88	6.60536
2020.35	5.74362
2021.82	7.09708
2023.29	7.43269
2024.76	8.23677
2026.23	9.34562
2027.69	11.0487
2029.16	11.3047
2030.63	12.8013
2032.1	13.0418
2033.56	12.5106
2035.03	13.6395
2036.5	14.4666
2037.96	15.2127
2039.43	15.5563
2040.89	16.257
2042.36	18.4129
2043.83	19.8771
2045.29	19.6651
2046.75	20.1489
2048.22	21.0119
2049.68	21.292
2051.15	21.2396
2052.61	22.1736
2054.07	21.1591
2055.54	20.7208
2057	20.6241
2058.46	20.5661
2059.92	20.7114
2061.39	19.7801
2062.85	18.7934
2064.31	17.6241
2065.77	16.7254
2067.23	16.4249
2068.69	15.6381
2070.15	16.0704
2071.61	15.6171
2073.07	14.938
2074.53	14.4722
2075.99	13.8685
2077.45	12.342
2078.91	11.395
2080.37	9.6959
2081.82	8.56043
2083.28	8.40376
2084.74	8.88149
2086.2	6.95903
2087.65	7.94077
2089.11	7.19194
2090.57	8.23369
2092.02	9.86929
2093.48	9.37247
2094.94	9.73137
2096.39	8.46156
2097.85	8.51118
2099.3	8.9735
2100.76	9.70056
2102.21	9.57669
2103.66	10.0523
2105.12	10.334
2106.57	10.6728
2108.03	11.6568
2109.48	12.614
2110.93	13.4978
2112.38	13.7295
2113.84	15.1401
2115.29	16.2235
2116.74	16.9214
2118.19	16.0924
2119.64	15.7592
2121.09	16.6558
2122.54	16.6364
2123.99	15.7774
2125.45	15.7719
2126.89	14.3864
2128.34	14.8962
2129.79	15.2599
2131.24	15.3773
2132.69	14.5544
2134.14	14.3424
2135.59	14.8292
2137.04	15.0827
2138.48	15.6979
2139.93	17.4094
2141.38	17.5853
2142.83	17.8927
2144.27	18.1522
2145.72	17.8069
2147.17	19.0771
2148.61	18.484
2150.06	17.5659
2151.5	18.3902
2152.95	18.3953
2154.39	19.8078
2155.84	21.1609
2157.28	21.7545
2158.73	20.1046
2160.17	19.6914
2161.61	19.3482
2163.06	20.7171
2164.5	19.5254
2165.94	18.4453
2167.38	19.4593
2168.83	19.177
2170.27	21.0563
2171.71	21.9083
2173.15	22.2844
2174.59	22.6588
2176.03	23.1565
2177.47	23.097
2178.91	22.0293
2180.36	22.4527
2181.8	22.7557
2183.23	23.0341
2184.67	22.3789
2186.11	22.3754
2187.55	22.3502
2188.99	21.5299
2190.43	19.7494
2191.87	19.772
2193.3	17.8632
2194.74	15.4747
2196.18	14.4799
2197.62	15.4626
2199.05	14.9192
2200.49	14.9802
2201.93	13.0999
2203.36	12.9205
2204.8	13.358
2206.23	13.6626
2207.67	13.9014
2209.1	13.9481
2210.54	14.7095
2211.97	14.4021
2213.41	14.3924
2214.84	15.5405
2216.27	15.1791
2217.71	14.6602
2219.14	15.3536
2220.57	15.6305
2222.01	17.3519
2223.44	18.4191
2224.87	18.8625
2226.3	19.5257
2227.73	19.7843
2229.16	19.2686
2230.6	18.7399
2232.03	19.815
2233.46	20.1048
2234.89	20.3038
2236.32	19.2977
2237.75	19.8955
2239.18	21.3936
2240.61	20.8429
2242.03	22.7385
2243.46	22.2609
2244.89	21.1707
2246.32	20.5251
2247.75	20.2231
2249.17	19.6082
2250.6	18.9534
2252.03	20.6636
2253.46	20.689
2254.88	21.333
2256.31	20.0598
2257.73	19.5858
2259.16	18.3184
2260.59	18.7723
2262.01	17.9928
2263.44	18.951
2264.86	17.3748
2266.29	19.1546
2267.71	20.3578
2269.14	19.1677
2270.56	18.8179
2271.98	17.7397
2273.4	17.7321
2274.83	18.4644
2276.25	18.3231
2277.67	18.4604
2279.09	18.8763
2280.52	17.8611
2281.94	16.8226
2283.36	16.8946
2284.78	17.8192
2286.2	17.1072
2287.62	16.5601
2289.04	15.7939
2290.46	15.0016
2291.88	15.0346
2293.3	13.6852
2294.72	13.5362
2296.14	13.9283
2297.56	13.3283
2298.98	13.5493
2300.4	13.2699
2301.82	13.2575
2303.23	11.7459
2304.65	10.0014
2306.07	9.9594
2307.49	8.91591
2308.9	8.64624
2310.32	9.46098
2311.73	8.32976
2313.15	7.41179
2314.57	5.5215
2315.98	5.2016
2317.4	5.84348
2318.81	6.15552
2320.23	6.04636
2321.64	6.67332
2323.06	6.4377
2324.47	6.17339
2325.88	5.55708
2327.3	4.4628
2328.71	5.15607
2330.12	6.20796
2331.54	6.32142
2332.95	5.81344
2334.36	6.50063
2335.77	4.79622
2337.18	5.29364
2338.6	4.35037
2340.01	3.50288
2341.42	4.52815
2342.83	3.90582
2344.24	4.49615
2345.65	3.46284
2347.06	3.20518
2348.47	3.1622
2349.88	2.17636
2351.29	1.73924
2352.7	2.79004
2354.1	3.90819
2355.51	3.00126
2356.92	2.09086
2358.33	1.99486
2359.74	1.40317
2361.14	2.27041
2362.55	3.60042
2363.96	3.35936
2365.36	3.95834
2366.77	4.5925
2368.18	4.24971
2369.58	4.70983
2370.99	4.49637
2372.39	3.35144
2373.8	3.1959
2375.2	3.06096
2376.61	3.9143
2378.01	3.69348
2379.42	4.16294
2380.82	4.98879
2382.22	3.70838
2383.63	3.1155
2385.03	4.26835
2386.43	4.69876
2387.84	5.0167
2389.24	4.9567
2390.64	5.37499
2392.04	6.02463
2393.44	5.85209
2394.84	5.18484
2396.25	5.28234
2397.65	5.71658
2399.05	5.64087
2400.45	4.59342
2401.85	3.0349
2403.25	3.89724
2404.65	3.08844
2406.05	2.81503
2407.45	3.7263
2408.84	4.86834
2410.24	5.0013
2411.64	5.62204
2413.04	5.19145
2414.44	4.86435
2415.83	5.506
2417.23	6.42935
2418.63	7.23545
2420.02	8.26618
2421.42	8.70665
2422.82	9.6818
2424.21	9.51728
2425.61	9.71637
2427	8.94536
2428.4	8.83916
2429.8	9.48975
2431.19	9.86927
2432.58	10.1795
2433.98	10.2305
2435.37	9.96929
2436.77	10.0152
2438.16	9.7322
2439.55	9.97657
2440.95	9.92998
2442.34	9.87246
2443.73	10.5374
2445.12	10.7465
2446.51	11.7475
2447.91	11.8951
2449.3	11.3915
2450.69	11.8465
2452.08	11.2591
2453.47	12.0039
2454.86	12.8149
2456.25	12.4799
2457.64	12.6991
2459.03	12.0167
2460.42	12.2995
2461.81	12.1914
2463.2	11.7337
2464.59	11.3034
2465.98	12.0558
2467.36	10.6644
2468.75	8.94831
2470.14	8.83419
2471.53	8.54325
2472.92	8.57619
2474.3	8.53351
2475.69	7.96298
2477.08	7.52351
2478.46	6.82855
2479.85	6.47619
2481.23	5.34954
2482.62	4.01742
2484	4.39249
2485.39	3.71302
2486.77	3.1547
2488.16	2.80174
2489.54	2.205
2490.93	1.42098
2492.31	1.20555
2493.69	0.966312
2495.08	-0.282966
2496.46	-0.932269
2497.84	0.142491
2499.23	0.713736
2500.61	1.3452
2501.99	1.38377
2503.37	0.596978
2504.75	1.42685
2506.13	2.56856
2507.52	2.85791
2508.9	3.14489
2510.28	3.81634
2511.66	4.38585
2513.04	5.37513
2514.42	5.06081
2515.8	4.83081
2517.18	4.43599
2518.55	4.57822
2519.93	5.5916
2521.31	5.446
2522.69	5.75018
2524.07	6.52104
2525.45	6.91992
2526.82	8.03728
2528.2	9.00602
2529.58	9.97543
2530.95	10.5556
2532.33	10.1724
2533.71	10.3207
2535.08	9.59509
2536.46	8.34803
2537.84	8.54774
2539.21	8.60877
2540.59	7.89606
2541.96	8.62752
2543.34	8.65056
2544.71	7.77924
2546.08	8.45494
2547.46	7.97245
2548.83	7.40287
2550.2	7.05769
2551.58	6.43448
2552.95	7.34243
2554.32	7.17748
2555.7	7.75219
2557.07	8.63562
2558.44	8.78738
2559.81	8.92923
2561.18	8.56974
2562.55	9.49992
2563.93	8.81977
2565.3	9.94348
2566.67	10.5422
2568.04	11.8518
2569.41	12.5761
2570.78	11.3392
2572.15	11.8335
2573.51	11.9088
2574.88	11.4446
2576.25	10.2379
2577.62	10.6385
2578.99	10.3562
2580.36	10.2415
2581.73	10.6128
2583.09	10.3909
2584.46	12.1241
2585.83	11.5691
2587.19	12.5932
2588.56	13.0244
2589.93	12.9289
2591.29	13.1705
2592.66	14.6092
2594.02	15.272
2595.39	15.0275
2596.75	15.1233
2598.12	15.3829
2599.48	14.9917
2600.85	14.5982
2602.21	15.5403
2603.58	15.2862
2604.94	15.3638
2606.3	16.1168
2607.67	15.6735
2609.03	16.6483
2610.39	17.9198
2611.76	17.2369
2613.12	17.6366
2614.48	18.0891
2615.84	18.0545
2617.2	18.77
2618.56	19.6759
2619.92	18.6744
2621.28	19.1283
2622.65	18.5828
2624.01	19.0598
2625.37	19.6868
2626.72	20.1338
2628.08	20.5928
2629.44	20.8429
2630.8	21.9347
2632.16	21.7218
2633.52	21.8761
2634.88	21.8922
2636.24	22.2267
2637.59	21.493
2638.95	21.2434
2640.31	21.4456
2641.67	20.5097
2643.02	21.6249
2644.38	20.759
2645.74	22.2706
2647.09	22.6994
2648.45	23.0825
2649.8	22.7202
2651.16	23.092
2652.51	22.2969
2653.87	20.6208
2655.22	22.0219
2656.58	21.1737
2657.93	20.679
2659.29	20.4158
2660.64	21.2285
2661.99	20.0269
2663.35	19.3425
2664.7	19.1079
2666.05	18.2794
2667.41	17.6732
2668.76	17.871
2670.11	17.5737
2671.46	17.002
2672.81	16.8437
2674.16	16.4204
2675.51	15.8084
2676.87	15.7778
2678.22	15.8893
2679.57	15.8677
2680.92	17.1903
2682.27	17.4087
2683.62	17.3312
2684.97	17.5008
2686.31	17.8319
2687.66	18.731
2689.01	19.2764
2690.36	21.0209
2691.71	23.0254
2693.06	23.9551
2694.4	25.5811
2695.75	26.1093
2697.1	25.5524
2698.45	25.7479
2699.79	26.5291
2701.14	27.3342
2702.49	28.2192
2703.83	29.6009
2705.18	30.7106
2706.52	31.7097
2707.87	32.4847
2709.21	34.1092
2710.56	35.7696
2711.9	35.583
2713.25	36.749
2714.59	36.5351
2715.94	36.6356
2717.28	37.4977
2718.62	37.9169
2719.97	37.5397
2721.31	38.1569
2722.65	38.8217
2723.99	37.7751
2725.34	38.044
2726.68	37.0813
2728.02	37.0953
2729.36	36.4507
2730.7	34.6776
2732.04	33.4007
2733.39	33.6045
2734.73	32.7398
2736.07	31.6329
2737.41	30.0784
2738.75	28.9224
2740.08	28.4986
2741.43	28.3749
2742.76	27.4533
2744.1	27.2209
2745.44	26.9132
2746.78	26.3325
2748.12	25.5724
2749.46	24.2209
2750.79	22.5891
2752.13	22.0873
2753.47	20.7876
2754.81	20.3418
2756.14	20.2187
2757.48	19.8871
2758.81	18.7976
2760.15	16.8053
2761.49	16.416
2762.82	15.5093
2764.16	13.9235
2765.49	13.4001
2766.83	13.4606
2768.16	11.6441
2769.5	11.0831
2770.83	10.2041
2772.16	8.55518
2773.5	8.82377
2774.83	8.18404
2776.17	8.11619
2777.5	7.34419
2778.83	7.19344
2780.16	7.18221
2781.5	7.48904
2782.83	6.78813
2784.16	6.63974
2785.49	6.05406
2786.82	4.82423
2788.15	5.01763
2789.49	4.7197
2790.82	4.58478
2792.15	3.28589
2793.48	2.40238
2794.81	2.66064
2796.14	0.75093
2797.46	0.0311952
2798.79	0.801695
2800.12	0.95136
2801.45	-0.0915588
2802.78	0.339624
2804.11	-0.154145
2805.44	0.163305
2806.76	0.104038
2808.09	-1.1044
2809.42	-1.95932
2810.75	-1.76253
2812.07	-1.12998
2813.4	-0.480193
2814.73	0.0829797
2816.05	2.4259
2817.38	4.17997
2818.7	8.28948
2820.03	11.3912
2821.36	16.4273
2822.68	19.7941
2824.01	23.7214
2825.33	27.326
2826.65	32.3026
2827.98	39.1755
2829.3	43.5429
2830.63	49.7815
2831.95	56.3303
2833.27	62.5903
2834.6	69.3557
2835.92	78.2051
2837.24	86.8059
2838.56	95.9592
2839.88	106.619
2841.21	116.267
2842.53	128.743
2843.85	140.117
2845.17	152.621
2846.49	166.601
2847.81	179.441
2849.13	192.859
2850.45	207.208
2851.77	220.432
2853.09	234.886
2854.41	249.177
2855.73	262.779
2857.05	276.322
2858.37	287.568
2859.69	300.786
2861	312.498
2862.32	322.544
2863.64	334.883
2864.96	345.221
2866.28	355.978
2867.59	365.32
2868.91	374.026
2870.23	382.493
2871.54	390.016
2872.86	397.11
2874.17	403.772
2875.49	410.505
2876.81	417.224
2878.12	423.484
2879.44	429.88
2880.75	436.006
2882.07	442.159
2883.38	446.847
2884.69	451.585
2886.01	454.391
2887.32	458.946
2888.63	461.235
2889.95	466.089
2891.26	470.81
2892.57	476.363
2893.89	481.404
2895.2	486.445
2896.51	492.844
2897.82	498.422
2899.13	505.254
2900.44	514.193
2901.76	524.981
2903.07	534.421
2904.38	545.68
2905.69	557.489
2907	570.618
2908.31	585.04
2909.62	598.278
2910.93	613.22
2912.24	628.989
2913.55	642.189
2914.85	655.604
2916.16	668.007
2917.47	681.257
2918.78	692.285
2920.09	701.696
2921.4	710.244
2922.7	718.149
2924.01	724.017
2925.32	729.525
2926.62	733.614
2927.93	735.435
2929.24	738.215
2930.54	738.583
2931.85	737.589
2933.15	733.651
2934.46	730.372
2935.76	724.667
2937.07	716.496
2938.37	708.16
2939.68	699.092
2940.98	690.26
2942.29	679.586
2943.59	667.292
2944.89	654.846
2946.2	641.078
2947.5	627.144
2948.8	613.326
2950.11	598.618
2951.41	583.893
2952.71	570.109
2954.01	554.981
2955.32	541.6
2956.62	526.597
2957.92	511.239
2959.22	497.268
2960.52	484.133
2961.82	469.715
2963.12	457.1
2964.42	444.651
2965.72	433.787
2967.02	422.921
2968.32	410.336
2969.62	400.52
2970.92	390.206
2972.22	380.139
2973.51	369.735
2974.81	359.484
2976.11	349.649
2977.41	338.802
2978.71	327.374
2980	315.433
2981.3	305.118
2982.6	294.987
2983.9	281.985
2985.19	270.837
2986.49	258.281
2987.78	246.79
2989.08	234.921
2990.38	222.553
2991.67	211.147
2992.97	198.815
2994.26	188.344
2995.56	176.286
2996.85	165.407
2998.14	154.047
2999.44	143.986
3000.73	132.389
3002.03	122.297
3003.32	113.568
3004.61	104.427
3005.91	95.6004
3007.2	86.5302
3008.49	79.7621
3009.78	73.0451
3011.07	66.4421
3012.37	58.6014
3013.66	52.5626
3014.95	46.0063
3016.24	39.6692
3017.53	35.0454
3018.82	30.3736
3020.11	25.5343
3021.4	21.9625
3022.69	18.7536
3023.98	15.5787
3025.27	12.2065
3026.56	8.65211
3027.85	6.26253
3029.14	3.89071
3030.43	3.17324
3031.71	1.76328
3033	0.659891
3034.29	0.885747
3035.58	0.522172
3036.87	-0.324425
3038.15	0.704518
3039.44	2.78346
3040.73	3.30943
3042.01	4.36929
3043.3	6.19419
3044.59	7.56895
3045.87	9.67496
3047.16	10.4112
3048.44	10.6033
3049.73	12.3528
3051.01	13.5996
3052.3	15.4734
3053.58	16.1461
3054.87	15.7997
3056.15	16.4109
3057.43	16.5143
3058.72	16.7759
3060	16.891
3061.29	17.2994
3062.57	17.2771
3063.85	18.5403
3065.13	18.518
3066.42	17.8476
3067.7	17.4819
3068.98	17.0033
3070.26	16.8263
3071.54	16.7574
3072.82	16.4422
3074.11	15.5245
3075.39	13.7397
3076.67	12.1581
3077.95	12.2597
3079.23	11.4087
3080.51	10.6141
3081.79	9.3804
3083.07	7.97888
3084.35	7.51341
3085.63	7.28187
3086.9	6.05261
3088.18	6.13406
3089.46	6.22862
3090.74	6.85323
3092.02	7.12602
3093.29	8.423
3094.57	10.7554
3095.85	11.9019
3097.13	13.4272
3098.4	14.9785
3099.68	15.9751
3100.95	17.9911
3102.23	19.9423
3103.51	21.1938
3104.78	21.8844
3106.06	23.6005
3107.33	25.4014
3108.61	25.4045
3109.88	26.1115
3111.16	27.104
3112.43	29.4544
3113.71	31.3376
3114.98	32.9801
3116.25	34.4813
3117.53	35.5453
3118.8	37.2545
3120.07	39.2737
3121.35	41.163
3122.62	42.8824
3123.89	44.907
3125.16	46.579
3126.44	48.9141
3127.71	50.9172
3128.98	51.4309
3130.25	52.4017
3131.52	55.1395
3132.79	57.5911
3134.06	59.1318
3135.33	61.2498
3136.6	63.3722
3137.87	64.9246
3139.14	66.4294
3140.41	68.9364
3141.68	71.3355
3142.95	73.7934
3144.22	76.6209
3145.49	79.6694
3146.76	81.9602
3148.02	83.4713
3149.29	86.5053
