#Acq. time (s)=	45
#Accumulations=	2
#Range (cm-¹)=	200...3150
#Windows=	2
#Auto scanning=	Off
#Autofocus=	Off
#Macrospot=	Off
#AutoExposure=	Off
#Spike filter=	Multiple accum.
#Delay time (s)=	0
#Binning=	1
#Readout mode=	Signal
#DeNoise=	Off
#ICS correction=	On
#Dark correction=	Off
#Inst. Process=	Off
#Detector Gain=	Best Dynamic Range
#Detector ADC=	20 kHz       
#Detector temperature (°C)=	-69.85
#Instrument=	LabRAM HR Evol
#Detector=	Synapse
#Objective=	x100
#Grating=	600 gr/mm
#ND Filter=	100%
#Laser (nm)=	532 
#Hole=	100.021
#Range=	Auto
#Laser Pol.=	No
#Raman. Pol.=	No
#Laser Pol. (°)=	-0.0007625
#Raman Pol. (°)=	89.9995
#Collection=	Microscope
#StageXY=	Marzhauser
#StageZ=	Marzhauser
#X (µm)=	-984.8
#Y (µm)=	-2824
#Z (µm)=	528.1
#Full time(mm:ss)=	3:18
#Project=	
#Sample=	
#Site=	
#Title=	Mb_00_13_25_2x_45s_532 nm_x100_100%_600 gr_mm
#Remark=	
#Date=	06.07.2022 11:39
#Acquired=	06.07.2022 11:39:04
#Base:Fit=	10.08.2022 10:16:56
#Base:Sub=	10.08.2022 10:17:24
#Filter:Polynom=	16.08.2022 10:36:38
#AxisType[0]=Intens
#AxisUnit[0]=Cnt
#AxisType[1]=Spectr
#AxisUnit[1]=1/cm
200.398	75.4913
202.213	62.2836
204.027	50.2753
205.843	38.5914
207.657	27.6367
209.47	18.35
211.283	11.6582
213.097	7.28392
214.909	6.2562
216.721	8.9517
218.533	12.8043
220.344	20.2203
222.157	28.5856
223.967	40.0542
225.777	52.0578
227.587	63.4104
229.396	75.7929
231.205	87.4776
233.016	98.2537
234.824	107.624
236.632	118.494
238.439	126.236
240.247	134.409
242.053	140.498
243.86	146.332
245.666	151.098
247.474	160.408
249.279	168.448
251.085	174.005
252.889	178.832
254.694	183.276
256.498	186.147
258.301	190.151
260.105	195.452
261.908	196.072
263.71	195.386
265.513	193.424
267.315	188.762
269.116	186.77
270.918	182.774
272.718	175.557
274.519	169.41
276.319	161.331
278.119	151.739
279.918	142.196
281.718	130.76
283.516	120.831
285.315	109.512
287.113	98.7474
288.911	86.5106
290.708	74.1485
292.505	65.2142
294.302	55.1138
296.098	46.1329
297.894	39.5827
299.69	34.0756
301.485	29.3486
303.278	24.78
305.073	22.2703
306.867	19.891
308.661	17.4119
310.454	16.3953
312.247	14.7209
314.04	13.2926
315.833	11.739
317.623	9.86514
319.415	9.1916
321.206	7.87887
322.997	6.77478
324.788	5.73847
326.579	5.80824
328.367	3.84709
330.156	3.49432
331.946	2.18958
333.735	2.6302
335.523	2.03263
337.31	2.45199
339.098	0.15688
340.885	-1.91564
342.673	-1.78303
344.458	-2.48252
346.244	-2.78173
348.03	-1.6625
349.816	-2.2906
351.6	-5.93847
353.385	-6.14701
355.17	-6.21787
356.953	-6.27868
358.737	-4.8847
360.521	-5.02558
362.304	-4.00267
364.085	0.354158
365.868	4.6608
367.65	7.43394
369.431	12.2838
371.212	17.5436
372.994	22.6399
374.773	27.2105
376.554	31.9915
378.332	37.3417
380.112	44.9985
381.892	53.4422
383.669	61.347
385.448	72.5525
387.225	84.8043
389.003	94.7577
390.781	105.938
392.557	117.816
394.334	128.679
396.109	137.997
397.885	146.45
399.66	154.427
401.436	161.427
403.211	167.73
404.984	172.527
406.759	176.158
408.532	179.893
410.306	182.124
412.078	181.814
413.851	181.357
415.623	179.568
417.395	176.458
419.166	173.47
420.938	169.485
422.708	164.175
424.477	157.261
426.248	151.005
428.017	142.973
429.788	133.716
431.556	125.237
433.326	116.231
435.093	107.343
436.86	97.1568
438.629	86.8153
440.395	75.8084
442.163	67.4862
443.929	57.285
445.694	48.5726
447.461	41.25
449.226	33.168
450.99	25.8923
452.756	18.9289
454.52	11.6411
456.285	4.50759
458.048	-0.0762054
459.811	-5.74615
461.573	-10.2657
463.337	-13.2067
465.099	-14.85
466.86	-13.8634
468.623	-11.9226
470.384	-10.05
472.144	-7.34605
473.906	-3.47763
475.666	-1.14187
477.425	2.02862
479.184	6.08047
480.944	10.068
482.703	11.4945
484.461	13.1185
486.218	15.5669
487.975	17.9905
489.734	20.0746
491.491	21.7496
493.247	24.0407
495.003	27.3327
496.759	30.5415
498.516	32.3957
500.271	32.9743
502.025	35.8349
503.779	37.8851
505.533	41.4058
507.287	43.9194
509.042	45.0314
510.795	46.376
512.547	47.8069
514.299	48.7578
516.051	50.2574
517.803	52.0598
519.554	53.5934
521.305	54.6667
523.055	56.015
524.805	55.8515
526.555	56.4811
528.307	54.8318
530.056	53.9594
531.805	53.2552
533.553	52.2153
535.301	51.0515
537.049	49.2292
538.797	48.8817
540.544	47.616
542.291	45.3063
544.037	43.4749
545.783	41.3356
547.529	39.3524
549.275	37.6049
551.02	35.569
552.765	33.6071
554.509	30.9032
556.253	29.2218
557.997	27.3387
559.738	24.9614
561.482	24.3353
563.224	24.0852
564.967	22.5866
566.709	20.7633
568.451	20.1618
570.192	17.6634
571.933	16.216
573.674	14.4573
575.415	12.8844
577.153	12.292
578.893	11.6508
580.632	11.2386
582.371	10.0347
584.11	9.34181
585.849	8.38853
587.587	7.57921
589.323	7.57505
591.06	8.4807
592.797	8.7717
594.534	6.76748
596.271	6.63379
598.005	7.13135
599.741	7.26238
601.476	6.38666
603.211	8.05755
604.944	8.47819
606.679	8.45485
608.413	9.3057
610.147	9.25587
611.878	8.16581
613.611	8.26809
615.344	8.03585
617.077	8.63471
618.807	9.03708
620.539	9.76719
622.27	10.379
623.999	11.1393
625.73	12.5065
627.461	12.149
629.189	12.4941
630.919	14.8377
632.648	17.6807
634.376	18.9661
636.105	19.5807
637.833	20.479
639.559	22.7146
641.287	25.1929
643.013	27.2405
644.74	27.549
646.467	28.0337
648.192	29.5375
649.918	30.0128
651.642	29.1057
653.368	28.5047
655.091	27.365
656.816	26.072
658.538	25.7041
660.263	24.4496
661.987	24.8869
663.708	24.238
665.432	24.0162
667.153	23.1687
668.875	22.5773
670.596	22.4803
672.318	21.6497
674.037	20.7045
675.759	19.0101
677.478	18.1537
679.196	16.1369
680.917	14.0366
682.635	13.5659
684.355	11.7079
686.072	9.35687
687.791	7.77065
689.508	7.8608
691.224	6.10019
692.942	5.52382
694.658	3.53455
696.376	2.15713
698.091	1.57432
699.805	2.20497
701.522	2.20132
703.236	2.46602
704.95	4.01305
706.665	5.58307
708.379	5.31826
710.093	5.94048
711.806	6.8006
713.518	8.22146
715.23	9.11173
716.943	12.2321
718.655	12.1161
720.366	11.0825
722.078	10.6971
723.788	10.984
725.498	12.1483
727.208	12.0319
728.919	11.8871
730.628	12.9545
732.337	13.9221
734.045	14.5505
735.755	14.467
737.463	14.1988
739.17	14.3658
740.877	14.9927
742.584	17.2346
744.292	19.6965
745.998	20.6475
747.704	23.1803
749.409	24.8458
751.114	27.4598
752.819	28.6223
754.526	28.8457
756.23	30.8284
757.934	30.7188
759.637	31.9751
761.34	33.3564
763.043	34.9087
764.746	35.5764
766.448	36.4959
768.152	37.7468
769.853	37.2235
771.554	38.8663
773.255	40.5594
774.956	41.9318
776.656	42.6028
778.356	43.8811
780.056	43.9286
781.755	44.7181
783.454	46.1219
785.153	48.769
786.851	50.9904
788.549	52.0838
790.247	52.3975
791.944	52.2034
793.641	51.0182
795.338	50.9518
797.034	52.3087
798.73	53.163
800.426	51.9575
802.121	52.9101
803.817	50.2843
805.511	50.7163
807.206	52.35
808.9	53.5651
810.592	52.8895
812.286	53.0782
813.979	53.4128
815.672	53.9924
817.364	54.3501
819.057	54.4733
820.748	54.1623
822.44	54.8362
824.129	55.7271
825.82	56.7184
827.511	58.9069
829.201	59.8471
830.891	58.9256
832.581	59.7681
834.269	59.0089
835.958	57.8059
837.646	56.7099
839.335	54.6776
841.023	53.7028
842.709	52.2169
844.396	51.9815
846.084	49.3602
847.77	47.7096
849.455	47.749
851.141	46.9478
852.827	46.7899
854.513	45.1951
856.196	44.7389
857.881	44.0158
859.566	41.7818
861.248	40.9373
862.932	40.4875
864.616	40.6049
866.297	41.3059
867.98	42.058
869.663	42.9334
871.343	41.4893
873.026	39.1207
874.707	38.0527
876.387	36.6759
878.068	34.6072
879.747	34.2573
881.428	32.5749
883.108	31.0726
884.786	28.6519
886.465	28.4553
888.143	26.6927
889.822	26.0635
891.498	24.5881
893.177	23.2782
894.855	22.1957
896.53	22.9414
898.208	22.9524
899.883	22.3241
901.56	21.8535
903.234	20.5174
904.91	20.249
906.584	20.5029
908.26	19.7232
909.933	19.1258
911.608	18.4284
913.28	18.3389
914.955	17.4116
916.627	16.954
918.298	17.1978
919.972	17.039
921.643	16.8838
923.315	16.1824
924.986	15.9553
926.656	17.0041
928.328	17.0509
929.997	17.2985
931.668	19.0446
933.337	19.7445
935.006	19.5969
936.676	20.1275
938.344	19.896
940.012	21.457
941.681	23.3037
943.348	23.2043
945.014	23.7041
946.683	23.4156
948.349	21.9758
950.015	20.2276
951.682	18.273
953.347	18.3804
955.012	16.4347
956.676	13.8342
958.343	12.1368
960.006	10.3725
961.67	8.02431
963.333	7.06026
964.998	6.2756
966.661	8.82398
968.323	9.29494
969.985	11.8195
971.649	14.5123
973.31	17.385
974.971	19.5287
976.632	22.8394
978.293	24.5006
979.953	27.0512
981.615	28.9221
983.274	31.6982
984.933	34.6052
986.592	36.7343
988.251	40.8696
989.909	42.2409
991.567	45.2638
993.225	48.5741
994.884	52.0594
996.541	54.8735
998.198	56.8173
999.855	58.3423
1001.51	60.6944
1003.17	61.3594
1004.82	60.3944
1006.48	59.3228
1008.13	58.4441
1009.79	57.1468
1011.44	55.0131
1013.1	53.4629
1014.75	51.65
1016.4	51.0705
1018.06	53.898
1019.71	59.5721
1021.36	66.784
1023.01	78.0317
1024.66	90.816
1026.32	103.731
1027.97	115.405
1029.62	128.405
1031.27	139.777
1032.92	153.601
1034.57	165.976
1036.22	176.649
1037.87	184.733
1039.52	192.464
1041.16	201.713
1042.81	209.866
1044.46	216.627
1046.11	224.303
1047.76	231.665
1049.4	236.961
1051.05	239.629
1052.7	243.082
1054.34	245.165
1055.99	244.263
1057.63	242.312
1059.28	240.898
1060.92	238.665
1062.57	235.739
1064.21	231.546
1065.85	226.784
1067.5	219.735
1069.14	211.353
1070.78	203.827
1072.43	193.859
1074.07	183.164
1075.71	171.499
1077.35	158.014
1078.99	143.505
1080.63	126.271
1082.27	109.698
1083.91	91.5587
1085.55	73.8244
1087.19	58.3871
1088.83	45.8023
1090.47	38.3891
1092.11	32.4622
1093.75	28.8822
1095.39	28.0202
1097.03	29.6696
1098.66	34.2537
1100.3	41.8819
1101.94	50.6435
1103.57	58.1007
1105.21	67.2756
1106.84	72.1505
1108.48	75.2193
1110.11	76.5189
1111.75	78.4594
1113.38	80.0411
1115.02	80.612
1116.65	80.1372
1118.29	79.965
1119.92	80.1806
1121.55	79.0018
1123.19	78.2194
1124.82	76.2233
1126.45	73.4633
1128.08	71.1538
1129.71	68.5108
1131.34	65.0047
1132.97	61.3107
1134.6	59.7109
1136.23	57.7083
1137.86	53.8425
1139.49	52.6808
1141.12	50.87
1142.75	46.5977
1144.38	43.2017
1146.01	39.0659
1147.64	35.529
1149.26	31.1665
1150.89	25.6049
1152.52	22.2904
1154.15	16.5008
1155.77	11.5453
1157.4	7.39139
1159.02	1.47634
1160.65	-3.06355
1162.27	-7.16835
1163.9	-8.40984
1165.52	-8.1994
1167.15	-5.28478
1168.77	-0.903095
1170.39	2.28663
1172.02	6.48534
1173.64	8.39378
1175.26	8.54555
1176.89	9.10559
1178.51	9.80261
1180.13	10.4623
1181.75	13.109
1183.37	14.6512
1184.99	14.3355
1186.61	14.5759
1188.23	14.1035
1189.85	13.9724
1191.47	13.208
1193.09	13.355
1194.71	14.5292
1196.33	15.2015
1197.94	18.0681
1199.56	18.5488
1201.18	19.2102
1202.8	19.6
1204.41	21.8512
1206.03	24.3569
1207.65	25.9712
1209.26	28.3504
1210.88	30.8745
1212.49	33.2525
1214.11	34.936
1215.72	38.6406
1217.34	42.2627
1218.95	45.8175
1220.57	49.138
1222.18	50.2137
1223.79	51.5976
1225.41	54.7315
1227.02	58.0679
1228.63	60.1298
1230.24	62.1105
1231.85	63.2841
1233.47	66.6684
1235.08	68.785
1236.69	71.4972
1238.3	72.5225
1239.91	73.7261
1241.52	76.9879
1243.13	78.1459
1244.74	79.4351
1246.34	79.9932
1247.95	78.3524
1249.56	74.95
1251.17	71.7094
1252.78	70.4507
1254.38	71.3123
1255.99	74.3262
1257.6	78.884
1259.2	84.9453
1260.81	91.6235
1262.42	98.1672
1264.02	103.61
1265.63	109.391
1267.23	114.738
1268.84	120.195
1270.44	125.94
1272.04	131.903
1273.65	137.211
1275.25	142.809
1276.85	149.081
1278.46	155.108
1280.06	159.751
1281.66	165.698
1283.26	170.569
1284.86	175.549
1286.46	178.157
1288.07	181.002
1289.67	182.744
1291.27	184.355
1292.87	184.037
1294.47	183.69
1296.06	185.891
1297.66	186.038
1299.26	184.358
1300.86	182.251
1302.46	179.631
1304.06	177.577
1305.65	176.307
1307.25	172.751
1308.85	168.748
1310.44	166.611
1312.04	161.534
1313.64	158.47
1315.23	152.636
1316.83	147.186
1318.42	141.019
1320.02	135.222
1321.61	128.546
1323.2	119.859
1324.8	112.098
1326.39	103.42
1327.99	96.8083
1329.58	91.6917
1331.17	90.2844
1332.76	91.8665
1334.36	94.4125
1335.95	98.056
1337.54	99.2531
1339.13	99.4292
1340.72	99.5336
1342.31	99.5845
1343.9	98.8276
1345.49	97.5662
1347.08	96.8656
1348.67	97.2513
1350.26	95.2357
1351.85	94.7804
1353.43	94.3571
1355.02	95.4104
1356.61	97.8799
1358.2	97.6179
1359.78	96.9453
1361.37	96.2163
1362.96	94.2598
1364.54	93.4405
1366.13	91.5346
1367.71	90.0033
1369.3	86.6717
1370.88	85.0964
1372.47	81.0438
1374.05	80.1829
1375.64	79.4919
1377.22	76.307
1378.8	74.0407
1380.39	72.8866
1381.97	72.2956
1383.55	72.3674
1385.13	73.2417
1386.72	71.5633
1388.3	72.5247
1389.88	71.7818
1391.46	70.5684
1393.04	68.988
1394.62	66.9902
1396.2	66.304
1397.78	66.2484
1399.36	69.5904
1400.94	72.7251
1402.52	79.2537
1404.1	88.6589
1405.68	100.016
1407.25	111.724
1408.83	124.156
1410.41	137.794
1411.98	152.944
1413.56	167.478
1415.14	182.617
1416.71	195.717
1418.29	210.154
1419.87	225.416
1421.44	239.914
1423.02	254.17
1424.59	270.124
1426.16	285.471
1427.74	301.011
1429.31	315.404
1430.89	332.096
1432.46	346.575
1434.03	361.367
1435.6	374.249
1437.18	383.169
1438.75	391.556
1440.32	399.915
1441.89	406.45
1443.46	413.158
1445.03	415.801
1446.6	418.819
1448.17	417.674
1449.74	415.574
1451.31	410.311
1452.88	406.181
1454.45	398.676
1456.02	390.139
1457.59	382.415
1459.16	372.179
1460.72	359.831
1462.29	345.946
1463.86	331.504
1465.43	313.925
1466.99	298.191
1468.56	279.095
1470.13	262.083
1471.69	244.035
1473.26	229.225
1474.82	214.482
1476.38	202.182
1477.95	190.589
1479.51	177.903
1481.08	167.668
1482.64	155.717
1484.2	142.405
1485.77	130.229
1487.33	120.009
1488.89	110.81
1490.46	100.005
1492.02	90.1891
1493.58	81.45
1495.14	73.6352
1496.7	67.2676
1498.26	60.7224
1499.82	56.2997
1501.38	51.8552
1502.94	49.3915
1504.5	46.0337
1506.06	44.8986
1507.62	43.5754
1509.18	41.5564
1510.73	38.8668
1512.29	37.1302
1513.85	35.275
1515.41	33.6833
1516.96	33.3426
1518.52	33.2039
1520.08	33.4663
1521.63	32.991
1523.19	30.6377
1524.75	31.6652
1526.3	29.7334
1527.85	30.0392
1529.41	29.0769
1530.96	28.8389
1532.52	29.404
1534.07	30.3272
1535.62	32.1063
1537.18	32.2229
1538.73	33.9217
1540.28	35.0976
1541.84	36.3446
1543.39	37.7546
1544.94	39.869
1546.49	40.3462
1548.04	43.3307
1549.59	44.3109
1551.14	45.8746
1552.69	47.4528
1554.25	49.7666
1555.79	51.2675
1557.34	52.8526
1558.89	55.0488
1560.44	56.9135
1561.99	58.7723
1563.54	61.6169
1565.08	62.5882
1566.63	64.2804
1568.18	66.2826
1569.73	69.0131
1571.27	71.8584
1572.82	75.0258
1574.37	77.3719
1575.91	78.8921
1577.46	80.4587
1579	82.4129
1580.55	84.5803
1582.09	86.4401
1583.64	88.7315
1585.18	89.7652
1586.73	89.8137
1588.27	91.7055
1589.81	93.5767
1591.35	94.5853
1592.9	95.9497
1594.44	97.9196
1595.98	98.7671
1597.52	100.013
1599.06	99.5984
1600.61	100.042
1602.15	100.479
1603.69	99.6531
1605.23	98.6023
1606.77	96.8905
1608.31	97.229
1609.85	97.9947
1611.39	97.5047
1612.93	97.9549
1614.46	96.3397
1616	95.6846
1617.54	93.6908
1619.08	94.3103
1620.61	93.5557
1622.15	91.5674
1623.69	91.1188
1625.23	90.2108
1626.76	89.2299
1628.3	87.6678
1629.83	87.2594
1631.37	87.1138
1632.9	85.8284
1634.44	83.4167
1635.97	81.2572
1637.51	79.7669
1639.04	79.4543
1640.57	78.7726
1642.11	77.886
1643.64	79.0264
1645.17	80.4812
1646.71	79.711
1648.24	79.7402
1649.77	79.7788
1651.3	78.5917
1652.83	78.1202
1654.36	79.1589
1655.89	80.1939
1657.42	79.74
1658.96	81.0173
1660.48	80.5459
1662.01	78.9455
1663.54	79.0453
1665.07	78.9663
1666.6	79.1433
1668.13	78.4753
1669.66	78.1408
1671.19	76.0771
1672.71	73.2063
1674.24	72.8095
1675.77	70.7761
1677.29	68.9572
1678.82	66.243
1680.35	64.8699
1681.87	62.7278
1683.4	61.0311
1684.92	58.0822
1686.45	54.9711
1687.97	52.5443
1689.5	49.3945
1691.02	45.1926
1692.54	42.7318
1694.07	40.6055
1695.59	39.3807
1697.11	36.2943
1698.64	33.7708
1700.16	31.9788
1701.68	29.2353
1703.2	27.5084
1704.72	24.0199
1706.25	22.1693
1707.77	20.0208
1709.29	15.5987
1710.81	11.6985
1712.33	11.3926
1713.85	10.675
1715.37	10.1957
1716.89	8.13961
1718.41	6.97577
1719.92	5.75172
1721.44	4.79942
1722.96	3.01331
1724.48	3.05534
1725.99	2.51083
1727.51	1.72464
1729.03	2.12062
1730.55	1.87851
1732.06	1.74974
1733.58	1.58121
1735.09	1.67218
1736.61	0.471667
1738.13	0.972981
1739.64	3.25842
1741.15	3.40108
1742.67	4.34105
1744.18	4.6162
1745.7	5.26716
1747.21	5.19035
1748.72	6.61393
1750.24	8.49293
1751.75	8.3277
1753.26	10.1894
1754.77	11.1621
1756.29	12.8894
1757.8	13.3803
1759.31	13.7299
1760.82	13.385
1762.33	14.7945
1763.84	15.3116
1765.35	15.6069
1766.86	16.5516
1768.37	17.2516
1769.88	19.0779
1771.39	17.992
1772.9	16.8086
1774.4	16.7108
1775.91	15.6948
1777.42	15.9593
1778.93	15.0194
1780.44	13.7607
1781.94	14.1224
1783.45	14.144
1784.96	12.558
1786.46	12.4075
1787.97	13.3465
1789.47	12.3497
1790.98	12.5477
1792.48	11.2655
1793.99	9.97184
1795.49	9.48064
1797	9.92461
1798.5	9.20201
1800.01	9.01199
1801.51	7.30245
1803.01	6.50885
1804.51	6.79079
1806.02	6.59076
1807.52	6.67628
1809.02	6.69627
1810.52	7.79365
1812.02	7.93554
1813.52	9.67018
1815.02	9.92997
1816.53	9.31896
1818.03	9.79666
1819.52	9.96729
1821.02	9.86052
1822.52	10.0643
1824.02	11.6665
1825.52	12.1999
1827.02	12.8943
1828.52	13.3421
1830.02	12.5867
1831.51	12.6466
1833.01	12.7752
1834.51	13.0032
1836.01	11.8442
1837.5	12.6328
1839	13.1741
1840.49	13.2726
1841.99	12.457
1843.49	11.4591
1844.98	11.5779
1846.48	10.2319
1847.97	9.92216
1849.47	10.2085
1850.96	10.3901
1852.45	10.3934
1853.95	10.1936
1855.44	11.6371
1856.93	11.665
1858.42	11.5179
1859.92	10.4996
1861.41	11.3387
1862.9	10.3148
1864.39	9.88198
1865.88	8.68505
1867.38	7.06733
1868.87	7.61815
1870.36	7.31301
1871.85	7.52479
1873.34	5.84927
1874.83	6.63912
1876.32	5.16721
1877.81	5.14395
1879.29	5.12102
1880.78	4.86071
1882.27	4.02382
1882.53	3.74416
1884.03	3.72288
1885.52	3.13262
1887.01	4.02306
1888.51	3.34216
1890	3.52769
1891.5	4.39885
1892.99	3.77522
1894.48	4.01402
1895.97	3.98232
1897.47	3.01724
1898.96	3.13419
1900.45	3.82033
1901.94	1.66792
1903.43	1.98476
1904.92	1.6517
1906.41	1.26021
1907.9	0.781678
1909.39	0.673
1910.88	3.39339
1912.37	1.56693
1913.86	0.771625
1915.35	1.24569
1916.84	3.36244
1918.33	3.51122
1919.81	3.85793
1921.3	3.17351
1922.79	4.6069
1924.28	6.26161
1925.76	7.01542
1927.25	8.68065
1928.73	9.07433
1930.22	7.62798
1931.71	4.33993
1933.19	2.19067
1934.68	4.58593
1936.16	5.30186
1937.65	6.68857
1939.13	8.26567
1940.62	10.3537
1942.1	13.0765
1943.58	13.7835
1945.07	15.793
1946.55	16.2539
1948.03	17.4291
1949.51	16.4336
1951	17.4685
1952.48	17.683
1953.96	18.2702
1955.44	17.1839
1956.92	18.6164
1958.4	19.2349
1959.88	20.0564
1961.36	21.5753
1962.84	21.8351
1964.32	23.2886
1965.8	23.3707
1967.28	22.687
1968.76	21.5648
1970.24	21.2652
1971.72	19.8333
1973.2	19.0254
1974.67	18.5483
1976.15	16.5774
1977.63	17.5823
1979.1	15.5518
1980.58	15.4246
1982.06	14.5279
1983.54	14.1674
1985.01	13.9102
1986.49	12.2346
1987.96	12.498
1989.44	13.2868
1990.91	12.2198
1992.39	9.04889
1993.86	8.86067
1995.33	8.02029
1996.81	6.93666
1998.28	7.02606
1999.75	5.93405
2001.23	3.92957
2002.7	2.00735
2004.17	0.781418
2005.65	0.663304
2007.12	3.91844
2008.59	7.44237
2010.06	7.33095
2011.53	6.83592
2013	7.23497
2014.47	7.95683
2015.94	7.80834
2017.41	8.03929
2018.88	9.26035
2020.35	8.43386
2021.82	7.90153
2023.29	8.91831
2024.76	9.35263
2026.23	10.2392
2027.69	10.0412
2029.16	8.98364
2030.63	10.675
2032.1	9.76579
2033.56	11.9554
2035.03	13.6229
2036.5	13.0474
2037.96	13.1192
2039.43	11.559
2040.89	11.1109
2042.36	11.4173
2043.83	12.2498
2045.29	11.4083
2046.75	11.9583
2048.22	13.8215
2049.68	12.5604
2051.15	14.1252
2052.61	14.1822
2054.07	15.0221
2055.54	16.2441
2057	17.1236
2058.46	17.4895
2059.92	16.3559
2061.39	16.463
2062.85	18.3927
2064.31	17.0398
2065.77	17.289
2067.23	17.7776
2068.69	17.4696
2070.15	16.6474
2071.61	17.8354
2073.07	16.4117
2074.53	15.3699
2075.99	14.9529
2077.45	14.5377
2078.91	14.8993
2080.37	14.1612
2081.82	13.0396
2083.28	13.4065
2084.74	13.5155
2086.2	14.92
2087.65	15.1433
2089.11	14.2108
2090.57	14.3128
2092.02	14.4526
2093.48	13.8249
2094.94	13.4061
2096.39	13.2581
2097.85	12.4121
2099.3	13.0862
2100.76	10.7251
2102.21	9.86266
2103.66	10.4458
2105.12	10.9042
2106.57	11.3211
2108.03	11.3969
2109.48	10.368
2110.93	9.87734
2112.38	9.07631
2113.84	9.02734
2115.29	9.61177
2116.74	8.96433
2118.19	8.88018
2119.64	9.26487
2121.09	9.38006
2122.54	8.45735
2123.99	8.28422
2125.45	7.49859
2126.89	6.43289
2128.34	6.25381
2129.79	4.55196
2131.24	4.53205
2132.69	4.91802
2134.14	6.56711
2135.59	5.92316
2137.04	5.12424
2138.48	6.0965
2139.93	6.31466
2141.38	6.51212
2142.83	6.19389
2144.27	6.55457
2145.72	5.14173
2147.17	5.52364
2148.61	5.27834
2150.06	5.8176
2151.5	6.74468
2152.95	6.67464
2154.39	6.92428
2155.84	8.84224
2157.28	9.4766
2158.73	9.80475
2160.17	9.66276
2161.61	10.2989
2163.06	11.6529
2164.5	13.3138
2165.94	13.4565
2167.38	13.8526
2168.83	15.2613
2170.27	16.4918
2171.71	18.4598
2173.15	19.1304
2174.59	21.2979
2176.03	24.0493
2177.47	24.1704
2178.91	23.6584
2180.36	24.5077
2181.8	24.1723
2183.23	24.8093
2184.67	25.6447
2186.11	26.3571
2187.55	27.118
2188.99	26.4026
2190.43	26.4654
2191.87	26.8976
2193.3	26.888
2194.74	27.4911
2196.18	27.3182
2197.62	28.4199
2199.05	28.1211
2200.49	29.1153
2201.93	29.9956
2203.36	29.0387
2204.8	28.8718
2206.23	28.3725
2207.67	27.4269
2209.1	26.5054
2210.54	25.2022
2211.97	23.2717
2213.41	22.1795
2214.84	21.5695
2216.27	20.1428
2217.71	18.9105
2219.14	20.0818
2220.57	18.7626
2222.01	18.0265
2223.44	18.5117
2224.87	18.3924
2226.3	18.3841
2227.73	19.336
2229.16	19.3029
2230.6	19.7527
2232.03	19.1832
2233.46	19.146
2234.89	19.7995
2236.32	19.8664
2237.75	20.5692
2239.18	23.2446
2240.61	23.6562
2242.03	24.2226
2243.46	25.4534
2244.89	24.5229
2246.32	24.0564
2247.75	23.3913
2249.17	21.2767
2250.6	21.076
2252.03	20.7913
2253.46	22.1079
2254.88	23.4643
2256.31	22.3624
2257.73	22.2579
2259.16	22.9893
2260.59	22.908
2262.01	23.4832
2263.44	23.8483
2264.86	24.365
2266.29	24.8339
2267.71	23.8728
2269.14	23.7979
2270.56	22.8244
2271.98	21.3075
2273.4	19.0155
2274.83	17.281
2276.25	17.0506
2277.67	15.1679
2279.09	13.5022
2280.52	12.7241
2281.94	12.4888
2283.36	13.0369
2284.78	14.5494
2286.2	14.1167
2287.62	14.5559
2289.04	13.6471
2290.46	13.1166
2291.88	12.3957
2293.3	11.8606
2294.72	12.7031
2296.14	11.6905
2297.56	12.1162
2298.98	13.1227
2300.4	13.0445
2301.82	14.4387
2303.23	13.6979
2304.65	14.7263
2306.07	14.3606
2307.49	14.8347
2308.9	14.7654
2310.32	15.1148
2311.73	13.3691
2313.15	13.6818
2314.57	13.0848
2315.98	12.8841
2317.4	13.1098
2318.81	13.2305
2320.23	13.5368
2321.64	15.0759
2323.06	14.9221
2324.47	16.0646
2325.88	15.2214
2327.3	13.9254
2328.71	13.9125
2330.12	14.3241
2331.54	13.405
2332.95	13.8212
2334.36	14.2157
2335.77	14.3853
2337.18	14.2188
2338.6	13.4695
2340.01	12.878
2341.42	12.062
2342.83	10.4
2344.24	9.2173
2345.65	9.14751
2347.06	7.91206
2348.47	8.06827
2349.88	7.621
2351.29	7.10366
2352.7	6.61574
2354.1	6.93536
2355.51	5.95749
2356.92	5.04715
2358.33	5.19921
2359.74	3.81344
2361.14	5.08256
2362.55	5.9351
2363.96	4.87279
2365.36	5.07871
2366.77	4.67456
2368.18	5.7716
2369.58	5.02264
2370.99	4.12577
2372.39	4.46563
2373.8	3.98194
2375.2	3.36315
2376.61	3.24981
2378.01	4.1124
2379.42	4.18003
2380.82	4.3121
2382.22	3.44582
2383.63	3.83104
2385.03	3.99802
2386.43	4.97573
2387.84	4.50964
2389.24	4.50683
2390.64	3.46643
2392.04	2.63365
2393.44	1.02352
2394.84	2.47794
2396.25	1.62738
2397.65	2.28805
2399.05	3.90633
2400.45	5.56661
2401.85	4.85014
2403.25	6.26548
2404.65	6.99857
2406.05	7.44216
2407.45	8.15359
2408.84	8.24416
2410.24	9.29703
2411.64	9.23766
2413.04	8.68877
2414.44	10.0946
2415.83	11.6436
2417.23	12.3744
2418.63	13.1366
2420.02	12.4513
2421.42	13.4845
2422.82	13.8887
2424.21	13.8612
2425.61	14.2593
2427	14.487
2428.4	14.134
2429.8	14.167
2431.19	12.6618
2432.58	11.6502
2433.98	10.0423
2435.37	10.339
2436.77	10.1176
2438.16	10.4603
2439.55	9.69449
2440.95	9.87843
2442.34	10.2328
2443.73	9.97317
2445.12	8.48196
2446.51	8.85635
2447.91	8.33397
2449.3	8.68492
2450.69	8.28601
2452.08	8.36438
2453.47	7.96844
2454.86	9.17836
2456.25	7.93468
2457.64	8.03699
2459.03	8.45286
2460.42	8.44062
2461.81	8.72568
2463.2	10.4935
2464.59	11.427
2465.98	11.8659
2467.36	13.3394
2468.75	13.7989
2470.14	12.9159
2471.53	13.2784
2472.92	14.5025
2474.3	14.5771
2475.69	14.4728
2477.08	15.3041
2478.46	15.1759
2479.85	15.2209
2481.23	15.7036
2482.62	15.4542
2484	15.9728
2485.39	14.8187
2486.77	14.6233
2488.16	12.8456
2489.54	11.9275
2490.93	11.9877
2492.31	11.2666
2493.69	11.2041
2495.08	10.2968
2496.46	10.5096
2497.84	9.00465
2499.23	9.76648
2500.61	8.09544
2501.99	9.51389
2503.37	8.97046
2504.75	8.48006
2506.13	8.46105
2507.52	7.69594
2508.9	7.44002
2510.28	8.82027
2511.66	9.15899
2513.04	9.35549
2514.42	10.4229
2515.8	12.0574
2517.18	13.2554
2518.55	13.881
2519.93	14.3111
2521.31	13.9156
2522.69	14.0763
2524.07	15.2423
2525.45	13.7714
2526.82	14.364
2528.2	15.3004
2529.58	15.6026
2530.95	16.3588
2532.33	18.0192
2533.71	18.1791
2535.08	19.277
2536.46	19.3545
2537.84	20.1805
2539.21	20.6668
2540.59	20.7789
2541.96	20.2755
2543.34	20.4053
2544.71	20.745
2546.08	22.2636
2547.46	22.8109
2548.83	23.7392
2550.2	24.8122
2551.58	23.9717
2552.95	24.0622
2554.32	24.3793
2555.7	24.9391
2557.07	25.0636
2558.44	25.7897
2559.81	26.7809
2561.18	26.0714
2562.55	25.6909
2563.93	25.5534
2565.3	27.6343
2566.67	26.6905
2568.04	26.5582
2569.41	25.1701
2570.78	26.8417
2572.15	24.9996
2573.51	25.662
2574.88	26.2254
2576.25	26.3729
2577.62	27.7716
2578.99	27.2301
2580.36	26.2565
2581.73	26.1759
2583.09	27.1881
2584.46	26.2624
2585.83	25.6644
2587.19	24.8655
2588.56	24.3858
2589.93	23.5853
2591.29	24.0464
2592.66	24.4785
2594.02	24.7296
2595.39	25.5639
2596.75	26.1394
2598.12	25.5756
2599.48	25.9509
2600.85	26.7676
2602.21	27.4319
2603.58	27.7979
2604.94	28.2811
2606.3	28.9002
2607.67	28.6726
2609.03	27.8208
2610.39	28.1155
2611.76	28.1094
2613.12	28.63
2614.48	28.773
2615.84	28.5888
2617.2	28.5039
2618.56	27.8527
2619.92	27.2815
2621.28	27.4903
2622.65	28.7006
2624.01	27.7267
2625.37	27.2631
2626.72	27.057
2628.08	27.1075
2629.44	26.771
2630.8	27.2107
2632.16	27.717
2633.52	27.8263
2634.88	25.9189
2636.24	25.2399
2637.59	26.7481
2638.95	27.4135
2640.31	25.7762
2641.67	26.4879
2643.02	27.1653
2644.38	27.2137
2645.74	27.3624
2647.09	26.5304
2648.45	27.1595
2649.8	28.5173
2651.16	28.5872
2652.51	27.8817
2653.87	28.6873
2655.22	29.0878
2656.58	28.5068
2657.93	29.318
2659.29	29.6949
2660.64	29.7405
2661.99	28.7505
2663.35	29.3908
2664.7	29.4436
2666.05	31.4592
2667.41	32.344
2668.76	32.6418
2670.11	32.8461
2671.46	33.7658
2672.81	34.236
2674.16	34.2003
2675.51	33.2512
2676.87	33.1996
2678.22	33.7966
2679.57	33.4222
2680.92	33.4248
2682.27	33.8743
2683.62	33.7709
2684.97	34.5442
2686.31	34.6468
2687.66	35.6929
2689.01	37.1958
2690.36	37.8165
2691.71	39.2074
2693.06	41.7034
2694.4	44.3752
2695.75	45.9204
2697.1	50.016
2698.45	53.3676
2699.79	56.7291
2701.14	60.3441
2702.49	63.1559
2703.83	66.5756
2705.18	70.3957
2706.52	73.6958
2707.87	76.4764
2709.21	80.1342
2710.56	82.9352
2711.9	84.0794
2713.25	86.7029
2714.59	87.8721
2715.94	90.7593
2717.28	92.8654
2718.62	92.7194
2719.97	93.2944
2721.31	94.355
2722.65	93.3036
2723.99	91.5377
2725.34	91.8865
2726.68	90.6427
2728.02	88.9558
2729.36	87.3446
2730.7	86.5093
2732.04	84.0477
2733.39	80.8288
2734.73	77.1143
2736.07	73.8197
2737.41	70.7709
2738.75	68.51
2740.08	63.4596
2741.43	59.2178
2742.76	54.6543
2744.1	50.6599
2745.44	45.329
2746.78	41.078
2748.12	36.7785
2749.46	33.1996
2750.79	28.671
2752.13	25.3988
2753.47	21.8171
2754.81	19.5843
2756.14	16.4247
2757.48	14.7706
2758.81	12.8457
2760.15	10.2131
2761.49	9.27612
2762.82	8.0096
2764.16	7.34997
2765.49	5.4561
2766.83	4.6686
2768.16	3.49238
2769.5	2.12114
2770.83	1.19926
2772.16	0.362577
2773.5	1.15926
2774.83	0.852144
2776.17	0.835627
2777.5	0.136049
2778.83	-1.20983
2780.16	-0.867857
2781.5	-1.00005
2782.83	0.261352
2784.16	-0.607606
2785.49	-1.55817
2786.82	-2.40007
2788.15	-2.06836
2789.49	-3.20567
2790.82	-3.12345
2792.15	-2.40652
2793.48	-3.08782
2794.81	-3.8517
2796.14	-4.58489
2797.46	-5.44052
2798.79	-6.83413
2800.12	-9.5421
2801.45	-9.85536
2802.78	-13.7688
2804.11	-17.878
2805.44	-22.6846
2806.76	-29.2248
2808.09	-32.9033
2809.42	-34.4357
2810.75	-32.8222
2812.07	-27.6884
2813.4	-17.1359
2814.73	-1.82787
2816.05	18.6728
2817.38	42.3772
2818.7	71.0869
2820.03	101.717
2821.36	134.052
2822.68	169.328
2824.01	206.54
2825.33	243.982
2826.65	283.746
2827.98	322.579
2829.3	363.253
2830.63	403.496
2831.95	445.07
2833.27	484.472
2834.6	524.4
2835.92	562.684
2837.24	601.055
2838.56	637.572
2839.88	673.307
2841.21	703.385
2842.53	731.193
2843.85	757.775
2845.17	784.2
2846.49	811.527
2847.81	841.879
2849.13	880.212
2850.45	920.005
2851.77	960.878
2853.09	1002.24
2854.41	1042.32
2855.73	1078.36
2857.05	1111.49
2858.37	1141.12
2859.69	1167.44
2861	1189.24
2862.32	1206.73
2863.64	1218.79
2864.96	1227.43
2866.28	1232.25
2867.59	1235.13
2868.91	1235.48
2870.23	1235.1
2871.54	1233.86
2872.86	1233.44
2874.17	1234.72
2875.49	1237.6
2876.81	1240.58
2878.12	1243.5
2879.44	1247.78
2880.75	1248.09
2882.07	1245.94
2883.38	1241.65
2884.69	1236.81
2886.01	1226.86
2887.32	1215.55
2888.63	1203.45
2889.95	1186.57
2891.26	1169.92
2892.57	1149.71
2893.89	1127.82
2895.2	1106.43
2896.51	1080.57
2897.82	1055.88
2899.13	1028.88
2900.44	1003.51
2901.76	975.273
2903.07	949.867
2904.38	923.411
2905.69	900.807
2907	880.635
2908.31	865.963
2909.62	857.459
2910.93	853.342
2912.24	855.451
2913.55	864.736
2914.85	873.482
2916.16	878.395
2917.47	880.846
2918.78	879.937
2920.09	876.987
2921.4	872.256
2922.7	866.01
2924.01	859.557
2925.32	850.962
2926.62	842.21
2927.93	832.115
2929.24	821.286
2930.54	811.233
2931.85	799.472
2933.15	788.488
2934.46	777.55
2935.76	763.666
2937.07	749.907
2938.37	735.317
2939.68	721.161
2940.98	706.284
2942.29	688.502
2943.59	669.548
2944.89	650.492
2946.2	629.391
2947.5	610.446
2948.8	590.479
2950.11	570.903
2951.41	549.477
2952.71	528.532
2954.01	508.398
2955.32	487.206
2956.62	467.793
2957.92	447.288
2959.22	427.74
2960.52	409.652
2961.82	391.693
2963.12	375.42
2964.42	358.509
2965.72	342.2
2967.02	327.552
2968.32	314.835
2969.62	302.301
2970.92	291.894
2972.22	279.753
2973.51	267.747
2974.81	256.268
2976.11	243.662
2977.41	232.685
2978.71	220.771
2980	207.775
2981.3	196.58
2982.6	183.959
2983.9	171.101
2985.19	160.422
2986.49	148.642
2987.78	137.373
2989.08	127.275
2990.38	118
2991.67	109.675
2992.97	99.6791
2994.26	91.6304
2995.56	83.9981
2996.85	77.256
2998.14	71.8267
2999.44	65.1589
3000.73	58.4594
3002.03	52.9247
3003.32	47.5533
3004.61	42.5802
3005.91	37.2294
3007.2	31.5201
3008.49	27.6368
3009.78	23.9849
3011.07	20.5273
3012.37	17.7719
3013.66	15.3639
3014.95	13.4758
3016.24	10.4816
3017.53	8.35934
3018.82	7.34807
3020.11	5.51394
3021.4	4.7385
3022.69	2.75861
3023.98	1.44668
3025.27	0.58494
3026.56	-0.799646
3027.85	-1.90986
3029.14	-3.18266
3030.43	-3.7474
3031.71	-3.05115
3033	-2.55348
3034.29	-2.02434
3035.58	-1.48057
3036.87	-1.69948
3038.15	-1.01136
3039.44	0.000817775
3040.73	1.02753
3042.01	2.89171
3043.3	4.74968
3044.59	6.39423
3045.87	8.73619
3047.16	10.3483
3048.44	12.0041
3049.73	13.0523
3051.01	13.9593
3052.3	15.7443
3053.58	17.3674
3054.87	19.3374
3056.15	20.8991
3057.43	21.5148
3058.72	22.9992
3060	24.1706
3061.29	25.8955
3062.57	26.4421
3063.85	27.2087
3065.13	28.7565
3066.42	31.0754
3067.7	32.6474
3068.98	33.6774
3070.26	34.9325
3071.54	36.2453
3072.82	38.7939
3074.11	40.6367
3075.39	42.895
3076.67	45.8861
3077.95	47.4042
3079.23	47.991
3080.51	49.2409
3081.79	50.6497
3083.07	52.3287
3084.35	53.3015
3085.63	54.9885
3086.9	55.1589
3088.18	56.799
3089.46	57.1562
3090.74	58.0325
3092.02	59.5252
3093.29	61.3815
3094.57	64.2292
3095.85	67.5623
3097.13	70.8512
3098.4	74.0524
3099.68	77.3545
3100.95	79.5995
3102.23	82.4585
3103.51	85.591
3104.78	88.3948
3106.06	91.6204
3107.33	95.9213
3108.61	98.3951
3109.88	101.24
3111.16	103.99
3112.43	107.022
3113.71	111.431
3114.98	115.626
3116.25	119.553
3117.53	123.842
3118.8	127.474
3120.07	131.576
3121.35	134.679
3122.62	139.455
3123.89	144.376
3125.16	148.461
3126.44	152.594
3127.71	157.716
3128.98	162.456
3130.25	167.746
3131.52	172.28
3132.79	176.47
3134.06	181.881
3135.33	187.913
3136.6	193.979
3137.87	198.308
3139.14	202.849
3140.41	207.472
3141.68	210.949
3142.95	215.154
3144.22	219.251
3145.49	223.249
3146.76	226.379
3148.02	230.6
3149.29	234.608
