#Acq. time (s)=	45
#Accumulations=	2
#Range (cm-¹)=	200...3150
#Windows=	2
#Auto scanning=	Off
#Autofocus=	Off
#Macrospot=	Off
#AutoExposure=	Off
#Spike filter=	Multiple accum.
#Delay time (s)=	0
#Binning=	1
#Readout mode=	Signal
#DeNoise=	Off
#ICS correction=	On
#Dark correction=	Off
#Inst. Process=	Off
#Detector Gain=	Best Dynamic Range
#Detector ADC=	20 kHz       
#Detector temperature (°C)=	-69.85
#Instrument=	LabRAM HR Evol
#Detector=	Synapse
#Objective=	x100
#Grating=	600 gr/mm
#ND Filter=	100%
#Laser (nm)=	532 
#Hole=	100.021
#Range=	Auto
#Laser Pol.=	No
#Raman. Pol.=	No
#Laser Pol. (°)=	-0.0007625
#Raman Pol. (°)=	89.9995
#Collection=	Microscope
#StageXY=	Marzhauser
#StageZ=	Marzhauser
#X (µm)=	-969
#Y (µm)=	-2845.2
#Z (µm)=	529.15
#Full time(mm:ss)=	3:18
#Project=	
#Sample=	
#Site=	
#Title=	Mb_00_13_23_2x_45s_532 nm_x100_100%_600 gr_mm
#Remark=	
#Date=	06.07.2022 11:30
#Acquired=	06.07.2022 11:30:03
#Base:Fit=	10.08.2022 10:16:56
#Base:Sub=	10.08.2022 10:17:24
#Filter:Polynom=	16.08.2022 10:36:38
#AxisType[0]=Intens
#AxisUnit[0]=Cnt
#AxisType[1]=Spectr
#AxisUnit[1]=1/cm
200.398	19.286
202.213	13.2896
204.027	8.3938
205.843	5.24077
207.657	2.65657
209.47	0.784622
211.283	-0.164851
213.097	-1.04698
214.909	-0.974904
216.721	0.868036
218.533	2.84505
220.344	6.54146
222.157	12.1271
223.967	16.4451
225.777	20.9146
227.587	26.8429
229.396	31.8564
231.205	36.6683
233.016	43.6388
234.824	48.4755
236.632	53.3874
238.439	58.6098
240.247	63.8514
242.053	67.9108
243.86	71.1559
245.666	74.0424
247.474	77.923
249.279	82.5218
251.085	87.2125
252.889	90.4571
254.694	93.0827
256.498	94.6699
258.301	96.0664
260.105	97.1955
261.908	98.64
263.71	99.2858
265.513	99.2492
267.315	98.4005
269.116	96.1632
270.918	94.2251
272.718	92.586
274.519	90.3501
276.319	87.5965
278.119	85.4
279.918	81.8582
281.718	78.5222
283.516	76.1637
285.315	71.8959
287.113	68.3207
288.911	62.6753
290.708	59.1523
292.505	56.2761
294.302	52.4064
296.098	48.5508
297.894	46.3121
299.69	43.7416
301.485	42.6547
303.278	41.1009
305.073	40.444
306.867	39.3323
308.661	38.5318
310.454	37.145
312.247	36.1756
314.04	34.2153
315.833	33.6269
317.623	33.6085
319.415	32.3448
321.206	32.6783
322.997	33.2028
324.788	31.9299
326.579	31.3114
328.367	30.3718
330.156	30.7623
331.946	30.546
333.735	29.9734
335.523	29.7569
337.31	29.831
339.098	29.0217
340.885	27.6881
342.673	25.9517
344.458	24.0936
346.244	22.1796
348.03	19.7792
349.816	18.7493
351.6	17.4459
353.385	15.257
355.17	13.673
356.953	11.915
358.737	10.309
360.521	10.7713
362.304	10.7891
364.085	11.389
365.868	12.8253
367.65	14.4596
369.431	15.3995
371.212	15.6464
372.994	17.7263
374.773	20.0963
376.554	22.1644
378.332	24.4754
380.112	29.0433
381.892	33.212
383.669	37.9484
385.448	43.6736
387.225	50.1457
389.003	55.7096
390.781	60.9064
392.557	65.222
394.334	69.1961
396.109	74.0457
397.885	78.3172
399.66	81.6989
401.436	85.5537
403.211	89.4665
404.984	92.7041
406.759	94.8299
408.532	96.2745
410.306	98.0517
412.078	98.3275
413.851	99.1888
415.623	99.0642
417.395	98.6658
419.166	99.5098
420.938	97.4637
422.708	94.9857
424.477	92.5463
426.248	89.5639
428.017	85.4662
429.788	80.5083
431.556	76.5711
433.326	72.1833
435.093	67.4382
436.86	63.2784
438.629	59.5828
440.395	54.6457
442.163	50.44
443.929	46.6031
445.694	43.5483
447.461	39.2383
449.226	37.2056
450.99	33.929
452.756	31.4799
454.52	29.0869
456.285	27.2248
458.048	25.0336
459.811	23.543
461.573	24.0484
463.337	24.6845
465.099	24.2841
466.86	25.2407
468.623	25.9783
470.384	26.1986
472.144	27.1965
473.906	28.3046
475.666	29.2237
477.425	29.9707
479.184	30.9331
480.944	32.1973
482.703	32.7009
484.461	33.8161
486.218	34.6558
487.975	34.8044
489.734	34.6477
491.491	35.8147
493.247	36.1132
495.003	35.8098
496.759	35.967
498.516	37.0887
500.271	37.5625
502.025	39.2111
503.779	39.0847
505.533	39.1724
507.287	40.0026
509.042	40.4531
510.795	40.5597
512.547	40.6715
514.299	40.3451
516.051	39.5979
517.803	39.0043
519.554	40.6742
521.305	40.8987
523.055	40.8697
524.805	40.4283
526.555	40.5635
528.307	40.5246
530.056	41.0605
531.805	40.764
533.553	40.2748
535.301	38.8749
537.049	39.8772
538.797	38.4064
540.544	37.4616
542.291	36.4866
544.037	34.6765
545.783	34.2797
547.529	33.4479
549.275	32.6398
551.02	31.5229
552.765	28.9047
554.509	25.8826
556.253	24.1656
557.997	22.7397
559.738	22.104
561.482	21.1109
563.224	21.2013
564.967	21.4287
566.709	20.3731
568.451	18.7982
570.192	17.8369
571.933	17.6055
573.674	15.7744
575.415	13.6588
577.153	13.35
578.893	12.9156
580.632	12.3143
582.371	11.5985
584.11	11.6237
585.849	11.7759
587.587	10.5705
589.323	9.74409
591.06	8.2224
592.797	8.02886
594.534	7.98585
596.271	8.36394
598.005	7.25129
599.741	8.11598
601.476	8.73226
603.211	9.18648
604.944	9.28989
606.679	9.71541
608.413	9.5884
610.147	9.59446
611.878	9.39021
613.611	9.84547
615.344	10.0645
617.077	10.113
618.807	9.24203
620.539	9.16538
622.27	8.3834
623.999	8.60234
625.73	8.20891
627.461	8.53716
629.189	9.62743
630.919	10.8258
632.648	12.0269
634.376	11.8587
636.105	12.6743
637.833	13.5136
639.559	13.1988
641.287	13.6466
643.013	15.3766
644.74	15.4046
646.467	16.5092
648.192	17.2039
649.918	17.8817
651.642	17.243
653.368	17.0708
655.091	16.8085
656.816	17.4743
658.538	16.7531
660.263	15.6888
661.987	16.1074
663.708	16.0027
665.432	15.5171
667.153	15.2205
668.875	14.3748
670.596	13.9057
672.318	13.1637
674.037	12.3756
675.759	12.3339
677.478	12.5747
679.196	13.2224
680.917	12.9495
682.635	12.494
684.355	11.1718
686.072	12.4387
687.791	11.5697
689.508	9.84905
691.224	9.76537
692.942	9.51383
694.658	8.6955
696.376	7.41249
698.091	6.5785
699.805	7.08012
701.522	7.59966
703.236	7.38299
704.95	6.54886
706.665	7.22682
708.379	6.78074
710.093	7.51871
711.806	7.54544
713.518	7.38216
715.23	8.36485
716.943	7.81183
718.655	8.29099
720.366	10.1812
722.078	10.8674
723.788	10.1806
725.498	11.0479
727.208	11.3964
728.919	11.563
730.628	12.268
732.337	12.9302
734.045	13.6815
735.755	13.6232
737.463	14.1606
739.17	14.8396
740.877	14.2089
742.584	15.1777
744.292	15.013
745.998	15.7848
747.704	16.9313
749.409	17.7906
751.114	19.3769
752.819	19.9558
754.526	22.3017
756.23	23.5444
757.934	25.1759
759.637	27.3469
761.34	28.9134
763.043	30.4178
764.746	31.7733
766.448	32.5589
768.152	32.9803
769.853	35.1662
771.554	38.0106
773.255	39.6743
774.956	40.6167
776.656	42.8997
778.356	42.9805
780.056	44.1124
781.755	45.1398
783.454	47.2279
785.153	48.0336
786.851	48.5621
788.549	48.5804
790.247	48.5517
791.944	49.9435
793.641	50.0344
795.338	50.6051
797.034	51.3469
798.73	52.6326
800.426	53.1518
802.121	53.3829
803.817	55.0199
805.511	54.0893
807.206	52.8924
808.9	51.6687
810.592	52.0321
812.286	50.7252
813.979	51.1679
815.672	51.9866
817.364	51.8333
819.057	50.7568
820.748	49.5585
822.44	49.6114
824.129	49.4405
825.82	49.179
827.511	49.6207
829.201	49.135
830.891	49.1282
832.581	48.8327
834.269	47.43
835.958	45.8068
837.646	43.8669
839.335	42.906
841.023	40.0509
842.709	39.6305
844.396	38.4927
846.084	37.1195
847.77	35.5998
849.455	35.2813
851.141	34.62
852.827	33.8667
854.513	34.2723
856.196	32.9543
857.881	31.4395
859.566	29.5805
861.248	28.1622
862.932	26.3105
864.616	25.0892
866.297	24.1457
867.98	23.6136
869.663	22.4377
871.343	21.9617
873.026	22.2622
874.707	21.633
876.387	21.4387
878.068	21.5998
879.747	22.6061
881.428	22.5323
883.108	23.0887
884.786	22.7108
886.465	23.314
888.143	22.9031
889.822	22.48
891.498	23.2432
893.177	24.1063
894.855	25.4862
896.53	26.1373
898.208	27.1406
899.883	27.245
901.56	26.7652
903.234	27.1497
904.91	28.2249
906.584	28.6871
908.26	28.696
909.933	28.4431
911.608	28.7321
913.28	28.0338
914.955	26.9202
916.627	25.8186
918.298	24.638
919.972	25.2627
921.643	25.832
923.315	26.2732
924.986	26.0706
926.656	26.7268
928.328	27.7379
929.997	26.9405
931.668	26.9208
933.337	26.8261
935.006	25.2939
936.676	24.3551
938.344	23.8806
940.012	23.1819
941.681	22.4475
943.348	20.8348
945.014	18.9887
946.683	18.2267
948.349	17.449
950.015	17.6324
951.682	16.7524
953.347	14.9036
955.012	13.7087
956.676	13.3259
958.343	11.0566
960.006	10.9028
961.67	11.0933
963.333	11.6032
964.998	13.0204
966.661	14.2707
968.323	14.8224
969.985	16.4038
971.649	19.138
973.31	23.3084
974.971	27.1424
976.632	31.8437
978.293	35.7498
979.953	40.4102
981.615	45.4475
983.274	48.8903
984.933	53.6322
986.592	57.7306
988.251	60.6446
989.909	63.7409
991.567	66.8751
993.225	70.1429
994.884	72.375
996.541	74.7242
998.198	76.9916
999.855	79.2694
1001.51	81.4552
1003.17	82.7705
1004.82	82.0383
1006.48	81.7412
1008.13	80.2286
1009.79	79.7819
1011.44	79.2075
1013.1	76.9253
1014.75	77.1004
1016.4	76.5925
1018.06	76.1441
1019.71	76.6113
1021.36	78.2253
1023.01	79.057
1024.66	79.1275
1026.32	78.6233
1027.97	80.0045
1029.62	79.6354
1031.27	80.4687
1032.92	80.9373
1034.57	79.0428
1036.22	77.4693
1037.87	77.2537
1039.52	76.8593
1041.16	75.8346
1042.81	76.3764
1044.46	76.8942
1046.11	78.3755
1047.76	79.1302
1049.4	78.7696
1051.05	80.1083
1052.7	81.2337
1054.34	81.9768
1055.99	82.4312
1057.63	82.6713
1059.28	81.2564
1060.92	79.6577
1062.57	77.9629
1064.21	75.7502
1065.85	72.3474
1067.5	70.0296
1069.14	66.8055
1070.78	63.672
1072.43	60.4323
1074.07	56.8941
1075.71	53.0535
1077.35	48.8829
1078.99	44.6585
1080.63	40.746
1082.27	35.4409
1083.91	31.1667
1085.55	26.3009
1087.19	21.2552
1088.83	18.9601
1090.47	16.0479
1092.11	14.6596
1093.75	13.9946
1095.39	13.416
1097.03	14.9672
1098.66	16.4102
1100.3	16.3446
1101.94	17.885
1103.57	19.8246
1105.21	19.3158
1106.84	18.9787
1108.48	18.911
1110.11	19.2072
1111.75	18.0305
1113.38	18.8354
1115.02	17.4938
1116.65	15.6866
1118.29	15.4821
1119.92	15.5765
1121.55	14.7518
1123.19	15.5096
1124.82	16.5331
1126.45	17.1618
1128.08	17.6287
1129.71	16.9467
1131.34	16.7245
1132.97	16.73
1134.6	16.3052
1136.23	16.0633
1137.86	16.1254
1139.49	16.1144
1141.12	15.4478
1142.75	15.0176
1144.38	14.1446
1146.01	13.0975
1147.64	12.1187
1149.26	11.878
1150.89	11.0972
1152.52	11.2524
1154.15	10.8579
1155.77	10.5344
1157.4	9.98485
1159.02	9.37802
1160.65	8.23633
1162.27	8.09986
1163.9	6.94022
1165.52	7.5029
1167.15	7.42118
1168.77	7.62989
1170.39	9.48732
1172.02	10.775
1173.64	11.5726
1175.26	12.3192
1176.89	11.7681
1178.51	12.5394
1180.13	12.3653
1181.75	12.1244
1183.37	12.4992
1184.99	11.9675
1186.61	11.2153
1188.23	13.0964
1189.85	13.6701
1191.47	14.1029
1193.09	15.022
1194.71	16.8789
1196.33	17.9837
1197.94	19.4287
1199.56	20.7225
1201.18	23.3543
1202.8	26.1295
1204.41	28.4937
1206.03	30.8539
1207.65	32.9138
1209.26	34.7987
1210.88	36.8739
1212.49	40.1408
1214.11	42.5905
1215.72	45.1246
1217.34	48.016
1218.95	50.1916
1220.57	52.4369
1222.18	54.3531
1223.79	55.9416
1225.41	58.2974
1227.02	59.4532
1228.63	62.395
1230.24	64.9826
1231.85	67.275
1233.47	68.5571
1235.08	69.459
1236.69	70.3573
1238.3	70.7298
1239.91	72.1727
1241.52	73.0883
1243.13	74.7123
1244.74	75.6655
1246.34	76.2949
1247.95	76.8677
1249.56	77.6581
1251.17	78.148
1252.78	78.5374
1254.38	76.5767
1255.99	75.978
1257.6	74.6053
1259.2	74.7517
1260.81	74.8203
1262.42	74.3522
1264.02	72.7254
1265.63	71.832
1267.23	72.503
1268.84	72.5165
1270.44	71.0469
1272.04	71.133
1273.65	70.4336
1275.25	70.2928
1276.85	69.9919
1278.46	69.7452
1280.06	69.8254
1281.66	71.1201
1283.26	71.5506
1284.86	72.3605
1286.46	74.8868
1288.07	76.2536
1289.67	77.3298
1291.27	78.8358
1292.87	80.8582
1294.47	82.2904
1296.06	84.7981
1297.66	87.0801
1299.26	88.5724
1300.86	90.7485
1302.46	91.8045
1304.06	93.0683
1305.65	94.1993
1307.25	95.0463
1308.85	97.18
1310.44	97.9538
1312.04	98.4616
1313.64	98.8161
1315.23	100.989
1316.83	101.221
1318.42	102.27
1320.02	103.236
1321.61	102.597
1323.2	103.408
1324.8	102.397
1326.39	102.108
1327.99	101.983
1329.58	101.262
1331.17	99.6915
1332.76	98.4917
1334.36	97.2809
1335.95	95.9958
1337.54	94.3818
1339.13	94.0974
1340.72	92.6386
1342.31	89.9198
1343.9	87.3657
1345.49	86.1633
1347.08	84.6803
1348.67	83.4532
1350.26	81.7953
1351.85	80.2892
1353.43	78.5498
1355.02	77.6902
1356.61	76.1865
1358.2	75.0509
1359.78	72.9167
1361.37	72.2161
1362.96	70.8925
1364.54	69.5208
1366.13	68.104
1367.71	66.7149
1369.3	65.975
1370.88	66.1012
1372.47	64.5258
1374.05	63.7211
1375.64	63.944
1377.22	63.7968
1378.8	62.3503
1380.39	61.473
1381.97	60.1757
1383.55	60.7689
1385.13	60.0306
1386.72	59.7449
1388.3	60.4081
1389.88	59.9273
1391.46	59.7775
1393.04	59.9028
1394.62	59.7113
1396.2	59.713
1397.78	59.3393
1399.36	58.9959
1400.94	60.16
1402.52	61.5153
1404.1	61.6939
1405.68	63.1294
1407.25	64.9369
1408.83	66.4882
1410.41	68.4072
1411.98	71.4169
1413.56	74.8434
1415.14	77.8389
1416.71	81.5082
1418.29	83.9644
1419.87	87.0496
1421.44	90.5013
1423.02	95.2914
1424.59	101.722
1426.16	105.826
1427.74	110.581
1429.31	114.143
1430.89	118.75
1432.46	122.292
1434.03	125.037
1435.6	127.143
1437.18	130.729
1438.75	133.075
1440.32	134.774
1441.89	137.285
1443.46	139.299
1445.03	139.993
1446.6	141.123
1448.17	141.869
1449.74	141.518
1451.31	140.237
1452.88	140.425
1454.45	139.342
1456.02	138.002
1457.59	135.469
1459.16	133.288
1460.72	130.977
1462.29	127.753
1463.86	123.921
1465.43	121.072
1466.99	117.082
1468.56	112.044
1470.13	107.727
1471.69	102.592
1473.26	96.8974
1474.82	92.3906
1476.38	86.5999
1477.95	82.295
1479.51	78.5075
1481.08	74.0839
1482.64	69.8202
1484.2	66.3913
1485.77	63.7572
1487.33	60.5577
1488.89	57.9625
1490.46	56.5692
1492.02	54.756
1493.58	51.8319
1495.14	49.2346
1496.7	46.7944
1498.26	46.6274
1499.82	46.0064
1501.38	45.4791
1502.94	44.1919
1504.5	41.48
1506.06	40.6833
1507.62	39.8018
1509.18	39.0023
1510.73	37.4045
1512.29	36.5364
1513.85	36.0511
1515.41	36.9299
1516.96	36.2401
1518.52	36.3074
1520.08	37.7391
1521.63	37.0952
1523.19	36.828
1524.75	38.2994
1526.3	38.3814
1527.85	38.7738
1529.41	38.9821
1530.96	39.8349
1532.52	41.2143
1534.07	42.7632
1535.62	44.1298
1537.18	45.0332
1538.73	46.7078
1540.28	47.5899
1541.84	48.929
1543.39	49.6437
1544.94	49.7389
1546.49	50.5968
1548.04	51.2881
1549.59	52.8228
1551.14	53.11
1552.69	55.091
1554.25	54.5421
1555.79	56.512
1557.34	57.8051
1558.89	58.4587
1560.44	58.7502
1561.99	60.101
1563.54	61.8049
1565.08	62.9501
1566.63	64.2344
1568.18	64.934
1569.73	65.4931
1571.27	65.5109
1572.82	66.5946
1574.37	68.1542
1575.91	69.6955
1577.46	70.4894
1579	70.1932
1580.55	71.2432
1582.09	71.9914
1583.64	72.8578
1585.18	73.9825
1586.73	74.2074
1588.27	75.0342
1589.81	77.1448
1591.35	77.6965
1592.9	78.7198
1594.44	79.7849
1595.98	80.4586
1597.52	79.3873
1599.06	79.5486
1600.61	79.3942
1602.15	79.5459
1603.69	79.1376
1605.23	78.9554
1606.77	79.7741
1608.31	80.3436
1609.85	80.8208
1611.39	81.0966
1612.93	81.3113
1614.46	80.4551
1616	80.1835
1617.54	80.2268
1619.08	79.1453
1620.61	79.3675
1622.15	78.9347
1623.69	78.6496
1625.23	77.6975
1626.76	76.6316
1628.3	75.3209
1629.83	76.1548
1631.37	75.5188
1632.9	76.3273
1634.44	75.5009
1635.97	75.4978
1637.51	76.1865
1639.04	77.9089
1640.57	78.6445
1642.11	79.307
1643.64	80.0933
1645.17	81.1565
1646.71	82.0897
1648.24	82.088
1649.77	84.2156
1651.3	85.037
1652.83	85.2325
1654.36	85.7981
1655.89	85.9014
1657.42	86.9431
1658.96	86.6166
1660.48	86.4262
1662.01	85.5839
1663.54	84.2083
1665.07	83.4443
1666.6	82.6456
1668.13	80.0685
1669.66	79.749
1671.19	78.5157
1672.71	76.317
1674.24	74.0461
1675.77	72.6972
1677.29	69.7006
1678.82	67.6007
1680.35	65.3423
1681.87	63.6116
1683.4	62.5428
1684.92	60.1161
1686.45	58.2407
1687.97	55.8388
1689.5	52.7109
1691.02	49.7576
1692.54	47.2481
1694.07	45.0771
1695.59	42.1808
1697.11	40.4097
1698.64	36.7641
1700.16	34.95
1701.68	32.9802
1703.2	31.8896
1704.72	31.1418
1706.25	28.3792
1707.77	25.908
1709.29	24.0865
1710.81	21.8799
1712.33	18.6931
1713.85	15.2864
1715.37	14.4242
1716.89	13.7252
1718.41	14.3298
1719.92	13.7643
1721.44	13.6744
1722.96	13.6526
1724.48	14.5498
1725.99	15.5904
1727.51	15.4784
1729.03	16.5856
1730.55	16.8846
1732.06	16.5482
1733.58	16.2387
1735.09	15.4441
1736.61	15.3471
1738.13	14.8631
1739.64	15.308
1741.15	15.4138
1742.67	16.0869
1744.18	16.1197
1745.7	17.2073
1747.21	16.4002
1748.72	16.753
1750.24	16.4106
1751.75	17.0275
1753.26	16.9802
1754.77	17.6175
1756.29	17.9051
1757.8	17.6371
1759.31	17.1461
1760.82	17.0953
1762.33	16.8153
1763.84	16.2054
1765.35	15.8346
1766.86	15.9134
1768.37	15.7409
1769.88	15.5138
1771.39	15.5114
1772.9	14.7417
1774.4	13.8297
1775.91	13.9118
1777.42	12.7529
1778.93	11.1277
1780.44	9.32209
1781.94	7.2001
1783.45	6.39747
1784.96	5.0801
1786.46	3.26921
1787.97	2.22321
1789.47	2.6367
1790.98	4.72301
1792.48	5.25039
1793.99	5.23394
1795.49	4.70577
1797	4.97074
1798.5	5.49388
1800.01	5.53189
1801.51	6.54926
1803.01	6.22786
1804.51	5.54499
1806.02	5.03396
1807.52	4.75067
1809.02	4.28011
1810.52	3.82905
1812.02	3.57678
1813.52	3.16744
1815.02	3.20683
1816.53	2.33421
1818.03	2.0191
1819.52	1.67276
1821.02	1.79245
1822.52	1.48447
1824.02	2.15287
1825.52	1.71078
1827.02	1.82689
1828.52	0.879299
1830.02	1.0122
1831.51	1.72672
1833.01	1.99854
1834.51	2.4228
1836.01	2.9993
1837.5	3.7035
1839	4.2335
1840.49	4.7535
1841.99	5.30468
1843.49	5.6172
1844.98	6.12379
1846.48	6.81243
1847.97	7.31458
1849.47	7.93933
1850.96	8.39295
1852.45	8.7148
1853.95	9.19523
1855.44	9.3253
1856.93	8.93849
1858.42	9.56601
1859.92	9.63584
1861.41	9.18347
1862.9	10.0365
1864.39	10.646
1865.88	11.3241
1867.38	12.1955
1868.87	12.6408
1870.36	13.5398
1871.85	13.8779
1873.34	14.791
1874.83	15.131
1876.32	15.3196
1877.81	14.105
1879.29	14.1131
1880.78	14.7963
1882.27	14.1139
1882.53	13.5325
1884.03	14.0706
1885.52	14.0618
1887.01	14.0187
1888.51	13.6612
1890	12.7625
1891.5	13.2446
1892.99	13.5631
1894.48	13.9218
1895.97	14.208
1897.47	13.9498
1898.96	13.5097
1900.45	12.9939
1901.94	12.7851
1903.43	11.9552
1904.92	11.4934
1906.41	11.1542
1907.9	10.7116
1909.39	10.0325
1910.88	9.17968
1912.37	8.35021
1913.86	8.03404
1915.35	7.68217
1916.84	7.58189
1918.33	6.78266
1919.81	6.92108
1921.3	6.58068
1922.79	6.17928
1924.28	6.20748
1925.76	5.70334
1927.25	4.72875
1928.73	4.79336
1930.22	5.20489
1931.71	5.13683
1933.19	4.11436
1934.68	4.6991
1936.16	5.54143
1937.65	6.36955
1939.13	5.68377
1940.62	5.88248
1942.1	6.07517
1943.58	6.5817
1945.07	6.80143
1946.55	7.15665
1948.03	7.31158
1949.51	6.57646
1951	6.93483
1952.48	7.11366
1953.96	7.03714
1955.44	6.80566
1956.92	7.0015
1958.4	7.06122
1959.88	6.04993
1961.36	6.36065
1962.84	6.47275
1964.32	6.84623
1965.8	7.92305
1967.28	7.88123
1968.76	8.58973
1970.24	8.56724
1971.72	8.50991
1973.2	8.20363
1974.67	8.31208
1976.15	8.49338
1977.63	8.1691
1979.1	9.09454
1980.58	8.80714
1982.06	7.92681
1983.54	7.33315
1985.01	7.90972
1986.49	7.90229
1987.96	8.08883
1989.44	7.63425
1990.91	7.25963
1992.39	7.66972
1993.86	7.64318
1995.33	7.31217
1996.81	7.71313
1998.28	8.19863
1999.75	7.97714
2001.23	7.80578
2002.7	8.51952
2004.17	7.92545
2005.65	7.20779
2007.12	7.54577
2008.59	8.50235
2010.06	7.81825
2011.53	7.57879
2013	6.75427
2014.47	6.93669
2015.94	7.50924
2017.41	7.52889
2018.88	6.99011
2020.35	5.87659
2021.82	5.53796
2023.29	4.91418
2024.76	4.65208
2026.23	3.79888
2027.69	3.51668
2029.16	4.29016
2030.63	4.26868
2032.1	4.77319
2033.56	5.84383
2035.03	6.41817
2036.5	7.00724
2037.96	8.43782
2039.43	8.83393
2040.89	8.59987
2042.36	9.18801
2043.83	8.58674
2045.29	9.64888
2046.75	9.58532
2048.22	10.8139
2049.68	11.0685
2051.15	10.6599
2052.61	10.7133
2054.07	9.92507
2055.54	10.3886
2057	10.5428
2058.46	11.0797
2059.92	10.9533
2061.39	12.2957
2062.85	12.811
2064.31	13.2667
2065.77	13.7975
2067.23	12.9508
2068.69	14.1104
2070.15	14.1403
2071.61	14.5649
2073.07	13.8226
2074.53	12.9596
2075.99	12.7447
2077.45	12.3354
2078.91	12.1562
2080.37	12.5613
2081.82	12.7158
2083.28	11.851
2084.74	11.9223
2086.2	11.6675
2087.65	12.122
2089.11	12.4679
2090.57	11.4707
2092.02	10.2641
2093.48	10.1292
2094.94	10.5516
2096.39	10.3521
2097.85	10.5511
2099.3	10.5851
2100.76	11.0859
2102.21	11.4292
2103.66	10.9702
2105.12	10.9087
2106.57	10.4255
2108.03	9.58632
2109.48	9.8629
2110.93	9.35948
2112.38	8.10507
2113.84	7.25514
2115.29	7.52571
2116.74	7.43309
2118.19	8.32419
2119.64	7.24874
2121.09	7.34394
2122.54	6.54215
2123.99	5.83648
2125.45	5.49413
2126.89	5.0074
2128.34	4.96621
2129.79	4.25453
2131.24	4.24667
2132.69	4.10398
2134.14	3.95916
2135.59	2.85469
2137.04	2.31035
2138.48	3.36408
2139.93	3.45114
2141.38	3.31178
2142.83	2.81233
2144.27	3.82373
2145.72	3.24278
2147.17	3.471
2148.61	3.44217
2150.06	4.55416
2151.5	4.74239
2152.95	5.34039
2154.39	5.46191
2155.84	6.02141
2157.28	6.68401
2158.73	7.24088
2160.17	7.73125
2161.61	7.44262
2163.06	7.2404
2164.5	7.53422
2165.94	7.69069
2167.38	7.74391
2168.83	8.11796
2170.27	8.18659
2171.71	7.86229
2173.15	7.97538
2174.59	8.06529
2176.03	8.02193
2177.47	7.36171
2178.91	6.77461
2180.36	6.54105
2181.8	6.80921
2183.23	7.29482
2184.67	7.57753
2186.11	7.30431
2187.55	7.32434
2188.99	7.66955
2190.43	7.35806
2191.87	6.81185
2193.3	5.89515
2194.74	5.74637
2196.18	5.99677
2197.62	5.97302
2199.05	5.56781
2200.49	5.53917
2201.93	5.67272
2203.36	6.49572
2204.8	6.70205
2206.23	7.12531
2207.67	7.97901
2209.1	8.59242
2210.54	9.47679
2211.97	9.43742
2213.41	9.26783
2214.84	10.0484
2216.27	9.98316
2217.71	9.42185
2219.14	9.86482
2220.57	9.38251
2222.01	10.2508
2223.44	9.73206
2224.87	10.1715
2226.3	10.2523
2227.73	10.2673
2229.16	10.2029
2230.6	9.76107
2232.03	10.1643
2233.46	10.828
2234.89	10.4805
2236.32	9.74468
2237.75	9.34408
2239.18	10.1744
2240.61	10.3397
2242.03	9.28909
2243.46	8.71695
2244.89	8.96326
2246.32	8.99436
2247.75	8.50201
2249.17	7.51575
2250.6	7.82161
2252.03	8.34166
2253.46	8.51052
2254.88	8.2514
2256.31	7.20057
2257.73	7.13472
2259.16	7.0834
2260.59	7.79948
2262.01	6.45936
2263.44	6.33717
2264.86	5.97658
2266.29	5.85024
2267.71	5.97254
2269.14	4.82887
2270.56	4.32735
2271.98	4.46639
2273.4	4.35116
2274.83	4.26847
2276.25	3.50324
2277.67	3.32521
2279.09	3.40121
2280.52	3.11585
2281.94	3.8376
2283.36	3.95916
2284.78	3.02626
2286.2	2.8071
2287.62	1.9233
2289.04	1.94563
2290.46	1.40562
2291.88	0.430951
2293.3	0.576653
2294.72	0.701604
2296.14	1.70118
2297.56	2.05044
2298.98	3.18287
2300.4	3.78029
2301.82	4.41784
2303.23	4.98046
2304.65	4.48997
2306.07	4.9045
2307.49	4.67718
2308.9	5.55036
2310.32	5.86585
2311.73	5.52018
2313.15	5.36633
2314.57	5.9778
2315.98	6.23774
2317.4	6.61186
2318.81	6.87301
2320.23	7.29838
2321.64	8.00153
2323.06	8.31221
2324.47	8.26511
2325.88	7.44396
2327.3	7.63155
2328.71	7.81383
2330.12	7.86363
2331.54	7.93269
2332.95	6.71467
2334.36	6.72398
2335.77	5.493
2337.18	4.4105
2338.6	4.63147
2340.01	3.84012
2341.42	3.72067
2342.83	3.68559
2344.24	3.66219
2345.65	4.06813
2347.06	3.91491
2348.47	4.43258
2349.88	5.06626
2351.29	5.04721
2352.7	4.95277
2354.1	4.04138
2355.51	3.08678
2356.92	3.0234
2358.33	2.70228
2359.74	3.05127
2361.14	2.98728
2362.55	3.4891
2363.96	4.0239
2365.36	5.32073
2366.77	5.6162
2368.18	5.51084
2369.58	5.71187
2370.99	6.28571
2372.39	6.50112
2373.8	6.83254
2375.2	7.3283
2376.61	8.79896
2378.01	9.06805
2379.42	9.3318
2380.82	9.39518
2382.22	9.87832
2383.63	10.0923
2385.03	10.4022
2386.43	10.3043
2387.84	11.2652
2389.24	11.0749
2390.64	10.9908
2392.04	11.4259
2393.44	11.4564
2394.84	11.182
2396.25	10.4402
2397.65	10.4646
2399.05	9.38669
2400.45	8.80593
2401.85	7.34669
2403.25	7.10862
2404.65	6.46319
2406.05	6.41041
2407.45	6.84479
2408.84	6.91188
2410.24	7.36118
2411.64	7.53805
2413.04	7.90012
2414.44	7.53104
2415.83	7.39239
2417.23	6.89696
2418.63	6.10572
2420.02	5.22547
2421.42	4.81178
2422.82	5.22053
2424.21	5.12449
2425.61	5.20189
2427	5.82832
2428.4	5.31106
2429.8	5.63928
2431.19	5.67619
2432.58	5.46407
2433.98	5.18787
2435.37	5.22978
2436.77	4.92393
2438.16	5.14503
2439.55	5.8145
2440.95	6.66972
2442.34	6.37017
2443.73	6.50222
2445.12	6.2743
2446.51	6.42205
2447.91	5.6297
2449.3	4.96059
2450.69	4.90997
2452.08	4.38383
2453.47	4.2067
2454.86	4.32638
2456.25	4.51707
2457.64	5.81042
2459.03	5.34033
2460.42	5.85017
2461.81	5.85939
2463.2	5.81266
2464.59	4.85839
2465.98	3.58362
2467.36	2.92453
2468.75	2.89328
2470.14	3.91409
2471.53	3.91881
2472.92	4.74968
2474.3	4.34734
2475.69	4.67336
2477.08	4.47965
2478.46	4.61702
2479.85	4.18932
2481.23	3.60335
2482.62	3.54595
2484	3.50608
2485.39	3.80047
2486.77	3.77018
2488.16	3.15946
2489.54	4.44781
2490.93	5.22602
2492.31	4.80306
2493.69	4.18277
2495.08	3.6762
2496.46	3.64
2497.84	3.44886
2499.23	3.32056
2500.61	2.65137
2501.99	2.09317
2503.37	1.83981
2504.75	1.73068
2506.13	2.23032
2507.52	1.44509
2508.9	1.25272
2510.28	0.528574
2511.66	-0.207592
2513.04	-0.645209
2514.42	-0.188488
2515.8	-0.700633
2517.18	-0.514403
2518.55	-0.483608
2519.93	-0.930907
2521.31	-0.652167
2522.69	0.568609
2524.07	1.52159
2525.45	1.67893
2526.82	2.10027
2528.2	2.06471
2529.58	2.70271
2530.95	2.59634
2532.33	2.45836
2533.71	2.17462
2535.08	2.76279
2536.46	3.2502
2537.84	4.33821
2539.21	4.91644
2540.59	5.36705
2541.96	6.32713
2543.34	6.74597
2544.71	7.42066
2546.08	8.23111
2547.46	8.74316
2548.83	8.60242
2550.2	9.17903
2551.58	9.93277
2552.95	10.3442
2554.32	10.2116
2555.7	9.97652
2557.07	9.8173
2558.44	10.2604
2559.81	9.85269
2561.18	9.62966
2562.55	10.2324
2563.93	10.1233
2565.3	9.97492
2566.67	9.91389
2568.04	9.31402
2569.41	8.57248
2570.78	8.85597
2572.15	8.4118
2573.51	7.98191
2574.88	7.39565
2576.25	6.56623
2577.62	6.85768
2578.99	6.97109
2580.36	6.51123
2581.73	6.83723
2583.09	7.29556
2584.46	6.53197
2585.83	6.81739
2587.19	6.09295
2588.56	6.06147
2589.93	6.88337
2591.29	6.78647
2592.66	5.84647
2594.02	5.01142
2595.39	4.7217
2596.75	4.34299
2598.12	3.80053
2599.48	3.87756
2600.85	4.03102
2602.21	4.22307
2603.58	4.21059
2604.94	5.00978
2606.3	5.59235
2607.67	5.14595
2609.03	5.28075
2610.39	5.89059
2611.76	6.04801
2613.12	6.36645
2614.48	6.68806
2615.84	6.74006
2617.2	6.39066
2618.56	6.76962
2619.92	6.73343
2621.28	6.3367
2622.65	5.84243
2624.01	5.92246
2625.37	5.96808
2626.72	6.594
2628.08	7.5234
2629.44	7.76646
2630.8	7.93393
2632.16	7.95008
2633.52	8.03011
2634.88	8.64631
2636.24	8.56474
2637.59	8.21065
2638.95	8.92056
2640.31	8.62605
2641.67	9.01519
2643.02	9.40475
2644.38	9.82366
2645.74	10.4952
2647.09	10.9756
2648.45	10.4003
2649.8	10.1482
2651.16	10.369
2652.51	9.87795
2653.87	9.98908
2655.22	9.78975
2656.58	9.79303
2657.93	9.72413
2659.29	8.97153
2660.64	8.50601
2661.99	9.10585
2663.35	9.13773
2664.7	9.41191
2666.05	9.96109
2667.41	10.3191
2668.76	10.2377
2670.11	10.5953
2671.46	11.2019
2672.81	12.2425
2674.16	11.4959
2675.51	10.8807
2676.87	11.5147
2678.22	12.5452
2679.57	12.0494
2680.92	11.5871
2682.27	11.0503
2683.62	10.6159
2684.97	10.3821
2686.31	10.2974
2687.66	9.87636
2689.01	10.0846
2690.36	10.4938
2691.71	10.6321
2693.06	10.9927
2694.4	12.2416
2695.75	12.3902
2697.1	12.1294
2698.45	12.3949
2699.79	12.2017
2701.14	12.5211
2702.49	12.1816
2703.83	11.2103
2705.18	11.3404
2706.52	11.6787
2707.87	11.3328
2709.21	11.5611
2710.56	11.5817
2711.9	11.5622
2713.25	11.7685
2714.59	11.3223
2715.94	11.3669
2717.28	11.615
2718.62	12.5532
2719.97	13.447
2721.31	13.5502
2722.65	13.4615
2723.99	13.0387
2725.34	13.2396
2726.68	12.8966
2728.02	12.608
2729.36	13.1332
2730.7	12.2864
2732.04	12.1325
2733.39	12.3596
2734.73	11.8113
2736.07	11.7311
2737.41	11.8579
2738.75	11.478
2740.08	11.2881
2741.43	10.4346
2742.76	10.5896
2744.1	10.8246
2745.44	10.7561
2746.78	9.72811
2748.12	9.42318
2749.46	9.83841
2750.79	10.1545
2752.13	9.96167
2753.47	8.83213
2754.81	9.00841
2756.14	9.04485
2757.48	8.9585
2758.81	8.65195
2760.15	8.44101
2761.49	8.57642
2762.82	7.63328
2764.16	7.11269
2765.49	6.32848
2766.83	5.40727
2768.16	4.78678
2769.5	4.33647
2770.83	3.63936
2772.16	3.88598
2773.5	3.29772
2774.83	3.44099
2776.17	3.81614
2777.5	3.11056
2778.83	2.59302
2780.16	3.09993
2781.5	3.33302
2782.83	3.85744
2784.16	4.13581
2785.49	3.97835
2786.82	3.74958
2788.15	2.31982
2789.49	2.51033
2790.82	2.39336
2792.15	2.27443
2793.48	1.95058
2794.81	1.30764
2796.14	0.815739
2797.46	0.390978
2798.79	0.115777
2800.12	0.535301
2801.45	0.34253
2802.78	0.473468
2804.11	0.407788
2805.44	0.541214
2806.76	0.653175
2808.09	0.438909
2809.42	0.573465
2810.75	-0.0322424
2812.07	-0.573716
2813.4	-0.862254
2814.73	-0.461466
2816.05	0.441387
2817.38	1.00285
2818.7	1.1515
2820.03	2.76279
2821.36	5.56071
2822.68	6.62339
2824.01	8.51059
2825.33	10.9585
2826.65	13.0604
2827.98	16.1495
2829.3	17.9865
2830.63	19.1153
2831.95	21.0222
2833.27	23.3049
2834.6	26.1364
2835.92	29.1198
2837.24	31.3682
2838.56	34.5624
2839.88	38.1886
2841.21	42.5348
2842.53	45.4443
2843.85	49.6901
2845.17	54.2724
2846.49	58.8656
2847.81	63.2029
2849.13	68.5826
2850.45	73.6592
2851.77	77.7916
2853.09	83.4774
2854.41	88.2001
2855.73	92.9039
2857.05	97.0578
2858.37	101.456
2859.69	105.66
2861	109.428
2862.32	113.768
2863.64	118.553
2864.96	121.35
2866.28	125.919
2867.59	128.587
2868.91	131.383
2870.23	134.904
2871.54	137.825
2872.86	139.67
2874.17	141.77
2875.49	144.088
2876.81	145.93
2878.12	147.674
2879.44	150.482
2880.75	152.738
2882.07	155.016
2883.38	156.867
2884.69	159.092
2886.01	161.803
2887.32	164.125
2888.63	165.65
2889.95	167.571
2891.26	169.707
2892.57	169.92
2893.89	171.026
2895.2	171.774
2896.51	173.168
2897.82	175.872
2899.13	179.007
2900.44	182.269
2901.76	184.726
2903.07	187.391
2904.38	190.668
2905.69	195.446
2907	199.1
2908.31	203.4
2909.62	208.593
2910.93	212.265
2912.24	216.66
2913.55	221.169
2914.85	226.503
2916.16	230.101
2917.47	233.68
2918.78	237.319
2920.09	239.809
2921.4	242.268
2922.7	245.038
2924.01	247.059
2925.32	248.442
2926.62	249.602
2927.93	250.703
2929.24	250.046
2930.54	248.772
2931.85	248.27
2933.15	246.676
2934.46	245.385
2935.76	243.601
2937.07	240.945
2938.37	237.242
2939.68	234.38
2940.98	231.507
2942.29	227.613
2943.59	223.065
2944.89	219.627
2946.2	215.635
2947.5	211.143
2948.8	206.948
2950.11	201.989
2951.41	196.739
2952.71	192.02
2954.01	185.838
2955.32	181.051
2956.62	176.526
2957.92	171.006
2959.22	167.298
2960.52	163.858
2961.82	159.713
2963.12	155.734
2964.42	151.251
2965.72	147.062
2967.02	142.746
2968.32	139.216
2969.62	135.622
2970.92	132.415
2972.22	128.58
2973.51	125.1
2974.81	120.843
2976.11	116.305
2977.41	112.889
2978.71	109.537
2980	105.495
2981.3	100.02
2982.6	95.9004
2983.9	91.5412
2985.19	86.7903
2986.49	82.5431
2987.78	78.3853
2989.08	73.9526
2990.38	69.9577
2991.67	65.8844
2992.97	61.3777
2994.26	56.5652
2995.56	52.8124
2996.85	48.9691
2998.14	45.8862
2999.44	42.5866
3000.73	38.9532
3002.03	35.422
3003.32	31.5052
3004.61	29.1431
3005.91	26.9758
3007.2	23.3365
3008.49	20.9142
3009.78	18.8979
3011.07	15.3458
3012.37	12.4992
3013.66	10.4822
3014.95	8.22516
3016.24	6.96848
3017.53	5.87848
3018.82	5.03095
3020.11	5.4812
3021.4	4.62105
3022.69	3.84468
3023.98	3.68035
3025.27	3.00097
3026.56	1.53139
3027.85	1.12966
3029.14	0.618641
3030.43	1.46225
3031.71	1.58733
3033	1.33851
3034.29	0.500737
3035.58	0.89013
3036.87	0.587586
3038.15	-0.0500613
3039.44	0.0899692
3040.73	0.280575
3042.01	1.1413
3043.3	1.64468
3044.59	1.13748
3045.87	1.82679
3047.16	2.91654
3048.44	3.10049
3049.73	3.56448
3051.01	4.02648
3052.3	4.52225
3053.58	5.61414
3054.87	5.87616
3056.15	5.75949
3057.43	5.64844
3058.72	5.40672
3060	5.0611
3061.29	5.34923
3062.57	5.12127
3063.85	5.0026
3065.13	4.24681
3066.42	4.05878
3067.7	4.40967
3068.98	4.97896
3070.26	4.97709
3071.54	4.16828
3072.82	3.75072
3074.11	2.80395
3075.39	2.77475
3076.67	3.86072
3077.95	3.75944
3079.23	3.51566
3080.51	3.58681
3081.79	3.33853
3083.07	3.54212
3084.35	3.58159
3085.63	2.64266
3086.9	2.02719
3088.18	2.1069
3089.46	1.95607
3090.74	2.00858
3092.02	3.07454
3093.29	3.86512
3094.57	4.57647
3095.85	4.90296
3097.13	4.99132
3098.4	5.43436
3099.68	6.11401
3100.95	6.57073
3102.23	7.99817
3103.51	9.02325
3104.78	10.2258
3106.06	11.0222
3107.33	11.6345
3108.61	12.677
3109.88	14.1168
3111.16	15.5647
3112.43	17.1531
3113.71	18.5227
3114.98	19.335
3116.25	21.2681
3117.53	22.7212
3118.8	23.1343
3120.07	24.2877
3121.35	25.1967
3122.62	26.2778
3123.89	27.7667
3125.16	29.4114
3126.44	30.4348
3127.71	32.2093
3128.98	33.349
3130.25	34.9534
3131.52	36.4973
3132.79	37.4709
3134.06	38.2556
3135.33	38.605
3136.6	39.2861
3137.87	40.2588
3139.14	41.1575
3140.41	40.9703
3141.68	40.862
3142.95	41.1146
3144.22	41.4168
3145.49	41.6578
3146.76	41.4309
3148.02	41.1146
3149.29	42.0314
