#Acq. time (s)=	45
#Accumulations=	2
#Range (cm-¹)=	200...3150
#Windows=	2
#Auto scanning=	Off
#Autofocus=	Off
#Macrospot=	Off
#AutoExposure=	Off
#Spike filter=	Multiple accum.
#Delay time (s)=	0
#Binning=	1
#Readout mode=	Signal
#DeNoise=	Off
#ICS correction=	On
#Dark correction=	Off
#Inst. Process=	Off
#Detector Gain=	Best Dynamic Range
#Detector ADC=	20 kHz       
#Detector temperature (°C)=	-69.85
#Instrument=	LabRAM HR Evol
#Detector=	Synapse
#Objective=	x100
#Grating=	600 gr/mm
#ND Filter=	100%
#Laser (nm)=	532 
#Hole=	100.021
#Range=	Auto
#Laser Pol.=	No
#Raman. Pol.=	No
#Laser Pol. (°)=	-0.0007625
#Raman Pol. (°)=	89.9995
#Collection=	Microscope
#StageXY=	Marzhauser
#StageZ=	Marzhauser
#X (µm)=	-994.5
#Y (µm)=	-2944.9
#Z (µm)=	527.85
#Full time(mm:ss)=	3:18
#Project=	
#Sample=	
#Site=	
#Title=	Mb_00_13_08_2x_45s_532 nm_x100_100%_600 gr_mm
#Remark=	
#Date=	06.07.2022 10:13
#Acquired=	06.07.2022 10:13:48
#Base:Fit=	10.08.2022 10:16:36
#Base:Fit=	10.08.2022 10:16:56
#Base:Sub=	10.08.2022 10:17:24
#Filter:Polynom=	16.08.2022 10:36:38
#AxisType[0]=Intens
#AxisUnit[0]=Cnt
#AxisType[1]=Spectr
#AxisUnit[1]=1/cm
200.398	47.7999
202.213	38.3329
204.027	30.9774
205.843	23.1262
207.657	16.0822
209.47	9.8751
211.283	4.83113
213.097	1.16217
214.909	-0.742281
216.721	0.542779
218.533	3.58822
220.344	9.02569
222.157	13.7834
223.967	22.0694
225.777	30.1399
227.587	38.094
229.396	46.2569
231.205	54.5033
233.016	63.6099
234.824	71.7801
236.632	80.2783
238.439	88.0954
240.247	94.4947
242.053	101.056
243.86	107.724
245.666	112.39
247.474	118.96
249.279	126.5
251.085	131.992
252.889	136.717
254.694	140.197
256.498	144.784
258.301	147.672
260.105	150.432
261.908	151.589
263.71	152.071
265.513	150.743
267.315	149.581
269.116	148.392
270.918	146.49
272.718	143.406
274.519	136.811
276.319	131.024
278.119	123.425
279.918	117.036
281.718	109.936
283.516	102.939
285.315	94.8366
287.113	85.0141
288.911	77.1327
290.708	69.1733
292.505	62.0764
294.302	54.7131
296.098	48.2492
297.894	42.3536
299.69	37.3362
301.485	33.1228
303.278	29.3388
305.073	26.5007
306.867	24.4545
308.661	23.006
310.454	21.2712
312.247	19.0869
314.04	18.4944
315.833	15.9771
317.623	14.8746
319.415	13.6051
321.206	13.5396
322.997	13.7389
324.788	12.8647
326.579	11.6455
328.367	10.4538
330.156	10.5918
331.946	10.8738
333.735	10.8651
335.523	9.71084
337.31	8.74141
339.098	8.53071
340.885	7.59007
342.673	7.4507
344.458	6.49812
346.244	7.51562
348.03	6.38637
349.816	6.79218
351.6	6.80418
353.385	6.78539
355.17	6.36392
356.953	6.90322
358.737	6.85031
360.521	7.37583
362.304	8.08775
364.085	8.70494
365.868	11.9929
367.65	13.3207
369.431	16.8149
371.212	19.8613
372.994	22.7258
374.773	26.6095
376.554	30.6666
378.332	35.4396
380.112	40.3645
381.892	46.2875
383.669	53.6867
385.448	61.7683
387.225	70.0257
389.003	77.3136
390.781	84.7658
392.557	92.1184
394.334	99.4403
396.109	105.3
397.885	111.362
399.66	115.407
401.436	119.985
403.211	122.739
404.984	125.754
406.759	127.675
408.532	129.5
410.306	131.215
412.078	131.092
413.851	131.034
415.623	130.369
417.395	130.348
419.166	128.09
420.938	124.774
422.708	121.333
424.477	116.981
426.248	111.503
428.017	106.043
429.788	101.128
431.556	94.6539
433.326	89.2549
435.093	82.6371
436.86	75.0021
438.629	68.4516
440.395	61.5494
442.163	54.0931
443.929	48.2031
445.694	42.1763
447.461	35.9932
449.226	30.3987
450.99	25.1948
452.756	19.8925
454.52	15.8245
456.285	11.0926
458.048	7.69945
459.811	3.89826
461.573	0.166614
463.337	-2.25238
465.099	-2.51981
466.86	-2.15466
468.623	-0.215809
470.384	1.96638
472.144	4.48546
473.906	4.81583
475.666	4.75803
477.425	6.50835
479.184	8.27163
480.944	9.75006
482.703	10.2903
484.461	10.3145
486.218	12.3688
487.975	12.8832
489.734	14.4179
491.491	15.4326
493.247	17.8049
495.003	20.0731
496.759	23.6569
498.516	25.0576
500.271	27.3278
502.025	29.0902
503.779	29.9704
505.533	30.7109
507.287	31.6469
509.042	32.9661
510.795	34.0108
512.547	36.2749
514.299	37.9078
516.051	39.322
517.803	40.7328
519.554	41.5621
521.305	42.552
523.055	43.7326
524.805	44.2851
526.555	44.1991
528.307	43.7817
530.056	44.5562
531.805	45.3963
533.553	45.4836
535.301	45.8268
537.049	45.021
538.797	44.7554
540.544	43.4492
542.291	43.0891
544.037	40.9209
545.783	39.5913
547.529	37.0446
549.275	36.0221
551.02	35.0177
552.765	34.255
554.509	31.3403
556.253	29.8552
557.997	27.4312
559.738	24.9736
561.482	22.1178
563.224	20.6685
564.967	19.6851
566.709	17.5968
568.451	15.71
570.192	12.6854
571.933	11.0403
573.674	10.4377
575.415	7.70484
577.153	6.75314
578.893	7.42297
580.632	6.93044
582.371	6.5352
584.11	4.93245
585.849	3.46732
587.587	2.42973
589.323	0.974699
591.06	-0.132861
592.797	-0.858666
594.534	-0.776573
596.271	-1.85784
598.005	-1.79709
599.741	-1.84083
601.476	-2.56914
603.211	-3.76606
604.944	-2.48164
606.679	-1.1751
608.413	-1.46767
610.147	-0.0647839
611.878	-0.125773
613.611	-0.457726
615.344	0.836851
617.077	3.53158
618.807	4.3935
620.539	4.58504
622.27	4.25867
623.999	3.98647
625.73	6.37517
627.461	8.14759
629.189	9.45477
630.919	10.3024
632.648	11.778
634.376	12.5872
636.105	14.9619
637.833	16.0564
639.559	17.401
641.287	18.9699
643.013	21.2336
644.74	20.8898
646.467	21.2296
648.192	22.3667
649.918	23.494
651.642	24.2581
653.368	24.8575
655.091	25.0795
656.816	24.5508
658.538	24.0885
660.263	24.3047
661.987	24.4561
663.708	25.7163
665.432	26.9332
667.153	24.5916
668.875	23.7107
670.596	23.4811
672.318	22.6603
674.037	21.1026
675.759	19.4599
677.478	19.0613
679.196	19.0528
680.917	19.1875
682.635	17.7157
684.355	16.6243
686.072	16.0822
687.791	16.745
689.508	15.0607
691.224	14.3896
692.942	13.4217
694.658	12.1124
696.376	11.534
698.091	10.7293
699.805	9.87574
701.522	9.97158
703.236	9.23818
704.95	7.4888
706.665	6.73856
708.379	7.09677
710.093	7.59083
711.806	8.59436
713.518	7.09348
715.23	5.21917
716.943	5.07405
718.655	5.88618
720.366	5.73271
722.078	6.53215
723.788	6.57504
725.498	7.23484
727.208	7.03276
728.919	6.87834
730.628	6.0666
732.337	6.1583
734.045	5.90585
735.755	6.32494
737.463	7.57446
739.17	8.34817
740.877	9.73832
742.584	10.2374
744.292	11.8604
745.998	13.4216
747.704	14.2255
749.409	14.8857
751.114	17.5094
752.819	19.4103
754.526	21.2177
756.23	23.4901
757.934	24.9737
759.637	27.7899
761.34	29.3572
763.043	32.404
764.746	33.594
766.448	34.9323
768.152	35.4582
769.853	36.1625
771.554	37.8377
773.255	39.9778
774.956	39.3698
776.656	42.0989
778.356	44.2038
780.056	43.9615
781.755	45.3311
783.454	46.7454
785.153	47.2894
786.851	47.5865
788.549	47.8937
790.247	48.2509
791.944	49.5499
793.641	50.2487
795.338	49.9119
797.034	49.6912
798.73	49.4467
800.426	49.8767
802.121	51.4629
803.817	51.6589
805.511	50.85
807.206	50.3964
808.9	50.3509
810.592	49.6226
812.286	47.9113
813.979	47.6239
815.672	46.6874
817.364	45.9861
819.057	46.7226
820.748	47.0613
822.44	47.0132
824.129	46.3493
825.82	45.514
827.511	44.0791
829.201	43.1644
830.891	41.9355
832.581	42.4508
834.269	43.0407
835.958	43.5266
837.646	42.0331
839.335	41.0087
841.023	41.2303
842.709	39.6019
844.396	37.4144
846.084	35.1238
847.77	34.5949
849.455	34.0413
851.141	33.6298
852.827	32.3991
854.513	30.6217
856.196	29.8244
857.881	29.102
859.566	26.9842
861.248	27.1846
862.932	25.6364
864.616	23.9909
866.297	23.5332
867.98	22.5947
869.663	22.8678
871.343	21.9959
873.026	22.8152
874.707	21.1601
876.387	21.4773
878.068	20.635
879.747	19.4567
881.428	18.9754
883.108	18.8527
884.786	18.4138
886.465	18.5327
888.143	17.2478
889.822	16.4406
891.498	16.1625
893.177	16.6779
894.855	16.0119
896.53	15.9617
898.208	17.0508
899.883	16.3111
901.56	16.1815
903.234	16.346
904.91	15.6407
906.584	15.6066
908.26	14.9552
909.933	15.196
911.608	15.6502
913.28	15.4233
914.955	15.4811
916.627	16.7866
918.298	16.4869
919.972	16.0643
921.643	15.4164
923.315	15.4254
924.986	14.5523
926.656	14.1177
928.328	14.0431
929.997	14.9923
931.668	15.0667
933.337	15.8935
935.006	15.6486
936.676	14.4385
938.344	13.5575
940.012	13.1935
941.681	13.8225
943.348	13.7006
945.014	15.2487
946.683	14.9179
948.349	13.8694
950.015	14.4907
951.682	14.7471
953.347	14.2355
955.012	13.6111
956.676	12.8122
958.343	9.33998
960.006	10.9406
961.67	10.6951
963.333	12.535
964.998	14.615
966.661	17.1003
968.323	18.9377
969.985	20.8042
971.649	22.5217
973.31	24.6388
974.971	27.2131
976.632	29.5016
978.293	31.4021
979.953	32.4591
981.615	33.6007
983.274	33.8504
984.933	34.208
986.592	36.186
988.251	37.2094
989.909	36.9241
991.567	38.4398
993.225	39.6405
994.884	39.4243
996.541	39.543
998.198	40.8686
999.855	40.3423
1001.51	38.3695
1003.17	37.3445
1004.82	36.3876
1006.48	37.0561
1008.13	36.0259
1009.79	36.1117
1011.44	34.8286
1013.1	33.9163
1014.75	34.8643
1016.4	37.5162
1018.06	39.1683
1019.71	42.7743
1021.36	47.4193
1023.01	52.138
1024.66	59.4174
1026.32	64.7114
1027.97	70.1589
1029.62	74.388
1031.27	79.0872
1032.92	85.2387
1034.57	89.2058
1036.22	93.3683
1037.87	98.2333
1039.52	101.372
1041.16	105.85
1042.81	110.955
1044.46	114.216
1046.11	118.291
1047.76	120.885
1049.4	123.747
1051.05	124.921
1052.7	126.934
1054.34	127.704
1055.99	127.065
1057.63	125.847
1059.28	123.097
1060.92	120.322
1062.57	116.65
1064.21	114.148
1065.85	111.317
1067.5	107.238
1069.14	104.047
1070.78	97.5856
1072.43	91.2205
1074.07	86.239
1075.71	78.9874
1077.35	71.2699
1078.99	64.3894
1080.63	55.3293
1082.27	46.4193
1083.91	39.2589
1085.55	32.4615
1087.19	26.1904
1088.83	20.6622
1090.47	13.9452
1092.11	11.2563
1093.75	9.15394
1095.39	7.23413
1097.03	8.57704
1098.66	8.43131
1100.3	7.81536
1101.94	9.61548
1103.57	10.7244
1105.21	10.7318
1106.84	11.3242
1108.48	10.0117
1110.11	9.46659
1111.75	9.57277
1113.38	8.82287
1115.02	7.64571
1116.65	6.45944
1118.29	6.53957
1119.92	5.81637
1121.55	5.01472
1123.19	5.60119
1124.82	5.37235
1126.45	5.75134
1128.08	6.34553
1129.71	7.35201
1131.34	7.06176
1132.97	7.14987
1134.6	7.06364
1136.23	6.32905
1137.86	6.39204
1139.49	7.05424
1141.12	6.8876
1142.75	7.63131
1144.38	7.75393
1146.01	8.89129
1147.64	8.65818
1149.26	7.21462
1150.89	7.07284
1152.52	5.17018
1154.15	4.23038
1155.77	4.03186
1157.4	3.38865
1159.02	2.36468
1160.65	2.24466
1162.27	0.459603
1163.9	1.28813
1165.52	1.93751
1167.15	1.5722
1168.77	3.06645
1170.39	3.61237
1172.02	4.77996
1173.64	6.24397
1175.26	6.88334
1176.89	6.32125
1178.51	7.35867
1180.13	7.90961
1181.75	9.22957
1183.37	11.8771
1184.99	12.0582
1186.61	11.8585
1188.23	13.2459
1189.85	14.6004
1191.47	15.5944
1193.09	17.8697
1194.71	19.2828
1196.33	21.5559
1197.94	25.5965
1199.56	29.7742
1201.18	32.3605
1202.8	35.8382
1204.41	39.0824
1206.03	41.6228
1207.65	44.3324
1209.26	46.3292
1210.88	49.3798
1212.49	51.5449
1214.11	56.6845
1215.72	59.7869
1217.34	63.3149
1218.95	66.3113
1220.57	68.6713
1222.18	69.8371
1223.79	72.265
1225.41	74.7529
1227.02	76.4465
1228.63	77.7088
1230.24	79.2362
1231.85	80.1521
1233.47	82.1678
1235.08	85.0482
1236.69	85.1429
1238.3	86.7449
1239.91	87.6411
1241.52	89.2364
1243.13	89.8394
1244.74	90.6055
1246.34	90.8466
1247.95	90.8789
1249.56	91.906
1251.17	91.2751
1252.78	91.5078
1254.38	90.3456
1255.99	90.5767
1257.6	88.3894
1259.2	87.3204
1260.81	86.3108
1262.42	85.3455
1264.02	83.4713
1265.63	82.5167
1267.23	82.8526
1268.84	82.8441
1270.44	82.4481
1272.04	82.4965
1273.65	83.436
1275.25	83.3122
1276.85	85.2436
1278.46	86.0836
1280.06	87.0609
1281.66	87.2595
1283.26	88.8924
1284.86	90.0057
1286.46	90.582
1288.07	91.2495
1289.67	92.3713
1291.27	95.455
1292.87	96.7939
1294.47	99.9252
1296.06	99.4044
1297.66	100.58
1299.26	101.042
1300.86	103.814
1302.46	105.476
1304.06	108.63
1305.65	110.89
1307.25	112.139
1308.85	115.209
1310.44	118.324
1312.04	121.695
1313.64	125.407
1315.23	125.68
1316.83	125.932
1318.42	128.589
1320.02	128.902
1321.61	129.662
1323.2	129.629
1324.8	129.975
1326.39	130.928
1327.99	130.197
1329.58	129.687
1331.17	128.94
1332.76	127.789
1334.36	125.355
1335.95	124.459
1337.54	122.587
1339.13	121.85
1340.72	120.239
1342.31	120.381
1343.9	118.9
1345.49	118.776
1347.08	117.541
1348.67	116.074
1350.26	114.591
1351.85	114.017
1353.43	112.574
1355.02	110.991
1356.61	109.92
1358.2	107.207
1359.78	106.981
1361.37	105.15
1362.96	102.466
1364.54	100.56
1366.13	97.3727
1367.71	93.9008
1369.3	91.2941
1370.88	90.9164
1372.47	90.9543
1374.05	90.8835
1375.64	89.4913
1377.22	90.3999
1378.8	90.6
1380.39	91.978
1381.97	92.2004
1383.55	94.2669
1385.13	94.9015
1386.72	94.4285
1388.3	96.1229
1389.88	96.4747
1391.46	97.5514
1393.04	96.0336
1394.62	95.5615
1396.2	95.6774
1397.78	96.5192
1399.36	97.1738
1400.94	97.7151
1402.52	98.6859
1404.1	101.93
1405.68	102.934
1407.25	104.949
1408.83	107.657
1410.41	109.762
1411.98	112.026
1413.56	114.925
1415.14	118.834
1416.71	122.21
1418.29	127.08
1419.87	132.081
1421.44	137.897
1423.02	141.278
1424.59	145.68
1426.16	150.203
1427.74	154.521
1429.31	159.633
1430.89	164.402
1432.46	168.212
1434.03	171.819
1435.6	174.621
1437.18	178.436
1438.75	181.766
1440.32	182.866
1441.89	183.981
1443.46	185.856
1445.03	186.648
1446.6	188.189
1448.17	189.504
1449.74	191.458
1451.31	191.469
1452.88	190.008
1454.45	189.709
1456.02	188.516
1457.59	186.122
1459.16	183.98
1460.72	181.313
1462.29	176.666
1463.86	169.867
1465.43	163.234
1466.99	158.193
1468.56	152.464
1470.13	146.581
1471.69	140.057
1473.26	134.092
1474.82	126.984
1476.38	120.01
1477.95	113.732
1479.51	108.542
1481.08	104.594
1482.64	100.481
1484.2	92.9963
1485.77	89.7203
1487.33	86.2403
1488.89	82.4103
1490.46	79.0474
1492.02	76.3383
1493.58	72.9151
1495.14	70.0592
1496.7	67.7222
1498.26	64.7682
1499.82	62.7782
1501.38	60.7955
1502.94	59.6788
1504.5	60.9632
1506.06	61.0891
1507.62	61.6536
1509.18	61.0048
1510.73	60.2562
1512.29	58.4456
1513.85	58.5577
1515.41	58.6694
1516.96	57.6767
1518.52	57.7852
1520.08	58.0576
1521.63	58.1416
1523.19	58.4606
1524.75	59.105
1526.3	59.7345
1527.85	60.9307
1529.41	61.6077
1530.96	62.3035
1532.52	62.8238
1534.07	62.3878
1535.62	63.9406
1537.18	63.9397
1538.73	63.3342
1540.28	63.4501
1541.84	64.5313
1543.39	67.307
1544.94	69.6136
1546.49	71.3247
1548.04	73.0158
1549.59	73.6476
1551.14	73.6546
1552.69	74.3597
1554.25	76.2423
1555.79	79.0643
1557.34	80.8008
1558.89	81.8652
1560.44	82.1629
1561.99	81.9654
1563.54	84.3369
1565.08	84.9081
1566.63	85.8456
1568.18	87.2773
1569.73	87.5768
1571.27	87.6434
1572.82	89.7094
1574.37	91.4089
1575.91	93.2725
1577.46	95.5827
1579	97.8074
1580.55	99.979
1582.09	102.456
1583.64	102.807
1585.18	103.902
1586.73	105.497
1588.27	106.112
1589.81	106.749
1591.35	107.94
1592.9	108.014
1594.44	109.791
1595.98	110.548
1597.52	110.763
1599.06	110.994
1600.61	112.354
1602.15	112.431
1603.69	111.79
1605.23	111.026
1606.77	111.192
1608.31	111.169
1609.85	111.14
1611.39	111.015
1612.93	111.467
1614.46	109.694
1616	110.375
1617.54	111.454
1619.08	112.476
1620.61	113.14
1622.15	112.551
1623.69	111.476
1625.23	111.713
1626.76	110.633
1628.3	111.418
1629.83	112.179
1631.37	112.553
1632.9	112.673
1634.44	112.776
1635.97	112.922
1637.51	112.429
1639.04	113.401
1640.57	115.587
1642.11	117.644
1643.64	120.08
1645.17	120.318
1646.71	120.742
1648.24	122.154
1649.77	124.434
1651.3	125.22
1652.83	125.391
1654.36	125.804
1655.89	125.674
1657.42	125.705
1658.96	124.928
1660.48	125.114
1662.01	123.938
1663.54	123.29
1665.07	121.075
1666.6	118.967
1668.13	117.217
1669.66	114.414
1671.19	113.131
1672.71	109.436
1674.24	106.557
1675.77	103.952
1677.29	100.175
1678.82	95.6597
1680.35	93.8008
1681.87	90.6557
1683.4	87.5485
1684.92	83.7637
1686.45	79.6022
1687.97	75.3389
1689.5	72.506
1691.02	69.481
1692.54	67.9697
1694.07	65.1089
1695.59	62.6779
1697.11	59.9355
1698.64	56.7983
1700.16	53.8331
1701.68	53.9101
1703.2	51.6699
1704.72	50.7206
1706.25	49.1303
1707.77	47.1762
1709.29	46.094
1710.81	44.8603
1712.33	43.1591
1713.85	41.504
1715.37	41.0705
1716.89	39.9144
1718.41	39.0907
1719.92	37.6192
1721.44	35.7722
1722.96	34.3984
1724.48	32.3591
1725.99	31.5904
1727.51	29.0132
1729.03	26.8785
1730.55	25.8213
1732.06	24.3913
1733.58	23.2018
1735.09	22.0423
1736.61	21.6803
1738.13	19.2213
1739.64	18.1165
1741.15	16.8489
1742.67	15.056
1744.18	13.8751
1745.7	12.6562
1747.21	13.3126
1748.72	12.3752
1750.24	11.8393
1751.75	12.5166
1753.26	11.3824
1754.77	11.6105
1756.29	12.6282
1757.8	11.3832
1759.31	10.364
1760.82	9.86299
1762.33	10.5819
1763.84	11.1917
1765.35	12.9588
1766.86	13.3528
1768.37	14.6726
1769.88	14.8797
1771.39	15.9993
1772.9	16.1994
1774.4	16.6928
1775.91	18.5537
1777.42	20.5592
1778.93	20.2256
1780.44	21.5943
1781.94	21.9311
1783.45	22.121
1784.96	22.4154
1786.46	22.4126
1787.97	22.3376
1789.47	23.4857
1790.98	23.5704
1792.48	23.4199
1793.99	23.2702
1795.49	23.0996
1797	22.544
1798.5	22.3829
1800.01	21.8526
1801.51	22.297
1803.01	21.3248
1804.51	21.2644
1806.02	21.2263
1807.52	20.8171
1809.02	20.3846
1810.52	20.3474
1812.02	19.8998
1813.52	18.6218
1815.02	18.8454
1816.53	19.1999
1818.03	19.2288
1819.52	19.9727
1821.02	19.6407
1822.52	19.7562
1824.02	19.2932
1825.52	18.2524
1827.02	18.8747
1828.52	18.1273
1830.02	18.503
1831.51	18.607
1833.01	19.076
1834.51	19.2177
1836.01	20.0563
1837.5	19.7616
1839	19.8189
1840.49	20.7051
1841.99	19.9717
1843.49	20.8899
1844.98	20.3418
1846.48	19.8746
1847.97	19.922
1849.47	19.9476
1850.96	20.5464
1852.45	19.9051
1853.95	19.2502
1855.44	19.1251
1856.93	17.9299
1858.42	17.1783
1859.92	16.8822
1861.41	17.2149
1862.9	16.3775
1864.39	16.7636
1865.88	15.8658
1867.38	15.8698
1868.87	16.7052
1870.36	15.9812
1871.85	16.3055
1873.34	15.7792
1874.83	15.2093
1876.32	15.1102
1877.81	15.2905
1879.29	15.3318
1880.78	14.4383
1882.27	13.7051
1882.53	13.6227
1884.03	13.9301
1885.52	13.4278
1887.01	14.6529
1888.51	15.9416
1890	16.8139
1891.5	16.414
1892.99	15.3852
1894.48	15.8104
1895.97	16.8024
1897.47	16.0442
1898.96	16.3646
1900.45	17.7864
1901.94	17.1044
1903.43	18.8965
1904.92	19.2053
1906.41	19.6244
1907.9	18.6961
1909.39	19.1252
1910.88	18.158
1912.37	18.1436
1913.86	17.4515
1915.35	15.9803
1916.84	15.2489
1918.33	13.7865
1919.81	12.6364
1921.3	11.8792
1922.79	8.97783
1924.28	9.39425
1925.76	6.76535
1927.25	5.58841
1928.73	4.96283
1930.22	4.03552
1931.71	4.51501
1933.19	4.12281
1934.68	4.49893
1936.16	4.33717
1937.65	4.71336
1939.13	3.03662
1940.62	2.37767
1942.1	1.55863
1943.58	0.225125
1945.07	0.301158
1946.55	-0.890654
1948.03	0.0849675
1949.51	1.29523
1951	2.06869
1952.48	2.3912
1953.96	2.31881
1955.44	2.60029
1956.92	4.27657
1958.4	3.77784
1959.88	5.18735
1961.36	6.94554
1962.84	7.7067
1964.32	6.87599
1965.8	5.93815
1967.28	6.5661
1968.76	7.9422
1970.24	7.98464
1971.72	7.24827
1973.2	7.60523
1974.67	8.26351
1976.15	9.30297
1977.63	10.5052
1979.1	9.54808
1980.58	9.03761
1982.06	7.70106
1983.54	7.83828
1985.01	5.89946
1986.49	5.82725
1987.96	6.3133
1989.44	5.4948
1990.91	4.93671
1992.39	5.34799
1993.86	5.44181
1995.33	5.2774
1996.81	5.93327
1998.28	7.93469
1999.75	7.2576
2001.23	9.68602
2002.7	9.9087
2004.17	10.3733
2005.65	11.2129
2007.12	10.6965
2008.59	11.7476
2010.06	11.0765
2011.53	9.91599
2013	9.79718
2014.47	10.9258
2015.94	11.9755
2017.41	12.0717
2018.88	13.1175
2020.35	13.5889
2021.82	14.5178
2023.29	14.3987
2024.76	13.788
2026.23	13.9483
2027.69	12.0531
2029.16	11.9435
2030.63	13.4896
2032.1	12.5483
2033.56	13.1161
2035.03	11.5839
2036.5	11.0116
2037.96	8.57071
2039.43	8.20058
2040.89	8.05876
2042.36	8.07163
2043.83	7.27474
2045.29	7.11179
2046.75	7.58821
2048.22	7.85755
2049.68	7.24994
2051.15	5.8247
2052.61	4.71804
2054.07	3.87031
2055.54	2.89836
2057	3.82364
2058.46	3.09691
2059.92	4.45076
2061.39	5.64601
2062.85	6.02466
2064.31	6.6074
2065.77	8.88412
2067.23	9.25591
2068.69	9.79254
2070.15	10.5424
2071.61	10.3094
2073.07	10.5247
2074.53	11.045
2075.99	9.81458
2077.45	11.0716
2078.91	9.80132
2080.37	11.2899
2081.82	11.3406
2083.28	10.7511
2084.74	10.7606
2086.2	12.6596
2087.65	12.8207
2089.11	13.3147
2090.57	12.2981
2092.02	12.9394
2093.48	12.1057
2094.94	12.4932
2096.39	12.1824
2097.85	12.8345
2099.3	12.9367
2100.76	12.4616
2102.21	13.3287
2103.66	13.6508
2105.12	12.8496
2106.57	12.8139
2108.03	12.3584
2109.48	11.9373
2110.93	11.1086
2112.38	12.1951
2113.84	12.2308
2115.29	12.1008
2116.74	12.2603
2118.19	11.052
2119.64	10.8373
2121.09	9.95646
2122.54	10.3136
2123.99	10.3793
2125.45	8.85636
2126.89	8.26529
2128.34	8.74191
2129.79	8.96288
2131.24	9.44903
2132.69	9.32533
2134.14	9.3082
2135.59	8.01138
2137.04	7.17263
2138.48	7.25113
2139.93	6.20819
2141.38	5.62479
2142.83	6.40677
2144.27	4.90738
2145.72	5.29202
2147.17	5.78786
2148.61	5.59372
2150.06	6.02512
2151.5	5.64891
2152.95	8.06054
2154.39	7.15494
2155.84	7.67629
2157.28	9.21869
2158.73	10.7126
2160.17	11.6634
2161.61	12.2424
2163.06	12.639
2164.5	12.5756
2165.94	12.8444
2167.38	13.4297
2168.83	13.551
2170.27	13.5285
2171.71	14.3887
2173.15	14.1405
2174.59	13.9975
2176.03	13.7074
2177.47	13.3342
2178.91	12.4652
2180.36	11.0042
2181.8	10.5926
2183.23	10.5649
2184.67	10.74
2186.11	9.96297
2187.55	10.5491
2188.99	10.1075
2190.43	9.83619
2191.87	11.2772
2193.3	10.2424
2194.74	9.69994
2196.18	7.89715
2197.62	7.05624
2199.05	8.19223
2200.49	8.80309
2201.93	7.99902
2203.36	8.11235
2204.8	7.54712
2206.23	7.194
2207.67	6.70043
2209.1	7.89429
2210.54	7.63907
2211.97	7.73752
2213.41	7.66833
2214.84	7.89936
2216.27	7.09568
2217.71	9.91682
2219.14	10.7023
2220.57	9.71063
2222.01	10.6521
2223.44	11.5559
2224.87	12.6505
2226.3	14.1151
2227.73	14.8348
2229.16	16.052
2230.6	16.0237
2232.03	15.0087
2233.46	13.4469
2234.89	13.3439
2236.32	12.1559
2237.75	12.7378
2239.18	12.5314
2240.61	12.3414
2242.03	11.8239
2243.46	12.0244
2244.89	10.9799
2246.32	10.7596
2247.75	10.742
2249.17	9.61422
2250.6	8.60325
2252.03	8.50036
2253.46	7.84683
2254.88	6.82248
2256.31	6.54688
2257.73	7.26469
2259.16	6.89256
2260.59	5.65846
2262.01	7.2426
2263.44	6.49314
2264.86	7.02667
2266.29	6.71977
2267.71	6.64463
2269.14	6.95037
2270.56	6.67337
2271.98	5.99527
2273.4	5.71377
2274.83	6.27817
2276.25	6.99382
2277.67	6.54387
2279.09	7.29893
2280.52	6.88192
2281.94	5.76605
2283.36	7.53109
2284.78	8.00164
2286.2	8.659
2287.62	8.75476
2289.04	9.00007
2290.46	7.14487
2291.88	7.001
2293.3	7.84678
2294.72	8.45118
2296.14	9.42732
2297.56	11.2822
2298.98	11.135
2300.4	11.4696
2301.82	11.4987
2303.23	12.2317
2304.65	13.3778
2306.07	14.9181
2307.49	14.5715
2308.9	15.9826
2310.32	15.6914
2311.73	15.8817
2313.15	18.0969
2314.57	18.0695
2315.98	18.3267
2317.4	18.5041
2318.81	17.7541
2320.23	16.5552
2321.64	16.3695
2323.06	15.2663
2324.47	14.417
2325.88	14.7688
2327.3	15.9661
2328.71	15.2736
2330.12	14.2821
2331.54	15.4246
2332.95	16.2034
2334.36	15.4326
2335.77	15.3094
2337.18	13.6571
2338.6	12.5402
2340.01	12.4304
2341.42	11.8673
2342.83	11.4059
2344.24	11.6302
2345.65	11.2253
2347.06	10.1699
2348.47	8.21044
2349.88	6.30558
2351.29	4.76725
2352.7	4.38553
2354.1	3.90322
2355.51	2.61518
2356.92	2.43111
2358.33	1.32664
2359.74	1.79118
2361.14	1.66517
2362.55	3.42193
2363.96	3.22537
2365.36	4.7596
2366.77	5.16025
2368.18	6.37069
2369.58	6.16315
2370.99	7.26357
2372.39	8.43038
2373.8	9.24926
2375.2	9.79343
2376.61	10.2372
2378.01	10.0805
2379.42	11.4066
2380.82	10.8041
2382.22	12.6373
2383.63	13.3917
2385.03	11.3663
2386.43	10.805
2387.84	10.89
2389.24	9.84785
2390.64	9.77219
2392.04	9.72703
2393.44	10.1148
2394.84	10.6028
2396.25	10.0148
2397.65	10.0659
2399.05	9.69167
2400.45	10.6973
2401.85	10.1702
2403.25	9.48659
2404.65	9.62792
2406.05	8.3676
2407.45	8.14743
2408.84	7.63976
2410.24	7.57263
2411.64	7.07864
2413.04	6.84767
2414.44	6.73256
2415.83	5.31332
2417.23	4.15353
2418.63	2.94022
2420.02	2.59811
2421.42	3.23438
2422.82	3.93365
2424.21	3.57882
2425.61	3.96341
2427	4.79904
2428.4	5.29621
2429.8	7.19724
2431.19	7.26196
2432.58	8.13864
2433.98	8.17157
2435.37	8.30551
2436.77	7.63604
2438.16	8.37116
2439.55	7.91399
2440.95	7.40813
2442.34	7.24411
2443.73	7.28781
2445.12	7.66061
2446.51	6.48011
2447.91	7.13642
2449.3	8.4433
2450.69	7.89855
2452.08	8.22582
2453.47	7.80357
2454.86	7.59015
2456.25	7.1085
2457.64	7.74744
2459.03	6.81733
2460.42	7.10551
2461.81	7.41095
2463.2	7.01318
2464.59	6.38712
2465.98	6.6473
2467.36	6.77933
2468.75	7.24423
2470.14	7.22166
2471.53	7.31181
2472.92	9.04338
2474.3	9.44554
2475.69	8.80648
2477.08	9.82789
2478.46	9.34979
2479.85	9.04564
2481.23	8.64031
2482.62	8.20407
2484	7.80081
2485.39	8.08077
2486.77	8.12096
2488.16	9.32219
2489.54	10.0502
2490.93	10.7865
2492.31	11.3562
2493.69	11.3197
2495.08	12.6384
2496.46	15.3733
2497.84	15.5555
2499.23	15.2234
2500.61	14.6892
2501.99	14.0378
2503.37	12.5098
2504.75	11.0196
2506.13	10.4678
2507.52	10.9664
2508.9	10.9954
2510.28	11.6493
2511.66	12.2795
2513.04	11.609
2514.42	11.0798
2515.8	10.7118
2517.18	12.0436
2518.55	11.3215
2519.93	9.1292
2521.31	9.65649
2522.69	9.97267
2524.07	9.9808
2525.45	10.0961
2526.82	9.9326
2528.2	9.88798
2529.58	11.4885
2530.95	11.441
2532.33	11.6927
2533.71	10.9802
2535.08	11.7346
2536.46	10.7244
2537.84	10.7369
2539.21	10.6259
2540.59	10.4543
2541.96	10.7423
2543.34	10.0802
2544.71	9.98723
2546.08	10.1191
2547.46	9.76767
2548.83	10.7897
2550.2	11.8035
2551.58	12.7573
2552.95	14.2805
2554.32	15.698
2555.7	16.0176
2557.07	17.0996
2558.44	17.9673
2559.81	18.7305
2561.18	19.6996
2562.55	20.3797
2563.93	21.8671
2565.3	22.1227
2566.67	20.5001
2568.04	20.0237
2569.41	19.8103
2570.78	18.9318
2572.15	19.9441
2573.51	19.6496
2574.88	19.7085
2576.25	21.0474
2577.62	20.9838
2578.99	21.2029
2580.36	20.4432
2581.73	20.7299
2583.09	23.033
2584.46	23.9756
2585.83	24.7353
2587.19	24.127
2588.56	25.6197
2589.93	26.7017
2591.29	26.9937
2592.66	26.8886
2594.02	25.5475
2595.39	25.0133
2596.75	25.0311
2598.12	24.6911
2599.48	23.3894
2600.85	22.4423
2602.21	21.4384
2603.58	21.1654
2604.94	20.0487
2606.3	20.9106
2607.67	22.0099
2609.03	22.244
2610.39	21.9136
2611.76	21.1073
2613.12	21.1699
2614.48	20.4771
2615.84	20.8024
2617.2	20.5515
2618.56	19.0685
2619.92	18.9938
2621.28	19.5016
2622.65	19.6349
2624.01	19.755
2625.37	20.0713
2626.72	19.438
2628.08	18.9359
2629.44	18.2026
2630.8	17.8147
2632.16	17.7604
2633.52	16.7445
2634.88	17.1788
2636.24	17.354
2637.59	17.6773
2638.95	17.8026
2640.31	18.404
2641.67	17.9175
2643.02	17.8233
2644.38	20.4161
2645.74	20.6452
2647.09	21.5459
2648.45	22.2994
2649.8	23.8918
2651.16	25.3567
2652.51	24.2747
2653.87	25.1736
2655.22	26.0005
2656.58	26.3627
2657.93	25.9392
2659.29	25.2177
2660.64	25.7013
2661.99	26.1213
2663.35	26.9708
2664.7	27.9057
2666.05	28.1953
2667.41	29.182
2668.76	29.4585
2670.11	31.1453
2671.46	32.1548
2672.81	33.1402
2674.16	33.3058
2675.51	31.676
2676.87	30.6623
2678.22	29.7275
2679.57	29.3897
2680.92	30.0526
2682.27	29.339
2683.62	28.9775
2684.97	28.383
2686.31	28.6162
2687.66	29.5958
2689.01	30.2427
2690.36	29.7759
2691.71	28.7927
2693.06	27.9719
2694.4	27.4534
2695.75	27.4127
2697.1	27.2057
2698.45	28.187
2699.79	28.9462
2701.14	28.8098
2702.49	28.6844
2703.83	28.0369
2705.18	27.1649
2706.52	27.3922
2707.87	28.3877
2709.21	28.7919
2710.56	29.3446
2711.9	31.2441
2713.25	31.1816
2714.59	32.3319
2715.94	32.9709
2717.28	33.3697
2718.62	34.301
2719.97	33.325
2721.31	34.1884
2722.65	34.1929
2723.99	33.508
2725.34	33.2989
2726.68	34.0696
2728.02	34.7536
2729.36	35.5467
2730.7	34.3768
2732.04	34.4506
2733.39	34.0851
2734.73	34.4069
2736.07	33.3485
2737.41	33.7737
2738.75	31.2855
2740.08	30.186
2741.43	28.8358
2742.76	27.9911
2744.1	28.4592
2745.44	27.9079
2746.78	27.6351
2748.12	27.6404
2749.46	26.3779
2750.79	25.8571
2752.13	25.7026
2753.47	25.2192
2754.81	24.7444
2756.14	24.1989
2757.48	23.2247
2758.81	22.7203
2760.15	21.0897
2761.49	21.1912
2762.82	19.8206
2764.16	18.8796
2765.49	17.6177
2766.83	17.0641
2768.16	15.3779
2769.5	14.4193
2770.83	13.9593
2772.16	13.7852
2773.5	13.8342
2774.83	12.5208
2776.17	10.7955
2777.5	10.7079
2778.83	9.60143
2780.16	10.0262
2781.5	9.93225
2782.83	9.20025
2784.16	7.8301
2785.49	6.81185
2786.82	6.80023
2788.15	7.02419
2789.49	6.71903
2790.82	5.87309
2792.15	6.17886
2793.48	6.53993
2794.81	5.99686
2796.14	8.07345
2797.46	8.26816
2798.79	9.89177
2800.12	9.92746
2801.45	9.86287
2802.78	10.1335
2804.11	11.4062
2805.44	10.8488
2806.76	12.8518
2808.09	12.4977
2809.42	13.2759
2810.75	13.8825
2812.07	14.6016
2813.4	16.3386
2814.73	17.335
2816.05	18.4171
2817.38	20.0377
2818.7	22.5207
2820.03	24.6651
2821.36	26.5281
2822.68	29.0679
2824.01	31.9592
2825.33	35.0916
2826.65	38.1796
2827.98	42.5423
2829.3	45.895
2830.63	49.7399
2831.95	53.6699
2833.27	57.5518
2834.6	62.3643
2835.92	67.1216
2837.24	71.9747
2838.56	77.1594
2839.88	82.5518
2841.21	88.2925
2842.53	95.8003
2843.85	102.914
2845.17	109.749
2846.49	119.441
2847.81	126.092
2849.13	133.809
2850.45	141.733
2851.77	150.32
2853.09	159.766
2854.41	167.337
2855.73	175.575
2857.05	184.815
2858.37	193.24
2859.69	200.909
2861	208.722
2862.32	216.992
2863.64	222.105
2864.96	227.764
2866.28	234.406
2867.59	240.216
2868.91	245.434
2870.23	249.653
2871.54	254.576
2872.86	258.535
2874.17	262.004
2875.49	266.759
2876.81	270.671
2878.12	274.447
2879.44	278.28
2880.75	281.577
2882.07	284.775
2883.38	288.218
2884.69	290.966
2886.01	294.556
2887.32	296.712
2888.63	299.264
2889.95	302.689
2891.26	306.019
2892.57	308.156
2893.89	310.735
2895.2	314.452
2896.51	317.872
2897.82	322.372
2899.13	327.347
2900.44	333.642
2901.76	338.613
2903.07	344.601
2904.38	350.186
2905.69	356.604
2907	362.783
2908.31	370.836
2909.62	378.925
2910.93	388.416
2912.24	396.99
2913.55	404.9
2914.85	414.238
2916.16	421.031
2917.47	428.128
2918.78	434.446
2920.09	438.538
2921.4	443.322
2922.7	448.056
2924.01	451.44
2925.32	454.635
2926.62	455.628
2927.93	456.476
2929.24	455.948
2930.54	456.672
2931.85	455.965
2933.15	451.663
2934.46	448.879
2935.76	445.297
2937.07	442.059
2938.37	436.901
2939.68	431.948
2940.98	425.459
2942.29	419.618
2943.59	412.033
2944.89	404.095
2946.2	395.318
2947.5	386.855
2948.8	378.705
2950.11	370.181
2951.41	361.311
2952.71	351.454
2954.01	342.727
2955.32	334.936
2956.62	325.368
2957.92	315.497
2959.22	307.154
2960.52	299.686
2961.82	291.343
2963.12	282.601
2964.42	274.22
2965.72	266.653
2967.02	258.804
2968.32	252.003
2969.62	244.462
2970.92	238.069
2972.22	231.677
2973.51	226.135
2974.81	219.14
2976.11	211.733
2977.41	204.92
2978.71	198.042
2980	190.478
2981.3	181.892
2982.6	173.564
2983.9	164.032
2985.19	156.766
2986.49	149.408
2987.78	141.127
2989.08	132.345
2990.38	123.39
2991.67	114.188
2992.97	106.65
2994.26	99.1892
2995.56	92.2357
2996.85	84.4291
2998.14	76.5568
2999.44	70.4535
3000.73	63.7963
3002.03	58.1416
3003.32	51.9502
3004.61	45.5744
3005.91	39.8116
3007.2	34.5723
3008.49	28.6093
3009.78	25.0291
3011.07	21.9231
3012.37	19.5205
3013.66	16.1972
3014.95	13.6915
3016.24	9.47014
3017.53	7.67639
3018.82	5.36403
3020.11	3.30533
3021.4	0.0723
3022.69	-0.746571
3023.98	-1.60558
3025.27	-2.44996
3026.56	-3.67129
3027.85	-4.61938
3029.14	-3.77385
3030.43	-3.55958
3031.71	-3.55256
3033	-3.44796
3034.29	-3.71355
3035.58	-2.96624
3036.87	-1.2002
3038.15	-0.634977
3039.44	0.216845
3040.73	1.96043
3042.01	3.13236
3043.3	5.09416
3044.59	5.65524
3045.87	6.10637
3047.16	6.56596
3048.44	7.40213
3049.73	9.15812
3051.01	8.8087
3052.3	9.11157
3053.58	8.8708
3054.87	9.38928
3056.15	9.76118
3057.43	11.1443
3058.72	10.7454
3060	10.613
3061.29	10.6643
3062.57	10.9912
3063.85	10.8265
3065.13	10.2661
3066.42	9.87023
3067.7	9.50188
3068.98	8.7931
3070.26	8.53134
3071.54	8.55994
3072.82	8.89855
3074.11	9.39873
3075.39	8.91383
3076.67	7.89034
3077.95	7.13222
3079.23	6.17145
3080.51	5.67156
3081.79	6.36287
3083.07	6.53572
3084.35	4.77566
3085.63	4.95517
3086.9	5.37236
3088.18	4.85958
3089.46	5.90303
3090.74	6.77665
3092.02	6.90269
3093.29	8.31733
3094.57	9.32871
3095.85	10.4881
3097.13	11.2968
3098.4	13.0658
3099.68	14.2079
3100.95	16.5901
3102.23	17.2854
3103.51	20.3916
3104.78	22.5291
3106.06	24.8551
3107.33	28.602
3108.61	30.3419
3109.88	33.156
3111.16	35.6014
3112.43	36.8567
3113.71	38.8204
3114.98	40.444
3116.25	43.2423
3117.53	45.6676
3118.8	48.6039
3120.07	51.3937
3121.35	53.5634
3122.62	54.6412
3123.89	57.2785
3125.16	60.0379
3126.44	61.8548
3127.71	63.2862
3128.98	65.1445
3130.25	67.7448
3131.52	70.2781
3132.79	72.0615
3134.06	74.6171
3135.33	77.133
3136.6	79.3553
3137.87	81.7061
3139.14	83.4595
3140.41	85.0936
3141.68	87.1305
3142.95	88.7226
3144.22	89.8925
3145.49	90.8871
3146.76	91.9361
3148.02	95.1491
3149.29	94.3863
