#Acq. time (s)=	45
#Accumulations=	2
#Range (cm-¹)=	200...3150
#Windows=	2
#Auto scanning=	Off
#Autofocus=	Off
#Macrospot=	Off
#AutoExposure=	Off
#Spike filter=	Multiple accum.
#Delay time (s)=	0
#Binning=	1
#Readout mode=	Signal
#DeNoise=	Off
#ICS correction=	On
#Dark correction=	Off
#Inst. Process=	Off
#Detector Gain=	Best Dynamic Range
#Detector ADC=	20 kHz       
#Detector temperature (°C)=	-69.85
#Instrument=	LabRAM HR Evol
#Detector=	Synapse
#Objective=	x100
#Grating=	600 gr/mm
#ND Filter=	100%
#Laser (nm)=	532 
#Hole=	100.021
#Range=	Auto
#Laser Pol.=	No
#Raman. Pol.=	No
#Laser Pol. (°)=	-0.0007625
#Raman Pol. (°)=	89.9995
#Collection=	Microscope
#StageXY=	Marzhauser
#StageZ=	Marzhauser
#X (µm)=	-973.2
#Y (µm)=	-2856.8
#Z (µm)=	529.05
#Full time(mm:ss)=	3:18
#Project=	
#Sample=	
#Site=	
#Title=	Mb_00_13_28_2x_45s_532 nm_x100_100%_600 gr_mm
#Remark=	
#Date=	06.07.2022 11:52
#Acquired=	06.07.2022 11:52:00
#Base:Fit=	10.08.2022 10:16:56
#Base:Sub=	10.08.2022 10:17:24
#Filter:Polynom=	16.08.2022 10:36:38
#AxisType[0]=Intens
#AxisUnit[0]=Cnt
#AxisType[1]=Spectr
#AxisUnit[1]=1/cm
200.398	9.51891
202.213	7.04804
204.027	6.16771
205.843	4.56152
207.657	2.09001
209.47	0.133567
211.283	-0.717206
213.097	-2.77034
214.909	0.969425
216.721	4.67274
218.533	7.79857
220.344	14.6451
222.157	20.9576
223.967	29.4082
225.777	37.9724
227.587	46.2689
229.396	54.2208
231.205	59.3058
233.016	65.7139
234.824	71.423
236.632	76.858
238.439	83.1332
240.247	88.5679
242.053	94.759
243.86	100.342
245.666	103.17
247.474	107.508
249.279	112.85
251.085	117.557
252.889	120.454
254.694	123.576
256.498	124.804
258.301	127.294
260.105	127.927
261.908	128.008
263.71	127.734
265.513	127.545
267.315	127.192
269.116	125.58
270.918	122.619
272.718	119.632
274.519	116.548
276.319	111.48
278.119	107.712
279.918	102.294
281.718	98.0217
283.516	92.3034
285.315	86.3172
287.113	79.8682
288.911	73.404
290.708	68.1999
292.505	62.9297
294.302	57.3656
296.098	53.2285
297.894	49.1952
299.69	45.9683
301.485	43.2723
303.278	40.6777
305.073	41.9537
306.867	39.4709
308.661	37.969
310.454	38.5045
312.247	36.2442
314.04	35.0742
315.833	32.4421
317.623	28.8617
319.415	26.8858
321.206	25.3218
322.997	25.9341
324.788	26.1998
326.579	25.1037
328.367	25.6091
330.156	25.2426
331.946	24.2604
333.735	21.838
335.523	19.8968
337.31	18.845
339.098	17.8653
340.885	16.2288
342.673	14.6416
344.458	14.3265
346.244	11.5815
348.03	11.0363
349.816	9.01003
351.6	8.88974
353.385	8.22368
355.17	7.06808
356.953	6.30513
358.737	6.34676
360.521	6.76004
362.304	8.14656
364.085	8.79195
365.868	10.6481
367.65	14.0142
369.431	16.5375
371.212	19.2333
372.994	21.8274
374.773	25.994
376.554	30.7836
378.332	35.6467
380.112	41.5
381.892	48.65
383.669	54.5006
385.448	62.2027
387.225	69.2587
389.003	77.5026
390.781	84.529
392.557	90.7436
394.334	97.4982
396.109	104.155
397.885	108.746
399.66	112.484
401.436	115.281
403.211	118.603
404.984	121.078
406.759	123.397
408.532	126.35
410.306	127.747
412.078	127.348
413.851	126.709
415.623	125.57
417.395	125.438
419.166	123.348
420.938	118.982
422.708	115.406
424.477	111.549
426.248	106.71
428.017	103.104
429.788	98.2241
431.556	92.7712
433.326	86.7739
435.093	80.2612
436.86	74.1361
438.629	67.8264
440.395	61.8603
442.163	56.7451
443.929	51.1615
445.694	46.1316
447.461	41.6055
449.226	36.6339
450.99	32.3041
452.756	29.4998
454.52	27.2949
456.285	24.0184
458.048	21.3988
459.811	18.905
461.573	17.8394
463.337	17.8096
465.099	17.2432
466.86	17.4728
468.623	17.0239
470.384	19.8133
472.144	20.3897
473.906	21.6245
475.666	22.3005
477.425	22.4468
479.184	23.0413
480.944	24.8569
482.703	26.824
484.461	27.5404
486.218	28.4499
487.975	28.6355
489.734	29.6313
491.491	32.0268
493.247	32.6564
495.003	33.2695
496.759	34.0989
498.516	34.9572
500.271	36.6704
502.025	39.1259
503.779	40.1757
505.533	40.7569
507.287	41.8365
509.042	43.0714
510.795	45.9343
512.547	48.1114
514.299	50.5956
516.051	52.0938
517.803	53.2551
519.554	54.6317
521.305	55.9193
523.055	57.7962
524.805	57.8549
526.555	59.1984
528.307	59.106
530.056	59.8836
531.805	59.3276
533.553	59.9863
535.301	61.1891
537.049	60.6122
538.797	60.9464
540.544	60.8479
542.291	59.6348
544.037	57.0591
545.783	55.2406
547.529	53.1812
549.275	51.7452
551.02	49.9178
552.765	47.5419
554.509	44.0501
556.253	40.6163
557.997	38.9932
559.738	34.7548
561.482	31.8256
563.224	30.6166
564.967	29.1185
566.709	28.556
568.451	27.5795
570.192	26.9223
571.933	26.5032
573.674	25.8246
575.415	24.2542
577.153	24.4196
578.893	24.7276
580.632	23.2966
582.371	23.8199
584.11	24.0694
585.849	24.4728
587.587	25.2016
589.323	24.7852
591.06	24.8847
592.797	26.234
594.534	26.8278
596.271	26.7682
598.005	25.8825
599.741	25.2208
601.476	24.9195
603.211	23.8855
604.944	24.1009
606.679	23.3283
608.413	23.7106
610.147	23.6478
611.878	22.2052
613.611	21.8155
615.344	22.6191
617.077	24.1698
618.807	23.9575
620.539	24.6438
622.27	25.2747
623.999	24.7381
625.73	24.9961
627.461	24.7788
629.189	25.1392
630.919	24.8687
632.648	25.3633
634.376	25.5819
636.105	24.622
637.833	23.7955
639.559	23.1175
641.287	21.616
643.013	20.9129
644.74	21.711
646.467	21.9542
648.192	22.2199
649.918	22.4467
651.642	22.3933
653.368	22.6476
655.091	22.7286
656.816	23.518
658.538	23.8618
660.263	22.5197
661.987	23.098
663.708	23.0722
665.432	23.914
667.153	23.5029
668.875	23.3744
670.596	22.4209
672.318	21.4184
674.037	18.7654
675.759	17.6337
677.478	17.606
679.196	16.4602
680.917	14.1595
682.635	12.7782
684.355	10.9172
686.072	10.3277
687.791	9.70099
689.508	9.69945
691.224	9.30275
692.942	8.3416
694.658	8.43121
696.376	6.66773
698.091	6.14753
699.805	6.19038
701.522	6.13972
703.236	4.60909
704.95	3.69615
706.665	3.89653
708.379	3.79906
710.093	4.09581
711.806	5.01792
713.518	6.42869
715.23	7.248
716.943	6.96232
718.655	6.18328
720.366	5.02196
722.078	4.65652
723.788	5.58598
725.498	6.3651
727.208	5.78777
728.919	4.61547
730.628	4.57952
732.337	4.13188
734.045	3.22327
735.755	4.60976
737.463	4.85618
739.17	4.91937
740.877	5.49149
742.584	7.85637
744.292	8.54638
745.998	9.82249
747.704	12.8794
749.409	15.1025
751.114	17.2886
752.819	18.2805
754.526	19.7441
756.23	21.5304
757.934	21.9049
759.637	22.8042
761.34	26.9565
763.043	29.5396
764.746	30.9048
766.448	33.1661
768.152	35.092
769.853	37.2086
771.554	39.3644
773.255	40.0475
774.956	41.4669
776.656	40.9695
778.356	40.3696
780.056	40.3168
781.755	39.2207
783.454	39.4416
785.153	39.6771
786.851	38.6337
788.549	39.0786
790.247	40.0506
791.944	39.9487
793.641	41.0361
795.338	41.5918
797.034	42.4031
798.73	42.7269
800.426	42.4259
802.121	41.685
803.817	41.6788
805.511	41.1375
807.206	42.1991
808.9	42.2968
810.592	41.7717
812.286	40.8333
813.979	39.4208
815.672	39.2057
817.364	39.0621
819.057	38.7532
820.748	39.2225
822.44	38.638
824.129	39.515
825.82	40.7948
827.511	41.7813
829.201	41.7734
830.891	42.686
832.581	42.0314
834.269	41.0468
835.958	40.1178
837.646	39.3877
839.335	38.3705
841.023	38.6728
842.709	37.4985
844.396	37.8133
846.084	37.7265
847.77	36.3409
849.455	35.9322
851.141	34.2549
852.827	31.9084
854.513	30.5065
856.196	27.9543
857.881	25.09
859.566	23.4828
861.248	20.4923
862.932	19.9763
864.616	19.8209
866.297	17.9285
867.98	17.5579
869.663	17.4008
871.343	16.3482
873.026	16.5356
874.707	16.1098
876.387	15.07
878.068	15.6701
879.747	14.86
881.428	16.4287
883.108	15.8266
884.786	16.7022
886.465	15.5532
888.143	15.1686
889.822	14.5545
891.498	15.2912
893.177	15.2192
894.855	15.0595
896.53	15.1032
898.208	15.3581
899.883	16.6564
901.56	18.1159
903.234	20.2286
904.91	21.2712
906.584	22.9375
908.26	23.5279
909.933	24.7543
911.608	25.7903
913.28	26.7949
914.955	26.3763
916.627	26.6742
918.298	28.0376
919.972	28.8815
921.643	28.7701
923.315	28.9721
924.986	28.798
926.656	28.5762
928.328	27.6185
929.997	26.7127
931.668	27.2108
933.337	26.2241
935.006	24.1795
936.676	23.4241
938.344	22.6645
940.012	21.8634
941.681	21.4779
943.348	21.3571
945.014	20.9825
946.683	21.2268
948.349	19.7037
950.015	18.6004
951.682	19.4049
953.347	18.9524
955.012	16.8922
956.676	13.4092
958.343	11.3891
960.006	9.01506
961.67	9.95848
963.333	11.2983
964.998	13.2162
966.661	14.276
968.323	18.0117
969.985	19.474
971.649	22.7335
973.31	27.2885
974.971	30.6496
976.632	34.3594
978.293	38.5184
979.953	42.5807
981.615	47.5817
983.274	51.4412
984.933	55.2422
986.592	57.8933
988.251	60.6181
989.909	62.4157
991.567	63.7861
993.225	66.3274
994.884	67.65
996.541	70.2686
998.198	71.2132
999.855	73.3285
1001.51	73.1651
1003.17	71.5888
1004.82	69.5587
1006.48	68.2046
1008.13	66.3471
1009.79	64.7216
1011.44	62.4986
1013.1	62.854
1014.75	64.1702
1016.4	64.6984
1018.06	67.8129
1019.71	72.5525
1021.36	75.3389
1023.01	79.4253
1024.66	83.3296
1026.32	86.9398
1027.97	89.6382
1029.62	92.8479
1031.27	94.3102
1032.92	95.885
1034.57	96.7707
1036.22	97.228
1037.87	97.2712
1039.52	97.7936
1041.16	100.789
1042.81	102.346
1044.46	106.628
1046.11	108.956
1047.76	109.869
1049.4	111.539
1051.05	111.638
1052.7	111.273
1054.34	110.713
1055.99	109.474
1057.63	107.867
1059.28	107.269
1060.92	106.235
1062.57	101.65
1064.21	97.5043
1065.85	92.519
1067.5	88.9144
1069.14	83.517
1070.78	77.629
1072.43	71.828
1074.07	66.5768
1075.71	62.2359
1077.35	56.394
1078.99	50.1218
1080.63	42.0571
1082.27	34.8659
1083.91	27.3429
1085.55	21.9537
1087.19	16.6254
1088.83	12.0778
1090.47	10.1755
1092.11	9.19968
1093.75	10.7735
1095.39	12.7766
1097.03	14.5629
1098.66	15.2186
1100.3	16.9365
1101.94	17.518
1103.57	16.5956
1105.21	19.1889
1106.84	18.8246
1108.48	18.6759
1110.11	16.9084
1111.75	15.8706
1113.38	14.8255
1115.02	14.5484
1116.65	13.4561
1118.29	13.525
1119.92	13.5065
1121.55	11.7993
1123.19	11.8629
1124.82	11.9669
1126.45	13.1572
1128.08	11.8494
1129.71	11.4543
1131.34	11.0848
1132.97	10.4333
1134.6	11.9798
1136.23	12.0055
1137.86	11.8065
1139.49	13.2921
1141.12	12.4098
1142.75	11.009
1144.38	7.79558
1146.01	8.59762
1147.64	9.10754
1149.26	8.82815
1150.89	7.04197
1152.52	6.41625
1154.15	6.64915
1155.77	5.96969
1157.4	5.16554
1159.02	4.2004
1160.65	2.94578
1162.27	2.15994
1163.9	0.680018
1165.52	0.910761
1167.15	1.33906
1168.77	1.58843
1170.39	2.86043
1172.02	4.40249
1173.64	4.35728
1175.26	5.09904
1176.89	5.06973
1178.51	6.25151
1180.13	6.04957
1181.75	8.04418
1183.37	9.56972
1184.99	10.5849
1186.61	12.6176
1188.23	11.7174
1189.85	13.8607
1191.47	16.102
1193.09	19.4788
1194.71	23.0037
1196.33	24.8496
1197.94	28.2692
1199.56	32.974
1201.18	36.6001
1202.8	38.9768
1204.41	43.5093
1206.03	47.5283
1207.65	50.6713
1209.26	54.8781
1210.88	60.1727
1212.49	63.7347
1214.11	67.9562
1215.72	73.4533
1217.34	77.1244
1218.95	80.383
1220.57	83.7756
1222.18	86.0262
1223.79	88.864
1225.41	92.6104
1227.02	98.1466
1228.63	101.872
1230.24	105.681
1231.85	109.166
1233.47	111.84
1235.08	113.848
1236.69	115.811
1238.3	116.944
1239.91	118.029
1241.52	118.793
1243.13	119.825
1244.74	121.584
1246.34	123.113
1247.95	125.051
1249.56	126.306
1251.17	127.471
1252.78	126.798
1254.38	127.754
1255.99	128.593
1257.6	128.072
1259.2	127.454
1260.81	126.418
1262.42	126.344
1264.02	125.431
1265.63	125.188
1267.23	125.576
1268.84	124.573
1270.44	126.711
1272.04	127.066
1273.65	127.318
1275.25	126.054
1276.85	127.313
1278.46	130.176
1280.06	131.054
1281.66	130.628
1283.26	131.906
1284.86	133.044
1286.46	135.616
1288.07	138.05
1289.67	139.537
1291.27	140.556
1292.87	141.772
1294.47	143.906
1296.06	147.661
1297.66	147.948
1299.26	150.325
1300.86	153.219
1302.46	156.442
1304.06	160.319
1305.65	164.307
1307.25	168.6
1308.85	170.957
1310.44	173.962
1312.04	175.513
1313.64	177.149
1315.23	179.399
1316.83	179.809
1318.42	180.956
1320.02	181.489
1321.61	183.674
1323.2	184.073
1324.8	183.747
1326.39	183.013
1327.99	182.665
1329.58	181.647
1331.17	182.105
1332.76	180.496
1334.36	179.752
1335.95	178.204
1337.54	176.183
1339.13	173.832
1340.72	172.626
1342.31	168.805
1343.9	167.711
1345.49	166.441
1347.08	163.222
1348.67	160.517
1350.26	158.255
1351.85	154.464
1353.43	151.785
1355.02	148.968
1356.61	147.675
1358.2	144.095
1359.78	141.307
1361.37	138.574
1362.96	136.768
1364.54	134.454
1366.13	132.917
1367.71	128.524
1369.3	125.284
1370.88	123.94
1372.47	122.621
1374.05	121.437
1375.64	119.852
1377.22	116.984
1378.8	116.895
1380.39	116.082
1381.97	115.512
1383.55	114.662
1385.13	115.249
1386.72	115.116
1388.3	113.585
1389.88	112.086
1391.46	109.719
1393.04	108.461
1394.62	107.27
1396.2	105.729
1397.78	105.851
1399.36	105.235
1400.94	105.085
1402.52	105.344
1404.1	106.743
1405.68	107.356
1407.25	109.615
1408.83	113.92
1410.41	116.973
1411.98	119.665
1413.56	122.449
1415.14	128.038
1416.71	132.015
1418.29	137.32
1419.87	143.757
1421.44	149.939
1423.02	158.229
1424.59	163.241
1426.16	169.826
1427.74	176.478
1429.31	183.178
1430.89	190.806
1432.46	198.181
1434.03	203.973
1435.6	210.11
1437.18	215.783
1438.75	221.887
1440.32	224.235
1441.89	228.578
1443.46	231.55
1445.03	233.68
1446.6	234.806
1448.17	236.106
1449.74	235.823
1451.31	235.581
1452.88	234.354
1454.45	231.744
1456.02	228.585
1457.59	225.912
1459.16	222.297
1460.72	217.857
1462.29	212.002
1463.86	206.763
1465.43	197.941
1466.99	189.975
1468.56	181.548
1470.13	174.588
1471.69	166.782
1473.26	159.321
1474.82	150.37
1476.38	142.906
1477.95	134.485
1479.51	127.652
1481.08	121.823
1482.64	114.416
1484.2	107.861
1485.77	102.917
1487.33	97.6952
1488.89	92.2543
1490.46	89.378
1492.02	85.5957
1493.58	84.1862
1495.14	80.2767
1496.7	77.2526
1498.26	72.9972
1499.82	70.5633
1501.38	68.6208
1502.94	67.5153
1504.5	68.0087
1506.06	65.698
1507.62	64.6531
1509.18	64.1889
1510.73	64.3233
1512.29	64.1565
1513.85	64.191
1515.41	64.6046
1516.96	64.0615
1518.52	63.0165
1520.08	64.1732
1521.63	64.8484
1523.19	64.831
1524.75	65.0351
1526.3	65.4526
1527.85	66.9711
1529.41	68.3451
1530.96	69.1254
1532.52	69.9493
1534.07	70.5301
1535.62	72.0096
1537.18	73.4325
1538.73	75.7939
1540.28	77.5907
1541.84	79.3599
1543.39	80.3945
1544.94	82.384
1546.49	84.2359
1548.04	86.7644
1549.59	88.1714
1551.14	90.6831
1552.69	91.9872
1554.25	94.1506
1555.79	95.2289
1557.34	97.4048
1558.89	98.8623
1560.44	100.121
1561.99	102.63
1563.54	103.751
1565.08	106.345
1566.63	109.236
1568.18	111.873
1569.73	114.03
1571.27	116.068
1572.82	116.996
1574.37	118.691
1575.91	121.405
1577.46	124.913
1579	128.287
1580.55	130.935
1582.09	133.149
1583.64	135.429
1585.18	138.7
1586.73	141.317
1588.27	142.917
1589.81	143.512
1591.35	145.104
1592.9	145.517
1594.44	146.108
1595.98	145.851
1597.52	147.249
1599.06	147.49
1600.61	146.607
1602.15	146.728
1603.69	146.012
1605.23	145.099
1606.77	143.752
1608.31	143.247
1609.85	143.12
1611.39	141.92
1612.93	141.258
1614.46	141.659
1616	140.612
1617.54	138.669
1619.08	138.165
1620.61	137.706
1622.15	137.793
1623.69	138.843
1625.23	139.768
1626.76	139.684
1628.3	140.119
1629.83	140.367
1631.37	141.511
1632.9	142.904
1634.44	145.419
1635.97	147.523
1637.51	149.552
1639.04	152.515
1640.57	155.558
1642.11	158.363
1643.64	161.372
1645.17	163.362
1646.71	165.632
1648.24	167.615
1649.77	169.349
1651.3	170.958
1652.83	172.973
1654.36	175.014
1655.89	176.317
1657.42	176.838
1658.96	177.99
1660.48	177.506
1662.01	175.841
1663.54	174.406
1665.07	172.081
1666.6	169.803
1668.13	165.915
1669.66	161.461
1671.19	158.232
1672.71	152.908
1674.24	149.241
1675.77	143.387
1677.29	138.558
1678.82	132.527
1680.35	126.99
1681.87	121.329
1683.4	115.505
1684.92	109.711
1686.45	104.047
1687.97	97.6981
1689.5	91.1406
1691.02	86.0416
1692.54	80.4923
1694.07	76.1393
1695.59	72.8467
1697.11	67.9121
1698.64	63.7118
1700.16	59.4034
1701.68	55.3825
1703.2	51.7093
1704.72	48.3966
1706.25	45.338
1707.77	43.2055
1709.29	39.8781
1710.81	37.5058
1712.33	34.4641
1713.85	32.1474
1715.37	30.6436
1716.89	28.4225
1718.41	25.4891
1719.92	24.155
1721.44	22.3456
1722.96	20.7066
1724.48	20.0104
1725.99	19.6434
1727.51	18.8634
1729.03	17.7505
1730.55	16.1651
1732.06	14.9387
1733.58	14.4615
1735.09	13.8622
1736.61	11.7883
1738.13	11.3526
1739.64	10.6789
1741.15	9.38156
1742.67	9.09112
1744.18	8.52129
1745.7	8.75712
1747.21	7.80768
1748.72	6.78541
1750.24	7.40159
1751.75	6.53997
1753.26	6.43016
1754.77	5.41878
1756.29	5.30242
1757.8	4.82232
1759.31	4.03504
1760.82	4.21568
1762.33	4.71241
1763.84	4.19803
1765.35	3.36256
1766.86	3.5207
1768.37	3.16458
1769.88	3.03692
1771.39	3.31024
1772.9	2.94654
1774.4	3.66361
1775.91	3.40183
1777.42	3.69808
1778.93	3.49963
1780.44	3.00594
1781.94	2.91703
1783.45	2.4236
1784.96	1.62839
1786.46	1.47865
1787.97	1.43448
1789.47	1.41701
1790.98	0.970816
1792.48	0.330839
1793.99	0.24893
1795.49	0.262785
1797	-0.074045
1798.5	-0.309479
1800.01	0.033245
1801.51	0.255697
1803.01	-1.08177
1804.51	-1.42921
1806.02	-0.752667
1807.52	0.0778286
1809.02	0.243407
1810.52	-0.234158
1812.02	1.21238
1813.52	2.16274
1815.02	2.39735
1816.53	2.77452
1818.03	2.94418
1819.52	2.77785
1821.02	2.72938
1822.52	2.30604
1824.02	2.33423
1825.52	3.2641
1827.02	2.99419
1828.52	3.27805
1830.02	3.59784
1831.51	4.00184
1833.01	4.09814
1834.51	4.17688
1836.01	4.71974
1837.5	5.17967
1839	4.61777
1840.49	4.03685
1841.99	3.96057
1843.49	4.43442
1844.98	4.82591
1846.48	5.13891
1847.97	4.06561
1849.47	3.41602
1850.96	3.34918
1852.45	2.87547
1853.95	3.18648
1855.44	3.87058
1856.93	3.92916
1858.42	3.5724
1859.92	3.53169
1861.41	3.60977
1862.9	3.91051
1864.39	4.08463
1865.88	3.75467
1867.38	4.47333
1868.87	5.11284
1870.36	4.6317
1871.85	4.89054
1873.34	4.74218
1874.83	5.10196
1876.32	4.73048
1877.81	3.71079
1879.29	4.00756
1880.78	3.60026
1882.27	3.60735
1882.53	3.2652
1884.03	3.12335
1885.52	3.99955
1887.01	2.94839
1888.51	2.75371
1890	2.39856
1891.5	1.55945
1892.99	1.53781
1894.48	2.09839
1895.97	1.23479
1897.47	0.912651
1898.96	1.8439
1900.45	2.37583
1901.94	2.66809
1903.43	2.86301
1904.92	2.67058
1906.41	2.6686
1907.9	3.41894
1909.39	4.26297
1910.88	4.05283
1912.37	4.28026
1913.86	4.02233
1915.35	5.2705
1916.84	4.93723
1918.33	5.45483
1919.81	5.60681
1921.3	5.49039
1922.79	7.14982
1924.28	7.90884
1925.76	7.89003
1927.25	9.22723
1928.73	10.1694
1930.22	9.94272
1931.71	9.77326
1933.19	9.68631
1934.68	10.8879
1936.16	11.3355
1937.65	11.1217
1939.13	11.616
1940.62	11.9159
1942.1	11.6007
1943.58	11.5056
1945.07	11.6672
1946.55	11.1179
1948.03	10.5842
1949.51	10.5032
1951	10.3109
1952.48	10.6994
1953.96	9.8545
1955.44	9.61115
1956.92	9.47034
1958.4	8.96256
1959.88	8.88126
1961.36	8.35541
1962.84	8.01871
1964.32	7.94989
1965.8	6.77505
1967.28	6.57314
1968.76	6.32951
1970.24	5.80414
1971.72	6.64373
1973.2	7.28747
1974.67	7.69349
1976.15	7.92978
1977.63	7.34603
1979.1	8.04221
1980.58	8.50378
1982.06	9.10618
1983.54	9.03663
1985.01	8.34485
1986.49	8.62465
1987.96	8.53736
1989.44	8.59083
1990.91	7.87926
1992.39	8.69968
1993.86	9.54572
1995.33	9.48673
1996.81	9.94394
1998.28	9.86054
1999.75	10.8693
2001.23	11.6114
2002.7	12.3525
2004.17	11.5988
2005.65	10.9878
2007.12	10.9743
2008.59	12.0776
2010.06	11.79
2011.53	11.2673
2013	11.7949
2014.47	11.56
2015.94	10.967
2017.41	10.7327
2018.88	9.54359
2020.35	9.03288
2021.82	8.86902
2023.29	9.35352
2024.76	8.57063
2026.23	8.40455
2027.69	7.24891
2029.16	8.28792
2030.63	8.90279
2032.1	8.04191
2033.56	7.87992
2035.03	6.75953
2036.5	6.00027
2037.96	5.65013
2039.43	5.34796
2040.89	5.51244
2042.36	5.59506
2043.83	5.29648
2045.29	5.54407
2046.75	5.2427
2048.22	5.5862
2049.68	5.76907
2051.15	6.61333
2052.61	6.94617
2054.07	7.27268
2055.54	7.32572
2057	7.75501
2058.46	7.86032
2059.92	8.70202
2061.39	9.34203
2062.85	9.78894
2064.31	10.8384
2065.77	12.3856
2067.23	13.49
2068.69	13.6865
2070.15	14.6912
2071.61	15.0749
2073.07	15.9733
2074.53	16.0416
2075.99	15.4364
2077.45	14.6416
2078.91	14.891
2080.37	15.4777
2081.82	15.9179
2083.28	15.2892
2084.74	15.5846
2086.2	16.4176
2087.65	16.1689
2089.11	16.4364
2090.57	16.2734
2092.02	16.6352
2093.48	16.9301
2094.94	17.0842
2096.39	17.0363
2097.85	16.7405
2099.3	16.6638
2100.76	16.4545
2102.21	16.77
2103.66	15.5453
2105.12	13.804
2106.57	13.2367
2108.03	12.8222
2109.48	12.6234
2110.93	11.8408
2112.38	11.5133
2113.84	10.57
2115.29	10.5716
2116.74	10.0413
2118.19	9.36445
2119.64	8.76336
2121.09	8.4791
2122.54	8.07181
2123.99	7.50133
2125.45	6.74163
2126.89	6.62954
2128.34	5.84864
2129.79	5.44181
2131.24	5.2573
2132.69	5.99823
2134.14	5.9109
2135.59	6.38387
2137.04	6.64721
2138.48	7.16848
2139.93	7.59471
2141.38	6.95998
2142.83	6.14392
2144.27	6.15143
2145.72	6.26473
2147.17	5.9862
2148.61	5.80329
2150.06	5.88006
2151.5	5.96552
2152.95	6.3586
2154.39	7.37751
2155.84	7.82986
2157.28	8.60623
2158.73	8.65555
2160.17	7.62438
2161.61	7.91664
2163.06	7.10325
2164.5	7.90514
2165.94	7.86363
2167.38	8.52884
2168.83	8.79101
2170.27	8.95481
2171.71	9.81789
2173.15	10.0901
2174.59	9.73169
2176.03	9.78603
2177.47	10.4298
2178.91	11.0874
2180.36	11.3545
2181.8	11.0542
2183.23	10.9448
2184.67	10.6544
2186.11	10.7939
2187.55	10.3726
2188.99	9.73987
2190.43	9.76995
2191.87	10.2239
2193.3	10.4552
2194.74	10.8638
2196.18	11.5736
2197.62	12.7744
2199.05	12.6136
2200.49	12.5877
2201.93	12.9741
2203.36	14.0126
2204.8	14.544
2206.23	14.4661
2207.67	14.4181
2209.1	13.323
2210.54	13.1954
2211.97	13.0314
2213.41	12.6462
2214.84	12.8089
2216.27	12.9541
2217.71	12.5752
2219.14	12.2722
2220.57	12.4808
2222.01	10.9804
2223.44	10.8583
2224.87	10.6611
2226.3	10.0878
2227.73	8.90778
2229.16	7.36382
2230.6	6.474
2232.03	5.94993
2233.46	6.82198
2234.89	7.74048
2236.32	8.01532
2237.75	8.54418
2239.18	8.59685
2240.61	7.66582
2242.03	7.0663
2243.46	7.10109
2244.89	6.26045
2246.32	5.99633
2247.75	5.86177
2249.17	5.66
2250.6	4.88255
2252.03	4.99901
2253.46	5.25372
2254.88	5.05358
2256.31	5.109
2257.73	6.51126
2259.16	6.91882
2260.59	7.69609
2262.01	7.59082
2263.44	8.22836
2264.86	8.51102
2266.29	8.56486
2267.71	8.24726
2269.14	8.5733
2270.56	7.72199
2271.98	7.54115
2273.4	7.37423
2274.83	7.67655
2276.25	7.00414
2277.67	6.69215
2279.09	7.08379
2280.52	7.3685
2281.94	8.3763
2283.36	8.53461
2284.78	7.57239
2286.2	6.64783
2287.62	6.01971
2289.04	5.33183
2290.46	4.57915
2291.88	4.86709
2293.3	4.16995
2294.72	5.10637
2296.14	6.07595
2297.56	6.62731
2298.98	6.60549
2300.4	6.55954
2301.82	8.26226
2303.23	9.25719
2304.65	9.37588
2306.07	9.40666
2307.49	9.7157
2308.9	9.31365
2310.32	8.44092
2311.73	7.72972
2313.15	7.63321
2314.57	8.39112
2315.98	8.24033
2317.4	8.01084
2318.81	7.58762
2320.23	7.50268
2321.64	7.94816
2323.06	7.79647
2324.47	8.10525
2325.88	7.63389
2327.3	7.53005
2328.71	8.55755
2330.12	8.00794
2331.54	7.68248
2332.95	7.84777
2334.36	8.07597
2335.77	7.47
2337.18	6.49662
2338.6	5.63765
2340.01	5.39169
2341.42	5.31722
2342.83	5.36521
2344.24	4.79295
2345.65	5.1851
2347.06	4.70424
2348.47	4.77053
2349.88	4.81841
2351.29	4.05933
2352.7	3.64859
2354.1	2.95427
2355.51	2.41363
2356.92	2.8621
2358.33	2.83636
2359.74	3.01548
2361.14	3.75441
2362.55	4.3046
2363.96	4.39596
2365.36	4.36607
2366.77	4.63785
2368.18	3.23252
2369.58	2.5022
2370.99	2.30917
2372.39	2.43127
2373.8	1.50508
2375.2	1.08681
2376.61	1.79408
2378.01	1.80576
2379.42	1.27353
2380.82	1.96497
2382.22	2.18579
2383.63	2.38069
2385.03	2.96955
2386.43	2.43859
2387.84	2.57056
2389.24	3.19916
2390.64	4.11453
2392.04	5.24162
2393.44	5.28302
2394.84	6.4041
2396.25	6.81144
2397.65	6.84603
2399.05	7.61306
2400.45	7.00577
2401.85	6.98791
2403.25	8.00753
2404.65	8.03111
2406.05	8.02286
2407.45	7.66932
2408.84	8.57101
2410.24	8.76894
2411.64	9.61845
2413.04	9.09197
2414.44	9.40931
2415.83	9.84161
2417.23	9.00637
2418.63	8.24694
2420.02	8.69481
2421.42	7.91874
2422.82	7.48701
2424.21	6.64633
2425.61	6.45984
2427	5.50225
2428.4	5.0242
2429.8	4.33693
2431.19	3.60535
2432.58	2.4535
2433.98	2.09376
2435.37	1.83898
2436.77	1.383
2438.16	1.0829
2439.55	0.883216
2440.95	0.830468
2442.34	0.644437
2443.73	0.400412
2445.12	0.301306
2446.51	0.218791
2447.91	0.59928
2449.3	0.0362072
2450.69	0.21137
2452.08	-0.0112595
2453.47	0.0348243
2454.86	0.117506
2456.25	0.419599
2457.64	1.11806
2459.03	1.08957
2460.42	1.48862
2461.81	1.13648
2463.2	0.428656
2464.59	0.965927
2465.98	0.910462
2467.36	1.03765
2468.75	1.57097
2470.14	1.34974
2471.53	1.5941
2472.92	1.8531
2474.3	1.15646
2475.69	0.555319
2477.08	0.732368
2478.46	0.745964
2479.85	0.0178431
2481.23	1.14077
2482.62	1.43175
2484	1.74731
2485.39	1.37058
2486.77	0.793522
2488.16	1.31764
2489.54	1.82521
2490.93	1.28001
2492.31	1.70873
2493.69	1.53973
2495.08	1.63326
2496.46	1.91127
2497.84	2.907
2499.23	2.86683
2500.61	3.73599
2501.99	4.18179
2503.37	4.40953
2504.75	4.08046
2506.13	3.5261
2507.52	2.82507
2508.9	2.61699
2510.28	2.99318
2511.66	2.81406
2513.04	3.07806
2514.42	2.97838
2515.8	3.4556
2517.18	4.12205
2518.55	3.96357
2519.93	5.03211
2521.31	4.89502
2522.69	4.73812
2524.07	5.05674
2525.45	5.76144
2526.82	5.46692
2528.2	5.28199
2529.58	5.4323
2530.95	5.55522
2532.33	6.04486
2533.71	6.35604
2535.08	6.36033
2536.46	6.14507
2537.84	5.82285
2539.21	5.48262
2540.59	5.35547
2541.96	5.181
2543.34	5.96706
2544.71	6.6548
2546.08	6.91774
2547.46	6.98717
2548.83	7.30372
2550.2	8.73869
2551.58	8.76189
2552.95	8.72916
2554.32	9.28577
2555.7	8.72316
2557.07	8.49935
2558.44	8.06404
2559.81	9.2053
2561.18	9.39557
2562.55	9.32769
2563.93	9.74756
2565.3	9.7405
2566.67	9.41487
2568.04	9.09015
2569.41	8.50642
2570.78	7.82412
2572.15	7.4378
2573.51	7.55271
2574.88	8.23448
2576.25	8.5007
2577.62	9.16568
2578.99	8.95947
2580.36	9.02257
2581.73	9.02259
2583.09	9.52097
2584.46	10.5651
2585.83	10.6546
2587.19	11.1928
2588.56	10.4425
2589.93	10.2464
2591.29	9.93365
2592.66	9.42635
2594.02	9.2642
2595.39	8.99071
2596.75	9.02502
2598.12	8.65537
2599.48	8.83797
2600.85	8.51118
2602.21	8.22551
2603.58	8.39224
2604.94	8.48432
2606.3	8.77414
2607.67	9.02207
2609.03	8.94104
2610.39	9.25258
2611.76	9.85516
2613.12	9.55863
2614.48	9.97481
2615.84	10.8697
2617.2	11.2936
2618.56	11.6198
2619.92	12.1338
2621.28	11.9362
2622.65	11.7978
2624.01	11.9779
2625.37	12.4623
2626.72	13.6435
2628.08	14.3487
2629.44	13.7324
2630.8	14.1143
2632.16	14.0715
2633.52	14.0732
2634.88	14.1248
2636.24	14.4243
2637.59	14.5238
2638.95	15.3085
2640.31	15.957
2641.67	16.5575
2643.02	17.276
2644.38	17.5888
2645.74	17.2049
2647.09	17.4772
2648.45	17.8405
2649.8	17.5214
2651.16	17.3986
2652.51	16.6863
2653.87	15.9627
2655.22	15.2309
2656.58	14.1006
2657.93	14.2601
2659.29	13.6666
2660.64	13.4733
2661.99	13.2277
2663.35	12.4767
2664.7	12.1321
2666.05	12.1779
2667.41	12.4909
2668.76	12.5537
2670.11	12.9038
2671.46	12.8288
2672.81	12.3078
2674.16	11.4853
2675.51	11.4519
2676.87	11.0612
2678.22	10.9112
2679.57	11.5361
2680.92	11.3886
2682.27	11.7968
2683.62	11.9603
2684.97	11.5234
2686.31	11.8266
2687.66	11.78
2689.01	10.9794
2690.36	11.4179
2691.71	11.7912
2693.06	12.3237
2694.4	12.5675
2695.75	12.3637
2697.1	13.1413
2698.45	13.4934
2699.79	13.7105
2701.14	14.4671
2702.49	15.0028
2703.83	16.4523
2705.18	17.0552
2706.52	18.5871
2707.87	20.2702
2709.21	20.7504
2710.56	21.0404
2711.9	21.1381
2713.25	21.4483
2714.59	22.2967
2715.94	22.6925
2717.28	23.1245
2718.62	23.5579
2719.97	23.9757
2721.31	23.9682
2722.65	23.5397
2723.99	23.9967
2725.34	24.1313
2726.68	23.6254
2728.02	22.8237
2729.36	22.3258
2730.7	22.4776
2732.04	22.9172
2733.39	22.3952
2734.73	22.0619
2736.07	21.4025
2737.41	21.3643
2738.75	19.9159
2740.08	19.1082
2741.43	18.4763
2742.76	18.4137
2744.1	17.7164
2745.44	17.5603
2746.78	17.0932
2748.12	15.8863
2749.46	15.0693
2750.79	14.7629
2752.13	13.9397
2753.47	13.8646
2754.81	12.7405
2756.14	12.728
2757.48	12.511
2758.81	12.1627
2760.15	11.884
2761.49	11.4153
2762.82	11.373
2764.16	11.6569
2765.49	10.6621
2766.83	10.6847
2768.16	11.0025
2769.5	11.2336
2770.83	11.3805
2772.16	11.6265
2773.5	11.7547
2774.83	11.5188
2776.17	10.7816
2777.5	10.937
2778.83	11.1727
2780.16	11.3492
2781.5	11.2404
2782.83	10.7569
2784.16	10.5013
2785.49	9.88042
2786.82	8.69636
2788.15	7.37163
2789.49	6.60629
2790.82	5.89569
2792.15	5.39544
2793.48	4.43841
2794.81	3.84799
2796.14	4.23943
2797.46	3.91213
2798.79	3.4486
2800.12	3.0655
2801.45	2.89162
2802.78	2.50036
2804.11	2.66366
2805.44	1.82476
2806.76	1.82033
2808.09	1.61922
2809.42	2.05939
2810.75	2.06074
2812.07	2.21342
2813.4	2.70641
2814.73	3.86626
2816.05	5.47929
2817.38	6.49714
2818.7	7.7526
2820.03	9.44317
2821.36	11.2808
2822.68	13.6577
2824.01	15.8929
2825.33	18.6716
2826.65	21.5069
2827.98	24.0186
2829.3	26.9087
2830.63	30.0551
2831.95	33.1603
2833.27	37.4242
2834.6	42.1245
2835.92	46.1746
2837.24	50.6417
2838.56	56.9193
2839.88	63.1801
2841.21	71.0088
2842.53	78.4662
2843.85	86.3227
2845.17	94.4205
2846.49	102.269
2847.81	111.255
2849.13	120.565
2850.45	130.128
2851.77	138.931
2853.09	149.2
2854.41	159.214
2855.73	168.761
2857.05	178.003
2858.37	187.941
2859.69	196.548
2861	206.133
2862.32	214.434
2863.64	223.045
2864.96	231.087
2866.28	238.864
2867.59	245.424
2868.91	252.508
2870.23	259.619
2871.54	266.043
2872.86	271.454
2874.17	277.118
2875.49	283.152
2876.81	287.44
2878.12	292.341
2879.44	297.145
2880.75	300.842
2882.07	303.952
2883.38	307.337
2884.69	311.422
2886.01	315.037
2887.32	318.55
2888.63	320.893
2889.95	323.746
2891.26	326.341
2892.57	328.737
2893.89	332.254
2895.2	336.511
2896.51	341.386
2897.82	346.476
2899.13	351.37
2900.44	357.476
2901.76	363.966
2903.07	372.071
2904.38	380.633
2905.69	389.864
2907	398.451
2908.31	407.732
2909.62	417.566
2910.93	427.661
2912.24	437.986
2913.55	449.155
2914.85	459.803
2916.16	468.264
2917.47	476.759
2918.78	485.164
2920.09	490.76
2921.4	496.397
2922.7	501.373
2924.01	506.512
2925.32	509.67
2926.62	512.945
2927.93	513.319
2929.24	514.42
2930.54	513.602
2931.85	512.389
2933.15	510.1
2934.46	507.185
2935.76	503.401
2937.07	497.973
2938.37	492.326
2939.68	486.468
2940.98	479.374
2942.29	471.005
2943.59	463.36
2944.89	454.799
2946.2	445.741
2947.5	436.349
2948.8	427.198
2950.11	417.396
2951.41	406.99
2952.71	396.403
2954.01	385.837
2955.32	376
2956.62	365.273
2957.92	354.878
2959.22	346.408
2960.52	337.152
2961.82	328.345
2963.12	318.911
2964.42	309.84
2965.72	301.793
2967.02	294.026
2968.32	286.851
2969.62	279.37
2970.92	272.749
2972.22	265.372
2973.51	258.819
2974.81	251.909
2976.11	244.591
2977.41	237.149
2978.71	228.966
2980	220.956
2981.3	212.591
2982.6	205.102
2983.9	196.25
2985.19	187.908
2986.49	179.591
2987.78	171.133
2989.08	162.809
2990.38	153.722
2991.67	146.14
2992.97	137.51
2994.26	130.15
2995.56	122.098
2996.85	113.812
2998.14	105.968
2999.44	99.179
3000.73	92.4222
3002.03	86.7545
3003.32	80.2507
3004.61	73.5905
3005.91	67.1001
3007.2	60.845
3008.49	54.7301
3009.78	49.1763
3011.07	44.4027
3012.37	39.6862
3013.66	35.3903
3014.95	31.1536
3016.24	27.0987
3017.53	23.2683
3018.82	19.6011
3020.11	16.1735
3021.4	13.3827
3022.69	11.3196
3023.98	9.92653
3025.27	7.17392
3026.56	4.93155
3027.85	3.66288
3029.14	2.13946
3030.43	0.84586
3031.71	0.829396
3033	0.247466
3034.29	0.204936
3035.58	-0.204465
3036.87	-0.175768
3038.15	-0.625161
3039.44	-0.551374
3040.73	-0.254933
3042.01	0.189315
3043.3	0.70272
3044.59	1.68688
3045.87	2.40466
3047.16	2.72594
3048.44	3.10174
3049.73	4.37692
3051.01	4.88571
3052.3	4.88462
3053.58	5.5228
3054.87	6.37232
3056.15	6.76506
3057.43	6.58145
3058.72	7.54874
3060	7.58897
3061.29	7.48724
3062.57	8.1156
3063.85	8.62622
3065.13	8.3329
3066.42	8.55095
3067.7	7.21943
3068.98	7.16095
3070.26	6.50963
3071.54	5.94865
3072.82	5.49583
3074.11	5.82508
3075.39	5.58689
3076.67	4.84893
3077.95	4.4452
3079.23	4.19342
3080.51	3.83051
3081.79	3.03357
3083.07	2.78416
3084.35	3.3198
3085.63	2.98655
3086.9	2.84614
3088.18	2.3536
3089.46	2.50168
3090.74	2.57787
3092.02	3.3316
3093.29	2.99805
3094.57	3.7517
3095.85	4.50033
3097.13	4.944
3098.4	5.37198
3099.68	4.79932
3100.95	5.54217
3102.23	6.07343
3103.51	7.37826
3104.78	8.44286
3106.06	8.58608
3107.33	9.17122
3108.61	10.5392
3109.88	11.3948
3111.16	11.9456
3112.43	12.8451
3113.71	13.4139
3114.98	14.4781
3116.25	15.4135
3117.53	17.265
3118.8	18.0332
3120.07	18.9229
3121.35	20.4913
3122.62	21.691
3123.89	22.2059
3125.16	23.1594
3126.44	24.4596
3127.71	25.5584
3128.98	26.4424
3130.25	27.4662
3131.52	28.3704
3132.79	29.5212
3134.06	30.4681
3135.33	31.5875
3136.6	33.1992
3137.87	35.0698
3139.14	36.4091
3140.41	37.9009
3141.68	39.2804
3142.95	40.3415
3144.22	41.2798
3145.49	42.1733
3146.76	42.6045
3148.02	42.604
3149.29	43.6764
