#Acq. time (s)=	45
#Accumulations=	2
#Range (cm-¹)=	200...3150
#Windows=	2
#Auto scanning=	Off
#Autofocus=	Off
#Macrospot=	Off
#AutoExposure=	Off
#Spike filter=	Multiple accum.
#Delay time (s)=	0
#Binning=	1
#Readout mode=	Signal
#DeNoise=	Off
#ICS correction=	On
#Dark correction=	Off
#Inst. Process=	Off
#Detector Gain=	Best Dynamic Range
#Detector ADC=	20 kHz       
#Detector temperature (°C)=	-69.85
#Instrument=	LabRAM HR Evol
#Detector=	Synapse
#Objective=	x100
#Grating=	600 gr/mm
#ND Filter=	100%
#Laser (nm)=	532 
#Hole=	100.021
#Range=	Auto
#Laser Pol.=	No
#Raman. Pol.=	No
#Laser Pol. (°)=	-0.0007625
#Raman Pol. (°)=	89.9995
#Collection=	Microscope
#StageXY=	Marzhauser
#StageZ=	Marzhauser
#X (µm)=	-975.8
#Y (µm)=	-2825.8
#Z (µm)=	528.55
#Full time(mm:ss)=	3:18
#Project=	
#Sample=	
#Site=	
#Title=	Mb_00_13_24_2x_45s_532 nm_x100_100%_600 gr_mm
#Remark=	
#Date=	06.07.2022 11:34
#Acquired=	06.07.2022 11:34:55
#Base:Fit=	10.08.2022 10:16:56
#Base:Sub=	10.08.2022 10:17:24
#Filter:Polynom=	16.08.2022 10:36:38
#AxisType[0]=Intens
#AxisUnit[0]=Cnt
#AxisType[1]=Spectr
#AxisUnit[1]=1/cm
200.398	9.79297
202.213	9.69109
204.027	7.27786
205.843	6.79172
207.657	5.21491
209.47	3.40921
211.283	1.78302
213.097	1.5292
214.909	1.59185
216.721	3.91505
218.533	6.45915
220.344	8.97982
222.157	12.2151
223.967	14.8544
225.777	18.376
227.587	21.9213
229.396	26.5744
231.205	31.917
233.016	37.6589
234.824	42.5659
236.632	46.2686
238.439	50.17
240.247	55.1881
242.053	59.2719
243.86	62.3449
245.666	64.7829
247.474	68.5378
249.279	72.578
251.085	75.1295
252.889	79.3619
254.694	81.9963
256.498	85.6636
258.301	87.2727
260.105	88.4933
261.908	89.0333
263.71	88.9442
265.513	88.3475
267.315	86.6172
269.116	85.4285
270.918	81.6623
272.718	79.7652
274.519	77.0121
276.319	74.3788
278.119	71.7483
279.918	67.1728
281.718	63.5558
283.516	60.6397
285.315	57.4845
287.113	52.6389
288.911	47.1247
290.708	43.1763
292.505	38.8648
294.302	36.0138
296.098	31.1928
297.894	27.1338
299.69	25.0253
301.485	23.1716
303.278	22.4946
305.073	19.6758
306.867	19.1371
308.661	16.893
310.454	14.4695
312.247	14.2844
314.04	14.2783
315.833	14.5817
317.623	15.9042
319.415	16.7899
321.206	16.5676
322.997	15.6327
324.788	15.2814
326.579	15.2733
328.367	16.7884
330.156	17.0816
331.946	15.3956
333.735	15.3693
335.523	16.2875
337.31	17.3092
339.098	16.5762
340.885	14.9699
342.673	15.2159
344.458	14.3254
346.244	14.8335
348.03	13.5531
349.816	13.1238
351.6	11.9428
353.385	9.6925
355.17	8.26846
356.953	7.07345
358.737	5.40696
360.521	4.96527
362.304	6.6686
364.085	6.94238
365.868	8.26836
367.65	9.05085
369.431	12.0359
371.212	13.7982
372.994	16.4275
374.773	18.3973
376.554	20.1857
378.332	23.1407
380.112	26.2307
381.892	29.342
383.669	32.1435
385.448	36.4259
387.225	40.9526
389.003	46.5062
390.781	52.5965
392.557	56.2607
394.334	60.2083
396.109	64.6793
397.885	68.9645
399.66	72.726
401.436	77.0897
403.211	80.1308
404.984	82.9191
406.759	85.1738
408.532	85.8156
410.306	86.6461
412.078	87.6232
413.851	89.2421
415.623	89.4791
417.395	89.1861
419.166	88.2607
420.938	87.2381
422.708	87.525
424.477	86.4092
426.248	84.6433
428.017	81.5457
429.788	78.4031
431.556	74.959
433.326	72.5417
435.093	67.8367
436.86	62.975
438.629	58.9012
440.395	53.5939
442.163	49.8287
443.929	47.8854
445.694	44.0053
447.461	39.8282
449.226	38.4255
450.99	36.6649
452.756	35.2104
454.52	34.4337
456.285	32.8749
458.048	31.3098
459.811	28.9884
461.573	27.7984
463.337	25.8318
465.099	24.5851
466.86	25.3464
468.623	26.935
470.384	27.4294
472.144	29.3523
473.906	30.821
475.666	30.9805
477.425	30.6934
479.184	31.9882
480.944	32.1743
482.703	33.0512
484.461	33.8413
486.218	35.5865
487.975	35.1998
489.734	36.7366
491.491	38.7716
493.247	40.179
495.003	41.4806
496.759	42.6349
498.516	43.6322
500.271	44.771
502.025	47.0448
503.779	47.6456
505.533	49.4371
507.287	49.6878
509.042	50.8952
510.795	52.4526
512.547	52.6824
514.299	52.1074
516.051	50.4126
517.803	50.6847
519.554	51.4483
521.305	52.4214
523.055	51.6574
524.805	52.4269
526.555	54.149
528.307	53.4846
530.056	54.1802
531.805	52.7684
533.553	50.4808
535.301	50.626
537.049	52.2251
538.797	52.2474
540.544	51.3341
542.291	50.3644
544.037	48.3564
545.783	46.9898
547.529	45.8555
549.275	43.903
551.02	41.2514
552.765	40.3897
554.509	38.2407
556.253	36.1188
557.997	32.7467
559.738	30.3855
561.482	27.0635
563.224	25.9365
564.967	24.4078
566.709	24.0422
568.451	22.6347
570.192	20.2512
571.933	19.7546
573.674	17.5207
575.415	15.655
577.153	15.1041
578.893	14.5049
580.632	13.284
582.371	12.5197
584.11	11.1163
585.849	10.9233
587.587	10.4096
589.323	9.96684
591.06	8.25073
592.797	8.34809
594.534	7.69443
596.271	8.28293
598.005	7.12396
599.741	5.25404
601.476	5.19459
603.211	5.8414
604.944	7.56724
606.679	8.28998
608.413	8.90954
610.147	9.88919
611.878	10.7215
613.611	11.3158
615.344	10.8022
617.077	11.1842
618.807	10.6289
620.539	12.3436
622.27	14.8182
623.999	16.6162
625.73	17.4904
627.461	18.758
629.189	20.9722
630.919	21.8892
632.648	24.5973
634.376	25.8717
636.105	26.2598
637.833	27.2437
639.559	29.2645
641.287	30.1881
643.013	30.7866
644.74	29.9393
646.467	29.7886
648.192	30.312
649.918	31.1169
651.642	31.6652
653.368	32.0238
655.091	30.6383
656.816	29.4681
658.538	29.1248
660.263	28.0893
661.987	28.0833
663.708	28.0498
665.432	26.9595
667.153	25.8666
668.875	25.33
670.596	24.5829
672.318	23.2357
674.037	21.3553
675.759	20.7579
677.478	21.1988
679.196	20.4681
680.917	18.2813
682.635	17.567
684.355	17.5775
686.072	17.3065
687.791	17.3981
689.508	16.2299
691.224	14.6111
692.942	14.184
694.658	12.9495
696.376	13.1164
698.091	12.1087
699.805	11.7315
701.522	12.8464
703.236	12.3774
704.95	13.1162
706.665	15.0189
708.379	16.2567
710.093	16.9676
711.806	17.6553
713.518	18.3936
715.23	19.3927
716.943	20.0642
718.655	19.6636
720.366	19.7046
722.078	18.8016
723.788	19.3793
725.498	19.8484
727.208	18.6702
728.919	17.5186
730.628	16.9758
732.337	18.096
734.045	18.4145
735.755	18.7339
737.463	19.1048
739.17	18.3612
740.877	18.3038
742.584	19.1577
744.292	20.6738
745.998	21.6093
747.704	23.3698
749.409	23.6519
751.114	24.5348
752.819	26.1994
754.526	27.3611
756.23	28.6685
757.934	29.6261
759.637	32.1704
761.34	32.9229
763.043	33.5361
764.746	33.9161
766.448	35.0593
768.152	35.9915
769.853	36.8897
771.554	37.5346
773.255	37.6452
774.956	38.506
776.656	41.1185
778.356	42.5374
780.056	42.7486
781.755	44.3389
783.454	44.3829
785.153	46.9359
786.851	48.0206
788.549	48.2274
790.247	49.1768
791.944	50.5354
793.641	50.7867
795.338	52.0861
797.034	52.8827
798.73	53.6595
800.426	54.2184
802.121	54.3767
803.817	53.9834
805.511	55.2227
807.206	54.1283
808.9	53.9465
810.592	53.4937
812.286	51.4175
813.979	51.0232
815.672	50.9406
817.364	51.6594
819.057	51.3132
820.748	52.1724
822.44	52.23
824.129	53.4951
825.82	54.9926
827.511	55.5046
829.201	56.7806
830.891	57.1729
832.581	58.1785
834.269	56.824
835.958	56.9752
837.646	55.5872
839.335	54.4211
841.023	53.2218
842.709	51.7317
844.396	50.7548
846.084	48.7629
847.77	48.7373
849.455	47.7303
851.141	45.144
852.827	44.1945
854.513	43.5174
856.196	41.5401
857.881	39.3757
859.566	37.3574
861.248	35.3296
862.932	33.2219
864.616	31.819
866.297	31.299
867.98	29.9681
869.663	30.3969
871.343	28.9856
873.026	29.4133
874.707	28.1314
876.387	28.02
878.068	26.7578
879.747	26.2379
881.428	25.1982
883.108	23.8411
884.786	21.8194
886.465	20.3801
888.143	18.9661
889.822	16.6921
891.498	15.7742
893.177	15.1612
894.855	14.6774
896.53	13.6499
898.208	15.1743
899.883	15.4169
901.56	14.9184
903.234	15.7047
904.91	16.9128
906.584	17.0177
908.26	17.8786
909.933	17.5831
911.608	16.9438
913.28	16.4849
914.955	15.9578
916.627	15.313
918.298	13.9925
919.972	14.7311
921.643	15.2433
923.315	16.3839
924.986	16.916
926.656	17.6898
928.328	17.7407
929.997	17.8904
931.668	16.7635
933.337	16.5766
935.006	16.3391
936.676	17.1621
938.344	16.4969
940.012	17.1195
941.681	17.564
943.348	17.7031
945.014	16.8464
946.683	18.563
948.349	18.6392
950.015	21.4032
951.682	21.1303
953.347	22.0671
955.012	21.4205
956.676	20.7351
958.343	18.1979
960.006	16.7976
961.67	16.7013
963.333	17.4584
964.998	18.4509
966.661	20.5802
968.323	23.3169
969.985	26.696
971.649	30.3798
973.31	33.9632
974.971	39.7832
976.632	44.1292
978.293	48.6444
979.953	53.1993
981.615	58.7738
983.274	62.0667
984.933	66.4274
986.592	70.1416
988.251	72.8627
989.909	73.6719
991.567	75.5247
993.225	77.3472
994.884	78.7802
996.541	81.2957
998.198	82.4035
999.855	84.0342
1001.51	85.0179
1003.17	86.7096
1004.82	86.3493
1006.48	84.8539
1008.13	82.2006
1009.79	81.218
1011.44	79.394
1013.1	79.4837
1014.75	78.7875
1016.4	79.3447
1018.06	79.1202
1019.71	80.3006
1021.36	80.6766
1023.01	81.1599
1024.66	82.5478
1026.32	82.8343
1027.97	83.0934
1029.62	85.1116
1031.27	86.4037
1032.92	86.7226
1034.57	82.7964
1036.22	80.9715
1037.87	79.7848
1039.52	78.1928
1041.16	78.2211
1042.81	79.5517
1044.46	80.8664
1046.11	81.6569
1047.76	83.4873
1049.4	85.5399
1051.05	87.1593
1052.7	87.0025
1054.34	87.5696
1055.99	88.1745
1057.63	87.7002
1059.28	86.3778
1060.92	84.4089
1062.57	81.8509
1064.21	79.9275
1065.85	76.9114
1067.5	74.6612
1069.14	70.5151
1070.78	66.859
1072.43	63.1474
1074.07	59.0215
1075.71	53.9279
1077.35	49.3171
1078.99	45.1906
1080.63	40.1063
1082.27	36.202
1083.91	31.1918
1085.55	27.4384
1087.19	23.4399
1088.83	20.2718
1090.47	18.1689
1092.11	17.8095
1093.75	17.1308
1095.39	18.0714
1097.03	17.7537
1098.66	18.0489
1100.3	18.3461
1101.94	19.2214
1103.57	20.5865
1105.21	20.9737
1106.84	20.9505
1108.48	20.0706
1110.11	20.1908
1111.75	19.3094
1113.38	18.223
1115.02	14.7713
1116.65	12.477
1118.29	12.49
1119.92	11.7592
1121.55	11.456
1123.19	11.3608
1124.82	11.04
1126.45	9.98067
1128.08	10.7649
1129.71	11.4393
1131.34	11.0031
1132.97	10.0401
1134.6	8.91004
1136.23	10.0124
1137.86	10.2296
1139.49	8.71488
1141.12	8.40075
1142.75	7.90206
1144.38	7.27725
1146.01	7.18263
1147.64	6.6924
1149.26	6.29819
1150.89	5.43085
1152.52	5.33119
1154.15	5.64947
1155.77	4.65814
1157.4	4.27808
1159.02	4.54267
1160.65	5.97493
1162.27	4.58769
1163.9	3.88302
1165.52	3.80313
1167.15	3.39979
1168.77	5.21547
1170.39	5.09664
1172.02	6.14688
1173.64	6.9775
1175.26	7.43784
1176.89	7.57353
1178.51	7.20537
1180.13	8.55905
1181.75	10.7352
1183.37	13.2493
1184.99	13.9761
1186.61	14.6066
1188.23	16.2717
1189.85	17.9902
1191.47	19.5239
1193.09	20.9835
1194.71	22.4722
1196.33	24.581
1197.94	28.4206
1199.56	31.3497
1201.18	34.5811
1202.8	39.3652
1204.41	42.5244
1206.03	45.8359
1207.65	48.2869
1209.26	51.1745
1210.88	54.6962
1212.49	57.3941
1214.11	60.8363
1215.72	64.8315
1217.34	67.1473
1218.95	69.3496
1220.57	70.8086
1222.18	73.5199
1223.79	76.3143
1225.41	79.83
1227.02	82.2068
1228.63	85.0776
1230.24	87.4877
1231.85	89.0682
1233.47	91.3283
1235.08	92.0034
1236.69	91.6515
1238.3	91.8596
1239.91	92.6397
1241.52	93.1414
1243.13	90.7847
1244.74	91.7586
1246.34	92.9171
1247.95	93.1107
1249.56	95.2561
1251.17	94.5075
1252.78	95.3238
1254.38	95.5948
1255.99	94.41
1257.6	94.2842
1259.2	93.4089
1260.81	94.4209
1262.42	94.1111
1264.02	93.8814
1265.63	93.9797
1267.23	95.9851
1268.84	97.3691
1270.44	98.2949
1272.04	99.3687
1273.65	99.7241
1275.25	100.315
1276.85	102.484
1278.46	103.702
1280.06	105.366
1281.66	106.9
1283.26	108.895
1284.86	110.34
1286.46	110.689
1288.07	112.234
1289.67	113.305
1291.27	115.565
1292.87	117.075
1294.47	118.998
1296.06	120.26
1297.66	121.276
1299.26	123.661
1300.86	125.25
1302.46	126.726
1304.06	128.789
1305.65	130.635
1307.25	131.356
1308.85	133.173
1310.44	135.542
1312.04	136.947
1313.64	138.337
1315.23	137.275
1316.83	138.869
1318.42	140.936
1320.02	141.23
1321.61	140.92
1323.2	140.945
1324.8	143.054
1326.39	143.287
1327.99	142.619
1329.58	142.456
1331.17	140.575
1332.76	139.744
1334.36	137.665
1335.95	136.463
1337.54	135.663
1339.13	135.222
1340.72	135.994
1342.31	136.192
1343.9	136.706
1345.49	135.853
1347.08	134.611
1348.67	132.488
1350.26	129.963
1351.85	127.616
1353.43	125.824
1355.02	125.161
1356.61	123.069
1358.2	120.982
1359.78	120.072
1361.37	118.586
1362.96	117.545
1364.54	114.193
1366.13	111.565
1367.71	109.056
1369.3	106.405
1370.88	105.012
1372.47	102.382
1374.05	99.854
1375.64	97.5106
1377.22	95.6692
1378.8	94.0146
1380.39	92.6563
1381.97	91.3223
1383.55	90.8009
1385.13	90.9222
1386.72	90.2651
1388.3	88.4507
1389.88	88.0381
1391.46	86.7791
1393.04	85.6556
1394.62	83.8056
1396.2	84.2688
1397.78	82.6939
1399.36	79.92
1400.94	79.9271
1402.52	80.6017
1404.1	81.44
1405.68	80.8605
1407.25	81.9543
1408.83	84.0948
1410.41	87.0392
1411.98	91.2387
1413.56	94.1594
1415.14	100.556
1416.71	105.092
1418.29	110.805
1419.87	116.501
1421.44	122.801
1423.02	128.095
1424.59	134.54
1426.16	140.787
1427.74	146.68
1429.31	154.266
1430.89	161.659
1432.46	168.208
1434.03	173.763
1435.6	179.173
1437.18	184.902
1438.75	189.606
1440.32	194.256
1441.89	196.957
1443.46	198.61
1445.03	201.5
1446.6	201.298
1448.17	203.862
1449.74	203.453
1451.31	202.786
1452.88	202.298
1454.45	200.829
1456.02	199.147
1457.59	196.508
1459.16	193.552
1460.72	189.324
1462.29	185.333
1463.86	181.208
1465.43	173.938
1466.99	167.46
1468.56	161.731
1470.13	155.07
1471.69	147.889
1473.26	141.072
1474.82	134.849
1476.38	125.65
1477.95	119.535
1479.51	114.842
1481.08	109.545
1482.64	103.749
1484.2	99.0531
1485.77	94.9672
1487.33	91.286
1488.89	88.5929
1490.46	86.4034
1492.02	83.1298
1493.58	81.7157
1495.14	78.2771
1496.7	76.0311
1498.26	74.3885
1499.82	71.6714
1501.38	70.1749
1502.94	68.7144
1504.5	66.9583
1506.06	66.5739
1507.62	66.8092
1509.18	64.6939
1510.73	62.5398
1512.29	61.951
1513.85	60.8667
1515.41	60.4475
1516.96	60.949
1518.52	61.5563
1520.08	60.3341
1521.63	61.1288
1523.19	60.5381
1524.75	60.6411
1526.3	61.6257
1527.85	59.7494
1529.41	60.5375
1530.96	61.2475
1532.52	61.2159
1534.07	60.8881
1535.62	61.1096
1537.18	61.2909
1538.73	62.0486
1540.28	62.5315
1541.84	63.1074
1543.39	62.4877
1544.94	64.6653
1546.49	66.361
1548.04	67.4149
1549.59	68.7431
1551.14	68.6159
1552.69	68.4085
1554.25	68.7373
1555.79	72.1094
1557.34	74.1485
1558.89	75.6445
1560.44	76.8296
1561.99	79.1358
1563.54	81.3418
1565.08	83.4474
1566.63	85.4204
1568.18	87.1131
1569.73	86.4672
1571.27	88.0386
1572.82	89.6141
1574.37	91.85
1575.91	93.743
1577.46	95.4717
1579	98.0513
1580.55	100.094
1582.09	101.351
1583.64	103.554
1585.18	104.338
1586.73	105.284
1588.27	107.603
1589.81	109.596
1591.35	111.556
1592.9	113.911
1594.44	115.061
1595.98	115.119
1597.52	116.02
1599.06	116.384
1600.61	115.305
1602.15	116.454
1603.69	115.318
1605.23	115.894
1606.77	116.145
1608.31	115.343
1609.85	113.366
1611.39	112.453
1612.93	112.72
1614.46	113.198
1616	112.806
1617.54	112.046
1619.08	112.343
1620.61	112.973
1622.15	113.7
1623.69	112.905
1625.23	112.028
1626.76	112.052
1628.3	112.886
1629.83	114.555
1631.37	116.494
1632.9	118.858
1634.44	118.853
1635.97	119.704
1637.51	121.134
1639.04	122.712
1640.57	124.02
1642.11	124.884
1643.64	128.045
1645.17	129.935
1646.71	131.783
1648.24	135.061
1649.77	137.272
1651.3	137.901
1652.83	139.455
1654.36	140.134
1655.89	140.811
1657.42	140.473
1658.96	140.675
1660.48	140.498
1662.01	139.843
1663.54	139.276
1665.07	137.463
1666.6	136.614
1668.13	135.752
1669.66	132.297
1671.19	130.686
1672.71	128.171
1674.24	125.318
1675.77	119.296
1677.29	116.001
1678.82	111.229
1680.35	106.136
1681.87	101.43
1683.4	96.2599
1684.92	92.2722
1686.45	87.6409
1687.97	83.401
1689.5	79.3315
1691.02	74.769
1692.54	69.4033
1694.07	64.5767
1695.59	61.2871
1697.11	58.2485
1698.64	52.9904
1700.16	48.5549
1701.68	44.6437
1703.2	41.1766
1704.72	38.2058
1706.25	35.3285
1707.77	31.5712
1709.29	27.5635
1710.81	23.2636
1712.33	21.3451
1713.85	18.3264
1715.37	17.0016
1716.89	15.6096
1718.41	15.2108
1719.92	14.8421
1721.44	12.3241
1722.96	11.1351
1724.48	10.2185
1725.99	9.31559
1727.51	7.80974
1729.03	7.82456
1730.55	6.37185
1732.06	6.02757
1733.58	5.01026
1735.09	5.33701
1736.61	4.41928
1738.13	5.61978
1739.64	5.50342
1741.15	5.50788
1742.67	5.938
1744.18	4.91466
1745.7	3.93663
1747.21	4.16115
1748.72	3.14978
1750.24	1.93243
1751.75	0.826941
1753.26	1.699
1754.77	1.32503
1756.29	2.84278
1757.8	3.92874
1759.31	5.18151
1760.82	5.71741
1762.33	4.84376
1763.84	4.69419
1765.35	5.14734
1766.86	5.68335
1768.37	5.73192
1769.88	5.71865
1771.39	6.81322
1772.9	5.86439
1774.4	4.25119
1775.91	4.51401
1777.42	4.21578
1778.93	4.17507
1780.44	3.64668
1781.94	4.14644
1783.45	2.40013
1784.96	2.28085
1786.46	2.27307
1787.97	2.22691
1789.47	2.88269
1790.98	3.06755
1792.48	2.45217
1793.99	2.50855
1795.49	1.99201
1797	1.7941
1798.5	2.43071
1800.01	2.16587
1801.51	1.66673
1803.01	1.33542
1804.51	1.79081
1806.02	1.61546
1807.52	2.27159
1809.02	2.73739
1810.52	3.33566
1812.02	3.8252
1813.52	3.8781
1815.02	3.62195
1816.53	3.34652
1818.03	2.85139
1819.52	2.83113
1821.02	3.41955
1822.52	3.9643
1824.02	4.81581
1825.52	5.17973
1827.02	6.23434
1828.52	7.0051
1830.02	7.78456
1831.51	8.46779
1833.01	8.5379
1834.51	8.56702
1836.01	8.46349
1837.5	8.13067
1839	8.35635
1840.49	8.88867
1841.99	9.50651
1843.49	8.87499
1844.98	8.70858
1846.48	9.13041
1847.97	8.74344
1849.47	9.47184
1850.96	10.2164
1852.45	10.487
1853.95	11.3001
1855.44	11.3287
1856.93	11.9565
1858.42	11.0669
1859.92	11.808
1861.41	11.8509
1862.9	12.1961
1864.39	11.777
1865.88	11.1999
1867.38	11.4186
1868.87	11.6866
1870.36	12.3241
1871.85	11.9251
1873.34	11.2122
1874.83	11.0227
1876.32	11.236
1877.81	11.3313
1879.29	11.1725
1880.78	10.5307
1882.27	10.7738
1882.53	10.1046
1884.03	9.06002
1885.52	8.72524
1887.01	8.96433
1888.51	8.72008
1890	8.68732
1891.5	8.69128
1892.99	9.19199
1894.48	9.21337
1895.97	9.01716
1897.47	8.80572
1898.96	8.47289
1900.45	7.03225
1901.94	6.02758
1903.43	5.93065
1904.92	5.44982
1906.41	5.58121
1907.9	5.58616
1909.39	5.50017
1910.88	5.76951
1912.37	6.26295
1913.86	6.42926
1915.35	6.29005
1916.84	7.13142
1918.33	7.92704
1919.81	8.74464
1921.3	8.70304
1922.79	9.6034
1924.28	9.9098
1925.76	10.318
1927.25	10.2909
1928.73	9.61195
1930.22	10.3952
1931.71	10.5434
1933.19	10.7255
1934.68	10.08
1936.16	9.41368
1937.65	8.41126
1939.13	8.19423
1940.62	8.44761
1942.1	7.95762
1943.58	7.49628
1945.07	6.8208
1946.55	6.20251
1948.03	6.56491
1949.51	5.60415
1951	4.90545
1952.48	5.17254
1953.96	4.69457
1955.44	5.11866
1956.92	3.77558
1958.4	4.5695
1959.88	4.94736
1961.36	4.9167
1962.84	4.87479
1964.32	5.47995
1965.8	4.59221
1967.28	3.57333
1968.76	2.97343
1970.24	3.14568
1971.72	3.8037
1973.2	2.70099
1974.67	1.80535
1976.15	3.30222
1977.63	3.77683
1979.1	4.95882
1980.58	6.17305
1982.06	5.85829
1983.54	6.27485
1985.01	7.00534
1986.49	7.80642
1987.96	7.90464
1989.44	9.17198
1990.91	9.58128
1992.39	9.55468
1993.86	9.92607
1995.33	9.84831
1996.81	10.9721
1998.28	11.3488
1999.75	11.9368
2001.23	12.6644
2002.7	13.5609
2004.17	13.7456
2005.65	13.2617
2007.12	14.2065
2008.59	14.0133
2010.06	14.0525
2011.53	14.1912
2013	14.1746
2014.47	14.0952
2015.94	13.2873
2017.41	13.4365
2018.88	13.6717
2020.35	12.7034
2021.82	13.3891
2023.29	12.3927
2024.76	12.1465
2026.23	12.934
2027.69	12.2088
2029.16	12.4086
2030.63	11.7446
2032.1	13.6248
2033.56	13.0104
2035.03	13.8613
2036.5	13.3005
2037.96	12.7823
2039.43	12.1177
2040.89	12.2543
2042.36	12.235
2043.83	11.9318
2045.29	11.2311
2046.75	9.5625
2048.22	9.94658
2049.68	10.6946
2051.15	10.8547
2052.61	10.8092
2054.07	10.6811
2055.54	9.92152
2057	10.8998
2058.46	11.0488
2059.92	10.6034
2061.39	10.7709
2062.85	10.8854
2064.31	10.8277
2065.77	11.6164
2067.23	11.1578
2068.69	12.1792
2070.15	12.5574
2071.61	12.9275
2073.07	12.9463
2074.53	13.5253
2075.99	13.3193
2077.45	12.657
2078.91	12.9679
2080.37	13.3121
2081.82	11.7541
2083.28	11.1024
2084.74	10.477
2086.2	9.92182
2087.65	9.00705
2089.11	8.12185
2090.57	7.72808
2092.02	6.88246
2093.48	6.83313
2094.94	6.67146
2096.39	5.2888
2097.85	5.93549
2099.3	5.97954
2100.76	5.6372
2102.21	5.83991
2103.66	6.21029
2105.12	6.34943
2106.57	5.61756
2108.03	5.10879
2109.48	4.47521
2110.93	4.83628
2112.38	5.4712
2113.84	5.65671
2115.29	5.73392
2116.74	6.63953
2118.19	7.13468
2119.64	6.77193
2121.09	7.86815
2122.54	8.32672
2123.99	8.75812
2125.45	9.41089
2126.89	10.5087
2128.34	10.5802
2129.79	10.5897
2131.24	10.1072
2132.69	10.5434
2134.14	10.8904
2135.59	10.9846
2137.04	12.2977
2138.48	11.7098
2139.93	11.3149
2141.38	12.6003
2142.83	11.8661
2144.27	11.74
2145.72	11.7493
2147.17	12.4489
2148.61	11.8031
2150.06	11.829
2151.5	10.5719
2152.95	10.78
2154.39	10.5972
2155.84	10.1416
2157.28	9.58645
2158.73	8.52513
2160.17	7.1968
2161.61	6.17281
2163.06	6.51435
2164.5	5.80058
2165.94	6.3119
2167.38	4.59201
2168.83	4.03714
2170.27	4.71158
2171.71	4.54656
2173.15	4.85758
2174.59	4.89416
2176.03	4.88258
2177.47	4.62373
2178.91	5.66254
2180.36	5.11913
2181.8	6.60183
2183.23	6.92445
2184.67	7.34472
2186.11	8.02623
2187.55	8.49172
2188.99	8.81616
2190.43	8.06829
2191.87	7.31151
2193.3	7.43824
2194.74	7.23105
2196.18	7.03987
2197.62	7.27323
2199.05	6.65286
2200.49	6.43408
2201.93	5.36495
2203.36	5.93225
2204.8	6.04453
2206.23	6.79551
2207.67	7.5979
2209.1	7.41671
2210.54	6.41454
2211.97	6.40566
2213.41	6.74959
2214.84	6.74076
2216.27	8.1729
2217.71	8.41042
2219.14	8.10678
2220.57	8.06896
2222.01	9.53317
2223.44	10.1338
2224.87	11.6131
2226.3	11.9617
2227.73	11.6526
2229.16	11.3005
2230.6	11.3136
2232.03	12.7401
2233.46	12.4806
2234.89	13.8498
2236.32	13.7878
2237.75	13.2428
2239.18	13.0321
2240.61	14.5595
2242.03	15.5335
2243.46	15.7158
2244.89	15.6456
2246.32	16.0297
2247.75	16.461
2249.17	17.4454
2250.6	18.2603
2252.03	18.0325
2253.46	18.4932
2254.88	18.7251
2256.31	19.1946
2257.73	20.1515
2259.16	19.3499
2260.59	18.3736
2262.01	17.8632
2263.44	17.6355
2264.86	16.9945
2266.29	17.7374
2267.71	16.4864
2269.14	15.8077
2270.56	15.282
2271.98	14.7272
2273.4	14.5158
2274.83	14.668
2276.25	13.4515
2277.67	13.4428
2279.09	11.83
2280.52	10.2837
2281.94	9.45683
2283.36	9.11241
2284.78	10.0318
2286.2	11.068
2287.62	10.5232
2289.04	8.29086
2290.46	7.9587
2291.88	7.7115
2293.3	7.78343
2294.72	7.09722
2296.14	6.52888
2297.56	6.90411
2298.98	5.91585
2300.4	6.05493
2301.82	6.00071
2303.23	6.51226
2304.65	5.21068
2306.07	4.97701
2307.49	5.1936
2308.9	5.06725
2310.32	5.95766
2311.73	7.29202
2313.15	6.92029
2314.57	6.30482
2315.98	5.59439
2317.4	5.70401
2318.81	5.82321
2320.23	6.33126
2321.64	5.77391
2323.06	4.58823
2324.47	5.3053
2325.88	6.14426
2327.3	6.42837
2328.71	6.42312
2330.12	5.88927
2331.54	6.17392
2332.95	6.59894
2334.36	6.29664
2335.77	5.95897
2337.18	5.78411
2338.6	4.86573
2340.01	5.92605
2341.42	5.97561
2342.83	5.13674
2344.24	4.98532
2345.65	4.44707
2347.06	4.70708
2348.47	4.55929
2349.88	3.75763
2351.29	3.30407
2352.7	3.41255
2354.1	3.6128
2355.51	3.77929
2356.92	3.14077
2358.33	2.08571
2359.74	1.94488
2361.14	3.03124
2362.55	2.99383
2363.96	3.46403
2365.36	3.94334
2366.77	4.25704
2368.18	4.53285
2369.58	4.10347
2370.99	4.93459
2372.39	5.44371
2373.8	5.91009
2375.2	4.91851
2376.61	5.11082
2378.01	6.2223
2379.42	5.72823
2380.82	6.08859
2382.22	5.80583
2383.63	4.9363
2385.03	4.36734
2386.43	3.74059
2387.84	3.59394
2389.24	3.37515
2390.64	2.85037
2392.04	1.45348
2393.44	1.73189
2394.84	2.84744
2396.25	2.61691
2397.65	2.13508
2399.05	2.11911
2400.45	1.46022
2401.85	2.23369
2403.25	1.78687
2404.65	1.74545
2406.05	2.15614
2407.45	1.04089
2408.84	0.841184
2410.24	0.210724
2411.64	-0.326985
2413.04	-0.0619381
2414.44	0.67673
2415.83	1.36605
2417.23	2.02111
2418.63	2.18127
2420.02	2.47629
2421.42	2.42342
2422.82	3.29618
2424.21	3.57839
2425.61	3.20527
2427	3.8632
2428.4	4.0003
2429.8	5.07385
2431.19	5.25128
2432.58	5.41581
2433.98	5.10082
2435.37	5.59172
2436.77	6.13302
2438.16	6.54855
2439.55	7.36018
2440.95	7.983
2442.34	8.27024
2443.73	7.83719
2445.12	7.53665
2446.51	8.43903
2447.91	8.04968
2449.3	8.35183
2450.69	8.31649
2452.08	7.39422
2453.47	7.85064
2454.86	6.60404
2456.25	5.48256
2457.64	5.12422
2459.03	5.21067
2460.42	5.07272
2461.81	5.54831
2463.2	6.08961
2464.59	5.56392
2465.98	5.41247
2467.36	4.55298
2468.75	4.25917
2470.14	3.41779
2471.53	3.22746
2472.92	2.67797
2474.3	3.13894
2475.69	2.90484
2477.08	1.56789
2478.46	2.28724
2479.85	2.95207
2481.23	3.28132
2482.62	3.13351
2484	3.30007
2485.39	3.3761
2486.77	3.32141
2488.16	3.22077
2489.54	3.30999
2490.93	3.41149
2492.31	3.78153
2493.69	3.73222
2495.08	3.7666
2496.46	4.85512
2497.84	4.16274
2499.23	4.81793
2500.61	4.10982
2501.99	4.62647
2503.37	4.11641
2504.75	5.3355
2506.13	5.82013
2507.52	6.1689
2508.9	6.53343
2510.28	6.43543
2511.66	5.62372
2513.04	6.36823
2514.42	6.39223
2515.8	6.19155
2517.18	6.04207
2518.55	6.96803
2519.93	6.86512
2521.31	6.26247
2522.69	6.33215
2524.07	5.53941
2525.45	6.42562
2526.82	7.28647
2528.2	6.98962
2529.58	7.04546
2530.95	6.0774
2532.33	5.81939
2533.71	5.073
2535.08	4.96296
2536.46	4.65251
2537.84	4.40921
2539.21	4.25662
2540.59	4.30646
2541.96	5.05008
2543.34	4.99452
2544.71	3.94228
2546.08	3.6758
2547.46	3.9526
2548.83	3.95512
2550.2	3.972
2551.58	4.24185
2552.95	4.56008
2554.32	5.3641
2555.7	5.50097
2557.07	6.81705
2558.44	7.03943
2559.81	6.47925
2561.18	6.37561
2562.55	6.6643
2563.93	6.42153
2565.3	6.68567
2566.67	6.81499
2568.04	7.76872
2569.41	8.32963
2570.78	9.1924
2572.15	9.57655
2573.51	9.59266
2574.88	10.6267
2576.25	10.5463
2577.62	9.93771
2578.99	9.8978
2580.36	10.1422
2581.73	11.5762
2583.09	10.7875
2584.46	10.9563
2585.83	11.0694
2587.19	10.9209
2588.56	10.5992
2589.93	10.1722
2591.29	10.2939
2592.66	9.79229
2594.02	9.67129
2595.39	8.67576
2596.75	7.71437
2598.12	7.59909
2599.48	7.16894
2600.85	7.52923
2602.21	6.33049
2603.58	6.87589
2604.94	6.08723
2606.3	5.63167
2607.67	5.62741
2609.03	5.24535
2610.39	5.1305
2611.76	4.32572
2613.12	4.68339
2614.48	5.67874
2615.84	5.67528
2617.2	5.99936
2618.56	6.23489
2619.92	6.60275
2621.28	6.8887
2622.65	6.4072
2624.01	6.59887
2625.37	7.60874
2626.72	7.22541
2628.08	7.46934
2629.44	7.85958
2630.8	8.50827
2632.16	9.53754
2633.52	9.84373
2634.88	10.2853
2636.24	10.9668
2637.59	11.6144
2638.95	11.653
2640.31	11.9701
2641.67	12.8836
2643.02	14.5253
2644.38	14.3852
2645.74	15.0795
2647.09	15.9916
2648.45	16.897
2649.8	17.7113
2651.16	17.7144
2652.51	18.2491
2653.87	17.6819
2655.22	17.721
2656.58	17.5595
2657.93	17.2822
2659.29	17.2122
2660.64	17.3037
2661.99	17.5073
2663.35	18.2702
2664.7	17.6141
2666.05	17.4709
2667.41	16.6941
2668.76	16.177
2670.11	15.8755
2671.46	14.9796
2672.81	13.6972
2674.16	13.9595
2675.51	13.544
2676.87	12.6309
2678.22	12.8644
2679.57	13.1225
2680.92	13.6076
2682.27	13.4314
2683.62	13.2164
2684.97	13.2245
2686.31	13.1535
2687.66	12.4997
2689.01	12.6571
2690.36	13.1156
2691.71	14.1884
2693.06	13.1535
2694.4	13.3619
2695.75	12.9126
2697.1	13.4788
2698.45	14.0573
2699.79	14.3988
2701.14	14.5861
2702.49	15.6874
2703.83	16.1064
2705.18	16.302
2706.52	17.7291
2707.87	19.7518
2709.21	21.0006
2710.56	21.2034
2711.9	21.4414
2713.25	21.2377
2714.59	21.651
2715.94	22.6436
2717.28	21.9959
2718.62	21.4993
2719.97	21.5717
2721.31	21.264
2722.65	21.5179
2723.99	21.9681
2725.34	21.9301
2726.68	21.6195
2728.02	20.8221
2729.36	19.9844
2730.7	19.5693
2732.04	18.4626
2733.39	17.7457
2734.73	16.7987
2736.07	16.0173
2737.41	15.2639
2738.75	14.3511
2740.08	13.735
2741.43	13.0364
2742.76	12.3516
2744.1	11.4632
2745.44	12.2555
2746.78	11.7845
2748.12	11.4012
2749.46	11.2105
2750.79	11.1591
2752.13	10.1647
2753.47	10.0419
2754.81	9.41728
2756.14	9.52161
2757.48	8.62177
2758.81	7.67812
2760.15	6.58885
2761.49	7.61354
2762.82	7.11656
2764.16	7.45198
2765.49	6.64293
2766.83	7.00063
2768.16	6.96066
2769.5	6.69813
2770.83	5.75238
2772.16	5.70136
2773.5	6.36848
2774.83	5.77973
2776.17	4.3034
2777.5	3.82014
2778.83	3.71794
2780.16	3.04176
2781.5	2.91306
2782.83	3.00486
2784.16	2.46511
2785.49	2.22356
2786.82	2.04309
2788.15	1.67485
2789.49	2.19042
2790.82	2.81058
2792.15	2.11853
2793.48	1.87191
2794.81	1.76126
2796.14	1.63804
2797.46	1.3945
2798.79	1.18864
2800.12	0.843787
2801.45	0.272978
2802.78	-0.525533
2804.11	-0.357257
2805.44	-0.864982
2806.76	-1.73015
2808.09	-1.58131
2809.42	-1.13169
2810.75	-0.884037
2812.07	0.048134
2813.4	-0.121325
2814.73	0.538287
2816.05	1.58912
2817.38	2.58542
2818.7	3.58843
2820.03	6.07406
2821.36	7.98949
2822.68	10.5516
2824.01	13.5181
2825.33	16.2092
2826.65	18.8476
2827.98	22.3389
2829.3	24.6188
2830.63	28.0663
2831.95	31.6165
2833.27	35.5718
2834.6	39.6705
2835.92	44.5688
2837.24	48.9746
2838.56	54.5435
2839.88	60.8824
2841.21	66.4182
2842.53	73.0335
2843.85	81.0587
2845.17	88.4877
2846.49	96.1239
2847.81	103.6
2849.13	111.251
2850.45	119.499
2851.77	128.299
2853.09	136.736
2854.41	144.669
2855.73	153.667
2857.05	162.106
2858.37	168.119
2859.69	175.714
2861	182.992
2862.32	190.787
2863.64	197.695
2864.96	204.315
2866.28	210.274
2867.59	215.733
2868.91	221.256
2870.23	227.002
2871.54	231.236
2872.86	236.042
2874.17	240.451
2875.49	245.017
2876.81	249.563
2878.12	252.424
2879.44	255.631
2880.75	258.966
2882.07	262.247
2883.38	264.496
2884.69	267.141
2886.01	270.321
2887.32	272.555
2888.63	275.796
2889.95	277.958
2891.26	279.748
2892.57	281.352
2893.89	283.549
2895.2	286.667
2896.51	290.614
2897.82	294.308
2899.13	298.938
2900.44	305.486
2901.76	310.898
2903.07	315.777
2904.38	322.169
2905.69	328.263
2907	334.671
2908.31	342.503
2909.62	350.394
2910.93	357.895
2912.24	365.409
2913.55	372.715
2914.85	380.314
2916.16	388.138
2917.47	394.585
2918.78	400.594
2920.09	406.345
2921.4	412.104
2922.7	416.317
2924.01	419.856
2925.32	423.374
2926.62	426.014
2927.93	427.695
2929.24	427.349
2930.54	426.911
2931.85	425.911
2933.15	423.83
2934.46	420.541
2935.76	417.398
2937.07	413.315
2938.37	409.221
2939.68	403.142
2940.98	397.352
2942.29	390.629
2943.59	384.005
2944.89	377.558
2946.2	370.1
2947.5	361.596
2948.8	353.52
2950.11	345.425
2951.41	337.185
2952.71	327.719
2954.01	319.269
2955.32	310.086
2956.62	301.31
2957.92	292.572
2959.22	284.62
2960.52	277.089
2961.82	269.289
2963.12	261.008
2964.42	253.476
2965.72	246.224
2967.02	237.341
2968.32	230.984
2969.62	224.87
2970.92	218.588
2972.22	212.762
2973.51	207.367
2974.81	200.951
2976.11	194.069
2977.41	187.501
2978.71	181.613
2980	174.6
2981.3	167.23
2982.6	160.086
2983.9	153.828
2985.19	146.68
2986.49	139.73
2987.78	133.293
2989.08	126.182
2990.38	118.206
2991.67	111.576
2992.97	103.902
2994.26	96.9754
2995.56	90.7237
2996.85	84.0817
2998.14	77.4447
2999.44	71.2798
3000.73	66.2227
3002.03	60.9468
3003.32	55.4005
3004.61	49.3915
3005.91	45.1216
3007.2	40.6546
3008.49	36.5765
3009.78	32.188
3011.07	27.7074
3012.37	23.7961
3013.66	20.4472
3014.95	16.9482
3016.24	14.1167
3017.53	11.4735
3018.82	9.27362
3020.11	7.12556
3021.4	4.33381
3022.69	3.15744
3023.98	1.85246
3025.27	0.691646
3026.56	0.512532
3027.85	-0.867337
3029.14	-0.858472
3030.43	-0.964633
3031.71	-1.38027
3033	-1.42792
3034.29	-2.43574
3035.58	-2.18503
3036.87	-1.78436
3038.15	-1.18274
3039.44	-1.12163
3040.73	0.486362
3042.01	1.95418
3043.3	2.81404
3044.59	2.52874
3045.87	3.93869
3047.16	5.74156
3048.44	7.66718
3049.73	8.84855
3051.01	9.11556
3052.3	10.1606
3053.58	9.85497
3054.87	10.3096
3056.15	11.3836
3057.43	11.8799
3058.72	12.3788
3060	12.2171
3061.29	12.2371
3062.57	12.4756
3063.85	11.4701
3065.13	11.4918
3066.42	11.1388
3067.7	10.3164
3068.98	10.0417
3070.26	10.206
3071.54	10.0175
3072.82	9.61711
3074.11	9.30489
3075.39	8.91053
3076.67	8.69992
3077.95	8.13497
3079.23	7.56367
3080.51	6.81736
3081.79	6.15043
3083.07	5.56007
3084.35	4.87437
3085.63	4.08863
3086.9	4.36376
3088.18	3.4871
3089.46	3.02614
3090.74	2.62982
3092.02	1.62924
3093.29	1.85133
3094.57	1.74268
3095.85	2.2536
3097.13	2.01253
3098.4	3.21322
3099.68	4.81077
3100.95	5.47753
3102.23	6.46426
3103.51	7.60036
3104.78	9.3324
3106.06	10.3108
3107.33	11.4664
3108.61	12.9786
3109.88	15.2509
3111.16	16.676
3112.43	18.2978
3113.71	19.1911
3114.98	20.1744
3116.25	21.4661
3117.53	23.0817
3118.8	25.039
3120.07	26.6361
3121.35	27.617
3122.62	28.4844
3123.89	29.6267
3125.16	31.1774
3126.44	32.0837
3127.71	33.0808
3128.98	35.7321
3130.25	37.1931
3131.52	38.9609
3132.79	40.7302
3134.06	41.8298
3135.33	43.4324
3136.6	44.4237
3137.87	45.9506
3139.14	47.0504
3140.41	47.114
3141.68	47.4425
3142.95	47.7854
3144.22	48.2736
3145.49	48.9329
3146.76	49.7475
3148.02	51.1894
3149.29	51.7058
