#Acq. time (s)=	45
#Accumulations=	2
#Range (cm-¹)=	200...3150
#Windows=	2
#Auto scanning=	Off
#Autofocus=	Off
#Macrospot=	Off
#AutoExposure=	Off
#Spike filter=	Multiple accum.
#Delay time (s)=	0
#Binning=	1
#Readout mode=	Signal
#DeNoise=	Off
#ICS correction=	On
#Dark correction=	Off
#Inst. Process=	Off
#Detector Gain=	Best Dynamic Range
#Detector ADC=	20 kHz       
#Detector temperature (°C)=	-69.85
#Instrument=	LabRAM HR Evol
#Detector=	Synapse
#Objective=	x100
#Grating=	600 gr/mm
#ND Filter=	100%
#Laser (nm)=	532 
#Hole=	100.021
#Range=	Auto
#Laser Pol.=	No
#Raman. Pol.=	No
#Laser Pol. (°)=	-0.0007625
#Raman Pol. (°)=	89.9995
#Collection=	Microscope
#StageXY=	Marzhauser
#StageZ=	Marzhauser
#X (µm)=	-1041.8
#Y (µm)=	-2886.7
#Z (µm)=	528.8
#Full time(mm:ss)=	3:18
#Project=	
#Sample=	
#Site=	
#Title=	Mb_00_13_42_2x_45s_532 nm_x100_100%_600 gr_mm
#Remark=	
#Date=	06.07.2022 13:05
#Acquired=	06.07.2022 13:05:50
#Base:Fit=	10.08.2022 10:16:56
#Base:Sub=	10.08.2022 10:17:24
#Filter:Polynom=	16.08.2022 10:36:38
#AxisType[0]=Intens
#AxisUnit[0]=Cnt
#AxisType[1]=Spectr
#AxisUnit[1]=1/cm
200.398	20.2072
202.213	18.6839
204.027	16.055
205.843	12.9727
207.657	10.1184
209.47	8.28413
211.283	6.89812
213.097	8.02596
214.909	10.6429
216.721	14.8959
218.533	19.966
220.344	28.0109
222.157	37.4103
223.967	45.4168
225.777	57.0275
227.587	66.2524
229.396	76.7566
231.205	88.6421
233.016	99.3028
234.824	106.51
236.632	115.542
238.439	122.887
240.247	129.333
242.053	135.346
243.86	140.13
245.666	145.376
247.474	151.087
249.279	156.835
251.085	161.5
252.889	164.374
254.694	166.474
256.498	169.734
258.301	171.33
260.105	171.877
261.908	172.27
263.71	171.6
265.513	170.496
267.315	168.082
269.116	165.14
270.918	161.253
272.718	154.84
274.519	148.258
276.319	142.344
278.119	135.553
279.918	127.011
281.718	118.135
283.516	108.621
285.315	99.9167
287.113	92.9629
288.911	83.7903
290.708	75.5579
292.505	67.8002
294.302	61.2058
296.098	54.8875
297.894	49.6086
299.69	44.871
301.485	40.4574
303.278	37.2405
305.073	35.0185
306.867	33.7006
308.661	31.7946
310.454	30.8895
312.247	28.895
314.04	27.1091
315.833	26.906
317.623	25.0784
319.415	25.4121
321.206	25.0205
322.997	23.3311
324.788	21.5113
326.579	21.4406
328.367	19.9981
330.156	18.97
331.946	17.6578
333.735	16.4935
335.523	15.5159
337.31	13.5249
339.098	12.2569
340.885	10.7803
342.673	9.47126
344.458	8.50984
346.244	7.25442
348.03	5.56405
349.816	3.97278
351.6	1.97168
353.385	2.19489
355.17	1.44208
356.953	-0.78962
358.737	-1.77667
360.521	-3.08031
362.304	-3.54091
364.085	-1.55538
365.868	1.85443
367.65	3.77291
369.431	6.81271
371.212	10.8023
372.994	15.5575
374.773	19.7701
376.554	25.2083
378.332	29.1427
380.112	35.4451
381.892	43.9741
383.669	52.0942
385.448	61.0413
387.225	71.0578
389.003	81.9813
390.781	91.5585
392.557	100.925
394.334	111.331
396.109	119.294
397.885	125.866
399.66	133.43
401.436	139.829
403.211	144.9
404.984	149.487
406.759	153.179
408.532	155.77
410.306	157.777
412.078	158.122
413.851	157.223
415.623	155.693
417.395	153.142
419.166	150.474
420.938	147.355
422.708	143.94
424.477	139.701
426.248	134.407
428.017	128.628
429.788	122.58
431.556	115.449
433.326	107.809
435.093	98.4865
436.86	90.3076
438.629	81.2327
440.395	72.6145
442.163	63.5913
443.929	54.2999
445.694	46.3171
447.461	39.0043
449.226	32.5115
450.99	27.9917
452.756	22.6482
454.52	16.9849
456.285	10.7058
458.048	6.30708
459.811	2.64728
461.573	-0.888096
463.337	-4.06506
465.099	-2.87093
466.86	-3.98222
468.623	-2.73361
470.384	-0.582161
472.144	0.884509
473.906	3.37686
475.666	5.25145
477.425	7.77089
479.184	8.44866
480.944	10.5149
482.703	12.6946
484.461	14.5866
486.218	16.0947
487.975	17.7293
489.734	18.1539
491.491	19.0828
493.247	21.3151
495.003	22.2622
496.759	23.1396
498.516	25.6545
500.271	26.6577
502.025	29.1228
503.779	31.9221
505.533	33.9809
507.287	37.7609
509.042	39.8778
510.795	41.5181
512.547	43.5105
514.299	43.8312
516.051	45.1641
517.803	46.9751
519.554	47.435
521.305	49.2062
523.055	51.2089
524.805	52.4283
526.555	51.9455
528.307	52.5355
530.056	52.2513
531.805	53.5538
533.553	52.7304
535.301	52.1366
537.049	50.9684
538.797	50.3947
540.544	48.0598
542.291	47.1059
544.037	45.2682
545.783	43.2332
547.529	40.8922
549.275	38.7325
551.02	36.7444
552.765	36.0908
554.509	32.4379
556.253	31.4307
557.997	30.3811
559.738	28.8384
561.482	27.3791
563.224	25.0658
564.967	23.4676
566.709	21.2052
568.451	19.6009
570.192	18.6995
571.933	16.4207
573.674	15.1215
575.415	13.1966
577.153	11.4326
578.893	10.6129
580.632	10.1886
582.371	8.55582
584.11	7.76424
585.849	8.20332
587.587	7.69731
589.323	7.44805
591.06	7.33052
592.797	5.73374
594.534	4.85803
596.271	3.99103
598.005	3.93861
599.741	5.09871
601.476	5.23035
603.211	6.9399
604.944	8.64825
606.679	8.30224
608.413	9.11462
610.147	9.02286
611.878	8.71939
613.611	7.72913
615.344	9.01405
617.077	8.502
618.807	10.2893
620.539	9.64701
622.27	10.3275
623.999	10.4791
625.73	11.9853
627.461	14.0795
629.189	16.2399
630.919	18.3106
632.648	20.0136
634.376	21.8282
636.105	24.1107
637.833	25.8656
639.559	28.3342
641.287	29.8324
643.013	31.954
644.74	31.1092
646.467	31.1813
648.192	31.6399
649.918	32.6901
651.642	33.2494
653.368	34.1815
655.091	34.9151
656.816	35.6237
658.538	34.3726
660.263	34.4881
661.987	33.0187
663.708	31.729
665.432	30.6796
667.153	29.7975
668.875	28.4355
670.596	27.6149
672.318	26.9827
674.037	25.6495
675.759	24.3683
677.478	23.47
679.196	20.5235
680.917	19.4186
682.635	18.9697
684.355	18.1475
686.072	16.6873
687.791	14.3047
689.508	12.0289
691.224	10.227
692.942	7.93675
694.658	7.10665
696.376	6.75889
698.091	5.80975
699.805	3.77288
701.522	4.69555
703.236	2.56932
704.95	2.40524
706.665	2.47299
708.379	2.59332
710.093	2.77745
711.806	4.17316
713.518	5.39044
715.23	5.03635
716.943	5.61883
718.655	6.31863
720.366	7.36955
722.078	8.50962
723.788	9.12405
725.498	9.12086
727.208	9.89892
728.919	8.73271
730.628	8.58601
732.337	8.563
734.045	9.39168
735.755	10.6016
737.463	10.9088
739.17	11.6811
740.877	12.0076
742.584	11.9625
744.292	11.3964
745.998	12.3145
747.704	13.0876
749.409	15.0132
751.114	16.5143
752.819	19.0977
754.526	21.263
756.23	22.5925
757.934	23.3874
759.637	24.7796
761.34	24.673
763.043	24.481
764.746	24.2488
766.448	25.0121
768.152	25.3212
769.853	24.7902
771.554	24.1341
773.255	25.6878
774.956	26.6965
776.656	27.1765
778.356	28.0777
780.056	29.0709
781.755	27.9242
783.454	28.253
785.153	28.3745
786.851	30.0197
788.549	29.907
790.247	31.6839
791.944	32.6008
793.641	32.0747
795.338	32.4702
797.034	32.6563
798.73	32.5266
800.426	31.6989
802.121	31.8021
803.817	31.8375
805.511	30.0978
807.206	30.5952
808.9	30.8357
810.592	31.1346
812.286	31.6333
813.979	30.9714
815.672	31.53
817.364	31.2156
819.057	33.5102
820.748	33.7804
822.44	34.3016
824.129	34.3661
825.82	35.0227
827.511	36.2518
829.201	36.8394
830.891	38.4487
832.581	38.5455
834.269	38.8249
835.958	37.6928
837.646	37.3136
839.335	37.0698
841.023	35.0918
842.709	33.3884
844.396	32.7327
846.084	30.6474
847.77	29.9815
849.455	28.3585
851.141	27.6791
852.827	26.4983
854.513	24.4281
856.196	22.84
857.881	22.079
859.566	21.0341
861.248	19.4383
862.932	18.964
864.616	17.5893
866.297	15.442
867.98	16.2373
869.663	14.759
871.343	13.6019
873.026	11.8599
874.707	11.1644
876.387	9.15817
878.068	8.04716
879.747	7.71638
881.428	6.64627
883.108	6.78037
884.786	5.47649
886.465	6.15652
888.143	6.07314
889.822	6.2162
891.498	8.72591
893.177	8.51456
894.855	8.74991
896.53	8.3196
898.208	8.04892
899.883	7.99356
901.56	7.85321
903.234	8.14632
904.91	7.77322
906.584	7.24238
908.26	7.088
909.933	6.51076
911.608	6.30607
913.28	5.6772
914.955	5.4633
916.627	5.2423
918.298	4.91133
919.972	4.43626
921.643	5.37007
923.315	4.86584
924.986	4.63131
926.656	5.37161
928.328	6.30995
929.997	6.90457
931.668	5.76747
933.337	5.33071
935.006	5.40855
936.676	4.64326
938.344	3.85187
940.012	3.83947
941.681	4.91646
943.348	5.74182
945.014	4.67127
946.683	4.02182
948.349	4.15258
950.015	4.03565
951.682	3.93348
953.347	4.64179
955.012	4.29651
956.676	3.8451
958.343	3.30188
960.006	2.28359
961.67	2.70393
963.333	4.33013
964.998	5.93274
966.661	7.19061
968.323	9.23371
969.985	11.72
971.649	13.0502
973.31	15.1685
974.971	17.7298
976.632	20.3125
978.293	22.8691
979.953	23.7739
981.615	25.5031
983.274	26.2385
984.933	27.2027
986.592	29.3217
988.251	30.667
989.909	32.7448
991.567	35.197
993.225	37.0026
994.884	39.1428
996.541	42.1665
998.198	42.8312
999.855	43.0646
1001.51	42.839
1003.17	44.3038
1004.82	44.4195
1006.48	43.8736
1008.13	44.1432
1009.79	42.9724
1011.44	43.2118
1013.1	42.1805
1014.75	42.3585
1016.4	46.0238
1018.06	50.9883
1019.71	56.5819
1021.36	62.9313
1023.01	70.8486
1024.66	77.5556
1026.32	85.5818
1027.97	92.8992
1029.62	99.5241
1031.27	106.424
1032.92	112.313
1034.57	117.114
1036.22	123.321
1037.87	125.409
1039.52	128.666
1041.16	132.228
1042.81	135.072
1044.46	138.671
1046.11	140.644
1047.76	142.502
1049.4	143.275
1051.05	143.951
1052.7	142.849
1054.34	141.454
1055.99	139.773
1057.63	138.094
1059.28	136.42
1060.92	131.957
1062.57	127.643
1064.21	124.168
1065.85	118.119
1067.5	114.293
1069.14	108.21
1070.78	101.612
1072.43	95.5983
1074.07	88.6547
1075.71	81.1983
1077.35	72.4927
1078.99	64.116
1080.63	52.7258
1082.27	43.6154
1083.91	35.0603
1085.55	27.3579
1087.19	18.1366
1088.83	11.1638
1090.47	5.5367
1092.11	2.6284
1093.75	1.38879
1095.39	0.338392
1097.03	1.4343
1098.66	3.83932
1100.3	5.92895
1101.94	8.14273
1103.57	10.2117
1105.21	11.248
1106.84	11.1207
1108.48	13.3734
1110.11	13.5589
1111.75	12.9866
1113.38	11.4723
1115.02	11.4848
1116.65	10.4967
1118.29	9.6448
1119.92	9.05862
1121.55	8.1214
1123.19	7.80799
1124.82	7.2653
1126.45	7.37437
1128.08	7.67044
1129.71	8.27888
1131.34	7.55797
1132.97	6.76142
1134.6	5.88695
1136.23	6.26494
1137.86	7.55522
1139.49	9.89452
1141.12	10.3978
1142.75	9.75144
1144.38	10.1799
1146.01	10.3317
1147.64	9.78331
1149.26	9.52514
1150.89	9.1678
1152.52	9.75603
1154.15	10.2798
1155.77	9.58858
1157.4	7.84537
1159.02	6.85797
1160.65	6.61124
1162.27	5.5745
1163.9	5.65595
1165.52	5.09454
1167.15	5.37601
1168.77	6.42311
1170.39	7.17035
1172.02	8.50264
1173.64	10.6076
1175.26	10.8508
1176.89	12.4922
1178.51	12.8391
1180.13	14.3373
1181.75	15.5405
1183.37	16.2325
1184.99	16.6778
1186.61	17.1188
1188.23	18.5859
1189.85	19.0793
1191.47	19.17
1193.09	19.067
1194.71	19.8018
1196.33	21.3646
1197.94	22.1013
1199.56	23.6884
1201.18	26.6868
1202.8	27.7615
1204.41	30.8573
1206.03	33.1569
1207.65	35.6972
1209.26	39.172
1210.88	41.0662
1212.49	43.5755
1214.11	46.8967
1215.72	50.4524
1217.34	55.341
1218.95	59.06
1220.57	62.4023
1222.18	63.8731
1223.79	66.1891
1225.41	69.0673
1227.02	73.2664
1228.63	76.0048
1230.24	77.798
1231.85	81.3032
1233.47	82.45
1235.08	85.1682
1236.69	86.1909
1238.3	86.9655
1239.91	88.1168
1241.52	89.5132
1243.13	91.2007
1244.74	92.6579
1246.34	93.2612
1247.95	94.1099
1249.56	95.2378
1251.17	94.3388
1252.78	95.4556
1254.38	95.6608
1255.99	93.5566
1257.6	93.3992
1259.2	91.086
1260.81	89.695
1262.42	89.2013
1264.02	86.4466
1265.63	85.9588
1267.23	84.3674
1268.84	82.6184
1270.44	81.0549
1272.04	81.0121
1273.65	79.8196
1275.25	80.457
1276.85	80.3534
1278.46	82.1763
1280.06	82.8879
1281.66	84.0625
1283.26	85.2208
1284.86	85.9425
1286.46	87.4472
1288.07	89.0395
1289.67	90.6935
1291.27	92.5597
1292.87	96.2265
1294.47	99.469
1296.06	101.836
1297.66	104.266
1299.26	106.566
1300.86	108.901
1302.46	110.669
1304.06	113.476
1305.65	116.564
1307.25	119.801
1308.85	120.933
1310.44	123.776
1312.04	125.434
1313.64	127.07
1315.23	129.259
1316.83	129.348
1318.42	130.431
1320.02	131.571
1321.61	132.646
1323.2	133.738
1324.8	131.791
1326.39	131.993
1327.99	131.978
1329.58	131.599
1331.17	130.164
1332.76	130.077
1334.36	128.274
1335.95	127.734
1337.54	126.986
1339.13	124.559
1340.72	122.576
1342.31	121.378
1343.9	118.9
1345.49	117.058
1347.08	115.061
1348.67	113.068
1350.26	111.991
1351.85	110.886
1353.43	109.565
1355.02	107.464
1356.61	104.738
1358.2	102.16
1359.78	99.0944
1361.37	96.9249
1362.96	94.3249
1364.54	90.8795
1366.13	89.0621
1367.71	87.8684
1369.3	86.4621
1370.88	85.1615
1372.47	83.5843
1374.05	80.6034
1375.64	78.3821
1377.22	78.0737
1378.8	76.8561
1380.39	76.0899
1381.97	74.7126
1383.55	74.4339
1385.13	73.9109
1386.72	73.4403
1388.3	73.7754
1389.88	73.1418
1391.46	71.1947
1393.04	71.2833
1394.62	70.7816
1396.2	69.3073
1397.78	68.7839
1399.36	68.1859
1400.94	67.7287
1402.52	69.6155
1404.1	70.6592
1405.68	74.0276
1407.25	76.3664
1408.83	79.9148
1410.41	83.7863
1411.98	89.61
1413.56	94.8954
1415.14	100.014
1416.71	103.501
1418.29	109.184
1419.87	116.203
1421.44	123.169
1423.02	130.253
1424.59	137.234
1426.16	144.881
1427.74	150.321
1429.31	156.847
1430.89	163.606
1432.46	169.789
1434.03	173.586
1435.6	180.582
1437.18	185.805
1438.75	190.336
1440.32	194.131
1441.89	197.639
1443.46	200.402
1445.03	204.679
1446.6	207.384
1448.17	207.734
1449.74	208.685
1451.31	208.873
1452.88	207.588
1454.45	206.885
1456.02	204.648
1457.59	201.432
1459.16	198.58
1460.72	193.267
1462.29	189.248
1463.86	183.558
1465.43	177.564
1466.99	171.524
1468.56	162.951
1470.13	155.808
1471.69	147.518
1473.26	140.456
1474.82	132.377
1476.38	125.453
1477.95	118.988
1479.51	112.672
1481.08	107.331
1482.64	100.426
1484.2	95.9231
1485.77	90.3375
1487.33	85.2805
1488.89	80.486
1490.46	76.6218
1492.02	71.4174
1493.58	66.4335
1495.14	62.9443
1496.7	61.0417
1498.26	58.0383
1499.82	55.6082
1501.38	52.8834
1502.94	50.2863
1504.5	48.7852
1506.06	48.001
1507.62	47.6335
1509.18	48.0737
1510.73	47.9846
1512.29	46.8916
1513.85	48.9021
1515.41	47.654
1516.96	46.6586
1518.52	47.1284
1520.08	47.1226
1521.63	47.2197
1523.19	48.6229
1524.75	47.8991
1526.3	47.9352
1527.85	48.3705
1529.41	48.4645
1530.96	48.071
1532.52	48.9007
1534.07	48.23
1535.62	49.7174
1537.18	50.3857
1538.73	51.4483
1540.28	53.8304
1541.84	53.5739
1543.39	54.7391
1544.94	56.9856
1546.49	57.2051
1548.04	59.571
1549.59	62.1507
1551.14	64.0573
1552.69	64.105
1554.25	65.9957
1555.79	67.471
1557.34	68.9229
1558.89	69.6114
1560.44	70.3534
1561.99	71.5254
1563.54	71.2179
1565.08	72.8112
1566.63	74.6566
1568.18	75.8743
1569.73	77.9778
1571.27	80.4647
1572.82	82.9592
1574.37	86.3677
1575.91	89.3435
1577.46	93.0084
1579	95.0926
1580.55	98.4885
1582.09	101.629
1583.64	103.37
1585.18	105.568
1586.73	108.277
1588.27	109.788
1589.81	110.903
1591.35	111.705
1592.9	111.661
1594.44	112.666
1595.98	114.306
1597.52	113.544
1599.06	113.142
1600.61	112.499
1602.15	111.248
1603.69	110.586
1605.23	109.824
1606.77	109.227
1608.31	107.558
1609.85	108.482
1611.39	107.306
1612.93	107.765
1614.46	107.374
1616	107.64
1617.54	105.644
1619.08	104.763
1620.61	107.416
1622.15	107.867
1623.69	107.729
1625.23	108.915
1626.76	108.243
1628.3	106.393
1629.83	107.233
1631.37	108.424
1632.9	107.835
1634.44	108.582
1635.97	108.97
1637.51	109.768
1639.04	110.868
1640.57	113.295
1642.11	115.275
1643.64	117.12
1645.17	118.771
1646.71	121.762
1648.24	123.172
1649.77	124.506
1651.3	126.345
1652.83	127.574
1654.36	128.884
1655.89	128.366
1657.42	128.667
1658.96	128.714
1660.48	126.085
1662.01	126.218
1663.54	125.298
1665.07	124.007
1666.6	122.073
1668.13	120.123
1669.66	119.235
1671.19	116.554
1672.71	112.275
1674.24	107.394
1675.77	103.477
1677.29	99.2253
1678.82	95.5531
1680.35	92.0637
1681.87	88.6619
1683.4	84.6287
1684.92	80.3099
1686.45	76.1315
1687.97	70.0928
1689.5	66.2678
1691.02	61.8127
1692.54	58.9717
1694.07	53.993
1695.59	51.3699
1697.11	47.9705
1698.64	42.7915
1700.16	40.3989
1701.68	36.7533
1703.2	33.5611
1704.72	30.9425
1706.25	28.5662
1707.77	26.1417
1709.29	23.7868
1710.81	22.7618
1712.33	20.547
1713.85	17.7172
1715.37	16.3143
1716.89	15.0615
1718.41	13.8533
1719.92	13.4318
1721.44	12.2614
1722.96	11.4722
1724.48	10.6444
1725.99	11.029
1727.51	11.3585
1729.03	10.9122
1730.55	9.56888
1732.06	8.36557
1733.58	9.06846
1735.09	9.16428
1736.61	8.31096
1738.13	9.87454
1739.64	10.0469
1741.15	9.70841
1742.67	9.10069
1744.18	8.53908
1745.7	8.64184
1747.21	8.33792
1748.72	7.66161
1750.24	8.87378
1751.75	9.00329
1753.26	9.21376
1754.77	10.3823
1756.29	10.0592
1757.8	10.8211
1759.31	10.4727
1760.82	10.6299
1762.33	9.84685
1763.84	9.93126
1765.35	10.2362
1766.86	10.5689
1768.37	11.0404
1769.88	9.25054
1771.39	9.36691
1772.9	8.67284
1774.4	8.8607
1775.91	8.51598
1777.42	6.88416
1778.93	6.28187
1780.44	5.48571
1781.94	5.12599
1783.45	5.25945
1784.96	5.18501
1786.46	5.05611
1787.97	4.71635
1789.47	5.19066
1790.98	5.28239
1792.48	5.57579
1793.99	5.67665
1795.49	5.00684
1797	4.98178
1798.5	4.8334
1800.01	5.68467
1801.51	5.47891
1803.01	4.34288
1804.51	4.52104
1806.02	4.10925
1807.52	5.02134
1809.02	5.71513
1810.52	5.13896
1812.02	4.5464
1813.52	4.21208
1815.02	4.4747
1816.53	4.0451
1818.03	3.94478
1819.52	4.00692
1821.02	5.13491
1822.52	5.79937
1824.02	5.54435
1825.52	6.19578
1827.02	6.25414
1828.52	6.52163
1830.02	6.26175
1831.51	6.08869
1833.01	7.38999
1834.51	7.10042
1836.01	6.96561
1837.5	6.44228
1839	6.7752
1840.49	7.11218
1841.99	6.78237
1843.49	5.79105
1844.98	4.31188
1846.48	3.48026
1847.97	3.01091
1849.47	3.38351
1850.96	2.25449
1852.45	2.48846
1853.95	2.92853
1855.44	2.82709
1856.93	3.16331
1858.42	2.74975
1859.92	3.40807
1861.41	3.89181
1862.9	3.85849
1864.39	4.41704
1865.88	4.27931
1867.38	4.40329
1868.87	4.95448
1870.36	5.00036
1871.85	6.18344
1873.34	5.87276
1874.83	6.42702
1876.32	6.39213
1877.81	6.37024
1879.29	7.54385
1880.78	6.90662
1882.27	7.27564
1882.53	7.01153
1884.03	6.70316
1885.52	5.80839
1887.01	5.55895
1888.51	5.89676
1890	6.24697
1891.5	5.86034
1892.99	5.85018
1894.48	6.24734
1895.97	5.98699
1897.47	6.06512
1898.96	6.25035
1900.45	5.18042
1901.94	5.11285
1903.43	4.66659
1904.92	6.09158
1906.41	6.19458
1907.9	5.13996
1909.39	5.33293
1910.88	5.56721
1912.37	5.50507
1913.86	5.18094
1915.35	3.79639
1916.84	3.19037
1918.33	3.34281
1919.81	3.24321
1921.3	3.11012
1922.79	3.33509
1924.28	2.28845
1925.76	3.07256
1927.25	3.21409
1928.73	3.77572
1930.22	3.63783
1931.71	3.71627
1933.19	4.1916
1934.68	4.4874
1936.16	4.89787
1937.65	5.86404
1939.13	6.42228
1940.62	6.95839
1942.1	7.7256
1943.58	7.41562
1945.07	7.79028
1946.55	7.51431
1948.03	8.42746
1949.51	8.56254
1951	8.71175
1952.48	9.17761
1953.96	9.25296
1955.44	9.80566
1956.92	9.54873
1958.4	9.28952
1959.88	8.97275
1961.36	9.41051
1962.84	9.66814
1964.32	8.99039
1965.8	8.19553
1967.28	9.20918
1968.76	8.3615
1970.24	8.826
1971.72	9.00604
1973.2	7.85233
1974.67	8.27546
1976.15	8.94746
1977.63	8.48492
1979.1	8.14888
1980.58	7.37038
1982.06	6.61571
1983.54	6.71952
1985.01	6.19413
1986.49	5.52526
1987.96	5.36215
1989.44	5.6039
1990.91	6.13954
1992.39	6.437
1993.86	5.98159
1995.33	6.19685
1996.81	6.0859
1998.28	6.29654
1999.75	7.08182
2001.23	7.18592
2002.7	7.28652
2004.17	7.76888
2005.65	8.24593
2007.12	8.77157
2008.59	10.1438
2010.06	10.6089
2011.53	10.3987
2013	10.0744
2014.47	9.5871
2015.94	8.94364
2017.41	8.9722
2018.88	8.592
2020.35	8.54011
2021.82	8.83205
2023.29	8.19912
2024.76	9.26735
2026.23	8.87347
2027.69	10.2444
2029.16	9.34681
2030.63	9.20188
2032.1	8.98698
2033.56	8.68987
2035.03	8.38348
2036.5	7.94456
2037.96	7.33195
2039.43	7.45728
2040.89	7.98814
2042.36	7.28099
2043.83	7.97348
2045.29	7.02016
2046.75	7.28262
2048.22	7.09922
2049.68	5.71169
2051.15	5.53746
2052.61	5.08322
2054.07	5.46628
2055.54	4.73371
2057	4.44153
2058.46	4.33673
2059.92	4.49311
2061.39	5.07245
2062.85	5.26639
2064.31	5.36702
2065.77	5.06321
2067.23	4.94428
2068.69	4.85622
2070.15	3.74167
2071.61	4.50198
2073.07	4.7725
2074.53	4.51182
2075.99	5.02921
2077.45	5.47545
2078.91	5.39956
2080.37	5.06294
2081.82	5.27829
2083.28	4.5665
2084.74	3.00451
2086.2	2.05654
2087.65	1.2833
2089.11	1.70654
2090.57	2.12586
2092.02	1.8327
2093.48	2.32533
2094.94	2.51288
2096.39	3.15318
2097.85	4.11174
2099.3	4.1905
2100.76	4.58382
2102.21	3.19461
2103.66	3.09195
2105.12	3.17417
2106.57	2.65201
2108.03	2.97904
2109.48	3.16463
2110.93	3.29947
2112.38	3.33196
2113.84	3.51388
2115.29	3.40099
2116.74	3.16077
2118.19	2.56776
2119.64	2.01989
2121.09	0.202526
2122.54	0.96105
2123.99	1.34668
2125.45	0.848191
2126.89	1.52619
2128.34	1.51734
2129.79	1.65656
2131.24	2.33868
2132.69	2.66807
2134.14	2.50316
2135.59	2.92505
2137.04	3.33359
2138.48	3.27782
2139.93	2.67621
2141.38	2.98741
2142.83	2.89162
2144.27	3.33232
2145.72	2.9813
2147.17	3.54989
2148.61	4.57021
2150.06	4.02692
2151.5	3.58104
2152.95	2.28106
2154.39	3.07501
2155.84	1.81103
2157.28	1.50027
2158.73	1.87929
2160.17	3.07436
2161.61	4.34931
2163.06	3.34827
2164.5	3.23951
2165.94	3.73294
2167.38	3.97804
2168.83	4.8043
2170.27	4.20982
2171.71	3.85533
2173.15	3.42602
2174.59	3.32115
2176.03	3.98423
2177.47	4.2206
2178.91	3.57873
2180.36	3.97968
2181.8	3.47919
2183.23	2.69857
2184.67	3.14394
2186.11	3.64717
2187.55	3.13533
2188.99	2.51468
2190.43	2.67946
2191.87	3.38042
2193.3	3.95268
2194.74	5.50357
2196.18	5.68494
2197.62	6.5325
2199.05	7.16323
2200.49	7.26576
2201.93	7.71175
2203.36	7.49402
2204.8	6.97802
2206.23	6.91587
2207.67	6.79288
2209.1	6.80731
2210.54	6.79001
2211.97	6.44045
2213.41	6.77143
2214.84	5.74301
2216.27	5.415
2217.71	6.61825
2219.14	7.64524
2220.57	7.24087
2222.01	7.01543
2223.44	7.54162
2224.87	8.45411
2226.3	9.48414
2227.73	9.15271
2229.16	9.41709
2230.6	9.29929
2232.03	9.9871
2233.46	9.2417
2234.89	9.43161
2236.32	9.62495
2237.75	9.62895
2239.18	9.18249
2240.61	8.76166
2242.03	8.78592
2243.46	9.13064
2244.89	9.14446
2246.32	8.93647
2247.75	8.70724
2249.17	8.14371
2250.6	7.95371
2252.03	8.15954
2253.46	7.58058
2254.88	7.67225
2256.31	8.43728
2257.73	7.00011
2259.16	6.15962
2260.59	7.6484
2262.01	7.16225
2263.44	6.45075
2264.86	5.85607
2266.29	6.4254
2267.71	5.64649
2269.14	5.10697
2270.56	4.5568
2271.98	4.92381
2273.4	4.04048
2274.83	3.20103
2276.25	1.9476
2277.67	1.45006
2279.09	1.09516
2280.52	0.943474
2281.94	-0.0184097
2283.36	-0.364175
2284.78	-1.23949
2286.2	-0.421757
2287.62	0.301188
2289.04	0.557694
2290.46	0.199477
2291.88	-0.651532
2293.3	-0.725698
2294.72	-0.538235
2296.14	0.44614
2297.56	0.175574
2298.98	0.42095
2300.4	0.790186
2301.82	1.83911
2303.23	2.57639
2304.65	2.11851
2306.07	2.93845
2307.49	3.10541
2308.9	3.91012
2310.32	4.62388
2311.73	5.08235
2313.15	5.83748
2314.57	5.08844
2315.98	4.35244
2317.4	4.45084
2318.81	4.27119
2320.23	5.12257
2321.64	5.56903
2323.06	5.87163
2324.47	5.67432
2325.88	5.78321
2327.3	5.88746
2328.71	5.24235
2330.12	6.0168
2331.54	5.66926
2332.95	4.8094
2334.36	5.55057
2335.77	5.87625
2337.18	5.71027
2338.6	5.43364
2340.01	5.81387
2341.42	6.56605
2342.83	6.17786
2344.24	5.3675
2345.65	5.26326
2347.06	4.57742
2348.47	4.6974
2349.88	4.93214
2351.29	4.58251
2352.7	4.34806
2354.1	4.68789
2355.51	4.49533
2356.92	5.0353
2358.33	4.31818
2359.74	3.86796
2361.14	4.52586
2362.55	4.75687
2363.96	5.63063
2365.36	6.52001
2366.77	6.76443
2368.18	7.21659
2369.58	7.88969
2370.99	7.88791
2372.39	9.29488
2373.8	9.50479
2375.2	9.18475
2376.61	10.2927
2378.01	10.7097
2379.42	10.6567
2380.82	10.6715
2382.22	9.54817
2383.63	9.18535
2385.03	9.14355
2386.43	9.81457
2387.84	10.0974
2389.24	9.78419
2390.64	9.88282
2392.04	9.10061
2393.44	8.43399
2394.84	7.52269
2396.25	6.31846
2397.65	5.68105
2399.05	5.5084
2400.45	5.02407
2401.85	4.62523
2403.25	5.28837
2404.65	5.76589
2406.05	5.54205
2407.45	5.90652
2408.84	5.76566
2410.24	4.8377
2411.64	5.98506
2413.04	4.84052
2414.44	4.41858
2415.83	5.17639
2417.23	4.72491
2418.63	5.07261
2420.02	5.31439
2421.42	5.7164
2422.82	5.54544
2424.21	5.84379
2425.61	6.15015
2427	6.05258
2428.4	6.41904
2429.8	6.45005
2431.19	7.23651
2432.58	7.04082
2433.98	6.86529
2435.37	7.23251
2436.77	7.77239
2438.16	8.88242
2439.55	9.3556
2440.95	10.2449
2442.34	11.3582
2443.73	10.8557
2445.12	11.4576
2446.51	11.6076
2447.91	11.055
2449.3	9.94679
2450.69	9.8449
2452.08	9.02401
2453.47	9.47215
2454.86	9.10798
2456.25	8.29797
2457.64	7.00532
2459.03	6.39216
2460.42	6.22699
2461.81	6.07826
2463.2	5.53053
2464.59	4.36516
2465.98	4.00968
2467.36	3.97357
2468.75	4.848
2470.14	4.68487
2471.53	4.79924
2472.92	5.14055
2474.3	5.59649
2475.69	5.05829
2477.08	4.73943
2478.46	4.1168
2479.85	4.3607
2481.23	4.54981
2482.62	2.98303
2484	3.4179
2485.39	5.04136
2486.77	5.08661
2488.16	5.62443
2489.54	5.87366
2490.93	6.43773
2492.31	5.13695
2493.69	5.32452
2495.08	6.17054
2496.46	6.05429
2497.84	6.32561
2499.23	6.31081
2500.61	6.32523
2501.99	6.36998
2503.37	6.54389
2504.75	6.67922
2506.13	7.41683
2507.52	8.27625
2508.9	8.90942
2510.28	9.33717
2511.66	8.79094
2513.04	8.70407
2514.42	8.90711
2515.8	8.33317
2517.18	9.19293
2518.55	10.2667
2519.93	11.11
2521.31	12.4918
2522.69	13.0074
2524.07	13.4747
2525.45	13.7796
2526.82	14.9018
2528.2	15.1388
2529.58	16.0892
2530.95	16.2728
2532.33	16.4156
2533.71	16.6028
2535.08	17.6334
2536.46	17.9846
2537.84	19.2476
2539.21	19.1701
2540.59	19.6344
2541.96	20.3785
2543.34	20.6994
2544.71	21.3777
2546.08	21.5784
2547.46	23.0248
2548.83	22.6936
2550.2	23.0454
2551.58	23.5055
2552.95	23.7583
2554.32	23.8544
2555.7	23.447
2557.07	22.9621
2558.44	22.7681
2559.81	22.4861
2561.18	21.7638
2562.55	21.5746
2563.93	21.9756
2565.3	20.9216
2566.67	19.9304
2568.04	20.2891
2569.41	19.3741
2570.78	19.4821
2572.15	18.9254
2573.51	18.368
2574.88	18.6179
2576.25	17.9332
2577.62	17.2433
2578.99	17.5589
2580.36	16.8664
2581.73	17.1023
2583.09	17.3863
2584.46	17.0215
2585.83	17.7672
2587.19	17.7208
2588.56	17.9608
2589.93	18.6719
2591.29	17.9611
2592.66	18.62
2594.02	19.0927
2595.39	19.594
2596.75	18.5346
2598.12	19.2311
2599.48	19.2963
2600.85	18.9293
2602.21	18.848
2603.58	19.3332
2604.94	19.7762
2606.3	20.7474
2607.67	20.6938
2609.03	22.2039
2610.39	22.3935
2611.76	23.0577
2613.12	24.2009
2614.48	24.4319
2615.84	24.6493
2617.2	24.1425
2618.56	24.7005
2619.92	24.6928
2621.28	25.032
2622.65	24.7437
2624.01	25.7351
2625.37	25.23
2626.72	25.0691
2628.08	24.9099
2629.44	25.2727
2630.8	24.5594
2632.16	25.1192
2633.52	25.3736
2634.88	25.0875
2636.24	25.542
2637.59	24.7646
2638.95	25.0874
2640.31	24.6933
2641.67	23.8854
2643.02	23.3899
2644.38	22.7402
2645.74	23.8835
2647.09	24.0668
2648.45	23.2735
2649.8	23.0176
2651.16	23.5459
2652.51	23.6582
2653.87	24.9545
2655.22	24.4976
2656.58	24.6344
2657.93	23.6275
2659.29	23.4971
2660.64	23.4603
2661.99	23.7305
2663.35	22.787
2664.7	23.235
2666.05	22.7463
2667.41	23.1897
2668.76	22.739
2670.11	23.0762
2671.46	22.819
2672.81	22.8287
2674.16	22.7304
2675.51	23.1271
2676.87	23.2843
2678.22	22.7891
2679.57	23.2126
2680.92	22.9514
2682.27	22.5893
2683.62	22.0749
2684.97	22.5632
2686.31	22.2191
2687.66	22.1702
2689.01	21.9661
2690.36	21.6516
2691.71	22.1827
2693.06	21.2102
2694.4	21.4138
2695.75	22.1492
2697.1	22.666
2698.45	22.633
2699.79	24.4005
2701.14	25.2293
2702.49	24.9218
2703.83	25.9702
2705.18	26.3537
2706.52	27.228
2707.87	27.3272
2709.21	27.6963
2710.56	28.4893
2711.9	29.9037
2713.25	30.1608
2714.59	30.5673
2715.94	31.3378
2717.28	32.0426
2718.62	32.3758
2719.97	32.9016
2721.31	32.9641
2722.65	32.7513
2723.99	33.6462
2725.34	34.5839
2726.68	35.5465
2728.02	35.8028
2729.36	36.4685
2730.7	35.9828
2732.04	36.5866
2733.39	36.0797
2734.73	36.2882
2736.07	35.4978
2737.41	34.8902
2738.75	35.0056
2740.08	34.5942
2741.43	34.0368
2742.76	32.4792
2744.1	31.0761
2745.44	30.5208
2746.78	29.9501
2748.12	28.9583
2749.46	29.2915
2750.79	28.7085
2752.13	28.3499
2753.47	28.1786
2754.81	27.526
2756.14	27.4566
2757.48	27.1072
2758.81	26.3502
2760.15	25.757
2761.49	25.7143
2762.82	25.4743
2764.16	24.6124
2765.49	24.0245
2766.83	23.6976
2768.16	21.9575
2769.5	21.588
2770.83	20.8998
2772.16	19.705
2773.5	18.8106
2774.83	17.8174
2776.17	16.866
2777.5	15.766
2778.83	15.2072
2780.16	13.9986
2781.5	14.2618
2782.83	13.67
2784.16	13.2044
2785.49	12.9567
2786.82	12.927
2788.15	13.0066
2789.49	13.717
2790.82	13.6675
2792.15	12.7681
2793.48	12.3445
2794.81	11.4281
2796.14	11.707
2797.46	11.1221
2798.79	11.3576
2800.12	10.6477
2801.45	9.61736
2802.78	9.94933
2804.11	9.6231
2805.44	9.35015
2806.76	8.08318
2808.09	7.27643
2809.42	6.96715
2810.75	7.5658
2812.07	8.33917
2813.4	9.11585
2814.73	9.60332
2816.05	11.3961
2817.38	12.9687
2818.7	15.3457
2820.03	19.145
2821.36	21.0349
2822.68	23.8994
2824.01	26.3391
2825.33	29.056
2826.65	32.5322
2827.98	35.4623
2829.3	39.1451
2830.63	42.0364
2831.95	46.1358
2833.27	49.5753
2834.6	53.1829
2835.92	57.9323
2837.24	62.6681
2838.56	68.2657
2839.88	74.5881
2841.21	81.0259
2842.53	87.8485
2843.85	95.4518
2845.17	103.383
2846.49	111.467
2847.81	120.136
2849.13	129.168
2850.45	138.122
2851.77	147.333
2853.09	156.826
2854.41	166.036
2855.73	175.57
2857.05	183.67
2858.37	191.875
2859.69	200.92
2861	208.909
2862.32	216.89
2863.64	223.109
2864.96	230.017
2866.28	236.824
2867.59	242.965
2868.91	248.958
2870.23	254.407
2871.54	259.402
2872.86	263.692
2874.17	268.065
2875.49	272.693
2876.81	277.588
2878.12	281.057
2879.44	284.954
2880.75	289.641
2882.07	294.12
2883.38	297.162
2884.69	299.142
2886.01	302.178
2887.32	304.131
2888.63	306.451
2889.95	309.368
2891.26	310.648
2892.57	312.919
2893.89	314.312
2895.2	316.735
2896.51	318.088
2897.82	321.263
2899.13	323.696
2900.44	329.041
2901.76	333.61
2903.07	339.273
2904.38	344.399
2905.69	349.325
2907	355.465
2908.31	362.225
2909.62	368.82
2910.93	375.845
2912.24	383.779
2913.55	390.99
2914.85	397.934
2916.16	405.378
2917.47	411.155
2918.78	416.573
2920.09	421.754
2921.4	426.673
2922.7	429.23
2924.01	432.292
2925.32	435.65
2926.62	437.214
2927.93	438.583
2929.24	438.734
2930.54	439.475
2931.85	438.769
2933.15	436.498
2934.46	433.786
2935.76	430.898
2937.07	426.557
2938.37	422.282
2939.68	417.174
2940.98	411.337
2942.29	405.118
2943.59	397.514
2944.89	390.554
2946.2	382.824
2947.5	374.341
2948.8	365.5
2950.11	357.373
2951.41	350.37
2952.71	341.452
2954.01	331.572
2955.32	322.901
2956.62	312.394
2957.92	304.365
2959.22	295.787
2960.52	287.34
2961.82	278.182
2963.12	270.199
2964.42	262.325
2965.72	255.545
2967.02	247.142
2968.32	239.708
2969.62	232.156
2970.92	224.588
2972.22	219.459
2973.51	213.422
2974.81	207.24
2976.11	200.834
2977.41	194.356
2978.71	187.59
2980	180.47
2981.3	173.819
2982.6	165.78
2983.9	159.259
2985.19	152.073
2986.49	144.558
2987.78	137.017
2989.08	130.82
2990.38	124.047
2991.67	117.206
2992.97	110.946
2994.26	103.892
2995.56	97.71
2996.85	91.4432
2998.14	85.1149
2999.44	78.7746
3000.73	73.0086
3002.03	67.393
3003.32	61.2229
3004.61	55.0993
3005.91	50.3571
3007.2	45.5833
3008.49	40.7492
3009.78	36.662
3011.07	33.111
3012.37	29.502
3013.66	25.6306
3014.95	23.1013
3016.24	19.4998
3017.53	15.7506
3018.82	12.8765
3020.11	11.2746
3021.4	8.42529
3022.69	7.00291
3023.98	5.33763
3025.27	3.12986
3026.56	1.00638
3027.85	0.0585591
3029.14	-0.210491
3030.43	-1.2945
3031.71	-2.31948
3033	-2.4817
3034.29	-2.59022
3035.58	-2.20675
3036.87	-0.658767
3038.15	-1.02251
3039.44	-0.913677
3040.73	-0.311051
3042.01	0.648375
3043.3	1.96649
3044.59	2.15024
3045.87	3.16024
3047.16	4.37604
3048.44	5.24358
3049.73	5.97833
3051.01	7.37342
3052.3	8.34672
3053.58	10.1722
3054.87	11.1475
3056.15	12.4318
3057.43	12.7266
3058.72	13.161
3060	13.2745
3061.29	13.5312
3062.57	13.3541
3063.85	13.2987
3065.13	13.4182
3066.42	13.7575
3067.7	13.3413
3068.98	13.9188
3070.26	13.7958
3071.54	13.2248
3072.82	13.655
3074.11	13.6625
3075.39	13.2514
3076.67	12.3521
3077.95	12.3516
3079.23	12.1277
3080.51	11.0677
3081.79	10.9403
3083.07	9.9674
3084.35	9.46007
3085.63	8.44829
3086.9	7.85813
3088.18	8.02896
3089.46	7.57846
3090.74	6.88907
3092.02	6.59471
3093.29	6.81168
3094.57	6.95749
3095.85	8.23189
3097.13	8.52162
3098.4	9.11974
3099.68	9.89576
3100.95	10.6612
3102.23	11.364
3103.51	13.2799
3104.78	14.3567
3106.06	15.6123
3107.33	17.3728
3108.61	18.5769
3109.88	20.3243
3111.16	22.5966
3112.43	23.3714
3113.71	25.0613
3114.98	26.9075
3116.25	28.2687
3117.53	30.2362
3118.8	31.5971
3120.07	32.9818
3121.35	34.6295
3122.62	36.5777
3123.89	38.2434
3125.16	39.9853
3126.44	41.8147
3127.71	43.9188
3128.98	46.0648
3130.25	48.1212
3131.52	49.7183
3132.79	52.0003
3134.06	54.4046
3135.33	56.6316
3136.6	59.252
3137.87	60.4464
3139.14	62.4585
3140.41	63.9683
3141.68	66.0651
3142.95	67.5604
3144.22	69.2452
3145.49	71.1042
3146.76	73.2615
3148.02	74.3376
3149.29	76.0013
