#Acq. time (s)=	45
#Accumulations=	2
#Range (cm-¹)=	200...3150
#Windows=	2
#Auto scanning=	Off
#Autofocus=	Off
#Macrospot=	Off
#AutoExposure=	Off
#Spike filter=	Multiple accum.
#Delay time (s)=	0
#Binning=	1
#Readout mode=	Signal
#DeNoise=	Off
#ICS correction=	On
#Dark correction=	Off
#Inst. Process=	Off
#Detector Gain=	Best Dynamic Range
#Detector ADC=	20 kHz       
#Detector temperature (°C)=	-69.85
#Instrument=	LabRAM HR Evol
#Detector=	Synapse
#Objective=	x100
#Grating=	600 gr/mm
#ND Filter=	100%
#Laser (nm)=	532 
#Hole=	100.021
#Range=	Auto
#Laser Pol.=	No
#Raman. Pol.=	No
#Laser Pol. (°)=	-0.0007625
#Raman Pol. (°)=	89.9995
#Collection=	Microscope
#StageXY=	Marzhauser
#StageZ=	Marzhauser
#X (µm)=	-964.4
#Y (µm)=	-2827.1
#Z (µm)=	528.2
#Full time(mm:ss)=	3:18
#Project=	
#Sample=	
#Site=	
#Title=	Mb_00_13_19_2x_45s_532 nm_x100_100%_600 gr_mm
#Remark=	
#Date=	06.07.2022 11:05
#Acquired=	06.07.2022 11:05:31
#Base:Fit=	10.08.2022 10:16:56
#Base:Sub=	10.08.2022 10:17:24
#Filter:Polynom=	16.08.2022 10:36:38
#AxisType[0]=Intens
#AxisUnit[0]=Cnt
#AxisType[1]=Spectr
#AxisUnit[1]=1/cm
200.398	24.8542
202.213	17.6432
204.027	9.50681
205.843	4.36779
207.657	-0.472707
209.47	-4.6378
211.283	-8.04753
213.097	-9.493
214.909	-8.54626
216.721	-3.61721
218.533	3.89956
220.344	12.1741
222.157	23.1288
223.967	34.2196
225.777	47.7714
227.587	59.1539
229.396	71.6963
231.205	84.6683
233.016	95.2583
234.824	105.729
236.632	115.934
238.439	126.656
240.247	135.499
242.053	143.677
243.86	151.296
245.666	157.021
247.474	164.304
249.279	171.911
251.085	178.672
252.889	183.674
254.694	186.962
256.498	190.236
258.301	192.911
260.105	194.102
261.908	196.454
263.71	195.546
265.513	192.419
267.315	190.055
269.116	186.998
270.918	181.215
272.718	175.169
274.519	169.179
276.319	160.441
278.119	152.296
279.918	143.535
281.718	135.161
283.516	123.73
285.315	113.653
287.113	101.598
288.911	93.4623
290.708	84.6036
292.505	75.4806
294.302	68.056
296.098	58.5533
297.894	51.0684
299.69	45.7072
301.485	41.2961
303.278	38.8975
305.073	37.6488
306.867	36.8903
308.661	35.7376
310.454	34.8404
312.247	33.1957
314.04	31.3207
315.833	31.4172
317.623	28.7694
319.415	29.2073
321.206	28.2577
322.997	26.9851
324.788	26.3965
326.579	27.2851
328.367	26.7716
330.156	26.4292
331.946	25.4854
333.735	24.5474
335.523	22.384
337.31	20.2512
339.098	19.876
340.885	18.1734
342.673	16.8568
344.458	14.7952
346.244	13.3979
348.03	12.9971
349.816	12.6517
351.6	11.5407
353.385	9.39807
355.17	8.3547
356.953	7.75401
358.737	7.46708
360.521	7.09654
362.304	8.26987
364.085	9.45483
365.868	13.0254
367.65	18.8296
369.431	24.5016
371.212	29.0599
372.994	33.322
374.773	36.0659
376.554	43.3705
378.332	50.6939
380.112	58.2092
381.892	68.0549
383.669	79.3741
385.448	88.8541
387.225	100.665
389.003	113.567
390.781	126.602
392.557	137.289
394.334	149.327
396.109	158.887
397.885	167.787
399.66	174.505
401.436	181.044
403.211	188.485
404.984	193.997
406.759	197.453
408.532	201.344
410.306	202.622
412.078	204.041
413.851	204.738
415.623	204.973
417.395	202.209
419.166	200.932
420.938	195.957
422.708	191.349
424.477	184.569
426.248	176.835
428.017	169.369
429.788	160.422
431.556	151.653
433.326	141.056
435.093	131.173
436.86	120.713
438.629	109.341
440.395	99.2438
442.163	89.7854
443.929	80.8709
445.694	72.011
447.461	63.9513
449.226	56.3397
450.99	49.289
452.756	43.9846
454.52	39.9415
456.285	33.4064
458.048	26.9873
459.811	19.732
461.573	16.3489
463.337	13.8527
465.099	14.852
466.86	15.1719
468.623	16.9068
470.384	18.4122
472.144	20.6038
473.906	21.4068
475.666	23.8609
477.425	26.6032
479.184	27.7849
480.944	27.7537
482.703	29.6865
484.461	28.7443
486.218	31.4507
487.975	32.4545
489.734	34.1046
491.491	36.2036
493.247	37.5787
495.003	40.3629
496.759	43.141
498.516	44.5718
500.271	45.3967
502.025	46.7003
503.779	48.5815
505.533	49.5264
507.287	51.4287
509.042	51.459
510.795	51.6967
512.547	52.0264
514.299	53.2892
516.051	55.1947
517.803	57.1673
519.554	58.7183
521.305	60.3662
523.055	62.5982
524.805	64.0369
526.555	66.1899
528.307	68.9718
530.056	69.2473
531.805	69.539
533.553	69.7016
535.301	70.1532
537.049	71.0958
538.797	70.6846
540.544	70.365
542.291	67.8787
544.037	65.8354
545.783	65.3647
547.529	62.8317
549.275	61.678
551.02	58.4379
552.765	55.8183
554.509	52.9929
556.253	49.3795
557.997	47.7805
559.738	46.2761
561.482	42.394
563.224	41.5107
564.967	38.7712
566.709	36.3023
568.451	35.0739
570.192	33.0841
571.933	29.5833
573.674	29.0655
575.415	25.4932
577.153	23.8196
578.893	22.2728
580.632	19.9585
582.371	18.6156
584.11	16.4586
585.849	13.3918
587.587	12.4172
589.323	12.6666
591.06	13.6653
592.797	10.9775
594.534	10.962
596.271	10.8877
598.005	9.06342
599.741	10.0883
601.476	11.9662
603.211	13.7555
604.944	15.2646
606.679	16.2854
608.413	17.5997
610.147	18.7866
611.878	20.2749
613.611	20.7053
615.344	22.1655
617.077	22.1513
618.807	23.6153
620.539	26.0179
622.27	28.5528
623.999	29.6075
625.73	30.6366
627.461	32.9876
629.189	35.2295
630.919	38.2958
632.648	39.8916
634.376	41.8106
636.105	43.8286
637.833	46.2925
639.559	48.4941
641.287	49.4935
643.013	52.5755
644.74	54.6947
646.467	54.5647
648.192	55.0286
649.918	56.3447
651.642	53.3753
653.368	52.9745
655.091	51.6974
656.816	49.3705
658.538	47.6045
660.263	47.6554
661.987	45.6168
663.708	43.0836
665.432	40.5225
667.153	38.8216
668.875	37.6802
670.596	35.7907
672.318	33.1772
674.037	30.8318
675.759	29.2959
677.478	28.7977
679.196	25.0342
680.917	23.9889
682.635	20.8523
684.355	18.5922
686.072	17.877
687.791	17.0336
689.508	14.5167
691.224	11.9353
692.942	10.4111
694.658	7.80121
696.376	5.64383
698.091	4.85001
699.805	2.65935
701.522	1.35911
703.236	0.0478636
704.95	-0.0403695
706.665	0.110424
708.379	1.72147
710.093	2.15759
711.806	4.27943
713.518	5.14364
715.23	5.27747
716.943	5.64603
718.655	5.85569
720.366	7.5775
722.078	8.55261
723.788	9.16603
725.498	9.03989
727.208	8.55362
728.919	9.80248
730.628	8.0595
732.337	7.22816
734.045	7.50069
735.755	7.88574
737.463	7.14508
739.17	10.3298
740.877	12.0876
742.584	13.6758
744.292	14.8086
745.998	16.7673
747.704	18.0697
749.409	18.8815
751.114	22.279
752.819	24.6278
754.526	26.7121
756.23	28.8125
757.934	30.4656
759.637	34.2957
761.34	37.3542
763.043	38.5173
764.746	39.036
766.448	40.1334
768.152	40.4527
769.853	42.9559
771.554	42.3191
773.255	44.7217
774.956	44.6433
776.656	46.1517
778.356	46.2469
780.056	45.8029
781.755	47.2669
783.454	48.7062
785.153	48.7896
786.851	48.5871
788.549	51.0176
790.247	51.6863
791.944	52.6159
793.641	54.2195
795.338	54.0214
797.034	54.4986
798.73	53.7487
800.426	53.4827
802.121	53.1521
803.817	53.1716
805.511	52.2162
807.206	51.2779
808.9	50.68
810.592	50.2669
812.286	49.0203
813.979	48.5631
815.672	47.3277
817.364	48.605
819.057	47.5966
820.748	48.3618
822.44	48.1129
824.129	49.5712
825.82	50.2846
827.511	51.2424
829.201	52.5868
830.891	53.738
832.581	54.0692
834.269	53.4609
835.958	54.7181
837.646	54.1454
839.335	52.6947
841.023	51.766
842.709	50.805
844.396	49.1206
846.084	45.537
847.77	43.9535
849.455	42.5429
851.141	39.7803
852.827	37.5278
854.513	37.9125
856.196	35.4913
857.881	34.3449
859.566	33.0931
861.248	32.5278
862.932	30.6279
864.616	30.5248
866.297	28.7433
867.98	27.8071
869.663	26.1368
871.343	23.2393
873.026	21.0695
874.707	18.4024
876.387	17.5534
878.068	15.8629
879.747	15.4474
881.428	14.1213
883.108	12.4923
884.786	9.94016
886.465	9.28781
888.143	8.12792
889.822	7.69358
891.498	8.48116
893.177	9.6869
894.855	10.5137
896.53	10.2683
898.208	11.3074
899.883	9.63909
901.56	10.0237
903.234	9.19739
904.91	11.1269
906.584	12.2144
908.26	11.9833
909.933	11.9989
911.608	12.2666
913.28	13.7499
914.955	12.6431
916.627	12.9369
918.298	13.549
919.972	14.6538
921.643	14.2383
923.315	13.2973
924.986	13.7693
926.656	15.2185
928.328	15.3462
929.997	15.8317
931.668	16.5582
933.337	16.6753
935.006	16.9675
936.676	17.7188
938.344	17.9206
940.012	15.2545
941.681	14.9753
943.348	16.449
945.014	16.4021
946.683	16.7408
948.349	16.2983
950.015	14.5294
951.682	13.7328
953.347	11.9267
955.012	9.21329
956.676	7.78952
958.343	7.82826
960.006	7.33132
961.67	7.66263
963.333	9.98399
964.998	12.1753
966.661	15.8578
968.323	20.0565
969.985	27.7502
971.649	34.707
973.31	42.8823
974.971	51.7517
976.632	61.3675
978.293	68.412
979.953	74.2878
981.615	75.2688
983.274	76.3674
984.933	83.3793
986.592	90.3602
988.251	98.0402
989.909	104.203
991.567	109.061
993.225	116.378
994.884	122.609
996.541	127.912
998.198	131.432
999.855	136.746
1001.51	140.283
1003.17	141.479
1004.82	140.589
1006.48	140.203
1008.13	139.082
1009.79	137.281
1011.44	135.253
1013.1	133.59
1014.75	134.853
1016.4	136.454
1018.06	138.241
1019.71	142.295
1021.36	146.104
1023.01	152.302
1024.66	159.753
1026.32	165.358
1027.97	171.675
1029.62	175.247
1031.27	178.322
1032.92	180.105
1034.57	182.572
1036.22	183.442
1037.87	183.7
1039.52	186.108
1041.16	187.692
1042.81	188.876
1044.46	191.998
1046.11	194.333
1047.76	196.775
1049.4	196.277
1051.05	196.861
1052.7	196.611
1054.34	196.093
1055.99	193.375
1057.63	189.6
1059.28	184.881
1060.92	177.769
1062.57	170.964
1064.21	163.749
1065.85	160.992
1067.5	157.317
1069.14	151.499
1070.78	144.027
1072.43	134.282
1074.07	125.057
1075.71	115.825
1077.35	104.542
1078.99	93.8417
1080.63	81.9941
1082.27	70.6558
1083.91	56.5058
1085.55	44.2321
1087.19	34.6707
1088.83	27.1628
1090.47	19.6625
1092.11	16.0548
1093.75	15.0017
1095.39	14.5289
1097.03	15.7832
1098.66	15.3941
1100.3	17.9167
1101.94	21.8558
1103.57	23.561
1105.21	26.104
1106.84	25.5249
1108.48	25.5083
1110.11	24.913
1111.75	22.9512
1113.38	23.5831
1115.02	21.1601
1116.65	19.1316
1118.29	17.7401
1119.92	18.0694
1121.55	18.2284
1123.19	17.3059
1124.82	17.2157
1126.45	17.6056
1128.08	18.0774
1129.71	18.3398
1131.34	17.7489
1132.97	18.7849
1134.6	18.7481
1136.23	19.0935
1137.86	19.215
1139.49	22.1381
1141.12	22.9977
1142.75	24.1882
1144.38	24.7391
1146.01	24.0115
1147.64	23.5541
1149.26	21.8962
1150.89	21.733
1152.52	21.2181
1154.15	19.3543
1155.77	18.668
1157.4	18.0467
1159.02	16.8839
1160.65	16.1127
1162.27	14.848
1163.9	16.1539
1165.52	15.9995
1167.15	19.0153
1168.77	20.2415
1170.39	21.6761
1172.02	22.0267
1173.64	23.3322
1175.26	22.7473
1176.89	22.3672
1178.51	22.5285
1180.13	22.2933
1181.75	24.5458
1183.37	25.6384
1184.99	25.3042
1186.61	25.4945
1188.23	25.4618
1189.85	28.2568
1191.47	31.2733
1193.09	33.918
1194.71	36.6286
1196.33	36.7232
1197.94	40.6978
1199.56	44.7395
1201.18	48.9021
1202.8	51.8786
1204.41	55.2212
1206.03	59.7837
1207.65	64.5908
1209.26	68.6557
1210.88	71.1009
1212.49	74.9071
1214.11	79.1295
1215.72	84.3264
1217.34	88.2963
1218.95	93.3223
1220.57	97.3979
1222.18	99.4454
1223.79	102.562
1225.41	104.98
1227.02	108.041
1228.63	111.033
1230.24	111.861
1231.85	113.216
1233.47	113.763
1235.08	114.804
1236.69	116.685
1238.3	119.36
1239.91	120.303
1241.52	120.721
1243.13	123.199
1244.74	124.731
1246.34	122.439
1247.95	122.483
1249.56	120.61
1251.17	119.596
1252.78	116.898
1254.38	115.805
1255.99	114.714
1257.6	113.443
1259.2	112.435
1260.81	111.864
1262.42	112.589
1264.02	111.485
1265.63	111.665
1267.23	112.232
1268.84	112.644
1270.44	113.481
1272.04	114.512
1273.65	113.414
1275.25	113.942
1276.85	113.326
1278.46	115.237
1280.06	116.248
1281.66	117.947
1283.26	117.615
1284.86	119.697
1286.46	121.836
1288.07	124.297
1289.67	125.086
1291.27	124.769
1292.87	127.984
1294.47	129.403
1296.06	131.083
1297.66	132.902
1299.26	133.235
1300.86	135.964
1302.46	137.635
1304.06	138.669
1305.65	140.505
1307.25	142.379
1308.85	143.398
1310.44	143.579
1312.04	144.067
1313.64	145.318
1315.23	146.141
1316.83	149.366
1318.42	149.895
1320.02	150.315
1321.61	150.984
1323.2	151.366
1324.8	149.985
1326.39	148.308
1327.99	149.094
1329.58	148.363
1331.17	148.442
1332.76	147.712
1334.36	147.955
1335.95	148.109
1337.54	147.255
1339.13	147.731
1340.72	146.602
1342.31	146.69
1343.9	145.081
1345.49	144.313
1347.08	142.594
1348.67	140.614
1350.26	139.712
1351.85	138.317
1353.43	135.893
1355.02	133.556
1356.61	130.976
1358.2	129.418
1359.78	126.049
1361.37	124.329
1362.96	121.102
1364.54	119.956
1366.13	116.794
1367.71	113.981
1369.3	109.747
1370.88	105.232
1372.47	97.8745
1374.05	91.523
1375.64	90.8683
1377.22	91.3903
1378.8	92.1754
1380.39	94.597
1381.97	94.6672
1383.55	94.6054
1385.13	94.849
1386.72	96.6688
1388.3	97.1825
1389.88	96.6686
1391.46	97.1385
1393.04	96.9959
1394.62	98.1854
1396.2	100.91
1397.78	99.7722
1399.36	102.362
1400.94	103.696
1402.52	106.378
1404.1	110.445
1405.68	112.217
1407.25	116.131
1408.83	120.424
1410.41	124.56
1411.98	129.274
1413.56	135.346
1415.14	141.798
1416.71	148.248
1418.29	156.093
1419.87	162.915
1421.44	171.28
1423.02	178.221
1424.59	186.909
1426.16	195.494
1427.74	203.169
1429.31	210.478
1430.89	217.92
1432.46	224.17
1434.03	228.27
1435.6	232.737
1437.18	237.786
1438.75	241.46
1440.32	245.024
1441.89	244.469
1443.46	246.084
1445.03	245.523
1446.6	245.803
1448.17	241.931
1449.74	238.276
1451.31	234.802
1452.88	238.357
1454.45	239.801
1456.02	237.169
1457.59	232.426
1459.16	225.946
1460.72	221.245
1462.29	213.298
1463.86	206.007
1465.43	198.719
1466.99	190.569
1468.56	179.966
1470.13	171.714
1471.69	162.411
1473.26	153.685
1474.82	144.31
1476.38	135.52
1477.95	127.842
1479.51	119.102
1481.08	113.18
1482.64	104.384
1484.2	97.2291
1485.77	92.6591
1487.33	86.9936
1488.89	81.6162
1490.46	78.4237
1492.02	74.2459
1493.58	70.5946
1495.14	67.9204
1496.7	65.6132
1498.26	64.7355
1499.82	64.1047
1501.38	61.4247
1502.94	59.8925
1504.5	58.2299
1506.06	57.3134
1507.62	55.9746
1509.18	55.7332
1510.73	54.91
1512.29	53.3952
1513.85	54.5964
1515.41	54.0758
1516.96	53.3897
1518.52	53.7056
1520.08	54.61
1521.63	55.014
1523.19	54.4736
1524.75	54.2517
1526.3	52.4198
1527.85	52.4423
1529.41	53.1535
1530.96	54.2221
1532.52	54.8251
1534.07	56.2558
1535.62	58.8053
1537.18	59.6175
1538.73	62.0009
1540.28	60.5748
1541.84	62.6545
1543.39	62.6427
1544.94	63.9773
1546.49	63.0299
1548.04	64.5461
1549.59	65.5938
1551.14	66.8216
1552.69	68.9987
1554.25	71.5559
1555.79	72.1381
1557.34	73.8164
1558.89	77.3225
1560.44	77.5342
1561.99	80.0823
1563.54	80.9994
1565.08	81.2651
1566.63	84.2289
1568.18	86.7438
1569.73	87.867
1571.27	91.2709
1572.82	95.207
1574.37	98.5287
1575.91	103.471
1577.46	106.293
1579	107.907
1580.55	111.407
1582.09	113.536
1583.64	117.209
1585.18	119.555
1586.73	122.43
1588.27	124.153
1589.81	126.109
1591.35	130.049
1592.9	131.116
1594.44	133.522
1595.98	135.255
1597.52	136.032
1599.06	135.306
1600.61	136.818
1602.15	138.014
1603.69	137.889
1605.23	139.149
1606.77	140.364
1608.31	140.489
1609.85	140.524
1611.39	139.904
1612.93	140.206
1614.46	137.903
1616	137.699
1617.54	137.551
1619.08	138.274
1620.61	137.848
1622.15	138.525
1623.69	139.925
1625.23	141.673
1626.76	143.645
1628.3	145.378
1629.83	146.845
1631.37	147.486
1632.9	149.504
1634.44	152.029
1635.97	155.119
1637.51	156.597
1639.04	158.6
1640.57	161.774
1642.11	164.851
1643.64	168.238
1645.17	170.122
1646.71	173.031
1648.24	175.023
1649.77	177.228
1651.3	179.616
1652.83	180.846
1654.36	179.792
1655.89	178.718
1657.42	179.005
1658.96	179.21
1660.48	179.561
1662.01	177.574
1663.54	175.156
1665.07	172.31
1666.6	171.083
1668.13	168.05
1669.66	163.576
1671.19	160.048
1672.71	155.703
1674.24	151.351
1675.77	146.424
1677.29	141.245
1678.82	135.319
1680.35	127.944
1681.87	121.821
1683.4	113.535
1684.92	107.159
1686.45	99.5282
1687.97	93.452
1689.5	88.6295
1691.02	81.0616
1692.54	76.1294
1694.07	71.0419
1695.59	65.5674
1697.11	59.8153
1698.64	53.9849
1700.16	49.7294
1701.68	44.3516
1703.2	40.7647
1704.72	37.814
1706.25	33.9743
1707.77	31.5783
1709.29	29.0706
1710.81	25.0254
1712.33	23.4345
1713.85	20.2996
1715.37	17.4197
1716.89	16.4079
1718.41	14.7408
1719.92	13.301
1721.44	11.7767
1722.96	10.9253
1724.48	10.2121
1725.99	10.8614
1727.51	10.5656
1729.03	10.2462
1730.55	10.486
1732.06	11.5808
1733.58	11.5215
1735.09	11.5222
1736.61	11.5354
1738.13	11.4497
1739.64	10.6006
1741.15	10.5616
1742.67	11.3123
1744.18	10.5335
1745.7	10.7637
1747.21	10.1971
1748.72	9.78091
1750.24	9.39969
1751.75	7.66508
1753.26	7.50723
1754.77	6.99294
1756.29	5.88528
1757.8	6.10109
1759.31	5.77272
1760.82	5.86122
1762.33	5.16799
1763.84	4.75638
1765.35	3.57655
1766.86	2.42131
1768.37	3.80867
1769.88	2.10638
1771.39	1.97889
1772.9	0.722769
1774.4	0.273225
1775.91	0.976652
1777.42	1.39083
1778.93	1.5371
1780.44	0.966185
1781.94	0.688621
1783.45	0.21088
1784.96	-0.660774
1786.46	-0.284309
1787.97	0.672456
1789.47	0.33372
1790.98	1.53478
1792.48	3.12831
1793.99	4.33115
1795.49	4.10977
1797	5.38271
1798.5	6.94727
1800.01	7.51031
1801.51	7.56619
1803.01	7.62159
1804.51	7.98172
1806.02	8.34371
1807.52	8.65525
1809.02	8.15654
1810.52	8.87327
1812.02	9.23638
1813.52	8.89153
1815.02	8.15606
1816.53	8.37297
1818.03	9.14879
1819.52	8.75343
1821.02	9.22674
1822.52	9.78163
1824.02	9.48156
1825.52	9.67848
1827.02	10.7146
1828.52	11.6499
1830.02	11.4651
1831.51	11.5283
1833.01	11.023
1834.51	10.4006
1836.01	10.0409
1837.5	10.1924
1839	10.3884
1840.49	11.0286
1841.99	10.6391
1843.49	10.8198
1844.98	9.71837
1846.48	10.337
1847.97	10.2199
1849.47	8.88598
1850.96	8.24849
1852.45	6.79097
1853.95	7.16393
1855.44	8.37168
1856.93	8.63666
1858.42	7.51938
1859.92	7.51666
1861.41	8.7592
1862.9	8.42543
1864.39	6.78137
1865.88	5.64539
1867.38	5.03964
1868.87	5.85976
1870.36	4.68098
1871.85	4.65874
1873.34	4.35617
1874.83	3.46096
1876.32	3.82922
1877.81	3.28707
1879.29	2.81302
1880.78	2.39666
1882.27	2.63559
1882.53	2.61619
1884.03	3.30384
1885.52	2.16896
1887.01	1.71855
1888.51	1.07976
1890	2.42933
1891.5	1.90793
1892.99	2.40788
1894.48	2.33908
1895.97	3.15285
1897.47	2.48039
1898.96	4.20282
1900.45	5.1449
1901.94	5.63366
1903.43	6.24514
1904.92	5.68851
1906.41	5.873
1907.9	6.49467
1909.39	7.70715
1910.88	8.91387
1912.37	8.99268
1913.86	9.6638
1915.35	8.57031
1916.84	9.27765
1918.33	9.24617
1919.81	9.71464
1921.3	9.22874
1922.79	8.73066
1924.28	9.89981
1925.76	11.2014
1927.25	12.1635
1928.73	10.7037
1930.22	8.52619
1931.71	8.47756
1933.19	8.24875
1934.68	7.60202
1936.16	6.10874
1937.65	5.25562
1939.13	6.15951
1940.62	6.76926
1942.1	7.53903
1943.58	8.13367
1945.07	7.91603
1946.55	8.48554
1948.03	8.177
1949.51	8.47298
1951	8.05521
1952.48	8.65259
1953.96	8.86261
1955.44	9.74507
1956.92	7.88482
1958.4	8.15567
1959.88	7.01965
1961.36	9.19373
1962.84	9.27059
1964.32	9.45192
1965.8	8.7855
1967.28	10.3444
1968.76	10.0494
1970.24	10.8915
1971.72	10.4455
1973.2	11.5092
1974.67	11.2342
1976.15	10.9888
1977.63	10.2959
1979.1	9.4844
1980.58	9.79705
1982.06	9.44386
1983.54	9.49516
1985.01	8.22098
1986.49	6.689
1987.96	5.97979
1989.44	4.98377
1990.91	6.0487
1992.39	5.45463
1993.86	4.79162
1995.33	4.88741
1996.81	5.53595
1998.28	5.46529
1999.75	4.55364
2001.23	3.9289
2002.7	4.42863
2004.17	5.63118
2005.65	6.06201
2007.12	5.24062
2008.59	5.38162
2010.06	6.62763
2011.53	5.34609
2013	6.82799
2014.47	7.50689
2015.94	7.65599
2017.41	7.90808
2018.88	6.87419
2020.35	7.51998
2021.82	7.76499
2023.29	7.91751
2024.76	8.36646
2026.23	8.49546
2027.69	8.23382
2029.16	7.97285
2030.63	7.1534
2032.1	8.28363
2033.56	8.13561
2035.03	8.89621
2036.5	9.23037
2037.96	9.50869
2039.43	9.69503
2040.89	8.85778
2042.36	8.47942
2043.83	8.83781
2045.29	8.22617
2046.75	8.01556
2048.22	7.77783
2049.68	7.2539
2051.15	5.48779
2052.61	4.98713
2054.07	5.62446
2055.54	4.81428
2057	5.05325
2058.46	5.1182
2059.92	6.33615
2061.39	7.10062
2062.85	8.08137
2064.31	7.8487
2065.77	7.70775
2067.23	8.10329
2068.69	8.2514
2070.15	7.50155
2071.61	6.86703
2073.07	6.90779
2074.53	8.38328
2075.99	8.22299
2077.45	7.98081
2078.91	7.15924
2080.37	7.5865
2081.82	7.8105
2083.28	7.51509
2084.74	6.45777
2086.2	8.27073
2087.65	7.92576
2089.11	7.70674
2090.57	8.55916
2092.02	8.62698
2093.48	9.18074
2094.94	8.23548
2096.39	7.91949
2097.85	7.78809
2099.3	7.81452
2100.76	7.59062
2102.21	6.17104
2103.66	6.17816
2105.12	6.51845
2106.57	6.43061
2108.03	6.56838
2109.48	6.31627
2110.93	4.81972
2112.38	3.91076
2113.84	3.4296
2115.29	3.90413
2116.74	3.89844
2118.19	3.20993
2119.64	3.84933
2121.09	3.82677
2122.54	3.31785
2123.99	3.32178
2125.45	4.83147
2126.89	5.11233
2128.34	4.72387
2129.79	4.52927
2131.24	4.2084
2132.69	4.96579
2134.14	3.84392
2135.59	2.92838
2137.04	3.18782
2138.48	3.63349
2139.93	3.82481
2141.38	5.02709
2142.83	4.91037
2144.27	4.99298
2145.72	6.32431
2147.17	6.06723
2148.61	5.88989
2150.06	6.49891
2151.5	6.20156
2152.95	7.83353
2154.39	8.3982
2155.84	10.007
2157.28	11.0053
2158.73	12.2102
2160.17	12.7859
2161.61	13.7663
2163.06	14.4313
2164.5	15.2264
2165.94	14.8731
2167.38	14.1265
2168.83	14.2408
2170.27	15.7766
2171.71	14.98
2173.15	14.222
2174.59	14.1193
2176.03	15.6936
2177.47	16.8555
2178.91	16.3416
2180.36	16.8199
2181.8	15.0918
2183.23	15.613
2184.67	15.3324
2186.11	14.9058
2187.55	14.3943
2188.99	14.39
2190.43	14.1819
2191.87	14.0106
2193.3	13.3239
2194.74	13.3973
2196.18	12.1799
2197.62	10.6808
2199.05	9.49216
2200.49	9.58527
2201.93	8.26126
2203.36	8.22601
2204.8	8.08812
2206.23	6.64104
2207.67	7.21754
2209.1	7.72985
2210.54	5.97861
2211.97	5.44574
2213.41	4.26579
2214.84	3.67893
2216.27	4.76781
2217.71	6.02725
2219.14	5.10403
2220.57	6.9878
2222.01	8.22954
2223.44	8.5434
2224.87	9.78419
2226.3	10.6276
2227.73	11.353
2229.16	10.7858
2230.6	11.2606
2232.03	11.8359
2233.46	12.3732
2234.89	12.6293
2236.32	12.4374
2237.75	11.624
2239.18	13.3642
2240.61	13.4598
2242.03	14.2217
2243.46	14.0242
2244.89	16.0948
2246.32	17.7416
2247.75	18.2037
2249.17	18.4994
2250.6	16.9465
2252.03	17.135
2253.46	16.6301
2254.88	18.1834
2256.31	17.6295
2257.73	17.8396
2259.16	18.2634
2260.59	18.9464
2262.01	19.3472
2263.44	20.3791
2264.86	20.1677
2266.29	19.8265
2267.71	18.2497
2269.14	18.9443
2270.56	18.5292
2271.98	18.1012
2273.4	16.7647
2274.83	16.6476
2276.25	16.5587
2277.67	16.3627
2279.09	17.0268
2280.52	15.4922
2281.94	14.962
2283.36	15.9706
2284.78	15.7178
2286.2	15.3979
2287.62	15.9318
2289.04	15.3244
2290.46	13.0965
2291.88	12.509
2293.3	11.704
2294.72	11.0092
2296.14	10.3917
2297.56	9.79256
2298.98	8.59546
2300.4	7.18217
2301.82	7.15501
2303.23	6.90821
2304.65	6.55681
2306.07	6.89763
2307.49	6.28054
2308.9	6.15025
2310.32	6.7648
2311.73	6.45255
2313.15	6.24299
2314.57	7.41747
2315.98	7.87446
2317.4	7.26756
2318.81	7.35349
2320.23	7.34176
2321.64	6.72397
2323.06	7.08074
2324.47	6.96295
2325.88	6.98463
2327.3	7.50361
2328.71	8.62341
2330.12	9.46825
2331.54	9.9745
2332.95	10.1812
2334.36	10.5737
2335.77	9.28976
2337.18	8.53555
2338.6	7.54327
2340.01	7.96177
2341.42	7.3717
2342.83	8.39842
2344.24	8.40573
2345.65	7.85377
2347.06	7.84503
2348.47	7.60175
2349.88	7.82198
2351.29	6.07489
2352.7	5.41345
2354.1	4.43335
2355.51	2.6315
2356.92	2.87661
2358.33	2.94345
2359.74	1.01258
2361.14	0.110218
2362.55	0.420595
2363.96	0.412256
2365.36	0.644813
2366.77	-0.16355
2368.18	-0.354965
2369.58	0.17676
2370.99	0.459332
2372.39	0.891377
2373.8	0.350719
2375.2	0.155733
2376.61	0.580405
2378.01	0.764301
2379.42	1.4477
2380.82	1.77571
2382.22	2.26333
2383.63	1.86005
2385.03	2.54906
2386.43	2.64415
2387.84	2.49637
2389.24	3.03109
2390.64	2.29805
2392.04	2.17714
2393.44	3.22376
2394.84	4.45874
2396.25	6.19877
2397.65	7.04596
2399.05	6.78021
2400.45	6.57432
2401.85	5.99371
2403.25	6.11859
2404.65	7.28849
2406.05	6.884
2407.45	8.29185
2408.84	9.42736
2410.24	10.5357
2411.64	11.0387
2413.04	11.9359
2414.44	11.005
2415.83	12.0319
2417.23	12.6422
2418.63	12.4838
2420.02	12.1026
2421.42	11.011
2422.82	11.3617
2424.21	11.4374
2425.61	11.0692
2427	10.8968
2428.4	10.0325
2429.8	10.2442
2431.19	10.3401
2432.58	10.0697
2433.98	9.8005
2435.37	9.27877
2436.77	7.95674
2438.16	6.60083
2439.55	6.25345
2440.95	5.46727
2442.34	4.61414
2443.73	3.53404
2445.12	4.49523
2446.51	4.3418
2447.91	4.94433
2449.3	4.70677
2450.69	3.31855
2452.08	2.71061
2453.47	2.20947
2454.86	2.73975
2456.25	2.96012
2457.64	2.77165
2459.03	2.88954
2460.42	3.68721
2461.81	4.0345
2463.2	3.94492
2464.59	4.22001
2465.98	3.71097
2467.36	2.57364
2468.75	2.29973
2470.14	3.25896
2471.53	3.89619
2472.92	4.5365
2474.3	5.70248
2475.69	6.4504
2477.08	7.56548
2478.46	8.33587
2479.85	8.26242
2481.23	9.54022
2482.62	9.9103
2484	9.07753
2485.39	10.1318
2486.77	9.21226
2488.16	8.31489
2489.54	8.25198
2490.93	8.85785
2492.31	8.85651
2493.69	8.80762
2495.08	8.78421
2496.46	8.27892
2497.84	8.67962
2499.23	8.23135
2500.61	7.65197
2501.99	6.86867
2503.37	6.13561
2504.75	5.50046
2506.13	4.4335
2507.52	4.19249
2508.9	5.31207
2510.28	5.34352
2511.66	5.36575
2513.04	5.53977
2514.42	6.46432
2515.8	6.10704
2517.18	6.53808
2518.55	5.69919
2519.93	6.39174
2521.31	6.94408
2522.69	7.66484
2524.07	8.47294
2525.45	9.44948
2526.82	9.78395
2528.2	10.3733
2529.58	10.9713
2530.95	10.3757
2532.33	9.66852
2533.71	10.3105
2535.08	10.4505
2536.46	11.8479
2537.84	12.3999
2539.21	13.5056
2540.59	13.4442
2541.96	13.4557
2543.34	13.7043
2544.71	13.2639
2546.08	12.9935
2547.46	13.4784
2548.83	13.8814
2550.2	14.0228
2551.58	12.9964
2552.95	13.1732
2554.32	13.044
2555.7	12.5531
2557.07	12.7836
2558.44	14.21
2559.81	14.8387
2561.18	14.7215
2562.55	14.3319
2563.93	14.2275
2565.3	13.2273
2566.67	12.8165
2568.04	12.1565
2569.41	11.6332
2570.78	11.5799
2572.15	11.1606
2573.51	10.7945
2574.88	10.3618
2576.25	10.8496
2577.62	10.3203
2578.99	10.1345
2580.36	10.4455
2581.73	10.2308
2583.09	9.9841
2584.46	10.2448
2585.83	10.2079
2587.19	11.0537
2588.56	12.1574
2589.93	12.2462
2591.29	12.5719
2592.66	13.7534
2594.02	14.6371
2595.39	14.0914
2596.75	13.8588
2598.12	13.8489
2599.48	14.163
2600.85	13.8887
2602.21	14.9664
2603.58	15.6563
2604.94	14.9486
2606.3	14.668
2607.67	13.7192
2609.03	13.2041
2610.39	13.0891
2611.76	12.7003
2613.12	12.683
2614.48	13.6764
2615.84	14.2719
2617.2	14.8125
2618.56	14.4614
2619.92	15.2345
2621.28	15.4899
2622.65	15.5591
2624.01	16.969
2625.37	17.2517
2626.72	17.5711
2628.08	17.5507
2629.44	17.8295
2630.8	17.4619
2632.16	18.0886
2633.52	17.9237
2634.88	17.4387
2636.24	17.8962
2637.59	18.9725
2638.95	19.3032
2640.31	18.8631
2641.67	19.0232
2643.02	18.9782
2644.38	19.1435
2645.74	18.4726
2647.09	19.2515
2648.45	19.6573
2649.8	19.2561
2651.16	19.3705
2652.51	19.5894
2653.87	19.5394
2655.22	20.9844
2656.58	20.9298
2657.93	20.4296
2659.29	19.6596
2660.64	19.6976
2661.99	18.5891
2663.35	18.2271
2664.7	18.6094
2666.05	18.4788
2667.41	18.8544
2668.76	17.4778
2670.11	16.2446
2671.46	15.4275
2672.81	14.2674
2674.16	14.1156
2675.51	12.3867
2676.87	12.1676
2678.22	12.0712
2679.57	11.9422
2680.92	12.4632
2682.27	12.5262
2683.62	12.2236
2684.97	12.4371
2686.31	12.3448
2687.66	11.9886
2689.01	12.1365
2690.36	12.209
2691.71	13.5051
2693.06	13.0939
2694.4	14.1324
2695.75	15.5993
2697.1	16.4937
2698.45	17.8787
2699.79	18.7875
2701.14	19.4025
2702.49	20.122
2703.83	22.6435
2705.18	22.9258
2706.52	24.1783
2707.87	25.1139
2709.21	25.6584
2710.56	26.402
2711.9	27.1435
2713.25	26.9088
2714.59	28.7742
2715.94	29.6018
2717.28	29.017
2718.62	29.5787
2719.97	30.068
2721.31	29.9001
2722.65	30.6784
2723.99	29.6066
2725.34	29.6673
2726.68	29.5107
2728.02	28.8705
2729.36	28.6649
2730.7	28.5627
2732.04	28.3363
2733.39	27.1057
2734.73	26.2883
2736.07	24.6591
2737.41	23.5479
2738.75	23.2011
2740.08	22.5152
2741.43	20.9137
2742.76	19.4883
2744.1	18.4407
2745.44	17.5725
2746.78	16.273
2748.12	15.1965
2749.46	13.6743
2750.79	12.5868
2752.13	11.5605
2753.47	10.4301
2754.81	9.72527
2756.14	9.21296
2757.48	8.32213
2758.81	7.81363
2760.15	7.57772
2761.49	8.47817
2762.82	7.8521
2764.16	7.20575
2765.49	6.64117
2766.83	5.52322
2768.16	4.26404
2769.5	4.84529
2770.83	4.71107
2772.16	3.02935
2773.5	3.04846
2774.83	2.26378
2776.17	1.59166
2777.5	1.36037
2778.83	1.06279
2780.16	-0.0128643
2781.5	0.0173267
2782.83	-0.289406
2784.16	-0.994867
2785.49	-0.639354
2786.82	-1.38835
2788.15	-1.61827
2789.49	-0.847327
2790.82	-0.874066
2792.15	-1.08022
2793.48	-0.775055
2794.81	-1.30642
2796.14	-1.27878
2797.46	-1.40069
2798.79	-0.409355
2800.12	0.0811143
2801.45	0.416024
2802.78	0.176147
2804.11	-0.619875
2805.44	-1.83492
2806.76	-2.82501
2808.09	-4.57711
2809.42	-5.24098
2810.75	-5.19213
2812.07	-4.82102
2813.4	-3.47786
2814.73	-0.650602
2816.05	2.9653
2817.38	6.15394
2818.7	10.7932
2820.03	16.2733
2821.36	21.5537
2822.68	27.8355
2824.01	34.8977
2825.33	42.4963
2826.65	50.8898
2827.98	58.9494
2829.3	66.3416
2830.63	75.8393
2831.95	84.3001
2833.27	93.336
2834.6	101.839
2835.92	111.547
2837.24	121.746
2838.56	132.935
2839.88	144.175
2841.21	156.441
2842.53	167.945
2843.85	180.263
2845.17	194.578
2846.49	209.177
2847.81	224.7
2849.13	241.029
2850.45	257.364
2851.77	274.736
2853.09	291.169
2854.41	308.219
2855.73	324.855
2857.05	340.997
2858.37	357.17
2859.69	371.406
2861	383.574
2862.32	397.06
2863.64	408.959
2864.96	420.845
2866.28	430.881
2867.59	439.884
2868.91	446.835
2870.23	453.524
2871.54	460.057
2872.86	467.352
2874.17	473.027
2875.49	479.711
2876.81	485.862
2878.12	490.761
2879.44	496.127
2880.75	499.987
2882.07	504.098
2883.38	507.822
2884.69	511.286
2886.01	514.15
2887.32	517.274
2888.63	520.42
2889.95	524.037
2891.26	526.429
2892.57	528.092
2893.89	530.145
2895.2	532.881
2896.51	536.553
2897.82	539.348
2899.13	543.403
2900.44	549.054
2901.76	555.702
2903.07	563.913
2904.38	572.109
2905.69	582.12
2907	593.099
2908.31	605.079
2909.62	618.479
2910.93	634.515
2912.24	648.885
2913.55	663.662
2914.85	678.203
2916.16	691.097
2917.47	703.935
2918.78	715.323
2920.09	725.579
2921.4	735.107
2922.7	743.259
2924.01	748.951
2925.32	752.613
2926.62	756.358
2927.93	758.801
2929.24	759.066
2930.54	758.746
2931.85	756.643
2933.15	752.257
2934.46	746.51
2935.76	741.176
2937.07	733.843
2938.37	725.205
2939.68	715.497
2940.98	705.144
2942.29	692.579
2943.59	679.818
2944.89	666.116
2946.2	651.729
2947.5	638.456
2948.8	623.596
2950.11	607.909
2951.41	592.376
2952.71	577.96
2954.01	562.333
2955.32	546.76
2956.62	530.792
2957.92	515.589
2959.22	500.593
2960.52	486.415
2961.82	470.791
2963.12	456.973
2964.42	443.027
2965.72	431.331
2967.02	418.346
2968.32	406.447
2969.62	395.051
2970.92	384.218
2972.22	372.066
2973.51	361.621
2974.81	351.012
2976.11	340.719
2977.41	328.791
2978.71	317.093
2980	304.848
2981.3	292.931
2982.6	282.01
2983.9	269.639
2985.19	257.082
2986.49	245.385
2987.78	233.199
2989.08	220.283
2990.38	208.14
2991.67	195.737
2992.97	183.384
2994.26	171.896
2995.56	160.835
2996.85	150.453
2998.14	139.576
2999.44	130.494
3000.73	120.695
3002.03	110.422
3003.32	100.909
3004.61	92.3263
3005.91	82.7819
3007.2	75.1628
3008.49	67.2126
3009.78	59.6786
3011.07	53.4358
3012.37	48.5798
3013.66	43.402
3014.95	37.8663
3016.24	33.3406
3017.53	29.7293
3018.82	24.8925
3020.11	21.3012
3021.4	16.9727
3022.69	12.8796
3023.98	9.37526
3025.27	6.553
3026.56	4.07278
3027.85	3.34925
3029.14	0.947761
3030.43	0.028328
3031.71	-1.29418
3033	-1.54212
3034.29	-1.66835
3035.58	-1.26497
3036.87	-0.346798
3038.15	0.858494
3039.44	2.30451
3040.73	3.67447
3042.01	5.03426
3043.3	6.61958
3044.59	7.5095
3045.87	9.02682
3047.16	10.201
3048.44	11.6219
3049.73	13.1786
3051.01	15.1407
3052.3	16.2934
3053.58	17.1386
3054.87	17.8807
3056.15	18.8641
3057.43	19.8236
3058.72	20.892
3060	21.2668
3061.29	22.0354
3062.57	21.864
3063.85	22.3331
3065.13	21.8794
3066.42	21.7019
3067.7	21.8332
3068.98	21.7647
3070.26	21.0377
3071.54	21.0544
3072.82	19.3355
3074.11	18.3055
3075.39	16.6032
3076.67	14.5997
3077.95	12.6213
3079.23	10.9188
3080.51	9.85643
3081.79	8.66426
3083.07	6.38343
3084.35	5.32316
3085.63	3.77714
3086.9	3.86869
3088.18	3.34265
3089.46	2.46407
3090.74	2.56834
3092.02	2.90422
3093.29	2.54966
3094.57	4.50662
3095.85	5.33629
3097.13	6.2825
3098.4	7.5248
3099.68	8.49681
3100.95	10.3831
3102.23	11.5042
3103.51	13.6481
3104.78	14.7671
3106.06	16.6227
3107.33	18.6256
3108.61	20.5311
3109.88	23.4046
3111.16	26.0032
3112.43	29.2443
3113.71	30.9322
3114.98	33.7392
3116.25	35.7278
3117.53	37.8483
3118.8	40.3293
3120.07	43.1151
3121.35	45.6149
3122.62	48.3393
3123.89	50.8762
3125.16	53.9542
3126.44	56.5651
3127.71	59.3306
3128.98	61.5854
3130.25	63.8037
3131.52	65.9223
3132.79	67.2001
3134.06	69.0941
3135.33	70.9325
3136.6	72.2791
3137.87	74.2269
3139.14	76.3974
3140.41	79.1019
3141.68	82.1658
3142.95	84.2845
3144.22	86.5977
3145.49	88.9738
3146.76	92.2305
3148.02	94.0557
3149.29	96.3735
