#Acq. time (s)=	45
#Accumulations=	2
#Range (cm-¹)=	200...3150
#Windows=	2
#Auto scanning=	Off
#Autofocus=	Off
#Macrospot=	Off
#AutoExposure=	Off
#Spike filter=	Multiple accum.
#Delay time (s)=	0
#Binning=	1
#Readout mode=	Signal
#DeNoise=	Off
#ICS correction=	On
#Dark correction=	Off
#Inst. Process=	Off
#Detector Gain=	Best Dynamic Range
#Detector ADC=	20 kHz       
#Detector temperature (°C)=	-69.85
#Instrument=	LabRAM HR Evol
#Detector=	Synapse
#Objective=	x100
#Grating=	600 gr/mm
#ND Filter=	100%
#Laser (nm)=	532 
#Hole=	100.021
#Range=	Auto
#Laser Pol.=	No
#Raman. Pol.=	No
#Laser Pol. (°)=	-0.0007625
#Raman Pol. (°)=	89.9995
#Collection=	Microscope
#StageXY=	Marzhauser
#StageZ=	Marzhauser
#X (µm)=	-959.3
#Y (µm)=	-2852.3
#Z (µm)=	528.45
#Full time(mm:ss)=	3:19
#Project=	
#Sample=	
#Site=	
#Title=	Mb_00_13_26_2x_45s_532 nm_x100_100%_600 gr_mm
#Remark=	
#Date=	06.07.2022 11:44
#Acquired=	06.07.2022 11:44:08
#Base:Fit=	10.08.2022 10:16:56
#Base:Sub=	10.08.2022 10:17:24
#Filter:Polynom=	16.08.2022 10:36:38
#AxisType[0]=Intens
#AxisUnit[0]=Cnt
#AxisType[1]=Spectr
#AxisUnit[1]=1/cm
200.398	43.1491
202.213	39.2921
204.027	32.1686
205.843	25.2994
207.657	18.7017
209.47	13.983
211.283	10.4818
213.097	8.58189
214.909	8.58896
216.721	10.9101
218.533	14.2508
220.344	19.0046
222.157	23.442
223.967	29.6375
225.777	35.9269
227.587	41.7696
229.396	46.1766
231.205	52.7217
233.016	59.1371
234.824	64.8304
236.632	68.0673
238.439	72.8436
240.247	76.3112
242.053	80.7248
243.86	84.5011
245.666	88.2284
247.474	91.7228
249.279	96.7481
251.085	100.969
252.889	103.576
254.694	104.648
256.498	107.958
258.301	109.938
260.105	112.699
261.908	113.015
263.71	114.104
265.513	115.244
267.315	112.299
269.116	110.951
270.918	110.17
272.718	106.223
274.519	101.73
276.319	99.1745
278.119	94.5218
279.918	90.9572
281.718	86.5796
283.516	81.8143
285.315	75.5569
287.113	70.5273
288.911	63.7175
290.708	57.3996
292.505	51.2106
294.302	48.966
296.098	44.9344
297.894	43.3874
299.69	41.1017
301.485	40.3496
303.278	40.5294
305.073	39.1887
306.867	38.1607
308.661	36.5727
310.454	35.2298
312.247	33.3025
314.04	32.8391
315.833	30.4775
317.623	29.2437
319.415	28.1195
321.206	27.7398
322.997	26.5788
324.788	24.3366
326.579	23.6167
328.367	24.6225
330.156	23.5445
331.946	23.2914
333.735	22.7723
335.523	21.6422
337.31	20.1191
339.098	20.4444
340.885	18.9716
342.673	18.6363
344.458	18.3532
346.244	19.1551
348.03	17.2821
349.816	16.1742
351.6	15.2929
353.385	16.0691
355.17	16.2058
356.953	15.5645
358.737	17.0797
360.521	17.9676
362.304	17.73
364.085	20.3628
365.868	22.0587
367.65	24.6049
369.431	27.5334
371.212	30.3961
372.994	32.3624
374.773	33.776
376.554	36.6966
378.332	42.4188
380.112	48.8107
381.892	55.707
383.669	62.3642
385.448	68.0331
387.225	74.823
389.003	82.0311
390.781	87.7296
392.557	92.3824
394.334	96.9461
396.109	102.138
397.885	106.639
399.66	108.79
401.436	111.529
403.211	113.179
404.984	115.21
406.759	117.248
408.532	118.64
410.306	119.107
412.078	119.771
413.851	119.788
415.623	120.026
417.395	119.655
419.166	117.949
420.938	115.9
422.708	113.819
424.477	110.912
426.248	107.521
428.017	103.64
429.788	99.5175
431.556	94.3916
433.326	89.204
435.093	84.2434
436.86	78.3722
438.629	73.9106
440.395	70.1786
442.163	67.1278
443.929	63.444
445.694	59.6245
447.461	57.7825
449.226	54.529
450.99	52.9421
452.756	51.742
454.52	49.3854
456.285	48.5989
458.048	47.3272
459.811	47.226
461.573	45.7937
463.337	46.4923
465.099	48.8418
466.86	51.3064
468.623	51.7605
470.384	52.6186
472.144	53.761
473.906	55.1654
475.666	54.9436
477.425	57.18
479.184	57.2327
480.944	58.2676
482.703	58.0474
484.461	58.7232
486.218	57.9605
487.975	57.7738
489.734	58.8099
491.491	59.1748
493.247	61.0063
495.003	61.5362
496.759	63.34
498.516	63.6303
500.271	65.3627
502.025	67.8215
503.779	68.286
505.533	69.5657
507.287	68.0774
509.042	68.088
510.795	68.4022
512.547	68.3222
514.299	67.9861
516.051	67.6378
517.803	66.9945
519.554	66.7519
521.305	67.1519
523.055	67.1807
524.805	67.4206
526.555	67.5939
528.307	68.8732
530.056	70.1825
531.805	68.9377
533.553	68.4796
535.301	68.4993
537.049	66.8479
538.797	66.7149
540.544	65.9381
542.291	65.5786
544.037	66.0816
545.783	64.6093
547.529	62.1517
549.275	59.8105
551.02	58.556
552.765	56.1766
554.509	53.2076
556.253	52.1422
557.997	50.5521
559.738	48.6389
561.482	46.9785
563.224	45.4082
564.967	45.0003
566.709	44.4296
568.451	42.8252
570.192	41.4948
571.933	40.9395
573.674	38.0906
575.415	36.3696
577.153	35.5944
578.893	34.8916
580.632	34.0137
582.371	34.4842
584.11	33.5768
585.849	33.1312
587.587	32.7479
589.323	31.9413
591.06	29.6872
592.797	27.6599
594.534	25.8481
596.271	25.912
598.005	25.4576
599.741	24.7476
601.476	24.9447
603.211	24.8155
604.944	25.5819
606.679	25.7192
608.413	25.7599
610.147	25.4205
611.878	26.0495
613.611	25.0881
615.344	25.7204
617.077	24.091
618.807	22.7936
620.539	22.0293
622.27	21.6035
623.999	21.2814
625.73	21.8716
627.461	22.5487
629.189	23.3735
630.919	22.4602
632.648	23.0185
634.376	22.789
636.105	25.3409
637.833	26.4364
639.559	27.7342
641.287	29.2998
643.013	30.6355
644.74	29.5881
646.467	30.3889
648.192	30.456
649.918	30.5622
651.642	30.4208
653.368	29.8765
655.091	28.5237
656.816	27.8004
658.538	28.1445
660.263	27.589
661.987	27.5614
663.708	28.3905
665.432	27.2001
667.153	26.4298
668.875	26.1669
670.596	24.7899
672.318	24.5379
674.037	22.8271
675.759	21.0143
677.478	18.8818
679.196	17.0125
680.917	16.7399
682.635	15.6771
684.355	15.1611
686.072	13.998
687.791	14.2872
689.508	14.209
691.224	13.0377
692.942	11.824
694.658	10.7675
696.376	9.7117
698.091	9.52139
699.805	7.76961
701.522	7.05153
703.236	5.35055
704.95	4.89195
706.665	4.9601
708.379	5.68848
710.093	6.03557
711.806	6.27116
713.518	6.63525
715.23	6.89826
716.943	6.63581
718.655	7.43346
720.366	6.63954
722.078	7.38826
723.788	5.47017
725.498	4.89624
727.208	5.43022
728.919	2.82433
730.628	1.9691
732.337	3.26777
734.045	2.17794
735.755	1.8063
737.463	1.2274
739.17	1.30823
740.877	2.64887
742.584	2.65134
744.292	5.32854
745.998	5.4116
747.704	5.70364
749.409	6.52605
751.114	8.73901
752.819	10.9505
754.526	13.0422
756.23	13.9425
757.934	13.9249
759.637	14.4135
761.34	14.4826
763.043	17.0362
764.746	18.4262
766.448	20.0405
768.152	22.0509
769.853	24.5247
771.554	26.1861
773.255	28.3082
774.956	30.4748
776.656	30.7533
778.356	33.1716
780.056	33.6808
781.755	34.8245
783.454	35.8994
785.153	36.7579
786.851	38.0469
788.549	38.6761
790.247	39.0908
791.944	40.7816
793.641	40.1589
795.338	40.1192
797.034	40.3065
798.73	39.2564
800.426	40.5608
802.121	41.6325
803.817	40.0929
805.511	41.1704
807.206	40.1237
808.9	40.2562
810.592	40.5574
812.286	41.2058
813.979	39.9744
815.672	41.6329
817.364	42.3214
819.057	42.626
820.748	43.2278
822.44	45.3759
824.129	46.8959
825.82	46.7794
827.511	47.2812
829.201	49.7271
830.891	49.1383
832.581	49.6618
834.269	51.0388
835.958	50.906
837.646	49.6586
839.335	47.604
841.023	46.132
842.709	45.0203
844.396	44.6016
846.084	43.3051
847.77	42.6365
849.455	41.3925
851.141	40.5386
852.827	39.3517
854.513	37.1075
856.196	35.6004
857.881	34.0859
859.566	31.5796
861.248	29.396
862.932	27.8026
864.616	24.556
866.297	22.8983
867.98	21.4745
869.663	19.8416
871.343	17.9864
873.026	16.0599
874.707	14.1427
876.387	13.3383
878.068	12.6087
879.747	11.9817
881.428	10.0449
883.108	7.67719
884.786	7.78084
886.465	6.04938
888.143	5.05588
889.822	6.18749
891.498	5.81734
893.177	7.42541
894.855	7.24889
896.53	7.34562
898.208	7.46542
899.883	8.29556
901.56	8.21696
903.234	9.88112
904.91	11.015
906.584	10.0461
908.26	9.65662
909.933	9.83802
911.608	12.1405
913.28	12.3823
914.955	13.011
916.627	13.2944
918.298	13.6009
919.972	13.1465
921.643	14.4519
923.315	15.6566
924.986	16.1876
926.656	16.8363
928.328	17.1697
929.997	17.6375
931.668	18.4737
933.337	18.8311
935.006	17.4577
936.676	16.9704
938.344	16.8034
940.012	17.4178
941.681	17.9224
943.348	18.0312
945.014	17.0056
946.683	16.4884
948.349	15.3521
950.015	16.4859
951.682	16.14
953.347	16.7411
955.012	15.6397
956.676	14.222
958.343	11.9475
960.006	11.4458
961.67	12.1565
963.333	12.2272
964.998	13.0224
966.661	15.4223
968.323	18.0212
969.985	20.5398
971.649	24.9222
973.31	28.6045
974.971	32.7311
976.632	36.986
978.293	41.5358
979.953	46.5278
981.615	52.4402
983.274	56.67
984.933	58.4659
986.592	62.4806
988.251	64.6492
989.909	65.1754
991.567	69.0101
993.225	71.4297
994.884	73.2604
996.541	74.9519
998.198	76.5383
999.855	76.3963
1001.51	77.7641
1003.17	78.4356
1004.82	77.8061
1006.48	75.956
1008.13	74.1845
1009.79	73.0117
1011.44	71.9408
1013.1	72.1273
1014.75	72.8827
1016.4	75.135
1018.06	77.9165
1019.71	82.0063
1021.36	86.0904
1023.01	88.9986
1024.66	91.648
1026.32	93.9739
1027.97	96.3007
1029.62	99.8377
1031.27	101.183
1032.92	103.734
1034.57	103.758
1036.22	104.508
1037.87	104.238
1039.52	104.942
1041.16	105.454
1042.81	107.511
1044.46	110.51
1046.11	112.192
1047.76	113.034
1049.4	113.679
1051.05	113.358
1052.7	114.578
1054.34	115.099
1055.99	114.378
1057.63	112.241
1059.28	111.26
1060.92	108.855
1062.57	104.147
1064.21	99.8208
1065.85	93.431
1067.5	87.7368
1069.14	82.9932
1070.78	76.7868
1072.43	70.2728
1074.07	66.0921
1075.71	59.7806
1077.35	52.3129
1078.99	44.5372
1080.63	37.5354
1082.27	31.0666
1083.91	25.2854
1085.55	19.7222
1087.19	13.846
1088.83	11.373
1090.47	10.2377
1092.11	8.97182
1093.75	9.47133
1095.39	10.3051
1097.03	12.5713
1098.66	13.9685
1100.3	14.3193
1101.94	15.6456
1103.57	16.7312
1105.21	16.7953
1106.84	18.0026
1108.48	19.4548
1110.11	19.4254
1111.75	17.9467
1113.38	17.619
1115.02	17.111
1116.65	17.489
1118.29	17.3672
1119.92	17.2689
1121.55	16.0872
1123.19	15.4389
1124.82	15.2623
1126.45	15.9198
1128.08	14.836
1129.71	14.999
1131.34	15.8252
1132.97	15.0141
1134.6	16.0699
1136.23	16.4643
1137.86	15.9577
1139.49	16.071
1141.12	16.9425
1142.75	16.5553
1144.38	15.7986
1146.01	16.7177
1147.64	14.9432
1149.26	13.8115
1150.89	13.3262
1152.52	12.8698
1154.15	13.1058
1155.77	11.3408
1157.4	9.2268
1159.02	7.55697
1160.65	8.09508
1162.27	10.0311
1163.9	9.36423
1165.52	10.688
1167.15	11.1752
1168.77	10.6774
1170.39	12.19
1172.02	11.1944
1173.64	11.2377
1175.26	11.678
1176.89	12.1091
1178.51	13.0193
1180.13	12.2516
1181.75	12.4067
1183.37	13.7152
1184.99	15.0872
1186.61	15.5357
1188.23	17.0766
1189.85	18.2808
1191.47	19.0738
1193.09	20.5401
1194.71	22.9512
1196.33	23.9493
1197.94	26.4729
1199.56	27.6137
1201.18	31.4202
1202.8	35.2066
1204.41	39.3169
1206.03	42.9027
1207.65	47.1168
1209.26	52.118
1210.88	57.2164
1212.49	60.6045
1214.11	63.5596
1215.72	69.4481
1217.34	73.9904
1218.95	76.5956
1220.57	80.8104
1222.18	83.8256
1223.79	87.5202
1225.41	90.9552
1227.02	94.0913
1228.63	96.0626
1230.24	99.3446
1231.85	101.528
1233.47	103.896
1235.08	106.109
1236.69	106.308
1238.3	109.072
1239.91	110.909
1241.52	113.388
1243.13	114.65
1244.74	115.092
1246.34	116.159
1247.95	116.836
1249.56	117.379
1251.17	117.47
1252.78	116.224
1254.38	116.578
1255.99	115.878
1257.6	115.186
1259.2	114.762
1260.81	113.881
1262.42	113.794
1264.02	113.41
1265.63	112.8
1267.23	111.488
1268.84	112.306
1270.44	112.109
1272.04	112.163
1273.65	111.948
1275.25	111.17
1276.85	112.788
1278.46	116.224
1280.06	118.49
1281.66	122.996
1283.26	124.359
1284.86	125.943
1286.46	127.585
1288.07	129.712
1289.67	131.978
1291.27	131.8
1292.87	133.311
1294.47	135.796
1296.06	140.048
1297.66	141.616
1299.26	144.082
1300.86	147.411
1302.46	151.092
1304.06	153.507
1305.65	155.629
1307.25	157.663
1308.85	159.084
1310.44	160.33
1312.04	162.73
1313.64	165.111
1315.23	165.322
1316.83	166.129
1318.42	167.594
1320.02	169.471
1321.61	170.691
1323.2	171.25
1324.8	171.641
1326.39	172.511
1327.99	172.086
1329.58	170.976
1331.17	170.231
1332.76	170.268
1334.36	169.47
1335.95	169.364
1337.54	169.393
1339.13	168.34
1340.72	168.2
1342.31	166.206
1343.9	164.908
1345.49	164.009
1347.08	162.247
1348.67	161.338
1350.26	158.727
1351.85	156.754
1353.43	155.775
1355.02	155.442
1356.61	155.112
1358.2	153.368
1359.78	150.004
1361.37	147.628
1362.96	144.406
1364.54	141.948
1366.13	138.814
1367.71	136.542
1369.3	132.568
1370.88	128.643
1372.47	128.377
1374.05	126.845
1375.64	126.615
1377.22	122.958
1378.8	120.803
1380.39	118.599
1381.97	116.23
1383.55	113.902
1385.13	112.447
1386.72	110.231
1388.3	108.697
1389.88	106.409
1391.46	105.377
1393.04	102.649
1394.62	101.068
1396.2	100.539
1397.78	99.8057
1399.36	100.385
1400.94	100.201
1402.52	101.24
1404.1	103.286
1405.68	104.986
1407.25	107.319
1408.83	111.658
1410.41	116.246
1411.98	120.184
1413.56	124.7
1415.14	130.892
1416.71	135.931
1418.29	141.219
1419.87	147.692
1421.44	153.331
1423.02	160.753
1424.59	167.084
1426.16	173.778
1427.74	180.813
1429.31	187.288
1430.89	195.13
1432.46	202.657
1434.03	209.09
1435.6	215.063
1437.18	220.927
1438.75	225.282
1440.32	230.556
1441.89	234.574
1443.46	236.883
1445.03	238.255
1446.6	240.421
1448.17	239.628
1449.74	240.173
1451.31	239.901
1452.88	238.068
1454.45	236.185
1456.02	232.042
1457.59	229.343
1459.16	224.869
1460.72	220.279
1462.29	214.85
1463.86	208.122
1465.43	201.548
1466.99	195.61
1468.56	188.06
1470.13	180.873
1471.69	171.569
1473.26	162.35
1474.82	153.704
1476.38	146.861
1477.95	141.136
1479.51	134.803
1481.08	129.364
1482.64	122.236
1484.2	116.684
1485.77	111.593
1487.33	105.497
1488.89	100.813
1490.46	95.7397
1492.02	92.3109
1493.58	88.7934
1495.14	85.3224
1496.7	83.4204
1498.26	81.8644
1499.82	79.5687
1501.38	78.0135
1502.94	75.9445
1504.5	75.6068
1506.06	74.9124
1507.62	75.1837
1509.18	75.8329
1510.73	75.9841
1512.29	76.5134
1513.85	76.8886
1515.41	77.0881
1516.96	76.5009
1518.52	76.3517
1520.08	78.0551
1521.63	78.7105
1523.19	79.7709
1524.75	80.4153
1526.3	80.1147
1527.85	80.895
1529.41	81.4879
1530.96	83.0147
1532.52	83.4729
1534.07	83.7252
1535.62	83.0526
1537.18	84.1501
1538.73	84.5893
1540.28	84.5899
1541.84	84.8585
1543.39	85.5941
1544.94	85.8418
1546.49	85.3179
1548.04	84.389
1549.59	84.3053
1551.14	85.5673
1552.69	86.707
1554.25	88.0692
1555.79	88.2951
1557.34	87.6364
1558.89	87.3447
1560.44	86.9115
1561.99	87.6155
1563.54	87.435
1565.08	89.3985
1566.63	92.1532
1568.18	93.6351
1569.73	94.9333
1571.27	96.1559
1572.82	99.2422
1574.37	102.176
1575.91	105.008
1577.46	107.399
1579	110.97
1580.55	113.522
1582.09	117.334
1583.64	119.129
1585.18	123.118
1586.73	124.992
1588.27	127.098
1589.81	129.912
1591.35	132.194
1592.9	134.713
1594.44	135.882
1595.98	139.144
1597.52	141.947
1599.06	142.169
1600.61	142.841
1602.15	142.772
1603.69	142.613
1605.23	142.677
1606.77	142.653
1608.31	142.24
1609.85	141.014
1611.39	140.481
1612.93	140.241
1614.46	141.549
1616	140.441
1617.54	140.829
1619.08	141.244
1620.61	140.488
1622.15	140.257
1623.69	140.879
1625.23	140.083
1626.76	139.186
1628.3	138.424
1629.83	138.157
1631.37	138.854
1632.9	139.766
1634.44	140.825
1635.97	142.369
1637.51	142.956
1639.04	143.229
1640.57	145.345
1642.11	148.118
1643.64	149.366
1645.17	150.263
1646.71	151.103
1648.24	153.553
1649.77	155.285
1651.3	155.284
1652.83	155.263
1654.36	156.051
1655.89	156.348
1657.42	156.718
1658.96	156.301
1660.48	155.397
1662.01	155.76
1663.54	152.173
1665.07	150.063
1666.6	147.889
1668.13	145.463
1669.66	143.168
1671.19	139.045
1672.71	135.832
1674.24	130.543
1675.77	125.907
1677.29	121.061
1678.82	117.305
1680.35	111.914
1681.87	109.272
1683.4	104.647
1684.92	100.148
1686.45	95.4129
1687.97	91.8271
1689.5	87.3718
1691.02	81.5799
1692.54	76.3269
1694.07	71.3106
1695.59	66.7247
1697.11	61.8289
1698.64	58.9562
1700.16	55.1698
1701.68	50.8962
1703.2	48.194
1704.72	45.6618
1706.25	43.223
1707.77	40.0306
1709.29	37.4244
1710.81	33.9358
1712.33	30.6063
1713.85	26.9292
1715.37	25.4814
1716.89	23.5144
1718.41	22.0173
1719.92	19.6765
1721.44	18.1014
1722.96	17.1559
1724.48	16.2467
1725.99	15.0307
1727.51	14.5143
1729.03	14.2234
1730.55	14.2793
1732.06	13.1324
1733.58	12.3991
1735.09	11.021
1736.61	9.74866
1738.13	8.49022
1739.64	6.21812
1741.15	5.50521
1742.67	5.54712
1744.18	5.9607
1745.7	5.46342
1747.21	4.26071
1748.72	4.17006
1750.24	3.83775
1751.75	4.60458
1753.26	4.42764
1754.77	4.98393
1756.29	4.42228
1757.8	4.87986
1759.31	4.06482
1760.82	3.6771
1762.33	3.92279
1763.84	4.12601
1765.35	2.94661
1766.86	2.42816
1768.37	3.30438
1769.88	3.76477
1771.39	4.39796
1772.9	4.9995
1774.4	5.55292
1775.91	5.40348
1777.42	5.47626
1778.93	5.75536
1780.44	5.498
1781.94	5.13481
1783.45	5.20748
1784.96	5.78229
1786.46	5.40808
1787.97	5.52075
1789.47	5.27403
1790.98	5.45284
1792.48	5.53581
1793.99	6.21206
1795.49	5.6561
1797	6.1616
1798.5	6.09876
1800.01	6.04752
1801.51	5.74896
1803.01	5.09628
1804.51	3.91777
1806.02	3.14293
1807.52	3.17092
1809.02	2.8544
1810.52	2.16983
1812.02	1.33824
1813.52	1.25323
1815.02	0.589322
1816.53	0.138836
1818.03	0.438829
1819.52	0.27587
1821.02	-0.638887
1822.52	-1.92642
1824.02	-1.65962
1825.52	-1.53058
1827.02	-1.26501
1828.52	-1.03625
1830.02	-0.541264
1831.51	-0.613877
1833.01	-0.130456
1834.51	1.39659
1836.01	1.86617
1837.5	2.38079
1839	2.33725
1840.49	2.73853
1841.99	3.48353
1843.49	4.42314
1844.98	5.08924
1846.48	5.41797
1847.97	5.97717
1849.47	6.61258
1850.96	7.31657
1852.45	7.83931
1853.95	8.35884
1855.44	9.04752
1856.93	8.98814
1858.42	9.40658
1859.92	9.91686
1861.41	9.99801
1862.9	9.74389
1864.39	9.33011
1865.88	9.36114
1867.38	9.14588
1868.87	8.22593
1870.36	8.06374
1871.85	7.91394
1873.34	7.76445
1874.83	7.7758
1876.32	7.52264
1877.81	6.9184
1879.29	6.39189
1880.78	6.95938
1882.27	6.82483
1882.53	5.97733
1884.03	4.85021
1885.52	3.99501
1887.01	3.70732
1888.51	3.82321
1890	3.21939
1891.5	3.7158
1892.99	2.9554
1894.48	3.29472
1895.97	4.4036
1897.47	5.82551
1898.96	6.34667
1900.45	7.01615
1901.94	7.4208
1903.43	7.30873
1904.92	8.50362
1906.41	9.15559
1907.9	10.0411
1909.39	9.30029
1910.88	8.6348
1912.37	8.55027
1913.86	9.94303
1915.35	10.2746
1916.84	10.8448
1918.33	11.3286
1919.81	11.3485
1921.3	11.5055
1922.79	12.3411
1924.28	12.3079
1925.76	12.5157
1927.25	13.0436
1928.73	12.4009
1930.22	11.8876
1931.71	12.1992
1933.19	11.9321
1934.68	11.0695
1936.16	10.0468
1937.65	9.07144
1939.13	8.80047
1940.62	8.08522
1942.1	8.49092
1943.58	7.93262
1945.07	8.14638
1946.55	8.54633
1948.03	8.47013
1949.51	8.26269
1951	6.79343
1952.48	6.99556
1953.96	6.3962
1955.44	5.51027
1956.92	6.56867
1958.4	6.32355
1959.88	6.63494
1961.36	6.6856
1962.84	7.09453
1964.32	6.02131
1965.8	6.44611
1967.28	5.45087
1968.76	6.58015
1970.24	6.87463
1971.72	6.12215
1973.2	6.10578
1974.67	5.47298
1976.15	6.01643
1977.63	6.02469
1979.1	6.39899
1980.58	6.19426
1982.06	6.86944
1983.54	6.02208
1985.01	7.10847
1986.49	7.87894
1987.96	9.80152
1989.44	9.82044
1990.91	9.71439
1992.39	10.4958
1993.86	10.5773
1995.33	10.521
1996.81	10.6346
1998.28	10.9724
1999.75	9.84464
2001.23	9.12189
2002.7	8.26288
2004.17	8.86172
2005.65	8.24203
2007.12	7.56341
2008.59	6.35479
2010.06	6.19373
2011.53	6.66361
2013	7.14042
2014.47	7.5326
2015.94	8.20445
2017.41	7.88943
2018.88	8.07092
2020.35	7.27762
2021.82	7.29661
2023.29	6.85322
2024.76	6.02481
2026.23	6.0877
2027.69	4.8072
2029.16	4.28135
2030.63	3.91445
2032.1	2.64718
2033.56	2.55046
2035.03	2.67848
2036.5	2.83548
2037.96	1.62373
2039.43	2.41714
2040.89	2.65463
2042.36	3.33196
2043.83	3.75403
2045.29	2.87531
2046.75	3.70196
2048.22	4.25774
2049.68	5.48301
2051.15	5.28182
2052.61	5.75429
2054.07	5.7539
2055.54	6.12753
2057	5.61692
2058.46	7.37166
2059.92	7.53672
2061.39	8.03896
2062.85	7.12783
2064.31	6.80129
2065.77	7.33259
2067.23	7.29111
2068.69	6.45641
2070.15	5.75094
2071.61	6.17718
2073.07	5.42378
2074.53	6.84415
2075.99	7.80357
2077.45	8.27524
2078.91	8.05596
2080.37	9.25725
2081.82	9.54613
2083.28	10.5518
2084.74	10.6136
2086.2	10.5845
2087.65	10.7749
2089.11	9.61692
2090.57	9.77297
2092.02	8.81572
2093.48	8.56044
2094.94	7.97329
2096.39	7.60771
2097.85	7.87145
2099.3	7.48282
2100.76	7.90356
2102.21	8.77792
2103.66	9.35952
2105.12	10.3611
2106.57	10.007
2108.03	10.0297
2109.48	9.26417
2110.93	8.45571
2112.38	8.36459
2113.84	8.19908
2115.29	8.12309
2116.74	8.89985
2118.19	8.61971
2119.64	9.01502
2121.09	9.37642
2122.54	8.21163
2123.99	8.57255
2125.45	8.1776
2126.89	7.84272
2128.34	8.88933
2129.79	8.65411
2131.24	8.60243
2132.69	7.041
2134.14	6.755
2135.59	5.71652
2137.04	5.98369
2138.48	5.46457
2139.93	6.07936
2141.38	5.56557
2142.83	6.51704
2144.27	7.49414
2145.72	7.83472
2147.17	8.38657
2148.61	9.10928
2150.06	9.0209
2151.5	9.80852
2152.95	10.1455
2154.39	9.92098
2155.84	9.66254
2157.28	9.83292
2158.73	10.5476
2160.17	10.8959
2161.61	11.1786
2163.06	12.7286
2164.5	12.7475
2165.94	13.003
2167.38	13.9756
2168.83	15
2170.27	14.7934
2171.71	13.6446
2173.15	13.5176
2174.59	13.6817
2176.03	13.3082
2177.47	13.093
2178.91	12.9322
2180.36	13.4856
2181.8	13.2409
2183.23	13.0086
2184.67	13.0833
2186.11	13.67
2187.55	13.9141
2188.99	13.7739
2190.43	13.3499
2191.87	13.4965
2193.3	13.5805
2194.74	12.5121
2196.18	12.8422
2197.62	11.7389
2199.05	11.2598
2200.49	11.0647
2201.93	9.54778
2203.36	9.29036
2204.8	9.05856
2206.23	9.77413
2207.67	9.47027
2209.1	11.2226
2210.54	10.9297
2211.97	11.5791
2213.41	12.082
2214.84	11.6397
2216.27	11.4122
2217.71	12.1106
2219.14	12.566
2220.57	13.2858
2222.01	13.7082
2223.44	14.0912
2224.87	12.6744
2226.3	13.1477
2227.73	12.851
2229.16	13.0566
2230.6	13.1252
2232.03	13.2253
2233.46	13.022
2234.89	12.5384
2236.32	12.1972
2237.75	11.3996
2239.18	11.5055
2240.61	10.4004
2242.03	10.4232
2243.46	10.3377
2244.89	11.2373
2246.32	11.1424
2247.75	11.4012
2249.17	11.168
2250.6	11.0865
2252.03	10.584
2253.46	9.59104
2254.88	8.98025
2256.31	9.41432
2257.73	9.42668
2259.16	9.45628
2260.59	9.53668
2262.01	10.4473
2263.44	9.9412
2264.86	9.5307
2266.29	9.34414
2267.71	9.28476
2269.14	9.78218
2270.56	9.95996
2271.98	9.5652
2273.4	10.0038
2274.83	10.4206
2276.25	10.498
2277.67	11.5462
2279.09	11.2322
2280.52	11.3723
2281.94	10.5223
2283.36	10.4417
2284.78	10.6871
2286.2	9.67343
2287.62	10.142
2289.04	9.57566
2290.46	8.66463
2291.88	8.16411
2293.3	7.54207
2294.72	7.34702
2296.14	7.24489
2297.56	8.27754
2298.98	7.86826
2300.4	8.67821
2301.82	8.65807
2303.23	9.24582
2304.65	9.4384
2306.07	9.56658
2307.49	10.8671
2308.9	11.4423
2310.32	11.8863
2311.73	12.4868
2313.15	12.6703
2314.57	12.1535
2315.98	12.7879
2317.4	12.3079
2318.81	12.3945
2320.23	11.0969
2321.64	10.7519
2323.06	11.119
2324.47	9.79196
2325.88	9.56153
2327.3	9.77928
2328.71	9.61071
2330.12	10.6607
2331.54	10.3977
2332.95	10.5041
2334.36	9.34093
2335.77	9.70156
2337.18	9.67713
2338.6	8.44711
2340.01	8.65288
2341.42	7.75363
2342.83	7.20285
2344.24	7.94136
2345.65	7.12915
2347.06	6.55787
2348.47	6.1799
2349.88	5.26226
2351.29	5.01155
2352.7	4.76145
2354.1	4.33896
2355.51	4.43285
2356.92	3.26121
2358.33	3.12042
2359.74	2.7046
2361.14	2.56098
2362.55	2.92905
2363.96	3.14175
2365.36	4.30413
2366.77	4.73565
2368.18	4.92218
2369.58	4.91069
2370.99	5.96124
2372.39	5.87747
2373.8	6.89091
2375.2	6.60808
2376.61	7.3532
2378.01	7.56005
2379.42	7.36129
2380.82	6.47582
2382.22	6.05244
2383.63	5.50339
2385.03	4.77428
2386.43	4.638
2387.84	3.48871
2389.24	3.31882
2390.64	2.76074
2392.04	2.33027
2393.44	2.13766
2394.84	1.72126
2396.25	2.64712
2397.65	3.39529
2399.05	3.60421
2400.45	3.6255
2401.85	2.30438
2403.25	3.03656
2404.65	2.6923
2406.05	2.81718
2407.45	2.24749
2408.84	2.43287
2410.24	3.0595
2411.64	2.90155
2413.04	3.35093
2414.44	4.07462
2415.83	3.46801
2417.23	3.63569
2418.63	3.77407
2420.02	4.569
2421.42	3.98658
2422.82	3.81671
2424.21	3.95618
2425.61	4.51887
2427	3.43552
2428.4	4.85272
2429.8	5.61723
2431.19	5.86658
2432.58	6.83895
2433.98	7.26044
2435.37	7.59568
2436.77	6.75185
2438.16	6.83884
2439.55	6.27691
2440.95	6.6188
2442.34	6.47293
2443.73	6.44602
2445.12	6.20146
2446.51	6.8162
2447.91	5.76773
2449.3	5.26785
2450.69	5.07067
2452.08	4.95005
2453.47	5.26789
2454.86	4.39053
2456.25	5.28786
2457.64	4.73808
2459.03	4.5352
2460.42	3.91434
2461.81	3.43404
2463.2	3.59379
2464.59	3.52494
2465.98	3.19982
2467.36	3.71586
2468.75	3.4225
2470.14	3.70161
2471.53	3.89111
2472.92	4.2001
2474.3	4.45491
2475.69	4.98921
2477.08	5.9187
2478.46	6.67603
2479.85	5.47982
2481.23	6.53187
2482.62	7.06568
2484	7.32485
2485.39	6.73983
2486.77	7.11885
2488.16	7.12446
2489.54	7.92889
2490.93	7.06867
2492.31	8.30743
2493.69	8.96251
2495.08	9.06291
2496.46	8.11552
2497.84	8.59017
2499.23	8.38255
2500.61	7.55481
2501.99	7.42531
2503.37	6.25362
2504.75	5.47936
2506.13	5.29131
2507.52	5.91381
2508.9	5.5969
2510.28	6.09038
2511.66	6.33272
2513.04	6.49066
2514.42	6.42052
2515.8	5.39598
2517.18	5.50632
2518.55	5.31901
2519.93	5.80562
2521.31	5.66158
2522.69	6.5872
2524.07	6.4657
2525.45	6.56115
2526.82	5.78425
2528.2	6.59118
2529.58	6.5754
2530.95	6.42702
2532.33	7.18108
2533.71	7.56825
2535.08	7.81203
2536.46	8.43386
2537.84	8.16701
2539.21	8.64934
2540.59	8.59898
2541.96	8.78214
2543.34	9.89357
2544.71	9.74003
2546.08	9.72805
2547.46	9.77773
2548.83	9.68194
2550.2	10.9489
2551.58	11.439
2552.95	10.8333
2554.32	11.5105
2555.7	11.3993
2557.07	11.4887
2558.44	11.0815
2559.81	10.6128
2561.18	10.8929
2562.55	10.2923
2563.93	9.52757
2565.3	8.74876
2566.67	8.41299
2568.04	8.66696
2569.41	8.66523
2570.78	8.78067
2572.15	8.25645
2573.51	8.40082
2574.88	8.42915
2576.25	8.62018
2577.62	8.81971
2578.99	9.40548
2580.36	9.82637
2581.73	9.472
2583.09	9.67656
2584.46	10.6156
2585.83	11.7114
2587.19	11.8226
2588.56	13.0432
2589.93	13.4561
2591.29	13.4032
2592.66	12.4923
2594.02	12.31
2595.39	13.2864
2596.75	13.6516
2598.12	12.7534
2599.48	13.418
2600.85	13.6806
2602.21	14.1159
2603.58	13.8282
2604.94	13.7934
2606.3	12.8222
2607.67	13.105
2609.03	12.8066
2610.39	13.0017
2611.76	12.8467
2613.12	12.515
2614.48	12.9534
2615.84	13.4449
2617.2	12.398
2618.56	12.8573
2619.92	13.3451
2621.28	12.4392
2622.65	13.0085
2624.01	11.7907
2625.37	11.6519
2626.72	11.8584
2628.08	11.6888
2629.44	11.0693
2630.8	10.5104
2632.16	10.1674
2633.52	9.97923
2634.88	10.0165
2636.24	11.2305
2637.59	11.9268
2638.95	11.9751
2640.31	11.5398
2641.67	11.7702
2643.02	12.3659
2644.38	12.7953
2645.74	12.5857
2647.09	12.9388
2648.45	13.1748
2649.8	13.4812
2651.16	14.2298
2652.51	15.0699
2653.87	14.2901
2655.22	13.9201
2656.58	13.0174
2657.93	12.4259
2659.29	12.4736
2660.64	13.1006
2661.99	13.3006
2663.35	13.796
2664.7	13.9157
2666.05	14.2026
2667.41	15.4125
2668.76	15.1301
2670.11	14.8486
2671.46	14.3193
2672.81	14.1933
2674.16	14.385
2675.51	15.2135
2676.87	15.1729
2678.22	14.8702
2679.57	14.5934
2680.92	15.0693
2682.27	15.7388
2683.62	15.5232
2684.97	15.4741
2686.31	16.839
2687.66	16.8427
2689.01	16.8433
2690.36	17.216
2691.71	17.2234
2693.06	17.2363
2694.4	17.7278
2695.75	17.3177
2697.1	18.5196
2698.45	19.7124
2699.79	20.6993
2701.14	22.0082
2702.49	22.5559
2703.83	23.9637
2705.18	23.8398
2706.52	24.1097
2707.87	25.0953
2709.21	26.0619
2710.56	26.9151
2711.9	26.6607
2713.25	27.074
2714.59	27.8682
2715.94	28.0769
2717.28	28.4535
2718.62	28.0719
2719.97	27.6304
2721.31	26.7223
2722.65	25.5311
2723.99	24.8177
2725.34	24.7577
2726.68	24.2058
2728.02	23.8682
2729.36	23.7484
2730.7	24.2402
2732.04	23.4603
2733.39	23.2709
2734.73	22.1226
2736.07	20.7224
2737.41	19.9586
2738.75	19.4286
2740.08	18.2051
2741.43	16.8442
2742.76	15.6544
2744.1	14.5584
2745.44	13.3009
2746.78	12.6767
2748.12	12.5282
2749.46	11.761
2750.79	10.7603
2752.13	10.1838
2753.47	9.74999
2754.81	9.01777
2756.14	7.57038
2757.48	6.78424
2758.81	6.10823
2760.15	5.4184
2761.49	5.6886
2762.82	5.88197
2764.16	5.9565
2765.49	5.43334
2766.83	5.67954
2768.16	5.49459
2769.5	4.91177
2770.83	5.46736
2772.16	5.38231
2773.5	5.77052
2774.83	6.01722
2776.17	5.77336
2777.5	5.80942
2778.83	5.23546
2780.16	4.88286
2781.5	4.20786
2782.83	3.58835
2784.16	3.45599
2785.49	2.72296
2786.82	2.49019
2788.15	1.65901
2789.49	0.946324
2790.82	0.508837
2792.15	0.686024
2793.48	0.970003
2794.81	1.19966
2796.14	0.710412
2797.46	0.052192
2798.79	-1.1981
2800.12	-1.31113
2801.45	-2.82191
2802.78	-2.98849
2804.11	-3.61677
2805.44	-4.76185
2806.76	-5.8771
2808.09	-6.66191
2809.42	-6.74548
2810.75	-6.44844
2812.07	-6.25175
2813.4	-5.04972
2814.73	-3.9768
2816.05	-2.34758
2817.38	-0.796471
2818.7	1.1953
2820.03	3.41948
2821.36	6.03422
2822.68	8.83188
2824.01	13.0397
2825.33	17.0155
2826.65	21.3712
2827.98	26.1389
2829.3	30.7242
2830.63	35.5984
2831.95	40.6387
2833.27	45.5982
2834.6	51.4146
2835.92	57.5803
2837.24	63.6488
2838.56	70.928
2839.88	78.1256
2841.21	86.2833
2842.53	95.7066
2843.85	104.94
2845.17	113.802
2846.49	124.072
2847.81	135.919
2849.13	146.845
2850.45	157.8
2851.77	168.535
2853.09	179.627
2854.41	190.078
2855.73	201.488
2857.05	211.022
2858.37	221.281
2859.69	230.637
2861	239.452
2862.32	248.352
2863.64	256.667
2864.96	264.084
2866.28	271.662
2867.59	278.904
2868.91	286.428
2870.23	293.49
2871.54	299.838
2872.86	306.552
2874.17	311.721
2875.49	318.014
2876.81	323.867
2878.12	329.427
2879.44	334.179
2880.75	337.941
2882.07	342.531
2883.38	346.608
2884.69	350.646
2886.01	354.367
2887.32	358.358
2888.63	362.653
2889.95	367.33
2891.26	371.814
2892.57	376.305
2893.89	380.716
2895.2	384.569
2896.51	389.365
2897.82	395.384
2899.13	401.345
2900.44	409
2901.76	416.506
2903.07	424.358
2904.38	433.546
2905.69	442.669
2907	453.707
2908.31	464.929
2909.62	474.995
2910.93	484.812
2912.24	496.698
2913.55	507.01
2914.85	515.5
2916.16	525.231
2917.47	534.12
2918.78	542.087
2920.09	548.144
2921.4	553.296
2922.7	557.01
2924.01	560.945
2925.32	563.413
2926.62	565.726
2927.93	566.52
2929.24	566.258
2930.54	565.314
2931.85	563.014
2933.15	559.743
2934.46	555.67
2935.76	551.178
2937.07	544.774
2938.37	538.319
2939.68	530.367
2940.98	522.292
2942.29	513.118
2943.59	503.184
2944.89	493.369
2946.2	483.436
2947.5	473.952
2948.8	463.036
2950.11	451.278
2951.41	440.613
2952.71	430.273
2954.01	420.704
2955.32	410.049
2956.62	399.875
2957.92	389.154
2959.22	378.19
2960.52	367.698
2961.82	359.007
2963.12	349.328
2964.42	338.864
2965.72	330.718
2967.02	321.431
2968.32	312.183
2969.62	303.448
2970.92	295.531
2972.22	288.183
2973.51	279.143
2974.81	270.369
2976.11	261.913
2977.41	254.032
2978.71	244.298
2980	235.489
2981.3	226.698
2982.6	216.271
2983.9	206.325
2985.19	195.904
2986.49	185.847
2987.78	176.641
2989.08	167.081
2990.38	157.478
2991.67	149.061
2992.97	139.268
2994.26	129.829
2995.56	120.293
2996.85	111.307
2998.14	102.803
2999.44	95.2079
3000.73	87.6896
3002.03	79.7017
3003.32	72.2915
3004.61	65.2305
3005.91	58.4275
3007.2	52.7376
3008.49	47.2351
3009.78	42.6762
3011.07	37.1846
3012.37	32.1411
3013.66	28.0212
3014.95	24.8976
3016.24	21.7524
3017.53	19.1135
3018.82	16.5198
3020.11	14.1935
3021.4	12.0203
3022.69	8.76422
3023.98	6.77286
3025.27	5.49187
3026.56	3.35034
3027.85	1.18398
3029.14	0.21801
3030.43	-0.516089
3031.71	-1.78158
3033	-1.74939
3034.29	-2.14791
3035.58	-1.98424
3036.87	-2.30637
3038.15	-2.82838
3039.44	-1.87448
3040.73	-1.08425
3042.01	-0.054867
3043.3	0.277808
3044.59	1.69639
3045.87	2.23507
3047.16	2.83012
3048.44	3.28706
3049.73	4.46815
3051.01	5.46912
3052.3	6.33032
3053.58	7.21535
3054.87	7.60766
3056.15	8.57911
3057.43	8.74675
3058.72	8.95663
3060	9.63532
3061.29	10.0267
3062.57	9.4684
3063.85	9.77156
3065.13	9.83927
3066.42	10.1122
3067.7	10.455
3068.98	11.0764
3070.26	11.4923
3071.54	11.7441
3072.82	11.4339
3074.11	11.6227
3075.39	11.6576
3076.67	12.2896
3077.95	12.2771
3079.23	11.7657
3080.51	11.1175
3081.79	11.4647
3083.07	11.2598
3084.35	11.0734
3085.63	10.0268
3086.9	9.82095
3088.18	9.80906
3089.46	9.74736
3090.74	9.33724
3092.02	9.83673
3093.29	10.5165
3094.57	11.5361
3095.85	12.0884
3097.13	12.6141
3098.4	12.3879
3099.68	13.5152
3100.95	14.7882
3102.23	16.2436
3103.51	16.9352
3104.78	18.0442
3106.06	18.522
3107.33	19.941
3108.61	21.7641
3109.88	22.7582
3111.16	24.2994
3112.43	25.9442
3113.71	28.6734
3114.98	30.9205
3116.25	33.0964
3117.53	35.58
3118.8	37.0403
3120.07	39.1231
3121.35	40.7176
3122.62	42.4789
3123.89	44.5366
3125.16	46.3142
3126.44	47.8971
3127.71	50.5559
3128.98	53.1645
3130.25	56.0438
3131.52	58.7951
3132.79	61.0576
3134.06	63.4742
3135.33	65.3147
3136.6	67.3974
3137.87	70.332
3139.14	72.4995
3140.41	74.3817
3141.68	75.8906
3142.95	77.8384
3144.22	79.2686
3145.49	80.4838
3146.76	81.3214
3148.02	81.7219
3149.29	81.9941
