#Acq. time (s)=	45
#Accumulations=	2
#Range (cm-¹)=	200...3150
#Windows=	2
#Auto scanning=	Off
#Autofocus=	Off
#Macrospot=	Off
#AutoExposure=	Off
#Spike filter=	Multiple accum.
#Delay time (s)=	0
#Binning=	1
#Readout mode=	Signal
#DeNoise=	Off
#ICS correction=	On
#Dark correction=	Off
#Inst. Process=	Off
#Detector Gain=	Best Dynamic Range
#Detector ADC=	20 kHz       
#Detector temperature (°C)=	-69.85
#Instrument=	LabRAM HR Evol
#Detector=	Synapse
#Objective=	x100
#Grating=	600 gr/mm
#ND Filter=	100%
#Laser (nm)=	532 
#Hole=	100.021
#Range=	Auto
#Laser Pol.=	No
#Raman. Pol.=	No
#Laser Pol. (°)=	-0.0007625
#Raman Pol. (°)=	89.9995
#Collection=	Microscope
#StageXY=	Marzhauser
#StageZ=	Marzhauser
#X (µm)=	-1013.1
#Y (µm)=	-2916.6
#Z (µm)=	528.1
#Full time(mm:ss)=	3:18
#Project=	
#Sample=	
#Site=	
#Title=	Mb_00_13_15_2x_45s_532 nm_x100_100%_600 gr_mm
#Remark=	
#Date=	06.07.2022 10:41
#Acquired=	06.07.2022 10:41:01
#Base:Fit=	10.08.2022 10:16:56
#Base:Sub=	10.08.2022 10:17:24
#Filter:Polynom=	16.08.2022 10:36:38
#AxisType[0]=Intens
#AxisUnit[0]=Cnt
#AxisType[1]=Spectr
#AxisUnit[1]=1/cm
200.398	6.55158
202.213	5.05772
204.027	4.16024
205.843	2.35501
207.657	0.620645
209.47	-0.967111
211.283	-2.81232
213.097	-2.94633
214.909	-2.37841
216.721	-0.676589
218.533	1.80208
220.344	3.18115
222.157	7.24032
223.967	11.4201
225.777	14.6586
227.587	19.4176
229.396	23.7949
231.205	30.4018
233.016	35.1418
234.824	38.0001
236.632	41.2454
238.439	44.6448
240.247	47.8367
242.053	51.8503
243.86	54.0379
245.666	56.3314
247.474	59.8072
249.279	61.5383
251.085	63.7981
252.889	65.652
254.694	67.4018
256.498	67.9752
258.301	70.2041
260.105	70.6338
261.908	71.5833
263.71	71.7113
265.513	73.0179
267.315	72.1468
269.116	70.9436
270.918	68.6121
272.718	66.676
274.519	65.4163
276.319	63.1378
278.119	60.119
279.918	56.4789
281.718	54.1063
283.516	50.9296
285.315	47.2763
287.113	43.2198
288.911	39.8571
290.708	37.382
292.505	33.7766
294.302	29.9203
296.098	26.4961
297.894	23.3386
299.69	21.986
301.485	20.7347
303.278	19.9548
305.073	18.2397
306.867	16.7007
308.661	16.5588
310.454	15.6814
312.247	16.0888
314.04	15.4792
315.833	14.3393
317.623	14.7523
319.415	14.9316
321.206	14.643
322.997	12.9046
324.788	12.0246
326.579	11.318
328.367	11.9172
330.156	11.6401
331.946	10.8743
333.735	8.73087
335.523	9.11702
337.31	8.61352
339.098	6.91014
340.885	6.98536
342.673	6.54601
344.458	5.75261
346.244	4.58072
348.03	3.79634
349.816	2.61937
351.6	2.71993
353.385	1.52798
355.17	-1.08376
356.953	-2.32949
358.737	-2.58319
360.521	-2.19246
362.304	-1.08877
364.085	0.241186
365.868	0.691989
367.65	2.05989
369.431	3.61046
371.212	5.755
372.994	6.0378
374.773	8.15736
376.554	10.1153
378.332	12.9042
380.112	15.3699
381.892	18.6035
383.669	22.9251
385.448	27.0395
387.225	31.6951
389.003	36.9616
390.781	40.8108
392.557	46.3363
394.334	51.3221
396.109	55.2749
397.885	59.3962
399.66	61.8554
401.436	65.4582
403.211	68.2359
404.984	69.9822
406.759	73.0889
408.532	74.5028
410.306	75.3532
412.078	76.8461
413.851	76.8919
415.623	76.4847
417.395	77.2554
419.166	75.7267
420.938	74.2778
422.708	74.0478
424.477	73.6875
426.248	70.9638
428.017	68.8488
429.788	65.6275
431.556	61.1318
433.326	57.0643
435.093	53.2601
436.86	49.8846
438.629	46.3722
440.395	41.6732
442.163	37.6029
443.929	33.7662
445.694	31.0935
447.461	26.6027
449.226	23.019
450.99	20.4121
452.756	17.2868
454.52	14.1288
456.285	11.6974
458.048	10.2402
459.811	7.63869
461.573	6.57901
463.337	7.1118
465.099	7.55059
466.86	9.63797
468.623	10.1489
470.384	11.637
472.144	12.4221
473.906	14.5016
475.666	16.092
477.425	16.951
479.184	17.4887
480.944	18.2718
482.703	18.4671
484.461	18.2841
486.218	19.4281
487.975	19.5929
489.734	20.208
491.491	21.0105
493.247	21.9261
495.003	23.8183
496.759	25.0783
498.516	27.2259
500.271	26.9332
502.025	27.9389
503.779	28.9779
505.533	31.572
507.287	32.9692
509.042	34.2693
510.795	35.3794
512.547	34.9703
514.299	34.637
516.051	35.0476
517.803	35.2939
519.554	35.7234
521.305	36.5238
523.055	35.807
524.805	37.3642
526.555	37.2149
528.307	37.5277
530.056	37.6056
531.805	36.6828
533.553	35.9633
535.301	36.4695
537.049	37.1556
538.797	37.1179
540.544	37.0554
542.291	36.5686
544.037	36.0752
545.783	36.3543
547.529	34.5935
549.275	34.9169
551.02	34.6378
552.765	33.9181
554.509	32.7749
556.253	30.0929
557.997	29.9592
559.738	28.6779
561.482	26.1622
563.224	22.4078
564.967	19.8031
566.709	18.8741
568.451	17.2753
570.192	15.9482
571.933	14.1896
573.674	12.7112
575.415	10.193
577.153	9.54437
578.893	9.40763
580.632	7.96694
582.371	6.26678
584.11	4.89188
585.849	3.05852
587.587	1.85994
589.323	1.23615
591.06	0.217409
592.797	0.441668
594.534	-0.149724
596.271	-0.996175
598.005	-1.58325
599.741	-0.454266
601.476	2.14997
603.211	3.23913
604.944	4.5055
606.679	3.64631
608.413	4.06725
610.147	4.57236
611.878	6.68265
613.611	6.72111
615.344	7.9274
617.077	8.01726
618.807	9.55017
620.539	10.4749
622.27	12.1703
623.999	13.2287
625.73	15.5326
627.461	17.3101
629.189	17.7015
630.919	19.1511
632.648	20.8432
634.376	21.5786
636.105	22.7609
637.833	23.6008
639.559	25.1276
641.287	26.7097
643.013	28.368
644.74	28.0208
646.467	26.2842
648.192	24.552
649.918	25.9398
651.642	28.425
653.368	30.3937
655.091	31.0441
656.816	32.8058
658.538	32.7435
660.263	32.9088
661.987	33.0893
663.708	33.6888
665.432	34.791
667.153	35.8046
668.875	35.2134
670.596	36.3111
672.318	36.0116
674.037	36.8542
675.759	36.8171
677.478	38.2231
679.196	39.4874
680.917	40.277
682.635	40.7191
684.355	40.4696
686.072	40.7641
687.791	40.4098
689.508	38.2397
691.224	37.8056
692.942	37.4637
694.658	38.2434
696.376	38.1466
698.091	37.7696
699.805	37.5401
701.522	37.5313
703.236	36.8193
704.95	37.0681
706.665	37.467
708.379	37.7359
710.093	37.3332
711.806	36.4804
713.518	36.2729
715.23	35.178
716.943	35.2396
718.655	34.426
720.366	32.6465
722.078	32.5796
723.788	32.9991
725.498	32.7673
727.208	31.4004
728.919	30.8334
730.628	29.9815
732.337	31.2997
734.045	33.5118
735.755	35.6861
737.463	37.2457
739.17	36.9113
740.877	37.4026
742.584	37.3563
744.292	37.4121
745.998	38.5133
747.704	39.8537
749.409	42.1582
751.114	43.8263
752.819	45.2988
754.526	45.8993
756.23	47.166
757.934	47.8312
759.637	49.9238
761.34	50.4787
763.043	52.0262
764.746	53.8446
766.448	55.5868
768.152	56.4275
769.853	57.8467
771.554	59.1845
773.255	61.2813
774.956	62.4232
776.656	64.4189
778.356	65.3589
780.056	66.3002
781.755	67.2242
783.454	67.9012
785.153	69.6364
786.851	70.1783
788.549	71.6858
790.247	71.3466
791.944	72.6873
793.641	72.451
795.338	73.5233
797.034	74.4234
798.73	75.0938
800.426	74.7345
802.121	75.6126
803.817	76.039
805.511	76.5449
807.206	76.9207
808.9	76.4924
810.592	76.1929
812.286	76.5432
813.979	76.8231
815.672	76.2628
817.364	76.0522
819.057	74.9319
820.748	74.2952
822.44	74.3695
824.129	72.6076
825.82	71.5591
827.511	69.6415
829.201	69.2861
830.891	68.7209
832.581	68.5039
834.269	66.3076
835.958	64.5639
837.646	63.5198
839.335	61.9155
841.023	60.3626
842.709	58.7069
844.396	57.5731
846.084	55.8234
847.77	55.6394
849.455	53.989
851.141	53.4197
852.827	50.8827
854.513	49.3552
856.196	46.3408
857.881	46.0138
859.566	45.076
861.248	44.2203
862.932	43.5593
864.616	44.3069
866.297	43.3456
867.98	42.1328
869.663	40.7364
871.343	39.8748
873.026	38.7243
874.707	37.1482
876.387	38.287
878.068	38.1347
879.747	38.3683
881.428	38.4167
883.108	37.9295
884.786	38.1964
886.465	38.202
888.143	37.568
889.822	37.2215
891.498	36.5904
893.177	36.8928
894.855	37.5591
896.53	37.4979
898.208	36.1492
899.883	36.3936
901.56	37.3424
903.234	36.6805
904.91	37.2483
906.584	36.8068
908.26	35.7367
909.933	35.4128
911.608	35.642
913.28	34.7088
914.955	34.0832
916.627	33.6197
918.298	33.0767
919.972	34.316
921.643	33.9425
923.315	35.0022
924.986	35.6534
926.656	34.9182
928.328	35.3422
929.997	34.3708
931.668	35.1687
933.337	34.3647
935.006	34.2946
936.676	33.1844
938.344	33.6238
940.012	34.383
941.681	34.6305
943.348	34.2024
945.014	33.2275
946.683	33.6876
948.349	33.5526
950.015	31.6317
951.682	30.5191
953.347	29.387
955.012	29.3246
956.676	27.5562
958.343	26.6614
960.006	26.41
961.67	26.6683
963.333	26.818
964.998	27.8809
966.661	27.632
968.323	29.8039
969.985	32.1857
971.649	33.5776
973.31	36.3604
974.971	38.6755
976.632	41.8564
978.293	45.5262
979.953	47.8735
981.615	50.7822
983.274	53.015
984.933	55.5141
986.592	56.39
988.251	58.2475
989.909	59.6527
991.567	59.9249
993.225	61.0443
994.884	59.9233
996.541	59.9837
998.198	61.6403
999.855	63.5994
1001.51	63.8768
1003.17	63.9581
1004.82	64.3049
1006.48	64.6657
1008.13	63.9165
1009.79	62.1883
1011.44	61.6653
1013.1	62.0574
1014.75	63.541
1016.4	64.9915
1018.06	67.9243
1019.71	69.541
1021.36	72.7066
1023.01	75.4959
1024.66	77.2327
1026.32	79.3804
1027.97	80.9699
1029.62	83.0822
1031.27	83.8553
1032.92	84.0081
1034.57	84.8857
1036.22	85.9587
1037.87	86.6705
1039.52	86.1557
1041.16	86.7196
1042.81	88.4757
1044.46	89.7843
1046.11	91.1554
1047.76	93.3645
1049.4	94.6171
1051.05	97.2907
1052.7	97.1841
1054.34	97.2787
1055.99	96.9314
1057.63	96.2835
1059.28	94.7452
1060.92	92.85
1062.57	89.5796
1064.21	86.041
1065.85	82.1057
1067.5	79.505
1069.14	73.8633
1070.78	70.2402
1072.43	65.0491
1074.07	59.0589
1075.71	52.9174
1077.35	47.1101
1078.99	43.4039
1080.63	39.1677
1082.27	34.051
1083.91	28.6524
1085.55	24.3719
1087.19	20.5782
1088.83	17.0447
1090.47	14.5786
1092.11	12.0842
1093.75	10.8796
1095.39	12.2759
1097.03	12.2594
1098.66	13.7547
1100.3	13.4332
1101.94	13.4498
1103.57	13.9862
1105.21	12.6806
1106.84	11.543
1108.48	9.90122
1110.11	9.48547
1111.75	9.06106
1113.38	7.86959
1115.02	7.13782
1116.65	7.15266
1118.29	6.67101
1119.92	6.47093
1121.55	6.05182
1123.19	7.25288
1124.82	8.04994
1126.45	9.64811
1128.08	10.269
1129.71	10.8405
1131.34	10.5933
1132.97	9.96952
1134.6	9.71446
1136.23	9.9011
1137.86	10.4077
1139.49	10.6049
1141.12	10.7229
1142.75	10.9159
1144.38	9.95522
1146.01	10.4848
1147.64	11.6102
1149.26	11.9134
1150.89	11.9166
1152.52	12.8643
1154.15	11.8611
1155.77	11.8672
1157.4	12.058
1159.02	13.6035
1160.65	14.0359
1162.27	14.2444
1163.9	14.5911
1165.52	15.0417
1167.15	14.8832
1168.77	15.677
1170.39	17.4552
1172.02	18.0309
1173.64	17.9985
1175.26	19.15
1176.89	20.0946
1178.51	20.1323
1180.13	19.4574
1181.75	19.4767
1183.37	20.249
1184.99	19.8757
1186.61	20.1162
1188.23	20.9198
1189.85	21.0182
1191.47	22.4399
1193.09	23.2915
1194.71	24.8492
1196.33	27.0256
1197.94	29.2663
1199.56	30.737
1201.18	33.4963
1202.8	35.0392
1204.41	36.7649
1206.03	37.6022
1207.65	39.8717
1209.26	40.6315
1210.88	43.498
1212.49	44.9316
1214.11	46.9104
1215.72	48.0287
1217.34	49.2087
1218.95	51.5593
1220.57	52.8224
1222.18	55.9461
1223.79	58.0919
1225.41	59.9135
1227.02	63.1042
1228.63	64.8067
1230.24	66.391
1231.85	67.3934
1233.47	67.9306
1235.08	68.9881
1236.69	70.1596
1238.3	70.1498
1239.91	71.3643
1241.52	71.8041
1243.13	71.1381
1244.74	72.7227
1246.34	72.2262
1247.95	72.404
1249.56	72.649
1251.17	72.1617
1252.78	70.0467
1254.38	68.1625
1255.99	67.8345
1257.6	67.8256
1259.2	67.8012
1260.81	67.0614
1262.42	66.9356
1264.02	66.3245
1265.63	64.9748
1267.23	64.3287
1268.84	63.3275
1270.44	62.6762
1272.04	63.4496
1273.65	64.8437
1275.25	64.8118
1276.85	65.0136
1278.46	65.9074
1280.06	66.2088
1281.66	67.0998
1283.26	67.6926
1284.86	68.6104
1286.46	70.355
1288.07	72.3574
1289.67	72.5811
1291.27	74.8502
1292.87	75.7078
1294.47	77.3081
1296.06	78.4258
1297.66	81.9222
1299.26	84.36
1300.86	86.7789
1302.46	88.132
1304.06	89.0626
1305.65	91.1517
1307.25	93.0805
1308.85	94.717
1310.44	95.7016
1312.04	96.2705
1313.64	97.1263
1315.23	99.2621
1316.83	100.195
1318.42	101.411
1320.02	103.456
1321.61	104.01
1323.2	104.447
1324.8	105.901
1326.39	104.642
1327.99	105.012
1329.58	104.977
1331.17	104.278
1332.76	104.009
1334.36	103.99
1335.95	104.934
1337.54	104.322
1339.13	103.386
1340.72	102.339
1342.31	99.8371
1343.9	99.2971
1345.49	97.6052
1347.08	97.229
1348.67	96.4373
1350.26	96.6048
1351.85	96.9514
1353.43	96.0334
1355.02	94.2895
1356.61	92.7717
1358.2	91.2079
1359.78	89.3306
1361.37	89.039
1362.96	88.541
1364.54	87.2309
1366.13	85.5919
1367.71	84.8536
1369.3	83.1509
1370.88	83.1943
1372.47	80.468
1374.05	79.2337
1375.64	77.6639
1377.22	76.5504
1378.8	74.174
1380.39	72.6394
1381.97	70.4857
1383.55	69.4748
1385.13	69.3395
1386.72	67.5075
1388.3	67.16
1389.88	66.7903
1391.46	66.8551
1393.04	66.057
1394.62	64.9244
1396.2	63.1041
1397.78	62.7518
1399.36	62.1787
1400.94	60.3019
1402.52	60.1045
1404.1	60.0898
1405.68	60.3769
1407.25	62.7566
1408.83	63.2034
1410.41	63.9129
1411.98	66.6778
1413.56	68.4238
1415.14	71.6719
1416.71	73.9346
1418.29	77.6909
1419.87	80.8773
1421.44	84.2112
1423.02	88.2055
1424.59	91.8843
1426.16	95.6322
1427.74	99.7556
1429.31	103.032
1430.89	107.098
1432.46	110.217
1434.03	112.955
1435.6	116.056
1437.18	120.268
1438.75	123.143
1440.32	126.848
1441.89	128.474
1443.46	130.661
1445.03	132.292
1446.6	134.481
1448.17	135.538
1449.74	136.47
1451.31	136.348
1452.88	135.9
1454.45	135.864
1456.02	134.875
1457.59	132.607
1459.16	129.649
1460.72	127.921
1462.29	125.08
1463.86	121.995
1465.43	117.756
1466.99	114.384
1468.56	109.94
1470.13	104.892
1471.69	99.0298
1473.26	93.1246
1474.82	87.5948
1476.38	83.2113
1477.95	78.3881
1479.51	74.2779
1481.08	70.4849
1482.64	66.2782
1484.2	62.7311
1485.77	59.4305
1487.33	55.7666
1488.89	53.3413
1490.46	51.4566
1492.02	48.1867
1493.58	46.3013
1495.14	44.8868
1496.7	43.0766
1498.26	41.0992
1499.82	38.9598
1501.38	37.897
1502.94	37.158
1504.5	37.6001
1506.06	37.9323
1507.62	37.8861
1509.18	38.2477
1510.73	38.282
1512.29	38.1042
1513.85	38.862
1515.41	39.6496
1516.96	41.0773
1518.52	42.8207
1520.08	43.0588
1521.63	44.9844
1523.19	45.4145
1524.75	44.9126
1526.3	45.131
1527.85	45.3085
1529.41	45.7648
1530.96	45.281
1532.52	46.2053
1534.07	44.4979
1535.62	43.7523
1537.18	44.3704
1538.73	45.3583
1540.28	46.0994
1541.84	46.8152
1543.39	46.8763
1544.94	46.6655
1546.49	45.7718
1548.04	45.0895
1549.59	45.2289
1551.14	46.3351
1552.69	47.0803
1554.25	48.8847
1555.79	49.5535
1557.34	51.1052
1558.89	50.8573
1560.44	51.9302
1561.99	53.0438
1563.54	54.3388
1565.08	55.7658
1566.63	56.3943
1568.18	57.4057
1569.73	58.1335
1571.27	59.0129
1572.82	61.192
1574.37	61.9171
1575.91	63.0789
1577.46	64.4795
1579	66.6294
1580.55	68.6385
1582.09	71.5956
1583.64	72.9796
1585.18	75.2424
1586.73	76.4382
1588.27	78.7623
1589.81	80.6459
1591.35	83.3681
1592.9	84.9371
1594.44	85.9786
1595.98	86.2066
1597.52	85.5327
1599.06	86.4093
1600.61	86.0422
1602.15	85.2475
1603.69	86.5549
1605.23	85.4709
1606.77	84.2288
1608.31	83.4306
1609.85	83.7203
1611.39	83.3917
1612.93	84.069
1614.46	84.263
1616	84.3938
1617.54	83.4969
1619.08	83.113
1620.61	81.8721
1622.15	82.2841
1623.69	83.4381
1625.23	85.0128
1626.76	85.782
1628.3	85.8871
1629.83	86.0096
1631.37	87.4041
1632.9	88.6946
1634.44	89.674
1635.97	89.7241
1637.51	91.2091
1639.04	91.8179
1640.57	93.2994
1642.11	93.9357
1643.64	94.837
1645.17	95.2501
1646.71	96.0256
1648.24	97.2446
1649.77	98.7595
1651.3	98.4767
1652.83	99.9781
1654.36	101.071
1655.89	102.76
1657.42	103.78
1658.96	104.025
1660.48	102.801
1662.01	102.654
1663.54	101.334
1665.07	100.18
1666.6	98.9436
1668.13	96.8782
1669.66	93.6043
1671.19	91.1391
1672.71	88.032
1674.24	85.0978
1675.77	82.9049
1677.29	79.8848
1678.82	76.2272
1680.35	73.0151
1681.87	68.5432
1683.4	65.7884
1684.92	63.6298
1686.45	60.8343
1687.97	57.8774
1689.5	54.2322
1691.02	50.538
1692.54	46.8265
1694.07	42.3341
1695.59	39.835
1697.11	35.8891
1698.64	33.6432
1700.16	31.2878
1701.68	27.3895
1703.2	23.9728
1704.72	22.2595
1706.25	20.477
1707.77	18.3341
1709.29	15.9093
1710.81	13.5992
1712.33	12.241
1713.85	10.3317
1715.37	8.89399
1716.89	8.39703
1718.41	6.5235
1719.92	5.7325
1721.44	4.74055
1722.96	4.32121
1724.48	3.80757
1725.99	4.11099
1727.51	3.76909
1729.03	4.30533
1730.55	3.20957
1732.06	3.04927
1733.58	2.97958
1735.09	2.36292
1736.61	2.55565
1738.13	2.87201
1739.64	2.12981
1741.15	1.57672
1742.67	1.75471
1744.18	1.49641
1745.7	1.58206
1747.21	2.33882
1748.72	2.70798
1750.24	3.85261
1751.75	3.57306
1753.26	3.42965
1754.77	3.07007
1756.29	3.10895
1757.8	3.25106
1759.31	3.56778
1760.82	3.96881
1762.33	4.15542
1763.84	3.52332
1765.35	3.03538
1766.86	2.19623
1768.37	1.53189
1769.88	1.15068
1771.39	1.49558
1772.9	1.90285
1774.4	1.71119
1775.91	1.84007
1777.42	1.74623
1778.93	1.94311
1780.44	2.50122
1781.94	2.10105
1783.45	2.26872
1784.96	3.25727
1786.46	3.76322
1787.97	3.96396
1789.47	3.86331
1790.98	4.46661
1792.48	4.51276
1793.99	4.71444
1795.49	5.26514
1797	6.31353
1798.5	5.84858
1800.01	6.52679
1801.51	6.73466
1803.01	6.86468
1804.51	7.69653
1806.02	7.42091
1807.52	7.49262
1809.02	7.7149
1810.52	7.81494
1812.02	8.00316
1813.52	7.42863
1815.02	7.5175
1816.53	7.18089
1818.03	7.29478
1819.52	7.29713
1821.02	6.38249
1822.52	6.21751
1824.02	5.68126
1825.52	5.35351
1827.02	4.87034
1828.52	4.24586
1830.02	4.3863
1831.51	4.16441
1833.01	3.52659
1834.51	3.60323
1836.01	3.69557
1837.5	3.4838
1839	2.52703
1840.49	2.44262
1841.99	1.86977
1843.49	2.1154
1844.98	2.37269
1846.48	2.50829
1847.97	1.79048
1849.47	0.766356
1850.96	1.26434
1852.45	0.934419
1853.95	0.170948
1855.44	-0.574743
1856.93	-1.33544
1858.42	-0.443375
1859.92	0.122604
1861.41	-0.0584148
1862.9	0.380754
1864.39	-0.0754967
1865.88	-0.174377
1867.38	-0.922253
1868.87	-0.072857
1870.36	0.629815
1871.85	1.78098
1873.34	1.03397
1874.83	2.89409
1876.32	3.68069
1877.81	4.79162
1879.29	5.15351
1880.78	5.17226
1882.27	6.0885
1882.53	7.29321
1884.03	8.34381
1885.52	9.13842
1887.01	9.57278
1888.51	9.37554
1890	9.52275
1891.5	9.18916
1892.99	9.63573
1894.48	9.36303
1895.97	10.3288
1897.47	10.7039
1898.96	10.9658
1900.45	10.9969
1901.94	10.8792
1903.43	12.2706
1904.92	12.4881
1906.41	12.983
1907.9	13.8665
1909.39	13.8225
1910.88	13.8385
1912.37	14.8368
1913.86	14.6081
1915.35	14.813
1916.84	13.5902
1918.33	13.6951
1919.81	13.5843
1921.3	13.3799
1922.79	13.548
1924.28	13.8433
1925.76	12.4818
1927.25	12.2883
1928.73	11.0622
1930.22	10.8294
1931.71	11.8515
1933.19	11.0455
1934.68	10.1622
1936.16	10.2689
1937.65	8.68501
1939.13	8.92354
1940.62	9.49193
1942.1	10.6676
1943.58	10.3887
1945.07	9.4994
1946.55	9.01117
1948.03	9.71791
1949.51	8.87187
1951	9.11295
1952.48	9.38612
1953.96	8.12909
1955.44	7.38846
1956.92	7.12804
1958.4	5.69477
1959.88	5.26682
1961.36	4.56112
1962.84	4.23854
1964.32	3.65507
1965.8	3.16728
1967.28	4.38193
1968.76	4.33885
1970.24	3.87589
1971.72	3.4263
1973.2	3.20644
1974.67	3.05934
1976.15	3.64916
1977.63	4.29586
1979.1	3.83287
1980.58	3.72071
1982.06	4.9219
1983.54	3.94477
1985.01	4.76116
1986.49	4.93619
1987.96	4.12386
1989.44	4.27152
1990.91	4.14739
1992.39	4.1404
1993.86	3.89241
1995.33	2.72864
1996.81	0.792826
1998.28	0.81576
1999.75	-0.397887
2001.23	-0.612441
2002.7	-0.391272
2004.17	1.25095
2005.65	1.69855
2007.12	1.86917
2008.59	2.43009
2010.06	3.04633
2011.53	2.77781
2013	3.67851
2014.47	4.02161
2015.94	3.68515
2017.41	3.70748
2018.88	4.50769
2020.35	5.09309
2021.82	4.77691
2023.29	4.80289
2024.76	5.95701
2026.23	5.98485
2027.69	6.07968
2029.16	7.07456
2030.63	8.09844
2032.1	9.64585
2033.56	11.2679
2035.03	12.7147
2036.5	13.0201
2037.96	12.9876
2039.43	13.6658
2040.89	14.5456
2042.36	13.4974
2043.83	12.804
2045.29	12.8013
2046.75	13.3151
2048.22	12.7132
2049.68	13.0901
2051.15	13.2903
2052.61	13.4838
2054.07	13.1091
2055.54	13.7528
2057	12.9975
2058.46	13.8982
2059.92	13.7777
2061.39	13.6818
2062.85	13.7531
2064.31	13.2879
2065.77	12.3251
2067.23	12.5596
2068.69	11.8179
2070.15	12.4325
2071.61	13.7169
2073.07	12.8795
2074.53	14.0435
2075.99	15.0454
2077.45	14.9037
2078.91	14.2853
2080.37	15.0795
2081.82	15.4207
2083.28	15.0839
2084.74	14.4956
2086.2	13.7353
2087.65	13.8803
2089.11	13.7825
2090.57	14.119
2092.02	13.5515
2093.48	13.0729
2094.94	13.7949
2096.39	14.4032
2097.85	15.0778
2099.3	15.2348
2100.76	15.5977
2102.21	15.5356
2103.66	16.5569
2105.12	15.957
2106.57	15.4968
2108.03	15.4222
2109.48	14.677
2110.93	13.7074
2112.38	13.734
2113.84	13.1992
2115.29	12.7644
2116.74	12.8703
2118.19	12.8526
2119.64	12.6887
2121.09	12.2238
2122.54	12.8811
2123.99	12.9538
2125.45	13.8576
2126.89	13.396
2128.34	13.7605
2129.79	14.2845
2131.24	14.7132
2132.69	15.4912
2134.14	15.6693
2135.59	15.2525
2137.04	15.4313
2138.48	15.7346
2139.93	15.9003
2141.38	16.3049
2142.83	16.5854
2144.27	16.531
2145.72	16.4535
2147.17	16.8122
2148.61	16.7237
2150.06	15.9581
2151.5	15.2454
2152.95	15.5693
2154.39	16.0079
2155.84	14.5473
2157.28	14.4001
2158.73	15.1689
2160.17	15.7849
2161.61	15.8033
2163.06	16.1337
2164.5	15.7467
2165.94	16.2539
2167.38	15.4901
2168.83	14.663
2170.27	14.9532
2171.71	15.4736
2173.15	16.4284
2174.59	17.1708
2176.03	17.9859
2177.47	18.135
2178.91	19.2721
2180.36	19.2239
2181.8	18.6214
2183.23	18.061
2184.67	18.6151
2186.11	18.7655
2187.55	18.8911
2188.99	18.1123
2190.43	17.2446
2191.87	16.4907
2193.3	17.0556
2194.74	17.1999
2196.18	17.3578
2197.62	17.8099
2199.05	17.2843
2200.49	17.0257
2201.93	18.4845
2203.36	18.3052
2204.8	18.4675
2206.23	19.0377
2207.67	18.7295
2209.1	18.6967
2210.54	18.348
2211.97	18.2447
2213.41	17.6669
2214.84	17.1219
2216.27	16.7154
2217.71	16.0332
2219.14	15.9015
2220.57	15.8317
2222.01	15.3307
2223.44	16.7111
2224.87	17.6672
2226.3	16.9656
2227.73	15.9565
2229.16	16.0187
2230.6	15.2119
2232.03	14.2903
2233.46	14.8406
2234.89	14.4389
2236.32	14.0465
2237.75	14.6687
2239.18	14.9067
2240.61	16.0971
2242.03	16.4288
2243.46	16.6871
2244.89	17.1633
2246.32	17.747
2247.75	17.6311
2249.17	17.091
2250.6	16.2583
2252.03	15.7428
2253.46	16.1136
2254.88	16.8777
2256.31	16.5167
2257.73	15.9469
2259.16	14.655
2260.59	14.9924
2262.01	15.0404
2263.44	15.3875
2264.86	16.3332
2266.29	16.4239
2267.71	15.5062
2269.14	14.5492
2270.56	14.7457
2271.98	15.0018
2273.4	15.9107
2274.83	14.6955
2276.25	14.5181
2277.67	13.7269
2279.09	13.9169
2280.52	13.6934
2281.94	13.7267
2283.36	12.7869
2284.78	12.6559
2286.2	13.0696
2287.62	13.0515
2289.04	12.9119
2290.46	12.5358
2291.88	11.9382
2293.3	11.5291
2294.72	12.4536
2296.14	11.8108
2297.56	10.7429
2298.98	10.3784
2300.4	10.289
2301.82	11.3805
2303.23	12.9702
2304.65	13.9942
2306.07	13.6307
2307.49	14.446
2308.9	14.4394
2310.32	13.6876
2311.73	13.3038
2313.15	12.8678
2314.57	13.9838
2315.98	14.7663
2317.4	14.9547
2318.81	13.9894
2320.23	13.6239
2321.64	14.2087
2323.06	14.2951
2324.47	14.1159
2325.88	13.2316
2327.3	12.2512
2328.71	13.0754
2330.12	13.1894
2331.54	13.5056
2332.95	13.2862
2334.36	12.9682
2335.77	13.015
2337.18	11.5931
2338.6	10.7238
2340.01	11.272
2341.42	12.018
2342.83	11.1457
2344.24	10.4038
2345.65	9.02949
2347.06	9.33757
2348.47	8.49415
2349.88	9.18083
2351.29	8.14229
2352.7	7.54779
2354.1	7.52411
2355.51	8.35644
2356.92	7.94739
2358.33	7.07524
2359.74	6.00333
2361.14	5.1964
2362.55	4.92456
2363.96	5.40174
2365.36	5.466
2366.77	4.28644
2368.18	3.67799
2369.58	4.01404
2370.99	5.07715
2372.39	6.09428
2373.8	5.17413
2375.2	4.64396
2376.61	4.00955
2378.01	3.65367
2379.42	3.42378
2380.82	3.3543
2382.22	3.61294
2383.63	4.10497
2385.03	4.65221
2386.43	4.11747
2387.84	4.05219
2389.24	3.63651
2390.64	4.16551
2392.04	3.79667
2393.44	3.14036
2394.84	3.01404
2396.25	2.87973
2397.65	3.60564
2399.05	4.127
2400.45	3.87238
2401.85	4.67117
2403.25	4.1158
2404.65	3.70789
2406.05	4.05388
2407.45	4.2269
2408.84	5.19242
2410.24	5.441
2411.64	5.84731
2413.04	6.12204
2414.44	7.07432
2415.83	7.26038
2417.23	8.18202
2418.63	8.30649
2420.02	9.98709
2421.42	10.1508
2422.82	10.7898
2424.21	11.8283
2425.61	12.054
2427	11.7985
2428.4	11.56
2429.8	11.1107
2431.19	11.4619
2432.58	12.5338
2433.98	13.0575
2435.37	12.7808
2436.77	13.4093
2438.16	14.6434
2439.55	14.5891
2440.95	14.3875
2442.34	13.4491
2443.73	11.8924
2445.12	11.1237
2446.51	10.5692
2447.91	10.5175
2449.3	10.4516
2450.69	9.56916
2452.08	10.0749
2453.47	9.89574
2454.86	9.7472
2456.25	8.84102
2457.64	7.6223
2459.03	6.42574
2460.42	6.32281
2461.81	5.40591
2463.2	5.56127
2464.59	4.83481
2465.98	4.68067
2467.36	4.80441
2468.75	4.62918
2470.14	4.70854
2471.53	3.77363
2472.92	3.02397
2474.3	2.73455
2475.69	2.55188
2477.08	2.33129
2478.46	2.07963
2479.85	2.10713
2481.23	1.58531
2482.62	0.528959
2484	0.925752
2485.39	0.321984
2486.77	0.821296
2488.16	1.50987
2489.54	1.8618
2490.93	1.37883
2492.31	2.63532
2493.69	2.78419
2495.08	2.90033
2496.46	3.33469
2497.84	3.27817
2499.23	3.57297
2500.61	4.28947
2501.99	4.55555
2503.37	4.23673
2504.75	4.00304
2506.13	4.4356
2507.52	3.28226
2508.9	2.14444
2510.28	1.92162
2511.66	2.1022
2513.04	2.23417
2514.42	3.36542
2515.8	4.42688
2517.18	4.51176
2518.55	5.29358
2519.93	6.22146
2521.31	7.42741
2522.69	7.39496
2524.07	8.04679
2525.45	7.89987
2526.82	7.9955
2528.2	8.88815
2529.58	8.92341
2530.95	9.16003
2532.33	9.06683
2533.71	9.30821
2535.08	9.88073
2536.46	10.5389
2537.84	9.75233
2539.21	9.11126
2540.59	7.69757
2541.96	7.40012
2543.34	6.8398
2544.71	7.13577
2546.08	7.13069
2547.46	6.85641
2548.83	6.71907
2550.2	5.48029
2551.58	6.0316
2552.95	6.60903
2554.32	6.35425
2555.7	7.32492
2557.07	6.26699
2558.44	6.54029
2559.81	7.03671
2561.18	7.4099
2562.55	7.03401
2563.93	7.51032
2565.3	6.89195
2566.67	6.82955
2568.04	7.37872
2569.41	7.91625
2570.78	8.22894
2572.15	8.23905
2573.51	8.07306
2574.88	9.69497
2576.25	9.41997
2577.62	10.4669
2578.99	11.3243
2580.36	12.4661
2581.73	12.3231
2583.09	12.7134
2584.46	12.9413
2585.83	12.9086
2587.19	13.5437
2588.56	14.0089
2589.93	14.5232
2591.29	15.392
2592.66	16.0864
2594.02	15.7537
2595.39	15.158
2596.75	15.6088
2598.12	15.4051
2599.48	15.5987
2600.85	15.027
2602.21	15.6356
2603.58	14.9328
2604.94	14.7203
2606.3	12.9398
2607.67	12.4809
2609.03	12.2523
2610.39	12.0061
2611.76	11.9835
2613.12	11.9716
2614.48	11.6618
2615.84	10.94
2617.2	10.2762
2618.56	10.0605
2619.92	10.4033
2621.28	9.22791
2622.65	8.73827
2624.01	8.77668
2625.37	7.60229
2626.72	7.9107
2628.08	7.3193
2629.44	6.32581
2630.8	5.91261
2632.16	5.50773
2633.52	5.3102
2634.88	5.85229
2636.24	6.27577
2637.59	5.78389
2638.95	5.55953
2640.31	5.58746
2641.67	5.70831
2643.02	6.26383
2644.38	5.74241
2645.74	6.59118
2647.09	6.97031
2648.45	7.26882
2649.8	6.83121
2651.16	7.31623
2652.51	7.92002
2653.87	7.76033
2655.22	8.35491
2656.58	9.10257
2657.93	9.59779
2659.29	9.48549
2660.64	8.8852
2661.99	8.85168
2663.35	9.30488
2664.7	9.73814
2666.05	9.83414
2667.41	10.1819
2668.76	10.3007
2670.11	10.4947
2671.46	10.5659
2672.81	10.7541
2674.16	10.4876
2675.51	10.6637
2676.87	10.8059
2678.22	11.1528
2679.57	11.6999
2680.92	11.7406
2682.27	11.3284
2683.62	10.9165
2684.97	10.8123
2686.31	10.9971
2687.66	10.6428
2689.01	10.269
2690.36	10.6813
2691.71	10.8038
2693.06	10.132
2694.4	10.0245
2695.75	10.459
2697.1	10.0727
2698.45	9.96885
2699.79	10.2401
2701.14	10.3056
2702.49	9.32451
2703.83	9.30501
2705.18	8.57607
2706.52	9.20239
2707.87	9.49835
2709.21	9.53714
2710.56	9.65124
2711.9	9.85552
2713.25	10.2887
2714.59	9.49102
2715.94	9.42682
2717.28	8.88408
2718.62	8.75088
2719.97	8.82605
2721.31	9.39992
2722.65	10.3361
2723.99	10.6983
2725.34	11.4532
2726.68	11.2034
2728.02	12.3963
2729.36	12.6948
2730.7	13.246
2732.04	13.012
2733.39	13.08
2734.73	13.3083
2736.07	13.5326
2737.41	14.081
2738.75	14.1161
2740.08	13.7796
2741.43	13.7955
2742.76	13.6941
2744.1	13.5803
2745.44	14.4732
2746.78	14.3909
2748.12	14.0748
2749.46	13.4205
2750.79	13.2752
2752.13	13.5134
2753.47	14.3821
2754.81	14.979
2756.14	14.9341
2757.48	15.1042
2758.81	15.0219
2760.15	14.1581
2761.49	14.1087
2762.82	14.2755
2764.16	13.0097
2765.49	12.7108
2766.83	12.4004
2768.16	11.7772
2769.5	11.0918
2770.83	11.2801
2772.16	10.2659
2773.5	10.1384
2774.83	9.72642
2776.17	8.78047
2777.5	8.16071
2778.83	8.23234
2780.16	7.8355
2781.5	6.63902
2782.83	6.28156
2784.16	5.6087
2785.49	6.62311
2786.82	6.90731
2788.15	6.81146
2789.49	6.04566
2790.82	5.63213
2792.15	5.05779
2793.48	3.69645
2794.81	3.17141
2796.14	1.20186
2797.46	1.09479
2798.79	-0.388293
2800.12	-0.645948
2801.45	-0.845555
2802.78	-1.17382
2804.11	-1.4854
2805.44	-1.50337
2806.76	-1.66983
2808.09	-2.01133
2809.42	-2.50515
2810.75	-3.43279
2812.07	-3.2804
2813.4	-3.14412
2814.73	-3.01882
2816.05	-1.91387
2817.38	-0.0293442
2818.7	1.11391
2820.03	2.89182
2821.36	4.3317
2822.68	6.52742
2824.01	8.44359
2825.33	10.7742
2826.65	13.4436
2827.98	16.7212
2829.3	18.485
2830.63	21.0747
2831.95	23.569
2833.27	26.3305
2834.6	29.3327
2835.92	32.224
2837.24	35.6081
2838.56	39.0197
2839.88	43.39
2841.21	47.6397
2842.53	52.4675
2843.85	58.3416
2845.17	63.1919
2846.49	69.3727
2847.81	75.396
2849.13	81.708
2850.45	88.1503
2851.77	95.0953
2853.09	100.977
2854.41	107.315
2855.73	113.613
2857.05	119.773
2858.37	124.891
2859.69	130.086
2861	135.92
2862.32	141.393
2863.64	147.528
2864.96	151.586
2866.28	156.581
2867.59	161.065
2868.91	166.087
2870.23	170.002
2871.54	173.139
2872.86	175.186
2874.17	179.037
2875.49	181.653
2876.81	183.946
2878.12	187.235
2879.44	189.511
2880.75	191.718
2882.07	194.264
2883.38	197.091
2884.69	198.992
2886.01	201.917
2887.32	203.394
2888.63	204.894
2889.95	206.271
2891.26	208.241
2892.57	209.756
2893.89	210.56
2895.2	211.809
2896.51	214.531
2897.82	216.705
2899.13	221.372
2900.44	224.633
2901.76	228.375
2903.07	232.454
2904.38	237.096
2905.69	242.552
2907	247.826
2908.31	254.817
2909.62	261.011
2910.93	266.525
2912.24	273.403
2913.55	278.491
2914.85	284.872
2916.16	291.061
2917.47	297.298
2918.78	301.97
2920.09	305.89
2921.4	309.961
2922.7	313.338
2924.01	316.118
2925.32	319.539
2926.62	322.002
2927.93	322.888
2929.24	323.868
2930.54	323.54
2931.85	323.348
2933.15	322.408
2934.46	321.574
2935.76	319.114
2937.07	316.458
2938.37	313.678
2939.68	311.057
2940.98	305.91
2942.29	301.481
2943.59	296.6
2944.89	291.383
2946.2	286.914
2947.5	281.691
2948.8	276.144
2950.11	269.402
2951.41	263.16
2952.71	255.645
2954.01	249.734
2955.32	244.527
2956.62	237.904
2957.92	231.669
2959.22	225.227
2960.52	219.409
2961.82	213.83
2963.12	208.617
2964.42	202.7
2965.72	196.523
2967.02	190.955
2968.32	185.509
2969.62	180.282
2970.92	175.287
2972.22	169.94
2973.51	165.094
2974.81	159.313
2976.11	153.944
2977.41	148.805
2978.71	143.699
2980	139.003
2981.3	133.033
2982.6	127.2
2983.9	121.591
2985.19	116.735
2986.49	112.143
2987.78	106.709
2989.08	101.264
2990.38	95.981
2991.67	89.795
2992.97	83.672
2994.26	78.4731
2995.56	73.933
2996.85	69.1686
2998.14	65.4988
2999.44	61.7816
3000.73	57.1986
3002.03	53.1412
3003.32	49.5511
3004.61	45.7025
3005.91	42.283
3007.2	39.3595
3008.49	36.3359
3009.78	34.392
3011.07	32.2849
3012.37	29.4654
3013.66	27.5027
3014.95	25.1665
3016.24	23.5055
3017.53	21.7426
3018.82	20.6261
3020.11	19.2448
3021.4	16.8386
3022.69	15.7369
3023.98	14.3986
3025.27	13.0436
3026.56	12.8224
3027.85	12.2797
3029.14	11.5399
3030.43	11.2664
3031.71	9.81931
3033	9.31155
3034.29	8.62268
3035.58	8.42166
3036.87	8.53474
3038.15	9.07767
3039.44	9.51269
3040.73	9.55272
3042.01	10.1985
3043.3	10.7446
3044.59	11.1144
3045.87	11.2478
3047.16	10.9947
3048.44	11.4296
3049.73	11.1921
3051.01	10.5837
3052.3	10.1154
3053.58	10.0482
3054.87	10.1229
3056.15	10.0796
3057.43	10.5389
3058.72	10.82
3060	10.9747
3061.29	10.3726
3062.57	10.3332
3063.85	9.82986
3065.13	9.87767
3066.42	9.49438
3067.7	9.20059
3068.98	8.44608
3070.26	8.68911
3071.54	8.35589
3072.82	7.26394
3074.11	7.30482
3075.39	6.34067
3076.67	5.77797
3077.95	4.95144
3079.23	3.47625
3080.51	2.75863
3081.79	2.20281
3083.07	0.77457
3084.35	-0.0183619
3085.63	-0.617754
3086.9	-0.227669
3088.18	-0.496769
3089.46	-0.625532
3090.74	-0.573335
3092.02	-1.22956
3093.29	-1.01362
3094.57	-1.56979
3095.85	-1.69795
3097.13	-1.0812
3098.4	-0.337552
3099.68	0.185898
3100.95	1.51584
3102.23	2.41375
3103.51	2.73337
3104.78	2.57285
3106.06	3.39946
3107.33	3.5091
3108.61	4.0316
3109.88	4.03013
3111.16	4.40962
3112.43	6.04257
3113.71	6.46549
3114.98	6.7383
3116.25	7.3742
3117.53	8.47398
3118.8	8.8327
3120.07	9.57192
3121.35	10.3473
3122.62	10.4023
3123.89	11.3249
3125.16	12.3832
3126.44	13.2668
3127.71	14.0455
3128.98	14.9385
3130.25	15.0627
3131.52	15.8967
3132.79	16.7486
3134.06	18.1936
3135.33	18.5007
3136.6	18.7171
3137.87	20.2913
3139.14	20.5507
3140.41	21.4402
3141.68	22.2063
3142.95	23.4914
3144.22	24.8035
3145.49	25.9793
3146.76	27.998
3148.02	28.7404
3149.29	28.9937
