#Acq. time (s)=	45
#Accumulations=	2
#Range (cm-¹)=	200...3150
#Windows=	2
#Auto scanning=	Off
#Autofocus=	Off
#Macrospot=	Off
#AutoExposure=	Off
#Spike filter=	Multiple accum.
#Delay time (s)=	0
#Binning=	1
#Readout mode=	Signal
#DeNoise=	Off
#ICS correction=	On
#Dark correction=	Off
#Inst. Process=	Off
#Detector Gain=	Best Dynamic Range
#Detector ADC=	20 kHz       
#Detector temperature (°C)=	-69.85
#Instrument=	LabRAM HR Evol
#Detector=	Synapse
#Objective=	x100
#Grating=	600 gr/mm
#ND Filter=	100%
#Laser (nm)=	532 
#Hole=	100.021
#Range=	Auto
#Laser Pol.=	No
#Raman. Pol.=	No
#Laser Pol. (°)=	-0.0007625
#Raman Pol. (°)=	89.9995
#Collection=	Microscope
#StageXY=	Marzhauser
#StageZ=	Marzhauser
#X (µm)=	-991.5
#Y (µm)=	-2919.5
#Z (µm)=	527.75
#Full time(mm:ss)=	3:18
#Project=	
#Sample=	
#Site=	
#Title=	Mb_00_13_06_2x_45s_532 nm_x100_100%_600 gr_mm
#Remark=	
#Date=	06.07.2022 10:06
#Acquired=	06.07.2022 10:06:00
#Base:Fit=	10.08.2022 10:16:36
#Base:Fit=	10.08.2022 10:16:56
#Base:Sub=	10.08.2022 10:17:24
#Filter:Polynom=	16.08.2022 10:36:38
#AxisType[0]=Intens
#AxisUnit[0]=Cnt
#AxisType[1]=Spectr
#AxisUnit[1]=1/cm
200.398	24.2743
202.213	20.6492
204.027	16.1218
205.843	10.7713
207.657	6.26227
209.47	3.20002
211.283	1.10964
213.097	-0.140001
214.909	0.512204
216.721	1.40795
218.533	4.26942
220.344	8.10414
222.157	12.8345
223.967	19.7571
225.777	26.0716
227.587	32.5221
229.396	38.1508
231.205	45.5999
233.016	50.5445
234.824	55.3159
236.632	60.169
238.439	64.0122
240.247	68.636
242.053	72.682
243.86	76.2731
245.666	79.4652
247.474	83.5307
249.279	87.8947
251.085	92.3116
252.889	95.2444
254.694	98.3363
256.498	100.039
258.301	102.499
260.105	104.417
261.908	105.121
263.71	103.372
265.513	102.411
267.315	100.783
269.116	97.6543
270.918	97.014
272.718	93.6445
274.519	89.4854
276.319	85.3354
278.119	81.3396
279.918	76.1909
281.718	70.5892
283.516	64.8548
285.315	58.1012
287.113	50.5566
288.911	45.1937
290.708	39.8138
292.505	34.3913
294.302	30.7175
296.098	27.1975
297.894	23.1878
299.69	18.733
301.485	14.5161
303.278	12.3263
305.073	11.0218
306.867	8.65687
308.661	7.92368
310.454	6.56862
312.247	5.0829
314.04	4.55214
315.833	3.31351
317.623	2.44845
319.415	1.87069
321.206	1.15432
322.997	-0.841213
324.788	-0.978988
326.579	-0.962153
328.367	-0.223284
330.156	0.632522
331.946	0.345558
333.735	0.538793
335.523	0.596501
337.31	0.326118
339.098	-0.0353613
340.885	0.0924402
342.673	-0.256477
344.458	-0.573478
346.244	-0.202678
348.03	-0.931004
349.816	-0.927329
351.6	-1.50451
353.385	-2.7443
355.17	-3.27626
356.953	-2.54164
358.737	-2.46036
360.521	-0.628174
362.304	-0.429904
364.085	0.264036
365.868	2.87045
367.65	5.21626
369.431	6.70606
371.212	7.98318
372.994	9.11924
374.773	10.6342
376.554	14.5966
378.332	19.2959
380.112	23.4648
381.892	27.2114
383.669	32.4761
385.448	37.5735
387.225	42.8325
389.003	47.992
390.781	52.5435
392.557	58.3614
394.334	63.0482
396.109	67.0313
397.885	71.2293
399.66	75.0683
401.436	78.2345
403.211	82.0312
404.984	84.0556
406.759	84.9709
408.532	86.196
410.306	87.7172
412.078	89.2724
413.851	90.3695
415.623	89.7156
417.395	88.8355
419.166	86.595
420.938	84.6888
422.708	83.1348
424.477	80.0509
426.248	77.0433
428.017	73.8801
429.788	70.9136
431.556	67.3428
433.326	63.3491
435.093	58.271
436.86	53.1997
438.629	48.3304
440.395	43.4208
442.163	39.6696
443.929	35.1367
445.694	31.5583
447.461	27.3922
449.226	24.7933
450.99	21.3506
452.756	16.624
454.52	14.4576
456.285	10.9101
458.048	8.47797
459.811	6.84936
461.573	7.19053
463.337	7.2943
465.099	8.35105
466.86	8.21193
468.623	8.00276
470.384	7.54116
472.144	7.52637
473.906	6.69007
475.666	5.72192
477.425	5.42115
479.184	6.50476
480.944	6.86736
482.703	7.42262
484.461	7.99439
486.218	9.69242
487.975	10.5368
489.734	11.284
491.491	12.4375
493.247	14.0003
495.003	15.2479
496.759	17.8214
498.516	20.6253
500.271	22.2749
502.025	24.4602
503.779	24.6231
505.533	26.6618
507.287	29.3913
509.042	32.2455
510.795	34.1573
512.547	35.8337
514.299	37.804
516.051	39.8009
517.803	41.9232
519.554	43.719
521.305	44.4866
523.055	45.5853
524.805	47.3654
526.555	48.0916
528.307	49.8493
530.056	51.0205
531.805	51.3765
533.553	52.405
535.301	53.1477
537.049	53.4742
538.797	53.0004
540.544	52.3371
542.291	52.8604
544.037	51.4609
545.783	51.7411
547.529	50.7422
549.275	48.7759
551.02	46.2741
552.765	45.2629
554.509	43.3623
556.253	40.6031
557.997	37.3388
559.738	34.3115
561.482	32.969
563.224	31.305
564.967	30.2009
566.709	28.1534
568.451	25.9727
570.192	24.7975
571.933	22.7886
573.674	21.3365
575.415	18.3125
577.153	16.7668
578.893	15.912
580.632	14.5936
582.371	12.7119
584.11	13.3484
585.849	13.082
587.587	12.0989
589.323	10.8728
591.06	10.303
592.797	10.3111
594.534	10.1961
596.271	10.1904
598.005	10.0892
599.741	10.5881
601.476	10.884
603.211	11.6761
604.944	12.7957
606.679	13.0026
608.413	12.8496
610.147	14.1121
611.878	13.5379
613.611	14.507
615.344	15.3776
617.077	15.6309
618.807	15.3368
620.539	14.9428
622.27	15.831
623.999	15.7984
625.73	16.2798
627.461	18.3078
629.189	21.1027
630.919	21.947
632.648	24.0017
634.376	25.1936
636.105	27.4251
637.833	28.4919
639.559	29.561
641.287	29.7663
643.013	28.6386
644.74	27.3451
646.467	26.3347
648.192	27.2196
649.918	26.1992
651.642	27.3229
653.368	26.7355
655.091	26.3441
656.816	25.5596
658.538	25.7504
660.263	25.1344
661.987	25.5074
663.708	25.3616
665.432	25.8007
667.153	24.9245
668.875	25.1477
670.596	25.0468
672.318	24.459
674.037	24.8716
675.759	24.4246
677.478	23.7133
679.196	23.0548
680.917	23.3454
682.635	24.0937
684.355	24.0645
686.072	23.9253
687.791	23.5574
689.508	23.7651
691.224	23.58
692.942	22.7666
694.658	21.3694
696.376	21.237
698.091	20.1589
699.805	19.8618
701.522	18.7635
703.236	17.8328
704.95	18.2174
706.665	17.9937
708.379	19.5395
710.093	20.7371
711.806	21.6279
713.518	22.611
715.23	23.1567
716.943	23.6387
718.655	24.8009
720.366	24.5339
722.078	25.5132
723.788	25.3953
725.498	24.8332
727.208	25.7829
728.919	24.7585
730.628	25.1224
732.337	24.3529
734.045	26.3509
735.755	27.0679
737.463	29.0239
739.17	30.2896
740.877	31.8605
742.584	34.1173
744.292	36.6181
745.998	37.7984
747.704	40.0918
749.409	41.7558
751.114	43.7348
752.819	45.6927
754.526	47.0244
756.23	49.623
757.934	51.8514
759.637	54.1803
761.34	55.0923
763.043	56.3687
764.746	59.0783
766.448	60.3695
768.152	62.7742
769.853	63.9689
771.554	65.94
773.255	66.8316
774.956	67.9955
776.656	68.2226
778.356	68.4282
780.056	68.3185
781.755	69.1489
783.454	70.2417
785.153	70.3104
786.851	70.5967
788.549	72.1966
790.247	73.3079
791.944	74.6049
793.641	75.6981
795.338	75.4923
797.034	75.2504
798.73	76.2316
800.426	77.2508
802.121	77.3346
803.817	75.6129
805.511	74.1326
807.206	75.2725
808.9	75.5311
810.592	74.4433
812.286	74.7127
813.979	73.1221
815.672	72.9773
817.364	72.3352
819.057	74.0653
820.748	74.6004
822.44	75.1133
824.129	75.1712
825.82	74.6233
827.511	75.6189
829.201	76.1898
830.891	75.8721
832.581	74.5885
834.269	73.7954
835.958	73.2012
837.646	72.8694
839.335	72.337
841.023	71.6035
842.709	69.6339
844.396	68.8025
846.084	66.7657
847.77	65.2678
849.455	64.0812
851.141	62.7279
852.827	61.2674
854.513	58.3021
856.196	55.8271
857.881	52.8928
859.566	51.2232
861.248	49.209
862.932	47.1666
864.616	46.5243
866.297	46.2653
867.98	44.4341
869.663	42.9356
871.343	42.2246
873.026	41.2381
874.707	39.4777
876.387	38.63
878.068	36.6328
879.747	35.6815
881.428	34.9301
883.108	33.9658
884.786	33.0255
886.465	31.7571
888.143	31.9775
889.822	32.6344
891.498	35.0804
893.177	34.5637
894.855	34.1048
896.53	34.707
898.208	34.5341
899.883	35.0183
901.56	35.5766
903.234	35.6259
904.91	35.2205
906.584	34.7965
908.26	35.3912
909.933	36.0555
911.608	36.0566
913.28	35.2155
914.955	34.5021
916.627	33.4738
918.298	34.478
919.972	35.5956
921.643	35.1855
923.315	35.6542
924.986	34.6781
926.656	35.6801
928.328	35.4811
929.997	35.3997
931.668	35.47
933.337	35.3211
935.006	35.218
936.676	35.6802
938.344	36.2181
940.012	37.4718
941.681	38.882
943.348	39.0818
945.014	38.6992
946.683	38.898
948.349	39.2628
950.015	39.2575
951.682	37.9383
953.347	38.1121
955.012	37.5564
956.676	35.1347
958.343	33.7525
960.006	32.4157
961.67	33.1628
963.333	35.4521
964.998	38.7011
966.661	42.7473
968.323	45.7166
969.985	48.7412
971.649	52.0467
973.31	54.7359
974.971	57.8437
976.632	59.7628
978.293	62.0998
979.953	63.374
981.615	63.7117
983.274	65.5209
984.933	66.3973
986.592	66.8102
988.251	69.0699
989.909	71.3254
991.567	72.5267
993.225	73.5659
994.884	73.5644
996.541	75.0225
998.198	76.2318
999.855	76.5475
1001.51	78.2475
1003.17	78.45
1004.82	78.6675
1006.48	78.623
1008.13	78.578
1009.79	79.0401
1011.44	80.0156
1013.1	81.8768
1014.75	83.6151
1016.4	86.0551
1018.06	89.199
1019.71	93.4163
1021.36	97.079
1023.01	101.239
1024.66	103.732
1026.32	107.038
1027.97	110.636
1029.62	114.453
1031.27	116.67
1032.92	119.876
1034.57	121.108
1036.22	121.997
1037.87	124.182
1039.52	125.584
1041.16	127.71
1042.81	130.793
1044.46	135.321
1046.11	136.875
1047.76	138.185
1049.4	137.035
1051.05	136.404
1052.7	135.763
1054.34	135.473
1055.99	134.238
1057.63	132.196
1059.28	130.545
1060.92	126.475
1062.57	124.916
1064.21	121.128
1065.85	119.103
1067.5	114.503
1069.14	110.632
1070.78	106.194
1072.43	98.7753
1074.07	92.0938
1075.71	86.9084
1077.35	80.0316
1078.99	74.7442
1080.63	68.5575
1082.27	62.553
1083.91	57.1545
1085.55	51.6649
1087.19	45.9333
1088.83	41.6664
1090.47	39.714
1092.11	36.7716
1093.75	35.3459
1095.39	34.4835
1097.03	34.0737
1098.66	35.3491
1100.3	36.187
1101.94	37.4636
1103.57	38.9114
1105.21	37.9568
1106.84	36.0588
1108.48	36.1129
1110.11	33.7096
1111.75	32.2358
1113.38	30.0138
1115.02	30.2291
1116.65	28.3746
1118.29	26.846
1119.92	25.7103
1121.55	24.2416
1123.19	22.4376
1124.82	21.7389
1126.45	20.7244
1128.08	18.8142
1129.71	19.3724
1131.34	19.1545
1132.97	19.3803
1134.6	18.417
1136.23	18.2962
1137.86	17.5705
1139.49	18.5622
1141.12	19.2231
1142.75	18.6132
1144.38	19.0239
1146.01	16.6536
1147.64	16.0432
1149.26	13.3912
1150.89	14.3092
1152.52	13.456
1154.15	12.1971
1155.77	13.4001
1157.4	13.5082
1159.02	12.5595
1160.65	12.8797
1162.27	13.6887
1163.9	12.8685
1165.52	11.6931
1167.15	12.2705
1168.77	12.5794
1170.39	14.3885
1172.02	15.685
1173.64	15.862
1175.26	17.0352
1176.89	19.367
1178.51	21.1473
1180.13	23.0754
1181.75	24.6359
1183.37	25.6134
1184.99	26.4828
1186.61	26.6882
1188.23	28.0984
1189.85	30.0476
1191.47	31.5184
1193.09	34.5183
1194.71	37.2491
1196.33	39.9849
1197.94	41.0742
1199.56	43.138
1201.18	45.4756
1202.8	48.9101
1204.41	51.085
1206.03	53.3332
1207.65	55.7341
1209.26	58.5029
1210.88	61.9009
1212.49	63.068
1214.11	65.6294
1215.72	68.3452
1217.34	71.6607
1218.95	75.2538
1220.57	77.9032
1222.18	78.3623
1223.79	80.1238
1225.41	80.7797
1227.02	82.4276
1228.63	83.948
1230.24	87.4181
1231.85	90.6001
1233.47	91.2453
1235.08	91.4809
1236.69	93.3217
1238.3	93.9708
1239.91	94.7386
1241.52	96.6372
1243.13	97.2465
1244.74	96.0219
1246.34	98.9214
1247.95	101.221
1249.56	103.145
1251.17	103.657
1252.78	104.551
1254.38	104.609
1255.99	104.489
1257.6	105.642
1259.2	106.015
1260.81	106.565
1262.42	106.661
1264.02	105.949
1265.63	106.777
1267.23	106.423
1268.84	106.512
1270.44	107.648
1272.04	108.727
1273.65	109.109
1275.25	109.97
1276.85	110.15
1278.46	111.501
1280.06	112.672
1281.66	113.937
1283.26	115.407
1284.86	117.047
1286.46	118.596
1288.07	120.421
1289.67	122.03
1291.27	122.406
1292.87	123.486
1294.47	125.024
1296.06	124.712
1297.66	126.185
1299.26	127.018
1300.86	126.619
1302.46	126.164
1304.06	127.504
1305.65	128.25
1307.25	129.958
1308.85	131.214
1310.44	132.774
1312.04	132.617
1313.64	132.599
1315.23	133.283
1316.83	134.263
1318.42	134.454
1320.02	133.776
1321.61	134.682
1323.2	133.524
1324.8	133.445
1326.39	134.395
1327.99	131.995
1329.58	131.327
1331.17	129.22
1332.76	125.946
1334.36	123.614
1335.95	122.359
1337.54	120.356
1339.13	118.506
1340.72	116.538
1342.31	114.575
1343.9	112.543
1345.49	111.388
1347.08	109.203
1348.67	108.106
1350.26	106.859
1351.85	105.018
1353.43	102.909
1355.02	102.455
1356.61	100.96
1358.2	99.9707
1359.78	98.7159
1361.37	97.3258
1362.96	96.845
1364.54	96.6618
1366.13	95.7826
1367.71	93.9793
1369.3	91.7188
1370.88	89.1617
1372.47	88.1406
1374.05	86.5376
1375.64	86.1079
1377.22	87.0053
1378.8	86.4351
1380.39	84.9485
1381.97	84.02
1383.55	84.206
1385.13	83.666
1386.72	83.3425
1388.3	82.7029
1389.88	80.9206
1391.46	80.8291
1393.04	79.5045
1394.62	79.2792
1396.2	77.2951
1397.78	76.6848
1399.36	75.3156
1400.94	75.7757
1402.52	76.168
1404.1	77.5865
1405.68	79.6349
1407.25	80.7332
1408.83	82.9829
1410.41	84.4774
1411.98	87.6838
1413.56	93.0861
1415.14	97.1333
1416.71	100.552
1418.29	105.207
1419.87	110.289
1421.44	115.146
1423.02	120.251
1424.59	125.707
1426.16	131.537
1427.74	137.967
1429.31	144.206
1430.89	151.331
1432.46	157.728
1434.03	163.496
1435.6	168.748
1437.18	174.088
1438.75	178.81
1440.32	183.117
1441.89	188.476
1443.46	190.683
1445.03	193.215
1446.6	194.533
1448.17	195.706
1449.74	195.247
1451.31	195.168
1452.88	194.069
1454.45	192.979
1456.02	190.447
1457.59	186.081
1459.16	182.217
1460.72	177.809
1462.29	171.875
1463.86	166.136
1465.43	161.813
1466.99	155.086
1468.56	148.166
1470.13	141.836
1471.69	133.72
1473.26	126.267
1474.82	119.588
1476.38	113.793
1477.95	107.372
1479.51	102.424
1481.08	96.7639
1482.64	91.5354
1484.2	85.9374
1485.77	80.5344
1487.33	75.9706
1488.89	71.2187
1490.46	67.3288
1492.02	63.6213
1493.58	59.0501
1495.14	55.037
1496.7	52.2061
1498.26	50.1155
1499.82	47.5354
1501.38	46.773
1502.94	45.7608
1504.5	46.2696
1506.06	45.7833
1507.62	45.1895
1509.18	44.9562
1510.73	43.9146
1512.29	43.8414
1513.85	43.4675
1515.41	44.075
1516.96	44.1111
1518.52	43.4372
1520.08	42.3524
1521.63	41.5773
1523.19	42.1058
1524.75	41.6675
1526.3	40.0789
1527.85	38.4734
1529.41	38.6162
1530.96	38.7949
1532.52	39.281
1534.07	38.9821
1535.62	40.2377
1537.18	40.5318
1538.73	40.7191
1540.28	41.497
1541.84	43.5644
1543.39	45.6855
1544.94	46.5307
1546.49	48.0241
1548.04	49.1403
1549.59	51.0713
1551.14	54.0447
1552.69	55.6896
1554.25	56.3687
1555.79	58.6382
1557.34	60.3535
1558.89	61.8785
1560.44	63.9784
1561.99	64.2291
1563.54	67.1749
1565.08	68.8142
1566.63	70.7532
1568.18	73.9125
1569.73	76.2248
1571.27	78.33
1572.82	80.6279
1574.37	82.9776
1575.91	86.6297
1577.46	88.2849
1579	91.7659
1580.55	94.144
1582.09	96.5391
1583.64	97.0857
1585.18	99.4529
1586.73	101.57
1588.27	103.579
1589.81	104.302
1591.35	104.476
1592.9	106.304
1594.44	106.482
1595.98	106.175
1597.52	107.01
1599.06	107.528
1600.61	107.573
1602.15	107.785
1603.69	106.804
1605.23	106.725
1606.77	106.304
1608.31	105.957
1609.85	106.414
1611.39	107.013
1612.93	107.776
1614.46	106.35
1616	107.394
1617.54	107.73
1619.08	108.102
1620.61	109.314
1622.15	109.072
1623.69	109.384
1625.23	110.423
1626.76	112.279
1628.3	112.729
1629.83	112.626
1631.37	115.287
1632.9	116.809
1634.44	117.363
1635.97	119.323
1637.51	119.772
1639.04	120.486
1640.57	123.322
1642.11	124.472
1643.64	126.49
1645.17	128.181
1646.71	129.446
1648.24	131.073
1649.77	131.739
1651.3	132.69
1652.83	133.516
1654.36	132.107
1655.89	133.646
1657.42	134.006
1658.96	133.252
1660.48	133.3
1662.01	134.015
1663.54	132.464
1665.07	130.33
1666.6	128.705
1668.13	126.805
1669.66	125.501
1671.19	121.894
1672.71	118.154
1674.24	115.351
1675.77	112.836
1677.29	110.765
1678.82	106.305
1680.35	101.474
1681.87	97.1495
1683.4	93.2384
1684.92	90.0859
1686.45	87.2132
1687.97	82.0141
1689.5	78.2299
1691.02	73.3455
1692.54	70.1508
1694.07	64.5313
1695.59	60.681
1697.11	57.5559
1698.64	53.8905
1700.16	52.3107
1701.68	50.138
1703.2	46.2628
1704.72	41.991
1706.25	39.8139
1707.77	37.8074
1709.29	35.1112
1710.81	33.3671
1712.33	30.8227
1713.85	27.042
1715.37	25.1333
1716.89	25.1156
1718.41	23.9617
1719.92	22.7183
1721.44	21.9037
1722.96	20.967
1724.48	19.8477
1725.99	18.6451
1727.51	16.6821
1729.03	16.0991
1730.55	16.1835
1732.06	16.9181
1733.58	16.1946
1735.09	15.1117
1736.61	15.5888
1738.13	15.1296
1739.64	14.7881
1741.15	14.1837
1742.67	13.835
1744.18	12.5833
1745.7	12.056
1747.21	11.0736
1748.72	11.0832
1750.24	11.2485
1751.75	11.0736
1753.26	9.56472
1754.77	7.87774
1756.29	7.49856
1757.8	7.01294
1759.31	7.69389
1760.82	7.19876
1762.33	6.86299
1763.84	5.59715
1765.35	5.49889
1766.86	4.01459
1768.37	3.61926
1769.88	2.91909
1771.39	3.60176
1772.9	4.04972
1774.4	4.74902
1775.91	4.39901
1777.42	3.52971
1778.93	2.76973
1780.44	3.32188
1781.94	3.64173
1783.45	3.85223
1784.96	3.78705
1786.46	3.2293
1787.97	2.04324
1789.47	2.19111
1790.98	3.49572
1792.48	4.50965
1793.99	3.69932
1795.49	4.09536
1797	4.99206
1798.5	4.97891
1800.01	5.239
1801.51	5.16796
1803.01	5.35102
1804.51	6.52633
1806.02	7.15482
1807.52	7.53297
1809.02	7.07887
1810.52	7.63885
1812.02	8.5181
1813.52	9.56361
1815.02	8.85659
1816.53	7.8034
1818.03	7.44177
1819.52	7.15497
1821.02	7.33614
1822.52	6.97335
1824.02	6.96425
1825.52	6.90139
1827.02	6.16765
1828.52	5.87914
1830.02	6.25496
1831.51	6.70965
1833.01	6.4917
1834.51	5.94455
1836.01	5.01965
1837.5	3.88457
1839	3.36127
1840.49	2.98175
1841.99	2.73353
1843.49	2.05513
1844.98	1.94302
1846.48	1.83896
1847.97	2.14105
1849.47	2.22269
1850.96	1.77925
1852.45	3.15985
1853.95	3.09739
1855.44	3.57115
1856.93	4.46152
1858.42	5.72383
1859.92	5.81467
1861.41	5.13448
1862.9	4.74318
1864.39	5.1824
1865.88	6.01982
1867.38	7.00263
1868.87	7.52594
1870.36	9.02727
1871.85	9.1026
1873.34	9.39241
1874.83	9.49572
1876.32	8.62909
1877.81	8.91107
1879.29	9.10573
1880.78	9.76251
1882.27	10.4568
1882.53	10.7828
1884.03	10.4432
1885.52	9.84916
1887.01	9.64353
1888.51	8.93132
1890	9.14165
1891.5	9.2563
1892.99	9.33572
1894.48	9.11994
1895.97	9.26823
1897.47	9.62763
1898.96	9.17733
1900.45	8.80455
1901.94	8.85878
1903.43	8.80272
1904.92	8.50649
1906.41	7.7067
1907.9	6.94589
1909.39	7.41158
1910.88	7.8029
1912.37	8.85846
1913.86	9.90376
1915.35	10.6993
1916.84	10.7977
1918.33	11.8641
1919.81	12.8323
1921.3	13.3087
1922.79	13.7878
1924.28	13.4525
1925.76	13.9231
1927.25	12.2781
1928.73	12.7519
1930.22	12.5963
1931.71	11.4692
1933.19	10.4422
1934.68	9.74161
1936.16	10.1495
1937.65	10.4743
1939.13	11.9523
1940.62	12.0196
1942.1	11.9729
1943.58	12.3173
1945.07	12.0382
1946.55	12.3345
1948.03	11.5289
1949.51	11.2479
1951	11.078
1952.48	11.2874
1953.96	11.309
1955.44	10.5048
1956.92	9.12469
1958.4	7.92193
1959.88	7.95248
1961.36	8.62378
1962.84	8.63084
1964.32	8.28567
1965.8	8.29804
1967.28	7.8819
1968.76	7.63196
1970.24	6.59097
1971.72	6.55573
1973.2	7.15503
1974.67	7.45371
1976.15	7.75067
1977.63	8.76003
1979.1	9.51632
1980.58	10.3863
1982.06	10.9507
1983.54	11.3887
1985.01	12.1235
1986.49	12.475
1987.96	12.5331
1989.44	12.0872
1990.91	11.9398
1992.39	12.0022
1993.86	12.1845
1995.33	11.5965
1996.81	11.7153
1998.28	11.2033
1999.75	11.127
2001.23	10.6538
2002.7	11.6895
2004.17	11.344
2005.65	11.5325
2007.12	11.4068
2008.59	11.4361
2010.06	11.9967
2011.53	11.7933
2013	12.8504
2014.47	11.6015
2015.94	11.8053
2017.41	10.9192
2018.88	9.98934
2020.35	9.30567
2021.82	8.76741
2023.29	8.33403
2024.76	7.54996
2026.23	8.14214
2027.69	7.02819
2029.16	7.05695
2030.63	6.60069
2032.1	6.54792
2033.56	6.78387
2035.03	6.46144
2036.5	5.70448
2037.96	4.62501
2039.43	4.10704
2040.89	3.67828
2042.36	4.07698
2043.83	3.52432
2045.29	5.31217
2046.75	6.18772
2048.22	6.82816
2049.68	7.8832
2051.15	8.74988
2052.61	9.42027
2054.07	9.21566
2055.54	8.75367
2057	9.40187
2058.46	10.8352
2059.92	11.3793
2061.39	11.1974
2062.85	12.2481
2064.31	13.5956
2065.77	14.1129
2067.23	15.5731
2068.69	15.7053
2070.15	15.5159
2071.61	15.2949
2073.07	16.2051
2074.53	16.6914
2075.99	16.8749
2077.45	17.0494
2078.91	17.4172
2080.37	16.9407
2081.82	17.7172
2083.28	18.0928
2084.74	17.8024
2086.2	18.6617
2087.65	18.2335
2089.11	18.0788
2090.57	18.1427
2092.02	18.2956
2093.48	18.1759
2094.94	18.721
2096.39	17.7475
2097.85	18.437
2099.3	18.1637
2100.76	17.5082
2102.21	17.3367
2103.66	16.0815
2105.12	14.9674
2106.57	14.8478
2108.03	14.2204
2109.48	13.3969
2110.93	12.6275
2112.38	13.7397
2113.84	13.2073
2115.29	12.4342
2116.74	12.3453
2118.19	12.5486
2119.64	11.9817
2121.09	11.6577
2122.54	11.1973
2123.99	9.99236
2125.45	9.58055
2126.89	9.50231
2128.34	9.56324
2129.79	10.5
2131.24	9.66276
2132.69	9.9847
2134.14	9.76888
2135.59	10.913
2137.04	11.6221
2138.48	11.6239
2139.93	12.558
2141.38	12.4125
2142.83	12.597
2144.27	13.6466
2145.72	13.7441
2147.17	13.7417
2148.61	14.0572
2150.06	15.1296
2151.5	15.225
2152.95	15.9166
2154.39	16.9252
2155.84	17.7659
2157.28	18.0249
2158.73	18.7191
2160.17	19.2179
2161.61	19.1753
2163.06	20.4732
2164.5	20.844
2165.94	21.2575
2167.38	22.258
2168.83	22.1131
2170.27	22.5333
2171.71	22.3643
2173.15	22.2423
2174.59	23.2289
2176.03	23.3083
2177.47	23.785
2178.91	24.3362
2180.36	23.3694
2181.8	23.121
2183.23	23.7274
2184.67	22.8871
2186.11	21.39
2187.55	21.7334
2188.99	21.4833
2190.43	20.0036
2191.87	19.0802
2193.3	19.0851
2194.74	19.8896
2196.18	19.3351
2197.62	19.3289
2199.05	19.6708
2200.49	18.9591
2201.93	18.5983
2203.36	18.226
2204.8	18.9769
2206.23	18.4595
2207.67	18.7294
2209.1	18.5541
2210.54	18.7834
2211.97	18.5607
2213.41	17.941
2214.84	17.1933
2216.27	17.4088
2217.71	17.2794
2219.14	17.3441
2220.57	17.4719
2222.01	18.3983
2223.44	18.6019
2224.87	19.2013
2226.3	18.9115
2227.73	18.6501
2229.16	18.0341
2230.6	18.2148
2232.03	18.0388
2233.46	17.8624
2234.89	17.8468
2236.32	17.2123
2237.75	17.8274
2239.18	17.7217
2240.61	17.5317
2242.03	17.4814
2243.46	17.7906
2244.89	16.8123
2246.32	17.1404
2247.75	15.5945
2249.17	15.2302
2250.6	14.8747
2252.03	14.7396
2253.46	14.8615
2254.88	14.7525
2256.31	13.9037
2257.73	14.0293
2259.16	13.8716
2260.59	13.3098
2262.01	13.0943
2263.44	13.7287
2264.86	14.2909
2266.29	14.2197
2267.71	12.7416
2269.14	12.9078
2270.56	13.0494
2271.98	12.6633
2273.4	12.6164
2274.83	13.4799
2276.25	13.6308
2277.67	12.9538
2279.09	12.4946
2280.52	12.638
2281.94	12.8293
2283.36	11.8693
2284.78	12.0811
2286.2	12.8444
2287.62	13.146
2289.04	13.1176
2290.46	13.314
2291.88	13.9828
2293.3	14.0249
2294.72	14.0319
2296.14	13.4277
2297.56	12.9536
2298.98	13.7431
2300.4	14.4244
2301.82	14.4326
2303.23	14.6738
2304.65	14.4231
2306.07	13.9788
2307.49	14.1092
2308.9	14.0254
2310.32	12.8196
2311.73	12.6902
2313.15	11.4637
2314.57	11.2541
2315.98	11.3007
2317.4	11.4811
2318.81	11.5251
2320.23	11.8719
2321.64	12.3607
2323.06	12.4466
2324.47	12.2407
2325.88	12.3997
2327.3	11.7444
2328.71	11.3605
2330.12	11.8828
2331.54	11.6946
2332.95	12.2121
2334.36	12.0641
2335.77	11.3324
2337.18	11.0485
2338.6	10.7843
2340.01	10.5795
2341.42	10.0173
2342.83	8.8452
2344.24	8.58274
2345.65	8.14193
2347.06	7.14687
2348.47	6.0283
2349.88	5.51486
2351.29	5.12682
2352.7	4.45126
2354.1	3.94113
2355.51	4.58811
2356.92	5.34343
2358.33	5.57944
2359.74	6.07013
2361.14	6.0199
2362.55	5.53107
2363.96	4.57059
2365.36	5.15713
2366.77	5.18617
2368.18	5.29227
2369.58	6.20807
2370.99	5.46897
2372.39	4.13847
2373.8	2.88123
2375.2	1.60305
2376.61	0.430186
2378.01	0.0880885
2379.42	0.0550203
2380.82	0.450619
2382.22	0.35056
2383.63	-0.0255935
2385.03	0.68738
2386.43	0.986844
2387.84	0.755187
2389.24	1.72432
2390.64	1.78113
2392.04	2.48531
2393.44	3.30879
2394.84	3.1707
2396.25	4.14429
2397.65	4.49961
2399.05	4.44831
2400.45	4.75116
2401.85	5.47104
2403.25	6.13067
2404.65	5.73897
2406.05	5.49354
2407.45	5.38805
2408.84	5.24114
2410.24	5.11601
2411.64	4.87676
2413.04	4.29546
2414.44	5.34537
2415.83	4.9627
2417.23	5.14188
2418.63	4.86666
2420.02	4.71765
2421.42	5.53293
2422.82	6.05378
2424.21	6.68945
2425.61	7.99058
2427	8.08636
2428.4	8.05479
2429.8	7.3572
2431.19	7.57198
2432.58	7.28702
2433.98	7.79897
2435.37	8.3432
2436.77	8.44281
2438.16	8.00718
2439.55	7.7379
2440.95	6.97219
2442.34	6.37127
2443.73	6.90629
2445.12	6.66451
2446.51	6.63821
2447.91	7.02507
2449.3	6.85727
2450.69	6.55468
2452.08	6.48069
2453.47	6.94306
2454.86	6.57875
2456.25	6.73845
2457.64	6.34537
2459.03	7.32643
2460.42	7.2139
2461.81	7.01049
2463.2	6.41683
2464.59	5.88343
2465.98	6.12221
2467.36	5.45796
2468.75	4.97496
2470.14	5.63608
2471.53	5.67823
2472.92	4.54356
2474.3	4.62089
2475.69	4.27115
2477.08	3.36352
2478.46	3.75751
2479.85	3.45168
2481.23	3.14049
2482.62	4.05354
2484	4.75344
2485.39	3.02013
2486.77	3.59812
2488.16	3.41371
2489.54	3.92579
2490.93	4.02473
2492.31	4.09482
2493.69	5.00551
2495.08	5.35821
2496.46	4.73552
2497.84	5.47336
2499.23	5.6543
2500.61	5.71717
2501.99	4.88512
2503.37	5.94605
2504.75	6.2772
2506.13	7.28031
2507.52	7.99561
2508.9	8.72983
2510.28	9.14716
2511.66	9.40286
2513.04	9.49049
2514.42	9.19963
2515.8	9.75255
2517.18	9.83404
2518.55	9.7491
2519.93	10.0722
2521.31	9.90255
2522.69	9.67565
2524.07	9.00875
2525.45	9.82006
2526.82	10.4388
2528.2	11.2059
2529.58	10.9274
2530.95	10.6449
2532.33	10.6396
2533.71	11.6403
2535.08	11.3743
2536.46	11.6923
2537.84	11.8464
2539.21	12.1354
2540.59	11.9615
2541.96	12.5784
2543.34	13.3838
2544.71	12.8059
2546.08	12.8265
2547.46	13.2139
2548.83	12.636
2550.2	13.175
2551.58	13.7229
2552.95	12.4316
2554.32	12.1535
2555.7	13.2152
2557.07	13.5296
2558.44	13.5943
2559.81	13.4846
2561.18	14.1296
2562.55	14.2143
2563.93	14.147
2565.3	14.3038
2566.67	14.2963
2568.04	13.7381
2569.41	13.2993
2570.78	13.4825
2572.15	14.193
2573.51	14.1852
2574.88	13.7974
2576.25	13.1765
2577.62	11.8028
2578.99	11.3122
2580.36	12.0703
2581.73	11.1742
2583.09	10.7817
2584.46	10.4056
2585.83	8.86403
2587.19	8.07425
2588.56	7.73754
2589.93	7.35064
2591.29	7.35481
2592.66	7.665
2594.02	8.08323
2595.39	8.04346
2596.75	7.18787
2598.12	6.51368
2599.48	6.00445
2600.85	6.10331
2602.21	7.09801
2603.58	7.3242
2604.94	6.90533
2606.3	6.08563
2607.67	6.0515
2609.03	6.41194
2610.39	5.88539
2611.76	5.92197
2613.12	5.70813
2614.48	5.80066
2615.84	5.4906
2617.2	5.80594
2618.56	6.33564
2619.92	6.05861
2621.28	6.03976
2622.65	7.15334
2624.01	7.83938
2625.37	8.30795
2626.72	8.15341
2628.08	8.61076
2629.44	8.55622
2630.8	8.12031
2632.16	7.02559
2633.52	6.65279
2634.88	7.02934
2636.24	6.68985
2637.59	6.87371
2638.95	7.47658
2640.31	7.05444
2641.67	7.0769
2643.02	6.54436
2644.38	7.07886
2645.74	7.2596
2647.09	7.90475
2648.45	7.94798
2649.8	7.09941
2651.16	6.85901
2652.51	5.96546
2653.87	5.37662
2655.22	5.09604
2656.58	5.32394
2657.93	5.11886
2659.29	4.69693
2660.64	4.64064
2661.99	4.25393
2663.35	3.81119
2664.7	4.01502
2666.05	4.32845
2667.41	4.94644
2668.76	5.60816
2670.11	5.7352
2671.46	5.51461
2672.81	4.84642
2674.16	4.82485
2675.51	5.27627
2676.87	5.50206
2678.22	5.06463
2679.57	5.24536
2680.92	5.12965
2682.27	4.63519
2683.62	5.02738
2684.97	4.88706
2686.31	5.05166
2687.66	5.8642
2689.01	6.06185
2690.36	6.74956
2691.71	6.74496
2693.06	6.30904
2694.4	6.46767
2695.75	6.94226
2697.1	7.32074
2698.45	8.60824
2699.79	10.0934
2701.14	11.7463
2702.49	13.0198
2703.83	13.756
2705.18	14.1481
2706.52	14.8784
2707.87	14.6768
2709.21	15.8974
2710.56	16.4193
2711.9	17.2779
2713.25	16.9697
2714.59	17.1904
2715.94	17.4755
2717.28	17.894
2718.62	17.641
2719.97	17.3874
2721.31	18.601
2722.65	18.6026
2723.99	19.761
2725.34	19.7741
2726.68	20.4465
2728.02	20.4951
2729.36	21.0561
2730.7	20.8151
2732.04	20.9925
2733.39	20.5682
2734.73	20.4397
2736.07	19.8172
2737.41	18.8928
2738.75	18.0135
2740.08	17.2229
2741.43	16.6437
2742.76	16.2814
2744.1	15.5525
2745.44	13.8845
2746.78	12.9917
2748.12	12.3109
2749.46	10.7032
2750.79	10.4475
2752.13	9.14718
2753.47	8.53174
2754.81	7.59388
2756.14	6.20542
2757.48	5.3413
2758.81	4.91103
2760.15	4.09064
2761.49	4.25479
2762.82	3.97915
2764.16	3.55326
2765.49	3.03641
2766.83	2.58046
2768.16	1.84634
2769.5	2.0853
2770.83	2.07156
2772.16	1.14838
2773.5	0.740179
2774.83	0.0472182
2776.17	-0.33267
2777.5	-0.674009
2778.83	-0.257864
2780.16	-0.81448
2781.5	-0.776485
2782.83	-0.511333
2784.16	0.558292
2785.49	0.382054
2786.82	0.517011
2788.15	1.02488
2789.49	0.251866
2790.82	0.759791
2792.15	-0.0939124
2793.48	-0.944036
2794.81	-1.54563
2796.14	-1.29638
2797.46	-1.81416
2798.79	-1.38553
2800.12	-1.31246
2801.45	-1.15236
2802.78	-1.03173
2804.11	-1.4848
2805.44	-1.33377
2806.76	-1.24381
2808.09	-1.2252
2809.42	-1.58259
2810.75	-2.29616
2812.07	-1.86498
2813.4	-0.981261
2814.73	-0.0550224
2816.05	1.34746
2817.38	3.85312
2818.7	5.56137
2820.03	7.58461
2821.36	10.5658
2822.68	13.6728
2824.01	17.5589
2825.33	21.8053
2826.65	25.3321
2827.98	30.2571
2829.3	34.4877
2830.63	39.7501
2831.95	44.5695
2833.27	48.956
2834.6	54.3765
2835.92	60.6285
2837.24	66.6196
2838.56	72.3197
2839.88	78.734
2841.21	86.1951
2842.53	94.0609
2843.85	103.519
2845.17	111.557
2846.49	120.431
2847.81	130.601
2849.13	140.876
2850.45	151.195
2851.77	160.749
2853.09	170.706
2854.41	181.507
2855.73	191.302
2857.05	201.587
2858.37	210.528
2859.69	221.129
2861	230.389
2862.32	239.552
2863.64	248.423
2864.96	255.742
2866.28	263.665
2867.59	271.467
2868.91	278.266
2870.23	284.526
2871.54	291.136
2872.86	297.13
2874.17	302.485
2875.49	307.358
2876.81	311.505
2878.12	316.999
2879.44	321.079
2880.75	324.495
2882.07	327.895
2883.38	331.247
2884.69	334.662
2886.01	338.087
2887.32	341.719
2888.63	344.933
2889.95	349.189
2891.26	352.853
2892.57	355.987
2893.89	359.767
2895.2	362.942
2896.51	367.581
2897.82	371.372
2899.13	376.565
2900.44	383.04
2901.76	389.83
2903.07	397.271
2904.38	405.671
2905.69	414.634
2907	423.171
2908.31	432.472
2909.62	442.457
2910.93	452.203
2912.24	463.324
2913.55	473.071
2914.85	482.841
2916.16	492.739
2917.47	501.519
2918.78	509.571
2920.09	517.349
2921.4	523.802
2922.7	529.427
2924.01	535.287
2925.32	539.707
2926.62	542.06
2927.93	545.27
2929.24	545.966
2930.54	545.687
2931.85	545.293
2933.15	543.701
2934.46	539.946
2935.76	536.084
2937.07	531
2938.37	524.982
2939.68	518.428
2940.98	511.671
2942.29	503.9
2943.59	495.565
2944.89	486.021
2946.2	476.243
2947.5	466.68
2948.8	457.627
2950.11	447.945
2951.41	437.291
2952.71	426.128
2954.01	415.561
2955.32	405.343
2956.62	393.702
2957.92	382.08
2959.22	371.991
2960.52	361.119
2961.82	351.04
2963.12	340.82
2964.42	331.371
2965.72	322.537
2967.02	314.233
2968.32	305.42
2969.62	295.794
2970.92	287.233
2972.22	277.685
2973.51	270.127
2974.81	261.976
2976.11	254.042
2977.41	244.91
2978.71	236.779
2980	228.916
2981.3	220.989
2982.6	212.741
2983.9	204.191
2985.19	195.372
2986.49	186.789
2987.78	177.978
2989.08	170.374
2990.38	160.714
2991.67	152.018
2992.97	143.53
2994.26	134.371
2995.56	126.41
2996.85	118.058
2998.14	110.856
2999.44	102.769
3000.73	95.7551
3002.03	88.7614
3003.32	82.6368
3004.61	76.4892
3005.91	69.8911
3007.2	63.5228
3008.49	57.3518
3009.78	52.1692
3011.07	46.936
3012.37	41.746
3013.66	37.4118
3014.95	32.7894
3016.24	28.3226
3017.53	24.9678
3018.82	21.772
3020.11	18.1846
3021.4	14.4624
3022.69	11.7191
3023.98	9.3861
3025.27	6.57312
3026.56	4.23573
3027.85	3.6373
3029.14	1.83378
3030.43	1.33575
3031.71	-0.252047
3033	-0.630847
3034.29	-1.48204
3035.58	-1.26592
3036.87	-1.09448
3038.15	-0.25065
3039.44	-0.00209585
3040.73	0.937855
3042.01	1.13669
3043.3	3.28184
3044.59	4.00243
3045.87	5.20116
3047.16	5.12665
3048.44	4.80688
3049.73	4.84124
3051.01	5.72196
3052.3	6.17046
3053.58	6.94628
3054.87	7.31328
3056.15	7.94568
3057.43	7.74309
3058.72	8.22881
3060	8.16063
3061.29	8.35148
3062.57	8.70774
3063.85	8.4585
3065.13	9.03437
3066.42	9.16794
3067.7	9.10442
3068.98	9.1258
3070.26	8.21765
3071.54	8.18692
3072.82	7.84272
3074.11	7.65412
3075.39	6.5302
3076.67	5.61863
3077.95	4.87709
3079.23	4.26352
3080.51	3.01267
3081.79	2.81212
3083.07	1.17557
3084.35	-0.0826906
3085.63	-0.517087
3086.9	-0.283668
3088.18	-0.251055
3089.46	-0.177611
3090.74	0.24048
3092.02	0.812459
3093.29	0.60823
3094.57	1.13008
3095.85	1.7654
3097.13	3.43736
3098.4	3.93376
3099.68	4.88359
3100.95	6.42795
3102.23	7.12855
3103.51	7.86168
3104.78	8.96622
3106.06	9.96229
3107.33	11.0731
3108.61	11.7325
3109.88	12.955
3111.16	13.7566
3112.43	15.0668
3113.71	16.2872
3114.98	17.8566
3116.25	19.3856
3117.53	20.6949
3118.8	22.0107
3120.07	23.233
3121.35	24.8323
3122.62	27.1278
3123.89	28.6646
3125.16	30.7884
3126.44	32.3242
3127.71	34.0621
3128.98	36.0813
3130.25	37.0651
3131.52	38.9516
3132.79	40.1756
3134.06	41.2649
3135.33	43.3935
3136.6	44.8362
3137.87	46.2298
3139.14	47.5133
3140.41	49.6343
3141.68	51.9783
3142.95	54.5418
3144.22	57.2244
3145.49	60.1108
3146.76	64.0433
3148.02	67.9214
3149.29	70.4083
