#Acq. time (s)=	45
#Accumulations=	2
#Range (cm-¹)=	200...3150
#Windows=	2
#Auto scanning=	Off
#Autofocus=	Off
#Macrospot=	Off
#AutoExposure=	Off
#Spike filter=	Multiple accum.
#Delay time (s)=	0
#Binning=	1
#Readout mode=	Signal
#DeNoise=	Off
#ICS correction=	On
#Dark correction=	Off
#Inst. Process=	Off
#Detector Gain=	Best Dynamic Range
#Detector ADC=	20 kHz       
#Detector temperature (°C)=	-69.85
#Instrument=	LabRAM HR Evol
#Detector=	Synapse
#Objective=	x100
#Grating=	600 gr/mm
#ND Filter=	100%
#Laser (nm)=	532 
#Hole=	100.021
#Range=	Auto
#Laser Pol.=	No
#Raman. Pol.=	No
#Laser Pol. (°)=	-0.0007625
#Raman Pol. (°)=	89.9995
#Collection=	Microscope
#StageXY=	Marzhauser
#StageZ=	Marzhauser
#X (µm)=	-1031
#Y (µm)=	-2917.4
#Z (µm)=	527.85
#Full time(mm:ss)=	3:18
#Project=	
#Sample=	
#Site=	
#Title=	Mb_00_13_17_2x_45s_532 nm_x100_100%_600 gr_mm
#Remark=	
#Date=	06.07.2022 10:54
#Acquired=	06.07.2022 10:54:19
#Base:Fit=	06.07.2022 10:56:24
#Base:Fit=	06.07.2022 10:56:30
#Base:Fit=	06.07.2022 10:56:33
#Base:Fit=	06.07.2022 10:56:36
#Edit:Spike=	06.07.2022 10:57:31
#Edit:Spike=	06.07.2022 10:57:32
#Base:Fit=	10.08.2022 10:16:56
#Base:Sub=	10.08.2022 10:17:24
#Filter:Polynom=	16.08.2022 10:36:38
#AxisType[0]=Intens
#AxisUnit[0]=Cnt
#AxisType[1]=Spectr
#AxisUnit[1]=1/cm
200.398	29.0628
202.213	19.4923
204.027	13.5828
205.843	7.8676
207.657	1.42041
209.47	-2.82002
211.283	-6.07758
213.097	-7.38225
214.909	-6.66702
216.721	-5.52444
218.533	1.21408
220.344	8.71008
222.157	17.6304
223.967	27.416
225.777	38.9052
227.587	50.2336
229.396	64.3159
231.205	77.1479
233.016	87.7915
234.824	99.5997
236.632	110.178
238.439	123.157
240.247	135.503
242.053	147.28
243.86	157.092
245.666	166.113
247.474	177.419
249.279	189.688
251.085	199.909
252.889	208.257
254.694	216.173
256.498	219.698
258.301	223.138
260.105	227.82
261.908	231.284
263.71	230.362
265.513	232.383
267.315	229.798
269.116	229.832
270.918	225.046
272.718	218.719
274.519	211.731
276.319	203.363
278.119	195.468
279.918	185.054
281.718	176.455
283.516	164.338
285.315	154.256
287.113	143.721
288.911	132.043
290.708	123.109
292.505	110.657
294.302	99.7322
296.098	90.1272
297.894	82.1553
299.69	72.2569
301.485	62.7213
303.278	53.6107
305.073	46.6689
306.867	41.1447
308.661	37.5694
310.454	32.4376
312.247	28.395
314.04	25.2991
315.833	23.4113
317.623	20.754
319.415	19.6944
321.206	19.6055
322.997	18.2055
324.788	19.3018
326.579	20.6144
328.367	21.208
330.156	20.3073
331.946	19.8253
333.735	19.2569
335.523	19.2334
337.31	18.1381
339.098	18.7804
340.885	16.9659
342.673	14.615
344.458	12.7288
346.244	12.072
348.03	9.78525
349.816	11.9121
351.6	10.4877
353.385	7.81858
355.17	7.12978
356.953	5.32616
358.737	5.85452
360.521	4.53281
362.304	5.91272
364.085	10.4905
365.868	12.3955
367.65	17.7038
369.431	22.0033
371.212	25.9457
372.994	29.2057
374.773	34.4872
376.554	40.9283
378.332	47.1915
380.112	52.6056
381.892	60.7705
383.669	71.8321
385.448	81.3313
387.225	91.1814
389.003	102.621
390.781	112.012
392.557	123.369
394.334	137.231
396.109	149.046
397.885	160.813
399.66	171.147
401.436	180.874
403.211	189.244
404.984	197.433
406.759	202.936
408.532	209.228
410.306	213.748
412.078	215.333
413.851	217.361
415.623	218.307
417.395	216.684
419.166	214.78
420.938	210.882
422.708	207.49
424.477	202.902
426.248	196.909
428.017	189.746
429.788	178.754
431.556	170.179
433.326	160.32
435.093	150.029
436.86	138.428
438.629	128.899
440.395	114.484
442.163	102.022
443.929	92.4692
445.694	81.172
447.461	71.3595
449.226	60.1274
450.99	51.2987
452.756	45.3919
454.52	35.7403
456.285	26.8308
458.048	17.5998
459.811	8.07489
461.573	4.03923
463.337	-1.00765
465.099	-2.51283
466.86	-5.05551
468.623	-5.92981
470.384	-3.72681
472.144	-3.50005
473.906	-2.69411
475.666	0.0550563
477.425	1.72984
479.184	4.03355
480.944	7.83529
482.703	9.52467
484.461	11.3426
486.218	14.6624
487.975	16.861
489.734	19.9482
491.491	22.798
493.247	29.6669
495.003	32.3215
496.759	36.5427
498.516	41.6739
500.271	45.1976
502.025	49.5007
503.779	52.5899
505.533	53.7867
507.287	56.2746
509.042	58.7421
510.795	61.594
512.547	63.3858
514.299	64.1743
516.051	65.2903
517.803	67.4146
519.554	71.0563
521.305	71.0021
523.055	71.5496
524.805	72.5636
526.555	72.6156
528.307	71.8103
530.056	72.2789
531.805	72.215
533.553	69.9893
535.301	69.3823
537.049	66.3537
538.797	64.2965
540.544	61.6601
542.291	56.1213
544.037	51.2529
545.783	48.3681
547.529	45.8549
549.275	41.6568
551.02	37.3631
552.765	33.0911
554.509	29.4887
556.253	25.7269
557.997	24.4718
559.738	21.5117
561.482	18.9934
563.224	18.2347
564.967	14.7011
566.709	13.9814
568.451	11.5327
570.192	7.73833
571.933	8.36841
573.674	6.57796
575.415	5.24539
577.153	4.64197
578.893	5.06224
580.632	7.32796
582.371	6.14419
584.11	6.85469
585.849	7.59534
587.587	5.58219
589.323	5.14118
591.06	4.40357
592.797	1.79122
594.534	1.0323
596.271	0.755032
598.005	0.50788
599.741	2.29129
601.476	4.35576
603.211	6.87236
604.944	10.4894
606.679	11.7576
608.413	13.3711
610.147	15.037
611.878	15.9468
613.611	16.212
615.344	17.6618
617.077	19.7131
618.807	21.0362
620.539	21.1907
622.27	22.2451
623.999	24.1236
625.73	24.5282
627.461	27.6686
629.189	30.2239
630.919	36.0201
632.648	41.6536
634.376	45.6465
636.105	48.8009
637.833	54.1027
639.559	57.3868
641.287	62.4186
643.013	64.6553
644.74	70.9375
646.467	73.4952
648.192	75.6847
649.918	76.5953
651.642	74.9046
653.368	74.2571
655.091	72.3244
656.816	71.3896
658.538	70.708
660.263	68.9564
661.987	70.657
663.708	70.3151
665.432	69.5675
667.153	68.2198
668.875	63.3523
670.596	59.7447
672.318	56.0557
674.037	51.5686
675.759	49.759
677.478	47.341
679.196	43.0021
680.917	40.3565
682.635	39.0501
684.355	34.7719
686.072	33.2329
687.791	29.071
689.508	26.3958
691.224	21.5525
692.942	16.7071
694.658	11.7862
696.376	9.80663
698.091	5.98045
699.805	4.17658
701.522	3.72851
703.236	1.97984
704.95	1.48752
706.665	-0.863091
708.379	-0.17046
710.093	3.04917
711.806	3.26829
713.518	6.62621
715.23	8.76766
716.943	10.7483
718.655	10.3301
720.366	9.20411
722.078	8.37355
723.788	9.10286
725.498	8.91367
727.208	8.79703
728.919	10.3305
730.628	12.132
732.337	9.93151
734.045	8.54134
735.755	8.58143
737.463	9.51691
739.17	12.8186
740.877	14.3323
742.584	18.4594
744.292	20.5359
745.998	27.0649
747.704	30.3389
749.409	31.3947
751.114	32.9882
752.819	35.6995
754.526	38.4214
756.23	42.6494
757.934	45.9301
759.637	47.5645
761.34	50.9095
763.043	51.0089
764.746	51.5578
766.448	52.902
768.152	55.1145
769.853	54.9978
771.554	58.015
773.255	57.7388
774.956	59.9226
776.656	59.4823
778.356	62.5033
780.056	63.2772
781.755	66.0387
783.454	65.581
785.153	67.4801
786.851	67.2587
788.549	66.7942
790.247	68.3246
791.944	66.2335
793.641	67.6756
795.338	67.9512
797.034	68.1461
798.73	67.4726
800.426	66.4619
802.121	66.3617
803.817	65.0603
805.511	63.404
807.206	63.955
808.9	63.0924
810.592	62.0986
812.286	61.286
813.979	61.7005
815.672	60.1315
817.364	58.7859
819.057	59.7234
820.748	59.6379
822.44	59.7478
824.129	59.4078
825.82	59.027
827.511	62.1802
829.201	62.89
830.891	62.6375
832.581	59.4826
834.269	57.87
835.958	57.1951
837.646	57.7256
839.335	56.7045
841.023	55.1248
842.709	52.6001
844.396	48.9003
846.084	48.7852
847.77	46.312
849.455	44.5002
851.141	44.1141
852.827	42.0653
854.513	40.0374
856.196	38.6723
857.881	34.7535
859.566	33.9565
861.248	30.8814
862.932	28.0785
864.616	25.4993
866.297	22.697
867.98	22.5834
869.663	20.087
871.343	19.7753
873.026	20.4442
874.707	19.3817
876.387	16.6466
878.068	17.3944
879.747	20.1515
881.428	19.5805
883.108	18.2446
884.786	16.3852
886.465	14.395
888.143	11.6436
889.822	11.3367
891.498	12.3812
893.177	10.1075
894.855	10.6007
896.53	12.0594
898.208	12.4601
899.883	11.7104
901.56	12.5376
903.234	14.1071
904.91	15.1743
906.584	16.7367
908.26	19.5608
909.933	21.7505
911.608	22.0848
913.28	20.1083
914.955	19.9945
916.627	20.0319
918.298	23.0774
919.972	23.9298
921.643	26.4408
923.315	26.8676
924.986	26.0967
926.656	27.173
928.328	29.8311
929.997	31.1387
931.668	31.3708
933.337	32.9897
935.006	34.5054
936.676	35.226
938.344	35.2562
940.012	34.448
941.681	34.0862
943.348	33.4419
945.014	31.7922
946.683	32.823
948.349	32.2076
950.015	33.652
951.682	35.091
953.347	33.5175
955.012	34.2169
956.676	31.8512
958.343	28.9158
960.006	27.926
961.67	28.2876
963.333	30.1428
964.998	29.5447
966.661	31.8843
968.323	33.7207
969.985	36.6197
971.649	41.5703
973.31	48.1735
974.971	51.23
976.632	53.7545
978.293	58.2967
979.953	60.7436
981.615	61.0371
983.274	63.8802
984.933	66.9579
986.592	68.7719
988.251	70.3288
989.909	70.8876
991.567	70.9967
993.225	71.0997
994.884	71.7128
996.541	73.3359
998.198	78.2558
999.855	80.196
1001.51	82.5731
1003.17	83.83
1004.82	84.8515
1006.48	83.4488
1008.13	84.3257
1009.79	85.1525
1011.44	85.3311
1013.1	85.1731
1014.75	88.5616
1016.4	91.8561
1018.06	95.6716
1019.71	102.445
1021.36	108.053
1023.01	115.933
1024.66	125.264
1026.32	132.996
1027.97	142.65
1029.62	150.137
1031.27	157.661
1032.92	165.432
1034.57	169.35
1036.22	173.018
1037.87	178.218
1039.52	183.744
1041.16	187.181
1042.81	190.626
1044.46	195.739
1046.11	198.937
1047.76	201.306
1049.4	202.37
1051.05	203.73
1052.7	201.668
1054.34	200.864
1055.99	196.915
1057.63	190.158
1059.28	185.057
1060.92	177.34
1062.57	168.114
1064.21	161.802
1065.85	155.523
1067.5	146.983
1069.14	141.64
1070.78	133.003
1072.43	124.304
1074.07	115.102
1075.71	107.312
1077.35	97.405
1078.99	87.2883
1080.63	76.7856
1082.27	65.1029
1083.91	53.8066
1085.55	43.4568
1087.19	33.1939
1088.83	24.5174
1090.47	19.2663
1092.11	12.2798
1093.75	11.2538
1095.39	10.1904
1097.03	9.77606
1098.66	10.3779
1100.3	12.058
1101.94	14.9995
1103.57	17.7613
1105.21	19.8552
1106.84	18.3457
1108.48	18.4303
1110.11	19.2024
1111.75	18.3539
1113.38	18.3124
1115.02	17.1604
1116.65	16.5933
1118.29	14.5541
1119.92	15.3974
1121.55	16.2174
1123.19	15.8162
1124.82	15.7052
1126.45	18.4487
1128.08	17.9203
1129.71	19.3952
1131.34	20.7234
1132.97	21.9344
1134.6	19.3828
1136.23	19.4195
1137.86	19.2009
1139.49	19.7208
1141.12	20.8122
1142.75	22.0744
1144.38	24.56
1146.01	28.3544
1147.64	28.7678
1149.26	29.826
1150.89	32.5856
1152.52	30.0152
1154.15	28.7512
1155.77	25.839
1157.4	27.2051
1159.02	27.4492
1160.65	25.0749
1162.27	25.3948
1163.9	25.6902
1165.52	26.24
1167.15	27.5736
1168.77	30.8829
1170.39	32.1014
1172.02	34.4145
1173.64	35.7313
1175.26	39.9682
1176.89	40.5233
1178.51	43.8409
1180.13	46.6514
1181.75	50.0459
1183.37	54.5167
1184.99	59.5168
1186.61	61.7573
1188.23	65.3348
1189.85	73.2431
1191.47	79.3475
1193.09	84.1956
1194.71	88.6277
1196.33	94.8296
1197.94	100.217
1199.56	107.075
1201.18	115.471
1202.8	121.791
1204.41	127.16
1206.03	132.754
1207.65	140.389
1209.26	146.929
1210.88	155.935
1212.49	161.734
1214.11	168.048
1215.72	173.362
1217.34	181.563
1218.95	188.497
1220.57	194.463
1222.18	200.757
1223.79	205.959
1225.41	212.201
1227.02	214.618
1228.63	217.609
1230.24	221.473
1231.85	225.624
1233.47	228.55
1235.08	230.91
1236.69	235.311
1238.3	242.051
1239.91	244.161
1241.52	244.759
1243.13	250.438
1244.74	252.34
1246.34	257.129
1247.95	258.808
1249.56	261.465
1251.17	263.324
1252.78	264.851
1254.38	267.333
1255.99	268.551
1257.6	271.146
1259.2	273.591
1260.81	276.428
1262.42	279.884
1264.02	282.12
1265.63	283.398
1267.23	285.77
1268.84	287.735
1270.44	290.395
1272.04	292.051
1273.65	295.457
1275.25	299.414
1276.85	303.293
1278.46	306.671
1280.06	310.254
1281.66	315.147
1283.26	321.964
1284.86	330.171
1286.46	336.492
1288.07	342.549
1289.67	351.602
1291.27	355.7
1292.87	360.549
1294.47	367.215
1296.06	371.952
1297.66	377.004
1299.26	382.307
1300.86	389.555
1302.46	396.139
1304.06	402.567
1305.65	409.409
1307.25	415.058
1308.85	423.625
1310.44	428.256
1312.04	436.423
1313.64	441.685
1315.23	447.06
1316.83	454.406
1318.42	457.903
1320.02	460.261
1321.61	464.137
1323.2	469.96
1324.8	471.418
1326.39	474.554
1327.99	474.276
1329.58	473.592
1331.17	475.147
1332.76	475.289
1334.36	476.155
1335.95	476.442
1337.54	478.7
1339.13	476.771
1340.72	475.732
1342.31	471.99
1343.9	471.314
1345.49	469.625
1347.08	467.259
1348.67	463.79
1350.26	461.515
1351.85	460.873
1353.43	459.078
1355.02	454.995
1356.61	450.16
1358.2	447.896
1359.78	443.948
1361.37	442.861
1362.96	438.26
1364.54	433.256
1366.13	427.5
1367.71	424.169
1369.3	420.995
1370.88	414.225
1372.47	413.483
1374.05	409.617
1375.64	403.239
1377.22	400.88
1378.8	397.758
1380.39	395.778
1381.97	394.053
1383.55	391.954
1385.13	389.603
1386.72	388.798
1388.3	385.5
1389.88	381.099
1391.46	380.269
1393.04	376.123
1394.62	372.654
1396.2	368.834
1397.78	363.548
1399.36	360.485
1400.94	358.777
1402.52	356.216
1404.1	351.888
1405.68	352.135
1407.25	351.473
1408.83	349.207
1410.41	352.89
1411.98	354.068
1413.56	356.111
1415.14	358.088
1416.71	361.362
1418.29	363.113
1419.87	366.4
1421.44	374.631
1423.02	379.754
1424.59	384.095
1426.16	389.397
1427.74	395.101
1429.31	400.956
1430.89	406.567
1432.46	411.2
1434.03	415.838
1435.6	418.818
1437.18	423.665
1438.75	426.779
1440.32	429.625
1441.89	430.611
1443.46	433.371
1445.03	432.597
1446.6	432.785
1448.17	431.375
1449.74	429.02
1451.31	427.956
1452.88	423.838
1454.45	418.476
1456.02	416.537
1457.59	408.638
1459.16	403.853
1460.72	399.811
1462.29	392.477
1463.86	384.841
1465.43	373.849
1466.99	363.604
1468.56	352.236
1470.13	341.253
1471.69	326.958
1473.26	314.061
1474.82	303.359
1476.38	292.387
1477.95	283.494
1479.51	272.641
1481.08	262.372
1482.64	253.915
1484.2	246.704
1485.77	237.895
1487.33	228.38
1488.89	224.87
1490.46	220.707
1492.02	217.836
1493.58	214.601
1495.14	213.032
1496.7	211.027
1498.26	210.037
1499.82	211.938
1501.38	210.063
1502.94	210.152
1504.5	210.719
1506.06	211.648
1507.62	214.301
1509.18	213.92
1510.73	215.942
1512.29	218.053
1513.85	218.73
1515.41	222.449
1516.96	224.976
1518.52	227.778
1520.08	231.008
1521.63	234.894
1523.19	235.749
1524.75	241.104
1526.3	244.436
1527.85	248.24
1529.41	253.88
1530.96	257.564
1532.52	260.772
1534.07	265.214
1535.62	268.905
1537.18	276.639
1538.73	283.576
1540.28	286.437
1541.84	292.044
1543.39	295.274
1544.94	303.098
1546.49	307.655
1548.04	310.541
1549.59	315.457
1551.14	323.132
1552.69	329.904
1554.25	335.125
1555.79	341.004
1557.34	345.248
1558.89	351.979
1560.44	357.677
1561.99	362.536
1563.54	366.602
1565.08	373.013
1566.63	380.999
1568.18	386.545
1569.73	392.491
1571.27	397.593
1572.82	404.525
1574.37	410.183
1575.91	416.205
1577.46	423.803
1579	429.608
1580.55	434.304
1582.09	439.564
1583.64	444.046
1585.18	449.006
1586.73	450.611
1588.27	456.405
1589.81	458.963
1591.35	458.738
1592.9	462.734
1594.44	462.519
1595.98	461.354
1597.52	458.645
1599.06	457.244
1600.61	453.535
1602.15	451.081
1603.69	447.147
1605.23	442.277
1606.77	436.362
1608.31	428.765
1609.85	422.105
1611.39	414.458
1612.93	407.576
1614.46	399.357
1616	391.144
1617.54	379.755
1619.08	373.287
1620.61	362.692
1622.15	354.603
1623.69	345.346
1625.23	334.009
1626.76	327.174
1628.3	317.565
1629.83	307.032
1631.37	295.9
1632.9	287.525
1634.44	277.636
1635.97	268.68
1637.51	257.434
1639.04	248.825
1640.57	241.743
1642.11	235.791
1643.64	229.057
1645.17	224.626
1646.71	221.437
1648.24	217.397
1649.77	215.082
1651.3	210.228
1652.83	207.411
1654.36	204.497
1655.89	200.417
1657.42	198.324
1658.96	194.552
1660.48	191.671
1662.01	187.974
1663.54	182.455
1665.07	180.549
1666.6	174.096
1668.13	168.461
1669.66	164.738
1671.19	157.273
1672.71	149.985
1674.24	144.477
1675.77	139.078
1677.29	131.799
1678.82	125.047
1680.35	119.044
1681.87	111.881
1683.4	105.506
1684.92	98.0627
1686.45	92.1614
1687.97	84.7924
1689.5	77.8289
1691.02	70.3562
1692.54	65.2805
1694.07	57.9739
1695.59	54.1597
1697.11	48.7371
1698.64	44.0866
1700.16	37.553
1701.68	31.2026
1703.2	27.0569
1704.72	22.4682
1706.25	16.8699
1707.77	12.7718
1709.29	10.7596
1710.81	6.59887
1712.33	3.13678
1713.85	0.0226115
1715.37	-0.414454
1716.89	-0.587022
1718.41	-0.723081
1719.92	0.559015
1721.44	0.458772
1722.96	-0.463
1724.48	0.437114
1725.99	1.75808
1727.51	3.03102
1729.03	4.22057
1730.55	5.67089
1732.06	8.51172
1733.58	11.1869
1735.09	12.0695
1736.61	14.5554
1738.13	16.0996
1739.64	19.1318
1741.15	22.4097
1742.67	23.5195
1744.18	25.1786
1745.7	27.8218
1747.21	30.8615
1748.72	34.529
1750.24	39.1875
1751.75	42.0881
1753.26	44.7269
1754.77	47.5195
1756.29	51.0867
1757.8	52.8441
1759.31	54.8869
1760.82	57.7017
1762.33	60.6953
1763.84	62.9578
1765.35	66.2836
1766.86	68.158
1768.37	71.8876
1769.88	73.9535
1771.39	77.1098
1772.9	80.5239
1774.4	80.822
1775.91	81.4335
1777.42	84.0392
1778.93	85.7629
1780.44	88.5141
1781.94	88.6517
1783.45	89.5764
1784.96	91.3067
1786.46	92.0474
1787.97	92.9222
1789.47	93.4901
1790.98	93.3966
1792.48	95.3717
1793.99	94.5464
1795.49	94.5746
1797	94.1301
1798.5	94.7335
1800.01	96.6015
1801.51	96.0039
1803.01	95.7731
1804.51	93.7113
1806.02	93.9741
1807.52	94.1792
1809.02	93.1351
1810.52	92.8456
1812.02	92.3385
1813.52	90.8798
1815.02	91.9634
1816.53	90.5679
1818.03	88.8287
1819.52	87.8307
1821.02	89.6729
1822.52	88.9447
1824.02	88.4205
1825.52	85.5993
1827.02	84.739
1828.52	84.0761
1830.02	83.6638
1831.51	84.1506
1833.01	84.4863
1834.51	85.5215
1836.01	86.8023
1837.5	87.2149
1839	87.2068
1840.49	87.4554
1841.99	86.5389
1843.49	88.9633
1844.98	88.1114
1846.48	87.3822
1847.97	85.6956
1849.47	82.5279
1850.96	80.6829
1852.45	81.2872
1853.95	80.327
1855.44	79.5229
1856.93	77.2689
1858.42	75.6474
1859.92	73.6728
1861.41	71.2793
1862.9	68.9889
1864.39	65.2831
1865.88	64.1492
1867.38	62.551
1868.87	59.8365
1870.36	59.3061
1871.85	56.9952
1873.34	53.3175
1874.83	51.6507
1876.32	49.0987
1877.81	46.5609
1879.29	45.6409
1880.78	45.6478
1882.27	44.7428
1882.53	43.4958
1884.03	43.1302
1885.52	42.2612
1887.01	42.5521
1888.51	39.8157
1890	38.3249
1891.5	37.4165
1892.99	36.5058
1894.48	34.3509
1895.97	32.3267
1897.47	32.9641
1898.96	30.7101
1900.45	31.1839
1901.94	30.015
1903.43	30.0165
1904.92	32.1791
1906.41	32.7951
1907.9	32.1981
1909.39	31.7187
1910.88	30.0711
1912.37	27.5836
1913.86	26.4688
1915.35	26.0126
1916.84	24.7205
1918.33	23.63
1919.81	21.8886
1921.3	20.3551
1922.79	18.8073
1924.28	20.1601
1925.76	18.5353
1927.25	15.3786
1928.73	14.8263
1930.22	12.9017
1931.71	11.5257
1933.19	9.31151
1934.68	9.71276
1936.16	9.57182
1937.65	9.04743
1939.13	7.93932
1940.62	7.93293
1942.1	8.48216
1943.58	8.13453
1945.07	7.42703
1946.55	7.41998
1948.03	8.08585
1949.51	9.90605
1951	8.80768
1952.48	9.33646
1953.96	7.61094
1955.44	6.06245
1956.92	5.47482
1958.4	5.90929
1959.88	4.97386
1961.36	4.68421
1962.84	2.3885
1964.32	4.27255
1965.8	2.99879
1967.28	0.38836
1968.76	0.244839
1970.24	-0.78092
1971.72	-1.79267
1973.2	-3.42368
1974.67	-1.95912
1976.15	0.502854
1977.63	1.74203
1979.1	2.74866
1980.58	1.07226
1982.06	1.18487
1983.54	1.84684
1985.01	3.05321
1986.49	5.58407
1987.96	6.6518
1989.44	9.42223
1990.91	9.23431
1992.39	11.7248
1993.86	12.7524
1995.33	14.8033
1996.81	15.645
1998.28	16.4808
1999.75	15.4553
2001.23	16.3708
2002.7	19.9322
2004.17	22.0956
2005.65	25.4509
2007.12	27.3301
2008.59	29.6441
2010.06	30.3997
2011.53	31.6942
2013	32.4937
2014.47	35.4603
2015.94	37.2943
2017.41	37.7751
2018.88	38.5545
2020.35	40.4062
2021.82	41.645
2023.29	41.2919
2024.76	38.8171
2026.23	39.0262
2027.69	38.7273
2029.16	38.3503
2030.63	38.8402
2032.1	38.9417
2033.56	37.9084
2035.03	38.53
2036.5	35.7606
2037.96	32.8111
2039.43	29.8775
2040.89	29.4005
2042.36	29.3315
2043.83	25.9957
2045.29	26.4582
2046.75	27.0963
2048.22	29.1484
2049.68	30.3997
2051.15	30.7371
2052.61	33.0179
2054.07	32.1502
2055.54	31.707
2057	31.789
2058.46	32.0057
2059.92	31.4121
2061.39	32.3727
2062.85	33.1221
2064.31	33.4341
2065.77	34.8627
2067.23	34.4797
2068.69	34.6377
2070.15	32.6307
2071.61	31.3383
2073.07	31.1543
2074.53	31.9277
2075.99	33.4728
2077.45	34.1107
2078.91	33.2535
2080.37	31.902
2081.82	31.9314
2083.28	33.6737
2084.74	31.7914
2086.2	29.5686
2087.65	30.5428
2089.11	32.8511
2090.57	32.1839
2092.02	32.7454
2093.48	31.7542
2094.94	27.9539
2096.39	25.8702
2097.85	26.1185
2099.3	24.6727
2100.76	21.2083
2102.21	20.1977
2103.66	21.8982
2105.12	21.2265
2106.57	20.183
2108.03	19.5432
2109.48	17.4015
2110.93	18.0527
2112.38	17.8704
2113.84	19.1678
2115.29	16.8302
2116.74	17.0237
2118.19	19.5157
2119.64	21.7357
2121.09	22.2534
2122.54	22.2309
2123.99	21.5823
2125.45	18.9034
2126.89	18.9795
2128.34	19.6705
2129.79	21.2541
2131.24	22.5338
2132.69	24.6379
2134.14	27.3541
2135.59	25.8032
2137.04	28.1706
2138.48	27.8835
2139.93	27.3588
2141.38	28.0106
2142.83	30.1275
2144.27	31.2049
2145.72	33.6118
2147.17	35.5561
2148.61	34.5343
2150.06	34.9753
2151.5	35.4607
2152.95	35.0295
2154.39	34.0091
2155.84	33.6038
2157.28	32.6629
2158.73	34.6009
2160.17	37.0149
2161.61	37.9886
2163.06	35.5151
2164.5	36.0798
2165.94	35.3048
2167.38	34.4861
2168.83	35.8712
2170.27	35.5401
2171.71	35.1268
2173.15	34.0822
2174.59	34.4814
2176.03	37.4849
2177.47	35.4931
2178.91	35.1545
2180.36	33.9482
2181.8	35.6015
2183.23	34.9557
2184.67	33.5547
2186.11	35.0536
2187.55	34.3754
2188.99	34.1894
2190.43	34.7763
2191.87	36.0799
2193.3	35.8057
2194.74	34.1746
2196.18	35.4935
2197.62	35.1882
2199.05	39.4029
2200.49	40.3689
2201.93	40.6867
2203.36	42.0431
2204.8	45.2061
2206.23	44.8979
2207.67	44.5835
2209.1	47.6521
2210.54	48.4083
2211.97	49.9687
2213.41	52.2801
2214.84	54.1725
2216.27	53.0141
2217.71	55.3444
2219.14	54.1359
2220.57	53.0915
2222.01	55.4142
2223.44	58.2509
2224.87	57.2787
2226.3	58.3647
2227.73	60.2305
2229.16	61.8863
2230.6	61.2957
2232.03	61.7657
2233.46	64.5158
2234.89	63.5856
2236.32	65.5626
2237.75	64.4118
2239.18	62.7752
2240.61	62.4553
2242.03	59.0296
2243.46	58.4465
2244.89	57.2926
2246.32	56.5746
2247.75	58.5332
2249.17	55.8908
2250.6	57.0736
2252.03	54.1875
2253.46	54.1916
2254.88	52.4022
2256.31	50.9994
2257.73	50.4369
2259.16	48.4898
2260.59	46.2553
2262.01	48.0835
2263.44	46.4485
2264.86	44.0562
2266.29	43.3099
2267.71	44.9951
2269.14	43.519
2270.56	44.1518
2271.98	45.3417
2273.4	42.4622
2274.83	41.4548
2276.25	41.9538
2277.67	39.6052
2279.09	40.3975
2280.52	39.5078
2281.94	38.329
2283.36	37.1183
2284.78	36.4133
2286.2	36.0069
2287.62	37.9722
2289.04	37.8873
2290.46	38.4457
2291.88	39.4344
2293.3	40.2664
2294.72	42.3543
2296.14	42.1895
2297.56	42.7735
2298.98	44.7592
2300.4	45.4334
2301.82	46.0575
2303.23	47.2235
2304.65	47.8787
2306.07	46.1781
2307.49	45.6437
2308.9	42.9839
2310.32	40.9284
2311.73	39.925
2313.15	38.5942
2314.57	39.9309
2315.98	34.5891
2317.4	33.373
2318.81	32.3327
2320.23	27.6652
2321.64	28.1725
2323.06	24.7122
2324.47	24.4343
2325.88	21.5711
2327.3	19.2363
2328.71	18.9988
2330.12	18.2162
2331.54	18.1185
2332.95	18.2877
2334.36	15.229
2335.77	13.7588
2337.18	13.1545
2338.6	10.6535
2340.01	10.0165
2341.42	9.29995
2342.83	9.66533
2344.24	6.07715
2345.65	6.17179
2347.06	6.32773
2348.47	5.06558
2349.88	2.5966
2351.29	-0.714135
2352.7	-1.2657
2354.1	0.252152
2355.51	0.735511
2356.92	1.46732
2358.33	4.69283
2359.74	5.01429
2361.14	5.74031
2362.55	6.77244
2363.96	9.35707
2365.36	11.8722
2366.77	11.1542
2368.18	10.9802
2369.58	14.7088
2370.99	12.148
2372.39	13.0204
2373.8	12.5948
2375.2	12.3152
2376.61	12.8573
2378.01	13.5822
2379.42	13.8734
2380.82	14.4129
2382.22	15.3101
2383.63	14.2206
2385.03	15.6602
2386.43	14.3068
2387.84	17.0813
2389.24	16.9828
2390.64	17.784
2392.04	20.5194
2393.44	19.3035
2394.84	19.0082
2396.25	16.9937
2397.65	16.5055
2399.05	17.9043
2400.45	17.8686
2401.85	18.0982
2403.25	17.399
2404.65	17.9419
2406.05	19.5587
2407.45	21.2511
2408.84	22.437
2410.24	23.7036
2411.64	23.9638
2413.04	23.4189
2414.44	21.3377
2415.83	20.9384
2417.23	19.0797
2418.63	18.0733
2420.02	15.5566
2421.42	16.1009
2422.82	16.4068
2424.21	17.4963
2425.61	16.305
2427	15.9427
2428.4	16.7744
2429.8	15.3761
2431.19	14.3107
2432.58	15.8018
2433.98	13.4498
2435.37	11.3112
2436.77	10.6312
2438.16	9.30405
2439.55	9.66936
2440.95	5.41053
2442.34	5.34789
2443.73	6.05129
2445.12	6.27961
2446.51	4.63099
2447.91	5.46698
2449.3	5.0378
2450.69	4.83073
2452.08	4.41668
2453.47	3.63748
2454.86	4.68132
2456.25	1.94545
2457.64	2.84342
2459.03	2.8028
2460.42	1.87984
2461.81	0.218778
2463.2	-0.249571
2464.59	-1.2847
2465.98	-2.30529
2467.36	-0.655042
2468.75	3.02572
2470.14	2.56707
2471.53	2.85083
2472.92	5.23125
2474.3	5.55787
2475.69	4.65228
2477.08	4.08507
2478.46	1.20094
2479.85	1.19337
2481.23	1.39165
2482.62	0.355278
2484	-0.918033
2485.39	0.785174
2486.77	0.310284
2488.16	1.34428
2489.54	0.888923
2490.93	2.75547
2492.31	2.7345
2493.69	3.25366
2495.08	2.68717
2496.46	0.89717
2497.84	1.31548
2499.23	0.0447092
2500.61	-0.13338
2501.99	-0.198357
2503.37	-0.251411
2504.75	-0.940931
2506.13	1.08305
2507.52	1.47479
2508.9	2.91616
2510.28	3.45643
2511.66	6.39471
2513.04	9.96488
2514.42	10.7805
2515.8	12.6354
2517.18	16.0674
2518.55	16.9024
2519.93	17.2116
2521.31	19.5024
2522.69	20.5908
2524.07	21.2894
2525.45	22.7811
2526.82	27.4746
2528.2	29.9258
2529.58	33.145
2530.95	34.1641
2532.33	37.3284
2533.71	39.107
2535.08	41.8253
2536.46	43.8601
2537.84	45.1881
2539.21	45.6539
2540.59	49.4392
2541.96	51.1096
2543.34	49.9266
2544.71	49.5136
2546.08	48.5186
2547.46	50.6859
2548.83	53.7263
2550.2	52.8994
2551.58	52.0171
2552.95	51.6744
2554.32	51.7825
2555.7	51.081
2557.07	50.2061
2558.44	47.4958
2559.81	46.8006
2561.18	45.2261
2562.55	45.1964
2563.93	44.9291
2565.3	45.3384
2566.67	46.3927
2568.04	46.1958
2569.41	46.6101
2570.78	46.5114
2572.15	46.7743
2573.51	43.3513
2574.88	44.6121
2576.25	44.5872
2577.62	44.1021
2578.99	44.1612
2580.36	42.5659
2581.73	42.8892
2583.09	42.4309
2584.46	42.2101
2585.83	42.5336
2587.19	42.9432
2588.56	43.9438
2589.93	45.4901
2591.29	44.2113
2592.66	44.8656
2594.02	45.4654
2595.39	47.3085
2596.75	45.257
2598.12	44.5832
2599.48	42.4943
2600.85	42.9562
2602.21	42.0665
2603.58	42.5639
2604.94	40.4044
2606.3	40.802
2607.67	43.4002
2609.03	41.8396
2610.39	39.7064
2611.76	38.7832
2613.12	38.6203
2614.48	40.2014
2615.84	42.8593
2617.2	40.7873
2618.56	38.6426
2619.92	39.2889
2621.28	38.7365
2622.65	39.4473
2624.01	40.0226
2625.37	39.1567
2626.72	39.6782
2628.08	40.7599
2629.44	42.3702
2630.8	40.8899
2632.16	43.1495
2633.52	44.5115
2634.88	44.0702
2636.24	45.1675
2637.59	45.4495
2638.95	44.8682
2640.31	42.6902
2641.67	39.9956
2643.02	42.3524
2644.38	44.4814
2645.74	44.4735
2647.09	44.8404
2648.45	44.9202
2649.8	46.5419
2651.16	47.249
2652.51	45.3607
2653.87	44.8792
2655.22	43.9155
2656.58	44.7946
2657.93	43.0289
2659.29	38.552
2660.64	37.9554
2661.99	35.6504
2663.35	34.6576
2664.7	30.2671
2666.05	31.436
2667.41	31.6242
2668.76	34.6074
2670.11	36.7215
2671.46	38.6194
2672.81	38.9567
2674.16	41.3389
2675.51	41.9215
2676.87	40.7907
2678.22	42.7685
2679.57	44.3488
2680.92	44.7001
2682.27	44.6365
2683.62	44.6739
2684.97	45.2656
2686.31	45.9895
2687.66	50.4219
2689.01	48.7045
2690.36	50.6267
2691.71	49.6195
2693.06	50.1534
2694.4	50.9919
2695.75	52.2565
2697.1	53.5718
2698.45	54.4616
2699.79	57.8074
2701.14	57.1876
2702.49	56.8573
2703.83	58.9381
2705.18	58.5121
2706.52	57.0808
2707.87	57.28
2709.21	58.2857
2710.56	59.2478
2711.9	59.9866
2713.25	59.1261
2714.59	59.1741
2715.94	58.9691
2717.28	58.8467
2718.62	58.9045
2719.97	58.1681
2721.31	58.7537
2722.65	59.6733
2723.99	58.5522
2725.34	53.6052
2726.68	52.0284
2728.02	52.4938
2729.36	51.9718
2730.7	51.9001
2732.04	50.5984
2733.39	55.2781
2734.73	55.7429
2736.07	54.9868
2737.41	53.7219
2738.75	52.1341
2740.08	49.8307
2741.43	48.8533
2742.76	47.9152
2744.1	45.4933
2745.44	45.5747
2746.78	44.3554
2748.12	44.7198
2749.46	44.552
2750.79	47.1781
2752.13	47.0929
2753.47	45.2833
2754.81	44.4751
2756.14	40.5665
2757.48	39.7678
2758.81	37.4712
2760.15	37.53
2761.49	36.8129
2762.82	37.6134
2764.16	35.4449
2765.49	35.1137
2766.83	34.1351
2768.16	34.0645
2769.5	33.2796
2770.83	30.5835
2772.16	27.6806
2773.5	27.2666
2774.83	25.8603
2776.17	24.8511
2777.5	24.8794
2778.83	25.2847
2780.16	23.6192
2781.5	22.9893
2782.83	20.9767
2784.16	20.5014
2785.49	19.0948
2786.82	18.3151
2788.15	16.4516
2789.49	16.1538
2790.82	14.2111
2792.15	13.2641
2793.48	12.9741
2794.81	10.2072
2796.14	9.59004
2797.46	7.36921
2798.79	5.50088
2800.12	6.26919
2801.45	3.8501
2802.78	0.334531
2804.11	-0.294992
2805.44	-2.58559
2806.76	-3.10701
2808.09	-3.55906
2809.42	-3.52445
2810.75	-3.349
2812.07	-1.77383
2813.4	-0.710215
2814.73	0.590049
2816.05	1.4666
2817.38	3.14812
2818.7	2.58112
2820.03	5.69233
2821.36	9.42574
2822.68	12.766
2824.01	18.0019
2825.33	22.9384
2826.65	31.2772
2827.98	37.0254
2829.3	41.9804
2830.63	48.8094
2831.95	55.7678
2833.27	63.1807
2834.6	71.4812
2835.92	79.5824
2837.24	89.6753
2838.56	102.431
2839.88	114.247
2841.21	123.692
2842.53	136.362
2843.85	148.175
2845.17	159.861
2846.49	172.49
2847.81	185.797
2849.13	200.679
2850.45	213.014
2851.77	224.669
2853.09	239.918
2854.41	250.373
2855.73	261.199
2857.05	272.166
2858.37	282.338
2859.69	288.837
2861	296.926
2862.32	304.483
2863.64	312.759
2864.96	321.21
2866.28	329.294
2867.59	335.432
2868.91	340.148
2870.23	347.752
2871.54	351.572
2872.86	355.594
2874.17	357.7
2875.49	360.478
2876.81	364.427
2878.12	367.735
2879.44	371.808
2880.75	373.411
2882.07	377.862
2883.38	380.999
2884.69	385.501
2886.01	390.23
2887.32	393.298
2888.63	399.122
2889.95	403.586
2891.26	409.867
2892.57	414.498
2893.89	418.265
2895.2	424.585
2896.51	432.431
2897.82	437.603
2899.13	446.546
2900.44	457.107
2901.76	465.487
2903.07	476.019
2904.38	485.141
2905.69	494.759
2907	506.684
2908.31	520.69
2909.62	533.062
2910.93	546.54
2912.24	560.604
2913.55	572.561
2914.85	583.544
2916.16	591.517
2917.47	602.852
2918.78	612.169
2920.09	619.719
2921.4	627.299
2922.7	632.648
2924.01	635.736
2925.32	635.258
2926.62	639.209
2927.93	639.184
2929.24	641.475
2930.54	639.548
2931.85	635.014
2933.15	630.536
2934.46	624.733
2935.76	617.967
2937.07	611.504
2938.37	605.238
2939.68	597.039
2940.98	589.07
2942.29	579.47
2943.59	567.61
2944.89	555.384
2946.2	543.795
2947.5	532.654
2948.8	521.085
2950.11	507.75
2951.41	496.407
2952.71	483.839
2954.01	471.512
2955.32	458.73
2956.62	445.779
2957.92	432.067
2959.22	421.772
2960.52	409.546
2961.82	395.417
2963.12	384.138
2964.42	373.756
2965.72	361.339
2967.02	350.619
2968.32	340.713
2969.62	331.588
2970.92	324.694
2972.22	317.223
2973.51	306.696
2974.81	296.286
2976.11	287.034
2977.41	277.535
2978.71	266.541
2980	255.821
2981.3	245.777
2982.6	235.824
2983.9	222.79
2985.19	213.536
2986.49	200.942
2987.78	189.032
2989.08	177.946
2990.38	166.009
2991.67	158.061
2992.97	147.394
2994.26	136.587
2995.56	126.887
2996.85	117.321
2998.14	108.814
2999.44	99.3768
3000.73	90.8054
3002.03	84.5814
3003.32	73.8679
3004.61	66.0059
3005.91	57.6127
3007.2	50.166
3008.49	44.2993
3009.78	38.327
3011.07	32.7472
3012.37	28.0363
3013.66	25.1656
3014.95	19.7232
3016.24	17.2258
3017.53	14.3918
3018.82	11.8922
3020.11	8.63753
3021.4	4.6879
3022.69	3.2012
3023.98	-0.37839
3025.27	-3.49453
3026.56	-4.11213
3027.85	-2.96147
3029.14	-3.93625
3030.43	-4.32076
3031.71	-1.18727
3033	-1.58296
3034.29	-0.142266
3035.58	0.406343
3036.87	-0.20615
3038.15	-0.126516
3039.44	2.57485
3040.73	4.43533
3042.01	6.82133
3043.3	7.52366
3044.59	7.09523
3045.87	7.85275
3047.16	8.86578
3048.44	9.39742
3049.73	11.6547
3051.01	11.8985
3052.3	13.0338
3053.58	13.2585
3054.87	13.8105
3056.15	13.5439
3057.43	12.6161
3058.72	13.705
3060	15.6176
3061.29	15.3341
3062.57	15.7405
3063.85	16.1455
3065.13	17.6895
3066.42	17.6207
3067.7	16.5553
3068.98	17.4188
3070.26	17.6606
3071.54	19.584
3072.82	20.5294
3074.11	18.3504
3075.39	19.7739
3076.67	22.6857
3077.95	24.6651
3079.23	24.1092
3080.51	26.3338
3081.79	28.616
3083.07	28.9556
3084.35	30.2401
3085.63	31.5871
3086.9	34.1507
3088.18	35.2471
3089.46	37.1311
3090.74	41.0005
3092.02	41.5117
3093.29	43.394
3094.57	45.0731
3095.85	46.9727
3097.13	48.2435
3098.4	49.654
3099.68	52.5525
3100.95	55.2976
3102.23	57.4927
3103.51	59.2322
3104.78	60.9949
3106.06	63.6745
3107.33	64.2408
3108.61	66.7023
3109.88	71.0989
3111.16	73.2086
3112.43	75.9845
3113.71	79.321
3114.98	82.3101
3116.25	85.6064
3117.53	86.0899
3118.8	88.828
3120.07	91.3392
3121.35	95.8933
3122.62	99.5094
3123.89	100.622
3125.16	103.874
3126.44	106.838
3127.71	109.807
3128.98	112.792
3130.25	114.094
3131.52	118.352
3132.79	122.472
3134.06	127.154
3135.33	129.972
3136.6	132.247
3137.87	134.182
3139.14	139.95
3140.41	143.325
3141.68	145.215
3142.95	146.767
3144.22	148.279
3145.49	148.571
3146.76	149.168
3148.02	149.29
3149.29	151.312
