#Acq. time (s)=	45
#Accumulations=	2
#Range (cm-¹)=	200...3150
#Windows=	2
#Auto scanning=	Off
#Autofocus=	Off
#Macrospot=	Off
#AutoExposure=	Off
#Spike filter=	Multiple accum.
#Delay time (s)=	0
#Binning=	1
#Readout mode=	Signal
#DeNoise=	Off
#ICS correction=	On
#Dark correction=	Off
#Inst. Process=	Off
#Detector Gain=	Best Dynamic Range
#Detector ADC=	20 kHz       
#Detector temperature (°C)=	-69.85
#Instrument=	LabRAM HR Evol
#Detector=	Synapse
#Objective=	x100
#Grating=	600 gr/mm
#ND Filter=	100%
#Laser (nm)=	532 
#Hole=	100.021
#Range=	Auto
#Laser Pol.=	No
#Raman. Pol.=	No
#Laser Pol. (°)=	-0.0007625
#Raman Pol. (°)=	89.9995
#Collection=	Microscope
#StageXY=	Marzhauser
#StageZ=	Marzhauser
#X (µm)=	-1019.8
#Y (µm)=	-2910.4
#Z (µm)=	528.1
#Full time(mm:ss)=	3:18
#Project=	
#Sample=	
#Site=	
#Title=	Mb_00_13_16_2x_45s_532 nm_x100_100%_600 gr_mm
#Remark=	
#Date=	06.07.2022 10:45
#Acquired=	06.07.2022 10:45:35
#Base:Fit=	10.08.2022 10:16:56
#Base:Sub=	10.08.2022 10:17:24
#Filter:Polynom=	16.08.2022 10:36:38
#AxisType[0]=Intens
#AxisUnit[0]=Cnt
#AxisType[1]=Spectr
#AxisUnit[1]=1/cm
200.398	3.5494
202.213	8.19285
204.027	10.9633
205.843	10.7932
207.657	10.3168
209.47	10.2037
211.283	11.3934
213.097	12.1419
214.909	14.3185
216.721	16.7472
218.533	20.8294
220.344	25.7799
222.157	31.3723
223.967	37.1108
225.777	43.1926
227.587	48.7402
229.396	55.8294
231.205	61.6476
233.016	68.1684
234.824	73.6531
236.632	80.0526
238.439	86.5305
240.247	92.4856
242.053	95.5049
243.86	99.1602
245.666	102.805
247.474	106.29
249.279	109.259
251.085	110.818
252.889	113.989
254.694	118.134
256.498	120.365
258.301	120.705
260.105	120.803
261.908	120.869
263.71	120.16
265.513	119.969
267.315	118.414
269.116	117.47
270.918	114.243
272.718	112.116
274.519	110.249
276.319	105.901
278.119	102.806
279.918	98.5081
281.718	94.8166
283.516	89.9556
285.315	84.7719
287.113	79.0457
288.911	74.4721
290.708	68.5945
292.505	63.5807
294.302	59.22
296.098	56.7152
297.894	53.3809
299.69	51.929
301.485	49.3514
303.278	45.7084
305.073	44.9175
306.867	43.2937
308.661	42.3275
310.454	40.6089
312.247	38.522
314.04	36.1303
315.833	35.8785
317.623	34.688
319.415	35.1026
321.206	33.5339
322.997	33.1802
324.788	32.3875
326.579	32.0099
328.367	30.8214
330.156	29.1912
331.946	26.8696
333.735	26.3998
335.523	25.2972
337.31	23.8852
339.098	22.0165
340.885	20.647
342.673	20.5587
344.458	20.0975
346.244	19.0386
348.03	16.4297
349.816	16.2584
351.6	14.3765
353.385	13.9336
355.17	13.1876
356.953	12.8532
358.737	13.7722
360.521	13.6338
362.304	15.4139
364.085	16.7232
365.868	18.6283
367.65	21.1948
369.431	23.7809
371.212	26.7528
372.994	29.4149
374.773	33.2674
376.554	36.6822
378.332	41.3277
380.112	45.2537
381.892	51.9789
383.669	58.2585
385.448	65.7124
387.225	72.0523
389.003	80.0599
390.781	86.1522
392.557	92.2222
394.334	98.3189
396.109	103.874
397.885	109.121
399.66	113.328
401.436	117.351
403.211	120.986
404.984	124.517
406.759	126.698
408.532	129.517
410.306	131.025
412.078	131.809
413.851	131.629
415.623	131.399
417.395	130.595
419.166	128.692
420.938	126.099
422.708	123.336
424.477	121.159
426.248	117.47
428.017	113.104
429.788	109.156
431.556	103.331
433.326	97.3957
435.093	92.2013
436.86	85.6504
438.629	80.1295
440.395	74.08
442.163	68.4256
443.929	62.5579
445.694	57.0792
447.461	52.4923
449.226	47.2325
450.99	42.9622
452.756	39.3677
454.52	35.9404
456.285	33.1878
458.048	31.7034
459.811	29.3814
461.573	27.3336
463.337	25.8513
465.099	24.3547
466.86	24.8934
468.623	26.4305
470.384	28.0101
472.144	29.1433
473.906	30.5815
475.666	30.9936
477.425	32.0442
479.184	32.318
480.944	33.2463
482.703	34.2633
484.461	34.9247
486.218	34.1345
487.975	34.4648
489.734	34.9862
491.491	35.3075
493.247	36.4936
495.003	38.3104
496.759	39.905
498.516	40.0295
500.271	40.0468
502.025	40.2854
503.779	41.5034
505.533	41.6015
507.287	42.3353
509.042	43.2298
510.795	43.3481
512.547	44.3278
514.299	44.4439
516.051	44.8643
517.803	44.6243
519.554	44.7577
521.305	47.0291
523.055	47.4725
524.805	48.1265
526.555	47.4981
528.307	47.3182
530.056	46.7396
531.805	47.4523
533.553	48.6637
535.301	49.4863
537.049	48.9319
538.797	48.9925
540.544	48.1476
542.291	47.3901
544.037	47.2445
545.783	46.1647
547.529	43.8578
549.275	41.9537
551.02	41.6819
552.765	40.0283
554.509	40.0845
556.253	38.6589
557.997	37.6763
559.738	36.8944
561.482	35.7759
563.224	34.3523
564.967	32.6404
566.709	31.1737
568.451	30.3657
570.192	28.9956
571.933	26.0132
573.674	24.4526
575.415	23.6273
577.153	22.5316
578.893	21.2974
580.632	19.8372
582.371	19.0553
584.11	16.9231
585.849	15.3948
587.587	14.2799
589.323	14.1432
591.06	14.5438
592.797	13.6527
594.534	13.9571
596.271	13.6761
598.005	12.8669
599.741	12.3435
601.476	12.7364
603.211	11.9961
604.944	11.727
606.679	12.7169
608.413	12.8523
610.147	11.6198
611.878	12.2371
613.611	12.6272
615.344	13.2669
617.077	13.3338
618.807	13.9668
620.539	14.6221
622.27	13.7284
623.999	13.1573
625.73	13.1644
627.461	14.5286
629.189	16.6778
630.919	17.4607
632.648	18.8642
634.376	20.6475
636.105	21.8773
637.833	23.4455
639.559	23.9741
641.287	25.9026
643.013	26.7307
644.74	28.0133
646.467	28.5158
648.192	28.5226
649.918	27.2589
651.642	25.7311
653.368	25.5717
655.091	25.3015
656.816	24.2549
658.538	23.4885
660.263	22.4476
661.987	22.3001
663.708	21.7551
665.432	19.9016
667.153	19.1871
668.875	18.1176
670.596	17.9033
672.318	19.2223
674.037	18.6523
675.759	19.0093
677.478	18.1685
679.196	17.9239
680.917	16.9642
682.635	15.4872
684.355	14.9335
686.072	14.2502
687.791	15.8789
689.508	14.3417
691.224	14.31
692.942	14.5712
694.658	13.7769
696.376	12.8219
698.091	12.0335
699.805	11.3079
701.522	10.6403
703.236	10.7096
704.95	11.5754
706.665	10.3901
708.379	10.6659
710.093	11.6632
711.806	13.145
713.518	15.3329
715.23	16.4708
716.943	15.8422
718.655	16.3734
720.366	17.5915
722.078	17.9474
723.788	19.4454
725.498	20.825
727.208	21.9278
728.919	22.1826
730.628	22.5395
732.337	23.2247
734.045	23.557
735.755	22.5919
737.463	24.327
739.17	25.499
740.877	26.9079
742.584	27.4244
744.292	29.0699
745.998	29.2891
747.704	31.3187
749.409	31.629
751.114	32.8021
752.819	33.8518
754.526	34.5625
756.23	36.71
757.934	36.8519
759.637	36.9356
761.34	38.4869
763.043	39.3211
764.746	40.5744
766.448	40.4675
768.152	41.07
769.853	42.672
771.554	43.2682
773.255	44.0586
774.956	42.951
776.656	43.3505
778.356	44.1135
780.056	42.7127
781.755	41.4445
783.454	41.4143
785.153	41.9511
786.851	44.2552
788.549	44.2298
790.247	42.7709
791.944	41.7038
793.641	44.0654
795.338	44.8057
797.034	45.2159
798.73	45.6857
800.426	44.4719
802.121	44.289
803.817	46.0144
805.511	46.5926
807.206	46.8913
808.9	47.6427
810.592	47.4006
812.286	47.7294
813.979	47.2742
815.672	47.8748
817.364	49.5394
819.057	50.0141
820.748	50.2841
822.44	52.2409
824.129	52.0456
825.82	51.6463
827.511	51.8519
829.201	52.9574
830.891	52.9711
832.581	52.7792
834.269	52.3481
835.958	52.8288
837.646	50.9914
839.335	49.9016
841.023	49.2181
842.709	47.5683
844.396	47.4901
846.084	47.4869
847.77	46.3519
849.455	46.4884
851.141	45.9473
852.827	45.7227
854.513	44.7397
856.196	43.2769
857.881	41.6642
859.566	39.8999
861.248	39.4235
862.932	38.1587
864.616	35.3818
866.297	33.7485
867.98	32.7153
869.663	31.3217
871.343	29.7027
873.026	25.3956
874.707	22.572
876.387	23.4131
878.068	22.6199
879.747	20.1044
881.428	17.7729
883.108	15.5615
884.786	15.0904
886.465	15.1144
888.143	14.5311
889.822	12.7849
891.498	13.2322
893.177	12.9838
894.855	12.8769
896.53	13.2563
898.208	12.7571
899.883	13.0655
901.56	14.3155
903.234	13.4984
904.91	13.1382
906.584	12.3328
908.26	12.6738
909.933	13.9217
911.608	15.1825
913.28	16.6369
914.955	18.0311
916.627	18.4447
918.298	19.6028
919.972	20.7801
921.643	20.5771
923.315	21.2348
924.986	23.5392
926.656	25.4115
928.328	26.5677
929.997	27.3455
931.668	27.9228
933.337	27.902
935.006	28.145
936.676	26.728
938.344	25.314
940.012	25.2967
941.681	24.3657
943.348	23.0165
945.014	22.6038
946.683	20.1369
948.349	18.5163
950.015	16.8456
951.682	16.5612
953.347	14.6072
955.012	13.0887
956.676	10.7463
958.343	9.76001
960.006	8.69685
961.67	6.24588
963.333	6.87933
964.998	6.73556
966.661	7.99863
968.323	9.88999
969.985	12.4888
971.649	15.6081
973.31	19.7694
974.971	26.4085
976.632	33.0029
978.293	39.5973
979.953	46.599
981.615	52.9395
983.274	59.3788
984.933	66.9439
986.592	72.3582
988.251	79.3466
989.909	85.1901
991.567	91.9363
993.225	97.1583
994.884	100.225
996.541	105.014
998.198	108.993
999.855	111.629
1001.51	113.755
1003.17	114.931
1004.82	114.809
1006.48	114.497
1008.13	115.73
1009.79	114.298
1011.44	111.163
1013.1	110.118
1014.75	109.309
1016.4	108.491
1018.06	110.763
1019.71	111.667
1021.36	113.729
1023.01	116.599
1024.66	118.07
1026.32	119.253
1027.97	121.312
1029.62	122.896
1031.27	123.822
1032.92	123.609
1034.57	123.277
1036.22	121.823
1037.87	120.944
1039.52	120.167
1041.16	120.41
1042.81	120.3
1044.46	121.197
1046.11	121.355
1047.76	120.826
1049.4	122.289
1051.05	123.492
1052.7	125.239
1054.34	125.794
1055.99	126.789
1057.63	126.698
1059.28	125.326
1060.92	123.532
1062.57	120.441
1064.21	115.867
1065.85	112.978
1067.5	109.615
1069.14	104.148
1070.78	99.9971
1072.43	94.2567
1074.07	89.1305
1075.71	81.8221
1077.35	74.6898
1078.99	68.1506
1080.63	61.7074
1082.27	53.0743
1083.91	45.5452
1085.55	38.8515
1087.19	32.7608
1088.83	28.6638
1090.47	23.8168
1092.11	19.3411
1093.75	16.2014
1095.39	15.872
1097.03	16.2434
1098.66	16.9929
1100.3	18.4111
1101.94	18.9481
1103.57	19.4409
1105.21	20.1506
1106.84	19.2549
1108.48	21.2628
1110.11	22.4358
1111.75	22.3352
1113.38	21.4745
1115.02	21.8444
1116.65	22.772
1118.29	23.6966
1119.92	24.6182
1121.55	24.5175
1123.19	24.5345
1124.82	24.5043
1126.45	24.9694
1128.08	23.4468
1129.71	23.6165
1131.34	23.7482
1132.97	23.6999
1134.6	23.7485
1136.23	23.4902
1137.86	23.5413
1139.49	23.8303
1141.12	23.5105
1142.75	24.2783
1144.38	23.7731
1146.01	24.5399
1147.64	25.6691
1149.26	25.3366
1150.89	25.5446
1152.52	25.4463
1154.15	24.3577
1155.77	24.2553
1157.4	22.7435
1159.02	21.6978
1160.65	20.5338
1162.27	19.9783
1163.9	19.223
1165.52	18.7009
1167.15	19.8565
1168.77	20.8547
1170.39	20.248
1172.02	19.1779
1173.64	18.9838
1175.26	19.3676
1176.89	20.4823
1178.51	20.3216
1180.13	20.7014
1181.75	21.2209
1183.37	20.7007
1184.99	20.8933
1186.61	23.0939
1188.23	25.2197
1189.85	28.4374
1191.47	28.8055
1193.09	30.7257
1194.71	32.4828
1196.33	33.9595
1197.94	36.6937
1199.56	38.1473
1201.18	39.1984
1202.8	39.5154
1204.41	43.656
1206.03	44.2634
1207.65	46.7722
1209.26	48.5894
1210.88	51.8075
1212.49	54.8989
1214.11	56.0105
1215.72	57.9673
1217.34	60.335
1218.95	62.9393
1220.57	64.5998
1222.18	64.6089
1223.79	66.2345
1225.41	67.5509
1227.02	68.9909
1228.63	70.3469
1230.24	71.4004
1231.85	74.1463
1233.47	75.4382
1235.08	77.3461
1236.69	79.0651
1238.3	78.9705
1239.91	78.9345
1241.52	80.165
1243.13	81.4565
1244.74	82.6217
1246.34	82.5649
1247.95	83.8104
1249.56	82.2272
1251.17	79.7768
1252.78	79.6689
1254.38	79.3661
1255.99	78.8548
1257.6	77.9598
1259.2	76.5694
1260.81	75.6794
1262.42	74.7862
1264.02	74.4716
1265.63	75.4694
1267.23	76.8207
1268.84	76.664
1270.44	76.4456
1272.04	76.3002
1273.65	77.0144
1275.25	77.6295
1276.85	78.687
1278.46	80.514
1280.06	79.3939
1281.66	81.1617
1283.26	82.8502
1284.86	85.6884
1286.46	85.0448
1288.07	87.4521
1289.67	89.3927
1291.27	90.4699
1292.87	92.0756
1294.47	93.0796
1296.06	96.6214
1297.66	97.5099
1299.26	99.2071
1300.86	100.716
1302.46	103.179
1304.06	106.67
1305.65	109.455
1307.25	111.501
1308.85	113.366
1310.44	116.299
1312.04	118.999
1313.64	120.521
1315.23	121.08
1316.83	121.57
1318.42	121.873
1320.02	121.162
1321.61	122.45
1323.2	121.998
1324.8	121.84
1326.39	121.17
1327.99	120.341
1329.58	119.78
1331.17	119.285
1332.76	119.189
1334.36	118.904
1335.95	117.489
1337.54	116.95
1339.13	116.619
1340.72	116.079
1342.31	115.092
1343.9	113.89
1345.49	113.3
1347.08	111.384
1348.67	110.348
1350.26	109.492
1351.85	109.28
1353.43	108.677
1355.02	107.362
1356.61	105.427
1358.2	103.475
1359.78	101.694
1361.37	101.023
1362.96	99.2013
1364.54	97.9537
1366.13	96.6416
1367.71	95.5335
1369.3	95.2431
1370.88	93.4073
1372.47	92.0902
1374.05	90.4431
1375.64	89.3486
1377.22	87.8839
1378.8	88.1824
1380.39	87.3035
1381.97	87.577
1383.55	86.3191
1385.13	85.1292
1386.72	85.0695
1388.3	84.2708
1389.88	83.7091
1391.46	82.2712
1393.04	82.1973
1394.62	80.11
1396.2	80.0043
1397.78	79.1908
1399.36	79.2573
1400.94	81.9162
1402.52	83.0443
1404.1	84.8695
1405.68	86.4155
1407.25	88.8887
1408.83	91.0999
1410.41	93.3473
1411.98	97.023
1413.56	99.8864
1415.14	103.471
1416.71	107.649
1418.29	111.986
1419.87	115.046
1421.44	120.256
1423.02	124.223
1424.59	128.804
1426.16	132.2
1427.74	137.134
1429.31	141.611
1430.89	146.107
1432.46	149.789
1434.03	152.883
1435.6	156.667
1437.18	160.952
1438.75	163.661
1440.32	166.289
1441.89	169.574
1443.46	169.869
1445.03	169.951
1446.6	169.242
1448.17	169.936
1449.74	168.83
1451.31	168.128
1452.88	167.353
1454.45	166.764
1456.02	164.958
1457.59	161.378
1459.16	158.526
1460.72	155.696
1462.29	149.888
1463.86	144.49
1465.43	138.937
1466.99	132.869
1468.56	129.121
1470.13	123.903
1471.69	118.387
1473.26	112.935
1474.82	107.708
1476.38	103.815
1477.95	100.351
1479.51	96.4749
1481.08	91.1019
1482.64	86.3767
1484.2	82.5833
1485.77	79.4706
1487.33	76.9925
1488.89	74.8323
1490.46	72.4823
1492.02	69.6406
1493.58	67.9057
1495.14	66.0658
1496.7	64.0725
1498.26	62.8514
1499.82	62.0798
1501.38	59.5625
1502.94	58.9984
1504.5	58.3886
1506.06	57.6163
1507.62	57.7576
1509.18	57.3933
1510.73	57.2073
1512.29	57.6949
1513.85	58.4058
1515.41	58.5017
1516.96	57.8134
1518.52	58.0185
1520.08	57.5801
1521.63	55.7881
1523.19	56.9088
1524.75	56.7672
1526.3	58.1964
1527.85	57.4051
1529.41	58.5573
1530.96	58.484
1532.52	58.3075
1534.07	58.1712
1535.62	58.0211
1537.18	58.7961
1538.73	58.1195
1540.28	56.8998
1541.84	57.5781
1543.39	59.137
1544.94	60.3906
1546.49	62.4663
1548.04	61.6436
1549.59	62.8421
1551.14	64.9903
1552.69	66.8369
1554.25	68.918
1555.79	69.5407
1557.34	69.107
1558.89	69.5344
1560.44	71.851
1561.99	74.1728
1563.54	76.3421
1565.08	78.2528
1566.63	79.3463
1568.18	80.3954
1569.73	82.0859
1571.27	83.4437
1572.82	85.5914
1574.37	87.2083
1575.91	88.978
1577.46	90.8956
1579	92.6664
1580.55	94.2331
1582.09	96.1702
1583.64	97.4406
1585.18	98.2608
1586.73	99.8162
1588.27	101.483
1589.81	102.847
1591.35	103.228
1592.9	104.674
1594.44	104.325
1595.98	103.467
1597.52	105.146
1599.06	104.561
1600.61	105.601
1602.15	104.671
1603.69	105.658
1605.23	104.93
1606.77	105.082
1608.31	103.247
1609.85	102.563
1611.39	102.931
1612.93	101.83
1614.46	101.812
1616	101.322
1617.54	101.078
1619.08	101.057
1620.61	100.654
1622.15	100.539
1623.69	102.01
1625.23	101.768
1626.76	102.161
1628.3	103.089
1629.83	103.029
1631.37	101.445
1632.9	100.503
1634.44	100.601
1635.97	102.158
1637.51	103.442
1639.04	104.135
1640.57	105.593
1642.11	106.659
1643.64	106.416
1645.17	106.94
1646.71	107.495
1648.24	107.418
1649.77	108.119
1651.3	108.679
1652.83	109.131
1654.36	109.553
1655.89	109.561
1657.42	108.661
1658.96	107.458
1660.48	105.379
1662.01	104.144
1663.54	104.395
1665.07	102.837
1666.6	101.783
1668.13	99.2422
1669.66	97.2364
1671.19	93.6745
1672.71	92.7699
1674.24	91.3014
1675.77	87.398
1677.29	85.8575
1678.82	83.0905
1680.35	80.7355
1681.87	77.7449
1683.4	74.4994
1684.92	70.9789
1686.45	68.3956
1687.97	65.2569
1689.5	61.1926
1691.02	57.2175
1692.54	53.8801
1694.07	49.8238
1695.59	46.7035
1697.11	43.2577
1698.64	41.2594
1700.16	38.4802
1701.68	35.8114
1703.2	32.8858
1704.72	30.1165
1706.25	26.4366
1707.77	23.2444
1709.29	21.0242
1710.81	19.6163
1712.33	17.4352
1713.85	16.4179
1715.37	14.7871
1716.89	12.8216
1718.41	11.754
1719.92	10.0068
1721.44	9.44088
1722.96	8.29518
1724.48	8.29703
1725.99	7.74115
1727.51	7.3845
1729.03	7.5363
1730.55	7.14082
1732.06	7.2906
1733.58	6.68708
1735.09	6.8258
1736.61	7.95784
1738.13	8.83549
1739.64	9.68373
1741.15	9.10928
1742.67	9.41602
1744.18	9.04678
1745.7	9.67286
1747.21	10.4223
1748.72	11.2391
1750.24	10.6521
1751.75	11.3376
1753.26	12.2437
1754.77	11.5954
1756.29	10.9617
1757.8	10.3869
1759.31	9.52112
1760.82	8.30241
1762.33	7.7492
1763.84	6.48571
1765.35	6.41412
1766.86	6.26283
1768.37	6.73531
1769.88	5.41843
1771.39	5.09323
1772.9	4.28092
1774.4	4.4294
1775.91	4.714
1777.42	4.34971
1778.93	3.16884
1780.44	3.06418
1781.94	3.63731
1783.45	3.95791
1784.96	3.9698
1786.46	4.90211
1787.97	4.70004
1789.47	5.06218
1790.98	4.60646
1792.48	5.25182
1793.99	5.9503
1795.49	4.77186
1797	5.10339
1798.5	5.7159
1800.01	5.74861
1801.51	5.20215
1803.01	6.22952
1804.51	5.99556
1806.02	6.39457
1807.52	6.5748
1809.02	6.54861
1810.52	6.43075
1812.02	6.62809
1813.52	6.49529
1815.02	6.27645
1816.53	6.52074
1818.03	6.65905
1819.52	6.69455
1821.02	6.99004
1822.52	6.87491
1824.02	6.74938
1825.52	6.32644
1827.02	6.1888
1828.52	6.247
1830.02	5.1242
1831.51	4.63322
1833.01	3.88386
1834.51	3.69126
1836.01	3.33473
1837.5	3.25155
1839	2.71753
1840.49	3.26772
1841.99	3.50403
1843.49	3.08999
1844.98	3.64783
1846.48	4.49468
1847.97	4.9074
1849.47	6.24443
1850.96	5.7634
1852.45	6.22286
1853.95	7.05665
1855.44	7.64072
1856.93	7.69882
1858.42	8.02082
1859.92	7.70661
1861.41	7.73928
1862.9	7.85376
1864.39	6.82289
1865.88	7.59031
1867.38	7.22823
1868.87	6.89754
1870.36	6.47172
1871.85	6.48319
1873.34	6.83642
1874.83	6.91598
1876.32	7.15797
1877.81	8.17318
1879.29	7.91117
1880.78	8.57535
1882.27	7.68507
1882.53	8.23821
1884.03	7.36933
1885.52	6.71081
1887.01	7.03909
1888.51	7.21801
1890	7.98514
1891.5	7.56569
1892.99	7.00363
1894.48	6.00083
1895.97	4.73357
1897.47	3.69562
1898.96	3.2203
1900.45	2.37084
1901.94	2.05095
1903.43	1.83188
1904.92	1.57484
1906.41	1.77625
1907.9	1.9448
1909.39	1.64401
1910.88	2.04468
1912.37	1.44406
1913.86	1.75872
1915.35	2.00445
1916.84	1.47639
1918.33	2.15545
1919.81	1.35332
1921.3	0.729719
1922.79	1.54919
1924.28	0.720244
1925.76	0.892804
1927.25	0.357972
1928.73	0.160344
1930.22	-0.0419096
1931.71	0.53317
1933.19	0.096792
1934.68	0.226805
1936.16	0.612135
1937.65	0.243703
1939.13	1.1985
1940.62	0.473474
1942.1	1.50297
1943.58	1.54613
1945.07	1.55747
1946.55	2.25896
1948.03	3.15361
1949.51	3.36853
1951	3.77451
1952.48	3.36295
1953.96	3.28621
1955.44	2.82801
1956.92	2.95183
1958.4	2.4653
1959.88	3.01573
1961.36	4.12068
1962.84	4.09861
1964.32	3.29093
1965.8	1.99126
1967.28	1.54347
1968.76	0.900911
1970.24	1.57318
1971.72	2.16985
1973.2	3.23291
1974.67	2.78498
1976.15	3.06474
1977.63	2.36359
1979.1	1.19696
1980.58	1.23001
1982.06	1.04946
1983.54	0.922147
1985.01	0.627268
1986.49	0.0881659
1987.96	0.511374
1989.44	0.949425
1990.91	0.754449
1992.39	1.05934
1993.86	0.473068
1995.33	1.61146
1996.81	1.54534
1998.28	1.45793
1999.75	1.74259
2001.23	2.11825
2002.7	2.81084
2004.17	3.42858
2005.65	2.81764
2007.12	2.72218
2008.59	3.37255
2010.06	4.42407
2011.53	4.88025
2013	5.20987
2014.47	6.41369
2015.94	6.72319
2017.41	7.35933
2018.88	8.07439
2020.35	9.42329
2021.82	10.0155
2023.29	9.73291
2024.76	10.1086
2026.23	10.1456
2027.69	9.89207
2029.16	10.3045
2030.63	10.6693
2032.1	11.7167
2033.56	11.2862
2035.03	11.6863
2036.5	11.4693
2037.96	11.5035
2039.43	11.3669
2040.89	11.5271
2042.36	11.5886
2043.83	11.0543
2045.29	10.7222
2046.75	10.4529
2048.22	9.59428
2049.68	9.12615
2051.15	8.40285
2052.61	8.6876
2054.07	8.78848
2055.54	8.53321
2057	8.18507
2058.46	7.88916
2059.92	7.76287
2061.39	8.12746
2062.85	7.94651
2064.31	7.1205
2065.77	7.41073
2067.23	7.20217
2068.69	8.63582
2070.15	8.37155
2071.61	9.02684
2073.07	8.9822
2074.53	8.68092
2075.99	8.97751
2077.45	8.58291
2078.91	8.21463
2080.37	9.33796
2081.82	10.1703
2083.28	10.0795
2084.74	10.9
2086.2	10.9008
2087.65	10.8076
2089.11	10.2675
2090.57	11.5157
2092.02	11.5862
2093.48	10.8303
2094.94	11.1504
2096.39	10.985
2097.85	11.6365
2099.3	11.5346
2100.76	11.1178
2102.21	11.6284
2103.66	11.5342
2105.12	12.0575
2106.57	11.7493
2108.03	11.563
2109.48	10.2507
2110.93	9.26726
2112.38	8.38708
2113.84	7.95677
2115.29	8.39591
2116.74	8.18331
2118.19	7.90451
2119.64	7.04971
2121.09	6.11433
2122.54	5.26831
2123.99	4.95098
2125.45	4.61867
2126.89	4.26064
2128.34	4.42785
2129.79	3.90278
2131.24	4.00987
2132.69	4.87043
2134.14	5.88945
2135.59	5.18521
2137.04	5.74754
2138.48	6.84584
2139.93	6.86351
2141.38	7.18301
2142.83	6.90693
2144.27	7.42357
2145.72	6.99156
2147.17	6.97864
2148.61	7.37995
2150.06	7.93769
2151.5	8.43525
2152.95	9.47006
2154.39	9.277
2155.84	8.97791
2157.28	8.90093
2158.73	8.16864
2160.17	8.71984
2161.61	9.49216
2163.06	10.5947
2164.5	11.4048
2165.94	11.4073
2167.38	12.5621
2168.83	12.1738
2170.27	12.8106
2171.71	12.1061
2173.15	11.7762
2174.59	12.4866
2176.03	12.8332
2177.47	12.4339
2178.91	11.5526
2180.36	10.9337
2181.8	11.167
2183.23	11.9426
2184.67	12.1663
2186.11	11.2969
2187.55	11.7074
2188.99	10.5242
2190.43	9.30916
2191.87	8.82825
2193.3	8.81366
2194.74	9.17739
2196.18	9.97175
2197.62	9.59462
2199.05	9.77225
2200.49	9.38134
2201.93	9.36347
2203.36	10.0038
2204.8	9.93305
2206.23	10.56
2207.67	9.61146
2209.1	9.93894
2210.54	10.2988
2211.97	10.552
2213.41	10.6615
2214.84	11.6335
2216.27	11.9949
2217.71	11.7895
2219.14	13.3299
2220.57	13.987
2222.01	13.9281
2223.44	13.9711
2224.87	13.6663
2226.3	12.8038
2227.73	12.5725
2229.16	13.0702
2230.6	13.6305
2232.03	14.6939
2233.46	15.4093
2234.89	15.4166
2236.32	14.9533
2237.75	14.5156
2239.18	14.3665
2240.61	14.8232
2242.03	14.8415
2243.46	14.9985
2244.89	15.1577
2246.32	15.8911
2247.75	16.515
2249.17	16.6024
2250.6	16.3849
2252.03	16.5134
2253.46	15.8186
2254.88	15.2879
2256.31	14.8912
2257.73	13.5422
2259.16	14.9099
2260.59	14.7536
2262.01	14.441
2263.44	14.6335
2264.86	15.2154
2266.29	16.0768
2267.71	15.5193
2269.14	14.5935
2270.56	15.7029
2271.98	15.6105
2273.4	15.3448
2274.83	14.8175
2276.25	14.7677
2277.67	15.2644
2279.09	14.9397
2280.52	16.0753
2281.94	16.4722
2283.36	16.1895
2284.78	15.775
2286.2	15.8972
2287.62	15.7147
2289.04	14.8228
2290.46	15.0341
2291.88	13.5665
2293.3	13.0342
2294.72	13.041
2296.14	12.7852
2297.56	12.5697
2298.98	11.4031
2300.4	11.3808
2301.82	12.2431
2303.23	12.5355
2304.65	12.0461
2306.07	12.1963
2307.49	12.4781
2308.9	13.1318
2310.32	13.7641
2311.73	14.0819
2313.15	12.858
2314.57	12.9666
2315.98	12.4684
2317.4	11.9866
2318.81	11.6459
2320.23	10.7171
2321.64	9.84857
2323.06	9.19741
2324.47	9.7467
2325.88	9.08873
2327.3	9.24987
2328.71	9.07662
2330.12	10.2863
2331.54	9.07359
2332.95	8.07067
2334.36	8.49854
2335.77	6.96409
2337.18	6.37525
2338.6	5.76314
2340.01	5.68429
2341.42	5.88471
2342.83	3.95689
2344.24	2.36764
2345.65	1.96201
2347.06	2.28475
2348.47	2.13751
2349.88	1.75442
2351.29	0.914289
2352.7	0.0911027
2354.1	-0.785922
2355.51	-1.42766
2356.92	-1.69775
2358.33	-2.3656
2359.74	-3.36441
2361.14	-2.37367
2362.55	-2.19671
2363.96	-1.35024
2365.36	-0.98283
2366.77	-1.39191
2368.18	-0.970108
2369.58	-0.337302
2370.99	1.15868
2372.39	1.46614
2373.8	2.23382
2375.2	3.69826
2376.61	4.42785
2378.01	4.64286
2379.42	4.6937
2380.82	4.8748
2382.22	4.36855
2383.63	4.47259
2385.03	5.46669
2386.43	5.85207
2387.84	6.58137
2389.24	7.1164
2390.64	7.57289
2392.04	7.95773
2393.44	8.5106
2394.84	9.27136
2396.25	8.64358
2397.65	9.48888
2399.05	9.46466
2400.45	9.51171
2401.85	7.94947
2403.25	8.46578
2404.65	8.591
2406.05	7.52232
2407.45	8.72882
2408.84	9.10508
2410.24	9.57909
2411.64	8.24756
2413.04	6.66771
2414.44	6.65698
2415.83	6.90564
2417.23	6.88827
2418.63	5.99477
2420.02	5.45213
2421.42	6.23754
2422.82	6.14728
2424.21	5.58402
2425.61	6.01983
2427	5.35091
2428.4	4.53796
2429.8	5.15547
2431.19	5.35064
2432.58	4.43466
2433.98	3.89522
2435.37	3.49783
2436.77	3.17143
2438.16	3.26046
2439.55	2.61987
2440.95	2.88104
2442.34	2.10578
2443.73	2.56631
2445.12	2.07056
2446.51	1.2147
2447.91	1.25547
2449.3	1.72982
2450.69	2.54322
2452.08	3.38063
2453.47	3.77445
2454.86	3.89883
2456.25	4.60394
2457.64	4.39588
2459.03	3.75683
2460.42	4.07395
2461.81	4.03137
2463.2	4.55183
2464.59	4.26477
2465.98	4.58251
2467.36	4.45914
2468.75	4.99486
2470.14	4.79641
2471.53	4.58033
2472.92	5.63735
2474.3	6.14562
2475.69	6.15138
2477.08	7.32705
2478.46	7.33432
2479.85	7.56937
2481.23	6.44638
2482.62	7.31488
2484	8.24362
2485.39	8.30396
2486.77	8.86585
2488.16	8.96924
2489.54	8.8816
2490.93	9.56257
2492.31	8.05242
2493.69	7.67503
2495.08	7.68788
2496.46	6.22495
2497.84	7.02084
2499.23	6.93194
2500.61	5.85157
2501.99	5.15944
2503.37	4.94065
2504.75	4.75426
2506.13	5.26429
2507.52	4.56493
2508.9	4.96032
2510.28	5.68331
2511.66	5.65936
2513.04	6.57482
2514.42	7.53122
2515.8	7.04243
2517.18	7.51717
2518.55	7.56898
2519.93	7.50006
2521.31	8.44511
2522.69	8.57663
2524.07	8.78198
2525.45	9.62612
2526.82	9.48303
2528.2	9.60448
2529.58	10.2384
2530.95	10.6237
2532.33	11.0188
2533.71	11.45
2535.08	12.4049
2536.46	12.422
2537.84	12.8835
2539.21	13.0455
2540.59	13.7914
2541.96	14.2694
2543.34	14.7191
2544.71	14.3558
2546.08	13.5776
2547.46	13.2571
2548.83	12.7422
2550.2	11.8975
2551.58	12.0189
2552.95	11.5454
2554.32	11.5847
2555.7	10.8314
2557.07	10.5098
2558.44	10.2288
2559.81	10.4892
2561.18	10.1024
2562.55	11.1506
2563.93	11.2804
2565.3	11.0382
2566.67	11.491
2568.04	10.0618
2569.41	9.98234
2570.78	9.20034
2572.15	10.035
2573.51	10.3843
2574.88	11.1261
2576.25	10.4167
2577.62	10.6124
2578.99	10.1233
2580.36	10.0251
2581.73	8.97488
2583.09	8.91332
2584.46	7.86334
2585.83	8.75893
2587.19	8.64908
2588.56	9.01062
2589.93	9.25029
2591.29	8.04158
2592.66	7.52456
2594.02	7.13412
2595.39	5.96319
2596.75	4.57528
2598.12	5.09777
2599.48	5.25975
2600.85	5.89889
2602.21	6.21867
2603.58	6.16696
2604.94	5.05367
2606.3	5.12213
2607.67	5.10581
2609.03	4.05042
2610.39	4.29888
2611.76	3.97058
2613.12	3.39245
2614.48	3.30855
2615.84	2.91563
2617.2	3.17515
2618.56	2.39616
2619.92	3.0785
2621.28	2.97343
2622.65	2.97757
2624.01	2.78109
2625.37	3.55792
2626.72	3.30811
2628.08	3.16407
2629.44	3.33987
2630.8	3.08262
2632.16	3.04748
2633.52	3.65702
2634.88	3.65414
2636.24	3.50744
2637.59	4.16615
2638.95	3.97081
2640.31	4.69973
2641.67	5.47268
2643.02	5.81417
2644.38	6.07155
2645.74	6.274
2647.09	6.59257
2648.45	6.8622
2649.8	6.93199
2651.16	7.32739
2652.51	6.77341
2653.87	7.14316
2655.22	7.20121
2656.58	7.20362
2657.93	7.10429
2659.29	6.49524
2660.64	6.51308
2661.99	7.16085
2663.35	6.81769
2664.7	7.56662
2666.05	8.80739
2667.41	8.04692
2668.76	8.74814
2670.11	8.77528
2671.46	9.04121
2672.81	8.48119
2674.16	9.53306
2675.51	9.54309
2676.87	9.48293
2678.22	9.94697
2679.57	8.86287
2680.92	8.78073
2682.27	8.64677
2683.62	7.87866
2684.97	8.0193
2686.31	7.07639
2687.66	8.11274
2689.01	7.86025
2690.36	8.00147
2691.71	8.99552
2693.06	8.69349
2694.4	8.9568
2695.75	9.54635
2697.1	10.5081
2698.45	11.2734
2699.79	12.756
2701.14	13.3531
2702.49	13.8216
2703.83	14.2471
2705.18	14.8805
2706.52	15.7895
2707.87	16.9793
2709.21	17.8258
2710.56	18.3869
2711.9	19.1196
2713.25	18.7064
2714.59	18.8486
2715.94	17.9359
2717.28	19.3504
2718.62	19.5021
2719.97	20.5297
2721.31	21.1173
2722.65	21.7037
2723.99	21.6185
2725.34	21.6201
2726.68	21.0168
2728.02	20.6061
2729.36	20.1766
2730.7	18.7522
2732.04	18.8689
2733.39	18.141
2734.73	17.1381
2736.07	17.2518
2737.41	15.719
2738.75	15.2855
2740.08	14.6725
2741.43	14.8574
2742.76	13.1811
2744.1	12.0012
2745.44	11.1345
2746.78	10.4934
2748.12	10.2185
2749.46	8.97335
2750.79	8.52111
2752.13	8.35122
2753.47	8.2801
2754.81	8.37508
2756.14	7.47232
2757.48	6.6699
2758.81	6.45434
2760.15	5.74044
2761.49	5.16743
2762.82	4.80171
2764.16	4.29644
2765.49	3.84588
2766.83	3.95958
2768.16	3.50048
2769.5	2.88409
2770.83	2.21577
2772.16	1.41643
2773.5	1.65494
2774.83	0.862018
2776.17	1.56359
2777.5	2.00396
2778.83	1.40095
2780.16	1.04488
2781.5	0.994864
2782.83	1.82144
2784.16	4.11714
2785.49	3.3803
2786.82	3.68221
2788.15	3.24187
2789.49	2.93937
2790.82	2.52246
2792.15	1.91251
2793.48	1.41256
2794.81	1.10181
2796.14	0.99599
2797.46	0.937696
2798.79	0.982451
2800.12	-0.0329466
2801.45	0.155483
2802.78	-0.432396
2804.11	-0.85815
2805.44	-0.910431
2806.76	-1.92494
2808.09	-3.08575
2809.42	-4.45506
2810.75	-3.9826
2812.07	-3.05169
2813.4	-2.23945
2814.73	-1.58663
2816.05	-0.393704
2817.38	1.84729
2818.7	3.51507
2820.03	5.58407
2821.36	8.67154
2822.68	11.5422
2824.01	15.3883
2825.33	19.5488
2826.65	23.3254
2827.98	27.1147
2829.3	32.5926
2830.63	36.47
2831.95	41.3377
2833.27	45.7055
2834.6	50.3083
2835.92	54.7253
2837.24	60.0715
2838.56	65.6127
2839.88	72.1702
2841.21	77.9798
2842.53	85.4476
2843.85	91.7626
2845.17	98.6112
2846.49	105.6
2847.81	113.491
2849.13	121.632
2850.45	129.203
2851.77	136.412
2853.09	146
2854.41	153.908
2855.73	162.159
2857.05	169.746
2858.37	176.579
2859.69	183.95
2861	190.116
2862.32	196.342
2863.64	201.974
2864.96	206.617
2866.28	211.576
2867.59	216.805
2868.91	220.307
2870.23	224.767
2871.54	228.699
2872.86	232.778
2874.17	236.28
2875.49	240.137
2876.81	243.972
2878.12	247.267
2879.44	250.166
2880.75	253.186
2882.07	255.994
2883.38	259.122
2884.69	261.461
2886.01	264.166
2887.32	266.98
2888.63	268.469
2889.95	270.433
2891.26	271.703
2892.57	273.734
2893.89	275.129
2895.2	277.048
2896.51	278.147
2897.82	280.42
2899.13	282.415
2900.44	285.379
2901.76	287.997
2903.07	291.641
2904.38	296.277
2905.69	301.378
2907	305.926
2908.31	312.038
2909.62	316.801
2910.93	322.761
2912.24	329.303
2913.55	336.07
2914.85	341.988
2916.16	348.56
2917.47	355.099
2918.78	359.874
2920.09	363.063
2921.4	367.006
2922.7	369.35
2924.01	371.717
2925.32	373.985
2926.62	374.823
2927.93	374.908
2929.24	374.494
2930.54	373.733
2931.85	373.942
2933.15	372.241
2934.46	369.674
2935.76	366.563
2937.07	363.126
2938.37	358.577
2939.68	353.338
2940.98	348.609
2942.29	343.054
2943.59	337.902
2944.89	331.662
2946.2	324.992
2947.5	317.312
2948.8	310.661
2950.11	303.051
2951.41	296.056
2952.71	289.305
2954.01	281.501
2955.32	274.453
2956.62	266.242
2957.92	258.934
2959.22	251.14
2960.52	243.951
2961.82	236.598
2963.12	229.826
2964.42	223.253
2965.72	216.874
2967.02	210.604
2968.32	205.492
2969.62	200.251
2970.92	194.868
2972.22	189.243
2973.51	184.219
2974.81	178.588
2976.11	174.324
2977.41	168.217
2978.71	161.591
2980	155.849
2981.3	150.151
2982.6	143.78
2983.9	136.65
2985.19	130.962
2986.49	124.567
2987.78	117.921
2989.08	111.821
2990.38	104.819
2991.67	98.7542
2992.97	92.417
2994.26	86.8683
2995.56	81.8655
2996.85	76.7509
2998.14	70.5901
2999.44	65.4814
3000.73	60.3649
3002.03	55.7571
3003.32	50.9059
3004.61	47.1209
3005.91	44.4219
3007.2	40.2416
3008.49	36.7569
3009.78	32.5168
3011.07	29.6779
3012.37	26.0272
3013.66	23.7282
3014.95	20.4379
3016.24	17.9769
3017.53	15.5597
3018.82	12.9546
3020.11	10.642
3021.4	8.52543
3022.69	7.89083
3023.98	7.41567
3025.27	6.35136
3026.56	5.35826
3027.85	5.03408
3029.14	4.78815
3030.43	4.6353
3031.71	5.06891
3033	5.77424
3034.29	5.49357
3035.58	5.87838
3036.87	5.78579
3038.15	6.34787
3039.44	7.41134
3040.73	7.56419
3042.01	7.76839
3043.3	8.29712
3044.59	9.59926
3045.87	10.404
3047.16	11.2835
3048.44	12.4335
3049.73	13.6265
3051.01	13.8924
3052.3	14.7549
3053.58	15.7344
3054.87	16.3993
3056.15	17.1903
3057.43	17.1564
3058.72	17.3159
3060	17.5882
3061.29	17.2829
3062.57	17.747
3063.85	18.3845
3065.13	18.7324
3066.42	18.1983
3067.7	18.3598
3068.98	18.8129
3070.26	19.0584
3071.54	17.464
3072.82	16.9127
3074.11	16.3078
3075.39	15.8084
3076.67	14.9968
3077.95	15.6764
3079.23	15.071
3080.51	15.7189
3081.79	16.0834
3083.07	16.4
3084.35	16.3516
3085.63	17.2402
3086.9	17.7822
3088.18	18.1202
3089.46	18.4542
3090.74	19.5215
3092.02	20.432
3093.29	21.6762
3094.57	22.763
3095.85	23.9189
3097.13	24.398
3098.4	24.7578
3099.68	25.8337
3100.95	26.7193
3102.23	28.8273
3103.51	30.3114
3104.78	31.2044
3106.06	32.8204
3107.33	33.6127
3108.61	35.1487
3109.88	36.9461
3111.16	38.5176
3112.43	39.8506
3113.71	41.1773
3114.98	42.1609
3116.25	43.4689
3117.53	45.0258
3118.8	46.0235
3120.07	47.0466
3121.35	48.478
3122.62	50.2539
3123.89	51.9914
3125.16	53.706
3126.44	55.5336
3127.71	56.7953
3128.98	58.0471
3130.25	58.8381
3131.52	61.4753
3132.79	63.4563
3134.06	65.0687
3135.33	66.4453
3136.6	68.8515
3137.87	71.4045
3139.14	74.3595
3140.41	77.4502
3141.68	80.1086
3142.95	82.6371
3144.22	85.5329
3145.49	88.4957
3146.76	91.4781
3148.02	94.6978
3149.29	96.4128
