#Acq. time (s)=	45
#Accumulations=	2
#Range (cm-¹)=	200...3150
#Windows=	2
#Auto scanning=	Off
#Autofocus=	Off
#Macrospot=	Off
#AutoExposure=	Off
#Spike filter=	Multiple accum.
#Delay time (s)=	0
#Binning=	1
#Readout mode=	Signal
#DeNoise=	Off
#ICS correction=	On
#Dark correction=	Off
#Inst. Process=	Off
#Detector Gain=	Best Dynamic Range
#Detector ADC=	20 kHz       
#Detector temperature (°C)=	-69.85
#Instrument=	LabRAM HR Evol
#Detector=	Synapse
#Objective=	x100
#Grating=	600 gr/mm
#ND Filter=	100%
#Laser (nm)=	532 
#Hole=	100.021
#Range=	Auto
#Laser Pol.=	No
#Raman. Pol.=	No
#Laser Pol. (°)=	-0.0007625
#Raman Pol. (°)=	89.9995
#Collection=	Microscope
#StageXY=	Marzhauser
#StageZ=	Marzhauser
#X (µm)=	-1023.7
#Y (µm)=	-2882.9
#Z (µm)=	528.75
#Full time(mm:ss)=	3:18
#Project=	
#Sample=	
#Site=	
#Title=	Mb_00_13_38_2x_45s_532 nm_x100_100%_600 gr_mm
#Remark=	
#Date=	06.07.2022 12:47
#Acquired=	06.07.2022 12:47:15
#Base:Fit=	10.08.2022 10:16:56
#Base:Sub=	10.08.2022 10:17:24
#Filter:Polynom=	16.08.2022 10:36:38
#AxisType[0]=Intens
#AxisUnit[0]=Cnt
#AxisType[1]=Spectr
#AxisUnit[1]=1/cm
200.398	16.3554
202.213	16.3942
204.027	15.9837
205.843	11.8563
207.657	8.90196
209.47	6.50589
211.283	5.11582
213.097	4.45937
214.909	3.95619
216.721	6.69634
218.533	11.2987
220.344	17.8411
222.157	24.6424
223.967	31.7683
225.777	39.3232
227.587	47.1265
229.396	55.0164
231.205	62.354
233.016	69.7549
234.824	75.6228
236.632	80.3332
238.439	85.7711
240.247	90.6366
242.053	95.0359
243.86	98.9177
245.666	101.85
247.474	105.905
249.279	110.29
251.085	114.117
252.889	116.717
254.694	119.613
256.498	122.697
258.301	124.393
260.105	126.776
261.908	126.701
263.71	128.092
265.513	126.675
267.315	123.444
269.116	119.57
270.918	115.113
272.718	111.308
274.519	108.13
276.319	103.121
278.119	97.6392
279.918	91.6925
281.718	84.5696
283.516	78.7671
285.315	71.8454
287.113	64.4781
288.911	56.6504
290.708	49.363
292.505	43.8753
294.302	39.4832
296.098	35.7436
297.894	31.1029
299.69	26.8655
301.485	24.1003
303.278	21.3531
305.073	19.0046
306.867	18.4253
308.661	17.4642
310.454	16.5779
312.247	15.8636
314.04	15.3465
315.833	13.8999
317.623	13.1643
319.415	11.9448
321.206	10.361
322.997	9.17088
324.788	7.82622
326.579	8.12522
328.367	8.57784
330.156	8.83996
331.946	9.38561
333.735	9.20247
335.523	8.45115
337.31	8.36892
339.098	8.6102
340.885	8.03848
342.673	7.3808
344.458	7.36998
346.244	6.41966
348.03	6.06207
349.816	4.81639
351.6	2.99842
353.385	2.16851
355.17	-0.967062
356.953	-1.96625
358.737	-2.14116
360.521	-0.769616
362.304	0.725264
364.085	2.07581
365.868	2.12305
367.65	3.50028
369.431	6.15744
371.212	9.32209
372.994	12.9548
374.773	15.1502
376.554	17.7086
378.332	22.0722
380.112	26.7781
381.892	32.4615
383.669	38.3939
385.448	44.7144
387.225	51.817
389.003	57.7712
390.781	64.2118
392.557	70.5371
394.334	75.7252
396.109	81.5687
397.885	87.6176
399.66	91.7381
401.436	96.3557
403.211	98.7729
404.984	100.279
406.759	102.329
408.532	102.558
410.306	104.169
412.078	104.517
413.851	104.708
415.623	104.321
417.395	103.866
419.166	102.118
420.938	98.5476
422.708	94.523
424.477	91.1921
426.248	87.7761
428.017	83.6066
429.788	79.6924
431.556	74.7281
433.326	69.2785
435.093	63.9157
436.86	58.3422
438.629	51.4704
440.395	45.0335
442.163	39.649
443.929	33.7911
445.694	29.6609
447.461	25.1494
449.226	20.1382
450.99	15.2966
452.756	12.1592
454.52	8.7582
456.285	6.41223
458.048	4.44371
459.811	1.86281
461.573	-0.144284
463.337	-1.98565
465.099	-1.36895
466.86	0.115839
468.623	1.27002
470.384	4.29682
472.144	5.36331
473.906	7.10349
475.666	7.95526
477.425	9.46218
479.184	10.3334
480.944	11.0379
482.703	11.2334
484.461	12.6811
486.218	13.8289
487.975	13.8322
489.734	14.6068
491.491	14.6921
493.247	14.2331
495.003	15.3266
496.759	15.474
498.516	17.5728
500.271	19.1384
502.025	20.1075
503.779	21.7432
505.533	23.654
507.287	23.5954
509.042	25.6556
510.795	27.1735
512.547	27.8747
514.299	30.0812
516.051	30.8779
517.803	32.29
519.554	32.4481
521.305	33.4177
523.055	34.0822
524.805	34.5386
526.555	33.5753
528.307	34.114
530.056	33.7328
531.805	33.3273
533.553	33.192
535.301	33.755
537.049	34.7641
538.797	35.6296
540.544	35.4104
542.291	34.3206
544.037	33.1247
545.783	32.0053
547.529	30.4763
549.275	28.989
551.02	28.0637
552.765	26.5794
554.509	25.1309
556.253	24.4121
557.997	22.8596
559.738	20.8093
561.482	20.0792
563.224	18.4554
564.967	16.4861
566.709	14.0864
568.451	12.9179
570.192	11.5613
571.933	10.1703
573.674	8.20553
575.415	5.49495
577.153	4.20031
578.893	3.69389
580.632	2.68393
582.371	2.50722
584.11	1.63198
585.849	2.26994
587.587	3.00221
589.323	1.54971
591.06	2.94268
592.797	2.69285
594.534	1.62221
596.271	2.02015
598.005	1.54471
599.741	1.2846
601.476	2.08241
603.211	0.778931
604.944	0.983805
606.679	1.1672
608.413	2.04482
610.147	1.87539
611.878	1.93686
613.611	1.21653
615.344	2.77611
617.077	2.7086
618.807	3.38718
620.539	2.57721
622.27	3.21256
623.999	2.26835
625.73	1.45192
627.461	0.913877
629.189	1.52852
630.919	2.33069
632.648	3.66358
634.376	5.05721
636.105	6.86811
637.833	7.70746
639.559	7.69976
641.287	8.94586
643.013	9.45623
644.74	9.42332
646.467	11.5484
648.192	11.9364
649.918	12.3265
651.642	12.2446
653.368	13.0656
655.091	14.0312
656.816	13.2427
658.538	12.7714
660.263	13.0674
661.987	13.7353
663.708	15.4078
665.432	15.6577
667.153	16.3253
668.875	15.9848
670.596	16.3753
672.318	17.5971
674.037	17.514
675.759	16.9636
677.478	16.9094
679.196	15.1494
680.917	15.479
682.635	15.7101
684.355	14.3093
686.072	12.9122
687.791	13.2095
689.508	12.8952
691.224	12.2205
692.942	11.1622
694.658	10.6765
696.376	10.6028
698.091	10.1895
699.805	9.11536
701.522	9.04241
703.236	7.71047
704.95	6.26097
706.665	6.43913
708.379	7.17726
710.093	8.14708
711.806	8.43883
713.518	8.60241
715.23	9.7585
716.943	10.5346
718.655	11.62
720.366	11.9062
722.078	11.0345
723.788	11.6983
725.498	12.8719
727.208	12.1286
728.919	11.876
730.628	11.4899
732.337	12.0976
734.045	11.5036
735.755	11.8522
737.463	12.0674
739.17	14.2709
740.877	14.2618
742.584	12.9651
744.292	14.1314
745.998	14.0429
747.704	15.1376
749.409	15.7542
751.114	16.7703
752.819	18.5922
754.526	20.0015
756.23	21.5375
757.934	23.7214
759.637	24.8837
761.34	26.1709
763.043	27.0691
764.746	27.5642
766.448	29.9531
768.152	31.2805
769.853	32.5063
771.554	34.592
773.255	35.486
774.956	36.1319
776.656	37.4736
778.356	39.7455
780.056	41.4832
781.755	42.6678
783.454	42.5157
785.153	44.0211
786.851	45.8989
788.549	46.7015
790.247	47.7574
791.944	50.3494
793.641	51.3504
795.338	52.6685
797.034	53.3022
798.73	53.6138
800.426	53.9815
802.121	53.4314
803.817	52.7701
805.511	52.6976
807.206	52.3083
808.9	53.4623
810.592	52.4736
812.286	51.4243
813.979	52.7023
815.672	52.7543
817.364	53.8192
819.057	54.0473
820.748	54.0967
822.44	53.8214
824.129	53.8869
825.82	52.0704
827.511	50.689
829.201	51.1109
830.891	50.1296
832.581	51.7511
834.269	52.1559
835.958	51.3237
837.646	50.7015
839.335	50.0851
841.023	49.5638
842.709	49.2725
844.396	48.553
846.084	46.0779
847.77	44.3869
849.455	43.4737
851.141	43.5491
852.827	42.2365
854.513	40.1492
856.196	39.3381
857.881	36.9426
859.566	35.5307
861.248	33.5461
862.932	32.1227
864.616	31.1829
866.297	30.7088
867.98	30.4701
869.663	29.5239
871.343	28.0263
873.026	26.265
874.707	25.105
876.387	24.4169
878.068	22.6311
879.747	21.4584
881.428	19.8541
883.108	16.9393
884.786	14.8848
886.465	13.0118
888.143	11.5543
889.822	12.0131
891.498	10.092
893.177	9.71325
894.855	9.16035
896.53	8.40568
898.208	7.80691
899.883	7.56061
901.56	7.765
903.234	8.19022
904.91	7.73128
906.584	9.42425
908.26	9.0682
909.933	8.44388
911.608	7.9746
913.28	9.88767
914.955	10.4899
916.627	11.1665
918.298	11.1491
919.972	11.1424
921.643	12.8338
923.315	14.3232
924.986	16.0766
926.656	16.6261
928.328	17.1115
929.997	16.9172
931.668	16.8666
933.337	18.8001
935.006	19.3552
936.676	19.1449
938.344	19.2685
940.012	19.7506
941.681	18.9184
943.348	18.8631
945.014	19.7314
946.683	19.8395
948.349	20.8436
950.015	20.69
951.682	20.1097
953.347	20.0222
955.012	18.8001
956.676	16.7552
958.343	14.8106
960.006	13.8845
961.67	13.5508
963.333	14.3467
964.998	14.3249
966.661	13.6741
968.323	15.4158
969.985	17.6411
971.649	19.8983
973.31	21.7901
974.971	24.2958
976.632	27.8927
978.293	31.4443
979.953	34.8225
981.615	38.3721
983.274	41.875
984.933	44.0532
986.592	45.9253
988.251	48.8001
989.909	51.0582
991.567	50.7298
993.225	53.2643
994.884	55.1778
996.541	57.9822
998.198	58.8203
999.855	59.1838
1001.51	59.7547
1003.17	59.2696
1004.82	59.5086
1006.48	59.1575
1008.13	56.5469
1009.79	56.9277
1011.44	55.8372
1013.1	55.1743
1014.75	55.8167
1016.4	57.1523
1018.06	58.9931
1019.71	61.3662
1021.36	64.7997
1023.01	68.1727
1024.66	71.4877
1026.32	77.1061
1027.97	82.7061
1029.62	86.9127
1031.27	91.7741
1032.92	94.7071
1034.57	97.5715
1036.22	99.3736
1037.87	100.946
1039.52	103.8
1041.16	107.543
1042.81	112.136
1044.46	114.936
1046.11	117.943
1047.76	118.955
1049.4	119.454
1051.05	120.334
1052.7	119.278
1054.34	118.82
1055.99	118.84
1057.63	119.322
1059.28	116.686
1060.92	114.917
1062.57	112.896
1064.21	109.054
1065.85	104.846
1067.5	99.7191
1069.14	94.9152
1070.78	89.6105
1072.43	82.702
1074.07	76.2882
1075.71	70.8564
1077.35	65.4504
1078.99	58.8381
1080.63	52.1207
1082.27	43.7236
1083.91	35.6519
1085.55	29.0718
1087.19	24.0271
1088.83	19.3052
1090.47	15.7331
1092.11	15.7909
1093.75	13.6659
1095.39	14.0082
1097.03	15.0906
1098.66	16.1951
1100.3	18.3994
1101.94	19.1516
1103.57	21.8551
1105.21	23.6605
1106.84	25.6328
1108.48	27.0496
1110.11	26.9342
1111.75	26.8674
1113.38	26.012
1115.02	25.5914
1116.65	24.7656
1118.29	23.8485
1119.92	24.2909
1121.55	23.5844
1123.19	22.1044
1124.82	20.3492
1126.45	19.5735
1128.08	19.1852
1129.71	17.5154
1131.34	16.6076
1132.97	15.2582
1134.6	15.3129
1136.23	15.9733
1137.86	15.6406
1139.49	14.4956
1141.12	14.1638
1142.75	14.8359
1144.38	14.2948
1146.01	12.268
1147.64	10.5745
1149.26	9.02527
1150.89	8.3136
1152.52	7.47155
1154.15	8.46399
1155.77	8.08763
1157.4	6.99609
1159.02	6.11552
1160.65	3.41866
1162.27	2.23168
1163.9	-0.108507
1165.52	0.287625
1167.15	2.22198
1168.77	2.05683
1170.39	3.03542
1172.02	4.56396
1173.64	6.11328
1175.26	7.66349
1176.89	8.15891
1178.51	9.14454
1180.13	9.98603
1181.75	11.0409
1183.37	12.2144
1184.99	14.0764
1186.61	14.0259
1188.23	15.5568
1189.85	16.2514
1191.47	18.4188
1193.09	19.8886
1194.71	20.9422
1196.33	22.8077
1197.94	25.1071
1199.56	27.9716
1201.18	30.6453
1202.8	32.6944
1204.41	35.6343
1206.03	39.1164
1207.65	43.2089
1209.26	47.0859
1210.88	50.0597
1212.49	52.6957
1214.11	55.9132
1215.72	59.3244
1217.34	62.9063
1218.95	66.2189
1220.57	69.5428
1222.18	72.1339
1223.79	75.0993
1225.41	76.5534
1227.02	76.894
1228.63	78.2634
1230.24	80.7334
1231.85	82.4708
1233.47	83.8111
1235.08	85.8673
1236.69	84.9864
1238.3	84.3615
1239.91	84.8963
1241.52	86.071
1243.13	87.8611
1244.74	87.662
1246.34	88.3794
1247.95	88.3503
1249.56	87.7952
1251.17	88.0428
1252.78	87.6704
1254.38	86.0631
1255.99	86.3824
1257.6	85.9598
1259.2	86.1194
1260.81	87.2772
1262.42	87.8373
1264.02	88.8822
1265.63	90.5278
1267.23	91.4222
1268.84	93.7546
1270.44	94.388
1272.04	95.9898
1273.65	98.3575
1275.25	99.9978
1276.85	101.502
1278.46	104.211
1280.06	105.222
1281.66	107.209
1283.26	110.488
1284.86	114.564
1286.46	117.7
1288.07	121.22
1289.67	124.644
1291.27	125.442
1292.87	127.237
1294.47	129.164
1296.06	130.796
1297.66	134.014
1299.26	136.326
1300.86	137.213
1302.46	138.607
1304.06	140.847
1305.65	141.529
1307.25	141.928
1308.85	143.307
1310.44	146.032
1312.04	147.555
1313.64	148.504
1315.23	150.227
1316.83	147.836
1318.42	147.48
1320.02	147.698
1321.61	148.615
1323.2	147.6
1324.8	145.08
1326.39	142.828
1327.99	141.486
1329.58	140.438
1331.17	138.216
1332.76	138.429
1334.36	139.143
1335.95	139.785
1337.54	139.734
1339.13	139.762
1340.72	140.247
1342.31	139.318
1343.9	139.436
1345.49	138.089
1347.08	135.938
1348.67	134.136
1350.26	132.151
1351.85	131.027
1353.43	129.332
1355.02	128.398
1356.61	126.612
1358.2	127.371
1359.78	126.192
1361.37	126.519
1362.96	124.65
1364.54	121.999
1366.13	119.33
1367.71	116.861
1369.3	114.329
1370.88	111.583
1372.47	109.004
1374.05	106.727
1375.64	104.795
1377.22	103.47
1378.8	101.004
1380.39	98.4901
1381.97	97.7469
1383.55	96.3931
1385.13	94.7999
1386.72	92.8446
1388.3	92.3259
1389.88	92.652
1391.46	89.9751
1393.04	87.7871
1394.62	86.1685
1396.2	82.64
1397.78	83.7934
1399.36	83.3958
1400.94	84.582
1402.52	84.368
1404.1	86.4808
1405.68	89.2838
1407.25	94.0439
1408.83	98.2883
1410.41	101.76
1411.98	107.562
1413.56	111.175
1415.14	116.975
1416.71	123.587
1418.29	128.158
1419.87	134.575
1421.44	142.824
1423.02	150.124
1424.59	157.774
1426.16	165.556
1427.74	173.529
1429.31	181.223
1430.89	188.809
1432.46	197.216
1434.03	206.114
1435.6	212.36
1437.18	220.085
1438.75	223.411
1440.32	228.008
1441.89	230.613
1443.46	234.581
1445.03	238.301
1446.6	240.928
1448.17	242.958
1449.74	244.01
1451.31	242.683
1452.88	241.47
1454.45	239.437
1456.02	238.097
1457.59	234.447
1459.16	229.542
1460.72	225.139
1462.29	218.566
1463.86	211.231
1465.43	204.038
1466.99	194.909
1468.56	186.211
1470.13	176.499
1471.69	167.652
1473.26	159.963
1474.82	151.487
1476.38	144.098
1477.95	135.894
1479.51	128.95
1481.08	121.749
1482.64	115.34
1484.2	107.832
1485.77	100.329
1487.33	94.7372
1488.89	88.758
1490.46	83.2434
1492.02	78.3351
1493.58	74.227
1495.14	70.1066
1496.7	67.7172
1498.26	66.4444
1499.82	65.1683
1501.38	63.6861
1502.94	63.2547
1504.5	62.2113
1506.06	61.6502
1507.62	61.3963
1509.18	62.711
1510.73	62.7514
1512.29	62.4848
1513.85	62.9191
1515.41	63.5618
1516.96	64.8376
1518.52	66.0434
1520.08	67.1071
1521.63	70.0225
1523.19	70.6185
1524.75	71.6235
1526.3	72.0715
1527.85	73.0585
1529.41	73.3567
1530.96	73.9762
1532.52	75.3604
1534.07	76.6685
1535.62	75.8417
1537.18	76.4028
1538.73	77.5859
1540.28	77.6821
1541.84	78.5664
1543.39	78.9276
1544.94	79.7205
1546.49	81.3109
1548.04	82.3273
1549.59	83.6512
1551.14	84.6739
1552.69	84.1276
1554.25	85.4322
1555.79	86.638
1557.34	85.5166
1558.89	85.4074
1560.44	84.9062
1561.99	84.5551
1563.54	85.1653
1565.08	86.8596
1566.63	86.817
1568.18	87.4915
1569.73	88.7078
1571.27	90.0643
1572.82	93.8801
1574.37	94.9658
1575.91	96.3871
1577.46	99.7619
1579	102.728
1580.55	104.6
1582.09	105.927
1583.64	106.44
1585.18	107.719
1586.73	108.904
1588.27	109.876
1589.81	112.638
1591.35	115.541
1592.9	117.769
1594.44	118.885
1595.98	117.886
1597.52	118.426
1599.06	117.728
1600.61	115.904
1602.15	116.216
1603.69	114.619
1605.23	114.613
1606.77	113.609
1608.31	112.814
1609.85	112.065
1611.39	111.436
1612.93	110.363
1614.46	110.13
1616	108.961
1617.54	109.087
1619.08	107.723
1620.61	106.32
1622.15	106.02
1623.69	105.76
1625.23	105.602
1626.76	105.327
1628.3	104.096
1629.83	104.698
1631.37	105.977
1632.9	105.741
1634.44	105.518
1635.97	107.805
1637.51	109.889
1639.04	111.039
1640.57	114.061
1642.11	116.507
1643.64	117.887
1645.17	120.052
1646.71	122.226
1648.24	124.657
1649.77	126.797
1651.3	128.741
1652.83	131.786
1654.36	132.254
1655.89	132.765
1657.42	133.31
1658.96	132.596
1660.48	132.458
1662.01	132.481
1663.54	131.365
1665.07	129.643
1666.6	128.901
1668.13	126.799
1669.66	122.284
1671.19	118.974
1672.71	115.521
1674.24	111.553
1675.77	107.902
1677.29	104.748
1678.82	100.544
1680.35	96.8365
1681.87	92.908
1683.4	89.6562
1684.92	84.8463
1686.45	80.8138
1687.97	76.4259
1689.5	71.7869
1691.02	66.6019
1692.54	62.5799
1694.07	59.0478
1695.59	54.1487
1697.11	50.2116
1698.64	47.6723
1700.16	44.5763
1701.68	40.8574
1703.2	37.8607
1704.72	35.8286
1706.25	34.245
1707.77	32.346
1709.29	30.1197
1710.81	28.3507
1712.33	26.915
1713.85	24.8963
1715.37	22.4003
1716.89	21.9826
1718.41	20.2784
1719.92	20.1319
1721.44	19.5482
1722.96	19.4696
1724.48	18.4467
1725.99	17.938
1727.51	17.6868
1729.03	16.482
1730.55	14.734
1732.06	14.6176
1733.58	14.4838
1735.09	13.0247
1736.61	13.0478
1738.13	12.0885
1739.64	12.0933
1741.15	11.3145
1742.67	11.4211
1744.18	10.7824
1745.7	10.3505
1747.21	10.8075
1748.72	10.0784
1750.24	9.33755
1751.75	9.41675
1753.26	9.73716
1754.77	8.42133
1756.29	8.74904
1757.8	7.90229
1759.31	8.27321
1760.82	6.78944
1762.33	7.45103
1763.84	6.3246
1765.35	5.587
1766.86	4.91179
1768.37	4.92117
1769.88	4.13068
1771.39	3.07266
1772.9	1.87243
1774.4	1.9572
1775.91	1.70116
1777.42	2.47693
1778.93	2.63398
1780.44	2.89152
1781.94	2.56292
1783.45	3.3891
1784.96	3.16908
1786.46	2.92669
1787.97	2.7005
1789.47	2.27192
1790.98	2.66305
1792.48	3.83624
1793.99	3.99108
1795.49	4.72325
1797	3.71417
1798.5	4.22006
1800.01	4.0769
1801.51	4.56016
1803.01	5.73986
1804.51	6.23261
1806.02	6.70898
1807.52	7.29096
1809.02	7.50796
1810.52	6.95529
1812.02	7.5608
1813.52	7.91477
1815.02	8.62032
1816.53	8.55178
1818.03	9.39235
1819.52	10.734
1821.02	10.8225
1822.52	10.3553
1824.02	10.6021
1825.52	10.6518
1827.02	10.7434
1828.52	10.9974
1830.02	10.2675
1831.51	10.303
1833.01	9.33727
1834.51	9.33767
1836.01	9.19959
1837.5	9.62847
1839	9.39074
1840.49	9.82914
1841.99	11.0377
1843.49	10.9546
1844.98	11.2464
1846.48	11.4105
1847.97	11.7128
1849.47	12.5718
1850.96	14.3055
1852.45	13.9667
1853.95	13.9643
1855.44	14.014
1856.93	13.6197
1858.42	13.9869
1859.92	13.1126
1861.41	12.5534
1862.9	12.0129
1864.39	12.0069
1865.88	11.0344
1867.38	10.0551
1868.87	9.47125
1870.36	8.9112
1871.85	9.02258
1873.34	8.9128
1874.83	9.02229
1876.32	8.18561
1877.81	8.37183
1879.29	9.09297
1880.78	9.13881
1882.27	9.43257
1882.53	8.98044
1884.03	9.83151
1885.52	11.5377
1887.01	11.8948
1888.51	12.166
1890	11.9256
1891.5	10.811
1892.99	9.88265
1894.48	7.73026
1895.97	6.78176
1897.47	6.76683
1898.96	6.73616
1900.45	6.96462
1901.94	6.45889
1903.43	5.34622
1904.92	6.05958
1906.41	6.51283
1907.9	7.68642
1909.39	8.49709
1910.88	9.27571
1912.37	8.94944
1913.86	7.90724
1915.35	7.95422
1916.84	7.36775
1918.33	7.3856
1919.81	6.24883
1921.3	6.99583
1922.79	6.39131
1924.28	6.82412
1925.76	5.22852
1927.25	5.56217
1928.73	5.60271
1930.22	5.69548
1931.71	6.10077
1933.19	5.91861
1934.68	4.83099
1936.16	4.05023
1937.65	3.21855
1939.13	2.08915
1940.62	1.17644
1942.1	1.05005
1943.58	1.1043
1945.07	3.31498
1946.55	5.08835
1948.03	7.64743
1949.51	9.66181
1951	13.0882
1952.48	15.2413
1953.96	15.7096
1955.44	17.3252
1956.92	17.896
1958.4	20.0058
1959.88	20.8063
1961.36	20.6732
1962.84	21.4461
1964.32	20.6587
1965.8	21.1993
1967.28	21.556
1968.76	22.1019
1970.24	23.0981
1971.72	24.7519
1973.2	24.9691
1974.67	25.746
1976.15	25.3571
1977.63	25.5608
1979.1	26.4392
1980.58	26.1786
1982.06	26.6994
1983.54	25.846
1985.01	25.4836
1986.49	23.2224
1987.96	21.8617
1989.44	21.9102
1990.91	21.2189
1992.39	21.0729
1993.86	20.2984
1995.33	20.5691
1996.81	20.0385
1998.28	20.1652
1999.75	19.892
2001.23	19.7525
2002.7	18.152
2004.17	16.7096
2005.65	15.1741
2007.12	12.7127
2008.59	10.2325
2010.06	10.1867
2011.53	9.36424
2013	7.99455
2014.47	8.39991
2015.94	9.87951
2017.41	10.9108
2018.88	11.6214
2020.35	11.658
2021.82	11.8741
2023.29	11.6708
2024.76	11.8125
2026.23	12.1412
2027.69	11.3506
2029.16	11.335
2030.63	10.9022
2032.1	10.3505
2033.56	10.3322
2035.03	10.1733
2036.5	9.74277
2037.96	8.89031
2039.43	9.31203
2040.89	8.13235
2042.36	8.06845
2043.83	8.08022
2045.29	9.55803
2046.75	9.38099
2048.22	10.2764
2049.68	10.1386
2051.15	11.2019
2052.61	12.356
2054.07	12.9774
2055.54	12.4859
2057	11.9658
2058.46	11.7359
2059.92	10.3734
2061.39	11.7542
2062.85	13.2645
2064.31	13.4982
2065.77	14.4129
2067.23	14.9503
2068.69	15.6321
2070.15	16.2547
2071.61	15.8537
2073.07	14.8917
2074.53	13.7427
2075.99	14.1213
2077.45	14.3265
2078.91	13.8257
2080.37	13.9115
2081.82	14.8433
2083.28	16.1263
2084.74	15.5272
2086.2	15.1719
2087.65	16.3763
2089.11	16.0268
2090.57	16.3593
2092.02	16.9781
2093.48	17.7967
2094.94	18.052
2096.39	18.3008
2097.85	17.9758
2099.3	17.2116
2100.76	15.7496
2102.21	15.728
2103.66	15.551
2105.12	15.0269
2106.57	15.7481
2108.03	15.2189
2109.48	15.1149
2110.93	15.1312
2112.38	15.1275
2113.84	14.6852
2115.29	14.8193
2116.74	14.993
2118.19	14.7844
2119.64	14.366
2121.09	13.1896
2122.54	12.8127
2123.99	13.1576
2125.45	11.9618
2126.89	10.9347
2128.34	8.88218
2129.79	8.5639
2131.24	7.22638
2132.69	7.16599
2134.14	7.8384
2135.59	7.64332
2137.04	6.79582
2138.48	6.67839
2139.93	6.59181
2141.38	6.74402
2142.83	6.15188
2144.27	6.5115
2145.72	6.06521
2147.17	7.2168
2148.61	7.99723
2150.06	8.06062
2151.5	9.12838
2152.95	10.3662
2154.39	11.3012
2155.84	12.1578
2157.28	11.7506
2158.73	12.2952
2160.17	13.4075
2161.61	13.3506
2163.06	14.5309
2164.5	14.9162
2165.94	15.9307
2167.38	17.001
2168.83	17.5795
2170.27	17.7017
2171.71	17.8306
2173.15	18.7721
2174.59	19.0206
2176.03	20.1393
2177.47	21.5483
2178.91	22.7664
2180.36	23.3274
2181.8	23.2964
2183.23	23.8626
2184.67	23.602
2186.11	22.5881
2187.55	22.6947
2188.99	22.4034
2190.43	22.4244
2191.87	22.8803
2193.3	22.6577
2194.74	23.4543
2196.18	23.1729
2197.62	20.9776
2199.05	20.1666
2200.49	18.3129
2201.93	19.1467
2203.36	17.8016
2204.8	17.8952
2206.23	16.9596
2207.67	16.4337
2209.1	15.2035
2210.54	15.7197
2211.97	16.4761
2213.41	17.0234
2214.84	15.9075
2216.27	15.8781
2217.71	15.7007
2219.14	15.7158
2220.57	16.6871
2222.01	16.6737
2223.44	17.2932
2224.87	16.9072
2226.3	16.9307
2227.73	16.6056
2229.16	16.2279
2230.6	16.578
2232.03	16.7568
2233.46	17.9143
2234.89	19.4619
2236.32	19.9832
2237.75	19.8935
2239.18	19.1496
2240.61	18.8855
2242.03	18.0191
2243.46	18.2575
2244.89	19.5702
2246.32	19.9974
2247.75	21.5207
2249.17	22.2374
2250.6	21.6494
2252.03	21.9808
2253.46	21.2216
2254.88	21.9042
2256.31	21.0632
2257.73	20.8928
2259.16	21.2904
2260.59	21.0247
2262.01	20.7717
2263.44	20.2985
2264.86	19.8376
2266.29	19.8688
2267.71	19.3913
2269.14	18.5811
2270.56	19.3213
2271.98	18.5836
2273.4	18.4173
2274.83	16.5061
2276.25	16.3409
2277.67	16.8542
2279.09	16.4975
2280.52	15.8031
2281.94	16.0102
2283.36	16.2415
2284.78	15.8202
2286.2	14.7359
2287.62	14.4408
2289.04	13.3702
2290.46	12.2441
2291.88	11.8234
2293.3	10.1509
2294.72	11.1456
2296.14	10.5613
2297.56	11.2972
2298.98	11.7224
2300.4	11.8061
2301.82	12.2499
2303.23	12.7604
2304.65	13.4203
2306.07	12.7796
2307.49	13.0028
2308.9	12.4642
2310.32	12.1796
2311.73	12.1561
2313.15	12.5267
2314.57	14.0756
2315.98	15.339
2317.4	15.1637
2318.81	15.5231
2320.23	15.1628
2321.64	14.6664
2323.06	14.001
2324.47	14.5383
2325.88	15.1568
2327.3	14.8049
2328.71	15.0658
2330.12	14.5643
2331.54	14.5525
2332.95	14.1422
2334.36	13.7619
2335.77	14.0499
2337.18	13.8752
2338.6	13.2225
2340.01	12.7134
2341.42	11.7634
2342.83	11.2171
2344.24	10.4353
2345.65	10.6522
2347.06	10.3838
2348.47	10.3472
2349.88	9.15006
2351.29	9.25605
2352.7	9.41529
2354.1	8.61952
2355.51	7.37237
2356.92	7.3894
2358.33	6.9895
2359.74	5.1319
2361.14	5.60163
2362.55	5.86305
2363.96	6.22632
2365.36	7.40706
2366.77	7.38314
2368.18	7.43029
2369.58	7.2913
2370.99	6.45312
2372.39	6.53658
2373.8	6.28063
2375.2	5.95292
2376.61	5.84383
2378.01	6.00789
2379.42	5.31867
2380.82	4.83052
2382.22	6.18012
2383.63	7.57985
2385.03	8.35532
2386.43	7.74998
2387.84	7.5656
2389.24	7.82777
2390.64	8.04107
2392.04	8.27405
2393.44	7.41738
2394.84	8.26338
2396.25	7.77864
2397.65	6.66259
2399.05	6.09251
2400.45	5.31774
2401.85	4.93128
2403.25	5.3575
2404.65	5.39711
2406.05	5.77631
2407.45	5.95267
2408.84	6.37762
2410.24	6.08629
2411.64	5.85766
2413.04	6.3669
2414.44	6.09329
2415.83	5.60159
2417.23	5.69521
2418.63	6.09631
2420.02	6.53137
2421.42	6.12618
2422.82	5.38679
2424.21	4.42237
2425.61	5.06452
2427	5.01008
2428.4	3.4774
2429.8	2.9187
2431.19	3.86769
2432.58	3.30363
2433.98	3.24576
2435.37	3.2803
2436.77	3.1077
2438.16	2.13821
2439.55	1.54931
2440.95	0.932507
2442.34	0.981432
2443.73	1.32415
2445.12	1.49111
2446.51	1.24897
2447.91	1.8968
2449.3	2.60894
2450.69	2.69605
2452.08	3.51682
2453.47	3.47292
2454.86	2.1278
2456.25	1.6949
2457.64	2.00958
2459.03	2.00155
2460.42	1.46742
2461.81	0.595735
2463.2	0.44005
2464.59	1.92515
2465.98	1.22158
2467.36	1.12242
2468.75	1.94451
2470.14	2.48648
2471.53	2.39345
2472.92	1.70376
2474.3	0.878293
2475.69	0.432185
2477.08	-0.244335
2478.46	-0.374765
2479.85	-0.127998
2481.23	-0.281516
2482.62	-0.198348
2484	0.242515
2485.39	0.314231
2486.77	0.949655
2488.16	0.453727
2489.54	0.95519
2490.93	0.68273
2492.31	1.16282
2493.69	1.37052
2495.08	2.02568
2496.46	2.26243
2497.84	2.92998
2499.23	3.3712
2500.61	3.37088
2501.99	2.30827
2503.37	3.07274
2504.75	3.40017
2506.13	3.10798
2507.52	1.7986
2508.9	2.65646
2510.28	3.53903
2511.66	4.23689
2513.04	3.35423
2514.42	3.07107
2515.8	3.66402
2517.18	3.72898
2518.55	3.42037
2519.93	2.86371
2521.31	2.12483
2522.69	1.83107
2524.07	1.55736
2525.45	2.94751
2526.82	3.32755
2528.2	3.46657
2529.58	3.88761
2530.95	4.83
2532.33	4.5722
2533.71	5.1203
2535.08	4.25307
2536.46	4.60025
2537.84	4.41591
2539.21	4.0872
2540.59	4.28461
2541.96	4.12608
2543.34	4.48273
2544.71	4.78568
2546.08	4.76959
2547.46	5.18694
2548.83	5.39939
2550.2	6.00307
2551.58	6.68763
2552.95	7.47634
2554.32	7.71223
2555.7	7.70848
2557.07	8.17327
2558.44	8.90863
2559.81	9.40671
2561.18	9.20207
2562.55	8.61511
2563.93	8.74642
2565.3	8.66421
2566.67	8.52956
2568.04	8.5781
2569.41	8.60506
2570.78	8.73335
2572.15	10.2436
2573.51	9.77032
2574.88	8.67809
2576.25	9.05294
2577.62	9.79817
2578.99	9.62191
2580.36	9.9039
2581.73	8.66369
2583.09	10.0652
2584.46	9.21989
2585.83	9.05456
2587.19	8.92386
2588.56	8.25039
2589.93	8.26116
2591.29	8.68125
2592.66	9.23496
2594.02	9.08868
2595.39	8.99269
2596.75	8.99399
2598.12	10.5104
2599.48	10.4221
2600.85	9.55621
2602.21	10.0872
2603.58	9.32735
2604.94	8.74244
2606.3	9.36711
2607.67	9.25785
2609.03	9.70095
2610.39	8.65602
2611.76	7.87935
2613.12	8.37718
2614.48	7.86542
2615.84	7.63293
2617.2	7.96988
2618.56	8.266
2619.92	7.82595
2621.28	7.65044
2622.65	8.39958
2624.01	8.00586
2625.37	8.9764
2626.72	9.38985
2628.08	9.2264
2629.44	8.17693
2630.8	8.21451
2632.16	7.85727
2633.52	8.17383
2634.88	9.19061
2636.24	9.15467
2637.59	9.43657
2638.95	9.24597
2640.31	9.33405
2641.67	8.58405
2643.02	8.09403
2644.38	7.97424
2645.74	7.37426
2647.09	7.28427
2648.45	6.41457
2649.8	5.74069
2651.16	5.47847
2652.51	4.88599
2653.87	5.75512
2655.22	4.85583
2656.58	4.94934
2657.93	4.47331
2659.29	3.50458
2660.64	3.10322
2661.99	2.76885
2663.35	2.87286
2664.7	3.48049
2666.05	3.93603
2667.41	3.21923
2668.76	1.90539
2670.11	2.14638
2671.46	2.30177
2672.81	2.30826
2674.16	3.2531
2675.51	3.82077
2676.87	4.56326
2678.22	4.31313
2679.57	4.14401
2680.92	4.15996
2682.27	4.54475
2683.62	5.7347
2684.97	7.21397
2686.31	8.27598
2687.66	9.40394
2689.01	10.3335
2690.36	11.1896
2691.71	11.2668
2693.06	11.8106
2694.4	11.1724
2695.75	11.6935
2697.1	12.3318
2698.45	13.8206
2699.79	15.8316
2701.14	17.9034
2702.49	19.3272
2703.83	19.6791
2705.18	20.7177
2706.52	21.5234
2707.87	23.1169
2709.21	24.1236
2710.56	24.5755
2711.9	24.9367
2713.25	25.7464
2714.59	26.6949
2715.94	27.4665
2717.28	28.2336
2718.62	27.6492
2719.97	28.0448
2721.31	28.4193
2722.65	27.9146
2723.99	27.585
2725.34	26.5207
2726.68	26.6702
2728.02	26.8565
2729.36	26.6754
2730.7	26.7156
2732.04	27.284
2733.39	26.4326
2734.73	25.83
2736.07	25.0484
2737.41	24.4662
2738.75	23.8406
2740.08	23.0801
2741.43	22.8863
2742.76	21.7063
2744.1	20.6164
2745.44	19.1146
2746.78	17.8827
2748.12	17.8351
2749.46	18.3597
2750.79	16.7437
2752.13	15.336
2753.47	13.3741
2754.81	12.3292
2756.14	10.8444
2757.48	10.6364
2758.81	10.2326
2760.15	9.73583
2761.49	8.6574
2762.82	8.47815
2764.16	9.14009
2765.49	8.30516
2766.83	7.69068
2768.16	6.74453
2769.5	5.70288
2770.83	4.79182
2772.16	4.78056
2773.5	5.05716
2774.83	4.528
2776.17	3.50319
2777.5	3.34267
2778.83	3.03621
2780.16	4.13635
2781.5	4.22488
2782.83	3.90124
2784.16	3.24349
2785.49	2.77713
2786.82	3.32575
2788.15	3.50614
2789.49	3.23414
2790.82	1.9656
2792.15	1.75233
2793.48	2.27344
2794.81	2.72217
2796.14	2.37289
2797.46	2.31011
2798.79	1.76253
2800.12	-0.139136
2801.45	-0.412029
2802.78	-2.26162
2804.11	-2.62143
2805.44	-4.31806
2806.76	-6.42763
2808.09	-7.96152
2809.42	-10.0866
2810.75	-10.2699
2812.07	-10.29
2813.4	-7.16858
2814.73	-4.24986
2816.05	-0.839407
2817.38	3.39883
2818.7	9.54787
2820.03	16.54
2821.36	24.8858
2822.68	32.6755
2824.01	41.3568
2825.33	49.7358
2826.65	59.1893
2827.98	68.4343
2829.3	79.1383
2830.63	90.0921
2831.95	99.7026
2833.27	110.892
2834.6	121.536
2835.92	132.359
2837.24	143.438
2838.56	154.755
2839.88	166.289
2841.21	177.825
2842.53	188.846
2843.85	199.943
2845.17	209.987
2846.49	221.789
2847.81	232.591
2849.13	245.947
2850.45	260.296
2851.77	276.123
2853.09	290.482
2854.41	303.832
2855.73	317.892
2857.05	330.548
2858.37	344.511
2859.69	354.879
2861	365.57
2862.32	374.924
2863.64	382.631
2864.96	390.409
2866.28	396.583
2867.59	402.095
2868.91	406.864
2870.23	412.84
2871.54	415.416
2872.86	419.836
2874.17	422.748
2875.49	426.527
2876.81	431.122
2878.12	435.329
2879.44	438.981
2880.75	440.58
2882.07	442.821
2883.38	445.123
2884.69	446.715
2886.01	448.21
2887.32	448.608
2888.63	447.949
2889.95	447.369
2891.26	446.749
2892.57	445.312
2893.89	442.843
2895.2	439.749
2896.51	436.892
2897.82	433.925
2899.13	430.944
2900.44	428.558
2901.76	427.142
2903.07	425.721
2904.38	425.277
2905.69	426.379
2907	426.239
2908.31	427.879
2909.62	431.05
2910.93	436.124
2912.24	442.345
2913.55	448.643
2914.85	457.085
2916.16	463.038
2917.47	468.378
2918.78	472.246
2920.09	476.77
2921.4	480.019
2922.7	480.912
2924.01	482.025
2925.32	481.989
2926.62	482.553
2927.93	480.893
2929.24	479.402
2930.54	477.592
2931.85	473.937
2933.15	470.721
2934.46	467.594
2935.76	462.268
2937.07	455.82
2938.37	449.703
2939.68	441.709
2940.98	435.311
2942.29	426.976
2943.59	419.252
2944.89	411.21
2946.2	402.43
2947.5	394.348
2948.8	385.133
2950.11	376.673
2951.41	366.948
2952.71	356.896
2954.01	346.339
2955.32	336.272
2956.62	326.105
2957.92	315.512
2959.22	305.581
2960.52	295.897
2961.82	287.182
2963.12	279.406
2964.42	271.485
2965.72	263.625
2967.02	256.649
2968.32	249.679
2969.62	242.509
2970.92	235.542
2972.22	228.081
2973.51	222.188
2974.81	215.182
2976.11	207.907
2977.41	201.207
2978.71	193.805
2980	186.883
2981.3	178.207
2982.6	170.618
2983.9	161.959
2985.19	152.493
2986.49	143.41
2987.78	134.968
2989.08	128.04
2990.38	121.379
2991.67	113.109
2992.97	105.599
2994.26	99.628
2995.56	92.425
2996.85	85.9588
2998.14	80.5702
2999.44	73.958
3000.73	67.9239
3002.03	62.1934
3003.32	56.2668
3004.61	50.4343
3005.91	46.7411
3007.2	42.472
3008.49	39.6371
3009.78	36.0415
3011.07	32.1021
3012.37	29.8019
3013.66	26.8854
3014.95	25.596
3016.24	22.2597
3017.53	19.4676
3018.82	17.4935
3020.11	15.3343
3021.4	13.9405
3022.69	12.9922
3023.98	11.6971
3025.27	9.78522
3026.56	8.63457
3027.85	7.88979
3029.14	7.18741
3030.43	6.28824
3031.71	5.71429
3033	4.93294
3034.29	4.35904
3035.58	4.56814
3036.87	4.60728
3038.15	3.71874
3039.44	4.01464
3040.73	3.80715
3042.01	4.3665
3043.3	4.05039
3044.59	4.301
3045.87	4.26538
3047.16	4.42601
3048.44	4.33427
3049.73	5.02376
3051.01	5.67904
3052.3	5.81254
3053.58	7.44567
3054.87	7.34711
3056.15	7.44808
3057.43	7.57831
3058.72	8.23819
3060	8.04928
3061.29	8.37848
3062.57	7.78521
3063.85	6.97319
3065.13	7.54541
3066.42	6.84075
3067.7	7.37512
3068.98	7.86128
3070.26	8.63642
3071.54	8.34317
3072.82	8.31498
3074.11	7.5229
3075.39	7.70472
3076.67	7.3628
3077.95	6.9557
3079.23	6.79699
3080.51	5.71858
3081.79	4.87794
3083.07	4.70989
3084.35	3.62416
3085.63	4.00798
3086.9	3.75024
3088.18	3.12001
3089.46	3.17853
3090.74	3.37609
3092.02	3.34011
3093.29	3.77092
3094.57	3.26982
3095.85	2.98075
3097.13	4.1353
3098.4	4.46762
3099.68	5.67176
3100.95	6.3578
3102.23	6.73552
3103.51	9.04016
3104.78	9.73035
3106.06	10.7802
3107.33	12.1054
3108.61	12.9201
3109.88	13.7491
3111.16	14.4801
3112.43	15.8945
3113.71	16.8963
3114.98	18.2768
3116.25	19.4266
3117.53	21.4327
3118.8	22.1096
3120.07	23.7578
3121.35	24.3893
3122.62	26.1636
3123.89	27.7983
3125.16	29.1838
3126.44	29.921
3127.71	31.8228
3128.98	33.2596
3130.25	33.5893
3131.52	35.3687
3132.79	36.1738
3134.06	36.7918
3135.33	37.6584
3136.6	38.9907
3137.87	40.0899
3139.14	41.9564
3140.41	43.0382
3141.68	44.8083
3142.95	46.3413
3144.22	47.9623
3145.49	49.8836
3146.76	51.8863
3148.02	53.665
3149.29	53.8542
