#Acq. time (s)=	45
#Accumulations=	2
#Range (cm-¹)=	200...3150
#Windows=	2
#Auto scanning=	Off
#Autofocus=	Off
#Macrospot=	Off
#AutoExposure=	Off
#Spike filter=	Multiple accum.
#Delay time (s)=	0
#Binning=	1
#Readout mode=	Signal
#DeNoise=	Off
#ICS correction=	On
#Dark correction=	Off
#Inst. Process=	Off
#Detector Gain=	Best Dynamic Range
#Detector ADC=	20 kHz       
#Detector temperature (°C)=	-69.85
#Instrument=	LabRAM HR Evol
#Detector=	Synapse
#Objective=	x100
#Grating=	600 gr/mm
#ND Filter=	100%
#Laser (nm)=	532 
#Hole=	100.021
#Range=	Auto
#Laser Pol.=	No
#Raman. Pol.=	No
#Laser Pol. (°)=	-0.0007625
#Raman Pol. (°)=	89.9995
#Collection=	Microscope
#StageXY=	Marzhauser
#StageZ=	Marzhauser
#X (µm)=	-630.6
#Y (µm)=	-1702.2
#Z (µm)=	88.9
#Full time(mm:ss)=	3:18
#Project=	
#Sample=	
#Site=	
#Title=	Mb_10_14_47_2x_45s_532 nm_x100_100%_600 gr_mm
#Remark=	
#Date=	11.07.2022 12:13
#Acquired=	11.07.2022 12:13:07
#Base:Fit=	10.08.2022 10:21:11
#Base:Sub=	10.08.2022 10:21:41
#Filter:Polynom=	16.08.2022 10:17:53
#AxisType[0]=Intens
#AxisUnit[0]=Cnt
#AxisType[1]=Spectr
#AxisUnit[1]=1/cm
200.388	16.7429
202.204	16.6213
204.019	14.2762
205.832	11.9799
207.646	9.47106
209.459	7.47883
211.274	5.4893
213.087	3.98706
214.899	3.27586
216.711	3.54817
218.524	4.60833
220.335	4.88148
222.146	5.13227
223.956	6.57433
225.766	7.51023
227.576	8.22225
229.388	10.4849
231.197	10.7147
233.005	11.4387
234.813	13.5015
236.621	14.1872
238.429	14.8792
240.236	15.3252
242.045	15.6566
243.852	15.8779
245.658	16.2316
247.464	16.7087
249.269	17.4507
251.074	18.533
252.879	19.2895
254.683	20.0752
256.487	20.537
258.291	21.802
260.094	21.7811
261.897	22.6463
263.702	23.5426
265.504	24.6359
267.306	25.5543
269.108	27.0307
270.909	26.9811
272.71	26.8742
274.511	26.4867
276.311	26.1662
278.111	26.4196
279.91	26.4322
281.709	25.485
283.508	23.4716
285.306	22.9791
287.105	22.0917
288.9	21.6352
290.698	21.3351
292.495	19.2817
294.291	18.502
296.088	18.7521
297.884	18.8564
299.679	17.3451
301.475	17.5694
303.27	18.3934
305.064	18.3778
306.858	19.2059
308.652	19.5596
310.444	18.8236
312.237	19.131
314.03	19.7001
315.822	19.4169
317.615	19.2342
319.406	19.7031
321.198	18.4082
322.987	17.6275
324.778	17.1405
326.568	15.2358
328.358	13.8744
330.148	13.14
331.935	11.0319
333.724	10.0023
335.513	8.81262
337.301	8.1364
339.089	8.47013
340.875	8.53597
342.662	8.52963
344.449	9.05128
346.236	10.2758
348.02	11.6014
349.806	12.3874
351.592	14.3822
353.375	14.648
355.16	15.4869
356.944	16.6212
358.728	17.2473
360.51	18.1361
362.294	19.2291
364.077	19.8756
365.858	21.5853
367.64	21.8998
369.422	22.2659
371.202	22.4954
372.983	23.4197
374.764	24.5271
376.543	25.6131
378.324	25.6602
380.102	25.8798
381.881	26.2548
383.661	27.668
385.438	29.8441
387.216	30.505
388.993	31.1708
390.771	32.4212
392.548	33.4526
394.324	35.0269
396.101	35.1731
397.875	35.1137
399.651	34.7997
401.425	35.1756
403.201	34.7901
404.974	35.6558
406.749	35.4268
408.524	35.5096
410.296	33.8529
412.07	32.8823
413.841	32.4177
415.614	31.329
417.385	30.2444
419.156	29.3367
420.928	28.2523
422.698	28.1531
424.469	27.8834
426.238	28.1248
428.009	28.2928
429.777	28.0504
431.548	27.3889
433.315	26.8546
435.083	25.3854
436.852	24.2061
438.618	23.99
440.387	22.9707
442.153	21.3907
443.919	20.9785
445.686	20.1117
447.451	19.4909
449.218	19.0451
450.982	18.4177
452.746	16.933
454.512	15.5771
456.275	14.4126
458.038	14.4501
459.803	14.1726
461.565	13.9849
463.327	14.383
465.091	15.4877
466.852	15.3471
468.613	15.8411
470.374	16.452
472.136	16.8296
473.896	17.2326
475.655	17.3105
477.415	16.6813
479.176	15.7654
480.934	17.08
482.692	17.5588
484.45	16.7236
486.21	18.433
487.967	19.3112
489.724	20.4136
491.481	21.1294
493.237	22.8419
494.995	22.6485
496.75	22.8188
498.506	22.8883
500.26	23.177
502.015	22.9742
503.769	22.9809
505.525	23.3434
507.279	24.1494
509.032	24.2657
510.785	25.4753
512.537	25.9777
514.289	26.1876
516.041	26.295
517.793	26.4156
519.546	26.3916
521.297	26.0814
523.047	26.1827
524.797	26.6749
526.547	26.59
528.297	25.9641
530.046	25.013
531.795	24.157
533.543	24.4168
535.291	25.124
537.039	23.5268
538.787	23.753
540.534	23.6419
542.281	23.29
544.027	23.323
545.773	23.7625
547.519	23.7478
549.264	23.4628
551.01	22.9282
552.754	22.1161
554.499	20.8566
556.243	19.4374
557.987	18.8468
559.73	17.7998
561.474	16.8285
563.216	15.7834
564.959	13.7746
566.701	12.799
568.441	12.9742
570.182	11.095
571.923	9.85172
573.664	9.11782
575.405	8.08629
577.145	6.71044
578.885	6.6189
580.624	6.13907
582.361	5.9354
584.1	4.43507
585.839	3.79491
587.577	3.56332
589.315	3.72091
591.052	3.73751
592.787	4.64112
594.524	5.40269
596.26	5.4114
597.997	7.133
599.732	5.24654
601.466	4.64945
603.201	4.25971
604.936	4.37779
606.67	3.78187
608.403	3.40174
610.136	4.17866
611.87	3.30467
613.603	3.11978
615.334	3.02315
617.067	2.73257
618.799	4.08863
620.529	5.82604
622.26	5.24684
623.991	5.74147
625.72	7.26291
627.451	7.77832
629.181	7.24966
630.909	8.37711
632.638	9.89278
634.368	9.91997
636.095	9.97578
637.823	10.5886
639.551	10.6398
641.277	11.7573
643.005	12.3819
644.73	12.551
646.457	12.4921
648.184	12.3845
649.908	13.3649
651.634	13.3981
653.357	14.2362
655.083	15.7991
656.806	16.1127
658.53	16.9522
660.253	17.2562
661.977	18.9212
663.7	19.5505
665.422	20.8007
667.145	21.2088
668.865	22.219
670.588	21.4084
672.308	21.9002
674.027	22.9623
675.749	23.1696
677.468	23.7913
679.188	24.1931
680.907	23.383
682.627	22.4288
684.345	22.697
686.064	22.5054
687.781	23.3967
689.498	24.645
691.216	25.2244
692.932	25.2188
694.65	25.6592
696.366	25.6182
698.081	25.0204
699.797	24.6753
701.512	25.0086
703.228	24.8502
704.942	25.9888
706.655	25.6818
708.371	24.677
710.083	25.0051
711.796	23.9448
713.51	23.2862
715.222	23.1653
716.934	23.1785
718.645	23.8333
720.358	23.3722
722.068	23.1073
723.779	23.5203
725.49	23.6716
727.2	23.8214
728.909	23.7171
730.618	23.3416
732.329	24.3275
734.037	24.6655
735.745	25.9416
737.453	25.8521
739.16	25.8792
740.869	26.3811
742.576	25.5724
744.282	26.3533
745.988	27.7131
747.694	29.5345
749.401	29.6612
751.107	31.747
752.811	33.4247
754.516	34.3878
756.22	35.2001
757.924	35.7827
759.627	37.6166
761.332	38.8086
763.035	40.7399
764.738	42.2324
766.44	44.7461
768.142	47.2295
769.843	49.5061
771.544	51.1485
773.245	52.6579
774.946	53.4093
776.646	54.3853
778.346	55.643
780.046	57.1262
781.745	58.0661
783.444	58.4897
785.143	59.9533
786.841	62.0569
788.539	63.6446
790.237	66.2131
791.934	67.6137
793.631	68.6965
795.328	70.3321
797.024	71.8648
798.72	73.524
800.416	75.1214
802.112	76.4805
803.807	77.4801
805.502	78.0281
807.196	78.8167
808.89	79.4372
810.584	79.5272
812.278	79.7633
813.971	80.906
815.664	81.0732
817.354	81.6238
819.047	81.7007
820.739	81.9876
822.43	80.9006
824.122	79.5644
825.813	80.1283
827.503	79.5331
829.192	79.6616
830.882	80.0747
832.571	79.4701
834.261	78.3303
835.95	78.0533
837.637	76.9468
839.325	74.5599
841.013	72.9335
842.701	71.4614
844.389	71.2932
846.074	69.6426
847.761	68.7738
849.447	66.8818
851.131	65.2963
852.817	62.1968
854.503	60.4417
856.188	59.2691
857.871	58.5534
859.556	56.1527
861.24	56.0662
862.922	54.3492
864.606	53.0965
866.289	52.1701
867.97	51.9081
869.653	52.408
871.336	51.3875
873.016	51.1591
874.698	50.1333
876.379	49.4928
878.058	48.9646
879.739	47.5021
881.418	46.5564
883.098	45.7488
884.778	45.0567
886.456	44.3028
888.135	44.2749
889.812	44.0401
891.49	43.473
893.167	43.2553
894.845	44.0446
896.523	44.2314
898.198	44.6679
899.875	44.9094
901.55	45.7456
903.226	45.7151
904.901	46.1788
906.576	45.8424
908.25	46.018
909.925	47.1026
911.598	46.6553
913.271	47.1228
914.945	47.7736
916.617	47.881
918.291	48.6318
919.962	49.5489
921.635	50.034
923.306	49.6283
924.978	50.7303
926.648	51.3994
928.318	50.9388
929.989	51.6428
931.659	52.2463
933.328	52.6327
934.998	53.2876
936.666	51.9729
938.336	52.0519
940.004	51.7808
941.671	52.061
943.34	50.3488
945.007	51.2409
946.673	50.532
948.339	51.3188
950.007	52.308
951.672	52.2285
953.337	52.0701
955.004	51.0694
956.669	51.7185
958.333	50.5084
959.997	50.1291
961.662	49.537
963.326	48.7471
964.989	48.9975
966.651	49.8834
968.315	51.3892
969.977	52.4102
971.639	54.4764
973.301	54.553
974.962	56.4156
976.624	57.7645
978.285	58.1178
979.945	58.2604
981.605	59.5004
983.264	60.1226
984.924	60.3757
986.583	60.4631
988.243	60.4628
989.901	59.1796
991.56	58.4221
993.217	58.7941
994.875	58.9574
996.532	58.5669
998.188	58.4836
999.845	58.5665
1001.5	58.5221
1003.16	57.2732
1004.81	57.0842
1006.47	56.4001
1008.12	55.9349
1009.78	55.3536
1011.43	54.4479
1013.09	54.0793
1014.74	53.3255
1016.39	52.8917
1018.05	51.7708
1019.7	50.4406
1021.35	50.3961
1023	50.3447
1024.65	49.4396
1026.31	49.4061
1027.96	51.1491
1029.61	50.9301
1031.26	51.7689
1032.91	50.6053
1034.56	49.533
1036.21	48.2909
1037.86	47.6641
1039.51	47.0256
1041.16	44.7807
1042.8	44.2761
1044.45	44.8083
1046.1	44.6881
1047.75	44.1894
1049.39	44.3573
1051.04	44.0726
1052.69	43.357
1054.33	42.5098
1055.98	41.6104
1057.62	41.7167
1059.27	40.2022
1060.91	38.1475
1062.56	37.3002
1064.2	35.826
1065.85	34.5438
1067.49	33.2988
1069.13	30.9239
1070.77	28.5743
1072.42	27.4826
1074.06	27.0271
1075.7	26.4303
1077.34	24.9747
1078.98	23.2055
1080.62	22.0888
1082.27	20.9331
1083.91	20.1656
1085.55	19.2503
1087.18	19.5236
1088.82	18.8866
1090.46	18.3886
1092.1	18.1998
1093.74	18.6404
1095.38	19.1761
1097.02	20.5333
1098.65	19.0255
1100.29	19.5754
1101.93	20.3309
1103.56	20.1643
1105.2	20.3116
1106.84	20.0346
1108.47	21.6489
1110.11	21.2553
1111.74	20.4386
1113.38	20.7467
1115.01	19.2264
1116.64	19.8468
1118.28	19.5747
1119.91	19.1884
1121.54	18.0433
1123.18	17.2907
1124.81	17.5387
1126.44	16.9569
1128.07	16.1104
1129.7	16.1807
1131.33	15.8201
1132.97	15.8258
1134.6	15.0756
1136.23	14.3735
1137.86	14.6584
1139.49	14.3829
1141.11	13.2191
1142.74	12.2527
1144.37	11.325
1146	10.9914
1147.63	10.2154
1149.26	9.1882
1150.88	7.82813
1152.51	7.23204
1154.14	7.11427
1155.76	5.9185
1157.39	5.31961
1159.01	3.95449
1160.64	3.6443
1162.27	3.66672
1163.89	2.73891
1165.51	3.28004
1167.14	3.03171
1168.76	3.74318
1170.39	3.51027
1172.01	3.60289
1173.63	3.88053
1175.25	4.77205
1176.88	4.74289
1178.5	5.00173
1180.12	4.44728
1181.74	6.80068
1183.36	7.70129
1184.98	7.66816
1186.6	7.77837
1188.22	8.73637
1189.84	9.98573
1191.46	11.0369
1193.08	11.7868
1194.7	12.3807
1196.32	11.9424
1197.94	12.7052
1199.55	12.7779
1201.17	12.5691
1202.79	13.1696
1204.41	14.4418
1206.02	15.1967
1207.64	15.2849
1209.25	16.107
1210.87	17.328
1212.48	17.4082
1214.1	17.5658
1215.71	19.3834
1217.33	21.5676
1218.94	22.6754
1220.56	23.3498
1222.17	22.5451
1223.79	23.8525
1225.4	24.811
1227.01	26.6213
1228.62	27.5296
1230.23	28.3872
1231.85	29.6809
1233.46	30.902
1235.07	32.5003
1236.68	34.0054
1238.29	34.815
1239.9	35.0196
1241.51	36.1676
1243.12	36.6174
1244.73	36.0551
1246.34	37.565
1247.94	38.5485
1249.55	39.3744
1251.16	39.4153
1252.77	39.4972
1254.37	39.6944
1255.98	39.6995
1257.59	38.8487
1259.2	39.1833
1260.8	38.9209
1262.41	39.3928
1264.01	39.4313
1265.62	38.3439
1267.22	38.3957
1268.83	39.3627
1270.43	38.6983
1272.03	39.3682
1273.64	38.3284
1275.24	39.1786
1276.85	38.9103
1278.45	39.3805
1280.05	39.5926
1281.65	40.0381
1283.25	40.4481
1284.85	41.2893
1286.46	40.9021
1288.06	41.8189
1289.66	42.6086
1291.26	43.3778
1292.86	44.3872
1294.46	45.8926
1296.06	47.926
1297.66	48.1036
1299.25	48.437
1300.85	49.5666
1302.45	49.9839
1304.05	52.7128
1305.65	53.6084
1307.24	54.9969
1308.84	56.6015
1310.43	56.572
1312.03	58.0562
1313.63	58.7924
1315.22	59.41
1316.82	59.821
1318.41	59.2976
1320.01	60.371
1321.6	60.5765
1323.2	59.2847
1324.79	59.4382
1326.38	60.2626
1327.98	60.2795
1329.57	58.9699
1331.16	57.5648
1332.76	56.7407
1334.35	56.2815
1335.94	55.7971
1337.53	54.5301
1339.12	53.8192
1340.71	53.0535
1342.3	53.1528
1343.89	52.5567
1345.48	50.8646
1347.07	50.9858
1348.66	50.1714
1350.25	47.8614
1351.84	46.9827
1353.43	45.7996
1355.01	44.7653
1356.6	43.1367
1358.19	42.7013
1359.77	41.7143
1361.36	41.2148
1362.95	40.6744
1364.53	39.6396
1366.12	37.8315
1367.71	37.4232
1369.29	37.1853
1370.88	37.0074
1372.46	36.0882
1374.04	35.035
1375.63	34.1411
1377.21	34.5289
1378.8	34.0461
1380.38	32.8995
1381.96	33.6148
1383.54	35.0053
1385.13	35.4511
1386.71	35.9586
1388.29	36.7835
1389.87	36.5205
1391.45	37.6568
1393.03	38.6352
1394.61	38.7059
1396.19	39.4096
1397.77	39.8175
1399.35	39.7207
1400.93	38.7857
1402.51	39.0276
1404.09	40.2586
1405.67	40.6219
1407.24	40.2758
1408.82	40.4981
1410.4	41.2033
1411.98	42.7936
1413.55	44.0716
1415.13	45.2856
1416.71	45.9189
1418.28	48.0773
1419.86	50.5659
1421.43	51.8135
1423.01	53.0453
1424.58	55.2717
1426.16	57.7478
1427.73	59.3607
1429.31	60.9205
1430.88	63.158
1432.45	66.3082
1434.02	67.851
1435.6	70.0518
1437.17	71.3397
1438.74	73.823
1440.31	75.3594
1441.88	76.8597
1443.45	77.5159
1445.03	78.8971
1446.6	80.7217
1448.17	81.1689
1449.74	80.5626
1451.3	81.4439
1452.87	81.6452
1454.44	81.0815
1456.01	81.1838
1457.58	79.8168
1459.15	79.6526
1460.72	80.4389
1462.28	78.8642
1463.85	77.0439
1465.42	74.9915
1466.98	73.3535
1468.55	70.7308
1470.12	68.4157
1471.68	65.2645
1473.25	62.2625
1474.81	59.555
1476.38	56.159
1477.94	52.5507
1479.51	49.8187
1481.07	47.3053
1482.63	44.1671
1484.2	41.0259
1485.76	38.5648
1487.32	36.3861
1488.88	33.5063
1490.45	31.628
1492.01	29.6785
1493.57	28.2915
1495.13	25.9119
1496.69	24.4241
1498.25	23.4509
1499.81	22.2477
1501.37	22.2893
1502.93	21.3556
1504.49	20.5348
1506.05	19.2983
1507.61	18.7175
1509.17	18.6107
1510.73	18.9503
1512.28	18.1109
1513.84	18.2547
1515.4	17.986
1516.96	19.1864
1518.51	18.8772
1520.07	18.6667
1521.63	17.9036
1523.18	18.2701
1524.74	18.2337
1526.29	17.9497
1527.85	18.5845
1529.4	19.3715
1530.96	18.575
1532.51	19.2931
1534.06	20.1412
1535.62	20.4442
1537.17	21.1806
1538.72	21.3079
1540.28	21.7921
1541.83	21.9508
1543.38	22.8978
1544.93	24.5857
1546.48	25.1884
1548.03	26.4255
1549.59	26.763
1551.14	28.5325
1552.69	29.0223
1554.24	29.7109
1555.79	30.5072
1557.34	30.903
1558.88	31.2077
1560.43	31.603
1561.98	31.6563
1563.53	31.3472
1565.08	30.7808
1566.62	30.697
1568.17	31.9389
1569.72	33.3505
1571.27	34.4641
1572.81	35.3387
1574.36	36.9064
1575.9	37.6558
1577.45	38.1186
1579	39.3755
1580.54	39.9721
1582.09	41.0661
1583.63	42.6728
1585.17	44.3488
1586.72	45.3557
1588.26	46.059
1589.8	46.2132
1591.35	47.7428
1592.89	48.1968
1594.43	49.4264
1595.97	49.8584
1597.52	49.6937
1599.06	50.1893
1600.6	50.9324
1602.14	50.7041
1603.68	50.4832
1605.22	51.097
1606.76	51.284
1608.3	51.209
1609.84	51.43
1611.38	51.8015
1612.92	52.9054
1614.46	53.8185
1615.99	54.935
1617.53	55.9898
1619.07	55.9645
1620.61	56.8103
1622.14	57.6577
1623.68	57.4194
1625.22	57.7788
1626.75	57.9558
1628.29	58.4866
1629.82	57.5878
1631.36	57.1639
1632.9	57.9479
1634.43	57.0755
1635.96	57.1494
1637.5	57.9905
1639.03	58.0421
1640.57	57.9685
1642.1	59.5189
1643.63	60.2691
1645.16	61.5917
1646.7	62.8227
1648.23	62.4736
1649.76	63.0974
1651.29	62.9522
1652.82	62.9999
1654.36	63.8597
1655.89	64.6076
1657.42	64.5491
1658.95	64.7589
1660.48	64.7556
1662.01	63.9307
1663.53	63.6801
1665.06	62.2848
1666.59	61.4519
1668.12	60.8433
1669.65	58.9103
1671.18	57.3283
1672.7	55.7685
1674.23	53.7849
1675.76	51.1593
1677.29	48.8791
1678.81	46.6219
1680.34	44.7525
1681.86	43.3166
1683.39	42.2988
1684.91	40.6604
1686.44	39.0333
1687.96	37.3092
1689.49	37.016
1691.01	34.8395
1692.54	32.663
1694.06	30.3809
1695.58	29.2505
1697.11	27.007
1698.63	25.5483
1700.15	24.0167
1701.67	22.2246
1703.2	20.8165
1704.72	19.7346
1706.24	18.9357
1707.76	18.6253
1709.28	19.0076
1710.8	16.9604
1712.32	17.1761
1713.84	17.0351
1715.36	16.2964
1716.88	15.4127
1718.4	14.5642
1719.91	13.3506
1721.43	13.8764
1722.95	13.676
1724.47	13.4604
1725.99	13.8175
1727.5	12.8219
1729.02	12.892
1730.54	11.9484
1732.05	11.4191
1733.57	10.8896
1735.09	10.3974
1736.6	9.84753
1738.12	9.87934
1739.63	9.65255
1741.15	9.00663
1742.66	9.71966
1744.18	8.72148
1745.69	8.85164
1747.2	8.21505
1748.72	7.8776
1750.23	7.16757
1751.74	6.32954
1753.25	7.00189
1754.77	7.49095
1756.28	7.57119
1757.79	7.73199
1759.3	7.88642
1760.81	7.43455
1762.32	7.15131
1763.83	7.04265
1765.34	7.54754
1766.85	6.52491
1768.36	6.76083
1769.87	6.79509
1771.38	7.27015
1772.89	6.63898
1774.4	7.5508
1775.91	7.80746
1777.41	7.44633
1778.92	7.3673
1780.43	7.12325
1781.94	6.3367
1783.44	5.6262
1784.95	5.8553
1786.45	5.37212
1787.96	6.02205
1789.47	5.55942
1790.97	5.50013
1792.47	5.23031
1793.98	4.96571
1795.48	4.86703
1796.99	5.67789
1798.49	4.95145
1800	4.26684
1801.5	3.07473
1803	2.28861
1804.51	2.39142
1806.01	1.77883
1807.51	2.16615
1809.01	2.41701
1810.51	2.70505
1812.02	3.31751
1813.52	4.04802
1815.02	4.23342
1816.52	4.24285
1818.02	4.40919
1819.52	4.13377
1821.02	4.95599
1822.52	4.94513
1824.02	5.25735
1825.51	5.7778
1827.01	6.3101
1828.51	6.3549
1830.01	5.99572
1831.51	5.93648
1833	6.01345
1834.5	5.81304
1836	5.63451
1837.49	5.01058
1838.99	5.1298
1840.49	5.65266
1841.98	6.15737
1843.48	6.00614
1844.97	5.74554
1846.47	5.90108
1847.96	5.6809
1849.46	5.25712
1850.95	4.43582
1852.45	3.57241
1853.94	2.78299
1855.43	3.05087
1856.92	3.03296
1858.42	3.32515
1859.91	3.43043
1861.4	2.75212
1862.89	2.50033
1864.39	2.56399
1865.88	2.26749
1867.37	2.03187
1868.86	1.61228
1870.35	1.0733
1871.84	1.01647
1873.33	0.795207
1874.82	0.611412
1876.31	0.791872
1877.8	1.00886
1879.29	1.19158
1880.77	1.23587
1882.26	1.61906
1882.52	2.29511
1884.02	2.28337
1885.51	2.89143
1887.01	2.85299
1888.5	3.62085
1889.99	4.32908
1891.49	5.44133
1892.98	5.98908
1894.47	6.82604
1895.96	6.99222
1897.46	6.65969
1898.95	6.85697
1900.44	6.98715
1901.93	7.32898
1903.42	7.52674
1904.91	8.09605
1906.4	7.93922
1907.89	7.81015
1909.38	7.33318
1910.87	8.88361
1912.36	9.71623
1913.85	9.57259
1915.34	9.48904
1916.83	8.97291
1918.32	8.43646
1919.8	8.49934
1921.29	8.58951
1922.78	8.65189
1924.27	8.10888
1925.75	8.15394
1927.24	7.77099
1928.73	8.13268
1930.21	8.65271
1931.7	8.44529
1933.18	8.39307
1934.67	8.64345
1936.15	8.91948
1937.64	8.80274
1939.12	8.10177
1940.61	7.70365
1942.09	6.64418
1943.57	6.32949
1945.06	6.79555
1946.54	6.77523
1948.02	6.14581
1949.51	6.20043
1950.99	5.09823
1952.47	5.08879
1953.95	4.33472
1955.43	4.40687
1956.91	3.9771
1958.39	2.77164
1959.87	3.18663
1961.36	2.9098
1962.84	2.79958
1964.32	2.63831
1965.79	3.04021
1967.27	2.05561
1968.75	2.02988
1970.23	1.83264
1971.71	1.50954
1973.19	1.61125
1974.66	1.75563
1976.14	2.45494
1977.62	2.62311
1979.1	2.90287
1980.57	2.70177
1982.05	3.21504
1983.53	3.54657
1985	4.55021
1986.48	4.07262
1987.95	4.11217
1989.43	5.18407
1990.9	5.15967
1992.38	5.58399
1993.85	6.60014
1995.33	6.9184
1996.8	7.04873
1998.27	7.19261
1999.75	7.83472
2001.22	8.01779
2002.69	8.71566
2004.16	9.32791
2005.64	9.05406
2007.11	9.26435
2008.58	8.59922
2010.05	8.00713
2011.52	7.59333
2012.99	7.22568
2014.46	7.18305
2015.93	7.25582
2017.4	7.87119
2018.87	7.38931
2020.34	6.44392
2021.81	5.58794
2023.28	4.94096
2024.75	4.09755
2026.22	4.3013
2027.69	3.6788
2029.15	3.89886
2030.62	2.95426
2032.09	2.61103
2033.56	2.45385
2035.02	2.04143
2036.49	1.64122
2037.95	2.18748
2039.42	1.96687
2040.89	2.0501
2042.35	2.29542
2043.82	2.32206
2045.28	2.20202
2046.75	2.77646
2048.21	3.64639
2049.67	4.83748
2051.14	4.60286
2052.6	4.59483
2054.06	4.9997
2055.53	5.89052
2056.99	5.99582
2058.45	6.22335
2059.92	6.70561
2061.38	7.79417
2062.84	8.50757
2064.3	7.95677
2065.76	8.75938
2067.22	8.15379
2068.68	8.46639
2070.14	9.40773
2071.6	10.4068
2073.06	11.1703
2074.52	11.9855
2075.98	12.6161
2077.44	13.1551
2078.9	13.786
2080.36	13.993
2081.82	13.5636
2083.27	14.0397
2084.73	14.1357
2086.19	13.4835
2087.65	13.6423
2089.1	13.2258
2090.56	12.8583
2092.01	12.8388
2093.47	13.1949
2094.93	12.7215
2096.38	12.9587
2097.84	13.1286
2099.29	13.0219
2100.75	12.2123
2102.2	11.6293
2103.66	11.4055
2105.11	10.721
2106.56	10.32
2108.02	11.0458
2109.47	11.039
2110.92	11.3534
2112.37	11.4565
2113.83	11.1518
2115.28	10.5906
2116.73	10.7005
2118.18	10.9626
2119.63	11.2728
2121.09	11.3605
2122.54	11.6015
2123.99	11.3841
2125.44	11.6254
2126.89	12.1889
2128.34	12.6498
2129.79	12.6253
2131.23	13.3281
2132.68	14.4594
2134.13	15.9787
2135.58	15.7596
2137.03	15.7924
2138.48	16.0723
2139.92	16.7299
2141.37	18.3591
2142.82	19.8363
2144.26	20.4067
2145.71	21.3993
2147.16	22.1319
2148.6	23.1007
2150.05	23.692
2151.49	23.6667
2152.94	23.6497
2154.38	23.6028
2155.83	24.2259
2157.27	25.2273
2158.72	25.2589
2160.16	26.6458
2161.6	27.6179
2163.05	28.3
2164.49	29.2812
2165.93	29.7085
2167.38	29.0323
2168.82	29.0779
2170.26	29.3948
2171.7	29.4225
2173.14	29.3124
2174.58	29.9496
2176.03	29.5645
2177.47	29.2871
2178.91	30.2614
2180.35	30.3862
2181.79	29.5943
2183.23	28.8158
2184.67	28.1972
2186.1	26.7788
2187.54	26.3319
2188.98	26.0787
2190.42	25.4976
2191.86	24.6096
2193.3	23.8118
2194.73	23.7605
2196.17	23.1492
2197.61	22.7931
2199.05	22.9256
2200.48	22.6931
2201.92	22.0519
2203.35	21.9002
2204.79	21.0403
2206.22	20.3934
2207.66	19.0305
2209.09	18.5357
2210.53	17.6504
2211.96	17.5523
2213.4	17.0158
2214.83	16.5883
2216.27	15.6973
2217.7	15.1676
2219.13	15.0656
2220.56	14.5425
2222	13.8299
2223.43	13.4628
2224.86	13.914
2226.29	13.1617
2227.72	12.7364
2229.16	12.3796
2230.59	12.2344
2232.02	12.6622
2233.45	12.6975
2234.88	12.2177
2236.31	12.2581
2237.74	11.6625
2239.17	10.6805
2240.6	11.0188
2242.03	10.4845
2243.45	10.4835
2244.88	10.2199
2246.31	10.204
2247.74	10.0656
2249.17	10.7667
2250.59	11.2501
2252.02	10.7803
2253.45	11.2487
2254.87	11.3485
2256.3	11.5226
2257.73	11.3146
2259.15	12.2134
2260.58	12.7558
2262	12.6859
2263.43	13.3601
2264.85	13.8577
2266.28	14.1715
2267.7	14.4807
2269.13	15.0747
2270.55	14.8752
2271.97	14.5857
2273.4	13.9255
2274.82	13.6549
2276.24	13.4437
2277.66	13.825
2279.09	13.2175
2280.51	13.4335
2281.93	13.0717
2283.35	12.7133
2284.77	12.3886
2286.19	12.2597
2287.61	11.9807
2289.04	12.1571
2290.46	12.1244
2291.88	11.3932
2293.29	11.1113
2294.71	10.8102
2296.13	10.04
2297.55	9.22234
2298.97	9.44341
2300.39	9.93541
2301.81	10.9658
2303.23	10.5104
2304.64	10.5743
2306.06	10.5647
2307.48	10.2867
2308.89	10.0004
2310.31	9.79944
2311.73	10.3304
2313.14	10.1462
2314.56	11.4412
2315.97	11.6557
2317.39	12.4311
2318.8	13.6387
2320.22	14.1838
2321.63	14.0511
2323.05	13.8779
2324.46	14.3151
2325.88	13.8678
2327.29	13.7611
2328.7	13.7192
2330.12	14.1238
2331.53	14.1459
2332.94	13.6568
2334.35	12.8361
2335.76	12.5291
2337.18	12.7432
2338.59	12.944
2340	12.3211
2341.41	11.2377
2342.82	10.5454
2344.23	9.77991
2345.64	9.20755
2347.05	8.89763
2348.46	8.39502
2349.87	7.07342
2351.28	6.75556
2352.69	6.01134
2354.1	5.41388
2355.5	5.24005
2356.91	5.79064
2358.32	4.71592
2359.73	4.14469
2361.14	3.2203
2362.54	2.7279
2363.95	2.61386
2365.36	2.96575
2366.76	2.52503
2368.17	2.34133
2369.58	2.01335
2370.98	2.34969
2372.39	2.63861
2373.79	1.91462
2375.2	2.19335
2376.6	1.98607
2378	2.50843
2379.41	2.14199
2380.81	2.35013
2382.22	2.93318
2383.62	3.37961
2385.02	3.38088
2386.42	3.43766
2387.83	3.4011
2389.23	3.43408
2390.63	2.88298
2392.03	2.88751
2393.43	3.43919
2394.84	3.68629
2396.24	3.82044
2397.64	4.86598
2399.04	4.90076
2400.44	4.79901
2401.84	4.19196
2403.24	3.15452
2404.64	3.33153
2406.04	4.27171
2407.44	3.91657
2408.83	3.21128
2410.23	3.04216
2411.63	3.12743
2413.03	2.87331
2414.43	2.69863
2415.83	2.65893
2417.22	3.48124
2418.62	3.04167
2420.02	2.88545
2421.41	3.13831
2422.81	3.69895
2424.21	3.71414
2425.6	3.77523
2427	3.70809
2428.39	3.37897
2429.79	3.6826
2431.18	4.11451
2432.58	3.8129
2433.97	4.07819
2435.36	3.84378
2436.76	2.75317
2438.15	2.71587
2439.54	3.01181
2440.94	3.28311
2442.33	3.57032
2443.72	3.39274
2445.11	3.59709
2446.51	3.7367
2447.9	3.75905
2449.29	3.02655
2450.68	3.72739
2452.07	3.88734
2453.46	3.60109
2454.85	2.9982
2456.24	3.52816
2457.63	2.92341
2459.02	3.05418
2460.41	3.22452
2461.8	3.1604
2463.19	2.8809
2464.58	3.53144
2465.97	3.00721
2467.36	3.36087
2468.75	2.36805
2470.13	2.2312
2471.52	2.36104
2472.91	2.21241
2474.29	2.68212
2475.68	2.87838
2477.07	2.73169
2478.45	3.52382
2479.84	3.80547
2481.22	3.87626
2482.61	3.17355
2484	3.38517
2485.38	3.86156
2486.77	4.22239
2488.15	3.61955
2489.54	4.09594
2490.92	4.00597
2492.3	3.83445
2493.69	3.91413
2495.07	3.61744
2496.45	3.56839
2497.84	3.56513
2499.22	2.86804
2500.6	3.07106
2501.98	2.3189
2503.36	2.02785
2504.74	1.93717
2506.13	2.04052
2507.51	2.0453
2508.89	1.51119
2510.27	1.15088
2511.65	1.05976
2513.03	0.89401
2514.41	0.335517
2515.79	0.307109
2517.17	0.486598
2518.55	0.726489
2519.93	1.67304
2521.3	2.50209
2522.68	2.15526
2524.06	2.48673
2525.44	3.36942
2526.82	3.34989
2528.19	4.28874
2529.57	5.00026
2530.95	4.69633
2532.32	4.31142
2533.7	5.19475
2535.08	4.98722
2536.45	5.99875
2537.83	5.35117
2539.2	5.39035
2540.58	4.91359
2541.95	4.39484
2543.33	4.3694
2544.7	4.77712
2546.08	4.49659
2547.45	4.47457
2548.82	4.014
2550.2	4.17924
2551.57	3.84028
2552.94	4.7468
2554.32	4.99133
2555.69	4.29631
2557.06	4.10228
2558.43	4.49816
2559.8	4.23552
2561.17	3.9317
2562.55	4.32831
2563.92	3.45516
2565.29	3.48755
2566.66	4.09079
2568.03	4.08372
2569.4	4.01733
2570.77	3.81617
2572.14	3.71859
2573.51	3.92677
2574.88	3.54997
2576.24	3.04529
2577.61	2.92397
2578.98	3.54829
2580.35	3.71299
2581.72	4.65345
2583.09	5.1245
2584.45	5.75145
2585.82	6.29141
2587.19	6.44953
2588.55	7.28826
2589.92	8.04405
2591.28	7.60776
2592.65	8.64624
2594.02	9.28416
2595.38	8.66053
2596.75	7.79689
2598.11	7.39818
2599.48	6.44321
2600.84	6.83537
2602.2	7.17253
2603.57	6.57328
2604.93	6.0716
2606.3	5.9251
2607.66	6.28417
2609.02	5.36446
2610.38	5.26326
2611.75	5.40619
2613.11	5.14076
2614.47	4.35299
2615.83	4.00072
2617.19	3.98523
2618.56	3.96272
2619.92	4.26611
2621.28	4.83676
2622.64	4.03499
2624	3.79807
2625.36	4.41732
2626.72	4.75421
2628.08	3.96144
2629.44	3.54222
2630.8	4.06061
2632.15	4.29147
2633.51	4.9228
2634.87	5.02806
2636.23	4.68277
2637.59	4.69795
2638.94	5.23995
2640.3	4.96889
2641.66	4.79554
2643.02	4.70185
2644.37	4.56097
2645.73	4.92053
2647.08	5.04313
2648.44	4.77323
2649.8	4.57629
2651.15	4.70115
2652.51	4.57591
2653.86	5.06776
2655.22	5.44719
2656.57	5.95643
2657.92	6.20384
2659.28	5.61293
2660.63	5.82405
2661.99	5.50583
2663.34	4.89039
2664.69	5.4936
2666.04	6.35107
2667.4	7.05111
2668.75	7.49904
2670.1	7.67606
2671.45	7.52453
2672.81	8.12473
2674.16	8.59862
2675.51	8.25612
2676.86	7.54634
2678.21	8.2408
2679.56	8.62109
2680.91	8.08673
2682.26	7.97268
2683.61	8.67997
2684.96	9.79597
2686.31	9.92378
2687.66	10.6063
2689	10.669
2690.35	10.6513
2691.7	11.4163
2693.05	11.9101
2694.4	12.4607
2695.74	12.0638
2697.09	11.9126
2698.44	11.9356
2699.79	11.6643
2701.13	11.9007
2702.48	11.9061
2703.82	12.5453
2705.17	12.8114
2706.52	13.4649
2707.86	13.5757
2709.21	13.9275
2710.55	13.721
2711.9	13.9373
2713.24	14.1451
2714.58	13.8471
2715.93	14.0803
2717.27	14.3267
2718.61	14.6896
2719.96	14.3626
2721.3	14.5172
2722.64	14.479
2723.99	13.7735
2725.33	13.8894
2726.67	14.0188
2728.01	13.5134
2729.35	13.308
2730.7	13.5511
2732.04	14.1393
2733.38	13.4743
2734.72	12.8798
2736.06	12.6624
2737.4	12.4773
2738.74	11.5714
2740.08	11.1263
2741.42	10.0245
2742.76	9.36059
2744.09	8.77622
2745.43	8.37545
2746.77	7.97519
2748.11	7.65614
2749.45	7.94805
2750.79	7.83473
2752.12	7.41001
2753.46	6.48876
2754.8	6.09399
2756.13	5.5352
2757.47	5.14427
2758.81	5.1811
2760.14	4.43326
2761.48	3.34857
2762.81	2.42127
2764.15	2.14499
2765.49	1.9432
2766.82	2.8431
2768.15	3.51626
2769.49	3.44937
2770.82	3.32277
2772.16	2.85907
2773.49	2.8966
2774.82	2.63731
2776.16	2.42623
2777.49	1.79561
2778.82	1.93814
2780.16	1.70837
2781.49	1.43362
2782.82	1.52484
2784.15	1.44937
2785.48	1.47681
2786.81	1.40736
2788.15	1.52911
2789.48	1.33514
2790.81	0.632184
2792.14	1.27829
2793.47	0.715811
2794.8	0.511835
2796.13	0.985088
2797.46	1.6811
2798.79	1.53669
2800.12	1.50397
2801.44	1.16057
2802.77	1.23019
2804.1	0.338801
2805.43	0.298183
2806.76	0.333797
2808.08	0.201497
2809.41	0.189801
2810.74	-0.17684
2812.07	-0.00955211
2813.39	0.915053
2814.72	1.35176
2816.05	1.43535
2817.37	1.32358
2818.7	2.37462
2820.02	3.2889
2821.35	4.56839
2822.67	7.03768
2824	9.12692
2825.32	11.564
2826.65	13.5976
2827.97	16.3372
2829.29	19.4912
2830.62	22.7405
2831.94	25.8987
2833.26	28.9884
2834.59	32.1473
2835.91	34.8936
2837.23	38.14
2838.55	41.4857
2839.88	45.9775
2841.2	49.7088
2842.52	53.6909
2843.84	58.1641
2845.16	62.6626
2846.48	67.218
2847.8	72.2814
2849.12	77.6631
2850.44	82.4383
2851.76	87.2965
2853.08	92.72
2854.4	98.1602
2855.72	103.529
2857.04	109.029
2858.36	114.556
2859.68	119.781
2861	125.354
2862.32	130.029
2863.63	134.907
2864.95	138.829
2866.27	143.336
2867.58	146.091
2868.9	149.986
2870.22	153.563
2871.53	156.885
2872.85	159.141
2874.17	160.592
2875.48	164.242
2876.8	167.562
2878.11	170.816
2879.43	173.704
2880.74	175.847
2882.06	178.28
2883.37	181.432
2884.69	184.276
2886	187.415
2887.31	190.171
2888.63	193.309
2889.94	195.766
2891.25	198.296
2892.57	200.787
2893.88	203.328
2895.19	205.342
2896.5	208.155
2897.82	210.79
2899.13	213.485
2900.44	216.949
2901.75	219.978
2903.06	223.349
2904.37	227.505
2905.68	231.798
2906.99	235.434
2908.3	239.791
2909.61	244.421
2910.92	249.086
2912.23	253.372
2913.54	258.026
2914.85	262.061
2916.16	266.493
2917.46	270.617
2918.77	274.696
2920.08	278.819
2921.39	282.31
2922.7	285.336
2924	287.39
2925.31	289.638
2926.62	290.728
2927.92	291.036
2929.23	291.63
2930.53	291.076
2931.84	290.38
2933.15	288.865
2934.45	287.655
2935.76	285.615
2937.06	283.171
2938.37	280.108
2939.67	276.876
2940.98	274.66
2942.28	270.714
2943.58	266.355
2944.89	261.668
2946.19	256.775
2947.49	252.454
2948.8	247.428
2950.1	242.113
2951.4	237.161
2952.7	231.278
2954.01	225.877
2955.31	219.861
2956.61	214.202
2957.91	208.508
2959.21	203.208
2960.51	197.572
2961.81	192.761
2963.11	187.672
2964.41	182.24
2965.71	177.027
2967.01	172.127
2968.31	167.625
2969.61	163.578
2970.91	158.369
2972.21	153.957
2973.51	149.608
2974.81	144.859
2976.1	139.819
2977.4	134.781
2978.7	130.548
2980	125.796
2981.29	121.678
2982.59	116.733
2983.89	112.109
2985.18	107.776
2986.48	102.732
2987.78	97.7823
2989.07	92.4775
2990.37	87.6637
2991.66	82.3299
2992.96	77.7545
2994.25	73.0995
2995.55	68.3162
2996.84	63.8233
2998.14	59.3029
2999.43	54.3622
3000.72	50.3866
3002.02	46.195
3003.31	42.1207
3004.6	38.4927
3005.9	35.6618
3007.19	32.4217
3008.48	29.4153
3009.77	26.1395
3011.07	23.2422
3012.36	20.8272
3013.65	17.6683
3014.94	15.2091
3016.23	12.8916
3017.52	10.9756
3018.81	8.87305
3020.1	6.92775
3021.39	5.36794
3022.68	4.18808
3023.97	2.8461
3025.26	1.7132
3026.55	1.23152
3027.84	0.638793
3029.13	0.0637721
3030.42	-0.261171
3031.71	-0.309598
3033	-0.215909
3034.28	-0.297266
3035.57	0.237044
3036.86	0.374127
3038.15	0.281236
3039.43	0.212316
3040.72	0.687173
3042.01	1.37794
3043.29	1.82192
3044.58	2.1453
3045.86	2.75987
3047.15	3.44612
3048.44	4.69069
3049.72	5.45657
3051.01	6.11458
3052.29	6.56834
3053.58	6.35063
3054.86	6.92217
3056.14	7.24565
3057.43	7.875
3058.71	7.9459
3060	8.02169
3061.28	8.00811
3062.56	8.19047
3063.84	8.04537
3065.13	8.65477
3066.41	8.9158
3067.69	8.99011
3068.97	8.74644
3070.25	9.05773
3071.54	8.87729
3072.82	8.72173
3074.1	8.40665
3075.38	8.01891
3076.66	7.74582
3077.94	6.89409
3079.22	6.02427
3080.5	5.41041
3081.78	4.61945
3083.06	3.44291
3084.34	3.10425
3085.62	2.95902
3086.9	2.57917
3088.17	2.15922
3089.45	2.17308
3090.73	1.94778
3092.01	1.87346
3093.29	1.78218
3094.56	1.64432
3095.84	1.67441
3097.12	2.17416
3098.4	2.5525
3099.67	2.93442
3100.95	2.94597
3102.22	3.83125
3103.5	4.41296
3104.77	4.42489
3106.05	4.29398
3107.33	5.3057
3108.6	6.25392
3109.88	7.14665
3111.15	8.56785
3112.43	9.49059
3113.7	9.23068
3114.97	10.128
3116.25	10.9253
3117.52	11.1847
3118.79	12.3116
3120.07	13.1858
3121.34	13.8805
3122.61	14.4836
3123.88	15.1368
3125.16	15.934
3126.43	16.7227
3127.7	17.4638
3128.97	18.7679
3130.24	19.562
3131.51	19.791
3132.78	20.6689
3134.05	21.7848
3135.33	22.3714
3136.59	22.6535
3137.86	22.9135
3139.14	22.3577
3140.41	22.2136
3141.67	21.9679
3142.94	22.0348
3144.21	22.2142
3145.48	22.2115
3146.75	21.9667
3148.02	21.3835
3149.28	21.7469
