#Acq. time (s)=	45
#Accumulations=	2
#Range (cm-¹)=	200...3150
#Windows=	2
#Auto scanning=	Off
#Autofocus=	Off
#Macrospot=	Off
#AutoExposure=	Off
#Spike filter=	Multiple accum.
#Delay time (s)=	0
#Binning=	1
#Readout mode=	Signal
#DeNoise=	Off
#ICS correction=	On
#Dark correction=	Off
#Inst. Process=	Off
#Detector Gain=	Best Dynamic Range
#Detector ADC=	20 kHz       
#Detector temperature (°C)=	-69.85
#Instrument=	LabRAM HR Evol
#Detector=	Synapse
#Objective=	x100
#Grating=	600 gr/mm
#ND Filter=	100%
#Laser (nm)=	532 
#Hole=	100.021
#Range=	Auto
#Laser Pol.=	No
#Raman. Pol.=	No
#Laser Pol. (°)=	-0.0007625
#Raman Pol. (°)=	89.9995
#Collection=	Microscope
#StageXY=	Marzhauser
#StageZ=	Marzhauser
#X (µm)=	-627.4
#Y (µm)=	-1658.5
#Z (µm)=	88.95
#Full time(mm:ss)=	3:18
#Project=	
#Sample=	
#Site=	
#Title=	Mb_10_14_35_2x_45s_532 nm_x100_100%_600 gr_mm
#Remark=	
#Date=	11.07.2022 11:12
#Acquired=	11.07.2022 11:12:06
#Base:Fit=	10.08.2022 10:21:11
#Base:Sub=	10.08.2022 10:21:41
#Filter:Polynom=	16.08.2022 10:17:53
#AxisType[0]=Intens
#AxisUnit[0]=Cnt
#AxisType[1]=Spectr
#AxisUnit[1]=1/cm
200.388	8.53522
202.204	9.35935
204.019	9.29688
205.832	7.62479
207.646	6.41039
209.459	5.22209
211.274	4.2135
213.087	3.52945
214.899	3.78533
216.711	3.39483
218.524	2.8803
220.335	3.43842
222.146	4.64275
223.956	5.28746
225.766	6.39915
227.576	7.83471
229.388	9.20364
231.197	10.5318
233.005	12.0011
234.813	13.4617
236.621	14.7598
238.429	15.5042
240.236	16.2316
242.045	16.8891
243.852	17.4677
245.658	18.6177
247.464	17.9714
249.269	17.887
251.074	18.1975
252.879	18.0342
254.683	18.3107
256.487	20.0127
258.291	20.5064
260.094	21.508
261.897	20.6858
263.702	20.5788
265.504	21.9176
267.306	21.0863
269.108	20.8391
270.909	21.7972
272.71	21.0751
274.511	20.3059
276.311	18.5055
278.111	17.9338
279.91	16.5365
281.709	15.2514
283.508	14.8507
285.306	13.986
287.105	11.1845
288.9	10.4665
290.698	9.72282
292.495	8.0649
294.291	7.83988
296.088	6.84786
297.884	5.27922
299.679	5.19828
301.475	5.42785
303.27	6.02912
305.064	5.94806
306.858	5.21327
308.652	5.87909
310.444	5.4779
312.237	5.43769
314.03	5.53347
315.822	6.10356
317.615	6.63943
319.406	6.41637
321.198	6.85526
322.987	6.89004
324.778	6.94375
326.568	6.35047
328.358	5.33446
330.148	4.46008
331.935	3.0177
333.724	1.82938
335.513	1.23151
337.301	-0.811081
339.089	-0.697003
340.875	-0.866581
342.662	-1.31357
344.449	-0.924
346.236	-0.389799
348.02	-0.293576
349.806	2.28699
351.592	4.28378
353.375	6.39759
355.16	8.41356
356.944	8.82552
358.728	11.4878
360.51	13.1683
362.294	14.83
364.077	16.462
365.858	17.9398
367.64	20.369
369.422	22.4571
371.202	23.8994
372.983	27.0403
374.764	29.4905
376.543	31.0839
378.324	34.0784
380.102	34.3086
381.881	36.6036
383.661	39.1845
385.438	40.3334
387.216	43.1462
388.993	45.5458
390.771	46.6279
392.548	47.4347
394.324	47.3152
396.101	47.4966
397.875	46.5737
399.651	44.7961
401.425	45.8085
403.201	45.6559
404.974	44.5055
406.749	43.6796
408.524	42.1175
410.296	40.9262
412.07	38.1353
413.841	34.6245
415.614	31.8448
417.385	28.1384
419.156	25.5197
420.928	23.2985
422.698	21.3006
424.469	19.4023
426.238	17.9811
428.009	16.6021
429.777	14.9732
431.548	13.8333
433.315	13.3842
435.083	12.9589
436.852	12.4373
438.618	12.7463
440.387	10.8308
442.153	9.90318
443.919	9.34529
445.686	8.12553
447.451	7.44702
449.218	6.00223
450.982	6.55771
452.746	5.50793
454.512	4.86423
456.275	6.06185
458.038	6.39498
459.803	6.76227
461.565	7.93514
463.327	7.37333
465.091	7.02256
466.852	6.5088
468.613	7.4501
470.374	8.82794
472.136	9.09131
473.896	9.13123
475.655	9.23093
477.415	8.89383
479.176	9.22616
480.934	10.0778
482.692	10.2758
484.45	10.9622
486.21	10.9287
487.967	12.4638
489.724	14.4909
491.481	14.5399
493.237	14.7272
494.995	16.2016
496.75	16.6935
498.506	17.1538
500.26	17.8426
502.015	19.1756
503.769	21.5158
505.525	22.0262
507.279	24.199
509.032	25.6927
510.785	27.2079
512.537	28.4842
514.289	30.1966
516.041	30.1032
517.793	30.1474
519.546	30.4431
521.297	29.9943
523.047	30.0927
524.797	30.9812
526.547	31.6663
528.297	31.0967
530.046	32.2775
531.795	32.6422
533.543	32.319
535.291	32.014
537.039	33.2963
538.787	33.4251
540.534	32.8296
542.281	32.7039
544.027	32.774
545.773	31.1794
547.519	29.4252
549.264	27.5206
551.01	26.0543
552.754	24.7319
554.499	23.8814
556.243	22.7128
557.987	20.8243
559.73	18.7965
561.474	18.3295
563.216	17.1566
564.959	16.5047
566.701	15.5906
568.441	13.6237
570.182	12.0485
571.923	10.848
573.664	8.83466
575.405	7.86352
577.145	7.0286
578.885	6.09071
580.624	5.48825
582.361	6.38936
584.1	5.76185
585.839	5.41657
587.577	5.45711
589.315	5.97897
591.052	5.84131
592.787	5.41538
594.524	5.25087
596.26	4.50798
597.997	4.47864
599.732	2.44384
601.466	2.13575
603.201	1.58745
604.936	1.91038
606.67	2.01068
608.403	3.55405
610.136	5.62245
611.87	6.82805
613.603	7.33234
615.334	7.80029
617.067	9.40956
618.799	9.59028
620.529	10.2527
622.26	11.2225
623.991	12.7674
625.72	12.7743
627.451	12.3704
629.181	11.97
630.909	11.8034
632.638	12.1541
634.368	12.8058
636.095	14.2551
637.823	15.6517
639.551	15.3715
641.277	16.1071
643.005	16.7702
644.73	17.7954
646.457	18.8577
648.184	20.0074
649.908	19.2719
651.634	18.7719
653.357	18.9106
655.083	18.8933
656.806	18.8087
658.53	18.7571
660.253	17.9112
661.977	18.2158
663.7	18.1849
665.422	17.324
667.145	17.1483
668.865	16.9821
670.588	15.9794
672.308	15.9414
674.027	16.8146
675.749	16.8854
677.468	15.8359
679.188	15.8668
680.907	15.7727
682.627	15.9973
684.345	16.3669
686.064	16.9973
687.781	18.1092
689.498	19.252
691.216	19.3929
692.932	18.8822
694.65	19.4742
696.366	19.0885
698.081	19.053
699.797	18.5767
701.512	18.4392
703.228	18.3367
704.942	17.7364
706.655	18.4387
708.371	19.1648
710.083	20.1998
711.796	20.61
713.51	21.5785
715.222	23.1256
716.934	24.2176
718.645	26.0923
720.358	28.6693
722.068	30.0577
723.779	31.337
725.49	32.6219
727.2	33.9733
728.909	35.9817
730.618	36.1051
732.329	36.4103
734.037	37.0702
735.745	38.6116
737.453	39.5666
739.16	40.9797
740.869	42.0508
742.576	43.4408
744.282	44.5186
745.988	44.7752
747.694	46.4322
749.401	47.0726
751.107	48.5506
752.811	49.4419
754.516	50.7456
756.22	53.107
757.924	55.2399
759.627	57.5693
761.332	59.2218
763.035	61.2479
764.738	62.7096
766.44	63.9565
768.142	64.756
769.843	65.5782
771.544	66.6671
773.245	66.1369
774.946	67.0424
776.646	67.0733
778.346	66.5698
780.046	66.8576
781.745	66.6226
783.444	66.5161
785.143	65.7707
786.841	66.5048
788.539	66.5996
790.237	67.7339
791.934	69.1509
793.631	70.5728
795.328	71.2154
797.024	71.4469
798.72	72.8202
800.416	72.5678
802.112	73.76
803.807	75.2861
805.502	75.6498
807.196	74.6342
808.89	75.1321
810.584	74.8117
812.278	75.0172
813.971	75.9046
815.664	75.6728
817.354	76.2183
819.047	77.6838
820.739	78.5367
822.43	77.8972
824.122	77.9441
825.813	77.8828
827.503	77.7101
829.192	76.3001
830.882	76.5239
832.571	75.3129
834.261	74.5613
835.95	73.3312
837.637	72.5775
839.325	72.6998
841.013	71.6416
842.701	71.3713
844.389	70.2172
846.074	68.5208
847.761	66.3522
849.447	64.4929
851.131	63.2839
852.817	61.9672
854.503	60.9394
856.188	59.1631
857.871	58.013
859.556	56.1251
861.24	54.113
862.922	52.134
864.606	50.42
866.289	49.1592
867.97	48.5322
869.653	48.0395
871.336	48.1225
873.016	47.2611
874.698	47.7301
876.379	48.3756
878.058	48.2507
879.739	48.5288
881.418	49.1093
883.098	49.1716
884.778	48.2026
886.456	48.9832
888.135	48.8043
889.812	48.7424
891.49	48.5187
893.167	48.8768
894.845	49.6127
896.523	50.5265
898.198	49.7456
899.875	50.8463
901.55	50.458
903.226	51.2051
904.901	50.2776
906.576	49.9446
908.25	49.7779
909.925	50.6745
911.598	50.56
913.271	49.9067
914.945	50.402
916.617	49.4099
918.291	48.8537
919.962	48.2897
921.635	49.0871
923.306	48.6107
924.978	48.7907
926.648	49.5488
928.318	48.1186
929.989	47.808
931.659	47.8488
933.328	48.0505
934.998	48.0767
936.666	48.4481
938.336	47.9087
940.004	47.0444
941.671	45.8359
943.34	44.5408
945.007	43.5472
946.673	43.2337
948.339	42.4133
950.007	43.2198
951.672	43.6564
953.337	43.9081
955.004	43.8441
956.669	44.2756
958.333	43.3765
959.997	43.3476
961.662	41.333
963.326	41.6925
964.989	42.4113
966.651	42.3217
968.315	42.6528
969.977	43.5033
971.639	44.5281
973.301	44.517
974.962	44.6202
976.624	44.6242
978.285	45.5556
979.945	44.5562
981.605	44.5367
983.264	45.8243
984.924	44.1276
986.583	43.1599
988.243	43.0212
989.901	42.4246
991.56	42.2381
993.217	41.8442
994.875	40.8967
996.532	41.4087
998.188	42.5348
999.845	42.3431
1001.5	43.7798
1003.16	45.8102
1004.81	46.4054
1006.47	47.5093
1008.12	48.655
1009.78	49.0349
1011.43	50.8884
1013.09	52.768
1014.74	54.737
1016.39	55.8618
1018.05	56.8716
1019.7	57.7299
1021.35	58.143
1023	58.6886
1024.65	59.5038
1026.31	60.8713
1027.96	62.4719
1029.61	64.0167
1031.26	64.8839
1032.91	66.1473
1034.56	65.9898
1036.21	65.2609
1037.86	63.9894
1039.51	63.223
1041.16	62.4629
1042.8	62.2258
1044.45	61.2937
1046.1	61.9577
1047.75	60.6711
1049.39	59.1077
1051.04	57.4538
1052.69	56.0581
1054.33	54.7198
1055.98	53.229
1057.62	50.2989
1059.27	46.5839
1060.91	45.0573
1062.56	42.0191
1064.2	38.9503
1065.85	35.3358
1067.49	30.585
1069.13	28.2121
1070.77	26.8753
1072.42	23.8367
1074.06	22.1423
1075.7	20.2328
1077.34	18.7239
1078.98	18.2801
1080.62	17.9149
1082.27	16.3189
1083.91	16.3512
1085.55	14.8281
1087.18	14.0517
1088.82	14.5175
1090.46	14.188
1092.1	14.2471
1093.74	15.6462
1095.38	16.059
1097.02	16.3935
1098.65	16.8921
1100.29	17.0211
1101.93	17.8437
1103.56	18.6052
1105.2	19.3183
1106.84	20.596
1108.47	21.2874
1110.11	22.0248
1111.74	21.92
1113.38	21.8945
1115.01	21.5618
1116.64	20.5241
1118.28	19.7507
1119.91	19.2601
1121.54	19.1801
1123.18	18.6518
1124.81	17.5372
1126.44	17.3108
1128.07	17.5881
1129.7	17.031
1131.33	17.7326
1132.97	18.0508
1134.6	18.0902
1136.23	18.2753
1137.86	18.5558
1139.49	17.0084
1141.11	17.7873
1142.74	17.6219
1144.37	16.1246
1146	14.8626
1147.63	14.4321
1149.26	13.9083
1150.88	13.2312
1152.51	13.0521
1154.14	12.1171
1155.76	11.1903
1157.39	10.6087
1159.01	9.82825
1160.64	9.90533
1162.27	9.62786
1163.89	8.18152
1165.51	7.56816
1167.14	6.11432
1168.76	6.02544
1170.39	7.12291
1172.01	6.91324
1173.63	7.05773
1175.25	7.68341
1176.88	7.65477
1178.5	7.05869
1180.12	8.31606
1181.74	9.08154
1183.36	11.3163
1184.98	11.5798
1186.6	11.8472
1188.22	12.3802
1189.84	13.0498
1191.46	13.0505
1193.08	13.7848
1194.7	13.4868
1196.32	14.3156
1197.94	15.1059
1199.55	16.2852
1201.17	18.021
1202.79	18.7496
1204.41	20.3305
1206.02	21.7258
1207.64	23.3245
1209.25	26.5439
1210.87	29.1497
1212.48	32.0425
1214.1	34.1913
1215.71	35.7913
1217.33	38.1368
1218.94	39.1307
1220.56	40.0715
1222.17	40.6381
1223.79	41.2137
1225.4	42.3376
1227.01	43.8266
1228.62	45.0432
1230.23	45.9671
1231.85	47.8034
1233.46	50.1328
1235.07	50.6873
1236.68	50.9472
1238.29	52.1461
1239.9	52.6642
1241.51	53.8913
1243.12	54.2353
1244.73	53.896
1246.34	55.0575
1247.94	56.724
1249.55	57.6184
1251.16	57.7958
1252.77	56.276
1254.37	57.2866
1255.98	57.575
1257.59	58.0542
1259.2	58.4612
1260.8	58.3201
1262.41	57.6791
1264.01	56.2177
1265.62	55.2435
1267.22	55.1613
1268.83	56.3363
1270.43	56.5408
1272.03	56.0286
1273.64	57.2198
1275.24	56.5669
1276.85	57.4932
1278.45	56.8581
1280.05	56.5165
1281.65	56.6446
1283.25	56.3386
1284.85	57.6655
1286.46	57.9444
1288.06	58.751
1289.66	60.4552
1291.26	60.7401
1292.86	59.7335
1294.46	59.4175
1296.06	60.0432
1297.66	60.8286
1299.25	61.3538
1300.85	62.5723
1302.45	63.7224
1304.05	64.9281
1305.65	66.0723
1307.24	68.039
1308.84	69.4322
1310.43	71.7031
1312.03	73.5042
1313.63	74.4097
1315.22	74.9654
1316.82	75.7753
1318.41	77.3066
1320.01	78.5525
1321.6	78.8925
1323.2	78.8923
1324.79	78.7814
1326.38	80.0605
1327.98	79.474
1329.57	78.4495
1331.16	78.5458
1332.76	78.8038
1334.35	79.6498
1335.94	79.2026
1337.53	78.3044
1339.12	77.1977
1340.71	76.3195
1342.3	76.5938
1343.89	75.7678
1345.48	75.5743
1347.07	74.3325
1348.66	73.6163
1350.25	70.9588
1351.84	69.4541
1353.43	68.5516
1355.01	65.8436
1356.6	63.2817
1358.19	60.4939
1359.77	59.3863
1361.36	57.3509
1362.95	55.6507
1364.53	54.2485
1366.12	52.52
1367.71	50.5202
1369.29	49.0636
1370.88	46.811
1372.46	44.4148
1374.04	43.3511
1375.63	42.2644
1377.21	40.672
1378.8	39.5111
1380.38	38.7865
1381.96	38.4861
1383.54	38.1815
1385.13	37.9744
1386.71	37.152
1388.29	36.8501
1389.87	36.7649
1391.45	35.2235
1393.03	34.5356
1394.61	33.8987
1396.19	34.312
1397.77	34.8687
1399.35	34.2605
1400.93	33.679
1402.51	34.0172
1404.09	34.907
1405.67	35.9922
1407.24	36.812
1408.82	38.4468
1410.4	41.2614
1411.98	44.3494
1413.55	46.2542
1415.13	48.7156
1416.71	50.587
1418.28	54.4049
1419.86	57.4473
1421.43	60.5789
1423.01	63.872
1424.58	67.4774
1426.16	70.2192
1427.73	73.3615
1429.31	76.3388
1430.88	79.3864
1432.45	82.4741
1434.02	84.7904
1435.6	87.4309
1437.17	90.7574
1438.74	93.8043
1440.31	95.6613
1441.88	98.0656
1443.45	99.4066
1445.03	100.763
1446.6	101.765
1448.17	101.819
1449.74	101.647
1451.3	101.468
1452.87	101.054
1454.44	101.346
1456.01	101.325
1457.58	101.657
1459.15	101.616
1460.72	100.042
1462.28	99.8163
1463.85	97.4762
1465.42	96.2827
1466.98	95.4249
1468.55	93.07
1470.12	91.5074
1471.68	90.7864
1473.25	89.8682
1474.81	88.8397
1476.38	85.6852
1477.94	82.2148
1479.51	80.2317
1481.07	78.7321
1482.63	77.0291
1484.2	75.2646
1485.76	73.9436
1487.32	71.3289
1488.88	70.1075
1490.45	68.4973
1492.01	65.8386
1493.57	64.2696
1495.13	62.3088
1496.69	59.9233
1498.25	56.5044
1499.81	54.5326
1501.37	52.6073
1502.93	49.7536
1504.49	47.0817
1506.05	44.5523
1507.61	42.1308
1509.17	39.4292
1510.73	37.4215
1512.28	35.1997
1513.84	32.7508
1515.4	30.6018
1516.96	28.6552
1518.51	26.7638
1520.07	24.7475
1521.63	23.9712
1523.18	22.4792
1524.74	20.7816
1526.29	18.5924
1527.85	18.4505
1529.4	18.1543
1530.96	18.1299
1532.51	18.0966
1534.06	18.6925
1535.62	18.5509
1537.17	19.2337
1538.72	19.6609
1540.28	21.6501
1541.83	21.6391
1543.38	23.6866
1544.93	24.6273
1546.48	25.2489
1548.03	27.3956
1549.59	27.8396
1551.14	28.7178
1552.69	29.1059
1554.24	28.8226
1555.79	29.6481
1557.34	30.4598
1558.88	31.9256
1560.43	32.928
1561.98	33.5348
1563.53	33.8534
1565.08	35.2419
1566.62	36.9268
1568.17	38.3538
1569.72	38.9893
1571.27	39.9163
1572.81	39.8485
1574.36	40.5526
1575.9	41.5073
1577.45	43.1469
1579	43.5775
1580.54	44.5161
1582.09	45.5627
1583.63	47.1415
1585.17	49.182
1586.72	50.0226
1588.26	51.597
1589.8	52.1375
1591.35	53.3104
1592.89	54.7415
1594.43	55.5922
1595.97	55.7958
1597.52	56.058
1599.06	56.2542
1600.6	55.2782
1602.14	56.3166
1603.68	56.0741
1605.22	57.2747
1606.76	57.0995
1608.3	57.2302
1609.84	57.1109
1611.38	57.4101
1612.92	56.9367
1614.46	57.5938
1615.99	57.6971
1617.53	57.9917
1619.07	58.3872
1620.61	59.5719
1622.14	59.2842
1623.68	60.3955
1625.22	61.7176
1626.75	62.6782
1628.29	64.2424
1629.82	65.2539
1631.36	66.2641
1632.9	67.6043
1634.43	69.8655
1635.96	73.8873
1637.5	75.2438
1639.03	77.1913
1640.57	79.5308
1642.1	82.7978
1643.63	83.8016
1645.16	85.1706
1646.7	86.6897
1648.23	87.5639
1649.76	88.7272
1651.29	89.9197
1652.82	91.2348
1654.36	92.3665
1655.89	92.2197
1657.42	93.256
1658.95	93.4219
1660.48	94.0251
1662.01	93.5699
1663.53	91.8064
1665.06	91.5792
1666.59	89.986
1668.12	88.6905
1669.65	86.6152
1671.18	83.7745
1672.7	80.8384
1674.23	78.5664
1675.76	76.4078
1677.29	74.218
1678.81	71.7979
1680.34	68.062
1681.86	65.1983
1683.39	60.6959
1684.91	57.6209
1686.44	53.8789
1687.96	50.2726
1689.49	47.8324
1691.01	45.125
1692.54	42.6306
1694.06	40.874
1695.58	38.7595
1697.11	36.3499
1698.63	32.8821
1700.15	31.343
1701.67	29.2691
1703.2	27.7055
1704.72	26.0208
1706.24	23.9063
1707.76	22.6348
1709.28	21.6677
1710.8	20.6019
1712.32	18.6653
1713.84	16.2026
1715.36	14.3545
1716.88	12.3695
1718.4	11.52
1719.91	9.63389
1721.43	7.88931
1722.95	7.73385
1724.47	6.23816
1725.99	4.98539
1727.5	3.87656
1729.02	3.78724
1730.54	2.99706
1732.05	3.30327
1733.57	4.16859
1735.09	3.87439
1736.6	4.23945
1738.12	3.41635
1739.63	2.75463
1741.15	3.42995
1742.66	2.76325
1744.18	1.7324
1745.69	1.57371
1747.2	1.31416
1748.72	1.05533
1750.23	0.980767
1751.74	1.05042
1753.25	0.320818
1754.77	0.340301
1756.28	0.00532468
1757.79	-0.0075824
1759.3	0.44637
1760.81	0.812529
1762.32	0.659044
1763.83	1.21843
1765.34	1.79171
1766.85	2.22022
1768.36	1.96958
1769.87	2.16129
1771.38	1.74313
1772.89	2.08638
1774.4	1.95677
1775.91	2.537
1777.41	2.5434
1778.92	2.06716
1780.43	1.94701
1781.94	1.5264
1783.44	2.41968
1784.95	1.8245
1786.45	1.22409
1787.96	0.808828
1789.47	1.11129
1790.97	0.941254
1792.47	1.75186
1793.98	1.87446
1795.48	1.69307
1796.99	1.75277
1798.49	2.38333
1800	2.08672
1801.5	2.54989
1803	3.00978
1804.51	3.79557
1806.01	4.73421
1807.51	5.06707
1809.01	4.67272
1810.51	4.59419
1812.02	4.62506
1813.52	4.5803
1815.02	4.60847
1816.52	3.91999
1818.02	3.64353
1819.52	3.559
1821.02	4.00795
1822.52	3.97019
1824.02	3.79523
1825.51	3.88488
1827.01	3.84322
1828.51	3.8626
1830.01	3.86111
1831.51	3.36575
1833	3.67062
1834.5	3.96871
1836	3.84928
1837.49	3.80238
1838.99	4.25251
1840.49	3.84542
1841.98	3.78714
1843.48	3.41197
1844.97	3.79286
1846.47	4.00811
1847.96	3.98134
1849.46	3.46265
1850.95	3.37546
1852.45	3.60692
1853.94	3.87717
1855.43	4.79819
1856.92	4.62638
1858.42	4.79417
1859.91	4.40634
1861.4	4.67399
1862.89	5.54963
1864.39	6.01779
1865.88	5.92089
1867.37	6.67638
1868.86	6.34152
1870.35	6.94942
1871.84	7.70415
1873.33	7.02144
1874.82	7.04259
1876.31	7.18519
1877.8	7.16781
1879.29	7.41999
1880.77	7.14409
1882.26	6.59057
1882.52	6.64617
1884.02	6.8308
1885.51	6.9608
1887.01	7.13715
1888.5	6.39693
1889.99	6.51346
1891.49	7.0342
1892.98	6.89441
1894.47	6.7642
1895.96	6.54476
1897.46	6.196
1898.95	6.237
1900.44	5.94911
1901.93	5.84393
1903.42	5.49049
1904.91	5.88187
1906.4	6.14857
1907.89	6.48899
1909.38	7.16058
1910.87	7.05705
1912.36	7.68109
1913.85	7.79793
1915.34	8.41975
1916.83	8.35742
1918.32	9.26125
1919.8	9.47151
1921.29	10.2693
1922.78	9.88743
1924.27	10.6723
1925.75	9.98299
1927.24	9.95343
1928.73	9.7736
1930.21	8.7082
1931.7	8.31197
1933.18	8.30051
1934.67	7.89972
1936.15	7.79124
1937.64	7.2226
1939.12	5.91324
1940.61	5.91026
1942.09	4.73923
1943.57	4.85557
1945.06	4.21087
1946.54	3.04002
1948.02	2.99883
1949.51	3.06822
1950.99	3.05118
1952.47	2.49094
1953.95	2.91964
1955.43	3.45569
1956.91	3.86265
1958.39	4.51423
1959.87	4.05617
1961.36	3.5336
1962.84	3.06332
1964.32	3.64586
1965.79	4.16821
1967.27	4.17868
1968.75	3.81111
1970.23	4.24269
1971.71	3.80165
1973.19	4.00426
1974.66	4.32873
1976.14	4.52225
1977.62	4.78165
1979.1	5.64362
1980.57	5.81189
1982.05	5.89031
1983.53	5.98443
1985	5.36624
1986.48	6.38616
1987.95	6.47366
1989.43	6.94119
1990.9	7.26519
1992.38	8.2529
1993.85	8.23821
1995.33	8.76862
1996.8	8.13105
1998.27	9.40559
1999.75	9.27167
2001.22	9.65398
2002.69	8.74227
2004.16	8.153
2005.64	8.28341
2007.11	9.15816
2008.58	9.33329
2010.05	9.65825
2011.52	9.43082
2012.99	9.52953
2014.46	10.5882
2015.93	10.6454
2017.4	10.8217
2018.87	11.936
2020.34	12.3059
2021.81	12.724
2023.28	13.7451
2024.75	14.2947
2026.22	13.8358
2027.69	14.0779
2029.15	14.2268
2030.62	14.0441
2032.09	13.6898
2033.56	12.7645
2035.02	12.4454
2036.49	12.5317
2037.95	12.6529
2039.42	12.781
2040.89	11.9883
2042.35	12.2817
2043.82	12.5876
2045.28	12.0516
2046.75	12.0223
2048.21	11.6304
2049.67	10.3335
2051.14	10.3801
2052.6	9.94701
2054.06	9.31772
2055.53	8.78298
2056.99	8.61363
2058.45	9.13549
2059.92	9.64729
2061.38	10.0287
2062.84	10.8204
2064.3	11.1309
2065.76	12.0999
2067.22	12.5765
2068.68	12.8947
2070.14	12.8174
2071.6	13.8266
2073.06	12.8439
2074.52	12.2556
2075.98	12.4392
2077.44	13.1632
2078.9	13.3855
2080.36	14.2988
2081.82	14.6056
2083.27	14.5709
2084.73	15.5697
2086.19	16.5501
2087.65	16.8304
2089.1	17.1121
2090.56	17.1617
2092.01	17.7971
2093.47	17.3729
2094.93	16.835
2096.38	17.0697
2097.84	16.0936
2099.29	16.1757
2100.75	16.8883
2102.2	16.6354
2103.66	16.6738
2105.11	16.6666
2106.56	17.4249
2108.02	17.6624
2109.47	18.6766
2110.92	18.8363
2112.37	19.7343
2113.83	20.2555
2115.28	20.5649
2116.73	20.8508
2118.18	21.6051
2119.63	21.7326
2121.09	22.3704
2122.54	22.5798
2123.99	23.6074
2125.44	23.5296
2126.89	24.3349
2128.34	25.3078
2129.79	26.3322
2131.23	27.5382
2132.68	27.9084
2134.13	28.9428
2135.58	29.4436
2137.03	29.6068
2138.48	30.3201
2139.92	31.1625
2141.37	31.6284
2142.82	32.6159
2144.26	33.6585
2145.71	34.3408
2147.16	36.0577
2148.6	37.6158
2150.05	38.7598
2151.49	40.5029
2152.94	42.5051
2154.38	42.7923
2155.83	43.6123
2157.27	44.7586
2158.72	44.2083
2160.16	44.4349
2161.6	44.5789
2163.05	44.2499
2164.49	44.9964
2165.93	45.304
2167.38	45.7838
2168.82	46.529
2170.26	46.5036
2171.7	47.9779
2173.14	48.201
2174.58	47.3123
2176.03	48.2792
2177.47	49.0795
2178.91	49.3075
2180.35	49.1434
2181.79	48.9472
2183.23	48.9382
2184.67	49.3537
2186.1	49.3151
2187.54	48.7585
2188.98	49.0498
2190.42	48.4285
2191.86	47.2507
2193.3	46.4874
2194.73	45.1393
2196.17	44.1958
2197.61	42.7214
2199.05	41.4689
2200.48	40.3445
2201.92	39.3787
2203.35	38.8914
2204.79	37.6212
2206.22	36.5815
2207.66	35.6771
2209.09	34.8669
2210.53	33.8294
2211.96	33.0009
2213.4	31.8456
2214.83	31.0774
2216.27	30.6764
2217.7	30.5167
2219.13	30.0397
2220.56	29.7134
2222	28.3791
2223.43	27.9402
2224.86	25.9765
2226.29	24.0979
2227.72	24.3312
2229.16	23.1914
2230.59	21.8777
2232.02	21.7953
2233.45	21.6208
2234.88	20.8382
2236.31	21.6446
2237.74	21.1585
2239.17	20.5316
2240.6	20.1035
2242.03	19.7827
2243.45	19.738
2244.88	19.1932
2246.31	18.7488
2247.74	19.4031
2249.17	19.3427
2250.59	18.7044
2252.02	18.482
2253.45	17.9439
2254.87	18.5649
2256.3	17.9155
2257.73	17.2017
2259.15	16.2301
2260.58	16.3332
2262	16.506
2263.43	15.8752
2264.85	16.0471
2266.28	15.3963
2267.7	15.0759
2269.13	14.3131
2270.55	14.7355
2271.97	15.183
2273.4	15.4824
2274.82	15.3905
2276.24	14.3708
2277.66	13.812
2279.09	13.1153
2280.51	12.6893
2281.93	11.9278
2283.35	11.7182
2284.77	11.833
2286.19	12.0104
2287.61	12.9323
2289.04	12.521
2290.46	12.0663
2291.88	11.4259
2293.29	10.6055
2294.71	10.2623
2296.13	9.48341
2297.55	10.6417
2298.97	10.9808
2300.39	10.895
2301.81	10.982
2303.23	11.7623
2304.64	11.9838
2306.06	11.9774
2307.48	13.1001
2308.89	12.6192
2310.31	13.1656
2311.73	13.7371
2313.14	13.6576
2314.56	14.0259
2315.97	15.0759
2317.39	15.1401
2318.8	15.4309
2320.22	15.5369
2321.63	15.2534
2323.05	15.0833
2324.46	15.7204
2325.88	16.2758
2327.29	16.5448
2328.7	17.317
2330.12	17.8616
2331.53	18.7808
2332.94	18.9434
2334.35	18.032
2335.76	18.2361
2337.18	17.4377
2338.59	17.7776
2340	17.7283
2341.41	17.4323
2342.82	16.1652
2344.23	15.6336
2345.64	14.4097
2347.05	12.6331
2348.46	11.3483
2349.87	10.7465
2351.28	10.2915
2352.69	9.11774
2354.1	8.14461
2355.5	7.63232
2356.91	6.82448
2358.32	5.69211
2359.73	4.17196
2361.14	3.27119
2362.54	3.11323
2363.95	2.87642
2365.36	2.88423
2366.76	4.16879
2368.17	4.67117
2369.58	4.32763
2370.98	4.5659
2372.39	3.59936
2373.79	3.48855
2375.2	3.54269
2376.6	3.61626
2378	3.61939
2379.41	3.4844
2380.81	3.09661
2382.22	2.98066
2383.62	3.30039
2385.02	3.54312
2386.42	3.89671
2387.83	4.07958
2389.23	4.59931
2390.63	5.11601
2392.03	5.58902
2393.43	6.99298
2394.84	8.45176
2396.24	8.87426
2397.64	9.29215
2399.04	9.7697
2400.44	9.28801
2401.84	10.0217
2403.24	9.60056
2404.64	9.28843
2406.04	9.68125
2407.44	10.1199
2408.83	10.6473
2410.23	10.2597
2411.63	9.63007
2413.03	9.8413
2414.43	9.9085
2415.83	9.82734
2417.22	10.1064
2418.62	10.064
2420.02	10.2147
2421.41	9.42634
2422.81	9.12852
2424.21	8.70124
2425.6	8.43524
2427	8.55275
2428.39	8.26343
2429.79	7.92642
2431.18	8.31669
2432.58	8.35733
2433.97	7.63754
2435.36	7.94231
2436.76	8.22463
2438.15	7.19872
2439.54	6.78639
2440.94	6.32562
2442.33	5.83419
2443.72	6.31086
2445.11	6.4813
2446.51	6.42001
2447.9	6.51668
2449.29	6.41855
2450.68	6.79137
2452.07	6.84735
2453.46	7.07688
2454.85	7.2072
2456.24	8.46273
2457.63	9.2291
2459.02	9.68817
2460.41	10.2251
2461.8	10.2119
2463.19	10.5854
2464.58	10.7924
2465.97	10.3176
2467.36	10.0134
2468.75	9.6909
2470.13	9.44207
2471.52	10.3005
2472.91	9.2827
2474.29	9.3295
2475.68	9.45281
2477.07	9.14416
2478.45	9.08804
2479.84	8.30327
2481.22	7.42468
2482.61	6.95217
2484	6.53317
2485.38	6.89657
2486.77	6.64615
2488.15	5.95961
2489.54	5.95177
2490.92	5.2062
2492.3	4.67023
2493.69	4.14888
2495.07	3.84545
2496.45	4.13446
2497.84	3.7115
2499.22	3.30194
2500.6	3.9083
2501.98	3.47019
2503.36	2.35065
2504.74	2.53248
2506.13	2.73668
2507.51	2.49364
2508.89	2.6765
2510.27	2.92137
2511.65	3.32157
2513.03	3.73128
2514.41	3.99974
2515.79	4.40228
2517.17	5.32193
2518.55	5.44361
2519.93	6.31042
2521.3	6.93882
2522.68	8.43883
2524.06	9.17132
2525.44	9.96771
2526.82	9.891
2528.19	9.90425
2529.57	9.7805
2530.95	9.55724
2532.32	9.43138
2533.7	9.86545
2535.08	9.47165
2536.45	9.82307
2537.83	10.1574
2539.2	10.5754
2540.58	10.7001
2541.95	10.1797
2543.33	10.8803
2544.7	11.158
2546.08	11.2134
2547.45	11.918
2548.82	11.1681
2550.2	11.5579
2551.57	12.6506
2552.94	13.1943
2554.32	13.5206
2555.69	13.7886
2557.06	13.6666
2558.43	13.4987
2559.8	13.1408
2561.17	12.9388
2562.55	12.8684
2563.92	12.6789
2565.29	13.2911
2566.66	13.0145
2568.03	13.1145
2569.4	13.1838
2570.77	12.8229
2572.14	12.1461
2573.51	12.9186
2574.88	12.9769
2576.24	12.9746
2577.61	13.1242
2578.98	13.193
2580.35	13.3084
2581.72	12.9092
2583.09	13.1763
2584.45	12.9104
2585.82	13.2351
2587.19	12.184
2588.55	12.2133
2589.92	12.223
2591.28	11.6556
2592.65	11.1058
2594.02	11.0924
2595.38	10.9229
2596.75	10.7607
2598.11	10.6497
2599.48	10.8756
2600.84	11.3796
2602.2	11.2526
2603.57	10.5048
2604.93	10.6398
2606.3	10.2552
2607.66	9.88267
2609.02	9.58352
2610.38	8.89072
2611.75	9.14149
2613.11	8.95444
2614.47	9.63362
2615.83	9.13724
2617.19	8.60746
2618.56	8.43479
2619.92	8.60423
2621.28	8.61876
2622.64	9.0269
2624	8.71959
2625.36	8.42986
2626.72	8.36496
2628.08	8.30213
2629.44	8.07585
2630.8	8.01139
2632.15	8.49906
2633.51	8.72475
2634.87	8.83698
2636.23	8.82554
2637.59	8.43135
2638.94	8.68304
2640.3	8.43876
2641.66	8.03606
2643.02	8.05612
2644.37	8.48227
2645.73	8.46403
2647.08	8.68894
2648.44	9.25217
2649.8	8.97749
2651.15	9.47419
2652.51	8.92337
2653.86	9.19162
2655.22	8.92191
2656.57	8.89703
2657.92	9.26682
2659.28	10.0132
2660.63	10.3996
2661.99	10.6595
2663.34	10.7086
2664.69	10.5192
2666.04	10.2416
2667.4	10.0403
2668.75	10.0726
2670.1	9.08233
2671.45	9.74644
2672.81	9.9748
2674.16	9.50226
2675.51	9.39198
2676.86	10.0922
2678.21	11.3242
2679.56	11.7671
2680.91	11.5213
2682.26	10.957
2683.61	9.87027
2684.96	10.3734
2686.31	11.0864
2687.66	11.2036
2689	10.9667
2690.35	10.3429
2691.7	9.72528
2693.05	10.1827
2694.4	10.6209
2695.74	10.7906
2697.09	10.9206
2698.44	11.3526
2699.79	12.2581
2701.13	12.459
2702.48	13.0329
2703.82	13.2527
2705.17	13.9606
2706.52	15.0381
2707.86	14.838
2709.21	15.0062
2710.55	15.8528
2711.9	16.4006
2713.24	16.8146
2714.58	16.4692
2715.93	16.4719
2717.27	16.2552
2718.61	16.6964
2719.96	16.8787
2721.3	16.8754
2722.64	16.8381
2723.99	16.3302
2725.33	16.034
2726.67	15.8593
2728.01	15.3007
2729.35	14.6218
2730.7	13.7267
2732.04	12.9616
2733.38	12.9364
2734.72	12.5418
2736.06	11.9353
2737.4	11.0841
2738.74	10.3492
2740.08	9.79105
2741.42	9.02464
2742.76	8.96918
2744.09	8.60977
2745.43	7.89441
2746.77	6.33046
2748.11	5.52374
2749.45	4.49554
2750.79	3.84286
2752.12	3.69466
2753.46	2.78377
2754.8	2.00466
2756.13	1.8432
2757.47	1.92283
2758.81	1.77395
2760.14	1.91928
2761.48	2.0872
2762.81	1.35702
2764.15	1.18898
2765.49	1.35713
2766.82	1.86483
2768.15	1.3751
2769.49	0.970405
2770.82	0.575302
2772.16	0.700457
2773.49	0.170123
2774.82	-0.392852
2776.16	-0.391273
2777.49	0.19297
2778.82	0.428614
2780.16	0.691097
2781.49	0.639652
2782.82	1.40179
2784.15	1.35359
2785.48	1.17863
2786.81	1.13845
2788.15	0.65278
2789.48	0.32414
2790.81	-0.204076
2792.14	-0.774024
2793.47	-0.596702
2794.8	-0.238426
2796.13	-0.663342
2797.46	-0.616828
2798.79	-0.390771
2800.12	-0.552416
2801.44	-0.585776
2802.77	0.0166398
2804.1	0.780419
2805.43	0.772945
2806.76	1.4516
2808.08	1.16056
2809.41	0.999879
2810.74	0.552848
2812.07	0.891476
2813.39	0.720184
2814.72	0.631232
2816.05	1.11453
2817.37	2.39224
2818.7	3.60389
2820.02	4.14538
2821.35	5.46562
2822.67	6.45845
2824	8.03734
2825.32	9.80783
2826.65	12.2128
2827.97	14.1819
2829.29	16.6744
2830.62	19.3638
2831.94	21.9293
2833.26	25.1807
2834.59	27.8485
2835.91	30.9947
2837.23	34.9895
2838.55	39.1573
2839.88	43.5384
2841.2	49.0348
2842.52	54.2178
2843.84	61.2603
2845.16	67.1911
2846.48	73.6448
2847.8	80.4911
2849.12	87.4387
2850.44	94.8856
2851.76	102.609
2853.08	110.1
2854.4	117.287
2855.72	124.582
2857.04	132.231
2858.36	139.152
2859.68	147.043
2861	154.742
2862.32	161.757
2863.63	168.455
2864.95	175.171
2866.27	181.91
2867.58	188.935
2868.9	194.427
2870.22	199.715
2871.53	204.522
2872.85	209.248
2874.17	213.102
2875.48	217.041
2876.8	220.57
2878.11	224.331
2879.43	227.39
2880.74	229.694
2882.06	232.844
2883.37	235.721
2884.69	238.164
2886	240.724
2887.31	243.59
2888.63	245.895
2889.94	248.775
2891.25	251.126
2892.57	253.33
2893.88	256.021
2895.19	259.421
2896.5	262.51
2897.82	266.417
2899.13	270.872
2900.44	275.623
2901.75	280.339
2903.06	285.61
2904.37	291.044
2905.68	298.109
2906.99	304.265
2908.3	311.909
2909.61	319.999
2910.92	328.098
2912.23	335.957
2913.54	344.05
2914.85	351.765
2916.16	359.256
2917.46	366.112
2918.77	373.113
2920.08	379.58
2921.39	385.648
2922.7	391.61
2924	396.271
2925.31	401.188
2926.62	405.193
2927.92	407.972
2929.23	409.502
2930.53	411.214
2931.84	411.316
2933.15	410.667
2934.45	409.19
2935.76	407.359
2937.06	404.815
2938.37	401.625
2939.67	397.252
2940.98	392.809
2942.28	387.649
2943.58	382.164
2944.89	375.701
2946.19	369.331
2947.49	363.401
2948.8	356.55
2950.1	349.888
2951.4	342.077
2952.7	334.333
2954.01	326.408
2955.31	319.058
2956.61	311.278
2957.91	303.858
2959.21	296.296
2960.51	289.1
2961.81	281.96
2963.11	274.418
2964.41	267.267
2965.71	260.116
2967.01	252.349
2968.31	245.384
2969.61	238.795
2970.91	232.835
2972.21	226.907
2973.51	221.983
2974.81	215.649
2976.1	209.405
2977.4	201.519
2978.7	194.772
2980	187.641
2981.29	180.544
2982.59	173.23
2983.89	166.509
2985.18	159.555
2986.48	152.426
2987.78	144.869
2989.07	137.451
2990.37	130.478
2991.66	122.703
2992.96	114.968
2994.25	107.989
2995.55	101.16
2996.84	94.2783
2998.14	88.0751
2999.43	81.6528
3000.72	74.9292
3002.02	69.104
3003.31	62.6114
3004.6	56.7092
3005.9	51.0276
3007.19	46.5122
3008.48	41.3352
3009.77	36.6556
3011.07	33.2027
3012.36	29.3515
3013.65	26.0436
3014.94	23.2906
3016.23	19.9329
3017.52	17.5738
3018.81	15.7835
3020.1	13.5382
3021.39	11.3879
3022.68	9.75394
3023.97	7.72944
3025.26	6.94514
3026.55	5.51713
3027.84	4.32204
3029.13	3.99067
3030.42	3.2623
3031.71	3.07025
3033	3.11734
3034.28	2.91773
3035.57	3.56087
3036.86	4.09845
3038.15	4.31672
3039.43	3.70227
3040.72	3.38659
3042.01	3.78456
3043.29	4.70333
3044.58	5.44978
3045.86	5.96176
3047.15	7.25963
3048.44	8.2343
3049.72	9.07736
3051.01	9.307
3052.29	10.3643
3053.58	11.4141
3054.86	12.2782
3056.14	11.8445
3057.43	12.3346
3058.71	12.5281
3060	12.5722
3061.28	12.8573
3062.56	12.1863
3063.84	11.3221
3065.13	10.576
3066.41	10.3253
3067.69	9.70285
3068.97	9.58529
3070.25	9.34199
3071.54	9.51379
3072.82	8.76799
3074.1	8.32117
3075.38	8.31601
3076.66	8.04067
3077.94	8.01036
3079.22	7.64924
3080.5	6.98683
3081.78	6.41613
3083.06	5.33604
3084.34	3.81721
3085.62	3.21942
3086.9	2.42963
3088.17	1.62712
3089.45	1.87851
3090.73	0.881437
3092.01	0.739953
3093.29	0.861093
3094.56	0.0756543
3095.84	-0.2383
3097.12	-0.429184
3098.4	-0.060497
3099.67	0.488405
3100.95	0.518313
3102.22	1.17913
3103.5	1.11189
3104.77	1.7485
3106.05	2.34976
3107.33	2.51812
3108.6	3.29487
3109.88	3.88998
3111.15	4.73561
3112.43	5.20729
3113.7	6.01306
3114.97	6.58879
3116.25	8.03539
3117.52	8.39931
3118.79	9.35414
3120.07	9.46648
3121.34	10.7968
3122.61	11.8828
3123.88	13.0069
3125.16	13.6034
3126.43	13.8266
3127.7	15.024
3128.97	16.2985
3130.24	18.0562
3131.51	19.5827
3132.78	21.2651
3134.05	22.99
3135.33	24.3933
3136.59	26.0818
3137.86	27.7211
3139.14	29.5534
3140.41	31.0668
3141.67	32.441
3142.94	33.6574
3144.21	35.0261
3145.48	36.5986
3146.75	38.5984
3148.02	40.1552
3149.28	41.3777
