#Acq. time (s)=	45
#Accumulations=	2
#Range (cm-¹)=	200...3150
#Windows=	2
#Auto scanning=	Off
#Autofocus=	Off
#Macrospot=	Off
#AutoExposure=	Off
#Spike filter=	Multiple accum.
#Delay time (s)=	0
#Binning=	1
#Readout mode=	Signal
#DeNoise=	Off
#ICS correction=	On
#Dark correction=	Off
#Inst. Process=	Off
#Detector Gain=	Best Dynamic Range
#Detector ADC=	20 kHz       
#Detector temperature (°C)=	-70.08
#Instrument=	LabRAM HR Evol
#Detector=	Synapse
#Objective=	x100
#Grating=	600 gr/mm
#ND Filter=	100%
#Laser (nm)=	532 
#Hole=	100.021
#Range=	Auto
#Laser Pol.=	No
#Raman. Pol.=	No
#Laser Pol. (°)=	-0.0007625
#Raman Pol. (°)=	89.9995
#Collection=	Microscope
#StageXY=	Marzhauser
#StageZ=	Marzhauser
#X (µm)=	-2399.5
#Y (µm)=	2138.1
#Z (µm)=	-40.55
#Full time(mm:ss)=	3:18
#Project=	
#Sample=	
#Site=	
#Title=	Mb_10_14_03_2x_45s_532 nm_x100_100%_600 gr_mm
#Remark=	
#Date=	07.07.2022 13:38
#Acquired=	07.07.2022 13:38:33
#Edit:Spike=	07.07.2022 13:41:27
#Base:Fit=	10.08.2022 10:21:11
#Base:Sub=	10.08.2022 10:21:41
#Filter:Polynom=	16.08.2022 10:17:53
#AxisType[0]=Intens
#AxisUnit[0]=Cnt
#AxisType[1]=Spectr
#AxisUnit[1]=1/cm
200.43	39.81
202.246	35.5227
204.061	31.3893
205.875	27.0123
207.688	23.1663
209.501	19.5775
211.316	16.6234
213.129	13.9553
214.941	13.2071
216.753	12.4324
218.566	11.9354
220.377	11.7973
222.188	10.8335
223.999	10.7291
225.809	12.7665
227.618	14.9496
229.43	16.2373
231.239	17.8548
233.047	18.1917
234.855	19.1496
236.663	20.2865
238.471	21.1254
240.278	21.9889
242.087	23.3774
243.894	23.3269
245.7	22.8694
247.506	23.7972
249.311	24.0849
251.116	25.6962
252.921	26.7099
254.725	27.0281
256.529	28.7177
258.333	29.1751
260.136	28.5536
261.939	28.7068
263.744	29.6587
265.546	29.5487
267.348	28.8976
269.15	27.6603
270.951	26.1082
272.752	24.9366
274.552	23.2564
276.353	22.2694
278.152	22.0582
279.952	20.0542
281.751	20.0937
283.55	19.4868
285.348	19.0817
287.146	18.9438
288.942	17.2055
290.739	15.9365
292.536	15.0425
294.333	14.0874
296.129	12.8975
297.925	11.7424
299.721	11.734
301.516	11.5433
303.311	11.2947
305.106	11.8972
306.9	11.4634
308.694	10.5513
310.486	11.0461
312.279	11.9305
314.072	12.8053
315.864	13.8437
317.656	13.3332
319.448	13.0742
321.24	13.419
323.029	12.8606
324.819	12.6272
326.61	13.0034
328.4	12.4906
330.19	12.4013
331.977	11.9395
333.766	11.3676
335.555	12.0502
337.343	12.6925
339.131	12.5624
340.917	13.4617
342.704	12.368
344.491	11.4023
346.277	11.1923
348.062	9.92325
349.848	10.0707
351.633	10.9411
353.416	12.3863
355.201	12.2886
356.986	12.4712
358.77	12.5961
360.552	13.4588
362.335	14.6003
364.118	15.6464
365.899	17.0576
367.682	18.5179
369.464	19.2781
371.243	20.4204
373.025	20.965
374.806	21.59
376.585	22.1316
378.365	21.6422
380.143	21.8654
381.923	23.0921
383.702	23.2584
385.479	23.4801
387.258	24.7698
389.034	26.0139
390.812	26.1978
392.59	26.6389
394.365	27.3198
396.142	27.4145
397.916	28.214
399.693	28.515
401.467	28.161
403.242	27.2055
405.015	26.7553
406.79	25.8484
408.565	25.793
410.337	25.35
412.111	23.8773
413.882	22.8976
415.656	22.2202
417.426	20.9733
419.197	20.5019
420.969	19.3972
422.739	19.0152
424.51	17.2311
426.279	14.5266
428.05	13.5632
429.819	11.7168
431.589	10.2668
433.356	8.73945
435.124	8.00847
436.893	7.38053
438.66	7.09997
440.428	6.84095
442.194	6.98472
443.96	5.08943
445.727	4.12344
447.492	2.80302
449.259	2.60727
451.023	2.34068
452.787	2.0582
454.553	2.6026
456.316	2.36446
458.079	1.67743
459.844	2.17404
461.606	1.68996
463.368	2.56339
465.132	2.85458
466.893	3.68833
468.654	4.3508
470.415	5.32031
472.177	4.74329
473.937	5.29871
475.696	6.07071
477.456	7.10279
479.217	7.3676
480.975	8.39933
482.733	9.50209
484.491	10.2897
486.251	10.4558
488.008	10.4542
489.765	11.8643
491.522	12.6503
493.278	13.7281
495.036	14.3143
496.791	14.6364
498.546	15.2171
500.301	14.515
502.056	14.7042
503.81	15.0248
505.566	15.0809
507.319	15.097
509.073	14.7201
510.825	14.9581
512.578	14.9477
514.33	14.406
516.082	15.5546
517.833	14.5607
519.587	15.5687
521.337	15.2219
523.088	16.1462
524.838	16.1112
526.588	16.5107
528.337	16.4899
530.087	16.2466
531.835	15.3089
533.584	14.4115
535.332	13.854
537.08	14.0522
538.827	14.1351
540.574	13.8436
542.321	13.5847
544.068	13.0412
545.814	12.1711
547.56	12.0957
549.305	11.8633
551.05	11.9946
552.795	11.3498
554.54	10.6665
556.284	9.42069
558.027	9.08947
559.771	8.22433
561.514	7.95468
563.257	7.79832
564.999	7.86355
566.742	7.40048
568.481	7.33445
570.223	6.44985
571.964	5.91838
573.705	4.98444
575.445	5.82554
577.185	6.21789
578.925	5.27886
580.665	4.76129
582.402	3.63803
584.141	3.20908
585.879	3.87052
587.617	3.24408
589.355	3.77336
591.092	4.01548
592.828	4.36633
594.564	5.22996
596.301	5.9561
598.037	7.32485
599.773	7.5375
601.506	7.24428
603.242	9.11293
604.976	9.44167
606.711	10.4346
608.443	10.6695
610.177	11.4666
611.91	11.6938
613.644	12.3393
615.374	11.261
617.107	11.4042
618.839	11.1543
620.569	11.2081
622.3	11.8269
624.032	12.7357
625.761	13.9566
627.491	15.1404
629.221	15.9206
630.949	17.2744
632.679	17.3605
634.408	18.963
636.135	19.7775
637.863	19.0277
639.592	19.1014
641.318	18.5302
643.045	18.755
644.77	18.893
646.497	19.2135
648.224	19.5688
649.948	19.7207
651.674	19.8857
653.398	20.4599
655.123	19.9467
656.846	19.2081
658.57	18.8684
660.293	19.1142
662.017	19.7547
663.738	18.972
665.462	18.6473
667.185	18.7732
668.905	19.7973
670.628	20.4368
672.348	20.7477
674.067	20.8163
675.789	21.8334
677.508	22.7162
679.228	23.9692
680.947	25.4606
682.667	26.0626
684.385	26.4157
686.104	26.7861
687.821	27.8464
689.538	28.3983
691.256	27.6867
692.972	28.5684
694.69	29.3671
696.406	29.1176
698.121	30.0663
699.837	30.3681
701.552	30.4171
703.268	31.7235
704.982	32.6717
706.695	33.2096
708.41	33.7914
710.123	34.9932
711.836	35.2584
713.55	35.2987
715.262	35.3027
716.973	35.2949
718.685	34.316
720.398	33.7485
722.108	33.8597
723.818	32.929
725.53	33.3629
727.24	34.4764
728.949	34.8385
730.658	35.3205
732.369	35.7068
734.077	35.6802
735.785	35.7546
737.493	36.1004
739.2	36.6901
740.909	36.4651
742.616	37.2506
744.322	38.1362
746.028	39.5916
747.734	41.1545
749.441	42.4586
751.146	44.2623
752.851	44.6016
754.555	46.5348
756.26	47.2881
757.963	48.8681
759.667	51.0932
761.372	53.0863
763.075	55.1513
764.777	56.9341
766.479	57.9899
768.181	58.2233
769.883	59.3268
771.584	60.9641
773.285	61.982
774.986	63.0904
776.686	64.4559
778.386	65.9987
780.085	66.3013
781.785	66.6768
783.484	68.0872
785.182	67.8267
786.881	68.5229
788.579	69.7491
790.276	69.6662
791.974	68.374
793.671	68.5976
795.367	68.2297
797.064	67.6027
798.76	67.9648
800.456	67.9966
802.151	67.9273
803.846	68.955
805.541	69.7563
807.236	71.5653
808.93	72.5796
810.624	73.5774
812.317	74.1803
814.01	73.5838
815.703	73.5784
817.394	73.7861
819.086	74.5448
820.778	74.8621
822.47	75.0518
824.161	75.5783
825.852	75.3674
827.543	75.5273
829.231	74.708
830.921	74.9653
832.611	73.9172
834.3	73.0607
835.989	71.3499
837.676	70.7642
839.364	70.8002
841.053	70.0662
842.74	69.1785
844.426	68.055
846.113	66.2688
847.8	65.5516
849.486	64.555
851.171	64.3498
852.857	62.8673
854.542	61.4083
856.227	61.0674
857.911	60.4376
859.595	59.2207
861.279	58.1545
862.961	58.0413
864.645	57.4256
866.329	56.5672
868.01	55.6358
869.692	55.1615
871.375	55.1891
873.055	54.2044
874.737	52.7282
876.418	51.7402
878.097	52.6441
879.778	52.6118
881.457	52.7464
883.137	52.669
884.817	52.4055
886.495	53.3161
888.174	52.6205
889.851	52.3822
891.53	52.8383
893.206	52.1921
894.884	51.1148
896.562	50.4779
898.237	50.2072
899.914	50.0368
901.589	50.0151
903.265	49.7565
904.94	49.0439
906.615	48.6444
908.289	47.6951
909.964	47.234
911.637	46.3788
913.31	45.1336
914.984	44.5261
916.656	43.3737
918.33	42.7805
920.001	41.8593
921.674	41.9023
923.345	41.6961
925.015	41.8033
926.687	42.0208
928.357	41.6419
930.028	41.6348
931.698	42.0425
933.366	41.894
935.037	42.3362
936.705	40.8015
938.373	41.1942
940.043	42.1523
941.71	41.5801
943.379	40.4263
945.046	40.3092
946.712	40.6755
948.378	38.7318
950.046	38.6219
951.711	38.2887
953.376	38.5604
955.043	37.9417
956.708	37.2285
958.372	37.3971
960.036	36.3733
961.701	36.368
963.364	36.3365
965.027	36.0377
966.69	35.2078
968.354	34.3896
970.016	34.8378
971.678	33.6285
973.339	34.3477
975	34.5862
976.661	33.691
978.324	33.9036
979.984	33.6237
981.644	32.5018
983.303	32.2062
984.962	31.357
986.621	30.7721
988.282	30.1723
989.94	28.0963
991.598	26.862
993.256	26.2541
994.913	24.9665
996.57	24.7923
998.227	23.8694
999.884	23.6852
1001.54	23.8891
1003.2	23.7674
1004.85	22.784
1006.51	21.7207
1008.16	21.4025
1009.82	20.5367
1011.47	19.3682
1013.12	19.0233
1014.78	19.2327
1016.43	19.9806
1018.08	20.8247
1019.74	20.836
1021.39	22.2443
1023.04	23.7644
1024.69	24.5558
1026.34	25.818
1028	27.4574
1029.65	29.0461
1031.3	30.7365
1032.95	33.0139
1034.6	34.6788
1036.25	36.0591
1037.9	36.5063
1039.55	37.235
1041.19	38.9575
1042.84	39.1199
1044.49	40.8704
1046.14	41.8024
1047.79	41.3972
1049.43	40.7682
1051.08	40.7554
1052.73	41.8567
1054.37	40.7658
1056.02	40.2508
1057.66	39.6804
1059.31	38.4358
1060.95	37.5222
1062.6	35.9325
1064.24	33.7777
1065.88	32.7377
1067.53	30.713
1069.17	28.5118
1070.81	26.2701
1072.46	24.1273
1074.1	23.2986
1075.74	21.2089
1077.38	19.4585
1079.02	17.4523
1080.66	15.8586
1082.3	14.8139
1083.94	12.2639
1085.58	9.216
1087.22	6.80531
1088.86	6.15863
1090.5	7.13098
1092.14	7.27379
1093.78	6.64384
1095.42	7.64871
1097.05	8.49388
1098.69	9.21774
1100.33	10.5529
1101.97	10.7236
1103.6	11.9814
1105.24	11.6336
1106.87	10.976
1108.51	11.785
1110.15	12.5184
1111.78	12.7759
1113.41	13.2169
1115.05	12.92
1116.68	12.9191
1118.31	12.5504
1119.95	13.1044
1121.58	14.221
1123.21	14.0136
1124.85	13.1738
1126.48	13.6349
1128.11	13.6406
1129.74	12.8114
1131.37	13.1864
1133	13.367
1134.63	13.0349
1136.26	11.7639
1137.89	11.1123
1139.52	11.1289
1141.15	10.7614
1142.78	10.5343
1144.41	9.73792
1146.04	8.85028
1147.66	8.4558
1149.29	7.99436
1150.92	7.28132
1152.55	7.44499
1154.17	7.32059
1155.8	5.90806
1157.43	5.52212
1159.05	4.81461
1160.68	4.36258
1162.3	4.05331
1163.93	2.6338
1165.55	2.49498
1167.17	2.60607
1168.8	2.70877
1170.42	2.92735
1172.05	3.68615
1173.67	2.93636
1175.29	2.18047
1176.91	2.36971
1178.54	1.66148
1180.16	1.80029
1181.78	2.66964
1183.4	2.52553
1185.02	3.35441
1186.64	3.2551
1188.26	4.10312
1189.88	5.87537
1191.5	5.88736
1193.12	6.08922
1194.74	6.92273
1196.36	8.04542
1197.97	8.94435
1199.59	9.82194
1201.21	10.7273
1202.83	11.1821
1204.44	11.2347
1206.06	12.2951
1207.68	13.7188
1209.29	14.8695
1210.91	16.1309
1212.52	17.2823
1214.14	17.4104
1215.75	17.043
1217.37	17.3065
1218.98	17.9401
1220.6	19.5157
1222.21	20.8611
1223.82	20.875
1225.44	22.2561
1227.05	23.2266
1228.66	23.7517
1230.27	24.0865
1231.88	23.6685
1233.49	23.7191
1235.1	23.0951
1236.72	22.7736
1238.33	24.1584
1239.94	24.5086
1241.55	25.5607
1243.16	26.0767
1244.76	27.025
1246.37	27.9148
1247.98	27.6912
1249.59	28.0612
1251.2	28.3962
1252.8	29.2656
1254.41	29.2017
1256.02	29.7578
1257.63	30.7308
1259.23	31.2527
1260.84	32.2076
1262.44	32.5952
1264.05	32.5302
1265.66	32.7422
1267.26	33.0218
1268.87	33.4146
1270.47	34.7517
1272.07	34.3856
1273.68	34.8058
1275.28	35.0648
1276.88	35.6773
1278.48	35.9538
1280.09	36.625
1281.69	37.5382
1283.29	38.665
1284.89	38.7611
1286.49	39.7475
1288.09	40.57
1289.69	41.4171
1291.3	41.4803
1292.9	41.1308
1294.49	40.9288
1296.09	40.3673
1297.69	41.133
1299.29	41.4698
1300.89	41.7247
1302.49	41.448
1304.09	41.0543
1305.68	41.8223
1307.28	41.4172
1308.88	40.9774
1310.47	41.0978
1312.07	41.6794
1313.66	42.2276
1315.26	42.7743
1316.86	43.9124
1318.45	45.0314
1320.05	45.9245
1321.64	46.2547
1323.23	47.8946
1324.83	48.9366
1326.42	49.1739
1328.01	49.5169
1329.61	49.5957
1331.2	49.5746
1332.79	49.8195
1334.38	49.895
1335.98	49.2284
1337.57	48.613
1339.16	47.266
1340.75	46.439
1342.34	45.4135
1343.93	44.9974
1345.52	44.7305
1347.11	44.417
1348.7	45.0501
1350.29	44.6061
1351.87	43.1323
1353.46	42.5033
1355.05	41.7425
1356.64	41.6161
1358.23	40.7673
1359.81	40.779
1361.4	39.9785
1362.99	39.0759
1364.57	37.7948
1366.16	35.5048
1367.74	33.5941
1369.33	32.0953
1370.91	30.0633
1372.5	27.5461
1374.08	26.1981
1375.67	24.4036
1377.25	22.7517
1378.83	21.7583
1380.42	20.807
1382	20.3733
1383.58	20.3375
1385.16	19.8039
1386.75	19.6039
1388.33	19.1333
1389.91	18.9531
1391.49	18.8605
1393.07	18.0575
1394.65	18.6792
1396.23	18.6586
1397.81	19.4123
1399.39	20.5881
1400.97	21.3221
1402.55	22.6094
1404.13	23.0865
1405.7	24.0169
1407.28	25.8864
1408.86	26.8066
1410.44	27.7403
1412.01	28.7494
1413.59	30.6178
1415.17	32.366
1416.74	34.3927
1418.32	35.5472
1419.89	37.5326
1421.47	40.4047
1423.05	43.2147
1424.62	46.4124
1426.19	48.882
1427.77	50.9343
1429.34	52.8759
1430.92	55.2793
1432.49	58.0252
1434.06	60.407
1435.63	63.4915
1437.2	64.8625
1438.78	66.4876
1440.35	66.9065
1441.92	66.8521
1443.49	67.0383
1445.06	66.5437
1446.63	67.4786
1448.2	66.4976
1449.77	66.4884
1451.34	65.7366
1452.91	65.1252
1454.48	63.8974
1456.05	63.9053
1457.62	63.2702
1459.18	61.9882
1460.75	61.2519
1462.32	59.8119
1463.89	57.5785
1465.45	55.2617
1467.02	52.1878
1468.59	49.3879
1470.15	47.8533
1471.72	46.309
1473.28	45.3085
1474.85	43.5672
1476.41	42.9158
1477.98	41.3545
1479.54	39.6534
1481.11	38.364
1482.67	37.4267
1484.23	35.7055
1485.8	34.1579
1487.36	31.7142
1488.92	30.8208
1490.48	30.1776
1492.05	29.2233
1493.61	27.2209
1495.17	25.0633
1496.73	23.9053
1498.29	23.2987
1499.85	23.5172
1501.41	21.6924
1502.97	20.5685
1504.53	19.6108
1506.09	19.4098
1507.65	19.4647
1509.2	19.1279
1510.76	18.3476
1512.32	17.2071
1513.88	16.0509
1515.44	14.169
1516.99	13.6319
1518.55	12.6264
1520.1	11.7844
1521.66	11.185
1523.22	10.446
1524.77	9.67665
1526.33	9.52922
1527.88	10.788
1529.44	11.167
1530.99	11.5275
1532.55	12.1145
1534.1	13.0791
1535.65	12.005
1537.21	13.3207
1538.76	13.9343
1540.31	13.4312
1541.86	13.8498
1543.42	13.7269
1544.97	14.7215
1546.52	16.7046
1548.07	17.815
1549.62	18.3187
1551.17	18.9684
1552.72	18.7787
1554.27	19.2786
1555.82	20.0451
1557.37	20.0056
1558.92	20.0415
1560.47	20.2409
1562.02	20.2185
1563.57	20.9665
1565.11	21.5289
1566.66	22.4663
1568.21	21.5383
1569.75	21.8318
1571.3	22.187
1572.85	22.5734
1574.39	22.9806
1575.94	23.445
1577.49	24.3845
1579.03	22.8017
1580.58	23.9859
1582.12	24.7703
1583.67	25.5565
1585.21	25.4346
1586.75	25.8616
1588.3	26.2556
1589.84	26.4865
1591.38	26.0128
1592.93	27.1672
1594.47	27.91
1596.01	27.9358
1597.55	28.0433
1599.09	29.1353
1600.63	30.2879
1602.18	31.6737
1603.72	32.9192
1605.26	33.0179
1606.8	33.3587
1608.34	33.0402
1609.87	32.374
1611.41	32.9015
1612.95	32.5626
1614.49	33.797
1616.03	33.6455
1617.57	33.4517
1619.11	33.5445
1620.64	32.8134
1622.18	32.4807
1623.72	32.3935
1625.25	31.9689
1626.79	32.2058
1628.32	33.1562
1629.86	33.6805
1631.4	34.9202
1632.93	35.5968
1634.47	34.5138
1636	35.5259
1637.53	36.0634
1639.07	36.74
1640.6	37.5798
1642.14	37.6017
1643.67	37.7988
1645.2	37.2146
1646.73	39.0509
1648.27	40.1482
1649.8	40.0366
1651.33	40.4358
1652.86	41.3176
1654.39	42.0683
1655.92	42.3815
1657.45	44.2189
1658.98	44.2412
1660.51	44.8992
1662.04	44.5864
1663.57	44.4872
1665.1	44.4381
1666.63	43.1069
1668.16	42.351
1669.69	42.4151
1671.21	41.133
1672.74	40.2794
1674.27	39.3122
1675.79	38.7468
1677.32	37.3498
1678.85	35.7082
1680.37	34.1009
1681.9	32.2578
1683.42	31.1334
1684.95	29.3846
1686.47	27.1263
1688	25.7792
1689.52	24.0991
1691.05	22.1451
1692.57	20.2924
1694.1	18.0886
1695.62	15.2994
1697.14	13.1752
1698.66	11.4203
1700.19	10.3414
1701.71	9.52997
1703.23	8.40046
1704.75	7.27487
1706.27	5.79092
1707.79	4.25713
1709.32	3.02629
1710.83	1.60953
1712.35	1.21618
1713.88	0.243211
1715.39	-0.0186391
1716.91	-0.445124
1718.43	-1.20344
1719.95	-1.13864
1721.47	-1.67284
1722.99	-0.179683
1724.5	0.384936
1726.02	-0.657238
1727.54	0.110323
1729.06	0.613542
1730.57	1.24023
1732.09	1.6024
1733.61	1.82574
1735.12	1.42891
1736.64	1.72222
1738.15	1.09887
1739.67	1.5069
1741.18	1.79745
1742.7	1.73128
1744.21	1.86748
1745.72	2.03998
1747.24	1.83089
1748.75	2.43068
1750.26	2.86998
1751.78	3.2125
1753.29	3.76962
1754.8	4.3642
1756.31	5.32526
1757.82	5.05614
1759.34	4.93446
1760.85	4.75552
1762.36	4.0656
1763.87	4.78554
1765.38	5.09488
1766.89	5.31526
1768.4	4.73186
1769.91	4.05396
1771.41	3.67707
1772.92	3.67351
1774.43	3.90479
1775.94	3.57355
1777.45	3.71788
1778.96	3.32128
1780.46	3.54182
1781.97	3.84089
1783.48	3.46342
1784.98	2.93598
1786.49	2.66187
1788	2.65034
1789.5	3.00382
1791.01	3.50134
1792.51	3.25097
1794.01	3.1361
1795.52	3.92633
1797.02	4.20841
1798.53	4.44472
1800.03	3.87509
1801.54	2.88755
1803.04	3.11778
1804.54	3.06811
1806.04	3.18638
1807.54	3.12167
1809.05	2.9624
1810.55	2.98453
1812.05	2.8697
1813.55	2.78146
1815.05	3.18648
1816.55	2.76139
1818.05	3.61774
1819.55	3.54288
1821.05	3.9361
1822.55	3.96593
1824.05	4.46503
1825.55	4.54408
1827.05	4.08307
1828.55	4.29182
1830.04	4.69623
1831.54	4.526
1833.04	3.78614
1834.54	4.43855
1836.03	4.92695
1837.53	5.70424
1839.03	6.1657
1840.52	6.06354
1842.02	6.34307
1843.51	6.03561
1845.01	7.00933
1846.5	7.52466
1848	7.61221
1849.49	8.08206
1850.99	8.25112
1852.48	9.19439
1853.97	9.19876
1855.47	9.77281
1856.96	9.36761
1858.45	9.60312
1859.94	9.3179
1861.44	10.1349
1862.93	10.6935
1864.42	11.4545
1865.91	12.1718
1867.4	12.0162
1868.89	12.3659
1870.38	12.2812
1871.87	11.7708
1873.36	10.9686
1874.85	10.8633
1876.34	10.9461
1877.83	11.216
1879.32	10.6514
1880.81	10.4738
1882.3	10.469
1882.56	10.6181
1884.06	9.96658
1885.55	9.54363
1887.04	9.76663
1888.54	10.1504
1890.03	10.1142
1891.52	10.0014
1893.02	9.59007
1894.51	9.01366
1896	8.22617
1897.49	7.33143
1898.99	6.62028
1900.48	6.24283
1901.97	6.37947
1903.46	6.12584
1904.95	6.0931
1906.44	5.84136
1907.93	6.22408
1909.42	6.27462
1910.91	6.88798
1912.4	7.3266
1913.89	8.29974
1915.38	9.10564
1916.86	8.92207
1918.35	8.97051
1919.84	9.31867
1921.33	9.5084
1922.82	10.0294
1924.3	10.4553
1925.79	10.5753
1927.28	10.8473
1928.76	11.6144
1930.25	11.0512
1931.74	11.1641
1933.22	11.2836
1934.71	11.7213
1936.19	12.3054
1937.67	12.5643
1939.16	12.1882
1940.64	11.4118
1942.13	10.5488
1943.61	10.3216
1945.09	10.3282
1946.58	9.45779
1948.06	9.10242
1949.54	9.25257
1951.03	8.78485
1952.51	8.52986
1953.99	8.59069
1955.47	8.68169
1956.95	7.41839
1958.43	6.85118
1959.91	7.08108
1961.39	6.74667
1962.87	6.00714
1964.35	5.32057
1965.83	4.05569
1967.31	4.2836
1968.79	2.58536
1970.27	2.45595
1971.75	2.11153
1973.22	2.21664
1974.7	3.07132
1976.18	3.55943
1977.66	3.09174
1979.13	3.37294
1980.61	3.48521
1982.09	4.02712
1983.56	4.21078
1985.04	5.08658
1986.52	5.6432
1987.99	5.76064
1989.47	5.43914
1990.94	5.90877
1992.41	7.49514
1993.89	8.56002
1995.36	9.16988
1996.84	9.65811
1998.31	10.0999
1999.78	10.1985
2001.26	11.3339
2002.73	11.8833
2004.2	11.8627
2005.67	11.9731
2007.15	11.4562
2008.62	11.3118
2010.09	11.5926
2011.56	11.5404
2013.03	12.1532
2014.5	12.7515
2015.97	13.7435
2017.44	14.6235
2018.91	14.3675
2020.38	13.7485
2021.85	14.6113
2023.32	14.8918
2024.79	15.1162
2026.25	14.9222
2027.72	14.8296
2029.19	14.7224
2030.66	14.2223
2032.13	14.858
2033.59	14.3016
2035.06	13.9658
2036.53	13.8003
2037.99	13.9557
2039.46	13.7137
2040.92	14.2026
2042.39	14.0034
2043.85	14.6705
2045.32	15.479
2046.78	15.9429
2048.25	15.6627
2049.71	15.6887
2051.18	15.6086
2052.64	16.2105
2054.1	15.7341
2055.56	15.5356
2057.03	15.4963
2058.49	15.41
2059.95	14.8634
2061.42	15.7549
2062.88	16.623
2064.34	17.0998
2065.8	17.1355
2067.26	16.9529
2068.72	16.9091
2070.18	16.6457
2071.64	17.3151
2073.1	17.9241
2074.56	18.3015
2076.02	17.6437
2077.48	17.0587
2078.94	16.8201
2080.39	17.1394
2081.85	18.2041
2083.31	18.5575
2084.77	19.5932
2086.22	19.8492
2087.68	20.3262
2089.14	20.118
2090.6	18.9484
2092.05	19.1934
2093.51	19.7349
2094.96	19.3671
2096.42	19.237
2097.87	19.3362
2099.33	18.6222
2100.78	18.359
2102.24	17.6198
2103.69	17.5635
2105.15	17.2817
2106.6	17.3954
2108.05	18.1716
2109.51	18.2633
2110.96	18.6826
2112.41	19.0963
2113.86	19.193
2115.32	19.6467
2116.77	18.868
2118.22	19.3321
2119.67	18.5899
2121.12	18.582
2122.57	19.3583
2124.02	19.3748
2125.47	18.1348
2126.92	18.2549
2128.37	18.5867
2129.82	18.1685
2131.27	18.5915
2132.72	19.5135
2134.17	20.1502
2135.62	19.4905
2137.06	19.8182
2138.51	21.173
2139.96	22.7814
2141.41	23.4607
2142.85	24.4963
2144.3	26.0555
2145.75	26.2821
2147.19	26.1394
2148.64	26.7088
2150.09	27.8054
2151.53	27.9602
2152.97	28.7801
2154.42	29.0252
2155.86	29.5184
2157.31	29.4482
2158.75	30.3748
2160.2	30.6857
2161.64	30.9686
2163.08	31.2716
2164.53	32.3599
2165.97	32.4589
2167.41	31.9778
2168.86	32.8921
2170.3	32.6524
2171.74	32.4232
2173.18	32.4394
2174.62	33.0762
2176.06	33.0804
2177.5	33.0173
2178.94	33.0485
2180.38	32.4604
2181.82	32.3347
2183.26	32.471
2184.7	32.148
2186.14	31.1058
2187.58	30.5114
2189.02	29.8676
2190.46	29.687
2191.89	29.1882
2193.33	29.0432
2194.77	28.6305
2196.21	27.6334
2197.64	26.3257
2199.08	26.1378
2200.52	25.0129
2201.95	24.6799
2203.39	25.3646
2204.83	24.5423
2206.26	24.2317
2207.7	24.5961
2209.13	25.5611
2210.57	25.6775
2212	24.4669
2213.43	23.2576
2214.87	22.6547
2216.3	22.3922
2217.73	22.3514
2219.17	22.7302
2220.6	22.2892
2222.03	21.7282
2223.47	21.4667
2224.9	21.7409
2226.33	21.6892
2227.76	22.4216
2229.19	22.8766
2230.62	23.6384
2232.05	22.6137
2233.49	23.366
2234.91	23.7744
2236.34	23.9831
2237.77	24.1156
2239.2	23.9234
2240.63	23.7207
2242.06	22.8638
2243.49	23.4492
2244.92	23.4937
2246.35	23.8601
2247.78	22.9823
2249.2	23.0745
2250.63	22.8486
2252.06	23.0453
2253.48	23.557
2254.91	23.6848
2256.34	23.264
2257.76	22.5552
2259.19	22.4904
2260.61	21.8473
2262.04	21.2622
2263.46	21.3318
2264.89	20.1422
2266.31	18.9262
2267.74	18.1134
2269.16	17.9526
2270.59	17.4379
2272.01	16.621
2273.43	16.728
2274.85	14.9952
2276.28	13.3825
2277.7	12.6122
2279.12	12.5316
2280.54	11.6111
2281.97	11.0255
2283.39	10.9242
2284.81	11.8387
2286.23	11.8335
2287.65	11.6751
2289.07	11.9469
2290.49	10.8126
2291.91	9.55194
2293.33	9.47804
2294.75	10.3665
2296.17	10.9357
2297.59	11.1742
2299.01	12.0428
2300.42	12.4841
2301.84	13.0578
2303.26	13.4806
2304.68	15.0351
2306.1	15.4914
2307.51	15.4689
2308.93	15.6542
2310.35	16.7064
2311.76	17.6619
2313.18	17.7476
2314.59	18.649
2316.01	18.2349
2317.43	18.9402
2318.84	18.6269
2320.26	19.1447
2321.67	18.8818
2323.08	19.2276
2324.5	19.7853
2325.91	19.5589
2327.33	19.2252
2328.74	19.2526
2330.15	18.8084
2331.56	18.1382
2332.98	18.3874
2334.39	17.1285
2335.8	15.7421
2337.21	15.2654
2338.62	14.9031
2340.04	14.5557
2341.45	13.8933
2342.86	12.862
2344.27	12.4355
2345.68	11.5683
2347.09	11.1438
2348.5	10.3642
2349.91	10.3501
2351.31	9.22128
2352.72	8.82571
2354.13	7.93705
2355.54	6.58178
2356.95	5.35883
2358.36	4.46593
2359.76	3.82729
2361.17	3.13437
2362.58	3.1127
2363.98	3.13348
2365.39	2.99466
2366.8	3.03141
2368.21	2.54918
2369.61	3.044
2371.02	2.03047
2372.42	2.11806
2373.83	1.329
2375.23	1.07753
2376.64	0.54529
2378.04	0.283058
2379.44	-0.354886
2380.85	-0.264739
2382.25	-1.10928
2383.66	-1.89254
2385.06	-1.69811
2386.46	-1.32093
2387.86	-1.44709
2389.26	-2.4465
2390.67	-2.52123
2392.07	-2.47576
2393.47	-1.01734
2394.87	-0.595082
2396.27	-0.221692
2397.67	0.409489
2399.07	0.881288
2400.47	0.758764
2401.87	1.66756
2403.27	1.8204
2404.67	1.91617
2406.07	2.77763
2407.47	3.48221
2408.87	4.91546
2410.27	6.27283
2411.67	6.45299
2413.07	6.01587
2414.46	6.34232
2415.86	7.32433
2417.26	7.10159
2418.66	8.60604
2420.05	9.06541
2421.45	9.47288
2422.84	10.0584
2424.24	10.8588
2425.64	11.7667
2427.03	12.6505
2428.43	12.9877
2429.82	13.838
2431.22	14.0489
2432.61	13.6147
2434.01	13.5414
2435.4	14.1518
2436.79	14.2658
2438.19	14.1069
2439.58	14.6613
2440.97	13.9649
2442.37	14.4536
2443.76	13.0362
2445.15	13.2546
2446.54	13.0947
2447.93	12.1996
2449.33	10.9061
2450.72	11.2828
2452.11	10.8778
2453.5	10.8116
2454.89	9.89552
2456.28	8.84489
2457.67	7.53383
2459.06	6.70703
2460.45	6.66926
2461.84	7.03148
2463.23	7.57129
2464.62	6.88781
2466	6.57178
2467.39	6.06191
2468.78	5.93713
2470.17	5.68163
2471.55	5.42055
2472.94	4.58673
2474.33	4.82881
2475.72	5.10334
2477.1	5.05421
2478.49	4.74487
2479.87	4.25275
2481.26	3.65757
2482.65	3.03276
2484.03	3.70644
2485.42	4.08017
2486.8	3.98548
2488.19	4.5158
2489.57	3.23355
2490.95	3.80792
2492.34	4.47182
2493.72	5.05372
2495.1	5.54018
2496.49	5.49388
2497.87	5.63561
2499.25	5.62349
2500.63	5.4654
2502.02	5.3827
2503.4	6.51933
2504.78	6.69951
2506.16	6.08308
2507.54	6.31838
2508.92	5.88594
2510.3	5.30496
2511.68	5.69365
2513.06	4.68125
2514.44	5.64693
2515.82	4.61925
2517.2	3.52281
2518.58	3.48627
2519.96	4.14775
2521.34	3.57797
2522.72	3.36466
2524.1	2.09923
2525.47	1.74462
2526.85	2.03235
2528.23	2.46493
2529.6	3.48711
2530.98	3.75993
2532.36	3.5036
2533.74	3.10775
2535.11	3.23059
2536.49	3.30631
2537.86	3.88914
2539.24	3.70351
2540.61	3.63223
2541.99	3.63386
2543.36	4.07738
2544.74	4.26802
2546.11	4.05363
2547.49	4.06844
2548.86	4.31163
2550.23	4.0296
2551.61	3.81862
2552.98	4.60742
2554.35	4.38246
2555.72	4.71908
2557.09	4.40234
2558.47	4.44191
2559.84	5.67893
2561.21	6.06718
2562.58	5.72908
2563.95	4.91537
2565.32	4.69028
2566.69	5.35965
2568.06	4.59211
2569.43	4.71409
2570.8	4.43008
2572.17	4.99314
2573.54	4.64934
2574.91	4.2789
2576.28	3.53944
2577.65	3.71176
2579.02	3.48336
2580.39	3.16263
2581.75	2.06453
2583.12	2.71647
2584.49	2.44567
2585.85	2.8455
2587.22	2.86742
2588.59	2.34963
2589.95	1.71475
2591.32	1.60587
2592.68	1.2711
2594.05	1.52377
2595.42	2.55174
2596.78	2.06786
2598.15	1.63351
2599.51	1.13682
2600.88	1.08736
2602.24	1.10324
2603.6	1.78357
2604.97	1.35619
2606.33	1.9941
2607.69	1.77987
2609.06	1.58481
2610.42	2.0932
2611.78	2.51033
2613.14	2.72828
2614.51	3.3619
2615.87	3.79297
2617.23	3.48422
2618.59	3.62541
2619.95	3.67102
2621.31	3.61659
2622.67	4.32767
2624.03	4.07877
2625.39	4.09441
2626.75	4.2888
2628.11	3.79793
2629.47	3.58316
2630.83	3.48079
2632.19	2.97493
2633.55	3.50368
2634.91	3.3364
2636.26	3.29942
2637.62	4.26319
2638.98	4.5223
2640.34	4.91061
2641.69	4.2243
2643.05	3.60126
2644.41	3.91842
2645.76	4.25207
2647.12	4.23867
2648.48	3.89968
2649.83	4.15035
2651.19	4.76427
2652.54	5.10508
2653.9	4.36618
2655.25	3.22153
2656.6	3.55897
2657.96	3.33904
2659.31	4.15332
2660.67	4.19732
2662.02	3.59329
2663.37	3.76494
2664.73	3.02057
2666.08	3.40086
2667.43	3.58766
2668.78	3.91432
2670.14	4.1691
2671.49	4.45948
2672.84	4.12901
2674.19	4.31445
2675.54	3.98623
2676.89	4.18737
2678.24	4.93096
2679.59	4.8689
2680.94	4.83774
2682.29	4.72208
2683.64	4.91895
2684.99	4.61611
2686.34	4.68501
2687.69	4.03043
2689.04	4.44996
2690.39	4.06071
2691.74	2.92044
2693.08	3.53808
2694.43	3.16874
2695.78	2.89852
2697.13	3.2412
2698.47	2.98467
2699.82	3.23302
2701.17	3.86629
2702.51	4.18548
2703.86	4.59371
2705.21	5.17909
2706.55	5.46846
2707.9	5.64461
2709.24	6.02306
2710.58	6.88571
2711.93	6.52792
2713.27	5.6861
2714.62	6.01507
2715.96	5.09383
2717.3	6.33673
2718.65	6.55804
2719.99	6.47758
2721.33	6.04154
2722.68	6.37532
2724.02	7.28519
2725.36	6.53568
2726.71	7.36699
2728.05	7.20977
2729.39	7.20683
2730.73	8.17425
2732.07	8.45505
2733.41	7.96124
2734.75	7.87653
2736.09	7.31735
2737.43	6.88007
2738.77	6.55781
2740.11	6.17681
2741.45	5.8753
2742.79	6.34242
2744.13	6.3485
2745.47	6.02172
2746.81	5.51694
2748.14	5.56615
2749.48	5.63551
2750.82	6.5306
2752.16	5.89224
2753.49	5.22538
2754.83	4.38055
2756.17	4.55735
2757.5	3.88473
2758.84	4.15942
2760.18	4.01678
2761.51	4.00452
2762.85	3.90371
2764.18	4.37641
2765.52	4.51591
2766.85	4.36233
2768.19	4.24409
2769.52	3.71678
2770.86	3.50279
2772.19	3.68056
2773.52	2.47907
2774.86	2.00691
2776.19	2.14396
2777.52	1.49836
2778.86	1.08392
2780.19	1.88035
2781.52	2.11415
2782.85	2.23415
2784.19	2.81625
2785.52	2.28778
2786.85	2.19995
2788.18	2.02587
2789.51	2.15753
2790.84	1.54001
2792.17	0.592357
2793.5	1.09732
2794.83	1.33734
2796.16	1.7993
2797.49	1.62732
2798.82	0.250015
2800.15	-0.31233
2801.48	-0.112249
2802.81	-0.114317
2804.13	0.370019
2805.46	1.44712
2806.79	1.56972
2808.12	1.20215
2809.45	1.01369
2810.77	0.454671
2812.1	0.683503
2813.43	0.937867
2814.75	1.58775
2816.08	2.03735
2817.41	1.9844
2818.73	1.39362
2820.06	1.43863
2821.38	2.10215
2822.71	3.45599
2824.03	4.53576
2825.36	5.64698
2826.68	7.08441
2828	8.33315
2829.33	9.7904
2830.65	11.1051
2831.98	13.0871
2833.3	14.3317
2834.62	16.0883
2835.94	17.9533
2837.27	20.1788
2838.59	22.8024
2839.91	25.491
2841.23	28.5296
2842.55	31.4433
2843.87	33.5248
2845.2	36.1727
2846.52	38.716
2847.84	41.7842
2849.16	44.5468
2850.48	47.1937
2851.8	50.6225
2853.12	54.117
2854.44	56.8869
2855.76	60.2142
2857.08	62.7695
2858.39	65.846
2859.71	69.2405
2861.03	72.6329
2862.35	74.9824
2863.67	76.9912
2864.98	78.8404
2866.3	81.7239
2867.62	84.028
2868.94	86.3254
2870.25	88.1153
2871.57	90.5414
2872.88	91.0553
2874.2	92.5081
2875.52	94.4537
2876.83	96.0777
2878.15	97.865
2879.46	98.8073
2880.78	100.121
2882.09	102.103
2883.41	103.373
2884.72	105.541
2886.03	107.398
2887.35	109.664
2888.66	111.934
2889.97	113.674
2891.29	115.487
2892.6	117.326
2893.91	119.156
2895.22	121.661
2896.54	122.804
2897.85	125.156
2899.16	126.508
2900.47	128.131
2901.78	130.37
2903.09	131.994
2904.4	133.769
2905.71	135.036
2907.02	137.357
2908.33	139.751
2909.64	142.278
2910.95	145.747
2912.26	149.167
2913.57	152.312
2914.88	154.211
2916.19	156.731
2917.5	159.392
2918.81	160.97
2920.11	161.905
2921.42	163.061
2922.73	163.911
2924.04	164.429
2925.34	165.851
2926.65	166.522
2927.96	166.03
2929.26	166.053
2930.57	166.034
2931.87	166.077
2933.18	166.029
2934.49	165.497
2935.79	164.671
2937.1	164.252
2938.4	162.395
2939.7	161.102
2941.01	158.906
2942.31	157.564
2943.62	155.763
2944.92	153.56
2946.22	151.78
2947.53	150.322
2948.83	148.434
2950.13	145.761
2951.43	143.148
2952.74	140.27
2954.04	137.609
2955.34	134.281
2956.64	131.369
2957.94	127.995
2959.24	125.139
2960.54	122.094
2961.84	119.005
2963.15	116.714
2964.45	113.496
2965.75	110.575
2967.05	108.183
2968.34	105.235
2969.64	102.601
2970.94	100.652
2972.24	99.2996
2973.54	96.4853
2974.84	94.8635
2976.14	92.7581
2977.43	90.2704
2978.73	87.4969
2980.03	84.5892
2981.33	82.1912
2982.62	79.6441
2983.92	75.9495
2985.22	72.7026
2986.51	69.9585
2987.81	67.2892
2989.11	64.0849
2990.4	61.5088
2991.7	57.961
2992.99	54.9585
2994.29	52.4345
2995.58	49.4757
2996.88	45.8845
2998.17	42.6999
2999.46	39.9126
3000.76	37.3955
3002.05	34.5144
3003.34	31.5409
3004.64	28.384
3005.93	26.031
3007.22	23.9846
3008.52	21.4501
3009.81	19.0542
3011.1	17.1001
3012.39	15.285
3013.68	13.2924
3014.97	10.6963
3016.27	9.19195
3017.56	6.46379
3018.85	5.42042
3020.14	4.11353
3021.43	3.21314
3022.72	2.21944
3024.01	1.47947
3025.3	0.557141
3026.59	-0.0407767
3027.88	-0.462053
3029.16	-1.41966
3030.45	-1.24891
3031.74	-1.65088
3033.03	-1.63895
3034.32	-1.60019
3035.6	-0.648624
3036.89	-0.522303
3038.18	-0.286136
3039.47	0.584077
3040.75	1.13921
3042.04	1.82371
3043.33	2.83234
3044.61	3.19645
3045.9	3.84981
3047.18	3.94722
3048.47	4.25706
3049.75	5.10327
3051.04	5.75587
3052.32	6.05808
3053.61	5.643
3054.89	5.92301
3056.18	6.07832
3057.46	5.73425
3058.74	6.01057
3060.03	5.99943
3061.31	6.22069
3062.59	6.72785
3063.88	7.12335
3065.16	6.68849
3066.44	6.21848
3067.72	5.72375
3069	5.33901
3070.29	6.2612
3071.57	6.356
3072.85	6.39533
3074.13	6.10856
3075.41	6.17978
3076.69	6.32098
3077.97	6.05973
3079.25	4.97317
3080.53	4.40776
3081.81	3.66152
3083.09	3.87891
3084.37	3.44633
3085.65	3.44741
3086.93	3.10678
3088.21	2.42711
3089.49	2.6142
3090.76	2.28533
3092.04	2.22756
3093.32	2.02598
3094.6	2.43545
3095.87	1.93996
3097.15	1.63443
3098.43	1.54435
3099.7	2.23915
3100.98	1.9557
3102.26	2.94928
3103.53	3.20883
3104.81	3.71434
3106.08	3.80705
3107.36	4.36742
3108.63	4.32734
3109.91	4.74182
3111.18	5.85998
3112.46	6.73382
3113.73	6.51841
3115	6.56007
3116.28	6.85181
3117.55	6.95768
3118.83	7.57193
3120.1	7.99894
3121.37	8.28189
3122.64	9.16299
3123.92	9.15248
3125.19	9.39401
3126.46	9.54438
3127.73	9.94754
3129	9.95787
3130.27	10.5864
3131.55	11.2404
3132.82	12.5206
3134.09	13.2706
3135.36	13.43
3136.63	13.4223
3137.9	13.3717
3139.17	13.4329
3140.44	13.1063
3141.71	12.5209
3142.98	12.3912
3144.24	12.331
3145.51	11.8736
3146.78	11.2017
3148.05	9.87902
3149.32	7.81226
