#Acq. time (s)=	45
#Accumulations=	2
#Range (cm-¹)=	200...3150
#Windows=	2
#Auto scanning=	Off
#Autofocus=	Off
#Macrospot=	Off
#AutoExposure=	Off
#Spike filter=	Multiple accum.
#Delay time (s)=	0
#Binning=	1
#Readout mode=	Signal
#DeNoise=	Off
#ICS correction=	On
#Dark correction=	Off
#Inst. Process=	Off
#Detector Gain=	Best Dynamic Range
#Detector ADC=	20 kHz       
#Detector temperature (°C)=	-70.08
#Instrument=	LabRAM HR Evol
#Detector=	Synapse
#Objective=	x100
#Grating=	600 gr/mm
#ND Filter=	100%
#Laser (nm)=	532 
#Hole=	100.021
#Range=	Auto
#Laser Pol.=	No
#Raman. Pol.=	No
#Laser Pol. (°)=	-0.0007625
#Raman Pol. (°)=	89.9995
#Collection=	Microscope
#StageXY=	Marzhauser
#StageZ=	Marzhauser
#X (µm)=	-2405.6
#Y (µm)=	2130
#Z (µm)=	-40.8
#Full time(mm:ss)=	3:19
#Project=	
#Sample=	
#Site=	
#Title=	Mb_10_14_08_2x_45s_532 nm_x100_100%_600 gr_mm
#Remark=	
#Date=	07.07.2022 13:59
#Acquired=	07.07.2022 13:59:03
#Base:Fit=	10.08.2022 10:21:11
#Base:Sub=	10.08.2022 10:21:41
#Filter:Polynom=	16.08.2022 10:17:53
#AxisType[0]=Intens
#AxisUnit[0]=Cnt
#AxisType[1]=Spectr
#AxisUnit[1]=1/cm
200.43	7.41805
202.246	8.04285
204.061	5.28662
205.875	3.06765
207.688	1.49504
209.501	0.488577
211.316	-0.803054
213.129	-0.64263
214.941	-0.405169
216.753	0.386833
218.566	1.224
220.377	2.78263
222.188	4.43582
223.999	4.9894
225.809	5.22764
227.618	7.1
229.43	9.54209
231.239	10.8865
233.047	12.5778
234.855	13.6555
236.663	14.3891
238.471	16.0616
240.278	16.6243
242.087	18.0888
243.894	19.5246
245.7	21.5081
247.506	23.2885
249.311	25.2183
251.116	26.7272
252.921	27.9096
254.725	28.7831
256.529	29.5803
258.333	30.5563
260.136	31.0942
261.939	31.4508
263.744	33.2758
265.546	33.0977
267.348	34.1495
269.15	33.6966
270.951	33.5481
272.752	33.4464
274.552	33.7985
276.353	32.1373
278.152	31.7131
279.952	31.6735
281.751	30.0755
283.55	28.566
285.348	27.5081
287.146	24.6253
288.942	23.9225
290.739	23.7935
292.536	22.6181
294.333	23.3982
296.129	23.0784
297.925	21.8703
299.721	21.3698
301.516	21.29
303.311	22.4151
305.106	21.733
306.9	21.3391
308.694	20.27
310.486	20.826
312.279	20.6111
314.072	20.5214
315.864	20.5254
317.656	22.3208
319.448	22.0932
321.24	21.6424
323.029	21.4708
324.819	21.3851
326.61	21.8763
328.4	22.8432
330.19	22.5016
331.977	23.4857
333.766	23.1213
335.555	23.6552
337.343	24.2088
339.131	23.5053
340.917	23.0225
342.704	22.9406
344.491	23.1729
346.277	23.6119
348.062	25.7482
349.848	25.7821
351.633	27.968
353.416	29.9728
355.201	30.6286
356.986	30.513
358.77	31.5169
360.552	32.8605
362.335	33.5674
364.118	33.6435
365.899	34.0677
367.682	37.0467
369.464	38.1281
371.243	40.4828
373.025	42.676
374.806	43.7261
376.585	43.8244
378.365	45.7934
380.143	48.1428
381.923	49.1957
383.702	49.5155
385.479	51.3719
387.258	52.5426
389.034	55.7786
390.812	57.622
392.59	58.5893
394.365	61.6474
396.142	62.9545
397.916	65.0188
399.693	65.976
401.467	66.6538
403.242	66.0622
405.015	65.4184
406.79	65.4874
408.565	63.7285
410.337	62.8751
412.111	61.897
413.882	60.3216
415.656	58.8969
417.426	57.4041
419.197	55.1315
420.969	53.2299
422.739	51.1725
424.51	49.7619
426.279	47.3377
428.05	43.6585
429.819	42.4123
431.589	40.9009
433.356	39.9709
435.124	37.5614
436.893	36.1036
438.66	33.5429
440.428	33.3346
442.194	30.9127
443.96	28.8541
445.727	26.1461
447.492	26.0343
449.259	24.3644
451.023	22.7183
452.787	22.1876
454.553	21.895
456.316	20.4355
458.079	17.7881
459.844	17.5589
461.606	16.1649
463.368	15.7688
465.132	15.7759
466.893	16.9884
468.654	17.5536
470.415	17.9316
472.177	19.5696
473.937	22.2505
475.696	23.6066
477.456	26.9579
479.217	27.8325
480.975	28.9768
482.733	31.3715
484.491	30.4192
486.251	32.2393
488.008	32.4785
489.765	33.7156
491.522	34.6199
493.278	36.5101
495.036	37.3141
496.791	38.8597
498.546	41.0374
500.301	42.7061
502.056	43.4251
503.81	44.7013
505.566	45.4211
507.319	45.3377
509.073	46.2946
510.825	46.1602
512.578	45.8381
514.33	45.1239
516.082	45.3397
517.833	46.2468
519.587	46.0625
521.337	44.9154
523.088	43.4903
524.838	43.5738
526.588	42.834
528.337	41.2104
530.087	38.8187
531.835	36.7366
533.584	36.0165
535.332	35.8586
537.08	33.8829
538.827	32.6102
540.574	30.7652
542.321	28.12
544.068	26.3901
545.814	25.4366
547.56	24.3165
549.305	24.1346
551.05	23.3411
552.795	21.8612
554.54	20.8044
556.284	19.8286
558.027	19.1998
559.771	18.4222
561.514	16.1359
563.257	15.1192
564.999	14.9151
566.742	12.5293
568.481	11.4052
570.223	11.3133
571.964	9.48473
573.705	9.71227
575.445	8.55085
577.185	8.46584
578.925	8.2617
580.665	7.89791
582.402	7.0329
584.141	7.52055
585.879	7.16852
587.617	6.14976
589.355	4.74612
591.092	4.38121
592.828	4.70587
594.564	3.9918
596.301	4.09698
598.037	3.14248
599.773	3.34792
601.506	2.91861
603.242	3.80688
604.976	3.62759
606.711	2.75477
608.443	2.25694
610.177	2.31546
611.91	2.12109
613.644	1.96214
615.374	2.22807
617.107	2.99222
618.839	3.16806
620.569	4.13348
622.3	4.17252
624.032	4.09285
625.761	3.61727
627.491	2.70342
629.221	3.0512
630.949	4.89326
632.679	6.26297
634.408	6.5063
636.135	6.21121
637.863	5.7956
639.592	5.8451
641.318	6.03566
643.045	5.49022
644.77	5.96643
646.497	6.35081
648.224	6.85425
649.948	8.12754
651.674	8.04266
653.398	8.20471
655.123	8.62611
656.846	9.00917
658.57	8.77837
660.293	9.76276
662.017	10.0215
663.738	10.6338
665.462	11.0623
667.185	11.0993
668.905	11.8984
670.628	12.3936
672.348	11.9217
674.067	11.9502
675.789	12.4771
677.508	13.7945
679.228	13.3706
680.947	13.0884
682.667	13.4836
684.385	12.8948
686.104	13.2603
687.821	12.2086
689.538	13.3742
691.256	13.6649
692.972	14.2372
694.69	14.7493
696.406	13.9743
698.121	13.9828
699.837	14.8691
701.552	14.8515
703.268	14.632
704.982	13.9725
706.695	14.1064
708.41	13.861
710.123	13.8251
711.836	13.8206
713.55	14.5983
715.262	15.2948
716.973	16.6778
718.685	16.8593
720.398	15.7363
722.108	16.3345
723.818	18.0534
725.53	18.2724
727.24	18.4017
728.949	18.5007
730.658	19.1358
732.369	18.1732
734.077	18.7847
735.785	19.211
737.493	18.692
739.2	21.1444
740.909	21.3074
742.616	22.292
744.322	22.8344
746.028	23.4686
747.734	25.3865
749.441	27.5408
751.146	28.4391
752.851	28.4166
754.555	29.8345
756.26	30.1584
757.963	31.0965
759.667	33.4297
761.372	34.0165
763.075	34.0692
764.777	34.4841
766.479	35.9801
768.181	34.995
769.883	35.569
771.584	36.9389
773.285	37.9794
774.986	40.4972
776.686	40.2579
778.386	41.1309
780.085	41.1241
781.785	40.8789
783.484	41.9982
785.182	42.3904
786.881	42.0954
788.579	43.452
790.276	43.9127
791.974	45.0498
793.671	45.2112
795.367	46.6763
797.064	47.3205
798.76	48.2861
800.456	48.5409
802.151	48.7878
803.846	49.0178
805.541	48.87
807.236	49.4124
808.93	48.2541
810.624	48.7469
812.317	49.4558
814.01	49.492
815.703	49.9771
817.394	50.1268
819.086	50.4526
820.778	50.2483
822.47	49.7652
824.161	50.2168
825.852	48.3655
827.543	48.4716
829.231	47.9916
830.921	47.6703
832.611	48.645
834.3	47.8778
835.989	45.7322
837.676	45.0588
839.364	43.631
841.053	43.0112
842.74	42.1117
844.426	40.8684
846.113	38.4418
847.8	36.4616
849.486	35.9016
851.171	34.0154
852.857	32.6337
854.542	33.5339
856.227	32.5145
857.911	30.8182
859.595	28.4425
861.279	26.4021
862.961	26.1976
864.645	23.9906
866.329	22.0131
868.01	21.9664
869.692	20.7792
871.375	19.8094
873.055	19.8725
874.737	18.2776
876.418	18.3051
878.097	17.1167
879.778	17.0285
881.457	17.2751
883.137	17.1513
884.817	17.0768
886.495	17.1451
888.174	18.4649
889.851	18.0938
891.53	19.2813
893.206	18.8943
894.884	20.3603
896.562	19.5139
898.237	18.5465
899.914	17.9903
901.589	17.09
903.265	17.5002
904.94	17.8464
906.615	17.5991
908.289	17.5198
909.964	17.5374
911.637	18.3728
913.31	18.2508
914.984	18.3834
916.656	19.0676
918.33	18.207
920.001	18.263
921.674	19.5772
923.345	18.924
925.015	19.3108
926.687	19.4687
928.357	18.5008
930.028	17.9295
931.698	17.6358
933.366	17.1623
935.037	17.0664
936.705	16.5411
938.373	15.7693
940.043	14.8087
941.71	13.7566
943.379	13.1846
945.046	12.4164
946.712	10.9462
948.378	7.90898
950.046	8.67875
951.711	9.08419
953.376	7.87154
955.043	6.70888
956.708	5.20087
958.372	3.84138
960.036	3.72983
961.701	3.06039
963.364	4.4638
965.027	5.48658
966.69	6.55593
968.354	7.94344
970.016	8.76234
971.678	9.99308
973.339	10.8251
975	11.6845
976.661	10.7823
978.324	11.6824
979.984	12.1185
981.644	13.6378
983.303	14.544
984.962	14.6801
986.621	15.3203
988.282	15.2965
989.94	14.5972
991.598	14.6148
993.256	14.5893
994.913	14.2969
996.57	15.221
998.227	15.8959
999.884	15.561
1001.54	15.9582
1003.2	16.7944
1004.85	16.6005
1006.51	14.8947
1008.16	15.0178
1009.82	15.8702
1011.47	16.9062
1013.12	17.9798
1014.78	19.4397
1016.43	19.6651
1018.08	21.7193
1019.74	22.7991
1021.39	25.1152
1023.04	26.5993
1024.69	27.1798
1026.34	27.6174
1028	27.9307
1029.65	28.7682
1031.3	28.5767
1032.95	31.005
1034.6	29.7338
1036.25	29.6409
1037.9	28.6539
1039.55	29.2075
1041.19	30.9486
1042.84	33.1662
1044.49	34.4446
1046.14	35.6322
1047.79	36.6225
1049.43	37.3292
1051.08	36.9177
1052.73	36.2743
1054.37	34.3442
1056.02	33.3084
1057.66	31.9003
1059.31	31.0691
1060.95	31.352
1062.6	30.4199
1064.24	29.2855
1065.88	27.4608
1067.53	25.2647
1069.17	22.9592
1070.81	21.0725
1072.46	19.1613
1074.1	19.2744
1075.74	18.0083
1077.38	16.4519
1079.02	15.4514
1080.66	14.0252
1082.3	13.1825
1083.94	13.8482
1085.58	11.7321
1087.22	10.721
1088.86	9.95918
1090.5	11.4983
1092.14	12.1844
1093.78	12.7988
1095.42	12.8187
1097.05	13.3194
1098.69	12.8039
1100.33	13.8264
1101.97	14.5495
1103.6	13.6431
1105.24	12.7078
1106.87	12.6644
1108.51	11.1985
1110.15	9.98524
1111.78	9.84029
1113.41	8.36356
1115.05	8.63711
1116.68	7.86133
1118.31	8.08671
1119.95	6.97851
1121.58	7.48407
1123.21	7.68707
1124.85	7.95914
1126.48	7.01478
1128.11	7.42576
1129.74	7.23921
1131.37	5.83854
1133	5.38363
1134.63	4.67782
1136.26	4.73761
1137.89	5.64871
1139.52	5.8776
1141.15	6.50806
1142.78	7.72831
1144.41	5.74047
1146.04	5.74066
1147.66	4.72475
1149.29	4.97873
1150.92	4.74665
1152.55	6.3445
1154.17	6.32641
1155.8	6.22582
1157.43	5.49099
1159.05	4.81389
1160.68	5.05415
1162.3	5.11842
1163.93	4.71487
1165.55	3.95665
1167.17	2.73249
1168.8	3.5633
1170.42	3.97502
1172.05	4.52421
1173.67	4.53227
1175.29	3.78345
1176.91	3.01553
1178.54	1.77933
1180.16	1.14766
1181.78	1.50346
1183.4	0.923773
1185.02	0.859315
1186.64	2.23492
1188.26	2.2633
1189.88	0.690203
1191.5	1.82728
1193.12	2.81179
1194.74	3.10257
1196.36	3.97745
1197.97	5.6396
1199.59	7.59099
1201.21	10.4776
1202.83	13.0693
1204.44	15.5457
1206.06	16.942
1207.68	18.9674
1209.29	20.8823
1210.91	22.7709
1212.52	24.7618
1214.14	27.5797
1215.75	29.8171
1217.37	32.7281
1218.98	35.5658
1220.6	37.306
1222.21	40.3997
1223.82	42.5631
1225.44	43.621
1227.05	46.984
1228.66	50.2931
1230.27	52.8107
1231.88	53.533
1233.49	54.7288
1235.1	55.3319
1236.72	56.8493
1238.33	58.0415
1239.94	58.9778
1241.55	61.009
1243.16	62.3578
1244.76	63.1968
1246.37	64.1695
1247.98	64.3323
1249.59	63.9618
1251.2	63.977
1252.8	64.5834
1254.41	64.8544
1256.02	63.6379
1257.63	63.743
1259.23	64.3565
1260.84	65.0141
1262.44	65.4121
1264.05	65.166
1265.66	65.594
1267.26	65.808
1268.87	65.2123
1270.47	65.2932
1272.07	67.101
1273.68	68.2601
1275.28	69.4721
1276.88	71.1813
1278.48	72.3083
1280.09	74.5631
1281.69	75.2036
1283.29	75.6266
1284.89	76.7998
1286.49	78.8956
1288.09	81.4606
1289.69	82.9193
1291.3	85.0205
1292.9	87.2438
1294.49	88.6185
1296.09	90.2284
1297.69	92.48
1299.29	95.0216
1300.89	96.4726
1302.49	99.6795
1304.09	100.983
1305.68	102.522
1307.28	104.083
1308.88	106.254
1310.47	107.452
1312.07	108.715
1313.66	110.05
1315.26	110.998
1316.86	112.618
1318.45	113.967
1320.05	115.177
1321.64	114.479
1323.23	114.206
1324.83	113.652
1326.42	113.847
1328.01	113.037
1329.61	111.915
1331.2	111.033
1332.79	111.099
1334.38	108.706
1335.98	106.836
1337.57	106.435
1339.16	105.609
1340.75	103.893
1342.34	102.353
1343.93	100.153
1345.52	98.5097
1347.11	96.0125
1348.7	94.9507
1350.29	93.5655
1351.87	92.3853
1353.46	90.5052
1355.05	88.2228
1356.64	85.7861
1358.23	82.6282
1359.81	82.0854
1361.4	79.9583
1362.99	79.4935
1364.57	77.3551
1366.16	76.1362
1367.74	73.6226
1369.33	71.7754
1370.91	69.3576
1372.5	67.6061
1374.08	65.821
1375.67	64.9096
1377.25	64.085
1378.83	62.5289
1380.42	61.1887
1382	59.7621
1383.58	58.808
1385.16	57.9351
1386.75	58.1493
1388.33	57.6459
1389.91	56.4402
1391.49	55.4885
1393.07	55.424
1394.65	54.7087
1396.23	55.3495
1397.81	54.6386
1399.39	54.0737
1400.97	53.1153
1402.55	54.1494
1404.13	54.3443
1405.7	54.8162
1407.28	54.6059
1408.86	55.5165
1410.44	58.2059
1412.01	60.8576
1413.59	62.6663
1415.17	64.7888
1416.74	68.5395
1418.32	72.0496
1419.89	75.3594
1421.47	79.1718
1423.05	83.0611
1424.62	87.6614
1426.19	91.7228
1427.77	97.4733
1429.34	100.978
1430.92	104.66
1432.49	107.79
1434.06	111.754
1435.63	116.196
1437.2	120.512
1438.78	124.999
1440.35	127.171
1441.92	129.525
1443.49	132.232
1445.06	133.925
1446.63	135.228
1448.2	136.252
1449.77	136.587
1451.34	137.154
1452.91	137.169
1454.48	136.003
1456.05	135.315
1457.62	133.703
1459.18	133.009
1460.75	131.486
1462.32	132.314
1463.89	131.419
1465.45	130.785
1467.02	128.431
1468.59	125.866
1470.15	124.365
1471.72	122.654
1473.28	120.532
1474.85	117.988
1476.41	114.731
1477.98	112.748
1479.54	110.293
1481.11	108.36
1482.67	105.291
1484.23	101.93
1485.8	99.1332
1487.36	96.8933
1488.92	93.4978
1490.48	90.2517
1492.05	87.9
1493.61	85.4744
1495.17	84.6404
1496.73	82.5026
1498.29	80.6754
1499.85	79.6278
1501.41	77.7082
1502.97	75.4327
1504.53	73.1127
1506.09	70.931
1507.65	68.236
1509.2	66.0609
1510.76	63.5047
1512.32	61.5075
1513.88	59.3179
1515.44	55.658
1516.99	53.0038
1518.55	50.8661
1520.1	50.1124
1521.66	47.7893
1523.22	45.9425
1524.77	43.6214
1526.33	42.3233
1527.88	40.5587
1529.44	39.8392
1530.99	39.8003
1532.55	40.3887
1534.1	39.9111
1535.65	39.7015
1537.21	39.7427
1538.76	40.1468
1540.31	41.0988
1541.86	41.6411
1543.42	42.535
1544.97	42.9276
1546.52	44.5482
1548.07	46.3082
1549.62	48.1963
1551.17	49.8709
1552.72	49.9954
1554.27	51.4716
1555.82	53.1221
1557.37	53.5761
1558.92	53.9579
1560.47	54.3271
1562.02	53.9784
1563.57	54.8207
1565.11	55.3456
1566.66	55.7313
1568.21	57.4627
1569.75	59.4244
1571.3	61.3414
1572.85	63.0062
1574.39	64.9343
1575.94	66.9959
1577.49	68.1058
1579.03	68.1247
1580.58	69.2477
1582.12	71.1696
1583.67	72.4217
1585.21	73.883
1586.75	75.6774
1588.3	76.6899
1589.84	77.9603
1591.38	79.7551
1592.93	80.2794
1594.47	82.0371
1596.01	82.9791
1597.55	82.9232
1599.09	82.998
1600.63	84.0138
1602.18	82.7612
1603.72	83.7237
1605.26	83.0467
1606.8	83.0641
1608.34	81.6064
1609.87	80.0986
1611.41	77.9247
1612.95	77.9364
1614.49	76.9005
1616.03	76.9091
1617.57	77.6792
1619.11	78.4459
1620.64	78.4643
1622.18	78.0856
1623.72	78.561
1625.25	79.0356
1626.79	80.207
1628.32	80.8099
1629.86	80.3081
1631.4	81.8805
1632.93	82.6089
1634.47	82.6698
1636	83.6619
1637.53	83.949
1639.07	83.6361
1640.6	85.4701
1642.14	87.688
1643.67	89.1757
1645.2	91.4831
1646.73	93.5201
1648.27	94.1082
1649.8	95.282
1651.33	96.6527
1652.86	97.4872
1654.39	98.4011
1655.92	98.5487
1657.45	99.5469
1658.98	100.188
1660.51	99.6281
1662.04	99.8289
1663.57	99.7397
1665.1	98.2552
1666.63	96.2837
1668.16	94.2891
1669.69	92.7671
1671.21	90.8105
1672.74	88.7759
1674.27	86.0571
1675.79	84.1303
1677.32	80.4924
1678.85	77.4972
1680.37	75.387
1681.9	71.883
1683.42	68.3445
1684.95	65.3459
1686.47	62.4588
1688	58.8351
1689.52	56.1469
1691.05	52.2813
1692.57	49.8557
1694.1	47.0145
1695.62	43.4679
1697.14	41.0073
1698.66	39.1092
1700.19	37.2222
1701.71	35.9853
1703.23	33.6058
1704.75	31.3177
1706.27	28.7445
1707.79	27.0705
1709.32	24.3807
1710.83	22.6489
1712.35	20.8637
1713.88	18.3467
1715.39	17.9234
1716.91	17.2022
1718.43	16.8264
1719.95	15.8253
1721.47	14.9922
1722.99	14.1971
1724.5	12.8257
1726.02	12.9304
1727.54	11.9244
1729.06	11.0225
1730.57	10.6251
1732.09	9.89174
1733.61	10.0825
1735.12	9.46023
1736.64	8.89895
1738.15	8.83782
1739.67	8.30225
1741.18	7.71994
1742.7	7.16176
1744.21	7.0036
1745.72	6.96323
1747.24	6.29532
1748.75	6.86121
1750.26	5.96896
1751.78	6.02757
1753.29	5.79801
1754.8	6.80246
1756.31	6.40196
1757.82	4.82608
1759.34	3.92092
1760.85	3.58665
1762.36	2.37813
1763.87	1.97804
1765.38	2.01217
1766.89	2.35158
1768.4	2.46108
1769.91	2.66155
1771.41	2.84967
1772.92	3.46545
1774.43	3.69282
1775.94	3.12435
1777.45	3.12312
1778.96	1.97099
1780.46	2.0023
1781.97	2.24688
1783.48	2.54706
1784.98	2.73379
1786.49	3.09096
1788	3.18004
1789.5	3.78481
1791.01	4.91183
1792.51	4.65588
1794.01	5.52255
1795.52	5.01657
1797.02	4.75767
1798.53	4.70998
1800.03	4.25267
1801.54	4.71105
1803.04	4.01993
1804.54	3.42366
1806.04	3.77076
1807.54	3.51482
1809.05	2.88652
1810.55	1.85808
1812.05	1.66491
1813.55	1.23586
1815.05	1.1641
1816.55	0.90627
1818.05	0.904923
1819.55	0.805191
1821.05	1.49547
1822.55	1.85692
1824.05	1.93501
1825.55	1.35227
1827.05	1.56073
1828.55	2.2974
1830.04	2.23482
1831.54	1.19009
1833.04	0.97438
1834.54	0.916979
1836.03	1.42585
1837.53	1.84146
1839.03	3.43193
1840.52	4.32965
1842.02	5.13023
1843.51	5.18809
1845.01	5.73837
1846.5	5.49671
1848	6.11564
1849.49	6.56265
1850.99	6.35272
1852.48	5.80419
1853.97	5.61212
1855.47	6.0128
1856.96	6.40984
1858.45	5.7893
1859.94	6.62116
1861.44	6.02142
1862.93	6.28889
1864.42	6.41551
1865.91	6.95654
1867.4	6.83176
1868.89	6.98023
1870.38	6.16976
1871.87	5.48065
1873.36	5.31044
1874.85	5.0232
1876.34	4.7493
1877.83	4.44338
1879.32	4.6262
1880.81	5.7228
1882.3	4.61942
1882.56	4.4506
1884.06	4.58804
1885.55	5.11091
1887.04	4.82983
1888.54	5.12039
1890.03	4.98262
1891.52	4.98592
1893.02	4.95209
1894.51	5.19614
1896	4.26805
1897.49	3.99034
1898.99	5.09338
1900.48	6.17204
1901.97	6.95108
1903.46	6.74174
1904.95	6.60557
1906.44	7.03701
1907.93	7.62311
1909.42	7.48814
1910.91	8.49744
1912.4	9.64046
1913.89	10.169
1915.38	9.88156
1916.86	9.97171
1918.35	10.4798
1919.84	10.6456
1921.33	10.7371
1922.82	10.6594
1924.3	9.9139
1925.79	10.3414
1927.28	11.0928
1928.76	10.6304
1930.25	10.9247
1931.74	10.3949
1933.22	10.6193
1934.71	9.46053
1936.19	10.4201
1937.67	10.287
1939.16	10.3603
1940.64	8.97721
1942.13	9.36701
1943.61	8.73618
1945.09	8.64616
1946.58	8.83117
1948.06	7.96124
1949.54	8.24076
1951.03	7.64918
1952.51	6.75441
1953.99	7.26095
1955.47	6.32732
1956.95	6.17882
1958.43	4.45008
1959.91	3.91758
1961.39	3.34731
1962.87	3.42575
1964.35	2.59563
1965.83	2.51398
1967.31	3.16531
1968.79	2.89457
1970.27	3.36355
1971.75	3.9369
1973.22	4.69199
1974.7	4.53536
1976.18	3.92499
1977.66	3.74982
1979.13	4.4598
1980.61	5.08714
1982.09	5.07867
1983.56	5.38886
1985.04	7.73067
1986.52	8.19189
1987.99	8.08271
1989.47	8.54616
1990.94	9.71667
1992.41	10.6497
1993.89	10.8435
1995.36	11.411
1996.84	11.5944
1998.31	11.295
1999.78	11.7387
2001.26	10.6114
2002.73	10.0451
2004.2	10.5985
2005.67	10.0847
2007.15	9.3984
2008.62	9.38218
2010.09	9.64136
2011.56	8.84631
2013.03	8.49377
2014.5	7.87565
2015.97	8.43059
2017.44	7.57514
2018.91	7.43942
2020.38	6.85494
2021.85	7.07018
2023.32	7.53725
2024.79	7.40909
2026.25	8.25366
2027.72	8.31209
2029.19	7.38056
2030.66	6.86511
2032.13	6.14064
2033.59	6.87143
2035.06	7.07799
2036.53	6.74549
2037.99	6.66712
2039.46	7.18531
2040.92	7.75408
2042.39	7.77423
2043.85	7.77036
2045.32	7.92897
2046.78	8.01964
2048.25	8.31724
2049.71	8.42016
2051.18	8.32056
2052.64	8.65043
2054.1	8.8776
2055.56	9.44211
2057.03	10.3437
2058.49	10.5052
2059.95	9.74254
2061.42	9.84809
2062.88	10.5944
2064.34	11.398
2065.8	10.479
2067.26	10.3017
2068.72	9.23414
2070.18	8.09285
2071.64	7.81922
2073.1	7.37595
2074.56	6.7599
2076.02	7.01179
2077.48	7.19752
2078.94	6.2602
2080.39	6.74981
2081.85	6.91828
2083.31	7.2087
2084.77	7.29879
2086.22	7.70794
2087.68	8.10979
2089.14	8.54104
2090.6	8.87165
2092.05	9.60007
2093.51	9.36686
2094.96	9.50901
2096.42	9.8144
2097.87	10.1853
2099.33	9.21895
2100.78	8.59114
2102.24	9.53182
2103.69	9.61324
2105.15	9.66677
2106.6	10.3258
2108.05	11.3123
2109.51	11.5699
2110.96	12.6648
2112.41	13.2487
2113.86	12.9771
2115.32	13.6641
2116.77	13.5665
2118.22	13.9585
2119.67	13.6218
2121.12	14.9912
2122.57	15.9261
2124.02	16.4515
2125.47	18.2315
2126.92	18.9877
2128.37	19.4864
2129.82	19.7316
2131.27	19.9979
2132.72	20.0381
2134.17	20.5462
2135.62	21.1311
2137.06	22.1201
2138.51	21.7376
2139.96	22.3095
2141.41	22.7374
2142.85	24.1375
2144.3	25.3526
2145.75	26.8817
2147.19	28.5899
2148.64	30.0658
2150.09	30.807
2151.53	31.925
2152.97	33.6497
2154.42	34.6804
2155.86	35.7273
2157.31	36.6261
2158.75	38.0079
2160.2	39.3425
2161.64	40.6135
2163.08	41.1963
2164.53	42.0059
2165.97	42.9972
2167.41	44.394
2168.86	46.0211
2170.3	46.5784
2171.74	46.6881
2173.18	48.4436
2174.62	49.088
2176.06	49.47
2177.5	49.6603
2178.94	50.6566
2180.38	51.2087
2181.82	50.6771
2183.26	50.802
2184.7	49.8927
2186.14	49.4524
2187.58	50.3221
2189.02	50.0273
2190.46	49.1282
2191.89	49.9135
2193.33	49.7853
2194.77	48.2227
2196.21	46.9362
2197.64	44.9354
2199.08	43.2422
2200.52	41.7284
2201.95	40.019
2203.39	37.7438
2204.83	35.7937
2206.26	34.8729
2207.7	34.0575
2209.13	32.4737
2210.57	30.7959
2212	29.4508
2213.43	28.1884
2214.87	26.8096
2216.3	26.0694
2217.73	25.6081
2219.17	25.4196
2220.6	24.5692
2222.03	23.1977
2223.47	23.4823
2224.9	21.9457
2226.33	20.8314
2227.76	19.881
2229.19	19.9358
2230.62	19.6647
2232.05	19.14
2233.49	18.5231
2234.91	18.291
2236.34	18.5973
2237.77	17.9199
2239.2	17.3731
2240.63	16.8042
2242.06	16.089
2243.49	15.3926
2244.92	15.0746
2246.35	14.3283
2247.78	14.5598
2249.2	14.6543
2250.63	15.1053
2252.06	14.6826
2253.48	14.5562
2254.91	14.4614
2256.34	14.2086
2257.76	14.0186
2259.19	14.4227
2260.61	13.7686
2262.04	12.4906
2263.46	12.1305
2264.89	10.2343
2266.31	9.16578
2267.74	8.04058
2269.16	7.11737
2270.59	7.63984
2272.01	7.60151
2273.43	6.82609
2274.85	6.16455
2276.28	5.9637
2277.7	5.33384
2279.12	5.4963
2280.54	4.8836
2281.97	5.04078
2283.39	4.90119
2284.81	4.87269
2286.23	4.71077
2287.65	5.8427
2289.07	5.85278
2290.49	5.4936
2291.91	4.26594
2293.33	3.01854
2294.75	3.01726
2296.17	2.92446
2297.59	3.87139
2299.01	4.90792
2300.42	5.75853
2301.84	6.06325
2303.26	5.77304
2304.68	6.69803
2306.1	8.30749
2307.51	8.72915
2308.93	9.15971
2310.35	11.1302
2311.76	11.4416
2313.18	11.7665
2314.59	11.8193
2316.01	12.5692
2317.43	13.9576
2318.84	14.031
2320.26	14.5207
2321.67	14.0402
2323.08	13.2953
2324.5	12.8071
2325.91	12.1417
2327.33	11.9948
2328.74	12.1005
2330.15	12.2422
2331.56	11.1341
2332.98	10.3719
2334.39	9.85969
2335.8	9.43956
2337.21	8.48228
2338.62	8.8084
2340.04	8.40746
2341.45	8.33931
2342.86	7.72694
2344.27	7.28033
2345.68	7.73968
2347.09	6.33353
2348.5	6.06526
2349.91	5.53271
2351.31	4.24651
2352.72	3.83712
2354.13	2.7243
2355.54	1.98409
2356.95	0.393957
2358.36	0.340229
2359.76	-0.68613
2361.17	-1.33838
2362.58	-1.11396
2363.98	-1.64102
2365.39	-0.785756
2366.8	-0.0500072
2368.21	-0.602153
2369.61	-0.0336906
2371.02	-0.322245
2372.42	-0.0297132
2373.83	0.317444
2375.23	1.81091
2376.64	1.91394
2378.04	1.58823
2379.44	1.88915
2380.85	1.56514
2382.25	0.870981
2383.66	1.24401
2385.06	1.51528
2386.46	1.73527
2387.86	1.18317
2389.26	0.26754
2390.67	0.800434
2392.07	0.676084
2393.47	0.783597
2394.87	1.08894
2396.27	1.64372
2397.67	1.49059
2399.07	1.51809
2400.47	1.22194
2401.87	1.08348
2403.27	1.73284
2404.67	1.95486
2406.07	2.26915
2407.47	2.51211
2408.87	4.18684
2410.27	4.53037
2411.67	5.32342
2413.07	5.98555
2414.46	6.40762
2415.86	6.23407
2417.26	5.94771
2418.66	6.89277
2420.05	6.46366
2421.45	7.15844
2422.84	7.62016
2424.24	7.56085
2425.64	7.79281
2427.03	7.74235
2428.43	8.99365
2429.82	9.59333
2431.22	9.57585
2432.61	10.1698
2434.01	10.5845
2435.4	10.392
2436.79	10.1975
2438.19	10.0632
2439.58	11.2299
2440.97	10.9826
2442.37	10.8389
2443.76	10.6576
2445.15	9.28393
2446.54	9.42555
2447.93	9.49605
2449.33	8.97852
2450.72	8.82801
2452.11	8.46282
2453.5	8.43389
2454.89	7.88495
2456.28	7.54193
2457.67	6.98056
2459.06	7.35478
2460.45	7.50663
2461.84	7.84589
2463.23	7.60482
2464.62	7.39063
2466	7.31387
2467.39	7.13678
2468.78	7.79488
2470.17	7.99227
2471.55	7.92265
2472.94	8.11793
2474.33	7.64872
2475.72	8.51058
2477.1	8.63168
2478.49	9.83672
2479.87	9.35679
2481.26	9.76095
2482.65	9.66028
2484.03	10.1796
2485.42	9.99338
2486.8	11.3274
2488.19	10.863
2489.57	11.0088
2490.95	11.5523
2492.34	11.7145
2493.72	11.4237
2495.1	11.2861
2496.49	10.9985
2497.87	11.4432
2499.25	11.2728
2500.63	10.728
2502.02	11.1003
2503.4	10.9814
2504.78	10.0389
2506.16	11.1268
2507.54	11.395
2508.92	11.0339
2510.3	8.80748
2511.68	7.92811
2513.06	7.22772
2514.44	6.18877
2515.82	6.8943
2517.2	6.22368
2518.58	5.40489
2519.96	4.36177
2521.34	3.28621
2522.72	3.45759
2524.1	3.39925
2525.47	3.10616
2526.85	3.15531
2528.23	4.20203
2529.6	4.00264
2530.98	4.16706
2532.36	4.69046
2533.74	4.16302
2535.11	3.88613
2536.49	4.33409
2537.86	4.74578
2539.24	4.45159
2540.61	4.0863
2541.99	4.55449
2543.36	5.18504
2544.74	6.16981
2546.11	5.68401
2547.49	6.49271
2548.86	6.38832
2550.23	7.37317
2551.61	6.87376
2552.98	7.81156
2554.35	7.30538
2555.72	7.31742
2557.09	6.33024
2558.47	6.89877
2559.84	6.89824
2561.21	6.74609
2562.58	6.80867
2563.95	7.65904
2565.32	8.3123
2566.69	9.28391
2568.06	10.295
2569.43	10.7007
2570.8	11.4324
2572.17	11.2797
2573.54	11.5319
2574.91	12.0382
2576.28	11.8921
2577.65	11.216
2579.02	10.1029
2580.39	11.0169
2581.75	10.6495
2583.12	10.1264
2584.49	10.7624
2585.85	10.7222
2587.22	10.8458
2588.59	10.3558
2589.95	10.7906
2591.32	11.1949
2592.68	11.2318
2594.05	11.6453
2595.42	11.7408
2596.78	11.44
2598.15	10.3935
2599.51	10.2333
2600.88	9.89584
2602.24	8.87782
2603.6	9.47713
2604.97	9.47242
2606.33	9.17663
2607.69	7.87449
2609.06	7.5383
2610.42	8.03827
2611.78	7.44618
2613.14	7.15663
2614.51	6.3443
2615.87	5.56919
2617.23	4.82493
2618.59	4.33403
2619.95	3.74866
2621.31	3.68623
2622.67	2.76233
2624.03	2.46926
2625.39	2.66826
2626.75	2.54084
2628.11	2.81569
2629.47	2.76307
2630.83	2.97685
2632.19	3.14393
2633.55	3.06717
2634.91	3.546
2636.26	3.41094
2637.62	3.18575
2638.98	3.78705
2640.34	4.00966
2641.69	4.89422
2643.05	4.99146
2644.41	5.57656
2645.76	5.57852
2647.12	5.72227
2648.48	6.48004
2649.83	6.48681
2651.19	7.0621
2652.54	8.37671
2653.9	8.77695
2655.25	8.96809
2656.6	8.85625
2657.96	9.93718
2659.31	10.6824
2660.67	11.599
2662.02	12.0289
2663.37	11.4479
2664.73	12.1088
2666.08	13.0438
2667.43	13.4328
2668.78	13.9359
2670.14	14.9888
2671.49	15.1374
2672.84	14.1554
2674.19	13.812
2675.54	13.4243
2676.89	13.4685
2678.24	12.8699
2679.59	12.465
2680.94	13.0318
2682.29	12.5477
2683.64	12.4489
2684.99	13.5562
2686.34	14.2162
2687.69	13.9625
2689.04	14.1217
2690.39	13.6866
2691.74	13.2601
2693.08	13.1451
2694.43	13.6209
2695.78	13.702
2697.13	13.733
2698.47	13.9561
2699.82	13.6935
2701.17	14.2721
2702.51	14.5908
2703.86	14.3847
2705.21	14.8031
2706.55	15.6941
2707.9	15.617
2709.24	16.0171
2710.58	15.6551
2711.93	16.3308
2713.27	15.9479
2714.62	15.85
2715.96	16.2201
2717.3	16.6192
2718.65	17.506
2719.99	18.4674
2721.33	19.0903
2722.68	19.3436
2724.02	19.7354
2725.36	20.3868
2726.71	20.1353
2728.05	19.8055
2729.39	19.4728
2730.73	19.2086
2732.07	18.8816
2733.41	18.4957
2734.75	17.4747
2736.09	17.4
2737.43	17.275
2738.77	15.8475
2740.11	15.4257
2741.45	14.8504
2742.79	14.2055
2744.13	14.2872
2745.47	14.1511
2746.81	14.8952
2748.14	14.4982
2749.48	14.1458
2750.82	14.041
2752.16	13.9418
2753.49	12.861
2754.83	11.7395
2756.17	11.523
2757.5	11.0678
2758.84	10.9531
2760.18	10.8112
2761.51	10.4522
2762.85	9.6878
2764.18	9.10415
2765.52	8.15608
2766.85	7.84801
2768.19	8.16913
2769.52	8.0375
2770.86	7.99499
2772.19	8.14408
2773.52	8.30499
2774.86	6.97977
2776.19	6.54519
2777.52	6.17636
2778.86	6.82147
2780.19	6.41473
2781.52	5.99417
2782.85	5.85856
2784.19	5.4472
2785.52	5.83985
2786.85	5.43943
2788.18	4.90547
2789.51	3.99822
2790.84	3.08807
2792.17	2.46049
2793.5	2.66447
2794.83	2.23046
2796.16	1.86922
2797.49	1.21138
2798.82	0.93377
2800.15	1.2314
2801.48	0.791628
2802.81	0.0685382
2804.13	-1.02306
2805.46	-1.46121
2806.79	-1.74489
2808.12	-2.36397
2809.45	-3.25393
2810.77	-3.09139
2812.1	-3.51782
2813.43	-4.02087
2814.75	-5.32596
2816.08	-4.95119
2817.41	-4.48812
2818.73	-3.23222
2820.06	-1.97322
2821.38	0.0425612
2822.71	2.31889
2824.03	4.55376
2825.36	6.63006
2826.68	8.01106
2828	10.0302
2829.33	12.8409
2830.65	16.1342
2831.98	19.2644
2833.3	22.9745
2834.62	26.432
2835.94	30.696
2837.27	34.8976
2838.59	38.4251
2839.91	43.6685
2841.23	49.1024
2842.55	55.3831
2843.87	61.6181
2845.2	67.7737
2846.52	74.1144
2847.84	80.5084
2849.16	87.981
2850.48	94.776
2851.8	101.938
2853.12	109.054
2854.44	116.731
2855.76	123.468
2857.08	130.837
2858.39	137.446
2859.71	144.714
2861.03	150.625
2862.35	156.363
2863.67	162.491
2864.98	168.301
2866.3	172.783
2867.62	177.372
2868.94	181.288
2870.25	185.287
2871.57	189.048
2872.88	192.378
2874.2	195.646
2875.52	198.64
2876.83	201.452
2878.15	204.311
2879.46	206.937
2880.78	209.796
2882.09	213.535
2883.41	216.081
2884.72	219.39
2886.03	221.429
2887.35	223.189
2888.66	225.602
2889.97	227.395
2891.29	229.688
2892.6	232.322
2893.91	235.602
2895.22	239.352
2896.54	243.141
2897.85	246.718
2899.16	251.602
2900.47	256.215
2901.78	261.651
2903.09	266.868
2904.4	272.675
2905.71	280.155
2907.02	287.312
2908.33	294.626
2909.64	302.148
2910.95	310.78
2912.26	318.806
2913.57	327.485
2914.88	335.718
2916.19	343.457
2917.5	351.333
2918.81	358.913
2920.11	365.238
2921.42	370.675
2922.73	375.83
2924.04	381.308
2925.34	386.367
2926.65	389.586
2927.96	391.237
2929.26	393.456
2930.57	394.329
2931.87	394.419
2933.18	394.498
2934.49	392.8
2935.79	391.13
2937.1	389.231
2938.4	386.919
2939.7	383.324
2941.01	379.156
2942.31	373.489
2943.62	368.596
2944.92	362.346
2946.22	356.516
2947.53	351.008
2948.83	344.063
2950.13	337.605
2951.43	329.446
2952.74	322.626
2954.04	315.984
2955.34	308.565
2956.64	301.992
2957.94	294.927
2959.24	287.888
2960.54	281.026
2961.84	273.85
2963.15	266.132
2964.45	259.373
2965.75	252.847
2967.05	246.617
2968.34	240.521
2969.64	234.608
2970.94	229.783
2972.24	224.686
2973.54	219.423
2974.84	214.2
2976.14	208.556
2977.43	203.212
2978.73	197.367
2980.03	190.093
2981.33	183.473
2982.62	176.752
2983.92	170.619
2985.22	164.019
2986.51	157.859
2987.81	151.327
2989.11	144.964
2990.4	136.686
2991.7	129.181
2992.99	122.357
2994.29	115.672
2995.58	108.972
2996.88	102.512
2998.17	96.1799
2999.46	90.0266
3000.76	83.6567
3002.05	77.9936
3003.34	71.9679
3004.64	66.3396
3005.93	60.3889
3007.22	54.6333
3008.52	49.9553
3009.81	45.3882
3011.1	41.3647
3012.39	36.8891
3013.68	32.1209
3014.97	28.3233
3016.27	25.1453
3017.56	22.7889
3018.85	19.9725
3020.14	17.96
3021.43	14.9745
3022.72	12.5585
3024.01	10.3885
3025.3	9.30409
3026.59	7.70454
3027.88	6.00092
3029.16	5.05098
3030.45	4.51345
3031.74	3.92681
3033.03	3.38692
3034.32	2.608
3035.6	2.52529
3036.89	2.36649
3038.18	1.98713
3039.47	2.01292
3040.75	2.7837
3042.04	4.17971
3043.33	3.81105
3044.61	4.40615
3045.9	6.5439
3047.18	7.37709
3048.47	8.64326
3049.75	9.38265
3051.04	10.3211
3052.32	10.4855
3053.61	10.7388
3054.89	11.2497
3056.18	12.3561
3057.46	12.9198
3058.74	13.5738
3060.03	14.6133
3061.31	15.5194
3062.59	16.586
3063.88	17.0431
3065.16	17.1903
3066.44	17.5492
3067.72	17.5351
3069	16.8832
3070.29	16.184
3071.57	15.4137
3072.85	14.7895
3074.13	14.4198
3075.41	13.4237
3076.69	13.2305
3077.97	12.9723
3079.25	12.4533
3080.53	11.8986
3081.81	11.3667
3083.09	10.7209
3084.37	10.4721
3085.65	8.69553
3086.93	8.12393
3088.21	7.60713
3089.49	7.78669
3090.76	6.75063
3092.04	6.21564
3093.32	6.56523
3094.6	7.35182
3095.87	7.06929
3097.15	6.87272
3098.43	6.51221
3099.7	7.38618
3100.98	8.72409
3102.26	9.65858
3103.53	11.5497
3104.81	12.9707
3106.08	13.4651
3107.36	13.9865
3108.63	14.9622
3109.91	16.378
3111.18	17.0524
3112.46	18.4952
3113.73	19.7397
3115	20.6969
3116.28	22.1451
3117.55	23.0719
3118.83	24.4411
3120.1	25.7978
3121.37	27.3366
3122.64	29.0168
3123.92	30.4419
3125.19	31.976
3126.46	33.416
3127.73	33.9308
3129	34.4804
3130.27	34.8763
3131.55	36.0337
3132.82	36.21
3134.09	37.4667
3135.36	38.2045
3136.63	39.7893
3137.9	41.1989
3139.17	41.8546
3140.44	43.0529
3141.71	43.6646
3142.98	44.3492
3144.24	45.0914
3145.51	45.7683
3146.78	46.7586
3148.05	48.1749
3149.32	51.9292
