#Acq. time (s)=	45
#Accumulations=	2
#Range (cm-¹)=	200...3150
#Windows=	2
#Auto scanning=	Off
#Autofocus=	Off
#Macrospot=	Off
#AutoExposure=	Off
#Spike filter=	Multiple accum.
#Delay time (s)=	0
#Binning=	1
#Readout mode=	Signal
#DeNoise=	Off
#ICS correction=	On
#Dark correction=	Off
#Inst. Process=	Off
#Detector Gain=	Best Dynamic Range
#Detector ADC=	20 kHz       
#Detector temperature (°C)=	-69.85
#Instrument=	LabRAM HR Evol
#Detector=	Synapse
#Objective=	x100
#Grating=	600 gr/mm
#ND Filter=	100%
#Laser (nm)=	532 
#Hole=	100.021
#Range=	Auto
#Laser Pol.=	No
#Raman. Pol.=	No
#Laser Pol. (°)=	-0.0007625
#Raman Pol. (°)=	89.9995
#Collection=	Microscope
#StageXY=	Marzhauser
#StageZ=	Marzhauser
#X (µm)=	-625.8
#Y (µm)=	-1676.9
#Z (µm)=	89.25
#Full time(mm:ss)=	3:07
#Project=	
#Sample=	
#Site=	
#Title=	Mb_10_14_39_2x_45s_532 nm_x100_100%_600 gr_mm
#Remark=	
#Date=	11.07.2022 11:31
#Acquired=	11.07.2022 11:31:12
#Base:Fit=	10.08.2022 10:21:11
#Base:Sub=	10.08.2022 10:21:41
#Filter:Polynom=	16.08.2022 10:17:53
#AxisType[0]=Intens
#AxisUnit[0]=Cnt
#AxisType[1]=Spectr
#AxisUnit[1]=1/cm
200.388	12.4184
202.204	11.0673
204.019	8.32061
205.832	6.77852
207.646	5.706
209.459	4.45547
211.274	3.07781
213.087	2.53083
214.899	2.89545
216.711	3.32254
218.524	3.52033
220.335	3.63715
222.146	4.78062
223.956	5.39804
225.766	5.97527
227.576	6.97796
229.388	6.68427
231.197	8.32732
233.005	9.11669
234.813	10.0006
236.621	10.0225
238.429	9.76431
240.236	9.65437
242.045	9.5276
243.852	9.18244
245.658	8.50583
247.464	8.58792
249.269	9.50518
251.074	9.33985
252.879	9.27963
254.683	9.04869
256.487	11.0946
258.291	12.3735
260.094	12.6742
261.897	13.4771
263.702	13.1091
265.504	12.4592
267.306	12.1069
269.108	12.0136
270.909	11.5869
272.71	11.6615
274.511	11.6954
276.311	10.9526
278.111	10.917
279.91	10.2218
281.709	9.94376
283.508	9.06384
285.306	8.56331
287.105	8.04838
288.9	8.15834
290.698	7.24982
292.495	7.28468
294.291	7.88961
296.088	6.87724
297.884	5.80448
299.679	5.60522
301.475	6.18708
303.27	6.9946
305.064	6.46998
306.858	6.67768
308.652	7.12323
310.444	6.95912
312.237	6.87216
314.03	6.60995
315.822	7.01849
317.615	6.96885
319.406	7.35384
321.198	7.52444
322.987	5.66817
324.778	4.58588
326.568	3.78165
328.358	3.49631
330.148	4.34903
331.935	4.32039
333.724	3.69714
335.513	2.91411
337.301	3.52958
339.089	3.76044
340.875	3.49578
342.662	4.26695
344.449	5.07296
346.236	5.77439
348.02	5.57306
349.806	5.65169
351.592	5.83557
353.375	5.53506
355.16	5.99209
356.944	7.48279
358.728	7.70709
360.51	7.68265
362.294	8.95789
364.077	9.44288
365.858	10.0942
367.64	10.0025
369.422	9.49185
371.202	9.62541
372.983	9.81002
374.764	9.8836
376.543	9.70763
378.324	10.4662
380.102	10.9516
381.881	11.8009
383.661	11.456
385.438	10.9664
387.216	11.8352
388.993	12.4403
390.771	13.3101
392.548	13.2291
394.324	13.4438
396.101	13.7396
397.875	13.1001
399.651	12.4717
401.425	12.6028
403.201	12.629
404.974	12.8145
406.749	12.6475
408.524	11.8279
410.296	10.5043
412.07	10.1148
413.841	10.6552
415.614	10.924
417.385	10.456
419.156	10.208
420.928	8.42397
422.698	6.58594
424.469	5.54312
426.238	5.25524
428.009	4.73575
429.777	4.55646
431.548	5.01573
433.315	4.53811
435.083	4.05115
436.852	4.15878
438.618	4.30923
440.387	3.5453
442.153	2.56628
443.919	2.06069
445.686	1.76747
447.451	0.81586
449.218	1.23804
450.982	1.37682
452.746	1.21471
454.512	1.70184
456.275	1.88247
458.038	2.51402
459.803	3.33547
461.565	4.57192
463.327	4.71258
465.091	4.55179
466.852	5.88439
468.613	5.94187
470.374	6.31824
472.136	6.47171
473.896	7.33494
475.655	7.56879
477.415	8.03018
479.176	9.49408
480.934	9.86308
482.692	10.3378
484.45	10.8315
486.21	11.6374
487.967	13.169
489.724	14.0052
491.481	14.1527
493.237	15.1528
494.995	14.6578
496.75	15.124
498.506	15.9173
500.26	16.7573
502.015	17.8101
503.769	17.851
505.525	17.4191
507.279	16.922
509.032	16.4046
510.785	16.5225
512.537	16.6259
514.289	17.3822
516.041	17.6629
517.793	17.4566
519.546	16.8758
521.297	15.4504
523.047	15.712
524.797	15.5395
526.547	14.8903
528.297	14.1293
530.046	14.1216
531.795	14.1019
533.543	13.6535
535.291	13.7742
537.039	14.1925
538.787	13.0736
540.534	12.8202
542.281	11.9083
544.027	10.8647
545.773	10.4184
547.519	9.45735
549.264	9.38233
551.01	7.54776
552.754	7.21547
554.499	7.70485
556.243	6.87076
557.987	7.37554
559.73	6.56517
561.474	6.58723
563.216	6.60488
564.959	8.1427
566.701	8.04794
568.441	6.9593
570.182	6.52211
571.923	6.86868
573.664	7.0214
575.405	7.65169
577.145	7.08475
578.885	5.72575
580.624	5.8419
582.361	5.63387
584.1	6.39658
585.839	6.35828
587.577	6.52517
589.315	6.16939
591.052	4.68876
592.787	3.91734
594.524	4.19231
596.26	5.03884
597.997	5.50564
599.732	5.29579
601.466	5.07571
603.201	5.47602
604.936	5.73688
606.67	6.72024
608.403	6.79946
610.136	7.20662
611.87	7.37016
613.603	7.63672
615.334	7.77064
617.067	7.31231
618.799	7.08914
620.529	7.07824
622.26	8.31889
623.991	7.96807
625.72	8.18879
627.451	9.47656
629.181	11.4008
630.909	13.4305
632.638	14.431
634.368	14.5988
636.095	15.5615
637.823	15.7108
639.551	16.6724
641.277	18.1131
643.005	19.412
644.73	20.6193
646.457	21.6003
648.184	23.2239
649.908	23.6847
651.634	23.8855
653.357	23.8581
655.083	24.7294
656.806	24.659
658.53	25.8668
660.253	25.6905
661.977	25.3339
663.7	25.6626
665.422	25.8526
667.145	26.6653
668.865	26.9304
670.588	27.1298
672.308	27.4151
674.027	27.2023
675.749	27.4173
677.468	27.2106
679.188	28.4325
680.907	28.9961
682.627	29.6453
684.345	29.7593
686.064	29.9631
687.781	30.849
689.498	32.1627
691.216	31.8832
692.932	31.5376
694.65	30.3418
696.366	30.5988
698.081	31.2601
699.797	31.6998
701.512	31.766
703.228	32.1958
704.942	32.4719
706.655	33.4462
708.371	34.4006
710.083	34.8778
711.796	35.486
713.51	36.6408
715.222	37.0134
716.934	36.8448
718.645	36.7074
720.358	36.9364
722.068	37.4492
723.779	38.567
725.49	39.7445
727.2	41.2737
728.909	42.3269
730.618	42.4312
732.329	43.1003
734.037	43.0723
735.745	42.9842
737.453	44.4194
739.16	46.596
740.869	47.5641
742.576	47.8541
744.282	48.7265
745.988	49.0655
747.694	50.1342
749.401	50.7318
751.107	51.25
752.811	51.4792
754.516	52.4378
756.22	53.7017
757.924	54.9099
759.627	55.4697
761.332	56.7936
763.035	58.1457
764.738	59.6194
766.44	59.568
768.142	60.289
769.843	60.6704
771.544	61.4421
773.245	61.8084
774.946	62.2584
776.646	63.0783
778.346	63.9084
780.046	65.1012
781.745	66.6199
783.444	67.7277
785.143	68.9713
786.841	69.6744
788.539	70.5339
790.237	72.1124
791.934	73.7491
793.631	74.751
795.328	76.0171
797.024	75.5813
798.72	76.9232
800.416	77.2142
802.112	78.5419
803.807	79.3632
805.502	80.5348
807.196	81.6484
808.89	83.445
810.584	83.7957
812.278	83.3797
813.971	83.7703
815.664	84.0637
817.354	84.4758
819.047	84.5406
820.739	84.77
822.43	85.0092
824.122	84.5488
825.813	83.8818
827.503	83.2426
829.192	82.3918
830.882	82.4071
832.571	81.0604
834.261	80.1509
835.95	79.693
837.637	79.2117
839.325	79.059
841.013	77.1852
842.701	76.7265
844.389	76.3848
846.074	75.9442
847.761	74.3573
849.447	72.378
851.131	69.9471
852.817	69.0326
854.503	68.2197
856.188	67.0017
857.871	66.0391
859.556	65.5425
861.24	65.0666
862.922	63.8661
864.606	62.8456
866.289	62.033
867.97	60.989
869.653	60.9164
871.336	59.9894
873.016	60.0905
874.698	60.4555
876.379	60.1544
878.058	58.9266
879.739	58.6525
881.418	57.0328
883.098	57.7248
884.778	57.5533
886.456	57.7191
888.135	57.5308
889.812	58.0891
891.49	57.4637
893.167	56.4659
894.845	55.845
896.523	55.5767
898.198	56.7263
899.875	56.7731
901.55	56.0736
903.226	56.4166
904.901	56.7957
906.576	56.9439
908.25	56.7965
909.925	57.2936
911.598	57.138
913.271	57.2357
914.945	56.1437
916.617	55.2992
918.291	55.3841
919.962	54.5787
921.635	55.6411
923.306	55.7443
924.978	55.5038
926.648	56.9514
928.318	57.1172
929.989	56.1413
931.659	55.3879
933.328	53.9098
934.998	53.2922
936.666	53.3668
938.336	53.1431
940.004	53.2325
941.671	52.4942
943.34	51.4942
945.007	50.6507
946.673	49.6863
948.339	49.1679
950.007	48.564
951.672	48.4222
953.337	47.6529
955.004	46.6108
956.669	46.7329
958.333	46.0228
959.997	44.0643
961.662	41.8915
963.326	41.6584
964.989	40.4762
966.651	41.5497
968.315	40.5539
969.977	40.0622
971.639	39.0462
973.301	38.5315
974.962	37.6118
976.624	36.9921
978.285	37.0582
979.945	36.6972
981.605	36.3602
983.264	36.0042
984.924	35.6866
986.583	35.5341
988.243	35.1655
989.901	34.3791
991.56	34.0487
993.217	34.3652
994.875	34.1915
996.532	33.9302
998.188	32.5346
999.845	33.234
1001.5	33.025
1003.16	33.4835
1004.81	34.547
1006.47	34.0704
1008.12	34.9843
1009.78	34.6094
1011.43	35.126
1013.09	34.9369
1014.74	34.8537
1016.39	35.0009
1018.05	36.4661
1019.7	37.8719
1021.35	38.2899
1023	38.6449
1024.65	37.9471
1026.31	38.8789
1027.96	39.8075
1029.61	40.5788
1031.26	40.6144
1032.91	40.7658
1034.56	40.9212
1036.21	40.4801
1037.86	39.7042
1039.51	39.1477
1041.16	37.8906
1042.8	36.7428
1044.45	37.5965
1046.1	38.1031
1047.75	38.2555
1049.39	38.3102
1051.04	36.7052
1052.69	35.2926
1054.33	34.6689
1055.98	34.9096
1057.62	33.6594
1059.27	33.4844
1060.91	32.1121
1062.56	31.2757
1064.2	31.0432
1065.85	30.0604
1067.49	28.6971
1069.13	27.4303
1070.77	27.1616
1072.42	25.9389
1074.06	24.4366
1075.7	23.2001
1077.34	21.4715
1078.98	19.5487
1080.62	17.6335
1082.27	16.8798
1083.91	15.7294
1085.55	15.5083
1087.18	15.1456
1088.82	14.9238
1090.46	15.3657
1092.1	14.829
1093.74	15.3044
1095.38	15.417
1097.02	15.0781
1098.65	15.2463
1100.29	15.0454
1101.93	15.8002
1103.56	15.7007
1105.2	16.0897
1106.84	15.6952
1108.47	15.6499
1110.11	15.2173
1111.74	15.262
1113.38	14.9824
1115.01	14.4253
1116.64	14.9402
1118.28	13.8803
1119.91	13.2979
1121.54	13.1859
1123.18	13.282
1124.81	12.8938
1126.44	12.7392
1128.07	12.5748
1129.7	12.5845
1131.33	11.6318
1132.97	11.6558
1134.6	11.8845
1136.23	12.1461
1137.86	12.1739
1139.49	10.772
1141.11	11.5635
1142.74	10.2076
1144.37	9.85983
1146	9.90779
1147.63	9.27334
1149.26	8.8219
1150.88	8.48104
1152.51	7.69623
1154.14	6.36616
1155.76	5.408
1157.39	5.05318
1159.01	4.31899
1160.64	2.92703
1162.27	2.34061
1163.89	3.08339
1165.51	3.78952
1167.14	4.32257
1168.76	3.97686
1170.39	3.59014
1172.01	3.86852
1173.63	3.5919
1175.25	3.96918
1176.88	4.054
1178.5	4.10053
1180.12	4.05384
1181.74	4.1434
1183.36	4.40673
1184.98	3.85896
1186.6	3.60253
1188.22	4.08237
1189.84	4.27799
1191.46	4.16198
1193.08	4.64233
1194.7	4.16577
1196.32	4.78083
1197.94	6.11189
1199.55	5.87161
1201.17	5.99381
1202.79	5.85533
1204.41	6.86336
1206.02	7.02243
1207.64	7.59165
1209.25	8.73368
1210.87	9.21757
1212.48	10.0528
1214.1	11.8625
1215.71	13.1748
1217.33	13.4187
1218.94	14.1386
1220.56	14.4177
1222.17	15.9598
1223.79	16.2212
1225.4	18.0173
1227.01	19.0712
1228.62	19.5571
1230.23	19.5924
1231.85	20.0666
1233.46	19.9245
1235.07	20.4423
1236.68	20.6417
1238.29	20.8314
1239.9	20.7909
1241.51	21.4399
1243.12	23.0168
1244.73	24.4939
1246.34	24.1189
1247.94	23.5555
1249.55	22.227
1251.16	22.4048
1252.77	21.3163
1254.37	21.8273
1255.98	22.1135
1257.59	20.7891
1259.2	20.2977
1260.8	19.6668
1262.41	18.8983
1264.01	18.0858
1265.62	17.8106
1267.22	17.3834
1268.83	17.0998
1270.43	16.3157
1272.03	15.2027
1273.64	15.6159
1275.24	15.4719
1276.85	15.7501
1278.45	15.928
1280.05	15.5593
1281.65	14.9689
1283.25	15.6686
1284.85	15.3879
1286.46	15.1165
1288.06	15.5572
1289.66	15.7292
1291.26	16.4206
1292.86	16.4559
1294.46	17.6003
1296.06	17.5802
1297.66	17.057
1299.25	17.992
1300.85	19.0443
1302.45	19.9788
1304.05	21.253
1305.65	22.3209
1307.24	22.7872
1308.84	23.8613
1310.43	24.5594
1312.03	25.3546
1313.63	26.0452
1315.22	27.2034
1316.82	28.1067
1318.41	28.3363
1320.01	28.9851
1321.6	30.016
1323.2	29.986
1324.79	29.0303
1326.38	29.3286
1327.98	29.1804
1329.57	29.274
1331.16	30.1703
1332.76	29.1931
1334.35	30.3725
1335.94	29.4938
1337.53	28.5973
1339.12	27.833
1340.71	27.1183
1342.3	26.0602
1343.89	25.4371
1345.48	25.1248
1347.07	25.1658
1348.66	24.6333
1350.25	23.683
1351.84	22.3511
1353.43	22.0964
1355.01	21.1762
1356.6	20.5555
1358.19	19.9439
1359.77	18.9033
1361.36	17.4612
1362.95	16.5464
1364.53	15.1243
1366.12	15.149
1367.71	14.8751
1369.29	13.9501
1370.88	13.5379
1372.46	12.9811
1374.04	12.9258
1375.63	13.2009
1377.21	13.4261
1378.8	14.3771
1380.38	13.9254
1381.96	13.743
1383.54	14.1146
1385.13	14.0617
1386.71	15.0284
1388.29	15.6272
1389.87	15.3715
1391.45	15.2938
1393.03	15.2775
1394.61	15.6487
1396.19	14.919
1397.77	15.4964
1399.35	16.0877
1400.93	16.7087
1402.51	15.3978
1404.09	15.1142
1405.67	16.7124
1407.24	16.1432
1408.82	16.0527
1410.4	15.6372
1411.98	15.1265
1413.55	15.9375
1415.13	16.6139
1416.71	17.4262
1418.28	17.6474
1419.86	19.2296
1421.43	20.5187
1423.01	21.5815
1424.58	22.5651
1426.16	23.2752
1427.73	23.7131
1429.31	24.6459
1430.88	25.376
1432.45	26.9257
1434.02	28.2294
1435.6	30.0771
1437.17	31.1555
1438.74	32.8703
1440.31	33.8683
1441.88	35.7702
1443.45	37.3216
1445.03	38.2092
1446.6	38.451
1448.17	38.2424
1449.74	38.8683
1451.3	39.1224
1452.87	39.4606
1454.44	40.0596
1456.01	39.9387
1457.58	39.5005
1459.15	38.8543
1460.72	38.6735
1462.28	40.2215
1463.85	40.5463
1465.42	40.7844
1466.98	40.0017
1468.55	38.1317
1470.12	38.0122
1471.68	37.2032
1473.25	36.1694
1474.81	34.3779
1476.38	34.0544
1477.94	32.3744
1479.51	30.7359
1481.07	28.5381
1482.63	27.9942
1484.2	26.714
1485.76	24.9579
1487.32	24.2034
1488.88	23.6736
1490.45	22.8381
1492.01	21.8285
1493.57	21.5234
1495.13	19.8058
1496.69	18.9543
1498.25	18.6356
1499.81	17.1164
1501.37	15.7424
1502.93	14.6731
1504.49	13.936
1506.05	13.7494
1507.61	13.0872
1509.17	12.3331
1510.73	12.3452
1512.28	11.1549
1513.84	10.7266
1515.4	9.2447
1516.96	8.82126
1518.51	7.67206
1520.07	7.39549
1521.63	6.29475
1523.18	4.97057
1524.74	3.79736
1526.29	3.64385
1527.85	3.58708
1529.4	2.93222
1530.96	2.17731
1532.51	1.94173
1534.06	2.18188
1535.62	1.34311
1537.17	1.41097
1538.72	1.86489
1540.28	2.66218
1541.83	2.01415
1543.38	2.49207
1544.93	2.06667
1546.48	1.95978
1548.03	1.78587
1549.59	1.80083
1551.14	0.946987
1552.69	1.35163
1554.24	2.74272
1555.79	2.30896
1557.34	2.59673
1558.88	3.71532
1560.43	4.70962
1561.98	5.37548
1563.53	6.39766
1565.08	6.9098
1566.62	7.27236
1568.17	7.52819
1569.72	8.46064
1571.27	9.2412
1572.81	9.97891
1574.36	12.2099
1575.9	12.5878
1577.45	13.3378
1579	14.5531
1580.54	15.8492
1582.09	17.115
1583.63	18.445
1585.17	18.9814
1586.72	19.1205
1588.26	20.5839
1589.8	20.769
1591.35	21.6669
1592.89	22.7042
1594.43	24.2988
1595.97	25.0631
1597.52	26.1782
1599.06	26.7749
1600.6	26.4008
1602.14	25.3659
1603.68	25.7821
1605.22	24.7481
1606.76	23.6183
1608.3	23.2401
1609.84	23.0374
1611.38	23.1264
1612.92	24.1536
1614.46	23.8572
1615.99	23.6352
1617.53	23.407
1619.07	23.5024
1620.61	23.0191
1622.14	21.9307
1623.68	22.0836
1625.22	21.363
1626.75	21.4731
1628.29	20.9111
1629.82	21.9182
1631.36	22.1249
1632.9	21.2008
1634.43	21.5551
1635.96	22.1458
1637.5	21.426
1639.03	21.2364
1640.57	21.7517
1642.1	21.6433
1643.63	21.9407
1645.16	22.0685
1646.7	22.9594
1648.23	22.7855
1649.76	24.1419
1651.29	24.3665
1652.82	24.3994
1654.36	24.9941
1655.89	25.4135
1657.42	25.7816
1658.95	25.969
1660.48	26.0504
1662.01	26.1531
1663.53	26.2449
1665.06	27.0407
1666.59	25.7457
1668.12	26.2074
1669.65	26.2911
1671.18	25.5483
1672.7	25.2323
1674.23	23.8785
1675.76	22.6818
1677.29	20.6138
1678.81	19.7898
1680.34	19.7046
1681.86	18.945
1683.39	19.0494
1684.91	19.5514
1686.44	18.1185
1687.96	17.4084
1689.49	16.5408
1691.01	14.0776
1692.54	13.0988
1694.06	11.9524
1695.58	10.7424
1697.11	9.81413
1698.63	9.12682
1700.15	9.00315
1701.67	8.54181
1703.2	7.65774
1704.72	7.00575
1706.24	6.60338
1707.76	5.46996
1709.28	4.49184
1710.8	4.44875
1712.32	4.03347
1713.84	3.37368
1715.36	3.2319
1716.88	2.75692
1718.4	2.17557
1719.91	2.20528
1721.43	2.07278
1722.95	2.00689
1724.47	1.69863
1725.99	2.03741
1727.5	1.79212
1729.02	2.57222
1730.54	2.69016
1732.05	2.34117
1733.57	2.15931
1735.09	2.19872
1736.6	1.66227
1738.12	1.6299
1739.63	1.52375
1741.15	1.50167
1742.66	1.08391
1744.18	1.99238
1745.69	1.81176
1747.2	1.71075
1748.72	1.85904
1750.23	1.30903
1751.74	2.12664
1753.25	2.57695
1754.77	2.78968
1756.28	2.83323
1757.79	2.92936
1759.3	2.7384
1760.81	2.30558
1762.32	1.12261
1763.83	1.58127
1765.34	1.44413
1766.85	0.84533
1768.36	1.04041
1769.87	0.841767
1771.38	1.32885
1772.89	1.77013
1774.4	1.75495
1775.91	2.08553
1777.41	1.83974
1778.92	1.2247
1780.43	0.940634
1781.94	1.23076
1783.44	0.636104
1784.95	1.06211
1786.45	1.47158
1787.96	1.37503
1789.47	1.7185
1790.97	1.70947
1792.47	2.10877
1793.98	2.75575
1795.48	2.90135
1796.99	2.69058
1798.49	2.87534
1800	3.02856
1801.5	2.83104
1803	3.71685
1804.51	3.87724
1806.01	3.63318
1807.51	3.30223
1809.01	3.70023
1810.51	3.91077
1812.02	4.08935
1813.52	4.86075
1815.02	5.48019
1816.52	5.81905
1818.02	5.68665
1819.52	6.26116
1821.02	6.38547
1822.52	6.84456
1824.02	7.50655
1825.51	7.73295
1827.01	8.09701
1828.51	7.96485
1830.01	7.61607
1831.51	7.90701
1833	7.89956
1834.5	7.61649
1836	7.54377
1837.49	6.95238
1838.99	6.70504
1840.49	6.02527
1841.98	5.62372
1843.48	6.08153
1844.97	5.95408
1846.47	5.92353
1847.96	5.35535
1849.46	4.95858
1850.95	4.40447
1852.45	3.82222
1853.94	3.30743
1855.43	2.61081
1856.92	2.64354
1858.42	1.82693
1859.91	1.66158
1861.4	1.05313
1862.89	0.584786
1864.39	0.161125
1865.88	0.646476
1867.37	1.2439
1868.86	1.20619
1870.35	1.37836
1871.84	1.59105
1873.33	1.89387
1874.82	1.90564
1876.31	1.76591
1877.8	2.92295
1879.29	3.2647
1880.77	3.64231
1882.26	4.1083
1882.52	4.72796
1884.02	5.01381
1885.51	5.56628
1887.01	5.66405
1888.5	6.24327
1889.99	6.10808
1891.49	6.55233
1892.98	7.23796
1894.47	8.32419
1895.96	9.21198
1897.46	9.59361
1898.95	9.52485
1900.44	9.88054
1901.93	10.6189
1903.42	11.4597
1904.91	12.4682
1906.4	12.5131
1907.89	12.6581
1909.38	12.2801
1910.87	12.4174
1912.36	13.0495
1913.85	13.4479
1915.34	14.2236
1916.83	14.4149
1918.32	13.828
1919.8	13.1775
1921.29	12.6129
1922.78	12.1021
1924.27	11.8337
1925.75	11.7549
1927.24	11.8317
1928.73	11.2508
1930.21	11.3444
1931.7	11.3919
1933.18	12.1328
1934.67	11.5513
1936.15	11.892
1937.64	12.3683
1939.12	13.3977
1940.61	13.0567
1942.09	13.0143
1943.57	13.663
1945.06	14.1489
1946.54	13.4882
1948.02	13.6093
1949.51	13.944
1950.99	14.3733
1952.47	15.2427
1953.95	15.1592
1955.43	15.4721
1956.91	14.9256
1958.39	14.7113
1959.87	14.7939
1961.36	15.4206
1962.84	15.2365
1964.32	14.9887
1965.79	14.9615
1967.27	15.204
1968.75	15.2832
1970.23	14.8848
1971.71	14.2341
1973.19	13.7303
1974.66	13.4519
1976.14	13.2882
1977.62	12.619
1979.1	11.829
1980.57	10.5618
1982.05	9.83418
1983.53	9.88157
1985	9.90525
1986.48	9.01566
1987.95	8.40194
1989.43	8.2121
1990.9	7.07025
1992.38	7.12807
1993.85	7.2159
1995.33	7.21928
1996.8	7.37308
1998.27	7.56745
1999.75	7.0644
2001.22	7.2393
2002.69	7.09136
2004.16	7.63583
2005.64	7.98999
2007.11	8.18064
2008.58	8.15184
2010.05	9.14629
2011.52	10.0069
2012.99	10.347
2014.46	10.3689
2015.93	11.2526
2017.4	12.5225
2018.87	12.639
2020.34	12.3027
2021.81	12.8009
2023.28	12.7364
2024.75	12.9042
2026.22	14.1715
2027.69	13.1576
2029.15	13.9321
2030.62	14.2029
2032.09	14.9454
2033.56	14.7805
2035.02	14.5944
2036.49	13.8801
2037.95	14.3281
2039.42	13.8828
2040.89	14.4615
2042.35	14.3667
2043.82	14.5065
2045.28	13.8148
2046.75	13.7985
2048.21	13.527
2049.67	14.2343
2051.14	14.6427
2052.6	14.6085
2054.06	15.3192
2055.53	16.1273
2056.99	16.8774
2058.45	16.3163
2059.92	16.9115
2061.38	18.0962
2062.84	18.2301
2064.3	18.9321
2065.76	20.1047
2067.22	19.9231
2068.68	19.884
2070.14	20.2735
2071.6	20.8199
2073.06	21.1803
2074.52	21.8205
2075.98	22.5946
2077.44	23.2419
2078.9	23.9264
2080.36	24.0568
2081.82	23.9498
2083.27	23.9247
2084.73	23.9621
2086.19	23.5667
2087.65	22.9379
2089.1	23.3361
2090.56	23.0821
2092.01	22.5025
2093.47	22.6924
2094.93	22.1654
2096.38	22.3105
2097.84	22.3966
2099.29	22.7614
2100.75	21.7929
2102.2	22.0584
2103.66	21.9135
2105.11	21.5991
2106.56	21.0041
2108.02	20.9534
2109.47	21.0353
2110.92	20.4775
2112.37	20.0931
2113.83	20.344
2115.28	20.0073
2116.73	20.0012
2118.18	20.307
2119.63	20.7362
2121.09	20.871
2122.54	21.2251
2123.99	21.3934
2125.44	21.1531
2126.89	22.0143
2128.34	22.1424
2129.79	21.883
2131.23	21.728
2132.68	22.438
2134.13	22.2025
2135.58	21.9606
2137.03	22.897
2138.48	23.4287
2139.92	23.5528
2141.37	24.3873
2142.82	25.1172
2144.26	25.4521
2145.71	25.5644
2147.16	25.8779
2148.6	26.6312
2150.05	26.6142
2151.49	27.1412
2152.94	27.0495
2154.38	27.3949
2155.83	27.8395
2157.27	27.9604
2158.72	28.0054
2160.16	28.7994
2161.6	30.0489
2163.05	30.2869
2164.49	30.9404
2165.93	31.8461
2167.38	31.7712
2168.82	32.5651
2170.26	32.1336
2171.7	32.0048
2173.14	32.0258
2174.58	32.3155
2176.03	32.5773
2177.47	31.5684
2178.91	30.9227
2180.35	31.0518
2181.79	30.7133
2183.23	29.7223
2184.67	29.3273
2186.1	29.5104
2187.54	28.8798
2188.98	28.6011
2190.42	28.2718
2191.86	27.514
2193.3	26.7751
2194.73	26.5147
2196.17	26.0408
2197.61	25.0449
2199.05	24.5936
2200.48	23.4459
2201.92	22.8948
2203.35	22.6066
2204.79	22.4518
2206.22	21.6476
2207.66	20.8754
2209.09	20.8602
2210.53	20.6589
2211.96	19.5326
2213.4	18.9949
2214.83	18.8183
2216.27	18.6186
2217.7	18.4594
2219.13	18.158
2220.56	18.6049
2222	18.7147
2223.43	19.1409
2224.86	18.9897
2226.29	19.7866
2227.72	20.3644
2229.16	20.9472
2230.59	21.7654
2232.02	21.8993
2233.45	21.9705
2234.88	21.7896
2236.31	21.8707
2237.74	22.0963
2239.17	20.8116
2240.6	20.1049
2242.03	19.4339
2243.45	19.5822
2244.88	19.9175
2246.31	19.172
2247.74	18.7189
2249.17	18.3799
2250.59	18.3964
2252.02	18.1421
2253.45	18.2411
2254.87	17.6992
2256.3	17.4796
2257.73	17.5838
2259.15	16.7374
2260.58	17.4764
2262	17.189
2263.43	16.461
2264.85	15.9261
2266.28	15.6167
2267.7	15.2452
2269.13	14.9144
2270.55	14.6051
2271.97	14.0243
2273.4	14.1292
2274.82	13.2615
2276.24	12.7151
2277.66	12.0885
2279.09	12.3478
2280.51	12.6786
2281.93	13.045
2283.35	13.3904
2284.77	14.4954
2286.19	15.1808
2287.61	16.0596
2289.04	17.243
2290.46	18.3243
2291.88	18.6507
2293.29	18.7156
2294.71	18.7778
2296.13	19.2033
2297.55	20.178
2298.97	20.0212
2300.39	21.0845
2301.81	21.5661
2303.23	21.4942
2304.64	21.8048
2306.06	21.8864
2307.48	22.3512
2308.89	22.3082
2310.31	22.5031
2311.73	23.0128
2313.14	22.7329
2314.56	22.3707
2315.97	22.4401
2317.39	21.9036
2318.8	22.1593
2320.22	22.3465
2321.63	22.6407
2323.05	22.4358
2324.46	22.1393
2325.88	20.9699
2327.29	20.8509
2328.7	20.9987
2330.12	20.6552
2331.53	20.2695
2332.94	19.432
2334.35	17.8603
2335.76	17.4146
2337.18	17.0456
2338.59	16.1756
2340	15.1823
2341.41	14.4009
2342.82	13.5152
2344.23	13.3367
2345.64	12.6384
2347.05	12.2407
2348.46	11.6119
2349.87	11.5267
2351.28	10.9849
2352.69	11.0571
2354.1	10.7409
2355.5	10.2761
2356.91	10.182
2358.32	10.1906
2359.73	9.72038
2361.14	8.94309
2362.54	7.89775
2363.95	8.50665
2365.36	8.72259
2366.76	9.95102
2368.17	10.4419
2369.58	10.2789
2370.98	11.0715
2372.39	10.1894
2373.79	9.28048
2375.2	8.84704
2376.6	9.30343
2378	9.80101
2379.41	9.55252
2380.81	8.97948
2382.22	8.92609
2383.62	8.6678
2385.02	8.89929
2386.42	9.57036
2387.83	9.43377
2389.23	9.35486
2390.63	9.10953
2392.03	9.38222
2393.43	8.61977
2394.84	8.68837
2396.24	8.50543
2397.64	8.74386
2399.04	8.54431
2400.44	8.74679
2401.84	8.65046
2403.24	8.45876
2404.64	7.89179
2406.04	8.57408
2407.44	8.85148
2408.83	8.29934
2410.23	8.5855
2411.63	8.36097
2413.03	8.33783
2414.43	8.30385
2415.83	8.14433
2417.22	7.91802
2418.62	8.48978
2420.02	8.40849
2421.41	8.61799
2422.81	8.74862
2424.21	9.0432
2425.6	9.00297
2427	9.64763
2428.39	9.442
2429.79	9.6076
2431.18	9.45044
2432.58	8.89568
2433.97	9.23743
2435.36	8.70987
2436.76	8.4809
2438.15	7.7076
2439.54	7.88859
2440.94	7.69732
2442.33	7.22589
2443.72	7.25406
2445.11	7.18112
2446.51	7.59971
2447.9	7.05966
2449.29	6.41666
2450.68	5.97664
2452.07	6.13946
2453.46	5.7564
2454.85	5.68761
2456.24	6.04235
2457.63	5.34414
2459.02	4.84471
2460.41	4.55852
2461.8	3.98685
2463.19	3.5868
2464.58	3.44045
2465.97	3.08876
2467.36	3.35006
2468.75	2.67309
2470.13	2.3459
2471.52	2.30742
2472.91	2.79659
2474.29	2.76454
2475.68	2.6312
2477.07	2.94665
2478.45	3.00889
2479.84	3.63694
2481.22	3.18827
2482.61	3.30084
2484	3.24931
2485.38	3.10558
2486.77	3.46452
2488.15	3.88126
2489.54	2.97992
2490.92	3.80243
2492.3	4.1444
2493.69	3.78939
2495.07	2.99414
2496.45	2.65329
2497.84	1.93152
2499.22	1.99724
2500.6	2.25269
2501.98	1.93934
2503.36	2.11287
2504.74	2.15753
2506.13	2.09829
2507.51	2.40075
2508.89	2.36564
2510.27	1.81362
2511.65	1.34855
2513.03	1.09771
2514.41	1.10344
2515.79	1.50318
2517.17	1.74586
2518.55	2.19655
2519.93	2.71397
2521.3	3.16528
2522.68	3.5935
2524.06	4.02772
2525.44	3.81089
2526.82	3.26247
2528.19	3.46976
2529.57	3.71899
2530.95	3.00998
2532.32	3.33229
2533.7	3.30005
2535.08	3.19111
2536.45	3.35168
2537.83	3.75329
2539.2	4.49791
2540.58	4.37396
2541.95	4.13351
2543.33	4.26733
2544.7	4.92708
2546.08	5.7977
2547.45	5.91942
2548.82	5.76989
2550.2	5.08765
2551.57	5.14732
2552.94	5.33692
2554.32	4.83521
2555.69	5.23851
2557.06	4.89341
2558.43	4.64712
2559.8	4.6474
2561.17	4.19396
2562.55	3.13421
2563.92	3.15751
2565.29	3.04126
2566.66	3.20204
2568.03	3.52464
2569.4	3.8091
2570.77	2.85191
2572.14	2.67093
2573.51	2.39799
2574.88	2.03245
2576.24	1.89403
2577.61	1.73711
2578.98	1.17984
2580.35	0.83702
2581.72	1.12051
2583.09	1.89893
2584.45	2.0439
2585.82	2.26327
2587.19	2.4629
2588.55	2.06069
2589.92	1.64407
2591.28	1.73162
2592.65	2.2931
2594.02	1.68574
2595.38	1.88532
2596.75	1.37894
2598.11	1.04517
2599.48	0.31106
2600.84	0.594151
2602.2	0.764097
2603.57	0.792868
2604.93	0.632873
2606.3	0.666692
2607.66	0.76582
2609.02	1.06822
2610.38	2.15456
2611.75	2.75012
2613.11	3.02623
2614.47	2.85155
2615.83	2.41762
2617.19	2.98268
2618.56	2.65413
2619.92	2.79498
2621.28	3.18983
2622.64	2.88914
2624	3.63925
2625.36	3.45104
2626.72	3.37818
2628.08	3.52067
2629.44	4.00891
2630.8	4.14055
2632.15	4.59566
2633.51	4.60631
2634.87	5.36175
2636.23	6.06669
2637.59	6.43095
2638.94	6.13869
2640.3	6.41345
2641.66	6.40922
2643.02	6.61789
2644.37	6.40036
2645.73	6.87833
2647.08	6.5919
2648.44	7.06929
2649.8	6.50945
2651.15	6.39935
2652.51	5.17487
2653.86	4.83009
2655.22	4.96981
2656.57	4.98132
2657.92	5.89653
2659.28	6.75571
2660.63	6.9424
2661.99	6.35154
2663.34	6.55483
2664.69	6.44273
2666.04	6.9498
2667.4	6.84426
2668.75	7.07328
2670.1	7.31483
2671.45	7.00424
2672.81	6.66678
2674.16	7.06435
2675.51	6.93101
2676.86	6.88309
2678.21	6.29706
2679.56	6.51793
2680.91	7.1113
2682.26	6.94484
2683.61	7.4762
2684.96	7.66864
2686.31	7.09151
2687.66	6.8828
2689	7.12398
2690.35	6.46777
2691.7	6.14508
2693.05	5.32585
2694.4	5.588
2695.74	5.39915
2697.09	4.83732
2698.44	4.60198
2699.79	4.64421
2701.13	5.02849
2702.48	5.23459
2703.82	5.13298
2705.17	4.60222
2706.52	4.41437
2707.86	4.45866
2709.21	4.21007
2710.55	4.85301
2711.9	5.10617
2713.24	4.97599
2714.58	4.3173
2715.93	4.07809
2717.27	2.84828
2718.61	3.03499
2719.96	3.57428
2721.3	4.71786
2722.64	5.17359
2723.99	4.96644
2725.33	5.68125
2726.67	5.86489
2728.01	5.46371
2729.35	5.45399
2730.7	5.60607
2732.04	5.51358
2733.38	4.95637
2734.72	4.62656
2736.06	4.31866
2737.4	4.19078
2738.74	4.46995
2740.08	4.66313
2741.42	5.08281
2742.76	4.82075
2744.09	5.39914
2745.43	4.98546
2746.77	5.54211
2748.11	5.58941
2749.45	4.64884
2750.79	4.54324
2752.12	4.37491
2753.46	4.73413
2754.8	4.55424
2756.13	4.3463
2757.47	3.21986
2758.81	3.40196
2760.14	2.84027
2761.48	3.15278
2762.81	2.64143
2764.15	2.37973
2765.49	3.1385
2766.82	3.61143
2768.15	3.83463
2769.49	3.435
2770.82	3.18258
2772.16	2.61592
2773.49	2.95326
2774.82	3.48833
2776.16	3.59985
2777.49	3.7496
2778.82	3.07537
2780.16	2.54812
2781.49	2.04176
2782.82	1.90412
2784.15	1.76651
2785.48	2.47206
2786.81	2.86186
2788.15	2.68359
2789.48	2.42538
2790.81	2.32546
2792.14	2.70797
2793.47	2.40389
2794.8	1.82594
2796.13	1.47442
2797.46	1.55127
2798.79	1.52927
2800.12	1.16483
2801.44	1.56112
2802.77	1.84032
2804.1	1.97145
2805.43	2.30011
2806.76	1.9965
2808.08	2.32474
2809.41	2.34661
2810.74	2.73222
2812.07	2.93138
2813.39	2.46942
2814.72	2.81298
2816.05	3.40133
2817.37	4.63092
2818.7	5.59438
2820.02	5.9894
2821.35	5.61052
2822.67	6.26494
2824	7.22058
2825.32	8.06609
2826.65	8.39558
2827.97	9.268
2829.29	9.65438
2830.62	10.9445
2831.94	12.6583
2833.26	13.7009
2834.59	14.5686
2835.91	15.606
2837.23	17.296
2838.55	19.2135
2839.88	21.7474
2841.2	23.2626
2842.52	24.8723
2843.84	26.6347
2845.16	28.1767
2846.48	30.7355
2847.8	32.4634
2849.12	34.9428
2850.44	37.7546
2851.76	40.3078
2853.08	42.6699
2854.4	44.2499
2855.72	47.0476
2857.04	49.5394
2858.36	51.6877
2859.68	53.8008
2861	56.1785
2862.32	58.8735
2863.63	61.6188
2864.95	63.2718
2866.27	65.0816
2867.58	67.1822
2868.9	68.9244
2870.22	70.7172
2871.53	72.0447
2872.85	73.2803
2874.17	75.1826
2875.48	76.3127
2876.8	77.7154
2878.11	78.5825
2879.43	79.1798
2880.74	81.2921
2882.06	82.2996
2883.37	83.2962
2884.69	83.7042
2886	84.6428
2887.31	86.0868
2888.63	87.697
2889.94	87.544
2891.25	87.6717
2892.57	88.0666
2893.88	88.5579
2895.19	89.6609
2896.5	90.9284
2897.82	91.9831
2899.13	92.8814
2900.44	93.0421
2901.75	94.4716
2903.06	95.4553
2904.37	96.8135
2905.68	98.9458
2906.99	100.589
2908.3	103.093
2909.61	105.26
2910.92	107.842
2912.23	111.103
2913.54	113.425
2914.85	116.285
2916.16	119.644
2917.46	122.123
2918.77	124.15
2920.08	126.485
2921.39	129.609
2922.7	130.528
2924	132.005
2925.31	133.527
2926.62	135.945
2927.92	136.429
2929.23	137.033
2930.53	137.22
2931.84	137.853
2933.15	138.017
2934.45	138.225
2935.76	138.035
2937.06	137.449
2938.37	136.862
2939.67	136.397
2940.98	135.123
2942.28	134.244
2943.58	132.906
2944.89	131.339
2946.19	129.918
2947.49	128.22
2948.8	126.985
2950.1	124.766
2951.4	123.025
2952.7	120.809
2954.01	117.984
2955.31	114.259
2956.61	111.945
2957.91	108.554
2959.21	105.753
2960.51	103.378
2961.81	99.8419
2963.11	96.7119
2964.41	94.2561
2965.71	91.7741
2967.01	90.4255
2968.31	88.7906
2969.61	86.5125
2970.91	85.3161
2972.21	82.8219
2973.51	80.7224
2974.81	78.6963
2976.1	76.5464
2977.4	74.4595
2978.7	72.0915
2980	69.4523
2981.29	67.3724
2982.59	64.5949
2983.89	62.1062
2985.18	59.1439
2986.48	56.6422
2987.78	53.8243
2989.07	51.5822
2990.37	49.459
2991.66	47.5478
2992.96	44.67
2994.25	42.7072
2995.55	40.4656
2996.84	38.2707
2998.14	36.5414
2999.43	34.75
3000.72	32.8211
3002.02	30.8165
3003.31	28.9161
3004.6	27.8101
3005.9	26.2623
3007.19	25.3245
3008.48	23.8718
3009.77	22.491
3011.07	21.8536
3012.36	20.9848
3013.65	19.8051
3014.94	19.0598
3016.23	18.4301
3017.52	17.3174
3018.81	16.2428
3020.1	15.0912
3021.39	14.323
3022.68	12.4508
3023.97	11.6861
3025.26	10.9504
3026.55	10.3096
3027.84	10.2577
3029.13	9.99829
3030.42	9.58727
3031.71	9.28375
3033	8.36653
3034.28	6.51638
3035.57	6.63318
3036.86	5.5112
3038.15	5.59278
3039.43	5.46277
3040.72	5.27776
3042.01	4.85378
3043.29	4.30864
3044.58	3.99886
3045.86	4.0119
3047.15	3.2159
3048.44	3.31571
3049.72	2.72041
3051.01	3.5152
3052.29	3.59429
3053.58	3.75647
3054.86	3.79172
3056.14	3.37611
3057.43	3.28991
3058.71	3.99607
3060	3.75205
3061.28	3.92237
3062.56	4.22303
3063.84	4.22989
3065.13	4.1995
3066.41	4.39066
3067.69	4.73252
3068.97	5.071
3070.25	5.47489
3071.54	6.03765
3072.82	6.65355
3074.1	6.74843
3075.38	6.64647
3076.66	6.53577
3077.94	6.84061
3079.22	7.22099
3080.5	7.13263
3081.78	6.46192
3083.06	6.68835
3084.34	6.24243
3085.62	5.23735
3086.9	4.80851
3088.17	4.90014
3089.45	4.80599
3090.73	4.70963
3092.01	4.22999
3093.29	4.26881
3094.56	4.21633
3095.84	3.74832
3097.12	3.68856
3098.4	3.29611
3099.67	3.6928
3100.95	3.77966
3102.22	3.68658
3103.5	3.44443
3104.77	3.05575
3106.05	2.73927
3107.33	2.45914
3108.6	2.23892
3109.88	2.09948
3111.15	1.8225
3112.43	1.95653
3113.7	1.91264
3114.97	1.68329
3116.25	1.33836
3117.52	0.500827
3118.79	-0.0603695
3120.07	0.00851241
3121.34	0.26911
3122.61	0.174217
3123.88	-0.879366
3125.16	-0.812958
3126.43	-0.915719
3127.7	-0.832015
3128.97	-1.26814
3130.24	-1.22263
3131.51	-1.37811
3132.78	-1.54979
3134.05	-1.686
3135.33	-2.0124
3136.59	-2.19215
3137.86	-3.17095
3139.14	-3.18016
3140.41	-3.22795
3141.67	-3.32699
3142.94	-3.68696
3144.21	-4.00876
3145.48	-4.10293
3146.75	-4.42418
3148.02	-3.81729
3149.28	-3.26981
