#Acq. time (s)=	45
#Accumulations=	2
#Range (cm-¹)=	200...3150
#Windows=	2
#Auto scanning=	Off
#Autofocus=	Off
#Macrospot=	Off
#AutoExposure=	Off
#Spike filter=	Multiple accum.
#Delay time (s)=	0
#Binning=	1
#Readout mode=	Signal
#DeNoise=	Off
#ICS correction=	On
#Dark correction=	Off
#Inst. Process=	Off
#Detector Gain=	Best Dynamic Range
#Detector ADC=	20 kHz       
#Detector temperature (°C)=	-69.85
#Instrument=	LabRAM HR Evol
#Detector=	Synapse
#Objective=	x100
#Grating=	600 gr/mm
#ND Filter=	100%
#Laser (nm)=	532 
#Hole=	100.021
#Range=	Auto
#Laser Pol.=	No
#Raman. Pol.=	No
#Laser Pol. (°)=	-0.0007625
#Raman Pol. (°)=	89.9995
#Collection=	Microscope
#StageXY=	Marzhauser
#StageZ=	Marzhauser
#X (µm)=	-626
#Y (µm)=	-1671.5
#Z (µm)=	89.55
#Full time(mm:ss)=	3:18
#Project=	
#Sample=	
#Site=	
#Title=	Mb_10_14_37_2x_45s_532 nm_x100_100%_600 gr_mm
#Remark=	
#Date=	11.07.2022 11:22
#Acquired=	11.07.2022 11:22:03
#Edit:Spike=	11.07.2022 11:29:36
#Base:Fit=	10.08.2022 10:21:11
#Base:Sub=	10.08.2022 10:21:41
#Filter:Polynom=	16.08.2022 10:17:53
#AxisType[0]=Intens
#AxisUnit[0]=Cnt
#AxisType[1]=Spectr
#AxisUnit[1]=1/cm
200.388	8.05158
202.204	5.84782
204.019	5.78401
205.832	5.38262
207.646	5.22141
209.459	4.45019
211.274	3.93721
213.087	3.83008
214.899	4.62386
216.711	4.43037
218.524	6.37578
220.335	6.44763
222.146	8.08489
223.956	9.67536
225.766	10.2996
227.576	9.94755
229.388	10.2518
231.197	11.1731
233.005	12.1196
234.813	13.033
236.621	14.0555
238.429	13.7853
240.236	15.0581
242.045	15.9515
243.852	16.3365
245.658	17.7388
247.464	18.3436
249.269	18.8839
251.074	19.5489
252.879	19.8947
254.683	20.1968
256.487	19.0825
258.291	19.3641
260.094	19.9842
261.897	20.3351
263.702	22.0206
265.504	23.1433
267.306	22.6044
269.108	23.5126
270.909	24.5111
272.71	24.6522
274.511	24.422
276.311	24.1664
278.111	24.5496
279.91	23.3425
281.709	22.0655
283.508	21.3057
285.306	21.3044
287.105	20.3056
288.9	20.1589
290.698	20.281
292.495	20.1014
294.291	18.727
296.088	17.9535
297.884	17.2785
299.679	17.9093
301.475	17.7027
303.27	17.1091
305.064	17.2596
306.858	16.8333
308.652	17.8882
310.444	17.4665
312.237	17.712
314.03	17.1462
315.822	16.071
317.615	16.0766
319.406	17.0069
321.198	17.2989
322.987	17.3459
324.778	17.2912
326.568	17.2216
328.358	16.2784
330.148	16.0239
331.935	15.5975
333.724	15.6821
335.513	15.7321
337.301	14.7998
339.089	14.7199
340.875	14.8615
342.662	14.636
344.449	14.1368
346.236	14.2356
348.02	15.7866
349.806	16.0716
351.592	16.8702
353.375	17.8615
355.16	18.4662
356.944	18.04
358.728	19.6067
360.51	20.7954
362.294	22.1748
364.077	21.7115
365.858	21.9349
367.64	22.0918
369.422	22.11
371.202	23.6315
372.983	24.4076
374.764	25.6213
376.543	26.2638
378.324	26.3731
380.102	26.459
381.881	26.2395
383.661	26.4489
385.438	26.1032
387.216	26.4967
388.993	26.308
390.771	26.9196
392.548	27.3554
394.324	28.1846
396.101	27.9811
397.875	27.9374
399.651	27.1098
401.425	25.7937
403.201	25.4589
404.974	24.7877
406.749	24.6217
408.524	24.0118
410.296	22.6333
412.07	21.6728
413.841	20.1914
415.614	18.3277
417.385	15.9924
419.156	14.7527
420.928	14.2767
422.698	13.4742
424.469	11.8356
426.238	11.1427
428.009	10.2989
429.777	8.13955
431.548	7.6722
433.315	7.98742
435.083	8.18858
436.852	7.87886
438.618	5.93248
440.387	4.95911
442.153	4.86999
443.919	4.15722
445.686	4.36372
447.451	5.18413
449.218	5.34227
450.982	4.22984
452.746	2.99672
454.512	3.14009
456.275	3.24077
458.038	4.28177
459.803	3.59659
461.565	3.38779
463.327	3.55015
465.091	3.38615
466.852	2.77893
468.613	3.54559
470.374	4.77299
472.136	5.35822
473.896	5.73009
475.655	6.67865
477.415	7.42744
479.176	7.48545
480.934	6.60298
482.692	5.669
484.45	5.72994
486.21	5.93505
487.967	6.46008
489.724	7.11785
491.481	7.6566
493.237	7.5632
494.995	7.96913
496.75	8.88062
498.506	8.482
500.26	9.42119
502.015	8.94322
503.769	9.33362
505.525	10.0214
507.279	10.9382
509.032	11.3657
510.785	11.7182
512.537	12.6677
514.289	13.1313
516.041	12.9986
517.793	13.3871
519.546	14.8253
521.297	14.6453
523.047	14.1571
524.797	13.4186
526.547	12.8842
528.297	13.799
530.046	15.1504
531.795	15.2482
533.543	16.1282
535.291	15.7511
537.039	14.9505
538.787	14.9293
540.534	16.1433
542.281	16.7768
544.027	16.2357
545.773	16.1586
547.519	16.1541
549.264	16.553
551.01	16.0555
552.754	16.1863
554.499	15.5051
556.243	16.4594
557.987	16.2235
559.73	14.5492
561.474	13.1817
563.216	12.2923
564.959	11.2788
566.701	9.9565
568.441	9.35459
570.182	9.2133
571.923	9.59003
573.664	8.66815
575.405	7.81699
577.145	7.2347
578.885	7.17729
580.624	7.03146
582.361	7.52688
584.1	6.66899
585.839	5.06574
587.577	4.6456
589.315	4.49644
591.052	4.46512
592.787	3.39406
594.524	2.06289
596.26	1.72233
597.997	1.28554
599.732	2.02054
601.466	0.628538
603.201	0.982119
604.936	1.04278
606.67	0.701458
608.403	0.00608989
610.136	0.0830089
611.87	0.0829109
613.603	1.43989
615.334	2.36585
617.067	2.69718
618.799	3.09934
620.529	4.15985
622.26	4.93692
623.991	5.2065
625.72	6.1189
627.451	6.86825
629.181	7.52949
630.909	7.86139
632.638	8.35647
634.368	8.56795
636.095	8.32852
637.823	8.48605
639.551	9.23591
641.277	9.09278
643.005	10.5926
644.73	10.1635
646.457	10.0481
648.184	10.4494
649.908	10.6213
651.634	10.8636
653.357	11.5932
655.083	12.0536
656.806	12.1221
658.53	12.344
660.253	12.2086
661.977	12.8446
663.7	13.1971
665.422	12.4067
667.145	12.4609
668.865	11.5977
670.588	11.0523
672.308	11.4596
674.027	12.1796
675.749	11.9569
677.468	10.2805
679.188	9.83803
680.907	9.89028
682.627	10.7273
684.345	10.2089
686.064	10.159
687.781	9.79317
689.498	10.6716
691.216	10.5112
692.932	11.4589
694.65	11.5907
696.366	13.6012
698.081	15.4056
699.797	16.449
701.512	17.0147
703.228	17.717
704.942	19.5603
706.655	20.4222
708.371	20.5293
710.083	20.7741
711.796	22.057
713.51	22.5235
715.222	23.5191
716.934	23.3665
718.645	24.3672
720.358	26.4184
722.068	26.7728
723.779	27.0839
725.49	27.9548
727.2	28.9663
728.909	29.5345
730.618	29.4891
732.329	30.452
734.037	31.508
735.745	32.7196
737.453	34.6736
739.16	35.1408
740.869	35.1022
742.576	35.2823
744.282	35.9118
745.988	36.2529
747.694	36.676
749.401	36.9225
751.107	38.874
752.811	40.9791
754.516	41.1446
756.22	42.7468
757.924	43.4849
759.627	44.597
761.332	45.1638
763.035	46.6812
764.738	48.3864
766.44	49.9533
768.142	51.4158
769.843	52.7753
771.544	54.602
773.245	56.328
774.946	58.202
776.646	59.4821
778.346	61.5846
780.046	63.2936
781.745	64.6834
783.444	65.5382
785.143	65.3774
786.841	65.8377
788.539	66.6373
790.237	67.6634
791.934	67.5182
793.631	68.5695
795.328	69.2459
797.024	70.0513
798.72	70.7115
800.416	71.2168
802.112	70.7263
803.807	71.5881
805.502	71.1781
807.196	70.0459
808.89	70.4008
810.584	70.5563
812.278	69.3842
813.971	68.415
815.664	68.369
817.354	68.1685
819.047	67.0561
820.739	65.8728
822.43	65.4356
824.122	64.1206
825.813	64.1627
827.503	64.8203
829.192	64.1411
830.882	63.6971
832.571	63.5398
834.261	63.2431
835.95	63.6021
837.637	61.7082
839.325	61.481
841.013	60.474
842.701	60.7152
844.389	60.3096
846.074	59.9215
847.761	59.9528
849.447	60.026
851.131	59.9765
852.817	59.6084
854.503	58.9871
856.188	57.6583
857.871	57.3029
859.556	55.9471
861.24	54.6841
862.922	54.1135
864.606	52.9724
866.289	52.8826
867.97	52.3485
869.653	51.687
871.336	51.4815
873.016	51.0526
874.698	50.1134
876.379	49.7293
878.058	50.1965
879.739	50.1746
881.418	50.5984
883.098	49.8606
884.778	49.0229
886.456	48.2407
888.135	49.5901
889.812	48.7427
891.49	48.4249
893.167	48.5413
894.845	47.6986
896.523	46.6834
898.198	48.1915
899.875	48.6997
901.55	48.9163
903.226	48.4035
904.901	49.1132
906.576	49.079
908.25	48.6506
909.925	48.636
911.598	47.1767
913.271	46.0745
914.945	45.6506
916.617	45.9654
918.291	46.1644
919.962	46.0431
921.635	45.3492
923.306	46.1382
924.978	45.4547
926.648	46.4542
928.318	44.9584
929.989	45.2531
931.659	45.1802
933.328	45.0678
934.998	44.7561
936.666	43.1503
938.336	41.2524
940.004	39.4387
941.671	38.0903
943.34	36.6643
945.007	36.7465
946.673	35.9311
948.339	35.2034
950.007	35.2733
951.672	33.2005
953.337	33.3824
955.004	33.0185
956.669	32.7026
958.333	32.639
959.997	33.3039
961.662	32.2679
963.326	32.1133
964.989	31.2826
966.651	29.9849
968.315	30.0151
969.977	29.7929
971.639	30.771
973.301	30.1544
974.962	30.681
976.624	31.0204
978.285	30.5748
979.945	30.3162
981.605	31.3817
983.264	30.3649
984.924	28.8536
986.583	27.7375
988.243	27.1603
989.901	26.0988
991.56	26.5256
993.217	26.3455
994.875	25.5908
996.532	25.9161
998.188	26.1791
999.845	26.6799
1001.5	26.4143
1003.16	25.3754
1004.81	24.282
1006.47	24.0186
1008.12	24.147
1009.78	24.4308
1011.43	24.076
1013.09	25.0247
1014.74	25.306
1016.39	25.8457
1018.05	24.9681
1019.7	24.9042
1021.35	25.4501
1023	26.4602
1024.65	27.4916
1026.31	28.2989
1027.96	28.7322
1029.61	28.4101
1031.26	29.3486
1032.91	30.2538
1034.56	30.4493
1036.21	31.7636
1037.86	31.9701
1039.51	32.6053
1041.16	31.8159
1042.8	31.3714
1044.45	31.3552
1046.1	32.6893
1047.75	32.9323
1049.39	32.674
1051.04	32.3038
1052.69	31.912
1054.33	30.6382
1055.98	30.6147
1057.62	29.6405
1059.27	28.141
1060.91	27.5882
1062.56	26.6667
1064.2	26.2327
1065.85	24.6054
1067.49	22.9317
1069.13	22.0421
1070.77	20.7596
1072.42	20.2715
1074.06	19.7672
1075.7	18.4876
1077.34	17.399
1078.98	16.5674
1080.62	16.4722
1082.27	16.1096
1083.91	14.2375
1085.55	13.254
1087.18	12.4228
1088.82	12.7559
1090.46	12.7656
1092.1	12.0412
1093.74	11.6049
1095.38	11.8223
1097.02	10.7953
1098.65	10.8552
1100.29	10.5102
1101.93	11.0472
1103.56	10.3187
1105.2	10.6259
1106.84	9.78277
1108.47	9.77158
1110.11	9.24474
1111.74	8.39863
1113.38	8.68175
1115.01	8.26614
1116.64	8.29078
1118.28	8.45124
1119.91	7.8245
1121.54	6.36583
1123.18	5.06203
1124.81	5.8091
1126.44	6.36277
1128.07	4.58003
1129.7	3.7371
1131.33	2.82133
1132.97	2.70916
1134.6	3.24012
1136.23	3.18939
1137.86	4.12661
1139.49	3.28714
1141.11	3.09255
1142.74	4.05625
1144.37	3.80085
1146	3.48707
1147.63	3.41519
1149.26	3.15464
1150.88	3.53349
1152.51	2.96625
1154.14	2.33341
1155.76	2.98875
1157.39	3.16751
1159.01	3.20754
1160.64	4.56828
1162.27	4.4454
1163.89	3.836
1165.51	2.13073
1167.14	2.66446
1168.76	2.26111
1170.39	2.55366
1172.01	2.96308
1173.63	2.21191
1175.25	2.85805
1176.88	3.19165
1178.5	3.65252
1180.12	4.45221
1181.74	4.68504
1183.36	5.60187
1184.98	5.4392
1186.6	6.25868
1188.22	6.87498
1189.84	7.70177
1191.46	7.6472
1193.08	8.85582
1194.7	9.4198
1196.32	10.2281
1197.94	9.76355
1199.55	8.98833
1201.17	8.6555
1202.79	8.95734
1204.41	9.89303
1206.02	11.3381
1207.64	11.3533
1209.25	11.2088
1210.87	12.8622
1212.48	14.1511
1214.1	15.1698
1215.71	15.7567
1217.33	15.7309
1218.94	15.8621
1220.56	16.2631
1222.17	17.2576
1223.79	18.7794
1225.4	19.1679
1227.01	20.1894
1228.62	21.2678
1230.23	20.9434
1231.85	21.0313
1233.46	20.6385
1235.07	21.8241
1236.68	23.6267
1238.29	23.5521
1239.9	23.1696
1241.51	24.0352
1243.12	22.7522
1244.73	23.7798
1246.34	23.6275
1247.94	24.7704
1249.55	24.4582
1251.16	24.5141
1252.77	23.9509
1254.37	23.7234
1255.98	24.9515
1257.59	24.7528
1259.2	25.0454
1260.8	25.1959
1262.41	26.313
1264.01	27.1205
1265.62	26.6688
1267.22	27.5197
1268.83	27.4243
1270.43	26.7207
1272.03	27.4723
1273.64	27.8144
1275.24	27.1806
1276.85	27.3038
1278.45	27.2168
1280.05	28.3854
1281.65	29.2355
1283.25	29.6236
1284.85	29.9982
1286.46	31.34
1288.06	30.7158
1289.66	31.5566
1291.26	32.5363
1292.86	32.9396
1294.46	32.5704
1296.06	33.3343
1297.66	33.7504
1299.25	34.6887
1300.85	36.2671
1302.45	36.9009
1304.05	37.4141
1305.65	38.0339
1307.24	38.9014
1308.84	38.8727
1310.43	38.6403
1312.03	39.2011
1313.63	39.5871
1315.22	39.8985
1316.82	39.3565
1318.41	39.281
1320.01	39.3784
1321.6	40.5614
1323.2	40.2674
1324.79	40.423
1326.38	39.3965
1327.98	39.4915
1329.57	38.4579
1331.16	38.4133
1332.76	37.4288
1334.35	37.9377
1335.94	37.2613
1337.53	36.819
1339.12	36.3637
1340.71	35.5729
1342.3	34.0508
1343.89	33.5265
1345.48	32.0966
1347.07	32.7949
1348.66	32.1428
1350.25	31.4347
1351.84	31.9368
1353.43	30.6704
1355.01	29.4742
1356.6	28.721
1358.19	27.8932
1359.77	26.2402
1361.36	25.2269
1362.95	25.0042
1364.53	24.5622
1366.12	24.9899
1367.71	23.1525
1369.29	23.3195
1370.88	22.9031
1372.46	22.2964
1374.04	22.8593
1375.63	23.2973
1377.21	21.787
1378.8	21.9193
1380.38	22.0923
1381.96	21.7345
1383.54	21.7886
1385.13	22.051
1386.71	22.3559
1388.29	21.3346
1389.87	21.2763
1391.45	21.3238
1393.03	21.5858
1394.61	21.4525
1396.19	21.3032
1397.77	22.1778
1399.35	21.8977
1400.93	22.6975
1402.51	22.282
1404.09	22.7202
1405.67	23.429
1407.24	23.1455
1408.82	23.488
1410.4	23.6553
1411.98	23.6356
1413.55	25.3087
1415.13	26.2531
1416.71	27.2645
1418.28	28.6086
1419.86	29.5371
1421.43	30.9689
1423.01	33.2753
1424.58	34.7212
1426.16	37.1783
1427.73	37.1454
1429.31	39.0844
1430.88	41.6943
1432.45	43.7002
1434.02	45.714
1435.6	47.6653
1437.17	49.2701
1438.74	50.547
1440.31	52.4276
1441.88	53.2721
1443.45	53.3832
1445.03	54.3884
1446.6	53.8041
1448.17	55.3117
1449.74	55.9284
1451.3	55.8707
1452.87	55.2405
1454.44	53.9054
1456.01	51.923
1457.58	52.0417
1459.15	50.9145
1460.72	48.98
1462.28	47.5812
1463.85	46.2209
1465.42	45.211
1466.98	43.5958
1468.55	42.3882
1470.12	40.9123
1471.68	39.76
1473.25	38.066
1474.81	36.8642
1476.38	35.6565
1477.94	33.2898
1479.51	32.9176
1481.07	30.8204
1482.63	29.4843
1484.2	27.7504
1485.76	25.6212
1487.32	24.9105
1488.88	23.2966
1490.45	22.0303
1492.01	22.0687
1493.57	21.1809
1495.13	19.7055
1496.69	20.5261
1498.25	19.5924
1499.81	19.774
1501.37	18.921
1502.93	18.668
1504.49	18.8114
1506.05	18.0534
1507.61	18.8073
1509.17	18.3257
1510.73	17.9093
1512.28	17.146
1513.84	15.9594
1515.4	15.2417
1516.96	13.6695
1518.51	12.6679
1520.07	11.9623
1521.63	11.3441
1523.18	10.8581
1524.74	10.8714
1526.29	10.5903
1527.85	9.52829
1529.4	8.57074
1530.96	7.20062
1532.51	6.43968
1534.06	5.93438
1535.62	6.97226
1537.17	6.35131
1538.72	6.68081
1540.28	8.03915
1541.83	8.23736
1543.38	8.27055
1544.93	9.40053
1546.48	9.94261
1548.03	11.1793
1549.59	10.8914
1551.14	10.2203
1552.69	11.1276
1554.24	11.0594
1555.79	11.4451
1557.34	12.9428
1558.88	12.8718
1560.43	12.3595
1561.98	13.5061
1563.53	14.6277
1565.08	15.5366
1566.62	16.0318
1568.17	16.7903
1569.72	18.2695
1571.27	18.8635
1572.81	19.2161
1574.36	21.1198
1575.9	21.3992
1577.45	21.6854
1579	22.5386
1580.54	23.9265
1582.09	24.6145
1583.63	25.2703
1585.17	26.1014
1586.72	26.1303
1588.26	26.7147
1589.8	26.7332
1591.35	26.0216
1592.89	26.2323
1594.43	27.1615
1595.97	28.8528
1597.52	29.6037
1599.06	30.0744
1600.6	31.2403
1602.14	32.5863
1603.68	31.435
1605.22	32.1435
1606.76	32.3646
1608.3	31.6963
1609.84	31.8751
1611.38	32.0797
1612.92	31.6976
1614.46	31.8498
1615.99	32.8636
1617.53	32.5393
1619.07	32.069
1620.61	32.2478
1622.14	33.6135
1623.68	32.9913
1625.22	32.3354
1626.75	31.2887
1628.29	32.2934
1629.82	33.1548
1631.36	33.1513
1632.9	34.2918
1634.43	34.8727
1635.96	35.8086
1637.5	35.8019
1639.03	37.7501
1640.57	38.7636
1642.1	38.3606
1643.63	38.8616
1645.16	39.7335
1646.7	39.9229
1648.23	40.3073
1649.76	40.7277
1651.29	41.0311
1652.82	41.1796
1654.36	40.6587
1655.89	40.5512
1657.42	39.5508
1658.95	39.6352
1660.48	39.5607
1662.01	38.7473
1663.53	38.6679
1665.06	38.0795
1666.59	37.7009
1668.12	37.6857
1669.65	38.0351
1671.18	38.2848
1672.7	37.5779
1674.23	35.7677
1675.76	34.3353
1677.29	33.6031
1678.81	31.3905
1680.34	28.813
1681.86	28.0064
1683.39	25.3335
1684.91	23.2404
1686.44	22.0574
1687.96	20.7191
1689.49	19.0445
1691.01	17.9787
1692.54	15.9563
1694.06	13.6734
1695.58	12.4698
1697.11	10.6121
1698.63	9.21907
1700.15	7.53062
1701.67	6.87299
1703.2	6.44217
1704.72	6.12652
1706.24	5.38683
1707.76	5.54637
1709.28	5.89242
1710.8	5.46193
1712.32	5.96747
1713.84	5.3197
1715.36	5.29473
1716.88	4.6542
1718.4	3.19605
1719.91	3.62183
1721.43	2.87302
1722.95	2.07259
1724.47	2.4126
1725.99	1.76151
1727.5	1.17028
1729.02	1.86853
1730.54	1.34845
1732.05	1.09778
1733.57	1.12423
1735.09	1.63606
1736.6	1.51859
1738.12	1.96632
1739.63	2.32262
1741.15	2.40602
1742.66	2.49358
1744.18	2.58681
1745.69	2.80604
1747.2	2.76626
1748.72	2.90152
1750.23	1.88386
1751.74	2.01437
1753.25	2.83075
1754.77	2.21382
1756.28	2.12604
1757.79	2.05906
1759.3	1.91393
1760.81	1.84957
1762.32	2.05412
1763.83	1.6573
1765.34	1.37118
1766.85	1.0622
1768.36	1.52367
1769.87	1.11426
1771.38	1.34485
1772.89	2.00768
1774.4	2.62948
1775.91	3.59859
1777.41	4.16279
1778.92	3.96495
1780.43	4.26709
1781.94	5.20269
1783.44	5.49448
1784.95	5.99985
1786.45	6.50852
1787.96	6.46711
1789.47	6.54592
1790.97	5.83845
1792.47	5.77772
1793.98	5.9323
1795.48	6.80551
1796.99	6.15002
1798.49	6.09781
1800	6.43749
1801.5	5.9506
1803	5.94436
1804.51	5.94721
1806.01	5.4336
1807.51	5.43212
1809.01	5.38489
1810.51	6.23742
1812.02	6.47119
1813.52	6.26094
1815.02	5.73489
1816.52	5.32576
1818.02	4.88741
1819.52	4.57947
1821.02	4.386
1822.52	4.31932
1824.02	4.27827
1825.51	3.80094
1827.01	3.29265
1828.51	2.94186
1830.01	2.47963
1831.51	2.55164
1833	2.80625
1834.5	2.66363
1836	2.02287
1837.49	2.23529
1838.99	2.47244
1840.49	2.49549
1841.98	3.02411
1843.48	3.66493
1844.97	3.66724
1846.47	4.64853
1847.96	4.50516
1849.46	5.08728
1850.95	5.4013
1852.45	4.88983
1853.94	5.05306
1855.43	5.12334
1856.92	6.15799
1858.42	5.63718
1859.91	6.10687
1861.4	5.72393
1862.89	5.47452
1864.39	5.65827
1865.88	5.21353
1867.37	5.84968
1868.86	6.12143
1870.35	6.76719
1871.84	6.31693
1873.33	6.69129
1874.82	6.75206
1876.31	6.65042
1877.8	7.4243
1879.29	7.59835
1880.77	7.71718
1882.26	7.88747
1882.52	7.54213
1884.02	7.94587
1885.51	7.09486
1887.01	5.94263
1888.5	5.7819
1889.99	5.57997
1891.49	5.62181
1892.98	6.13372
1894.47	6.57516
1895.96	6.85645
1897.46	6.44757
1898.95	6.15207
1900.44	5.88721
1901.93	6.50524
1903.42	7.10094
1904.91	7.99432
1906.4	8.81756
1907.89	9.07114
1909.38	9.16017
1910.87	9.41294
1912.36	9.44866
1913.85	9.63482
1915.34	10.571
1916.83	10.6939
1918.32	10.9323
1919.8	10.7918
1921.29	10.6226
1922.78	10.97
1924.27	10.1909
1925.75	9.56941
1927.24	9.51036
1928.73	9.18255
1930.21	9.50872
1931.7	7.87801
1933.18	7.80528
1934.67	7.87383
1936.15	8.07266
1937.64	7.81613
1939.12	8.04018
1940.61	8.6187
1942.09	8.91558
1943.57	8.58192
1945.06	7.9143
1946.54	7.85787
1948.02	7.79762
1949.51	8.1986
1950.99	7.94098
1952.47	6.90611
1953.95	7.28812
1955.43	6.85998
1956.91	6.15917
1958.39	6.10471
1959.87	5.21029
1961.36	5.13107
1962.84	5.21532
1964.32	5.1114
1965.79	6.07905
1967.27	6.32061
1968.75	5.90691
1970.23	6.44772
1971.71	6.309
1973.19	6.75077
1974.66	7.06776
1976.14	7.18608
1977.62	7.38023
1979.1	7.89338
1980.57	7.9766
1982.05	8.33864
1983.53	8.66108
1985	9.0762
1986.48	9.91267
1987.95	10.6238
1989.43	11.2213
1990.9	11.0742
1992.38	11.2176
1993.85	10.7345
1995.33	11.4746
1996.8	11.3894
1998.27	11.3816
1999.75	11.337
2001.22	11.6716
2002.69	12.5938
2004.16	13.0907
2005.64	13.5898
2007.11	14.8058
2008.58	15.1624
2010.05	14.5581
2011.52	14.5869
2012.99	14.7454
2014.46	15.5743
2015.93	15.6372
2017.4	15.1024
2018.87	15.4395
2020.34	15.3833
2021.81	15.3954
2023.28	15.1374
2024.75	14.5353
2026.22	14.0116
2027.69	13.646
2029.15	12.5629
2030.62	12.6866
2032.09	13.0341
2033.56	12.6888
2035.02	13.1727
2036.49	12.85
2037.95	13.5208
2039.42	13.2109
2040.89	12.4413
2042.35	12.0787
2043.82	11.7205
2045.28	11.1338
2046.75	10.4954
2048.21	9.39249
2049.67	8.95417
2051.14	8.73395
2052.6	7.90497
2054.06	8.06524
2055.53	8.0193
2056.99	7.81352
2058.45	7.36899
2059.92	6.96867
2061.38	6.51918
2062.84	6.44098
2064.3	6.15396
2065.76	5.89585
2067.22	6.25765
2068.68	7.37568
2070.14	6.40335
2071.6	6.16744
2073.06	6.29118
2074.52	6.34219
2075.98	6.45435
2077.44	6.40508
2078.9	6.4849
2080.36	6.50842
2081.82	5.94094
2083.27	6.26122
2084.73	6.95377
2086.19	7.64955
2087.65	8.67656
2089.1	8.63499
2090.56	8.74521
2092.01	8.89692
2093.47	8.30107
2094.93	8.29883
2096.38	8.30745
2097.84	8.59821
2099.29	8.88589
2100.75	9.66238
2102.2	10.3886
2103.66	11.4848
2105.11	12.1782
2106.56	12.5091
2108.02	13.1212
2109.47	12.9126
2110.92	12.9294
2112.37	12.1586
2113.83	12.9625
2115.28	12.9407
2116.73	12.9715
2118.18	13.2551
2119.63	12.906
2121.09	12.5147
2122.54	12.9212
2123.99	13.4246
2125.44	13.9768
2126.89	15.3566
2128.34	16.1391
2129.79	16.7609
2131.23	17.0577
2132.68	16.6611
2134.13	16.6912
2135.58	16.9712
2137.03	17.812
2138.48	18.2698
2139.92	19.6231
2141.37	19.5753
2142.82	19.1122
2144.26	19.7238
2145.71	21.223
2147.16	21.6361
2148.6	22.2185
2150.05	23.4279
2151.49	24.2264
2152.94	24.8944
2154.38	25.2491
2155.83	26.2963
2157.27	27.2229
2158.72	28.3083
2160.16	27.9611
2161.6	27.7973
2163.05	27.6201
2164.49	27.8492
2165.93	27.1792
2167.38	27.9394
2168.82	28.6386
2170.26	28.8055
2171.7	28.2503
2173.14	28.1721
2174.58	27.7927
2176.03	28.386
2177.47	27.3522
2178.91	26.3114
2180.35	25.8756
2181.79	25.0951
2183.23	24.2545
2184.67	23.9003
2186.1	24.0837
2187.54	23.1826
2188.98	22.4832
2190.42	21.8708
2191.86	20.5017
2193.3	19.3873
2194.73	19.5259
2196.17	18.9426
2197.61	18.7396
2199.05	18.5491
2200.48	17.9008
2201.92	17.1754
2203.35	16.6593
2204.79	16.0927
2206.22	16.3046
2207.66	16.9244
2209.09	17.5909
2210.53	17.6188
2211.96	17.5156
2213.4	16.8678
2214.83	16.0128
2216.27	16.6547
2217.7	17.0475
2219.13	16.6054
2220.56	16.6452
2222	17.2371
2223.43	18.1636
2224.86	18.335
2226.29	19.0017
2227.72	19.7399
2229.16	20.2974
2230.59	19.4987
2232.02	18.5044
2233.45	18.785
2234.88	18.3692
2236.31	18.8921
2237.74	17.7021
2239.17	17.9137
2240.6	17.1676
2242.03	15.7401
2243.45	15.2901
2244.88	15.0786
2246.31	13.9996
2247.74	13.9467
2249.17	13.1014
2250.59	12.9002
2252.02	12.7658
2253.45	11.822
2254.87	10.9721
2256.3	11.4559
2257.73	11.2242
2259.15	10.7322
2260.58	10.4895
2262	10.2246
2263.43	9.54127
2264.85	10.1817
2266.28	10.9383
2267.7	10.8005
2269.13	11.4161
2270.55	11.5229
2271.97	10.6955
2273.4	11.6622
2274.82	11.7037
2276.24	12.1538
2277.66	11.5257
2279.09	11.5691
2280.51	11.3449
2281.93	11.0916
2283.35	11.4282
2284.77	11.5936
2286.19	12.1629
2287.61	13.1988
2289.04	13.4673
2290.46	13.3505
2291.88	13.2882
2293.29	13.2672
2294.71	13.4418
2296.13	12.9172
2297.55	13.6598
2298.97	14.382
2300.39	13.2805
2301.81	13.0859
2303.23	13.4231
2304.64	13.2257
2306.06	12.9295
2307.48	12.4259
2308.89	10.7919
2310.31	10.5879
2311.73	10.1092
2313.14	10.0308
2314.56	10.4342
2315.97	10.3035
2317.39	9.6606
2318.8	10.1406
2320.22	9.26138
2321.63	8.88499
2323.05	8.62264
2324.46	8.13852
2325.88	8.76032
2327.29	9.62699
2328.7	9.35489
2330.12	9.54379
2331.53	9.25487
2332.94	9.37344
2334.35	9.94216
2335.76	10.675
2337.18	10.8536
2338.59	10.5696
2340	10.5078
2341.41	10.0187
2342.82	8.94066
2344.23	9.60122
2345.64	8.51368
2347.05	8.39526
2348.46	7.58561
2349.87	8.42227
2351.28	8.80722
2352.69	9.30392
2354.1	9.58256
2355.5	8.03188
2356.91	7.19781
2358.32	6.24049
2359.73	6.30333
2361.14	5.48043
2362.54	5.41905
2363.95	5.44556
2365.36	6.42452
2366.76	7.07634
2368.17	6.93905
2369.58	6.36956
2370.98	4.93239
2372.39	5.66007
2373.79	5.0317
2375.2	4.53719
2376.6	4.2469
2378	3.92494
2379.41	4.17193
2380.81	5.22329
2382.22	5.22062
2383.62	5.14883
2385.02	4.65396
2386.42	4.78881
2387.83	4.68371
2389.23	5.04705
2390.63	4.76269
2392.03	5.57269
2393.43	6.25435
2394.84	7.18596
2396.24	7.73678
2397.64	7.4937
2399.04	7.47832
2400.44	8.26786
2401.84	8.52253
2403.24	9.34558
2404.64	10.2198
2406.04	10.51
2407.44	10.4729
2408.83	9.60148
2410.23	9.44518
2411.63	9.11355
2413.03	9.56911
2414.43	9.58091
2415.83	8.69016
2417.22	8.45351
2418.62	8.5448
2420.02	8.90675
2421.41	8.64936
2422.81	8.66849
2424.21	7.947
2425.6	7.6452
2427	8.20533
2428.39	8.85124
2429.79	8.65845
2431.18	8.1466
2432.58	8.35459
2433.97	8.62397
2435.36	8.83947
2436.76	8.13447
2438.15	7.36311
2439.54	6.9303
2440.94	6.82788
2442.33	7.17775
2443.72	6.89401
2445.11	6.38186
2446.51	5.71245
2447.9	4.91457
2449.29	4.64633
2450.68	4.6867
2452.07	3.31815
2453.46	2.81357
2454.85	2.6345
2456.24	2.89667
2457.63	3.00582
2459.02	2.75664
2460.41	2.708
2461.8	2.89079
2463.19	3.09786
2464.58	2.0313
2465.97	1.04415
2467.36	1.06121
2468.75	1.50748
2470.13	1.84786
2471.52	2.35954
2472.91	2.99075
2474.29	3.1829
2475.68	2.5207
2477.07	1.79325
2478.45	1.34577
2479.84	1.48823
2481.22	1.43315
2482.61	1.86093
2484	1.53537
2485.38	1.65816
2486.77	1.64705
2488.15	1.73007
2489.54	2.38574
2490.92	2.81382
2492.3	2.6567
2493.69	2.07283
2495.07	2.57477
2496.45	2.10387
2497.84	2.10802
2499.22	2.42697
2500.6	3.11641
2501.98	3.41667
2503.36	3.31918
2504.74	2.88228
2506.13	2.38468
2507.51	2.08905
2508.89	1.73614
2510.27	2.51479
2511.65	2.59288
2513.03	2.5878
2514.41	2.40265
2515.79	2.3914
2517.17	1.74983
2518.55	1.65944
2519.93	2.20644
2521.3	1.63345
2522.68	1.91509
2524.06	2.17159
2525.44	2.28477
2526.82	2.23643
2528.19	2.22497
2529.57	1.73241
2530.95	2.02645
2532.32	2.18265
2533.7	2.00886
2535.08	2.60466
2536.45	2.81034
2537.83	2.50406
2539.2	2.76206
2540.58	3.55503
2541.95	3.31121
2543.33	3.28708
2544.7	3.88951
2546.08	4.32849
2547.45	4.4537
2548.82	4.79373
2550.2	5.09877
2551.57	5.16466
2552.94	5.26298
2554.32	4.9452
2555.69	4.44451
2557.06	4.89773
2558.43	5.66026
2559.8	5.09365
2561.17	4.99089
2562.55	6.34894
2563.92	6.7979
2565.29	6.45142
2566.66	6.92092
2568.03	7.24968
2569.4	6.85149
2570.77	6.90211
2572.14	7.38226
2573.51	8.01087
2574.88	8.75113
2576.24	8.27833
2577.61	8.60126
2578.98	9.32849
2580.35	9.6057
2581.72	8.98498
2583.09	8.53967
2584.45	8.05058
2585.82	7.86226
2587.19	7.83056
2588.55	8.21647
2589.92	7.62889
2591.28	7.33102
2592.65	7.27865
2594.02	6.76774
2595.38	6.28912
2596.75	6.33754
2598.11	5.67902
2599.48	5.70683
2600.84	5.48998
2602.2	5.40585
2603.57	5.11089
2604.93	4.3766
2606.3	4.06006
2607.66	4.11581
2609.02	4.07158
2610.38	4.14165
2611.75	4.05866
2613.11	3.84286
2614.47	3.15872
2615.83	2.84144
2617.19	3.48141
2618.56	3.47182
2619.92	3.83573
2621.28	3.78211
2622.64	2.99149
2624	2.93054
2625.36	3.43395
2626.72	3.85935
2628.08	3.99231
2629.44	4.07792
2630.8	4.2638
2632.15	2.94248
2633.51	2.92153
2634.87	2.94881
2636.23	2.5486
2637.59	2.85619
2638.94	3.53594
2640.3	3.81031
2641.66	4.06945
2643.02	3.86011
2644.37	3.713
2645.73	4.80449
2647.08	4.71479
2648.44	4.94272
2649.8	4.60223
2651.15	4.89118
2652.51	5.36399
2653.86	5.37622
2655.22	5.39938
2656.57	5.3559
2657.92	4.75764
2659.28	4.13515
2660.63	3.80162
2661.99	3.95248
2663.34	4.12609
2664.69	4.73566
2666.04	4.47635
2667.4	4.86487
2668.75	5.1254
2670.1	4.79062
2671.45	4.38127
2672.81	3.68631
2674.16	3.81398
2675.51	3.96807
2676.86	4.23988
2678.21	3.89367
2679.56	3.94436
2680.91	4.51064
2682.26	5.04198
2683.61	5.14861
2684.96	5.27383
2686.31	5.33672
2687.66	5.18855
2689	4.41075
2690.35	5.09971
2691.7	5.33515
2693.05	5.33085
2694.4	5.14752
2695.74	4.15458
2697.09	3.81462
2698.44	3.44815
2699.79	3.49437
2701.13	3.98729
2702.48	3.99749
2703.82	4.6951
2705.17	6.03347
2706.52	6.87661
2707.86	7.77473
2709.21	8.42446
2710.55	8.36692
2711.9	8.82719
2713.24	8.8281
2714.58	8.58504
2715.93	9.49478
2717.27	9.4339
2718.61	9.44986
2719.96	9.38564
2721.3	8.54104
2722.64	8.16792
2723.99	7.42352
2725.33	7.22935
2726.67	6.66294
2728.01	7.01079
2729.35	7.23813
2730.7	6.75902
2732.04	6.77934
2733.38	6.45001
2734.72	5.9838
2736.06	5.81034
2737.4	5.9283
2738.74	5.96796
2740.08	5.60101
2741.42	5.58483
2742.76	5.38463
2744.09	5.30082
2745.43	5.49336
2746.77	6.43119
2748.11	5.88529
2749.45	5.02015
2750.79	5.07149
2752.12	4.71507
2753.46	4.87737
2754.8	4.48831
2756.13	3.65484
2757.47	3.8171
2758.81	2.85213
2760.14	2.75725
2761.48	2.3403
2762.81	1.95313
2764.15	1.87152
2765.49	2.54022
2766.82	3.17205
2768.15	3.3545
2769.49	3.9914
2770.82	4.63665
2772.16	5.01241
2773.49	4.67829
2774.82	4.78039
2776.16	4.23125
2777.49	4.20641
2778.82	4.81641
2780.16	4.8286
2781.49	5.00432
2782.82	4.50726
2784.15	3.838
2785.48	3.28929
2786.81	3.14439
2788.15	3.38353
2789.48	3.61634
2790.81	3.27139
2792.14	3.14843
2793.47	2.46889
2794.8	3.00205
2796.13	2.73472
2797.46	3.07483
2798.79	3.28175
2800.12	3.07679
2801.44	2.93362
2802.77	3.40632
2804.1	3.05494
2805.43	3.07506
2806.76	2.11595
2808.08	1.92477
2809.41	1.58125
2810.74	1.40355
2812.07	1.10376
2813.39	1.28644
2814.72	0.341662
2816.05	0.156988
2817.37	0.975632
2818.7	0.818727
2820.02	1.62366
2821.35	2.77879
2822.67	3.42271
2824	4.15381
2825.32	4.93805
2826.65	5.73968
2827.97	6.91902
2829.29	8.07806
2830.62	9.2944
2831.94	10.7877
2833.26	11.9809
2834.59	14.2696
2835.91	16.2851
2837.23	17.9271
2838.55	20.091
2839.88	21.9763
2841.2	25.0694
2842.52	28.0262
2843.84	30.5787
2845.16	33.8676
2846.48	36.6213
2847.8	39.2289
2849.12	42.2009
2850.44	45.4812
2851.76	49.0392
2853.08	53.1494
2854.4	56.3999
2855.72	58.832
2857.04	62.1595
2858.36	64.8055
2859.68	67.8231
2861	71.2507
2862.32	74.294
2863.63	76.6529
2864.95	78.9269
2866.27	80.494
2867.58	82.27
2868.9	83.958
2870.22	86.0305
2871.53	88.0139
2872.85	88.9115
2874.17	91.1484
2875.48	92.8398
2876.8	94.8985
2878.11	96.9646
2879.43	99.0555
2880.74	100.287
2882.06	101.959
2883.37	103.849
2884.69	104.892
2886	106.574
2887.31	108.277
2888.63	107.797
2889.94	107.697
2891.25	108.338
2892.57	108.89
2893.88	109.958
2895.19	110.992
2896.5	112.595
2897.82	114.118
2899.13	115.667
2900.44	116.863
2901.75	118.13
2903.06	120.5
2904.37	122.788
2905.68	125.305
2906.99	127.654
2908.3	129.988
2909.61	132.729
2910.92	136.433
2912.23	139.176
2913.54	142.463
2914.85	145.574
2916.16	148.076
2917.46	151.542
2918.77	153.42
2920.08	155.153
2921.39	156.34
2922.7	157.997
2924	159.036
2925.31	160.218
2926.62	160.175
2927.92	160.201
2929.23	160.378
2930.53	161.039
2931.84	161.328
2933.15	161.667
2934.45	161.506
2935.76	161.196
2937.06	159.892
2938.37	158.791
2939.67	157.789
2940.98	156.022
2942.28	154.471
2943.58	152.554
2944.89	149.873
2946.19	147.107
2947.49	144.148
2948.8	140.691
2950.1	138.173
2951.4	134.974
2952.7	131.837
2954.01	128.304
2955.31	125.745
2956.61	123.326
2957.91	121.104
2959.21	118.596
2960.51	115.609
2961.81	111.93
2963.11	108.284
2964.41	104.814
2965.71	101.937
2967.01	99.8127
2968.31	97.6644
2969.61	94.8008
2970.91	92.9456
2972.21	90.1101
2973.51	89.0593
2974.81	87.794
2976.1	85.192
2977.4	82.7555
2978.7	80.2313
2980	77.294
2981.29	74.3437
2982.59	71.5548
2983.89	68.3999
2985.18	65.5688
2986.48	61.8523
2987.78	59.4851
2989.07	57.4532
2990.37	54.4634
2991.66	51.6991
2992.96	49.6281
2994.25	47.6094
2995.55	44.5296
2996.84	41.7454
2998.14	38.9884
2999.43	37.1404
3000.72	35.1921
3002.02	33.4255
3003.31	31.185
3004.6	28.7133
3005.9	26.797
3007.19	25.1871
3008.48	23.2
3009.77	21.106
3011.07	19.1946
3012.36	17.0724
3013.65	15.9324
3014.94	15.9929
3016.23	14.5831
3017.52	14.4389
3018.81	13.6224
3020.1	12.624
3021.39	11.4813
3022.68	10.1553
3023.97	8.25393
3025.26	6.36563
3026.55	5.0655
3027.84	4.36814
3029.13	3.49792
3030.42	3.61982
3031.71	4.08379
3033	4.05152
3034.28	4.17807
3035.57	4.52917
3036.86	4.40686
3038.15	4.78059
3039.43	4.79738
3040.72	4.97764
3042.01	5.3041
3043.29	5.29005
3044.58	6.09731
3045.86	6.0193
3047.15	6.29377
3048.44	6.75313
3049.72	6.44965
3051.01	7.01173
3052.29	7.78115
3053.58	7.94608
3054.86	7.33467
3056.14	7.47407
3057.43	8.19214
3058.71	8.61193
3060	8.66775
3061.28	9.0663
3062.56	9.62649
3063.84	9.97407
3065.13	9.56986
3066.41	9.76228
3067.69	9.12878
3068.97	9.35538
3070.25	9.44675
3071.54	8.75576
3072.82	8.19179
3074.1	7.76439
3075.38	7.77977
3076.66	7.78938
3077.94	8.38799
3079.22	7.43817
3080.5	6.76402
3081.78	5.99803
3083.06	4.99058
3084.34	3.81495
3085.62	2.9511
3086.9	2.41157
3088.17	1.39237
3089.45	1.01216
3090.73	0.541228
3092.01	0.957553
3093.29	1.05271
3094.56	1.28453
3095.84	1.23942
3097.12	0.580741
3098.4	0.817359
3099.67	0.794552
3100.95	1.10428
3102.22	1.53546
3103.5	2.08894
3104.77	2.13651
3106.05	2.21904
3107.33	2.33317
3108.6	2.74091
3109.88	2.16907
3111.15	1.89918
3112.43	2.34416
3113.7	1.81032
3114.97	2.30125
3116.25	2.44709
3117.52	2.69462
3118.79	2.99062
3120.07	3.60706
3121.34	3.79812
3122.61	3.65563
3123.88	3.60538
3125.16	3.64151
3126.43	4.2092
3127.7	4.75659
3128.97	5.05216
3130.24	5.57057
3131.51	5.4678
3132.78	5.58501
3134.05	5.3299
3135.33	5.12124
3136.59	5.55278
3137.86	5.59813
3139.14	5.65918
3140.41	5.44776
3141.67	5.56362
3142.94	5.64117
3144.21	6.10078
3145.48	6.68967
3146.75	7.35489
3148.02	8.28632
3149.28	8.69038
