#Acq. time (s)=	45
#Accumulations=	2
#Range (cm-¹)=	200...3150
#Windows=	2
#Auto scanning=	Off
#Autofocus=	Off
#Macrospot=	Off
#AutoExposure=	Off
#Spike filter=	Multiple accum.
#Delay time (s)=	0
#Binning=	1
#Readout mode=	Signal
#DeNoise=	Off
#ICS correction=	On
#Dark correction=	Off
#Inst. Process=	Off
#Detector Gain=	Best Dynamic Range
#Detector ADC=	20 kHz       
#Detector temperature (°C)=	-70.08
#Instrument=	LabRAM HR Evol
#Detector=	Synapse
#Objective=	x100
#Grating=	600 gr/mm
#ND Filter=	100%
#Laser (nm)=	532 
#Hole=	100.021
#Range=	Auto
#Laser Pol.=	No
#Raman. Pol.=	No
#Laser Pol. (°)=	-0.0007625
#Raman Pol. (°)=	89.9995
#Collection=	Microscope
#StageXY=	Marzhauser
#StageZ=	Marzhauser
#X (µm)=	-2396.1
#Y (µm)=	2132.9
#Z (µm)=	-40.5
#Full time(mm:ss)=	3:18
#Project=	
#Sample=	
#Site=	
#Title=	Mb_10_14_05_2x_45s_532 nm_x100_100%_600 gr_mm
#Remark=	
#Date=	07.07.2022 13:46
#Acquired=	07.07.2022 13:46:09
#Base:Fit=	10.08.2022 10:21:11
#Base:Sub=	10.08.2022 10:21:41
#Filter:Polynom=	16.08.2022 10:17:53
#AxisType[0]=Intens
#AxisUnit[0]=Cnt
#AxisType[1]=Spectr
#AxisUnit[1]=1/cm
200.43	1.86422
202.246	-1.11107
204.061	-1.02964
205.875	0.0868071
207.688	1.04018
209.501	2.02611
211.316	3.20658
213.129	4.93218
214.941	6.96215
216.753	8.69022
218.566	9.91577
220.377	11.0032
222.188	13.3455
223.999	14.1816
225.809	15.985
227.618	17.3819
229.43	18.2054
231.239	18.7277
233.047	18.7763
234.855	19.9534
236.663	21.2631
238.471	21.0505
240.278	21.4097
242.087	22.1322
243.894	22.6741
245.7	22.735
247.506	22.7819
249.311	22.1566
251.116	21.8565
252.921	22.16
254.725	22.6012
256.529	22.0665
258.333	21.5745
260.136	22.1781
261.939	21.5631
263.744	20.7504
265.546	20.6128
267.348	20.1301
269.15	19.6143
270.951	19.9049
272.752	18.6742
274.552	17.0207
276.353	14.9548
278.152	12.2313
279.952	11.0699
281.751	8.96056
283.55	6.62052
285.348	6.25778
287.146	7.89148
288.942	8.27931
290.739	8.56432
292.536	8.35233
294.333	6.65813
296.129	5.84939
297.925	5.48038
299.721	4.77731
301.516	5.33004
303.311	5.87655
305.106	5.96309
306.9	6.05762
308.694	5.78784
310.486	5.83465
312.279	6.61023
314.072	6.61477
315.864	7.70099
317.656	7.18536
319.448	7.15103
321.24	7.78557
323.029	7.59499
324.819	8.35621
326.61	7.89525
328.4	8.59846
330.19	9.79388
331.977	10.1625
333.766	9.53506
335.555	9.94697
337.343	10.2223
339.131	9.82124
340.917	9.83998
342.704	9.74412
344.491	11.1619
346.277	11.4846
348.062	11.3722
349.848	11.143
351.633	11.5313
353.416	11.9885
355.201	12.1907
356.986	11.7573
358.77	13.0591
360.552	13.1158
362.335	13.1317
364.118	13.615
365.899	14.1402
367.682	14.4087
369.464	16.4218
371.243	16.7493
373.025	17.7789
374.806	19.2386
376.585	20.7382
378.365	22.4274
380.143	23.3745
381.923	24.4358
383.702	25.1022
385.479	26.8071
387.258	28.3909
389.034	30.0201
390.812	31.9068
392.59	33.1954
394.365	34.4615
396.142	34.5784
397.916	34.4615
399.693	34.5601
401.467	35.3161
403.242	35.1869
405.015	34.6509
406.79	33.0734
408.565	32.7224
410.337	31.7123
412.111	30.0589
413.882	29.7498
415.656	29.4312
417.426	28.8268
419.197	26.6432
420.969	24.5367
422.739	22.4702
424.51	21.8587
426.279	19.9563
428.05	18.072
429.819	16.7291
431.589	15.3615
433.356	13.7644
435.124	10.9649
436.893	8.02008
438.66	6.46718
440.428	5.83424
442.194	4.94621
443.96	4.31915
445.727	3.77386
447.492	4.3732
449.259	3.90714
451.023	3.92746
452.787	2.38519
454.553	2.36275
456.316	3.06077
458.079	4.39337
459.844	4.47171
461.606	5.47239
463.368	6.91636
465.132	8.56338
466.893	10.9466
468.654	11.7553
470.415	12.6339
472.177	13.2798
473.937	13.7156
475.696	14.9383
477.456	16.1979
479.217	17.9065
480.975	19.0882
482.733	19.6253
484.491	19.7301
486.251	20.5162
488.008	21.3725
489.765	22.9423
491.522	22.6542
493.278	22.8702
495.036	23.0619
496.791	23.0326
498.546	23.4067
500.301	24.1307
502.056	25.2957
503.81	26.4649
505.566	26.5666
507.319	26.6559
509.073	26.5276
510.825	26.7351
512.578	26.9552
514.33	26.3055
516.082	26.1197
517.833	26.5314
519.587	25.9155
521.337	25.866
523.088	25.2259
524.838	24.9894
526.588	23.8464
528.337	23.9535
530.087	23.0619
531.835	22.5786
533.584	22.6424
535.332	21.9401
537.08	21.4977
538.827	19.6898
540.574	19.2356
542.321	19.4422
544.068	19.8606
545.814	18.9946
547.56	18.1243
549.305	17.3355
551.05	17.0435
552.795	16.4491
554.54	15.4814
556.284	14.0647
558.027	12.8712
559.771	12.0629
561.514	12.0715
563.257	12.5053
564.999	12.3284
566.742	12.5697
568.481	11.3986
570.223	10.5474
571.964	9.61357
573.705	9.0315
575.445	8.05593
577.185	7.01721
578.925	5.15726
580.665	5.39088
582.402	4.70151
584.141	4.39813
585.879	6.37569
587.617	6.20219
589.355	6.28374
591.092	6.46447
592.828	5.62359
594.564	4.86357
596.301	4.54058
598.037	4.85018
599.773	5.0906
601.506	5.377
603.242	5.69895
604.976	6.08957
606.711	5.6284
608.443	6.33964
610.177	6.16927
611.91	6.26242
613.644	6.41163
615.374	7.98832
617.107	9.16574
618.839	9.8577
620.569	11.2158
622.3	10.5324
624.032	12.4026
625.761	12.8182
627.491	15.0811
629.221	16.3656
630.949	18.388
632.679	18.0044
634.408	19.0772
636.135	20.6707
637.863	21.3017
639.592	22.402
641.318	23.0893
643.045	24.0352
644.77	24.837
646.497	25.7731
648.224	27.3131
649.948	27.8065
651.674	28.6195
653.398	29.0677
655.123	28.7416
656.846	28.7639
658.57	28.3133
660.293	28.3666
662.017	28.4119
663.738	29.668
665.462	30.172
667.185	31.1198
668.905	32.2734
670.628	32.503
672.348	33.0286
674.067	32.4516
675.789	32.6804
677.508	32.2162
679.228	31.7235
680.947	31.1054
682.667	30.6627
684.385	30.5878
686.104	30.9369
687.821	30.8087
689.538	31.0582
691.256	31.996
692.972	32.3111
694.69	32.7484
696.406	33.1184
698.121	34.0059
699.837	34.359
701.552	34.738
703.268	35.6384
704.982	34.7219
706.695	35.6321
708.41	35.878
710.123	36.9484
711.836	37.3692
713.55	37.5377
715.262	37.8918
716.973	37.881
718.685	38.3609
720.398	39.6485
722.108	39.3365
723.818	39.7506
725.53	40.6331
727.24	41.762
728.949	42.1153
730.658	43.0879
732.369	43.2337
734.077	44.4247
735.785	44.2279
737.493	44.1326
739.2	45.5154
740.909	46.6516
742.616	48.1887
744.322	49.1681
746.028	51.8572
747.734	54.0557
749.441	55.7785
751.146	56.7937
752.851	57.6908
754.555	60.1247
756.26	59.7746
757.963	61.3748
759.667	62.7326
761.372	62.9947
763.075	63.296
764.777	64.6754
766.479	65.4522
768.181	67.5591
769.883	68.7714
771.584	70.8716
773.285	71.9996
774.986	73.3611
776.686	74.3773
778.386	75.7079
780.085	76.9343
781.785	77.9966
783.484	78.0841
785.182	77.5732
786.881	77.2995
788.579	77.2547
790.276	76.6279
791.974	77.7748
793.671	78.0289
795.367	78.7568
797.064	79.2734
798.76	79.6367
800.456	80.0275
802.151	80.23
803.846	80.5504
805.541	79.4469
807.236	79.8665
808.93	81.2209
810.624	80.9774
812.317	80.2423
814.01	79.5965
815.703	79.6686
817.394	79.2483
819.086	79.1948
820.778	77.9859
822.47	78.3733
824.161	79.381
825.852	79.0977
827.543	79.8857
829.231	79.7412
830.921	80.1636
832.611	79.0384
834.3	78.3397
835.989	77.7955
837.676	77.4965
839.364	77.8278
841.053	76.1012
842.74	76.2074
844.426	75.7736
846.113	74.5453
847.8	73.236
849.486	73.3543
851.171	72.8559
852.857	72.2654
854.542	71.244
856.227	71.2277
857.911	70.8853
859.595	69.5271
861.279	69.2906
862.961	68.334
864.645	67.2188
866.329	66.1147
868.01	64.8831
869.692	63.7106
871.375	63.0267
873.055	63.1571
874.737	62.0589
876.418	61.6897
878.097	62.0532
879.778	61.0277
881.457	60.5579
883.137	60.614
884.817	59.811
886.495	59.6858
888.174	59.5162
889.851	59.3442
891.53	59.8635
893.206	59.6135
894.884	58.6911
896.562	57.8242
898.237	58.4927
899.914	58.2227
901.589	57.5039
903.265	56.775
904.94	56.6871
906.615	56.7552
908.289	56.5361
909.964	56.8345
911.637	56.7993
913.31	55.8285
914.984	54.5376
916.656	52.6329
918.33	52.3797
920.001	51.867
921.674	51.1542
923.345	50.2452
925.015	50.4254
926.687	50.4614
928.357	50.0802
930.028	49.6169
931.698	48.9007
933.366	48.8285
935.037	48.4787
936.705	47.5059
938.373	47.375
940.043	47.2766
941.71	47.3502
943.379	46.9716
945.046	47.6273
946.712	46.9002
948.378	46.0209
950.046	44.836
951.711	44.2363
953.376	43.138
955.043	43.0112
956.708	42.2595
958.372	40.5355
960.036	39.8522
961.701	39.0975
963.364	38
965.027	38.3984
966.69	38.4063
968.354	38.7972
970.016	39.8787
971.678	39.9591
973.339	39.5978
975	39.4588
976.661	40.1348
978.324	38.4492
979.984	38.0744
981.644	38.766
983.303	38.9673
984.962	39.0161
986.621	38.3644
988.282	38.5864
989.94	38.4599
991.598	38.1979
993.256	38.4935
994.913	37.4649
996.57	36.4034
998.227	35.7543
999.884	34.7933
1001.54	36.091
1003.2	36.6645
1004.85	36.8645
1006.51	37.3041
1008.16	38.0766
1009.82	37.6922
1011.47	38.081
1013.12	38.4252
1014.78	38.1554
1016.43	39.2385
1018.08	40.8446
1019.74	41.5949
1021.39	43.8278
1023.04	45.4881
1024.69	46.6133
1026.34	46.6272
1028	46.9185
1029.65	46.5642
1031.3	45.7816
1032.95	45.8465
1034.6	45.9831
1036.25	45.3376
1037.9	44.9291
1039.55	44.0412
1041.19	43.3685
1042.84	43.7569
1044.49	43.8483
1046.14	44.7242
1047.79	44.2952
1049.43	44.1768
1051.08	43.4369
1052.73	42.7228
1054.37	40.957
1056.02	39.5978
1057.66	38.57
1059.31	38.0942
1060.95	36.4914
1062.6	35.5259
1064.24	34.8597
1065.88	34.5363
1067.53	33.1113
1069.17	30.8136
1070.81	29.9008
1072.46	28.4812
1074.1	27.644
1075.74	26.7458
1077.38	25.4591
1079.02	24.3205
1080.66	23.786
1082.3	22.4568
1083.94	22.8047
1085.58	22.1751
1087.22	21.1892
1088.86	20.539
1090.5	20.9195
1092.14	20.6279
1093.78	21.3432
1095.42	20.8238
1097.05	20.8624
1098.69	21.8119
1100.33	21.0513
1101.97	21.1847
1103.6	20.9938
1105.24	20.9117
1106.87	20.1337
1108.51	20.2924
1110.15	20.2411
1111.78	19.4346
1113.41	19.1032
1115.05	18.5981
1116.68	18.6197
1118.31	17.8153
1119.95	16.836
1121.58	15.8052
1123.21	14.9324
1124.85	14.8791
1126.48	13.8783
1128.11	12.8923
1129.74	11.0213
1131.37	10.8526
1133	10.6239
1134.63	10.0826
1136.26	8.96945
1137.89	8.04117
1139.52	7.92061
1141.15	8.7399
1142.78	7.81652
1144.41	7.49236
1146.04	8.18878
1147.66	8.6614
1149.29	7.92447
1150.92	7.76398
1152.55	8.84535
1154.17	8.97533
1155.8	9.72511
1157.43	9.8265
1159.05	9.67728
1160.68	9.44998
1162.3	9.58526
1163.93	10.3904
1165.55	11.0573
1167.17	11.5397
1168.8	11.942
1170.42	12.1981
1172.05	12.5934
1173.67	12.9156
1175.29	13.3504
1176.91	13.4641
1178.54	14.5761
1180.16	15.3437
1181.78	15.5441
1183.4	17.7478
1185.02	18.4061
1186.64	19.7647
1188.26	19.9567
1189.88	21.1574
1191.5	20.5781
1193.12	21.3593
1194.74	21.7157
1196.36	21.7155
1197.97	21.9209
1199.59	21.9372
1201.21	20.9771
1202.83	20.4438
1204.44	20.7945
1206.06	21.0039
1207.68	20.8888
1209.29	21.4268
1210.91	22.0642
1212.52	23.3727
1214.14	23.8728
1215.75	24.16
1217.37	25.1283
1218.98	26.1598
1220.6	27.4477
1222.21	28.3707
1223.82	28.8332
1225.44	29.7144
1227.05	30.3757
1228.66	30.8863
1230.27	30.901
1231.88	31.7869
1233.49	32.6873
1235.1	32.3389
1236.72	33.7471
1238.33	34.1956
1239.94	34.2633
1241.55	34.7846
1243.16	35.0509
1244.76	35.4871
1246.37	35.1267
1247.98	35.614
1249.59	35.8501
1251.2	35.4997
1252.8	35.7907
1254.41	35.5676
1256.02	35.3735
1257.63	35.5672
1259.23	35.5835
1260.84	36.9908
1262.44	37.4187
1264.05	37.9061
1265.66	37.7366
1267.26	37.9527
1268.87	38.7489
1270.47	39.6749
1272.07	38.5871
1273.68	39.2518
1275.28	38.7019
1276.88	39.1393
1278.48	38.2116
1280.09	36.9364
1281.69	35.79
1283.29	37.1441
1284.89	37.8855
1286.49	38.8832
1288.09	39.8006
1289.69	40.5662
1291.3	40.4949
1292.9	41.0132
1294.49	41.0177
1296.09	42.0253
1297.69	41.9154
1299.29	42.9233
1300.89	44.2162
1302.49	45.1284
1304.09	46.464
1305.68	46.8585
1307.28	48.8517
1308.88	49.8298
1310.47	50.7438
1312.07	52.1365
1313.66	52.8863
1315.26	53.2284
1316.86	54.9571
1318.45	55.0808
1320.05	55.6369
1321.64	56.4416
1323.23	56.8116
1324.83	57.3459
1326.42	57.5561
1328.01	57.2887
1329.61	56.7561
1331.2	56.4663
1332.79	56.3511
1334.38	56.1349
1335.98	56.6514
1337.57	56.8705
1339.16	56.9608
1340.75	57.8597
1342.34	56.9203
1343.93	55.7175
1345.52	55.7259
1347.11	54.9735
1348.7	53.726
1350.29	52.5648
1351.87	51.1842
1353.46	51.8303
1355.05	50.4364
1356.64	49.4535
1358.23	47.6681
1359.81	46.7181
1361.4	46.2988
1362.99	45.6214
1364.57	44.4344
1366.16	43.7712
1367.74	42.0972
1369.33	41.3024
1370.91	40.3426
1372.5	39.8403
1374.08	39.3796
1375.67	40.124
1377.25	39.2155
1378.83	40.2111
1380.42	40.7154
1382	39.9048
1383.58	40.1303
1385.16	39.7501
1386.75	40.287
1388.33	38.8015
1389.91	38.2273
1391.49	38.2319
1393.07	37.576
1394.65	37.5449
1396.23	37.8539
1397.81	36.6678
1399.39	37.0973
1400.97	36.6378
1402.55	36.0914
1404.13	35.7218
1405.7	34.8552
1407.28	34.5038
1408.86	34.0615
1410.44	34.4996
1412.01	35.2145
1413.59	35.9397
1415.17	37.1284
1416.74	37.3891
1418.32	38.3393
1419.89	40.4084
1421.47	41.787
1423.05	42.5527
1424.62	44.7048
1426.19	46.055
1427.77	48.1875
1429.34	51.551
1430.92	53.5809
1432.49	55.3788
1434.06	56.7722
1435.63	57.8169
1437.2	59.4804
1438.78	60.2334
1440.35	61.7888
1441.92	62.6347
1443.49	64.4001
1445.06	65.3353
1446.63	65.7911
1448.2	67.1454
1449.77	67.3212
1451.34	67.4882
1452.91	67.9227
1454.48	67.8565
1456.05	66.7878
1457.62	66.7394
1459.18	66.897
1460.75	65.8552
1462.32	66.0003
1463.89	65.4362
1465.45	64.5123
1467.02	63.2822
1468.59	63.0823
1470.15	62.9876
1471.72	62.4215
1473.28	61.3474
1474.85	60.1921
1476.41	58.911
1477.98	58.3529
1479.54	56.9614
1481.11	55.6844
1482.67	54.7978
1484.23	52.9472
1485.8	52.5623
1487.36	51.4748
1488.92	51.6193
1490.48	51.5018
1492.05	50.4616
1493.61	49.9751
1495.17	49.0789
1496.73	49.2779
1498.29	48.7685
1499.85	46.8894
1501.41	46.4449
1502.97	46.0002
1504.53	44.9482
1506.09	43.5636
1507.65	42.2491
1509.2	40.3813
1510.76	38.593
1512.32	37.1316
1513.88	34.7285
1515.44	33.3327
1516.99	31.1389
1518.55	30.7039
1520.1	28.7283
1521.66	28.4313
1523.22	26.5456
1524.77	24.9773
1526.33	24.04
1527.88	23.1907
1529.44	22.4003
1530.99	21.9151
1532.55	20.7347
1534.1	19.8028
1535.65	19.2415
1537.21	19.9815
1538.76	19.47
1540.31	19.8204
1541.86	20.3384
1543.42	19.8683
1544.97	20.4667
1546.52	20.683
1548.07	20.5011
1549.62	21.1124
1551.17	21.2184
1552.72	22.1492
1554.27	23.8151
1555.82	24.6566
1557.37	25.5924
1558.92	27.8663
1560.47	29.6827
1562.02	29.7628
1563.57	31.5835
1565.11	32.1323
1566.66	33.0628
1568.21	33.1795
1569.75	33.0085
1571.3	34.5572
1572.85	35.2985
1574.39	35.368
1575.94	36.5393
1577.49	37.2294
1579.03	38.9787
1580.58	39.0639
1582.12	39.5432
1583.67	40.338
1585.21	40.9887
1586.75	41.0324
1588.3	41.4508
1589.84	41.8425
1591.38	42.2542
1592.93	42.6708
1594.47	42.814
1596.01	43.0715
1597.55	42.3257
1599.09	42.8881
1600.63	42.0065
1602.18	42.1365
1603.72	42.4388
1605.26	42.2365
1606.8	41.7592
1608.34	41.7025
1609.87	41.2571
1611.41	41.0569
1612.95	40.892
1614.49	41.1013
1616.03	40.9179
1617.57	41.743
1619.11	41.7443
1620.64	40.6943
1622.18	40.9616
1623.72	40.7657
1625.25	41.6845
1626.79	43.0229
1628.32	43.2152
1629.86	43.5354
1631.4	45.0805
1632.93	46.0035
1634.47	46.5375
1636	48.092
1637.53	47.4396
1639.07	46.979
1640.6	48.311
1642.14	48.5356
1643.67	49.3209
1645.2	50.4862
1646.73	50.9636
1648.27	52.2058
1649.8	52.1999
1651.33	52.6108
1652.86	53.7388
1654.39	54.0634
1655.92	54.4032
1657.45	54.8803
1658.98	54.6104
1660.51	54.4494
1662.04	53.5979
1663.57	53.2277
1665.1	51.9944
1666.63	51.4027
1668.16	50.3488
1669.69	48.9377
1671.21	47.8455
1672.74	47.0484
1674.27	45.8476
1675.79	44.758
1677.32	43.8685
1678.85	42.9895
1680.37	41.9349
1681.9	39.7951
1683.42	37.9631
1684.95	36.107
1686.47	33.9547
1688	31.3369
1689.52	29.2634
1691.05	27.9925
1692.57	26.2385
1694.1	24.2154
1695.62	21.9783
1697.14	20.2738
1698.66	18.6035
1700.19	16.3583
1701.71	15.0074
1703.23	14.0188
1704.75	12.5644
1706.27	11.5131
1707.79	11.0986
1709.32	10.2297
1710.83	8.87634
1712.35	8.45837
1713.88	7.34783
1715.39	6.90698
1716.91	6.59125
1718.43	5.34061
1719.95	5.0051
1721.47	3.86893
1722.99	2.95143
1724.5	3.34899
1726.02	3.62456
1727.54	3.60332
1729.06	3.78898
1730.57	2.92252
1732.09	2.51734
1733.61	1.87748
1735.12	1.20243
1736.64	1.12919
1738.15	0.66104
1739.67	0.635448
1741.18	0.560568
1742.7	1.48035
1744.21	1.38558
1745.72	2.11062
1747.24	1.76349
1748.75	1.93646
1750.26	2.07341
1751.78	2.69618
1753.29	3.30278
1754.8	2.62591
1756.31	2.55668
1757.82	2.06086
1759.34	2.05323
1760.85	1.84689
1762.36	1.65875
1763.87	1.53679
1765.38	1.54166
1766.89	1.69664
1768.4	1.43898
1769.91	1.6683
1771.41	1.81588
1772.92	1.70335
1774.43	1.35677
1775.94	1.57281
1777.45	2.56894
1778.96	2.93836
1780.46	2.71385
1781.97	2.94934
1783.48	2.94979
1784.98	3.2448
1786.49	3.44518
1788	3.4963
1789.5	3.64126
1791.01	3.56615
1792.51	3.3664
1794.01	3.27856
1795.52	3.97552
1797.02	3.95257
1798.53	4.19924
1800.03	4.34054
1801.54	4.05369
1803.04	3.30799
1804.54	2.92048
1806.04	2.445
1807.54	2.716
1809.05	2.77573
1810.55	3.4367
1812.05	3.5514
1813.55	3.48757
1815.05	4.05263
1816.55	4.12707
1818.05	4.41864
1819.55	4.61982
1821.05	4.52766
1822.55	4.70981
1824.05	5.6167
1825.55	5.57575
1827.05	5.3031
1828.55	5.38136
1830.04	5.40729
1831.54	5.38282
1833.04	5.13653
1834.54	5.47017
1836.03	6.46708
1837.53	7.55128
1839.03	7.96433
1840.52	8.01853
1842.02	8.36234
1843.51	8.59813
1845.01	8.94387
1846.5	9.26223
1848	9.61938
1849.49	9.32069
1850.99	9.34391
1852.48	9.42722
1853.97	9.00995
1855.47	9.52031
1856.96	10.1666
1858.45	10.1676
1859.94	10.7136
1861.44	10.2484
1862.93	9.51393
1864.42	9.20693
1865.91	8.95333
1867.4	8.70676
1868.89	8.49697
1870.38	8.75369
1871.87	8.26413
1873.36	7.877
1874.85	7.07406
1876.34	6.72733
1877.83	6.37905
1879.32	5.79367
1880.81	5.15595
1882.3	4.60136
1882.56	4.29801
1884.06	3.77565
1885.55	3.38089
1887.04	3.28445
1888.54	3.11188
1890.03	2.69597
1891.52	2.82113
1893.02	2.52775
1894.51	3.0769
1896	3.99791
1897.49	3.32667
1898.99	2.89912
1900.48	2.93606
1901.97	3.72494
1903.46	4.4122
1904.95	4.46731
1906.44	5.79814
1907.93	6.64237
1909.42	6.04416
1910.91	5.33447
1912.4	5.04379
1913.89	5.24769
1915.38	5.52069
1916.86	5.79384
1918.35	6.02746
1919.84	5.78125
1921.33	5.45721
1922.82	5.05566
1924.3	5.51674
1925.79	5.73336
1927.28	5.86084
1928.76	5.97652
1930.25	5.74876
1931.74	4.61122
1933.22	4.29009
1934.71	3.18599
1936.19	2.97255
1937.67	2.70281
1939.16	2.05786
1940.64	1.55173
1942.13	1.51365
1943.61	1.30178
1945.09	0.678485
1946.58	0.258911
1948.06	-0.295618
1949.54	0.379852
1951.03	0.758172
1952.51	0.574596
1953.99	0.767669
1955.47	0.577678
1956.95	1.15915
1958.43	1.88538
1959.91	2.09422
1961.39	2.51923
1962.87	2.58514
1964.35	3.48409
1965.83	4.24273
1967.31	4.35873
1968.79	4.54551
1970.27	4.50113
1971.75	4.20356
1973.22	5.12678
1974.7	5.61677
1976.18	6.29408
1977.66	5.82783
1979.13	5.12791
1980.61	5.44785
1982.09	4.61874
1983.56	4.4083
1985.04	4.75555
1986.52	5.30947
1987.99	5.05843
1989.47	4.46175
1990.94	4.21507
1992.41	3.75899
1993.89	3.4588
1995.36	3.66481
1996.84	3.48443
1998.31	3.77155
1999.78	4.31035
2001.26	3.68742
2002.73	3.70974
2004.2	3.76109
2005.67	3.2005
2007.15	3.59673
2008.62	3.72501
2010.09	3.30894
2011.56	2.48187
2013.03	2.94022
2014.5	2.92937
2015.97	3.84791
2017.44	4.48663
2018.91	4.92237
2020.38	5.07606
2021.85	5.06945
2023.32	5.47768
2024.79	5.38931
2026.25	5.49596
2027.72	5.58897
2029.19	5.60347
2030.66	6.65153
2032.13	6.92669
2033.59	7.17112
2035.06	6.84839
2036.53	7.00491
2037.99	7.52073
2039.46	7.67555
2040.92	7.65909
2042.39	7.60275
2043.85	8.38138
2045.32	8.85604
2046.78	8.54696
2048.25	8.00467
2049.71	7.70217
2051.18	7.61581
2052.64	8.39486
2054.1	9.05629
2055.56	9.28005
2057.03	9.17535
2058.49	8.89372
2059.95	8.87849
2061.42	8.61934
2062.88	8.3528
2064.34	8.09466
2065.8	8.37436
2067.26	9.38645
2068.72	9.71144
2070.18	9.90931
2071.64	10.1478
2073.1	10.7955
2074.56	10.5784
2076.02	11.5919
2077.48	11.622
2078.94	12.0731
2080.39	12.5068
2081.85	12.6417
2083.31	11.5292
2084.77	12.1801
2086.22	12.8463
2087.68	12.9323
2089.14	13.3921
2090.6	13.0396
2092.05	12.0866
2093.51	11.4373
2094.96	10.9653
2096.42	11.6056
2097.87	11.7502
2099.33	11.8741
2100.78	11.7185
2102.24	12.0317
2103.69	11.8684
2105.15	11.6752
2106.6	11.9249
2108.05	11.3839
2109.51	11.9283
2110.96	11.8301
2112.41	11.4444
2113.86	10.445
2115.32	10.2365
2116.77	10.8481
2118.22	10.2065
2119.67	10.2512
2121.12	11.1623
2122.57	11.4016
2124.02	11.4623
2125.47	11.8514
2126.92	11.6576
2128.37	10.8795
2129.82	10.3775
2131.27	10.582
2132.72	10.6085
2134.17	10.9138
2135.62	11.201
2137.06	11.2534
2138.51	12.802
2139.96	13.4426
2141.41	13.9407
2142.85	14.1251
2144.3	14.6885
2145.75	16.2978
2147.19	17.0637
2148.64	17.1565
2150.09	18.0833
2151.53	18.4316
2152.97	18.903
2154.42	19.3203
2155.86	19.5069
2157.31	20.4694
2158.75	20.8663
2160.2	21.7696
2161.64	22.1438
2163.08	22.9005
2164.53	23.6463
2165.97	24.0632
2167.41	24.9378
2168.86	25.9013
2170.3	25.6775
2171.74	25.6744
2173.18	25.7572
2174.62	25.9071
2176.06	25.8115
2177.5	26.024
2178.94	25.8989
2180.38	24.904
2181.82	25.0973
2183.26	24.852
2184.7	24.1528
2186.14	24.1865
2187.58	24.7537
2189.02	24.5828
2190.46	24.2135
2191.89	25.2127
2193.33	24.5838
2194.77	23.9869
2196.21	23.321
2197.64	22.9995
2199.08	21.8955
2200.52	21.1255
2201.95	20.7841
2203.39	20.4409
2204.83	19.8194
2206.26	19.014
2207.7	18.5338
2209.13	16.9444
2210.57	17.1656
2212	16.8389
2213.43	16.2125
2214.87	15.5175
2216.3	15.7794
2217.73	15.7911
2219.17	14.8759
2220.6	14.5379
2222.03	13.9549
2223.47	13.2052
2224.9	12.782
2226.33	12.5561
2227.76	12.5442
2229.19	12.5821
2230.62	12.9595
2232.05	12.8387
2233.49	12.3134
2234.91	12.525
2236.34	12.1215
2237.77	11.2909
2239.2	11.2236
2240.63	10.7751
2242.06	10.1387
2243.49	9.47891
2244.92	9.43048
2246.35	9.69768
2247.78	10.0232
2249.2	9.88821
2250.63	10.0117
2252.06	11.062
2253.48	11.8345
2254.91	12.0771
2256.34	11.4501
2257.76	11.8015
2259.19	11.8541
2260.61	11.6538
2262.04	12.4558
2263.46	13.0645
2264.89	12.1414
2266.31	12.102
2267.74	11.7155
2269.16	12.109
2270.59	11.7349
2272.01	11.4774
2273.43	11.5814
2274.85	11.2679
2276.28	10.5346
2277.7	10.5342
2279.12	10.4047
2280.54	9.39907
2281.97	9.84503
2283.39	9.30874
2284.81	9.07223
2286.23	9.01407
2287.65	8.9636
2289.07	8.29665
2290.49	7.22292
2291.91	6.82447
2293.33	5.03345
2294.75	5.06813
2296.17	4.80921
2297.59	5.43903
2299.01	5.80967
2300.42	5.87163
2301.84	5.91082
2303.26	5.98557
2304.68	5.58189
2306.1	5.02236
2307.51	4.71539
2308.93	4.96046
2310.35	5.25337
2311.76	4.85004
2313.18	4.40837
2314.59	4.4768
2316.01	4.92249
2317.43	5.35862
2318.84	6.15942
2320.26	6.38053
2321.67	6.48993
2323.08	7.13651
2324.5	6.698
2325.91	5.95385
2327.33	5.1308
2328.74	5.3253
2330.15	5.2221
2331.56	4.93727
2332.98	5.39433
2334.39	5.07651
2335.8	4.66752
2337.21	4.14389
2338.62	3.87022
2340.04	4.28296
2341.45	3.33793
2342.86	3.57893
2344.27	3.72492
2345.68	2.74969
2347.09	2.94638
2348.5	2.38488
2349.91	1.61652
2351.31	1.26014
2352.72	1.65696
2354.13	2.0393
2355.54	1.78535
2356.95	2.28005
2358.36	2.38463
2359.76	1.94659
2361.17	1.49323
2362.58	1.33161
2363.98	0.932498
2365.39	2.3075
2366.8	2.92859
2368.21	3.38818
2369.61	3.47921
2371.02	2.94187
2372.42	2.91353
2373.83	2.71999
2375.23	2.06887
2376.64	2.22482
2378.04	2.7984
2379.44	3.13578
2380.85	2.93341
2382.25	2.10491
2383.66	2.21011
2385.06	2.79792
2386.46	2.89407
2387.86	3.35837
2389.26	3.41456
2390.67	2.90987
2392.07	2.93475
2393.47	2.97129
2394.87	2.35954
2396.27	1.90074
2397.67	2.11115
2399.07	2.13056
2400.47	1.99
2401.87	1.69237
2403.27	2.30513
2404.67	2.95511
2406.07	3.05151
2407.47	3.1411
2408.87	3.89794
2410.27	4.37832
2411.67	3.92627
2413.07	4.3324
2414.46	4.63393
2415.86	4.70223
2417.26	4.92258
2418.66	4.99389
2420.05	5.55869
2421.45	5.87033
2422.84	6.20384
2424.24	6.58533
2425.64	6.47452
2427.03	7.62175
2428.43	7.40657
2429.82	6.98382
2431.22	6.64391
2432.61	6.17091
2434.01	6.50317
2435.4	6.68013
2436.79	6.49289
2438.19	6.31758
2439.58	6.1274
2440.97	6.26662
2442.37	6.40478
2443.76	5.76853
2445.15	5.31973
2446.54	5.44913
2447.93	5.33434
2449.33	5.37582
2450.72	4.77987
2452.11	5.01615
2453.5	5.10674
2454.89	4.7815
2456.28	4.90387
2457.67	5.28104
2459.06	4.47846
2460.45	4.54418
2461.84	4.49979
2463.23	3.787
2464.62	3.88042
2466	3.72068
2467.39	3.82525
2468.78	3.62084
2470.17	3.84615
2471.55	3.78787
2472.94	3.87449
2474.33	3.22174
2475.72	2.42922
2477.1	2.67532
2478.49	1.94904
2479.87	1.87078
2481.26	1.52014
2482.65	1.49366
2484.03	1.55611
2485.42	1.14258
2486.8	0.701226
2488.19	1.04742
2489.57	1.09894
2490.95	1.23157
2492.34	1.60984
2493.72	1.5329
2495.1	1.72033
2496.49	1.1911
2497.87	0.654464
2499.25	0.139733
2500.63	0.813733
2502.02	1.18634
2503.4	2.048
2504.78	1.92988
2506.16	2.51578
2507.54	3.08237
2508.92	3.58926
2510.3	3.77678
2511.68	3.7907
2513.06	4.20996
2514.44	4.76931
2515.82	4.82245
2517.2	4.88697
2518.58	5.70678
2519.96	5.80666
2521.34	6.05508
2522.72	6.09169
2524.1	6.21009
2525.47	6.43826
2526.85	6.23303
2528.23	5.86587
2529.6	6.6375
2530.98	6.70816
2532.36	7.32951
2533.74	8.10565
2535.11	7.67959
2536.49	8.25671
2537.86	8.04775
2539.24	8.15701
2540.61	6.84396
2541.99	6.13199
2543.36	6.2774
2544.74	6.82832
2546.11	7.29697
2547.49	6.20214
2548.86	6.83406
2550.23	6.61694
2551.61	6.75622
2552.98	7.01336
2554.35	6.69289
2555.72	6.20697
2557.09	6.73063
2558.47	6.16172
2559.84	5.69518
2561.21	5.58437
2562.58	5.4306
2563.95	6.11946
2565.32	5.62224
2566.69	5.75409
2568.06	5.54787
2569.43	5.24618
2570.8	4.58031
2572.17	4.10507
2573.54	4.07865
2574.91	4.50418
2576.28	4.2976
2577.65	3.66784
2579.02	2.89695
2580.39	3.05913
2581.75	2.91623
2583.12	2.69504
2584.49	2.12143
2585.85	2.68673
2587.22	3.27783
2588.59	2.2834
2589.95	2.18912
2591.32	2.23691
2592.68	1.51766
2594.05	2.20949
2595.42	3.44713
2596.78	3.77876
2598.15	3.89885
2599.51	4.06906
2600.88	4.03752
2602.24	3.80905
2603.6	3.49456
2604.97	4.38166
2606.33	4.31533
2607.69	4.26459
2609.06	3.87209
2610.42	4.04727
2611.78	4.84496
2613.14	5.11513
2614.51	5.53958
2615.87	5.45716
2617.23	5.97624
2618.59	5.95083
2619.95	5.87692
2621.31	5.8969
2622.67	4.96617
2624.03	5.56471
2625.39	5.44184
2626.75	4.94297
2628.11	5.24435
2629.47	5.3485
2630.83	4.90577
2632.19	4.49018
2633.55	3.94191
2634.91	3.68214
2636.26	4.00976
2637.62	4.50522
2638.98	4.8688
2640.34	4.97274
2641.69	5.29221
2643.05	5.38741
2644.41	5.406
2645.76	4.95757
2647.12	4.43098
2648.48	4.84786
2649.83	4.75615
2651.19	4.7871
2652.54	4.13338
2653.9	4.18381
2655.25	3.5443
2656.6	2.51219
2657.96	2.44026
2659.31	2.66851
2660.67	3.12527
2662.02	3.79724
2663.37	3.81193
2664.73	3.28995
2666.08	3.02715
2667.43	3.53665
2668.78	3.51813
2670.14	4.33941
2671.49	4.7006
2672.84	5.02002
2674.19	4.74253
2675.54	5.2423
2676.89	4.52714
2678.24	4.69495
2679.59	5.23868
2680.94	5.38044
2682.29	6.05251
2683.64	6.14249
2684.99	5.9281
2686.34	5.71695
2687.69	5.7198
2689.04	5.75484
2690.39	5.83284
2691.74	6.09461
2693.08	5.52621
2694.43	6.24551
2695.78	6.57599
2697.13	6.90608
2698.47	6.93103
2699.82	7.4963
2701.17	8.10173
2702.51	8.23092
2703.86	8.71112
2705.21	8.02369
2706.55	8.10319
2707.9	7.95376
2709.24	8.00898
2710.58	8.25359
2711.93	7.86496
2713.27	7.25798
2714.62	7.87118
2715.96	8.14606
2717.3	8.17951
2718.65	8.1287
2719.99	7.75455
2721.33	7.67178
2722.68	7.3351
2724.02	7.94277
2725.36	8.43265
2726.71	8.41719
2728.05	8.59702
2729.39	8.40293
2730.73	8.25066
2732.07	8.54181
2733.41	8.67966
2734.75	9.1033
2736.09	8.55417
2737.43	8.73862
2738.77	8.41999
2740.11	8.2433
2741.45	7.8489
2742.79	7.27638
2744.13	6.43425
2745.47	6.97416
2746.81	6.84789
2748.14	6.50997
2749.48	6.76581
2750.82	5.60443
2752.16	4.79852
2753.49	4.87952
2754.83	4.72426
2756.17	4.19541
2757.5	3.42339
2758.84	2.56001
2760.18	2.28949
2761.51	2.41601
2762.85	1.92458
2764.18	1.93994
2765.52	2.008
2766.85	1.59498
2768.19	1.40988
2769.52	1.39166
2770.86	1.53344
2772.19	1.23292
2773.52	1.75335
2774.86	2.09233
2776.19	2.55651
2777.52	2.78825
2778.86	3.25142
2780.19	3.83314
2781.52	4.16941
2782.85	4.11003
2784.19	4.13185
2785.52	4.09079
2786.85	3.84291
2788.18	3.48245
2789.51	3.83116
2790.84	4.14594
2792.17	3.84916
2793.5	3.11096
2794.83	3.52199
2796.16	3.74259
2797.49	3.63495
2798.82	4.07053
2800.15	3.47386
2801.48	2.87873
2802.81	2.50192
2804.13	2.95408
2805.46	2.07432
2806.79	1.38745
2808.12	0.973651
2809.45	0.897425
2810.77	0.7908
2812.1	0.613837
2813.43	0.534273
2814.75	0.659255
2816.08	0.262602
2817.41	-0.391441
2818.73	0.137175
2820.06	0.474764
2821.38	-0.0541758
2822.71	-0.450727
2824.03	-0.6156
2825.36	0.221096
2826.68	1.13966
2828	2.09393
2829.33	3.10904
2830.65	4.1636
2831.98	4.96662
2833.3	4.96307
2834.62	6.58847
2835.94	7.93828
2837.27	9.31467
2838.59	11.2371
2839.91	13.1037
2841.23	15.0755
2842.55	16.8308
2843.87	18.9377
2845.2	21.4912
2846.52	23.7358
2847.84	26.102
2849.16	28.8903
2850.48	31.6819
2851.8	34.0719
2853.12	37.2304
2854.44	39.7781
2855.76	42.7543
2857.08	45.4727
2858.39	48.693
2859.71	51.6467
2861.03	55.0915
2862.35	57.5521
2863.67	59.8403
2864.98	62.1501
2866.3	64.2348
2867.62	66.8092
2868.94	69.4346
2870.25	71.8758
2871.57	73.5517
2872.88	76.172
2874.2	78.0186
2875.52	80.4335
2876.83	82.7248
2878.15	85.923
2879.46	86.8647
2880.78	88.5847
2882.09	89.3473
2883.41	91.1996
2884.72	92.8146
2886.03	93.8302
2887.35	94.6592
2888.66	96.009
2889.97	97.4316
2891.29	98.8611
2892.6	100.094
2893.91	101.817
2895.22	103.594
2896.54	105.172
2897.85	107.179
2899.16	109.055
2900.47	111.568
2901.78	113.614
2903.09	116.364
2904.4	119.091
2905.71	121.531
2907.02	124.895
2908.33	127.966
2909.64	131.744
2910.95	135.61
2912.26	138.78
2913.57	142.622
2914.88	146.325
2916.19	150.08
2917.5	153.006
2918.81	156.608
2920.11	159.992
2921.42	162.605
2922.73	165.448
2924.04	167.025
2925.34	168.444
2926.65	169.342
2927.96	170.123
2929.26	171.031
2930.57	171.966
2931.87	173.092
2933.18	173.62
2934.49	173.194
2935.79	172.734
2937.1	171.806
2938.4	170.647
2939.7	169.782
2941.01	169.5
2942.31	167.469
2943.62	165.481
2944.92	161.957
2946.22	160.061
2947.53	156.847
2948.83	154.236
2950.13	150.975
2951.43	147.64
2952.74	144.594
2954.04	141.516
2955.34	138.313
2956.64	135.754
2957.94	133.173
2959.24	130.297
2960.54	126.741
2961.84	123.49
2963.15	119.82
2964.45	116.532
2965.75	113.581
2967.05	110.222
2968.34	107.122
2969.64	104.277
2970.94	101.609
2972.24	99.42
2973.54	96.3416
2974.84	94.1627
2976.14	91.2886
2977.43	88.5895
2978.73	86.8795
2980.03	84.3801
2981.33	82.1687
2982.62	78.8582
2983.92	76.4929
2985.22	74.0267
2986.51	69.9824
2987.81	67.1433
2989.11	63.5171
2990.4	60.4119
2991.7	57.5218
2992.99	54.5648
2994.29	51.9156
2995.58	49.0726
2996.88	46.0773
2998.17	43.1621
2999.46	40.2043
3000.76	37.7633
3002.05	35.4361
3003.34	33.2317
3004.64	31.6477
3005.93	29.4452
3007.22	26.6962
3008.52	24.8237
3009.81	22.9122
3011.1	20.9528
3012.39	19.4975
3013.68	18.2355
3014.97	16.5119
3016.27	15.2641
3017.56	14.38
3018.85	12.796
3020.14	11.4519
3021.43	10.5028
3022.72	8.97558
3024.01	7.87293
3025.3	6.76453
3026.59	5.83534
3027.88	4.95496
3029.16	4.76817
3030.45	4.03407
3031.74	3.2741
3033.03	3.27104
3034.32	3.51193
3035.6	3.61836
3036.89	3.94471
3038.18	4.05748
3039.47	4.61916
3040.75	5.56287
3042.04	6.45899
3043.33	7.34988
3044.61	7.68836
3045.9	8.1454
3047.18	8.24849
3048.47	8.70465
3049.75	8.90279
3051.04	8.70247
3052.32	8.58637
3053.61	8.49675
3054.89	8.12686
3056.18	8.46448
3057.46	8.22142
3058.74	7.96144
3060.03	7.88895
3061.31	7.70748
3062.59	7.54156
3063.88	7.55089
3065.16	7.59935
3066.44	7.1444
3067.72	6.98446
3069	6.83653
3070.29	6.80169
3071.57	6.67367
3072.85	6.3371
3074.13	6.46135
3075.41	5.82566
3076.69	5.42559
3077.97	4.58497
3079.25	3.97205
3080.53	3.82882
3081.81	3.40019
3083.09	2.61179
3084.37	2.66396
3085.65	2.44117
3086.93	2.56954
3088.21	2.8807
3089.49	2.6276
3090.76	2.6272
3092.04	3.45989
3093.32	3.78851
3094.6	3.9611
3095.87	4.71128
3097.15	4.83159
3098.43	5.24445
3099.7	5.73855
3100.98	5.89094
3102.26	6.26986
3103.53	7.16957
3104.81	7.7497
3106.08	7.65995
3107.36	8.23832
3108.63	8.4264
3109.91	9.0682
3111.18	9.48395
3112.46	9.75724
3113.73	10.8488
3115	10.7604
3116.28	10.499
3117.55	10.5954
3118.83	10.8155
3120.1	11.516
3121.37	11.7517
3122.64	12.0009
3123.92	12.8094
3125.19	12.8243
3126.46	13.5906
3127.73	14.101
3129	14.1837
3130.27	14.3767
3131.55	15.4616
3132.82	15.9923
3134.09	16.8435
3135.36	17.002
3136.63	17.2133
3137.9	18.2223
3139.17	18.6204
3140.44	19.5119
3141.71	20.6046
3142.98	21.8832
3144.24	23.0735
3145.51	24.4568
3146.78	25.8049
3148.05	26.8112
3149.32	28.2393
