#Acq. time (s)=	45
#Accumulations=	2
#Range (cm-¹)=	200...3150
#Windows=	2
#Auto scanning=	Off
#Autofocus=	Off
#Macrospot=	Off
#AutoExposure=	Off
#Spike filter=	Multiple accum.
#Delay time (s)=	0
#Binning=	1
#Readout mode=	Signal
#DeNoise=	Off
#ICS correction=	On
#Dark correction=	Off
#Inst. Process=	Off
#Detector Gain=	Best Dynamic Range
#Detector ADC=	20 kHz       
#Detector temperature (°C)=	-69.85
#Instrument=	LabRAM HR Evol
#Detector=	Synapse
#Objective=	x100
#Grating=	600 gr/mm
#ND Filter=	100%
#Laser (nm)=	532 
#Hole=	100.021
#Range=	Auto
#Laser Pol.=	No
#Raman. Pol.=	No
#Laser Pol. (°)=	-0.0007625
#Raman Pol. (°)=	89.9995
#Collection=	Microscope
#StageXY=	Marzhauser
#StageZ=	Marzhauser
#X (µm)=	-636.3
#Y (µm)=	-1595.4
#Z (µm)=	89.55
#Full time(mm:ss)=	3:18
#Project=	
#Sample=	
#Site=	
#Title=	Mb_10_14_16_2x_45s_532 nm_x100_100%_600 gr_mm
#Remark=	
#Date=	11.07.2022 09:41
#Acquired=	11.07.2022 09:41:37
#Base:Fit=	10.08.2022 10:21:11
#Base:Sub=	10.08.2022 10:21:41
#Filter:Polynom=	16.08.2022 10:17:53
#AxisType[0]=Intens
#AxisUnit[0]=Cnt
#AxisType[1]=Spectr
#AxisUnit[1]=1/cm
200.388	16.0776
202.204	15.1436
204.019	12.3595
205.832	11.7917
207.646	11.4207
209.459	11.0501
211.274	10.6464
213.087	10.3424
214.899	10.4632
216.711	10.5553
218.524	10.8873
220.335	11.2279
222.146	11.2222
223.956	12.3154
225.766	12.8885
227.576	13.7596
229.388	14.2676
231.197	15.3208
233.005	15.6957
234.813	16.4601
236.621	16.7691
238.429	18.1842
240.236	19.0419
242.045	19.261
243.852	20.6261
245.658	22.4258
247.464	23.774
249.269	24.2503
251.074	24.6545
252.879	24.7886
254.683	25.4742
256.487	26.7519
258.291	27.3605
260.094	26.9446
261.897	27.6038
263.702	28.2193
265.504	29.5599
267.306	29.1681
269.108	28.6904
270.909	28.1953
272.71	28.4073
274.511	27.3766
276.311	25.2808
278.111	24.5829
279.91	23.676
281.709	23.3103
283.508	23.3895
285.306	22.4973
287.105	22.2133
288.9	21.4696
290.698	19.9631
292.495	18.5498
294.291	17.9544
296.088	15.4424
297.884	13.8582
299.679	13.3043
301.475	12.3488
303.27	12.0587
305.064	10.9246
306.858	10.5129
308.652	10.0607
310.444	9.22202
312.237	8.39796
314.03	8.6027
315.822	7.78143
317.615	7.35064
319.406	6.47718
321.198	6.68363
322.987	5.96108
324.778	6.12958
326.568	5.88312
328.358	5.59991
330.148	4.47156
331.935	4.32585
333.724	5.39082
335.513	4.77706
337.301	4.43602
339.089	3.76236
340.875	3.58912
342.662	4.29037
344.449	4.86113
346.236	5.57345
348.02	4.7623
349.806	5.4614
351.592	6.77063
353.375	6.79043
355.16	7.05993
356.944	6.01866
358.728	6.54992
360.51	7.55489
362.294	7.88602
364.077	8.28235
365.858	9.20563
367.64	10.3775
369.422	11.1923
371.202	11.997
372.983	12.2269
374.764	12.5548
376.543	12.5206
378.324	11.9623
380.102	11.7175
381.881	12.6388
383.661	13.621
385.438	14.2737
387.216	15.3216
388.993	16.4263
390.771	16.5976
392.548	16.4366
394.324	16.6937
396.101	18.2021
397.875	17.6639
399.651	16.6644
401.425	16.8287
403.201	16.7198
404.974	15.7322
406.749	15.7749
408.524	15.0629
410.296	14.8796
412.07	14.2783
413.841	13.452
415.614	11.9419
417.385	11.3469
419.156	10.5821
420.928	9.95285
422.698	9.80156
424.469	8.86554
426.238	8.69583
428.009	6.83037
429.777	6.20809
431.548	6.08734
433.315	5.33068
435.083	4.36063
436.852	3.1886
438.618	3.70293
440.387	2.46222
442.153	2.44813
443.919	2.61424
445.686	3.1778
447.451	4.3394
449.218	4.21925
450.982	4.52841
452.746	5.67254
454.512	6.03487
456.275	6.56402
458.038	7.57579
459.803	8.05701
461.565	8.68411
463.327	9.3311
465.091	10.0079
466.852	11.8009
468.613	12.4247
470.374	13.0229
472.136	13.3525
473.896	13.7864
475.655	13.7981
477.415	14.5559
479.176	14.6245
480.934	14.9769
482.692	15.4552
484.45	15.3839
486.21	15.4844
487.967	16.4168
489.724	17.1492
491.481	16.9379
493.237	16.7356
494.995	17.4184
496.75	16.953
498.506	16.7375
500.26	16.4909
502.015	15.3321
503.769	14.7203
505.525	14.5446
507.279	14.1211
509.032	14.0365
510.785	14.7429
512.537	14.8391
514.289	14.51
516.041	13.8891
517.793	14.2049
519.546	13.7272
521.297	13.4993
523.047	12.6794
524.797	12.952
526.547	13.3878
528.297	13.2211
530.046	13.6784
531.795	12.9268
533.543	13.0839
535.291	12.1551
537.039	12.0698
538.787	12.0629
540.534	11.8297
542.281	11.9138
544.027	11.9086
545.773	11.8776
547.519	11.4636
549.264	10.5697
551.01	10.3297
552.754	9.64619
554.499	9.66304
556.243	8.48069
557.987	8.32292
559.73	7.87657
561.474	8.10498
563.216	7.24439
564.959	7.36416
566.701	6.37342
568.441	5.84013
570.182	5.83675
571.923	6.07597
573.664	5.66386
575.405	4.94098
577.145	3.80221
578.885	3.93447
580.624	4.51531
582.361	5.2962
584.1	4.61648
585.839	4.46786
587.577	4.80252
589.315	4.90809
591.052	5.29473
592.787	5.48735
594.524	5.93951
596.26	5.4689
597.997	5.22282
599.732	5.55597
601.466	4.82168
603.201	3.96371
604.936	4.33772
606.67	4.32297
608.403	4.68624
610.136	5.21976
611.87	5.94756
613.603	5.7348
615.334	5.73019
617.067	6.08023
618.799	6.08656
620.529	6.44627
622.26	6.49926
623.991	7.78136
625.72	8.2167
627.451	9.56744
629.181	10.0321
630.909	9.88894
632.638	10.9829
634.368	11.4898
636.095	11.5491
637.823	12.0314
639.551	12.0779
641.277	13.2983
643.005	12.9917
644.73	13.6201
646.457	13.9734
648.184	14.4015
649.908	14.4086
651.634	15.3545
653.357	15.3856
655.083	15.5063
656.806	15.4526
658.53	15.518
660.253	15.5834
661.977	16.5141
663.7	16.9741
665.422	17.9505
667.145	18.6552
668.865	18.9659
670.588	18.9174
672.308	19.4573
674.027	19.2431
675.749	19.4896
677.468	19.9186
679.188	19.3743
680.907	19.6374
682.627	19.4592
684.345	19.5587
686.064	20.9134
687.781	20.3469
689.498	20.4332
691.216	21.4259
692.932	21.6135
694.65	22.23
696.366	22.5548
698.081	22.111
699.797	22.3096
701.512	22.6032
703.228	23.0047
704.942	23.5277
706.655	24.4787
708.371	25.6771
710.083	26.6374
711.796	27.8092
713.51	28.2885
715.222	27.8717
716.934	28.1797
718.645	28.94
720.358	28.2742
722.068	28.7677
723.779	29.5726
725.49	30.8336
727.2	31.3121
728.909	31.4067
730.618	32.9277
732.329	33.5475
734.037	34.4751
735.745	35.6068
737.453	36.6213
739.16	37.2683
740.869	38.0748
742.576	38.8634
744.282	40.5104
745.988	42.6698
747.694	44.6469
749.401	46.4495
751.107	48.4584
752.811	49.4397
754.516	51.5618
756.22	52.7382
757.924	53.7168
759.627	55.1443
761.332	56.4832
763.035	58.15
764.738	58.6642
766.44	60.0322
768.142	61.2204
769.843	62.8505
771.544	64.4187
773.245	64.8505
774.946	65.6799
776.646	66.9169
778.346	68.0264
780.046	68.3808
781.745	68.8501
783.444	69.3266
785.143	70.8838
786.841	71.7024
788.539	73.3555
790.237	75.6744
791.934	76.7635
793.631	77.43
795.328	77.7507
797.024	78.2357
798.72	77.1529
800.416	77.3941
802.112	77.4572
803.807	77.8337
805.502	78.0864
807.196	78.5826
808.89	78.1063
810.584	78.441
812.278	77.5018
813.971	78.3426
815.664	78.7043
817.354	77.8614
819.047	77.5477
820.739	77.7579
822.43	77.1483
824.122	76.2536
825.813	75.9227
827.503	75.0785
829.192	75.4264
830.882	75.8792
832.571	75.0353
834.261	74.0528
835.95	73.501
837.637	72.4487
839.325	71.9218
841.013	70.4098
842.701	69.0687
844.389	68.1326
846.074	67.2275
847.761	66.2349
849.447	64.1514
851.131	63.3817
852.817	62.3707
854.503	61.3114
856.188	59.6164
857.871	58.5844
859.556	57.1958
861.24	56.3975
862.922	55.1992
864.606	54.8001
866.289	54.5315
867.97	53.891
869.653	53.6001
871.336	52.5398
873.016	52.1998
874.698	51.452
876.379	49.9557
878.058	49.2119
879.739	48.4508
881.418	48.0686
883.098	47.7673
884.778	48.2923
886.456	47.5916
888.135	47.1449
889.812	46.4954
891.49	44.9789
893.167	44.7218
894.845	44.3909
896.523	43.6338
898.198	44.3023
899.875	44.1044
901.55	43.7915
903.226	45.0559
904.901	45.5321
906.576	45.6303
908.25	46.2132
909.925	46.5202
911.598	47.2521
913.271	48.2067
914.945	48.0011
916.617	47.6655
918.291	47.8393
919.962	47.6252
921.635	47.4741
923.306	47.7328
924.978	47.8683
926.648	48.2315
928.318	48.2658
929.989	47.8916
931.659	47.2847
933.328	47.714
934.998	48.1855
936.666	48.2476
938.336	48.4422
940.004	48.2973
941.671	48.3994
943.34	47.5707
945.007	47.5791
946.673	47.3711
948.339	46.7129
950.007	45.0517
951.672	43.9873
953.337	43.5716
955.004	42.7771
956.669	41.7487
958.333	41.133
959.997	40.2816
961.662	40.0862
963.326	39.4094
964.989	39.1102
966.651	39.3882
968.315	38.5682
969.977	38.3028
971.639	37.1896
973.301	37.4532
974.962	36.8633
976.624	37.1758
978.285	36.9988
979.945	36.8742
981.605	36.6955
983.264	36.6248
984.924	36.4254
986.583	36.8088
988.243	35.7343
989.901	35.3037
991.56	34.0779
993.217	32.9726
994.875	33.0677
996.532	32.6092
998.188	32.4699
999.845	32.9166
1001.5	32.9474
1003.16	32.0676
1004.81	32.7423
1006.47	32.8678
1008.12	32.3554
1009.78	32.9542
1011.43	32.9664
1013.09	33.8607
1014.74	34.439
1016.39	35.6188
1018.05	36.7068
1019.7	37.8641
1021.35	38.8846
1023	39.3645
1024.65	39.497
1026.31	39.3499
1027.96	40.4046
1029.61	40.0523
1031.26	40.0294
1032.91	41.2627
1034.56	41.9173
1036.21	41.86
1037.86	41.7683
1039.51	41.945
1041.16	42.3136
1042.8	42.6024
1044.45	42.4759
1046.1	42.5359
1047.75	42.3312
1049.39	41.8003
1051.04	40.0509
1052.69	38.9897
1054.33	37.0877
1055.98	35.8214
1057.62	33.7236
1059.27	31.7994
1060.91	30.8472
1062.56	29.1765
1064.2	27.3461
1065.85	25.7765
1067.49	23.2892
1069.13	21.2559
1070.77	19.6605
1072.42	17.789
1074.06	16.2201
1075.7	14.8572
1077.34	13.6901
1078.98	13.0695
1080.62	11.7104
1082.27	10.7981
1083.91	10.132
1085.55	8.6205
1087.18	8.42246
1088.82	8.41314
1090.46	8.17869
1092.1	9.41276
1093.74	10.1142
1095.38	10.3979
1097.02	10.4958
1098.65	11.9848
1100.29	12.1069
1101.93	12.3271
1103.56	11.8894
1105.2	11.217
1106.84	10.7503
1108.47	11.1585
1110.11	11.1284
1111.74	11.1634
1113.38	11.4525
1115.01	12.0443
1116.64	11.7858
1118.28	10.8895
1119.91	10.7666
1121.54	10.5242
1123.18	9.7397
1124.81	9.82788
1126.44	9.61243
1128.07	9.414
1129.7	8.4982
1131.33	8.2603
1132.97	7.20914
1134.6	7.43121
1136.23	7.28477
1137.86	7.41172
1139.49	7.553
1141.11	6.44008
1142.74	6.47394
1144.37	5.47551
1146	4.80062
1147.63	4.19174
1149.26	3.96636
1150.88	4.22113
1152.51	4.17192
1154.14	3.54592
1155.76	2.95898
1157.39	3.05015
1159.01	3.07062
1160.64	3.32674
1162.27	2.70624
1163.89	3.05092
1165.51	3.16599
1167.14	3.07651
1168.76	4.22785
1170.39	5.45413
1172.01	5.24149
1173.63	5.49776
1175.25	5.14037
1176.88	5.27177
1178.5	5.65457
1180.12	5.42103
1181.74	4.8558
1183.36	5.17321
1184.98	4.91421
1186.6	4.99602
1188.22	5.78375
1189.84	5.88795
1191.46	5.18073
1193.08	5.72858
1194.7	5.47517
1196.32	5.90171
1197.94	6.57314
1199.55	6.67081
1201.17	7.28171
1202.79	8.27149
1204.41	9.06259
1206.02	10.091
1207.64	10.8325
1209.25	11.5732
1210.87	12.792
1212.48	13.6521
1214.1	13.9863
1215.71	15.0529
1217.33	16.0102
1218.94	16.8954
1220.56	17.2606
1222.17	18.119
1223.79	19.6911
1225.4	20.9697
1227.01	22.0864
1228.62	23.3469
1230.23	25.1851
1231.85	26.3405
1233.46	26.7185
1235.07	27.0059
1236.68	27.2543
1238.29	27.9924
1239.9	28.5189
1241.51	29.0727
1243.12	30.1222
1244.73	31.5669
1246.34	32.104
1247.94	32.0917
1249.55	32.842
1251.16	32.9082
1252.77	32.5762
1254.37	32.74
1255.98	32.5545
1257.59	32.0305
1259.2	31.0239
1260.8	30.0627
1262.41	29.9612
1264.01	29.9167
1265.62	29.5051
1267.22	29.0386
1268.83	29.494
1270.43	28.4088
1272.03	28.5325
1273.64	28.9714
1275.24	29.1234
1276.85	28.91
1278.45	29.7338
1280.05	30.0891
1281.65	30.591
1283.25	31.1028
1284.85	31.7096
1286.46	31.7118
1288.06	32.5833
1289.66	32.8735
1291.26	33.1573
1292.86	33.793
1294.46	34.7726
1296.06	35.3387
1297.66	36.4688
1299.25	37.0767
1300.85	37.7284
1302.45	38.9669
1304.05	39.8612
1305.65	40.7603
1307.24	41.3902
1308.84	42.1532
1310.43	42.5915
1312.03	41.7182
1313.63	41.8147
1315.22	42.1422
1316.82	42.5306
1318.41	43.3285
1320.01	44.2236
1321.6	44.2421
1323.2	44.1299
1324.79	44.1988
1326.38	43.0636
1327.98	42.9825
1329.57	43.1958
1331.16	41.6634
1332.76	40.4279
1334.35	39.5831
1335.94	38.5883
1337.53	37.4199
1339.12	36.9776
1340.71	37.0268
1342.3	36.4623
1343.89	36.3384
1345.48	35.4724
1347.07	34.7776
1348.66	34.4103
1350.25	32.9314
1351.84	32.2953
1353.43	31.3254
1355.01	30.4558
1356.6	30.0676
1358.19	29.3463
1359.77	28.8628
1361.36	28.1133
1362.95	26.7353
1364.53	26.5751
1366.12	25.8459
1367.71	25.4962
1369.29	24.8638
1370.88	24.4401
1372.46	24.2816
1374.04	23.3712
1375.63	22.7969
1377.21	22.6061
1378.8	21.9321
1380.38	21.3309
1381.96	20.9456
1383.54	20.4236
1385.13	19.7159
1386.71	19.4414
1388.29	19.3262
1389.87	19.1013
1391.45	19.1192
1393.03	20.1454
1394.61	20.3333
1396.19	20.4581
1397.77	21.0704
1399.35	22.0744
1400.93	21.3688
1402.51	20.7
1404.09	20.6908
1405.67	19.8531
1407.24	20.0195
1408.82	20.202
1410.4	20.0991
1411.98	20.9195
1413.55	22.1405
1415.13	23.0717
1416.71	24.3614
1418.28	25.7547
1419.86	27.4377
1421.43	28.6459
1423.01	30.3441
1424.58	31.9537
1426.16	33.7923
1427.73	35.5742
1429.31	37.3268
1430.88	39.262
1432.45	40.8339
1434.02	42.7186
1435.6	43.9364
1437.17	45.3843
1438.74	47.5097
1440.31	48.635
1441.88	49.1531
1443.45	50.9017
1445.03	50.8909
1446.6	51.6912
1448.17	52.1514
1449.74	52.7724
1451.3	53.2533
1452.87	53.3302
1454.44	52.7725
1456.01	52.0729
1457.58	51.0918
1459.15	50.06
1460.72	49.1689
1462.28	47.6828
1463.85	46.4595
1465.42	45.3301
1466.98	44.5111
1468.55	43.2807
1470.12	42.5451
1471.68	41.0067
1473.25	39.2115
1474.81	36.8636
1476.38	35.4326
1477.94	33.3043
1479.51	30.5052
1481.07	28.1739
1482.63	26.4035
1484.2	24.3035
1485.76	22.7698
1487.32	21.9152
1488.88	20.5453
1490.45	19.6838
1492.01	18.5778
1493.57	17.4508
1495.13	16.9136
1496.69	15.5953
1498.25	15.5992
1499.81	15.2822
1501.37	15.3244
1502.93	15.3748
1504.49	14.9603
1506.05	14.8442
1507.61	14.5644
1509.17	13.8906
1510.73	14.0494
1512.28	14.1151
1513.84	14.1077
1515.4	14.7835
1516.96	14.658
1518.51	14.0816
1520.07	14.3468
1521.63	14.8981
1523.18	14.1268
1524.74	14.8292
1526.29	15.1255
1527.85	14.9777
1529.4	14.1273
1530.96	13.9697
1532.51	13.2892
1534.06	13.1529
1535.62	12.8497
1537.17	12.4613
1538.72	12.5463
1540.28	12.5457
1541.83	13.3623
1543.38	14.1581
1544.93	14.7871
1546.48	14.6271
1548.03	15.3172
1549.59	15.1997
1551.14	15.0003
1552.69	15.1777
1554.24	15.9879
1555.79	15.2666
1557.34	15.3699
1558.88	14.2879
1560.43	14.4967
1561.98	15.2121
1563.53	15.9485
1565.08	17.2371
1566.62	17.2381
1568.17	17.2467
1569.72	17.7405
1571.27	18.4681
1572.81	19.5589
1574.36	19.7649
1575.9	20.923
1577.45	21.6132
1579	22.5343
1580.54	23.5663
1582.09	24.5798
1583.63	25.6339
1585.17	26.1081
1586.72	27.2554
1588.26	28.5373
1589.8	28.9324
1591.35	29.743
1592.89	30.0298
1594.43	29.8438
1595.97	29.4043
1597.52	30.2899
1599.06	29.8793
1600.6	29.2323
1602.14	29.651
1603.68	29.5054
1605.22	28.7576
1606.76	28.2936
1608.3	28.0822
1609.84	27.8793
1611.38	27.989
1612.92	29.1174
1614.46	28.8718
1615.99	29.6893
1617.53	29.9853
1619.07	30.4636
1620.61	30.5488
1622.14	30.5518
1623.68	29.6467
1625.22	29.9172
1626.75	29.8151
1628.29	30.1045
1629.82	29.9167
1631.36	30.0126
1632.9	29.5358
1634.43	30.4524
1635.96	30.8947
1637.5	31.9586
1639.03	32.759
1640.57	32.8923
1642.1	33.199
1643.63	33.0323
1645.16	33.638
1646.7	34.6506
1648.23	35.5353
1649.76	36.1041
1651.29	36.2064
1652.82	36.7768
1654.36	37.7335
1655.89	38.9121
1657.42	39.246
1658.95	39.2064
1660.48	39.3228
1662.01	39.3282
1663.53	39.3365
1665.06	38.7374
1666.59	37.6584
1668.12	36.4835
1669.65	35.6378
1671.18	33.6026
1672.7	32.6173
1674.23	31.8032
1675.76	30.2522
1677.29	29.0983
1678.81	28.6593
1680.34	27.2322
1681.86	25.8508
1683.39	24.6944
1684.91	23.8894
1686.44	23.812
1687.96	23.214
1689.49	22.0123
1691.01	19.9827
1692.54	18.9333
1694.06	17.1698
1695.58	15.8675
1697.11	14.2021
1698.63	12.4461
1700.15	10.8521
1701.67	10.2213
1703.2	9.18048
1704.72	8.42922
1706.24	7.19785
1707.76	6.83121
1709.28	6.33994
1710.8	6.69258
1712.32	6.64288
1713.84	6.32118
1715.36	5.72778
1716.88	5.17308
1718.4	4.88048
1719.91	4.76977
1721.43	4.92977
1722.95	5.17826
1724.47	5.29016
1725.99	4.80249
1727.5	4.51488
1729.02	4.90744
1730.54	5.27981
1732.05	5.30648
1733.57	5.3194
1735.09	5.11649
1736.6	5.17475
1738.12	5.07589
1739.63	4.76909
1741.15	4.28756
1742.66	3.76906
1744.18	3.47521
1745.69	3.66831
1747.2	2.99869
1748.72	3.29834
1750.23	3.41862
1751.74	3.63609
1753.25	3.72518
1754.77	3.57727
1756.28	3.20752
1757.79	3.25915
1759.3	3.21512
1760.81	3.40634
1762.32	3.2863
1763.83	2.98866
1765.34	2.48039
1766.85	2.258
1768.36	1.78877
1769.87	1.5029
1771.38	1.38346
1772.89	1.33218
1774.4	1.31848
1775.91	1.80911
1777.41	1.78325
1778.92	2.10733
1780.43	2.78259
1781.94	2.5831
1783.44	2.78524
1784.95	3.23685
1786.45	3.42393
1787.96	3.01968
1789.47	2.58843
1790.97	2.57512
1792.47	2.85293
1793.98	3.50095
1795.48	3.67009
1796.99	4.24651
1798.49	4.1045
1800	4.24162
1801.5	4.14059
1803	4.10126
1804.51	4.22242
1806.01	4.39403
1807.51	4.4219
1809.01	4.33167
1810.51	4.25751
1812.02	4.49943
1813.52	4.08333
1815.02	3.35788
1816.52	2.90942
1818.02	3.06581
1819.52	3.02951
1821.02	3.07308
1822.52	2.71496
1824.02	2.71194
1825.51	3.17012
1827.01	2.90231
1828.51	2.70805
1830.01	2.91598
1831.51	3.50384
1833	3.72346
1834.5	3.82024
1836	3.70856
1837.49	3.41567
1838.99	3.94504
1840.49	3.83969
1841.98	4.33311
1843.48	4.21473
1844.97	4.49178
1846.47	4.9826
1847.96	5.65718
1849.46	5.37587
1850.95	5.49214
1852.45	5.22898
1853.94	5.27202
1855.43	5.23616
1856.92	4.70872
1858.42	5.02551
1859.91	4.85514
1861.4	4.82588
1862.89	4.97333
1864.39	5.06201
1865.88	4.99238
1867.37	4.93775
1868.86	4.82662
1870.35	4.20063
1871.84	4.26646
1873.33	4.08772
1874.82	4.45109
1876.31	4.15629
1877.8	3.55633
1879.29	3.42794
1880.77	2.90855
1882.26	2.53484
1882.52	2.61366
1884.02	2.68129
1885.51	2.31438
1887.01	2.33253
1888.5	2.82103
1889.99	3.19112
1891.49	3.52531
1892.98	3.74394
1894.47	3.82337
1895.96	4.5896
1897.46	5.3358
1898.95	5.85855
1900.44	6.19386
1901.93	6.45039
1903.42	6.82924
1904.91	6.51547
1906.4	6.58345
1907.89	6.44892
1909.38	6.10158
1910.87	6.64754
1912.36	7.03095
1913.85	6.98153
1915.34	6.95929
1916.83	6.68096
1918.32	7.06868
1919.8	7.63346
1921.29	7.79508
1922.78	7.62672
1924.27	7.9594
1925.75	8.09501
1927.24	8.05597
1928.73	8.0188
1930.21	7.43015
1931.7	7.20474
1933.18	6.78805
1934.67	6.87088
1936.15	6.27302
1937.64	5.83904
1939.12	5.0588
1940.61	4.73849
1942.09	4.29072
1943.57	4.03923
1945.06	3.84016
1946.54	4.0378
1948.02	3.49294
1949.51	2.40946
1950.99	1.79716
1952.47	1.77293
1953.95	1.56942
1955.43	2.05644
1956.91	1.95392
1958.39	2.00873
1959.87	1.85262
1961.36	2.19892
1962.84	2.32932
1964.32	2.04798
1965.79	2.92975
1967.27	3.18705
1968.75	3.47348
1970.23	3.29523
1971.71	2.85559
1973.19	2.85365
1974.66	2.28457
1976.14	1.73227
1977.62	2.21776
1979.1	1.93033
1980.57	2.42762
1982.05	2.45619
1983.53	2.42428
1985	2.98047
1986.48	3.63797
1987.95	3.88214
1989.43	4.12565
1990.9	4.06556
1992.38	4.21861
1993.85	4.45303
1995.33	4.22412
1996.8	3.8823
1998.27	3.67467
1999.75	3.85884
2001.22	3.55976
2002.69	3.6807
2004.16	3.48086
2005.64	3.79165
2007.11	3.56414
2008.58	3.13823
2010.05	2.78388
2011.52	2.60575
2012.99	2.84865
2014.46	2.92722
2015.93	3.11305
2017.4	3.35011
2018.87	3.03515
2020.34	2.85994
2021.81	2.16845
2023.28	1.8375
2024.75	1.91193
2026.22	1.59051
2027.69	2.31928
2029.15	2.2614
2030.62	2.0137
2032.09	2.37985
2033.56	2.12313
2035.02	2.52544
2036.49	3.25002
2037.95	3.45943
2039.42	3.75423
2040.89	3.68011
2042.35	3.51304
2043.82	3.03142
2045.28	3.4063
2046.75	3.7838
2048.21	3.69079
2049.67	3.8975
2051.14	4.76924
2052.6	4.26731
2054.06	5.03599
2055.53	5.29734
2056.99	5.38842
2058.45	5.59292
2059.92	5.90648
2061.38	4.86906
2062.84	4.39074
2064.3	4.28208
2065.76	4.76064
2067.22	4.84361
2068.68	4.92694
2070.14	5.39318
2071.6	6.05191
2073.06	6.18462
2074.52	6.08259
2075.98	6.11465
2077.44	5.9863
2078.9	5.77924
2080.36	5.88043
2081.82	5.86262
2083.27	6.34131
2084.73	6.06227
2086.19	6.38494
2087.65	6.13698
2089.1	6.17103
2090.56	5.8283
2092.01	5.56975
2093.47	5.41662
2094.93	5.9777
2096.38	5.31703
2097.84	5.60567
2099.29	5.47007
2100.75	6.06281
2102.2	5.54597
2103.66	5.79406
2105.11	5.92085
2106.56	6.12776
2108.02	6.46741
2109.47	6.27552
2110.92	5.86485
2112.37	6.12324
2113.83	6.1143
2115.28	5.99553
2116.73	6.03303
2118.18	6.36464
2119.63	6.89518
2121.09	6.7151
2122.54	6.96491
2123.99	8.1414
2125.44	7.80378
2126.89	8.43253
2128.34	8.44771
2129.79	8.41322
2131.23	8.61869
2132.68	9.13225
2134.13	9.00396
2135.58	9.98735
2137.03	10.4407
2138.48	10.4525
2139.92	10.8117
2141.37	11.4022
2142.82	11.5238
2144.26	11.3713
2145.71	11.4232
2147.16	11.5711
2148.6	12.2709
2150.05	12.005
2151.49	12.5727
2152.94	12.9313
2154.38	13.1027
2155.83	13.6379
2157.27	13.7646
2158.72	14.1412
2160.16	14.6505
2161.6	15.5163
2163.05	16.2593
2164.49	16.753
2165.93	17.0032
2167.38	17.899
2168.82	17.7903
2170.26	18.7764
2171.7	18.926
2173.14	19.918
2174.58	20.3077
2176.03	20.4037
2177.47	20.8221
2178.91	20.9857
2180.35	20.897
2181.79	20.9289
2183.23	21.2878
2184.67	21.5042
2186.1	21.3763
2187.54	20.9094
2188.98	20.6684
2190.42	20.5962
2191.86	20.4192
2193.3	20.0777
2194.73	20.6602
2196.17	20.2261
2197.61	19.436
2199.05	19.1425
2200.48	18.8929
2201.92	17.9908
2203.35	17.2429
2204.79	16.8774
2206.22	16.2569
2207.66	15.6872
2209.09	15.045
2210.53	14.6066
2211.96	13.9874
2213.4	12.7452
2214.83	11.4359
2216.27	11.3301
2217.7	10.9257
2219.13	9.83292
2220.56	9.40392
2222	8.45492
2223.43	8.13476
2224.86	7.43423
2226.29	7.3801
2227.72	7.29504
2229.16	6.82224
2230.59	7.07294
2232.02	7.47485
2233.45	7.76391
2234.88	7.58701
2236.31	7.15003
2237.74	7.47359
2239.17	7.47076
2240.6	7.58892
2242.03	7.41126
2243.45	7.50544
2244.88	7.91752
2246.31	7.44271
2247.74	7.22023
2249.17	7.21999
2250.59	6.51137
2252.02	6.33958
2253.45	6.495
2254.87	6.3475
2256.3	6.38652
2257.73	5.9048
2259.15	5.3153
2260.58	5.38336
2262	5.11199
2263.43	4.92966
2264.85	4.94419
2266.28	5.06752
2267.7	4.78422
2269.13	5.16279
2270.55	4.80321
2271.97	4.12112
2273.4	4.19424
2274.82	4.6758
2276.24	5.11447
2277.66	4.99155
2279.09	4.7219
2280.51	4.73304
2281.93	4.50612
2283.35	4.31264
2284.77	4.14251
2286.19	4.65599
2287.61	4.89993
2289.04	4.70426
2290.46	3.90583
2291.88	4.1424
2293.29	3.83638
2294.71	4.1202
2296.13	5.56195
2297.55	6.14977
2298.97	6.47207
2300.39	6.65895
2301.81	7.89092
2303.23	8.7196
2304.64	9.61576
2306.06	10.3839
2307.48	10.1316
2308.89	10.5136
2310.31	10.8485
2311.73	11.0768
2313.14	10.767
2314.56	11.0518
2315.97	10.9868
2317.39	10.6079
2318.8	10.7084
2320.22	10.815
2321.63	10.9282
2323.05	10.7749
2324.46	10.4513
2325.88	10.1288
2327.29	9.76987
2328.7	9.01542
2330.12	8.31411
2331.53	8.27941
2332.94	8.09326
2334.35	8.01622
2335.76	8.42299
2337.18	8.56302
2338.59	8.06277
2340	7.34035
2341.41	6.44572
2342.82	5.89172
2344.23	6.45646
2345.64	5.59257
2347.05	4.96609
2348.46	4.1398
2349.87	3.27494
2351.28	3.02551
2352.69	2.98334
2354.1	2.92093
2355.5	2.45779
2356.91	2.15755
2358.32	1.55379
2359.73	1.34714
2361.14	0.55536
2362.54	1.19284
2363.95	1.63393
2365.36	2.11991
2366.76	2.33353
2368.17	2.10534
2369.58	2.65626
2370.98	3.24658
2372.39	3.61465
2373.79	4.09076
2375.2	3.9449
2376.6	3.51453
2378	3.15415
2379.41	3.83595
2380.81	4.25043
2382.22	3.8579
2383.62	4.05796
2385.02	4.35531
2386.42	4.12912
2387.83	3.58998
2389.23	3.66344
2390.63	4.0468
2392.03	4.00699
2393.43	3.8023
2394.84	3.49789
2396.24	3.42619
2397.64	2.53788
2399.04	2.37998
2400.44	2.01234
2401.84	2.19149
2403.24	2.17491
2404.64	2.703
2406.04	2.91961
2407.44	2.6113
2408.83	2.29272
2410.23	2.471
2411.63	2.10575
2413.03	2.19704
2414.43	2.3471
2415.83	2.13799
2417.22	1.90651
2418.62	1.88983
2420.02	1.79162
2421.41	2.09737
2422.81	2.19166
2424.21	2.15953
2425.6	2.04247
2427	1.70407
2428.39	2.09314
2429.79	2.0703
2431.18	2.06743
2432.58	2.95756
2433.97	2.85536
2435.36	2.51306
2436.76	2.75355
2438.15	3.30998
2439.54	3.39398
2440.94	3.53352
2442.33	3.49944
2443.72	3.65358
2445.11	3.76297
2446.51	4.19545
2447.9	4.66985
2449.29	4.63423
2450.68	4.37408
2452.07	4.27791
2453.46	4.3528
2454.85	4.59133
2456.24	3.9885
2457.63	4.23149
2459.02	4.55992
2460.41	4.56005
2461.8	4.16032
2463.19	3.97819
2464.58	3.40534
2465.97	3.07859
2467.36	2.49378
2468.75	2.69086
2470.13	2.20693
2471.52	2.49758
2472.91	2.60344
2474.29	2.83265
2475.68	2.90195
2477.07	2.83898
2478.45	2.67153
2479.84	2.76274
2481.22	2.05708
2482.61	2.10063
2484	2.05641
2485.38	2.16455
2486.77	2.12339
2488.15	2.19013
2489.54	2.27622
2490.92	2.64369
2492.3	2.4491
2493.69	2.46808
2495.07	2.4998
2496.45	2.49117
2497.84	3.04071
2499.22	2.80699
2500.6	2.92858
2501.98	3.21217
2503.36	2.76621
2504.74	2.6424
2506.13	2.77992
2507.51	2.68041
2508.89	2.6249
2510.27	2.72827
2511.65	2.31976
2513.03	3.16412
2514.41	3.84555
2515.79	4.51412
2517.17	4.57278
2518.55	4.36435
2519.93	4.04538
2521.3	4.48977
2522.68	4.66981
2524.06	4.82258
2525.44	4.38669
2526.82	4.76374
2528.19	4.29235
2529.57	4.48773
2530.95	4.46309
2532.32	3.95914
2533.7	3.41468
2535.08	3.22204
2536.45	3.64365
2537.83	3.40636
2539.2	3.05756
2540.58	3.32606
2541.95	3.43713
2543.33	3.6039
2544.7	3.40912
2546.08	3.17148
2547.45	2.98495
2548.82	3.0931
2550.2	2.7367
2551.57	3.53016
2552.94	3.87275
2554.32	4.0474
2555.69	4.48687
2557.06	4.61724
2558.43	4.84134
2559.8	4.7288
2561.17	4.8803
2562.55	4.63732
2563.92	4.68851
2565.29	4.64805
2566.66	4.47308
2568.03	4.01137
2569.4	3.66917
2570.77	3.06486
2572.14	3.08289
2573.51	3.00206
2574.88	2.82919
2576.24	3.04297
2577.61	3.13497
2578.98	3.23373
2580.35	3.38722
2581.72	3.69055
2583.09	3.78959
2584.45	3.73066
2585.82	3.04218
2587.19	2.15482
2588.55	2.43632
2589.92	2.88836
2591.28	2.80004
2592.65	2.789
2594.02	2.84614
2595.38	3.20431
2596.75	3.07334
2598.11	2.6052
2599.48	2.09321
2600.84	1.75053
2602.2	1.82383
2603.57	1.94099
2604.93	2.36724
2606.3	1.60261
2607.66	1.78875
2609.02	2.45542
2610.38	2.56358
2611.75	2.56971
2613.11	3.11423
2614.47	3.3344
2615.83	3.75906
2617.19	4.05274
2618.56	4.14218
2619.92	4.38433
2621.28	4.13009
2622.64	4.56881
2624	5.24153
2625.36	4.79281
2626.72	4.59558
2628.08	4.88071
2629.44	5.14467
2630.8	4.97179
2632.15	5.29404
2633.51	5.67094
2634.87	5.59766
2636.23	5.65594
2637.59	5.64042
2638.94	5.78685
2640.3	6.06923
2641.66	5.84776
2643.02	5.51623
2644.37	5.5083
2645.73	5.40431
2647.08	5.96154
2648.44	5.70237
2649.8	5.35644
2651.15	6.00502
2652.51	5.70643
2653.86	5.64838
2655.22	5.62222
2656.57	6.23888
2657.92	6.06755
2659.28	5.87961
2660.63	5.66807
2661.99	5.35515
2663.34	5.28729
2664.69	4.84816
2666.04	4.26214
2667.4	4.81877
2668.75	5.37963
2670.1	5.7899
2671.45	6.08309
2672.81	6.03862
2674.16	5.18434
2675.51	5.1145
2676.86	5.05432
2678.21	4.51183
2679.56	4.1433
2680.91	4.16246
2682.26	4.35101
2683.61	4.65698
2684.96	4.87675
2686.31	4.61354
2687.66	4.54247
2689	4.79518
2690.35	5.13198
2691.7	4.86966
2693.05	4.70562
2694.4	5.15393
2695.74	5.64876
2697.09	5.4759
2698.44	4.92635
2699.79	4.48177
2701.13	4.2708
2702.48	3.77705
2703.82	4.33349
2705.17	4.17995
2706.52	4.35973
2707.86	4.77999
2709.21	5.16907
2710.55	5.44702
2711.9	5.89525
2713.24	6.1825
2714.58	6.40526
2715.93	6.23221
2717.27	6.62219
2718.61	6.9325
2719.96	6.65438
2721.3	6.7482
2722.64	6.91281
2723.99	7.10543
2725.33	6.77751
2726.67	6.83813
2728.01	6.99794
2729.35	7.3665
2730.7	7.48982
2732.04	7.06037
2733.38	6.39619
2734.72	6.08527
2736.06	5.91736
2737.4	5.13536
2738.74	4.5543
2740.08	3.26104
2741.42	2.61673
2742.76	2.61302
2744.09	2.64593
2745.43	2.79965
2746.77	3.20703
2748.11	3.52876
2749.45	3.61209
2750.79	3.59851
2752.12	2.76703
2753.46	1.65167
2754.8	1.50093
2756.13	1.34702
2757.47	0.894474
2758.81	0.8575
2760.14	1.10201
2761.48	1.0357
2762.81	0.647167
2764.15	0.592328
2765.49	0.369842
2766.82	1.0763
2768.15	1.41041
2769.49	2.23269
2770.82	2.92506
2772.16	2.34484
2773.49	2.62041
2774.82	3.33642
2776.16	3.19545
2777.49	3.25626
2778.82	3.32633
2780.16	3.49164
2781.49	3.642
2782.82	3.87497
2784.15	3.99603
2785.48	3.89642
2786.81	4.09362
2788.15	4.14259
2789.48	4.34887
2790.81	4.23115
2792.14	3.87946
2793.47	3.91598
2794.8	3.55049
2796.13	3.29484
2797.46	2.46096
2798.79	1.83722
2800.12	1.39844
2801.44	1.76022
2802.77	1.62985
2804.1	1.22116
2805.43	1.11779
2806.76	0.234018
2808.08	0.452244
2809.41	0.865048
2810.74	0.981912
2812.07	0.989131
2813.39	1.3842
2814.72	1.66625
2816.05	1.65631
2817.37	1.9672
2818.7	1.95119
2820.02	2.43955
2821.35	3.69222
2822.67	4.25224
2824	4.92959
2825.32	6.28311
2826.65	6.66381
2827.97	7.26394
2829.29	8.6856
2830.62	10.0489
2831.94	11.3142
2833.26	13.0303
2834.59	13.7864
2835.91	15.1406
2837.23	16.0527
2838.55	17.4565
2839.88	19.9188
2841.2	22.0259
2842.52	24.0136
2843.84	26.4044
2845.16	28.682
2846.48	31.2743
2847.8	34.1424
2849.12	37.3961
2850.44	39.6261
2851.76	42.565
2853.08	45.2354
2854.4	47.9362
2855.72	50.3335
2857.04	52.2681
2858.36	54.5092
2859.68	56.6376
2861	59.0264
2862.32	60.9351
2863.63	63.3168
2864.95	65.7355
2866.27	68.1123
2867.58	70.0187
2868.9	71.4096
2870.22	73.5769
2871.53	75.0803
2872.85	76.4139
2874.17	78.3139
2875.48	80.1785
2876.8	81.4321
2878.11	82.9173
2879.43	84.7007
2880.74	85.7287
2882.06	86.9394
2883.37	88.375
2884.69	89.4188
2886	90.3131
2887.31	91.7399
2888.63	92.2724
2889.94	93.4757
2891.25	94.2098
2892.57	94.957
2893.88	95.6101
2895.19	97.199
2896.5	97.9579
2897.82	99.6895
2899.13	100.715
2900.44	102.19
2901.75	104.8
2903.06	107.159
2904.37	110.515
2905.68	113.355
2906.99	116.532
2908.3	119.764
2909.61	122.301
2910.92	125.542
2912.23	128.86
2913.54	131.787
2914.85	134.529
2916.16	136.907
2917.46	140.106
2918.77	142.195
2920.08	144.678
2921.39	146.197
2922.7	148.705
2924	150.337
2925.31	151.373
2926.62	152.94
2927.92	153.119
2929.23	153.89
2930.53	153.698
2931.84	153.138
2933.15	152.377
2934.45	151.813
2935.76	151.047
2937.06	150.024
2938.37	148.755
2939.67	147.175
2940.98	145.623
2942.28	143.455
2943.58	141.227
2944.89	139.34
2946.19	136.689
2947.49	134.05
2948.8	131.035
2950.1	127.597
2951.4	124.751
2952.7	121.472
2954.01	118.256
2955.31	115.075
2956.61	111.877
2957.91	109.13
2959.21	106.164
2960.51	104.014
2961.81	101.425
2963.11	99.1038
2964.41	96.3418
2965.71	94.3367
2967.01	92.198
2968.31	89.9233
2969.61	88.1392
2970.91	85.3263
2972.21	83.2283
2973.51	81.0856
2974.81	78.6163
2976.1	76.6816
2977.4	74.4006
2978.7	72.1659
2980	69.9633
2981.29	67.7273
2982.59	65.1133
2983.89	62.1362
2985.18	59.7063
2986.48	56.7647
2987.78	54.0028
2989.07	50.4798
2990.37	47.9482
2991.66	45.5291
2992.96	41.9798
2994.25	39.4654
2995.55	36.5307
2996.84	34.2243
2998.14	31.8195
2999.43	29.4167
3000.72	27.3865
3002.02	25.3355
3003.31	22.8462
3004.6	20.77
3005.9	19.1557
3007.19	17.1644
3008.48	15.4042
3009.77	14.117
3011.07	11.643
3012.36	9.93425
3013.65	8.58238
3014.94	7.24842
3016.23	6.65742
3017.52	5.18265
3018.81	4.43985
3020.1	3.59596
3021.39	3.35198
3022.68	2.74722
3023.97	2.5584
3025.26	2.04378
3026.55	2.09205
3027.84	1.87653
3029.13	1.64722
3030.42	1.56806
3031.71	1.64262
3033	2.29113
3034.28	2.28349
3035.57	2.25994
3036.86	2.68328
3038.15	2.93945
3039.43	2.80521
3040.72	3.0852
3042.01	3.01454
3043.29	3.09992
3044.58	3.64085
3045.86	4.07557
3047.15	4.41048
3048.44	4.59235
3049.72	4.96269
3051.01	5.12535
3052.29	5.67018
3053.58	6.37067
3054.86	6.80186
3056.14	6.27569
3057.43	5.97621
3058.71	6.17801
3060	6.38529
3061.28	6.38533
3062.56	6.55074
3063.84	6.3357
3065.13	6.17256
3066.41	5.77445
3067.69	5.56983
3068.97	5.61291
3070.25	5.29466
3071.54	4.61035
3072.82	4.20358
3074.1	3.74873
3075.38	2.96956
3076.66	3.44617
3077.94	2.81082
3079.22	2.48298
3080.5	2.21336
3081.78	2.15454
3083.06	2.55674
3084.34	2.34578
3085.62	2.37645
3086.9	1.8915
3088.17	1.59508
3089.45	1.00345
3090.73	0.961254
3092.01	0.735536
3093.29	0.502267
3094.56	0.507749
3095.84	0.530917
3097.12	0.0774046
3098.4	-0.415866
3099.67	-0.157612
3100.95	-0.516281
3102.22	-0.124862
3103.5	0.222773
3104.77	0.183716
3106.05	0.326476
3107.33	1.26533
3108.6	2.38171
3109.88	2.26723
3111.15	2.45152
3112.43	2.66485
3113.7	3.28508
3114.97	3.78375
3116.25	3.82852
3117.52	3.65102
3118.79	3.61921
3120.07	3.68364
3121.34	4.38555
3122.61	4.89697
3123.88	5.22684
3125.16	5.38431
3126.43	6.02751
3127.7	5.8391
3128.97	6.45657
3130.24	7.10424
3131.51	7.9197
3132.78	8.68151
3134.05	8.98248
3135.33	9.49464
3136.59	10.0767
3137.86	10.4778
3139.14	11.2751
3140.41	11.9293
3141.67	12.1547
3142.94	12.8671
3144.21	13.2484
3145.48	13.4604
3146.75	14.2147
3148.02	15.5244
3149.28	16.8638
