#Acq. time (s)=	45
#Accumulations=	2
#Range (cm-¹)=	200...3150
#Windows=	2
#Auto scanning=	Off
#Autofocus=	Off
#Macrospot=	Off
#AutoExposure=	Off
#Spike filter=	Multiple accum.
#Delay time (s)=	0
#Binning=	1
#Readout mode=	Signal
#DeNoise=	Off
#ICS correction=	On
#Dark correction=	Off
#Inst. Process=	Off
#Detector Gain=	Best Dynamic Range
#Detector ADC=	20 kHz       
#Detector temperature (°C)=	-69.85
#Instrument=	LabRAM HR Evol
#Detector=	Synapse
#Objective=	x100
#Grating=	600 gr/mm
#ND Filter=	100%
#Laser (nm)=	532 
#Hole=	100.021
#Range=	Auto
#Laser Pol.=	No
#Raman. Pol.=	No
#Laser Pol. (°)=	-0.0007625
#Raman Pol. (°)=	89.9995
#Collection=	Microscope
#StageXY=	Marzhauser
#StageZ=	Marzhauser
#X (µm)=	-605.4
#Y (µm)=	-1688.2
#Z (µm)=	89.1
#Full time(mm:ss)=	3:18
#Project=	
#Sample=	
#Site=	
#Title=	Mb_10_14_44_2x_45s_532 nm_x100_100%_600 gr_mm
#Remark=	
#Date=	11.07.2022 12:00
#Acquired=	11.07.2022 12:00:39
#Base:Fit=	10.08.2022 10:21:11
#Base:Sub=	10.08.2022 10:21:41
#Filter:Polynom=	16.08.2022 10:17:53
#AxisType[0]=Intens
#AxisUnit[0]=Cnt
#AxisType[1]=Spectr
#AxisUnit[1]=1/cm
200.388	27.3976
202.204	26.6523
204.019	25.8014
205.832	25.0942
207.646	23.5134
209.459	22.6033
211.274	21.6562
213.087	19.6038
214.899	18.1337
216.711	17.1898
218.524	15.0922
220.335	12.9227
222.146	11.5384
223.956	9.19623
225.766	8.28723
227.576	8.8885
229.388	9.51538
231.197	7.80448
233.005	8.19955
234.813	8.69032
236.621	8.35672
238.429	7.02319
240.236	5.22073
242.045	4.80917
243.852	4.36883
245.658	4.12988
247.464	4.01974
249.269	3.34306
251.074	2.97521
252.879	1.73492
254.683	2.74159
256.487	3.02349
258.291	4.4344
260.094	4.78266
261.897	4.53863
263.702	3.40349
265.504	4.76489
267.306	5.71573
269.108	5.57664
270.909	6.04165
272.71	5.92329
274.511	5.30207
276.311	6.88004
278.111	7.55887
279.91	7.83328
281.709	7.53509
283.508	9.22256
285.306	9.0347
287.105	9.3447
288.9	10.4021
290.698	10.0612
292.495	10.5906
294.291	11.1373
296.088	11.2155
297.884	12.2815
299.679	11.7996
301.475	12.2705
303.27	12.0362
305.064	13.454
306.858	13.1857
308.652	13.1115
310.444	13.9821
312.237	16.0276
314.03	18.0662
315.822	20.5332
317.615	21.7299
319.406	22.6049
321.198	22.8913
322.987	24.7201
324.778	24.3581
326.568	23.5146
328.358	23.1188
330.148	23.4482
331.935	24.4046
333.724	23.892
335.513	24.6262
337.301	24.8615
339.089	24.8797
340.875	24.2538
342.662	24.5092
344.449	23.8054
346.236	22.0087
348.02	21.6347
349.806	19.5247
351.592	17.6161
353.375	16.0135
355.16	15.2646
356.944	11.9611
358.728	12.0329
360.51	12.7348
362.294	12.6587
364.077	11.1118
365.858	11.6981
367.64	11.0503
369.422	10.5796
371.202	10.1747
372.983	10.352
374.764	9.62556
376.543	9.52891
378.324	9.74871
380.102	9.06628
381.881	9.51837
383.661	9.88844
385.438	9.26
387.216	10.6349
388.993	11.0359
390.771	11.5611
392.548	12.2284
394.324	12.5296
396.101	12.9354
397.875	14.7672
399.651	16.2188
401.425	16.9348
403.201	17.1878
404.974	17.1648
406.749	18.3291
408.524	18.9048
410.296	19.2357
412.07	20.3532
413.841	20.442
415.614	21.4119
417.385	22.198
419.156	21.9728
420.928	21.9981
422.698	22.289
424.469	23.2788
426.238	22.9475
428.009	22.9797
429.777	21.1679
431.548	20.3366
433.315	19.3604
435.083	18.935
436.852	17.9478
438.618	16.578
440.387	15.6014
442.153	16.1307
443.919	16.9391
445.686	17.6512
447.451	18.6892
449.218	18.2036
450.982	18.097
452.746	18.579
454.512	19.13
456.275	19.4639
458.038	20.7009
459.803	22.3233
461.565	23.6134
463.327	24.5143
465.091	24.4862
466.852	24.6525
468.613	25.7322
470.374	26.584
472.136	27.0701
473.896	28.8383
475.655	30.9783
477.415	30.3408
479.176	31.3287
480.934	31.9289
482.692	31.8862
484.45	33.2249
486.21	33.6594
487.967	34.1138
489.724	33.467
491.481	35.0193
493.237	36.9219
494.995	38.5365
496.75	38.7713
498.506	40.9678
500.26	41.7578
502.015	41.2118
503.769	41.0848
505.525	40.892
507.279	40.3086
509.032	40.8221
510.785	40.0324
512.537	39.8311
514.289	38.8376
516.041	38.8054
517.793	37.814
519.546	36.8844
521.297	37.589
523.047	36.6995
524.797	35.6968
526.547	35.344
528.297	35.4125
530.046	35.2115
531.795	33.1842
533.543	32.8818
535.291	31.8791
537.039	31.842
538.787	31.6811
540.534	31.2899
542.281	30.8754
544.027	30.4371
545.773	29.7238
547.519	29.3106
549.264	28.051
551.01	26.0537
552.754	25.6892
554.499	25.6715
556.243	26.1138
557.987	24.9727
559.73	24.9418
561.474	25.2054
563.216	23.0385
564.959	21.2837
566.701	21.1014
568.441	20.3216
570.182	20.2628
571.923	19.9352
573.664	18.1795
575.405	17.1992
577.145	16.1045
578.885	15.8872
580.624	16.0894
582.361	15.9429
584.1	15.6385
585.839	15.2374
587.577	13.2534
589.315	11.6092
591.052	10.3392
592.787	10.4926
594.524	9.01853
596.26	8.76137
597.997	8.13341
599.732	8.26481
601.466	7.09687
603.201	6.86306
604.936	5.77096
606.67	4.40314
608.403	4.51353
610.136	3.99677
611.87	3.84183
613.603	3.71862
615.334	4.21113
617.067	3.32208
618.799	2.52914
620.529	3.98098
622.26	3.44015
623.991	3.453
625.72	3.5709
627.451	3.31191
629.181	3.17435
630.909	1.54478
632.638	2.31515
634.368	2.42857
636.095	1.74301
637.823	2.03928
639.551	3.67185
641.277	3.77908
643.005	4.02677
644.73	3.98775
646.457	4.00631
648.184	5.1946
649.908	5.51134
651.634	6.07756
653.357	6.27554
655.083	7.34094
656.806	7.74031
658.53	7.06784
660.253	7.29565
661.977	7.2236
663.7	7.17142
665.422	7.36216
667.145	9.48906
668.865	10.7738
670.588	11.1147
672.308	11.0523
674.027	11.7567
675.749	11.9892
677.468	13.9322
679.188	13.8502
680.907	12.691
682.627	13.2001
684.345	12.685
686.064	12.2842
687.781	12.5619
689.498	13.5373
691.216	14.1966
692.932	14.2067
694.65	15.5233
696.366	16.7553
698.081	17.5282
699.797	18.502
701.512	17.9678
703.228	17.0197
704.942	17.8319
706.655	17.5764
708.371	16.5373
710.083	17.6488
711.796	17.7466
713.51	16.3498
715.222	16.0147
716.934	15.6076
718.645	15.8701
720.358	15.375
722.068	15.9603
723.779	16.4462
725.49	17.7154
727.2	17.907
728.909	17.3664
730.618	17.8715
732.329	17.9398
734.037	18.9725
735.745	17.1402
737.453	16.0431
739.16	15.8685
740.869	15.6023
742.576	15.6198
744.282	17.1006
745.988	17.6155
747.694	19.4205
749.401	21.7631
751.107	24.8384
752.811	26.5839
754.516	28.3826
756.22	28.6457
757.924	30.6937
759.627	31.54
761.332	31.1943
763.035	33.0881
764.738	32.8867
766.44	34.7971
768.142	36.2307
769.843	37.3452
771.544	39.6191
773.245	39.8048
774.946	40.8451
776.646	41.5696
778.346	41.8817
780.046	42.714
781.745	43.3881
783.444	43.6781
785.143	43.694
786.841	43.4758
788.539	44.4003
790.237	45.8984
791.934	46.9225
793.631	47.8955
795.328	49.3554
797.024	49.8268
798.72	51.4138
800.416	53.3913
802.112	55.6922
803.807	56.6006
805.502	58.5821
807.196	61.4745
808.89	61.6539
810.584	62.3525
812.278	62.0727
813.971	62.6064
815.664	64.7862
817.354	65.2458
819.047	66.8167
820.739	66.9586
822.43	68.6859
824.122	69.8532
825.813	71.041
827.503	72.7021
829.192	74.0852
830.882	75.267
832.571	75.8686
834.261	74.659
835.95	74.7647
837.637	73.962
839.325	72.9836
841.013	70.9129
842.701	70.0126
844.389	67.2269
846.074	66.9312
847.761	66.8297
849.447	64.7657
851.131	63.4009
852.817	60.4697
854.503	59.1098
856.188	56.1235
857.871	51.8455
859.556	50.5221
861.24	49.233
862.922	46.7425
864.606	44.9759
866.289	44.1554
867.97	42.0838
869.653	41.6486
871.336	40.4322
873.016	40.137
874.698	41.0635
876.379	41.1802
878.058	41.5364
879.739	42.5535
881.418	41.9504
883.098	42.2424
884.778	42.4146
886.456	42.29
888.135	40.9871
889.812	41.3938
891.49	40.9841
893.167	40.0823
894.845	41.6837
896.523	42.3643
898.198	43.2703
899.875	43.9442
901.55	43.1416
903.226	43.1743
904.901	43.8674
906.576	45.1759
908.25	44.8198
909.925	45.7851
911.598	46.3728
913.271	45.9443
914.945	46.57
916.617	45.9607
918.291	47.0534
919.962	47.8588
921.635	47.4016
923.306	47.7222
924.978	47.7856
926.648	48.8564
928.318	49.365
929.989	50.5026
931.659	49.2969
933.328	49.336
934.998	48.8331
936.666	47.7288
938.336	47.7994
940.004	46.6323
941.671	46.2736
943.34	46.6097
945.007	46.1442
946.673	44.3725
948.339	43.7023
950.007	44.6626
951.672	44.4473
953.337	45.2906
955.004	45.0255
956.669	44.5536
958.333	42.5837
959.997	39.4489
961.662	37.2001
963.326	35.1742
964.989	33.9994
966.651	35.8002
968.315	36.9229
969.977	38.1242
971.639	39.5753
973.301	41.9432
974.962	44.1352
976.624	46.5216
978.285	47.521
979.945	48.1891
981.605	49.491
983.264	50.801
984.924	52.1235
986.583	53.7264
988.243	54.8584
989.901	56.1505
991.56	54.5756
993.217	55.7922
994.875	56.4399
996.532	57.0344
998.188	60.2208
999.845	60.9328
1001.5	61.7371
1003.16	62.3371
1004.81	63.3036
1006.47	62.9264
1008.12	61.3324
1009.78	61.9638
1011.43	60.7518
1013.09	60.5345
1014.74	59.5153
1016.39	59.5528
1018.05	58.3996
1019.7	56.3847
1021.35	55.0972
1023	53.7039
1024.65	52.5818
1026.31	50.6476
1027.96	48.0762
1029.61	46.5551
1031.26	44.1879
1032.91	42.5668
1034.56	39.2978
1036.21	35.8519
1037.86	31.9536
1039.51	28.7622
1041.16	26.8157
1042.8	25.931
1044.45	26.2224
1046.1	27.0394
1047.75	28.2512
1049.39	29.1692
1051.04	29.7817
1052.69	29.9845
1054.33	28.6823
1055.98	28.9014
1057.62	29.4862
1059.27	28.564
1060.91	27.7933
1062.56	28.2566
1064.2	27.8252
1065.85	27.5092
1067.49	25.7333
1069.13	26.0508
1070.77	26.5177
1072.42	27.3759
1074.06	26.9683
1075.7	29.2114
1077.34	30.921
1078.98	32.3485
1080.62	34.2247
1082.27	33.7518
1083.91	33.7201
1085.55	34.9139
1087.18	35.1548
1088.82	35.863
1090.46	37.4403
1092.1	38.8888
1093.74	39.809
1095.38	41.5711
1097.02	42.6649
1098.65	42.8867
1100.29	44.0339
1101.93	44.1881
1103.56	44.9907
1105.2	44.7686
1106.84	45.0994
1108.47	43.8733
1110.11	43.3397
1111.74	43.896
1113.38	41.9943
1115.01	41.2914
1116.64	40.7464
1118.28	39.6004
1119.91	39.2182
1121.54	39.7645
1123.18	38.7003
1124.81	36.7036
1126.44	35.6726
1128.07	34.8511
1129.7	34.4381
1131.33	32.224
1132.97	30.5397
1134.6	28.5831
1136.23	27.4287
1137.86	27.0244
1139.49	24.8203
1141.11	23.4386
1142.74	22.4799
1144.37	20.3753
1146	18.7303
1147.63	17.7704
1149.26	15.826
1150.88	16.8536
1152.51	15.0429
1154.14	13.6667
1155.76	11.9509
1157.39	10.7202
1159.01	10.2112
1160.64	9.10315
1162.27	6.82267
1163.89	4.59031
1165.51	3.50459
1167.14	3.20504
1168.76	2.66297
1170.39	3.4526
1172.01	3.60331
1173.63	3.13923
1175.25	2.96465
1176.88	3.88443
1178.5	3.54066
1180.12	4.25303
1181.74	6.17961
1183.36	5.95141
1184.98	6.82601
1186.6	7.65317
1188.22	9.23022
1189.84	8.64342
1191.46	9.95177
1193.08	11.1416
1194.7	12.7113
1196.32	15.9918
1197.94	18.4292
1199.55	21.1997
1201.17	24.9445
1202.79	27.9161
1204.41	29.7854
1206.02	32.6438
1207.64	37.2238
1209.25	40.4956
1210.87	43.7964
1212.48	46.8738
1214.1	51.6122
1215.71	56.654
1217.33	61.6339
1218.94	64.6432
1220.56	69.7261
1222.17	73.9272
1223.79	77.9842
1225.4	82.0248
1227.01	85.945
1228.62	89.4044
1230.23	92.5623
1231.85	95.7929
1233.46	98.1715
1235.07	101.41
1236.68	104.225
1238.29	107.394
1239.9	109.981
1241.51	112.105
1243.12	113.424
1244.73	115.514
1246.34	116.604
1247.94	118.721
1249.55	120.134
1251.16	121.851
1252.77	122.527
1254.37	123.807
1255.98	124.801
1257.59	125.766
1259.2	125.574
1260.8	126.22
1262.41	126.222
1264.01	125.309
1265.62	125.171
1267.22	124.255
1268.83	124.719
1270.43	125.833
1272.03	127.746
1273.64	128.862
1275.24	129.268
1276.85	130.253
1278.45	131.399
1280.05	132.904
1281.65	135.123
1283.25	136.383
1284.85	137.865
1286.46	139.551
1288.06	141.042
1289.66	141.937
1291.26	143.191
1292.86	145.306
1294.46	147.232
1296.06	148.863
1297.66	149.225
1299.25	150.344
1300.85	153.295
1302.45	153.957
1304.05	157.199
1305.65	158.534
1307.24	160.566
1308.84	163.627
1310.43	164.967
1312.03	167.02
1313.63	169.924
1315.22	171.685
1316.82	173.115
1318.41	174.093
1320.01	174.408
1321.6	175.057
1323.2	174.899
1324.79	175.018
1326.38	174.856
1327.98	175.909
1329.57	174.483
1331.16	174.825
1332.76	174.385
1334.35	173.451
1335.94	170.982
1337.53	169.162
1339.12	167.342
1340.71	165.256
1342.3	163.088
1343.89	160.269
1345.48	157.421
1347.07	155.766
1348.66	153.97
1350.25	151.07
1351.84	146.949
1353.43	143.471
1355.01	140.019
1356.6	138.441
1358.19	135.975
1359.77	132.774
1361.36	129.963
1362.95	125.831
1364.53	121.792
1366.12	118.34
1367.71	114.781
1369.29	111.845
1370.88	108.55
1372.46	105.528
1374.04	102.272
1375.63	100.014
1377.21	97.1512
1378.8	94.9745
1380.38	93.2409
1381.96	91.6984
1383.54	91.5059
1385.13	89.8169
1386.71	89.2766
1388.29	88.6254
1389.87	87.5683
1391.45	87.6384
1393.03	86.1536
1394.61	84.2648
1396.19	82.9694
1397.77	81.9418
1399.35	80.8225
1400.93	80.4003
1402.51	80.1159
1404.09	80.9614
1405.67	81.9086
1407.24	82.5629
1408.82	84.1919
1410.4	86.3927
1411.98	88.6493
1413.55	91.062
1415.13	94.4735
1416.71	97.5072
1418.28	101.982
1419.86	106.666
1421.43	111.732
1423.01	117.765
1424.58	122.975
1426.16	130.404
1427.73	136.473
1429.31	143.493
1430.88	150.182
1432.45	157.189
1434.02	163.735
1435.6	170.824
1437.17	176.818
1438.74	182.323
1440.31	187.36
1441.88	191.9
1443.45	195.926
1445.03	199.611
1446.6	202.119
1448.17	203.607
1449.74	205.2
1451.3	205.054
1452.87	204.574
1454.44	203.71
1456.01	201.577
1457.58	199.574
1459.15	197.612
1460.72	194.765
1462.28	191.294
1463.85	184.931
1465.42	180.775
1466.98	175.414
1468.55	168.208
1470.12	161.363
1471.68	153.522
1473.25	145.861
1474.81	138.441
1476.38	129.475
1477.94	122.642
1479.51	116.046
1481.07	109.53
1482.63	103.797
1484.2	97.0943
1485.76	91.3375
1487.32	86.4652
1488.88	80.2614
1490.45	75.0989
1492.01	70.0405
1493.57	66.1422
1495.13	63.1258
1496.69	61.0787
1498.25	58.7284
1499.81	55.8301
1501.37	54.0509
1502.93	52.5342
1504.49	52.3527
1506.05	51.0594
1507.61	50.7481
1509.17	49.4934
1510.73	48.6101
1512.28	48.7756
1513.84	49.0224
1515.4	47.8736
1516.96	47.8259
1518.51	47.9211
1520.07	48.0805
1521.63	48.429
1523.18	47.8554
1524.74	47.2594
1526.29	46.4056
1527.85	46.3305
1529.4	45.2926
1530.96	45.3962
1532.51	46.267
1534.06	46.6368
1535.62	46.7311
1537.17	47.5829
1538.72	48.3776
1540.28	48.8335
1541.83	48.6683
1543.38	51.0869
1544.93	51.7532
1546.48	51.7405
1548.03	52.0487
1549.59	53.9889
1551.14	55.5359
1552.69	56.5845
1554.24	56.9342
1555.79	59.409
1557.34	60.7531
1558.88	62.1421
1560.43	62.9528
1561.98	63.5084
1563.53	64.3782
1565.08	64.8192
1566.62	65.0792
1568.17	66.4874
1569.72	67.7788
1571.27	70.2766
1572.81	72.6397
1574.36	73.3995
1575.9	75.2853
1577.45	76.9136
1579	79.8289
1580.54	83.473
1582.09	86.1802
1583.63	87.9976
1585.17	90.6897
1586.72	92.4085
1588.26	94.7496
1589.8	97.4774
1591.35	99.4513
1592.89	102.257
1594.43	104.574
1595.97	106.848
1597.52	107.276
1599.06	107.696
1600.6	107.916
1602.14	108.953
1603.68	108.663
1605.22	108.723
1606.76	108.589
1608.3	108.793
1609.84	109.793
1611.38	110.642
1612.92	110.911
1614.46	111.604
1615.99	111.882
1617.53	112.552
1619.07	112.738
1620.61	115.246
1622.14	116.12
1623.68	117.454
1625.22	120.083
1626.75	123.204
1628.29	123.378
1629.82	124.76
1631.36	126.978
1632.9	130.747
1634.43	134.114
1635.96	137.012
1637.5	140.323
1639.03	144.663
1640.57	149.18
1642.1	153.956
1643.63	158.422
1645.16	162.759
1646.7	166.536
1648.23	171.245
1649.76	175.541
1651.29	178.899
1652.82	183.358
1654.36	187.37
1655.89	190.305
1657.42	192.882
1658.95	193.207
1660.48	194.102
1662.01	195.363
1663.53	194.958
1665.06	193.628
1666.59	191.292
1668.12	190.383
1669.65	187.879
1671.18	183.409
1672.7	178.271
1674.23	173.17
1675.76	168.331
1677.29	162.419
1678.81	157.251
1680.34	150.18
1681.86	144.122
1683.39	137.532
1684.91	131.579
1686.44	124.761
1687.96	117.966
1689.49	109.971
1691.01	103.06
1692.54	96.5338
1694.06	89.7588
1695.58	82.7054
1697.11	76.6306
1698.63	70.6512
1700.15	65.0347
1701.67	60.0575
1703.2	55.2804
1704.72	51.456
1706.24	48.6027
1707.76	45.3489
1709.28	43.0129
1710.8	40.0499
1712.32	37.3733
1713.84	35.0989
1715.36	32.9065
1716.88	31.0376
1718.4	28.5903
1719.91	26.6214
1721.43	25.1149
1722.95	24.3875
1724.47	23.5088
1725.99	23.0432
1727.5	22.1709
1729.02	21.579
1730.54	21.0251
1732.05	19.3318
1733.57	18.8927
1735.09	18.2622
1736.6	18.0117
1738.12	17.111
1739.63	15.8257
1741.15	15.5238
1742.66	15.3153
1744.18	15.5618
1745.69	14.3742
1747.2	13.1836
1748.72	13.094
1750.23	14.2611
1751.74	14.1172
1753.25	13.9899
1754.77	14.0049
1756.28	12.6837
1757.79	12.3371
1759.3	11.4417
1760.81	11.4067
1762.32	10.9545
1763.83	10.3694
1765.34	9.10037
1766.85	8.60808
1768.36	7.94301
1769.87	6.72896
1771.38	5.88777
1772.89	6.20335
1774.4	6.61929
1775.91	5.9443
1777.41	6.52335
1778.92	6.86393
1780.43	6.91435
1781.94	6.37072
1783.44	5.86179
1784.95	5.86796
1786.45	5.34067
1787.96	4.63409
1789.47	4.21789
1790.97	3.78882
1792.47	3.14837
1793.98	3.13246
1795.48	3.36791
1796.99	3.19658
1798.49	2.88894
1800	2.82046
1801.5	2.32948
1803	2.32826
1804.51	2.59006
1806.01	2.34213
1807.51	2.04216
1809.01	2.16392
1810.51	2.58239
1812.02	3.10768
1813.52	3.65951
1815.02	3.77401
1816.52	4.04539
1818.02	3.12165
1819.52	3.08141
1821.02	2.84262
1822.52	3.05328
1824.02	3.20917
1825.51	3.26681
1827.01	3.04841
1828.51	2.85755
1830.01	2.72333
1831.51	3.07115
1833	3.25543
1834.5	3.41305
1836	4.24718
1837.49	3.97391
1838.99	4.01511
1840.49	4.22345
1841.98	4.59803
1843.48	5.34997
1844.97	5.42753
1846.47	5.71142
1847.96	5.81639
1849.46	5.46923
1850.95	5.88718
1852.45	6.2899
1853.94	6.38513
1855.43	6.69777
1856.92	6.05707
1858.42	5.6568
1859.91	5.00561
1861.4	4.85963
1862.89	4.59691
1864.39	4.84541
1865.88	5.10378
1867.37	5.29027
1868.86	6.30814
1870.35	6.26534
1871.84	6.02743
1873.33	5.20416
1874.82	5.41195
1876.31	4.88457
1877.8	5.0012
1879.29	4.6037
1880.77	4.10193
1882.26	4.47588
1882.52	4.47353
1884.02	4.22578
1885.51	3.35333
1887.01	2.87835
1888.5	1.84239
1889.99	1.10706
1891.49	0.621086
1892.98	0.234043
1894.47	0.237225
1895.96	0.704314
1897.46	0.357254
1898.95	0.903711
1900.44	0.8441
1901.93	0.824006
1903.42	0.363282
1904.91	1.10587
1906.4	1.23552
1907.89	1.35958
1909.38	1.9814
1910.87	2.2255
1912.36	2.49137
1913.85	2.64259
1915.34	2.27072
1916.83	1.80866
1918.32	1.25139
1919.8	0.882872
1921.29	1.51929
1922.78	1.85685
1924.27	2.21828
1925.75	2.22703
1927.24	2.88614
1928.73	3.30895
1930.21	3.12506
1931.7	3.283
1933.18	3.60544
1934.67	4.19234
1936.15	4.78667
1937.64	5.06604
1939.12	5.088
1940.61	4.83816
1942.09	5.98231
1943.57	5.83576
1945.06	5.64138
1946.54	5.3193
1948.02	5.2066
1949.51	4.6514
1950.99	4.3199
1952.47	4.65474
1953.95	4.74374
1955.43	4.6822
1956.91	4.50141
1958.39	4.13691
1959.87	4.22179
1961.36	4.84358
1962.84	4.68045
1964.32	4.92686
1965.79	5.13761
1967.27	4.77013
1968.75	5.22824
1970.23	5.49821
1971.71	5.76098
1973.19	5.35053
1974.66	5.22142
1976.14	5.43792
1977.62	5.53238
1979.1	5.9754
1980.57	5.0422
1982.05	4.83601
1983.53	4.74877
1985	4.7615
1986.48	4.57506
1987.95	4.92553
1989.43	4.37898
1990.9	4.94672
1992.38	5.71378
1993.85	5.87824
1995.33	6.98947
1996.8	5.92217
1998.27	5.99402
1999.75	6.21973
2001.22	6.2075
2002.69	6.00347
2004.16	5.81661
2005.64	5.85546
2007.11	6.02578
2008.58	6.22751
2010.05	6.01268
2011.52	5.80444
2012.99	6.05142
2014.46	6.29572
2015.93	6.50157
2017.4	5.25437
2018.87	4.98992
2020.34	4.19325
2021.81	3.46981
2023.28	3.59532
2024.75	3.52244
2026.22	3.50402
2027.69	4.12843
2029.15	4.36845
2030.62	4.974
2032.09	5.17503
2033.56	6.18972
2035.02	6.92847
2036.49	6.45752
2037.95	6.40746
2039.42	6.08752
2040.89	6.09154
2042.35	6.79959
2043.82	6.81182
2045.28	6.37686
2046.75	6.0696
2048.21	6.50166
2049.67	6.3889
2051.14	6.48203
2052.6	5.98904
2054.06	5.66836
2055.53	5.95884
2056.99	6.29417
2058.45	6.22303
2059.92	6.34406
2061.38	6.35816
2062.84	6.36148
2064.3	7.01359
2065.76	7.15307
2067.22	7.27051
2068.68	7.75447
2070.14	7.51202
2071.6	8.03099
2073.06	8.43589
2074.52	8.91114
2075.98	9.35059
2077.44	9.65704
2078.9	9.5941
2080.36	9.41003
2081.82	9.64539
2083.27	9.97813
2084.73	10.5305
2086.19	10.3811
2087.65	10.485
2089.1	10.0873
2090.56	10.4939
2092.01	10.8417
2093.47	10.2265
2094.93	11.3723
2096.38	12.1597
2097.84	13.2641
2099.29	14.1827
2100.75	15.599
2102.2	14.546
2103.66	15.1449
2105.11	15.7052
2106.56	15.9889
2108.02	16.0823
2109.47	16.2789
2110.92	16.5576
2112.37	17.5041
2113.83	18.6972
2115.28	19.2251
2116.73	19.6725
2118.18	19.9687
2119.63	20.6331
2121.09	21.4042
2122.54	22.1018
2123.99	22.7113
2125.44	22.9144
2126.89	23.7274
2128.34	24.8275
2129.79	25.6065
2131.23	26.4603
2132.68	28.5395
2134.13	30.3591
2135.58	32.4232
2137.03	33.7609
2138.48	36.0632
2139.92	38.241
2141.37	40.1239
2142.82	42.0265
2144.26	43.4592
2145.71	45.7757
2147.16	48.2885
2148.6	49.4582
2150.05	51.3518
2151.49	52.7009
2152.94	54.7901
2154.38	56.2846
2155.83	57.5764
2157.27	58.5259
2158.72	60.1479
2160.16	61.4004
2161.6	62.3379
2163.05	63.7245
2164.49	65.3296
2165.93	66.6937
2167.38	68.1686
2168.82	68.3373
2170.26	69.174
2171.7	69.3794
2173.14	69.4748
2174.58	69.0358
2176.03	70.1444
2177.47	70.2375
2178.91	70.2385
2180.35	70.0983
2181.79	69.5335
2183.23	68.1099
2184.67	68.0598
2186.1	66.9011
2187.54	65.6512
2188.98	64.8924
2190.42	63.7816
2191.86	62.309
2193.3	61.2481
2194.73	58.6982
2196.17	56.8489
2197.61	55.3786
2199.05	53.7987
2200.48	52.5411
2201.92	51.4158
2203.35	49.9421
2204.79	48.6616
2206.22	47.4209
2207.66	45.9094
2209.09	44.969
2210.53	44.3386
2211.96	42.4563
2213.4	41.0354
2214.83	39.7233
2216.27	38.3869
2217.7	37.3297
2219.13	36.0162
2220.56	34.6009
2222	33.8782
2223.43	32.7765
2224.86	31.9606
2226.29	30.7446
2227.72	30.2478
2229.16	29.3011
2230.59	27.9647
2232.02	26.8211
2233.45	25.999
2234.88	25.607
2236.31	24.9691
2237.74	23.5631
2239.17	22.292
2240.6	21.6847
2242.03	20.5716
2243.45	19.7141
2244.88	18.9418
2246.31	18.2571
2247.74	18.0321
2249.17	17.6538
2250.59	17.6544
2252.02	16.6945
2253.45	16.3823
2254.87	16.0292
2256.3	16.1649
2257.73	15.6727
2259.15	15.5238
2260.58	15.6112
2262	15.0613
2263.43	14.4689
2264.85	14.2007
2266.28	13.2536
2267.7	13.6991
2269.13	13.4737
2270.55	13.5174
2271.97	13.4897
2273.4	13.2594
2274.82	12.2168
2276.24	12.2003
2277.66	12.1158
2279.09	12.0813
2280.51	12.0915
2281.93	12.135
2283.35	11.9209
2284.77	12.3677
2286.19	11.9676
2287.61	12.2333
2289.04	11.9253
2290.46	12.0464
2291.88	12.1244
2293.29	11.4254
2294.71	10.8502
2296.13	10.5347
2297.55	10.8664
2298.97	11.2043
2300.39	10.4406
2301.81	10.9063
2303.23	11.4114
2304.64	11.4993
2306.06	12.326
2307.48	11.6388
2308.89	11.0116
2310.31	10.672
2311.73	10.8113
2313.14	10.7338
2314.56	10.7861
2315.97	10.4797
2317.39	10.179
2318.8	10.715
2320.22	10.6903
2321.63	10.8945
2323.05	10.6915
2324.46	10.658
2325.88	9.65022
2327.29	8.977
2328.7	9.15585
2330.12	9.01793
2331.53	8.31435
2332.94	7.44922
2334.35	6.46643
2335.76	5.87029
2337.18	5.46334
2338.59	5.70577
2340	4.94176
2341.41	4.40373
2342.82	3.71591
2344.23	2.96199
2345.64	2.02117
2347.05	1.89594
2348.46	1.33202
2349.87	1.26422
2351.28	1.09162
2352.69	1.11424
2354.1	-0.123421
2355.5	-0.0990662
2356.91	-0.978617
2358.32	-1.0177
2359.73	-1.68159
2361.14	-1.74791
2362.54	-1.58171
2363.95	-1.33056
2365.36	-0.475764
2366.76	0.0591741
2368.17	1.20405
2369.58	1.35481
2370.98	1.04216
2372.39	1.54997
2373.79	0.962688
2375.2	1.0668
2376.6	0.874581
2378	0.887334
2379.41	1.33863
2380.81	1.54091
2382.22	1.27595
2383.62	0.827411
2385.02	-0.0103017
2386.42	-0.071668
2387.83	0.0658827
2389.23	0.250794
2390.63	-0.114315
2392.03	0.0479036
2393.43	-0.354587
2394.84	-0.536946
2396.24	-0.598593
2397.64	-0.159435
2399.04	0.411791
2400.44	0.293187
2401.84	0.472815
2403.24	1.13386
2404.64	0.803676
2406.04	1.10708
2407.44	0.749726
2408.83	0.334171
2410.23	0.034277
2411.63	0.421096
2413.03	1.1544
2414.43	1.0673
2415.83	1.52562
2417.22	2.43261
2418.62	2.4279
2420.02	3.57109
2421.41	3.61075
2422.81	4.13005
2424.21	4.00798
2425.6	4.64095
2427	4.31763
2428.39	4.31164
2429.79	4.6715
2431.18	5.02012
2432.58	5.308
2433.97	5.61137
2435.36	5.74327
2436.76	6.33602
2438.15	6.39656
2439.54	6.31168
2440.94	6.60359
2442.33	6.9252
2443.72	6.59066
2445.11	7.32436
2446.51	7.56964
2447.9	7.59855
2449.29	6.7662
2450.68	6.04663
2452.07	5.59019
2453.46	5.47018
2454.85	5.35983
2456.24	5.81981
2457.63	5.83958
2459.02	5.98068
2460.41	5.9698
2461.8	5.91473
2463.19	5.64099
2464.58	5.20994
2465.97	4.77366
2467.36	4.80036
2468.75	4.67905
2470.13	4.6536
2471.52	3.93992
2472.91	2.93924
2474.29	1.88141
2475.68	2.06699
2477.07	1.90751
2478.45	2.25969
2479.84	2.75949
2481.22	2.98018
2482.61	3.12547
2484	2.81223
2485.38	2.65786
2486.77	2.55099
2488.15	1.8576
2489.54	2.16425
2490.92	1.45215
2492.3	2.13918
2493.69	1.62805
2495.07	1.4068
2496.45	1.30619
2497.84	1.45017
2499.22	1.78818
2500.6	2.01349
2501.98	2.14496
2503.36	2.89516
2504.74	3.33089
2506.13	3.87374
2507.51	3.88562
2508.89	4.52102
2510.27	5.27695
2511.65	5.09699
2513.03	5.2836
2514.41	5.75084
2515.79	5.78361
2517.17	6.30117
2518.55	6.88105
2519.93	7.35849
2521.3	7.73021
2522.68	7.68902
2524.06	7.79899
2525.44	7.51828
2526.82	6.90675
2528.19	7.13473
2529.57	6.52625
2530.95	6.60225
2532.32	6.59205
2533.7	6.06323
2535.08	6.50686
2536.45	6.65672
2537.83	6.50321
2539.2	6.47426
2540.58	5.86936
2541.95	5.75558
2543.33	6.55488
2544.7	6.48068
2546.08	6.12194
2547.45	6.42507
2548.82	6.41485
2550.2	6.01402
2551.57	5.32886
2552.94	5.01341
2554.32	5.61708
2555.69	5.83712
2557.06	6.097
2558.43	6.85265
2559.8	6.80064
2561.17	7.36799
2562.55	7.30677
2563.92	7.33199
2565.29	7.26139
2566.66	7.53966
2568.03	8.03785
2569.4	8.73842
2570.77	8.97268
2572.14	9.11254
2573.51	9.13129
2574.88	9.53646
2576.24	9.41729
2577.61	9.84899
2578.98	10.6538
2580.35	10.29
2581.72	10.5776
2583.09	10.5799
2584.45	11.2378
2585.82	11.4057
2587.19	11.227
2588.55	10.8051
2589.92	10.201
2591.28	9.86796
2592.65	9.10355
2594.02	9.15969
2595.38	9.41525
2596.75	9.36213
2598.11	8.64684
2599.48	8.93199
2600.84	8.69585
2602.2	8.57948
2603.57	9.12779
2604.93	9.37347
2606.3	9.86641
2607.66	10.1528
2609.02	10.6951
2610.38	11.2913
2611.75	12.034
2613.11	11.3563
2614.47	11.6588
2615.83	11.8553
2617.19	11.7118
2618.56	11.3202
2619.92	11.4545
2621.28	12.3112
2622.64	12.7214
2624	11.8844
2625.36	12.3783
2626.72	12.2017
2628.08	11.8544
2629.44	11.9338
2630.8	11.6587
2632.15	11.9296
2633.51	12.1724
2634.87	12.6134
2636.23	12.2795
2637.59	11.6577
2638.94	11.1853
2640.3	10.8369
2641.66	11.0715
2643.02	10.7327
2644.37	10.4192
2645.73	10.5841
2647.08	10.3485
2648.44	9.78681
2649.8	9.2254
2651.15	8.69342
2652.51	8.71188
2653.86	8.10553
2655.22	7.49394
2656.57	7.06077
2657.92	7.22576
2659.28	7.24011
2660.63	6.70817
2661.99	7.61584
2663.34	7.75171
2664.69	8.20124
2666.04	8.57092
2667.4	8.7066
2668.75	9.32473
2670.1	9.89115
2671.45	10.2673
2672.81	10.391
2674.16	10.9309
2675.51	10.7802
2676.86	10.9148
2678.21	11.0376
2679.56	10.5523
2680.91	10.3619
2682.26	10.2858
2683.61	9.75707
2684.96	9.93808
2686.31	10.3
2687.66	10.4998
2689	10.4495
2690.35	10.3023
2691.7	10.2371
2693.05	10.8987
2694.4	10.7257
2695.74	11.5185
2697.09	11.7776
2698.44	12.0475
2699.79	12.2188
2701.13	12.1231
2702.48	11.6396
2703.82	12.295
2705.17	12.9597
2706.52	13.3974
2707.86	14.1886
2709.21	14.7793
2710.55	15.1074
2711.9	15.4928
2713.24	15.5336
2714.58	16.276
2715.93	16.8114
2717.27	17.0192
2718.61	17.5482
2719.96	18.1917
2721.3	18.6193
2722.64	19.2934
2723.99	20.2243
2725.33	21.0595
2726.67	21.7801
2728.01	22.6103
2729.35	23.3631
2730.7	23.5931
2732.04	23.405
2733.38	23.3805
2734.72	23.2863
2736.06	23.2301
2737.4	22.4313
2738.74	21.6355
2740.08	21.1522
2741.42	21.5169
2742.76	21.2695
2744.09	20.9107
2745.43	20.5687
2746.77	19.5566
2748.11	18.7948
2749.45	17.6273
2750.79	16.5347
2752.12	16.2004
2753.46	15.2574
2754.8	14.3254
2756.13	13.3598
2757.47	12.7247
2758.81	11.7123
2760.14	10.6924
2761.48	9.34612
2762.81	8.25042
2764.15	6.91908
2765.49	6.11884
2766.82	5.29203
2768.15	5.01742
2769.49	4.07806
2770.82	4.04889
2772.16	2.54759
2773.49	1.68336
2774.82	1.45824
2776.16	1.02944
2777.49	0.458266
2778.82	-0.438442
2780.16	-0.610629
2781.49	-0.763593
2782.82	-1.30442
2784.15	-1.67725
2785.48	-1.92806
2786.81	-1.28162
2788.15	-1.06286
2789.48	-1.14979
2790.81	-1.33479
2792.14	-1.25782
2793.47	-1.38565
2794.8	-1.32766
2796.13	-1.7945
2797.46	-1.5779
2798.79	-1.60503
2800.12	-1.54302
2801.44	-2.19681
2802.77	-1.42272
2804.1	-1.01686
2805.43	-0.626588
2806.76	-0.392688
2808.08	0.501968
2809.41	0.410668
2810.74	0.0360927
2812.07	0.564978
2813.39	1.04209
2814.72	1.94614
2816.05	3.67145
2817.37	5.22159
2818.7	7.22671
2820.02	9.21102
2821.35	11.2519
2822.67	13.4333
2824	15.7225
2825.32	18.6308
2826.65	21.4637
2827.97	24.1668
2829.29	27.9917
2830.62	31.6926
2831.94	35.2112
2833.26	38.1455
2834.59	42.1856
2835.91	45.6463
2837.23	50.3789
2838.55	55.6169
2839.88	61.9868
2841.2	69.1358
2842.52	76.2207
2843.84	84.5724
2845.16	92.3498
2846.48	101.119
2847.8	111.076
2849.12	121.034
2850.44	131.23
2851.76	141.63
2853.08	152.954
2854.4	163.911
2855.72	174.355
2857.04	185.092
2858.36	195.827
2859.68	206.137
2861	216.919
2862.32	226.933
2863.63	237.43
2864.95	247.214
2866.27	256.855
2867.58	266.581
2868.9	276.516
2870.22	284.88
2871.53	292.553
2872.85	300.046
2874.17	308.104
2875.48	314.585
2876.8	321.382
2878.11	327.702
2879.43	333.091
2880.74	338.369
2882.06	344.261
2883.37	348.655
2884.69	353.298
2886	358.334
2887.31	362.286
2888.63	366.776
2889.94	371.444
2891.25	376.95
2892.57	381.529
2893.88	387.158
2895.19	392.169
2896.5	397.305
2897.82	402.45
2899.13	408.293
2900.44	416.121
2901.75	423.281
2903.06	432.914
2904.37	442.701
2905.68	453.612
2906.99	464.978
2908.3	476.438
2909.61	489.254
2910.92	501.24
2912.23	514.829
2913.54	529.306
2914.85	542.167
2916.16	554.903
2917.46	568.209
2918.77	580.842
2920.08	592.957
2921.39	602.489
2922.7	612.377
2924	620.704
2925.31	628.115
2926.62	635.586
2927.92	640.757
2929.23	644.85
2930.53	646.957
2931.84	647.813
2933.15	648.459
2934.45	646.487
2935.76	643.183
2937.06	639.388
2938.37	634.547
2939.67	628.258
2940.98	620.503
2942.28	612.511
2943.58	603.575
2944.89	594.211
2946.19	584.294
2947.49	574.308
2948.8	562.744
2950.1	551.574
2951.4	540.249
2952.7	527.933
2954.01	515.506
2955.31	503.325
2956.61	490.941
2957.91	477.608
2959.21	464.87
2960.51	450.915
2961.81	438.375
2963.11	425.309
2964.41	413.528
2965.71	402.406
2967.01	390.786
2968.31	380.818
2969.61	370.393
2970.91	361.166
2972.21	351.651
2973.51	342.291
2974.81	333.18
2976.1	323.948
2977.4	314.387
2978.7	305.184
2980	295.021
2981.29	285.318
2982.59	275.698
2983.89	264.948
2985.18	254.287
2986.48	242.273
2987.78	231.93
2989.07	220.991
2990.37	210.316
2991.66	199.82
2992.96	188.251
2994.25	176.285
2995.55	165.261
2996.84	154.577
2998.14	144.249
2999.43	133.486
3000.72	123.874
3002.02	115.102
3003.31	105.604
3004.6	96.4726
3005.9	88.3056
3007.19	81.1508
3008.48	73.9999
3009.77	66.2261
3011.07	59.3334
3012.36	53.388
3013.65	47.6132
3014.94	42.4935
3016.23	37.2323
3017.52	32.7417
3018.81	28.0006
3020.1	24.6701
3021.39	21.6683
3022.68	18.5776
3023.97	16.3683
3025.26	14.4266
3026.55	12.5584
3027.84	10.693
3029.13	9.81816
3030.42	9.10054
3031.71	7.80305
3033	7.60917
3034.28	8.09118
3035.57	8.92596
3036.86	9.28185
3038.15	10.1073
3039.43	11.0185
3040.72	12.4206
3042.01	12.96
3043.29	14.1126
3044.58	15.2912
3045.86	16.2268
3047.15	17.1372
3048.44	18.2775
3049.72	19.2239
3051.01	19.9892
3052.29	21.2846
3053.58	21.516
3054.86	21.793
3056.14	21.5812
3057.43	21.0779
3058.71	20.7305
3060	21.2014
3061.28	21.1326
3062.56	20.652
3063.84	21.1182
3065.13	20.7036
3066.41	20.642
3067.69	20.1973
3068.97	19.45
3070.25	19.1622
3071.54	18.5191
3072.82	17.6225
3074.1	16.3247
3075.38	15.8818
3076.66	14.7579
3077.94	13.9927
3079.22	12.3653
3080.5	10.49
3081.78	9.78156
3083.06	7.88594
3084.34	6.86655
3085.62	5.70225
3086.9	4.36331
3088.17	3.49008
3089.45	2.25721
3090.73	1.24518
3092.01	0.564675
3093.29	0.854893
3094.56	0.720215
3095.84	0.456769
3097.12	1.46047
3098.4	2.08254
3099.67	2.41943
3100.95	3.39258
3102.22	3.72661
3103.5	4.05105
3104.77	4.64451
3106.05	4.90199
3107.33	5.47312
3108.6	6.2211
3109.88	6.64206
3111.15	7.77489
3112.43	8.49175
3113.7	9.0864
3114.97	10.5377
3116.25	11.4018
3117.52	12.234
3118.79	13.4968
3120.07	14.6454
3121.34	16.23
3122.61	17.9318
3123.88	19.2345
3125.16	20.7899
3126.43	22.1118
3127.7	24.3233
3128.97	25.5449
3130.24	27.3909
3131.51	29.1731
3132.78	30.558
3134.05	32.1409
3135.33	33.6902
3136.59	35.5207
3137.86	36.65
3139.14	38.1197
3140.41	39.5395
3141.67	41.3458
3142.94	43.0354
3144.21	45.1637
3145.48	47.2274
3146.75	50.0189
3148.02	52.7491
3149.28	56.0947
