#Acq. time (s)=	45
#Accumulations=	2
#Range (cm-¹)=	200...3150
#Windows=	2
#Auto scanning=	Off
#Autofocus=	Off
#Macrospot=	Off
#AutoExposure=	Off
#Spike filter=	Multiple accum.
#Delay time (s)=	0
#Binning=	1
#Readout mode=	Signal
#DeNoise=	Off
#ICS correction=	On
#Dark correction=	Off
#Inst. Process=	Off
#Detector Gain=	Best Dynamic Range
#Detector ADC=	20 kHz       
#Detector temperature (°C)=	-70.08
#Instrument=	LabRAM HR Evol
#Detector=	Synapse
#Objective=	x100
#Grating=	600 gr/mm
#ND Filter=	100%
#Laser (nm)=	532 
#Hole=	100.021
#Range=	Auto
#Laser Pol.=	No
#Raman. Pol.=	No
#Laser Pol. (°)=	-0.0007625
#Raman Pol. (°)=	89.9995
#Collection=	Microscope
#StageXY=	Marzhauser
#StageZ=	Marzhauser
#X (µm)=	-2390.5
#Y (µm)=	2137.1
#Z (µm)=	-40.95
#Full time(mm:ss)=	3:19
#Project=	
#Sample=	
#Site=	
#Title=	Mb_10_14_06_2x_45s_532 nm_x100_100%_600 gr_mm
#Remark=	
#Date=	07.07.2022 13:50
#Acquired=	07.07.2022 13:50:32
#Base:Fit=	10.08.2022 10:21:11
#Base:Sub=	10.08.2022 10:21:41
#Filter:Polynom=	16.08.2022 10:17:53
#AxisType[0]=Intens
#AxisUnit[0]=Cnt
#AxisType[1]=Spectr
#AxisUnit[1]=1/cm
200.43	13.2443
202.246	10.4694
204.061	9.97322
205.875	8.20308
207.688	5.66043
209.501	3.61906
211.316	1.30382
213.129	-0.711822
214.941	-1.69306
216.753	-1.94112
218.566	-1.32881
220.377	-0.847526
222.188	-0.544996
223.999	2.2484
225.809	4.20954
227.618	5.55859
229.43	8.09541
231.239	10.6342
233.047	12.8655
234.855	14.8019
236.663	15.5358
238.471	17.163
240.278	18.7108
242.087	18.7972
243.894	20.1769
245.7	20.1717
247.506	21.8436
249.311	23.7683
251.116	25.9965
252.921	26.6563
254.725	26.6643
256.529	27.197
258.333	28.7474
260.136	28.3721
261.939	28.343
263.744	27.4826
265.546	28.0093
267.348	28.1401
269.15	28.3306
270.951	28.1107
272.752	27.3717
274.552	26.9177
276.353	25.3358
278.152	25.3763
279.952	25.247
281.751	23.256
283.55	21.3586
285.348	19.3918
287.146	17.7503
288.942	15.2578
290.739	13.0709
292.536	12.4387
294.333	9.88863
296.129	9.10479
297.925	9.2786
299.721	8.13171
301.516	7.91354
303.311	8.69669
305.106	9.66796
306.9	10.7534
308.694	10.5816
310.486	10.4728
312.279	10.9031
314.072	11.4387
315.864	10.451
317.656	10.5241
319.448	10.5484
321.24	11.1987
323.029	10.6273
324.819	10.3034
326.61	9.84005
328.4	10.4257
330.19	10.3661
331.977	9.84805
333.766	9.94305
335.555	9.42046
337.343	9.86841
339.131	9.85685
340.917	9.53648
342.704	7.77156
344.491	7.7126
346.277	7.66079
348.062	7.75547
349.848	6.8286
351.633	7.09503
353.416	7.24438
355.201	7.62106
356.986	7.3979
358.77	7.19203
360.552	7.24393
362.335	7.95546
364.118	8.42734
365.899	8.81738
367.682	9.48504
369.464	10.6867
371.243	11.5736
373.025	13.7437
374.806	15.6132
376.585	17.0629
378.365	18.5158
380.143	20.6426
381.923	22.827
383.702	24.4266
385.479	27.1015
387.258	29.6565
389.034	32.0298
390.812	34.2109
392.59	35.9661
394.365	36.5629
396.142	37.4627
397.916	37.792
399.693	38.5627
401.467	38.6115
403.242	39.7353
405.015	40.1131
406.79	40.7777
408.565	40.996
410.337	42.875
412.111	42.157
413.882	41.9002
415.656	41.185
417.426	40.6077
419.197	40.0267
420.969	38.5274
422.739	37.5667
424.51	36.633
426.279	35.3279
428.05	34.5782
429.819	32.64
431.589	30.6869
433.356	28.2534
435.124	26.0969
436.893	22.7749
438.66	20.6712
440.428	18.1535
442.194	17.2923
443.96	15.8037
445.727	14.9037
447.492	14.3118
449.259	13.5755
451.023	13.4155
452.787	13.2437
454.553	13.5588
456.316	13.8308
458.079	13.9598
459.844	14.1331
461.606	15.5404
463.368	16.6146
465.132	16.5132
466.893	16.919
468.654	17.884
470.415	18.6304
472.177	20.6831
473.937	21.1201
475.696	22.2898
477.456	22.8228
479.217	23.0256
480.975	23.7049
482.733	23.6154
484.491	25.6671
486.251	25.6734
488.008	25.7777
489.765	26.7574
491.522	28.4235
493.278	29.0308
495.036	30.4681
496.791	31.0399
498.546	31.3017
500.301	31.2428
502.056	31.7339
503.81	32.4953
505.566	32.7567
507.319	31.7085
509.073	30.6382
510.825	30.8188
512.578	29.9312
514.33	29.3779
516.082	28.9873
517.833	28.5555
519.587	28.2451
521.337	27.4438
523.088	27.4756
524.838	26.1273
526.588	26.2116
528.337	26.8576
530.087	27.2456
531.835	26.5825
533.584	27.2888
535.332	26.5971
537.08	26.3949
538.827	26.4479
540.574	25.6075
542.321	25.8686
544.068	25.1661
545.814	25.3967
547.56	25.5285
549.305	26.0727
551.05	24.9185
552.795	23.8254
554.54	23.2949
556.284	23.0199
558.027	22.2603
559.771	22.578
561.514	21.2801
563.257	21.3994
564.999	20.7433
566.742	19.6756
568.481	19.2553
570.223	17.1907
571.964	16.3155
573.705	14.8392
575.445	15.1075
577.185	15.0142
578.925	13.8842
580.665	13.5469
582.402	12.1763
584.141	11.0574
585.879	9.83572
587.617	8.87892
589.355	7.23509
591.092	6.56527
592.828	5.20746
594.564	4.62995
596.301	5.25501
598.037	5.31078
599.773	4.63671
601.506	4.46405
603.242	4.18688
604.976	4.51429
606.711	3.37842
608.443	2.37158
610.177	1.97573
611.91	3.07208
613.644	4.42848
615.374	5.55496
617.107	4.81899
618.839	5.00332
620.569	5.32833
622.3	4.92562
624.032	5.67893
625.761	6.4002
627.491	7.04987
629.221	9.52761
630.949	9.8974
632.679	11.3697
634.408	12.2173
636.135	13.9888
637.863	14.4285
639.592	14.7743
641.318	15.4951
643.045	17.3679
644.77	19.2349
646.497	20.9864
648.224	22.8624
649.948	23.986
651.674	23.7961
653.398	24.148
655.123	25.2347
656.846	25.0106
658.57	25.5625
660.293	27.505
662.017	28.8181
663.738	28.8524
665.462	29.1926
667.185	30.0628
668.905	29.134
670.628	28.7481
672.348	27.7922
674.067	28.015
675.789	28.1455
677.508	28.8608
679.228	27.4194
680.947	26.133
682.667	25.6332
684.385	25.106
686.104	24.5631
687.821	24.0776
689.538	23.435
691.256	23.2213
692.972	22.8202
694.69	23.1475
696.406	22.7488
698.121	22.9441
699.837	21.9963
701.552	21.7842
703.268	21.0362
704.982	22.0187
706.695	22.5725
708.41	22.7059
710.123	23.6971
711.836	24.3601
713.55	24.5893
715.262	25.3343
716.973	25.3274
718.685	26.133
720.398	27.6474
722.108	28.4746
723.818	29.5551
725.53	30.6208
727.24	32.9764
728.949	35.0965
730.658	36.1297
732.369	36.7982
734.077	38.1668
735.785	38.1904
737.493	38.8607
739.2	40.1304
740.909	40.8033
742.616	43.1506
744.322	45.4042
746.028	48.4183
747.734	50.5651
749.441	51.6238
751.146	52.6454
752.851	54.3406
754.555	55.4543
756.26	57.4819
757.963	58.6476
759.667	60.3534
761.372	61.9776
763.075	62.4771
764.777	62.3694
766.479	62.6526
768.181	65.7006
769.883	66.3559
771.584	67.1562
773.285	69.3183
774.986	70.3653
776.686	71.8322
778.386	74.2903
780.085	75.0741
781.785	74.396
783.484	76.7747
785.182	76.9305
786.881	77.2219
788.579	76.9119
790.276	76.659
791.974	75.3371
793.671	76.3933
795.367	77.7301
797.064	77.6905
798.76	76.6889
800.456	76.9738
802.151	77.4767
803.846	78.4265
805.541	78.4216
807.236	77.3379
808.93	77.0043
810.624	75.8511
812.317	75.4874
814.01	74.1244
815.703	73.0416
817.394	72.4083
819.086	72.7713
820.778	72.7659
822.47	71.7195
824.161	71.6909
825.852	73.2234
827.543	74.6581
829.231	74.8238
830.921	75.5985
832.611	74.6992
834.3	73.0043
835.989	71.9061
837.676	72.5633
839.364	71.9236
841.053	70.8003
842.74	69.4713
844.426	68.6023
846.113	67.7589
847.8	65.816
849.486	66.0667
851.171	65.1119
852.857	65.5322
854.542	63.711
856.227	63.5852
857.911	63.5111
859.595	61.2239
861.279	60.0639
862.961	58.9827
864.645	56.9304
866.329	55.6424
868.01	54.8114
869.692	53.401
871.375	52.3139
873.055	52.0937
874.737	51.5282
876.418	51.4775
878.097	51.7426
879.778	50.1139
881.457	48.5804
883.137	46.9539
884.817	47.6639
886.495	47.5608
888.174	46.4247
889.851	44.5723
891.53	43.2872
893.206	42.2513
894.884	41.7383
896.562	40.5964
898.237	39.3119
899.914	38.9893
901.589	38.9532
903.265	39.733
904.94	39.8193
906.615	39.1045
908.289	39.9129
909.964	40.2475
911.637	39.9428
913.31	40.1484
914.984	38.9081
916.656	37.857
918.33	38.1135
920.001	38.5839
921.674	39.2785
923.345	38.1553
925.015	37.5098
926.687	38.3861
928.357	37.4564
930.028	38.5
931.698	37.7928
933.366	38.0342
935.037	37.1713
936.705	37.6675
938.373	37.6221
940.043	37.4056
941.71	36.446
943.379	35.6059
945.046	35.8739
946.712	36.2732
948.378	35.8737
950.046	36.1455
951.711	34.9428
953.376	35.6837
955.043	35.5857
956.708	35.1892
958.372	33.8846
960.036	33.4741
961.701	32.5488
963.364	31.891
965.027	31.8821
966.69	32.2841
968.354	32.1784
970.016	31.3598
971.678	31.3835
973.339	31.9012
975	31.9311
976.661	32.2234
978.324	32.9223
979.984	32.3499
981.644	33.5771
983.303	34.6066
984.962	36.1067
986.621	37.4173
988.282	37.3422
989.94	36.2411
991.598	36.7245
993.256	36.7605
994.913	37.3632
996.57	37.858
998.227	37.6514
999.884	38.9868
1001.54	39.3597
1003.2	39.5835
1004.85	39.9388
1006.51	39.0207
1008.16	39.4175
1009.82	39.989
1011.47	40.6927
1013.12	42.4128
1014.78	41.9137
1016.43	42.7822
1018.08	42.5747
1019.74	42.6123
1021.39	42.6062
1023.04	42.6305
1024.69	43.18
1026.34	44.839
1028	45.9016
1029.65	46.3692
1031.3	46.6417
1032.95	47.918
1034.6	47.4972
1036.25	48.6245
1037.9	48.0659
1039.55	46.7611
1041.19	47.6037
1042.84	46.9373
1044.49	46.0649
1046.14	44.959
1047.79	44.6357
1049.43	43.9422
1051.08	42.2577
1052.73	41.247
1054.37	40.8999
1056.02	40.3421
1057.66	38.5372
1059.31	37.646
1060.95	36.7408
1062.6	35.5891
1064.24	35.3134
1065.88	33.8083
1067.53	32.0726
1069.17	29.8828
1070.81	28.6276
1072.46	26.4601
1074.1	26.8326
1075.74	26.4567
1077.38	26.6877
1079.02	26.1024
1080.66	24.3091
1082.3	22.5324
1083.94	21.6175
1085.58	20.8672
1087.22	20.3444
1088.86	19.4271
1090.5	19.9104
1092.14	19.5177
1093.78	19.6736
1095.42	20.2229
1097.05	21.5014
1098.69	23.5841
1100.33	23.2588
1101.97	24.8992
1103.6	25.5785
1105.24	26.0316
1106.87	26.3873
1108.51	27.5669
1110.15	28.1924
1111.78	28.138
1113.41	28.2657
1115.05	29.0375
1116.68	28.3726
1118.31	27.6504
1119.95	26.6742
1121.58	26.9245
1123.21	26.1658
1124.85	24.1557
1126.48	22.9448
1128.11	21.0566
1129.74	19.5027
1131.37	18.7214
1133	18.0423
1134.63	17.2889
1136.26	17.5019
1137.89	17.8852
1139.52	16.2032
1141.15	16.0317
1142.78	15.0881
1144.41	14.0532
1146.04	13.5443
1147.66	12.2416
1149.29	13.0105
1150.92	13.7037
1152.55	13.1131
1154.17	11.3011
1155.8	11.6683
1157.43	10.3513
1159.05	9.19058
1160.68	6.67712
1162.3	5.79827
1163.93	4.96637
1165.55	5.35825
1167.17	3.95955
1168.8	3.67164
1170.42	4.10625
1172.05	3.83058
1173.67	4.88184
1175.29	6.93953
1176.91	7.91276
1178.54	8.28693
1180.16	8.09824
1181.78	7.07895
1183.4	8.00897
1185.02	7.36641
1186.64	7.06361
1188.26	7.98867
1189.88	8.99027
1191.5	9.87729
1193.12	10.1604
1194.74	10.2257
1196.36	11.3094
1197.97	11.3848
1199.59	11.4863
1201.21	12.8519
1202.83	13.3282
1204.44	13.1766
1206.06	13.4814
1207.68	14.4898
1209.29	15.3701
1210.91	17.2101
1212.52	19.2534
1214.14	20.5131
1215.75	21.6946
1217.37	23.5047
1218.98	24.1207
1220.6	24.9036
1222.21	26.1085
1223.82	28.1012
1225.44	30.67
1227.05	32.5
1228.66	33.9242
1230.27	33.9465
1231.88	34.7586
1233.49	34.2782
1235.1	35.5083
1236.72	36.6341
1238.33	36.9867
1239.94	37.5212
1241.55	38.455
1243.16	39.7705
1244.76	39.5561
1246.37	40.3458
1247.98	41.2722
1249.59	42.3386
1251.2	42.9474
1252.8	43.0174
1254.41	43.6237
1256.02	43.4572
1257.63	43.0698
1259.23	42.999
1260.84	42.762
1262.44	41.8803
1264.05	41.1781
1265.66	40.3872
1267.26	40.6019
1268.87	41.8903
1270.47	41.4725
1272.07	42.494
1273.68	42.0061
1275.28	42.386
1276.88	43.3256
1278.48	43.6741
1280.09	43.7189
1281.69	44.5013
1283.29	45.049
1284.89	45.0377
1286.49	46.5261
1288.09	47.3872
1289.69	47.8267
1291.3	48.7598
1292.9	49.5451
1294.49	50.5669
1296.09	50.4168
1297.69	51.3143
1299.29	52.6972
1300.89	54.1604
1302.49	54.3348
1304.09	56.7329
1305.68	57.6408
1307.28	57.2336
1308.88	57.2393
1310.47	58.4749
1312.07	60.3888
1313.66	61.4198
1315.26	62.6211
1316.86	62.9217
1318.45	63.2085
1320.05	63.8187
1321.64	64.3085
1323.23	63.926
1324.83	63.9884
1326.42	64.889
1328.01	64.6745
1329.61	64.3665
1331.2	63.9806
1332.79	62.9289
1334.38	61.659
1335.98	61.827
1337.57	60.6849
1339.16	60.6327
1340.75	60.0735
1342.34	59.9102
1343.93	60.4897
1345.52	59.7901
1347.11	59.9472
1348.7	60.1276
1350.29	59.497
1351.87	59.312
1353.46	59.5119
1355.05	59.7233
1356.64	59.2777
1358.23	58.7013
1359.81	57.9694
1361.4	57.1153
1362.99	57.2435
1364.57	56.264
1366.16	57.5449
1367.74	55.9006
1369.33	55.3993
1370.91	54.3122
1372.5	54.227
1374.08	53.102
1375.67	52.9227
1377.25	53.5484
1378.83	53.547
1380.42	52.1996
1382	51.1904
1383.58	50.9473
1385.16	48.7754
1386.75	48.1896
1388.33	47.9534
1389.91	48.0494
1391.49	46.6517
1393.07	46.4803
1394.65	45.4634
1396.23	43.8792
1397.81	43.2532
1399.39	42.8318
1400.97	41.982
1402.55	41.3876
1404.13	41.3052
1405.7	41.2637
1407.28	39.7996
1408.86	40.0941
1410.44	40.3032
1412.01	41.099
1413.59	42.1185
1415.17	44.3844
1416.74	45.2165
1418.32	46.7462
1419.89	47.8702
1421.47	51.4071
1423.05	53.6646
1424.62	56.3225
1426.19	59.7976
1427.77	63.6804
1429.34	67.0993
1430.92	69.7531
1432.49	72.9298
1434.06	75.2955
1435.63	76.3797
1437.2	78.4305
1438.78	82.0056
1440.35	83.8015
1441.92	86.3046
1443.49	88.1098
1445.06	90.0078
1446.63	90.411
1448.2	91.7415
1449.77	92.3987
1451.34	93.4305
1452.91	92.9886
1454.48	94.4025
1456.05	92.9934
1457.62	93.0176
1459.18	91.9692
1460.75	91.2623
1462.32	90.7614
1463.89	90.1842
1465.45	90.7476
1467.02	90.9435
1468.59	90.6805
1470.15	90.0975
1471.72	88.6073
1473.28	87.5983
1474.85	86.146
1476.41	85.5394
1477.98	83.5738
1479.54	81.6411
1481.11	80.5198
1482.67	79.6355
1484.23	77.5972
1485.8	74.5387
1487.36	73.0674
1488.92	70.9852
1490.48	68.6159
1492.05	66.2411
1493.61	64.9613
1495.17	62.3412
1496.73	61.141
1498.29	60.3551
1499.85	59.3762
1501.41	57.4461
1502.97	55.3806
1504.53	51.1279
1506.09	48.6029
1507.65	45.3249
1509.2	41.3352
1510.76	38.8103
1512.32	36.3114
1513.88	32.668
1515.44	31.7608
1516.99	29.9653
1518.55	25.685
1520.1	23.8228
1521.66	22.0635
1523.22	19.0277
1524.77	16.4492
1526.33	14.3133
1527.88	13.0706
1529.44	11.6748
1530.99	11.4332
1532.55	11.4266
1534.1	10.0078
1535.65	11.3811
1537.21	10.952
1538.76	11.7814
1540.31	12.5154
1541.86	13.2776
1543.42	14.568
1544.97	16.2593
1546.52	16.424
1548.07	17.1557
1549.62	17.4851
1551.17	19.2713
1552.72	20.5164
1554.27	20.6222
1555.82	21.7579
1557.37	21.7281
1558.92	22.8889
1560.47	22.8879
1562.02	22.7438
1563.57	22.8348
1565.11	24.5908
1566.66	25.1276
1568.21	25.532
1569.75	26.9846
1571.3	28.5434
1572.85	29.0774
1574.39	30.2495
1575.94	31.8276
1577.49	32.72
1579.03	33.7626
1580.58	34.4633
1582.12	34.6723
1583.67	36.7529
1585.21	37.8723
1586.75	38.9328
1588.3	41.3546
1589.84	41.1854
1591.38	42.1744
1592.93	43.5112
1594.47	43.2428
1596.01	43.5391
1597.55	43.581
1599.09	43.9283
1600.63	43.7706
1602.18	44.0902
1603.72	44.8767
1605.26	45.1984
1606.8	44.8544
1608.34	46.0769
1609.87	46.1613
1611.41	45.4307
1612.95	45.8909
1614.49	45.7877
1616.03	44.8745
1617.57	44.8784
1619.11	44.6858
1620.64	44.9198
1622.18	45.3757
1623.72	44.9869
1625.25	44.6001
1626.79	44.5636
1628.32	45.6012
1629.86	44.8496
1631.4	45.0512
1632.93	47.1211
1634.47	47.1182
1636	48.2201
1637.53	48.7791
1639.07	50.0085
1640.6	51.4444
1642.14	53.2342
1643.67	55.1555
1645.2	56.9861
1646.73	58.2418
1648.27	59.1673
1649.8	60.0738
1651.33	61.2457
1652.86	62.5445
1654.39	61.9797
1655.92	62.8071
1657.45	63.7854
1658.98	63.18
1660.51	62.9205
1662.04	62.7497
1663.57	62.3454
1665.1	61.4448
1666.63	59.2296
1668.16	59.4048
1669.69	58.3983
1671.21	56.4398
1672.74	55.2635
1674.27	53.0468
1675.79	51.3077
1677.32	49.2714
1678.85	47.1972
1680.37	45.1488
1681.9	43.103
1683.42	41.1273
1684.95	39.1026
1686.47	35.4845
1688	32.1244
1689.52	30.2164
1691.05	27.5956
1692.57	24.4429
1694.1	23.2778
1695.62	20.6766
1697.14	18.8703
1698.66	18.0289
1700.19	16.7955
1701.71	15.364
1703.23	15.2959
1704.75	15.3458
1706.27	14.3812
1707.79	14.7951
1709.32	14.3435
1710.83	12.9129
1712.35	12.3392
1713.88	13.2564
1715.39	12.4342
1716.91	12.5502
1718.43	11.8849
1719.95	11.5822
1721.47	10.6867
1722.99	10.6456
1724.5	11.0692
1726.02	10.8311
1727.54	10.8
1729.06	10.8261
1730.57	10.5502
1732.09	11.5003
1733.61	11.3948
1735.12	11.0141
1736.64	11.1634
1738.15	10.8909
1739.67	11.2089
1741.18	10.5664
1742.7	10.5736
1744.21	10.5481
1745.72	10.1979
1747.24	9.16428
1748.75	8.74382
1750.26	7.56463
1751.78	6.63091
1753.29	6.68505
1754.8	6.3744
1756.31	5.32433
1757.82	4.79694
1759.34	3.97718
1760.85	3.51902
1762.36	2.40344
1763.87	2.9964
1765.38	3.02533
1766.89	2.72813
1768.4	2.72863
1769.91	2.51313
1771.41	1.95388
1772.92	2.24115
1774.43	2.2212
1775.94	1.8384
1777.45	1.29856
1778.96	2.35805
1780.46	2.47884
1781.97	1.38593
1783.48	1.49259
1784.98	1.69081
1786.49	2.04102
1788	2.45429
1789.5	2.3974
1791.01	2.47406
1792.51	3.31335
1794.01	3.53514
1795.52	4.07709
1797.02	4.78059
1798.53	5.26401
1800.03	4.41068
1801.54	4.34841
1803.04	4.87275
1804.54	5.02188
1806.04	5.08681
1807.54	5.56949
1809.05	6.00767
1810.55	6.17921
1812.05	5.07795
1813.55	4.32473
1815.05	4.12527
1816.55	3.4415
1818.05	3.27984
1819.55	2.76286
1821.05	2.87977
1822.55	3.24379
1824.05	2.57154
1825.55	1.73365
1827.05	1.59724
1828.55	1.68859
1830.04	2.27607
1831.54	1.80249
1833.04	2.31048
1834.54	2.49879
1836.03	2.64699
1837.53	2.39236
1839.03	3.15863
1840.52	3.30432
1842.02	3.27976
1843.51	3.46938
1845.01	3.06585
1846.5	2.88815
1848	3.44995
1849.49	4.29057
1850.99	4.86846
1852.48	4.44778
1853.97	4.60944
1855.47	4.06436
1856.96	4.35888
1858.45	5.34095
1859.94	4.70641
1861.44	4.70796
1862.93	5.41586
1864.42	4.76703
1865.91	4.71686
1867.4	3.46083
1868.89	3.25687
1870.38	3.38788
1871.87	4.09117
1873.36	4.76945
1874.85	4.38811
1876.34	5.34247
1877.83	6.22538
1879.32	5.62975
1880.81	5.87537
1882.3	6.6223
1882.56	6.75708
1884.06	5.76321
1885.55	5.14694
1887.04	5.08466
1888.54	5.2325
1890.03	5.28939
1891.52	5.02799
1893.02	5.31569
1894.51	5.75118
1896	5.61703
1897.49	4.93562
1898.99	4.85106
1900.48	5.49417
1901.97	6.54069
1903.46	7.32651
1904.95	7.14973
1906.44	7.03451
1907.93	7.32893
1909.42	7.20501
1910.91	7.27441
1912.4	8.52186
1913.89	8.77216
1915.38	9.15396
1916.86	10.1118
1918.35	9.35369
1919.84	9.53078
1921.33	9.7767
1922.82	10.1146
1924.3	8.9686
1925.79	8.19865
1927.28	8.82703
1928.76	9.17167
1930.25	9.08461
1931.74	8.09461
1933.22	7.11553
1934.71	7.92483
1936.19	7.63471
1937.67	6.57283
1939.16	6.70716
1940.64	7.63631
1942.13	9.03367
1943.61	10.2694
1945.09	11.1289
1946.58	11.3707
1948.06	11.3532
1949.54	12.2513
1951.03	12.1956
1952.51	11.4477
1953.99	12.2015
1955.47	11.7831
1956.95	10.9404
1958.43	9.82106
1959.91	10.261
1961.39	10.0675
1962.87	9.56871
1964.35	9.50232
1965.83	9.0774
1967.31	8.46367
1968.79	7.99957
1970.27	7.10209
1971.75	6.83669
1973.22	7.22321
1974.7	6.92369
1976.18	6.87068
1977.66	6.40289
1979.13	6.26687
1980.61	6.15101
1982.09	6.35264
1983.56	6.68602
1985.04	8.07478
1986.52	8.94941
1987.99	8.83733
1989.47	8.46054
1990.94	8.27253
1992.41	7.44016
1993.89	8.00986
1995.36	7.44584
1996.84	7.24925
1998.31	6.99387
1999.78	7.42986
2001.26	7.54144
2002.73	6.98361
2004.2	6.60341
2005.67	7.05669
2007.15	7.23685
2008.62	7.82456
2010.09	7.55278
2011.56	8.59906
2013.03	10.0049
2014.5	10.2917
2015.97	9.66946
2017.44	9.47535
2018.91	8.79577
2020.38	8.33621
2021.85	8.49032
2023.32	8.19761
2024.79	7.60949
2026.25	7.83431
2027.72	8.49452
2029.19	8.34799
2030.66	8.07017
2032.13	8.54967
2033.59	8.4952
2035.06	8.05475
2036.53	8.0541
2037.99	8.89777
2039.46	8.39686
2040.92	8.81892
2042.39	9.68833
2043.85	10.3849
2045.32	11.4885
2046.78	11.511
2048.25	10.9947
2049.71	12.4217
2051.18	12.9484
2052.64	13.522
2054.1	13.8116
2055.56	14.0758
2057.03	14.8539
2058.49	14.9076
2059.95	13.9737
2061.42	13.6206
2062.88	12.3661
2064.34	12.8661
2065.8	13.2272
2067.26	12.7554
2068.72	12.7453
2070.18	13.1792
2071.64	14.0067
2073.1	14.218
2074.56	14.3597
2076.02	14.0875
2077.48	14.3511
2078.94	14.3622
2080.39	13.2809
2081.85	13.5354
2083.31	13.6283
2084.77	14.1372
2086.22	13.2871
2087.68	12.6639
2089.14	11.923
2090.6	11.7195
2092.05	11.4975
2093.51	11.5531
2094.96	12.4262
2096.42	12.3358
2097.87	12.745
2099.33	13.0726
2100.78	13.4184
2102.24	13.4767
2103.69	13.5221
2105.15	13.9298
2106.6	14.2548
2108.05	15.8989
2109.51	16.626
2110.96	16.7877
2112.41	16.7929
2113.86	17.1817
2115.32	18.1345
2116.77	18.3076
2118.22	18.6403
2119.67	18.8084
2121.12	19.8031
2122.57	20.9134
2124.02	20.3446
2125.47	20.681
2126.92	21.4325
2128.37	21.957
2129.82	21.927
2131.27	22.2164
2132.72	22.8967
2134.17	23.9375
2135.62	24.7208
2137.06	26.9326
2138.51	27.7932
2139.96	27.3194
2141.41	28.1873
2142.85	29.2256
2144.3	30.0521
2145.75	30.7632
2147.19	31.1996
2148.64	31.0334
2150.09	32.0832
2151.53	31.8304
2152.97	31.9305
2154.42	33.3061
2155.86	33.8186
2157.31	34.3843
2158.75	34.9339
2160.2	35.777
2161.64	35.5129
2163.08	37.2565
2164.53	37.4731
2165.97	37.9637
2167.41	38.6146
2168.86	38.6401
2170.3	38.837
2171.74	39.7183
2173.18	39.5424
2174.62	39.9111
2176.06	39.9909
2177.5	40.36
2178.94	41.2813
2180.38	41.258
2181.82	40.0651
2183.26	39.7422
2184.7	39.9561
2186.14	39.3701
2187.58	39.1594
2189.02	37.7752
2190.46	37.4936
2191.89	37.1127
2193.33	36.6361
2194.77	35.6406
2196.21	34.5491
2197.64	34.5104
2199.08	33.7744
2200.52	32.5508
2201.95	31.3521
2203.39	32.5201
2204.83	32.7709
2206.26	32.3656
2207.7	31.2222
2209.13	29.9702
2210.57	28.3901
2212	27.5163
2213.43	27.2024
2214.87	26.2726
2216.3	25.473
2217.73	25.0179
2219.17	24.2555
2220.6	22.9747
2222.03	22.6263
2223.47	22.516
2224.9	22.899
2226.33	23.1241
2227.76	22.7177
2229.19	23.0609
2230.62	22.7884
2232.05	22.8606
2233.49	21.8788
2234.91	21.636
2236.34	20.5407
2237.77	20.376
2239.2	19.7713
2240.63	19.8955
2242.06	20.3828
2243.49	20.6181
2244.92	19.3427
2246.35	20.043
2247.78	19.6812
2249.2	19.8336
2250.63	19.1231
2252.06	18.3881
2253.48	17.1768
2254.91	16.5083
2256.34	15.8608
2257.76	15.4323
2259.19	14.8394
2260.61	14.2363
2262.04	14.3813
2263.46	13.7199
2264.89	12.4179
2266.31	12.0157
2267.74	12.015
2269.16	11.6372
2270.59	10.8889
2272.01	10.9379
2273.43	11.017
2274.85	11.3288
2276.28	10.0638
2277.7	8.85118
2279.12	7.38032
2280.54	6.22576
2281.97	6.21262
2283.39	6.84159
2284.81	6.0389
2286.23	5.70795
2287.65	5.81133
2289.07	5.18982
2290.49	4.83124
2291.91	3.8732
2293.33	4.45075
2294.75	3.96439
2296.17	3.25982
2297.59	3.32902
2299.01	4.11022
2300.42	4.73018
2301.84	3.98016
2303.26	4.94176
2304.68	5.17578
2306.1	6.2256
2307.51	7.69599
2308.93	8.52056
2310.35	8.87374
2311.76	10.1331
2313.18	10.5356
2314.59	9.57335
2316.01	9.67509
2317.43	9.79955
2318.84	8.88001
2320.26	9.04329
2321.67	9.07451
2323.08	9.08598
2324.5	9.47168
2325.91	8.96759
2327.33	9.80108
2328.74	10.6153
2330.15	10.8169
2331.56	10.1839
2332.98	10.1774
2334.39	9.95359
2335.8	9.42516
2337.21	9.83175
2338.62	8.82559
2340.04	8.57379
2341.45	8.29181
2342.86	7.66903
2344.27	6.728
2345.68	5.48139
2347.09	4.4281
2348.5	4.23628
2349.91	3.90617
2351.31	4.01478
2352.72	4.74171
2354.13	4.72834
2355.54	3.11635
2356.95	2.9679
2358.36	2.28087
2359.76	2.09821
2361.17	2.01711
2362.58	1.82028
2363.98	2.49844
2365.39	2.41695
2366.8	3.41834
2368.21	4.32554
2369.61	5.06195
2371.02	4.64542
2372.42	5.18113
2373.83	6.74361
2375.23	6.72613
2376.64	6.62091
2378.04	6.84159
2379.44	6.00805
2380.85	5.88405
2382.25	5.83808
2383.66	5.14492
2385.06	5.45699
2386.46	5.89309
2387.86	5.58677
2389.26	6.33902
2390.67	6.93716
2392.07	6.94441
2393.47	6.81697
2394.87	7.24739
2396.27	7.06422
2397.67	7.48492
2399.07	7.691
2400.47	7.44534
2401.87	6.70298
2403.27	6.84691
2404.67	5.83865
2406.07	4.89363
2407.47	5.03975
2408.87	3.84599
2410.27	4.11815
2411.67	3.34348
2413.07	2.03021
2414.46	1.73115
2415.86	1.63168
2417.26	1.9892
2418.66	1.87294
2420.05	1.63468
2421.45	1.8737
2422.84	1.62833
2424.24	1.67524
2425.64	1.24735
2427.03	1.5168
2428.43	1.42071
2429.82	1.88311
2431.22	2.29352
2432.61	2.62295
2434.01	3.44701
2435.4	3.28923
2436.79	3.45474
2438.19	3.19068
2439.58	3.09127
2440.97	3.01051
2442.37	3.27699
2443.76	3.13287
2445.15	3.34091
2446.54	3.60191
2447.93	3.82058
2449.33	3.74375
2450.72	3.79707
2452.11	3.73456
2453.5	4.28154
2454.89	4.45358
2456.28	4.59252
2457.67	3.99015
2459.06	4.20552
2460.45	3.5287
2461.84	3.84068
2463.23	4.24113
2464.62	4.59202
2466	5.50436
2467.39	5.61797
2468.78	6.12391
2470.17	6.00847
2471.55	5.13882
2472.94	4.45145
2474.33	4.18139
2475.72	4.95382
2477.1	4.74053
2478.49	3.49872
2479.87	3.68098
2481.26	3.11394
2482.65	2.58905
2484.03	3.14714
2485.42	2.26204
2486.8	1.81319
2488.19	1.18992
2489.57	1.50902
2490.95	1.66649
2492.34	1.67826
2493.72	1.5311
2495.1	1.17185
2496.49	1.61291
2497.87	2.26569
2499.25	2.43262
2500.63	2.16653
2502.02	1.74758
2503.4	1.80648
2504.78	1.0429
2506.16	0.449002
2507.54	0.631481
2508.92	0.0317086
2510.3	0.476742
2511.68	0.124196
2513.06	0.177754
2514.44	0.176131
2515.82	-0.67701
2517.2	-1.28394
2518.58	-0.9707
2519.96	-1.18264
2521.34	-1.15792
2522.72	-0.586159
2524.1	-0.658589
2525.47	-0.0874903
2526.85	0.192558
2528.23	1.12211
2529.6	1.45188
2530.98	2.29308
2532.36	3.27075
2533.74	3.98555
2535.11	4.26919
2536.49	4.86662
2537.86	5.60016
2539.24	6.89909
2540.61	6.50343
2541.99	6.63128
2543.36	6.77967
2544.74	6.7388
2546.11	6.00013
2547.49	5.8467
2548.86	6.5719
2550.23	6.66504
2551.61	7.28554
2552.98	7.64313
2554.35	7.09295
2555.72	7.65981
2557.09	7.39795
2558.47	7.75279
2559.84	8.52179
2561.21	8.08559
2562.58	7.68818
2563.95	8.47409
2565.32	8.37972
2566.69	8.22534
2568.06	6.99875
2569.43	6.48839
2570.8	6.96557
2572.17	6.45315
2573.54	5.40574
2574.91	5.06107
2576.28	4.74075
2577.65	3.73206
2579.02	4.36964
2580.39	3.44045
2581.75	2.65916
2583.12	2.177
2584.49	1.99633
2585.85	1.881
2587.22	1.75142
2588.59	1.80715
2589.95	1.94045
2591.32	1.93679
2592.68	1.29153
2594.05	1.68955
2595.42	1.94166
2596.78	1.86762
2598.15	1.65617
2599.51	1.50448
2600.88	2.06695
2602.24	2.52656
2603.6	2.35113
2604.97	2.55665
2606.33	1.31147
2607.69	0.534107
2609.06	-0.44901
2610.42	0.438416
2611.78	0.815644
2613.14	1.33721
2614.51	1.79778
2615.87	2.51159
2617.23	3.09182
2618.59	3.87833
2619.95	4.06569
2621.31	3.9186
2622.67	3.56691
2624.03	3.51832
2625.39	3.7864
2626.75	3.80486
2628.11	4.38089
2629.47	4.13113
2630.83	5.61567
2632.19	6.79506
2633.55	6.34529
2634.91	7.28939
2636.26	7.59625
2637.62	8.90671
2638.98	9.54583
2640.34	9.31432
2641.69	10.6031
2643.05	11.4665
2644.41	11.32
2645.76	12.6745
2647.12	13.5294
2648.48	13.5666
2649.83	13.8039
2651.19	14.244
2652.54	14.6105
2653.9	14.2567
2655.25	14.0098
2656.6	14.2302
2657.96	13.7983
2659.31	13.9219
2660.67	14.516
2662.02	14.4507
2663.37	14.4122
2664.73	14.408
2666.08	13.1919
2667.43	12.894
2668.78	12.455
2670.14	12.0389
2671.49	11.148
2672.84	11.3553
2674.19	11.3507
2675.54	11.4969
2676.89	12.0615
2678.24	11.8153
2679.59	11.6394
2680.94	11.2204
2682.29	10.2875
2683.64	9.64848
2684.99	9.04976
2686.34	8.86605
2687.69	7.79342
2689.04	7.88912
2690.39	7.37012
2691.74	7.0535
2693.08	6.7718
2694.43	6.41753
2695.78	6.7664
2697.13	7.07688
2698.47	7.52676
2699.82	7.60444
2701.17	7.95662
2702.51	9.12416
2703.86	9.5035
2705.21	10.1527
2706.55	10.7718
2707.9	11.5172
2709.24	13.0103
2710.58	12.7095
2711.93	13.4411
2713.27	14.5974
2714.62	15.0889
2715.96	15.0503
2717.3	15.4597
2718.65	15.2611
2719.99	16.5551
2721.33	16.5515
2722.68	17.329
2724.02	17.5544
2725.36	17.4473
2726.71	17.3173
2728.05	17.8992
2729.39	17.928
2730.73	17.4845
2732.07	17.361
2733.41	17.2136
2734.75	17.6508
2736.09	17.9752
2737.43	17.7411
2738.77	17.3258
2740.11	16.9306
2741.45	15.8731
2742.79	15.2217
2744.13	15.2511
2745.47	14.9776
2746.81	14.8461
2748.14	14.4694
2749.48	14.197
2750.82	14.1077
2752.16	13.5897
2753.49	13.1324
2754.83	12.7678
2756.17	12.306
2757.5	11.307
2758.84	10.7821
2760.18	9.75101
2761.51	9.40584
2762.85	9.05804
2764.18	8.75419
2765.52	8.36076
2766.85	7.94371
2768.19	8.27579
2769.52	8.19827
2770.86	8.24485
2772.19	7.26126
2773.52	7.15217
2774.86	7.17146
2776.19	7.28146
2777.52	6.24658
2778.86	5.96292
2780.19	5.04751
2781.52	4.53944
2782.85	4.46942
2784.19	4.34433
2785.52	4.10195
2786.85	4.09896
2788.18	3.43906
2789.51	3.28842
2790.84	2.28184
2792.17	1.98358
2793.5	2.2914
2794.83	2.52749
2796.16	2.51687
2797.49	1.57009
2798.82	2.2607
2800.15	2.35967
2801.48	1.86303
2802.81	1.85029
2804.13	0.725903
2805.46	0.881066
2806.79	1.0919
2808.12	1.40576
2809.45	2.25708
2810.77	2.60399
2812.1	2.95204
2813.43	3.12143
2814.75	3.8834
2816.08	3.54042
2817.41	4.58022
2818.73	5.39572
2820.06	7.29441
2821.38	8.77495
2822.71	10.9785
2824.03	12.8205
2825.36	14.8445
2826.68	16.4368
2828	19.3676
2829.33	21.3882
2830.65	23.7409
2831.98	27.0593
2833.3	29.6859
2834.62	33.5725
2835.94	36.5964
2837.27	40.3691
2838.59	44.5016
2839.91	49.0051
2841.23	53.0439
2842.55	57.2321
2843.87	61.6461
2845.2	66.3428
2846.52	72.4071
2847.84	78.6694
2849.16	84.7988
2850.48	90.2386
2851.8	95.9153
2853.12	102.039
2854.44	108.729
2855.76	114.216
2857.08	119.683
2858.39	124.682
2859.71	130.181
2861.03	134.958
2862.35	139.777
2863.67	143.641
2864.98	148.94
2866.3	153.519
2867.62	157.091
2868.94	161.236
2870.25	164.321
2871.57	168.295
2872.88	172.022
2874.2	174.206
2875.52	176.606
2876.83	179.612
2878.15	182.325
2879.46	185.54
2880.78	188.582
2882.09	191.1
2883.41	193.112
2884.72	195.297
2886.03	197.921
2887.35	199.32
2888.66	200.329
2889.97	201.3
2891.29	202.825
2892.6	203.677
2893.91	205.244
2895.22	205.9
2896.54	207.376
2897.85	210.108
2899.16	212.535
2900.47	215.705
2901.78	218.319
2903.09	220.915
2904.4	224.356
2905.71	227.118
2907.02	231.046
2908.33	235.028
2909.64	239.459
2910.95	243.891
2912.26	249.779
2913.57	254.56
2914.88	259.676
2916.19	264.392
2917.5	269.42
2918.81	274.623
2920.11	278.975
2921.42	283.242
2922.73	287.116
2924.04	291.042
2925.34	294.434
2926.65	296.788
2927.96	299.983
2929.26	302.428
2930.57	303.447
2931.87	303.973
2933.18	304.555
2934.49	304.769
2935.79	303.192
2937.1	302.154
2938.4	301.038
2939.7	298.993
2941.01	296.209
2942.31	293.404
2943.62	289.87
2944.92	286.637
2946.22	281.859
2947.53	276.27
2948.83	270.013
2950.13	265.669
2951.43	259.783
2952.74	253.541
2954.04	248.048
2955.34	242.469
2956.64	236.064
2957.94	229.874
2959.24	223.91
2960.54	218.073
2961.84	212.354
2963.15	207.378
2964.45	201.276
2965.75	195.472
2967.05	190.103
2968.34	184.599
2969.64	179.873
2970.94	174.199
2972.24	169.144
2973.54	164.575
2974.84	160.296
2976.14	155.477
2977.43	151.451
2978.73	147.056
2980.03	142.742
2981.33	138.246
2982.62	134.096
2983.92	129.035
2985.22	124.025
2986.51	119.373
2987.81	113.831
2989.11	108.649
2990.4	102.943
2991.7	97.8868
2992.99	92.7494
2994.29	86.7543
2995.58	81.6994
2996.88	78.2726
2998.17	73.8857
2999.46	68.7078
3000.76	64.1167
3002.05	60.2009
3003.34	56.2936
3004.64	51.452
3005.93	46.7502
3007.22	44.1471
3008.52	41.1652
3009.81	37.8481
3011.1	33.5917
3012.39	30.8871
3013.68	28.2561
3014.97	26.7422
3016.27	24.3181
3017.56	21.8712
3018.85	20.3577
3020.14	17.8725
3021.43	16.8317
3022.72	15.2509
3024.01	13.3875
3025.3	11.8144
3026.59	10.0072
3027.88	9.79936
3029.16	8.44118
3030.45	7.34039
3031.74	6.36125
3033.03	5.59616
3034.32	4.56154
3035.6	4.11175
3036.89	3.8585
3038.18	3.88629
3039.47	3.44136
3040.75	2.709
3042.04	2.91345
3043.33	3.38859
3044.61	2.60297
3045.9	2.43708
3047.18	2.47313
3048.47	2.04551
3049.75	2.32137
3051.04	2.89109
3052.32	2.83038
3053.61	2.34627
3054.89	2.47392
3056.18	2.78749
3057.46	2.87759
3058.74	3.36728
3060.03	3.91172
3061.31	4.10918
3062.59	3.72888
3063.88	4.05552
3065.16	3.91835
3066.44	3.97545
3067.72	4.2415
3069	4.52183
3070.29	5.3096
3071.57	6.42169
3072.85	6.57108
3074.13	7.1233
3075.41	6.54334
3076.69	7.65791
3077.97	7.70181
3079.25	8.23347
3080.53	7.76708
3081.81	6.91742
3083.09	7.66197
3084.37	6.98822
3085.65	7.16809
3086.93	7.05949
3088.21	7.03879
3089.49	7.11194
3090.76	7.80095
3092.04	8.13788
3093.32	8.39224
3094.6	8.87866
3095.87	10.0419
3097.15	10.6737
3098.43	10.834
3099.7	11.8273
3100.98	12.1562
3102.26	12.3449
3103.53	13.1032
3104.81	13.2121
3106.08	13.9391
3107.36	14.7221
3108.63	14.2354
3109.91	15.4514
3111.18	15.4577
3112.46	15.6179
3113.73	16.4159
3115	16.876
3116.28	16.676
3117.55	17.0828
3118.83	18.047
3120.1	18.4744
3121.37	18.6268
3122.64	19.0229
3123.92	19.4276
3125.19	20.1888
3126.46	20.5099
3127.73	20.8704
3129	21.2323
3130.27	22.4186
3131.55	23.1351
3132.82	24.288
3134.09	25.2592
3135.36	25.6537
3136.63	25.5332
3137.9	25.7883
3139.17	25.9819
3140.44	27.2012
3141.71	27.7214
3142.98	28.3927
3144.24	29.3815
3145.51	30.7372
3146.78	31.3882
3148.05	33.0551
3149.32	33.3462
