#Acq. time (s)=	45
#Accumulations=	2
#Range (cm-¹)=	200...3150
#Windows=	2
#Auto scanning=	Off
#Autofocus=	Off
#Macrospot=	Off
#AutoExposure=	Off
#Spike filter=	Multiple accum.
#Delay time (s)=	0
#Binning=	1
#Readout mode=	Signal
#DeNoise=	Off
#ICS correction=	On
#Dark correction=	Off
#Inst. Process=	Off
#Detector Gain=	Best Dynamic Range
#Detector ADC=	20 kHz       
#Detector temperature (°C)=	-69.85
#Instrument=	LabRAM HR Evol
#Detector=	Synapse
#Objective=	x100
#Grating=	600 gr/mm
#ND Filter=	100%
#Laser (nm)=	532 
#Hole=	100.021
#Range=	Auto
#Laser Pol.=	No
#Raman. Pol.=	No
#Laser Pol. (°)=	-0.0007625
#Raman Pol. (°)=	89.9995
#Collection=	Microscope
#StageXY=	Marzhauser
#StageZ=	Marzhauser
#X (µm)=	-636.2
#Y (µm)=	-1590.1
#Z (µm)=	89
#Full time(mm:ss)=	3:19
#Project=	
#Sample=	
#Site=	
#Title=	Mb_10_14_14_2x_45s_532 nm_x100_100%_600 gr_mm
#Remark=	
#Date=	11.07.2022 09:33
#Acquired=	11.07.2022 09:33:02
#Base:Fit=	10.08.2022 10:21:11
#Base:Sub=	10.08.2022 10:21:41
#Filter:Polynom=	16.08.2022 10:17:53
#AxisType[0]=Intens
#AxisUnit[0]=Cnt
#AxisType[1]=Spectr
#AxisUnit[1]=1/cm
200.388	29.6198
202.204	25.9287
204.019	20.889
205.832	17.1042
207.646	13.9627
209.459	11.4426
211.274	9.62872
213.087	8.54319
214.899	8.71053
216.711	8.23119
218.524	8.29803
220.335	8.73783
222.146	9.56258
223.956	10.4647
225.766	10.2228
227.576	11.4262
229.388	13.2927
231.197	14.8249
233.005	15.1572
234.813	15.2306
236.621	14.4491
238.429	15.1522
240.236	15.6229
242.045	16.0714
243.852	17.0602
245.658	17.1368
247.464	17.8765
249.269	18.891
251.074	19.6749
252.879	20.2072
254.683	20.9894
256.487	21.6978
258.291	22.0691
260.094	20.7818
261.897	21.4715
263.702	20.2558
265.504	20.5784
267.306	19.6916
269.108	17.9283
270.909	17.2206
272.71	16.5725
274.511	15.5248
276.311	14.1307
278.111	12.7418
279.91	11.8048
281.709	10.5953
283.508	10.5598
285.306	9.68372
287.105	9.78762
288.9	9.30677
290.698	7.69507
292.495	6.43797
294.291	7.39275
296.088	7.48058
297.884	6.90274
299.679	7.10139
301.475	7.90624
303.27	8.84507
305.064	9.59655
306.858	9.93743
308.652	10.0541
310.444	8.8215
312.237	7.048
314.03	6.89124
315.822	8.16155
317.615	9.64982
319.406	9.84284
321.198	9.36939
322.987	9.24305
324.778	9.27745
326.568	9.48232
328.358	10.9148
330.148	11.8492
331.935	12.3448
333.724	13.3885
335.513	13.0557
337.301	13.2363
339.089	12.994
340.875	12.4223
342.662	11.5785
344.449	12.8991
346.236	13.8788
348.02	13.2375
349.806	13.4295
351.592	14.0195
353.375	14.4287
355.16	13.9169
356.944	14.1925
358.728	15.1287
360.51	16.8992
362.294	17.9218
364.077	17.8953
365.858	17.8949
367.64	19.6796
369.422	20.3364
371.202	21.5699
372.983	21.4623
374.764	21.6455
376.543	23.2667
378.324	23.8543
380.102	24.1049
381.881	25.1379
383.661	27.8572
385.438	28.0609
387.216	29.3185
388.993	30.9434
390.771	31.9522
392.548	31.7612
394.324	30.8401
396.101	30.4342
397.875	28.9291
399.651	28.7058
401.425	30.2939
403.201	32.2739
404.974	32.6614
406.749	32.0262
408.524	31.3636
410.296	31.0219
412.07	31.1434
413.841	30.476
415.614	30.2364
417.385	29.7661
419.156	28.9448
420.928	27.8555
422.698	26.79
424.469	25.0785
426.238	24.0319
428.009	22.6346
429.777	21.1679
431.548	19.7951
433.315	19.0461
435.083	17.0185
436.852	15.5434
438.618	14.3444
440.387	12.6095
442.153	10.5552
443.919	8.23468
445.686	8.54946
447.451	8.1979
449.218	7.65971
450.982	7.25891
452.746	5.95951
454.512	5.17815
456.275	5.26048
458.038	4.38879
459.803	4.49661
461.565	4.84373
463.327	5.30361
465.091	6.77741
466.852	7.69967
468.613	9.24945
470.374	10.2167
472.136	11.1534
473.896	10.6769
475.655	11.45
477.415	11.225
479.176	11.8413
480.934	13.2352
482.692	14.4859
484.45	17.1517
486.21	18.2345
487.967	20.2136
489.724	21.4094
491.481	20.9944
493.237	21.749
494.995	23.3309
496.75	23.9685
498.506	24.5463
500.26	25.9974
502.015	26.15
503.769	27.0765
505.525	26.6162
507.279	27.0736
509.032	28.1156
510.785	27.8226
512.537	27.9105
514.289	27.5457
516.041	26.4141
517.793	25.7865
519.546	25.0343
521.297	24.193
523.047	23.1025
524.797	23.1798
526.547	21.9897
528.297	21.7244
530.046	21.7014
531.795	21.0549
533.543	22.2066
535.291	22.3896
537.039	21.4397
538.787	21.4704
540.534	19.4479
542.281	18.3323
544.027	18.5451
545.773	18.8623
547.519	18.6003
549.264	18.4085
551.01	18.0845
552.754	17.8635
554.499	16.9594
556.243	15.6621
557.987	15.1215
559.73	13.6949
561.474	13.5024
563.216	13.3904
564.959	13.3319
566.701	13.5575
568.441	13.1755
570.182	12.1247
571.923	11.4795
573.664	9.80737
575.405	9.40645
577.145	8.64633
578.885	7.06541
580.624	6.79893
582.361	6.1093
584.1	5.61744
585.839	6.05647
587.577	6.61339
589.315	5.22863
591.052	5.22026
592.787	3.55802
594.524	4.76805
596.26	4.29659
597.997	3.29979
599.732	2.93393
601.466	1.97151
603.201	1.52092
604.936	1.30249
606.67	0.897566
608.403	1.00377
610.136	1.86012
611.87	2.83639
613.603	2.15531
615.334	3.50741
617.067	4.45381
618.799	3.9938
620.529	5.89074
622.26	6.34424
623.991	6.23669
625.72	6.51982
627.451	6.51814
629.181	8.16791
630.909	8.84876
632.638	10.2453
634.368	10.8078
636.095	11.4149
637.823	12.0642
639.551	11.6575
641.277	12.7163
643.005	13.5698
644.73	14.6433
646.457	14.4078
648.184	15.1203
649.908	14.4836
651.634	15.6794
653.357	16.2861
655.083	16.471
656.806	16.2873
658.53	16.7421
660.253	18.3818
661.977	18.8445
663.7	18.4188
665.422	17.8949
667.145	19.0846
668.865	19.8243
670.588	21.5204
672.308	22.253
674.027	20.7277
675.749	20.3888
677.468	21.4008
679.188	21.3683
680.907	22.5061
682.627	23.0154
684.345	24.3433
686.064	24.9311
687.781	24.8258
689.498	26.0197
691.216	26.4725
692.932	27.0907
694.65	27.6509
696.366	28.2295
698.081	28.6065
699.797	29.2833
701.512	31.2145
703.228	31.696
704.942	32.2427
706.655	33.5804
708.371	34.544
710.083	35.4908
711.796	36.8334
713.51	37.9782
715.222	38.751
716.934	39.3711
718.645	41.1297
720.358	41.3726
722.068	41.8546
723.779	43.2796
725.49	44.1141
727.2	45.1686
728.909	45.1748
730.618	46.1957
732.329	46.3302
734.037	46.4048
735.745	47.0396
737.453	47.8766
739.16	47.596
740.869	47.9701
742.576	48.0101
744.282	49.9326
745.988	51.3341
747.694	51.0865
749.401	51.8947
751.107	52.6491
752.811	54.2009
754.516	55.2737
756.22	55.6474
757.924	56.1226
759.627	57.2407
761.332	59.3228
763.035	61.1427
764.738	62.1967
766.44	63.9564
768.142	65.0799
769.843	64.679
771.544	65.2538
773.245	65.383
774.946	66.1749
776.646	66.5974
778.346	67.5402
780.046	68.7251
781.745	69.8719
783.444	70.9644
785.143	72.7955
786.841	74.382
788.539	75.1295
790.237	76.1364
791.934	76.7974
793.631	78.61
795.328	80.0952
797.024	80.2385
798.72	80.6522
800.416	81.5377
802.112	82.9405
803.807	82.9918
805.502	83.179
807.196	83.8037
808.89	84.4196
810.584	83.4587
812.278	82.188
813.971	82.2007
815.664	82.0277
817.354	82.0253
819.047	81.3643
820.739	80.955
822.43	80.132
824.122	81.2687
825.813	82.0157
827.503	81.746
829.192	81.7695
830.882	79.7717
832.571	78.1175
834.261	77.452
835.95	76.1773
837.637	75.7864
839.325	75.4867
841.013	74.4119
842.701	74.536
844.389	73.5674
846.074	71.5164
847.761	71.0182
849.447	69.0035
851.131	67.6254
852.817	65.6114
854.503	64.3154
856.188	62.9242
857.871	60.5112
859.556	59.7016
861.24	59.1176
862.922	59.0639
864.606	58.3081
866.289	57.4037
867.97	56.539
869.653	56.3983
871.336	55.5479
873.016	53.6788
874.698	52.8839
876.379	53.2674
878.058	53.8223
879.739	52.6964
881.418	51.58
883.098	52.0068
884.778	50.7072
886.456	50.293
888.135	49.0577
889.812	48.788
891.49	48.5966
893.167	47.8397
894.845	47.2587
896.523	47.4632
898.198	48.7666
899.875	48.7219
901.55	48.67
903.226	48.1664
904.901	48.5153
906.576	49.7476
908.25	50.1574
909.925	48.9579
911.598	48.2185
913.271	47.9741
914.945	47.8658
916.617	49.1808
918.291	49.9563
919.962	49.8585
921.635	50.7716
923.306	52.0733
924.978	50.9598
926.648	50.8745
928.318	50.3041
929.989	49.8717
931.659	49.6602
933.328	48.8105
934.998	48.5009
936.666	47.6108
938.336	46.9594
940.004	46.1038
941.671	46.0003
943.34	45.7946
945.007	45.0094
946.673	44.2067
948.339	42.6375
950.007	42.1716
951.672	41.3311
953.337	40.8535
955.004	40.6065
956.669	39.9628
958.333	41.4735
959.997	41.5878
961.662	40.0078
963.326	39.455
964.989	40.1682
966.651	40.1355
968.315	39.6783
969.977	40.2735
971.639	40.6844
973.301	40.7342
974.962	41.1304
976.624	41.2334
978.285	42.058
979.945	42.2809
981.605	41.7482
983.264	41.7121
984.924	41.0665
986.583	41.1769
988.243	40.7916
989.901	40.958
991.56	40.6144
993.217	40.1329
994.875	40.8066
996.532	41.662
998.188	42.0216
999.845	41.7316
1001.5	40.8622
1003.16	40.5744
1004.81	40.7954
1006.47	41.4364
1008.12	40.4365
1009.78	40.8287
1011.43	40.4409
1013.09	41.1244
1014.74	42.0757
1016.39	42.3068
1018.05	42.5371
1019.7	43.0397
1021.35	43.9905
1023	45.032
1024.65	45.1547
1026.31	45.0087
1027.96	45.8907
1029.61	46.6737
1031.26	48.6081
1032.91	49.6199
1034.56	49.6144
1036.21	49.7627
1037.86	50.8545
1039.51	51.2529
1041.16	51.4439
1042.8	51.3193
1044.45	51.1341
1046.1	51.2369
1047.75	51.4099
1049.39	49.4698
1051.04	48.7113
1052.69	47.0692
1054.33	45.0126
1055.98	42.74
1057.62	42.1281
1059.27	40.3164
1060.91	38.6686
1062.56	36.8072
1064.2	34.3301
1065.85	33.4489
1067.49	31.606
1069.13	29.1978
1070.77	26.4692
1072.42	26.0747
1074.06	24.4976
1075.7	22.4526
1077.34	21.8322
1078.98	20.483
1080.62	18.2186
1082.27	16.3213
1083.91	15.6256
1085.55	15.0328
1087.18	15.862
1088.82	15.9211
1090.46	15.3312
1092.1	15.5204
1093.74	15.3991
1095.38	16.7271
1097.02	16.9484
1098.65	16.8301
1100.29	17.2956
1101.93	18.0411
1103.56	18.676
1105.2	18.342
1106.84	18.8348
1108.47	19.9031
1110.11	20.3366
1111.74	21.2105
1113.38	21.6293
1115.01	20.5973
1116.64	20.6629
1118.28	20.5778
1119.91	21.1705
1121.54	19.8096
1123.18	19.2811
1124.81	19.0244
1126.44	17.6819
1128.07	17.0747
1129.7	16.2523
1131.33	15.0055
1132.97	15.0194
1134.6	13.7344
1136.23	12.2874
1137.86	11.913
1139.49	11.9929
1141.11	10.7425
1142.74	10.5699
1144.37	9.79847
1146	8.3333
1147.63	8.04888
1149.26	5.99592
1150.88	3.79909
1152.51	3.46099
1154.14	4.63574
1155.76	3.73529
1157.39	4.03236
1159.01	4.36774
1160.64	4.09731
1162.27	3.20695
1163.89	3.67116
1165.51	4.24885
1167.14	4.13104
1168.76	5.20543
1170.39	4.16077
1172.01	2.9766
1173.63	3.1561
1175.25	3.08522
1176.88	4.5397
1178.5	4.15153
1180.12	4.34865
1181.74	5.21781
1183.36	5.65404
1184.98	4.85324
1186.6	4.59015
1188.22	5.53186
1189.84	6.28749
1191.46	6.02179
1193.08	7.28936
1194.7	7.77931
1196.32	8.85175
1197.94	10.0653
1199.55	10.6258
1201.17	12.2133
1202.79	13.7213
1204.41	15.8514
1206.02	17.5454
1207.64	18.5543
1209.25	19.324
1210.87	20.6654
1212.48	22.1127
1214.1	22.114
1215.71	23.0864
1217.33	24.0607
1218.94	26.3294
1220.56	27.6155
1222.17	29.1892
1223.79	30.5071
1225.4	30.504
1227.01	31.215
1228.62	32.5065
1230.23	33.2015
1231.85	34.7374
1233.46	36.7747
1235.07	38.4621
1236.68	39.6503
1238.29	40.9456
1239.9	42.1638
1241.51	42.6019
1243.12	42.8654
1244.73	43.4486
1246.34	43.8098
1247.94	44.0502
1249.55	43.9162
1251.16	42.7102
1252.77	43.0017
1254.37	44.064
1255.98	43.5864
1257.59	43.2905
1259.2	42.1429
1260.8	42.018
1262.41	41.1504
1264.01	39.3922
1265.62	39.3792
1267.22	39.2102
1268.83	39.1576
1270.43	39.8883
1272.03	39.9857
1273.64	41.9057
1275.24	42.6671
1276.85	43.7227
1278.45	44.2484
1280.05	45.0666
1281.65	45.8631
1283.25	46.7014
1284.85	46.479
1286.46	47.4117
1288.06	47.8006
1289.66	48.5533
1291.26	49.3067
1292.86	48.7266
1294.46	49.1347
1296.06	50.6932
1297.66	49.8415
1299.25	51.0484
1300.85	51.0766
1302.45	51.9495
1304.05	51.4403
1305.65	50.8106
1307.24	52.3588
1308.84	53.0653
1310.43	54.1813
1312.03	55.5135
1313.63	56.9609
1315.22	58.7626
1316.82	59.9908
1318.41	61.1087
1320.01	61.3822
1321.6	61.466
1323.2	61.3239
1324.79	61.1899
1326.38	62.1696
1327.98	61.2029
1329.57	60.4276
1331.16	59.5483
1332.76	59.86
1334.35	58.8188
1335.94	58.233
1337.53	57.6425
1339.12	57.1474
1340.71	56.3522
1342.3	55.0676
1343.89	54.2567
1345.48	54.3897
1347.07	53.3854
1348.66	53.8924
1350.25	55.1377
1351.84	55.2448
1353.43	54.9656
1355.01	53.8035
1356.6	52.5071
1358.19	51.8166
1359.77	51.0571
1361.36	49.8197
1362.95	49.086
1364.53	48.3418
1366.12	47.0685
1367.71	45.8491
1369.29	44.5028
1370.88	42.5745
1372.46	41.6753
1374.04	41.1572
1375.63	40.1462
1377.21	38.7802
1378.8	39.6765
1380.38	38.5965
1381.96	37.4758
1383.54	37.092
1385.13	37.2442
1386.71	38.4401
1388.29	37.8343
1389.87	37.9382
1391.45	37.1415
1393.03	36.438
1394.61	36.5649
1396.19	35.9533
1397.77	35.9421
1399.35	35.0649
1400.93	35.0836
1402.51	34.1615
1404.09	34.4721
1405.67	34.1133
1407.24	33.7503
1408.82	34.8701
1410.4	34.8457
1411.98	36.2242
1413.55	37.7894
1415.13	40.1025
1416.71	41.34
1418.28	43.2973
1419.86	46.093
1421.43	48.2331
1423.01	50.3938
1424.58	53.2609
1426.16	56.1343
1427.73	58.4658
1429.31	61.2766
1430.88	62.9035
1432.45	65.0186
1434.02	67.0546
1435.6	69.499
1437.17	72.9563
1438.74	74.6528
1440.31	76.1218
1441.88	78.2537
1443.45	79.1959
1445.03	79.7978
1446.6	80.6313
1448.17	80.2591
1449.74	81.3811
1451.3	82.9927
1452.87	82.5747
1454.44	81.7582
1456.01	81.7126
1457.58	80.8286
1459.15	80.3091
1460.72	79.3337
1462.28	78.4548
1463.85	77.5414
1465.42	75.8927
1466.98	74.2913
1468.55	72.0559
1470.12	69.6858
1471.68	67.6007
1473.25	64.9418
1474.81	62.5818
1476.38	59.8975
1477.94	56.6025
1479.51	54.2054
1481.07	52.286
1482.63	49.6861
1484.2	46.3376
1485.76	44.0016
1487.32	42.1125
1488.88	39.9502
1490.45	38.9464
1492.01	37.5772
1493.57	35.5998
1495.13	34.3136
1496.69	33.2161
1498.25	32.1379
1499.81	30.408
1501.37	28.6921
1502.93	27.5256
1504.49	26.6456
1506.05	25.2887
1507.61	24.4042
1509.17	23.166
1510.73	22.5464
1512.28	22.0166
1513.84	20.9842
1515.4	19.6386
1516.96	18.5823
1518.51	17.3155
1520.07	16.66
1521.63	14.9071
1523.18	14.3697
1524.74	13.5468
1526.29	13.663
1527.85	15.0355
1529.4	15.237
1530.96	14.5115
1532.51	15.0821
1534.06	15.7839
1535.62	15.9697
1537.17	16.611
1538.72	16.4956
1540.28	17.0308
1541.83	18.012
1543.38	17.8935
1544.93	18.6902
1546.48	17.5857
1548.03	18.9822
1549.59	19.3063
1551.14	19.5628
1552.69	21.6574
1554.24	21.7646
1555.79	21.845
1557.34	22.451
1558.88	22.6697
1560.43	22.2986
1561.98	22.5784
1563.53	24.0788
1565.08	25.699
1566.62	26.1901
1568.17	27.8218
1569.72	28.2546
1571.27	29.6445
1572.81	30.9956
1574.36	31.7343
1575.9	32.8048
1577.45	33.412
1579	33.3923
1580.54	34.6152
1582.09	35.7314
1583.63	37.283
1585.17	37.9789
1586.72	38.6656
1588.26	39.8694
1589.8	39.7635
1591.35	40.066
1592.89	40.5077
1594.43	41.2497
1595.97	40.9356
1597.52	41.2256
1599.06	40.6868
1600.6	41.6338
1602.14	42.4214
1603.68	42.3662
1605.22	42.9875
1606.76	42.8502
1608.3	41.9564
1609.84	41.2369
1611.38	40.9145
1612.92	41.2354
1614.46	41.8852
1615.99	41.4052
1617.53	42.0657
1619.07	42.417
1620.61	42.9066
1622.14	44.1581
1623.68	44.8527
1625.22	46.0171
1626.75	45.1732
1628.29	46.5068
1629.82	47.466
1631.36	47.1617
1632.9	48.3238
1634.43	48.6209
1635.96	49.518
1637.5	51.1203
1639.03	52.7803
1640.57	54.8602
1642.1	55.5193
1643.63	56.9638
1645.16	58.2777
1646.7	58.6883
1648.23	60.0913
1649.76	60.7711
1651.29	61.4852
1652.82	62.6298
1654.36	63.5727
1655.89	63.7629
1657.42	64.3546
1658.95	64.6645
1660.48	64.9228
1662.01	64.1967
1663.53	63.4957
1665.06	62.9997
1666.59	61.6767
1668.12	61.2111
1669.65	59.8817
1671.18	58.3436
1672.7	56.5103
1674.23	54.8073
1675.76	52.7045
1677.29	51.2463
1678.81	49.2679
1680.34	47.1469
1681.86	45.2266
1683.39	42.8889
1684.91	40.7884
1686.44	38.5817
1687.96	36.9331
1689.49	34.4542
1691.01	31.7649
1692.54	28.8269
1694.06	27.776
1695.58	25.3464
1697.11	24.0518
1698.63	22.6658
1700.15	20.5382
1701.67	18.6228
1703.2	16.7692
1704.72	15.8303
1706.24	13.9407
1707.76	13.5082
1709.28	12.0066
1710.8	10.2109
1712.32	10.0444
1713.84	9.37822
1715.36	8.37553
1716.88	7.3344
1718.4	6.12167
1719.91	5.3628
1721.43	4.69011
1722.95	4.59347
1724.47	4.2779
1725.99	3.85061
1727.5	3.91463
1729.02	3.92813
1730.54	3.18029
1732.05	3.99999
1733.57	4.106
1735.09	4.33571
1736.6	4.33888
1738.12	4.62947
1739.63	4.85799
1741.15	4.88717
1742.66	4.68569
1744.18	4.7086
1745.69	4.77668
1747.2	4.65764
1748.72	5.41768
1750.23	5.33093
1751.74	5.40384
1753.25	5.30686
1754.77	5.71182
1756.28	5.70151
1757.79	5.23014
1759.3	5.07188
1760.81	4.5922
1762.32	3.89952
1763.83	3.33082
1765.34	3.14769
1766.85	2.57212
1768.36	2.10489
1769.87	2.75648
1771.38	2.83116
1772.89	3.59408
1774.4	3.96704
1775.91	4.03665
1777.41	3.98942
1778.92	4.19812
1780.43	4.07115
1781.94	3.97923
1783.44	4.17388
1784.95	3.25824
1786.45	3.59698
1787.96	3.55247
1789.47	3.26275
1790.97	2.95795
1792.47	3.12439
1793.98	2.46867
1795.48	2.75841
1796.99	3.13821
1798.49	2.70684
1800	2.66047
1801.5	2.73154
1803	3.34419
1804.51	3.11685
1806.01	3.84209
1807.51	4.15253
1809.01	3.28961
1810.51	3.45434
1812.02	3.11926
1813.52	3.36768
1815.02	3.28926
1816.52	3.25548
1818.02	3.29322
1819.52	3.83348
1821.02	4.19245
1822.52	4.17338
1824.02	3.919
1825.51	3.51049
1827.01	3.81359
1828.51	3.81742
1830.01	4.30894
1831.51	4.23419
1833	4.11594
1834.5	4.01456
1836	4.21988
1837.49	4.3284
1838.99	4.14435
1840.49	4.63668
1841.98	4.76103
1843.48	5.21219
1844.97	5.88597
1846.47	5.73544
1847.96	5.94329
1849.46	5.93069
1850.95	5.33367
1852.45	5.26485
1853.94	5.21415
1855.43	4.33293
1856.92	3.69828
1858.42	3.14495
1859.91	3.08484
1861.4	2.4185
1862.89	1.53966
1864.39	1.74016
1865.88	1.06069
1867.37	1.28449
1868.86	1.23972
1870.35	1.03599
1871.84	0.989411
1873.33	0.854052
1874.82	0.877796
1876.31	0.587442
1877.8	0.842735
1879.29	0.484817
1880.77	0.221136
1882.26	0.0370492
1882.52	0.125519
1884.02	-0.627764
1885.51	-0.639038
1887.01	-0.356523
1888.5	-0.170166
1889.99	0.176428
1891.49	0.379066
1892.98	0.877297
1894.47	1.41933
1895.96	0.982203
1897.46	0.934768
1898.95	1.39919
1900.44	1.9013
1901.93	2.06744
1903.42	2.22227
1904.91	2.70212
1906.4	3.12573
1907.89	3.63163
1909.38	4.36071
1910.87	4.35984
1912.36	4.80971
1913.85	5.58916
1915.34	5.41711
1916.83	5.56429
1918.32	5.52085
1919.8	5.96063
1921.29	5.99863
1922.78	6.94486
1924.27	7.67586
1925.75	7.96831
1927.24	7.70655
1928.73	7.85884
1930.21	8.07454
1931.7	8.8376
1933.18	9.22063
1934.67	9.05591
1936.15	9.7701
1937.64	10.0609
1939.12	9.7532
1940.61	10.1958
1942.09	9.80809
1943.57	9.85597
1945.06	10.3472
1946.54	9.81962
1948.02	9.66777
1949.51	9.62559
1950.99	9.75457
1952.47	8.96747
1953.95	8.27118
1955.43	7.66614
1956.91	6.89005
1958.39	6.14095
1959.87	6.16677
1961.36	5.79687
1962.84	5.59013
1964.32	5.09397
1965.79	4.49923
1967.27	4.73058
1968.75	4.08215
1970.23	3.44855
1971.71	3.23446
1973.19	3.46808
1974.66	3.24818
1976.14	2.90167
1977.62	3.2246
1979.1	3.67857
1980.57	3.53399
1982.05	3.48792
1983.53	3.23118
1985	3.20133
1986.48	3.65142
1987.95	4.20408
1989.43	3.76475
1990.9	4.02417
1992.38	4.45708
1993.85	5.20247
1995.33	5.26829
1996.8	6.15282
1998.27	6.31756
1999.75	6.47508
2001.22	6.60538
2002.69	6.51458
2004.16	6.37003
2005.64	6.02334
2007.11	5.98287
2008.58	6.39009
2010.05	6.96418
2011.52	6.62348
2012.99	7.13175
2014.46	7.68158
2015.93	7.95084
2017.4	8.19282
2018.87	8.16203
2020.34	8.10204
2021.81	8.52679
2023.28	8.73112
2024.75	8.85851
2026.22	8.35658
2027.69	7.61148
2029.15	6.93444
2030.62	6.8082
2032.09	6.54471
2033.56	6.31062
2035.02	6.31365
2036.49	6.48764
2037.95	6.15443
2039.42	6.17031
2040.89	6.28813
2042.35	6.32387
2043.82	6.64015
2045.28	6.73404
2046.75	7.11238
2048.21	7.17337
2049.67	7.82838
2051.14	8.5995
2052.6	7.88858
2054.06	7.77689
2055.53	7.81075
2056.99	8.37028
2058.45	8.6857
2059.92	8.25872
2061.38	8.58965
2062.84	8.0203
2064.3	9.09632
2065.76	9.24646
2067.22	8.69825
2068.68	9.055
2070.14	9.65962
2071.6	10.2603
2073.06	10.0135
2074.52	9.98351
2075.98	10.231
2077.44	11.0497
2078.9	11.3953
2080.36	12.6734
2081.82	13.4618
2083.27	14.0666
2084.73	14.0271
2086.19	14.7161
2087.65	14.757
2089.1	15.0087
2090.56	14.6554
2092.01	15.2928
2093.47	15.001
2094.93	15.0764
2096.38	14.5518
2097.84	13.4157
2099.29	12.3492
2100.75	11.6994
2102.2	11.136
2103.66	10.6246
2105.11	10.196
2106.56	9.82088
2108.02	9.74448
2109.47	9.94731
2110.92	9.76109
2112.37	9.32295
2113.83	9.35299
2115.28	10.4333
2116.73	10.6807
2118.18	10.8374
2119.63	10.9415
2121.09	10.8825
2122.54	11.1972
2123.99	10.8441
2125.44	10.4003
2126.89	11.0297
2128.34	11.3636
2129.79	11.9291
2131.23	12.132
2132.68	12.8771
2134.13	13.7544
2135.58	14.4267
2137.03	15.7184
2138.48	15.9608
2139.92	17.1376
2141.37	18.3784
2142.82	19.1055
2144.26	20.7007
2145.71	21.0248
2147.16	22.7652
2148.6	23.816
2150.05	24.6544
2151.49	25.8145
2152.94	27.0225
2154.38	27.6136
2155.83	28.2327
2157.27	29.0691
2158.72	30.3359
2160.16	30.9978
2161.6	32.05
2163.05	32.2337
2164.49	33.1783
2165.93	33.2823
2167.38	34.1142
2168.82	33.9053
2170.26	33.5494
2171.7	33.9038
2173.14	33.5368
2174.58	33.1989
2176.03	33.2218
2177.47	32.7708
2178.91	32.7836
2180.35	33.0341
2181.79	32.923
2183.23	32.1421
2184.67	31.2495
2186.1	31.9637
2187.54	31.7413
2188.98	30.7466
2190.42	29.9017
2191.86	29.2914
2193.3	28.8173
2194.73	28.4211
2196.17	27.5876
2197.61	27.1803
2199.05	26.921
2200.48	25.917
2201.92	25.2834
2203.35	24.8784
2204.79	24.0102
2206.22	23.2911
2207.66	22.6383
2209.09	22.6559
2210.53	21.5946
2211.96	21.4816
2213.4	21.1056
2214.83	21.2451
2216.27	20.518
2217.7	19.6328
2219.13	19.5179
2220.56	19.0438
2222	18.37
2223.43	18.1566
2224.86	17.5227
2226.29	17.5217
2227.72	17.5811
2229.16	17.5785
2230.59	16.9852
2232.02	16.6366
2233.45	16.4644
2234.88	16.1381
2236.31	15.7733
2237.74	15.5328
2239.17	14.7645
2240.6	13.6115
2242.03	13.0071
2243.45	12.427
2244.88	11.7178
2246.31	11.7122
2247.74	11.5853
2249.17	10.8
2250.59	11.06
2252.02	10.6779
2253.45	10.0716
2254.87	9.37966
2256.3	9.36435
2257.73	9.42801
2259.15	9.32431
2260.58	9.08814
2262	9.32567
2263.43	8.98242
2264.85	8.61342
2266.28	7.93096
2267.7	7.95007
2269.13	7.55026
2270.55	7.20826
2271.97	6.78055
2273.4	6.90222
2274.82	6.69092
2276.24	6.25142
2277.66	6.11208
2279.09	6.43215
2280.51	7.03406
2281.93	6.42792
2283.35	7.14667
2284.77	6.63177
2286.19	6.40779
2287.61	6.15784
2289.04	6.69454
2290.46	6.16764
2291.88	6.06901
2293.29	5.07511
2294.71	4.75815
2296.13	5.6252
2297.55	6.09248
2298.97	6.29762
2300.39	6.30181
2301.81	6.48061
2303.23	6.82493
2304.64	6.888
2306.06	7.18618
2307.48	6.90389
2308.89	6.91257
2310.31	6.76056
2311.73	7.12485
2313.14	7.37044
2314.56	7.5986
2315.97	8.49887
2317.39	8.66752
2318.8	8.53172
2320.22	8.49977
2321.63	8.6911
2323.05	7.83404
2324.46	7.47829
2325.88	6.83479
2327.29	7.28284
2328.7	7.14487
2330.12	6.98267
2331.53	6.49021
2332.94	6.41111
2334.35	5.956
2335.76	5.9306
2337.18	5.73096
2338.59	5.43115
2340	5.10079
2341.41	4.93935
2342.82	4.83744
2344.23	4.63138
2345.64	4.09688
2347.05	3.8898
2348.46	3.70984
2349.87	4.13497
2351.28	3.62468
2352.69	3.11338
2354.1	3.25732
2355.5	2.70146
2356.91	2.52929
2358.32	2.35342
2359.73	2.00924
2361.14	1.26164
2362.54	1.38307
2363.95	0.925648
2365.36	1.64747
2366.76	2.52012
2368.17	2.7812
2369.58	2.81474
2370.98	2.99945
2372.39	3.83183
2373.79	4.04757
2375.2	4.11034
2376.6	4.29914
2378	3.97897
2379.41	5.05117
2380.81	5.12006
2382.22	5.06907
2383.62	5.52807
2385.02	5.77149
2386.42	5.98452
2387.83	5.21406
2389.23	5.55034
2390.63	5.76915
2392.03	4.81735
2393.43	4.08849
2394.84	4.37614
2396.24	4.99264
2397.64	5.00022
2399.04	4.48607
2400.44	4.70169
2401.84	5.34245
2403.24	5.26846
2404.64	5.16644
2406.04	4.96905
2407.44	4.74876
2408.83	4.57407
2410.23	4.48154
2411.63	4.50841
2413.03	4.32858
2414.43	4.51423
2415.83	4.26215
2417.22	4.14131
2418.62	3.67075
2420.02	3.5484
2421.41	3.1112
2422.81	2.71748
2424.21	2.99174
2425.6	2.76314
2427	3.036
2428.39	3.00644
2429.79	2.75535
2431.18	2.53419
2432.58	3.10464
2433.97	2.89776
2435.36	3.357
2436.76	3.63885
2438.15	4.00647
2439.54	3.75594
2440.94	4.28826
2442.33	3.96588
2443.72	3.28089
2445.11	2.49771
2446.51	2.23566
2447.9	1.96167
2449.29	1.97626
2450.68	1.40845
2452.07	1.65416
2453.46	1.70895
2454.85	1.20124
2456.24	1.09442
2457.63	0.634877
2459.02	1.12264
2460.41	0.539698
2461.8	0.141525
2463.19	0.165788
2464.58	0.179882
2465.97	-0.231827
2467.36	-0.9295
2468.75	-0.313109
2470.13	-0.207059
2471.52	-0.210762
2472.91	-0.41507
2474.29	-0.216968
2475.68	0.26119
2477.07	0.650644
2478.45	-0.0474194
2479.84	-0.0672819
2481.22	0.526682
2482.61	0.327156
2484	0.450201
2485.38	0.17995
2486.77	-0.318875
2488.15	-0.106079
2489.54	0.572348
2490.92	0.512104
2492.3	0.818253
2493.69	1.60727
2495.07	1.72579
2496.45	1.40914
2497.84	1.69939
2499.22	1.52989
2500.6	1.97337
2501.98	2.14807
2503.36	1.7858
2504.74	1.98052
2506.13	1.82977
2507.51	1.53589
2508.89	1.34679
2510.27	1.26338
2511.65	1.09593
2513.03	0.862676
2514.41	0.92794
2515.79	0.983585
2517.17	0.843684
2518.55	0.825039
2519.93	1.52394
2521.3	1.28435
2522.68	0.860228
2524.06	0.454934
2525.44	0.458394
2526.82	0.0323994
2528.19	-0.124558
2529.57	-0.823116
2530.95	-0.235275
2532.32	-0.312423
2533.7	-0.611372
2535.08	-0.313871
2536.45	0.0442722
2537.83	0.609713
2539.2	0.887133
2540.58	1.30288
2541.95	1.92824
2543.33	2.45423
2544.7	2.37867
2546.08	1.87784
2547.45	1.57524
2548.82	2.06025
2550.2	2.1146
2551.57	1.93376
2552.94	1.72621
2554.32	2.23797
2555.69	1.92346
2557.06	2.39315
2558.43	1.7847
2559.8	1.04371
2561.17	1.5372
2562.55	2.16502
2563.92	2.09259
2565.29	2.37831
2566.66	2.92568
2568.03	3.31778
2569.4	3.69531
2570.77	2.92792
2572.14	3.29087
2573.51	3.38929
2574.88	3.15602
2576.24	3.42995
2577.61	4.40698
2578.98	4.80532
2580.35	5.03746
2581.72	5.03512
2583.09	4.94265
2584.45	4.10737
2585.82	4.32288
2587.19	4.42937
2588.55	4.55151
2589.92	3.53654
2591.28	3.40883
2592.65	2.7822
2594.02	3.69799
2595.38	4.08062
2596.75	4.51334
2598.11	4.93411
2599.48	5.55823
2600.84	5.54442
2602.2	5.3929
2603.57	5.79441
2604.93	6.16233
2606.3	6.46598
2607.66	6.30106
2609.02	6.24696
2610.38	6.3196
2611.75	5.64804
2613.11	4.97942
2614.47	4.68712
2615.83	4.17525
2617.19	3.97953
2618.56	3.7606
2619.92	3.50386
2621.28	3.58864
2622.64	3.80392
2624	3.87544
2625.36	3.50372
2626.72	3.39561
2628.08	4.58174
2629.44	4.82757
2630.8	4.97224
2632.15	4.39548
2633.51	4.58438
2634.87	4.24077
2636.23	4.48728
2637.59	3.90574
2638.94	4.0215
2640.3	5.26002
2641.66	5.06398
2643.02	5.33437
2644.37	5.51233
2645.73	5.78217
2647.08	5.17081
2648.44	4.98294
2649.8	4.81573
2651.15	4.73905
2652.51	4.67162
2653.86	4.95198
2655.22	4.90038
2656.57	5.64811
2657.92	5.1995
2659.28	6.17395
2660.63	6.47396
2661.99	7.98153
2663.34	7.51883
2664.69	7.144
2666.04	7.49307
2667.4	8.21861
2668.75	8.37584
2670.1	8.21503
2671.45	8.16252
2672.81	8.38317
2674.16	8.30371
2675.51	8.37958
2676.86	8.03558
2678.21	8.30875
2679.56	8.49137
2680.91	8.70585
2682.26	8.81939
2683.61	8.67782
2684.96	9.30342
2686.31	8.8952
2687.66	8.42123
2689	8.60158
2690.35	8.40723
2691.7	8.48736
2693.05	7.4704
2694.4	7.78317
2695.74	7.4521
2697.09	6.87447
2698.44	7.31618
2699.79	7.19269
2701.13	7.27485
2702.48	7.12817
2703.82	7.85541
2705.17	8.28037
2706.52	8.61746
2707.86	9.0847
2709.21	8.74429
2710.55	8.84037
2711.9	8.92318
2713.24	9.37862
2714.58	9.56848
2715.93	10.1776
2717.27	10.6178
2718.61	10.3604
2719.96	10.352
2721.3	10.8978
2722.64	12.0527
2723.99	12.6362
2725.33	12.5022
2726.67	13.3906
2728.01	12.467
2729.35	12.4186
2730.7	11.6559
2732.04	12.3598
2733.38	13.2975
2734.72	13.7189
2736.06	13.0871
2737.4	12.8857
2738.74	12.7197
2740.08	12.8659
2741.42	12.9851
2742.76	12.4117
2744.09	12.4225
2745.43	13.1173
2746.77	12.1723
2748.11	11.6551
2749.45	11.1893
2750.79	10.7393
2752.12	10.9205
2753.46	10.2267
2754.8	10.2415
2756.13	10.7226
2757.47	10.0249
2758.81	9.72959
2760.14	9.11151
2761.48	9.30812
2762.81	8.71459
2764.15	8.77573
2765.49	8.26143
2766.82	7.7736
2768.15	7.87092
2769.49	8.23241
2770.82	7.97223
2772.16	7.73816
2773.49	7.53367
2774.82	6.73394
2776.16	6.20329
2777.49	6.06299
2778.82	5.93071
2780.16	5.67404
2781.49	5.50336
2782.82	5.19906
2784.15	5.16105
2785.48	4.70062
2786.81	5.1923
2788.15	5.43274
2789.48	5.01329
2790.81	4.2866
2792.14	3.2654
2793.47	3.29453
2794.8	2.44165
2796.13	2.78772
2797.46	2.93408
2798.79	3.51535
2800.12	3.42083
2801.44	3.16208
2802.77	3.08324
2804.1	3.14009
2805.43	3.55187
2806.76	3.72452
2808.08	4.33237
2809.41	4.6825
2810.74	5.58264
2812.07	5.92457
2813.39	5.77625
2814.72	6.64797
2816.05	7.14458
2817.37	8.21243
2818.7	9.32804
2820.02	10.2195
2821.35	11.1454
2822.67	11.9235
2824	12.7066
2825.32	14.0395
2826.65	15.6549
2827.97	17.3121
2829.29	19.1492
2830.62	21.262
2831.94	22.5948
2833.26	24.3917
2834.59	26.8436
2835.91	28.2817
2837.23	29.8546
2838.55	33.1809
2839.88	35.3647
2841.2	38.6232
2842.52	42.9554
2843.84	46.5892
2845.16	50.3493
2846.48	55.1953
2847.8	59.0615
2849.12	64.0357
2850.44	69.1754
2851.76	73.1565
2853.08	77.7729
2854.4	82.0971
2855.72	86.4342
2857.04	90.8796
2858.36	95.7005
2859.68	100.277
2861	104.048
2862.32	108.464
2863.63	113.35
2864.95	117.362
2866.27	121.408
2867.58	125.137
2868.9	129.158
2870.22	132.211
2871.53	136.511
2872.85	139.558
2874.17	143.014
2875.48	145.487
2876.8	148.217
2878.11	151.058
2879.43	153.601
2880.74	155.986
2882.06	158.052
2883.37	160.542
2884.69	162.03
2886	164.615
2887.31	165.993
2888.63	168.217
2889.94	170.782
2891.25	172.758
2892.57	174.858
2893.88	176.294
2895.19	178.273
2896.5	179.586
2897.82	180.625
2899.13	182.804
2900.44	185.666
2901.75	187.845
2903.06	191.561
2904.37	195.754
2905.68	198.845
2906.99	203.437
2908.3	207.715
2909.61	211.102
2910.92	215.734
2912.23	220.866
2913.54	224.025
2914.85	228.437
2916.16	232.009
2917.46	235.211
2918.77	238.892
2920.08	241.416
2921.39	244.632
2922.7	247.258
2924	249.674
2925.31	250.762
2926.62	251.843
2927.92	252.675
2929.23	253.267
2930.53	253.218
2931.84	253.251
2933.15	252.706
2934.45	251.993
2935.76	250.464
2937.06	249.339
2938.37	246.769
2939.67	244.775
2940.98	242.042
2942.28	239.543
2943.58	235.771
2944.89	231.727
2946.19	228.258
2947.49	224.596
2948.8	220.423
2950.1	216.444
2951.4	212.839
2952.7	207.688
2954.01	203.261
2955.31	198.718
2956.61	193.753
2957.91	188.756
2959.21	183.392
2960.51	178.8
2961.81	174.176
2963.11	169.353
2964.41	165.514
2965.71	161.216
2967.01	156.717
2968.31	152.993
2969.61	148.873
2970.91	144.67
2972.21	140.46
2973.51	136.832
2974.81	132.766
2976.1	129.525
2977.4	125.31
2978.7	120.66
2980	116.719
2981.29	112.517
2982.59	108.17
2983.89	103.287
2985.18	98.4622
2986.48	95.0695
2987.78	90.9068
2989.07	86.1625
2990.37	81.344
2991.66	76.531
2992.96	72.575
2994.25	68.4769
2995.55	64.1782
2996.84	60.2338
2998.14	56.3332
2999.43	52.3297
3000.72	49.0759
3002.02	46.0408
3003.31	42.5973
3004.6	39.0397
3005.9	35.9988
3007.19	32.9412
3008.48	30.0429
3009.77	28.0159
3011.07	25.7523
3012.36	22.6839
3013.65	20.4917
3014.94	18.6339
3016.23	15.9546
3017.52	13.6724
3018.81	12.1634
3020.1	10.7671
3021.39	8.94089
3022.68	6.98306
3023.97	5.60308
3025.26	4.72538
3026.55	3.50405
3027.84	2.2434
3029.13	1.89851
3030.42	1.57661
3031.71	0.994722
3033	0.602496
3034.28	0.0751671
3035.57	0.00758809
3036.86	0.53952
3038.15	1.39765
3039.43	1.43357
3040.72	1.42336
3042.01	1.88977
3043.29	2.4322
3044.58	3.47254
3045.86	4.58991
3047.15	5.7754
3048.44	6.37107
3049.72	6.94801
3051.01	8.0857
3052.29	8.33968
3053.58	8.59695
3054.86	8.87917
3056.14	9.17519
3057.43	9.65482
3058.71	9.80711
3060	10.0795
3061.28	10.4419
3062.56	10.7067
3063.84	10.8277
3065.13	11.0404
3066.41	10.6987
3067.69	10.4675
3068.97	10.1703
3070.25	10.4997
3071.54	10.1641
3072.82	9.63279
3074.1	8.64439
3075.38	7.75544
3076.66	7.13642
3077.94	6.28768
3079.22	5.36979
3080.5	4.69699
3081.78	4.22909
3083.06	3.91604
3084.34	2.88158
3085.62	2.72098
3086.9	1.90419
3088.17	1.56617
3089.45	1.38119
3090.73	1.10407
3092.01	0.987638
3093.29	0.752429
3094.56	0.299888
3095.84	-0.546797
3097.12	-0.827601
3098.4	-0.926543
3099.67	-0.397979
3100.95	0.0419054
3102.22	-0.250219
3103.5	-0.283198
3104.77	-0.046447
3106.05	0.759201
3107.33	0.750925
3108.6	1.58094
3109.88	1.47461
3111.15	1.45405
3112.43	1.64321
3113.7	2.29335
3114.97	3.16292
3116.25	3.58116
3117.52	3.66037
3118.79	3.81241
3120.07	4.0487
3121.34	4.57263
3122.61	5.11757
3123.88	5.62517
3125.16	6.09778
3126.43	7.00865
3127.7	7.15586
3128.97	7.75518
3130.24	8.72684
3131.51	9.5833
3132.78	10.1035
3134.05	10.9265
3135.33	11.3015
3136.59	11.8051
3137.86	12.9065
3139.14	14.3457
3140.41	15.5662
3141.67	16.5901
3142.94	17.8689
3144.21	18.8755
3145.48	19.9373
3146.75	20.9601
3148.02	22.172
3149.28	22.1231
