#Acq. time (s)=	45
#Accumulations=	2
#Range (cm-¹)=	200...3150
#Windows=	2
#Auto scanning=	Off
#Autofocus=	Off
#Macrospot=	Off
#AutoExposure=	Off
#Spike filter=	Multiple accum.
#Delay time (s)=	0
#Binning=	1
#Readout mode=	Signal
#DeNoise=	Off
#ICS correction=	On
#Dark correction=	Off
#Inst. Process=	Off
#Detector Gain=	Best Dynamic Range
#Detector ADC=	20 kHz       
#Detector temperature (°C)=	-69.85
#Instrument=	LabRAM HR Evol
#Detector=	Synapse
#Objective=	x100
#Grating=	600 gr/mm
#ND Filter=	100%
#Laser (nm)=	532 
#Hole=	100.021
#Range=	Auto
#Laser Pol.=	No
#Raman. Pol.=	No
#Laser Pol. (°)=	-0.0007625
#Raman Pol. (°)=	89.9995
#Collection=	Microscope
#StageXY=	Marzhauser
#StageZ=	Marzhauser
#X (µm)=	-622.3
#Y (µm)=	-1586.7
#Z (µm)=	89.85
#Full time(mm:ss)=	3:18
#Project=	
#Sample=	
#Site=	
#Title=	Mb_10_14_20_2x_45s_532 nm_x100_100%_600 gr_mm
#Remark=	
#Date=	11.07.2022 10:04
#Acquired=	11.07.2022 10:04:25
#Base:Fit=	10.08.2022 10:21:11
#Base:Sub=	10.08.2022 10:21:41
#Filter:Polynom=	16.08.2022 10:17:53
#AxisType[0]=Intens
#AxisUnit[0]=Cnt
#AxisType[1]=Spectr
#AxisUnit[1]=1/cm
200.388	-0.474201
202.204	1.23266
204.019	0.925734
205.832	2.50939
207.646	3.69032
209.459	4.67091
211.274	5.64881
213.087	7.23916
214.899	7.63938
216.711	9.19785
218.524	11.2303
220.335	13.6492
222.146	15.0087
223.956	17.8702
225.766	19.4926
227.576	20.3909
229.388	20.4873
231.197	21.2567
233.005	22.8188
234.813	24.1946
236.621	23.9674
238.429	25.1786
240.236	26.1927
242.045	26.6225
243.852	27.6351
245.658	27.3151
247.464	27.5413
249.269	27.428
251.074	26.2391
252.879	26.392
254.683	25.8219
256.487	25.6666
258.291	24.7677
260.094	24.84
261.897	23.7502
263.702	23.9596
265.504	22.3772
267.306	20.7787
269.108	19.85
270.909	19.2266
272.71	17.5121
274.511	16.6925
276.311	14.8239
278.111	12.1638
279.91	10.8916
281.709	9.98757
283.508	9.75496
285.306	9.18073
287.105	9.39154
288.9	7.8551
290.698	7.54653
292.495	6.20455
294.291	6.86806
296.088	5.27117
297.884	5.66295
299.679	6.37535
301.475	6.33662
303.27	6.20086
305.064	6.10014
306.858	6.84365
308.652	7.25034
310.444	7.47152
312.237	7.45568
314.03	7.69822
315.822	6.88673
317.615	6.83023
319.406	7.27388
321.198	8.0757
322.987	7.31207
324.778	7.3937
326.568	7.2778
328.358	8.01094
330.148	7.28282
331.935	7.14191
333.724	7.08832
335.513	5.07994
337.301	4.78346
339.089	4.39225
340.875	3.92521
342.662	4.32482
344.449	3.71101
346.236	1.92602
348.02	1.66846
349.806	2.5914
351.592	1.74427
353.375	2.12533
355.16	1.46636
356.944	2.44581
358.728	3.43691
360.51	4.67577
362.294	6.35724
364.077	7.99872
365.858	7.28129
367.64	8.21888
369.422	9.85934
371.202	10.3722
372.983	11.7258
374.764	11.7847
376.543	12.9868
378.324	13.8619
380.102	15.3947
381.881	16.0941
383.661	16.8016
385.438	18.5396
387.216	20.2349
388.993	20.5422
390.771	20.2748
392.548	20.6988
394.324	21.0175
396.101	20.8648
397.875	20.698
399.651	20.3912
401.425	19.5408
403.201	19.1465
404.974	19.3415
406.749	19.9787
408.524	19.3136
410.296	18.4377
412.07	18.3641
413.841	18.8531
415.614	18.9292
417.385	18.537
419.156	18.2634
420.928	17.8769
422.698	16.0911
424.469	14.4195
426.238	15.453
428.009	14.9891
429.777	13.9189
431.548	12.6293
433.315	12.9225
435.083	11.7862
436.852	12.0116
438.618	11.0882
440.387	9.34562
442.153	8.60723
443.919	9.11326
445.686	9.62716
447.451	9.27763
449.218	8.96493
450.982	8.92339
452.746	7.03434
454.512	5.605
456.275	5.2014
458.038	5.17556
459.803	4.93785
461.565	5.57687
463.327	5.64362
465.091	6.50076
466.852	6.98272
468.613	7.05967
470.374	8.43301
472.136	10.1821
473.896	11.3189
475.655	10.2056
477.415	10.0899
479.176	9.76706
480.934	9.12894
482.692	8.69637
484.45	9.07527
486.21	9.71792
487.967	9.98823
489.724	11.5433
491.481	13.4973
493.237	14.8092
494.995	16.1609
496.75	16.5778
498.506	17.6747
500.26	18.4452
502.015	19.9983
503.769	21.5241
505.525	20.452
507.279	20.8816
509.032	20.9661
510.785	21.3388
512.537	22.2837
514.289	23.597
516.041	23.0325
517.793	22.7288
519.546	22.4604
521.297	22.3742
523.047	19.9634
524.797	19.0053
526.547	18.0353
528.297	17.2224
530.046	17.1513
531.795	17.4845
533.543	17.2936
535.291	17.2816
537.039	17.7351
538.787	16.8757
540.534	16.8503
542.281	17.4538
544.027	17.7773
545.773	17.4571
547.519	17.635
549.264	17.4024
551.01	16.8266
552.754	17.1983
554.499	16.6918
556.243	16.5164
557.987	16.7581
559.73	15.2041
561.474	13.9014
563.216	12.4927
564.959	11.8125
566.701	10.7294
568.441	10.7898
570.182	11.4182
571.923	11.1513
573.664	10.1153
575.405	8.80976
577.145	9.13032
578.885	8.32841
580.624	8.26473
582.361	8.1146
584.1	7.3601
585.839	6.29239
587.577	5.43414
589.315	5.41226
591.052	4.06961
592.787	3.05404
594.524	3.43835
596.26	2.70185
597.997	2.84368
599.732	2.85885
601.466	2.80269
603.201	2.65917
604.936	2.49444
606.67	2.17306
608.403	1.5629
610.136	-0.896663
611.87	-2.40438
613.603	-3.17499
615.334	-1.40305
617.067	1.14603
618.799	4.00609
620.529	6.65505
622.26	7.81461
623.991	8.74349
625.72	9.86774
627.451	11.9997
629.181	13.3047
630.909	14.1647
632.638	15.6305
634.368	18.3268
636.095	19.3078
637.823	19.7337
639.551	21.1132
641.277	21.5241
643.005	22.8735
644.73	23.1125
646.457	23.3927
648.184	23.9669
649.908	24.2802
651.634	24.9187
653.357	24.9999
655.083	24.9642
656.806	25.0142
658.53	24.3425
660.253	23.8333
661.977	24.684
663.7	25.6663
665.422	26.4488
667.145	26.4435
668.865	26.376
670.588	25.377
672.308	25.672
674.027	25.9149
675.749	25.1326
677.468	25.0955
679.188	24.5946
680.907	24.2243
682.627	24.9318
684.345	25.6651
686.064	24.6166
687.781	23.9143
689.498	23.6879
691.216	22.3967
692.932	20.5683
694.65	19.9022
696.366	20.0135
698.081	21.709
699.797	24.136
701.512	26.7308
703.228	27.5262
704.942	28.011
706.655	28.1625
708.371	28.644
710.083	29.9062
711.796	30.3675
713.51	30.3661
715.222	31.7706
716.934	30.9456
718.645	31.5591
720.358	31.4032
722.068	31.3734
723.779	31.2275
725.49	31.7516
727.2	31.6034
728.909	32.9479
730.618	33.2043
732.329	33.2094
734.037	33.5111
735.745	34.1598
737.453	34.4089
739.16	35.0151
740.869	35.4849
742.576	37.9307
744.282	37.8865
745.988	39.2627
747.694	41.3986
749.401	42.9714
751.107	43.4393
752.811	44.733
754.516	46.0184
756.22	47.0502
757.924	48.967
759.627	50.2603
761.332	51.2106
763.035	53.4758
764.738	54.7424
766.44	56.5147
768.142	57.6944
769.843	58.2742
771.544	59.1659
773.245	61.4754
774.946	62.2793
776.646	62.952
778.346	65.2477
780.046	67.8209
781.745	68.684
783.444	68.1651
785.143	69.4124
786.841	71.1989
788.539	72.2168
790.237	73.6205
791.934	74.202
793.631	74.2
795.328	74.1269
797.024	73.627
798.72	74.1409
800.416	75.0357
802.112	74.8536
803.807	75.6199
805.502	76.3981
807.196	77.9669
808.89	77.0422
810.584	76.6617
812.278	76.3822
813.971	76.3536
815.664	76.1868
817.354	75.479
819.047	74.4577
820.739	74.1577
822.43	73.5936
824.122	73.3794
825.813	72.4473
827.503	72.2657
829.192	71.8935
830.882	71.167
832.571	70.6619
834.261	69.8511
835.95	68.4097
837.637	67.7466
839.325	66.4994
841.013	65.8057
842.701	64.2544
844.389	63.0067
846.074	61.9853
847.761	60.4869
849.447	59.2134
851.131	58.2815
852.817	56.4719
854.503	55.5866
856.188	55.0316
857.871	54.353
859.556	53.3921
861.24	52.8953
862.922	53.1583
864.606	51.9012
866.289	50.4625
867.97	49.7503
869.653	49.6194
871.336	48.9406
873.016	47.572
874.698	47.2534
876.379	45.2756
878.058	45.2105
879.739	44.6893
881.418	44.061
883.098	43.6222
884.778	43.1653
886.456	42.6551
888.135	43.4768
889.812	43.9543
891.49	43.9785
893.167	42.9722
894.845	43.283
896.523	44.0731
898.198	45.2753
899.875	45.5145
901.55	45.2103
903.226	45.2269
904.901	46.493
906.576	47.2094
908.25	46.975
909.925	47.0698
911.598	48.3937
913.271	48.7509
914.945	47.6144
916.617	48.151
918.291	48.2305
919.962	48.3274
921.635	47.8456
923.306	47.7815
924.978	47.706
926.648	46.8676
928.318	47.0598
929.989	48.1541
931.659	47.8158
933.328	47.5029
934.998	47.079
936.666	45.8078
938.336	45.1486
940.004	44.5679
941.671	44.2921
943.34	43.5139
945.007	41.6186
946.673	41.2952
948.339	40.0981
950.007	39.2471
951.672	38.6923
953.337	38.4246
955.004	38.0559
956.669	35.7654
958.333	34.0618
959.997	31.8997
961.662	32.2431
963.326	31.2971
964.989	30.5376
966.651	30.0892
968.315	30.2897
969.977	30.1271
971.639	31.5761
973.301	30.4982
974.962	30.9257
976.624	30.7532
978.285	31.5469
979.945	31.2463
981.605	30.7868
983.264	29.771
984.924	29.6035
986.583	29.7054
988.243	28.9427
989.901	28.3601
991.56	27.9792
993.217	27.7675
994.875	26.8449
996.532	26.5851
998.188	26.5076
999.845	26.605
1001.5	27.3794
1003.16	28.2986
1004.81	27.9716
1006.47	28.0572
1008.12	29.7103
1009.78	29.9345
1011.43	31.7538
1013.09	33.0064
1014.74	33.1163
1016.39	32.8001
1018.05	33.0025
1019.7	32.9379
1021.35	34.4799
1023	36.0172
1024.65	37.6808
1026.31	38.4745
1027.96	37.8147
1029.61	39.6061
1031.26	41.1112
1032.91	41.1182
1034.56	41.2319
1036.21	39.5023
1037.86	38.0622
1039.51	36.7635
1041.16	37.0818
1042.8	37.3257
1044.45	38.0121
1046.1	37.2268
1047.75	36.6844
1049.39	35.9765
1051.04	35.608
1052.69	34.7696
1054.33	34.3633
1055.98	32.583
1057.62	31.4648
1059.27	29.4517
1060.91	28.2321
1062.56	25.8656
1064.2	24.9841
1065.85	23.1813
1067.49	21.6593
1069.13	20.3764
1070.77	18.1754
1072.42	16.6974
1074.06	15.371
1075.7	13.9887
1077.34	13.1743
1078.98	12.8864
1080.62	12.2493
1082.27	12.7161
1083.91	12.8085
1085.55	13.0744
1087.18	12.1731
1088.82	12.3964
1090.46	13.2574
1092.1	13.0812
1093.74	13.7729
1095.38	13.1665
1097.02	14.0723
1098.65	14.1434
1100.29	14.9062
1101.93	15.5022
1103.56	15.2237
1105.2	15.4624
1106.84	16.3218
1108.47	15.388
1110.11	14.2255
1111.74	14.785
1113.38	13.5117
1115.01	12.4919
1116.64	11.605
1118.28	10.4342
1119.91	11.0321
1121.54	10.7888
1123.18	10.6272
1124.81	10.8488
1126.44	11.8908
1128.07	12.2673
1129.7	12.0585
1131.33	12.1685
1132.97	13.0051
1134.6	12.2463
1136.23	12.353
1137.86	13.0145
1139.49	13.4412
1141.11	14.0621
1142.74	14.9933
1144.37	14.8867
1146	15.6706
1147.63	14.8114
1149.26	14.9698
1150.88	14.6283
1152.51	13.7924
1154.14	13.0591
1155.76	12.9565
1157.39	12.6588
1159.01	12.4076
1160.64	13.0916
1162.27	13.2911
1163.89	12.8059
1165.51	11.9371
1167.14	12.1934
1168.76	11.2312
1170.39	10.6109
1172.01	10.7149
1173.63	10.6511
1175.25	10.1554
1176.88	9.82904
1178.5	10.1208
1180.12	9.60222
1181.74	9.18734
1183.36	8.04364
1184.98	7.49869
1186.6	8.50948
1188.22	8.02234
1189.84	6.86285
1191.46	6.08159
1193.08	6.20019
1194.7	5.38947
1196.32	5.95525
1197.94	5.74826
1199.55	5.52421
1201.17	6.46054
1202.79	7.85854
1204.41	9.61822
1206.02	12.0018
1207.64	12.7961
1209.25	13.0015
1210.87	13.6777
1212.48	15.3984
1214.1	17.2859
1215.71	18.5931
1217.33	21.1864
1218.94	23.6774
1220.56	25.3213
1222.17	26.9843
1223.79	29.6544
1225.4	30.5751
1227.01	32.1479
1228.62	32.6438
1230.23	34.0795
1231.85	34.3054
1233.46	34.9631
1235.07	35.4175
1236.68	37.0669
1238.29	39.2784
1239.9	40.4196
1241.51	40.7444
1243.12	40.6446
1244.73	40.5774
1246.34	40.4505
1247.94	40.7714
1249.55	41.072
1251.16	41.3545
1252.77	41.8314
1254.37	41.1748
1255.98	40.4627
1257.59	39.9443
1259.2	40.038
1260.8	40.0499
1262.41	39.2408
1264.01	39.0155
1265.62	38.7184
1267.22	38.6164
1268.83	37.3677
1270.43	36.882
1272.03	36.3037
1273.64	36.1085
1275.24	35.5445
1276.85	37.4586
1278.45	37.2282
1280.05	37.0882
1281.65	38.3968
1283.25	38.7392
1284.85	39.2324
1286.46	39.5468
1288.06	39.2617
1289.66	39.9229
1291.26	41.004
1292.86	42.5109
1294.46	43.9406
1296.06	45.188
1297.66	46.5244
1299.25	47.5824
1300.85	48.8551
1302.45	50.7192
1304.05	51.3626
1305.65	51.7416
1307.24	52.9778
1308.84	53.9581
1310.43	54.5778
1312.03	55.1192
1313.63	56.4297
1315.22	58.7184
1316.82	59.8385
1318.41	60.7747
1320.01	60.7616
1321.6	60.2476
1323.2	60.3309
1324.79	60.0763
1326.38	60.2688
1327.98	60.1714
1329.57	60.0362
1331.16	59.3898
1332.76	58.8981
1334.35	58.7856
1335.94	57.2751
1337.53	56.4698
1339.12	55.9962
1340.71	54.227
1342.3	53.1359
1343.89	52.3686
1345.48	50.5475
1347.07	49.4262
1348.66	48.2601
1350.25	47.8253
1351.84	47.1077
1353.43	45.7189
1355.01	44.732
1356.6	44.0419
1358.19	41.5769
1359.77	41.318
1361.36	40.4006
1362.95	38.7526
1364.53	38.9873
1366.12	37.626
1367.71	36.9448
1369.29	36.2745
1370.88	35.6928
1372.46	35.5698
1374.04	34.9962
1375.63	34.6315
1377.21	34.6892
1378.8	34.6468
1380.38	34.8009
1381.96	34.7298
1383.54	33.5587
1385.13	32.911
1386.71	32.8917
1388.29	32.442
1389.87	32.3907
1391.45	32.9751
1393.03	33.394
1394.61	33.1968
1396.19	32.3708
1397.77	32.4756
1399.35	32.1808
1400.93	31.4338
1402.51	31.0142
1404.09	30.497
1405.67	31.424
1407.24	31.5191
1408.82	32.8574
1410.4	34.0879
1411.98	34.5162
1413.55	35.459
1415.13	35.3761
1416.71	38.2611
1418.28	40.0297
1419.86	41.6428
1421.43	43.2287
1423.01	45.5186
1424.58	47.361
1426.16	50.5075
1427.73	52.9957
1429.31	55.9265
1430.88	58.1106
1432.45	60.7033
1434.02	63.2088
1435.6	65.9436
1437.17	68.0167
1438.74	70.835
1440.31	71.9931
1441.88	73.409
1443.45	75.8435
1445.03	76.1261
1446.6	77.3358
1448.17	78.7011
1449.74	79.3716
1451.3	79.2013
1452.87	79.1831
1454.44	79.1031
1456.01	79.0011
1457.58	78.4998
1459.15	77.9317
1460.72	78.2225
1462.28	76.3763
1463.85	75.7299
1465.42	75.4209
1466.98	74.8455
1468.55	73.5844
1470.12	72.18
1471.68	71.1134
1473.25	69.4293
1474.81	68.4211
1476.38	67.0168
1477.94	64.8363
1479.51	62.7727
1481.07	61.3779
1482.63	60.2275
1484.2	59.3021
1485.76	58.325
1487.32	57.7287
1488.88	56.2399
1490.45	54.0327
1492.01	52.4768
1493.57	51.3539
1495.13	51.2554
1496.69	48.8158
1498.25	47.3151
1499.81	46.4043
1501.37	46.1642
1502.93	44.6161
1504.49	43.9065
1506.05	41.9634
1507.61	39.9548
1509.17	38.3372
1510.73	37.4483
1512.28	34.8893
1513.84	32.9278
1515.4	31.0355
1516.96	29.6702
1518.51	27.9728
1520.07	26.9912
1521.63	25.8536
1523.18	25.3906
1524.74	24.5673
1526.29	23.9167
1527.85	23.1285
1529.4	22.8389
1530.96	23.4045
1532.51	23.4759
1534.06	23.7165
1535.62	24.819
1537.17	25.8532
1538.72	26.0103
1540.28	25.5492
1541.83	26.5895
1543.38	26.7941
1544.93	27.8897
1546.48	28.4
1548.03	30.1861
1549.59	31.4381
1551.14	31.5682
1552.69	32.7267
1554.24	33.2665
1555.79	32.8444
1557.34	34.489
1558.88	34.8013
1560.43	34.823
1561.98	35.3404
1563.53	37.2381
1565.08	37.4158
1566.62	37.0381
1568.17	36.8444
1569.72	38.493
1571.27	39.3443
1572.81	40.1322
1574.36	39.4508
1575.9	40.0385
1577.45	40.4895
1579	40.4546
1580.54	40.5736
1582.09	41.4516
1583.63	41.4398
1585.17	41.8951
1586.72	43.315
1588.26	42.8522
1589.8	42.294
1591.35	43.8038
1592.89	44.44
1594.43	44.2301
1595.97	44.4419
1597.52	44.8636
1599.06	45.0939
1600.6	46.1219
1602.14	45.9135
1603.68	46.6638
1605.22	46.866
1606.76	46.6689
1608.3	47.2252
1609.84	46.8073
1611.38	46.647
1612.92	47.3327
1614.46	47.2336
1615.99	47.3495
1617.53	48.7332
1619.07	49.5369
1620.61	50.6378
1622.14	51.6437
1623.68	52.8487
1625.22	53.1467
1626.75	53.0675
1628.29	53.0854
1629.82	53.7157
1631.36	53.9097
1632.9	54.2382
1634.43	55.4987
1635.96	55.3543
1637.5	56.512
1639.03	57.7753
1640.57	58.3576
1642.1	58.0868
1643.63	58.4111
1645.16	58.3776
1646.7	59.1278
1648.23	58.6415
1649.76	58.6669
1651.29	57.8325
1652.82	58.5594
1654.36	58.5893
1655.89	59.0213
1657.42	58.5795
1658.95	57.9608
1660.48	56.6749
1662.01	54.8639
1663.53	53.7273
1665.06	51.8499
1666.59	50.8959
1668.12	49.623
1669.65	47.5349
1671.18	45.7816
1672.7	43.444
1674.23	41.7381
1675.76	39.5775
1677.29	37.9984
1678.81	35.5544
1680.34	33.2521
1681.86	31.6292
1683.39	29.84
1684.91	28.0167
1686.44	26.0413
1687.96	24.0203
1689.49	22.8943
1691.01	21.3243
1692.54	20.9211
1694.06	20.2545
1695.58	18.953
1697.11	18.1923
1698.63	16.7893
1700.15	16.4071
1701.67	14.7057
1703.2	14.8809
1704.72	14.9049
1706.24	15.2468
1707.76	15.4236
1709.28	14.5386
1710.8	14.0207
1712.32	13.8102
1713.84	13.1733
1715.36	13.0887
1716.88	12.6281
1718.4	12.8531
1719.91	13.4647
1721.43	12.7654
1722.95	12.4042
1724.47	12.7262
1725.99	12.0375
1727.5	11.8047
1729.02	12.1536
1730.54	11.4443
1732.05	11.046
1733.57	10.295
1735.09	10.1507
1736.6	10.1288
1738.12	9.41704
1739.63	9.60926
1741.15	9.05386
1742.66	8.77943
1744.18	7.81643
1745.69	7.09636
1747.2	6.01211
1748.72	5.08683
1750.23	5.18231
1751.74	4.65825
1753.25	4.3938
1754.77	3.74395
1756.28	3.22867
1757.79	3.10557
1759.3	1.69518
1760.81	1.45167
1762.32	1.59128
1763.83	0.536529
1765.34	0.499419
1766.85	0.720154
1768.36	1.11067
1769.87	0.340112
1771.38	0.0427933
1772.89	-0.0864797
1774.4	-0.40743
1775.91	0.251815
1777.41	0.503569
1778.92	1.66668
1780.43	0.965285
1781.94	0.622656
1783.44	0.336858
1784.95	0.00777723
1786.45	-0.0212992
1787.96	0.425813
1789.47	0.0434901
1790.97	0.926452
1792.47	1.41556
1793.98	0.910655
1795.48	1.13415
1796.99	0.481968
1798.49	0.29307
1800	0.805755
1801.5	0.198394
1803	0.521596
1804.51	0.751542
1806.01	1.1313
1807.51	1.58291
1809.01	2.12416
1810.51	2.36501
1812.02	2.54288
1813.52	2.06991
1815.02	2.59934
1816.52	2.70566
1818.02	2.72306
1819.52	3.11183
1821.02	3.74132
1822.52	4.29887
1824.02	4.29108
1825.51	4.49119
1827.01	4.98769
1828.51	5.67718
1830.01	5.93282
1831.51	6.1421
1833	6.57259
1834.5	6.47616
1836	6.82601
1837.49	7.09997
1838.99	7.22745
1840.49	7.09614
1841.98	6.81403
1843.48	6.72832
1844.97	6.70129
1846.47	7.05022
1847.96	7.05218
1849.46	7.74434
1850.95	8.33821
1852.45	8.11486
1853.94	8.08878
1855.43	7.42165
1856.92	7.82309
1858.42	8.1871
1859.91	8.69008
1861.4	8.13912
1862.89	8.12653
1864.39	8.50713
1865.88	8.55401
1867.37	7.97415
1868.86	7.28898
1870.35	7.81547
1871.84	7.85007
1873.33	7.61051
1874.82	7.36915
1876.31	7.48543
1877.8	7.26957
1879.29	7.61581
1880.77	8.1276
1882.26	8.13755
1882.52	8.39681
1884.02	8.03415
1885.51	8.19999
1887.01	8.60361
1888.5	8.71264
1889.99	9.02084
1891.49	9.21004
1892.98	9.37444
1894.47	9.50374
1895.96	9.66465
1897.46	9.97738
1898.95	10.2657
1900.44	10.383
1901.93	10.2048
1903.42	9.80888
1904.91	9.75376
1906.4	9.14872
1907.89	9.99458
1909.38	10.5253
1910.87	10.5561
1912.36	10.7403
1913.85	10.1013
1915.34	9.92326
1916.83	9.94706
1918.32	9.76844
1919.8	10.06
1921.29	10.3651
1922.78	10.5173
1924.27	10.5267
1925.75	11.1627
1927.24	11.1186
1928.73	11.2688
1930.21	11.667
1931.7	11.7456
1933.18	11.2846
1934.67	10.5456
1936.15	10.9601
1937.64	11.1203
1939.12	10.9686
1940.61	11.2585
1942.09	11.4295
1943.57	11.4782
1945.06	11.4205
1946.54	11.4344
1948.02	10.7349
1949.51	10.9243
1950.99	10.8126
1952.47	10.7199
1953.95	10.418
1955.43	10.3237
1956.91	10.5171
1958.39	10.5679
1959.87	10.6289
1961.36	10.9628
1962.84	10.45
1964.32	10.8851
1965.79	10.6174
1967.27	10.7848
1968.75	10.8183
1970.23	10.2056
1971.71	9.38277
1973.19	9.02886
1974.66	8.902
1976.14	8.22034
1977.62	8.4664
1979.1	8.26855
1980.57	8.59978
1982.05	9.39842
1983.53	8.1211
1985	7.41084
1986.48	7.11332
1987.95	6.76842
1989.43	6.56927
1990.9	6.87143
1992.38	7.5957
1993.85	8.68786
1995.33	8.70537
1996.8	9.46925
1998.27	9.98481
1999.75	10.3166
2001.22	10.2291
2002.69	10.8682
2004.16	10.6214
2005.64	11.5432
2007.11	11.7901
2008.58	11.6822
2010.05	11.827
2011.52	12.5451
2012.99	12.6799
2014.46	12.3874
2015.93	11.8774
2017.4	12.717
2018.87	12.4252
2020.34	12.5831
2021.81	11.9803
2023.28	12.1876
2024.75	12.37
2026.22	12.1213
2027.69	12.6782
2029.15	12.8766
2030.62	13.1947
2032.09	13.8658
2033.56	13.6325
2035.02	14.3615
2036.49	14.5543
2037.95	14.652
2039.42	14.802
2040.89	14.8155
2042.35	14.2164
2043.82	13.5459
2045.28	13.4964
2046.75	13.9035
2048.21	14.0643
2049.67	14.0815
2051.14	14.2653
2052.6	14.3991
2054.06	14.2527
2055.53	14.0205
2056.99	13.5484
2058.45	13.9089
2059.92	14.1377
2061.38	14.2696
2062.84	14.4401
2064.3	14.5746
2065.76	14.9479
2067.22	14.7916
2068.68	14.0907
2070.14	14.7101
2071.6	14.4701
2073.06	14.6451
2074.52	14.7865
2075.98	14.1269
2077.44	14.4203
2078.9	15.3231
2080.36	14.0779
2081.82	13.5469
2083.27	13.8698
2084.73	14.3803
2086.19	13.5882
2087.65	13.2979
2089.1	13.2193
2090.56	13.7191
2092.01	12.6778
2093.47	13.2132
2094.93	13.2312
2096.38	13.8985
2097.84	13.9095
2099.29	13.4368
2100.75	13.7164
2102.2	13.7433
2103.66	13.9884
2105.11	13.9947
2106.56	14.5141
2108.02	15.0967
2109.47	15.4253
2110.92	15.5091
2112.37	16.2788
2113.83	16.2384
2115.28	15.8677
2116.73	15.8683
2118.18	16.761
2119.63	17.4501
2121.09	17.4072
2122.54	17.1088
2123.99	17.133
2125.44	17.3745
2126.89	17.7893
2128.34	18.6827
2129.79	19.0902
2131.23	19.1516
2132.68	19.5476
2134.13	19.4
2135.58	19.3742
2137.03	20.2315
2138.48	20.9862
2139.92	21.5787
2141.37	22.5992
2142.82	23.3737
2144.26	23.2618
2145.71	24.1793
2147.16	24.7525
2148.6	25.9317
2150.05	27.0422
2151.49	27.6595
2152.94	27.9348
2154.38	28.7625
2155.83	29.825
2157.27	30.6402
2158.72	31.0312
2160.16	31.4064
2161.6	32.454
2163.05	33.2326
2164.49	33.9065
2165.93	35.0126
2167.38	35.1857
2168.82	34.9212
2170.26	34.6852
2171.7	34.8191
2173.14	35.5343
2174.58	35.9048
2176.03	36.4951
2177.47	37.231
2178.91	37.4798
2180.35	37.0491
2181.79	37.2912
2183.23	37.1574
2184.67	36.9509
2186.1	35.9743
2187.54	35.6019
2188.98	35.5425
2190.42	34.9104
2191.86	33.4941
2193.3	32.7754
2194.73	32.1857
2196.17	31.1574
2197.61	31.1091
2199.05	30.4231
2200.48	29.2314
2201.92	28.2206
2203.35	26.5852
2204.79	25.8252
2206.22	24.568
2207.66	24.2187
2209.09	24.1248
2210.53	23.2931
2211.96	23.0818
2213.4	22.6276
2214.83	21.5724
2216.27	21.2537
2217.7	21.45
2219.13	21.5228
2220.56	21.0699
2222	20.4801
2223.43	20.9773
2224.86	20.9487
2226.29	19.8695
2227.72	20.4175
2229.16	19.6842
2230.59	19.0297
2232.02	18.3892
2233.45	18.5702
2234.88	17.6134
2236.31	17.4777
2237.74	16.6814
2239.17	16.6425
2240.6	17.1243
2242.03	16.5942
2243.45	17.0695
2244.88	16.9746
2246.31	16.9942
2247.74	16.714
2249.17	16.4035
2250.59	16.0411
2252.02	16.2753
2253.45	16.1241
2254.87	16.0297
2256.3	15.7783
2257.73	15.1685
2259.15	15.4843
2260.58	15.0108
2262	14.3637
2263.43	14.6192
2264.85	14.7459
2266.28	14.16
2267.7	14.4276
2269.13	14.4229
2270.55	13.9692
2271.97	13.4311
2273.4	12.603
2274.82	11.7573
2276.24	11.8196
2277.66	11.2533
2279.09	10.9094
2280.51	10.1811
2281.93	9.56109
2283.35	9.41507
2284.77	8.85213
2286.19	7.88576
2287.61	7.92964
2289.04	7.55246
2290.46	6.96275
2291.88	5.86983
2293.29	5.54763
2294.71	5.4259
2296.13	5.05535
2297.55	4.59175
2298.97	4.93271
2300.39	4.0797
2301.81	4.06099
2303.23	4.56261
2304.64	5.26813
2306.06	5.1453
2307.48	6.40697
2308.89	6.61018
2310.31	7.62852
2311.73	7.13281
2313.14	7.10291
2314.56	7.67406
2315.97	7.65421
2317.39	8.28139
2318.8	8.19549
2320.22	8.45012
2321.63	8.46785
2323.05	8.42874
2324.46	9.04753
2325.88	9.5202
2327.29	9.95792
2328.7	10.1834
2330.12	10.0391
2331.53	9.61556
2332.94	9.73772
2334.35	9.48068
2335.76	8.62998
2337.18	8.59227
2338.59	8.41987
2340	7.11515
2341.41	6.26583
2342.82	4.86848
2344.23	4.03902
2345.64	3.56082
2347.05	3.22547
2348.46	2.47625
2349.87	2.18813
2351.28	1.67724
2352.69	1.25085
2354.1	1.74985
2355.5	0.987769
2356.91	0.648508
2358.32	0.734515
2359.73	-0.0376372
2361.14	-0.230079
2362.54	-0.210064
2363.95	0.320898
2365.36	0.739302
2366.76	1.53392
2368.17	2.32524
2369.58	2.23893
2370.98	3.01406
2372.39	3.95811
2373.79	4.44916
2375.2	4.61175
2376.6	4.33426
2378	4.64589
2379.41	4.03216
2380.81	4.28987
2382.22	4.34092
2383.62	5.06239
2385.02	5.46501
2386.42	5.74683
2387.83	5.31293
2389.23	4.86175
2390.63	5.37397
2392.03	5.82418
2393.43	5.87421
2394.84	6.05217
2396.24	5.70829
2397.64	5.17007
2399.04	4.60734
2400.44	4.0824
2401.84	4.48362
2403.24	4.58278
2404.64	3.98319
2406.04	4.05556
2407.44	3.7014
2408.83	3.06688
2410.23	2.81495
2411.63	2.53424
2413.03	2.33541
2414.43	2.556
2415.83	2.65218
2417.22	2.84798
2418.62	2.85114
2420.02	2.66284
2421.41	2.49279
2422.81	2.49444
2424.21	2.90181
2425.6	2.49027
2427	1.91461
2428.39	1.50238
2429.79	1.39372
2431.18	1.95592
2432.58	1.98781
2433.97	2.87525
2435.36	3.11023
2436.76	3.17665
2438.15	3.54028
2439.54	3.53469
2440.94	4.19831
2442.33	3.97675
2443.72	2.97285
2445.11	2.84957
2446.51	2.84772
2447.9	2.94454
2449.29	2.99098
2450.68	3.41622
2452.07	3.36527
2453.46	3.54823
2454.85	3.83433
2456.24	2.82573
2457.63	2.95134
2459.02	3.33534
2460.41	3.3999
2461.8	3.00002
2463.19	2.98121
2464.58	3.07196
2465.97	3.38036
2467.36	3.77283
2468.75	4.62909
2470.13	4.36611
2471.52	4.29488
2472.91	4.26494
2474.29	4.12235
2475.68	4.38884
2477.07	4.19413
2478.45	4.02338
2479.84	4.25748
2481.22	4.4347
2482.61	5.34132
2484	5.96618
2485.38	5.78206
2486.77	6.13894
2488.15	6.36575
2489.54	6.33747
2490.92	6.3989
2492.3	6.54469
2493.69	6.88475
2495.07	6.71071
2496.45	5.85856
2497.84	5.94713
2499.22	6.05482
2500.6	5.99907
2501.98	6.14627
2503.36	5.79778
2504.74	4.98262
2506.13	4.56592
2507.51	5.01687
2508.89	4.30767
2510.27	3.83116
2511.65	3.01334
2513.03	2.70703
2514.41	3.10417
2515.79	2.86909
2517.17	2.74996
2518.55	2.74728
2519.93	2.60917
2521.3	2.76552
2522.68	3.1001
2524.06	2.49666
2525.44	2.33825
2526.82	2.2937
2528.19	2.20206
2529.57	2.41979
2530.95	2.48035
2532.32	2.79137
2533.7	2.93758
2535.08	3.35098
2536.45	3.56075
2537.83	3.7664
2539.2	3.60915
2540.58	3.83673
2541.95	3.81824
2543.33	3.78163
2544.7	4.29068
2546.08	4.52576
2547.45	5.17366
2548.82	6.53499
2550.2	6.69307
2551.57	6.92451
2552.94	6.33536
2554.32	6.35151
2555.69	6.81472
2557.06	7.12019
2558.43	6.93614
2559.8	6.13161
2561.17	5.47113
2562.55	5.17512
2563.92	4.16353
2565.29	3.47181
2566.66	3.56838
2568.03	3.1423
2569.4	3.72798
2570.77	3.38197
2572.14	2.86467
2573.51	3.03066
2574.88	2.69301
2576.24	2.2859
2577.61	1.92277
2578.98	1.72023
2580.35	1.93597
2581.72	1.92568
2583.09	2.20432
2584.45	1.92381
2585.82	1.69415
2587.19	2.01735
2588.55	2.13719
2589.92	2.44534
2591.28	2.56133
2592.65	2.0379
2594.02	2.53032
2595.38	2.35251
2596.75	2.54649
2598.11	2.45997
2599.48	2.15371
2600.84	2.09646
2602.2	2.5972
2603.57	2.51287
2604.93	2.4423
2606.3	2.75538
2607.66	2.48021
2609.02	2.15904
2610.38	2.36247
2611.75	3.07494
2613.11	4.07383
2614.47	4.55981
2615.83	4.41518
2617.19	3.82762
2618.56	3.4799
2619.92	3.78581
2621.28	3.44129
2622.64	3.64588
2624	3.60829
2625.36	3.51459
2626.72	3.19069
2628.08	2.81678
2629.44	3.51919
2630.8	4.11868
2632.15	4.16146
2633.51	4.34351
2634.87	5.23589
2636.23	5.75695
2637.59	6.4214
2638.94	5.63058
2640.3	5.64512
2641.66	5.30699
2643.02	5.10342
2644.37	5.02523
2645.73	5.33923
2647.08	5.48083
2648.44	5.64397
2649.8	4.92129
2651.15	5.37653
2652.51	5.32219
2653.86	5.65667
2655.22	6.05825
2656.57	5.63444
2657.92	5.99828
2659.28	6.00601
2660.63	5.66697
2661.99	6.1336
2663.34	6.06013
2664.69	5.96021
2666.04	5.90565
2667.4	6.08344
2668.75	5.88909
2670.1	6.01708
2671.45	6.26636
2672.81	6.25761
2674.16	6.43354
2675.51	6.03352
2676.86	6.43841
2678.21	6.78879
2679.56	6.92636
2680.91	6.55615
2682.26	5.94955
2683.61	5.89654
2684.96	5.93123
2686.31	6.84576
2687.66	6.70439
2689	6.47662
2690.35	6.60711
2691.7	6.94083
2693.05	7.44069
2694.4	7.92768
2695.74	8.28642
2697.09	8.97392
2698.44	9.38389
2699.79	9.46659
2701.13	9.9793
2702.48	10.835
2703.82	10.2758
2705.17	9.93602
2706.52	9.87281
2707.86	10.2054
2709.21	10.2649
2710.55	10.6308
2711.9	10.5831
2713.24	10.7442
2714.58	10.4613
2715.93	10.5032
2717.27	10.9009
2718.61	11.1543
2719.96	11.3299
2721.3	11.0201
2722.64	11.2927
2723.99	11.4171
2725.33	11.5708
2726.67	11.2256
2728.01	11.2283
2729.35	11.4215
2730.7	11.5055
2732.04	11.2828
2733.38	11.0508
2734.72	10.7933
2736.06	10.6076
2737.4	10.7015
2738.74	11.1076
2740.08	10.5842
2741.42	10.9328
2742.76	11.1478
2744.09	11.2114
2745.43	10.8281
2746.77	10.802
2748.11	10.7744
2749.45	10.5621
2750.79	10.9407
2752.12	10.2376
2753.46	9.742
2754.8	8.66737
2756.13	8.21173
2757.47	8.11081
2758.81	8.5468
2760.14	8.51433
2761.48	8.46956
2762.81	8.22288
2764.15	8.01788
2765.49	7.6454
2766.82	7.06672
2768.15	7.08436
2769.49	6.81479
2770.82	6.38464
2772.16	6.54142
2773.49	6.49155
2774.82	6.34071
2776.16	5.93198
2777.49	5.23693
2778.82	4.64429
2780.16	4.00259
2781.49	3.98267
2782.82	3.6178
2784.15	2.68946
2785.48	2.42119
2786.81	2.01609
2788.15	1.67848
2789.48	1.82135
2790.81	1.15399
2792.14	0.482163
2793.47	1.11901
2794.8	0.940761
2796.13	0.77084
2797.46	0.464679
2798.79	0.329892
2800.12	0.503772
2801.44	0.83938
2802.77	1.51823
2804.1	2.23438
2805.43	2.79413
2806.76	3.00007
2808.08	3.63268
2809.41	3.71441
2810.74	3.52458
2812.07	3.51512
2813.39	3.9787
2814.72	3.82315
2816.05	4.39348
2817.37	5.03505
2818.7	5.26244
2820.02	6.30682
2821.35	8.35241
2822.67	10.0554
2824	12.3876
2825.32	14.4282
2826.65	16.2698
2827.97	18.006
2829.29	19.9079
2830.62	22.6045
2831.94	24.7426
2833.26	27.507
2834.59	29.8164
2835.91	32.0724
2837.23	34.3865
2838.55	37.2034
2839.88	39.8992
2841.2	43.2428
2842.52	46.6625
2843.84	50.1963
2845.16	54.0406
2846.48	57.6335
2847.8	62.048
2849.12	65.9236
2850.44	70.1138
2851.76	74.9156
2853.08	78.8961
2854.4	83.408
2855.72	88.2714
2857.04	92.6948
2858.36	97.2474
2859.68	101.506
2861	104.961
2862.32	109.572
2863.63	113.009
2864.95	117.148
2866.27	121.26
2867.58	124.175
2868.9	127.176
2870.22	130.217
2871.53	132.815
2872.85	135.445
2874.17	137.69
2875.48	139.737
2876.8	141.521
2878.11	143.705
2879.43	145.639
2880.74	147.771
2882.06	149.745
2883.37	151.897
2884.69	153.527
2886	155.857
2887.31	157.798
2888.63	159.46
2889.94	161.459
2891.25	163.182
2892.57	164.707
2893.88	166.04
2895.19	167.67
2896.5	169.994
2897.82	171.901
2899.13	175.221
2900.44	177.235
2901.75	180.134
2903.06	183.529
2904.37	187.318
2905.68	191.739
2906.99	195.89
2908.3	200.719
2909.61	205.265
2910.92	209.664
2912.23	214.198
2913.54	219.762
2914.85	224.255
2916.16	228.892
2917.46	233.409
2918.77	237.658
2920.08	241.698
2921.39	245.388
2922.7	249.347
2924	251.661
2925.31	253.895
2926.62	255.847
2927.92	257.259
2929.23	257.637
2930.53	258.57
2931.84	258.478
2933.15	257.045
2934.45	256.392
2935.76	255.297
2937.06	253.542
2938.37	251.117
2939.67	248.216
2940.98	245.171
2942.28	241.719
2943.58	238.109
2944.89	233.793
2946.19	229.966
2947.49	225.174
2948.8	220.689
2950.1	215.297
2951.4	211.114
2952.7	205.988
2954.01	200.516
2955.31	195.167
2956.61	189.681
2957.91	184.398
2959.21	179.578
2960.51	174.941
2961.81	170.198
2963.11	166.031
2964.41	161.362
2965.71	156.069
2967.01	151.69
2968.31	147.5
2969.61	143.358
2970.91	139.566
2972.21	135.799
2973.51	132.307
2974.81	128.401
2976.1	124.757
2977.4	121.364
2978.7	117.921
2980	113.633
2981.29	109.836
2982.59	105.566
2983.89	102.041
2985.18	97.8913
2986.48	93.7679
2987.78	89.9039
2989.07	85.0052
2990.37	80.9691
2991.66	76.8353
2992.96	73.4168
2994.25	69.6317
2995.55	66.0453
2996.84	62.6966
2998.14	59.0613
2999.43	55.5041
3000.72	52.7802
3002.02	49.1061
3003.31	45.47
3004.6	42.4178
3005.9	38.9052
3007.19	35.8448
3008.48	32.6462
3009.77	29.5707
3011.07	26.5826
3012.36	24.1013
3013.65	21.5825
3014.94	19.4954
3016.23	17.8331
3017.52	15.5621
3018.81	14.136
3020.1	12.8499
3021.39	12.0827
3022.68	11.379
3023.97	10.0653
3025.26	8.63189
3026.55	7.65507
3027.84	7.72528
3029.13	6.5421
3030.42	6.11166
3031.71	6.15892
3033	5.79998
3034.28	6.03497
3035.57	6.82737
3036.86	7.59467
3038.15	7.39203
3039.43	7.94627
3040.72	7.54919
3042.01	7.61852
3043.29	7.80027
3044.58	7.99398
3045.86	8.04146
3047.15	8.43578
3048.44	9.06166
3049.72	9.25003
3051.01	9.6737
3052.29	10.1034
3053.58	10.8023
3054.86	11.5781
3056.14	12.0099
3057.43	12.7687
3058.71	12.9269
3060	12.7649
3061.28	13.1996
3062.56	12.9809
3063.84	12.8833
3065.13	12.7066
3066.41	11.7059
3067.69	11.4559
3068.97	10.9329
3070.25	10.2271
3071.54	9.59765
3072.82	8.85321
3074.1	7.9014
3075.38	7.37157
3076.66	6.86992
3077.94	6.20277
3079.22	6.07435
3080.5	6.2182
3081.78	5.70403
3083.06	5.36591
3084.34	4.40183
3085.62	4.15171
3086.9	3.75877
3088.17	3.54682
3089.45	3.20423
3090.73	3.37253
3092.01	3.13387
3093.29	2.24981
3094.56	2.34692
3095.84	2.3557
3097.12	2.09376
3098.4	2.11907
3099.67	1.53175
3100.95	1.23437
3102.22	0.633881
3103.5	0.621269
3104.77	0.54095
3106.05	1.40353
3107.33	1.46271
3108.6	1.27503
3109.88	0.729614
3111.15	1.16515
3112.43	1.47025
3113.7	1.96247
3114.97	2.19387
3116.25	2.27947
3117.52	2.73947
3118.79	3.28683
3120.07	3.45483
3121.34	4.15448
3122.61	4.27076
3123.88	4.47535
3125.16	5.27854
3126.43	5.30026
3127.7	5.16729
3128.97	4.79858
3130.24	5.21278
3131.51	5.427
3132.78	5.56972
3134.05	5.74845
3135.33	5.71964
3136.59	6.07745
3137.86	6.36395
3139.14	6.92942
3140.41	7.37624
3141.67	8.0785
3142.94	8.46581
3144.21	8.70541
3145.48	9.18486
3146.75	9.98314
3148.02	10.7146
3149.28	10.5191
