#Acq. time (s)=	45
#Accumulations=	2
#Range (cm-¹)=	200...3150
#Windows=	2
#Auto scanning=	Off
#Autofocus=	Off
#Macrospot=	Off
#AutoExposure=	Off
#Spike filter=	Multiple accum.
#Delay time (s)=	0
#Binning=	1
#Readout mode=	Signal
#DeNoise=	Off
#ICS correction=	On
#Dark correction=	Off
#Inst. Process=	Off
#Detector Gain=	Best Dynamic Range
#Detector ADC=	20 kHz       
#Detector temperature (°C)=	-69.85
#Instrument=	LabRAM HR Evol
#Detector=	Synapse
#Objective=	x100
#Grating=	600 gr/mm
#ND Filter=	100%
#Laser (nm)=	532 
#Hole=	100.021
#Range=	Auto
#Laser Pol.=	No
#Raman. Pol.=	No
#Laser Pol. (°)=	-0.0007625
#Raman Pol. (°)=	89.9995
#Collection=	Microscope
#StageXY=	Marzhauser
#StageZ=	Marzhauser
#X (µm)=	-630.6
#Y (µm)=	-1700.6
#Z (µm)=	89.1
#Full time(mm:ss)=	3:18
#Project=	
#Sample=	
#Site=	
#Title=	Mb_10_14_46_2x_45s_532 nm_x100_100%_600 gr_mm
#Remark=	
#Date=	11.07.2022 12:09
#Acquired=	11.07.2022 12:09:07
#Base:Fit=	10.08.2022 10:21:11
#Base:Sub=	10.08.2022 10:21:41
#Filter:Polynom=	16.08.2022 10:17:53
#AxisType[0]=Intens
#AxisUnit[0]=Cnt
#AxisType[1]=Spectr
#AxisUnit[1]=1/cm
200.388	42.0239
202.204	37.4955
204.019	32.0262
205.832	26.3525
207.646	21.7282
209.459	17.7121
211.274	14.3057
213.087	12.4549
214.899	10.367
216.711	9.77138
218.524	9.33008
220.335	10.5686
222.146	12.4966
223.956	15.7455
225.766	16.849
227.576	19.2002
229.388	21.55
231.197	21.3432
233.005	23.1715
234.813	24.3616
236.621	25.3794
238.429	25.6758
240.236	26.2694
242.045	27.8047
243.852	28.9296
245.658	29.9327
247.464	30.6653
249.269	32.7264
251.074	33.7978
252.879	34.3846
254.683	35.3501
256.487	35.7134
258.291	35.1615
260.094	34.8302
261.897	36.1391
263.702	35.108
265.504	35.5006
267.306	35.4579
269.108	35.5719
270.909	34.2194
272.71	33.2194
274.511	31.322
276.311	28.7108
278.111	26.154
279.91	23.9969
281.709	22.8045
283.508	20.5654
285.306	18.116
287.105	15.9415
288.9	13.544
290.698	10.9736
292.495	9.67357
294.291	9.13538
296.088	7.63192
297.884	6.54164
299.679	6.44171
301.475	4.94137
303.27	4.50905
305.064	3.65451
306.858	4.00482
308.652	3.97927
310.444	5.03404
312.237	6.15039
314.03	5.92148
315.822	3.21492
317.615	2.6298
319.406	2.05354
321.198	0.857825
322.987	1.00444
324.778	1.4698
326.568	1.25684
328.358	0.672096
330.148	0.732513
331.935	1.04366
333.724	0.213979
335.513	-0.771505
337.301	-2.40594
339.089	-1.64896
340.875	-2.42916
342.662	-2.91531
344.449	-2.1643
346.236	-1.18665
348.02	1.32788
349.806	4.07918
351.592	6.0472
353.375	7.74634
355.16	11.6523
356.944	14.4895
358.728	17.5427
360.51	20.2235
362.294	22.0966
364.077	24.1011
365.858	25.9007
367.64	30.2419
369.422	33.1187
371.202	36.8667
372.983	37.8457
374.764	40.0005
376.543	42.3218
378.324	44.1867
380.102	46.3922
381.881	50.1909
383.661	51.5218
385.438	53.2033
387.216	55.9507
388.993	57.624
390.771	57.5447
392.548	59.29
394.324	59.7573
396.101	59.2546
397.875	59.5104
399.651	59.6776
401.425	59.3645
403.201	57.5303
404.974	55.5702
406.749	55.2525
408.524	54.1901
410.296	52.7285
412.07	51.2434
413.841	48.0251
415.614	43.727
417.385	39.8008
419.156	37.6626
420.928	35.1892
422.698	31.7534
424.469	28.867
426.238	26.5582
428.009	25.7299
429.777	22.8164
431.548	20.7232
433.315	19.2884
435.083	18.5297
436.852	18.2025
438.618	17.0235
440.387	15.3015
442.153	15.4019
443.919	15.4155
445.686	14.2053
447.451	12.9993
449.218	10.8859
450.982	8.93483
452.746	7.71434
454.512	6.94218
456.275	7.54824
458.038	6.76653
459.803	8.21151
461.565	7.8281
463.327	8.52358
465.091	9.58615
466.852	9.69704
468.613	10.7175
470.374	13.0546
472.136	13.5653
473.896	14.6368
475.655	15.6668
477.415	15.8114
479.176	15.9739
480.934	17.1599
482.692	18.14
484.45	19.8271
486.21	22.6272
487.967	24.8661
489.724	26.4428
491.481	27.8169
493.237	28.9532
494.995	30.5639
496.75	31.6319
498.506	33.285
500.26	33.3909
502.015	33.7015
503.769	35.903
505.525	38.1124
507.279	40.3829
509.032	41.3836
510.785	42.0645
512.537	43.101
514.289	43.7765
516.041	44.5816
517.793	45.3048
519.546	46.1572
521.297	47.2324
523.047	47.9457
524.797	48.5038
526.547	47.9968
528.297	48.2848
530.046	48.0169
531.795	48.3418
533.543	47.0871
535.291	45.8889
537.039	44.2052
538.787	43.4018
540.534	42.0986
542.281	42.195
544.027	41.6156
545.773	41.0117
547.519	40.4243
549.264	37.9467
551.01	36.5209
552.754	34.7756
554.499	32.3767
556.243	31.5872
557.987	30.0503
559.73	26.8329
561.474	25.0827
563.216	23.5931
564.959	21.2741
566.701	19.5741
568.441	18.3984
570.182	16.306
571.923	14.6004
573.664	12.5982
575.405	10.4288
577.145	8.44694
578.885	7.67303
580.624	7.1954
582.361	6.97469
584.1	6.3864
585.839	6.08919
587.577	5.97829
589.315	5.61985
591.052	5.03448
592.787	6.27198
594.524	6.06721
596.26	5.73334
597.997	4.96246
599.732	4.56574
601.466	5.48123
603.201	7.18061
604.936	8.47327
606.67	9.0749
608.403	10.5392
610.136	10.7204
611.87	11.547
613.603	13.087
615.334	14.8973
617.067	15.4861
618.799	17.0467
620.529	16.2405
622.26	17.5487
623.991	18.3542
625.72	19.7106
627.451	19.9926
629.181	21.0249
630.909	21.1059
632.638	22.671
634.368	23.1193
636.095	23.5029
637.823	23.5775
639.551	23.9977
641.277	24.7504
643.005	25.3166
644.73	25.4748
646.457	26.2082
648.184	26.4383
649.908	25.367
651.634	24.4707
653.357	24.3764
655.083	24.0956
656.806	23.5193
658.53	23.4078
660.253	23.2049
661.977	23.5916
663.7	24.267
665.422	24.8568
667.145	24.9886
668.865	23.4342
670.588	22.6306
672.308	22.0651
674.027	22.0292
675.749	21.9356
677.468	23.1657
679.188	23.5635
680.907	22.1923
682.627	20.6156
684.345	21.3208
686.064	21.8758
687.781	22.5077
689.498	21.9919
691.216	22.4037
692.932	22.1163
694.65	22.6552
696.366	22.4687
698.081	23.3889
699.797	23.4007
701.512	23.4924
703.228	23.8606
704.942	24.4065
706.655	24.5615
708.371	26.7161
710.083	27.6693
711.796	28.3203
713.51	28.5507
715.222	29.1022
716.934	29.8045
718.645	31.1008
720.358	32.6321
722.068	33.9591
723.779	34.7769
725.49	36.3014
727.2	37.7153
728.909	37.5348
730.618	37.6259
732.329	38.1623
734.037	38.1266
735.745	38.2983
737.453	39.5905
739.16	41.7956
740.869	41.9023
742.576	42.4519
744.282	42.3868
745.988	44.0599
747.694	44.7593
749.401	45.9864
751.107	47.6563
752.811	47.9361
754.516	48.9011
756.22	50.7766
757.924	51.3387
759.627	52.3558
761.332	53.448
763.035	53.6316
764.738	53.8541
766.44	54.4801
768.142	55.2087
769.843	56.8301
771.544	57.6614
773.245	58.3566
774.946	59.1192
776.646	60.7612
778.346	60.9779
780.046	62.0663
781.745	62.5297
783.444	63.1233
785.143	63.2743
786.841	64.2897
788.539	65.4267
790.237	66.3354
791.934	67.1382
793.631	68.8231
795.328	68.3668
797.024	68.1534
798.72	68.0144
800.416	68.8097
802.112	69.8198
803.807	70.961
805.502	71.1718
807.196	70.91
808.89	70.3825
810.584	70.1494
812.278	70.5379
813.971	70.0406
815.664	70.587
817.354	69.9253
819.047	69.4711
820.739	70.0217
822.43	70.029
824.122	70.7104
825.813	69.5997
827.503	69.788
829.192	71.015
830.882	71.7043
832.571	71.2997
834.261	71.2531
835.95	70.3808
837.637	68.8629
839.325	69.1609
841.013	67.9813
842.701	67.6933
844.389	67.1636
846.074	66.6807
847.761	65.1446
849.447	64.4107
851.131	63.235
852.817	61.5064
854.503	59.903
856.188	58.4628
857.871	56.2191
859.556	55.1794
861.24	52.526
862.922	51.7967
864.606	50.3252
866.289	48.3787
867.97	45.8554
869.653	45.054
871.336	45.545
873.016	46.4171
874.698	46.035
876.379	45.1481
878.058	45.4457
879.739	45.1049
881.418	45.2669
883.098	44.9216
884.778	44.6153
886.456	45.4232
888.135	45.0391
889.812	44.6536
891.49	45.0833
893.167	43.7495
894.845	43.9694
896.523	44.6517
898.198	45.0264
899.875	45.3603
901.55	44.7201
903.226	46.2595
904.901	47.2575
906.576	46.4227
908.25	46.7733
909.925	47.3708
911.598	47.0903
913.271	47.3452
914.945	46.3968
916.617	47.3398
918.291	47.8128
919.962	48.5108
921.635	48.536
923.306	48.1714
924.978	47.1104
926.648	46.2714
928.318	45.1072
929.989	45.2047
931.659	44.3776
933.328	44.0417
934.998	42.3341
936.666	40.8932
938.336	39.9845
940.004	39.0071
941.671	38.7355
943.34	38.0833
945.007	36.3285
946.673	36.9643
948.339	35.5009
950.007	35.8141
951.672	37.0831
953.337	37.8712
955.004	38.304
956.669	37.6132
958.333	36.2367
959.997	35.1005
961.662	35.064
963.326	36.0499
964.989	35.502
966.651	36.8764
968.315	38.7118
969.977	41.3106
971.639	41.0121
973.301	42.9683
974.962	43.4451
976.624	44.7954
978.285	47.3222
979.945	48.8195
981.605	49.466
983.264	49.0757
984.924	49.2591
986.583	49.4236
988.243	49.8023
989.901	48.961
991.56	49.0034
993.217	49.6521
994.875	49.4636
996.532	50.4794
998.188	52.0515
999.845	54.3361
1001.5	53.7835
1003.16	54.2191
1004.81	54.6631
1006.47	54.0298
1008.12	55.0464
1009.78	56.2115
1011.43	57.8133
1013.09	59.4776
1014.74	60.0984
1016.39	61.7544
1018.05	63.0536
1019.7	65.6161
1021.35	66.941
1023	67.9344
1024.65	68.104
1026.31	67.9697
1027.96	68.4162
1029.61	68.5546
1031.26	68.7453
1032.91	68.4688
1034.56	67.3625
1036.21	64.5725
1037.86	63.8743
1039.51	62.5768
1041.16	62.0579
1042.8	61.515
1044.45	61.3226
1046.1	61.6306
1047.75	60.5788
1049.39	60.779
1051.04	59.2731
1052.69	57.2256
1054.33	53.9113
1055.98	51.8506
1057.62	48.6618
1059.27	46.7169
1060.91	43.4107
1062.56	40.2008
1064.2	36.6301
1065.85	34.2341
1067.49	30.8881
1069.13	28.648
1070.77	26.9876
1072.42	24.1763
1074.06	22.5365
1075.7	21.4581
1077.34	19.5325
1078.98	18.5825
1080.62	18.6756
1082.27	18.1491
1083.91	16.1279
1085.55	16.433
1087.18	15.7068
1088.82	14.3073
1090.46	15.7687
1092.1	16.5993
1093.74	17.6347
1095.38	18.9274
1097.02	20.4536
1098.65	21.2221
1100.29	21.2716
1101.93	22.5053
1103.56	22.7494
1105.2	22.5183
1106.84	22.2418
1108.47	22.6238
1110.11	22.4471
1111.74	21.8584
1113.38	21.8845
1115.01	21.0446
1116.64	20.687
1118.28	20.3182
1119.91	20.6553
1121.54	20.3008
1123.18	20.7328
1124.81	19.8456
1126.44	19.4297
1128.07	19.3857
1129.7	19.434
1131.33	19.419
1132.97	18.6904
1134.6	18.2058
1136.23	17.3508
1137.86	16.5268
1139.49	16.0655
1141.11	15.6948
1142.74	15.6057
1144.37	14.0067
1146	13.5945
1147.63	13.4462
1149.26	11.8951
1150.88	12.001
1152.51	10.5448
1154.14	9.00137
1155.76	9.16699
1157.39	8.3342
1159.01	8.13174
1160.64	7.96468
1162.27	6.13068
1163.89	5.35467
1165.51	4.65186
1167.14	4.83756
1168.76	4.54901
1170.39	5.19726
1172.01	6.18928
1173.63	7.26036
1175.25	7.6052
1176.88	9.06954
1178.5	9.17626
1180.12	9.96053
1181.74	11.2252
1183.36	13.1571
1184.98	14.0741
1186.6	13.9971
1188.22	15.2712
1189.84	15.5857
1191.46	15.4065
1193.08	15.439
1194.7	16.1744
1196.32	16.5575
1197.94	18.0495
1199.55	19.2766
1201.17	19.9094
1202.79	21.4007
1204.41	24.1331
1206.02	26.576
1207.64	28.6131
1209.25	31.9542
1210.87	33.6353
1212.48	35.9423
1214.1	36.5594
1215.71	37.8663
1217.33	40.7836
1218.94	42.2532
1220.56	43.9295
1222.17	46.4595
1223.79	48.5449
1225.4	49.3692
1227.01	52.1626
1228.62	53.9358
1230.23	55.2945
1231.85	56.7739
1233.46	58.9058
1235.07	60.5873
1236.68	61.5222
1238.29	60.8618
1239.9	62.0782
1241.51	62.6175
1243.12	64.1469
1244.73	66.1674
1246.34	66.8719
1247.94	67.2977
1249.55	68.3761
1251.16	69.709
1252.77	69.468
1254.37	68.9129
1255.98	69.3598
1257.59	69.9236
1259.2	69.7903
1260.8	71.1026
1262.41	70.1634
1264.01	68.9275
1265.62	67.4536
1267.22	65.89
1268.83	65.4433
1270.43	63.5485
1272.03	62.8281
1273.64	62.6395
1275.24	63.5071
1276.85	63.7187
1278.45	64.8006
1280.05	65.4422
1281.65	67.1453
1283.25	68.2955
1284.85	68.8007
1286.46	69.9052
1288.06	70.6796
1289.66	72.0559
1291.26	71.4635
1292.86	72.6281
1294.46	73.6798
1296.06	75.1444
1297.66	76.29
1299.25	76.265
1300.85	77.3484
1302.45	78.7034
1304.05	79.2555
1305.65	80.2079
1307.24	81.5624
1308.84	82.5862
1310.43	83.0193
1312.03	84.2639
1313.63	85.2016
1315.22	85.612
1316.82	86.3901
1318.41	87.6571
1320.01	89.6588
1321.6	89.7107
1323.2	89.2267
1324.79	88.6317
1326.38	89.2764
1327.98	89.8668
1329.57	89.9296
1331.16	89.9637
1332.76	88.2505
1334.35	88.2231
1335.94	88.4922
1337.53	88.701
1339.12	87.4902
1340.71	85.99
1342.3	83.9573
1343.89	82.8941
1345.48	82.5045
1347.07	81.8268
1348.66	80.8608
1350.25	79.8249
1351.84	79.1616
1353.43	78.2615
1355.01	77.7592
1356.6	77.587
1358.19	76.3342
1359.77	74.5841
1361.36	74.5694
1362.95	72.3412
1364.53	72.1973
1366.12	72.0199
1367.71	69.9388
1369.29	67.9887
1370.88	67.169
1372.46	66.3094
1374.04	65.3057
1375.63	62.59
1377.21	62.3596
1378.8	61.2423
1380.38	60.3765
1381.96	59.7938
1383.54	58.8933
1385.13	58.6356
1386.71	57.2789
1388.29	57.2025
1389.87	57.0276
1391.45	56.7995
1393.03	55.2496
1394.61	56.2378
1396.19	54.5911
1397.77	52.5607
1399.35	51.7523
1400.93	50.6784
1402.51	50.8735
1404.09	51.8057
1405.67	52.518
1407.24	52.8463
1408.82	53.2521
1410.4	54.8948
1411.98	56.4868
1413.55	58.9194
1415.13	60.9268
1416.71	63.8918
1418.28	64.1893
1419.86	67.1347
1421.43	70.0055
1423.01	73.4927
1424.58	77.0003
1426.16	80.7617
1427.73	85.3575
1429.31	90.3088
1430.88	94.6782
1432.45	99.4751
1434.02	103.576
1435.6	106.792
1437.17	109.377
1438.74	113.571
1440.31	116.653
1441.88	117.879
1443.45	120.338
1445.03	121.626
1446.6	123.794
1448.17	125.329
1449.74	125.872
1451.3	125.853
1452.87	125.612
1454.44	124.911
1456.01	124.713
1457.58	122.956
1459.15	122.133
1460.72	119.693
1462.28	118.029
1463.85	115.812
1465.42	114.433
1466.98	112.959
1468.55	109.5
1470.12	106.686
1471.68	103.65
1473.25	101.801
1474.81	97.7438
1476.38	95.3177
1477.94	93.823
1479.51	90.853
1481.07	88.6992
1482.63	86.0599
1484.2	83.8563
1485.76	81.7179
1487.32	79.4979
1488.88	77.6548
1490.45	75.802
1492.01	72.1593
1493.57	69.6008
1495.13	68.4133
1496.69	66.7443
1498.25	67.0501
1499.81	66.3913
1501.37	65.2556
1502.93	64.1593
1504.49	63.5846
1506.05	62.5882
1507.61	60.8041
1509.17	58.6163
1510.73	56.7277
1512.28	53.7737
1513.84	51.9149
1515.4	51.0098
1516.96	50.1105
1518.51	48.243
1520.07	47.4641
1521.63	46.9969
1523.18	45.2499
1524.74	43.8459
1526.29	42.2539
1527.85	40.5883
1529.4	39.9686
1530.96	39.0567
1532.51	37.6112
1534.06	38.0319
1535.62	38.2162
1537.17	38.1339
1538.72	37.8977
1540.28	38.707
1541.83	38.2914
1543.38	40.042
1544.93	39.6493
1546.48	39.2113
1548.03	39.9959
1549.59	39.9378
1551.14	39.7006
1552.69	40.4287
1554.24	40.0359
1555.79	40.5148
1557.34	40.3055
1558.88	40.8838
1560.43	41.4374
1561.98	41.0486
1563.53	41.7432
1565.08	41.5015
1566.62	42.3503
1568.17	43.3997
1569.72	43.9104
1571.27	46.6645
1572.81	48.853
1574.36	50.5901
1575.9	51.7577
1577.45	51.6233
1579	53.3924
1580.54	55.0419
1582.09	57.1502
1583.63	59.0432
1585.17	60.6913
1586.72	62.8897
1588.26	65.0279
1589.8	66.4354
1591.35	68.2854
1592.89	70.1187
1594.43	71.5743
1595.97	72.2988
1597.52	73.342
1599.06	75.1242
1600.6	75.0078
1602.14	76.5869
1603.68	76.5332
1605.22	76.5396
1606.76	77.2804
1608.3	78.7758
1609.84	78.8271
1611.38	79.8544
1612.92	79.5499
1614.46	80.1043
1615.99	80.3185
1617.53	81.3854
1619.07	81.2561
1620.61	81.5938
1622.14	80.8808
1623.68	80.6548
1625.22	80.7219
1626.75	80.7643
1628.29	80.6504
1629.82	82.0379
1631.36	82.003
1632.9	83.7013
1634.43	85.4214
1635.96	86.7317
1637.5	88.4017
1639.03	89.7525
1640.57	92.0794
1642.1	93.444
1643.63	95.9971
1645.16	98.4267
1646.7	100.008
1648.23	102.064
1649.76	103.549
1651.29	104.83
1652.82	105.752
1654.36	107.313
1655.89	109.963
1657.42	109.82
1658.95	109.556
1660.48	108.462
1662.01	107.121
1663.53	106.219
1665.06	104.401
1666.59	102.509
1668.12	101.062
1669.65	99.3507
1671.18	97.3766
1672.7	95.5169
1674.23	93.6311
1675.76	90.2118
1677.29	86.5876
1678.81	83.7423
1680.34	81.0045
1681.86	78.0876
1683.39	75.28
1684.91	72.4712
1686.44	68.9176
1687.96	65.1244
1689.49	61.1272
1691.01	57.7745
1692.54	53.2343
1694.06	49.7416
1695.58	45.476
1697.11	41.7698
1698.63	38.0423
1700.15	35.9546
1701.67	33.4158
1703.2	31.1253
1704.72	29.1559
1706.24	28.0442
1707.76	26.9463
1709.28	25.4048
1710.8	23.9794
1712.32	22.0963
1713.84	20.9121
1715.36	20.3562
1716.88	19.1201
1718.4	18.3844
1719.91	17.4661
1721.43	16.3773
1722.95	14.9757
1724.47	14.0216
1725.99	12.5579
1727.5	11.263
1729.02	12.0431
1730.54	11.0935
1732.05	9.92884
1733.57	9.09802
1735.09	8.88255
1736.6	9.28131
1738.12	9.97954
1739.63	9.85498
1741.15	9.93411
1742.66	10.0405
1744.18	10.2395
1745.69	9.81519
1747.2	10.5559
1748.72	10.6014
1750.23	10.2582
1751.74	9.85736
1753.25	10.4425
1754.77	10.2343
1756.28	10.0348
1757.79	8.99673
1759.3	8.85912
1760.81	7.82055
1762.32	7.35864
1763.83	6.91515
1765.34	6.15327
1766.85	5.82554
1768.36	5.2984
1769.87	5.19005
1771.38	4.8764
1772.89	4.16067
1774.4	4.05431
1775.91	4.625
1777.41	3.30501
1778.92	2.48212
1780.43	2.06097
1781.94	2.07842
1783.44	1.93707
1784.95	1.23911
1786.45	1.36078
1787.96	1.11902
1789.47	1.1525
1790.97	0.940518
1792.47	0.279356
1793.98	-0.552067
1795.48	-1.00627
1796.99	-1.11847
1798.49	-0.613091
1800	-0.350886
1801.5	-0.0682376
1803	1.13137
1804.51	2.58971
1806.01	2.3684
1807.51	2.95032
1809.01	3.66911
1810.51	4.07786
1812.02	4.13905
1813.52	4.3299
1815.02	4.33598
1816.52	4.72973
1818.02	4.78256
1819.52	5.12702
1821.02	5.56672
1822.52	6.49545
1824.02	6.33699
1825.51	6.96029
1827.01	6.90059
1828.51	6.40961
1830.01	6.40981
1831.51	6.7698
1833	6.86868
1834.5	6.69036
1836	6.60926
1837.49	7.0647
1838.99	6.96572
1840.49	6.3915
1841.98	6.27207
1843.48	6.47222
1844.97	6.1632
1846.47	6.18605
1847.96	5.61098
1849.46	5.63407
1850.95	5.7457
1852.45	5.4706
1853.94	5.55131
1855.43	6.59749
1856.92	6.33187
1858.42	6.18209
1859.91	6.02814
1861.4	5.66791
1862.89	5.2877
1864.39	4.81111
1865.88	3.93793
1867.37	3.57956
1868.86	3.16795
1870.35	3.95088
1871.84	3.90268
1873.33	4.05061
1874.82	4.23076
1876.31	3.93086
1877.8	4.33686
1879.29	4.443
1880.77	3.68347
1882.26	3.60376
1882.52	4.26887
1884.02	4.28401
1885.51	3.96274
1887.01	4.46426
1888.5	3.43516
1889.99	2.59079
1891.49	2.49035
1892.98	1.85519
1894.47	1.81035
1895.96	1.78853
1897.46	1.4811
1898.95	1.07946
1900.44	0.54319
1901.93	0.866774
1903.42	0.808465
1904.91	0.836301
1906.4	0.993907
1907.89	1.66248
1909.38	2.10675
1910.87	3.09074
1912.36	3.29314
1913.85	2.82511
1915.34	2.87336
1916.83	3.46065
1918.32	4.36841
1919.8	5.2484
1921.29	5.69013
1922.78	6.48905
1924.27	6.6576
1925.75	6.51398
1927.24	6.83372
1928.73	7.07228
1930.21	7.02949
1931.7	6.85383
1933.18	6.67676
1934.67	6.67642
1936.15	6.73329
1937.64	7.09504
1939.12	6.93246
1940.61	7.41829
1942.09	7.56776
1943.57	7.99787
1945.06	7.96973
1946.54	8.68806
1948.02	8.35414
1949.51	7.53625
1950.99	7.80618
1952.47	7.62262
1953.95	7.55733
1955.43	7.26618
1956.91	6.24186
1958.39	5.47193
1959.87	5.55529
1961.36	5.03426
1962.84	2.88012
1964.32	3.09356
1965.79	3.68337
1967.27	3.8551
1968.75	4.45468
1970.23	4.36922
1971.71	4.21132
1973.19	4.94523
1974.66	5.34732
1976.14	5.53111
1977.62	5.53799
1979.1	6.12781
1980.57	6.81111
1982.05	6.63966
1983.53	6.46169
1985	6.7251
1986.48	6.70779
1987.95	6.23243
1989.43	7.13689
1990.9	8.19599
1992.38	8.54795
1993.85	8.68294
1995.33	8.5864
1996.8	9.16581
1998.27	9.37593
1999.75	9.89534
2001.22	10.193
2002.69	9.86668
2004.16	10.1344
2005.64	9.11235
2007.11	9.26698
2008.58	9.22614
2010.05	9.79987
2011.52	10.0079
2012.99	9.32857
2014.46	9.29138
2015.93	10.0367
2017.4	10.5928
2018.87	10.4634
2020.34	10.2739
2021.81	9.81895
2023.28	9.32633
2024.75	9.63006
2026.22	9.15407
2027.69	8.93163
2029.15	7.67107
2030.62	7.16326
2032.09	7.05999
2033.56	6.63529
2035.02	5.90404
2036.49	5.70632
2037.95	7.23687
2039.42	7.37672
2040.89	7.60888
2042.35	7.74893
2043.82	7.2486
2045.28	7.59257
2046.75	7.59747
2048.21	6.70214
2049.67	6.28272
2051.14	6.31326
2052.6	5.85945
2054.06	5.37111
2055.53	4.74223
2056.99	5.2642
2058.45	5.46921
2059.92	5.64817
2061.38	5.00202
2062.84	5.89272
2064.3	6.17592
2065.76	6.73887
2067.22	7.09449
2068.68	6.51058
2070.14	6.69374
2071.6	6.26219
2073.06	5.40837
2074.52	5.40596
2075.98	5.48782
2077.44	5.82616
2078.9	5.5089
2080.36	6.15591
2081.82	6.53592
2083.27	7.64675
2084.73	8.72566
2086.19	8.88374
2087.65	9.04449
2089.1	10.3317
2090.56	10.1953
2092.01	9.97712
2093.47	10.1293
2094.93	10.0545
2096.38	10.3024
2097.84	10.6109
2099.29	10.3737
2100.75	10.3477
2102.2	10.2014
2103.66	10.5382
2105.11	11.4713
2106.56	12.5959
2108.02	13.3951
2109.47	14.0933
2110.92	15.0293
2112.37	15.2307
2113.83	15.9791
2115.28	16.5101
2116.73	16.2199
2118.18	16.431
2119.63	16.2766
2121.09	16.7757
2122.54	16.9431
2123.99	17.5036
2125.44	17.9454
2126.89	18.2929
2128.34	19.0361
2129.79	19.5331
2131.23	20.1397
2132.68	20.2494
2134.13	20.6639
2135.58	21.1107
2137.03	21.1445
2138.48	21.6613
2139.92	21.252
2141.37	21.732
2142.82	22.3114
2144.26	22.9985
2145.71	23.1285
2147.16	24.4923
2148.6	24.6489
2150.05	25.3845
2151.49	25.9731
2152.94	27.2595
2154.38	28.1541
2155.83	29.8413
2157.27	30.9066
2158.72	31.4681
2160.16	32.0442
2161.6	33.6422
2163.05	34.0657
2164.49	34.4463
2165.93	35.495
2167.38	35.8994
2168.82	37.1862
2170.26	38.2191
2171.7	39.0139
2173.14	39.5596
2174.58	40.234
2176.03	41.0995
2177.47	41.719
2178.91	42.2408
2180.35	42.0867
2181.79	42.6839
2183.23	43.2235
2184.67	43.3574
2186.1	42.8917
2187.54	42.8206
2188.98	41.9175
2190.42	41.9276
2191.86	41.5599
2193.3	40.89
2194.73	39.8069
2196.17	39.0574
2197.61	38.2967
2199.05	36.7106
2200.48	36.4295
2201.92	35.1082
2203.35	34.3388
2204.79	33.1643
2206.22	32.2578
2207.66	30.6895
2209.09	29.667
2210.53	28.9779
2211.96	27.8142
2213.4	26.5819
2214.83	25.0554
2216.27	24.5699
2217.7	23.0139
2219.13	22.557
2220.56	21.1391
2222	20.4257
2223.43	20.0986
2224.86	19.4702
2226.29	18.9683
2227.72	17.7826
2229.16	16.8919
2230.59	16.2913
2232.02	14.9777
2233.45	14.1473
2234.88	12.9549
2236.31	12.0482
2237.74	11.6768
2239.17	10.8226
2240.6	10.8839
2242.03	10.1738
2243.45	8.36338
2244.88	7.50634
2246.31	7.08605
2247.74	7.32145
2249.17	7.15919
2250.59	7.35449
2252.02	7.22747
2253.45	7.49212
2254.87	7.16215
2256.3	6.9506
2257.73	6.33778
2259.15	6.24437
2260.58	5.90282
2262	5.5846
2263.43	4.77481
2264.85	4.39766
2266.28	4.95616
2267.7	4.9459
2269.13	5.70805
2270.55	6.49216
2271.97	7.02935
2273.4	6.77016
2274.82	6.98732
2276.24	7.60525
2277.66	7.90286
2279.09	7.98737
2280.51	7.74874
2281.93	8.51211
2283.35	7.98694
2284.77	8.48758
2286.19	8.86695
2287.61	9.59935
2289.04	9.70366
2290.46	8.80681
2291.88	8.4346
2293.29	7.63473
2294.71	7.22167
2296.13	6.79296
2297.55	6.69675
2298.97	6.92692
2300.39	7.07843
2301.81	7.22145
2303.23	6.9268
2304.64	7.0198
2306.06	7.19732
2307.48	7.27631
2308.89	8.09032
2310.31	7.91494
2311.73	8.77908
2313.14	8.70386
2314.56	8.59367
2315.97	8.67996
2317.39	9.0803
2318.8	9.6825
2320.22	10.0998
2321.63	10.1841
2323.05	9.76284
2324.46	8.84574
2325.88	8.37229
2327.29	8.08304
2328.7	7.62124
2330.12	7.07361
2331.53	6.86756
2332.94	5.9367
2334.35	6.04591
2335.76	5.99925
2337.18	6.24222
2338.59	6.25459
2340	6.02517
2341.41	5.62759
2342.82	5.08049
2344.23	5.67151
2345.64	5.45962
2347.05	5.35448
2348.46	4.71869
2349.87	4.17207
2351.28	3.43762
2352.69	2.97763
2354.1	2.0013
2355.5	2.43756
2356.91	1.62284
2358.32	1.01356
2359.73	-0.655817
2361.14	-1.1982
2362.54	-0.24584
2363.95	-0.443381
2365.36	-0.215798
2366.76	0.148533
2368.17	0.325603
2369.58	0.396335
2370.98	0.392312
2372.39	1.06721
2373.79	1.83408
2375.2	3.05652
2376.6	3.4454
2378	3.75226
2379.41	4.824
2380.81	3.94596
2382.22	4.94266
2383.62	4.88604
2385.02	4.95252
2386.42	4.45264
2387.83	4.53734
2389.23	5.25761
2390.63	6.06397
2392.03	5.45863
2393.43	4.77532
2394.84	4.1914
2396.24	4.41561
2397.64	4.49511
2399.04	4.79983
2400.44	4.56172
2401.84	4.43731
2403.24	4.40095
2404.64	4.65995
2406.04	4.35141
2407.44	4.96472
2408.83	5.22937
2410.23	5.14963
2411.63	5.5149
2413.03	5.83998
2414.43	6.64451
2415.83	6.72625
2417.22	6.30631
2418.62	6.03102
2420.02	6.51549
2421.41	5.56577
2422.81	5.44002
2424.21	5.70115
2425.6	5.78025
2427	5.46343
2428.39	4.92048
2429.79	5.34714
2431.18	6.19168
2432.58	5.74674
2433.97	4.9518
2435.36	4.8471
2436.76	4.81964
2438.15	4.88576
2439.54	5.25818
2440.94	5.64622
2442.33	5.49603
2443.72	6.6958
2445.11	6.54523
2446.51	6.12681
2447.9	5.40997
2449.29	4.19631
2450.68	3.38326
2452.07	4.42162
2453.46	4.33561
2454.85	3.97929
2456.24	3.46568
2457.63	4.77451
2459.02	5.64909
2460.41	4.91582
2461.8	3.02361
2463.19	3.55031
2464.58	3.26688
2465.97	3.72109
2467.36	4.02619
2468.75	4.1985
2470.13	4.07194
2471.52	2.96902
2472.91	2.90652
2474.29	2.89319
2475.68	3.70436
2477.07	4.25062
2478.45	4.22481
2479.84	4.94142
2481.22	5.53806
2482.61	5.86896
2484	6.49641
2485.38	6.52407
2486.77	6.13163
2488.15	6.44643
2489.54	6.7313
2490.92	6.0624
2492.3	6.71916
2493.69	7.07103
2495.07	8.04389
2496.45	8.10401
2497.84	8.37213
2499.22	9.40355
2500.6	9.09108
2501.98	8.75085
2503.36	8.83086
2504.74	8.41632
2506.13	8.10007
2507.51	8.07088
2508.89	8.28943
2510.27	7.47068
2511.65	7.03888
2513.03	7.58242
2514.41	6.30402
2515.79	5.62055
2517.17	3.69152
2518.55	3.87914
2519.93	4.28825
2521.3	4.58286
2522.68	4.40546
2524.06	4.26205
2525.44	4.30051
2526.82	4.30315
2528.19	3.30534
2529.57	2.71754
2530.95	2.62381
2532.32	2.8977
2533.7	1.89831
2535.08	1.50121
2536.45	1.07448
2537.83	1.22082
2539.2	1.15026
2540.58	0.465634
2541.95	0.701336
2543.33	0.80218
2544.7	0.964133
2546.08	0.923161
2547.45	2.06375
2548.82	2.58932
2550.2	2.25835
2551.57	2.31433
2552.94	3.68969
2554.32	3.71346
2555.69	3.34114
2557.06	3.68901
2558.43	3.73858
2559.8	4.44825
2561.17	5.28849
2562.55	6.08695
2563.92	7.07556
2565.29	6.57014
2566.66	6.56679
2568.03	6.27719
2569.4	6.08633
2570.77	6.54861
2572.14	6.97235
2573.51	6.89968
2574.88	7.04393
2576.24	6.35697
2577.61	6.88483
2578.98	6.20219
2580.35	6.29853
2581.72	6.79396
2583.09	6.34184
2584.45	6.5754
2585.82	6.426
2587.19	7.80006
2588.55	7.38695
2589.92	8.15659
2591.28	8.49783
2592.65	8.81188
2594.02	8.58645
2595.38	8.30439
2596.75	8.74215
2598.11	8.62893
2599.48	8.72951
2600.84	8.75645
2602.2	8.61749
2603.57	9.00984
2604.93	9.11661
2606.3	9.75067
2607.66	9.3203
2609.02	9.21302
2610.38	8.73373
2611.75	9.73131
2613.11	10.7971
2614.47	11.6047
2615.83	11.7414
2617.19	11.2095
2618.56	10.9654
2619.92	11.2093
2621.28	11.3087
2622.64	10.528
2624	10.6695
2625.36	11.4607
2626.72	11.0758
2628.08	11.7982
2629.44	12.2023
2630.8	12.0725
2632.15	11.7293
2633.51	10.9459
2634.87	10.897
2636.23	11.0299
2637.59	11.2279
2638.94	11.1949
2640.3	10.6841
2641.66	10.3073
2643.02	9.31703
2644.37	9.3702
2645.73	9.50543
2647.08	9.50632
2648.44	9.17263
2649.8	9.31514
2651.15	9.75809
2652.51	9.69699
2653.86	9.52805
2655.22	9.38896
2656.57	9.45084
2657.92	9.87879
2659.28	9.60278
2660.63	9.89124
2661.99	9.19142
2663.34	9.60588
2664.69	9.79045
2666.04	9.58225
2667.4	9.44918
2668.75	9.29821
2670.1	9.17924
2671.45	9.66507
2672.81	9.74278
2674.16	9.36735
2675.51	8.74925
2676.86	9.26506
2678.21	9.59599
2679.56	9.95512
2680.91	9.50205
2682.26	9.13487
2683.61	8.20878
2684.96	7.93104
2686.31	7.45952
2687.66	7.38567
2689	7.86062
2690.35	8.15842
2691.7	8.36746
2693.05	8.57461
2694.4	8.3233
2695.74	8.86357
2697.09	9.36623
2698.44	9.09653
2699.79	9.08489
2701.13	8.82843
2702.48	8.47487
2703.82	8.04746
2705.17	8.32403
2706.52	8.24512
2707.86	8.49831
2709.21	8.18293
2710.55	8.34271
2711.9	9.21095
2713.24	9.20112
2714.58	10.1244
2715.93	9.76458
2717.27	10.8129
2718.61	11.879
2719.96	12.3242
2721.3	12.9684
2722.64	13.7795
2723.99	13.845
2725.33	14.1644
2726.67	14.2179
2728.01	13.9289
2729.35	13.6765
2730.7	14.453
2732.04	14.1818
2733.38	13.8755
2734.72	13.5031
2736.06	13.502
2737.4	13.1815
2738.74	13.1527
2740.08	13.0883
2741.42	12.3994
2742.76	12.6298
2744.09	12.8857
2745.43	12.1689
2746.77	11.7546
2748.11	11.2359
2749.45	11.2036
2750.79	10.4576
2752.12	10.356
2753.46	10.609
2754.8	10.2661
2756.13	9.87477
2757.47	9.85813
2758.81	10.062
2760.14	10
2761.48	9.36725
2762.81	9.30575
2764.15	8.81668
2765.49	7.37198
2766.82	6.2493
2768.15	5.51631
2769.49	5.32695
2770.82	5.01821
2772.16	4.66062
2773.49	4.2109
2774.82	3.54643
2776.16	2.98493
2777.49	3.26485
2778.82	3.2034
2780.16	3.00868
2781.49	3.69718
2782.82	2.99199
2784.15	3.77068
2785.48	3.92929
2786.81	3.80459
2788.15	3.30065
2789.48	3.03395
2790.81	1.71505
2792.14	2.26667
2793.47	2.19806
2794.8	1.96308
2796.13	2.35823
2797.46	2.65166
2798.79	2.20769
2800.12	1.96525
2801.44	2.10301
2802.77	2.45635
2804.1	2.69292
2805.43	3.03201
2806.76	3.05191
2808.08	2.98397
2809.41	2.58704
2810.74	2.97595
2812.07	2.49082
2813.39	3.46814
2814.72	3.72187
2816.05	4.14932
2817.37	4.37395
2818.7	5.02796
2820.02	6.34531
2821.35	7.02853
2822.67	9.28337
2824	11.2644
2825.32	12.2777
2826.65	13.503
2827.97	15.4172
2829.29	18.0443
2830.62	20.3877
2831.94	22.7953
2833.26	25.3535
2834.59	28.2314
2835.91	31.4512
2837.23	34.1572
2838.55	37.7738
2839.88	42.3227
2841.2	46.3826
2842.52	52.2423
2843.84	58.6055
2845.16	64.7865
2846.48	71.1032
2847.8	78.2756
2849.12	85.0584
2850.44	92.0891
2851.76	99.1441
2853.08	106.786
2854.4	113.778
2855.72	121.599
2857.04	128.897
2858.36	137.076
2859.68	144.589
2861	151.796
2862.32	158.112
2863.63	164.436
2864.95	170.376
2866.27	175.479
2867.58	180.742
2868.9	186.175
2870.22	190.78
2871.53	195.327
2872.85	199.335
2874.17	203.55
2875.48	206.733
2876.8	211.45
2878.11	215.218
2879.43	218.641
2880.74	221.273
2882.06	224.576
2883.37	227.842
2884.69	230.915
2886	233.261
2887.31	235.101
2888.63	237.544
2889.94	240.053
2891.25	243.997
2892.57	246.837
2893.88	250.601
2895.19	254.222
2896.5	257.602
2897.82	261.454
2899.13	265.396
2900.44	269.786
2901.75	274.63
2903.06	280.476
2904.37	287.564
2905.68	293.641
2906.99	300.389
2908.3	309.057
2909.61	316.936
2910.92	324.814
2912.23	333.307
2913.54	341.113
2914.85	349.612
2916.16	357.309
2917.46	366.458
2918.77	373.911
2920.08	381.232
2921.39	388.553
2922.7	394
2924	398.743
2925.31	402.902
2926.62	406.159
2927.92	407.613
2929.23	408.864
2930.53	408.914
2931.84	407.71
2933.15	407.104
2934.45	406.213
2935.76	403.832
2937.06	401.198
2938.37	397.789
2939.67	393.896
2940.98	389.645
2942.28	385
2943.58	378.891
2944.89	372.068
2946.19	366.168
2947.49	358.948
2948.8	350.587
2950.1	343.102
2951.4	335.163
2952.7	327.982
2954.01	321.212
2955.31	314.159
2956.61	306.817
2957.91	298.114
2959.21	290.561
2960.51	282.954
2961.81	275.726
2963.11	268.259
2964.41	260.357
2965.71	253.141
2967.01	246.932
2968.31	240.99
2969.61	234.106
2970.91	227.07
2972.21	221.784
2973.51	215.651
2974.81	209.168
2976.1	202.653
2977.4	196.389
2978.7	190.134
2980	184.374
2981.29	177.872
2982.59	171.978
2983.89	164.779
2985.18	158.272
2986.48	150.807
2987.78	142.746
2989.07	136.264
2990.37	129.16
2991.66	121.559
2992.96	113.484
2994.25	106.571
2995.55	98.9941
2996.84	92.388
2998.14	86.2479
2999.43	79.5762
3000.72	72.575
3002.02	66.4504
3003.31	60.644
3004.6	55.673
3005.9	50.8425
3007.19	45.9674
3008.48	41.931
3009.77	37.7683
3011.07	33.5871
3012.36	29.7251
3013.65	26.6122
3014.94	23.241
3016.23	20.0448
3017.52	17.8229
3018.81	15.3129
3020.1	12.9471
3021.39	11.4807
3022.68	9.79383
3023.97	8.70773
3025.26	8.28061
3026.55	6.66036
3027.84	5.49125
3029.13	4.55038
3030.42	3.73833
3031.71	3.1703
3033	2.52801
3034.28	1.63436
3035.57	1.64936
3036.86	1.94846
3038.15	1.43265
3039.43	2.40092
3040.72	3.19884
3042.01	4.36646
3043.29	5.12186
3044.58	5.57569
3045.86	7.29537
3047.15	8.52142
3048.44	9.09538
3049.72	10.0904
3051.01	10.1194
3052.29	10.6446
3053.58	12.1529
3054.86	11.847
3056.14	12.3466
3057.43	12.4813
3058.71	12.2271
3060	11.9916
3061.28	12.574
3062.56	12.4394
3063.84	12.1988
3065.13	12.0756
3066.41	12.6618
3067.69	12.8875
3068.97	13.4865
3070.25	13.2109
3071.54	13.3474
3072.82	12.5585
3074.1	11.4184
3075.38	10.1887
3076.66	9.44399
3077.94	7.70657
3079.22	6.31467
3080.5	6.12709
3081.78	5.67755
3083.06	4.72972
3084.34	3.95433
3085.62	3.80596
3086.9	2.8701
3088.17	2.26512
3089.45	1.29115
3090.73	1.27294
3092.01	1.12364
3093.29	1.60268
3094.56	2.18683
3095.84	2.72512
3097.12	3.52804
3098.4	4.29384
3099.67	4.63136
3100.95	5.19097
3102.22	6.01291
3103.5	7.56227
3104.77	7.84782
3106.05	9.17867
3107.33	9.64646
3108.6	10.9122
3109.88	11.858
3111.15	12.6858
3112.43	13.4184
3113.7	14.126
3114.97	14.8421
3116.25	16.8161
3117.52	18.4096
3118.79	19.1405
3120.07	20.1993
3121.34	21.2007
3122.61	22.5061
3123.88	24.3865
3125.16	25.4384
3126.43	26.4358
3127.7	27.6242
3128.97	28.9433
3130.24	31.0616
3131.51	32.5136
3132.78	33.8016
3134.05	34.3944
3135.33	35.2619
3136.59	35.6433
3137.86	36.4123
3139.14	37.1565
3140.41	38.309
3141.67	39.5889
3142.94	41.2849
3144.21	42.8598
3145.48	44.3776
3146.75	46.2479
3148.02	48.4564
3149.28	49.7169
