#Acq. time (s)=	45
#Accumulations=	2
#Range (cm-¹)=	200...3150
#Windows=	2
#Auto scanning=	Off
#Autofocus=	Off
#Macrospot=	Off
#AutoExposure=	Off
#Spike filter=	Multiple accum.
#Delay time (s)=	0
#Binning=	1
#Readout mode=	Signal
#DeNoise=	Off
#ICS correction=	On
#Dark correction=	Off
#Inst. Process=	Off
#Detector Gain=	Best Dynamic Range
#Detector ADC=	20 kHz       
#Detector temperature (°C)=	-69.85
#Instrument=	LabRAM HR Evol
#Detector=	Synapse
#Objective=	x100
#Grating=	600 gr/mm
#ND Filter=	100%
#Laser (nm)=	532 
#Hole=	100.021
#Range=	Auto
#Laser Pol.=	No
#Raman. Pol.=	No
#Laser Pol. (°)=	-0.0007625
#Raman Pol. (°)=	89.9995
#Collection=	Microscope
#StageXY=	Marzhauser
#StageZ=	Marzhauser
#X (µm)=	-632.2
#Y (µm)=	-1589.5
#Z (µm)=	89.55
#Full time(mm:ss)=	3:19
#Project=	
#Sample=	
#Site=	
#Title=	Mb_10_14_15_2x_45s_532 nm_x100_100%_600 gr_mm
#Remark=	
#Date=	11.07.2022 09:36
#Acquired=	11.07.2022 09:36:58
#Base:Fit=	10.08.2022 10:21:11
#Base:Sub=	10.08.2022 10:21:41
#Filter:Polynom=	16.08.2022 10:17:53
#AxisType[0]=Intens
#AxisUnit[0]=Cnt
#AxisType[1]=Spectr
#AxisUnit[1]=1/cm
200.388	8.19832
202.204	7.28191
204.019	7.19602
205.832	6.57582
207.646	5.97868
209.459	5.38638
211.274	4.87335
213.087	4.40547
214.899	4.47659
216.711	4.40679
218.524	5.69545
220.335	7.27328
222.146	8.64562
223.956	10.1751
225.766	11.7979
227.576	13.6286
229.388	15.7454
231.197	17.2734
233.005	18.3802
234.813	18.1301
236.621	19.5366
238.429	20.2951
240.236	20.7905
242.045	21.1092
243.852	21.6204
245.658	21.4908
247.464	21.6266
249.269	21.1295
251.074	21.0196
252.879	21.5814
254.683	21.7623
256.487	21.6967
258.291	22.2188
260.094	23.3582
261.897	23.9384
263.702	23.8874
265.504	24.4686
267.306	24.1795
269.108	23.6843
270.909	22.0365
272.71	21.8003
274.511	21.6107
276.311	20.912
278.111	19.6325
279.91	17.7981
281.709	17.3722
283.508	16.3454
285.306	14.8436
287.105	12.6981
288.9	11.664
290.698	10.6285
292.495	10.5168
294.291	8.48719
296.088	7.69045
297.884	6.20345
299.679	5.5489
301.475	4.80577
303.27	4.79371
305.064	4.84618
306.858	4.13724
308.652	5.0053
310.444	5.86251
312.237	5.58836
314.03	5.64931
315.822	5.67094
317.615	5.66988
319.406	5.48488
321.198	5.29508
322.987	4.93201
324.778	5.41514
326.568	5.92965
328.358	5.12348
330.148	5.12741
331.935	5.24174
333.724	5.28178
335.513	5.10679
337.301	5.20228
339.089	4.55576
340.875	4.88843
342.662	5.87427
344.449	6.42614
346.236	7.09963
348.02	7.40303
349.806	7.72245
351.592	7.9481
353.375	8.04107
355.16	9.50308
356.944	10.0647
358.728	10.484
360.51	11.5457
362.294	11.8869
364.077	13.9357
365.858	15.5661
367.64	16.7159
369.422	17.7062
371.202	18.1647
372.983	18.4982
374.764	19.2276
376.543	19.4105
378.324	20.7454
380.102	20.4805
381.881	21.738
383.661	21.7926
385.438	23.1562
387.216	23.7578
388.993	24.8899
390.771	26.1184
392.548	27.0444
394.324	27.3662
396.101	27.5625
397.875	29.169
399.651	28.8695
401.425	28.4202
403.201	28.7059
404.974	28.6369
406.749	28.7287
408.524	28.4573
410.296	27.3959
412.07	26.3193
413.841	25.4669
415.614	24.2599
417.385	23.2264
419.156	22.2739
420.928	20.9411
422.698	18.9836
424.469	16.5683
426.238	15.1715
428.009	13.9274
429.777	13.6339
431.548	13.1274
433.315	11.6538
435.083	9.95665
436.852	9.47496
438.618	8.65008
440.387	8.70412
442.153	8.87447
443.919	8.23414
445.686	7.75496
447.451	6.95929
449.218	6.03744
450.982	5.75745
452.746	7.06341
454.512	6.28623
456.275	5.76872
458.038	5.28103
459.803	4.84145
461.565	5.89615
463.327	7.02431
465.091	7.24466
466.852	8.2895
468.613	9.31403
470.374	10.3529
472.136	10.776
473.896	12.01
475.655	12.5803
477.415	13.6446
479.176	14.2701
480.934	14.2649
482.692	14.997
484.45	16.0345
486.21	17.6638
487.967	18.1637
489.724	18.3547
491.481	18.9721
493.237	20.3512
494.995	20.9552
496.75	21.1491
498.506	20.9252
500.26	21.7889
502.015	23.215
503.769	23.4136
505.525	22.8408
507.279	23.0926
509.032	22.9991
510.785	23.024
512.537	23.84
514.289	25.4347
516.041	25.444
517.793	26.0314
519.546	26.3739
521.297	26.6553
523.047	26.8223
524.797	27.8595
526.547	26.5599
528.297	26.6568
530.046	25.7418
531.795	24.5631
533.543	24.0318
535.291	23.3452
537.039	23.3142
538.787	24.2711
540.534	23.9116
542.281	23.556
544.027	23.2486
545.773	22.2511
547.519	21.4364
549.264	21.1979
551.01	20.0112
552.754	18.608
554.499	17.8471
556.243	17.0776
557.987	15.4969
559.73	14.2558
561.474	13.8007
563.216	12.9004
564.959	12.4905
566.701	11.3535
568.441	11.4272
570.182	11.5271
571.923	10.4419
573.664	9.23151
575.405	8.61889
577.145	7.74539
578.885	8.35531
580.624	7.92574
582.361	6.6
584.1	5.8501
585.839	5.3689
587.577	6.01514
589.315	6.21113
591.052	5.58932
592.787	5.72337
594.524	5.81827
596.26	5.25352
597.997	5.4935
599.732	5.77858
601.466	5.4448
603.201	6.05618
604.936	5.53357
606.67	5.47094
608.403	5.42409
610.136	5.60403
611.87	6.14705
613.603	5.87737
615.334	7.00099
617.067	8.0493
618.799	8.68076
620.529	9.80391
622.26	10.715
623.991	11.8744
625.72	12.0738
627.451	12.4004
629.181	12.3185
630.909	12.012
632.638	12.6274
634.368	13.897
636.095	14.6165
637.823	14.6934
639.551	16.0503
641.277	17.192
643.005	18.9774
644.73	19.9675
646.457	21.6114
648.184	23.1229
649.908	23.8847
651.634	24.8835
653.357	26.1338
655.083	27.383
656.806	26.6456
658.53	26.6553
660.253	27.4982
661.977	28.7376
663.7	28.1302
665.422	28.412
667.145	28.4708
668.865	29.1013
670.588	29.5404
672.308	29.7981
674.027	30.0534
675.749	29.1009
677.468	29.2369
679.188	29.1188
680.907	28.864
682.627	28.9077
684.345	29.4975
686.064	30.1489
687.781	30.5712
689.498	31.643
691.216	30.9327
692.932	32.4636
694.65	32.9078
696.366	33.6731
698.081	34.166
699.797	34.2687
701.512	34.2342
703.228	34.6667
704.942	34.8323
706.655	35.7963
708.371	35.8008
710.083	37.0945
711.796	37.509
713.51	38.714
715.222	39.3616
716.934	40.6768
718.645	41.3889
720.358	41.9175
722.068	42.5934
723.779	43.3967
725.49	44.7028
727.2	45.8126
728.909	46.5221
730.618	47.6105
732.329	49.2521
734.037	49.3228
735.745	50.9257
737.453	51.7361
739.16	52.0878
740.869	51.5763
742.576	52.2625
744.282	54.0999
745.988	54.7548
747.694	55.5295
749.401	55.2121
751.107	56.4944
752.811	57.5723
754.516	59.1762
756.22	59.6425
757.924	60.1024
759.627	61.4015
761.332	61.7224
763.035	63.6066
764.738	64.0827
766.44	64.5571
768.142	66.1449
769.843	67.5073
771.544	69.5424
773.245	70.6559
774.946	71.232
776.646	72.3886
778.346	73.3493
780.046	74.2639
781.745	75.2249
783.444	75.665
785.143	76.1367
786.841	77.7142
788.539	79.4533
790.237	80.5595
791.934	81.5745
793.631	82.508
795.328	82.7216
797.024	82.9245
798.72	83.2017
800.416	83.0159
802.112	82.5894
803.807	82.2389
805.502	82.6331
807.196	83.4141
808.89	83.6027
810.584	84.3799
812.278	85.2327
813.971	85.7001
815.664	85.6495
817.354	85.5667
819.047	84.6797
820.739	85.0441
822.43	83.3225
824.122	82.7607
825.813	82.9674
827.503	83.5938
829.192	82.781
830.882	81.8279
832.571	80.6435
834.261	79.3986
835.95	79.1222
837.637	78.0624
839.325	76.7505
841.013	74.7041
842.701	73.8327
844.389	72.894
846.074	71.0159
847.761	70.0845
849.447	68.8711
851.131	68.5732
852.817	68.2646
854.503	67.5581
856.188	67.0313
857.871	65.1212
859.556	63.2946
861.24	62.4169
862.922	60.4105
864.606	59.1504
866.289	59.0477
867.97	58.2409
869.653	57.6151
871.336	57.2998
873.016	56.5938
874.698	56.3853
876.379	55.7318
878.058	54.6716
879.739	53.0829
881.418	52.5511
883.098	51.3339
884.778	51.0309
886.456	51.2374
888.135	51.2452
889.812	51.4769
891.49	51.7723
893.167	51.4007
894.845	51.1486
896.523	50.1391
898.198	50.2678
899.875	49.6761
901.55	50.5291
903.226	50.4015
904.901	50.0188
906.576	49.1929
908.25	49.8031
909.925	49.8852
911.598	48.7743
913.271	48.4168
914.945	48.0739
916.617	47.6968
918.291	48.4337
919.962	49.0963
921.635	49.5271
923.306	49.7915
924.978	49.9023
926.648	50.576
928.318	50.053
929.989	49.5161
931.659	50.2293
933.328	49.9555
934.998	50.1554
936.666	49.3713
938.336	48.6602
940.004	47.647
941.671	46.622
943.34	45.8588
945.007	46.4253
946.673	46.0629
948.339	46.6771
950.007	46.5035
951.672	45.5573
953.337	45.1567
955.004	45.007
956.669	44.3396
958.333	44.3801
959.997	41.8156
961.662	41.2786
963.326	41.2682
964.989	41.6841
966.651	42.658
968.315	42.8931
969.977	43.0015
971.639	42.3619
973.301	42.1814
974.962	41.2866
976.624	40.2348
978.285	39.6363
979.945	39.8205
981.605	40.3669
983.264	39.0329
984.924	38.1338
986.583	37.2119
988.243	37.3916
989.901	37.1752
991.56	36.9496
993.217	36.1345
994.875	36.6672
996.532	37.817
998.188	38.8072
999.845	39.5157
1001.5	40.3036
1003.16	39.6174
1004.81	39.491
1006.47	39.3335
1008.12	39.1655
1009.78	39.0942
1011.43	39.496
1013.09	40.3963
1014.74	41.5052
1016.39	41.9828
1018.05	43.1382
1019.7	43.8001
1021.35	43.7784
1023	45.0061
1024.65	45.6137
1026.31	46.8459
1027.96	47.3322
1029.61	47.3277
1031.26	47.3154
1032.91	46.6576
1034.56	47.8049
1036.21	47.4125
1037.86	47.5002
1039.51	47.8449
1041.16	48.2437
1042.8	47.4987
1044.45	48.7606
1046.1	48.1564
1047.75	47.5176
1049.39	46.6787
1051.04	45.1583
1052.69	43.5571
1054.33	41.5694
1055.98	40.8386
1057.62	39.8708
1059.27	39.2696
1060.91	38.47
1062.56	37.3305
1064.2	35.7199
1065.85	33.2303
1067.49	32.6285
1069.13	31.9896
1070.77	30.9888
1072.42	28.6739
1074.06	27.874
1075.7	27.1547
1077.34	25.854
1078.98	24.6234
1080.62	22.7689
1082.27	20.6644
1083.91	18.669
1085.55	17.2476
1087.18	16.5562
1088.82	15.8765
1090.46	16.1955
1092.1	16.5049
1093.74	17.2601
1095.38	16.9961
1097.02	17.1209
1098.65	16.8141
1100.29	16.3877
1101.93	17.0593
1103.56	16.2576
1105.2	16.4465
1106.84	16.2735
1108.47	15.9104
1110.11	15.2876
1111.74	15.4494
1113.38	14.6671
1115.01	15.9135
1116.64	16.2537
1118.28	15.6641
1119.91	16.3572
1121.54	16.9739
1123.18	16.8528
1124.81	16.2145
1126.44	16.2063
1128.07	16.0801
1129.7	16.5921
1131.33	16.6649
1132.97	17.327
1134.6	17.6448
1136.23	18.3965
1137.86	18.7859
1139.49	18.6027
1141.11	18.0133
1142.74	16.7358
1144.37	16.3665
1146	16.1488
1147.63	15.0014
1149.26	15.6988
1150.88	15.3628
1152.51	15.0154
1154.14	14.3776
1155.76	13.3819
1157.39	11.8901
1159.01	10.1108
1160.64	9.22352
1162.27	8.40045
1163.89	7.63617
1165.51	7.29725
1167.14	7.39582
1168.76	6.82387
1170.39	6.76131
1172.01	6.52837
1173.63	5.70895
1175.25	5.20361
1176.88	4.96972
1178.5	5.43827
1180.12	5.33123
1181.74	5.54042
1183.36	5.3189
1184.98	4.5688
1186.6	3.87238
1188.22	3.95193
1189.84	3.06826
1191.46	3.98293
1193.08	5.24259
1194.7	5.59336
1196.32	6.77181
1197.94	6.82106
1199.55	7.7958
1201.17	8.49487
1202.79	9.07293
1204.41	9.50928
1206.02	10.2174
1207.64	12.3737
1209.25	12.5135
1210.87	13.3478
1212.48	14.9918
1214.1	16.0155
1215.71	16.4049
1217.33	17.3411
1218.94	18.4057
1220.56	19.9473
1222.17	21.3704
1223.79	22.319
1225.4	23.7578
1227.01	24.9262
1228.62	25.6872
1230.23	26.7586
1231.85	27.6465
1233.46	28.2779
1235.07	28.2626
1236.68	28.6499
1238.29	29.2127
1239.9	30.2742
1241.51	31.36
1243.12	32.1138
1244.73	32.3122
1246.34	33.0857
1247.94	33.0678
1249.55	33.1498
1251.16	33.8269
1252.77	34.207
1254.37	35.0599
1255.98	35.9724
1257.59	36.0908
1259.2	35.0941
1260.8	34.3403
1262.41	33.5196
1264.01	33.0756
1265.62	32.4446
1267.22	31.4235
1268.83	32.0069
1270.43	31.6606
1272.03	32.3859
1273.64	32.3572
1275.24	31.6967
1276.85	31.829
1278.45	31.9608
1280.05	31.498
1281.65	31.8904
1283.25	32.5572
1284.85	33.044
1286.46	34.4958
1288.06	34.8863
1289.66	35.0773
1291.26	35.8698
1292.86	37.6851
1294.46	38.2724
1296.06	39.7805
1297.66	40.2044
1299.25	41.876
1300.85	42.5187
1302.45	41.0728
1304.05	39.6926
1305.65	41.1492
1307.24	43.1981
1308.84	44.6932
1310.43	46.4136
1312.03	48.5939
1313.63	50.424
1315.22	51.831
1316.82	52.9706
1318.41	53.9713
1320.01	55.6218
1321.6	56.2091
1323.2	56.3284
1324.79	57.1959
1326.38	57.8391
1327.98	58.2168
1329.57	59.0566
1331.16	59.2836
1332.76	58.3177
1334.35	57.9965
1335.94	57.5522
1337.53	55.561
1339.12	54.8753
1340.71	54.7672
1342.3	53.3993
1343.89	52.7203
1345.48	51.299
1347.07	50.2684
1348.66	49.5328
1350.25	47.495
1351.84	46.6989
1353.43	45.4443
1355.01	44.3
1356.6	42.4261
1358.19	40.7574
1359.77	39.3259
1361.36	38.2404
1362.95	36.7294
1364.53	35.3934
1366.12	34.3209
1367.71	32.0154
1369.29	30.9688
1370.88	28.9923
1372.46	27.9519
1374.04	26.4581
1375.63	25.0403
1377.21	23.8406
1378.8	23.0431
1380.38	20.7157
1381.96	20.1444
1383.54	22.1757
1385.13	24.4971
1386.71	24.1445
1388.29	23.4094
1389.87	23.8243
1391.45	23.2668
1393.03	23.3234
1394.61	22.2447
1396.19	22.342
1397.77	23.0987
1399.35	23.5566
1400.93	24.2746
1402.51	24.6221
1404.09	24.8712
1405.67	25.4069
1407.24	27.0192
1408.82	27.4837
1410.4	27.3653
1411.98	28.4245
1413.55	30.4462
1415.13	32.5128
1416.71	33.5931
1418.28	35.5137
1419.86	37.5828
1421.43	40.1267
1423.01	43.0364
1424.58	44.2048
1426.16	46.9776
1427.73	48.7295
1429.31	49.7959
1430.88	51.7266
1432.45	53.4606
1434.02	55.6459
1435.6	56.5407
1437.17	57.8463
1438.74	59.1604
1440.31	60.8587
1441.88	61.7171
1443.45	62.1377
1445.03	62.7848
1446.6	63.1984
1448.17	63.5846
1449.74	63.6337
1451.3	63.6794
1452.87	63.6091
1454.44	62.5786
1456.01	61.9053
1457.58	60.8135
1459.15	59.6788
1460.72	59.3068
1462.28	58.0104
1463.85	55.8794
1465.42	53.5082
1466.98	52.5582
1468.55	51.3193
1470.12	48.8451
1471.68	48.2486
1473.25	45.677
1474.81	44.3065
1476.38	42.0655
1477.94	39.6308
1479.51	37.2256
1481.07	34.3291
1482.63	32.2946
1484.2	30.898
1485.76	29.2318
1487.32	26.8089
1488.88	25.7277
1490.45	24.9911
1492.01	23.6842
1493.57	21.9979
1495.13	20.251
1496.69	19.5994
1498.25	19.3081
1499.81	18.2454
1501.37	15.7537
1502.93	13.9822
1504.49	14.506
1506.05	12.2859
1507.61	12.1593
1509.17	11.5146
1510.73	10.4447
1512.28	9.79078
1513.84	8.06778
1515.4	7.88742
1516.96	8.09505
1518.51	8.29098
1520.07	7.4269
1521.63	8.40834
1523.18	9.0535
1524.74	9.85658
1526.29	10.323
1527.85	10.74
1529.4	11.1044
1530.96	11.6702
1532.51	13.0122
1534.06	15.0908
1535.62	16.652
1537.17	17.8516
1538.72	19.2954
1540.28	19.9929
1541.83	20.1741
1543.38	20.6726
1544.93	21.634
1546.48	22.1488
1548.03	22.4148
1549.59	23.0836
1551.14	22.4913
1552.69	23.3756
1554.24	23.4527
1555.79	23.7334
1557.34	24.2267
1558.88	25.0602
1560.43	25.5267
1561.98	25.7737
1563.53	25.7575
1565.08	26.4235
1566.62	26.6485
1568.17	26.7131
1569.72	26.9803
1571.27	27.4452
1572.81	28.2087
1574.36	28.7949
1575.9	28.6399
1577.45	28.8516
1579	29.235
1580.54	30.4501
1582.09	31.6155
1583.63	31.1378
1585.17	32.1705
1586.72	31.4518
1588.26	31.8351
1589.8	32.4672
1591.35	32.5773
1592.89	33.4757
1594.43	34.4807
1595.97	34.963
1597.52	34.5541
1599.06	35.7402
1600.6	35.9528
1602.14	36.3483
1603.68	36.6489
1605.22	36.806
1606.76	37.4438
1608.3	37.7411
1609.84	38.2425
1611.38	37.9768
1612.92	37.4832
1614.46	37.0808
1615.99	36.8096
1617.53	36.7746
1619.07	36.3206
1620.61	36.7906
1622.14	37.2863
1623.68	38.0044
1625.22	38.0523
1626.75	38.9254
1628.29	39.0464
1629.82	40.119
1631.36	40.332
1632.9	42.0499
1634.43	43.2143
1635.96	44.0377
1637.5	44.9778
1639.03	46.6728
1640.57	47.2691
1642.1	49.2238
1643.63	50.1601
1645.16	51.6177
1646.7	53.0613
1648.23	54.0454
1649.76	54.4932
1651.29	54.7421
1652.82	55.1281
1654.36	55.5802
1655.89	56.4171
1657.42	56.5446
1658.95	57.0171
1660.48	56.5182
1662.01	55.5662
1663.53	54.416
1665.06	53.7538
1666.59	52.7856
1668.12	52.1573
1669.65	51.9506
1671.18	50.8947
1672.7	49.5536
1674.23	47.9267
1675.76	47.5915
1677.29	45.8053
1678.81	44.1675
1680.34	42.6733
1681.86	40.4741
1683.39	38.8008
1684.91	37.2245
1686.44	35.0282
1687.96	32.6967
1689.49	31.1063
1691.01	29.3911
1692.54	27.4014
1694.06	25.4581
1695.58	24.018
1697.11	22.4257
1698.63	20.7767
1700.15	19.4742
1701.67	18.3092
1703.2	17.6672
1704.72	16.2168
1706.24	15.1525
1707.76	14.6254
1709.28	13.9967
1710.8	12.9621
1712.32	12.3792
1713.84	11.4038
1715.36	10.2878
1716.88	9.32624
1718.4	9.30252
1719.91	9.21327
1721.43	8.63129
1722.95	8.04746
1724.47	7.53583
1725.99	7.10389
1727.5	6.99643
1729.02	6.75326
1730.54	7.08177
1732.05	7.67236
1733.57	7.16557
1735.09	6.82715
1736.6	6.3593
1738.12	6.69167
1739.63	6.64532
1741.15	6.43065
1742.66	6.21148
1744.18	6.41453
1745.69	6.26173
1747.2	5.45437
1748.72	5.02545
1750.23	4.41128
1751.74	4.10537
1753.25	3.81581
1754.77	3.37677
1756.28	2.85432
1757.79	2.36139
1759.3	1.90095
1760.81	1.2817
1762.32	0.341927
1763.83	-0.0668962
1765.34	0.465216
1766.85	0.90817
1768.36	0.513911
1769.87	0.806005
1771.38	1.00138
1772.89	0.102713
1774.4	0.478229
1775.91	0.66238
1777.41	1.05826
1778.92	0.653136
1780.43	0.0689576
1781.94	0.0144427
1783.44	0.618915
1784.95	0.0110613
1786.45	0.564348
1787.96	0.596091
1789.47	0.673936
1790.97	0.882253
1792.47	0.984907
1793.98	1.09047
1795.48	1.04897
1796.99	1.36788
1798.49	2.39318
1800	2.42893
1801.5	2.01299
1803	2.34055
1804.51	2.43362
1806.01	2.87891
1807.51	2.54892
1809.01	2.52864
1810.51	2.53238
1812.02	3.076
1813.52	2.79342
1815.02	2.13901
1816.52	2.0804
1818.02	2.00432
1819.52	2.35617
1821.02	2.62633
1822.52	2.89975
1824.02	2.60362
1825.51	2.56828
1827.01	2.89261
1828.51	3.07292
1830.01	2.52764
1831.51	3.03218
1833	3.08839
1834.5	2.96395
1836	3.39433
1837.49	3.55295
1838.99	4.10309
1840.49	4.7459
1841.98	4.93119
1843.48	4.98107
1844.97	5.27292
1846.47	5.29314
1847.96	5.36505
1849.46	5.10957
1850.95	5.40322
1852.45	4.68382
1853.94	4.64551
1855.43	4.10313
1856.92	4.23847
1858.42	4.07651
1859.91	4.06018
1861.4	4.08053
1862.89	4.05189
1864.39	4.17733
1865.88	3.804
1867.37	3.95993
1868.86	4.19383
1870.35	4.58859
1871.84	4.84288
1873.33	4.28749
1874.82	3.71037
1876.31	4.11497
1877.8	4.28441
1879.29	4.16869
1880.77	3.70685
1882.26	3.53606
1882.52	3.65345
1884.02	3.37032
1885.51	3.62122
1887.01	3.92202
1888.5	4.32287
1889.99	4.45859
1891.49	4.51878
1892.98	4.69928
1894.47	5.06989
1895.96	5.59783
1897.46	5.70791
1898.95	6.51856
1900.44	6.71449
1901.93	6.73769
1903.42	6.72285
1904.91	7.09641
1906.4	7.14992
1907.89	7.50803
1909.38	7.98524
1910.87	8.40531
1912.36	8.92601
1913.85	9.40901
1915.34	9.5438
1916.83	9.72458
1918.32	9.33997
1919.8	9.23759
1921.29	8.78916
1922.78	8.20781
1924.27	8.77457
1925.75	7.69128
1927.24	8.38859
1928.73	7.93931
1930.21	8.33346
1931.7	8.26311
1933.18	8.10214
1934.67	7.96833
1936.15	8.12569
1937.64	7.69504
1939.12	6.88496
1940.61	6.66862
1942.09	6.87174
1943.57	7.30676
1945.06	7.20196
1946.54	7.1242
1948.02	6.48876
1949.51	6.8493
1950.99	6.03037
1952.47	6.2864
1953.95	6.66728
1955.43	6.13372
1956.91	5.97204
1958.39	5.96824
1959.87	5.83857
1961.36	5.96047
1962.84	5.48996
1964.32	5.65107
1965.79	5.87955
1967.27	6.3581
1968.75	7.06563
1970.23	7.85203
1971.71	7.52765
1973.19	7.9395
1974.66	7.62271
1976.14	7.54274
1977.62	7.34011
1979.1	7.43416
1980.57	7.87078
1982.05	8.06437
1983.53	8.17945
1985	8.7178
1986.48	8.95449
1987.95	8.97721
1989.43	8.08262
1990.9	7.56673
1992.38	7.37477
1993.85	6.9501
1995.33	6.70757
1996.8	6.84299
1998.27	6.55552
1999.75	6.36192
2001.22	7.14324
2002.69	6.86907
2004.16	6.96966
2005.64	7.34897
2007.11	6.85805
2008.58	7.0415
2010.05	6.38739
2011.52	6.3305
2012.99	6.97459
2014.46	7.5114
2015.93	7.30773
2017.4	6.55585
2018.87	5.80961
2020.34	5.97375
2021.81	5.81773
2023.28	6.54224
2024.75	6.37929
2026.22	6.97591
2027.69	6.94246
2029.15	5.95292
2030.62	6.21405
2032.09	6.38497
2033.56	6.39323
2035.02	7.45623
2036.49	7.55562
2037.95	8.1193
2039.42	8.32122
2040.89	8.98343
2042.35	8.56073
2043.82	8.69204
2045.28	8.59584
2046.75	8.389
2048.21	7.81739
2049.67	7.44735
2051.14	7.65389
2052.6	7.65495
2054.06	7.87168
2055.53	8.16543
2056.99	8.23271
2058.45	7.77901
2059.92	7.24123
2061.38	6.71627
2062.84	6.42166
2064.3	6.79932
2065.76	6.90607
2067.22	7.2409
2068.68	7.33859
2070.14	7.58143
2071.6	7.84104
2073.06	7.99109
2074.52	8.34574
2075.98	8.66627
2077.44	9.09454
2078.9	8.4155
2080.36	7.82257
2081.82	7.97819
2083.27	7.14863
2084.73	7.57717
2086.19	7.58701
2087.65	7.0583
2089.1	6.51238
2090.56	6.80709
2092.01	7.01581
2093.47	7.39248
2094.93	6.88035
2096.38	7.24497
2097.84	7.47681
2099.29	7.91633
2100.75	8.45494
2102.2	8.61764
2103.66	9.13561
2105.11	9.90755
2106.56	10.2112
2108.02	11.0145
2109.47	10.5039
2110.92	10.8434
2112.37	10.9326
2113.83	11.3014
2115.28	11.0197
2116.73	12.0964
2118.18	11.7779
2119.63	11.0162
2121.09	11.1421
2122.54	10.8244
2123.99	11.4855
2125.44	11.377
2126.89	11.7833
2128.34	12.1052
2129.79	12.1516
2131.23	12.0641
2132.68	12.7612
2134.13	13.3277
2135.58	13.9149
2137.03	14.3779
2138.48	15.3192
2139.92	16.6968
2141.37	16.9343
2142.82	17.9144
2144.26	18.7451
2145.71	18.5216
2147.16	19.4597
2148.6	19.8898
2150.05	19.2197
2151.49	19.0575
2152.94	19.7839
2154.38	19.8911
2155.83	19.6642
2157.27	20.4254
2158.72	20.8146
2160.16	20.104
2161.6	20.751
2163.05	21.4952
2164.49	22.2997
2165.93	23.0215
2167.38	23.7439
2168.82	25.0074
2170.26	25.3056
2171.7	25.8089
2173.14	26.0996
2174.58	26.5029
2176.03	26.5821
2177.47	26.2127
2178.91	26.0743
2180.35	26.0245
2181.79	25.0785
2183.23	25.125
2184.67	24.8489
2186.1	24.8164
2187.54	24.356
2188.98	23.9817
2190.42	23.0489
2191.86	22.7351
2193.3	22.9275
2194.73	22.6483
2196.17	22.4114
2197.61	21.4234
2199.05	21.2407
2200.48	21.2334
2201.92	20.6216
2203.35	20.0453
2204.79	19.4465
2206.22	18.5228
2207.66	18.0933
2209.09	17.8457
2210.53	17.8668
2211.96	16.6118
2213.4	15.7563
2214.83	14.8346
2216.27	14.3867
2217.7	13.3867
2219.13	13.6317
2220.56	12.7775
2222	12.9491
2223.43	13.2654
2224.86	12.6267
2226.29	12.0748
2227.72	10.7627
2229.16	10.929
2230.59	10.816
2232.02	10.6502
2233.45	11.8119
2234.88	11.6575
2236.31	11.6717
2237.74	11.303
2239.17	11.6298
2240.6	11.326
2242.03	10.9227
2243.45	10.8922
2244.88	11.1124
2246.31	11.2756
2247.74	10.7851
2249.17	10.5651
2250.59	11.1549
2252.02	11.3296
2253.45	11.6291
2254.87	12.6731
2256.3	12.5247
2257.73	13.0764
2259.15	12.9759
2260.58	13.2233
2262	13.0295
2263.43	13.3418
2264.85	12.9322
2266.28	12.731
2267.7	12.9153
2269.13	12.8464
2270.55	12.9198
2271.97	12.6187
2273.4	11.9881
2274.82	11.8835
2276.24	11.3794
2277.66	10.9661
2279.09	11.1185
2280.51	10.4986
2281.93	9.83628
2283.35	8.84259
2284.77	9.05324
2286.19	8.77806
2287.61	8.9294
2289.04	8.20117
2290.46	8.0484
2291.88	7.43706
2293.29	6.88061
2294.71	5.66991
2296.13	5.46573
2297.55	5.67126
2298.97	5.88187
2300.39	7.05333
2301.81	6.89115
2303.23	6.99386
2304.64	7.63921
2306.06	7.54653
2307.48	7.71565
2308.89	7.83586
2310.31	7.70714
2311.73	7.11232
2313.14	7.47115
2314.56	7.60431
2315.97	7.75964
2317.39	8.29995
2318.8	8.23835
2320.22	8.70859
2321.63	9.37599
2323.05	9.32378
2324.46	9.63649
2325.88	9.21351
2327.29	8.19798
2328.7	8.26817
2330.12	7.56588
2331.53	7.30543
2332.94	7.06207
2334.35	7.37383
2335.76	6.97503
2337.18	7.0408
2338.59	6.61459
2340	5.79855
2341.41	5.28928
2342.82	4.52524
2344.23	4.19285
2345.64	3.31302
2347.05	2.46568
2348.46	1.7393
2349.87	0.829042
2351.28	0.170883
2352.69	-0.0532576
2354.1	-0.305994
2355.5	0.0967631
2356.91	-0.0672304
2358.32	-0.555671
2359.73	-0.611418
2361.14	-0.10958
2362.54	0.0343898
2363.95	-0.211586
2365.36	0.411328
2366.76	1.4864
2368.17	1.83174
2369.58	1.91323
2370.98	2.30889
2372.39	2.52927
2373.79	3.24254
2375.2	3.8275
2376.6	3.77505
2378	3.83283
2379.41	4.0721
2380.81	4.50153
2382.22	4.71214
2383.62	5.30879
2385.02	5.94033
2386.42	5.99727
2387.83	6.49752
2389.23	6.11856
2390.63	7.06504
2392.03	7.17168
2393.43	7.10112
2394.84	6.97483
2396.24	5.91871
2397.64	5.29424
2399.04	5.00779
2400.44	4.75473
2401.84	4.18265
2403.24	3.84691
2404.64	3.94231
2406.04	2.94347
2407.44	2.07519
2408.83	1.80209
2410.23	1.13372
2411.63	1.37317
2413.03	1.1363
2414.43	1.13894
2415.83	1.10438
2417.22	1.66896
2418.62	1.57998
2420.02	1.65241
2421.41	2.16575
2422.81	2.58373
2424.21	2.61919
2425.6	2.69393
2427	2.63958
2428.39	2.50042
2429.79	2.62921
2431.18	2.38129
2432.58	2.65436
2433.97	2.30257
2435.36	3.43633
2436.76	4.15239
2438.15	4.2949
2439.54	4.33524
2440.94	4.49453
2442.33	4.70747
2443.72	4.74716
2445.11	4.83175
2446.51	4.75265
2447.9	4.68502
2449.29	4.73961
2450.68	4.43962
2452.07	4.19461
2453.46	4.57364
2454.85	4.5538
2456.24	4.73354
2457.63	4.93435
2459.02	4.83799
2460.41	4.8544
2461.8	4.48818
2463.19	3.81786
2464.58	2.97042
2465.97	2.4534
2467.36	2.00155
2468.75	2.18424
2470.13	2.14487
2471.52	2.00696
2472.91	2.65341
2474.29	3.08689
2475.68	2.42437
2477.07	2.53529
2478.45	3.00903
2479.84	3.34066
2481.22	3.80981
2482.61	4.02395
2484	4.29773
2485.38	4.69221
2486.77	4.89882
2488.15	4.72578
2489.54	4.93781
2490.92	4.96757
2492.3	5.34602
2493.69	5.32519
2495.07	5.75287
2496.45	5.81637
2497.84	6.10998
2499.22	6.37882
2500.6	6.82601
2501.98	7.32364
2503.36	6.97754
2504.74	7.67143
2506.13	7.28621
2507.51	6.93832
2508.89	6.93631
2510.27	7.22168
2511.65	7.47369
2513.03	6.95649
2514.41	7.23335
2515.79	6.89638
2517.17	6.66372
2518.55	6.56996
2519.93	6.44486
2521.3	6.1807
2522.68	6.35902
2524.06	6.00988
2525.44	6.41467
2526.82	6.17487
2528.19	5.96827
2529.57	6.04284
2530.95	6.58055
2532.32	6.15838
2533.7	6.40655
2535.08	6.54833
2536.45	6.7819
2537.83	6.74785
2539.2	6.62383
2540.58	6.33238
2541.95	6.029
2543.33	5.77681
2544.7	5.49183
2546.08	5.98074
2547.45	6.06594
2548.82	6.12951
2550.2	6.08149
2551.57	6.81531
2552.94	6.48676
2554.32	6.70624
2555.69	6.98363
2557.06	7.35334
2558.43	8.14427
2559.8	8.42797
2561.17	9.10173
2562.55	8.90698
2563.92	9.48725
2565.29	9.51848
2566.66	9.6129
2568.03	9.6492
2569.4	9.45128
2570.77	9.2313
2572.14	9.25445
2573.51	9.17803
2574.88	9.0058
2576.24	8.69732
2577.61	8.52983
2578.98	7.93772
2580.35	7.61763
2581.72	7.51651
2583.09	7.09116
2584.45	5.9873
2585.82	5.89666
2587.19	5.65564
2588.55	5.36003
2589.92	4.84712
2591.28	5.12209
2592.65	4.40545
2594.02	4.9219
2595.38	4.68639
2596.75	4.27314
2598.11	4.00739
2599.48	4.10631
2600.84	3.21555
2602.2	3.07981
2603.57	2.49739
2604.93	1.81387
2606.3	0.954393
2607.66	0.981252
2609.02	0.707028
2610.38	1.00185
2611.75	0.862052
2613.11	0.647759
2614.47	0.942028
2615.83	1.14429
2617.19	1.54349
2618.56	1.66576
2619.92	1.97415
2621.28	1.59102
2622.64	1.79698
2624	2.13084
2625.36	2.80214
2626.72	3.15201
2628.08	3.10685
2629.44	3.59881
2630.8	3.31812
2632.15	3.37448
2633.51	2.87466
2634.87	3.20104
2636.23	3.32309
2637.59	3.08755
2638.94	3.52606
2640.3	3.58905
2641.66	3.43229
2643.02	3.25032
2644.37	2.85235
2645.73	3.54272
2647.08	3.3622
2648.44	3.79049
2649.8	3.38811
2651.15	3.26414
2652.51	3.92359
2653.86	4.95194
2655.22	4.57817
2656.57	4.90135
2657.92	4.46687
2659.28	4.7964
2660.63	4.79332
2661.99	5.33666
2663.34	4.51989
2664.69	4.38082
2666.04	4.34738
2667.4	4.0357
2668.75	3.3692
2670.1	3.2954
2671.45	2.79118
2672.81	3.08466
2674.16	3.11715
2675.51	3.77131
2676.86	3.72715
2678.21	4.28367
2679.56	4.44337
2680.91	4.87256
2682.26	5.38934
2683.61	4.83111
2684.96	4.48068
2686.31	3.989
2687.66	4.01666
2689	4.35181
2690.35	4.64712
2691.7	4.74305
2693.05	4.97181
2694.4	4.94951
2695.74	4.87259
2697.09	4.88295
2698.44	5.10007
2699.79	5.53801
2701.13	6.0185
2702.48	6.41583
2703.82	6.09659
2705.17	6.34269
2706.52	7.3475
2707.86	7.58905
2709.21	8.00048
2710.55	8.39723
2711.9	8.78376
2713.24	10.0636
2714.58	10.1999
2715.93	10.741
2717.27	10.859
2718.61	11.7511
2719.96	11.5507
2721.3	11.6861
2722.64	11.1348
2723.99	11.376
2725.33	11.0394
2726.67	11.4582
2728.01	11.2829
2729.35	10.9382
2730.7	10.183
2732.04	10.2595
2733.38	9.93482
2734.72	9.83776
2736.06	10.0331
2737.4	9.90231
2738.74	9.80188
2740.08	9.69619
2741.42	9.40137
2742.76	9.19299
2744.09	8.29872
2745.43	8.39186
2746.77	7.87091
2748.11	6.69728
2749.45	6.26351
2750.79	5.94626
2752.12	5.78447
2753.46	5.14836
2754.8	5.018
2756.13	4.73145
2757.47	4.14308
2758.81	3.83179
2760.14	3.38204
2761.48	2.91944
2762.81	2.88355
2764.15	2.59062
2765.49	2.1414
2766.82	1.74129
2768.15	1.74004
2769.49	1.75453
2770.82	1.51406
2772.16	2.30262
2773.49	2.56994
2774.82	2.26602
2776.16	1.66393
2777.49	1.71581
2778.82	1.37335
2780.16	1.65835
2781.49	1.32657
2782.82	0.975435
2784.15	1.07136
2785.48	1.06086
2786.81	0.905623
2788.15	1.23167
2789.48	1.01069
2790.81	1.18253
2792.14	0.576057
2793.47	0.288484
2794.8	0.0522301
2796.13	-0.617462
2797.46	-0.87738
2798.79	-0.826255
2800.12	-0.997055
2801.44	-0.922542
2802.77	-1.23681
2804.1	-1.50555
2805.43	-1.94915
2806.76	-1.79291
2808.08	-1.65924
2809.41	-1.72623
2810.74	-1.23124
2812.07	-0.459419
2813.39	-0.0167884
2814.72	0.0121653
2816.05	1.32229
2817.37	2.42328
2818.7	3.14048
2820.02	4.30275
2821.35	5.58869
2822.67	7.04702
2824	8.08027
2825.32	8.9505
2826.65	10.2856
2827.97	12.3569
2829.29	14.2452
2830.62	15.6858
2831.94	17.491
2833.26	19.4665
2834.59	21.7576
2835.91	23.8892
2837.23	26.1159
2838.55	29.0352
2839.88	31.2513
2841.2	33.8513
2842.52	37.3073
2843.84	41.4872
2845.16	44.8855
2846.48	49.0285
2847.8	52.7438
2849.12	56.3072
2850.44	60.3188
2851.76	63.825
2853.08	67.6071
2854.4	71.2264
2855.72	74.5551
2857.04	77.5632
2858.36	80.4186
2859.68	83.6412
2861	87.1904
2862.32	89.8212
2863.63	93.2449
2864.95	95.8645
2866.27	98.9823
2867.58	102.133
2868.9	104.709
2870.22	107.409
2871.53	110.049
2872.85	113.029
2874.17	114.99
2875.48	117.147
2876.8	119.369
2878.11	121.275
2879.43	122.878
2880.74	124.844
2882.06	127.005
2883.37	128.555
2884.69	129.557
2886	130.798
2887.31	132.165
2888.63	133.378
2889.94	134.967
2891.25	136.63
2892.57	138.034
2893.88	139.053
2895.19	140.374
2896.5	141.936
2897.82	144.098
2899.13	145.814
2900.44	148.893
2901.75	151.639
2903.06	155.041
2904.37	158.028
2905.68	161.992
2906.99	166.145
2908.3	170.673
2909.61	174.548
2910.92	178.011
2912.23	182.631
2913.54	185.916
2914.85	189.121
2916.16	193.003
2917.46	195.928
2918.77	199.107
2920.08	201.12
2921.39	203.352
2922.7	205.874
2924	207.229
2925.31	208.663
2926.62	209.978
2927.92	209.903
2929.23	209.784
2930.53	209.87
2931.84	209.886
2933.15	208.634
2934.45	207.346
2935.76	206.232
2937.06	204.26
2938.37	201.546
2939.67	199.137
2940.98	196.488
2942.28	193.572
2943.58	190.173
2944.89	187.086
2946.19	183.969
2947.49	179.836
2948.8	176.083
2950.1	172.187
2951.4	168.574
2952.7	164.819
2954.01	160.547
2955.31	157.07
2956.61	152.872
2957.91	148.374
2959.21	144.624
2960.51	141.299
2961.81	137.793
2963.11	134.172
2964.41	130.629
2965.71	128.179
2967.01	125.442
2968.31	122.659
2969.61	119.475
2970.91	117.146
2972.21	114.058
2973.51	111.082
2974.81	107.861
2976.1	105.038
2977.4	102.471
2978.7	98.5275
2980	95.3269
2981.29	92.7288
2982.59	88.4475
2983.89	84.6777
2985.18	81.1698
2986.48	77.9474
2987.78	73.9776
2989.07	69.5217
2990.37	66.1973
2991.66	62.2795
2992.96	58.5634
2994.25	54.9568
2995.55	52.2062
2996.84	48.3078
2998.14	44.7024
2999.43	41.7855
3000.72	38.8314
3002.02	35.1096
3003.31	31.9358
3004.6	29.3652
3005.9	26.6276
3007.19	23.3948
3008.48	20.6059
3009.77	18.5319
3011.07	16.2254
3012.36	14.2532
3013.65	13.2076
3014.94	11.3062
3016.23	9.89715
3017.52	8.68975
3018.81	6.89779
3020.1	5.88928
3021.39	4.38901
3022.68	3.56024
3023.97	2.77079
3025.26	2.06109
3026.55	1.60556
3027.84	0.935486
3029.13	1.04002
3030.42	1.28333
3031.71	1.29445
3033	1.20424
3034.28	1.31955
3035.57	1.51003
3036.86	1.30928
3038.15	2.06961
3039.43	2.13741
3040.72	3.04989
3042.01	3.88377
3043.29	4.20692
3044.58	4.62087
3045.86	5.54189
3047.15	6.02923
3048.44	6.85537
3049.72	7.77433
3051.01	8.04853
3052.29	8.57638
3053.58	9.10081
3054.86	8.89531
3056.14	9.48131
3057.43	9.77122
3058.71	10.3033
3060	10.8086
3061.28	10.3989
3062.56	10.6712
3063.84	10.6833
3065.13	10.375
3066.41	9.81872
3067.69	9.7589
3068.97	9.71123
3070.25	9.39501
3071.54	8.50884
3072.82	9.04387
3074.1	9.12902
3075.38	8.60421
3076.66	7.92126
3077.94	7.56471
3079.22	6.71297
3080.5	6.38434
3081.78	5.79501
3083.06	4.85463
3084.34	4.84213
3085.62	4.02882
3086.9	3.43111
3088.17	2.58755
3089.45	1.88812
3090.73	1.72164
3092.01	0.791446
3093.29	1.01121
3094.56	0.402028
3095.84	-0.18331
3097.12	-0.49737
3098.4	-0.301755
3099.67	-0.46609
3100.95	-0.36327
3102.22	0.0719313
3103.5	0.16337
3104.77	0.792771
3106.05	1.09374
3107.33	0.957409
3108.6	1.19164
3109.88	2.0819
3111.15	2.44148
3112.43	2.54381
3113.7	3.17277
3114.97	3.92515
3116.25	4.40763
3117.52	5.01883
3118.79	5.63029
3120.07	7.15251
3121.34	7.54802
3122.61	8.41347
3123.88	8.76265
3125.16	9.12965
3126.43	10.0503
3127.7	10.4234
3128.97	11.0072
3130.24	11.8905
3131.51	12.7512
3132.78	13.4786
3134.05	14.0976
3135.33	14.8434
3136.59	15.7703
3137.86	15.8831
3139.14	16.4468
3140.41	17.0831
3141.67	17.8884
3142.94	18.2104
3144.21	18.3275
3145.48	18.525
3146.75	18.9842
3148.02	19.1018
3149.28	20.6452
