#Acq. time (s)=	45
#Accumulations=	2
#Range (cm-¹)=	200...3150
#Windows=	2
#Auto scanning=	Off
#Autofocus=	Off
#Macrospot=	Off
#AutoExposure=	Off
#Spike filter=	Multiple accum.
#Delay time (s)=	0
#Binning=	1
#Readout mode=	Signal
#DeNoise=	Off
#ICS correction=	On
#Dark correction=	Off
#Inst. Process=	Off
#Detector Gain=	Best Dynamic Range
#Detector ADC=	20 kHz       
#Detector temperature (°C)=	-69.85
#Instrument=	LabRAM HR Evol
#Detector=	Synapse
#Objective=	x100
#Grating=	600 gr/mm
#ND Filter=	100%
#Laser (nm)=	532 
#Hole=	100.021
#Range=	Auto
#Laser Pol.=	No
#Raman. Pol.=	No
#Laser Pol. (°)=	-0.0007625
#Raman Pol. (°)=	89.9995
#Collection=	Microscope
#StageXY=	Marzhauser
#StageZ=	Marzhauser
#X (µm)=	-620.1
#Y (µm)=	-1588.4
#Z (µm)=	89.85
#Full time(mm:ss)=	3:19
#Project=	
#Sample=	
#Site=	
#Title=	Mb_10_14_23_2x_45s_532 nm_x100_100%_600 gr_mm
#Remark=	
#Date=	11.07.2022 10:16
#Acquired=	11.07.2022 10:16:39
#Base:Fit=	10.08.2022 10:21:11
#Base:Sub=	10.08.2022 10:21:41
#Filter:Polynom=	16.08.2022 10:17:53
#AxisType[0]=Intens
#AxisUnit[0]=Cnt
#AxisType[1]=Spectr
#AxisUnit[1]=1/cm
200.388	4.15749
202.204	5.62417
204.019	6.97345
205.832	8.02226
207.646	8.61867
209.459	9.13235
211.274	9.3881
213.087	9.84712
214.899	10.8128
216.711	11.6038
218.524	13.8114
220.335	14.8703
222.146	15.6152
223.956	16.5577
225.766	16.6197
227.576	17.3192
229.388	18.5372
231.197	20.0556
233.005	20.9636
234.813	22.3964
236.621	22.9842
238.429	23.3656
240.236	24.2711
242.045	25.1627
243.852	24.7854
245.658	25.4667
247.464	25.36
249.269	25.7414
251.074	24.5978
252.879	25.3392
254.683	24.0934
256.487	25.7003
258.291	26.0621
260.094	25.8999
261.897	26.3533
263.702	26.5467
265.504	26.6574
267.306	27.1515
269.108	27.0874
270.909	27.1363
272.71	26.8692
274.511	27.2464
276.311	27.6597
278.111	26.3921
279.91	25.1935
281.709	24.754
283.508	23.7833
285.306	22.5591
287.105	21.8607
288.9	20.8058
290.698	20.2506
292.495	20.038
294.291	18.8862
296.088	17.1485
297.884	16.0573
299.679	15.1559
301.475	15.1039
303.27	15.8439
305.064	15.8657
306.858	14.7547
308.652	14.5276
310.444	12.5738
312.237	11.7967
314.03	11.817
315.822	11.5555
317.615	11.3763
319.406	11.2881
321.198	10.6238
322.987	9.60773
324.778	9.35321
326.568	7.79904
328.358	6.95271
330.148	6.39083
331.935	5.69056
333.724	4.63512
335.513	4.83812
337.301	3.49807
339.089	4.5224
340.875	3.80359
342.662	4.94437
344.449	5.37176
346.236	7.00491
348.02	7.5943
349.806	7.55284
351.592	8.20414
353.375	9.16322
355.16	10.6685
356.944	11.5052
358.728	12.8717
360.51	14.1152
362.294	13.6173
364.077	14.5661
365.858	15.1705
367.64	16.3014
369.422	18.0897
371.202	18.534
372.983	19.3182
374.764	19.8718
376.543	20.5227
378.324	20.3727
380.102	20.8243
381.881	21.4058
383.661	21.1994
385.438	21.5137
387.216	22.1027
388.993	22.8866
390.771	23.8371
392.548	23.2568
394.324	21.8346
396.101	20.4335
397.875	20.2413
399.651	19.6017
401.425	19.2747
403.201	19.1008
404.974	17.8089
406.749	15.7455
408.524	14.5193
410.296	13.1044
412.07	11.7568
413.841	11.0221
415.614	9.25176
417.385	8.71663
419.156	8.77419
420.928	6.83249
422.698	5.23694
424.469	4.82657
426.238	3.55933
428.009	4.02332
429.777	2.46562
431.548	2.41002
433.315	1.69377
435.083	0.964751
436.852	1.38952
438.618	1.15281
440.387	1.5443
442.153	2.46666
443.919	2.06367
445.686	2.19059
447.451	2.49946
449.218	2.62234
450.982	2.65961
452.746	3.30734
454.512	4.18232
456.275	4.58015
458.038	4.66783
459.803	4.48249
461.565	6.05383
463.327	6.70883
465.091	7.21363
466.852	8.2992
468.613	9.41791
470.374	9.73327
472.136	9.76082
473.896	10.4549
475.655	10.904
477.415	11.7027
479.176	12.0167
480.934	11.8846
482.692	11.784
484.45	12.1747
486.21	13.768
487.967	13.9977
489.724	14.2872
491.481	15.2799
493.237	16.0517
494.995	17.0069
496.75	18.2917
498.506	18.2029
500.26	18.2314
502.015	19.4412
503.769	19.5016
505.525	19.6808
507.279	19.6045
509.032	18.0436
510.785	19.2675
512.537	19.9085
514.289	19.3422
516.041	20.2491
517.793	19.8163
519.546	19.7817
521.297	19.2139
523.047	20.5501
524.797	21.1799
526.547	21.1573
528.297	21.2646
530.046	21.646
531.795	20.9658
533.543	21.441
535.291	21.2131
537.039	20.5553
538.787	20.1307
540.534	19.7318
542.281	19.4121
544.027	18.5167
545.773	18.5132
547.519	18.4344
549.264	18.1276
551.01	17.2262
552.754	16.6614
554.499	16.628
556.243	15.5868
557.987	14.5438
559.73	14.3459
561.474	13.9113
563.216	12.997
564.959	12.1996
566.701	11.6865
568.441	11.4861
570.182	11.0225
571.923	11.0245
573.664	11.6358
575.405	11.5316
577.145	11.2926
578.885	11.201
580.624	10.9347
582.361	9.90378
584.1	8.7783
585.839	7.17786
587.577	7.19776
589.315	6.87459
591.052	6.23376
592.787	5.55302
594.524	5.5422
596.26	5.15256
597.997	4.949
599.732	4.60666
601.466	5.03507
603.201	5.85221
604.936	5.6973
606.67	6.45141
608.403	6.35688
610.136	7.23669
611.87	6.94458
613.603	6.29892
615.334	6.09792
617.067	6.63484
618.799	7.08577
620.529	7.51456
622.26	7.31096
623.991	7.75006
625.72	8.29854
627.451	7.97162
629.181	8.46313
630.909	10.1202
632.638	10.9969
634.368	12.1851
636.095	12.0545
637.823	12.9202
639.551	13.4537
641.277	13.4595
643.005	12.6889
644.73	12.6833
646.457	13.8742
648.184	13.0166
649.908	13.8158
651.634	15.4286
653.357	16.165
655.083	16.0638
656.806	16.9505
658.53	16.369
660.253	17.0613
661.977	16.8711
663.7	16.6249
665.422	16.6887
667.145	16.5872
668.865	17.1078
670.588	17.6308
672.308	16.9475
674.027	17.8926
675.749	18.3361
677.468	20.0993
679.188	20.3113
680.907	21.2964
682.627	21.5434
684.345	22.3697
686.064	23.5349
687.781	24.623
689.498	24.6879
691.216	24.9381
692.932	25.2095
694.65	26.0024
696.366	27.1662
698.081	27.8618
699.797	28.8169
701.512	30.1965
703.228	31.2268
704.942	32.4649
706.655	34.0892
708.371	34.9975
710.083	35.7935
711.796	36.4354
713.51	37.8953
715.222	39.5367
716.934	41.2251
718.645	40.8814
720.358	41.0688
722.068	40.7522
723.779	41.6802
725.49	41.9563
727.2	42.6958
728.909	43.1931
730.618	43.9707
732.329	44.8177
734.037	44.9001
735.745	47.0104
737.453	47.3227
739.16	47.3459
740.869	47.2781
742.576	48.9441
744.282	48.9449
745.988	49.716
747.694	50.3731
749.401	50.4568
751.107	51.265
752.811	51.889
754.516	53.1039
756.22	53.1155
757.924	53.9945
759.627	56.542
761.332	58.2136
763.035	58.6582
764.738	58.4751
766.44	59.2148
768.142	59.687
769.843	60.8409
771.544	62.4609
773.245	63.4447
774.946	64.9105
776.646	66.0806
778.346	67.5299
780.046	68.5669
781.745	69.0703
783.444	70.1857
785.143	70.9715
786.841	72.4647
788.539	73.7656
790.237	74.6591
791.934	75.4653
793.631	76.2173
795.328	76.6557
797.024	77.9473
798.72	78.5787
800.416	80.1692
802.112	81.1198
803.807	80.5263
805.502	81.5187
807.196	81.4496
808.89	81.5955
810.584	81.9108
812.278	81.939
813.971	80.7276
815.664	80.5847
817.354	80.7542
819.047	81.3254
820.739	81.5242
822.43	80.4948
824.122	80.8645
825.813	80.5135
827.503	80.4232
829.192	79.7162
830.882	78.8502
832.571	78.943
834.261	77.6027
835.95	77.153
837.637	75.6566
839.325	75.4314
841.013	74.5352
842.701	74.3149
844.389	73.0372
846.074	71.4426
847.761	69.6541
849.447	68.4206
851.131	67.8241
852.817	66.971
854.503	66.5515
856.188	66.7335
857.871	65.4302
859.556	64.6101
861.24	62.8142
862.922	62.0703
864.606	60.9698
866.289	60.5096
867.97	59.4982
869.653	58.6359
871.336	58.3666
873.016	57.4283
874.698	57.0364
876.379	57.0507
878.058	56.7475
879.739	56.1075
881.418	55.5274
883.098	54.771
884.778	54.6569
886.456	53.2452
888.135	52.2677
889.812	51.4336
891.49	51.4334
893.167	51.6458
894.845	51.3392
896.523	51.1332
898.198	51.7217
899.875	52.9303
901.55	54.0132
903.226	54.7624
904.901	54.5489
906.576	55.2546
908.25	56.5794
909.925	55.8259
911.598	55.8505
913.271	55.8683
914.945	55.1922
916.617	55.035
918.291	55.0629
919.962	54.5385
921.635	53.5784
923.306	53.3775
924.978	52.9522
926.648	52.8863
928.318	52.4011
929.989	52.1724
931.659	51.4837
933.328	51.2086
934.998	51.559
936.666	51.074
938.336	50.5658
940.004	49.4493
941.671	47.1831
943.34	45.4341
945.007	43.3781
946.673	42.9375
948.339	42.343
950.007	41.1317
951.672	40.0697
953.337	39.189
955.004	38.3195
956.669	37.102
958.333	35.4842
959.997	34.3527
961.662	33.8051
963.326	32.5551
964.989	31.1896
966.651	30.7147
968.315	30.4436
969.977	30.3874
971.639	30.4632
973.301	30.5576
974.962	31.0735
976.624	31.3706
978.285	31.424
979.945	32.5661
981.605	33.8959
983.264	33.803
984.924	33.8892
986.583	33.1877
988.243	33.0629
989.901	33.6447
991.56	32.8087
993.217	31.7701
994.875	31.9903
996.532	31.6973
998.188	30.9266
999.845	30.959
1001.5	30.7558
1003.16	29.9323
1004.81	29.0432
1006.47	29.0116
1008.12	29.2904
1009.78	29.2994
1011.43	28.8388
1013.09	29.4825
1014.74	30.036
1016.39	30.216
1018.05	30.6358
1019.7	30.319
1021.35	30.024
1023	30.6615
1024.65	30.2054
1026.31	29.8422
1027.96	30.346
1029.61	31.1009
1031.26	31.0011
1032.91	30.6019
1034.56	30.3428
1036.21	30.0993
1037.86	30.0369
1039.51	29.8913
1041.16	29.4178
1042.8	30.1034
1044.45	30.1561
1046.1	28.7864
1047.75	28.4739
1049.39	27.8463
1051.04	27.1547
1052.69	26.2443
1054.33	25.587
1055.98	25.0198
1057.62	24.2175
1059.27	23.7184
1060.91	21.9017
1062.56	21.0944
1064.2	19.6454
1065.85	17.4564
1067.49	15.5081
1069.13	14.0368
1070.77	12.9931
1072.42	12.07
1074.06	10.8299
1075.7	9.60118
1077.34	9.47119
1078.98	7.88342
1080.62	6.59154
1082.27	6.49004
1083.91	5.33172
1085.55	4.30346
1087.18	3.30219
1088.82	3.94743
1090.46	4.77088
1092.1	5.07626
1093.74	5.781
1095.38	7.24096
1097.02	7.41965
1098.65	8.28253
1100.29	8.89997
1101.93	8.82572
1103.56	9.11565
1105.2	9.45316
1106.84	8.86372
1108.47	9.33489
1110.11	10.6257
1111.74	10.6651
1113.38	11.5938
1115.01	11.95
1116.64	11.9033
1118.28	11.0801
1119.91	10.6143
1121.54	9.76556
1123.18	9.20722
1124.81	9.96859
1126.44	9.41081
1128.07	8.63484
1129.7	9.43501
1131.33	8.98829
1132.97	8.6939
1134.6	8.4019
1136.23	8.47653
1137.86	7.95624
1139.49	7.56846
1141.11	6.66211
1142.74	6.18866
1144.37	5.47464
1146	4.50677
1147.63	4.14749
1149.26	3.88343
1150.88	3.81409
1152.51	3.97076
1154.14	4.53048
1155.76	4.23839
1157.39	3.38156
1159.01	3.11892
1160.64	2.08299
1162.27	2.595
1163.89	2.62273
1165.51	2.27477
1167.14	2.49331
1168.76	2.59837
1170.39	3.57617
1172.01	4.22399
1173.63	4.21663
1175.25	5.11229
1176.88	5.28991
1178.5	5.3104
1180.12	6.02784
1181.74	5.97706
1183.36	5.67169
1184.98	5.78276
1186.6	5.60517
1188.22	6.29916
1189.84	6.68845
1191.46	7.1071
1193.08	6.90774
1194.7	7.53705
1196.32	7.44872
1197.94	7.75837
1199.55	7.74881
1201.17	8.96258
1202.79	9.74305
1204.41	10.8558
1206.02	11.5741
1207.64	12.1998
1209.25	13.2338
1210.87	14.4466
1212.48	14.314
1214.1	15.7343
1215.71	16.4463
1217.33	16.7346
1218.94	17.2662
1220.56	18.5377
1222.17	17.8691
1223.79	18.426
1225.4	18.7041
1227.01	19.9622
1228.62	21.383
1230.23	21.7343
1231.85	22.0298
1233.46	22.6149
1235.07	23.6367
1236.68	24.0292
1238.29	23.8955
1239.9	23.9282
1241.51	25.0767
1243.12	25.8642
1244.73	26.086
1246.34	26.2835
1247.94	26.5686
1249.55	27.648
1251.16	28.1338
1252.77	28.0815
1254.37	27.95
1255.98	28.7255
1257.59	27.8818
1259.2	27.3166
1260.8	27.6125
1262.41	27.6283
1264.01	26.924
1265.62	27.3608
1267.22	26.5556
1268.83	27.5313
1270.43	27.6879
1272.03	28.2544
1273.64	27.8849
1275.24	28.5461
1276.85	27.7001
1278.45	27.3447
1280.05	26.1068
1281.65	26.2232
1283.25	25.9718
1284.85	26.3677
1286.46	27.1467
1288.06	28.148
1289.66	27.9534
1291.26	28.3721
1292.86	29.1116
1294.46	29.5779
1296.06	28.2478
1297.66	28.06
1299.25	28.0845
1300.85	28.9131
1302.45	28.4036
1304.05	29.1821
1305.65	30.1255
1307.24	30.8566
1308.84	30.9518
1310.43	31.0869
1312.03	31.2107
1313.63	32.5557
1315.22	33.9504
1316.82	34.3526
1318.41	34.3738
1320.01	35.2129
1321.6	36.4227
1323.2	36.5221
1324.79	35.9809
1326.38	36.2186
1327.98	36.0877
1329.57	36.0759
1331.16	35.8537
1332.76	35.8435
1334.35	35.3806
1335.94	35.2235
1337.53	34.6108
1339.12	35.5535
1340.71	35.8789
1342.3	35.0584
1343.89	34.4355
1345.48	34.4603
1347.07	33.9178
1348.66	34.1337
1350.25	33.5316
1351.84	32.5726
1353.43	31.4867
1355.01	30.8444
1356.6	29.4593
1358.19	28.6589
1359.77	27.8531
1361.36	27.3976
1362.95	28.1439
1364.53	27.4977
1366.12	26.8272
1367.71	26.158
1369.29	25.1948
1370.88	25.3752
1372.46	24.7813
1374.04	22.822
1375.63	22.4792
1377.21	23.0805
1378.8	23.0009
1380.38	23.0085
1381.96	21.8737
1383.54	20.9418
1385.13	20.8537
1386.71	20.4195
1388.29	20.2262
1389.87	19.9715
1391.45	20.4417
1393.03	20.6917
1394.61	20.3514
1396.19	19.8677
1397.77	18.827
1399.35	18.3535
1400.93	18.2131
1402.51	18.0864
1404.09	17.2938
1405.67	18.8039
1407.24	19.207
1408.82	20.4658
1410.4	21.3654
1411.98	21.1973
1413.55	21.5977
1415.13	22.9952
1416.71	24.375
1418.28	25.5981
1419.86	25.8708
1421.43	27.709
1423.01	29.405
1424.58	30.6575
1426.16	31.8843
1427.73	33.1982
1429.31	34.8754
1430.88	35.7152
1432.45	37.1806
1434.02	38.5551
1435.6	39.952
1437.17	40.8977
1438.74	43.2504
1440.31	44.9494
1441.88	46.5667
1443.45	46.8332
1445.03	48.5529
1446.6	48.9979
1448.17	49.4678
1449.74	49.6044
1451.3	50.5922
1452.87	50.6252
1454.44	51.0209
1456.01	50.6112
1457.58	50.1391
1459.15	49.2196
1460.72	48.9993
1462.28	47.9771
1463.85	47.7607
1465.42	47.2514
1466.98	47.1213
1468.55	46.1419
1470.12	45.6468
1471.68	43.7721
1473.25	43.1451
1474.81	42.3856
1476.38	41.3529
1477.94	40.6079
1479.51	40.0168
1481.07	39.304
1482.63	38.3768
1484.2	38.1242
1485.76	35.8251
1487.32	34.6285
1488.88	32.8494
1490.45	32.0247
1492.01	31.351
1493.57	30.7764
1495.13	30.242
1496.69	28.8947
1498.25	28.5769
1499.81	27.9379
1501.37	26.6628
1502.93	25.1147
1504.49	23.6081
1506.05	21.7618
1507.61	20.8339
1509.17	18.8078
1510.73	18.0372
1512.28	16.6855
1513.84	15.5225
1515.4	15.1134
1516.96	14.8839
1518.51	13.3171
1520.07	12.4484
1521.63	12.2671
1523.18	11.0357
1524.74	10.2754
1526.29	10.6544
1527.85	10.4883
1529.4	10.9555
1530.96	10.2522
1532.51	10.2576
1534.06	10.3503
1535.62	10.4483
1537.17	10.2044
1538.72	11.3344
1540.28	11.4122
1541.83	11.6714
1543.38	12.4165
1544.93	12.32
1546.48	11.932
1548.03	12.4539
1549.59	13.0316
1551.14	13.9873
1552.69	14.85
1554.24	15.5088
1555.79	15.7882
1557.34	16.7336
1558.88	17.7941
1560.43	18.0857
1561.98	18.6639
1563.53	19.587
1565.08	21.0878
1566.62	21.956
1568.17	22.3941
1569.72	22.8038
1571.27	23.9614
1572.81	24.9784
1574.36	25.1983
1575.9	25.4857
1577.45	26.4314
1579	26.2186
1580.54	26.2316
1582.09	26.383
1583.63	26.053
1585.17	26.4872
1586.72	27.0094
1588.26	28.0381
1589.8	28.9527
1591.35	30.0081
1592.89	30.7518
1594.43	30.5942
1595.97	30.7286
1597.52	31.6488
1599.06	31.7776
1600.6	31.7713
1602.14	32.4595
1603.68	31.8332
1605.22	30.917
1606.76	30.5857
1608.3	30.4972
1609.84	29.7719
1611.38	29.1758
1612.92	28.6225
1614.46	28.0603
1615.99	27.7438
1617.53	26.6634
1619.07	25.7587
1620.61	25.0283
1622.14	24.5649
1623.68	24.5666
1625.22	23.4493
1626.75	22.7633
1628.29	21.9385
1629.82	21.7218
1631.36	21.5449
1632.9	21.7669
1634.43	22.0286
1635.96	22.6802
1637.5	22.726
1639.03	23.3044
1640.57	24.8464
1642.1	25.4493
1643.63	26.3449
1645.16	27.2805
1646.7	29.2662
1648.23	30.336
1649.76	30.8965
1651.29	31.8332
1652.82	32.1938
1654.36	33.1407
1655.89	32.5935
1657.42	32.907
1658.95	32.0383
1660.48	32.3089
1662.01	33.0863
1663.53	34.2383
1665.06	33.7569
1666.59	34.2382
1668.12	33.6487
1669.65	33.9493
1671.18	33.6712
1672.7	33.4533
1674.23	32.5469
1675.76	31.0156
1677.29	30.2726
1678.81	29.0308
1680.34	27.2062
1681.86	25.9766
1683.39	25.1225
1684.91	24.3
1686.44	22.4458
1687.96	20.6731
1689.49	19.7225
1691.01	18.3364
1692.54	16.9261
1694.06	14.7101
1695.58	12.8549
1697.11	11.4988
1698.63	10.3444
1700.15	8.34564
1701.67	6.49344
1703.2	5.84642
1704.72	4.98093
1706.24	4.56803
1707.76	4.72878
1709.28	4.82285
1710.8	4.31392
1712.32	4.16482
1713.84	3.81027
1715.36	3.8779
1716.88	4.20353
1718.4	3.60339
1719.91	3.91177
1721.43	4.05261
1722.95	3.60129
1724.47	3.41217
1725.99	3.29711
1727.5	2.51466
1729.02	1.52495
1730.54	1.14727
1732.05	1.44757
1733.57	0.734538
1735.09	0.967463
1736.6	1.76718
1738.12	1.86696
1739.63	2.62815
1741.15	2.13082
1742.66	2.99035
1744.18	3.00663
1745.69	3.37501
1747.2	2.81324
1748.72	2.66334
1750.23	2.08397
1751.74	2.30755
1753.25	1.96547
1754.77	1.60409
1756.28	1.62939
1757.79	1.78696
1759.3	1.98741
1760.81	1.85798
1762.32	0.910251
1763.83	1.12189
1765.34	1.47999
1766.85	0.731122
1768.36	0.419245
1769.87	-0.0956523
1771.38	0.394196
1772.89	0.696932
1774.4	-0.0610577
1775.91	0.203903
1777.41	0.451535
1778.92	0.276946
1780.43	1.10193
1781.94	1.80084
1783.44	2.33806
1784.95	2.37618
1786.45	1.92276
1787.96	2.06847
1789.47	2.045
1790.97	1.94128
1792.47	1.70202
1793.98	1.67458
1795.48	2.40573
1796.99	2.21535
1798.49	2.15368
1800	2.11445
1801.5	2.13127
1803	1.97488
1804.51	2.22966
1806.01	2.68883
1807.51	3.20767
1809.01	2.98542
1810.51	3.28312
1812.02	3.37635
1813.52	3.54112
1815.02	4.01018
1816.52	4.15582
1818.02	4.87271
1819.52	4.83129
1821.02	4.74556
1822.52	5.16851
1824.02	5.39391
1825.51	5.33415
1827.01	5.52695
1828.51	5.04973
1830.01	5.56894
1831.51	5.99021
1833	5.79226
1834.5	5.77569
1836	4.98087
1837.49	4.86779
1838.99	5.2005
1840.49	5.01652
1841.98	4.84567
1843.48	4.61076
1844.97	4.81126
1846.47	5.27403
1847.96	5.05108
1849.46	5.43198
1850.95	5.71081
1852.45	5.72441
1853.94	5.46405
1855.43	5.26935
1856.92	4.88455
1858.42	4.61195
1859.91	4.13945
1861.4	4.18937
1862.89	3.71705
1864.39	2.94553
1865.88	3.18436
1867.37	3.0192
1868.86	3.829
1870.35	3.86494
1871.84	3.20909
1873.33	3.0845
1874.82	2.87687
1876.31	2.85506
1877.8	2.50795
1879.29	2.38902
1880.77	2.40079
1882.26	2.41295
1882.52	2.81909
1884.02	2.36586
1885.51	2.50526
1887.01	2.39973
1888.5	2.49845
1889.99	2.59012
1891.49	2.47959
1892.98	1.42869
1894.47	1.4794
1895.96	1.26435
1897.46	0.717767
1898.95	0.940686
1900.44	1.49686
1901.93	1.14009
1903.42	1.48801
1904.91	1.50331
1906.4	1.059
1907.89	0.824533
1909.38	0.252073
1910.87	0.653552
1912.36	0.678106
1913.85	0.748694
1915.34	0.597686
1916.83	0.700185
1918.32	1.07429
1919.8	0.654984
1921.29	0.787108
1922.78	1.22739
1924.27	0.819393
1925.75	0.763115
1927.24	0.64183
1928.73	0.513088
1930.21	1.16355
1931.7	0.998073
1933.18	1.38283
1934.67	1.20324
1936.15	1.12285
1937.64	1.38794
1939.12	1.62379
1940.61	1.67803
1942.09	2.38947
1943.57	1.7872
1945.06	1.51648
1946.54	2.12061
1948.02	1.98567
1949.51	1.58193
1950.99	2.02726
1952.47	2.05713
1953.95	1.69147
1955.43	1.66764
1956.91	1.75836
1958.39	1.01165
1959.87	1.13365
1961.36	1.48724
1962.84	1.51071
1964.32	1.63015
1965.79	1.70093
1967.27	1.64054
1968.75	2.21938
1970.23	2.55541
1971.71	2.59131
1973.19	3.7774
1974.66	3.75841
1976.14	2.64728
1977.62	2.65304
1979.1	2.61577
1980.57	2.7189
1982.05	2.51682
1983.53	2.54935
1985	3.11409
1986.48	3.52855
1987.95	3.70756
1989.43	3.7976
1990.9	4.42205
1992.38	4.19717
1993.85	4.60682
1995.33	5.77525
1996.8	5.87148
1998.27	5.50088
1999.75	5.73742
2001.22	6.00256
2002.69	5.90086
2004.16	6.08123
2005.64	5.69537
2007.11	5.94035
2008.58	4.77504
2010.05	4.7573
2011.52	4.16469
2012.99	4.0969
2014.46	4.36663
2015.93	4.33716
2017.4	3.67698
2018.87	3.42722
2020.34	3.59228
2021.81	3.14803
2023.28	3.07761
2024.75	3.4419
2026.22	3.33341
2027.69	3.80991
2029.15	3.81745
2030.62	3.9403
2032.09	4.03386
2033.56	4.7792
2035.02	5.38416
2036.49	5.14613
2037.95	4.60012
2039.42	4.54968
2040.89	4.32845
2042.35	4.33976
2043.82	4.66424
2045.28	4.36291
2046.75	5.00838
2048.21	4.51617
2049.67	4.03757
2051.14	4.00002
2052.6	4.36983
2054.06	4.7104
2055.53	4.5827
2056.99	4.91721
2058.45	5.91514
2059.92	5.51366
2061.38	5.12831
2062.84	5.53253
2064.3	5.98545
2065.76	5.92408
2067.22	6.67356
2068.68	7.0596
2070.14	6.4272
2071.6	6.29419
2073.06	6.76636
2074.52	6.35471
2075.98	5.79348
2077.44	6.11961
2078.9	5.51874
2080.36	5.21345
2081.82	4.1759
2083.27	4.4809
2084.73	5.01298
2086.19	5.56233
2087.65	5.4794
2089.1	5.41649
2090.56	5.56264
2092.01	5.28902
2093.47	5.98993
2094.93	6.40178
2096.38	6.6102
2097.84	6.62422
2099.29	6.66772
2100.75	6.79193
2102.2	6.34093
2103.66	6.48807
2105.11	6.71868
2106.56	6.98464
2108.02	6.06873
2109.47	5.54804
2110.92	5.30192
2112.37	6.09922
2113.83	6.30419
2115.28	6.61406
2116.73	6.79534
2118.18	6.2295
2119.63	6.37349
2121.09	6.35836
2122.54	6.05288
2123.99	6.36138
2125.44	6.35026
2126.89	6.13736
2128.34	5.97601
2129.79	6.41858
2131.23	6.87905
2132.68	6.5893
2134.13	7.03128
2135.58	8.02505
2137.03	8.00476
2138.48	7.95053
2139.92	8.21493
2141.37	8.45256
2142.82	8.51352
2144.26	8.919
2145.71	9.19228
2147.16	9.29112
2148.6	10.0922
2150.05	10.7035
2151.49	10.2277
2152.94	10.5076
2154.38	10.5652
2155.83	11.6549
2157.27	12.1924
2158.72	12.2702
2160.16	11.8316
2161.6	12.2683
2163.05	12.4193
2164.49	12.8414
2165.93	13.7031
2167.38	13.3104
2168.82	13.5697
2170.26	13.3326
2171.7	14.1429
2173.14	14.3463
2174.58	14.7258
2176.03	14.9919
2177.47	15.1092
2178.91	15.3694
2180.35	15.2886
2181.79	16.5836
2183.23	16.943
2184.67	17.0649
2186.1	16.4303
2187.54	16.3423
2188.98	16.0307
2190.42	15.4966
2191.86	15.6487
2193.3	16.0674
2194.73	15.8915
2196.17	15.9266
2197.61	15.3954
2199.05	15.4187
2200.48	15.1388
2201.92	15.4237
2203.35	15.096
2204.79	15.0047
2206.22	14.8462
2207.66	14.8224
2209.09	14.7294
2210.53	14.8063
2211.96	15.0639
2213.4	15.5777
2214.83	15.6761
2216.27	15.4151
2217.7	15.6167
2219.13	15.4729
2220.56	15.0626
2222	13.9723
2223.43	13.3199
2224.86	12.6292
2226.29	12.1533
2227.72	12.4293
2229.16	11.5055
2230.59	10.997
2232.02	10.5903
2233.45	10.6129
2234.88	10.9667
2236.31	10.7842
2237.74	9.93815
2239.17	9.35197
2240.6	9.42541
2242.03	8.92441
2243.45	8.99577
2244.88	8.29746
2246.31	8.14989
2247.74	7.88061
2249.17	7.46065
2250.59	7.45996
2252.02	7.14075
2253.45	6.67319
2254.87	5.65883
2256.3	5.04908
2257.73	4.74123
2259.15	5.24297
2260.58	4.83424
2262	4.88385
2263.43	4.96788
2264.85	5.75044
2266.28	5.66842
2267.7	5.49828
2269.13	4.93243
2270.55	5.49368
2271.97	5.6312
2273.4	5.82037
2274.82	5.95141
2276.24	6.27536
2277.66	6.28776
2279.09	6.54088
2280.51	7.15049
2281.93	6.87628
2283.35	6.96594
2284.77	7.39361
2286.19	6.86793
2287.61	6.52266
2289.04	6.34675
2290.46	5.76733
2291.88	4.71136
2293.29	4.33985
2294.71	4.42837
2296.13	4.70226
2297.55	5.60798
2298.97	6.1371
2300.39	5.74168
2301.81	6.63022
2303.23	7.02711
2304.64	7.25973
2306.06	7.99764
2307.48	7.22206
2308.89	7.76416
2310.31	8.34402
2311.73	8.63583
2313.14	9.03207
2314.56	9.54538
2315.97	9.31555
2317.39	9.98375
2318.8	10.1074
2320.22	9.90293
2321.63	10.1676
2323.05	9.90028
2324.46	10.2715
2325.88	10.5755
2327.29	11.3096
2328.7	11.7414
2330.12	12.3212
2331.53	11.845
2332.94	11.6787
2334.35	11.6347
2335.76	11.8378
2337.18	11.3292
2338.59	11.1556
2340	10.2529
2341.41	10.3328
2342.82	10.1138
2344.23	9.45244
2345.64	9.46748
2347.05	8.62617
2348.46	7.97506
2349.87	7.19203
2351.28	6.21818
2352.69	5.07685
2354.1	4.72767
2355.5	4.4466
2356.91	3.53798
2358.32	3.25574
2359.73	3.43995
2361.14	2.98642
2362.54	3.10866
2363.95	3.55904
2365.36	4.0413
2366.76	4.32407
2368.17	4.37507
2369.58	4.26836
2370.98	4.19062
2372.39	4.41756
2373.79	3.53378
2375.2	3.69955
2376.6	3.77274
2378	3.35356
2379.41	3.39023
2380.81	2.99627
2382.22	2.5357
2383.62	2.32211
2385.02	2.33583
2386.42	2.0547
2387.83	2.69786
2389.23	2.36306
2390.63	2.44273
2392.03	2.72266
2393.43	2.89536
2394.84	3.06943
2396.24	3.11209
2397.64	3.05775
2399.04	2.92883
2400.44	2.45004
2401.84	2.41831
2403.24	2.30624
2404.64	2.7423
2406.04	3.17695
2407.44	3.32854
2408.83	3.18856
2410.23	2.59396
2411.63	3.1904
2413.03	2.86565
2414.43	1.92019
2415.83	2.05934
2417.22	1.66859
2418.62	2.02722
2420.02	2.79419
2421.41	3.0485
2422.81	3.53682
2424.21	3.89694
2425.6	3.98386
2427	4.59806
2428.39	5.03679
2429.79	4.94464
2431.18	4.69026
2432.58	4.75798
2433.97	4.57077
2435.36	4.39481
2436.76	4.05729
2438.15	3.97196
2439.54	3.74699
2440.94	2.745
2442.33	2.94662
2443.72	2.6143
2445.11	3.10036
2446.51	2.96699
2447.9	2.80561
2449.29	2.5377
2450.68	2.75755
2452.07	2.74173
2453.46	3.23971
2454.85	4.07626
2456.24	4.41598
2457.63	4.5979
2459.02	4.0574
2460.41	4.23957
2461.8	4.1078
2463.19	4.11258
2464.58	3.64827
2465.97	3.74308
2467.36	3.53514
2468.75	3.98409
2470.13	3.84212
2471.52	4.61555
2472.91	3.86215
2474.29	4.16585
2475.68	4.31471
2477.07	4.4912
2478.45	4.56359
2479.84	5.00378
2481.22	5.20038
2482.61	5.31889
2484	5.75454
2485.38	5.77581
2486.77	5.60944
2488.15	5.50987
2489.54	5.38328
2490.92	4.31052
2492.3	4.44627
2493.69	4.59405
2495.07	4.6498
2496.45	4.57363
2497.84	3.80879
2499.22	3.78005
2500.6	3.95085
2501.98	3.71922
2503.36	3.49464
2504.74	3.12339
2506.13	3.14329
2507.51	3.54867
2508.89	2.94881
2510.27	3.21732
2511.65	3.87131
2513.03	3.55283
2514.41	4.06358
2515.79	3.80933
2517.17	3.97261
2518.55	4.2607
2519.93	4.51947
2521.3	5.06991
2522.68	5.2198
2524.06	5.18572
2525.44	4.49409
2526.82	4.22616
2528.19	3.77896
2529.57	4.53963
2530.95	4.56475
2532.32	4.57309
2533.7	4.2497
2535.08	3.98614
2536.45	4.35008
2537.83	4.52845
2539.2	4.67582
2540.58	4.74411
2541.95	4.50267
2543.33	5.33631
2544.7	5.55885
2546.08	6.04259
2547.45	6.19536
2548.82	6.14685
2550.2	5.78414
2551.57	6.02848
2552.94	5.44303
2554.32	4.7931
2555.69	4.58257
2557.06	4.143
2558.43	4.33914
2559.8	4.1968
2561.17	4.5524
2562.55	4.98248
2563.92	4.46902
2565.29	4.56951
2566.66	5.15118
2568.03	5.5501
2569.4	4.99085
2570.77	5.20097
2572.14	4.94821
2573.51	5.53322
2574.88	5.73391
2576.24	6.00796
2577.61	5.97979
2578.98	7.26145
2580.35	7.28374
2581.72	8.06658
2583.09	8.51323
2584.45	8.56986
2585.82	9.04882
2587.19	8.86897
2588.55	8.7182
2589.92	9.07338
2591.28	8.47346
2592.65	8.58041
2594.02	8.52873
2595.38	8.87271
2596.75	8.51599
2598.11	9.19872
2599.48	8.64396
2600.84	8.51849
2602.2	8.00717
2603.57	7.45985
2604.93	7.64063
2606.3	7.15101
2607.66	7.40245
2609.02	7.24495
2610.38	7.39145
2611.75	7.9135
2613.11	8.05849
2614.47	7.76211
2615.83	7.31433
2617.19	7.08602
2618.56	6.85206
2619.92	6.76875
2621.28	5.7342
2622.64	5.88832
2624	5.36471
2625.36	5.54601
2626.72	5.63415
2628.08	5.4432
2629.44	5.00266
2630.8	5.26744
2632.15	5.49729
2633.51	5.93698
2634.87	6.00729
2636.23	5.78662
2637.59	5.9364
2638.94	6.97796
2640.3	6.90035
2641.66	7.35175
2643.02	7.50487
2644.37	7.55148
2645.73	7.98654
2647.08	8.45011
2648.44	8.0881
2649.8	8.34126
2651.15	8.01945
2652.51	7.98163
2653.86	7.95727
2655.22	8.19019
2656.57	8.32921
2657.92	8.32764
2659.28	8.01128
2660.63	8.53258
2661.99	8.56384
2663.34	8.33518
2664.69	8.40162
2666.04	8.87364
2667.4	8.34964
2668.75	8.61755
2670.1	7.58352
2671.45	7.45603
2672.81	7.72117
2674.16	7.97224
2675.51	8.34696
2676.86	7.78605
2678.21	7.68759
2679.56	7.31361
2680.91	6.71348
2682.26	5.94966
2683.61	6.31888
2684.96	6.03575
2686.31	5.50497
2687.66	5.40595
2689	5.05433
2690.35	5.05827
2691.7	4.20154
2693.05	4.69557
2694.4	4.37681
2695.74	4.89819
2697.09	5.22107
2698.44	6.79584
2699.79	6.94252
2701.13	7.04426
2702.48	7.34347
2703.82	7.39734
2705.17	8.23882
2706.52	8.497
2707.86	8.11137
2709.21	8.73555
2710.55	9.3495
2711.9	9.27611
2713.24	9.99715
2714.58	10.3011
2715.93	10.3736
2717.27	11.098
2718.61	12.1388
2719.96	12.7236
2721.3	12.9833
2722.64	13.1747
2723.99	13.496
2725.33	13.697
2726.67	14.1035
2728.01	14.9487
2729.35	14.9004
2730.7	14.5294
2732.04	14.6013
2733.38	14.0879
2734.72	13.5524
2736.06	13.5937
2737.4	12.9064
2738.74	12.8393
2740.08	12.1229
2741.42	11.3275
2742.76	10.3179
2744.09	10.0386
2745.43	9.47137
2746.77	8.66908
2748.11	8.78447
2749.45	8.77588
2750.79	8.37685
2752.12	7.60719
2753.46	7.86209
2754.8	7.78673
2756.13	7.65932
2757.47	7.53626
2758.81	7.48928
2760.14	8.20967
2761.48	7.9563
2762.81	8.05512
2764.15	7.97855
2765.49	7.67953
2766.82	7.03364
2768.15	6.88036
2769.49	6.52271
2770.82	5.87419
2772.16	5.87785
2773.49	5.23895
2774.82	5.22967
2776.16	5.70873
2777.49	5.31984
2778.82	4.89223
2780.16	4.74447
2781.49	4.48853
2782.82	4.60466
2784.15	4.62927
2785.48	4.45463
2786.81	3.50577
2788.15	2.80459
2789.48	2.71593
2790.81	2.51914
2792.14	1.94052
2793.47	1.92599
2794.8	2.11958
2796.13	1.01154
2797.46	0.580245
2798.79	0.194337
2800.12	-0.0564663
2801.44	-0.127259
2802.77	-0.296022
2804.1	-0.138276
2805.43	-0.219781
2806.76	0.0253438
2808.08	0.740682
2809.41	1.38913
2810.74	2.08219
2812.07	2.33662
2813.39	2.85562
2814.72	3.33365
2816.05	3.62905
2817.37	3.83005
2818.7	4.76855
2820.02	6.06273
2821.35	7.19658
2822.67	7.9373
2824	8.71741
2825.32	9.52432
2826.65	10.4652
2827.97	10.8272
2829.29	11.8895
2830.62	12.6863
2831.94	13.3984
2833.26	14.6709
2834.59	15.425
2835.91	16.5303
2837.23	17.8102
2838.55	19.8331
2839.88	21.0597
2841.2	22.869
2842.52	24.62
2843.84	25.5084
2845.16	26.9424
2846.48	28.7026
2847.8	30.5774
2849.12	33.0766
2850.44	35.2979
2851.76	37.5795
2853.08	39.868
2854.4	42.6193
2855.72	45.1666
2857.04	48.0871
2858.36	50.514
2859.68	52.8139
2861	55.2484
2862.32	57.1573
2863.63	59.6346
2864.95	61.713
2866.27	64.3272
2867.58	66.7767
2868.9	69.312
2870.22	72.2656
2871.53	74.0181
2872.85	75.7784
2874.17	77.5585
2875.48	78.5926
2876.8	79.8862
2878.11	81.253
2879.43	82.3004
2880.74	84.1791
2882.06	85.4947
2883.37	87.3647
2884.69	88.9269
2886	90.1029
2887.31	90.8689
2888.63	91.706
2889.94	92.8362
2891.25	93.773
2892.57	94.6835
2893.88	95.891
2895.19	96.9907
2896.5	98.1943
2897.82	99.9254
2899.13	101.569
2900.44	103.214
2901.75	105.184
2903.06	107.34
2904.37	109.548
2905.68	111.44
2906.99	114.341
2908.3	116.97
2909.61	119.737
2910.92	123.232
2912.23	126.633
2913.54	129.754
2914.85	132.688
2916.16	135.078
2917.46	137.29
2918.77	139.875
2920.08	141.653
2921.39	142.908
2922.7	144.524
2924	145.031
2925.31	146.046
2926.62	147.189
2927.92	147.908
2929.23	148.242
2930.53	148.587
2931.84	148.337
2933.15	148.254
2934.45	147.674
2935.76	146.843
2937.06	145.238
2938.37	143.779
2939.67	142.352
2940.98	140.555
2942.28	139.032
2943.58	136.875
2944.89	134.798
2946.19	132.667
2947.49	129.861
2948.8	128.366
2950.1	125.314
2951.4	122.639
2952.7	120.309
2954.01	117.752
2955.31	114.766
2956.61	112.25
2957.91	109.92
2959.21	107.332
2960.51	104.266
2961.81	102.311
2963.11	100.2
2964.41	98.1645
2965.71	96.0103
2967.01	93.7726
2968.31	91.6387
2969.61	89.9928
2970.91	88.3312
2972.21	86.7318
2973.51	84.7158
2974.81	82.3697
2976.1	80.0744
2977.4	77.4153
2978.7	74.4182
2980	71.6086
2981.29	69.0092
2982.59	66.3932
2983.89	63.6772
2985.18	60.2881
2986.48	57.6595
2987.78	54.868
2989.07	52.2451
2990.37	49.857
2991.66	47.5216
2992.96	45.1634
2994.25	42.4551
2995.55	40.5888
2996.84	38.3026
2998.14	36.1514
2999.43	33.4669
3000.72	31.2535
3002.02	29.2348
3003.31	26.954
3004.6	24.8892
3005.9	23.1788
3007.19	20.9168
3008.48	19.5635
3009.77	18.1847
3011.07	16.8642
3012.36	15.5829
3013.65	14.2071
3014.94	12.259
3016.23	11.165
3017.52	10.3325
3018.81	9.39921
3020.1	8.75204
3021.39	7.92642
3022.68	7.46393
3023.97	6.15869
3025.26	5.62813
3026.55	5.62597
3027.84	5.09456
3029.13	4.77254
3030.42	4.50225
3031.71	4.11009
3033	4.12252
3034.28	3.9177
3035.57	4.0289
3036.86	3.72974
3038.15	3.40921
3039.43	4.03473
3040.72	4.23871
3042.01	3.935
3043.29	3.90139
3044.58	4.47911
3045.86	4.25783
3047.15	4.77556
3048.44	4.64105
3049.72	4.9274
3051.01	5.2157
3052.29	5.23483
3053.58	5.99243
3054.86	5.82408
3056.14	6.29919
3057.43	6.76464
3058.71	6.80706
3060	6.65628
3061.28	6.18404
3062.56	5.75149
3063.84	5.48952
3065.13	5.33245
3066.41	5.43597
3067.69	4.98789
3068.97	4.97692
3070.25	4.61405
3071.54	3.77338
3072.82	3.89346
3074.1	3.18834
3075.38	2.73909
3076.66	2.83392
3077.94	2.44053
3079.22	1.97162
3080.5	1.69372
3081.78	1.93753
3083.06	1.45521
3084.34	0.53401
3085.62	0.00538299
3086.9	-0.122857
3088.17	-0.756203
3089.45	-0.399186
3090.73	-0.263858
3092.01	-0.476102
3093.29	-0.19568
3094.56	-0.815681
3095.84	-1.43439
3097.12	-1.51452
3098.4	-1.42474
3099.67	-1.06497
3100.95	-0.872365
3102.22	-0.650787
3103.5	-0.347682
3104.77	-0.784693
3106.05	-0.61978
3107.33	-0.00255243
3108.6	0.560713
3109.88	0.633227
3111.15	1.39446
3112.43	1.78356
3113.7	2.48016
3114.97	2.57391
3116.25	3.32412
3117.52	3.82044
3118.79	3.97543
3120.07	4.89623
3121.34	5.20452
3122.61	5.29067
3123.88	5.5476
3125.16	6.30962
3126.43	6.82823
3127.7	7.43728
3128.97	8.2113
3130.24	9.20856
3131.51	9.28058
3132.78	9.97151
3134.05	10.3809
3135.33	11.1797
3136.59	12.2841
3137.86	12.9881
3139.14	13.6271
3140.41	14.4801
3141.67	14.6435
3142.94	15.0812
3144.21	15.4866
3145.48	15.5342
3146.75	15.8841
3148.02	16.1635
3149.28	15.0921
