#Acq. time (s)=	45
#Accumulations=	2
#Range (cm-¹)=	200...3150
#Windows=	2
#Auto scanning=	Off
#Autofocus=	Off
#Macrospot=	Off
#AutoExposure=	Off
#Spike filter=	Multiple accum.
#Delay time (s)=	0
#Binning=	1
#Readout mode=	Signal
#DeNoise=	Off
#ICS correction=	On
#Dark correction=	Off
#Inst. Process=	Off
#Detector Gain=	Best Dynamic Range
#Detector ADC=	20 kHz       
#Detector temperature (°C)=	-69.85
#Instrument=	LabRAM HR Evol
#Detector=	Synapse
#Objective=	x100
#Grating=	600 gr/mm
#ND Filter=	100%
#Laser (nm)=	532 
#Hole=	100.021
#Range=	Auto
#Laser Pol.=	No
#Raman. Pol.=	No
#Laser Pol. (°)=	-0.0007625
#Raman Pol. (°)=	89.9995
#Collection=	Microscope
#StageXY=	Marzhauser
#StageZ=	Marzhauser
#X (µm)=	-632
#Y (µm)=	-1688.3
#Z (µm)=	89
#Full time(mm:ss)=	3:18
#Project=	
#Sample=	
#Site=	
#Title=	Mb_10_14_42_2x_45s_532 nm_x100_100%_600 gr_mm
#Remark=	
#Date=	11.07.2022 11:45
#Acquired=	11.07.2022 11:45:49
#Base:Fit=	10.08.2022 10:21:11
#Base:Sub=	10.08.2022 10:21:41
#Filter:Polynom=	16.08.2022 10:17:53
#AxisType[0]=Intens
#AxisUnit[0]=Cnt
#AxisType[1]=Spectr
#AxisUnit[1]=1/cm
200.388	22.7914
202.204	13.8881
204.019	6.62123
205.832	3.7242
207.646	2.92795
209.459	3.51896
211.274	5.46013
213.087	8.00909
214.899	10.058
216.711	11.9658
218.524	14.2804
220.335	15.4431
222.146	16.5121
223.956	18.1183
225.766	19.116
227.576	21.065
229.388	21.6515
231.197	23.3892
233.005	24.1106
234.813	24.5797
236.621	25.4385
238.429	26.1856
240.236	25.8577
242.045	26.0831
243.852	25.2452
245.658	25.2143
247.464	25.9243
249.269	26.0022
251.074	26.3881
252.879	25.8846
254.683	25.3832
256.487	25.2036
258.291	25.0721
260.094	24.3511
261.897	22.1701
263.702	21.5875
265.504	21.5483
267.306	21.4165
269.108	20.2914
270.909	19.1237
272.71	16.6885
274.511	15.7556
276.311	15.4158
278.111	13.7287
279.91	12.5935
281.709	10.8145
283.508	9.11196
285.306	7.73928
287.105	8.39888
288.9	9.08089
290.698	9.48194
292.495	10.8316
294.291	11.5103
296.088	11.4948
297.884	12.0902
299.679	12.3543
301.475	12.4762
303.27	12.2566
305.064	11.1452
306.858	11.8481
308.652	12.3481
310.444	12.1682
312.237	13.3294
314.03	13.4446
315.822	12.8533
317.615	12.8067
319.406	12.3675
321.198	12.7545
322.987	11.526
324.778	11.5216
326.568	10.6541
328.358	9.74921
330.148	8.80602
331.935	8.50642
333.724	8.20931
335.513	8.23621
337.301	7.42395
339.089	7.26807
340.875	7.92055
342.662	7.62123
344.449	7.29585
346.236	6.88461
348.02	6.69797
349.806	6.68201
351.592	7.36869
353.375	8.81775
355.16	9.40845
356.944	11.2639
358.728	11.5666
360.51	12.2034
362.294	13.7212
364.077	15.2741
365.858	16.8363
367.64	17.9103
369.422	18.5312
371.202	18.7955
372.983	19.2181
374.764	19.6075
376.543	20.4607
378.324	20.7568
380.102	20.9861
381.881	22.276
383.661	23.2458
385.438	24.4738
387.216	24.8737
388.993	24.4325
390.771	25.1126
392.548	24.9372
394.324	24.3291
396.101	24.3098
397.875	23.5118
399.651	22.6364
401.425	21.7826
403.201	20.3918
404.974	18.487
406.749	18.0107
408.524	17.5566
410.296	16.3144
412.07	14.9546
413.841	14.4032
415.614	13.7015
417.385	13.0121
419.156	11.7827
420.928	11.0601
422.698	10.3653
424.469	9.78697
426.238	9.23587
428.009	9.33157
429.777	8.08078
431.548	7.45278
433.315	7.29523
435.083	6.40557
436.852	6.68228
438.618	7.28218
440.387	7.74458
442.153	7.55927
443.919	7.92146
445.686	8.62373
447.451	7.96107
449.218	8.84013
450.982	8.32927
452.746	8.34215
454.512	10.0643
456.275	9.36168
458.038	9.54485
459.803	10.1037
461.565	10.9135
463.327	11.064
465.091	11.6826
466.852	11.5038
468.613	11.2273
470.374	11.1069
472.136	11.2678
473.896	11.4365
475.655	10.7946
477.415	10.6579
479.176	10.9691
480.934	10.6583
482.692	11.4715
484.45	12.3361
486.21	13.1041
487.967	13.2796
489.724	13.1023
491.481	12.8505
493.237	12.9359
494.995	14.5115
496.75	15.4052
498.506	14.9195
500.26	15.7403
502.015	16.5079
503.769	16.4679
505.525	15.7645
507.279	16.5647
509.032	18.0008
510.785	18.4592
512.537	19.2736
514.289	18.3017
516.041	18.905
517.793	19.4943
519.546	21.0111
521.297	21.0146
523.047	21.2301
524.797	21.3422
526.547	21.5378
528.297	20.9736
530.046	20.2505
531.795	19.5488
533.543	19.1523
535.291	18.8686
537.039	18.4501
538.787	17.1845
540.534	17.375
542.281	16.8617
544.027	15.7814
545.773	14.9541
547.519	14.0629
549.264	13.3787
551.01	11.6983
552.754	10.5482
554.499	9.91574
556.243	9.05881
557.987	8.52786
559.73	7.99848
561.474	7.34462
563.216	7.02795
564.959	6.47377
566.701	5.59338
568.441	4.85418
570.182	4.78189
571.923	3.8862
573.664	2.65652
575.405	2.40295
577.145	2.01867
578.885	2.06538
580.624	2.53969
582.361	1.55367
584.1	0.834796
585.839	0.113274
587.577	0.723716
589.315	0.626027
591.052	0.419586
592.787	1.66625
594.524	1.88628
596.26	1.61978
597.997	0.698679
599.732	0.672707
601.466	0.578318
603.201	1.71021
604.936	2.38127
606.67	2.71194
608.403	2.46248
610.136	2.16926
611.87	2.24471
613.603	2.26676
615.334	1.89145
617.067	1.25795
618.799	0.830045
620.529	1.62071
622.26	1.19908
623.991	1.3817
625.72	2.0023
627.451	2.73822
629.181	3.32805
630.909	4.17868
632.638	2.95814
634.368	4.41893
636.095	5.99802
637.823	7.02307
639.551	8.03508
641.277	8.77096
643.005	9.54803
644.73	10.4047
646.457	11.3273
648.184	12.9355
649.908	13.915
651.634	14.1558
653.357	15.0507
655.083	16.3974
656.806	17.8889
658.53	18.697
660.253	20.0213
661.977	21.1647
663.7	21.8115
665.422	22.5863
667.145	23.3761
668.865	23.3912
670.588	24.3642
672.308	24.9356
674.027	25.7809
675.749	25.6885
677.468	25.4979
679.188	25.2758
680.907	24.8805
682.627	25.4805
684.345	24.6263
686.064	24.2831
687.781	25.2873
689.498	25.0094
691.216	23.9207
692.932	23.0537
694.65	22.1679
696.366	22.2309
698.081	22.5046
699.797	23.0656
701.512	23.4205
703.228	23.8785
704.942	24.5954
706.655	25.1423
708.371	24.429
710.083	25.4489
711.796	25.9962
713.51	25.7754
715.222	26.725
716.934	27.3349
718.645	27.4355
720.358	28.7713
722.068	29.0541
723.779	29.7244
725.49	29.9944
727.2	29.4379
728.909	30.3244
730.618	30.4044
732.329	31.1491
734.037	31.9508
735.745	32.2483
737.453	33.5575
739.16	34.9761
740.869	36.5724
742.576	38.6657
744.282	40.9345
745.988	42.0156
747.694	43.3226
749.401	44.2862
751.107	45.152
752.811	45.921
754.516	46.2539
756.22	46.19
757.924	46.6488
759.627	47.7978
761.332	47.4968
763.035	48.3884
764.738	49.6769
766.44	51.1472
768.142	51.5499
769.843	51.2681
771.544	52.9298
773.245	54.9563
774.946	56.1259
776.646	56.9694
778.346	59.2856
780.046	60.8438
781.745	63.4976
783.444	65.011
785.143	67.1397
786.841	67.8383
788.539	69.2298
790.237	69.5585
791.934	70.6552
793.631	71.7155
795.328	73.5009
797.024	73.9673
798.72	73.9833
800.416	74.7979
802.112	74.5709
803.807	74.8219
805.502	74.7502
807.196	74.6504
808.89	75.4437
810.584	74.5198
812.278	71.0967
813.971	72.5547
815.664	73.4077
817.354	74.617
819.047	75.5956
820.739	76.3672
822.43	77.5903
824.122	77.5326
825.813	77.3163
827.503	76.7754
829.192	75.7868
830.882	75.6208
832.571	75.3895
834.261	74.0138
835.95	72.9239
837.637	71.6719
839.325	70.4203
841.013	69.1899
842.701	68.9058
844.389	68.1423
846.074	67.2446
847.761	66.1034
849.447	66.3277
851.131	65.1166
852.817	63.8913
854.503	63.5359
856.188	63.0466
857.871	62.7566
859.556	62.6244
861.24	61.1644
862.922	60.7358
864.606	60.0192
866.289	60.2877
867.97	59.8821
869.653	59.1871
871.336	57.6169
873.016	55.9182
874.698	54.6164
876.379	53.9609
878.058	52.6911
879.739	51.3538
881.418	49.8252
883.098	50.1739
884.778	51.0211
886.456	49.8825
888.135	50.0443
889.812	49.0215
891.49	48.3919
893.167	48.1259
894.845	46.443
896.523	46.6049
898.198	48.8171
899.875	49.1678
901.55	48.4087
903.226	48.1743
904.901	47.483
906.576	47.3415
908.25	46.6256
909.925	46.8792
911.598	47.2057
913.271	47.3358
914.945	47.8694
916.617	46.4871
918.291	45.9328
919.962	46.0735
921.635	45.3448
923.306	44.657
924.978	44.1248
926.648	43.9092
928.318	42.9784
929.989	43.059
931.659	42.631
933.328	42.7013
934.998	41.3248
936.666	41.0486
938.336	40.3823
940.004	38.7414
941.671	38.4018
943.34	37.9276
945.007	37.4277
946.673	35.9775
948.339	36.021
950.007	35.7578
951.672	34.6158
953.337	33.7199
955.004	32.7343
956.669	32.0898
958.333	31.9792
959.997	30.8624
961.662	30.0428
963.326	29.8089
964.989	30.4669
966.651	31.6097
968.315	31.1975
969.977	31.0556
971.639	31.0586
973.301	30.1949
974.962	30.0528
976.624	29.8313
978.285	29.8897
979.945	30.2577
981.605	29.3616
983.264	28.9838
984.924	28.837
986.583	29.1515
988.243	28.7473
989.901	28.4641
991.56	28.0688
993.217	27.8176
994.875	27.1812
996.532	26.63
998.188	26.5472
999.845	26.6077
1001.5	27.1355
1003.16	25.9145
1004.81	25.3287
1006.47	26.7202
1008.12	27.1595
1009.78	28.3362
1011.43	28.6506
1013.09	30.1494
1014.74	30.3542
1016.39	30.0759
1018.05	30.8822
1019.7	31.3397
1021.35	31.8614
1023	32.2477
1024.65	33.587
1026.31	34.2337
1027.96	33.5838
1029.61	33.6168
1031.26	34.2815
1032.91	34.3927
1034.56	34.2413
1036.21	34.0597
1037.86	32.5591
1039.51	31.8567
1041.16	31.547
1042.8	30.985
1044.45	31.6211
1046.1	32.0195
1047.75	32.3623
1049.39	31.7888
1051.04	31.7765
1052.69	30.6844
1054.33	29.0967
1055.98	28.3677
1057.62	27.3284
1059.27	27.1159
1060.91	25.8627
1062.56	24.1983
1064.2	22.7929
1065.85	20.7465
1067.49	19.9818
1069.13	17.3763
1070.77	15.5961
1072.42	14.3083
1074.06	12.6828
1075.7	12.7276
1077.34	12.2897
1078.98	11.6848
1080.62	11.3902
1082.27	11.3307
1083.91	10.7075
1085.55	9.87214
1087.18	10.9653
1088.82	10.6296
1090.46	10.1558
1092.1	10.1323
1093.74	9.57982
1095.38	10.0527
1097.02	8.92393
1098.65	8.73627
1100.29	8.32616
1101.93	7.80692
1103.56	6.85878
1105.2	6.64221
1106.84	6.7879
1108.47	6.26757
1110.11	4.48275
1111.74	4.94315
1113.38	4.45185
1115.01	3.00472
1116.64	2.83321
1118.28	1.95479
1119.91	1.71665
1121.54	2.19181
1123.18	1.6172
1124.81	0.855231
1126.44	1.57038
1128.07	1.85597
1129.7	2.29755
1131.33	1.9767
1132.97	3.3835
1134.6	3.43072
1136.23	5.01321
1137.86	5.21212
1139.49	5.98845
1141.11	6.84089
1142.74	6.67926
1144.37	6.21324
1146	6.41725
1147.63	6.77573
1149.26	7.02529
1150.88	6.62967
1152.51	7.44873
1154.14	7.88538
1155.76	8.7103
1157.39	10.335
1159.01	9.862
1160.64	9.44632
1162.27	9.27013
1163.89	9.78991
1165.51	10.0249
1167.14	9.96538
1168.76	9.96585
1170.39	9.57058
1172.01	10.8849
1173.63	10.8037
1175.25	11.4539
1176.88	11.8092
1178.5	11.8783
1180.12	12.4206
1181.74	12.3591
1183.36	12.383
1184.98	12.1197
1186.6	12.3884
1188.22	11.8871
1189.84	11.3389
1191.46	10.4509
1193.08	10.9714
1194.7	10.8234
1196.32	10.7439
1197.94	11.9233
1199.55	11.2868
1201.17	11.332
1202.79	11.4616
1204.41	11.8047
1206.02	13.256
1207.64	14.6101
1209.25	15.8045
1210.87	17.0295
1212.48	17.416
1214.1	19.0147
1215.71	19.6976
1217.33	19.9958
1218.94	19.9962
1220.56	21.1006
1222.17	21.3211
1223.79	21.9619
1225.4	21.0166
1227.01	22.3155
1228.62	22.6726
1230.23	22.1995
1231.85	22.1787
1233.46	22.9405
1235.07	23.2081
1236.68	22.8734
1238.29	22.5652
1239.9	22.2198
1241.51	21.8545
1243.12	22.1535
1244.73	23.1093
1246.34	22.7653
1247.94	22.9747
1249.55	23.3129
1251.16	24.0042
1252.77	24.6215
1254.37	25.0071
1255.98	26.4524
1257.59	26.7732
1259.2	26.738
1260.8	25.4722
1262.41	25.2965
1264.01	24.5174
1265.62	24.8986
1267.22	24.4339
1268.83	24.9438
1270.43	24.9928
1272.03	24.9943
1273.64	24.6928
1275.24	25.3413
1276.85	24.8282
1278.45	24.575
1280.05	25.0416
1281.65	26.0483
1283.25	26.3723
1284.85	26.0352
1286.46	26.4419
1288.06	26.9635
1289.66	28.2818
1291.26	28.9575
1292.86	28.534
1294.46	29.8751
1296.06	30.4116
1297.66	30.7474
1299.25	30.6318
1300.85	31.0296
1302.45	31.5417
1304.05	31.3025
1305.65	31.2715
1307.24	31.9177
1308.84	31.3208
1310.43	30.7881
1312.03	30.9696
1313.63	31.4619
1315.22	32.5428
1316.82	32.6691
1318.41	33.2703
1320.01	33.254
1321.6	34.0509
1323.2	34.9282
1324.79	35.4975
1326.38	36.5388
1327.98	37.4444
1329.57	38.0969
1331.16	38.6422
1332.76	39.3846
1334.35	39.7657
1335.94	39.2809
1337.53	37.6433
1339.12	37.7143
1340.71	37.6773
1342.3	38.7245
1343.89	38.882
1345.48	38.6326
1347.07	37.8904
1348.66	38.2135
1350.25	37.383
1351.84	36.8537
1353.43	36.2559
1355.01	36.09
1356.6	35.3157
1358.19	36.207
1359.77	36.3841
1361.36	36.5472
1362.95	35.1642
1364.53	34.5415
1366.12	34.5472
1367.71	34.486
1369.29	33.5658
1370.88	32.9455
1372.46	32.1306
1374.04	32.302
1375.63	29.9294
1377.21	29.0423
1378.8	28.0199
1380.38	28.6561
1381.96	28.7479
1383.54	28.1914
1385.13	27.2273
1386.71	26.3944
1388.29	26.4742
1389.87	27.242
1391.45	27.6113
1393.03	27.1072
1394.61	26.6871
1396.19	25.5607
1397.77	25.4847
1399.35	25.6843
1400.93	26.2426
1402.51	25.9183
1404.09	26.4421
1405.67	27.002
1407.24	26.8824
1408.82	27.6179
1410.4	29.0025
1411.98	29.5443
1413.55	29.5036
1415.13	29.6828
1416.71	30.6277
1418.28	32.848
1419.86	34.0016
1421.43	35.2571
1423.01	36.0294
1424.58	36.5516
1426.16	38.1111
1427.73	39.3769
1429.31	41.9484
1430.88	44.7104
1432.45	46.4614
1434.02	48.1146
1435.6	50.2469
1437.17	51.9925
1438.74	53.0199
1440.31	53.1852
1441.88	52.639
1443.45	53.5068
1445.03	54.0246
1446.6	54.3797
1448.17	54.2932
1449.74	54.4642
1451.3	54.3102
1452.87	54.2423
1454.44	53.4828
1456.01	54.0362
1457.58	54.0981
1459.15	54.6584
1460.72	54.0411
1462.28	53.1151
1463.85	52.1809
1465.42	51.9744
1466.98	51.6435
1468.55	50.7379
1470.12	49.3272
1471.68	47.6866
1473.25	46.7304
1474.81	45.9202
1476.38	44.8344
1477.94	43.7866
1479.51	42.9944
1481.07	42.1937
1482.63	40.8591
1484.2	39.442
1485.76	38.6232
1487.32	37.3491
1488.88	35.5753
1490.45	33.5765
1492.01	32.4563
1493.57	31.1881
1495.13	31.2294
1496.69	31.4277
1498.25	31.0116
1499.81	30.456
1501.37	29.797
1502.93	29.1228
1504.49	29.0853
1506.05	29.135
1507.61	28.8595
1509.17	27.7086
1510.73	25.8958
1512.28	25.0942
1513.84	23.3759
1515.4	21.9298
1516.96	20.8318
1518.51	18.9684
1520.07	18.4892
1521.63	18.5064
1523.18	17.5081
1524.74	16.3298
1526.29	15.8656
1527.85	15.427
1529.4	15.725
1530.96	15.2542
1532.51	14.4189
1534.06	14.2734
1535.62	14.8604
1537.17	15.2227
1538.72	14.6004
1540.28	14.3201
1541.83	14.1621
1543.38	14.1367
1544.93	15.2153
1546.48	15.7999
1548.03	15.8993
1549.59	15.7773
1551.14	15.5756
1552.69	16.1417
1554.24	16.4193
1555.79	16.3786
1557.34	17.0607
1558.88	16.378
1560.43	15.9517
1561.98	16.5918
1563.53	17.2649
1565.08	17.5612
1566.62	18.2402
1568.17	19.9877
1569.72	21.1747
1571.27	21.8683
1572.81	22.7985
1574.36	24.0654
1575.9	25.009
1577.45	25.368
1579	25.7916
1580.54	27.0279
1582.09	28.5121
1583.63	29.4284
1585.17	30.3912
1586.72	31.5159
1588.26	31.3315
1589.8	32.346
1591.35	32.5085
1592.89	34.0971
1594.43	34.7102
1595.97	35.6137
1597.52	36.5761
1599.06	37.0263
1600.6	38.0562
1602.14	37.5256
1603.68	37.802
1605.22	38.0836
1606.76	37.731
1608.3	37.4479
1609.84	36.822
1611.38	36.7241
1612.92	36.5412
1614.46	36.3041
1615.99	36.8143
1617.53	36.1845
1619.07	36.0333
1620.61	37.1176
1622.14	36.3968
1623.68	36.027
1625.22	34.6177
1626.75	34.9373
1628.29	35.2466
1629.82	35.7785
1631.36	36.4893
1632.9	36.4076
1634.43	37.0261
1635.96	37.0575
1637.5	38.5985
1639.03	39.8439
1640.57	40.9346
1642.1	41.5916
1643.63	42.7906
1645.16	44.6587
1646.7	45.5183
1648.23	45.4466
1649.76	46.6099
1651.29	48.1914
1652.82	48.6638
1654.36	49.8868
1655.89	50.9963
1657.42	51.6617
1658.95	51.1001
1660.48	51.0103
1662.01	50.8105
1663.53	50.7686
1665.06	49.6351
1666.59	50.3277
1668.12	49.6982
1669.65	49.6389
1671.18	48.4832
1672.7	48.2692
1674.23	47.0709
1675.76	46.2348
1677.29	45.3608
1678.81	42.669
1680.34	41.3637
1681.86	40.1913
1683.39	38.0503
1684.91	36.6685
1686.44	35.1108
1687.96	33.3844
1689.49	32.0633
1691.01	30.9337
1692.54	29.607
1694.06	26.1499
1695.58	24.928
1697.11	23.6014
1698.63	20.5854
1700.15	19.8485
1701.67	18.272
1703.2	17.568
1704.72	16.3524
1706.24	15.8532
1707.76	15.1981
1709.28	13.2981
1710.8	12.9251
1712.32	12.5606
1713.84	12.5946
1715.36	12.0038
1716.88	10.9869
1718.4	10.5113
1719.91	10.4272
1721.43	9.08124
1722.95	8.07897
1724.47	7.36416
1725.99	7.67565
1727.5	7.58109
1729.02	7.2965
1730.54	7.36916
1732.05	6.22732
1733.57	4.94563
1735.09	4.56532
1736.6	4.90589
1738.12	4.44364
1739.63	4.69878
1741.15	3.57955
1742.66	4.57095
1744.18	4.04404
1745.69	3.82807
1747.2	3.8588
1748.72	3.78609
1750.23	3.53171
1751.74	3.43545
1753.25	3.43399
1754.77	3.05237
1756.28	3.46893
1757.79	3.5888
1759.3	3.43166
1760.81	3.63632
1762.32	3.7849
1763.83	3.54288
1765.34	4.02901
1766.85	4.06116
1768.36	3.07031
1769.87	2.57841
1771.38	2.81648
1772.89	2.39904
1774.4	2.29115
1775.91	2.45941
1777.41	2.56935
1778.92	2.87469
1780.43	3.81417
1781.94	4.57519
1783.44	4.33573
1784.95	5.06597
1786.45	5.51012
1787.96	5.82417
1789.47	6.30908
1790.97	5.80909
1792.47	5.42893
1793.98	5.45513
1795.48	5.23619
1796.99	5.24629
1798.49	6.09757
1800	6.64216
1801.5	6.7041
1803	6.50084
1804.51	5.87505
1806.01	5.26205
1807.51	4.51537
1809.01	4.40748
1810.51	4.50265
1812.02	4.35531
1813.52	4.36221
1815.02	4.00764
1816.52	3.26886
1818.02	3.42756
1819.52	2.4503
1821.02	2.08147
1822.52	2.39966
1824.02	2.05653
1825.51	2.0633
1827.01	1.76348
1828.51	2.1968
1830.01	2.57293
1831.51	2.24838
1833	2.50541
1834.5	2.68146
1836	2.91343
1837.49	2.98182
1838.99	2.78075
1840.49	2.13828
1841.98	1.74516
1843.48	1.48874
1844.97	1.69637
1846.47	1.3219
1847.96	1.30247
1849.46	1.85773
1850.95	1.79316
1852.45	2.28315
1853.94	3.00716
1855.43	3.31777
1856.92	3.72914
1858.42	4.0792
1859.91	3.77374
1861.4	3.51475
1862.89	4.28335
1864.39	3.90196
1865.88	4.23696
1867.37	4.75119
1868.86	4.97889
1870.35	5.10307
1871.84	5.09031
1873.33	4.89258
1874.82	5.04069
1876.31	5.34821
1877.8	5.72418
1879.29	5.71138
1880.77	6.22826
1882.26	6.20297
1882.52	7.25724
1884.02	7.25176
1885.51	7.50014
1887.01	7.29502
1888.5	7.04165
1889.99	6.9206
1891.49	7.31664
1892.98	7.06345
1894.47	6.84418
1895.96	6.78797
1897.46	6.63239
1898.95	6.1584
1900.44	6.92671
1901.93	7.30328
1903.42	7.72478
1904.91	7.50506
1906.4	8.11419
1907.89	7.73445
1909.38	7.65275
1910.87	7.00133
1912.36	6.8267
1913.85	6.49678
1915.34	6.49075
1916.83	6.41509
1918.32	5.45768
1919.8	5.51942
1921.29	5.72741
1922.78	6.15337
1924.27	5.95141
1925.75	6.13097
1927.24	6.10981
1928.73	5.45319
1930.21	5.44991
1931.7	5.38379
1933.18	4.99502
1934.67	5.63389
1936.15	5.41907
1937.64	5.00715
1939.12	5.12749
1940.61	4.38901
1942.09	3.97624
1943.57	4.02206
1945.06	3.77585
1946.54	3.6536
1948.02	3.84527
1949.51	3.86668
1950.99	3.85325
1952.47	3.13867
1953.95	2.94902
1955.43	2.59207
1956.91	3.12387
1958.39	2.56165
1959.87	2.80081
1961.36	2.46971
1962.84	2.47529
1964.32	2.52583
1965.79	2.71114
1967.27	2.91143
1968.75	3.49324
1970.23	4.1388
1971.71	4.7977
1973.19	5.7147
1974.66	6.50551
1976.14	5.99566
1977.62	7.06158
1979.1	7.21182
1980.57	8.20079
1982.05	8.47803
1983.53	7.99063
1985	8.50413
1986.48	8.71429
1987.95	8.93903
1989.43	9.65879
1990.9	9.73765
1992.38	9.75736
1993.85	10.2226
1995.33	9.86143
1996.8	9.45383
1998.27	8.80849
1999.75	8.84237
2001.22	8.2763
2002.69	8.58649
2004.16	8.41653
2005.64	9.11023
2007.11	8.58804
2008.58	8.72996
2010.05	7.76301
2011.52	6.53921
2012.99	6.24773
2014.46	5.49449
2015.93	5.14656
2017.4	4.57923
2018.87	3.65623
2020.34	3.59569
2021.81	3.74451
2023.28	3.59248
2024.75	3.1687
2026.22	2.39058
2027.69	2.97622
2029.15	3.35375
2030.62	3.36219
2032.09	3.50115
2033.56	3.43433
2035.02	2.76153
2036.49	2.44981
2037.95	2.57487
2039.42	2.4706
2040.89	2.70561
2042.35	2.44168
2043.82	2.3059
2045.28	2.59897
2046.75	2.7659
2048.21	2.85116
2049.67	3.46888
2051.14	4.75923
2052.6	4.4006
2054.06	5.00337
2055.53	4.76969
2056.99	4.87361
2058.45	6.09905
2059.92	5.49034
2061.38	5.5793
2062.84	6.52077
2064.3	6.07644
2065.76	6.46503
2067.22	7.02714
2068.68	7.3266
2070.14	7.78801
2071.6	8.43007
2073.06	8.96802
2074.52	9.44305
2075.98	10.2228
2077.44	10.7807
2078.9	11.481
2080.36	10.9269
2081.82	11.2799
2083.27	10.6897
2084.73	10.893
2086.19	10.8511
2087.65	10.6243
2089.1	11.0337
2090.56	11.2245
2092.01	11.6613
2093.47	11.6681
2094.93	11.2936
2096.38	10.9752
2097.84	10.9508
2099.29	12.2013
2100.75	12.7747
2102.2	12.1992
2103.66	12.861
2105.11	12.6993
2106.56	12.2067
2108.02	11.8847
2109.47	11.9793
2110.92	11.7719
2112.37	11.63
2113.83	12.0737
2115.28	11.8744
2116.73	11.9364
2118.18	11.7559
2119.63	12.0488
2121.09	12.1143
2122.54	11.9005
2123.99	11.5678
2125.44	11.5126
2126.89	12.1253
2128.34	12.0108
2129.79	12.4119
2131.23	12.786
2132.68	13.2687
2134.13	14.264
2135.58	15.3145
2137.03	15.065
2138.48	15.5407
2139.92	15.0907
2141.37	15.1638
2142.82	15.6086
2144.26	16.1221
2145.71	16.4472
2147.16	17.2138
2148.6	17.5209
2150.05	17.5525
2151.49	17.5315
2152.94	17.4796
2154.38	17.8077
2155.83	17.5529
2157.27	18.2309
2158.72	18.3986
2160.16	19.4797
2161.6	20.0013
2163.05	20.0805
2164.49	20.2904
2165.93	20.7755
2167.38	21.9981
2168.82	23.105
2170.26	24.3823
2171.7	24.9464
2173.14	25.3914
2174.58	26.026
2176.03	26.8907
2177.47	26.9967
2178.91	27.6024
2180.35	27.5408
2181.79	27.3588
2183.23	27.3954
2184.67	27.5103
2186.1	27.0194
2187.54	26.7881
2188.98	26.7981
2190.42	26.8936
2191.86	26.7964
2193.3	26.9943
2194.73	27.5001
2196.17	27.8094
2197.61	27.6845
2199.05	27.1339
2200.48	26.8392
2201.92	27.3574
2203.35	26.4901
2204.79	26.0242
2206.22	24.8653
2207.66	24.3494
2209.09	23.8625
2210.53	23.2324
2211.96	23.1477
2213.4	23.2086
2214.83	22.9837
2216.27	22.3972
2217.7	22.2236
2219.13	21.6944
2220.56	20.7013
2222	20.005
2223.43	19.6228
2224.86	18.662
2226.29	18.7185
2227.72	17.9403
2229.16	18.3617
2230.59	17.5371
2232.02	17.129
2233.45	17.1386
2234.88	16.5966
2236.31	16.9101
2237.74	16.627
2239.17	16.0146
2240.6	15.2415
2242.03	14.7919
2243.45	14.4991
2244.88	14.2252
2246.31	14.787
2247.74	14.5169
2249.17	14.349
2250.59	13.4435
2252.02	12.3783
2253.45	12.557
2254.87	12.3645
2256.3	11.9304
2257.73	11.6821
2259.15	11.6751
2260.58	11.1983
2262	11.0711
2263.43	10.7908
2264.85	11.5462
2266.28	11.0466
2267.7	10.3482
2269.13	9.68332
2270.55	9.77036
2271.97	9.95588
2273.4	9.96107
2274.82	9.87495
2276.24	9.96818
2277.66	10.0686
2279.09	10.1724
2280.51	10.7617
2281.93	10.6969
2283.35	11.5972
2284.77	11.5704
2286.19	11.8727
2287.61	10.9079
2289.04	10.5825
2290.46	10.3577
2291.88	9.91959
2293.29	9.84529
2294.71	8.93394
2296.13	9.20492
2297.55	9.69201
2298.97	10.2107
2300.39	10.3738
2301.81	10.3979
2303.23	10.4712
2304.64	10.2497
2306.06	9.51124
2307.48	9.77557
2308.89	9.72552
2310.31	9.91539
2311.73	10.1439
2313.14	10.111
2314.56	10.8039
2315.97	11.1324
2317.39	12.0634
2318.8	11.3279
2320.22	11.3356
2321.63	11.2349
2323.05	10.6474
2324.46	10.4572
2325.88	9.97456
2327.29	9.88455
2328.7	10.0188
2330.12	9.28919
2331.53	9.68064
2332.94	9.5313
2334.35	9.51858
2335.76	9.25302
2337.18	7.92652
2338.59	6.98755
2340	6.38495
2341.41	5.90372
2342.82	5.51399
2344.23	5.15661
2345.64	5.09791
2347.05	3.55006
2348.46	3.1441
2349.87	2.61812
2351.28	2.47722
2352.69	1.51395
2354.1	2.08407
2355.5	1.6694
2356.91	1.36651
2358.32	0.722214
2359.73	0.616093
2361.14	0.7277
2362.54	0.677255
2363.95	0.9479
2365.36	1.69523
2366.76	2.66206
2368.17	3.23909
2369.58	4.04019
2370.98	3.90653
2372.39	4.40848
2373.79	4.09585
2375.2	3.95618
2376.6	4.4289
2378	5.11326
2379.41	5.33137
2380.81	5.8237
2382.22	5.74909
2383.62	6.61465
2385.02	7.86204
2386.42	8.21168
2387.83	8.14143
2389.23	8.6258
2390.63	9.6237
2392.03	9.81479
2393.43	9.45313
2394.84	9.46361
2396.24	10.1591
2397.64	9.67198
2399.04	10.0096
2400.44	9.34298
2401.84	9.37523
2403.24	9.08741
2404.64	9.04865
2406.04	8.64384
2407.44	8.02559
2408.83	8.15729
2410.23	7.9828
2411.63	8.1769
2413.03	8.42544
2414.43	7.30482
2415.83	7.00874
2417.22	5.96738
2418.62	6.03834
2420.02	6.06585
2421.41	6.14928
2422.81	6.40963
2424.21	6.99742
2425.6	6.42286
2427	6.18884
2428.39	6.20987
2429.79	6.51542
2431.18	6.63109
2432.58	6.74288
2433.97	6.46823
2435.36	6.89331
2436.76	6.00594
2438.15	6.40796
2439.54	6.21077
2440.94	6.08901
2442.33	5.70451
2443.72	5.78201
2445.11	5.69029
2446.51	6.03879
2447.9	6.33133
2449.29	6.38888
2450.68	6.34992
2452.07	5.78839
2453.46	6.60926
2454.85	6.08697
2456.24	5.70158
2457.63	5.91702
2459.02	6.78262
2460.41	6.62354
2461.8	6.03991
2463.19	5.38425
2464.58	5.18147
2465.97	5.41367
2467.36	5.22409
2468.75	5.74968
2470.13	5.73373
2471.52	5.89623
2472.91	6.33091
2474.29	5.9681
2475.68	5.7501
2477.07	5.16898
2478.45	5.25023
2479.84	5.23827
2481.22	5.18684
2482.61	4.93639
2484	4.78517
2485.38	5.00012
2486.77	4.90287
2488.15	5.44779
2489.54	5.48329
2490.92	5.28214
2492.3	5.32347
2493.69	5.57734
2495.07	5.6279
2496.45	5.77875
2497.84	5.67005
2499.22	4.97748
2500.6	4.68977
2501.98	4.52763
2503.36	4.64855
2504.74	4.88701
2506.13	4.54438
2507.51	4.99227
2508.89	5.28559
2510.27	5.11736
2511.65	5.36885
2513.03	5.81227
2514.41	5.07588
2515.79	4.90722
2517.17	5.03905
2518.55	5.11482
2519.93	5.04006
2521.3	5.39139
2522.68	6.24542
2524.06	6.46467
2525.44	6.94767
2526.82	6.73143
2528.19	6.84632
2529.57	6.77108
2530.95	6.67711
2532.32	5.9341
2533.7	6.30429
2535.08	6.28896
2536.45	6.24749
2537.83	6.24191
2539.2	6.35877
2540.58	6.3082
2541.95	6.50962
2543.33	6.48954
2544.7	7.27067
2546.08	7.41239
2547.45	7.69811
2548.82	7.8813
2550.2	7.87255
2551.57	8.55036
2552.94	8.6516
2554.32	8.7086
2555.69	9.68323
2557.06	9.99164
2558.43	9.65951
2559.8	10.3092
2561.17	10.2975
2562.55	9.91255
2563.92	9.87481
2565.29	9.21197
2566.66	8.56079
2568.03	8.46337
2569.4	8.46948
2570.77	8.23611
2572.14	8.36692
2573.51	8.08003
2574.88	7.86134
2576.24	7.27424
2577.61	7.52052
2578.98	7.30842
2580.35	7.72717
2581.72	7.50592
2583.09	7.1402
2584.45	7.57549
2585.82	8.15091
2587.19	8.48037
2588.55	7.91126
2589.92	8.52032
2591.28	8.52362
2592.65	7.75674
2594.02	7.60536
2595.38	7.31212
2596.75	7.93607
2598.11	8.01463
2599.48	7.80182
2600.84	7.90916
2602.2	8.21603
2603.57	8.22402
2604.93	8.18371
2606.3	8.16432
2607.66	8.38115
2609.02	8.65208
2610.38	8.88353
2611.75	9.25543
2613.11	9.75153
2614.47	9.66786
2615.83	9.97873
2617.19	10.6892
2618.56	11.8509
2619.92	12.4185
2621.28	12.9782
2622.64	13.7569
2624	13.8244
2625.36	13.6257
2626.72	13.7494
2628.08	13.8134
2629.44	12.7757
2630.8	12.3621
2632.15	11.9133
2633.51	10.667
2634.87	10.4155
2636.23	10.2445
2637.59	10.0756
2638.94	10.0622
2640.3	9.57285
2641.66	9.00527
2643.02	9.1194
2644.37	9.56215
2645.73	9.99644
2647.08	9.57961
2648.44	9.74073
2649.8	9.64153
2651.15	9.50992
2652.51	9.23199
2653.86	9.18005
2655.22	8.6364
2656.57	8.35386
2657.92	9.05867
2659.28	9.43401
2660.63	9.13794
2661.99	9.08234
2663.34	8.72952
2664.69	8.75529
2666.04	8.5915
2667.4	8.28026
2668.75	8.46425
2670.1	8.15438
2671.45	7.89721
2672.81	7.14108
2674.16	7.01394
2675.51	7.28201
2676.86	6.7707
2678.21	7.22324
2679.56	6.98984
2680.91	7.19388
2682.26	6.93876
2683.61	6.79272
2684.96	6.55455
2686.31	6.52232
2687.66	5.99615
2689	5.67518
2690.35	5.08747
2691.7	4.47909
2693.05	3.87914
2694.4	3.90336
2695.74	3.49916
2697.09	3.16872
2698.44	3.14105
2699.79	3.45998
2701.13	3.13796
2702.48	3.46459
2703.82	3.28838
2705.17	3.21193
2706.52	2.37652
2707.86	1.86577
2709.21	2.13405
2710.55	2.35359
2711.9	2.55382
2713.24	2.30046
2714.58	2.49308
2715.93	2.74459
2717.27	2.62349
2718.61	3.16917
2719.96	2.77369
2721.3	2.82307
2722.64	2.79044
2723.99	3.66343
2725.33	3.92058
2726.67	3.54319
2728.01	2.50072
2729.35	2.7492
2730.7	3.22687
2732.04	3.21135
2733.38	3.62977
2734.72	3.85384
2736.06	4.14479
2737.4	4.09606
2738.74	4.39476
2740.08	4.38704
2741.42	4.59165
2742.76	4.85281
2744.09	5.41319
2745.43	6.24145
2746.77	6.31452
2748.11	6.85981
2749.45	6.59725
2750.79	6.7844
2752.12	6.78253
2753.46	6.97324
2754.8	6.97802
2756.13	6.84287
2757.47	7.14187
2758.81	7.51931
2760.14	7.96046
2761.48	8.95803
2762.81	8.67646
2764.15	8.6672
2765.49	8.12144
2766.82	7.84955
2768.15	6.66827
2769.49	6.41171
2770.82	5.61277
2772.16	5.236
2773.49	4.71594
2774.82	4.97854
2776.16	4.52351
2777.49	4.743
2778.82	4.37416
2780.16	4.0133
2781.49	3.36761
2782.82	2.84704
2784.15	2.7475
2785.48	2.64965
2786.81	2.07411
2788.15	2.08364
2789.48	1.92234
2790.81	1.8363
2792.14	1.24702
2793.47	0.818778
2794.8	0.36395
2796.13	0.369753
2797.46	0.164366
2798.79	-0.420343
2800.12	-0.0839895
2801.44	0.0334356
2802.77	0.15968
2804.1	0.574218
2805.43	0.406847
2806.76	0.693993
2808.08	1.17334
2809.41	1.11742
2810.74	1.25726
2812.07	0.922706
2813.39	1.18507
2814.72	1.54787
2816.05	1.18023
2817.37	1.36126
2818.7	1.91133
2820.02	2.39577
2821.35	3.22976
2822.67	3.79931
2824	4.50071
2825.32	4.71657
2826.65	5.28082
2827.97	5.96633
2829.29	6.35596
2830.62	7.01643
2831.94	7.95844
2833.26	9.20544
2834.59	10.6358
2835.91	12.0206
2837.23	13.1338
2838.55	14.5834
2839.88	16.258
2841.2	18.5614
2842.52	20.5021
2843.84	23.2049
2845.16	24.6699
2846.48	27.6789
2847.8	30.3644
2849.12	33.6576
2850.44	37.0202
2851.76	40.329
2853.08	42.9071
2854.4	45.6674
2855.72	48.2975
2857.04	51.4457
2858.36	54.6966
2859.68	57.6366
2861	60.3416
2862.32	63.9603
2863.63	67.0854
2864.95	69.9196
2866.27	72.6425
2867.58	74.9687
2868.9	77.7556
2870.22	79.8758
2871.53	82.1783
2872.85	84.1668
2874.17	86.2024
2875.48	87.6341
2876.8	90.1123
2878.11	91.3918
2879.43	93.5638
2880.74	94.8977
2882.06	95.7889
2883.37	97.8039
2884.69	99.2807
2886	100.532
2887.31	101.794
2888.63	102.827
2889.94	104.215
2891.25	105.357
2892.57	106.668
2893.88	108.105
2895.19	110.093
2896.5	112.033
2897.82	114.503
2899.13	115.956
2900.44	117.867
2901.75	119.827
2903.06	123.074
2904.37	125.519
2905.68	129.252
2906.99	132.359
2908.3	135.303
2909.61	138.803
2910.92	142.101
2912.23	146.289
2913.54	150.19
2914.85	153.925
2916.16	157.127
2917.46	159.94
2918.77	162.749
2920.08	166.087
2921.39	168.921
2922.7	171.595
2924	173.688
2925.31	175.429
2926.62	176.392
2927.92	177.812
2929.23	178.444
2930.53	178.658
2931.84	178.569
2933.15	178.786
2934.45	178.386
2935.76	177.094
2937.06	176.27
2938.37	174.987
2939.67	173.787
2940.98	171.741
2942.28	169.463
2943.58	166.635
2944.89	164.419
2946.19	161.428
2947.49	158.406
2948.8	155.433
2950.1	152.091
2951.4	148.906
2952.7	145.364
2954.01	141.939
2955.31	138.593
2956.61	135.232
2957.91	132.365
2959.21	129.926
2960.51	126.488
2961.81	123.088
2963.11	120.22
2964.41	117.578
2965.71	114.675
2967.01	112.373
2968.31	110.072
2969.61	106.762
2970.91	104.702
2972.21	101.288
2973.51	98.826
2974.81	96.5419
2976.1	93.9966
2977.4	91.7506
2978.7	89.0153
2980	86.0665
2981.29	82.9628
2982.59	80.114
2983.89	77.5093
2985.18	74.1682
2986.48	70.4463
2987.78	66.8802
2989.07	63.6609
2990.37	60.3452
2991.66	56.9869
2992.96	54.6072
2994.25	51.5663
2995.55	48.4703
2996.84	45.413
2998.14	42.9968
2999.43	39.9398
3000.72	37.0576
3002.02	34.073
3003.31	31.6716
3004.6	28.818
3005.9	26.4568
3007.19	23.8147
3008.48	21.4167
3009.77	19.2172
3011.07	17.225
3012.36	15.2323
3013.65	13.4424
3014.94	11.7321
3016.23	10.6216
3017.52	9.29724
3018.81	8.4571
3020.1	7.87593
3021.39	6.80719
3022.68	5.88601
3023.97	5.59991
3025.26	4.83513
3026.55	4.93404
3027.84	4.75706
3029.13	4.37455
3030.42	4.06525
3031.71	4.22882
3033	4.44741
3034.28	4.49995
3035.57	4.92211
3036.86	4.81409
3038.15	5.25507
3039.43	5.48804
3040.72	5.94916
3042.01	6.25317
3043.29	6.6697
3044.58	6.9229
3045.86	7.3074
3047.15	7.80126
3048.44	7.69682
3049.72	7.89519
3051.01	8.71528
3052.29	9.24028
3053.58	9.49357
3054.86	9.76631
3056.14	9.8879
3057.43	9.83554
3058.71	9.99271
3060	10.1999
3061.28	10.2211
3062.56	10.2063
3063.84	9.70521
3065.13	9.30287
3066.41	9.58349
3067.69	9.95187
3068.97	9.68728
3070.25	9.48608
3071.54	8.73851
3072.82	8.55275
3074.1	8.39415
3075.38	7.7605
3076.66	6.65237
3077.94	6.17524
3079.22	5.85549
3080.5	5.50777
3081.78	5.21102
3083.06	4.73526
3084.34	4.60726
3085.62	3.96324
3086.9	3.41978
3088.17	2.80048
3089.45	2.14789
3090.73	1.84978
3092.01	1.73766
3093.29	1.2964
3094.56	1.09339
3095.84	0.883807
3097.12	0.84532
3098.4	0.445233
3099.67	0.486363
3100.95	0.364651
3102.22	0.826843
3103.5	1.28688
3104.77	1.86031
3106.05	2.14681
3107.33	2.72785
3108.6	3.12219
3109.88	3.70232
3111.15	4.13161
3112.43	4.48485
3113.7	4.78674
3114.97	5.00395
3116.25	5.28833
3117.52	5.61854
3118.79	6.12224
3120.07	6.62602
3121.34	7.31923
3122.61	8.44279
3123.88	8.91393
3125.16	9.59619
3126.43	10.1677
3127.7	11.2051
3128.97	11.6726
3130.24	12.6925
3131.51	13.1457
3132.78	13.6085
3134.05	13.9699
3135.33	14.4453
3136.59	15.0678
3137.86	14.8477
3139.14	14.9761
3140.41	15.2049
3141.67	15.8776
3142.94	16.0102
3144.21	16.0909
3145.48	15.9473
3146.75	16.2176
3148.02	16.1321
3149.28	17.9788
