#Acq. time (s)=	45
#Accumulations=	2
#Range (cm-¹)=	200...3150
#Windows=	2
#Auto scanning=	Off
#Autofocus=	Off
#Macrospot=	Off
#AutoExposure=	Off
#Spike filter=	Multiple accum.
#Delay time (s)=	0
#Binning=	1
#Readout mode=	Signal
#DeNoise=	Off
#ICS correction=	On
#Dark correction=	Off
#Inst. Process=	Off
#Detector Gain=	Best Dynamic Range
#Detector ADC=	20 kHz       
#Detector temperature (°C)=	-69.85
#Instrument=	LabRAM HR Evol
#Detector=	Synapse
#Objective=	x100
#Grating=	600 gr/mm
#ND Filter=	100%
#Laser (nm)=	532 
#Hole=	100.021
#Range=	Auto
#Laser Pol.=	No
#Raman. Pol.=	No
#Laser Pol. (°)=	-0.0007625
#Raman Pol. (°)=	89.9995
#Collection=	Microscope
#StageXY=	Marzhauser
#StageZ=	Marzhauser
#X (µm)=	-609
#Y (µm)=	-1588.9
#Z (µm)=	90.15
#Full time(mm:ss)=	3:18
#Project=	
#Sample=	
#Site=	
#Title=	Mb_10_14_31_2x_45s_532 nm_x100_100%_600 gr_mm
#Remark=	
#Date=	11.07.2022 10:50
#Acquired=	11.07.2022 10:50:20
#Base:Fit=	10.08.2022 10:21:11
#Base:Sub=	10.08.2022 10:21:41
#Filter:Polynom=	16.08.2022 10:17:53
#AxisType[0]=Intens
#AxisUnit[0]=Cnt
#AxisType[1]=Spectr
#AxisUnit[1]=1/cm
200.388	14.6155
202.204	15.256
204.019	13.1878
205.832	12.8041
207.646	10.9768
209.459	9.78753
211.274	8.85583
213.087	9.07647
214.899	9.04916
216.711	9.24166
218.524	8.29106
220.335	8.27256
222.146	9.57725
223.956	10.7808
225.766	12.4449
227.576	12.3497
229.388	12.3255
231.197	12.9011
233.005	13.316
234.813	12.9341
236.621	12.4244
238.429	12.8097
240.236	13.1499
242.045	13.6296
243.852	13.5663
245.658	13.2309
247.464	13.6552
249.269	13.8842
251.074	13.6757
252.879	14.1918
254.683	13.3899
256.487	13.515
258.291	13.2864
260.094	13.4183
261.897	12.9985
263.702	12.8458
265.504	13.2074
267.306	12.9921
269.108	12.7752
270.909	11.6903
272.71	10.4941
274.511	8.85576
276.311	9.43979
278.111	8.9751
279.91	7.44923
281.709	7.1755
283.508	5.61281
285.306	4.8132
287.105	3.81472
288.9	3.58728
290.698	2.99888
292.495	1.7566
294.291	1.60394
296.088	1.44598
297.884	2.47327
299.679	2.51416
301.475	2.83398
303.27	3.39259
305.064	2.24147
306.858	2.68703
308.652	3.12869
310.444	4.47918
312.237	4.53458
314.03	4.40562
315.822	4.44178
317.615	4.07215
319.406	3.75472
321.198	4.08009
322.987	3.79317
324.778	4.01935
326.568	4.60914
328.358	5.65652
330.148	5.81189
331.935	4.98383
333.724	4.54577
335.513	4.61548
337.301	5.02585
339.089	3.76863
340.875	3.21062
342.662	4.5939
344.449	2.93298
346.236	2.99234
348.02	2.16032
349.806	2.61177
351.592	3.03959
353.375	3.61394
355.16	3.9402
356.944	4.44601
358.728	5.58151
360.51	7.15701
362.294	8.20359
364.077	9.17722
365.858	11.2485
367.64	11.5778
369.422	12.2868
371.202	13.5825
372.983	13.8329
374.764	15.0498
376.543	16.4789
378.324	17.536
380.102	19.1665
381.881	20.2624
383.661	22.3238
385.438	23.9006
387.216	24.4983
388.993	25.604
390.771	27.4939
392.548	28.1322
394.324	28.7017
396.101	30.469
397.875	30.3191
399.651	30.1101
401.425	29.709
403.201	29.8664
404.974	29.1651
406.749	28.5808
408.524	27.1925
410.296	26.7795
412.07	25.96
413.841	25.4439
415.614	24.477
417.385	23.7771
419.156	21.4964
420.928	18.8124
422.698	17.4208
424.469	15.9625
426.238	14.9498
428.009	13.3135
429.777	12.8967
431.548	12.307
433.315	10.2785
435.083	9.06729
436.852	7.51073
438.618	6.86523
440.387	5.64844
442.153	4.95313
443.919	4.5553
445.686	4.28312
447.451	4.53134
449.218	3.33106
450.982	2.54848
452.746	2.19443
454.512	2.12204
456.275	1.90753
458.038	2.64667
459.803	2.98533
461.565	4.13554
463.327	5.50149
465.091	5.83357
466.852	8.06386
468.613	9.50221
470.374	10.32
472.136	11.6934
473.896	13.1344
475.655	14.6668
477.415	16.279
479.176	18.266
480.934	19.0993
482.692	20.2082
484.45	21.3301
486.21	22.8384
487.967	23.7327
489.724	24.0385
491.481	25.726
493.237	26.3717
494.995	27.0023
496.75	27.5389
498.506	28.6589
500.26	29.556
502.015	30.3002
503.769	30.1259
505.525	30.5243
507.279	29.1369
509.032	29.5951
510.785	30.5893
512.537	32.4449
514.289	32.6883
516.041	32.0181
517.793	31.1891
519.546	30.4381
521.297	29.0866
523.047	28.2097
524.797	28.2821
526.547	28.217
528.297	27.3022
530.046	26.3966
531.795	25.3842
533.543	23.9133
535.291	23.3219
537.039	22.5059
538.787	22.0279
540.534	21.4434
542.281	20.2051
544.027	19.3109
545.773	18.634
547.519	18.207
549.264	18.3699
551.01	16.9968
552.754	16.4944
554.499	16.0852
556.243	15.4901
557.987	14.3159
559.73	14.4229
561.474	13.9909
563.216	13.7378
564.959	13.6481
566.701	12.7322
568.441	11.8991
570.182	11.0508
571.923	10.4509
573.664	10.0783
575.405	7.80146
577.145	6.779
578.885	6.85344
580.624	5.44046
582.361	5.19454
584.1	4.45444
585.839	3.9111
587.577	3.34216
589.315	3.42614
591.052	2.8868
592.787	3.34777
594.524	2.17248
596.26	3.50366
597.997	3.90429
599.732	3.84394
601.466	2.2404
603.201	2.18064
604.936	2.6744
606.67	2.78925
608.403	3.24995
610.136	4.8231
611.87	4.37558
613.603	4.54083
615.334	4.63148
617.067	6.23939
618.799	6.35096
620.529	7.15829
622.26	8.16339
623.991	8.45815
625.72	9.06153
627.451	10.181
629.181	9.46218
630.909	10.8055
632.638	11.9683
634.368	13.3024
636.095	14.1086
637.823	13.8668
639.551	14.8831
641.277	15.2119
643.005	16.3483
644.73	16.3083
646.457	16.988
648.184	18.0022
649.908	18.1904
651.634	18.4012
653.357	17.6057
655.083	17.2575
656.806	17.3756
658.53	16.7125
660.253	17.0336
661.977	17.131
663.7	17.6252
665.422	18.8251
667.145	18.9242
668.865	18.0383
670.588	16.3028
672.308	16.6955
674.027	16.6486
675.749	16.2127
677.468	15.4896
679.188	15.5769
680.907	15.9461
682.627	17.5656
684.345	18.743
686.064	18.8621
687.781	20.1103
689.498	21.4467
691.216	22.4938
692.932	24.4379
694.65	26.9199
696.366	28.3865
698.081	28.4074
699.797	30.5248
701.512	32.2824
703.228	34.5721
704.942	34.8725
706.655	36.7986
708.371	38.2413
710.083	38.9109
711.796	40.5911
713.51	40.9115
715.222	41.3311
716.934	43.3807
718.645	43.4234
720.358	44.3587
722.068	45.0643
723.779	45.8084
725.49	46.6296
727.2	47.2441
728.909	47.176
730.618	47.5863
732.329	47.4012
734.037	47.9084
735.745	48.0863
737.453	48.1434
739.16	47.8309
740.869	47.798
742.576	49.3002
744.282	49.9867
745.988	52.0283
747.694	51.9263
749.401	52.3761
751.107	52.7085
752.811	52.6965
754.516	52.6863
756.22	52.498
757.924	54.1214
759.627	54.0915
761.332	54.8872
763.035	56.8809
764.738	58.2799
766.44	60.2632
768.142	62.4833
769.843	63.9525
771.544	64.4197
773.245	66.4832
774.946	68.3476
776.646	70.2492
778.346	72.0288
780.046	71.931
781.745	71.5909
783.444	71.1958
785.143	70.8567
786.841	72.8789
788.539	74.9427
790.237	76.5463
791.934	78.9984
793.631	80.3582
795.328	81.6205
797.024	82.7846
798.72	83.2797
800.416	84.289
802.112	84.8665
803.807	84.7186
805.502	87.0026
807.196	87.3496
808.89	87.1827
810.584	86.1738
812.278	86.5736
813.971	87.0864
815.664	87.1931
817.354	87.8412
819.047	88.3148
820.739	87.8582
822.43	87.8887
824.122	87.6642
825.813	87.225
827.503	87.3778
829.192	86.0487
830.882	84.6981
832.571	83.9771
834.261	83.5814
835.95	82.4664
837.637	81.0147
839.325	78.1567
841.013	76.303
842.701	75.0966
844.389	72.775
846.074	71.7638
847.761	70.93
849.447	69.0705
851.131	66.9955
852.817	65.4743
854.503	62.8287
856.188	59.8972
857.871	58.133
859.556	56.9043
861.24	54.0081
862.922	51.579
864.606	49.6598
866.289	49.1062
867.97	48.7431
869.653	49.374
871.336	51.9683
873.016	52.7338
874.698	53.0435
876.379	52.0293
878.058	51.2215
879.739	50.7099
881.418	49.6403
883.098	49.3335
884.778	49.2462
886.456	48.6853
888.135	48.4159
889.812	48.7934
891.49	47.847
893.167	48.2255
894.845	48.0614
896.523	49.0443
898.198	48.721
899.875	47.5866
901.55	48.6667
903.226	48.4483
904.901	48.5387
906.576	49.2978
908.25	48.5478
909.925	48.2296
911.598	48.0388
913.271	48.088
914.945	49.124
916.617	49.6667
918.291	47.6859
919.962	47.7044
921.635	47.1013
923.306	47.1924
924.978	47.9787
926.648	47.8582
928.318	48.5109
929.989	49.2851
931.659	48.4124
933.328	47.35
934.998	46.6576
936.666	47.7998
938.336	47.3752
940.004	46.9388
941.671	47.2032
943.34	46.4091
945.007	45.3199
946.673	44.9747
948.339	45.6592
950.007	46.7603
951.672	46.5612
953.337	46.6709
955.004	47.2409
956.669	46.0491
958.333	44.0748
959.997	42.0395
961.662	41.0912
963.326	40.5234
964.989	39.7761
966.651	40.7547
968.315	41.8149
969.977	41.2349
971.639	42.3197
973.301	41.8977
974.962	42.0367
976.624	42.9586
978.285	42.6091
979.945	43.1189
981.605	43.1021
983.264	43.5219
984.924	43.9659
986.583	42.8002
988.243	42.1025
989.901	41.8567
991.56	41.0376
993.217	41.4572
994.875	41.8638
996.532	42.9759
998.188	43.3125
999.845	43.2108
1001.5	43.2038
1003.16	44.2112
1004.81	43.6229
1006.47	43.2872
1008.12	43.449
1009.78	43.3897
1011.43	43.7939
1013.09	42.9681
1014.74	42.6655
1016.39	43.2714
1018.05	44.4156
1019.7	44.8883
1021.35	43.9886
1023	42.9914
1024.65	43.0246
1026.31	43.0726
1027.96	43.0898
1029.61	43.3455
1031.26	43.881
1032.91	43.5823
1034.56	41.5532
1036.21	40.3222
1037.86	38.6266
1039.51	36.05
1041.16	35.3312
1042.8	34.6585
1044.45	34.9165
1046.1	34.9661
1047.75	35.2294
1049.39	35.5764
1051.04	34.1959
1052.69	32.2885
1054.33	31.6633
1055.98	30.1142
1057.62	29.6672
1059.27	29.2188
1060.91	27.3155
1062.56	25.8095
1064.2	24.2613
1065.85	23.2186
1067.49	22.1518
1069.13	22.12
1070.77	21.1017
1072.42	20.9841
1074.06	21.517
1075.7	21.3911
1077.34	21.2615
1078.98	21.3858
1080.62	20.8851
1082.27	20.6719
1083.91	19.5222
1085.55	19.0122
1087.18	18.5294
1088.82	18.3727
1090.46	19.5994
1092.1	19.9091
1093.74	20.2649
1095.38	20.9504
1097.02	21.0103
1098.65	20.9845
1100.29	21.4085
1101.93	20.6371
1103.56	19.6289
1105.2	19.6184
1106.84	19.5977
1108.47	18.8275
1110.11	16.4951
1111.74	15.1476
1113.38	14.8399
1115.01	14.6445
1116.64	15.1371
1118.28	15.4559
1119.91	15.7293
1121.54	16.2216
1123.18	17.2902
1124.81	16.9167
1126.44	17.3504
1128.07	17.3764
1129.7	18.0976
1131.33	17.8334
1132.97	17.9862
1134.6	18.3684
1136.23	18.6705
1137.86	19.2289
1139.49	19.5523
1141.11	19.6257
1142.74	19.8533
1144.37	20.3881
1146	20.0811
1147.63	21.0018
1149.26	22.0582
1150.88	21.9523
1152.51	21.1821
1154.14	21.2324
1155.76	20.9771
1157.39	20.6202
1159.01	20.8242
1160.64	19.6011
1162.27	18.7274
1163.89	17.9491
1165.51	16.5848
1167.14	15.2637
1168.76	13.9093
1170.39	13.5203
1172.01	12.2682
1173.63	10.9333
1175.25	9.97528
1176.88	8.99779
1178.5	6.80356
1180.12	6.18114
1181.74	5.18432
1183.36	3.58653
1184.98	3.15407
1186.6	2.61806
1188.22	2.01632
1189.84	1.79589
1191.46	1.63614
1193.08	4.15634
1194.7	7.16892
1196.32	7.58908
1197.94	7.98332
1199.55	8.5731
1201.17	10.0364
1202.79	11.3083
1204.41	13.1216
1206.02	14.4386
1207.64	17.0753
1209.25	19.257
1210.87	21.4463
1212.48	22.7302
1214.1	25.0043
1215.71	26.8495
1217.33	28.8235
1218.94	30.7158
1220.56	32.488
1222.17	34.1765
1223.79	36.9573
1225.4	38.6661
1227.01	40.1424
1228.62	42.9323
1230.23	45.1536
1231.85	45.7864
1233.46	46.3809
1235.07	47.5602
1236.68	49.1673
1238.29	50.0178
1239.9	49.7339
1241.51	49.3999
1243.12	49.2264
1244.73	50.1959
1246.34	49.7095
1247.94	49.253
1249.55	49.0873
1251.16	49.1308
1252.77	49.0364
1254.37	50.1483
1255.98	50.4514
1257.59	50.1465
1259.2	49.4949
1260.8	48.9942
1262.41	48.5564
1264.01	48.6443
1265.62	48.5652
1267.22	48.2581
1268.83	47.9459
1270.43	47.1496
1272.03	46.4141
1273.64	46.711
1275.24	46.0778
1276.85	45.8447
1278.45	46.0528
1280.05	46.8006
1281.65	47.984
1283.25	48.5162
1284.85	49.1236
1286.46	49.6469
1288.06	50.1114
1289.66	50.7029
1291.26	51.2025
1292.86	51.9719
1294.46	53.0019
1296.06	54.067
1297.66	55.3428
1299.25	56.346
1300.85	58.3794
1302.45	59.9758
1304.05	62.5526
1305.65	64.1859
1307.24	65.4536
1308.84	66.8712
1310.43	68.3467
1312.03	68.4501
1313.63	69.3142
1315.22	71.3606
1316.82	71.5202
1318.41	72.7783
1320.01	72.8986
1321.6	73.8272
1323.2	74.9378
1324.79	76.6981
1326.38	76.8728
1327.98	76.3693
1329.57	76.7577
1331.16	78.0603
1332.76	78.1867
1334.35	77.6515
1335.94	76.659
1337.53	76.1356
1339.12	74.9489
1340.71	75.1276
1342.3	74.71
1343.89	73.4387
1345.48	71.438
1347.07	70.8271
1348.66	68.7344
1350.25	67.097
1351.84	66.1367
1353.43	64.6877
1355.01	62.7695
1356.6	61.8596
1358.19	59.8302
1359.77	57.785
1361.36	56.1479
1362.95	53.4719
1364.53	52.0248
1366.12	50.849
1367.71	49.5553
1369.29	49.018
1370.88	47.8117
1372.46	46.8211
1374.04	46.1652
1375.63	45.8337
1377.21	45.787
1378.8	46.5167
1380.38	46.4496
1381.96	46.0434
1383.54	47.0076
1385.13	46.5116
1386.71	46.542
1388.29	46.7607
1389.87	46.5138
1391.45	45.777
1393.03	46.1401
1394.61	46.9993
1396.19	46.843
1397.77	47.3075
1399.35	46.2921
1400.93	46.7383
1402.51	47.1993
1404.09	47.3183
1405.67	47.5746
1407.24	47.7244
1408.82	49.2155
1410.4	49.1537
1411.98	48.7769
1413.55	49.4071
1415.13	50.0335
1416.71	51.5568
1418.28	52.1505
1419.86	53.5536
1421.43	54.4717
1423.01	55.1143
1424.58	56.4305
1426.16	58.2203
1427.73	58.9745
1429.31	60.7387
1430.88	62.6494
1432.45	63.6431
1434.02	65.0144
1435.6	66.0788
1437.17	67.0188
1438.74	68.543
1440.31	70.4462
1441.88	72.2859
1443.45	73.8429
1445.03	75.9235
1446.6	76.8678
1448.17	78.0438
1449.74	78.8106
1451.3	80.4025
1452.87	80.9095
1454.44	80.8163
1456.01	80.7288
1457.58	81.1189
1459.15	79.2979
1460.72	78.7916
1462.28	78.392
1463.85	76.7889
1465.42	75.8268
1466.98	74.2072
1468.55	72.6245
1470.12	70.7717
1471.68	70.2453
1473.25	68.7418
1474.81	66.4181
1476.38	63.5949
1477.94	61.1264
1479.51	59.0987
1481.07	57.0549
1482.63	55.0861
1484.2	53.1173
1485.76	51.053
1487.32	48.7495
1488.88	46.0667
1490.45	43.739
1492.01	42.2466
1493.57	40.4677
1495.13	40.1928
1496.69	38.8624
1498.25	37.9323
1499.81	37.3735
1501.37	36.1856
1502.93	36.1228
1504.49	35.3433
1506.05	33.9909
1507.61	33.1531
1509.17	32.4937
1510.73	31.5075
1512.28	31.2031
1513.84	31.6299
1515.4	31.9758
1516.96	32.1965
1518.51	32.3246
1520.07	32.8083
1521.63	32.3314
1523.18	32.7304
1524.74	30.8987
1526.29	31.6725
1527.85	31.216
1529.4	31.2147
1530.96	29.6071
1532.51	29.3149
1534.06	29.5351
1535.62	29.6592
1537.17	28.8943
1538.72	29.3471
1540.28	29.3084
1541.83	29.4906
1543.38	29.4232
1544.93	29.2042
1546.48	29.6333
1548.03	31.1307
1549.59	32.8267
1551.14	33.3736
1552.69	33.2767
1554.24	33.339
1555.79	33.9548
1557.34	35.4162
1558.88	36.735
1560.43	37.6078
1561.98	38.518
1563.53	39.1895
1565.08	39.0894
1566.62	39.6625
1568.17	40.5741
1569.72	41.794
1571.27	43.2107
1572.81	45.0081
1574.36	45.2067
1575.9	46.0788
1577.45	47.3513
1579	48.387
1580.54	48.987
1582.09	49.4855
1583.63	51.2068
1585.17	52.6731
1586.72	54.2393
1588.26	54.7735
1589.8	56.6459
1591.35	57.5788
1592.89	58.0885
1594.43	58.6156
1595.97	58.4516
1597.52	57.8959
1599.06	56.5925
1600.6	57.6583
1602.14	56.5318
1603.68	57.0162
1605.22	55.8087
1606.76	55.5105
1608.3	54.1916
1609.84	54.2964
1611.38	54.5142
1612.92	53.7913
1614.46	54.1485
1615.99	53.9016
1617.53	53.6168
1619.07	53.3563
1620.61	52.9547
1622.14	54.048
1623.68	54.7758
1625.22	56.0029
1626.75	55.2774
1628.29	55.9413
1629.82	55.408
1631.36	56.8496
1632.9	57.6463
1634.43	58.6264
1635.96	59.5169
1637.5	60.816
1639.03	62.1275
1640.57	63.0455
1642.1	64.4206
1643.63	65.982
1645.16	67.3771
1646.7	68.4705
1648.23	70.7488
1649.76	71.4961
1651.29	72.8793
1652.82	74.894
1654.36	76.6076
1655.89	77.5027
1657.42	78.8218
1658.95	79.4473
1660.48	79.5171
1662.01	78.0401
1663.53	77.4975
1665.06	76.4283
1666.59	76.397
1668.12	74.7993
1669.65	73.5364
1671.18	72.1583
1672.7	70.1034
1674.23	68.1943
1675.76	65.5708
1677.29	64.5146
1678.81	61.5964
1680.34	58.7476
1681.86	56.5363
1683.39	54.2097
1684.91	51.7395
1686.44	49.3388
1687.96	47.0552
1689.49	44.2297
1691.01	41.5317
1692.54	38.1678
1694.06	35.9561
1695.58	33.2486
1697.11	30.9854
1698.63	29.0448
1700.15	26.3571
1701.67	24.5612
1703.2	21.7611
1704.72	20.8516
1706.24	19.0081
1707.76	18.5344
1709.28	16.5878
1710.8	15.3133
1712.32	14.3239
1713.84	12.6204
1715.36	11.4994
1716.88	10.8404
1718.4	10.2127
1719.91	9.68952
1721.43	9.43464
1722.95	9.2522
1724.47	9.46454
1725.99	8.80078
1727.5	8.41594
1729.02	7.78032
1730.54	7.28955
1732.05	6.71121
1733.57	6.37479
1735.09	4.6276
1736.6	4.11365
1738.12	3.48285
1739.63	4.41054
1741.15	4.47716
1742.66	5.01354
1744.18	4.67021
1745.69	4.56375
1747.2	5.02543
1748.72	4.46653
1750.23	4.78087
1751.74	4.92257
1753.25	5.54932
1754.77	5.22857
1756.28	4.70976
1757.79	5.28851
1759.3	5.40075
1760.81	5.68486
1762.32	5.84576
1763.83	6.26687
1765.34	5.64265
1766.85	5.49114
1768.36	5.18266
1769.87	5.0212
1771.38	4.4367
1772.89	4.47742
1774.4	4.54475
1775.91	4.7421
1777.41	4.92592
1778.92	4.85918
1780.43	5.16937
1781.94	5.17405
1783.44	4.4088
1784.95	3.76834
1786.45	3.72258
1787.96	4.1272
1789.47	4.29859
1790.97	4.33815
1792.47	4.20501
1793.98	4.15382
1795.48	3.91072
1796.99	3.75593
1798.49	3.83843
1800	3.50564
1801.5	2.84507
1803	2.63429
1804.51	2.60121
1806.01	2.98019
1807.51	2.64794
1809.01	2.68477
1810.51	2.48766
1812.02	3.41463
1813.52	3.98381
1815.02	4.821
1816.52	4.32308
1818.02	4.37034
1819.52	4.32146
1821.02	4.11964
1822.52	4.68101
1824.02	4.38816
1825.51	4.75004
1827.01	4.61478
1828.51	4.52301
1830.01	4.75676
1831.51	4.37398
1833	4.30832
1834.5	4.46083
1836	4.49921
1837.49	4.15923
1838.99	3.60141
1840.49	3.58804
1841.98	3.97767
1843.48	3.68682
1844.97	4.58277
1846.47	5.39264
1847.96	5.06597
1849.46	4.65282
1850.95	4.30496
1852.45	4.07756
1853.94	3.58146
1855.43	3.59633
1856.92	3.2593
1858.42	2.19248
1859.91	2.08539
1861.4	1.62191
1862.89	1.03134
1864.39	0.61856
1865.88	-0.396041
1867.37	-0.215101
1868.86	-0.826437
1870.35	-0.496738
1871.84	-0.227579
1873.33	-0.331287
1874.82	0.530467
1876.31	0.796498
1877.8	0.957045
1879.29	1.11146
1880.77	1.79028
1882.26	1.58624
1882.52	1.88106
1884.02	2.3266
1885.51	3.12394
1887.01	2.86332
1888.5	2.70956
1889.99	3.48456
1891.49	4.10565
1892.98	4.60184
1894.47	4.84155
1895.96	5.9187
1897.46	6.27901
1898.95	6.51633
1900.44	6.21524
1901.93	5.72816
1903.42	5.46071
1904.91	5.2212
1906.4	6.13488
1907.89	6.75844
1909.38	6.48373
1910.87	6.40844
1912.36	6.52275
1913.85	6.16987
1915.34	5.83208
1916.83	5.44509
1918.32	5.02975
1919.8	4.18447
1921.29	3.07296
1922.78	2.56449
1924.27	2.93386
1925.75	2.73478
1927.24	2.3816
1928.73	2.31038
1930.21	1.71598
1931.7	1.34434
1933.18	1.71107
1934.67	1.36371
1936.15	1.28061
1937.64	0.792004
1939.12	0.468065
1940.61	1.31047
1942.09	1.36345
1943.57	1.87893
1945.06	2.18084
1946.54	2.6179
1948.02	3.23407
1949.51	2.79502
1950.99	3.28381
1952.47	3.45425
1953.95	3.50184
1955.43	3.63236
1956.91	4.0328
1958.39	4.10629
1959.87	4.33843
1961.36	4.48736
1962.84	4.68248
1964.32	5.48765
1965.79	5.18619
1967.27	4.9343
1968.75	5.24176
1970.23	5.17738
1971.71	4.40699
1973.19	4.1105
1974.66	3.92026
1976.14	3.82117
1977.62	3.92262
1979.1	4.15223
1980.57	3.66682
1982.05	2.90224
1983.53	2.79717
1985	2.26542
1986.48	1.6419
1987.95	1.60622
1989.43	1.95967
1990.9	2.20578
1992.38	2.20775
1993.85	2.76716
1995.33	3.18236
1996.8	3.59523
1998.27	4.17554
1999.75	4.13871
2001.22	4.18748
2002.69	4.41316
2004.16	4.20261
2005.64	4.54581
2007.11	4.93936
2008.58	5.20413
2010.05	5.0626
2011.52	4.94872
2012.99	5.09851
2014.46	4.97133
2015.93	4.131
2017.4	4.3791
2018.87	5.13558
2020.34	5.25714
2021.81	5.16774
2023.28	5.70075
2024.75	5.90055
2026.22	5.52858
2027.69	5.532
2029.15	5.96851
2030.62	5.99947
2032.09	5.86697
2033.56	5.98834
2035.02	5.99543
2036.49	6.22719
2037.95	6.43363
2039.42	6.11277
2040.89	6.28853
2042.35	6.60681
2043.82	6.0619
2045.28	6.0808
2046.75	6.80344
2048.21	6.49095
2049.67	6.45243
2051.14	6.33584
2052.6	6.44496
2054.06	5.85797
2055.53	6.25096
2056.99	6.3433
2058.45	5.62005
2059.92	6.366
2061.38	6.53159
2062.84	6.12141
2064.3	6.28616
2065.76	5.65473
2067.22	5.21014
2068.68	5.27724
2070.14	5.05051
2071.6	4.46793
2073.06	4.63481
2074.52	4.94106
2075.98	4.87515
2077.44	4.94839
2078.9	5.60969
2080.36	5.47999
2081.82	5.72632
2083.27	4.57001
2084.73	4.53079
2086.19	4.79711
2087.65	4.89382
2089.1	5.19895
2090.56	6.01011
2092.01	6.07782
2093.47	5.95584
2094.93	6.59569
2096.38	6.59259
2097.84	6.47538
2099.29	6.43205
2100.75	6.72901
2102.2	6.60246
2103.66	6.53848
2105.11	7.02559
2106.56	7.18672
2108.02	6.8563
2109.47	6.64599
2110.92	6.73643
2112.37	7.28619
2113.83	7.40705
2115.28	7.5203
2116.73	7.12782
2118.18	7.39494
2119.63	7.61901
2121.09	7.68372
2122.54	8.05352
2123.99	7.81999
2125.44	8.37664
2126.89	7.42345
2128.34	7.41482
2129.79	7.57246
2131.23	7.3273
2132.68	7.38232
2134.13	7.36764
2135.58	7.69497
2137.03	8.46061
2138.48	8.77452
2139.92	9.66911
2141.37	10.2613
2142.82	10.9135
2144.26	11.7985
2145.71	13.0258
2147.16	14.0048
2148.6	14.5085
2150.05	15.5064
2151.49	16.7889
2152.94	17.6695
2154.38	19.4417
2155.83	19.932
2157.27	21.7188
2158.72	22.6379
2160.16	23.1634
2161.6	24.9058
2163.05	25.7098
2164.49	26.246
2165.93	27.2328
2167.38	27.7115
2168.82	27.7552
2170.26	28.7468
2171.7	29.6212
2173.14	30.2864
2174.58	31.0399
2176.03	31.9825
2177.47	32.3821
2178.91	32.3144
2180.35	32.0496
2181.79	32.5119
2183.23	33.2223
2184.67	33.1516
2186.1	32.4455
2187.54	32.6713
2188.98	32.2595
2190.42	31.964
2191.86	31.0051
2193.3	30.2718
2194.73	29.0538
2196.17	28.0035
2197.61	26.976
2199.05	25.2379
2200.48	24.9353
2201.92	24.2895
2203.35	22.8276
2204.79	21.8955
2206.22	20.9188
2207.66	20.1328
2209.09	19.5653
2210.53	18.5036
2211.96	17.1812
2213.4	16.3847
2214.83	15.8067
2216.27	15.1116
2217.7	14.6471
2219.13	13.6545
2220.56	13.2718
2222	13.2187
2223.43	13.6734
2224.86	13.46
2226.29	12.8755
2227.72	11.9841
2229.16	12.2556
2230.59	11.3415
2232.02	10.8576
2233.45	11.0687
2234.88	10.0921
2236.31	9.54272
2237.74	10.0635
2239.17	9.77279
2240.6	9.87179
2242.03	9.66398
2243.45	9.6537
2244.88	9.21305
2246.31	9.62721
2247.74	9.87454
2249.17	9.72492
2250.59	9.74961
2252.02	9.57432
2253.45	9.87194
2254.87	9.86147
2256.3	9.95775
2257.73	9.69336
2259.15	10.1825
2260.58	9.70111
2262	8.95806
2263.43	8.71249
2264.85	8.80105
2266.28	9.102
2267.7	8.86411
2269.13	8.31844
2270.55	8.10836
2271.97	7.67744
2273.4	7.21386
2274.82	7.2118
2276.24	7.04005
2277.66	7.0551
2279.09	7.33481
2280.51	7.15503
2281.93	6.98702
2283.35	7.2103
2284.77	7.22589
2286.19	6.33552
2287.61	6.27546
2289.04	5.87982
2290.46	5.07121
2291.88	4.94858
2293.29	4.46058
2294.71	4.42413
2296.13	4.06118
2297.55	3.81555
2298.97	3.72868
2300.39	4.39062
2301.81	3.8683
2303.23	3.68852
2304.64	4.08511
2306.06	3.87582
2307.48	3.71527
2308.89	3.71594
2310.31	2.947
2311.73	2.9678
2313.14	3.22764
2314.56	3.40558
2315.97	4.46304
2317.39	4.88486
2318.8	4.58324
2320.22	4.31443
2321.63	4.16336
2323.05	4.3132
2324.46	4.33791
2325.88	4.89742
2327.29	4.7794
2328.7	4.25676
2330.12	4.82012
2331.53	4.49837
2332.94	4.49035
2334.35	4.5869
2335.76	4.97995
2337.18	4.50209
2338.59	3.62155
2340	3.05318
2341.41	3.35206
2342.82	2.70916
2344.23	2.33827
2345.64	1.90493
2347.05	1.41606
2348.46	1.62379
2349.87	1.06804
2351.28	0.58905
2352.69	0.298685
2354.1	0.78729
2355.5	-0.188115
2356.91	0.0485401
2358.32	0.0486104
2359.73	-0.147339
2361.14	0.153547
2362.54	0.888865
2363.95	1.29648
2365.36	1.7785
2366.76	1.93614
2368.17	2.33587
2369.58	2.67161
2370.98	3.54798
2372.39	3.10462
2373.79	3.42439
2375.2	3.92347
2376.6	3.99132
2378	3.76072
2379.41	3.87317
2380.81	3.70821
2382.22	3.63922
2383.62	3.97659
2385.02	3.57753
2386.42	3.88562
2387.83	3.28656
2389.23	3.39927
2390.63	3.95321
2392.03	4.05357
2393.43	4.4999
2394.84	5.18307
2396.24	5.27749
2397.64	4.9458
2399.04	5.24711
2400.44	5.83077
2401.84	5.53576
2403.24	5.1458
2404.64	5.32455
2406.04	5.37709
2407.44	4.76689
2408.83	5.40397
2410.23	5.8575
2411.63	6.23139
2413.03	5.96449
2414.43	6.92582
2415.83	7.65498
2417.22	7.53519
2418.62	7.32397
2420.02	7.05726
2421.41	7.47617
2422.81	8.17021
2424.21	8.64595
2425.6	8.32048
2427	8.44506
2428.39	7.90222
2429.79	8.00105
2431.18	8.07583
2432.58	7.6364
2433.97	7.43577
2435.36	7.85759
2436.76	7.76501
2438.15	7.78614
2439.54	7.56953
2440.94	8.06926
2442.33	7.52196
2443.72	7.14547
2445.11	6.5098
2446.51	6.31904
2447.9	5.89057
2449.29	5.63551
2450.68	5.62724
2452.07	6.32551
2453.46	6.7433
2454.85	6.42541
2456.24	6.66624
2457.63	6.72425
2459.02	6.66995
2460.41	6.44109
2461.8	5.91532
2463.19	6.14482
2464.58	5.98338
2465.97	6.08884
2467.36	5.83919
2468.75	6.17084
2470.13	6.15572
2471.52	6.5388
2472.91	6.48442
2474.29	6.63666
2475.68	6.65614
2477.07	6.9735
2478.45	6.96675
2479.84	6.55907
2481.22	5.92362
2482.61	5.43838
2484	5.41877
2485.38	4.52055
2486.77	3.46527
2488.15	3.27108
2489.54	3.33966
2490.92	3.29475
2492.3	2.92497
2493.69	2.74849
2495.07	2.20181
2496.45	1.63269
2497.84	1.15864
2499.22	0.7332
2500.6	0.987999
2501.98	0.751519
2503.36	0.949927
2504.74	0.890157
2506.13	0.371015
2507.51	0.453578
2508.89	0.0302978
2510.27	0.586976
2511.65	0.0774445
2513.03	0.581487
2514.41	0.991848
2515.79	1.09526
2517.17	1.56518
2518.55	1.83364
2519.93	2.55702
2521.3	2.93159
2522.68	2.62042
2524.06	2.66955
2525.44	2.69019
2526.82	3.08358
2528.19	3.23747
2529.57	3.75043
2530.95	4.54351
2532.32	5.10968
2533.7	5.22277
2535.08	5.65102
2536.45	5.45792
2537.83	5.96951
2539.2	5.91375
2540.58	6.52224
2541.95	6.31052
2543.33	6.63483
2544.7	7.13435
2546.08	7.36425
2547.45	7.28101
2548.82	7.83496
2550.2	7.82123
2551.57	7.75354
2552.94	8.36498
2554.32	8.32231
2555.69	8.28267
2557.06	8.46414
2558.43	8.89004
2559.8	8.71467
2561.17	8.2396
2562.55	8.34868
2563.92	7.71809
2565.29	7.6212
2566.66	7.30882
2568.03	7.17041
2569.4	7.29411
2570.77	7.2184
2572.14	7.35724
2573.51	7.34194
2574.88	6.74921
2576.24	6.42718
2577.61	6.84211
2578.98	7.03809
2580.35	6.71432
2581.72	7.1469
2583.09	6.59599
2584.45	6.20184
2585.82	6.45097
2587.19	6.4736
2588.55	6.64026
2589.92	6.3841
2591.28	6.18606
2592.65	6.01745
2594.02	5.95169
2595.38	5.99714
2596.75	6.26333
2598.11	6.59414
2599.48	5.97803
2600.84	4.88775
2602.2	4.74844
2603.57	4.67819
2604.93	4.79183
2606.3	4.59485
2607.66	4.76084
2609.02	4.72755
2610.38	4.08737
2611.75	4.34948
2613.11	4.49396
2614.47	4.50061
2615.83	4.68491
2617.19	4.62872
2618.56	4.69687
2619.92	4.54991
2621.28	4.76067
2622.64	4.54634
2624	4.57883
2625.36	4.49268
2626.72	4.01437
2628.08	3.79118
2629.44	3.31965
2630.8	3.08691
2632.15	2.63859
2633.51	2.62851
2634.87	2.66455
2636.23	2.24571
2637.59	2.96773
2638.94	3.48223
2640.3	2.73649
2641.66	2.58048
2643.02	2.52352
2644.37	2.54412
2645.73	2.90711
2647.08	2.57854
2648.44	3.02062
2649.8	3.35897
2651.15	3.37832
2652.51	4.02888
2653.86	3.83661
2655.22	4.30322
2656.57	4.00701
2657.92	4.51073
2659.28	4.86149
2660.63	4.89731
2661.99	4.92943
2663.34	5.423
2664.69	6.36063
2666.04	6.82753
2667.4	6.93313
2668.75	7.0618
2670.1	7.97929
2671.45	8.1233
2672.81	7.90092
2674.16	8.34897
2675.51	8.41704
2676.86	8.44549
2678.21	8.81536
2679.56	9.49526
2680.91	9.44152
2682.26	9.16438
2683.61	9.3519
2684.96	9.04049
2686.31	8.85502
2687.66	8.17987
2689	7.80943
2690.35	8.0464
2691.7	7.6904
2693.05	7.46058
2694.4	7.34894
2695.74	7.22617
2697.09	6.51896
2698.44	6.42227
2699.79	5.94659
2701.13	6.20509
2702.48	6.43382
2703.82	6.6195
2705.17	6.84196
2706.52	6.56319
2707.86	6.41962
2709.21	6.78782
2710.55	7.12364
2711.9	7.60341
2713.24	8.11364
2714.58	8.55017
2715.93	9.00363
2717.27	9.39586
2718.61	9.48372
2719.96	9.61106
2721.3	10.2507
2722.64	11.2592
2723.99	11.7468
2725.33	12.5631
2726.67	12.7742
2728.01	13.317
2729.35	13.7737
2730.7	15.0948
2732.04	15.5529
2733.38	16.1257
2734.72	15.5291
2736.06	15.6544
2737.4	15.3375
2738.74	15.2042
2740.08	15.1232
2741.42	15.6197
2742.76	15.1864
2744.09	15.126
2745.43	15.0793
2746.77	14.7436
2748.11	14.6507
2749.45	14.3066
2750.79	14.122
2752.12	13.7066
2753.46	13.0266
2754.8	12.6595
2756.13	12.5538
2757.47	12.9602
2758.81	12.2844
2760.14	11.3705
2761.48	9.97048
2762.81	8.80637
2764.15	8.22813
2765.49	7.81367
2766.82	7.11292
2768.15	7.08431
2769.49	6.39393
2770.82	6.0313
2772.16	5.43052
2773.49	5.20194
2774.82	4.86679
2776.16	3.78228
2777.49	3.61302
2778.82	3.68216
2780.16	3.3776
2781.49	3.61625
2782.82	3.53041
2784.15	3.28282
2785.48	3.4487
2786.81	3.96755
2788.15	4.27442
2789.48	3.84451
2790.81	3.8934
2792.14	3.66544
2793.47	3.5742
2794.8	3.42862
2796.13	3.02281
2797.46	2.87935
2798.79	2.77837
2800.12	2.98141
2801.44	2.63995
2802.77	2.90104
2804.1	2.57962
2805.43	3.4796
2806.76	3.70456
2808.08	3.98674
2809.41	4.00908
2810.74	4.39095
2812.07	5.08281
2813.39	5.52197
2814.72	6.68122
2816.05	7.00261
2817.37	7.30616
2818.7	7.58259
2820.02	8.33826
2821.35	9.44787
2822.67	10.4443
2824	11.6062
2825.32	11.7219
2826.65	12.8148
2827.97	14.1692
2829.29	16.0042
2830.62	17.4386
2831.94	18.78
2833.26	20.0364
2834.59	21.7051
2835.91	23.5988
2837.23	26.2653
2838.55	28.3558
2839.88	31.0353
2841.2	33.9531
2842.52	37.1161
2843.84	42.119
2845.16	46.3377
2846.48	50.325
2847.8	54.6803
2849.12	59.0166
2850.44	63.3814
2851.76	68.5044
2853.08	73.1577
2854.4	77.8968
2855.72	82.41
2857.04	87.132
2858.36	91.3689
2859.68	96.2327
2861	100.927
2862.32	104.867
2863.63	109.132
2864.95	113.927
2866.27	118.328
2867.58	121.697
2868.9	125.22
2870.22	128.332
2871.53	131.788
2872.85	134.356
2874.17	137.001
2875.48	139.796
2876.8	142.917
2878.11	145.59
2879.43	147.837
2880.74	149.989
2882.06	151.461
2883.37	153.715
2884.69	155.792
2886	158.219
2887.31	160.128
2888.63	161.715
2889.94	164.06
2891.25	165.689
2892.57	168.478
2893.88	170.706
2895.19	173.19
2896.5	175.801
2897.82	178.423
2899.13	181.335
2900.44	185.403
2901.75	189.348
2903.06	194.072
2904.37	199.031
2905.68	205.29
2906.99	211.532
2908.3	218.176
2909.61	224.409
2910.92	230.794
2912.23	237.492
2913.54	244.265
2914.85	251.258
2916.16	257.844
2917.46	264.446
2918.77	270.471
2920.08	276.488
2921.39	281.339
2922.7	285.867
2924	289.794
2925.31	293.238
2926.62	295.997
2927.92	297.67
2929.23	300.308
2930.53	301.378
2931.84	301.381
2933.15	300.821
2934.45	299.893
2935.76	298.552
2937.06	296.822
2938.37	294.493
2939.67	292.071
2940.98	289.107
2942.28	285.547
2943.58	281.264
2944.89	276.367
2946.19	272.172
2947.49	267.306
2948.8	261.604
2950.1	255.745
2951.4	250.454
2952.7	244.198
2954.01	238.668
2955.31	233.113
2956.61	227.168
2957.91	221.665
2959.21	215.793
2960.51	209.8
2961.81	203.885
2963.11	197.758
2964.41	192.59
2965.71	187.981
2967.01	182.779
2968.31	178.245
2969.61	174.091
2970.91	169.833
2972.21	165.478
2973.51	160.527
2974.81	156.109
2976.1	152.325
2977.4	147.632
2978.7	143.587
2980	139.459
2981.29	134.787
2982.59	130.287
2983.89	125.55
2985.18	120.819
2986.48	115.056
2987.78	110.292
2989.07	105.467
2990.37	100.823
2991.66	96.6428
2992.96	91.4376
2994.25	86.8534
2995.55	81.8906
2996.84	77.782
2998.14	73.5556
2999.43	69.0211
3000.72	65.2841
3002.02	61.2323
3003.31	57.1389
3004.6	53.5083
3005.9	49.8042
3007.19	46.4161
3008.48	43.4819
3009.77	40.1163
3011.07	37.7486
3012.36	34.1496
3013.65	31.2399
3014.94	29.0988
3016.23	26.8175
3017.52	24.628
3018.81	22.9425
3020.1	20.5791
3021.39	19.1628
3022.68	17.805
3023.97	16.2938
3025.26	14.7793
3026.55	13.58
3027.84	12.29
3029.13	11.4374
3030.42	10.7762
3031.71	10.663
3033	10.5631
3034.28	10.0822
3035.57	10.1593
3036.86	9.97465
3038.15	9.51522
3039.43	9.79541
3040.72	10.0193
3042.01	10.3329
3043.29	10.6873
3044.58	10.9511
3045.86	11.1935
3047.15	11.4941
3048.44	11.156
3049.72	11.7601
3051.01	11.8291
3052.29	12.3318
3053.58	12.2364
3054.86	12.4802
3056.14	11.9493
3057.43	11.6741
3058.71	11.9371
3060	11.9906
3061.28	11.9489
3062.56	11.5003
3063.84	11.3039
3065.13	11.1226
3066.41	10.7029
3067.69	9.96756
3068.97	10.0807
3070.25	9.32811
3071.54	8.78641
3072.82	8.31397
3074.1	7.25705
3075.38	6.65798
3076.66	5.73251
3077.94	5.10014
3079.22	4.03992
3080.5	3.48631
3081.78	2.66408
3083.06	2.02747
3084.34	1.52077
3085.62	1.19814
3086.9	0.583362
3088.17	-0.138154
3089.45	-0.310504
3090.73	-0.476802
3092.01	-1.07023
3093.29	-0.610523
3094.56	-0.322124
3095.84	-0.426015
3097.12	-1.33777
3098.4	-1.8285
3099.67	-1.13507
3100.95	-1.56932
3102.22	-1.18036
3103.5	-0.635125
3104.77	-0.759589
3106.05	-0.421178
3107.33	0.0920996
3108.6	0.251727
3109.88	0.553743
3111.15	0.689883
3112.43	0.762819
3113.7	1.53789
3114.97	1.59351
3116.25	1.58046
3117.52	2.06534
3118.79	2.52628
3120.07	2.75225
3121.34	3.54903
3122.61	3.88477
3123.88	4.31289
3125.16	5.149
3126.43	5.57605
3127.7	6.04494
3128.97	6.56418
3130.24	6.76182
3131.51	7.21311
3132.78	7.97476
3134.05	8.15967
3135.33	8.96361
3136.59	9.56326
3137.86	9.78911
3139.14	10.2826
3140.41	10.6399
3141.67	11.0042
3142.94	11.5084
3144.21	11.9739
3145.48	12.3132
3146.75	12.0993
3148.02	12.0934
3149.28	12.1214
