#Acq. time (s)=	45
#Accumulations=	2
#Range (cm-¹)=	200...3150
#Windows=	2
#Auto scanning=	Off
#Autofocus=	Off
#Macrospot=	Off
#AutoExposure=	Off
#Spike filter=	Multiple accum.
#Delay time (s)=	0
#Binning=	1
#Readout mode=	Signal
#DeNoise=	Off
#ICS correction=	On
#Dark correction=	Off
#Inst. Process=	Off
#Detector Gain=	Best Dynamic Range
#Detector ADC=	20 kHz       
#Detector temperature (°C)=	-69.85
#Instrument=	LabRAM HR Evol
#Detector=	Synapse
#Objective=	x100
#Grating=	600 gr/mm
#ND Filter=	100%
#Laser (nm)=	532 
#Hole=	100.021
#Range=	Auto
#Laser Pol.=	No
#Raman. Pol.=	No
#Laser Pol. (°)=	-0.0007625
#Raman Pol. (°)=	89.9995
#Collection=	Microscope
#StageXY=	Marzhauser
#StageZ=	Marzhauser
#X (µm)=	-612.7
#Y (µm)=	-1585.3
#Z (µm)=	90
#Full time(mm:ss)=	3:18
#Project=	
#Sample=	
#Site=	
#Title=	Mb_10_14_33_2x_45s_532 nm_x100_100%_600 gr_mm
#Remark=	
#Date=	11.07.2022 10:58
#Acquired=	11.07.2022 10:58:46
#Base:Fit=	10.08.2022 10:21:11
#Base:Sub=	10.08.2022 10:21:41
#Filter:Polynom=	16.08.2022 10:17:53
#AxisType[0]=Intens
#AxisUnit[0]=Cnt
#AxisType[1]=Spectr
#AxisUnit[1]=1/cm
200.388	9.32146
202.204	8.52782
204.019	8.11203
205.832	8.09465
207.646	8.26646
209.459	8.50352
211.274	8.61026
213.087	8.20658
214.899	8.02518
216.711	6.92212
218.524	6.49248
220.335	7.14631
222.146	8.31815
223.956	8.89525
225.766	10.1605
227.576	10.2751
229.388	10.2799
231.197	10.9629
233.005	11.6004
234.813	12.0801
236.621	12.6279
238.429	14.0022
240.236	14.0277
242.045	13.5534
243.852	14.3835
245.658	14.8408
247.464	15.6084
249.269	15.625
251.074	14.8888
252.879	15.4995
254.683	15.1743
256.487	15.8197
258.291	16.2844
260.094	17.0217
261.897	17.4242
263.702	17.7581
265.504	18.6867
267.306	19.1088
269.108	21.2922
270.909	22.0074
272.71	22.2704
274.511	23.3777
276.311	23.4132
278.111	23.024
279.91	23.1976
281.709	22.5351
283.508	22.0848
285.306	22.6214
287.105	22.9954
288.9	24.1586
290.698	23.5562
292.495	24.4442
294.291	24.6276
296.088	24.6129
297.884	24.4116
299.679	24.478
301.475	23.8765
303.27	23.9044
305.064	24.6227
306.858	25.452
308.652	27.1601
310.444	28.4849
312.237	28.3928
314.03	29.3059
315.822	29.6164
317.615	29.5452
319.406	30.4114
321.198	31.1232
322.987	31.1243
324.778	31.3514
326.568	31.2056
328.358	31.7419
330.148	30.971
331.935	30.6933
333.724	31.0368
335.513	30.49
337.301	30.2563
339.089	29.0892
340.875	28.2196
342.662	27.671
344.449	26.5124
346.236	26.4613
348.02	26.3356
349.806	26.4238
351.592	27.091
353.375	26.7295
355.16	28.1487
356.944	27.6701
358.728	27.3375
360.51	26.4767
362.294	25.5509
364.077	26.2637
365.858	25.3749
367.64	24.2954
369.422	24.7174
371.202	24.3489
372.983	24.7162
374.764	25.3977
376.543	25.1392
378.324	24.7977
380.102	24.3381
381.881	24.8208
383.661	25.5786
385.438	25.7427
387.216	26.3243
388.993	26.6933
390.771	26.1927
392.548	27.1997
394.324	27.558
396.101	26.8459
397.875	27.0026
399.651	26.4037
401.425	25.6716
403.201	26.696
404.974	25.3655
406.749	25.0579
408.524	24.5537
410.296	24.4581
412.07	24.1493
413.841	24.076
415.614	23.5518
417.385	23.286
419.156	22.3433
420.928	22.3296
422.698	22.9356
424.469	22.959
426.238	22.8232
428.009	21.742
429.777	20.7832
431.548	19.6673
433.315	19.7084
435.083	19.4298
436.852	18.5923
438.618	18.2958
440.387	17.45
442.153	15.7288
443.919	14.8111
445.686	13.0952
447.451	12.5468
449.218	11.965
450.982	11.1299
452.746	11.2751
454.512	10.5006
456.275	10.1726
458.038	10.8468
459.803	10.7117
461.565	11.6513
463.327	11.6535
465.091	12.4208
466.852	13.5268
468.613	14.2073
470.374	13.9286
472.136	15.3584
473.896	15.0258
475.655	15.1743
477.415	14.8205
479.176	15.0833
480.934	15.472
482.692	16.3616
484.45	17.4238
486.21	19.1525
487.967	19.4598
489.724	20.525
491.481	21.818
493.237	22.4697
494.995	24.2107
496.75	25.3161
498.506	26.624
500.26	27.5349
502.015	28.8705
503.769	30.0768
505.525	30.6468
507.279	31.7449
509.032	31.8841
510.785	31.6948
512.537	31.0609
514.289	30.797
516.041	30.4821
517.793	30.7092
519.546	30.2502
521.297	30.1742
523.047	29.5073
524.797	28.5087
526.547	28.3698
528.297	26.8416
530.046	26.3159
531.795	25.9794
533.543	24.2254
535.291	23.721
537.039	22.7955
538.787	23.0216
540.534	22.5991
542.281	21.8447
544.027	21.7233
545.773	21.3417
547.519	21.3576
549.264	20.3994
551.01	19.2799
552.754	18.1497
554.499	16.3097
556.243	14.7599
557.987	13.8369
559.73	13.6945
561.474	12.7999
563.216	12.7251
564.959	12.5219
566.701	12.0189
568.441	11.8066
570.182	11.9671
571.923	10.5343
573.664	9.30137
575.405	8.35073
577.145	7.69336
578.885	7.59394
580.624	7.15744
582.361	6.75024
584.1	6.31702
585.839	6.16644
587.577	6.57406
589.315	6.06071
591.052	4.90338
592.787	4.71188
594.524	4.54437
596.26	4.17544
597.997	4.49474
599.732	5.39525
601.466	5.59874
603.201	6.05013
604.936	5.89393
606.67	5.90318
608.403	6.40689
610.136	6.26214
611.87	6.26679
613.603	7.33073
615.334	7.64136
617.067	7.9897
618.799	8.09799
620.529	7.94038
622.26	9.40999
623.991	10.81
625.72	11.8666
627.451	11.418
629.181	12.3641
630.909	13.201
632.638	13.7857
634.368	14.436
636.095	14.6812
637.823	14.4364
639.551	14.6179
641.277	15.2959
643.005	16.5766
644.73	17.6065
646.457	17.6592
648.184	17.8191
649.908	17.8091
651.634	17.3301
653.357	17.191
655.083	17.8147
656.806	17.434
658.53	17.37
660.253	18.1131
661.977	18.4744
663.7	18.7717
665.422	18.8626
667.145	19.576
668.865	19.7494
670.588	20.5163
672.308	20.5959
674.027	21.6103
675.749	20.9736
677.468	20.9504
679.188	21.6165
680.907	21.615
682.627	21.6193
684.345	21.9525
686.064	22.6206
687.781	21.8987
689.498	22.3548
691.216	22.7708
692.932	23.4978
694.65	23.4629
696.366	24.336
698.081	25.5895
699.797	26.4358
701.512	27.4389
703.228	28.1076
704.942	28.7392
706.655	29.8578
708.371	30.9957
710.083	31.5052
711.796	31.4914
713.51	32.4239
715.222	33.604
716.934	34.7045
718.645	35.7229
720.358	35.9502
722.068	36.6503
723.779	36.3924
725.49	36.7151
727.2	37.3313
728.909	37.3627
730.618	38.1876
732.329	38.872
734.037	39.6046
735.745	40.54
737.453	40.7615
739.16	41.6966
740.869	42.4851
742.576	43.2634
744.282	44.62
745.988	45.4202
747.694	46.8141
749.401	47.4937
751.107	48.3571
752.811	50.5239
754.516	50.3557
756.22	52.1881
757.924	52.8133
759.627	54.293
761.332	55.0276
763.035	57.1098
764.738	59.2838
766.44	59.728
768.142	60.6177
769.843	62.2822
771.544	62.8927
773.245	63.8912
774.946	65.8941
776.646	66.988
778.346	68.038
780.046	69.1598
781.745	71.0337
783.444	71.6035
785.143	72.4413
786.841	73.3321
788.539	73.0469
790.237	72.5532
791.934	73.3586
793.631	73.4815
795.328	73.6771
797.024	74.2579
798.72	74.024
800.416	74.4374
802.112	74.8477
803.807	74.5115
805.502	74.699
807.196	73.6565
808.89	72.5557
810.584	72.827
812.278	72.7541
813.971	72.3309
815.664	72.7874
817.354	71.4194
819.047	70.4242
820.739	70.5676
822.43	70.3817
824.122	70.4541
825.813	69.5865
827.503	69.7155
829.192	69.5955
830.882	68.7835
832.571	68.5994
834.261	67.8156
835.95	67.3719
837.637	67.1921
839.325	66.3247
841.013	66.6912
842.701	66.7587
844.389	67.3419
846.074	66.2766
847.761	65.2622
849.447	63.9771
851.131	62.1543
852.817	61.7719
854.503	60.6479
856.188	59.5542
857.871	60.1275
859.556	59.2294
861.24	58.9817
862.922	58.3726
864.606	57.0053
866.289	55.8588
867.97	54.5228
869.653	52.8425
871.336	50.5954
873.016	50.1354
874.698	49.7165
876.379	50.1991
878.058	49.5765
879.739	48.5294
881.418	47.7648
883.098	46.793
884.778	46.5233
886.456	45.31
888.135	43.9336
889.812	43.468
891.49	42.3494
893.167	42.0944
894.845	42.5251
896.523	40.6907
898.198	40.3328
899.875	40.0111
901.55	40.4244
903.226	39.7759
904.901	39.4093
906.576	38.8104
908.25	38.3833
909.925	37.6409
911.598	38.2319
913.271	38.0788
914.945	37.2321
916.617	37.7801
918.291	37.4374
919.962	36.4963
921.635	36.351
923.306	36.6493
924.978	36.1817
926.648	36.0929
928.318	36.348
929.989	35.7351
931.659	36.0834
933.328	36.8731
934.998	36.7972
936.666	36.6098
938.336	36.9808
940.004	37.6951
941.671	38.7571
943.34	38.153
945.007	38.8654
946.673	38.6182
948.339	38.4996
950.007	37.9088
951.672	36.6585
953.337	36.7333
955.004	37.4156
956.669	38.2638
958.333	37.976
959.997	38.6399
961.662	37.8595
963.326	36.6172
964.989	36.5595
966.651	36.3142
968.315	36.9181
969.977	36.8633
971.639	37.342
973.301	37.8497
974.962	37.2218
976.624	37.0645
978.285	37.3135
979.945	37.1258
981.605	36.6455
983.264	37.01
984.924	36.8864
986.583	34.6227
988.243	33.812
989.901	33.5249
991.56	33.1297
993.217	31.9467
994.875	32.0727
996.532	31.2168
998.188	30.2854
999.845	29.5858
1001.5	27.6058
1003.16	26.9326
1004.81	26.4685
1006.47	25.9558
1008.12	25.152
1009.78	24.6912
1011.43	24.9461
1013.09	23.9384
1014.74	23.4449
1016.39	23.8975
1018.05	23.1411
1019.7	22.5967
1021.35	22.6978
1023	23.5584
1024.65	24.1469
1026.31	22.9283
1027.96	22.715
1029.61	22.4878
1031.26	21.7733
1032.91	21.1276
1034.56	21.2562
1036.21	21.9505
1037.86	21.7281
1039.51	21.8528
1041.16	22.291
1042.8	23.2775
1044.45	22.8655
1046.1	23.3275
1047.75	24.2077
1049.39	24.4459
1051.04	25.2797
1052.69	25.4308
1054.33	25.8766
1055.98	26.0218
1057.62	25.4266
1059.27	25.5933
1060.91	25.7568
1062.56	24.9884
1064.2	23.7579
1065.85	24.0452
1067.49	22.7779
1069.13	21.8183
1070.77	21.0757
1072.42	20.6314
1074.06	19.9673
1075.7	18.9066
1077.34	18.0213
1078.98	16.8552
1080.62	15.8999
1082.27	14.453
1083.91	13.2554
1085.55	12.0283
1087.18	11.2676
1088.82	10.5941
1090.46	9.81705
1092.1	9.25172
1093.74	8.80168
1095.38	8.70243
1097.02	8.69199
1098.65	9.10293
1100.29	8.4598
1101.93	8.97218
1103.56	9.47471
1105.2	9.76735
1106.84	9.08876
1108.47	7.70789
1110.11	8.02909
1111.74	8.4372
1113.38	7.8511
1115.01	7.93665
1116.64	7.46187
1118.28	7.61067
1119.91	7.94043
1121.54	7.92149
1123.18	8.69897
1124.81	9.21531
1126.44	9.27479
1128.07	9.75658
1129.7	9.48864
1131.33	9.83363
1132.97	10.0851
1134.6	9.75662
1136.23	9.23549
1137.86	8.77055
1139.49	8.07828
1141.11	8.64201
1142.74	8.8506
1144.37	9.42941
1146	9.51849
1147.63	9.22603
1149.26	8.99298
1150.88	8.17645
1152.51	6.73054
1154.14	6.43041
1155.76	6.51328
1157.39	6.23351
1159.01	5.47547
1160.64	5.60736
1162.27	4.15916
1163.89	2.98676
1165.51	2.23599
1167.14	1.82342
1168.76	1.78237
1170.39	2.12174
1172.01	1.94988
1173.63	2.36607
1175.25	2.72934
1176.88	4.41615
1178.5	5.09619
1180.12	4.83441
1181.74	4.81424
1183.36	4.74812
1184.98	4.13041
1186.6	4.03339
1188.22	4.15484
1189.84	4.49804
1191.46	5.75129
1193.08	5.09375
1194.7	4.79785
1196.32	5.16753
1197.94	4.9497
1199.55	5.28531
1201.17	5.31325
1202.79	5.0463
1204.41	5.336
1206.02	4.70288
1207.64	5.35409
1209.25	5.53067
1210.87	5.31411
1212.48	4.90996
1214.1	5.07248
1215.71	6.68085
1217.33	7.11573
1218.94	8.41733
1220.56	9.44707
1222.17	10.7265
1223.79	11.2164
1225.4	12.2923
1227.01	12.2264
1228.62	12.5874
1230.23	13.3478
1231.85	13.3477
1233.46	13.9979
1235.07	14.5108
1236.68	15.6516
1238.29	15.9053
1239.9	16.5531
1241.51	17.5254
1243.12	17.6523
1244.73	19.1069
1246.34	20.4611
1247.94	21.3805
1249.55	22.5742
1251.16	24.4579
1252.77	25.0785
1254.37	25.8661
1255.98	26.2193
1257.59	26.4035
1259.2	26.5912
1260.8	26.3104
1262.41	26.8223
1264.01	27.0902
1265.62	27.0557
1267.22	27.333
1268.83	27.2607
1270.43	26.8103
1272.03	26.05
1273.64	25.6199
1275.24	26.9391
1276.85	26.6368
1278.45	26.9327
1280.05	27.1678
1281.65	26.9606
1283.25	27.3003
1284.85	28.3966
1286.46	29.4214
1288.06	29.4179
1289.66	30.1573
1291.26	30.4268
1292.86	30.306
1294.46	31.3945
1296.06	32.0486
1297.66	31.4383
1299.25	32.3791
1300.85	32.6308
1302.45	33.7135
1304.05	34.0564
1305.65	34.8078
1307.24	33.9897
1308.84	34.6631
1310.43	34.2785
1312.03	34.0114
1313.63	34.7718
1315.22	35.6687
1316.82	37.5747
1318.41	38.3715
1320.01	38.2477
1321.6	38.7376
1323.2	38.5755
1324.79	38.7592
1326.38	38.8457
1327.98	38.6212
1329.57	38.6203
1331.16	38.6569
1332.76	37.7657
1334.35	37.2913
1335.94	36.3677
1337.53	36.4331
1339.12	36.528
1340.71	35.838
1342.3	35.1045
1343.89	34.6195
1345.48	34.0312
1347.07	34.5288
1348.66	34.282
1350.25	33.6869
1351.84	33.6341
1353.43	33.871
1355.01	33.2296
1356.6	32.0295
1358.19	32.0184
1359.77	31.5556
1361.36	31.3408
1362.95	31.4715
1364.53	30.8915
1366.12	30.9744
1367.71	30.0409
1369.29	30.3746
1370.88	29.7768
1372.46	29.0618
1374.04	29.1117
1375.63	29.0505
1377.21	29.2415
1378.8	29.6658
1380.38	29.729
1381.96	29.9113
1383.54	29.3436
1385.13	28.1546
1386.71	27.149
1388.29	28.3232
1389.87	27.7419
1391.45	28.5053
1393.03	29.6389
1394.61	29.4095
1396.19	28.8792
1397.77	27.6677
1399.35	26.2491
1400.93	26.5474
1402.51	26.2403
1404.09	26.9731
1405.67	26.5621
1407.24	26.3154
1408.82	26.6799
1410.4	27.3973
1411.98	27.0434
1413.55	27.8542
1415.13	27.74
1416.71	28.4771
1418.28	28.7722
1419.86	28.7836
1421.43	29.5498
1423.01	30.8603
1424.58	32.0164
1426.16	33.319
1427.73	33.4359
1429.31	33.9302
1430.88	34.6252
1432.45	35.5783
1434.02	35.8337
1435.6	37.0879
1437.17	37.8979
1438.74	38.6238
1440.31	39.2715
1441.88	39.7547
1443.45	41.1221
1445.03	42.3202
1446.6	42.3647
1448.17	42.9497
1449.74	43.5363
1451.3	43.2611
1452.87	43.7855
1454.44	44.6266
1456.01	44.5111
1457.58	43.4112
1459.15	42.7639
1460.72	42.6117
1462.28	41.8725
1463.85	40.6601
1465.42	40.8173
1466.98	39.8263
1468.55	38.0316
1470.12	36.9268
1471.68	36.499
1473.25	34.9765
1474.81	33.4944
1476.38	33.3319
1477.94	32.3481
1479.51	31.5375
1481.07	30.5465
1482.63	29.2047
1484.2	27.7334
1485.76	26.9057
1487.32	25.5375
1488.88	23.8793
1490.45	22.48
1492.01	21.062
1493.57	19.5578
1495.13	19.2013
1496.69	18.862
1498.25	18.6282
1499.81	18.6322
1501.37	18.1385
1502.93	16.96
1504.49	17.046
1506.05	15.2499
1507.61	14.4489
1509.17	13.8042
1510.73	13.1985
1512.28	12.0412
1513.84	11.875
1515.4	10.969
1516.96	10.8557
1518.51	11.0359
1520.07	11.5653
1521.63	11.6509
1523.18	11.0975
1524.74	10.4819
1526.29	10.4316
1527.85	9.38325
1529.4	8.63972
1530.96	8.37309
1532.51	8.81783
1534.06	8.09018
1535.62	8.51578
1537.17	9.67888
1538.72	10.2176
1540.28	10.3402
1541.83	11.067
1543.38	12.0247
1544.93	12.1312
1546.48	12.9613
1548.03	14.4712
1549.59	15.0172
1551.14	15.4639
1552.69	15.3341
1554.24	16.2544
1555.79	15.862
1557.34	16.3377
1558.88	16.1326
1560.43	16.7474
1561.98	17.2952
1563.53	17.4332
1565.08	17.9385
1566.62	19.1728
1568.17	20.6755
1569.72	21.1432
1571.27	22.4295
1572.81	23.7114
1574.36	24.1858
1575.9	25.2304
1577.45	24.3641
1579	25.0352
1580.54	25.1791
1582.09	25.776
1583.63	25.4095
1585.17	25.517
1586.72	25.0834
1588.26	25.6556
1589.8	26.0072
1591.35	26.1201
1592.89	26.5738
1594.43	26.8699
1595.97	26.7282
1597.52	26.4779
1599.06	25.7554
1600.6	25.245
1602.14	24.3329
1603.68	23.7961
1605.22	23.2466
1606.76	23.9331
1608.3	23.8101
1609.84	24.6064
1611.38	24.571
1612.92	24.9638
1614.46	24.5632
1615.99	24.1507
1617.53	24.431
1619.07	24.4005
1620.61	24.1167
1622.14	23.5073
1623.68	23.833
1625.22	23.7872
1626.75	23.199
1628.29	23.463
1629.82	23.0609
1631.36	23.7496
1632.9	24.337
1634.43	25.2072
1635.96	24.991
1637.5	26.4558
1639.03	26.6565
1640.57	26.9881
1642.1	27.8691
1643.63	28.204
1645.16	28.6943
1646.7	28.5509
1648.23	28.7809
1649.76	28.4623
1651.29	28.5557
1652.82	28.0582
1654.36	27.3806
1655.89	28.5966
1657.42	28.9668
1658.95	29.3953
1660.48	28.9965
1662.01	29.0427
1663.53	30.4624
1665.06	30.5984
1666.59	29.9778
1668.12	29.9742
1669.65	30.0914
1671.18	28.4278
1672.7	27.5264
1674.23	26.7832
1675.76	26.4022
1677.29	26.0289
1678.81	25.5291
1680.34	24.8699
1681.86	24.6988
1683.39	24.2088
1684.91	24.1266
1686.44	23.4409
1687.96	22.1897
1689.49	20.754
1691.01	19.6551
1692.54	18.2159
1694.06	17.1402
1695.58	15.9405
1697.11	15.4246
1698.63	14.5019
1700.15	13.6595
1701.67	12.3297
1703.2	11.8658
1704.72	11.2549
1706.24	10.5161
1707.76	9.6984
1709.28	9.31072
1710.8	8.14719
1712.32	6.72359
1713.84	6.84913
1715.36	6.0587
1716.88	5.95485
1718.4	5.65461
1719.91	5.03159
1721.43	4.78892
1722.95	3.88671
1724.47	3.11984
1725.99	2.97594
1727.5	3.06949
1729.02	3.10902
1730.54	3.15766
1732.05	3.2253
1733.57	3.15357
1735.09	2.65198
1736.6	2.77998
1738.12	2.76711
1739.63	2.78016
1741.15	2.16481
1742.66	2.48796
1744.18	2.1255
1745.69	1.40383
1747.2	0.858958
1748.72	2.04724
1750.23	2.33714
1751.74	3.00506
1753.25	3.47479
1754.77	3.53271
1756.28	3.99165
1757.79	4.44619
1759.3	4.81699
1760.81	4.59099
1762.32	4.2163
1763.83	4.30626
1765.34	4.45744
1766.85	4.35066
1768.36	3.95155
1769.87	4.31289
1771.38	4.92536
1772.89	5.16137
1774.4	5.04006
1775.91	5.11359
1777.41	5.41021
1778.92	5.4791
1780.43	5.19164
1781.94	5.112
1783.44	5.10086
1784.95	5.51009
1786.45	5.52104
1787.96	6.18073
1789.47	6.37775
1790.97	6.20501
1792.47	5.9127
1793.98	5.86608
1795.48	5.66169
1796.99	5.69198
1798.49	5.3295
1800	4.98084
1801.5	4.76054
1803	4.27308
1804.51	4.42392
1806.01	3.74969
1807.51	3.75918
1809.01	3.67469
1810.51	3.76647
1812.02	3.91398
1813.52	3.64498
1815.02	3.92622
1816.52	3.49978
1818.02	3.05834
1819.52	2.77212
1821.02	2.4004
1822.52	2.7513
1824.02	2.88339
1825.51	2.44633
1827.01	2.67022
1828.51	3.2281
1830.01	3.1302
1831.51	3.14566
1833	3.17245
1834.5	2.9524
1836	2.40414
1837.49	2.08601
1838.99	1.1122
1840.49	0.852595
1841.98	0.77477
1843.48	1.14058
1844.97	0.957813
1846.47	0.830725
1847.96	0.824628
1849.46	0.64015
1850.95	0.57269
1852.45	0.293507
1853.94	0.364458
1855.43	0.428967
1856.92	0.694468
1858.42	1.00896
1859.91	0.874143
1861.4	1.11519
1862.89	0.968515
1864.39	1.02562
1865.88	1.89884
1867.37	2.08015
1868.86	2.77945
1870.35	2.90059
1871.84	3.54932
1873.33	3.64553
1874.82	4.00003
1876.31	4.40946
1877.8	5.22426
1879.29	6.00644
1880.77	5.9016
1882.26	6.0864
1882.52	6.36505
1884.02	6.7938
1885.51	6.94927
1887.01	7.04099
1888.5	6.73613
1889.99	6.51555
1891.49	6.57546
1892.98	6.1733
1894.47	6.43245
1895.96	6.47308
1897.46	6.46751
1898.95	6.24277
1900.44	6.28946
1901.93	5.91318
1903.42	5.7694
1904.91	5.19788
1906.4	4.11387
1907.89	2.91632
1909.38	2.3742
1910.87	2.61957
1912.36	2.22423
1913.85	1.73452
1915.34	1.45782
1916.83	1.35839
1918.32	0.752034
1919.8	0.406756
1921.29	0.422924
1922.78	1.04495
1924.27	1.18788
1925.75	1.29095
1927.24	1.39724
1928.73	1.08622
1930.21	0.841115
1931.7	1.17675
1933.18	0.96447
1934.67	1.19997
1936.15	1.87673
1937.64	3.13861
1939.12	2.90216
1940.61	2.31926
1942.09	3.13379
1943.57	3.30429
1945.06	3.51828
1946.54	3.3326
1948.02	3.06578
1949.51	2.89588
1950.99	2.95912
1952.47	3.10101
1953.95	2.7739
1955.43	3.01823
1956.91	3.75204
1958.39	4.25525
1959.87	4.72574
1961.36	5.11245
1962.84	5.7033
1964.32	5.88996
1965.79	6.72835
1967.27	7.0417
1968.75	6.93799
1970.23	6.59999
1971.71	6.81277
1973.19	6.66121
1974.66	6.51667
1976.14	6.84668
1977.62	6.88447
1979.1	6.33003
1980.57	6.04127
1982.05	6.68851
1983.53	6.69443
1985	6.95394
1986.48	7.10162
1987.95	7.30304
1989.43	8.07023
1990.9	8.14343
1992.38	7.72096
1993.85	7.34619
1995.33	7.55454
1996.8	8.00731
1998.27	7.40886
1999.75	7.10113
2001.22	6.75799
2002.69	6.43639
2004.16	6.21967
2005.64	6.03105
2007.11	5.59552
2008.58	5.45958
2010.05	5.42754
2011.52	5.03083
2012.99	4.63444
2014.46	5.40039
2015.93	5.81383
2017.4	5.00637
2018.87	4.84232
2020.34	5.05897
2021.81	4.49449
2023.28	4.8363
2024.75	5.09767
2026.22	5.39969
2027.69	5.20769
2029.15	5.71763
2030.62	5.88077
2032.09	6.09038
2033.56	6.06785
2035.02	5.84311
2036.49	5.9748
2037.95	5.29224
2039.42	4.95763
2040.89	5.27989
2042.35	5.35828
2043.82	5.32548
2045.28	5.6662
2046.75	6.1556
2048.21	5.99182
2049.67	6.4135
2051.14	6.30823
2052.6	7.23419
2054.06	7.18555
2055.53	6.8439
2056.99	6.59054
2058.45	7.14436
2059.92	7.30282
2061.38	6.91326
2062.84	6.62848
2064.3	5.99354
2065.76	5.8823
2067.22	6.22393
2068.68	6.28247
2070.14	6.10409
2071.6	5.74639
2073.06	5.67948
2074.52	5.81413
2075.98	5.63491
2077.44	5.80652
2078.9	6.32763
2080.36	6.84048
2081.82	7.24613
2083.27	7.50836
2084.73	8.32304
2086.19	8.46397
2087.65	8.56559
2089.1	8.42592
2090.56	8.18364
2092.01	8.93682
2093.47	8.73504
2094.93	8.09601
2096.38	8.25165
2097.84	7.97556
2099.29	7.82681
2100.75	7.77867
2102.2	7.99542
2103.66	7.90448
2105.11	8.29758
2106.56	8.1722
2108.02	8.25351
2109.47	8.71337
2110.92	8.21457
2112.37	8.86211
2113.83	9.81616
2115.28	9.07525
2116.73	8.57552
2118.18	8.82074
2119.63	8.81308
2121.09	9.03426
2122.54	9.64238
2123.99	9.42445
2125.44	9.52264
2126.89	8.87621
2128.34	8.74487
2129.79	9.13583
2131.23	9.49821
2132.68	9.81699
2134.13	9.73529
2135.58	10.2171
2137.03	9.9271
2138.48	9.99201
2139.92	9.48181
2141.37	9.30999
2142.82	10.2631
2144.26	10.9679
2145.71	11.923
2147.16	11.9377
2148.6	11.7579
2150.05	12.2812
2151.49	12.6545
2152.94	12.7303
2154.38	13.3454
2155.83	13.5253
2157.27	14.4137
2158.72	14.1813
2160.16	14.8264
2161.6	14.731
2163.05	14.9055
2164.49	15.155
2165.93	14.7867
2167.38	14.4645
2168.82	14.44
2170.26	14.6589
2171.7	14.877
2173.14	14.9354
2174.58	14.9944
2176.03	14.7315
2177.47	14.837
2178.91	14.5972
2180.35	14.5064
2181.79	14.4262
2183.23	14.1252
2184.67	14.4206
2186.1	14.7252
2187.54	14.5087
2188.98	14.7827
2190.42	15.2849
2191.86	14.9819
2193.3	15.0191
2194.73	14.2145
2196.17	13.9854
2197.61	13.4231
2199.05	12.8235
2200.48	12.3866
2201.92	12.4584
2203.35	12.2819
2204.79	11.8213
2206.22	11.2186
2207.66	11.0908
2209.09	10.2552
2210.53	10.2808
2211.96	10.22
2213.4	11.0422
2214.83	11.3925
2216.27	10.5518
2217.7	10.1406
2219.13	9.93615
2220.56	9.62251
2222	9.42448
2223.43	9.39866
2224.86	9.61442
2226.29	9.40649
2227.72	9.39981
2229.16	9.93956
2230.59	8.97764
2232.02	9.26056
2233.45	9.47059
2234.88	9.592
2236.31	8.72715
2237.74	8.41999
2239.17	8.62287
2240.6	8.84103
2242.03	8.98299
2243.45	8.94644
2244.88	8.95894
2246.31	8.78637
2247.74	8.98534
2249.17	9.37483
2250.59	9.42751
2252.02	9.57106
2253.45	10.1235
2254.87	10.4543
2256.3	10.442
2257.73	10.1302
2259.15	9.23701
2260.58	8.96074
2262	8.48564
2263.43	7.42295
2264.85	7.21533
2266.28	6.69607
2267.7	6.59183
2269.13	5.95174
2270.55	6.28952
2271.97	6.94277
2273.4	7.12636
2274.82	6.81789
2276.24	6.79197
2277.66	6.75738
2279.09	6.5879
2280.51	6.44424
2281.93	6.24099
2283.35	6.39841
2284.77	6.28658
2286.19	5.74836
2287.61	5.75986
2289.04	5.29521
2290.46	5.14189
2291.88	4.17455
2293.29	3.50353
2294.71	3.99616
2296.13	4.15283
2297.55	4.3612
2298.97	4.8748
2300.39	4.9054
2301.81	4.52015
2303.23	5.32893
2304.64	6.06962
2306.06	6.11943
2307.48	5.79293
2308.89	6.06094
2310.31	6.17354
2311.73	5.72193
2313.14	5.76517
2314.56	5.82575
2315.97	5.91671
2317.39	5.60688
2318.8	6.12636
2320.22	6.34809
2321.63	6.45712
2323.05	6.60566
2324.46	7.08634
2325.88	6.37071
2327.29	6.37012
2328.7	6.11161
2330.12	6.02771
2331.53	6.39502
2332.94	6.66793
2334.35	6.59434
2335.76	6.34621
2337.18	6.44551
2338.59	6.85932
2340	7.21994
2341.41	7.40648
2342.82	7.82262
2344.23	7.27225
2345.64	7.06918
2347.05	6.78266
2348.46	6.82578
2349.87	6.40521
2351.28	5.97543
2352.69	5.55956
2354.1	5.31547
2355.5	4.758
2356.91	4.39659
2358.32	4.11342
2359.73	2.6726
2361.14	2.57495
2362.54	2.39673
2363.95	2.53571
2365.36	3.34299
2366.76	3.41232
2368.17	3.46375
2369.58	3.32053
2370.98	3.49206
2372.39	3.52777
2373.79	3.5795
2375.2	3.11275
2376.6	2.26033
2378	1.89347
2379.41	1.83558
2380.81	2.11215
2382.22	1.86636
2383.62	1.92727
2385.02	1.98716
2386.42	1.9231
2387.83	2.33283
2389.23	3.24131
2390.63	3.68075
2392.03	3.97105
2393.43	3.86832
2394.84	3.96557
2396.24	3.76382
2397.64	3.82765
2399.04	2.69003
2400.44	2.65799
2401.84	2.68788
2403.24	2.34282
2404.64	1.80928
2406.04	1.63085
2407.44	2.02768
2408.83	2.3791
2410.23	2.00011
2411.63	2.2916
2413.03	2.57628
2414.43	2.21434
2415.83	2.27839
2417.22	2.34723
2418.62	2.28609
2420.02	1.80841
2421.41	1.674
2422.81	1.76637
2424.21	2.1888
2425.6	1.96029
2427	1.7281
2428.39	0.995722
2429.79	0.996232
2431.18	1.34357
2432.58	1.71296
2433.97	1.69989
2435.36	1.91766
2436.76	1.71012
2438.15	1.1482
2439.54	0.793051
2440.94	0.910682
2442.33	1.0899
2443.72	1.06269
2445.11	0.92335
2446.51	1.4754
2447.9	1.96445
2449.29	1.88102
2450.68	2.18042
2452.07	1.99634
2453.46	2.19847
2454.85	2.46783
2456.24	2.80704
2457.63	3.29612
2459.02	3.52418
2460.41	3.66335
2461.8	3.312
2463.19	2.64165
2464.58	2.25063
2465.97	2.18309
2467.36	1.88158
2468.75	2.00509
2470.13	2.96144
2471.52	3.04855
2472.91	2.97845
2474.29	2.88918
2475.68	2.81476
2477.07	2.72909
2478.45	3.20906
2479.84	2.78499
2481.22	3.772
2482.61	3.87392
2484	3.16181
2485.38	3.34965
2486.77	3.19007
2488.15	2.80214
2489.54	3.10435
2490.92	2.65715
2492.3	2.71754
2493.69	2.81932
2495.07	2.46326
2496.45	2.34074
2497.84	2.85576
2499.22	3.10678
2500.6	2.59567
2501.98	2.89854
2503.36	2.71409
2504.74	2.30525
2506.13	1.95765
2507.51	1.64883
2508.89	2.19699
2510.27	2.30202
2511.65	1.83721
2513.03	1.50212
2514.41	1.75625
2515.79	1.89997
2517.17	2.05426
2518.55	1.92177
2519.93	1.54139
2521.3	1.70677
2522.68	1.9053
2524.06	2.12291
2525.44	2.39492
2526.82	2.64256
2528.19	2.35193
2529.57	2.05372
2530.95	1.9604
2532.32	2.03331
2533.7	2.52486
2535.08	3.74071
2536.45	3.64684
2537.83	3.66571
2539.2	3.38324
2540.58	3.20537
2541.95	2.76988
2543.33	2.63561
2544.7	2.81802
2546.08	3.20728
2547.45	3.28565
2548.82	3.32094
2550.2	3.62264
2551.57	3.37673
2552.94	3.32467
2554.32	3.86644
2555.69	4.20109
2557.06	4.5859
2558.43	4.92325
2559.8	5.03893
2561.17	5.60104
2562.55	5.6624
2563.92	5.8854
2565.29	5.58203
2566.66	6.05597
2568.03	5.70258
2569.4	6.1664
2570.77	6.77092
2572.14	6.38956
2573.51	6.36505
2574.88	6.77904
2576.24	6.6679
2577.61	6.76914
2578.98	6.31061
2580.35	6.30072
2581.72	6.16928
2583.09	6.59308
2584.45	6.50506
2585.82	6.59296
2587.19	5.75735
2588.55	5.24736
2589.92	6.04454
2591.28	5.54712
2592.65	5.30709
2594.02	5.10619
2595.38	4.69269
2596.75	4.24616
2598.11	4.24557
2599.48	4.72166
2600.84	4.48689
2602.2	4.33651
2603.57	3.92901
2604.93	3.30487
2606.3	3.36645
2607.66	3.07801
2609.02	2.97514
2610.38	2.75184
2611.75	2.82349
2613.11	3.28954
2614.47	3.79237
2615.83	4.27668
2617.19	4.81602
2618.56	4.831
2619.92	5.22688
2621.28	5.48263
2622.64	5.07475
2624	5.26325
2625.36	5.16625
2626.72	4.65182
2628.08	4.45018
2629.44	4.3917
2630.8	4.33943
2632.15	4.22545
2633.51	3.84795
2634.87	4.2547
2636.23	4.02594
2637.59	4.09517
2638.94	3.56959
2640.3	2.89222
2641.66	2.61823
2643.02	2.02484
2644.37	1.53583
2645.73	1.78811
2647.08	1.73117
2648.44	1.74687
2649.8	1.92845
2651.15	2.82007
2652.51	2.36616
2653.86	2.36016
2655.22	2.43319
2656.57	3.07092
2657.92	3.74172
2659.28	3.62455
2660.63	3.98887
2661.99	3.73654
2663.34	3.94226
2664.69	4.12121
2666.04	4.11773
2667.4	4.50827
2668.75	4.08043
2670.1	4.45767
2671.45	4.83257
2672.81	5.18355
2674.16	5.23121
2675.51	4.92781
2676.86	4.99099
2678.21	5.13353
2679.56	5.31525
2680.91	6.40658
2682.26	6.74072
2683.61	7.35795
2684.96	7.48099
2686.31	7.93971
2687.66	7.52607
2689	7.48623
2690.35	7.05513
2691.7	7.36924
2693.05	6.95433
2694.4	6.33486
2695.74	6.3551
2697.09	6.55811
2698.44	5.69888
2699.79	5.055
2701.13	4.69436
2702.48	4.55141
2703.82	4.24927
2705.17	3.87082
2706.52	3.6494
2707.86	4.23541
2709.21	4.802
2710.55	5.20385
2711.9	6.03675
2713.24	6.63766
2714.58	7.2843
2715.93	7.62096
2717.27	8.56581
2718.61	8.30943
2719.96	8.38431
2721.3	9.37366
2722.64	10.0541
2723.99	10.0471
2725.33	10.0833
2726.67	10.1522
2728.01	10.4237
2729.35	10.5384
2730.7	10.6672
2732.04	10.3806
2733.38	9.86114
2734.72	10.3667
2736.06	10.1728
2737.4	10.0373
2738.74	10.0948
2740.08	9.73328
2741.42	9.12706
2742.76	8.78612
2744.09	8.94958
2745.43	9.31829
2746.77	9.81164
2748.11	10.355
2749.45	10.0269
2750.79	10.3218
2752.12	9.39575
2753.46	8.58484
2754.8	7.84513
2756.13	8.01562
2757.47	7.43382
2758.81	7.1798
2760.14	6.61017
2761.48	5.90064
2762.81	5.6681
2764.15	5.41727
2765.49	4.5497
2766.82	4.66237
2768.15	4.45085
2769.49	4.29401
2770.82	4.03969
2772.16	4.15486
2773.49	4.50887
2774.82	4.9768
2776.16	4.5172
2777.49	4.74503
2778.82	4.54619
2780.16	4.74957
2781.49	5.10006
2782.82	4.84287
2784.15	5.18061
2785.48	4.62296
2786.81	4.91836
2788.15	5.08616
2789.48	4.80388
2790.81	4.67822
2792.14	4.88957
2793.47	4.87823
2794.8	4.94563
2796.13	4.42912
2797.46	4.01922
2798.79	4.0907
2800.12	4.24238
2801.44	4.70629
2802.77	4.63364
2804.1	4.74325
2805.43	4.81263
2806.76	4.07537
2808.08	4.31668
2809.41	4.24182
2810.74	4.48632
2812.07	4.13951
2813.39	4.64523
2814.72	4.62599
2816.05	4.47982
2817.37	4.39728
2818.7	3.94123
2820.02	4.20375
2821.35	4.61968
2822.67	5.41065
2824	5.23372
2825.32	5.6606
2826.65	5.959
2827.97	6.02603
2829.29	6.99262
2830.62	7.72186
2831.94	8.29334
2833.26	9.33688
2834.59	10.1246
2835.91	10.8874
2837.23	12.1764
2838.55	13.0458
2839.88	13.8964
2841.2	15.0711
2842.52	16.0692
2843.84	17.7809
2845.16	18.9932
2846.48	21.0336
2847.8	21.8915
2849.12	23.2777
2850.44	24.578
2851.76	25.9969
2853.08	28.0656
2854.4	30.524
2855.72	32.5025
2857.04	34.1945
2858.36	36.0075
2859.68	38.1492
2861	39.8613
2862.32	41.1607
2863.63	42.7769
2864.95	44.9346
2866.27	46.8466
2867.58	48.8394
2868.9	50.6419
2870.22	52.1693
2871.53	53.309
2872.85	54.6089
2874.17	56.0052
2875.48	57.1093
2876.8	58.3248
2878.11	58.9955
2879.43	60.6452
2880.74	60.6692
2882.06	61.3652
2883.37	61.7321
2884.69	61.9997
2886	62.1507
2887.31	62.8782
2888.63	63.5521
2889.94	63.3676
2891.25	63.5761
2892.57	64.2517
2893.88	64.7025
2895.19	66.1131
2896.5	66.5995
2897.82	66.7112
2899.13	66.9851
2900.44	67.0837
2901.75	67.9559
2903.06	69.2956
2904.37	69.499
2905.68	71.0093
2906.99	72.5147
2908.3	74.0078
2909.61	75.6129
2910.92	76.7485
2912.23	78.3183
2913.54	79.5114
2914.85	81.3436
2916.16	82.9763
2917.46	84.5398
2918.77	86.5521
2920.08	88.4516
2921.39	89.6159
2922.7	90.5922
2924	92.1762
2925.31	92.9825
2926.62	93.7058
2927.92	94.4956
2929.23	95.5053
2930.53	97.1659
2931.84	97.3436
2933.15	97.5567
2934.45	97.0472
2935.76	96.789
2937.06	96.096
2938.37	95.9373
2939.67	95.6155
2940.98	94.7698
2942.28	93.1464
2943.58	92.0368
2944.89	90.5233
2946.19	88.3873
2947.49	86.4425
2948.8	84.9895
2950.1	83.4393
2951.4	81.5831
2952.7	79.893
2954.01	77.6832
2955.31	75.7921
2956.61	73.9035
2957.91	72.7705
2959.21	70.494
2960.51	68.3189
2961.81	65.4133
2963.11	63.5469
2964.41	61.8462
2965.71	60.316
2967.01	58.7452
2968.31	56.3645
2969.61	54.2652
2970.91	52.6788
2972.21	51.1127
2973.51	49.8453
2974.81	48.5213
2976.1	46.6659
2977.4	45.1961
2978.7	43.9191
2980	42.4659
2981.29	40.8885
2982.59	39.6703
2983.89	38.7029
2985.18	37.5552
2986.48	35.628
2987.78	34.0001
2989.07	32.7069
2990.37	31.5366
2991.66	30.2107
2992.96	28.1694
2994.25	26.8178
2995.55	25.3562
2996.84	23.0982
2998.14	21.9169
2999.43	20.2174
3000.72	19.0309
3002.02	17.7433
3003.31	16.3456
3004.6	14.8666
3005.9	13.438
3007.19	12.3883
3008.48	11.3156
3009.77	10.312
3011.07	9.23478
3012.36	8.67469
3013.65	8.22466
3014.94	7.22885
3016.23	6.27875
3017.52	5.29681
3018.81	4.81902
3020.1	4.54018
3021.39	3.29639
3022.68	2.55267
3023.97	1.81701
3025.26	1.15042
3026.55	0.480587
3027.84	0.392748
3029.13	-0.0525674
3030.42	-0.540869
3031.71	-0.849745
3033	-0.95545
3034.28	-0.971772
3035.57	-0.670162
3036.86	0.188958
3038.15	0.710773
3039.43	1.05481
3040.72	1.03317
3042.01	1.66003
3043.29	2.0339
3044.58	2.35711
3045.86	3.09734
3047.15	3.99682
3048.44	4.29684
3049.72	4.66696
3051.01	4.82856
3052.29	4.867
3053.58	5.63473
3054.86	5.74622
3056.14	5.49089
3057.43	5.51325
3058.71	5.89362
3060	5.83403
3061.28	5.63897
3062.56	5.79893
3063.84	5.50136
3065.13	5.6224
3066.41	5.76823
3067.69	5.98664
3068.97	6.35853
3070.25	6.3864
3071.54	6.41517
3072.82	6.04224
3074.1	5.67047
3075.38	5.10956
3076.66	5.05302
3077.94	4.82798
3079.22	4.36908
3080.5	3.93187
3081.78	3.19822
3083.06	3.13723
3084.34	2.35956
3085.62	2.13458
3086.9	2.11496
3088.17	1.92998
3089.45	1.18103
3090.73	1.15846
3092.01	1.80978
3093.29	1.80019
3094.56	1.87352
3095.84	1.89069
3097.12	1.32533
3098.4	1.77261
3099.67	1.83863
3100.95	1.79878
3102.22	1.79806
3103.5	1.76015
3104.77	1.47533
3106.05	1.6432
3107.33	1.58959
3108.6	2.1271
3109.88	2.48801
3111.15	2.27584
3112.43	2.32808
3113.7	2.59243
3114.97	2.88293
3116.25	3.31092
3117.52	3.77651
3118.79	3.61682
3120.07	3.98192
3121.34	4.21267
3122.61	4.34522
3123.88	4.34336
3125.16	4.45856
3126.43	4.95271
3127.7	5.0051
3128.97	5.28872
3130.24	5.57232
3131.51	5.76098
3132.78	5.74304
3134.05	5.69241
3135.33	5.56213
3136.59	5.34109
3137.86	5.49198
3139.14	5.96946
3140.41	6.36554
3141.67	6.80551
3142.94	7.07501
3144.21	7.49655
3145.48	7.87431
3146.75	7.88217
3148.02	8.25762
3149.28	7.07412
