#Acq. time (s)=	45
#Accumulations=	2
#Range (cm-¹)=	200...3150
#Windows=	2
#Auto scanning=	Off
#Autofocus=	Off
#Macrospot=	Off
#AutoExposure=	Off
#Spike filter=	Multiple accum.
#Delay time (s)=	0
#Binning=	1
#Readout mode=	Signal
#DeNoise=	Off
#ICS correction=	On
#Dark correction=	Off
#Inst. Process=	Off
#Detector Gain=	Best Dynamic Range
#Detector ADC=	20 kHz       
#Detector temperature (°C)=	-69.85
#Instrument=	LabRAM HR Evol
#Detector=	Synapse
#Objective=	x100
#Grating=	600 gr/mm
#ND Filter=	100%
#Laser (nm)=	532 
#Hole=	100.021
#Range=	Auto
#Laser Pol.=	No
#Raman. Pol.=	No
#Laser Pol. (°)=	-0.0007625
#Raman Pol. (°)=	89.9995
#Collection=	Microscope
#StageXY=	Marzhauser
#StageZ=	Marzhauser
#X (µm)=	-612.9
#Y (µm)=	-1580.8
#Z (µm)=	89.85
#Full time(mm:ss)=	3:18
#Project=	
#Sample=	
#Site=	
#Title=	Mb_10_14_25_2x_45s_532 nm_x100_100%_600 gr_mm
#Remark=	
#Date=	11.07.2022 10:24
#Acquired=	11.07.2022 10:24:35
#Base:Fit=	10.08.2022 10:21:11
#Base:Sub=	10.08.2022 10:21:41
#Filter:Polynom=	16.08.2022 10:17:53
#AxisType[0]=Intens
#AxisUnit[0]=Cnt
#AxisType[1]=Spectr
#AxisUnit[1]=1/cm
200.388	2.71966
202.204	3.91609
204.019	3.33103
205.832	3.03891
207.646	2.39965
209.459	1.99118
211.274	2.12271
213.087	2.76227
214.899	3.4811
216.711	4.38676
218.524	5.82801
220.335	6.98484
222.146	8.1366
223.956	9.74242
225.766	10.6583
227.576	11.8607
229.388	12.7733
231.197	13.6608
233.005	16.0093
234.813	16.9524
236.621	17.388
238.429	17.1401
240.236	18.7109
242.045	20.022
243.852	20.9753
245.658	21.3262
247.464	21.783
249.269	22.6125
251.074	23.1673
252.879	23.4005
254.683	23.6561
256.487	24.0128
258.291	24.5243
260.094	24.5334
261.897	24.9838
263.702	25.6573
265.504	27.0698
267.306	26.7387
269.108	26.8542
270.909	27.4034
272.71	26.2313
274.511	26.0567
276.311	25.4553
278.111	24.253
279.91	23.7613
281.709	23.4807
283.508	23.1891
285.306	22.785
287.105	22.0111
288.9	21.5817
290.698	20.392
292.495	20.6089
294.291	20.492
296.088	20.3802
297.884	20.4099
299.679	21.1643
301.475	21.8701
303.27	21.6167
305.064	22.2708
306.858	22.3852
308.652	22.4821
310.444	21.5533
312.237	21.0436
314.03	20.4183
315.822	19.7327
317.615	19.9501
319.406	19.6506
321.198	19.2786
322.987	18.6668
324.778	17.6032
326.568	16.7731
328.358	16.6777
330.148	17.308
331.935	15.9996
333.724	15.3429
335.513	14.5277
337.301	14.1765
339.089	13.8665
340.875	13.0122
342.662	12.0024
344.449	12.1935
346.236	12.4203
348.02	12.7558
349.806	11.8964
351.592	11.9228
353.375	10.9782
355.16	10.3835
356.944	10.0459
358.728	11.314
360.51	11.867
362.294	12.0619
364.077	13.4994
365.858	13.0542
367.64	14.1352
369.422	14.9854
371.202	16.8748
372.983	18.029
374.764	18.3161
376.543	18.648
378.324	20.2045
380.102	21.4828
381.881	22.569
383.661	23.7918
385.438	25.1129
387.216	26.0936
388.993	26.5521
390.771	27.0407
392.548	27.088
394.324	28.3716
396.101	27.2543
397.875	28.3564
399.651	27.4584
401.425	27.7511
403.201	27.4508
404.974	27.8808
406.749	27.084
408.524	26.3063
410.296	26.5063
412.07	26.4214
413.841	26.6441
415.614	25.5184
417.385	25.3802
419.156	24.3103
420.928	22.8897
422.698	21.9648
424.469	20.8576
426.238	19.5225
428.009	17.7478
429.777	16.8297
431.548	16.0802
433.315	15.1096
435.083	13.7549
436.852	12.1026
438.618	10.4397
440.387	10.4639
442.153	9.62647
443.919	8.83823
445.686	9.11814
447.451	8.32288
449.218	7.63278
450.982	7.77033
452.746	7.31964
454.512	5.49802
456.275	5.59741
458.038	6.16605
459.803	6.94559
461.565	5.91214
463.327	5.2402
465.091	5.25736
466.852	5.44378
468.613	4.69253
470.374	4.69886
472.136	5.29094
473.896	4.30447
475.655	4.37642
477.415	4.67181
479.176	6.36635
480.934	7.49989
482.692	8.57444
484.45	9.26868
486.21	10.1765
487.967	9.2659
489.724	10.4741
491.481	12.0817
493.237	13.2657
494.995	14.7012
496.75	16.228
498.506	17.2491
500.26	17.3624
502.015	18.2663
503.769	18.7136
505.525	19.3396
507.279	19.5186
509.032	20.0129
510.785	21.0163
512.537	21.958
514.289	21.1555
516.041	22.196
517.793	21.9105
519.546	22.3385
521.297	21.9231
523.047	22.9691
524.797	22.7207
526.547	22.4123
528.297	22.9217
530.046	21.8274
531.795	21.2332
533.543	21.9341
535.291	21.7693
537.039	21.7732
538.787	20.5502
540.534	19.4001
542.281	17.514
544.027	16.7414
545.773	16.878
547.519	15.4315
549.264	13.8173
551.01	13.046
552.754	11.8566
554.499	11.9454
556.243	11.1794
557.987	10.6263
559.73	9.48173
561.474	8.63935
563.216	8.73247
564.959	8.75502
566.701	8.01804
568.441	6.63439
570.182	6.46088
571.923	5.25441
573.664	4.47521
575.405	4.29562
577.145	3.96845
578.885	4.23727
580.624	2.70485
582.361	2.75368
584.1	1.38731
585.839	1.74205
587.577	1.82683
589.315	2.31146
591.052	2.75823
592.787	2.7414
594.524	2.78158
596.26	1.95911
597.997	1.45147
599.732	1.02085
601.466	0.152889
603.201	1.06008
604.936	0.445961
606.67	1.73434
608.403	1.86841
610.136	1.80823
611.87	1.98817
613.603	1.91022
615.334	2.75737
617.067	3.83583
618.799	5.25782
620.529	6.05312
622.26	6.43279
623.991	6.11911
625.72	7.03575
627.451	7.45734
629.181	7.45798
630.909	8.27047
632.638	9.43139
634.368	9.45057
636.095	9.68741
637.823	9.59946
639.551	9.96389
641.277	10.7301
643.005	10.4715
644.73	11.0108
646.457	11.9336
648.184	12.316
649.908	12.4955
651.634	12.3379
653.357	11.6831
655.083	10.709
656.806	10.4035
658.53	9.85444
660.253	10.2407
661.977	9.6041
663.7	9.36967
665.422	9.40048
667.145	8.51313
668.865	9.14585
670.588	7.85264
672.308	7.56196
674.027	7.82755
675.749	8.41354
677.468	8.9296
679.188	8.20746
680.907	7.93386
682.627	7.82807
684.345	8.2517
686.064	8.29365
687.781	8.94104
689.498	10.0434
691.216	10.3951
692.932	11.4713
694.65	11.576
696.366	11.5587
698.081	12.3882
699.797	13.3922
701.512	15.9198
703.228	16.6571
704.942	16.6323
706.655	16.875
708.371	18.0097
710.083	18.3244
711.796	19.3557
713.51	18.7193
715.222	20.4045
716.934	20.653
718.645	22.6078
720.358	23.2567
722.068	24.1154
723.779	25.1254
725.49	26.4776
727.2	27.5978
728.909	28.7429
730.618	30.1244
732.329	31.6161
734.037	31.8214
735.745	32.3532
737.453	32.572
739.16	32.4956
740.869	31.9319
742.576	33.1599
744.282	35.4549
745.988	35.7816
747.694	36.1635
749.401	37.9751
751.107	39.4509
752.811	41.2739
754.516	43.6838
756.22	44.9517
757.924	47.3014
759.627	49.0158
761.332	50.1735
763.035	51.4581
764.738	51.8359
766.44	52.3176
768.142	53.1443
769.843	54.1165
771.544	55.4344
773.245	56.9648
774.946	56.9866
776.646	58.3479
778.346	59.7388
780.046	60.6118
781.745	61.4722
783.444	62.9245
785.143	64.259
786.841	64.3972
788.539	64.2269
790.237	64.2474
791.934	64.8323
793.631	66.0009
795.328	66.617
797.024	67.0673
798.72	67.4035
800.416	67.9775
802.112	68.2442
803.807	68.8816
805.502	68.5904
807.196	68.8857
808.89	68.5926
810.584	68.5629
812.278	68.671
813.971	69.307
815.664	69.8858
817.354	69.5619
819.047	68.0705
820.739	67.6891
822.43	67.1615
824.122	66.9839
825.813	67.4965
827.503	69.0413
829.192	69.727
830.882	69.4051
832.571	70.3381
834.261	71.0465
835.95	69.8777
837.637	69.316
839.325	68.8733
841.013	66.8209
842.701	64.7939
844.389	63.1514
846.074	62.7234
847.761	61.0074
849.447	59.1563
851.131	58.298
852.817	57.5763
854.503	56.493
856.188	55.3609
857.871	53.6496
859.556	52.134
861.24	51.2277
862.922	49.8856
864.606	48.3033
866.289	46.6057
867.97	45.7413
869.653	44.3304
871.336	43.7746
873.016	43.2534
874.698	42.7078
876.379	42.8675
878.058	41.857
879.739	40.3811
881.418	39.1535
883.098	38.9902
884.778	39.0888
886.456	38.6731
888.135	37.3845
889.812	37.548
891.49	37.1778
893.167	36.4285
894.845	37.4575
896.523	38.1536
898.198	38.1104
899.875	37.5906
901.55	36.773
903.226	36.8852
904.901	37.5745
906.576	37.713
908.25	37.6531
909.925	38.7414
911.598	38.8164
913.271	38.3199
914.945	38.344
916.617	38.382
918.291	37.404
919.962	37.0795
921.635	37.493
923.306	36.9116
924.978	35.0725
926.648	35.2078
928.318	35.0407
929.989	34.6427
931.659	33.5398
933.328	33.9925
934.998	34.19
936.666	33.8783
938.336	33.3525
940.004	32.6351
941.671	32.3897
943.34	31.3671
945.007	30.3948
946.673	30.4055
948.339	29.865
950.007	30.1286
951.672	30.5662
953.337	30.9623
955.004	30.8254
956.669	30.1533
958.333	29.483
959.997	28.0593
961.662	27.9165
963.326	29.6388
964.989	31.1243
966.651	32.5891
968.315	32.9544
969.977	33.3436
971.639	34.1051
973.301	34.8
974.962	34.8478
976.624	34.4481
978.285	35.3378
979.945	35.2467
981.605	34.5843
983.264	35.3534
984.924	35.8404
986.583	35.182
988.243	35.0005
989.901	35.1212
991.56	35.3092
993.217	36.1114
994.875	35.3038
996.532	35.5106
998.188	35.6647
999.845	34.9892
1001.5	33.9657
1003.16	33.4568
1004.81	32.7799
1006.47	31.4043
1008.12	32.0484
1009.78	32.9778
1011.43	32.8407
1013.09	32.5966
1014.74	32.0862
1016.39	32.5917
1018.05	32.8465
1019.7	32.4549
1021.35	31.5999
1023	31.478
1024.65	31.4569
1026.31	30.4855
1027.96	30.5205
1029.61	30.3114
1031.26	29.2242
1032.91	28.9359
1034.56	28.3112
1036.21	28.1615
1037.86	27.3837
1039.51	27.096
1041.16	27.6112
1042.8	27.8925
1044.45	29.4474
1046.1	30.165
1047.75	29.9034
1049.39	29.8148
1051.04	28.6371
1052.69	27.8139
1054.33	26.1865
1055.98	25.0321
1057.62	23.4361
1059.27	22.596
1060.91	21.3974
1062.56	20.7873
1064.2	19.7965
1065.85	19.4004
1067.49	18.2392
1069.13	17.0273
1070.77	17.0795
1072.42	15.9818
1074.06	14.0313
1075.7	12.9919
1077.34	12.2218
1078.98	11.4511
1080.62	10.2266
1082.27	9.12144
1083.91	8.29982
1085.55	8.16172
1087.18	8.35006
1088.82	8.53074
1090.46	9.56869
1092.1	8.98385
1093.74	8.1058
1095.38	7.70476
1097.02	7.65911
1098.65	8.57881
1100.29	9.50788
1101.93	9.23012
1103.56	8.98359
1105.2	8.91872
1106.84	8.87884
1108.47	8.80315
1110.11	9.06128
1111.74	8.38793
1113.38	9.03235
1115.01	9.21866
1116.64	9.39118
1118.28	10.097
1119.91	10.3605
1121.54	10.0737
1123.18	10.1792
1124.81	9.40546
1126.44	9.53965
1128.07	8.54771
1129.7	8.22699
1131.33	7.11652
1132.97	6.5814
1134.6	6.54834
1136.23	6.25501
1137.86	5.60902
1139.49	4.92154
1141.11	5.82651
1142.74	4.66593
1144.37	6.02626
1146	6.79197
1147.63	6.47482
1149.26	6.29097
1150.88	4.83984
1152.51	3.51289
1154.14	3.32788
1155.76	2.83396
1157.39	3.53687
1159.01	3.68418
1160.64	2.56054
1162.27	2.72043
1163.89	2.37166
1165.51	2.68875
1167.14	3.45919
1168.76	3.85036
1170.39	4.56267
1172.01	4.9678
1173.63	5.24452
1175.25	4.78708
1176.88	5.61417
1178.5	5.80379
1180.12	6.71453
1181.74	7.26699
1183.36	6.48753
1184.98	6.99152
1186.6	7.90625
1188.22	9.87008
1189.84	10.542
1191.46	11.0363
1193.08	11.0396
1194.7	12.5402
1196.32	12.8239
1197.94	13.6839
1199.55	14.7174
1201.17	15.9072
1202.79	15.8138
1204.41	16.4742
1206.02	17.3994
1207.64	17.8917
1209.25	18.1458
1210.87	19.8384
1212.48	21.4682
1214.1	23.457
1215.71	23.418
1217.33	23.6949
1218.94	23.9825
1220.56	24.588
1222.17	26.4376
1223.79	26.6595
1225.4	28.3983
1227.01	28.7902
1228.62	28.6928
1230.23	29.7278
1231.85	29.9667
1233.46	30.8296
1235.07	32.6039
1236.68	33.4242
1238.29	34.932
1239.9	35.2141
1241.51	36.238
1243.12	38.5585
1244.73	39.1209
1246.34	40.656
1247.94	40.9607
1249.55	41.2546
1251.16	41.2315
1252.77	41.3215
1254.37	41.0162
1255.98	40.6891
1257.59	41.4298
1259.2	41.7211
1260.8	42.3848
1262.41	42.4523
1264.01	42.8239
1265.62	44.0782
1267.22	43.7842
1268.83	43.6512
1270.43	43.0877
1272.03	43.4113
1273.64	43.6787
1275.24	44.7988
1276.85	43.9251
1278.45	43.2806
1280.05	43.345
1281.65	43.0297
1283.25	43.0966
1284.85	42.7818
1286.46	42.5398
1288.06	42.3063
1289.66	42.9341
1291.26	43.2374
1292.86	43.4597
1294.46	43.3726
1296.06	42.2279
1297.66	43.1265
1299.25	43.5937
1300.85	44.4142
1302.45	44.9963
1304.05	45.0677
1305.65	45.3647
1307.24	46.3382
1308.84	47.5981
1310.43	48.1558
1312.03	49.5854
1313.63	51.2069
1315.22	52.2987
1316.82	53.4293
1318.41	53.6745
1320.01	54.0117
1321.6	55.7915
1323.2	56.9109
1324.79	56.3613
1326.38	56.7914
1327.98	56.828
1329.57	56.1975
1331.16	56.2691
1332.76	56.0311
1334.35	56.1568
1335.94	56.3361
1337.53	56.0447
1339.12	56.7104
1340.71	56.1984
1342.3	55.5124
1343.89	54.9165
1345.48	53.6949
1347.07	52.6618
1348.66	52.0857
1350.25	52.1476
1351.84	51.715
1353.43	51.2421
1355.01	49.524
1356.6	47.7349
1358.19	46.0099
1359.77	45.1639
1361.36	44.4107
1362.95	43.7593
1364.53	41.7999
1366.12	41.0141
1367.71	40.0438
1369.29	39.0681
1370.88	38.137
1372.46	37.7574
1374.04	37.4401
1375.63	37.0251
1377.21	36.9449
1378.8	36.2512
1380.38	35.6968
1381.96	34.8446
1383.54	35.8058
1385.13	35.7833
1386.71	36.6909
1388.29	36.6729
1389.87	36.9729
1391.45	38.3709
1393.03	37.7293
1394.61	37.2417
1396.19	37.8869
1397.77	37.7602
1399.35	38.4664
1400.93	38.3863
1402.51	38.294
1404.09	38.0272
1405.67	38.2155
1407.24	38.2318
1408.82	38.8454
1410.4	41.0381
1411.98	41.748
1413.55	42.9355
1415.13	44.0527
1416.71	45.8374
1418.28	47.9925
1419.86	49.4959
1421.43	51.5676
1423.01	53.7921
1424.58	55.6019
1426.16	58.3005
1427.73	60.644
1429.31	63.2777
1430.88	65.037
1432.45	66.2418
1434.02	66.4805
1435.6	68.3205
1437.17	69.2433
1438.74	70.572
1440.31	70.8695
1441.88	71.836
1443.45	71.6299
1445.03	72.571
1446.6	73.3607
1448.17	74.7305
1449.74	75.0533
1451.3	75.4438
1452.87	75.8606
1454.44	75.8283
1456.01	74.339
1457.58	73.9007
1459.15	73.7825
1460.72	73.1031
1462.28	72.9209
1463.85	71.9327
1465.42	71.1562
1466.98	69.9736
1468.55	68.7811
1470.12	66.8445
1471.68	64.6218
1473.25	62.6285
1474.81	60.6211
1476.38	58.2746
1477.94	56.1733
1479.51	53.7185
1481.07	52.1042
1482.63	50.4271
1484.2	48.6412
1485.76	47.6215
1487.32	45.9435
1488.88	44.2144
1490.45	42.5651
1492.01	41.9511
1493.57	42.4325
1495.13	42.4612
1496.69	41.8145
1498.25	41.5945
1499.81	41.2244
1501.37	40.6818
1502.93	39.3257
1504.49	38.9027
1506.05	37.8663
1507.61	36.696
1509.17	35.5953
1510.73	34.2768
1512.28	32.6089
1513.84	32.1815
1515.4	30.9682
1516.96	29.9473
1518.51	29.7933
1520.07	29.6352
1521.63	28.5506
1523.18	28.9416
1524.74	28.3162
1526.29	27.8331
1527.85	26.9345
1529.4	27.1675
1530.96	26.9665
1532.51	26.8282
1534.06	25.9739
1535.62	25.9098
1537.17	26.232
1538.72	25.9705
1540.28	26.6131
1541.83	26.8314
1543.38	27.4658
1544.93	28.1388
1546.48	27.6984
1548.03	27.6128
1549.59	28.4096
1551.14	28.79
1552.69	28.9249
1554.24	29.2318
1555.79	29.5289
1557.34	29.3291
1558.88	29.882
1560.43	30.4935
1561.98	30.3788
1563.53	31.1713
1565.08	32.2049
1566.62	34.0053
1568.17	35.098
1569.72	36.0941
1571.27	37.1378
1572.81	36.6942
1574.36	36.78
1575.9	37.188
1577.45	37.7563
1579	37.576
1580.54	38.2814
1582.09	39.6052
1583.63	40.068
1585.17	40.3288
1586.72	40.8853
1588.26	41.4104
1589.8	42.5471
1591.35	43.5057
1592.89	44.152
1594.43	45.2706
1595.97	45.8096
1597.52	45.3354
1599.06	45.4013
1600.6	45.481
1602.14	45.7349
1603.68	46.4164
1605.22	45.613
1606.76	45.5588
1608.3	45.06
1609.84	45.5302
1611.38	45.5731
1612.92	45.5961
1614.46	45.9665
1615.99	46.3211
1617.53	46.9408
1619.07	46.7683
1620.61	47.6598
1622.14	47.7765
1623.68	47.7884
1625.22	48.8219
1626.75	50.6563
1628.29	51.2923
1629.82	51.7393
1631.36	52.9459
1632.9	53.3516
1634.43	53.9872
1635.96	55.7032
1637.5	56.3751
1639.03	57.6644
1640.57	59.5714
1642.1	60.9701
1643.63	61.6927
1645.16	62.1416
1646.7	63.188
1648.23	63.5492
1649.76	64.0672
1651.29	65.103
1652.82	66.5099
1654.36	67.0413
1655.89	66.9955
1657.42	67.2125
1658.95	67.977
1660.48	67.6726
1662.01	68.2887
1663.53	68.4315
1665.06	68.7983
1666.59	68.0235
1668.12	66.1051
1669.65	65.1039
1671.18	64.1492
1672.7	62.8304
1674.23	61.255
1675.76	59.1412
1677.29	57.1896
1678.81	56.2041
1680.34	53.9118
1681.86	51.245
1683.39	49.5308
1684.91	47.8102
1686.44	45.4
1687.96	42.6041
1689.49	39.9784
1691.01	37.9893
1692.54	36.3648
1694.06	34.2293
1695.58	32.2283
1697.11	31.2118
1698.63	29.8584
1700.15	28.8387
1701.67	27.1597
1703.2	25.7674
1704.72	23.2464
1706.24	21.8415
1707.76	20.7292
1709.28	19.1414
1710.8	17.5396
1712.32	16.6338
1713.84	15.4016
1715.36	15.461
1716.88	14.7411
1718.4	13.9402
1719.91	13.4435
1721.43	13.3154
1722.95	13.3245
1724.47	12.3908
1725.99	11.9252
1727.5	11.805
1729.02	11.3081
1730.54	10.5393
1732.05	10.5734
1733.57	11.0231
1735.09	11.1276
1736.6	10.122
1738.12	10.3183
1739.63	9.43353
1741.15	9.51844
1742.66	9.15249
1744.18	9.4572
1745.69	9.97343
1747.2	10.5513
1748.72	10.3657
1750.23	10.1809
1751.74	9.50857
1753.25	10.4835
1754.77	10.8815
1756.28	10.2965
1757.79	10.2882
1759.3	10.2816
1760.81	10.1717
1762.32	9.85546
1763.83	10.0204
1765.34	9.79212
1766.85	9.5607
1768.36	9.68664
1769.87	9.98229
1771.38	10.7095
1772.89	10.8697
1774.4	11.0527
1775.91	10.9676
1777.41	10.6544
1778.92	10.6747
1780.43	10.7873
1781.94	10.7531
1783.44	10.0996
1784.95	9.41445
1786.45	9.26894
1787.96	9.41808
1789.47	9.44186
1790.97	9.28036
1792.47	8.74338
1793.98	8.79091
1795.48	8.512
1796.99	7.83386
1798.49	7.21551
1800	6.78783
1801.5	6.45781
1803	6.62498
1804.51	6.23047
1806.01	6.34936
1807.51	5.85821
1809.01	5.51639
1810.51	5.17841
1812.02	5.57314
1813.52	5.60138
1815.02	5.03494
1816.52	5.38931
1818.02	5.25648
1819.52	5.56704
1821.02	5.51013
1822.52	5.53668
1824.02	5.92446
1825.51	6.1211
1827.01	6.05207
1828.51	6.57232
1830.01	6.51211
1831.51	6.24123
1833	6.11703
1834.5	6.32155
1836	6.05406
1837.49	6.17628
1838.99	6.5554
1840.49	7.36979
1841.98	8.12245
1843.48	8.56184
1844.97	9.58947
1846.47	10.3612
1847.96	10.2347
1849.46	10.3265
1850.95	10.3459
1852.45	10.247
1853.94	9.40112
1855.43	8.89632
1856.92	8.3017
1858.42	8.2009
1859.91	7.83862
1861.4	7.31426
1862.89	6.90862
1864.39	6.6873
1865.88	7.05736
1867.37	7.23013
1868.86	7.16507
1870.35	6.48479
1871.84	7.03684
1873.33	7.75157
1874.82	7.59373
1876.31	7.88743
1877.8	7.80218
1879.29	7.44896
1880.77	7.05459
1882.26	7.37243
1882.52	8.00466
1884.02	7.62082
1885.51	7.6364
1887.01	7.30224
1888.5	7.16256
1889.99	7.05669
1891.49	6.76386
1892.98	7.11585
1894.47	6.4248
1895.96	6.09191
1897.46	5.85827
1898.95	5.39052
1900.44	4.86993
1901.93	4.20181
1903.42	3.81411
1904.91	3.16383
1906.4	2.93448
1907.89	3.4343
1909.38	2.97442
1910.87	3.66678
1912.36	3.71738
1913.85	4.02469
1915.34	3.33863
1916.83	3.37229
1918.32	3.55097
1919.8	2.74496
1921.29	1.72779
1922.78	1.45526
1924.27	1.33469
1925.75	1.36638
1927.24	1.10845
1928.73	1.12492
1930.21	1.49819
1931.7	2.04563
1933.18	2.16326
1934.67	2.54544
1936.15	3.48168
1937.64	3.93087
1939.12	4.68851
1940.61	4.31294
1942.09	4.48158
1943.57	4.75091
1945.06	5.16382
1946.54	4.89431
1948.02	4.45971
1949.51	4.69325
1950.99	4.52316
1952.47	4.31175
1953.95	4.84253
1955.43	5.25855
1956.91	4.94339
1958.39	4.50275
1959.87	4.23644
1961.36	4.40528
1962.84	3.87948
1964.32	4.00466
1965.79	4.20468
1967.27	4.07064
1968.75	3.85753
1970.23	3.87823
1971.71	3.85469
1973.19	3.83934
1974.66	3.64993
1976.14	3.38439
1977.62	4.15874
1979.1	4.33472
1980.57	5.08211
1982.05	5.91949
1983.53	5.89353
1985	5.95876
1986.48	5.59673
1987.95	5.29993
1989.43	4.63483
1990.9	5.04038
1992.38	4.74667
1993.85	4.6668
1995.33	5.24512
1996.8	5.5843
1998.27	5.67866
1999.75	5.75857
2001.22	6.24468
2002.69	6.1315
2004.16	6.2399
2005.64	5.72042
2007.11	5.56087
2008.58	5.06139
2010.05	5.02762
2011.52	4.98546
2012.99	4.61002
2014.46	4.03958
2015.93	3.89416
2017.4	3.43077
2018.87	3.44105
2020.34	4.04964
2021.81	3.84614
2023.28	4.10013
2024.75	4.353
2026.22	4.35456
2027.69	4.74714
2029.15	4.82728
2030.62	4.75653
2032.09	5.08066
2033.56	5.13656
2035.02	5.68869
2036.49	5.79381
2037.95	6.59595
2039.42	6.59694
2040.89	7.2074
2042.35	7.23672
2043.82	7.87653
2045.28	8.32342
2046.75	8.79916
2048.21	9.10758
2049.67	9.21078
2051.14	10.1497
2052.6	9.99482
2054.06	10.2109
2055.53	10.6665
2056.99	10.487
2058.45	9.90424
2059.92	9.64831
2061.38	8.9888
2062.84	9.17004
2064.3	9.08761
2065.76	8.41166
2067.22	8.45319
2068.68	8.49506
2070.14	8.69981
2071.6	8.35612
2073.06	7.90475
2074.52	8.11172
2075.98	6.44918
2077.44	6.13664
2078.9	5.8875
2080.36	6.03199
2081.82	5.78639
2083.27	6.41019
2084.73	6.80661
2086.19	6.2939
2087.65	7.02143
2089.1	7.34835
2090.56	7.70747
2092.01	8.2706
2093.47	8.79148
2094.93	8.43177
2096.38	9.2087
2097.84	9.3173
2099.29	9.6423
2100.75	9.38545
2102.2	9.63037
2103.66	9.62566
2105.11	10.117
2106.56	10.2673
2108.02	10.6063
2109.47	11.0365
2110.92	11.1944
2112.37	10.8737
2113.83	11.4795
2115.28	12.1815
2116.73	13.0459
2118.18	13.5584
2119.63	14.3063
2121.09	14.4552
2122.54	14.6068
2123.99	15.5016
2125.44	15.4061
2126.89	16.0082
2128.34	16.7767
2129.79	16.6909
2131.23	16.5577
2132.68	16.545
2134.13	17.1323
2135.58	17.4652
2137.03	17.626
2138.48	17.5126
2139.92	18.831
2141.37	19.0713
2142.82	19.6879
2144.26	19.3598
2145.71	19.8164
2147.16	20.3641
2148.6	20.3989
2150.05	21.9837
2151.49	22.1936
2152.94	22.6306
2154.38	23.2373
2155.83	23.6071
2157.27	24.006
2158.72	23.7998
2160.16	24.5862
2161.6	24.215
2163.05	24.8146
2164.49	25.4547
2165.93	25.9279
2167.38	25.7792
2168.82	25.7129
2170.26	25.5676
2171.7	25.4628
2173.14	25.3188
2174.58	25.2689
2176.03	25.2836
2177.47	25.4881
2178.91	25.5432
2180.35	25.2835
2181.79	25.4887
2183.23	25.4915
2184.67	25.2224
2186.1	25.4746
2187.54	25.2823
2188.98	24.4571
2190.42	24.2682
2191.86	23.5085
2193.3	22.6219
2194.73	22.309
2196.17	22.4192
2197.61	21.9959
2199.05	21.9754
2200.48	21.82
2201.92	21.6224
2203.35	21.2993
2204.79	20.8879
2206.22	20.344
2207.66	19.6315
2209.09	19.6746
2210.53	19.4209
2211.96	19.4048
2213.4	18.1289
2214.83	17.8949
2216.27	17.6195
2217.7	16.8916
2219.13	16.5951
2220.56	16.2468
2222	15.9075
2223.43	14.4876
2224.86	14.3734
2226.29	13.7475
2227.72	12.7933
2229.16	12.7599
2230.59	12.2228
2232.02	12.0844
2233.45	11.6866
2234.88	12.0742
2236.31	11.6244
2237.74	11.1993
2239.17	10.777
2240.6	10.7901
2242.03	10.3865
2243.45	9.87445
2244.88	9.11053
2246.31	8.64671
2247.74	8.46453
2249.17	8.01135
2250.59	7.21929
2252.02	6.48149
2253.45	6.61862
2254.87	5.66319
2256.3	5.24533
2257.73	4.74219
2259.15	4.41237
2260.58	3.83109
2262	3.76713
2263.43	4.05283
2264.85	4.43209
2266.28	4.69901
2267.7	4.80289
2269.13	5.32242
2270.55	5.83783
2271.97	5.76212
2273.4	5.3708
2274.82	5.37657
2276.24	5.71323
2277.66	5.72386
2279.09	6.37079
2280.51	6.57488
2281.93	6.2827
2283.35	6.12859
2284.77	5.99485
2286.19	6.48812
2287.61	7.4349
2289.04	6.79798
2290.46	6.5464
2291.88	5.90128
2293.29	5.85482
2294.71	5.51169
2296.13	6.8816
2297.55	7.15894
2298.97	7.80085
2300.39	8.69554
2301.81	8.47961
2303.23	9.48486
2304.64	10.0514
2306.06	10.3333
2307.48	10.4904
2308.89	10.7129
2310.31	10.8884
2311.73	10.452
2313.14	9.73468
2314.56	9.61393
2315.97	9.12105
2317.39	9.41769
2318.8	9.34058
2320.22	9.22616
2321.63	8.65187
2323.05	8.24263
2324.46	7.9238
2325.88	7.1533
2327.29	6.37326
2328.7	5.74599
2330.12	5.47759
2331.53	5.4191
2332.94	5.90497
2334.35	5.76826
2335.76	5.81223
2337.18	5.58708
2338.59	5.49507
2340	5.3373
2341.41	4.84634
2342.82	3.76463
2344.23	3.38729
2345.64	3.91871
2347.05	3.37665
2348.46	2.89402
2349.87	2.46684
2351.28	1.78355
2352.69	1.20782
2354.1	1.46479
2355.5	1.71718
2356.91	1.92847
2358.32	1.95419
2359.73	0.92913
2361.14	0.699635
2362.54	1.87464
2363.95	3.3775
2365.36	4.22456
2366.76	5.54201
2368.17	5.27172
2369.58	5.41616
2370.98	5.25314
2372.39	5.5776
2373.79	6.24901
2375.2	6.11415
2376.6	6.10641
2378	6.97769
2379.41	6.89267
2380.81	7.21058
2382.22	7.18877
2383.62	7.60575
2385.02	7.71079
2386.42	7.12686
2387.83	7.26968
2389.23	7.08826
2390.63	7.02218
2392.03	6.63976
2393.43	6.49442
2394.84	6.22631
2396.24	5.76454
2397.64	5.75147
2399.04	6.04783
2400.44	6.51273
2401.84	7.14069
2403.24	7.01008
2404.64	6.97815
2406.04	6.573
2407.44	5.89928
2408.83	5.28955
2410.23	5.19415
2411.63	4.71368
2413.03	4.08408
2414.43	4.08159
2415.83	4.6773
2417.22	4.78716
2418.62	5.43432
2420.02	5.30262
2421.41	5.66583
2422.81	6.00048
2424.21	6.7548
2425.6	6.66776
2427	6.67062
2428.39	6.90431
2429.79	7.32888
2431.18	7.31491
2432.58	7.97433
2433.97	7.84752
2435.36	7.1225
2436.76	6.89406
2438.15	5.9631
2439.54	6.19223
2440.94	6.27991
2442.33	6.68299
2443.72	6.35538
2445.11	6.78429
2446.51	6.68809
2447.9	6.71003
2449.29	6.22206
2450.68	5.90348
2452.07	5.58953
2453.46	5.14096
2454.85	4.49025
2456.24	3.82603
2457.63	3.89311
2459.02	3.45018
2460.41	3.20985
2461.8	3.0592
2463.19	2.19479
2464.58	1.72244
2465.97	1.48337
2467.36	2.05753
2468.75	1.58757
2470.13	1.96485
2471.52	1.69465
2472.91	0.591894
2474.29	0.52995
2475.68	0.253469
2477.07	0.479209
2478.45	0.518808
2479.84	0.828699
2481.22	0.781163
2482.61	0.614796
2484	0.858142
2485.38	0.791336
2486.77	0.319653
2488.15	-0.490175
2489.54	-0.74524
2490.92	-0.987395
2492.3	-1.07415
2493.69	-0.850134
2495.07	-0.949341
2496.45	-0.851508
2497.84	-1.09689
2499.22	-1.45505
2500.6	-1.83516
2501.98	-1.84111
2503.36	-1.79689
2504.74	-1.86248
2506.13	-1.0124
2507.51	-0.888712
2508.89	-0.0624007
2510.27	0.638475
2511.65	0.759699
2513.03	1.1653
2514.41	2.12227
2515.79	2.71081
2517.17	2.78476
2518.55	2.52524
2519.93	2.9288
2521.3	3.26782
2522.68	2.98544
2524.06	3.05616
2525.44	3.11054
2526.82	3.34738
2528.19	3.70011
2529.57	4.03832
2530.95	4.1995
2532.32	4.13961
2533.7	4.57856
2535.08	5.54243
2536.45	5.98048
2537.83	5.86811
2539.2	6.68495
2540.58	6.73301
2541.95	7.27392
2543.33	7.92451
2544.7	8.04696
2546.08	7.78102
2547.45	7.53165
2548.82	7.53299
2550.2	7.24396
2551.57	7.22391
2552.94	7.25801
2554.32	7.48668
2555.69	7.88041
2557.06	8.11607
2558.43	9.22056
2559.8	9.00067
2561.17	9.41083
2562.55	10.3832
2563.92	10.0816
2565.29	10.0434
2566.66	10.1287
2568.03	10.722
2569.4	10.3674
2570.77	10.7107
2572.14	11.2869
2573.51	11.2503
2574.88	11.5394
2576.24	11.4625
2577.61	11.548
2578.98	11.9555
2580.35	11.5877
2581.72	11.4406
2583.09	11.0195
2584.45	10.5395
2585.82	9.25882
2587.19	8.6896
2588.55	8.95607
2589.92	8.67191
2591.28	8.23031
2592.65	7.95705
2594.02	7.49205
2595.38	7.22173
2596.75	6.51232
2598.11	5.769
2599.48	5.42226
2600.84	4.60292
2602.2	4.10558
2603.57	3.71664
2604.93	3.01989
2606.3	2.68868
2607.66	2.6
2609.02	2.59617
2610.38	2.74364
2611.75	2.19554
2613.11	2.16438
2614.47	1.76199
2615.83	1.87817
2617.19	2.71929
2618.56	2.93512
2619.92	3.4425
2621.28	3.02102
2622.64	3.83039
2624	3.9378
2625.36	4.30136
2626.72	4.75336
2628.08	4.69471
2629.44	5.18331
2630.8	5.6538
2632.15	4.77068
2633.51	5.74595
2634.87	5.89065
2636.23	6.01272
2637.59	5.98943
2638.94	6.7616
2640.3	6.53533
2641.66	6.62183
2643.02	7.48147
2644.37	8.003
2645.73	8.47896
2647.08	8.99815
2648.44	9.19621
2649.8	9.16384
2651.15	9.66839
2652.51	9.9887
2653.86	10.0721
2655.22	10.3166
2656.57	10.695
2657.92	10.5292
2659.28	10.1546
2660.63	10.121
2661.99	10.3881
2663.34	10.0989
2664.69	9.95321
2666.04	10.1875
2667.4	9.96631
2668.75	9.54925
2670.1	9.75666
2671.45	9.8155
2672.81	9.66557
2674.16	9.42529
2675.51	9.63923
2676.86	9.49526
2678.21	9.02025
2679.56	8.48357
2680.91	7.95548
2682.26	7.36407
2683.61	8.09404
2684.96	7.8275
2686.31	7.26871
2687.66	7.39976
2689	7.10209
2690.35	8.12032
2691.7	7.48602
2693.05	6.84751
2694.4	7.06374
2695.74	7.049
2697.09	6.98425
2698.44	6.9483
2699.79	6.49134
2701.13	6.36479
2702.48	5.75692
2703.82	5.85808
2705.17	5.82236
2706.52	5.66291
2707.86	5.77253
2709.21	6.17216
2710.55	6.4545
2711.9	6.20953
2713.24	6.27898
2714.58	6.62704
2715.93	6.75966
2717.27	7.13597
2718.61	7.38656
2719.96	7.15102
2721.3	7.17771
2722.64	7.80255
2723.99	8.05191
2725.33	8.29901
2726.67	9.10928
2728.01	9.60639
2729.35	9.7344
2730.7	9.50592
2732.04	9.75839
2733.38	9.45426
2734.72	8.92819
2736.06	8.64593
2737.4	8.61662
2738.74	8.35737
2740.08	8.32673
2741.42	8.51312
2742.76	8.35147
2744.09	8.28768
2745.43	8.12613
2746.77	8.3264
2748.11	8.65132
2749.45	9.6474
2750.79	10.2646
2752.12	9.99701
2753.46	10.1014
2754.8	10.2447
2756.13	10.1757
2757.47	10.1856
2758.81	9.47596
2760.14	9.12026
2761.48	9.64246
2762.81	8.54388
2764.15	8.02324
2765.49	7.53674
2766.82	7.39238
2768.15	7.46427
2769.49	7.32503
2770.82	6.81127
2772.16	6.49872
2773.49	6.35554
2774.82	5.94839
2776.16	5.59842
2777.49	5.27864
2778.82	4.93416
2780.16	4.92212
2781.49	4.37848
2782.82	4.01896
2784.15	3.84367
2785.48	3.38187
2786.81	3.29809
2788.15	3.03274
2789.48	2.66481
2790.81	2.04206
2792.14	2.24371
2793.47	2.1233
2794.8	2.05263
2796.13	1.59497
2797.46	1.4882
2798.79	0.92036
2800.12	0.499505
2801.44	0.165048
2802.77	0.192504
2804.1	0.842988
2805.43	0.763285
2806.76	0.872285
2808.08	0.424278
2809.41	0.657973
2810.74	1.07531
2812.07	1.29326
2813.39	2.75307
2814.72	2.87242
2816.05	3.7142
2817.37	3.80174
2818.7	4.819
2820.02	5.49472
2821.35	6.22711
2822.67	7.62174
2824	8.54043
2825.32	9.36061
2826.65	10.1714
2827.97	11.3309
2829.29	12.5413
2830.62	14.1383
2831.94	15.8787
2833.26	17.6606
2834.59	19.3706
2835.91	20.829
2837.23	22.9413
2838.55	25.0909
2839.88	27.5146
2841.2	29.6993
2842.52	32.5113
2843.84	35.5033
2845.16	38.8584
2846.48	42.8243
2847.8	46.9473
2849.12	51.4842
2850.44	55.1176
2851.76	59.3436
2853.08	63.302
2854.4	67.5921
2855.72	72.8923
2857.04	77.4356
2858.36	81.5923
2859.68	85.9934
2861	90.1645
2862.32	93.0909
2863.63	97.202
2864.95	100.652
2866.27	104.295
2867.58	108.205
2868.9	111.595
2870.22	115.415
2871.53	118.16
2872.85	120.87
2874.17	124.199
2875.48	127.099
2876.8	129.722
2878.11	132.653
2879.43	135.1
2880.74	136.722
2882.06	139.018
2883.37	140.259
2884.69	141.983
2886	142.757
2887.31	144.401
2888.63	146.427
2889.94	147.543
2891.25	148.77
2892.57	150.76
2893.88	153.013
2895.19	155.316
2896.5	157.578
2897.82	159.727
2899.13	162.193
2900.44	164.791
2901.75	167.83
2903.06	171.509
2904.37	175.878
2905.68	180.608
2906.99	185.498
2908.3	190.895
2909.61	195.918
2910.92	201.886
2912.23	207.698
2913.54	212.63
2914.85	217.478
2916.16	222.569
2917.46	227.29
2918.77	232.137
2920.08	236.557
2921.39	240.415
2922.7	242.742
2924	245.674
2925.31	248.584
2926.62	250.52
2927.92	252.343
2929.23	254.146
2930.53	254.591
2931.84	255.149
2933.15	255.186
2934.45	254.451
2935.76	253.35
2937.06	251.008
2938.37	248.951
2939.67	246.691
2940.98	242.977
2942.28	239.309
2943.58	235.477
2944.89	230.558
2946.19	225.982
2947.49	221.431
2948.8	216.942
2950.1	212.199
2951.4	207.241
2952.7	203.145
2954.01	197.992
2955.31	192.686
2956.61	188.006
2957.91	182.903
2959.21	177.816
2960.51	171.724
2961.81	166.629
2963.11	161.568
2964.41	156.834
2965.71	152.359
2967.01	148.567
2968.31	144.759
2969.61	141.086
2970.91	136.371
2972.21	132.382
2973.51	128.287
2974.81	124.249
2976.1	120.908
2977.4	117.354
2978.7	112.709
2980	108.257
2981.29	103.993
2982.59	99.8148
2983.89	96.0574
2985.18	91.673
2986.48	87.518
2987.78	83.2857
2989.07	79.9811
2990.37	76.0975
2991.66	72.1335
2992.96	68.1881
2994.25	63.4899
2995.55	59.939
2996.84	55.9024
2998.14	51.8569
2999.43	48.265
3000.72	44.5147
3002.02	41.4774
3003.31	38.3995
3004.6	35.1068
3005.9	31.6554
3007.19	29.0157
3008.48	26.7976
3009.77	24.5885
3011.07	22.9775
3012.36	21.2237
3013.65	18.593
3014.94	16.4209
3016.23	14.839
3017.52	13.1929
3018.81	11.2419
3020.1	9.59219
3021.39	8.16014
3022.68	5.8845
3023.97	5.02235
3025.26	3.69709
3026.55	3.11723
3027.84	1.88151
3029.13	0.838804
3030.42	0.550634
3031.71	0.47341
3033	0.0973294
3034.28	-0.164659
3035.57	-0.605478
3036.86	0.111474
3038.15	0.557066
3039.43	0.974021
3040.72	1.67273
3042.01	1.83662
3043.29	1.56869
3044.58	2.0286
3045.86	3.51704
3047.15	3.94918
3048.44	4.54852
3049.72	5.03425
3051.01	5.15819
3052.29	5.83806
3053.58	6.5903
3054.86	6.44042
3056.14	6.39233
3057.43	6.28044
3058.71	6.12711
3060	6.75416
3061.28	6.34541
3062.56	6.66857
3063.84	7.14699
3065.13	7.22999
3066.41	7.03154
3067.69	6.39769
3068.97	6.30253
3070.25	6.04843
3071.54	5.96044
3072.82	5.46822
3074.1	5.05056
3075.38	4.42821
3076.66	4.10002
3077.94	2.95294
3079.22	2.59678
3080.5	2.08869
3081.78	1.54232
3083.06	1.21565
3084.34	0.625396
3085.62	0.606208
3086.9	-0.00824333
3088.17	-0.0589471
3089.45	-0.347119
3090.73	-0.723989
3092.01	-0.641554
3093.29	-0.666947
3094.56	-0.37442
3095.84	0.320322
3097.12	0.972746
3098.4	1.559
3099.67	2.39666
3100.95	3.75254
3102.22	4.37274
3103.5	5.31142
3104.77	5.71034
3106.05	6.23869
3107.33	6.85283
3108.6	7.52119
3109.88	8.55428
3111.15	9.49895
3112.43	10.8239
3113.7	11.6213
3114.97	12.477
3116.25	13.6303
3117.52	14.0643
3118.79	14.4805
3120.07	15.3004
3121.34	16.1903
3122.61	17.0385
3123.88	17.893
3125.16	18.5613
3126.43	19.5538
3127.7	20.2055
3128.97	20.4992
3130.24	20.9972
3131.51	21.7627
3132.78	22.701
3134.05	23.127
3135.33	23.2463
3136.59	23.398
3137.86	23.9226
3139.14	24.2543
3140.41	24.4031
3141.67	24.1134
3142.94	24.249
3144.21	24.1632
3145.48	24.0135
3146.75	23.856
3148.02	23.947
3149.28	23.7749
