#Acq. time (s)=	45
#Accumulations=	2
#Range (cm-¹)=	200...3150
#Windows=	2
#Auto scanning=	Off
#Autofocus=	Off
#Macrospot=	Off
#AutoExposure=	Off
#Spike filter=	Multiple accum.
#Delay time (s)=	0
#Binning=	1
#Readout mode=	Signal
#DeNoise=	Off
#ICS correction=	On
#Dark correction=	Off
#Inst. Process=	Off
#Detector Gain=	Best Dynamic Range
#Detector ADC=	20 kHz       
#Detector temperature (°C)=	-69.85
#Instrument=	LabRAM HR Evol
#Detector=	Synapse
#Objective=	x100
#Grating=	600 gr/mm
#ND Filter=	100%
#Laser (nm)=	532 
#Hole=	100.021
#Range=	Auto
#Laser Pol.=	No
#Raman. Pol.=	No
#Laser Pol. (°)=	-0.0007625
#Raman Pol. (°)=	89.9995
#Collection=	Microscope
#StageXY=	Marzhauser
#StageZ=	Marzhauser
#X (µm)=	-622.7
#Y (µm)=	-1581.6
#Z (µm)=	89.85
#Full time(mm:ss)=	3:18
#Project=	
#Sample=	
#Site=	
#Title=	Mb_10_14_19_2x_45s_532 nm_x100_100%_600 gr_mm
#Remark=	
#Date=	11.07.2022 10:00
#Acquired=	11.07.2022 10:00:11
#Base:Fit=	10.08.2022 10:21:11
#Base:Sub=	10.08.2022 10:21:41
#Filter:Polynom=	16.08.2022 10:17:53
#AxisType[0]=Intens
#AxisUnit[0]=Cnt
#AxisType[1]=Spectr
#AxisUnit[1]=1/cm
200.388	7.56795
202.204	7.84121
204.019	4.06537
205.832	2.54075
207.646	1.17613
209.459	0.344384
211.274	-0.34331
213.087	-1.0973
214.899	-1.41211
216.711	0.0491458
218.524	0.850759
220.335	2.75612
222.146	5.61158
223.956	6.76098
225.766	8.64263
227.576	9.32526
229.388	9.73552
231.197	11.3651
233.005	13.11
234.813	14.1343
236.621	15.6955
238.429	17.1205
240.236	17.771
242.045	19.0292
243.852	19.9847
245.658	21.4227
247.464	22.6608
249.269	23.703
251.074	25.8757
252.879	25.8601
254.683	26.5929
256.487	26.871
258.291	26.7798
260.094	27.786
261.897	29.1038
263.702	29.55
265.504	29.378
267.306	29.1922
269.108	29.4825
270.909	29.1344
272.71	29.0132
274.511	29.0757
276.311	28.86
278.111	27.5573
279.91	26.9711
281.709	26.747
283.508	25.9541
285.306	25.314
287.105	24.2725
288.9	23.7109
290.698	23.4268
292.495	23.2237
294.291	23.4899
296.088	23.0932
297.884	23.9417
299.679	23.8515
301.475	24.2292
303.27	24.3808
305.064	25.3798
306.858	26.2977
308.652	25.608
310.444	25.9911
312.237	25.6931
314.03	24.2031
315.822	23.9983
317.615	23.5586
319.406	22.8209
321.198	23.0608
322.987	21.7253
324.778	20.093
326.568	18.8204
328.358	17.6765
330.148	16.6078
331.935	16.186
333.724	16.1427
335.513	15.2609
337.301	13.6547
339.089	13.3862
340.875	12.7574
342.662	11.5028
344.449	10.998
346.236	10.7929
348.02	10.6703
349.806	10.6589
351.592	9.77694
353.375	8.21878
355.16	7.89621
356.944	7.92651
358.728	8.29082
360.51	7.86637
362.294	8.02831
364.077	9.41854
365.858	10.5588
367.64	11.8418
369.422	12.6373
371.202	14.3927
372.983	14.5341
374.764	15.7674
376.543	17.5991
378.324	19.7933
380.102	21.7454
381.881	22.4719
383.661	24.2064
385.438	26.9154
387.216	28.7797
388.993	29.7216
390.771	31.2309
392.548	31.5068
394.324	32.8352
396.101	33.8733
397.875	34.396
399.651	34.8085
401.425	34.9072
403.201	34.3536
404.974	34.2595
406.749	33.2804
408.524	30.8927
410.296	30.4608
412.07	28.6423
413.841	28.3468
415.614	27.3634
417.385	26.8111
419.156	26.5772
420.928	25.8296
422.698	24.8051
424.469	23.3441
426.238	22.4692
428.009	22.2471
429.777	20.8111
431.548	20.3516
433.315	18.7912
435.083	18.0643
436.852	16.315
438.618	15.3187
440.387	13.4159
442.153	13.1452
443.919	12.2334
445.686	11.9664
447.451	11.8722
449.218	11.4962
450.982	11.6707
452.746	12.0091
454.512	12.0263
456.275	11.708
458.038	11.6854
459.803	13.1055
461.565	13.9112
463.327	15.1075
465.091	15.6797
466.852	15.9224
468.613	17.1496
470.374	16.723
472.136	18.1933
473.896	19.4007
475.655	20.9561
477.415	22.0292
479.176	22.183
480.934	21.4115
482.692	22.3152
484.45	22.9454
486.21	23.0808
487.967	22.6308
489.724	23.4355
491.481	24.3749
493.237	24.9645
494.995	24.7004
496.75	24.9632
498.506	26.1183
500.26	26.1485
502.015	26.9806
503.769	26.9259
505.525	26.6391
507.279	27.3382
509.032	27.9965
510.785	28.1634
512.537	28.6905
514.289	28.5454
516.041	28.7632
517.793	28.0541
519.546	28.2297
521.297	28.0347
523.047	27.1433
524.797	26.7151
526.547	26.4691
528.297	25.0653
530.046	26.0626
531.795	26.0397
533.543	25.7283
535.291	24.8335
537.039	24.235
538.787	23.3188
540.534	22.9802
542.281	22.0066
544.027	21.0315
545.773	20.6319
547.519	20.2347
549.264	19.1573
551.01	18.1771
552.754	17.3469
554.499	16.9906
556.243	16.47
557.987	14.8626
559.73	15.4855
561.474	14.542
563.216	13.3367
564.959	10.8628
566.701	9.10806
568.441	9.0637
570.182	9.28258
571.923	8.53682
573.664	7.39771
575.405	5.92917
577.145	6.46567
578.885	5.51886
580.624	4.32115
582.361	3.74525
584.1	4.37438
585.839	4.6204
587.577	4.40315
589.315	4.61389
591.052	4.90159
592.787	4.6393
594.524	6.33155
596.26	6.87503
597.997	6.57772
599.732	7.2876
601.466	7.76924
603.201	8.49779
604.936	8.73117
606.67	9.07449
608.403	8.86546
610.136	8.91338
611.87	9.53464
613.603	9.27765
615.334	9.33737
617.067	10.9054
618.799	10.9956
620.529	10.4712
622.26	10.5964
623.991	10.4664
625.72	11.1471
627.451	11.2911
629.181	11.1323
630.909	12.0596
632.638	12.4156
634.368	13.0432
636.095	13.7169
637.823	12.5208
639.551	12.4695
641.277	12.2681
643.005	12.2737
644.73	11.9649
646.457	11.1301
648.184	9.99135
649.908	10.0994
651.634	10.6145
653.357	11.2997
655.083	11.2848
656.806	10.7861
658.53	10.3299
660.253	11.4389
661.977	11.3369
663.7	12.8019
665.422	12.8459
667.145	14.0083
668.865	14.3641
670.588	14.7549
672.308	14.8631
674.027	15.5911
675.749	16.4557
677.468	16.9757
679.188	17.2313
680.907	18.0685
682.627	18.0328
684.345	18.6163
686.064	19.6021
687.781	19.777
689.498	19.9876
691.216	19.4691
692.932	19.7192
694.65	20.2381
696.366	20.0742
698.081	20.8051
699.797	20.1476
701.512	20.1901
703.228	20.5905
704.942	20.3865
706.655	20.2949
708.371	19.9631
710.083	19.9076
711.796	20.5101
713.51	20.7843
715.222	22.2932
716.934	22.1415
718.645	22.0677
720.358	22.226
722.068	21.915
723.779	21.3391
725.49	22.6118
727.2	22.738
728.909	23.3962
730.618	23.1621
732.329	23.4894
734.037	25.0143
735.745	26.2164
737.453	26.1275
739.16	26.3578
740.869	27.4167
742.576	28.0354
744.282	28.2201
745.988	29.2094
747.694	29.7032
749.401	31.8292
751.107	32.1344
752.811	33.6057
754.516	34.7288
756.22	36.1086
757.924	38.3008
759.627	40.7339
761.332	41.6125
763.035	42.473
764.738	44.6458
766.44	46.8351
768.142	49.1362
769.843	51.0255
771.544	52.8191
773.245	53.5372
774.946	54.9705
776.646	55.4582
778.346	56.1766
780.046	57.7366
781.745	59.169
783.444	60.973
785.143	61.5673
786.841	63.7078
788.539	65.4376
790.237	67.2664
791.934	68.3323
793.631	69.4451
795.328	71.2583
797.024	73.1999
798.72	74.8891
800.416	75.9541
802.112	75.7705
803.807	76.7284
805.502	76.6037
807.196	76.4665
808.89	76.8617
810.584	76.1945
812.278	75.8242
813.971	74.9703
815.664	74.4307
817.354	74.6388
819.047	74.1448
820.739	72.7124
822.43	72.5605
824.122	72.2125
825.813	71.1
827.503	69.4821
829.192	68.3357
830.882	67.6553
832.571	66.7609
834.261	65.1062
835.95	64.3547
837.637	64.665
839.325	63.267
841.013	62.6341
842.701	61.909
844.389	60.8304
846.074	58.4955
847.761	57.5209
849.447	56.9721
851.131	55.2623
852.817	53.0576
854.503	51.4887
856.188	50.6583
857.871	49.0287
859.556	47.9854
861.24	47.5259
862.922	46.5116
864.606	46.7831
866.289	46.5109
867.97	45.3783
869.653	45.4117
871.336	44.7929
873.016	44.7438
874.698	45.0194
876.379	44.5745
878.058	45.1406
879.739	45.0673
881.418	44.9523
883.098	44.4252
884.778	43.4495
886.456	43.1583
888.135	42.9284
889.812	41.6414
891.49	41.1537
893.167	41.4477
894.845	40.7594
896.523	41.2264
898.198	41.1585
899.875	41.3675
901.55	41.3104
903.226	40.3844
904.901	39.7021
906.576	40.3479
908.25	38.1
909.925	37.5196
911.598	37.4356
913.271	36.8614
914.945	37.4928
916.617	37.638
918.291	38.3891
919.962	39.6499
921.635	38.6632
923.306	37.0964
924.978	37.1734
926.648	36.0774
928.318	34.9568
929.989	34.6786
931.659	35.1933
933.328	35.8809
934.998	35.7112
936.666	35.4307
938.336	35.6734
940.004	35.0943
941.671	35.2765
943.34	34.6533
945.007	34.1827
946.673	32.6239
948.339	32.9034
950.007	33.3456
951.672	32.6214
953.337	33.7298
955.004	33.8865
956.669	33.9144
958.333	32.9272
959.997	31.9327
961.662	32.0099
963.326	31.3797
964.989	32.3472
966.651	33.4648
968.315	34.4087
969.977	35.4659
971.639	35.2014
973.301	35.68
974.962	36.8621
976.624	37.4988
978.285	37.5338
979.945	37.9774
981.605	38.1912
983.264	37.8634
984.924	37.5941
986.583	37.0628
988.243	35.9481
989.901	35.93
991.56	34.8713
993.217	35.8798
994.875	35.8001
996.532	36.4344
998.188	37.188
999.845	36.4432
1001.5	36.2737
1003.16	35.6505
1004.81	34.7789
1006.47	34.2928
1008.12	34.4246
1009.78	34.3924
1011.43	35.0604
1013.09	35.8892
1014.74	36.2597
1016.39	36.3725
1018.05	35.3412
1019.7	35.328
1021.35	36.3907
1023	36.6267
1024.65	37.3078
1026.31	36.3498
1027.96	37.1077
1029.61	37.5245
1031.26	37.9079
1032.91	38.3395
1034.56	38.1868
1036.21	38.7136
1037.86	38.316
1039.51	37.7256
1041.16	37.5743
1042.8	39.0324
1044.45	40.1473
1046.1	40.8195
1047.75	41.6423
1049.39	42.1232
1051.04	41.3986
1052.69	40.3495
1054.33	39.019
1055.98	38.3794
1057.62	36.8059
1059.27	36.0183
1060.91	34.5102
1062.56	33.4029
1064.2	32.189
1065.85	29.9905
1067.49	29.0049
1069.13	26.6758
1070.77	25.5919
1072.42	25.2618
1074.06	23.5373
1075.7	23.7313
1077.34	22.8062
1078.98	21.4327
1080.62	19.3666
1082.27	17.898
1083.91	15.9379
1085.55	15.1394
1087.18	14.8565
1088.82	14.6894
1090.46	15.1584
1092.1	15.5801
1093.74	15.026
1095.38	14.2256
1097.02	14.611
1098.65	15.2595
1100.29	15.1247
1101.93	16.2153
1103.56	16.2352
1105.2	15.4098
1106.84	15.5172
1108.47	15.8665
1110.11	14.9281
1111.74	14.736
1113.38	14.7469
1115.01	15.0195
1116.64	15.0062
1118.28	15.853
1119.91	15.6542
1121.54	16.2517
1123.18	16.657
1124.81	17.4446
1126.44	17.1122
1128.07	16.4296
1129.7	16.7539
1131.33	16.833
1132.97	15.4658
1134.6	14.9048
1136.23	15.3536
1137.86	14.88
1139.49	14.2509
1141.11	13.739
1142.74	12.3465
1144.37	11.9431
1146	11.7379
1147.63	10.7164
1149.26	10.5454
1150.88	9.15136
1152.51	9.66112
1154.14	9.28568
1155.76	9.0298
1157.39	9.43387
1159.01	7.70515
1160.64	6.67871
1162.27	6.39313
1163.89	6.14459
1165.51	5.98147
1167.14	7.31598
1168.76	7.00633
1170.39	6.96087
1172.01	6.1092
1173.63	5.3531
1175.25	4.76023
1176.88	5.07372
1178.5	5.6368
1180.12	5.19124
1181.74	4.8232
1183.36	5.88325
1184.98	4.96511
1186.6	5.7535
1188.22	6.61722
1189.84	7.20654
1191.46	6.88196
1193.08	9.06217
1194.7	9.62415
1196.32	10.6549
1197.94	11.8756
1199.55	12.8739
1201.17	14.1397
1202.79	15.893
1204.41	17.2321
1206.02	18.5016
1207.64	19.929
1209.25	20.9838
1210.87	23.8747
1212.48	24.9464
1214.1	27.0977
1215.71	28.2321
1217.33	29.9345
1218.94	29.8138
1220.56	30.7495
1222.17	31.8993
1223.79	33.074
1225.4	35.6057
1227.01	37.1213
1228.62	38.4275
1230.23	38.7318
1231.85	39.8034
1233.46	41.0865
1235.07	42.285
1236.68	42.6187
1238.29	43.1182
1239.9	43.0677
1241.51	43.8032
1243.12	44.948
1244.73	45.9885
1246.34	46.7326
1247.94	46.8126
1249.55	46.7009
1251.16	47.5595
1252.77	46.6901
1254.37	47.0507
1255.98	47.7361
1257.59	47.6222
1259.2	47.896
1260.8	48.392
1262.41	49.1419
1264.01	49.0421
1265.62	48.7318
1267.22	49.9947
1268.83	50.3432
1270.43	51.298
1272.03	51.6024
1273.64	51.4659
1275.24	50.9677
1276.85	51.1954
1278.45	51.0237
1280.05	51.4498
1281.65	52.8221
1283.25	53.0413
1284.85	53.8685
1286.46	54.5825
1288.06	54.2469
1289.66	54.1603
1291.26	55.5484
1292.86	56.0796
1294.46	56.5794
1296.06	56.6603
1297.66	57.3139
1299.25	58.1004
1300.85	58.3415
1302.45	59.386
1304.05	59.5233
1305.65	60.8783
1307.24	61.4261
1308.84	62.0304
1310.43	62.4153
1312.03	63.7817
1313.63	65.0161
1315.22	65.0463
1316.82	65.2218
1318.41	64.8924
1320.01	64.7782
1321.6	65.8908
1323.2	66.6262
1324.79	66.6896
1326.38	65.9413
1327.98	64.9886
1329.57	64.9571
1331.16	65.2596
1332.76	64.6085
1334.35	64.9051
1335.94	64.6056
1337.53	63.3286
1339.12	62.6077
1340.71	61.3656
1342.3	59.9342
1343.89	58.1753
1345.48	58.0806
1347.07	57.4943
1348.66	56.2256
1350.25	54.664
1351.84	52.5923
1353.43	49.9903
1355.01	48.443
1356.6	47.0882
1358.19	45.5831
1359.77	45.0792
1361.36	43.4136
1362.95	42.2347
1364.53	41.3949
1366.12	40.2656
1367.71	39.2553
1369.29	39.4029
1370.88	39.7847
1372.46	39.1151
1374.04	39.0583
1375.63	38.7557
1377.21	38.3059
1378.8	37.985
1380.38	36.7586
1381.96	37.8907
1383.54	37.3278
1385.13	38.1196
1386.71	38.0209
1388.29	36.7074
1389.87	36.9715
1391.45	37.362
1393.03	37.6873
1394.61	37.2565
1396.19	37.1051
1397.77	37.292
1399.35	38.8488
1400.93	40.2583
1402.51	40.2067
1404.09	40.7041
1405.67	41.8585
1407.24	42.6927
1408.82	43.9795
1410.4	44.9767
1411.98	44.6535
1413.55	45.6927
1415.13	46.3116
1416.71	46.9003
1418.28	48.3375
1419.86	50.6672
1421.43	52.2988
1423.01	53.4926
1424.58	56.1817
1426.16	57.9505
1427.73	59.0043
1429.31	60.4745
1430.88	62.8735
1432.45	64.3633
1434.02	67.5673
1435.6	69.8874
1437.17	71.2959
1438.74	73.0652
1440.31	73.6935
1441.88	75.235
1443.45	76.0692
1445.03	76.553
1446.6	77.188
1448.17	76.954
1449.74	77.6658
1451.3	76.6897
1452.87	77.1356
1454.44	75.5249
1456.01	74.9455
1457.58	74.2462
1459.15	73.4239
1460.72	72.855
1462.28	71.5128
1463.85	69.7534
1465.42	67.7395
1466.98	66.1632
1468.55	65.1013
1470.12	63.0445
1471.68	61.3027
1473.25	59.5386
1474.81	56.9634
1476.38	55.2437
1477.94	53.2271
1479.51	50.7328
1481.07	48.5841
1482.63	45.7156
1484.2	43.9011
1485.76	40.5533
1487.32	38.2521
1488.88	36.2303
1490.45	34.0252
1492.01	32.023
1493.57	30.0864
1495.13	28.7066
1496.69	27.2446
1498.25	25.4466
1499.81	23.2566
1501.37	22.2046
1502.93	21.1094
1504.49	20.4871
1506.05	19.3494
1507.61	19.2975
1509.17	19.3469
1510.73	18.7691
1512.28	17.8582
1513.84	16.3904
1515.4	15.1648
1516.96	14.8691
1518.51	14.9902
1520.07	15.2834
1521.63	15.6255
1523.18	15.5772
1524.74	16.0732
1526.29	16.6154
1527.85	17.1715
1529.4	17.7526
1530.96	19.5368
1532.51	19.7374
1534.06	20.4267
1535.62	22.0996
1537.17	22.9324
1538.72	24.0133
1540.28	24.143
1541.83	24.1361
1543.38	25.3964
1544.93	26.4885
1546.48	27.3564
1548.03	28.4565
1549.59	29.5798
1551.14	30.0921
1552.69	31.319
1554.24	32.3649
1555.79	33.8143
1557.34	34.4218
1558.88	34.9923
1560.43	34.6161
1561.98	35.9406
1563.53	36.1864
1565.08	36.8357
1566.62	37.673
1568.17	37.9413
1569.72	38.208
1571.27	38.5659
1572.81	38.9501
1574.36	38.9054
1575.9	39.8733
1577.45	40.5042
1579	40.3958
1580.54	40.6483
1582.09	42.0358
1583.63	41.9354
1585.17	43.0124
1586.72	43.0969
1588.26	43.0048
1589.8	43.3984
1591.35	44.0313
1592.89	44.8054
1594.43	45.1466
1595.97	45.0574
1597.52	45.0133
1599.06	45.2771
1600.6	45.1506
1602.14	46.1082
1603.68	45.8589
1605.22	46.6292
1606.76	46.4281
1608.3	46.1714
1609.84	45.9878
1611.38	46.0708
1612.92	45.7066
1614.46	44.9389
1615.99	44.577
1617.53	44.2734
1619.07	44.7248
1620.61	44.3521
1622.14	45.2514
1623.68	45.7525
1625.22	45.7852
1626.75	46.6226
1628.29	47.3401
1629.82	48.6374
1631.36	48.6221
1632.9	49.2042
1634.43	50.2597
1635.96	51.0431
1637.5	52.4109
1639.03	53.1989
1640.57	53.645
1642.1	55.1367
1643.63	56.4867
1645.16	57.3019
1646.7	58.0699
1648.23	58.3688
1649.76	60.5916
1651.29	61.4951
1652.82	61.0993
1654.36	61.3483
1655.89	61.2988
1657.42	61.8852
1658.95	61.1104
1660.48	60.6576
1662.01	60.6129
1663.53	59.3862
1665.06	59.2265
1666.59	58.4727
1668.12	56.9546
1669.65	55.5748
1671.18	53.1727
1672.7	51.8569
1674.23	50.6167
1675.76	48.9215
1677.29	47.854
1678.81	46.4725
1680.34	44.2251
1681.86	42.9903
1683.39	39.592
1684.91	36.8663
1686.44	34.8688
1687.96	31.8544
1689.49	29.5663
1691.01	28.156
1692.54	25.6418
1694.06	22.8954
1695.58	21.0018
1697.11	18.5708
1698.63	17.5282
1700.15	15.1759
1701.67	13.4551
1703.2	12.8215
1704.72	12.0006
1706.24	10.7199
1707.76	8.92785
1709.28	7.94598
1710.8	7.00347
1712.32	6.03088
1713.84	5.18358
1715.36	4.5337
1716.88	5.6376
1718.4	6.27171
1719.91	6.17883
1721.43	6.03884
1722.95	5.45219
1724.47	5.80909
1725.99	6.64337
1727.5	5.83885
1729.02	4.76882
1730.54	5.79469
1732.05	4.8742
1733.57	4.90944
1735.09	4.97142
1736.6	5.37
1738.12	5.09158
1739.63	5.14798
1741.15	4.94666
1742.66	4.19835
1744.18	4.0107
1745.69	3.72454
1747.2	3.55152
1748.72	4.50554
1750.23	4.93806
1751.74	5.23432
1753.25	5.48108
1754.77	5.06098
1756.28	4.64909
1757.79	4.2229
1759.3	3.69361
1760.81	3.55291
1762.32	3.70244
1763.83	2.94399
1765.34	2.96084
1766.85	2.79823
1768.36	1.69838
1769.87	1.48332
1771.38	1.70504
1772.89	1.15085
1774.4	1.79837
1775.91	2.01892
1777.41	2.0073
1778.92	1.93734
1780.43	1.5331
1781.94	0.61839
1783.44	0.969611
1784.95	1.54523
1786.45	1.45327
1787.96	1.7568
1789.47	2.30521
1790.97	3.07532
1792.47	3.01641
1793.98	2.90593
1795.48	3.23523
1796.99	3.07354
1798.49	3.3159
1800	4.01965
1801.5	3.88918
1803	3.73702
1804.51	3.64998
1806.01	4.17684
1807.51	4.32561
1809.01	5.12648
1810.51	5.21961
1812.02	4.5828
1813.52	4.50694
1815.02	4.15929
1816.52	3.80039
1818.02	4.00606
1819.52	3.86063
1821.02	3.85625
1822.52	3.72211
1824.02	3.86485
1825.51	3.59426
1827.01	3.61129
1828.51	3.34514
1830.01	3.15143
1831.51	3.14355
1833	3.17829
1834.5	3.00646
1836	2.65007
1837.49	2.90109
1838.99	3.00512
1840.49	3.37733
1841.98	3.39291
1843.48	2.5244
1844.97	3.34628
1846.47	3.88317
1847.96	4.12234
1849.46	4.3126
1850.95	3.61338
1852.45	2.87555
1853.94	2.94961
1855.43	2.8314
1856.92	2.0425
1858.42	2.3468
1859.91	1.76309
1861.4	1.43623
1862.89	1.78492
1864.39	2.88475
1865.88	3.15378
1867.37	3.27741
1868.86	3.39531
1870.35	2.75589
1871.84	3.11378
1873.33	3.28972
1874.82	3.10945
1876.31	2.92792
1877.8	3.69713
1879.29	3.25933
1880.77	3.1556
1882.26	3.19489
1882.52	3.08421
1884.02	2.80305
1885.51	2.58006
1887.01	3.10555
1888.5	3.2449
1889.99	3.00863
1891.49	2.77116
1892.98	2.6513
1894.47	3.57859
1895.96	3.68646
1897.46	4.0263
1898.95	3.82374
1900.44	4.06059
1901.93	3.98314
1903.42	3.80747
1904.91	3.8731
1906.4	3.85308
1907.89	3.8112
1909.38	4.06448
1910.87	3.99466
1912.36	3.99746
1913.85	4.09493
1915.34	4.57487
1916.83	4.97839
1918.32	5.16435
1919.8	4.48447
1921.29	4.40725
1922.78	3.90894
1924.27	3.8227
1925.75	4.77848
1927.24	4.96746
1928.73	4.78644
1930.21	4.70814
1931.7	5.39367
1933.18	5.07493
1934.67	5.55725
1936.15	5.7422
1937.64	5.77395
1939.12	4.79379
1940.61	4.20994
1942.09	3.5879
1943.57	3.69933
1945.06	3.53282
1946.54	3.37741
1948.02	3.28645
1949.51	3.67686
1950.99	3.53249
1952.47	2.87844
1953.95	3.59962
1955.43	4.34348
1956.91	4.8809
1958.39	4.7779
1959.87	4.83168
1961.36	4.67932
1962.84	4.69996
1964.32	4.95095
1965.79	5.49254
1967.27	5.84934
1968.75	5.89445
1970.23	5.37449
1971.71	5.42754
1973.19	5.82647
1974.66	6.33523
1976.14	6.46951
1977.62	6.65184
1979.1	7.28529
1980.57	7.2131
1982.05	7.72999
1983.53	7.9743
1985	8.78861
1986.48	9.91034
1987.95	10.4148
1989.43	10.9948
1990.9	11.2625
1992.38	11.0898
1993.85	11.8571
1995.33	12.5672
1996.8	12.9387
1998.27	13.0441
1999.75	13.2355
2001.22	12.5881
2002.69	12.398
2004.16	12.0198
2005.64	12.0591
2007.11	11.9113
2008.58	12.0432
2010.05	11.4777
2011.52	11.2698
2012.99	11.5029
2014.46	12.2585
2015.93	11.5413
2017.4	11.8631
2018.87	11.8402
2020.34	12.372
2021.81	12.6466
2023.28	12.3535
2024.75	11.7242
2026.22	11.9677
2027.69	11.8135
2029.15	11.4971
2030.62	11.5828
2032.09	11.1346
2033.56	11.3662
2035.02	11.4731
2036.49	11.65
2037.95	11.1584
2039.42	11.0448
2040.89	10.8386
2042.35	10.5214
2043.82	10.6097
2045.28	10.5038
2046.75	9.87301
2048.21	8.99463
2049.67	8.42709
2051.14	7.92975
2052.6	7.00032
2054.06	6.43849
2055.53	6.71772
2056.99	6.87838
2058.45	7.38004
2059.92	6.98427
2061.38	6.66415
2062.84	7.07798
2064.3	7.67269
2065.76	7.17239
2067.22	7.05975
2068.68	6.6808
2070.14	6.93171
2071.6	6.01462
2073.06	6.2309
2074.52	6.27144
2075.98	6.34315
2077.44	6.91196
2078.9	6.64673
2080.36	7.51779
2081.82	7.58617
2083.27	7.83824
2084.73	8.64132
2086.19	9.08721
2087.65	9.26477
2089.1	9.12939
2090.56	9.81346
2092.01	10.3815
2093.47	10.591
2094.93	10.1537
2096.38	9.71168
2097.84	10.6956
2099.29	11.1383
2100.75	11.2659
2102.2	11.5854
2103.66	12.3527
2105.11	12.3821
2106.56	11.9677
2108.02	12.4348
2109.47	12.0803
2110.92	12.2435
2112.37	12.6787
2113.83	12.1996
2115.28	12.184
2116.73	12.3745
2118.18	12.4857
2119.63	12.6975
2121.09	12.9135
2122.54	13.93
2123.99	14.2035
2125.44	14.48
2126.89	14.9585
2128.34	15.4953
2129.79	16.4009
2131.23	16.6196
2132.68	16.8967
2134.13	17.6163
2135.58	18.3568
2137.03	19.1235
2138.48	19.1362
2139.92	19.3537
2141.37	20.1841
2142.82	21.2303
2144.26	21.7186
2145.71	22.3813
2147.16	22.7787
2148.6	23.003
2150.05	23.5228
2151.49	23.2356
2152.94	25.112
2154.38	24.889
2155.83	25.2971
2157.27	25.5215
2158.72	26.0773
2160.16	26.6897
2161.6	27.5096
2163.05	27.837
2164.49	28.0466
2165.93	28.4233
2167.38	28.2095
2168.82	28.9052
2170.26	29.5955
2171.7	29.6405
2173.14	30.388
2174.58	30.475
2176.03	31.0368
2177.47	31.4025
2178.91	31.7718
2180.35	32.6768
2181.79	32.2986
2183.23	32.4466
2184.67	32.7644
2186.1	32.4992
2187.54	32.9196
2188.98	32.4477
2190.42	31.9126
2191.86	31.1602
2193.3	29.7975
2194.73	28.7416
2196.17	27.3793
2197.61	26.4803
2199.05	25.9292
2200.48	25.1391
2201.92	24.569
2203.35	23.7367
2204.79	22.5618
2206.22	22.126
2207.66	21.6727
2209.09	21.1515
2210.53	20.3268
2211.96	19.0114
2213.4	18.5187
2214.83	17.7537
2216.27	16.7026
2217.7	15.4138
2219.13	15.8258
2220.56	15.2474
2222	14.9144
2223.43	14.5634
2224.86	14.4789
2226.29	14.1498
2227.72	14.3812
2229.16	14.4822
2230.59	14.5038
2232.02	14.2678
2233.45	13.9097
2234.88	13.0373
2236.31	13.1335
2237.74	13.3383
2239.17	12.8298
2240.6	12.9528
2242.03	13.6359
2243.45	14.3263
2244.88	14.4292
2246.31	14.5796
2247.74	15.4359
2249.17	15.6135
2250.59	15.2984
2252.02	14.7608
2253.45	14.9242
2254.87	14.4171
2256.3	14.1958
2257.73	13.4922
2259.15	12.2783
2260.58	10.8742
2262	10.2907
2263.43	9.66068
2264.85	9.45246
2266.28	9.75583
2267.7	9.81646
2269.13	9.3848
2270.55	8.91163
2271.97	8.12125
2273.4	8.29622
2274.82	7.73647
2276.24	7.75168
2277.66	8.49454
2279.09	8.05522
2280.51	8.38893
2281.93	8.31765
2283.35	7.4249
2284.77	8.33963
2286.19	7.89529
2287.61	8.04129
2289.04	7.77363
2290.46	8.5853
2291.88	7.50005
2293.29	7.40351
2294.71	7.76876
2296.13	8.83124
2297.55	9.41416
2298.97	9.6243
2300.39	9.48811
2301.81	9.68992
2303.23	9.99513
2304.64	10.0587
2306.06	10.6663
2307.48	11.7858
2308.89	12.0773
2310.31	12.7816
2311.73	13.314
2313.14	13.8107
2314.56	13.6253
2315.97	13.6152
2317.39	14.0958
2318.8	13.9843
2320.22	13.4075
2321.63	13.7447
2323.05	13.6234
2324.46	13.5838
2325.88	12.5908
2327.29	12.7757
2328.7	11.9298
2330.12	11.2936
2331.53	11.8042
2332.94	12.1792
2334.35	12.0634
2335.76	11.9387
2337.18	11.106
2338.59	10.0877
2340	9.65374
2341.41	9.49617
2342.82	9.73616
2344.23	9.69403
2345.64	9.6064
2347.05	9.89006
2348.46	9.66534
2349.87	8.6804
2351.28	8.31497
2352.69	7.36002
2354.1	6.8457
2355.5	7.3849
2356.91	6.19991
2358.32	6.65085
2359.73	5.73016
2361.14	5.95554
2362.54	5.56012
2363.95	5.50814
2365.36	6.15776
2366.76	6.64372
2368.17	6.70964
2369.58	6.58949
2370.98	5.69469
2372.39	5.51081
2373.79	5.41106
2375.2	5.34912
2376.6	5.06042
2378	5.49445
2379.41	5.2126
2380.81	4.59272
2382.22	4.07188
2383.62	4.04389
2385.02	4.69819
2386.42	5.02833
2387.83	5.13164
2389.23	5.06043
2390.63	5.28451
2392.03	5.22029
2393.43	4.53586
2394.84	4.29066
2396.24	4.05118
2397.64	4.07047
2399.04	4.00954
2400.44	4.37595
2401.84	4.79385
2403.24	4.80392
2404.64	4.21571
2406.04	4.16868
2407.44	4.66975
2408.83	5.22619
2410.23	6.05552
2411.63	6.24929
2413.03	6.28192
2414.43	7.1484
2415.83	7.70099
2417.22	7.50777
2418.62	7.50955
2420.02	7.05742
2421.41	6.92813
2422.81	6.73016
2424.21	7.01694
2425.6	7.29573
2427	6.801
2428.39	6.50365
2429.79	5.25582
2431.18	5.76569
2432.58	5.17178
2433.97	5.52245
2435.36	5.32144
2436.76	4.92862
2438.15	4.60231
2439.54	2.95994
2440.94	2.61704
2442.33	2.6189
2443.72	2.05316
2445.11	1.29374
2446.51	1.07728
2447.9	1.07737
2449.29	0.605333
2450.68	0.10729
2452.07	0.555412
2453.46	0.958248
2454.85	1.07
2456.24	0.28319
2457.63	0.411584
2459.02	0.210231
2460.41	-0.42907
2461.8	-0.681269
2463.19	-0.686496
2464.58	-0.555585
2465.97	-0.261159
2467.36	0.651627
2468.75	1.32016
2470.13	1.36859
2471.52	1.85011
2472.91	2.01513
2474.29	1.87101
2475.68	1.90555
2477.07	2.0155
2478.45	2.41203
2479.84	2.80202
2481.22	2.83836
2482.61	3.69184
2484	4.82314
2485.38	4.45408
2486.77	3.97645
2488.15	4.20039
2489.54	3.64189
2490.92	3.15885
2492.3	3.12892
2493.69	3.66974
2495.07	3.29998
2496.45	3.07414
2497.84	2.16865
2499.22	2.10971
2500.6	3.09767
2501.98	2.49719
2503.36	2.83167
2504.74	1.80472
2506.13	1.84355
2507.51	1.66351
2508.89	1.1792
2510.27	1.35176
2511.65	0.926234
2513.03	0.854159
2514.41	0.741723
2515.79	1.1286
2517.17	1.52741
2518.55	1.93493
2519.93	1.72072
2521.3	2.22708
2522.68	2.38498
2524.06	2.44878
2525.44	2.54383
2526.82	2.72411
2528.19	2.70743
2529.57	2.97906
2530.95	3.38047
2532.32	4.08112
2533.7	4.78958
2535.08	5.55678
2536.45	6.14633
2537.83	5.92723
2539.2	6.21596
2540.58	6.18421
2541.95	6.34753
2543.33	6.55973
2544.7	6.55637
2546.08	7.48497
2547.45	8.12754
2548.82	8.59536
2550.2	8.47691
2551.57	8.68552
2552.94	8.51861
2554.32	7.9477
2555.69	7.59473
2557.06	7.48071
2558.43	6.66029
2559.8	7.30771
2561.17	7.82093
2562.55	8.06454
2563.92	7.68066
2565.29	7.85736
2566.66	7.74313
2568.03	8.01201
2569.4	7.73032
2570.77	6.92124
2572.14	7.26556
2573.51	7.15646
2574.88	7.00394
2576.24	6.7351
2577.61	6.25092
2578.98	5.63483
2580.35	5.8699
2581.72	5.74745
2583.09	5.73157
2584.45	6.25981
2585.82	6.03535
2587.19	5.96946
2588.55	5.85168
2589.92	5.82313
2591.28	5.69393
2592.65	5.57772
2594.02	5.17861
2595.38	4.72242
2596.75	4.8798
2598.11	4.85601
2599.48	5.24069
2600.84	5.82479
2602.2	5.35794
2603.57	4.97363
2604.93	4.66008
2606.3	4.01613
2607.66	3.983
2609.02	3.63876
2610.38	3.77109
2611.75	3.31203
2613.11	3.16801
2614.47	3.12929
2615.83	3.12005
2617.19	3.01075
2618.56	2.16197
2619.92	2.04301
2621.28	1.74596
2622.64	1.40633
2624	1.44367
2625.36	1.88128
2626.72	2.07417
2628.08	3.19228
2629.44	2.74723
2630.8	2.58525
2632.15	2.73747
2633.51	3.40106
2634.87	3.67605
2636.23	3.89783
2637.59	3.92704
2638.94	4.26591
2640.3	4.54024
2641.66	4.41627
2643.02	4.50674
2644.37	4.71885
2645.73	5.2399
2647.08	5.54319
2648.44	6.36933
2649.8	6.32049
2651.15	6.71142
2652.51	6.48658
2653.86	6.49473
2655.22	6.41829
2656.57	6.37393
2657.92	5.78048
2659.28	5.90284
2660.63	5.75916
2661.99	5.66479
2663.34	6.05967
2664.69	6.05148
2666.04	6.35646
2667.4	6.08267
2668.75	5.19171
2670.1	4.50491
2671.45	4.43021
2672.81	4.17117
2674.16	3.74001
2675.51	4.34922
2676.86	4.10316
2678.21	3.91165
2679.56	3.87835
2680.91	3.6308
2682.26	3.50671
2683.61	3.04129
2684.96	2.71975
2686.31	2.44177
2687.66	2.82274
2689	3.32164
2690.35	3.70117
2691.7	3.87726
2693.05	4.11202
2694.4	4.23153
2695.74	4.528
2697.09	4.22522
2698.44	4.5491
2699.79	4.90568
2701.13	4.59531
2702.48	4.61533
2703.82	4.94286
2705.17	5.17358
2706.52	5.33133
2707.86	5.69792
2709.21	5.63894
2710.55	6.16423
2711.9	6.41701
2713.24	6.85055
2714.58	6.34255
2715.93	6.1688
2717.27	6.57109
2718.61	6.47325
2719.96	6.46032
2721.3	6.73202
2722.64	6.84561
2723.99	7.73701
2725.33	7.31748
2726.67	7.85331
2728.01	7.91442
2729.35	8.12076
2730.7	7.93101
2732.04	7.97387
2733.38	8.09216
2734.72	8.04941
2736.06	8.04366
2737.4	8.37165
2738.74	8.7212
2740.08	8.49721
2741.42	8.44758
2742.76	8.6876
2744.09	8.26724
2745.43	8.36636
2746.77	8.55305
2748.11	8.54938
2749.45	8.69093
2750.79	8.45884
2752.12	9.10299
2753.46	9.09514
2754.8	9.21661
2756.13	8.69162
2757.47	7.82144
2758.81	7.67032
2760.14	7.81309
2761.48	7.8761
2762.81	7.28845
2764.15	7.1891
2765.49	7.33497
2766.82	7.26528
2768.15	6.76153
2769.49	7.42549
2770.82	6.8028
2772.16	6.0609
2773.49	5.05501
2774.82	4.38101
2776.16	3.80682
2777.49	4.3115
2778.82	3.929
2780.16	3.08286
2781.49	2.79296
2782.82	2.70913
2784.15	2.9976
2785.48	2.08312
2786.81	2.2932
2788.15	1.9419
2789.48	1.40028
2790.81	1.22
2792.14	0.387971
2793.47	0.410137
2794.8	0.105236
2796.13	-0.0679204
2797.46	-0.432947
2798.79	-0.0515706
2800.12	-0.428129
2801.44	-0.395365
2802.77	-0.776847
2804.1	-0.968715
2805.43	-1.27529
2806.76	-1.33619
2808.08	-1.66011
2809.41	-1.51416
2810.74	-1.54063
2812.07	-1.17663
2813.39	-1.27891
2814.72	-1.32711
2816.05	-1.07324
2817.37	-0.302622
2818.7	0.57069
2820.02	1.15138
2821.35	1.76428
2822.67	2.42871
2824	3.57433
2825.32	5.07395
2826.65	6.19678
2827.97	7.16359
2829.29	7.4073
2830.62	8.59247
2831.94	10.2819
2833.26	11.1889
2834.59	12.4159
2835.91	13.8168
2837.23	15.0423
2838.55	17.1726
2839.88	19.1517
2841.2	22.327
2842.52	25.157
2843.84	28.6504
2845.16	31.1417
2846.48	34.2092
2847.8	37.7258
2849.12	40.9345
2850.44	44.6728
2851.76	49.3067
2853.08	53.5999
2854.4	57.167
2855.72	60.5624
2857.04	64.3959
2858.36	68.134
2859.68	71.8284
2861	75.1786
2862.32	78.5468
2863.63	82.4151
2864.95	85.8974
2866.27	88.6604
2867.58	91.6919
2868.9	94.4303
2870.22	97.2631
2871.53	100.555
2872.85	103.004
2874.17	105.457
2875.48	107.773
2876.8	109.727
2878.11	112.234
2879.43	114.162
2880.74	116.32
2882.06	118.254
2883.37	120.546
2884.69	121.953
2886	123.686
2887.31	124.89
2888.63	126.547
2889.94	128.112
2891.25	129.377
2892.57	130.865
2893.88	132.919
2895.19	135.151
2896.5	138.276
2897.82	141.16
2899.13	143.808
2900.44	147.325
2901.75	150.655
2903.06	154.838
2904.37	158.841
2905.68	163.451
2906.99	168.659
2908.3	172.952
2909.61	177.311
2910.92	181.254
2912.23	186.872
2913.54	191.907
2914.85	197.214
2916.16	201.684
2917.46	206.524
2918.77	209.506
2920.08	213.041
2921.39	216.461
2922.7	219.776
2924	223.078
2925.31	224.971
2926.62	226.462
2927.92	227.511
2929.23	228.839
2930.53	228.935
2931.84	229.397
2933.15	229.072
2934.45	228.509
2935.76	227.992
2937.06	226.399
2938.37	224.293
2939.67	221.695
2940.98	218.827
2942.28	216.072
2943.58	213.168
2944.89	209.483
2946.19	205.879
2947.49	202.185
2948.8	198.656
2950.1	194.126
2951.4	189.791
2952.7	185.458
2954.01	181.223
2955.31	176.793
2956.61	172.248
2957.91	168.455
2959.21	165.192
2960.51	161.138
2961.81	157.134
2963.11	153.895
2964.41	149.959
2965.71	146.664
2967.01	142.947
2968.31	139.865
2969.61	136.729
2970.91	133.196
2972.21	129.013
2973.51	125.176
2974.81	121.747
2976.1	118.769
2977.4	115.819
2978.7	111.703
2980	108.27
2981.29	104.693
2982.59	101.523
2983.89	97.7074
2985.18	93.9983
2986.48	90.0673
2987.78	85.6034
2989.07	81.6557
2990.37	77.3699
2991.66	73.5355
2992.96	69.8489
2994.25	66.5329
2995.55	62.6738
2996.84	58.9319
2998.14	54.8546
2999.43	51.6887
3000.72	48.855
3002.02	45.5508
3003.31	42.0857
3004.6	38.187
3005.9	35.0877
3007.19	32.6214
3008.48	29.402
3009.77	26.5144
3011.07	24.2077
3012.36	21.371
3013.65	19.3501
3014.94	16.6237
3016.23	14.3219
3017.52	13.313
3018.81	11.5048
3020.1	10.2935
3021.39	9.07269
3022.68	7.9117
3023.97	7.3269
3025.26	5.65559
3026.55	5.07504
3027.84	4.98046
3029.13	4.25541
3030.42	4.40888
3031.71	3.63127
3033	3.73703
3034.28	3.44596
3035.57	2.41826
3036.86	2.51399
3038.15	3.23135
3039.43	3.60149
3040.72	3.1239
3042.01	3.74929
3043.29	4.20151
3044.58	4.77318
3045.86	5.36819
3047.15	5.74585
3048.44	5.95972
3049.72	6.42466
3051.01	6.89748
3052.29	6.70708
3053.58	7.35161
3054.86	7.71999
3056.14	7.62212
3057.43	7.81559
3058.71	7.98623
3060	8.54094
3061.28	8.56199
3062.56	9.13993
3063.84	9.09367
3065.13	9.07519
3066.41	8.1832
3067.69	7.821
3068.97	7.38704
3070.25	7.14925
3071.54	7.76599
3072.82	7.14358
3074.1	7.05844
3075.38	6.92548
3076.66	6.3031
3077.94	5.97541
3079.22	4.95008
3080.5	4.69785
3081.78	4.47048
3083.06	3.60724
3084.34	3.24711
3085.62	2.4869
3086.9	1.68998
3088.17	2.0594
3089.45	1.66998
3090.73	2.05746
3092.01	1.80574
3093.29	1.61802
3094.56	1.05621
3095.84	0.710773
3097.12	0.386186
3098.4	0.208893
3099.67	-0.371938
3100.95	-0.196925
3102.22	-0.222502
3103.5	-0.344159
3104.77	-0.367824
3106.05	0.343712
3107.33	0.472077
3108.6	1.14653
3109.88	1.57843
3111.15	1.74904
3112.43	1.4965
3113.7	1.90408
3114.97	2.2139
3116.25	2.34518
3117.52	2.79997
3118.79	2.98103
3120.07	3.24473
3121.34	4.08223
3122.61	4.35925
3123.88	4.99889
3125.16	4.92272
3126.43	5.64884
3127.7	5.59419
3128.97	6.20177
3130.24	6.71152
3131.51	7.64487
3132.78	7.71149
3134.05	8.49636
3135.33	9.17594
3136.59	8.81948
3137.86	8.7342
3139.14	8.71501
3140.41	8.87504
3141.67	9.02393
3142.94	9.21689
3144.21	9.37765
3145.48	9.38462
3146.75	9.39078
3148.02	9.26737
3149.28	9.68437
