#Acq. time (s)=	45
#Accumulations=	2
#Range (cm-¹)=	200...3150
#Windows=	2
#Auto scanning=	Off
#Autofocus=	Off
#Macrospot=	Off
#AutoExposure=	Off
#Spike filter=	Multiple accum.
#Delay time (s)=	0
#Binning=	1
#Readout mode=	Signal
#DeNoise=	Off
#ICS correction=	On
#Dark correction=	Off
#Inst. Process=	Off
#Detector Gain=	Best Dynamic Range
#Detector ADC=	20 kHz       
#Detector temperature (°C)=	-69.85
#Instrument=	LabRAM HR Evol
#Detector=	Synapse
#Objective=	x100
#Grating=	600 gr/mm
#ND Filter=	100%
#Laser (nm)=	532 
#Hole=	100.021
#Range=	Auto
#Laser Pol.=	No
#Raman. Pol.=	No
#Laser Pol. (°)=	-0.0007625
#Raman Pol. (°)=	89.9995
#Collection=	Microscope
#StageXY=	Marzhauser
#StageZ=	Marzhauser
#X (µm)=	-632.5
#Y (µm)=	-1708.7
#Z (µm)=	88.75
#Full time(mm:ss)=	3:18
#Project=	
#Sample=	
#Site=	
#Title=	Mb_10_14_49_2x_45s_532 nm_x100_100%_600 gr_mm
#Remark=	
#Date=	11.07.2022 12:23
#Acquired=	11.07.2022 12:23:06
#Base:Fit=	10.08.2022 10:21:11
#Base:Sub=	10.08.2022 10:21:41
#Filter:Polynom=	16.08.2022 10:17:53
#AxisType[0]=Intens
#AxisUnit[0]=Cnt
#AxisType[1]=Spectr
#AxisUnit[1]=1/cm
200.388	32.0997
202.204	30.7655
204.019	28.0633
205.832	24.2527
207.646	20.6324
209.459	17.7105
211.274	15.1133
213.087	13.0844
214.899	11.9155
216.711	10.0196
218.524	9.5136
220.335	8.94418
222.146	8.53019
223.956	8.46037
225.766	8.41488
227.576	8.34783
229.388	7.5994
231.197	9.09138
233.005	10.7395
234.813	11.1678
236.621	11.9057
238.429	12.3864
240.236	13.0053
242.045	13.3127
243.852	13.5091
245.658	13.7061
247.464	14.5608
249.269	15.1221
251.074	15.8111
252.879	16.6647
254.683	17.044
256.487	18.4485
258.291	18.5971
260.094	19.5739
261.897	19.4027
263.702	17.9965
265.504	17.2071
267.306	17.4566
269.108	17.7479
270.909	17.5519
272.71	17.3841
274.511	16.6413
276.311	15.7149
278.111	15.2594
279.91	13.7774
281.709	12.8941
283.508	12.2521
285.306	11.1902
287.105	10.8817
288.9	10.1246
290.698	9.34963
292.495	8.37387
294.291	8.6959
296.088	8.64112
297.884	8.66682
299.679	7.8606
301.475	8.8014
303.27	8.51678
305.064	7.99002
306.858	7.23702
308.652	8.13895
310.444	8.3473
312.237	8.99584
314.03	9.08803
315.822	8.7584
317.615	9.2217
319.406	9.93465
321.198	10.7982
322.987	9.9973
324.778	9.67003
326.568	10.0989
328.358	9.7667
330.148	9.57861
331.935	9.08731
333.724	9.99219
335.513	9.89231
337.301	10.8886
339.089	10.8612
340.875	10.8266
342.662	10.959
344.449	10.7383
346.236	11.7496
348.02	12.0692
349.806	11.8513
351.592	12.4285
353.375	13.718
355.16	16.014
356.944	18.0068
358.728	19.4417
360.51	20.6161
362.294	21.8624
364.077	23.0357
365.858	23.9312
367.64	25.9277
369.422	27.1411
371.202	29.4547
372.983	30.874
374.764	32.0307
376.543	33.4809
378.324	34.1194
380.102	34.4682
381.881	34.776
383.661	35.5741
385.438	36.2581
387.216	36.9578
388.993	37.064
390.771	36.7018
392.548	36.4759
394.324	36.3778
396.101	36.0612
397.875	35.9123
399.651	36.0554
401.425	34.4199
403.201	32.9766
404.974	31.6497
406.749	30.4302
408.524	27.8538
410.296	25.6979
412.07	23.8323
413.841	22.1203
415.614	21.0147
417.385	19.5598
419.156	18.5061
420.928	16.7028
422.698	15.6826
424.469	13.8727
426.238	13.9591
428.009	11.9021
429.777	10.6
431.548	10.1527
433.315	9.69645
435.083	10.4166
436.852	9.69573
438.618	9.67174
440.387	10.8301
442.153	10.5336
443.919	11.0674
445.686	10.6865
447.451	11.0277
449.218	10.0587
450.982	9.8112
452.746	9.30908
454.512	8.90198
456.275	10.6119
458.038	10.3958
459.803	11.1273
461.565	11.7845
463.327	12.9667
465.091	13.7589
466.852	14.421
468.613	15.9293
470.374	16.9236
472.136	17.9306
473.896	19.4402
475.655	19.0003
477.415	19.6282
479.176	20.9981
480.934	22.5488
482.692	23.1109
484.45	23.9941
486.21	25.9541
487.967	26.9264
489.724	26.596
491.481	27.6722
493.237	27.6936
494.995	28.2358
496.75	28.4441
498.506	29.3492
500.26	29.1587
502.015	29.2473
503.769	30.6544
505.525	30.8794
507.279	30.4139
509.032	30.7005
510.785	31.3409
512.537	32.6497
514.289	33.1528
516.041	32.765
517.793	32.8953
519.546	33.1603
521.297	33.4255
523.047	33.8517
524.797	33.3877
526.547	33.5469
528.297	33.3285
530.046	31.9174
531.795	30.5208
533.543	27.8898
535.291	25.9278
537.039	25.2082
538.787	25.6985
540.534	26.0609
542.281	25.5364
544.027	25.5534
545.773	23.9745
547.519	22.1601
549.264	21.9633
551.01	20.6936
552.754	19.2022
554.499	18.8774
556.243	17.0605
557.987	14.848
559.73	13.3715
561.474	12.2124
563.216	11.0645
564.959	11.1514
566.701	10.3814
568.441	9.09209
570.182	8.54176
571.923	7.60147
573.664	7.4711
575.405	6.57547
577.145	6.05938
578.885	5.4115
580.624	4.69346
582.361	4.89124
584.1	4.09417
585.839	4.15755
587.577	5.08495
589.315	5.73281
591.052	6.88677
592.787	7.3983
594.524	7.88183
596.26	8.219
597.997	8.60765
599.732	10.0849
601.466	10.3725
603.201	11.3697
604.936	11.8986
606.67	12.8544
608.403	14.4286
610.136	14.3155
611.87	14.3513
613.603	14.9405
615.334	15.4867
617.067	15.482
618.799	15.7268
620.529	16.7246
622.26	17.4135
623.991	18.356
625.72	19.1354
627.451	18.2893
629.181	18.9987
630.909	20.2576
632.638	20.359
634.368	21.3333
636.095	22.1724
637.823	21.6377
639.551	21.6445
641.277	21.908
643.005	21.3152
644.73	21.8306
646.457	22.434
648.184	23.9273
649.908	24.616
651.634	25.0848
653.357	24.6909
655.083	24.6144
656.806	25.0234
658.53	25.8712
660.253	26.6961
661.977	25.8225
663.7	25.9634
665.422	25.9878
667.145	26.3429
668.865	26.9729
670.588	27.1221
672.308	27.4974
674.027	27.9983
675.749	27.5064
677.468	27.5133
679.188	27.5067
680.907	29.0064
682.627	28.1948
684.345	28.6428
686.064	29.0834
687.781	29.4112
689.498	30.3256
691.216	30.4769
692.932	30.3181
694.65	31.0611
696.366	30.8497
698.081	31.235
699.797	31.8773
701.512	32.319
703.228	32.1792
704.942	32.874
706.655	33.0085
708.371	33.415
710.083	34.8106
711.796	36.1451
713.51	37.5276
715.222	39.445
716.934	40.1246
718.645	39.6231
720.358	40.5409
722.068	40.6554
723.779	41.8942
725.49	42.2464
727.2	43.5289
728.909	44.1456
730.618	45.1203
732.329	46.5061
734.037	47.3304
735.745	47.141
737.453	47.0933
739.16	46.5262
740.869	47.5718
742.576	48.8031
744.282	50.0912
745.988	49.9666
747.694	50.7811
749.401	52.3728
751.107	53.0635
752.811	54.7534
754.516	56.9784
756.22	57.233
757.924	57.0081
759.627	57.9847
761.332	59.1792
763.035	60.0834
764.738	62.397
766.44	63.8776
768.142	63.6637
769.843	65.4576
771.544	67.2643
773.245	68.0471
774.946	69.7158
776.646	70.2727
778.346	71.3974
780.046	72.7686
781.745	72.1722
783.444	72.4936
785.143	73.7767
786.841	74.4159
788.539	75.2385
790.237	76.5097
791.934	77.0332
793.631	77.9846
795.328	78.3845
797.024	78.5703
798.72	79.456
800.416	79.5025
802.112	80.0125
803.807	80.1908
805.502	80.5582
807.196	81.2268
808.89	81.5818
810.584	81.4362
812.278	81.9473
813.971	82.5975
815.664	82.839
817.354	82.162
819.047	82.1824
820.739	83.2237
822.43	83.2474
824.122	83.1047
825.813	83.6244
827.503	83.8102
829.192	84.2995
830.882	84.053
832.571	84.4174
834.261	83.9903
835.95	84.2846
837.637	84.0797
839.325	83.4021
841.013	81.4404
842.701	80.2939
844.389	81.098
846.074	81.1999
847.761	80.2665
849.447	79.973
851.131	78.0666
852.817	76.4028
854.503	75.0303
856.188	74.7591
857.871	73.4691
859.556	73.5007
861.24	71.5701
862.922	68.9476
864.606	66.0474
866.289	63.5182
867.97	62.7424
869.653	61.5561
871.336	60.5609
873.016	58.9953
874.698	57.4328
876.379	55.9377
878.058	54.4616
879.739	52.8909
881.418	52.2829
883.098	51.5771
884.778	51.1622
886.456	50.5671
888.135	49.2816
889.812	48.3466
891.49	48.3111
893.167	47.703
894.845	47.5078
896.523	47.9242
898.198	48.3467
899.875	48.0812
901.55	48.7518
903.226	50.1714
904.901	50.0279
906.576	49.5198
908.25	49.6913
909.925	49.9367
911.598	50.1397
913.271	51.057
914.945	50.7944
916.617	50.7582
918.291	51.6574
919.962	51.5832
921.635	52.0339
923.306	52.1086
924.978	52.1381
926.648	53.425
928.318	52.8853
929.989	53.0887
931.659	52.6458
933.328	52.5803
934.998	51.7336
936.666	51.0652
938.336	51.0101
940.004	50.7179
941.671	48.6988
943.34	47.2624
945.007	45.1443
946.673	43.382
948.339	42.8837
950.007	42.6348
951.672	41.85
953.337	40.706
955.004	39.733
956.669	38.1891
958.333	38.0236
959.997	36.7231
961.662	35.5721
963.326	35.4933
964.989	36.6875
966.651	36.6769
968.315	36.8837
969.977	37.4757
971.639	37.3851
973.301	38.0585
974.962	37.956
976.624	39.4835
978.285	40.539
979.945	40.3328
981.605	39.7684
983.264	40.3871
984.924	39.2795
986.583	39.6684
988.243	39.3076
989.901	39.6448
991.56	39.6137
993.217	39.7652
994.875	40.0278
996.532	40.5299
998.188	40.5266
999.845	41.2893
1001.5	41.8499
1003.16	41.9052
1004.81	43.515
1006.47	43.3118
1008.12	44.3039
1009.78	45.0737
1011.43	43.6731
1013.09	45.6491
1014.74	46.3039
1016.39	46.4046
1018.05	46.4941
1019.7	46.5849
1021.35	45.769
1023	45.5425
1024.65	46.0876
1026.31	46.5137
1027.96	47.1863
1029.61	47.5759
1031.26	47.9516
1032.91	47.2041
1034.56	46.8518
1036.21	47.0857
1037.86	47.4948
1039.51	46.8961
1041.16	45.5888
1042.8	44.9321
1044.45	45.4418
1046.1	45.9412
1047.75	45.1186
1049.39	43.14
1051.04	42.1685
1052.69	41.0464
1054.33	39.6416
1055.98	38.7078
1057.62	37.7196
1059.27	37.1407
1060.91	34.8431
1062.56	32.5829
1064.2	32.0001
1065.85	31.8588
1067.49	30.0853
1069.13	30.8668
1070.77	30.0714
1072.42	29.2399
1074.06	28.0868
1075.7	26.6722
1077.34	25.5675
1078.98	24.6759
1080.62	25.2185
1082.27	24.3794
1083.91	24.528
1085.55	25.1726
1087.18	25.4347
1088.82	24.631
1090.46	25.2214
1092.1	24.6545
1093.74	24.4193
1095.38	24.8918
1097.02	24.5971
1098.65	23.7783
1100.29	24.3136
1101.93	23.6184
1103.56	23.6644
1105.2	24.0297
1106.84	23.571
1108.47	22.8706
1110.11	22.6902
1111.74	21.9336
1113.38	21.724
1115.01	20.8817
1116.64	19.7837
1118.28	18.1226
1119.91	16.4082
1121.54	14.5007
1123.18	13.4638
1124.81	13.519
1126.44	12.6937
1128.07	13.4516
1129.7	13.3049
1131.33	12.9826
1132.97	12.8513
1134.6	11.9691
1136.23	11.6551
1137.86	10.3347
1139.49	10.1167
1141.11	9.74635
1142.74	10.3653
1144.37	10.6952
1146	11.3579
1147.63	11.3499
1149.26	10.913
1150.88	10.5237
1152.51	9.60815
1154.14	8.27235
1155.76	7.87279
1157.39	8.12023
1159.01	7.69574
1160.64	7.44583
1162.27	6.94887
1163.89	6.02876
1165.51	6.19356
1167.14	6.4287
1168.76	6.6196
1170.39	7.12641
1172.01	7.21461
1173.63	6.86534
1175.25	7.74677
1176.88	7.43099
1178.5	7.61194
1180.12	8.50127
1181.74	8.6917
1183.36	7.6274
1184.98	7.91205
1186.6	7.63907
1188.22	8.70175
1189.84	10.3338
1191.46	11.4295
1193.08	12.2959
1194.7	13.2875
1196.32	13.531
1197.94	14.4368
1199.55	16.1399
1201.17	18.8329
1202.79	20.3761
1204.41	22.2012
1206.02	22.7217
1207.64	23.9162
1209.25	25.7926
1210.87	25.3487
1212.48	25.8562
1214.1	27.7276
1215.71	28.7923
1217.33	30.5004
1218.94	31.0502
1220.56	33.8317
1222.17	34.4459
1223.79	35.8407
1225.4	35.3295
1227.01	35.9775
1228.62	35.9642
1230.23	35.9319
1231.85	36.4653
1233.46	37.1011
1235.07	37.5955
1236.68	38.2753
1238.29	37.5995
1239.9	37.6153
1241.51	38.3761
1243.12	39.2001
1244.73	40.3167
1246.34	41.0578
1247.94	41.696
1249.55	41.3136
1251.16	40.7905
1252.77	39.6826
1254.37	39.7875
1255.98	39.376
1257.59	38.5791
1259.2	39.0172
1260.8	39.1175
1262.41	37.8008
1264.01	38.1795
1265.62	38.5747
1267.22	39.2798
1268.83	39.5487
1270.43	39.7258
1272.03	39.7686
1273.64	40.2589
1275.24	40.9258
1276.85	40.359
1278.45	40.258
1280.05	39.9855
1281.65	40.3962
1283.25	40.4528
1284.85	39.9763
1286.46	39.834
1288.06	40.1363
1289.66	40.7237
1291.26	40.9446
1292.86	41.8616
1294.46	42.8583
1296.06	43.3121
1297.66	43.267
1299.25	43.9919
1300.85	45.3075
1302.45	45.2963
1304.05	46.1051
1305.65	46.7568
1307.24	48.1247
1308.84	49.6454
1310.43	49.5239
1312.03	50.9179
1313.63	51.5215
1315.22	52.7104
1316.82	53.6156
1318.41	54.2203
1320.01	54.961
1321.6	55.3474
1323.2	55.3855
1324.79	56.0115
1326.38	56.4248
1327.98	56.3089
1329.57	55.8924
1331.16	55.7078
1332.76	55.2741
1334.35	55.0917
1335.94	54.1839
1337.53	54.7413
1339.12	54.3614
1340.71	53.8492
1342.3	53.7695
1343.89	54.7318
1345.48	54.1912
1347.07	53.5651
1348.66	51.9391
1350.25	51.7718
1351.84	51.1964
1353.43	50.3037
1355.01	49.4013
1356.6	48.2917
1358.19	47.782
1359.77	47.9405
1361.36	48.155
1362.95	46.3486
1364.53	44.7841
1366.12	44.6252
1367.71	43.5028
1369.29	43.7067
1370.88	42.8581
1372.46	42.8574
1374.04	42.0827
1375.63	40.2307
1377.21	38.9178
1378.8	38.883
1380.38	38.6285
1381.96	38.266
1383.54	37.6176
1385.13	38.1675
1386.71	38.0123
1388.29	38.357
1389.87	36.9684
1391.45	38.7084
1393.03	38.327
1394.61	37.6613
1396.19	37.3858
1397.77	37.3087
1399.35	35.9757
1400.93	36.4834
1402.51	36.2397
1404.09	36.2528
1405.67	35.8767
1407.24	35.547
1408.82	35.8984
1410.4	36.3576
1411.98	37.8864
1413.55	38.9323
1415.13	40.346
1416.71	41.8461
1418.28	43.4143
1419.86	44.6761
1421.43	46.5274
1423.01	48.5106
1424.58	49.6896
1426.16	51.1159
1427.73	53.3375
1429.31	56.2683
1430.88	57.8223
1432.45	59.5549
1434.02	61.4951
1435.6	63.1471
1437.17	65.507
1438.74	67.2754
1440.31	68.5224
1441.88	68.1901
1443.45	69.3952
1445.03	69.4869
1446.6	70.0121
1448.17	70.8528
1449.74	69.6046
1451.3	69.7883
1452.87	69.1817
1454.44	69.3895
1456.01	69.3537
1457.58	69.3972
1459.15	69.4771
1460.72	68.0464
1462.28	67.2127
1463.85	67.0365
1465.42	65.1769
1466.98	63.5111
1468.55	61.2217
1470.12	59.9127
1471.68	57.4841
1473.25	55.5538
1474.81	53.8268
1476.38	51.2108
1477.94	48.5321
1479.51	48.1374
1481.07	46.8107
1482.63	45.2445
1484.2	44.0568
1485.76	42.0667
1487.32	41.3742
1488.88	40.4822
1490.45	39.3231
1492.01	37.0076
1493.57	35.522
1495.13	34.6747
1496.69	33.9125
1498.25	32.6474
1499.81	33.0627
1501.37	32.9255
1502.93	32.1655
1504.49	31.8286
1506.05	31.9514
1507.61	31.0755
1509.17	29.4806
1510.73	28.4862
1512.28	28.314
1513.84	27.6547
1515.4	27.0614
1516.96	25.2751
1518.51	25.3616
1520.07	23.5266
1521.63	23.3655
1523.18	23.1178
1524.74	23.0939
1526.29	22.4123
1527.85	21.1529
1529.4	21.6073
1530.96	21.0599
1532.51	20.3672
1534.06	19.0158
1535.62	18.9105
1537.17	18.5686
1538.72	18.398
1540.28	19.5991
1541.83	19.763
1543.38	19.6673
1544.93	20.0076
1546.48	20.7975
1548.03	21.4001
1549.59	21.2621
1551.14	22.575
1552.69	23.5522
1554.24	23.905
1555.79	24.5217
1557.34	25.5367
1558.88	25.2517
1560.43	25.3766
1561.98	26.3593
1563.53	26.9911
1565.08	28.5547
1566.62	28.6695
1568.17	29.2889
1569.72	31.4112
1571.27	32.8951
1572.81	34.7496
1574.36	35.1197
1575.9	36.8563
1577.45	38.2643
1579	38.2932
1580.54	39.3613
1582.09	39.956
1583.63	40.7447
1585.17	40.851
1586.72	41.8011
1588.26	42.1614
1589.8	43.4786
1591.35	43.3491
1592.89	44.684
1594.43	45.2094
1595.97	45.1953
1597.52	44.9483
1599.06	46.7064
1600.6	46.3044
1602.14	46.0867
1603.68	45.592
1605.22	44.5803
1606.76	44.7763
1608.3	44.446
1609.84	44.0334
1611.38	44.1528
1612.92	45.0465
1614.46	45.1139
1615.99	45.16
1617.53	45.4137
1619.07	43.713
1620.61	43.8926
1622.14	43.7735
1623.68	43.9341
1625.22	43.8197
1626.75	44.6635
1628.29	46.1862
1629.82	46.7831
1631.36	46.9614
1632.9	47.9319
1634.43	48.6461
1635.96	49.2192
1637.5	50.5113
1639.03	51.3957
1640.57	52.5443
1642.1	54.5861
1643.63	55.3899
1645.16	57.151
1646.7	58.3875
1648.23	58.3964
1649.76	59.3144
1651.29	59.9827
1652.82	61.6093
1654.36	62.0315
1655.89	62.3367
1657.42	62.9503
1658.95	63.5135
1660.48	64.3938
1662.01	64.6438
1663.53	64.1453
1665.06	63.8394
1666.59	64.1451
1668.12	63.8781
1669.65	63.0308
1671.18	61.3744
1672.7	60.7882
1674.23	59.8442
1675.76	58.5379
1677.29	55.6184
1678.81	54.1385
1680.34	52.1219
1681.86	50.3555
1683.39	48.9498
1684.91	47.1473
1686.44	44.5623
1687.96	43.1481
1689.49	40.81
1691.01	37.9333
1692.54	36.0797
1694.06	34.0744
1695.58	32.0962
1697.11	30.4517
1698.63	28.9522
1700.15	28.3105
1701.67	27.5041
1703.2	26.5784
1704.72	25.2744
1706.24	24.0902
1707.76	21.782
1709.28	20.1682
1710.8	17.7756
1712.32	16.4008
1713.84	14.2291
1715.36	13.0062
1716.88	12.5755
1718.4	12.0692
1719.91	10.4728
1721.43	9.49649
1722.95	9.69534
1724.47	9.21045
1725.99	9.83033
1727.5	9.61164
1729.02	9.30647
1730.54	8.62454
1732.05	8.33067
1733.57	8.08356
1735.09	8.88428
1736.6	8.25965
1738.12	8.02831
1739.63	8.14649
1741.15	8.27817
1742.66	7.19193
1744.18	6.97886
1745.69	6.50083
1747.2	6.47697
1748.72	6.62697
1750.23	6.00384
1751.74	6.2447
1753.25	6.09636
1754.77	6.25708
1756.28	6.12186
1757.79	6.71781
1759.3	6.93889
1760.81	7.2789
1762.32	6.81689
1763.83	7.21675
1765.34	6.31923
1766.85	6.60417
1768.36	7.09018
1769.87	7.39979
1771.38	7.19753
1772.89	6.59113
1774.4	7.28675
1775.91	7.89278
1777.41	7.07302
1778.92	6.56905
1780.43	6.86319
1781.94	6.73206
1783.44	6.49107
1784.95	6.33789
1786.45	5.83551
1787.96	6.19987
1789.47	6.06647
1790.97	6.87471
1792.47	8.01173
1793.98	8.02702
1795.48	7.63639
1796.99	7.92232
1798.49	8.43719
1800	8.09452
1801.5	8.34993
1803	8.06296
1804.51	7.41919
1806.01	6.89516
1807.51	6.60976
1809.01	6.06797
1810.51	5.64371
1812.02	5.12764
1813.52	5.32347
1815.02	4.87445
1816.52	3.83614
1818.02	3.5903
1819.52	3.84569
1821.02	3.81199
1822.52	2.8892
1824.02	2.42256
1825.51	2.10826
1827.01	1.85683
1828.51	1.65203
1830.01	0.941247
1831.51	0.751769
1833	0.304315
1834.5	-0.495621
1836	-0.684315
1837.49	-0.932648
1838.99	-0.902569
1840.49	-0.647748
1841.98	-0.465382
1843.48	-1.00128
1844.97	-1.87412
1846.47	-2.5768
1847.96	-1.70621
1849.46	-0.881594
1850.95	-0.484933
1852.45	-0.6075
1853.94	0.603126
1855.43	1.81539
1856.92	1.5017
1858.42	2.32411
1859.91	2.73645
1861.4	2.93861
1862.89	3.33136
1864.39	4.15032
1865.88	4.58576
1867.37	4.91469
1868.86	4.4586
1870.35	4.68704
1871.84	4.98486
1873.33	6.13209
1874.82	7.59461
1876.31	7.67715
1877.8	8.47769
1879.29	8.1853
1880.77	8.56793
1882.26	8.76418
1882.52	8.925
1884.02	9.57805
1885.51	10.5528
1887.01	11.4602
1888.5	11.2833
1889.99	10.4472
1891.49	10.4184
1892.98	10.6053
1894.47	10.7386
1895.96	10.2811
1897.46	10.0037
1898.95	9.44131
1900.44	9.01755
1901.93	8.53356
1903.42	8.10077
1904.91	8.41656
1906.4	7.82977
1907.89	7.52302
1909.38	7.60545
1910.87	6.81788
1912.36	5.82207
1913.85	5.47971
1915.34	4.58331
1916.83	4.18456
1918.32	3.57343
1919.8	3.48237
1921.29	4.23363
1922.78	3.32484
1924.27	2.57623
1925.75	2.56012
1927.24	2.10934
1928.73	1.33996
1930.21	1.059
1931.7	1.33145
1933.18	0.891905
1934.67	0.188918
1936.15	0.888965
1937.64	2.03478
1939.12	1.87191
1940.61	1.98552
1942.09	2.46096
1943.57	2.53311
1945.06	3.86383
1946.54	5.23223
1948.02	5.47611
1949.51	5.61129
1950.99	6.43509
1952.47	6.10779
1953.95	7.05702
1955.43	7.14639
1956.91	7.73202
1958.39	7.80475
1959.87	8.39714
1961.36	8.4981
1962.84	7.09068
1964.32	6.38485
1965.79	7.59714
1967.27	8.02834
1968.75	7.33858
1970.23	7.5879
1971.71	7.557
1973.19	7.6081
1974.66	7.6281
1976.14	7.76178
1977.62	7.79918
1979.1	6.98928
1980.57	7.11744
1982.05	7.40308
1983.53	6.96965
1985	7.27472
1986.48	7.27608
1987.95	7.49504
1989.43	7.23264
1990.9	6.52469
1992.38	5.89815
1993.85	5.40625
1995.33	5.66075
1996.8	5.10624
1998.27	5.40369
1999.75	5.54765
2001.22	5.88521
2002.69	5.91498
2004.16	6.13034
2005.64	6.40176
2007.11	6.45226
2008.58	6.67229
2010.05	7.48146
2011.52	7.48506
2012.99	7.13443
2014.46	7.43274
2015.93	8.05281
2017.4	7.61762
2018.87	9.32953
2020.34	9.54294
2021.81	8.9154
2023.28	8.9258
2024.75	9.11892
2026.22	8.45072
2027.69	8.01795
2029.15	7.65006
2030.62	6.82705
2032.09	6.40162
2033.56	6.18377
2035.02	5.22006
2036.49	4.82737
2037.95	5.47975
2039.42	6.39046
2040.89	5.77454
2042.35	5.69499
2043.82	6.62721
2045.28	6.37338
2046.75	5.80843
2048.21	5.62514
2049.67	5.73212
2051.14	5.34875
2052.6	4.80834
2054.06	5.4184
2055.53	5.41794
2056.99	5.95917
2058.45	6.58711
2059.92	5.84067
2061.38	5.33387
2062.84	5.02047
2064.3	4.50254
2065.76	4.57953
2067.22	4.27814
2068.68	5.35893
2070.14	6.38718
2071.6	6.60589
2073.06	7.08965
2074.52	6.94123
2075.98	6.52546
2077.44	6.74164
2078.9	7.11025
2080.36	7.04868
2081.82	7.24112
2083.27	7.54095
2084.73	7.60331
2086.19	8.43541
2087.65	8.2742
2089.1	8.17018
2090.56	8.45098
2092.01	9.17744
2093.47	8.64345
2094.93	7.75129
2096.38	7.7375
2097.84	7.18141
2099.29	6.67823
2100.75	6.51121
2102.2	7.11281
2103.66	6.04224
2105.11	6.57079
2106.56	6.68804
2108.02	6.78341
2109.47	7.65057
2110.92	7.16482
2112.37	7.31443
2113.83	6.94682
2115.28	7.12259
2116.73	6.71404
2118.18	5.9854
2119.63	4.69968
2121.09	3.99928
2122.54	3.87125
2123.99	3.71879
2125.44	3.58568
2126.89	4.27643
2128.34	4.20908
2129.79	4.07898
2131.23	4.06798
2132.68	4.4094
2134.13	5.12895
2135.58	5.42736
2137.03	6.56506
2138.48	7.14238
2139.92	8.14867
2141.37	10.3476
2142.82	11.2074
2144.26	11.088
2145.71	12.1119
2147.16	12.6025
2148.6	13.4131
2150.05	14.5678
2151.49	16.2707
2152.94	16.8888
2154.38	17.6105
2155.83	18.1281
2157.27	19.0433
2158.72	19.9905
2160.16	20.294
2161.6	21.5457
2163.05	22.1956
2164.49	22.378
2165.93	23.9812
2167.38	24.4801
2168.82	25.7715
2170.26	26.0939
2171.7	26.6204
2173.14	27.273
2174.58	27.2793
2176.03	27.1917
2177.47	27.0021
2178.91	27.4141
2180.35	26.5442
2181.79	27.2477
2183.23	26.4649
2184.67	26.109
2186.1	25.893
2187.54	25.0421
2188.98	23.5479
2190.42	22.6179
2191.86	22.2337
2193.3	22.2923
2194.73	22.8265
2196.17	21.8401
2197.61	20.8909
2199.05	20.3041
2200.48	20.074
2201.92	20.4529
2203.35	20.3899
2204.79	20.1909
2206.22	19.7487
2207.66	18.7208
2209.09	18.2398
2210.53	17.2298
2211.96	17.2218
2213.4	16.5117
2214.83	14.8906
2216.27	14.2493
2217.7	14.4079
2219.13	13.9349
2220.56	12.8973
2222	12.6541
2223.43	11.77
2224.86	11.1931
2226.29	11.2959
2227.72	10.6638
2229.16	10.9447
2230.59	11.3381
2232.02	11.011
2233.45	10.9293
2234.88	10.8749
2236.31	11.4236
2237.74	12.0027
2239.17	11.2105
2240.6	10.5112
2242.03	10.8026
2243.45	11.3134
2244.88	11.495
2246.31	11.09
2247.74	10.8415
2249.17	10.6329
2250.59	11.0855
2252.02	11.0663
2253.45	11.916
2254.87	11.5677
2256.3	11.9048
2257.73	12.1585
2259.15	10.5094
2260.58	10.9375
2262	10.7369
2263.43	11.1372
2264.85	10.5265
2266.28	9.78421
2267.7	9.35793
2269.13	9.13408
2270.55	10.2508
2271.97	10.218
2273.4	9.2214
2274.82	8.81857
2276.24	8.56657
2277.66	8.02894
2279.09	6.86568
2280.51	5.99801
2281.93	5.96665
2283.35	5.23503
2284.77	4.17848
2286.19	3.8257
2287.61	3.79234
2289.04	3.48971
2290.46	2.3756
2291.88	1.15072
2293.29	1.04683
2294.71	1.43234
2296.13	1.53727
2297.55	0.823331
2298.97	0.360991
2300.39	0.776471
2301.81	1.06893
2303.23	1.38143
2304.64	2.43408
2306.06	3.09063
2307.48	3.79201
2308.89	3.71256
2310.31	3.52163
2311.73	3.48577
2313.14	4.12297
2314.56	3.90068
2315.97	3.84852
2317.39	3.77438
2318.8	3.37042
2320.22	4.28854
2321.63	4.48575
2323.05	5.5593
2324.46	5.22702
2325.88	5.47596
2327.29	4.66921
2328.7	4.08371
2330.12	3.04656
2331.53	3.82809
2332.94	3.49924
2334.35	3.76942
2335.76	3.78971
2337.18	3.8908
2338.59	4.06058
2340	3.62704
2341.41	4.01606
2342.82	3.48187
2344.23	3.26635
2345.64	3.38213
2347.05	2.71764
2348.46	2.81261
2349.87	2.51379
2351.28	2.59758
2352.69	2.62975
2354.1	2.33382
2355.5	1.93448
2356.91	1.447
2358.32	1.36873
2359.73	1.22728
2361.14	0.432852
2362.54	0.777405
2363.95	1.73046
2365.36	2.04502
2366.76	1.45322
2368.17	2.42392
2369.58	3.67448
2370.98	4.26888
2372.39	4.55303
2373.79	5.34944
2375.2	5.45706
2376.6	6.11975
2378	5.35633
2379.41	5.37571
2380.81	5.65931
2382.22	6.1105
2383.62	6.54778
2385.02	7.34225
2386.42	6.93492
2387.83	7.1964
2389.23	7.58694
2390.63	7.78779
2392.03	7.59955
2393.43	8.01175
2394.84	7.28749
2396.24	6.74536
2397.64	7.18323
2399.04	8.0195
2400.44	8.028
2401.84	8.89463
2403.24	9.37225
2404.64	9.49741
2406.04	9.27984
2407.44	9.99772
2408.83	10.3971
2410.23	11.2034
2411.63	11.6761
2413.03	11.7033
2414.43	11.2001
2415.83	11.2454
2417.22	11.2205
2418.62	11.685
2420.02	12.3317
2421.41	12.0164
2422.81	12.0225
2424.21	11.8452
2425.6	11.5009
2427	11.676
2428.39	11.6719
2429.79	11.0223
2431.18	10.2268
2432.58	10.0648
2433.97	9.29837
2435.36	8.42914
2436.76	8.34107
2438.15	8.91446
2439.54	8.50279
2440.94	8.03243
2442.33	7.47244
2443.72	7.45469
2445.11	7.46983
2446.51	7.46991
2447.9	6.13332
2449.29	5.94276
2450.68	5.23853
2452.07	4.65734
2453.46	4.53422
2454.85	3.66037
2456.24	3.42795
2457.63	3.60966
2459.02	2.87081
2460.41	2.18182
2461.8	2.48524
2463.19	2.31059
2464.58	1.9887
2465.97	1.82353
2467.36	2.05641
2468.75	1.80614
2470.13	1.32457
2471.52	1.91957
2472.91	1.92806
2474.29	1.90262
2475.68	1.25006
2477.07	1.55953
2478.45	0.905744
2479.84	0.838316
2481.22	0.69582
2482.61	0.703889
2484	0.923169
2485.38	1.39782
2486.77	1.50045
2488.15	2.24339
2489.54	2.66468
2490.92	2.51888
2492.3	2.92546
2493.69	2.92977
2495.07	3.38433
2496.45	3.36882
2497.84	2.90184
2499.22	2.9461
2500.6	2.90179
2501.98	3.03557
2503.36	3.47115
2504.74	3.22651
2506.13	3.7471
2507.51	4.2047
2508.89	3.97164
2510.27	3.40277
2511.65	3.55753
2513.03	4.15766
2514.41	4.47745
2515.79	4.13361
2517.17	4.01676
2518.55	3.71192
2519.93	3.45036
2521.3	4.06357
2522.68	4.82457
2524.06	4.70348
2525.44	4.77649
2526.82	4.48899
2528.19	4.27894
2529.57	4.4966
2530.95	4.7032
2532.32	4.85682
2533.7	5.36069
2535.08	4.90849
2536.45	4.81401
2537.83	4.84552
2539.2	4.4525
2540.58	5.29937
2541.95	5.03894
2543.33	4.88033
2544.7	4.777
2546.08	5.04121
2547.45	5.59811
2548.82	6.60307
2550.2	7.09416
2551.57	7.59714
2552.94	8.22641
2554.32	8.13159
2555.69	8.33078
2557.06	8.16418
2558.43	7.99729
2559.8	8.3287
2561.17	7.94238
2562.55	8.36292
2563.92	9.07256
2565.29	8.64969
2566.66	8.95136
2568.03	9.00863
2569.4	8.61157
2570.77	8.60056
2572.14	8.45717
2573.51	8.21035
2574.88	8.69013
2576.24	8.34814
2577.61	8.50124
2578.98	8.32001
2580.35	9.21628
2581.72	8.48952
2583.09	8.34246
2584.45	8.44067
2585.82	8.23023
2587.19	7.32158
2588.55	7.1081
2589.92	7.84835
2591.28	6.93275
2592.65	6.43819
2594.02	6.01773
2595.38	6.78567
2596.75	7.12856
2598.11	6.5365
2599.48	6.40625
2600.84	6.43335
2602.2	5.86675
2603.57	5.34476
2604.93	5.79601
2606.3	5.53118
2607.66	6.09322
2609.02	5.8563
2610.38	5.03254
2611.75	4.52336
2613.11	4.34329
2614.47	3.69696
2615.83	3.833
2617.19	4.20357
2618.56	3.56672
2619.92	3.53114
2621.28	3.40736
2622.64	2.62072
2624	2.51316
2625.36	1.97314
2626.72	2.44062
2628.08	2.76151
2629.44	3.19043
2630.8	4.45292
2632.15	4.6578
2633.51	5.46535
2634.87	5.65622
2636.23	5.55866
2637.59	5.67503
2638.94	6.0526
2640.3	5.74304
2641.66	5.6907
2643.02	5.55322
2644.37	5.27191
2645.73	5.61613
2647.08	5.27848
2648.44	5.8443
2649.8	5.61242
2651.15	5.6524
2652.51	5.71679
2653.86	5.39459
2655.22	5.48367
2656.57	5.47133
2657.92	6.37058
2659.28	6.48082
2660.63	7.27925
2661.99	8.17587
2663.34	8.54671
2664.69	8.44911
2666.04	8.63046
2667.4	9.69892
2668.75	10.2633
2670.1	9.97788
2671.45	9.60583
2672.81	9.13331
2674.16	8.2207
2675.51	8.36015
2676.86	7.93103
2678.21	7.93786
2679.56	8.28452
2680.91	8.91628
2682.26	9.04981
2683.61	9.35991
2684.96	9.76608
2686.31	9.50306
2687.66	9.39247
2689	9.77568
2690.35	9.63958
2691.7	10.1041
2693.05	9.84182
2694.4	10.2792
2695.74	10.8056
2697.09	10.9895
2698.44	10.7253
2699.79	10.0482
2701.13	10.353
2702.48	8.84025
2703.82	8.43873
2705.17	8.38351
2706.52	8.09257
2707.86	7.6276
2709.21	7.98099
2710.55	8.86452
2711.9	9.22501
2713.24	9.45934
2714.58	10.0098
2715.93	10.6138
2717.27	10.5556
2718.61	10.2263
2719.96	10.6779
2721.3	11.484
2722.64	11.5661
2723.99	11.8588
2725.33	12.4553
2726.67	12.3931
2728.01	13.3434
2729.35	13.2028
2730.7	13.0995
2732.04	13.381
2733.38	13.3531
2734.72	12.8768
2736.06	11.9125
2737.4	11.0801
2738.74	10.8533
2740.08	10.7525
2741.42	10.445
2742.76	10.2225
2744.09	9.21812
2745.43	9.13316
2746.77	8.79403
2748.11	8.51075
2749.45	8.25803
2750.79	7.78068
2752.12	7.45063
2753.46	6.63831
2754.8	6.84665
2756.13	6.76258
2757.47	6.03683
2758.81	5.52194
2760.14	4.31006
2761.48	4.01109
2762.81	3.32657
2764.15	2.05723
2765.49	1.62742
2766.82	1.66366
2768.15	1.92654
2769.49	1.47263
2770.82	1.75539
2772.16	2.15926
2773.49	1.84851
2774.82	2.56076
2776.16	2.76419
2777.49	3.31354
2778.82	2.35354
2780.16	2.12283
2781.49	2.63503
2782.82	2.32238
2784.15	1.94701
2785.48	2.90428
2786.81	3.41599
2788.15	3.76935
2789.48	3.8806
2790.81	4.0619
2792.14	4.09883
2793.47	4.39731
2794.8	4.08178
2796.13	3.62834
2797.46	4.4254
2798.79	4.21475
2800.12	4.59768
2801.44	4.71907
2802.77	5.10007
2804.1	5.83997
2805.43	5.38188
2806.76	4.34833
2808.08	4.0165
2809.41	3.84092
2810.74	3.88188
2812.07	3.74377
2813.39	3.97107
2814.72	4.44782
2816.05	4.03532
2817.37	2.88554
2818.7	3.09008
2820.02	3.08902
2821.35	4.40826
2822.67	3.76667
2824	4.44617
2825.32	5.75309
2826.65	6.9042
2827.97	8.02132
2829.29	9.77603
2830.62	11.2209
2831.94	13.6179
2833.26	15.5376
2834.59	16.9169
2835.91	18.43
2837.23	20.9157
2838.55	23.0331
2839.88	25.1995
2841.2	27.4836
2842.52	30.1817
2843.84	33.497
2845.16	36.3317
2846.48	40.2955
2847.8	44.059
2849.12	48.3208
2850.44	53.1688
2851.76	58.7381
2853.08	62.4688
2854.4	67.2913
2855.72	72.191
2857.04	76.5176
2858.36	81.7262
2859.68	87.2037
2861	91.8982
2862.32	96.7949
2863.63	101.574
2864.95	106.043
2866.27	110.321
2867.58	113.36
2868.9	117.134
2870.22	120.379
2871.53	122.937
2872.85	126.385
2874.17	130.173
2875.48	132.825
2876.8	135.486
2878.11	138.032
2879.43	140.795
2880.74	142.56
2882.06	144.306
2883.37	146.416
2884.69	148.985
2886	150.973
2887.31	154.102
2888.63	155.656
2889.94	158.177
2891.25	160.407
2892.57	162.413
2893.88	164.574
2895.19	167.104
2896.5	168.782
2897.82	170.676
2899.13	172.711
2900.44	174.812
2901.75	177.825
2903.06	181.697
2904.37	183.735
2905.68	186.432
2906.99	190.384
2908.3	195.162
2909.61	199.948
2910.92	204.812
2912.23	209.438
2913.54	214.799
2914.85	220.296
2916.16	225.037
2917.46	229.491
2918.77	232.942
2920.08	237.219
2921.39	240.515
2922.7	243.012
2924	246.131
2925.31	248.632
2926.62	250.127
2927.92	251.729
2929.23	252.978
2930.53	253.86
2931.84	254.272
2933.15	253.301
2934.45	253.102
2935.76	251.975
2937.06	250.098
2938.37	248.128
2939.67	245.656
2940.98	242.652
2942.28	240.127
2943.58	236.275
2944.89	232.117
2946.19	228.423
2947.49	224.179
2948.8	219.573
2950.1	214.972
2951.4	210.278
2952.7	205.596
2954.01	200.148
2955.31	195.573
2956.61	190.53
2957.91	185.422
2959.21	179.972
2960.51	174.587
2961.81	168.778
2963.11	164.526
2964.41	159.557
2965.71	154.815
2967.01	150.215
2968.31	145.846
2969.61	140.508
2970.91	135.841
2972.21	132.456
2973.51	128.92
2974.81	124.824
2976.1	121.042
2977.4	117.451
2978.7	113.399
2980	108.855
2981.29	104.492
2982.59	100.458
2983.89	95.587
2985.18	90.7205
2986.48	86.1009
2987.78	82.2229
2989.07	78.1951
2990.37	73.8546
2991.66	69.6265
2992.96	64.9809
2994.25	60.8349
2995.55	56.6173
2996.84	52.7291
2998.14	47.9888
2999.43	44.4823
3000.72	40.736
3002.02	37.6573
3003.31	35.2038
3004.6	33.1454
3005.9	29.7189
3007.19	27.6688
3008.48	24.6026
3009.77	21.9211
3011.07	19.8916
3012.36	16.5744
3013.65	14.5288
3014.94	12.4204
3016.23	10.5791
3017.52	8.86298
3018.81	8.03035
3020.1	6.90301
3021.39	5.53088
3022.68	5.00083
3023.97	4.38391
3025.26	3.58758
3026.55	3.01643
3027.84	2.67855
3029.13	1.34523
3030.42	1.37952
3031.71	0.650774
3033	0.266461
3034.28	0.365826
3035.57	0.745542
3036.86	1.89983
3038.15	2.63873
3039.43	3.43861
3040.72	4.48374
3042.01	4.95849
3043.29	5.49551
3044.58	6.81102
3045.86	8.22449
3047.15	9.06553
3048.44	9.03497
3049.72	9.27743
3051.01	9.85461
3052.29	10.7489
3053.58	10.6063
3054.86	11.5155
3056.14	11.8515
3057.43	11.481
3058.71	12.3142
3060	11.9001
3061.28	12.527
3062.56	12.2909
3063.84	12.3038
3065.13	12.3627
3066.41	12.2715
3067.69	12.1762
3068.97	11.8717
3070.25	10.9215
3071.54	11.2699
3072.82	10.7703
3074.1	10.1364
3075.38	9.88534
3076.66	9.11542
3077.94	9.09741
3079.22	8.73423
3080.5	8.68271
3081.78	8.20132
3083.06	8.73207
3084.34	8.47123
3085.62	8.22742
3086.9	7.80866
3088.17	7.04929
3089.45	7.11431
3090.73	7.40715
3092.01	7.07467
3093.29	7.71388
3094.56	8.53245
3095.84	9.49442
3097.12	10.0038
3098.4	11.2838
3099.67	11.6201
3100.95	12.4527
3102.22	13.7488
3103.5	14.8926
3104.77	15.8276
3106.05	16.9632
3107.33	18.138
3108.6	18.9946
3109.88	20.0621
3111.15	20.5587
3112.43	20.7333
3113.7	21.321
3114.97	22.2633
3116.25	23.5219
3117.52	23.9025
3118.79	24.8902
3120.07	25.5919
3121.34	26.4793
3122.61	27.8671
3123.88	28.3615
3125.16	29.8756
3126.43	30.5193
3127.7	31.2032
3128.97	32.1859
3130.24	33.7276
3131.51	35.4733
3132.78	36.8111
3134.05	38.1728
3135.33	39.7192
3136.59	40.7742
3137.86	41.596
3139.14	42.8187
3140.41	44.3516
3141.67	45.8485
3142.94	47.6089
3144.21	49.4454
3145.48	51.4882
3146.75	53.2655
3148.02	56.1365
3149.28	60.0177
