#Acq. time (s)=	45
#Accumulations=	2
#Range (cm-¹)=	200...3150
#Windows=	2
#Auto scanning=	Off
#Autofocus=	Off
#Macrospot=	Off
#AutoExposure=	Off
#Spike filter=	Multiple accum.
#Delay time (s)=	0
#Binning=	1
#Readout mode=	Signal
#DeNoise=	Off
#ICS correction=	On
#Dark correction=	Off
#Inst. Process=	Off
#Detector Gain=	Best Dynamic Range
#Detector ADC=	20 kHz       
#Detector temperature (°C)=	-69.85
#Instrument=	LabRAM HR Evol
#Detector=	Synapse
#Objective=	x100
#Grating=	600 gr/mm
#ND Filter=	100%
#Laser (nm)=	532 
#Hole=	100.021
#Range=	Auto
#Laser Pol.=	No
#Raman. Pol.=	No
#Laser Pol. (°)=	-0.0007625
#Raman Pol. (°)=	89.9995
#Collection=	Microscope
#StageXY=	Marzhauser
#StageZ=	Marzhauser
#X (µm)=	-639
#Y (µm)=	-1589.6
#Z (µm)=	89
#Full time(mm:ss)=	3:18
#Project=	
#Sample=	
#Site=	
#Title=	Mb_10_14_12_2x_45s_532 nm_x100_100%_600 gr_mm
#Remark=	
#Date=	11.07.2022 09:25
#Acquired=	11.07.2022 09:25:14
#Base:Fit=	10.08.2022 10:21:11
#Base:Sub=	10.08.2022 10:21:41
#Filter:Polynom=	16.08.2022 10:17:53
#AxisType[0]=Intens
#AxisUnit[0]=Cnt
#AxisType[1]=Spectr
#AxisUnit[1]=1/cm
200.388	15.4926
202.204	15.1419
204.019	14.4191
205.832	11.953
207.646	9.53668
209.459	7.69287
211.274	6.57178
213.087	5.72037
214.899	4.99049
216.711	4.71547
218.524	5.21165
220.335	6.70673
222.146	7.41036
223.956	9.24127
225.766	8.9789
227.576	10.3405
229.388	12.5655
231.197	14.2057
233.005	14.9522
234.813	15.7547
236.621	16.2236
238.429	17.738
240.236	18.9823
242.045	19.7991
243.852	21.1368
245.658	21.5443
247.464	22.5564
249.269	24.1764
251.074	24.6277
252.879	24.7812
254.683	26.4972
256.487	27.0362
258.291	26.427
260.094	26.8082
261.897	27.1731
263.702	27.2232
265.504	28.157
267.306	28.4144
269.108	28.2471
270.909	27.4905
272.71	26.6616
274.511	24.8322
276.311	23.5632
278.111	21.8428
279.91	20.1687
281.709	18.8597
283.508	18.5961
285.306	16.7113
287.105	16.4517
288.9	15.6261
290.698	13.9024
292.495	12.7583
294.291	11.9334
296.088	12.0927
297.884	11.4288
299.679	11.5448
301.475	11.1908
303.27	10.9636
305.064	11.6256
306.858	12.5882
308.652	12.4099
310.444	12.4788
312.237	11.7759
314.03	12.3212
315.822	12.2788
317.615	13.5119
319.406	13.8488
321.198	14.1651
322.987	13.8488
324.778	13.8738
326.568	13.2849
328.358	13.5054
330.148	12.816
331.935	12.6674
333.724	13.4791
335.513	13.1373
337.301	13.3055
339.089	13.9718
340.875	13.1296
342.662	13.9214
344.449	13.1278
346.236	12.7729
348.02	13.663
349.806	14.9049
351.592	15.223
353.375	15.4027
355.16	16.5795
356.944	16.4953
358.728	17.5912
360.51	17.2906
362.294	18.6088
364.077	19.9698
365.858	21.295
367.64	21.7335
369.422	22.4108
371.202	24.1059
372.983	25.0333
374.764	26.2062
376.543	26.4954
378.324	26.8734
380.102	27.8936
381.881	29.1727
383.661	29.6526
385.438	31.128
387.216	31.6128
388.993	33.1293
390.771	34.6289
392.548	34.9871
394.324	35.3076
396.101	35.265
397.875	34.6963
399.651	34.987
401.425	35.1819
403.201	34.4827
404.974	33.6378
406.749	32.6652
408.524	32.1602
410.296	30.8394
412.07	29.0475
413.841	27.5027
415.614	25.6503
417.385	25.3572
419.156	24.2579
420.928	23.9604
422.698	22.445
424.469	20.6201
426.238	19.2125
428.009	17.9248
429.777	15.7306
431.548	14.5317
433.315	13.0669
435.083	13.3343
436.852	12.5822
438.618	10.907
440.387	9.7632
442.153	8.94141
443.919	6.93745
445.686	5.48757
447.451	5.15742
449.218	4.7007
450.982	4.42046
452.746	2.60515
454.512	1.22148
456.275	0.557804
458.038	1.02469
459.803	0.757164
461.565	0.408458
463.327	0.933568
465.091	1.15142
466.852	2.64712
468.613	3.80232
470.374	5.08343
472.136	5.63727
473.896	5.81046
475.655	6.7491
477.415	8.02582
479.176	9.51464
480.934	9.97676
482.692	11.5873
484.45	12.9077
486.21	14.2959
487.967	15.7911
489.724	16.7393
491.481	17.336
493.237	19.535
494.995	20.3703
496.75	21.7349
498.506	22.8025
500.26	23.7032
502.015	24.6174
503.769	24.9371
505.525	26.0193
507.279	26.6237
509.032	27.4893
510.785	26.8998
512.537	27.6007
514.289	26.791
516.041	26.2488
517.793	26.5693
519.546	27.1451
521.297	26.3922
523.047	26.4856
524.797	25.4251
526.547	24.5556
528.297	24.1439
530.046	22.1484
531.795	21.3644
533.543	21.6374
535.291	20.7105
537.039	19.0327
538.787	17.8355
540.534	16.9901
542.281	17.362
544.027	16.3145
545.773	15.5948
547.519	14.5847
549.264	13.6226
551.01	12.1747
552.754	11.3243
554.499	11.3178
556.243	10.8166
557.987	9.74351
559.73	9.12687
561.474	8.38978
563.216	8.39475
564.959	7.80382
566.701	7.21965
568.441	6.94203
570.182	6.56514
571.923	6.08787
573.664	6.19455
575.405	5.15973
577.145	4.85448
578.885	4.53463
580.624	4.28848
582.361	3.62705
584.1	4.12646
585.839	3.71584
587.577	2.74205
589.315	2.34798
591.052	1.466
592.787	1.86378
594.524	1.62376
596.26	1.16967
597.997	-0.143411
599.732	0.534751
601.466	-0.0799783
603.201	1.9174
604.936	3.60023
606.67	4.42415
608.403	4.72126
610.136	4.92287
611.87	3.41596
613.603	2.98387
615.334	4.05725
617.067	3.98404
618.799	4.32093
620.529	4.08888
622.26	3.86957
623.991	4.53342
625.72	5.82827
627.451	6.49033
629.181	7.13469
630.909	6.85828
632.638	8.20773
634.368	9.35135
636.095	8.86973
637.823	10.2283
639.551	11.6853
641.277	12.946
643.005	13.484
644.73	14.1853
646.457	15.43
648.184	15.7211
649.908	16.0548
651.634	16.8706
653.357	17.1703
655.083	17.3194
656.806	17.8894
658.53	17.9143
660.253	18.5859
661.977	17.848
663.7	18.3178
665.422	18.2324
667.145	18.8643
668.865	18.926
670.588	18.8598
672.308	19.3981
674.027	19.0324
675.749	18.2601
677.468	18.6403
679.188	19.3694
680.907	19.3355
682.627	20.2641
684.345	20.6173
686.064	22.058
687.781	22.4298
689.498	23.8122
691.216	23.7047
692.932	24.1681
694.65	23.577
696.366	23.6165
698.081	24.6245
699.797	25.1048
701.512	25.7802
703.228	26.0456
704.942	26.8247
706.655	27.8633
708.371	29.0899
710.083	30.4394
711.796	30.6168
713.51	31.3
715.222	32.7388
716.934	34.0417
718.645	34.4513
720.358	34.986
722.068	34.4426
723.779	36.2445
725.49	36.9575
727.2	38.5602
728.909	40.16
730.618	40.303
732.329	40.9205
734.037	41.6786
735.745	42.3255
737.453	42.7247
739.16	43.0317
740.869	43.1994
742.576	44.4034
744.282	44.6808
745.988	46.3504
747.694	46.8981
749.401	48.8988
751.107	50.0909
752.811	50.5591
754.516	51.3209
756.22	52.8355
757.924	53.995
759.627	53.7287
761.332	55.484
763.035	56.9231
764.738	58.7018
766.44	59.8981
768.142	61.4133
769.843	63.1023
771.544	64.825
773.245	66.7831
774.946	68.54
776.646	69.651
778.346	71.8867
780.046	72.7625
781.745	73.8018
783.444	74.8757
785.143	75.3546
786.841	76.8226
788.539	77.8778
790.237	78.7789
791.934	79.1021
793.631	80.5653
795.328	81.632
797.024	81.9359
798.72	83.3607
800.416	84.2784
802.112	83.9177
803.807	84.0977
805.502	84.6479
807.196	85.2737
808.89	85.6384
810.584	86.3816
812.278	85.7251
813.971	85.268
815.664	84.0304
817.354	84.5042
819.047	84.2596
820.739	82.684
822.43	81.2151
824.122	80.6183
825.813	79.9513
827.503	79.2694
829.192	77.9988
830.882	77.3866
832.571	76.1666
834.261	75.3403
835.95	74.0507
837.637	72.4614
839.325	72.5138
841.013	71.8845
842.701	70.6622
844.389	70.3048
846.074	69.655
847.761	67.1099
849.447	67.7184
851.131	66.5168
852.817	65.4248
854.503	63.8903
856.188	62.8359
857.871	61.4255
859.556	60.3029
861.24	58.9007
862.922	58.1687
864.606	56.2369
866.289	55.5167
867.97	54.9144
869.653	53.8966
871.336	53.1516
873.016	52.9311
874.698	53.2601
876.379	52.8219
878.058	52.9511
879.739	52.3965
881.418	52.2658
883.098	52.9061
884.778	51.9787
886.456	51.8608
888.135	51.7893
889.812	51.5109
891.49	51.6011
893.167	50.7042
894.845	50.6945
896.523	50.179
898.198	51.3524
899.875	51.7471
901.55	52.2279
903.226	52.6021
904.901	53.6659
906.576	53.9247
908.25	54.3204
909.925	54.7542
911.598	55.089
913.271	55.7653
914.945	56.8789
916.617	56.5174
918.291	57.036
919.962	56.9504
921.635	56.7857
923.306	57.7557
924.978	57.0691
926.648	56.5669
928.318	55.5354
929.989	54.5962
931.659	54.4016
933.328	54.9275
934.998	52.2425
936.666	51.0168
938.336	50.2897
940.004	50.5342
941.671	50.3565
943.34	50.7073
945.007	49.5016
946.673	48.8664
948.339	48.0474
950.007	48.2443
951.672	47.3656
953.337	46.2358
955.004	46.9151
956.669	46.541
958.333	45.0988
959.997	43.6234
961.662	43.7791
963.326	43.5038
964.989	44.5914
966.651	44.4875
968.315	44.3234
969.977	45.6703
971.639	46.5366
973.301	46.7395
974.962	45.9873
976.624	46.0831
978.285	47.0716
979.945	48.6315
981.605	48.2474
983.264	47.2708
984.924	47.8045
986.583	48.5049
988.243	47.6768
989.901	46.1589
991.56	46.5143
993.217	46.3269
994.875	46.2001
996.532	45.6216
998.188	44.7932
999.845	43.1199
1001.5	42.7296
1003.16	41.0673
1004.81	40.2558
1006.47	39.6798
1008.12	38.5696
1009.78	39.1998
1011.43	39.0179
1013.09	39.8643
1014.74	39.2014
1016.39	38.8758
1018.05	38.8523
1019.7	40.4766
1021.35	41.0671
1023	42.1046
1024.65	42.2474
1026.31	42.6748
1027.96	41.6388
1029.61	41.0969
1031.26	41.4209
1032.91	41.8093
1034.56	41.7943
1036.21	41.2132
1037.86	41.4635
1039.51	39.7037
1041.16	39.4618
1042.8	39.7029
1044.45	40.2382
1046.1	40.4113
1047.75	41.0871
1049.39	39.9633
1051.04	39.3602
1052.69	38.207
1054.33	37.3415
1055.98	34.7223
1057.62	33.8934
1059.27	34.0614
1060.91	32.489
1062.56	31.2317
1064.2	28.8754
1065.85	27.9554
1067.49	27.1618
1069.13	25.441
1070.77	24.2814
1072.42	23.9897
1074.06	23.1156
1075.7	21.1541
1077.34	19.714
1078.98	17.0474
1080.62	14.7897
1082.27	13.1456
1083.91	12.111
1085.55	11.0904
1087.18	11.1687
1088.82	11.0864
1090.46	10.6075
1092.1	11.0755
1093.74	10.354
1095.38	10.4033
1097.02	9.97525
1098.65	10.5424
1100.29	10.9691
1101.93	11.5689
1103.56	11.2336
1105.2	11.6122
1106.84	11.5665
1108.47	12.1179
1110.11	12.1377
1111.74	12.0228
1113.38	13.4394
1115.01	12.9873
1116.64	12.5244
1118.28	11.7312
1119.91	10.9769
1121.54	11.1172
1123.18	11.1728
1124.81	11.0211
1126.44	11.3599
1128.07	11.0646
1129.7	11.2628
1131.33	10.5142
1132.97	10.1816
1134.6	10.8199
1136.23	11.0788
1137.86	11.0372
1139.49	12.301
1141.11	12.1499
1142.74	10.9112
1144.37	11.2133
1146	10.4451
1147.63	9.99746
1149.26	9.7025
1150.88	9.3979
1152.51	9.02601
1154.14	7.3653
1155.76	6.12751
1157.39	4.54586
1159.01	3.5949
1160.64	2.14537
1162.27	1.82221
1163.89	2.43693
1165.51	1.84662
1167.14	1.26834
1168.76	1.63759
1170.39	1.36633
1172.01	1.49476
1173.63	2.52781
1175.25	2.32507
1176.88	3.34583
1178.5	3.43545
1180.12	4.32613
1181.74	5.37066
1183.36	6.44095
1184.98	6.47651
1186.6	7.07122
1188.22	7.26164
1189.84	7.14206
1191.46	7.95507
1193.08	7.45487
1194.7	8.0288
1196.32	7.90742
1197.94	9.48002
1199.55	10.2933
1201.17	10.7073
1202.79	12.8598
1204.41	14.1159
1206.02	16.1412
1207.64	16.8987
1209.25	17.7195
1210.87	20.3259
1212.48	21.2159
1214.1	22.3874
1215.71	25.0793
1217.33	27.1595
1218.94	28.8538
1220.56	29.2504
1222.17	30.2746
1223.79	31.4695
1225.4	33.9645
1227.01	34.7246
1228.62	36.6322
1230.23	37.4236
1231.85	38.8254
1233.46	40.2648
1235.07	41.4924
1236.68	42.6226
1238.29	42.9744
1239.9	44.8611
1241.51	46.2163
1243.12	48.5357
1244.73	50.6085
1246.34	51.1161
1247.94	51.0373
1249.55	52.8117
1251.16	53.7896
1252.77	54.6293
1254.37	54.5658
1255.98	54.1786
1257.59	54.2255
1259.2	53.5567
1260.8	53.5817
1262.41	52.81
1264.01	52.2076
1265.62	50.3218
1267.22	50.5596
1268.83	50.3768
1270.43	50.132
1272.03	50.4913
1273.64	50.2093
1275.24	49.6811
1276.85	50.0922
1278.45	50.2259
1280.05	49.0296
1281.65	49.2142
1283.25	49.2021
1284.85	49.0222
1286.46	49.814
1288.06	48.954
1289.66	49.8231
1291.26	51.2568
1292.86	51.5132
1294.46	52.5487
1296.06	54.0235
1297.66	54.4934
1299.25	53.712
1300.85	55.1586
1302.45	56.7108
1304.05	57.9483
1305.65	58.8831
1307.24	58.3274
1308.84	59.0838
1310.43	59.5539
1312.03	61.0531
1313.63	61.4938
1315.22	62.7406
1316.82	63.3203
1318.41	64.9351
1320.01	66.1596
1321.6	67.2319
1323.2	67.5607
1324.79	67.5678
1326.38	67.4817
1327.98	67.3466
1329.57	67.5755
1331.16	67.6062
1332.76	66.031
1334.35	65.4365
1335.94	64.9052
1337.53	63.7979
1339.12	63.383
1340.71	62.2253
1342.3	61.2456
1343.89	60.741
1345.48	60.3684
1347.07	60.9034
1348.66	60.0915
1350.25	58.4203
1351.84	57.1775
1353.43	54.925
1355.01	52.5478
1356.6	51.5138
1358.19	49.888
1359.77	47.1865
1361.36	46.3281
1362.95	45.6021
1364.53	44.7143
1366.12	44.0786
1367.71	42.6958
1369.29	42.6298
1370.88	41.5193
1372.46	40.1004
1374.04	38.7279
1375.63	37.7682
1377.21	37.1841
1378.8	37.0262
1380.38	37.8187
1381.96	36.8177
1383.54	35.6574
1385.13	34.6845
1386.71	34.0742
1388.29	34.1442
1389.87	35.1619
1391.45	35.7343
1393.03	35.4418
1394.61	36.1332
1396.19	36.3371
1397.77	36.6183
1399.35	36.9591
1400.93	38.4778
1402.51	38.1879
1404.09	38.7392
1405.67	39.56
1407.24	39.4794
1408.82	40.2472
1410.4	42.1346
1411.98	42.1884
1413.55	44.1173
1415.13	45.6212
1416.71	47.5
1418.28	48.9605
1419.86	51.7802
1421.43	53.3773
1423.01	54.9807
1424.58	57.1091
1426.16	58.9577
1427.73	60.0769
1429.31	61.4224
1430.88	63.0973
1432.45	64.8471
1434.02	67.5534
1435.6	70.0064
1437.17	71.3248
1438.74	72.5696
1440.31	75.2292
1441.88	76.2734
1443.45	75.7874
1445.03	77.2348
1446.6	77.3693
1448.17	78.0378
1449.74	78.0342
1451.3	77.9572
1452.87	78.1459
1454.44	77.812
1456.01	77.6256
1457.58	75.9903
1459.15	74.2226
1460.72	71.4963
1462.28	69.3581
1463.85	67.6206
1465.42	65.8762
1466.98	63.874
1468.55	61.5225
1470.12	58.653
1471.68	55.543
1473.25	53.4245
1474.81	51.0188
1476.38	48.3814
1477.94	45.5783
1479.51	43.2217
1481.07	39.6737
1482.63	37.5571
1484.2	35.5264
1485.76	32.5725
1487.32	31.6131
1488.88	29.9628
1490.45	28.4786
1492.01	28.3673
1493.57	27.9603
1495.13	26.6887
1496.69	25.3821
1498.25	25.8406
1499.81	24.1283
1501.37	23.8516
1502.93	25.2403
1504.49	25.2594
1506.05	25.302
1507.61	26.196
1509.17	26.7371
1510.73	27.8328
1512.28	27.7101
1513.84	27.3847
1515.4	27.8088
1516.96	28.0172
1518.51	28.3631
1520.07	28.6916
1521.63	29.7802
1523.18	31.6983
1524.74	31.5482
1526.29	31.8812
1527.85	32.3278
1529.4	32.5076
1530.96	33.202
1532.51	33.8933
1534.06	34.5693
1535.62	34.3032
1537.17	34.7129
1538.72	34.6172
1540.28	35.5593
1541.83	35.9602
1543.38	36.3512
1544.93	36.5011
1546.48	36.0826
1548.03	36.212
1549.59	36.3953
1551.14	36.9939
1552.69	36.9666
1554.24	37.5045
1555.79	37.1062
1557.34	37.0368
1558.88	37.0405
1560.43	37.8477
1561.98	39.0946
1563.53	40.1118
1565.08	41.3212
1566.62	41.9363
1568.17	42.3303
1569.72	42.9001
1571.27	43.1784
1572.81	43.6683
1574.36	44.1273
1575.9	44.3744
1577.45	45.1203
1579	46.4257
1580.54	47.3524
1582.09	47.0738
1583.63	48.63
1585.17	49.5973
1586.72	50.4846
1588.26	50.6605
1589.8	50.7189
1591.35	52.0835
1592.89	52.922
1594.43	53.1674
1595.97	54.3726
1597.52	55.187
1599.06	55.5649
1600.6	55.5548
1602.14	55.5292
1603.68	55.3376
1605.22	55.7174
1606.76	56.9473
1608.3	57.9336
1609.84	58.1923
1611.38	57.3696
1612.92	56.7235
1614.46	56.4392
1615.99	57.1458
1617.53	57.5633
1619.07	57.7231
1620.61	57.4466
1622.14	57.8499
1623.68	58.9553
1625.22	60.1059
1626.75	60.4908
1628.29	60.9402
1629.82	61.6889
1631.36	63.5008
1632.9	63.3041
1634.43	64.8831
1635.96	66.731
1637.5	68.448
1639.03	69.5041
1640.57	69.3795
1642.1	69.9268
1643.63	70.9611
1645.16	71.4683
1646.7	72.913
1648.23	73.1562
1649.76	73.9991
1651.29	74.2045
1652.82	75.6211
1654.36	77.5335
1655.89	76.8167
1657.42	76.0908
1658.95	76.3452
1660.48	77.0048
1662.01	76.5197
1663.53	75.6089
1665.06	74.171
1666.59	73.6565
1668.12	72.635
1669.65	70.8684
1671.18	69.5339
1672.7	67.7587
1674.23	65.1181
1675.76	62.5239
1677.29	60.0518
1678.81	57.3177
1680.34	54.9197
1681.86	52.9214
1683.39	50.8295
1684.91	47.6068
1686.44	44.7571
1687.96	42.2662
1689.49	40.4965
1691.01	38.5887
1692.54	36.7308
1694.06	33.8534
1695.58	32.1416
1697.11	29.6901
1698.63	28.1238
1700.15	26.2348
1701.67	23.5038
1703.2	21.5177
1704.72	21.375
1706.24	19.7804
1707.76	18.8406
1709.28	17.8312
1710.8	17.0797
1712.32	16.5157
1713.84	16.204
1715.36	14.5204
1716.88	13.7816
1718.4	13.2102
1719.91	12.5759
1721.43	11.8115
1722.95	10.9834
1724.47	10.1803
1725.99	11.0573
1727.5	10.9933
1729.02	11.5049
1730.54	10.9996
1732.05	10.0513
1733.57	10.538
1735.09	11.0647
1736.6	11.2159
1738.12	11.2125
1739.63	10.2048
1741.15	10.0975
1742.66	10.6751
1744.18	10.4973
1745.69	10.847
1747.2	10.7747
1748.72	10.3784
1750.23	10.2337
1751.74	10.1929
1753.25	10.5375
1754.77	10.9582
1756.28	11.5632
1757.79	11.4357
1759.3	12.0381
1760.81	12.4725
1762.32	12.2664
1763.83	11.7752
1765.34	11.8503
1766.85	10.9596
1768.36	10.6529
1769.87	9.91703
1771.38	9.87274
1772.89	9.58746
1774.4	9.82917
1775.91	9.97612
1777.41	9.84426
1778.92	10.3301
1780.43	10.46
1781.94	9.82448
1783.44	10.1214
1784.95	9.32922
1786.45	7.92712
1787.96	7.43632
1789.47	6.81585
1790.97	5.55904
1792.47	5.27491
1793.98	4.52499
1795.48	3.95982
1796.99	3.5028
1798.49	3.61183
1800	4.00164
1801.5	4.39567
1803	3.86262
1804.51	3.81422
1806.01	3.668
1807.51	3.88715
1809.01	3.56698
1810.51	3.80368
1812.02	4.15626
1813.52	4.75302
1815.02	4.41709
1816.52	5.04317
1818.02	5.21492
1819.52	5.72818
1821.02	6.25834
1822.52	5.91513
1824.02	6.26564
1825.51	6.82507
1827.01	7.43505
1828.51	8.10321
1830.01	8.14169
1831.51	8.42334
1833	8.98455
1834.5	9.56833
1836	9.46202
1837.49	9.35331
1838.99	9.04753
1840.49	9.20439
1841.98	8.63483
1843.48	9.39572
1844.97	9.2585
1846.47	9.34558
1847.96	9.45677
1849.46	9.61471
1850.95	9.03992
1852.45	8.89931
1853.94	8.68023
1855.43	8.20745
1856.92	7.47458
1858.42	6.43352
1859.91	6.25302
1861.4	5.93951
1862.89	6.35211
1864.39	6.76819
1865.88	6.5267
1867.37	6.64791
1868.86	6.03828
1870.35	6.19852
1871.84	6.73731
1873.33	6.84127
1874.82	7.28909
1876.31	7.32654
1877.8	7.07043
1879.29	7.70892
1880.77	7.97075
1882.26	8.35174
1882.52	8.78429
1884.02	8.98825
1885.51	9.24222
1887.01	9.15832
1888.5	8.85631
1889.99	9.2208
1891.49	9.39068
1892.98	9.82226
1894.47	9.96951
1895.96	10.0073
1897.46	9.96953
1898.95	10.4544
1900.44	11.4222
1901.93	11.023
1903.42	11.2201
1904.91	11.774
1906.4	12.0037
1907.89	11.9122
1909.38	10.6588
1910.87	10.6093
1912.36	10.2378
1913.85	10.5945
1915.34	10.5206
1916.83	10.1481
1918.32	8.73658
1919.8	8.08792
1921.29	8.14395
1922.78	7.54987
1924.27	6.61553
1925.75	6.74546
1927.24	5.53091
1928.73	5.45201
1930.21	5.09148
1931.7	4.31915
1933.18	4.63991
1934.67	3.65382
1936.15	3.29279
1937.64	3.2131
1939.12	2.71718
1940.61	2.22767
1942.09	2.05073
1943.57	1.95504
1945.06	2.22863
1946.54	1.86427
1948.02	1.53152
1949.51	1.18273
1950.99	1.4223
1952.47	1.92668
1953.95	1.48962
1955.43	1.03204
1956.91	1.19583
1958.39	1.21073
1959.87	2.05487
1961.36	2.37075
1962.84	3.17659
1964.32	3.73323
1965.79	4.38723
1967.27	4.60073
1968.75	4.77616
1970.23	4.68572
1971.71	4.73327
1973.19	5.71968
1974.66	5.69597
1976.14	5.35737
1977.62	5.75564
1979.1	5.30124
1980.57	5.91705
1982.05	6.27177
1983.53	6.0866
1985	6.75571
1986.48	6.80065
1987.95	6.73526
1989.43	5.6779
1990.9	4.855
1992.38	4.73387
1993.85	5.20039
1995.33	5.11364
1996.8	4.60175
1998.27	4.84465
1999.75	3.90837
2001.22	3.66126
2002.69	4.2875
2004.16	3.72126
2005.64	3.43562
2007.11	3.86301
2008.58	2.97468
2010.05	3.37905
2011.52	3.80036
2012.99	3.23898
2014.46	2.55568
2015.93	1.83827
2017.4	1.59479
2018.87	1.90024
2020.34	1.66259
2021.81	2.27803
2023.28	3.48695
2024.75	3.50107
2026.22	3.7005
2027.69	3.39085
2029.15	3.47248
2030.62	4.57323
2032.09	5.20212
2033.56	5.26412
2035.02	5.34927
2036.49	5.98649
2037.95	6.3819
2039.42	6.201
2040.89	5.93571
2042.35	5.73288
2043.82	5.80293
2045.28	6.56659
2046.75	6.6567
2048.21	6.95046
2049.67	7.90639
2051.14	7.92993
2052.6	8.17448
2054.06	8.63608
2055.53	7.49273
2056.99	7.02943
2058.45	7.52418
2059.92	7.61281
2061.38	7.25016
2062.84	6.73419
2064.3	7.41948
2065.76	7.39958
2067.22	6.84106
2068.68	6.14858
2070.14	6.04983
2071.6	6.12688
2073.06	5.88388
2074.52	6.78009
2075.98	7.06994
2077.44	7.25759
2078.9	6.80497
2080.36	7.32117
2081.82	7.02669
2083.27	7.15056
2084.73	6.69819
2086.19	6.84642
2087.65	6.97196
2089.1	7.98625
2090.56	8.57581
2092.01	8.65843
2093.47	8.46485
2094.93	9.00295
2096.38	8.06875
2097.84	7.31338
2099.29	7.835
2100.75	7.6115
2102.2	8.76684
2103.66	9.3739
2105.11	9.49803
2106.56	9.57623
2108.02	9.41536
2109.47	9.71337
2110.92	9.28947
2112.37	9.01805
2113.83	9.33779
2115.28	8.96278
2116.73	9.11847
2118.18	9.86975
2119.63	9.67946
2121.09	9.84704
2122.54	10.3179
2123.99	10.5687
2125.44	11.0087
2126.89	11.1468
2128.34	11.2571
2129.79	11.7341
2131.23	12.1704
2132.68	11.3289
2134.13	11.3723
2135.58	11.5632
2137.03	11.9969
2138.48	11.3207
2139.92	11.1656
2141.37	12.0807
2142.82	12.7218
2144.26	13.8449
2145.71	14.5182
2147.16	15.4326
2148.6	16.2741
2150.05	16.3563
2151.49	16.7375
2152.94	17.5488
2154.38	17.7723
2155.83	19.1856
2157.27	20.3548
2158.72	20.9525
2160.16	21.1227
2161.6	21.3952
2163.05	21.151
2164.49	21.4831
2165.93	22.3264
2167.38	22.3276
2168.82	21.9573
2170.26	23.2213
2171.7	23.7178
2173.14	23.6068
2174.58	24.0497
2176.03	23.3465
2177.47	23.333
2178.91	23.4242
2180.35	23.436
2181.79	24.6642
2183.23	24.8352
2184.67	25.2265
2186.1	24.48
2187.54	24.577
2188.98	24.5248
2190.42	24.4008
2191.86	24.0958
2193.3	23.8425
2194.73	24.0627
2196.17	23.4934
2197.61	22.9268
2199.05	21.543
2200.48	20.2886
2201.92	19.0655
2203.35	18.9126
2204.79	18.1074
2206.22	18.0074
2207.66	17.7126
2209.09	16.764
2210.53	15.9449
2211.96	15.7223
2213.4	15.8929
2214.83	15.3881
2216.27	14.9472
2217.7	14.0557
2219.13	13.7339
2220.56	13.7061
2222	13.3725
2223.43	12.7254
2224.86	12.0866
2226.29	12.477
2227.72	12.2444
2229.16	10.9986
2230.59	10.5612
2232.02	9.7126
2233.45	9.0874
2234.88	9.24608
2236.31	8.92307
2237.74	8.86133
2239.17	8.46685
2240.6	8.65806
2242.03	8.76056
2243.45	8.28706
2244.88	8.25783
2246.31	8.67013
2247.74	8.99075
2249.17	9.62843
2250.59	9.88719
2252.02	10.2382
2253.45	10.2351
2254.87	9.5833
2256.3	9.43706
2257.73	8.92542
2259.15	9.11477
2260.58	8.3073
2262	8.29185
2263.43	8.68561
2264.85	7.16098
2266.28	7.542
2267.7	6.89973
2269.13	6.16601
2270.55	6.04769
2271.97	6.18161
2273.4	6.21494
2274.82	7.05088
2276.24	6.71625
2277.66	7.0393
2279.09	6.90311
2280.51	5.96212
2281.93	5.66453
2283.35	5.95273
2284.77	5.88222
2286.19	5.12072
2287.61	4.75838
2289.04	4.33402
2290.46	3.82973
2291.88	2.93277
2293.29	1.81709
2294.71	0.522093
2296.13	1.02784
2297.55	1.56955
2298.97	1.54576
2300.39	1.7267
2301.81	1.74081
2303.23	1.66712
2304.64	2.2194
2306.06	3.00957
2307.48	2.02336
2308.89	1.76197
2310.31	2.27185
2311.73	2.3565
2313.14	3.32301
2314.56	3.82756
2315.97	4.23658
2317.39	4.99586
2318.8	5.16882
2320.22	5.3513
2321.63	4.96489
2323.05	4.80185
2324.46	4.58917
2325.88	4.99691
2327.29	5.31316
2328.7	5.06536
2330.12	5.10812
2331.53	4.77141
2332.94	5.31663
2334.35	5.14248
2335.76	4.87774
2337.18	6.21225
2338.59	6.33823
2340	6.69534
2341.41	6.49808
2342.82	6.39998
2344.23	6.3416
2345.64	6.59924
2347.05	5.87577
2348.46	5.50669
2349.87	4.9753
2351.28	4.85193
2352.69	5.16784
2354.1	4.71443
2355.5	4.22894
2356.91	3.20861
2358.32	3.23613
2359.73	2.63763
2361.14	2.58411
2362.54	2.83099
2363.95	2.7733
2365.36	3.07094
2366.76	3.87213
2368.17	3.46826
2369.58	2.96076
2370.98	3.03674
2372.39	2.96011
2373.79	3.98092
2375.2	3.48652
2376.6	3.95351
2378	3.99399
2379.41	4.43837
2380.81	5.16155
2382.22	5.13236
2383.62	5.10259
2385.02	5.2334
2386.42	4.92043
2387.83	4.83502
2389.23	4.93777
2390.63	5.5457
2392.03	5.53319
2393.43	6.34474
2394.84	6.64562
2396.24	7.11049
2397.64	7.16709
2399.04	7.28991
2400.44	7.2951
2401.84	7.22176
2403.24	7.22951
2404.64	7.22109
2406.04	7.02864
2407.44	7.16701
2408.83	6.85448
2410.23	6.20277
2411.63	5.79081
2413.03	6.66128
2414.43	6.54437
2415.83	6.10432
2417.22	5.61359
2418.62	5.51515
2420.02	5.14937
2421.41	5.43895
2422.81	5.80237
2424.21	5.31935
2425.6	5.30485
2427	4.59127
2428.39	4.92397
2429.79	4.65135
2431.18	4.23668
2432.58	3.93754
2433.97	3.26376
2435.36	2.8881
2436.76	2.82296
2438.15	3.14912
2439.54	3.89108
2440.94	4.50786
2442.33	4.77035
2443.72	5.12328
2445.11	4.48495
2446.51	4.42182
2447.9	4.20088
2449.29	3.42087
2450.68	3.66306
2452.07	3.85129
2453.46	4.09101
2454.85	4.46219
2456.24	4.01843
2457.63	4.18508
2459.02	4.79685
2460.41	4.6601
2461.8	4.74632
2463.19	4.39011
2464.58	3.8331
2465.97	3.88905
2467.36	4.06688
2468.75	3.99538
2470.13	3.24809
2471.52	2.9854
2472.91	2.78406
2474.29	3.09193
2475.68	2.68222
2477.07	3.04736
2478.45	2.68511
2479.84	2.39424
2481.22	2.01203
2482.61	2.21614
2484	2.08344
2485.38	2.22158
2486.77	2.59185
2488.15	2.89401
2489.54	3.48194
2490.92	3.91789
2492.3	3.73589
2493.69	3.43114
2495.07	2.98355
2496.45	3.06355
2497.84	3.04543
2499.22	2.69956
2500.6	1.67431
2501.98	1.71292
2503.36	1.19079
2504.74	2.38459
2506.13	3.6087
2507.51	4.61974
2508.89	5.19568
2510.27	5.86777
2511.65	6.05702
2513.03	6.74376
2514.41	6.93483
2515.79	6.97641
2517.17	7.62514
2518.55	7.75619
2519.93	7.93484
2521.3	7.93416
2522.68	8.38616
2524.06	8.28645
2525.44	8.39482
2526.82	8.68842
2528.19	8.88125
2529.57	8.26605
2530.95	8.32897
2532.32	7.71551
2533.7	8.07518
2535.08	8.14416
2536.45	8.17806
2537.83	8.15737
2539.2	8.01891
2540.58	7.96661
2541.95	7.99097
2543.33	7.8746
2544.7	7.48652
2546.08	7.72949
2547.45	7.48446
2548.82	7.29447
2550.2	6.82728
2551.57	6.9183
2552.94	7.30787
2554.32	7.54996
2555.69	7.39276
2557.06	6.69392
2558.43	5.64752
2559.8	4.99498
2561.17	4.49462
2562.55	4.1303
2563.92	3.18839
2565.29	2.90865
2566.66	2.74045
2568.03	2.9466
2569.4	3.71631
2570.77	4.37025
2572.14	5.13885
2573.51	6.67904
2574.88	6.52639
2576.24	7.2732
2577.61	7.26142
2578.98	7.31895
2580.35	7.0075
2581.72	7.35927
2583.09	6.6987
2584.45	6.01441
2585.82	5.69966
2587.19	5.11995
2588.55	4.5795
2589.92	4.70969
2591.28	4.66256
2592.65	4.30905
2594.02	4.26876
2595.38	3.88197
2596.75	4.08371
2598.11	3.56493
2599.48	3.86931
2600.84	3.13353
2602.2	3.41278
2603.57	3.78622
2604.93	3.32623
2606.3	3.33417
2607.66	2.9377
2609.02	2.93562
2610.38	2.75974
2611.75	2.83494
2613.11	2.8663
2614.47	2.73496
2615.83	2.43183
2617.19	2.27828
2618.56	2.70252
2619.92	3.08508
2621.28	3.27388
2622.64	3.63981
2624	2.89577
2625.36	1.89915
2626.72	1.93932
2628.08	2.61731
2629.44	2.55401
2630.8	2.99262
2632.15	3.46556
2633.51	3.60425
2634.87	4.27175
2636.23	5.22352
2637.59	5.56895
2638.94	5.74127
2640.3	6.86205
2641.66	6.93494
2643.02	6.33119
2644.37	6.85994
2645.73	6.06818
2647.08	6.08904
2648.44	5.58943
2649.8	5.49282
2651.15	4.22248
2652.51	4.62091
2653.86	4.59719
2655.22	4.73743
2656.57	4.5513
2657.92	4.34348
2659.28	3.88728
2660.63	3.61278
2661.99	3.58684
2663.34	3.57197
2664.69	3.83892
2666.04	2.88755
2667.4	3.34111
2668.75	2.77785
2670.1	4.14273
2671.45	4.279
2672.81	3.79947
2674.16	4.22783
2675.51	4.17874
2676.86	4.4266
2678.21	4.34809
2679.56	4.85229
2680.91	5.17514
2682.26	4.82176
2683.61	5.40084
2684.96	5.24933
2686.31	5.39556
2687.66	4.71381
2689	4.73603
2690.35	4.9961
2691.7	4.2006
2693.05	4.55588
2694.4	5.03133
2695.74	5.83525
2697.09	6.56926
2698.44	7.37469
2699.79	7.89408
2701.13	8.19815
2702.48	8.84544
2703.82	9.63032
2705.17	9.90644
2706.52	10.2892
2707.86	9.73277
2709.21	9.05758
2710.55	8.79941
2711.9	9.45678
2713.24	9.74801
2714.58	9.61856
2715.93	9.23947
2717.27	9.11881
2718.61	8.98107
2719.96	9.35624
2721.3	9.01619
2722.64	8.79044
2723.99	8.43842
2725.33	8.34876
2726.67	8.13882
2728.01	8.50966
2729.35	8.31544
2730.7	7.8266
2732.04	8.23137
2733.38	7.92652
2734.72	8.60679
2736.06	8.71908
2737.4	9.1443
2738.74	8.68451
2740.08	8.31842
2741.42	8.35699
2742.76	8.17681
2744.09	7.75656
2745.43	7.48975
2746.77	7.12437
2748.11	6.20971
2749.45	5.71562
2750.79	5.30117
2752.12	4.74346
2753.46	4.85736
2754.8	4.47622
2756.13	4.89283
2757.47	4.37669
2758.81	4.35331
2760.14	4.12442
2761.48	4.32572
2762.81	4.18194
2764.15	3.92186
2765.49	2.86268
2766.82	2.66073
2768.15	2.41103
2769.49	2.28411
2770.82	2.44194
2772.16	1.68906
2773.49	1.29265
2774.82	0.223252
2776.16	0.719354
2777.49	0.601178
2778.82	1.22236
2780.16	1.41486
2781.49	0.8336
2782.82	1.13828
2784.15	0.683563
2785.48	0.722913
2786.81	1.08861
2788.15	1.12522
2789.48	1.16219
2790.81	0.644699
2792.14	1.29405
2793.47	1.32994
2794.8	1.77632
2796.13	1.9403
2797.46	2.27216
2798.79	2.93519
2800.12	3.25692
2801.44	3.64329
2802.77	4.09884
2804.1	4.02962
2805.43	3.86078
2806.76	3.53447
2808.08	3.46387
2809.41	2.97233
2810.74	2.54026
2812.07	2.64627
2813.39	2.26286
2814.72	2.23334
2816.05	2.28397
2817.37	2.38162
2818.7	2.78842
2820.02	3.12596
2821.35	3.69502
2822.67	4.11898
2824	4.16252
2825.32	4.86965
2826.65	4.78608
2827.97	5.50029
2829.29	5.69595
2830.62	7.13757
2831.94	8.00248
2833.26	10.2952
2834.59	11.7086
2835.91	12.688
2837.23	14.2515
2838.55	16.2192
2839.88	19.226
2841.2	21.0396
2842.52	24.7807
2843.84	26.9268
2845.16	30.1157
2846.48	33.3654
2847.8	36.3987
2849.12	39.6461
2850.44	43.3101
2851.76	47.6185
2853.08	51.9535
2854.4	55.0915
2855.72	59.1141
2857.04	62.4075
2858.36	66.4663
2859.68	69.0448
2861	72.4041
2862.32	75.7127
2863.63	78.3877
2864.95	81.4925
2866.27	84.8041
2867.58	87.3688
2868.9	90.7104
2870.22	92.8393
2871.53	94.5628
2872.85	96.4326
2874.17	98.5683
2875.48	100.16
2876.8	101.644
2878.11	103.307
2879.43	104.707
2880.74	106.317
2882.06	107.656
2883.37	109.275
2884.69	110.07
2886	111.164
2887.31	111.588
2888.63	112.003
2889.94	112.848
2891.25	113.922
2892.57	115.164
2893.88	117.03
2895.19	118.751
2896.5	120.641
2897.82	122.301
2899.13	124.95
2900.44	126.612
2901.75	129.14
2903.06	132.662
2904.37	136.534
2905.68	139.87
2906.99	142.508
2908.3	147.037
2909.61	150.749
2910.92	155.173
2912.23	159.824
2913.54	163.674
2914.85	167.639
2916.16	172.077
2917.46	176.482
2918.77	179.274
2920.08	182.488
2921.39	185.328
2922.7	187.831
2924	190.313
2925.31	193.008
2926.62	195.16
2927.92	197.057
2929.23	198.326
2930.53	199.977
2931.84	200.547
2933.15	200.199
2934.45	200.021
2935.76	199.252
2937.06	197.768
2938.37	196.522
2939.67	195.038
2940.98	192.06
2942.28	190.192
2943.58	186.794
2944.89	183.322
2946.19	180.118
2947.49	176.499
2948.8	172.288
2950.1	167.583
2951.4	163.034
2952.7	158.312
2954.01	154.312
2955.31	150.436
2956.61	146.345
2957.91	141.537
2959.21	137.121
2960.51	132.978
2961.81	128.687
2963.11	124.975
2964.41	121.172
2965.71	117.138
2967.01	114.08
2968.31	110.721
2969.61	106.685
2970.91	102.302
2972.21	98.6369
2973.51	96.0701
2974.81	92.7489
2976.1	89.0591
2977.4	86.4125
2978.7	82.9238
2980	79.9465
2981.29	77.2295
2982.59	73.7188
2983.89	69.5222
2985.18	67.0154
2986.48	63.9013
2987.78	61.5006
2989.07	58.4343
2990.37	55.5898
2991.66	51.9859
2992.96	49.2508
2994.25	46.5203
2995.55	44.0013
2996.84	40.9509
2998.14	38.7055
2999.43	36.5458
3000.72	34.3214
3002.02	31.5823
3003.31	29.3554
3004.6	26.9295
3005.9	24.2543
3007.19	22.7103
3008.48	20.1493
3009.77	18.746
3011.07	17.3435
3012.36	15.1538
3013.65	13.2373
3014.94	11.3232
3016.23	10.2205
3017.52	9.58637
3018.81	9.07919
3020.1	7.99938
3021.39	6.46473
3022.68	5.25014
3023.97	4.91782
3025.26	4.69709
3026.55	3.95039
3027.84	3.50721
3029.13	3.22565
3030.42	2.74423
3031.71	2.07061
3033	1.82368
3034.28	1.23178
3035.57	1.32054
3036.86	1.73522
3038.15	2.10355
3039.43	1.99175
3040.72	1.9246
3042.01	2.62267
3043.29	2.23252
3044.58	2.83165
3045.86	3.10183
3047.15	3.216
3048.44	3.97587
3049.72	4.81333
3051.01	4.79751
3052.29	4.41012
3053.58	4.52066
3054.86	4.71631
3056.14	4.69739
3057.43	5.17177
3058.71	5.74749
3060	5.46526
3061.28	5.3218
3062.56	4.92975
3063.84	4.76312
3065.13	4.37545
3066.41	4.25186
3067.69	3.88214
3068.97	3.84778
3070.25	3.40473
3071.54	3.01927
3072.82	2.98495
3074.1	2.93626
3075.38	2.69777
3076.66	2.57885
3077.94	2.5475
3079.22	2.354
3080.5	2.3729
3081.78	2.28952
3083.06	1.38279
3084.34	0.692601
3085.62	0.576096
3086.9	0.73393
3088.17	0.721132
3089.45	0.810719
3090.73	0.909763
3092.01	0.51496
3093.29	0.544568
3094.56	0.280073
3095.84	0.699504
3097.12	1.48196
3098.4	1.57185
3099.67	2.05308
3100.95	2.39844
3102.22	3.03853
3103.5	3.82363
3104.77	4.46568
3106.05	5.00087
3107.33	5.58458
3108.6	6.44558
3109.88	6.46808
3111.15	7.32576
3112.43	7.57712
3113.7	8.55056
3114.97	9.04113
3116.25	10.0144
3117.52	10.8422
3118.79	11.0195
3120.07	11.512
3121.34	12.1019
3122.61	12.6245
3123.88	12.8479
3125.16	13.5768
3126.43	13.8545
3127.7	14.7243
3128.97	14.9698
3130.24	16.0012
3131.51	16.4938
3132.78	17.3211
3134.05	17.7763
3135.33	18.7331
3136.59	19.8803
3137.86	20.1788
3139.14	20.1661
3140.41	20.4161
3141.67	20.26
3142.94	20.1289
3144.21	19.8701
3145.48	19.6089
3146.75	19.5382
3148.02	18.9134
3149.28	18.3376
