#Acq. time (s)=	45
#Accumulations=	2
#Range (cm-¹)=	200...3150
#Windows=	2
#Auto scanning=	Off
#Autofocus=	Off
#Macrospot=	Off
#AutoExposure=	Off
#Spike filter=	Multiple accum.
#Delay time (s)=	0
#Binning=	1
#Readout mode=	Signal
#DeNoise=	Off
#ICS correction=	On
#Dark correction=	Off
#Inst. Process=	Off
#Detector Gain=	Best Dynamic Range
#Detector ADC=	20 kHz       
#Detector temperature (°C)=	-69.85
#Instrument=	LabRAM HR Evol
#Detector=	Synapse
#Objective=	x100
#Grating=	600 gr/mm
#ND Filter=	100%
#Laser (nm)=	532 
#Hole=	100.021
#Range=	Auto
#Laser Pol.=	No
#Raman. Pol.=	No
#Laser Pol. (°)=	-0.0007625
#Raman Pol. (°)=	89.9995
#Collection=	Microscope
#StageXY=	Marzhauser
#StageZ=	Marzhauser
#X (µm)=	-620.1
#Y (µm)=	-1585.6
#Z (µm)=	89.85
#Full time(mm:ss)=	3:19
#Project=	
#Sample=	
#Site=	
#Title=	Mb_10_14_22_2x_45s_532 nm_x100_100%_600 gr_mm
#Remark=	
#Date=	11.07.2022 10:12
#Acquired=	11.07.2022 10:12:25
#Base:Fit=	10.08.2022 10:21:11
#Base:Sub=	10.08.2022 10:21:41
#Filter:Polynom=	16.08.2022 10:17:53
#AxisType[0]=Intens
#AxisUnit[0]=Cnt
#AxisType[1]=Spectr
#AxisUnit[1]=1/cm
200.388	13.0441
202.204	13.017
204.019	12.063
205.832	9.52829
207.646	7.95742
209.459	6.66559
211.274	5.48602
213.087	5.25224
214.899	5.11506
216.711	5.60613
218.524	6.7206
220.335	8.64472
222.146	8.72441
223.956	9.50817
225.766	11.4982
227.576	12.8745
229.388	13.6361
231.197	14.1952
233.005	14.8827
234.813	15.6647
236.621	16.063
238.429	16.9347
240.236	18.0988
242.045	19.2403
243.852	20.165
245.658	20.1516
247.464	19.7654
249.269	19.7501
251.074	20.883
252.879	21.4765
254.683	21.8563
256.487	22.1562
258.291	22.2911
260.094	23.5046
261.897	24.22
263.702	24.6944
265.504	26.1475
267.306	27.0357
269.108	27.5644
270.909	28.148
272.71	29.2889
274.511	28.8895
276.311	29.0606
278.111	29.3497
279.91	27.9823
281.709	27.9489
283.508	26.4041
285.306	26.7202
287.105	24.9266
288.9	23.0153
290.698	22.6397
292.495	21.1536
294.291	20.5721
296.088	20.192
297.884	19.4713
299.679	18.0239
301.475	18.5778
303.27	18.272
305.064	17.5776
306.858	17.139
308.652	17.2245
310.444	16.674
312.237	15.4448
314.03	15.8121
315.822	16.1745
317.615	15.557
319.406	15.0709
321.198	13.9755
322.987	14.0446
324.778	13.9142
326.568	13.9328
328.358	13.7258
330.148	12.6085
331.935	11.6267
333.724	10.6445
335.513	9.62844
337.301	8.95284
339.089	10.0219
340.875	10.9981
342.662	10.7083
344.449	10.6289
346.236	11.3583
348.02	12.6646
349.806	13.9102
351.592	14.6108
353.375	16.0426
355.16	16.6094
356.944	18.0703
358.728	18.0652
360.51	19.1325
362.294	20.1293
364.077	20.8329
365.858	21.9369
367.64	22.0894
369.422	22.323
371.202	22.6071
372.983	22.7739
374.764	22.6873
376.543	22.653
378.324	24.0355
380.102	25.2189
381.881	24.9781
383.661	25.4145
385.438	25.2052
387.216	26.5642
388.993	26.736
390.771	27.4271
392.548	27.3154
394.324	27.5627
396.101	28.0116
397.875	28.1045
399.651	27.2364
401.425	26.6648
403.201	26.6905
404.974	26.7438
406.749	26.24
408.524	26.1225
410.296	25.6155
412.07	25.4456
413.841	24.1603
415.614	23.5303
417.385	22.0324
419.156	21.0132
420.928	21.017
422.698	20.4383
424.469	18.6527
426.238	17.8453
428.009	17.1652
429.777	16.189
431.548	13.9903
433.315	13.4567
435.083	12.71
436.852	11.4912
438.618	10.5169
440.387	11.3542
442.153	11.2809
443.919	11.264
445.686	12.0865
447.451	12.5139
449.218	13.3995
450.982	13.2896
452.746	13.0623
454.512	13.0617
456.275	12.9223
458.038	13.411
459.803	14.0733
461.565	15.4688
463.327	16.541
465.091	18.3084
466.852	18.8027
468.613	18.4519
470.374	18.7383
472.136	19.0951
473.896	19.3792
475.655	20.3223
477.415	19.2061
479.176	18.6169
480.934	19.2532
482.692	18.7017
484.45	19.3732
486.21	19.8667
487.967	20.9635
489.724	21.3569
491.481	22.2951
493.237	23.6787
494.995	24.4092
496.75	25.0425
498.506	24.5747
500.26	25.1381
502.015	24.8849
503.769	25.8238
505.525	25.5743
507.279	24.9548
509.032	23.1417
510.785	21.7243
512.537	21.0448
514.289	21.7628
516.041	21.4108
517.793	21.0805
519.546	20.6968
521.297	23.2604
523.047	23.6128
524.797	24.8613
526.547	25.3275
528.297	26.228
530.046	25.2951
531.795	24.7624
533.543	24.7936
535.291	24.3457
537.039	23.2777
538.787	22.3175
540.534	22.456
542.281	22.8675
544.027	22.7269
545.773	22.2591
547.519	22.007
549.264	21.0949
551.01	20.2402
552.754	18.9981
554.499	17.4733
556.243	17.0594
557.987	16.9643
559.73	16.1062
561.474	15.2369
563.216	14.0369
564.959	12.5847
566.701	12.2692
568.441	12.4615
570.182	11.9193
571.923	12.6051
573.664	12.2921
575.405	12.0051
577.145	11.1031
578.885	10.5675
580.624	10.7362
582.361	9.6024
584.1	8.73736
585.839	6.95954
587.577	6.65084
589.315	5.57479
591.052	5.45606
592.787	4.19424
594.524	3.02882
596.26	2.56351
597.997	4.45285
599.732	5.60851
601.466	5.85424
603.201	5.24074
604.936	5.71202
606.67	5.742
608.403	5.74
610.136	4.94103
611.87	5.01784
613.603	3.82069
615.334	3.52143
617.067	3.45316
618.799	3.80476
620.529	4.33762
622.26	3.99079
623.991	4.45745
625.72	4.95715
627.451	6.75185
629.181	6.68643
630.909	6.79504
632.638	7.58054
634.368	8.04756
636.095	8.11035
637.823	9.37216
639.551	10.0151
641.277	10.5318
643.005	11.3171
644.73	12.1768
646.457	12.4361
648.184	13.1704
649.908	13.1988
651.634	14.2413
653.357	15.2542
655.083	16.4328
656.806	17.3529
658.53	18.0758
660.253	16.9074
661.977	17.1561
663.7	17.7226
665.422	17.4618
667.145	18.8148
668.865	18.6065
670.588	19.4948
672.308	19.5483
674.027	20.3295
675.749	21.7771
677.468	21.4114
679.188	21.7044
680.907	22.7494
682.627	23.1002
684.345	23.8648
686.064	23.7994
687.781	24.3938
689.498	24.8244
691.216	25.2002
692.932	25.1237
694.65	26.2243
696.366	26.9829
698.081	26.9464
699.797	26.4155
701.512	26.6418
703.228	27.6908
704.942	27.6964
706.655	28.5015
708.371	28.5199
710.083	28.5751
711.796	28.6012
713.51	28.8387
715.222	28.2462
716.934	28.6181
718.645	29.8276
720.358	29.8659
722.068	30.5193
723.779	31.6716
725.49	31.74
727.2	32.3707
728.909	33.1225
730.618	33.9439
732.329	34.1216
734.037	34.5297
735.745	35.1136
737.453	35.7772
739.16	36.5776
740.869	37.1
742.576	37.6399
744.282	37.689
745.988	39.1207
747.694	41.2656
749.401	43.349
751.107	43.7798
752.811	45.2465
754.516	46.0655
756.22	47.2813
757.924	47.2389
759.627	48.3386
761.332	50.8561
763.035	51.6244
764.738	53.7523
766.44	55.4533
768.142	56.4723
769.843	58.8066
771.544	60.3939
773.245	61.163
774.946	61.1286
776.646	61.5954
778.346	62.6586
780.046	63.495
781.745	63.4964
783.444	64.7029
785.143	65.2481
786.841	66.9067
788.539	67.9448
790.237	67.8744
791.934	67.5952
793.631	67.733
795.328	68.3359
797.024	70.1476
798.72	71.609
800.416	72.5815
802.112	72.2063
803.807	72.6122
805.502	72.3791
807.196	72.5983
808.89	73.5944
810.584	72.5845
812.278	72.8161
813.971	72.3266
815.664	71.9174
817.354	71.3887
819.047	71.4493
820.739	71.4804
822.43	70.1488
824.122	70.5237
825.813	69.9231
827.503	69.6528
829.192	70.455
830.882	70.5931
832.571	69.8136
834.261	69.9479
835.95	68.4078
837.637	67.393
839.325	66.4227
841.013	64.5682
842.701	64.5123
844.389	64.1233
846.074	63.8235
847.761	62.4919
849.447	61.4662
851.131	60.5085
852.817	59.3147
854.503	57.3894
856.188	55.6581
857.871	55.0657
859.556	54.5631
861.24	53.8181
862.922	53.589
864.606	53.6776
866.289	53.4049
867.97	53.4748
869.653	52.5102
871.336	51.5549
873.016	49.5577
874.698	47.7683
876.379	47.7195
878.058	48.483
879.739	47.5248
881.418	47.7422
883.098	46.5309
884.778	45.7449
886.456	44.8684
888.135	44.8797
889.812	44.2674
891.49	44.0963
893.167	43.1626
894.845	42.584
896.523	42.6401
898.198	41.6294
899.875	40.8483
901.55	41.1442
903.226	40.8955
904.901	40.9372
906.576	39.5046
908.25	40.5847
909.925	39.9946
911.598	39.6338
913.271	40.0328
914.945	38.0524
916.617	37.9461
918.291	37.5676
919.962	36.8873
921.635	37.5464
923.306	38.0287
924.978	37.7631
926.648	38.0203
928.318	37.0503
929.989	37.2822
931.659	37.2052
933.328	36.0977
934.998	36.4875
936.666	36.293
938.336	36.2779
940.004	36.956
941.671	37.1247
943.34	36.6401
945.007	36.1435
946.673	36.4537
948.339	35.8081
950.007	35.7225
951.672	34.8718
953.337	33.7211
955.004	33.0403
956.669	32.6706
958.333	32.2228
959.997	32.8104
961.662	32.3793
963.326	32.1846
964.989	32.571
966.651	32.4002
968.315	31.9536
969.977	30.8833
971.639	30.3702
973.301	30.0284
974.962	30.4223
976.624	30.5232
978.285	29.8422
979.945	28.776
981.605	28.0651
983.264	27.713
984.924	27.4314
986.583	26.6393
988.243	25.8599
989.901	24.8406
991.56	25.6597
993.217	25.6518
994.875	25.0315
996.532	24.6128
998.188	24.4843
999.845	25.3799
1001.5	25.0107
1003.16	25.248
1004.81	24.8773
1006.47	23.7042
1008.12	22.9639
1009.78	22.2369
1011.43	21.9564
1013.09	22.234
1014.74	22.4099
1016.39	21.1145
1018.05	21.5202
1019.7	21.2877
1021.35	21.7454
1023	20.6939
1024.65	20.6113
1026.31	20.7514
1027.96	20.7282
1029.61	21.0451
1031.26	21.4212
1032.91	21.8642
1034.56	20.828
1036.21	20.6116
1037.86	21.0254
1039.51	19.6901
1041.16	19.6164
1042.8	19.7289
1044.45	19.8894
1046.1	20.1607
1047.75	19.7898
1049.39	19.7199
1051.04	19.3026
1052.69	19.2068
1054.33	18.6538
1055.98	18.0581
1057.62	18.0711
1059.27	17.2605
1060.91	16.5806
1062.56	15.9244
1064.2	14.7093
1065.85	15.0333
1067.49	15.4919
1069.13	15.1651
1070.77	14.282
1072.42	14.9677
1074.06	15.1678
1075.7	14.3197
1077.34	12.6263
1078.98	12.4375
1080.62	13.0928
1082.27	11.8695
1083.91	11.0413
1085.55	10.8001
1087.18	10.1987
1088.82	9.8706
1090.46	9.30643
1092.1	9.38318
1093.74	8.48394
1095.38	8.48579
1097.02	7.54172
1098.65	6.38775
1100.29	6.60699
1101.93	7.23737
1103.56	6.65673
1105.2	5.66641
1106.84	6.22916
1108.47	6.92945
1110.11	6.76949
1111.74	6.39584
1113.38	6.35833
1115.01	5.43347
1116.64	5.16393
1118.28	5.35481
1119.91	4.80069
1121.54	4.22972
1123.18	5.55372
1124.81	6.18568
1126.44	6.43945
1128.07	5.70679
1129.7	5.93629
1131.33	6.16996
1132.97	6.43987
1134.6	6.72678
1136.23	6.59232
1137.86	7.76419
1139.49	8.29389
1141.11	8.38974
1142.74	8.25451
1144.37	7.38307
1146	8.47764
1147.63	9.94416
1149.26	9.43979
1150.88	8.7466
1152.51	8.5711
1154.14	9.14018
1155.76	9.63334
1157.39	9.30375
1159.01	9.70586
1160.64	10.0582
1162.27	9.78128
1163.89	7.823
1165.51	7.99658
1167.14	8.44686
1168.76	8.61652
1170.39	8.64745
1172.01	8.84959
1173.63	9.6242
1175.25	8.99813
1176.88	9.27382
1178.5	9.50572
1180.12	10.4506
1181.74	11.6912
1183.36	11.9042
1184.98	11.6386
1186.6	12.3081
1188.22	13.531
1189.84	14.1153
1191.46	13.4085
1193.08	14.0623
1194.7	13.5519
1196.32	13.7483
1197.94	14.5363
1199.55	14.4734
1201.17	14.7995
1202.79	15.8946
1204.41	16.0205
1206.02	16.4522
1207.64	16.839
1209.25	18.1664
1210.87	19.8914
1212.48	20.7857
1214.1	21.998
1215.71	22.2516
1217.33	21.8634
1218.94	22.8259
1220.56	22.9131
1222.17	22.8903
1223.79	22.5955
1225.4	23.0285
1227.01	22.5728
1228.62	22.8235
1230.23	22.7881
1231.85	23.4816
1233.46	23.3818
1235.07	23.8169
1236.68	24.5052
1238.29	24.0187
1239.9	24.0509
1241.51	24.1327
1243.12	23.9377
1244.73	24.2929
1246.34	25.972
1247.94	27.1614
1249.55	27.4889
1251.16	28.2512
1252.77	28.7865
1254.37	28.2528
1255.98	27.9087
1257.59	28.0796
1259.2	28.6475
1260.8	29.1159
1262.41	28.8272
1264.01	27.968
1265.62	28.4287
1267.22	29.3155
1268.83	29.6621
1270.43	29.3194
1272.03	28.783
1273.64	29.4506
1275.24	30.1056
1276.85	32.0103
1278.45	32.8325
1280.05	33.2975
1281.65	34.8846
1283.25	36.1606
1284.85	35.9041
1286.46	36.8252
1288.06	37.2025
1289.66	38.2277
1291.26	38.9907
1292.86	40.2174
1294.46	40.9737
1296.06	41.6328
1297.66	42.6335
1299.25	43.2869
1300.85	43.828
1302.45	43.6695
1304.05	43.5384
1305.65	44.0059
1307.24	43.8627
1308.84	45.669
1310.43	46.2297
1312.03	46.4738
1313.63	46.5869
1315.22	47.1881
1316.82	47.9501
1318.41	48.7981
1320.01	49.1749
1321.6	49.52
1323.2	49.3482
1324.79	48.9884
1326.38	49.7193
1327.98	49.1673
1329.57	48.2634
1331.16	47.8268
1332.76	46.9994
1334.35	45.603
1335.94	45.0028
1337.53	43.4971
1339.12	42.3974
1340.71	41.9683
1342.3	41.0901
1343.89	41.2667
1345.48	40.722
1347.07	40.3263
1348.66	39.3686
1350.25	38.775
1351.84	37.9354
1353.43	39.1298
1355.01	38.9083
1356.6	38.0485
1358.19	37.5522
1359.77	36.5999
1361.36	36.6729
1362.95	35.2921
1364.53	34.4026
1366.12	35.0863
1367.71	35.5288
1369.29	36.3849
1370.88	36.2533
1372.46	37.2998
1374.04	37.4008
1375.63	37.7711
1377.21	37.3936
1378.8	37.688
1380.38	37.7333
1381.96	37.3986
1383.54	37.1305
1385.13	37.5786
1386.71	37.843
1388.29	38.13
1389.87	37.864
1391.45	37.7079
1393.03	37.1863
1394.61	37.6817
1396.19	38.0981
1397.77	37.4114
1399.35	36.2063
1400.93	35.8896
1402.51	34.6833
1404.09	33.6212
1405.67	34.0148
1407.24	33.4734
1408.82	34.291
1410.4	34.0858
1411.98	33.8397
1413.55	33.9727
1415.13	34.608
1416.71	35.2131
1418.28	37.1633
1419.86	38.0183
1421.43	38.5921
1423.01	39.8027
1424.58	40.3804
1426.16	41.2494
1427.73	42.0337
1429.31	43.2434
1430.88	45.1205
1432.45	47.0038
1434.02	47.8216
1435.6	49.0946
1437.17	51.0265
1438.74	52.5288
1440.31	53.8034
1441.88	55.219
1443.45	56.1239
1445.03	58.1765
1446.6	59.9844
1448.17	61.9906
1449.74	63.4035
1451.3	64.2843
1452.87	63.885
1454.44	63.0747
1456.01	62.7562
1457.58	63.2137
1459.15	61.7285
1460.72	61.1359
1462.28	60.8128
1463.85	60.4498
1465.42	59.9131
1466.98	59.1483
1468.55	58.4444
1470.12	58.1382
1471.68	57.7228
1473.25	57.5257
1474.81	56.2754
1476.38	54.6166
1477.94	53.9433
1479.51	52.8961
1481.07	52.4205
1482.63	52.5644
1484.2	52.6145
1485.76	52.2823
1487.32	51.6046
1488.88	50.5063
1490.45	49.8819
1492.01	50.3889
1493.57	49.3335
1495.13	48.2294
1496.69	47.3833
1498.25	45.9142
1499.81	44.7671
1501.37	43.9017
1502.93	42.0608
1504.49	40.866
1506.05	39.7602
1507.61	38.054
1509.17	36.6746
1510.73	35.0097
1512.28	33.6098
1513.84	31.9782
1515.4	30.7467
1516.96	29.3958
1518.51	28.2561
1520.07	27.8031
1521.63	26.8012
1523.18	27.007
1524.74	25.5522
1526.29	23.8621
1527.85	22.5687
1529.4	21.7755
1530.96	21.2932
1532.51	21.3039
1534.06	21.836
1535.62	21.9543
1537.17	21.5917
1538.72	21.5553
1540.28	21.7986
1541.83	21.76
1543.38	22.7873
1544.93	24.4906
1546.48	25.3921
1548.03	26.269
1549.59	26.6958
1551.14	26.784
1552.69	27.2551
1554.24	27.8328
1555.79	28.943
1557.34	29.6804
1558.88	30.4847
1560.43	31.8115
1561.98	32.4574
1563.53	33.1207
1565.08	33.643
1566.62	34.5921
1568.17	34.9839
1569.72	36.0513
1571.27	35.8611
1572.81	36.0736
1574.36	36.2548
1575.9	36.1421
1577.45	36.2317
1579	36.0834
1580.54	35.7554
1582.09	36.58
1583.63	36.4283
1585.17	36.7764
1586.72	37.1582
1588.26	38.0722
1589.8	37.7436
1591.35	37.7066
1592.89	38.1801
1594.43	38.6055
1595.97	39.1824
1597.52	38.9186
1599.06	38.469
1600.6	38.2605
1602.14	38.488
1603.68	39.0707
1605.22	40.069
1606.76	40.1968
1608.3	40.2232
1609.84	40.2698
1611.38	39.0045
1612.92	39.0924
1614.46	38.6294
1615.99	38.5399
1617.53	38.7762
1619.07	38.3195
1620.61	39.4801
1622.14	39.342
1623.68	38.1378
1625.22	37.478
1626.75	38.2567
1628.29	37.8636
1629.82	38.0149
1631.36	37.315
1632.9	37.5193
1634.43	36.5215
1635.96	36.2909
1637.5	37.1482
1639.03	36.4844
1640.57	35.9769
1642.1	36.9882
1643.63	37.5045
1645.16	37.5408
1646.7	37.9567
1648.23	37.931
1649.76	37.9968
1651.29	38.6602
1652.82	38.7164
1654.36	38.9191
1655.89	39.0933
1657.42	39.1874
1658.95	39.7535
1660.48	39.3
1662.01	38.1917
1663.53	37.3341
1665.06	36.8922
1666.59	35.8425
1668.12	35.4096
1669.65	34.2506
1671.18	33.1624
1672.7	32.5546
1674.23	31.4691
1675.76	29.8213
1677.29	28.9023
1678.81	27.6885
1680.34	26.1059
1681.86	25.1043
1683.39	23.1641
1684.91	21.3337
1686.44	19.8673
1687.96	18.705
1689.49	18.143
1691.01	17.0688
1692.54	15.6516
1694.06	14.251
1695.58	13.4537
1697.11	13.1717
1698.63	11.3723
1700.15	11.0962
1701.67	9.99729
1703.2	8.69233
1704.72	7.01408
1706.24	6.17837
1707.76	4.58014
1709.28	3.98637
1710.8	3.02801
1712.32	2.82298
1713.84	2.89056
1715.36	2.28346
1716.88	1.97207
1718.4	2.56818
1719.91	1.97277
1721.43	2.12638
1722.95	1.95092
1724.47	2.55034
1725.99	3.08949
1727.5	3.2682
1729.02	2.88225
1730.54	3.61512
1732.05	3.78488
1733.57	3.95417
1735.09	4.09688
1736.6	3.80608
1738.12	3.93766
1739.63	4.28718
1741.15	3.98226
1742.66	3.5993
1744.18	3.85215
1745.69	4.1494
1747.2	4.61011
1748.72	4.56995
1750.23	4.21957
1751.74	3.77095
1753.25	4.1184
1754.77	3.75399
1756.28	3.67629
1757.79	4.27193
1759.3	4.22481
1760.81	4.7647
1762.32	5.87119
1763.83	5.637
1765.34	5.74904
1766.85	5.9205
1768.36	5.51852
1769.87	5.38835
1771.38	4.97925
1772.89	4.71842
1774.4	4.2141
1775.91	4.7067
1777.41	3.81862
1778.92	3.86403
1780.43	3.9222
1781.94	3.83914
1783.44	3.32385
1784.95	3.9266
1786.45	4.01965
1787.96	4.09921
1789.47	4.24665
1790.97	4.55359
1792.47	4.95929
1793.98	5.29657
1795.48	5.73302
1796.99	5.8651
1798.49	5.39841
1800	6.17375
1801.5	5.55053
1803	5.46851
1804.51	5.60119
1806.01	5.84632
1807.51	5.37413
1809.01	5.43709
1810.51	4.88645
1812.02	4.8219
1813.52	4.44633
1815.02	4.47666
1816.52	4.54902
1818.02	4.62312
1819.52	5.28288
1821.02	5.15069
1822.52	4.57285
1824.02	4.26344
1825.51	4.08281
1827.01	3.89112
1828.51	3.37928
1830.01	2.90466
1831.51	3.31605
1833	3.49569
1834.5	3.8758
1836	3.47504
1837.49	3.15532
1838.99	2.77242
1840.49	2.80724
1841.98	2.75577
1843.48	2.09136
1844.97	1.64051
1846.47	1.58036
1847.96	1.837
1849.46	1.67597
1850.95	2.2533
1852.45	2.50604
1853.94	3.29005
1855.43	3.31087
1856.92	3.85766
1858.42	3.76796
1859.91	4.38033
1861.4	4.24806
1862.89	4.53534
1864.39	4.85241
1865.88	5.53068
1867.37	5.19128
1868.86	5.41445
1870.35	5.74091
1871.84	5.78688
1873.33	5.75255
1874.82	6.30974
1876.31	6.2256
1877.8	6.77126
1879.29	6.76098
1880.77	6.48621
1882.26	6.97677
1882.52	6.76375
1884.02	6.61345
1885.51	6.94389
1887.01	7.60357
1888.5	7.6786
1889.99	7.4081
1891.49	6.27596
1892.98	6.12677
1894.47	5.58385
1895.96	5.54692
1897.46	5.22148
1898.95	4.65671
1900.44	4.22036
1901.93	4.23203
1903.42	3.61418
1904.91	4.21892
1906.4	4.03508
1907.89	4.36346
1909.38	3.16062
1910.87	3.01406
1912.36	2.66169
1913.85	1.86787
1915.34	1.39522
1916.83	0.567529
1918.32	1.011
1919.8	1.39221
1921.29	1.4752
1922.78	2.10738
1924.27	2.95725
1925.75	3.57351
1927.24	3.39547
1928.73	2.78291
1930.21	2.86657
1931.7	2.91798
1933.18	2.78034
1934.67	2.85672
1936.15	2.81834
1937.64	2.55355
1939.12	2.50561
1940.61	1.75833
1942.09	2.59698
1943.57	2.58164
1945.06	3.41961
1946.54	3.3468
1948.02	4.07324
1949.51	4.31633
1950.99	3.73081
1952.47	4.017
1953.95	4.17795
1955.43	4.88402
1956.91	4.12675
1958.39	4.07246
1959.87	3.96192
1961.36	3.85921
1962.84	2.64499
1964.32	2.75004
1965.79	2.06114
1967.27	2.77922
1968.75	2.98819
1970.23	3.1385
1971.71	2.9513
1973.19	2.57387
1974.66	2.96702
1976.14	3.54355
1977.62	3.08299
1979.1	3.85111
1980.57	3.11459
1982.05	3.37964
1983.53	2.95888
1985	2.92482
1986.48	2.80685
1987.95	3.08833
1989.43	3.21743
1990.9	3.33371
1992.38	4.06093
1993.85	4.0625
1995.33	4.64062
1996.8	4.92313
1998.27	4.70058
1999.75	4.30673
2001.22	3.88977
2002.69	3.80978
2004.16	3.58869
2005.64	3.35368
2007.11	2.76773
2008.58	3.18137
2010.05	2.92272
2011.52	3.68881
2012.99	4.52569
2014.46	4.35824
2015.93	5.63297
2017.4	5.81355
2018.87	6.571
2020.34	7.13592
2021.81	7.74299
2023.28	7.42041
2024.75	7.69611
2026.22	8.5802
2027.69	8.43362
2029.15	8.51469
2030.62	8.21967
2032.09	8.70305
2033.56	10.0981
2035.02	10.4704
2036.49	10.9089
2037.95	11.8438
2039.42	11.8386
2040.89	12.3938
2042.35	12.7098
2043.82	12.9503
2045.28	13.4652
2046.75	13.5103
2048.21	14.1843
2049.67	14.7153
2051.14	14.5748
2052.6	15.3898
2054.06	15.7306
2055.53	15.9902
2056.99	15.5887
2058.45	15.5519
2059.92	15.4001
2061.38	15.4403
2062.84	15.5861
2064.3	15.2789
2065.76	15.9727
2067.22	15.9489
2068.68	15.6176
2070.14	14.6444
2071.6	14.2026
2073.06	13.6047
2074.52	12.662
2075.98	12.5452
2077.44	11.7921
2078.9	11.4292
2080.36	10.5774
2081.82	11.0804
2083.27	10.2633
2084.73	10.4693
2086.19	10.5675
2087.65	9.65858
2089.1	10.2651
2090.56	10.1618
2092.01	10.1731
2093.47	10.3305
2094.93	9.17099
2096.38	8.92483
2097.84	8.81913
2099.29	8.8217
2100.75	8.81011
2102.2	8.49505
2103.66	8.83433
2105.11	9.30279
2106.56	9.57428
2108.02	9.0348
2109.47	9.12316
2110.92	8.49829
2112.37	8.30946
2113.83	8.55053
2115.28	8.53803
2116.73	9.15057
2118.18	9.53114
2119.63	10.1611
2121.09	11.0097
2122.54	11.917
2123.99	12.2296
2125.44	12.2475
2126.89	12.5855
2128.34	12.851
2129.79	13.1642
2131.23	13.528
2132.68	13.9945
2134.13	14.7382
2135.58	15.2234
2137.03	15.2193
2138.48	15.9172
2139.92	15.7131
2141.37	15.7035
2142.82	15.5824
2144.26	16.3242
2145.71	16.4597
2147.16	17.1327
2148.6	17.5421
2150.05	17.5095
2151.49	17.9372
2152.94	18.5249
2154.38	19.4409
2155.83	19.8786
2157.27	20.6254
2158.72	21.2322
2160.16	21.2688
2161.6	22.3458
2163.05	22.2686
2164.49	22.7838
2165.93	23.203
2167.38	23.0764
2168.82	23.7332
2170.26	24.2663
2171.7	24.5802
2173.14	24.038
2174.58	24.5585
2176.03	24.6832
2177.47	24.3912
2178.91	24.2903
2180.35	24.0972
2181.79	23.8666
2183.23	24.0214
2184.67	24.4743
2186.1	24.6637
2187.54	24.6633
2188.98	24.9841
2190.42	24.7422
2191.86	25.0135
2193.3	24.6214
2194.73	24.1522
2196.17	23.3111
2197.61	22.8415
2199.05	22.294
2200.48	21.8827
2201.92	20.837
2203.35	20.4742
2204.79	20.1943
2206.22	19.9581
2207.66	19.4113
2209.09	18.8692
2210.53	18.4515
2211.96	17.7342
2213.4	17.1556
2214.83	16.7703
2216.27	17.0217
2217.7	15.372
2219.13	15.121
2220.56	13.6349
2222	13.6853
2223.43	13.8709
2224.86	13.6152
2226.29	13.4294
2227.72	13.3108
2229.16	12.7022
2230.59	12.7061
2232.02	12.3698
2233.45	12.2872
2234.88	12.1973
2236.31	12.1853
2237.74	12.2118
2239.17	11.7513
2240.6	11.4159
2242.03	11.8606
2243.45	11.034
2244.88	10.5914
2246.31	10.3035
2247.74	9.61231
2249.17	9.86436
2250.59	10.0201
2252.02	10.3593
2253.45	10.3286
2254.87	10.0726
2256.3	9.75692
2257.73	9.54902
2259.15	9.4801
2260.58	9.25585
2262	9.00318
2263.43	8.52297
2264.85	8.7331
2266.28	8.41541
2267.7	7.8989
2269.13	7.40613
2270.55	7.04136
2271.97	6.78225
2273.4	7.22749
2274.82	8.11291
2276.24	8.21088
2277.66	8.79136
2279.09	8.1075
2280.51	8.33664
2281.93	8.39072
2283.35	7.79081
2284.77	7.57862
2286.19	7.24009
2287.61	6.57324
2289.04	6.38239
2290.46	7.02567
2291.88	6.16734
2293.29	7.00397
2294.71	7.45327
2296.13	7.53047
2297.55	7.92011
2298.97	8.68364
2300.39	8.895
2301.81	9.57799
2303.23	10.0803
2304.64	10.5629
2306.06	10.7653
2307.48	10.5565
2308.89	10.8636
2310.31	10.2908
2311.73	10.2044
2313.14	10.3235
2314.56	9.67228
2315.97	9.9079
2317.39	9.73803
2318.8	10.1575
2320.22	10.0792
2321.63	9.90152
2323.05	9.31938
2324.46	8.48012
2325.88	8.77635
2327.29	8.99211
2328.7	8.63231
2330.12	9.32755
2331.53	8.98314
2332.94	9.22888
2334.35	8.74243
2335.76	8.74048
2337.18	8.38635
2338.59	8.30338
2340	8.30229
2341.41	8.87604
2342.82	8.75151
2344.23	9.38788
2345.64	8.90159
2347.05	8.24952
2348.46	7.71746
2349.87	6.96342
2351.28	6.7362
2352.69	6.12294
2354.1	6.11
2355.5	6.09189
2356.91	6.56937
2358.32	6.76156
2359.73	7.29635
2361.14	6.65642
2362.54	6.3654
2363.95	7.16119
2365.36	7.37617
2366.76	7.55379
2368.17	7.48349
2369.58	7.75285
2370.98	7.16289
2372.39	7.17161
2373.79	7.18763
2375.2	6.70364
2376.6	6.11483
2378	5.6421
2379.41	5.24758
2380.81	4.65943
2382.22	4.42683
2383.62	4.90208
2385.02	5.01169
2386.42	4.71967
2387.83	4.4867
2389.23	4.77903
2390.63	4.80955
2392.03	5.43196
2393.43	5.35556
2394.84	5.92493
2396.24	6.76239
2397.64	6.43423
2399.04	5.91733
2400.44	6.344
2401.84	5.53857
2403.24	5.58415
2404.64	5.19761
2406.04	5.08521
2407.44	5.33252
2408.83	5.54362
2410.23	5.51445
2411.63	5.67129
2413.03	5.37043
2414.43	5.35798
2415.83	5.25951
2417.22	4.65835
2418.62	4.86214
2420.02	4.80856
2421.41	4.42215
2422.81	4.44827
2424.21	4.62705
2425.6	4.49674
2427	4.73534
2428.39	4.28026
2429.79	3.6833
2431.18	3.30998
2432.58	3.14978
2433.97	3.30898
2435.36	3.09083
2436.76	2.79558
2438.15	1.74975
2439.54	1.49327
2440.94	1.37861
2442.33	1.76055
2443.72	1.54644
2445.11	0.664878
2446.51	0.575392
2447.9	0.744436
2449.29	1.33638
2450.68	1.13908
2452.07	1.02314
2453.46	1.45847
2454.85	1.0911
2456.24	1.27429
2457.63	1.45008
2459.02	1.24922
2460.41	1.63203
2461.8	1.41972
2463.19	1.12035
2464.58	1.07261
2465.97	0.700414
2467.36	0.106973
2468.75	0.406084
2470.13	0.654744
2471.52	0.828848
2472.91	1.0725
2474.29	1.59332
2475.68	1.9143
2477.07	2.01502
2478.45	2.5725
2479.84	2.38542
2481.22	2.4596
2482.61	1.98195
2484	1.7854
2485.38	1.85527
2486.77	2.22951
2488.15	2.80451
2489.54	2.69792
2490.92	2.73692
2492.3	3.30507
2493.69	4.18589
2495.07	4.56663
2496.45	4.46321
2497.84	3.97123
2499.22	3.71582
2500.6	3.93609
2501.98	3.50309
2503.36	3.61032
2504.74	3.6822
2506.13	4.13319
2507.51	4.33143
2508.89	4.84878
2510.27	5.29072
2511.65	5.23137
2513.03	4.9586
2514.41	5.05188
2515.79	5.46396
2517.17	5.88448
2518.55	5.99833
2519.93	5.03913
2521.3	5.18994
2522.68	5.66112
2524.06	5.87474
2525.44	5.50557
2526.82	4.82606
2528.19	4.82467
2529.57	5.42191
2530.95	4.98591
2532.32	5.51879
2533.7	4.80652
2535.08	4.53229
2536.45	4.32049
2537.83	4.38638
2539.2	3.55222
2540.58	3.51775
2541.95	3.11166
2543.33	2.75002
2544.7	2.335
2546.08	1.94892
2547.45	2.23897
2548.82	1.95813
2550.2	1.80105
2551.57	1.49643
2552.94	1.67678
2554.32	1.85495
2555.69	1.69359
2557.06	1.25252
2558.43	1.02008
2559.8	0.681397
2561.17	0.973385
2562.55	0.754975
2563.92	0.0467636
2565.29	-0.0913436
2566.66	0.359362
2568.03	0.807374
2569.4	1.25768
2570.77	1.2978
2572.14	1.63596
2573.51	2.3492
2574.88	2.69097
2576.24	3.07317
2577.61	3.61288
2578.98	4.37754
2580.35	4.56887
2581.72	4.818
2583.09	5.09425
2584.45	5.65355
2585.82	5.41894
2587.19	5.69437
2588.55	5.41431
2589.92	5.6324
2591.28	6.22196
2592.65	6.15161
2594.02	5.62267
2595.38	5.8942
2596.75	6.1352
2598.11	6.24877
2599.48	5.62073
2600.84	4.92843
2602.2	3.95623
2603.57	3.89539
2604.93	3.82492
2606.3	3.75901
2607.66	3.55791
2609.02	3.54547
2610.38	3.64933
2611.75	3.7532
2613.11	3.96019
2614.47	4.15337
2615.83	4.1565
2617.19	4.13849
2618.56	4.29602
2619.92	3.61277
2621.28	3.38602
2622.64	2.90509
2624	2.67968
2625.36	2.56906
2626.72	2.54029
2628.08	2.55711
2629.44	3.06069
2630.8	3.58716
2632.15	3.72286
2633.51	4.03949
2634.87	4.23551
2636.23	3.94512
2637.59	4.16315
2638.94	4.19076
2640.3	4.52658
2641.66	4.98447
2643.02	5.69027
2644.37	5.72567
2645.73	5.44602
2647.08	5.58801
2648.44	5.06257
2649.8	5.37126
2651.15	5.71386
2652.51	5.89016
2653.86	5.41768
2655.22	5.79532
2656.57	5.34899
2657.92	5.43883
2659.28	6.29407
2660.63	6.15812
2661.99	6.30413
2663.34	6.91539
2664.69	6.60827
2666.04	6.75895
2667.4	6.49257
2668.75	6.69284
2670.1	6.69381
2671.45	6.8198
2672.81	7.02211
2674.16	6.97583
2675.51	7.39907
2676.86	7.65828
2678.21	8.14877
2679.56	8.54086
2680.91	8.10119
2682.26	8.35526
2683.61	8.72504
2684.96	8.62252
2686.31	8.33361
2687.66	7.97954
2689	8.37461
2690.35	8.72845
2691.7	8.62206
2693.05	8.4691
2694.4	8.70578
2695.74	9.0825
2697.09	9.04943
2698.44	8.70875
2699.79	7.792
2701.13	8.1594
2702.48	8.25695
2703.82	8.38914
2705.17	8.48662
2706.52	8.16261
2707.86	7.80549
2709.21	7.70485
2710.55	7.7691
2711.9	7.10726
2713.24	6.83939
2714.58	6.3841
2715.93	5.78707
2717.27	6.33128
2718.61	5.98236
2719.96	5.75306
2721.3	5.47543
2722.64	5.51874
2723.99	5.11971
2725.33	5.11132
2726.67	5.67873
2728.01	5.35304
2729.35	5.45693
2730.7	4.82465
2732.04	4.41092
2733.38	4.15371
2734.72	3.90519
2736.06	3.70532
2737.4	2.94974
2738.74	2.95145
2740.08	3.20579
2741.42	3.60347
2742.76	4.03349
2744.09	4.29387
2745.43	4.18097
2746.77	4.53197
2748.11	4.62367
2749.45	5.41216
2750.79	6.17082
2752.12	6.08613
2753.46	6.39393
2754.8	6.50982
2756.13	6.22884
2757.47	6.09588
2758.81	5.75898
2760.14	6.29335
2761.48	6.79146
2762.81	6.77717
2764.15	6.07188
2765.49	6.28523
2766.82	6.67844
2768.15	7.05783
2769.49	6.93885
2770.82	6.73852
2772.16	6.18161
2773.49	5.43538
2774.82	4.88293
2776.16	4.95039
2777.49	4.74576
2778.82	4.72349
2780.16	4.00092
2781.49	3.77089
2782.82	4.08168
2784.15	4.05522
2785.48	3.19316
2786.81	3.11704
2788.15	2.41658
2789.48	1.7294
2790.81	1.37852
2792.14	1.4505
2793.47	1.11076
2794.8	0.817497
2796.13	0.759923
2797.46	-0.153049
2798.79	-0.100639
2800.12	-0.156073
2801.44	-0.303692
2802.77	-0.732321
2804.1	-1.26975
2805.43	-0.985731
2806.76	-0.815909
2808.08	-0.507376
2809.41	-1.12895
2810.74	-0.856348
2812.07	-0.945888
2813.39	0.209692
2814.72	0.530876
2816.05	0.611141
2817.37	1.13402
2818.7	1.00891
2820.02	1.00156
2821.35	1.42396
2822.67	2.25309
2824	3.31524
2825.32	4.26574
2826.65	5.12951
2827.97	6.06668
2829.29	7.1101
2830.62	8.37027
2831.94	10.0987
2833.26	11.454
2834.59	11.9172
2835.91	13.1036
2837.23	15.0241
2838.55	16.7735
2839.88	18.3433
2841.2	20.33
2842.52	22.3495
2843.84	24.4547
2845.16	27.523
2846.48	29.6636
2847.8	32.5736
2849.12	35.8415
2850.44	38.5549
2851.76	41.064
2853.08	44.449
2854.4	46.7225
2855.72	49.8153
2857.04	52.7104
2858.36	55.4408
2859.68	57.66
2861	60.9983
2862.32	63.6345
2863.63	65.2109
2864.95	68.0307
2866.27	70.2016
2867.58	72.0662
2868.9	74.1229
2870.22	75.9969
2871.53	78.352
2872.85	80.3111
2874.17	82.0858
2875.48	83.463
2876.8	85.281
2878.11	86.7442
2879.43	88.6802
2880.74	89.5073
2882.06	90.4071
2883.37	91.4992
2884.69	92.6947
2886	93.5286
2887.31	94.9824
2888.63	96.3143
2889.94	97.5803
2891.25	98.8064
2892.57	100.139
2893.88	101.334
2895.19	103.198
2896.5	105.096
2897.82	106.373
2899.13	108.003
2900.44	109.999
2901.75	112.77
2903.06	115.079
2904.37	116.312
2905.68	118.334
2906.99	121.387
2908.3	124.503
2909.61	128.436
2910.92	131.65
2912.23	134.133
2913.54	137.594
2914.85	140.863
2916.16	142.987
2917.46	145.492
2918.77	148.246
2920.08	150.372
2921.39	152.796
2922.7	154.583
2924	156.206
2925.31	157.233
2926.62	158.609
2927.92	159.031
2929.23	158.972
2930.53	159.671
2931.84	159.219
2933.15	158.432
2934.45	157.773
2935.76	157.214
2937.06	155.408
2938.37	153.579
2939.67	151.606
2940.98	149.36
2942.28	147.233
2943.58	145.025
2944.89	142.314
2946.19	139.829
2947.49	138.002
2948.8	135.327
2950.1	132.914
2951.4	129.186
2952.7	126.305
2954.01	123.547
2955.31	120.78
2956.61	117.74
2957.91	115.168
2959.21	112.146
2960.51	109.431
2961.81	106.141
2963.11	102.409
2964.41	99.7512
2965.71	96.894
2967.01	93.9953
2968.31	91.1799
2969.61	88.8893
2970.91	86.9752
2972.21	85.1495
2973.51	83.1839
2974.81	80.6266
2976.1	78.2576
2977.4	75.576
2978.7	73.0007
2980	69.9484
2981.29	67.0942
2982.59	64.8605
2983.89	62.4194
2985.18	59.263
2986.48	55.9876
2987.78	52.7743
2989.07	49.3307
2990.37	46.2604
2991.66	42.9764
2992.96	39.852
2994.25	36.7762
2995.55	34.4366
2996.84	32.1034
2998.14	29.5305
2999.43	27.713
3000.72	24.9214
3002.02	21.855
3003.31	20.5974
3004.6	18.527
3005.9	16.5054
3007.19	14.6373
3008.48	12.352
3009.77	11.3044
3011.07	10.431
3012.36	8.65174
3013.65	6.26759
3014.94	5.16148
3016.23	3.47672
3017.52	3.2942
3018.81	3.07212
3020.1	2.53607
3021.39	1.77988
3022.68	1.63819
3023.97	1.04291
3025.26	1.13102
3026.55	1.24227
3027.84	1.61076
3029.13	1.7614
3030.42	2.13952
3031.71	2.49298
3033	2.90385
3034.28	3.30823
3035.57	3.73147
3036.86	4.61215
3038.15	4.70483
3039.43	5.35164
3040.72	5.98468
3042.01	5.84812
3043.29	6.18358
3044.58	6.54379
3045.86	7.11467
3047.15	7.24251
3048.44	7.02305
3049.72	6.8406
3051.01	6.92784
3052.29	7.36917
3053.58	7.17689
3054.86	7.42282
3056.14	7.55112
3057.43	7.7299
3058.71	7.75863
3060	7.78748
3061.28	7.68122
3062.56	6.89578
3063.84	6.76909
3065.13	6.08843
3066.41	6.1222
3067.69	6.06623
3068.97	5.06324
3070.25	4.16712
3071.54	3.72346
3072.82	3.42963
3074.1	3.11459
3075.38	2.34977
3076.66	2.10928
3077.94	1.92911
3079.22	1.31893
3080.5	0.865952
3081.78	0.776592
3083.06	0.411031
3084.34	0.116982
3085.62	0.235368
3086.9	0.598816
3088.17	0.643492
3089.45	0.725959
3090.73	0.520313
3092.01	0.526436
3093.29	0.336027
3094.56	0.770668
3095.84	0.611147
3097.12	1.34699
3098.4	1.62126
3099.67	2.25207
3100.95	2.7337
3102.22	2.79384
3103.5	3.43428
3104.77	3.13396
3106.05	3.65877
3107.33	3.53136
3108.6	4.30337
3109.88	4.73212
3111.15	5.18404
3112.43	6.44655
3113.7	7.64371
3114.97	8.31648
3116.25	9.04725
3117.52	9.51928
3118.79	10.4446
3120.07	11.1189
3121.34	11.5702
3122.61	12.5253
3123.88	13.6732
3125.16	14.7615
3126.43	15.5812
3127.7	16.6315
3128.97	17.3365
3130.24	18.6245
3131.51	19.298
3132.78	19.9287
3134.05	20.7579
3135.33	22.1879
3136.59	22.9269
3137.86	23.7229
3139.14	25.1314
3140.41	26.2689
3141.67	27.0606
3142.94	28.167
3144.21	29.394
3145.48	30.4253
3146.75	31.2916
3148.02	31.9444
3149.28	31.6437
