#Acq. time (s)=	45
#Accumulations=	2
#Range (cm-¹)=	200...3150
#Windows=	2
#Auto scanning=	Off
#Autofocus=	Off
#Macrospot=	Off
#AutoExposure=	Off
#Spike filter=	Multiple accum.
#Delay time (s)=	0
#Binning=	1
#Readout mode=	Signal
#DeNoise=	Off
#ICS correction=	On
#Dark correction=	Off
#Inst. Process=	Off
#Detector Gain=	Best Dynamic Range
#Detector ADC=	20 kHz       
#Detector temperature (°C)=	-70.08
#Instrument=	LabRAM HR Evol
#Detector=	Synapse
#Objective=	x100
#Grating=	600 gr/mm
#ND Filter=	100%
#Laser (nm)=	532 
#Hole=	100.021
#Range=	Auto
#Laser Pol.=	No
#Raman. Pol.=	No
#Laser Pol. (°)=	-0.0007625
#Raman Pol. (°)=	89.9995
#Collection=	Microscope
#StageXY=	Marzhauser
#StageZ=	Marzhauser
#X (µm)=	-2397
#Y (µm)=	2126.7
#Z (µm)=	-40.5
#Full time(mm:ss)=	3:18
#Project=	
#Sample=	
#Site=	
#Title=	Mb_10_14_10_2x_45s_532 nm_x100_100%_600 gr_mm
#Remark=	
#Date=	07.07.2022 14:07
#Acquired=	07.07.2022 14:07:46
#Base:Fit=	10.08.2022 10:21:11
#Base:Sub=	10.08.2022 10:21:41
#Filter:Polynom=	16.08.2022 10:17:53
#AxisType[0]=Intens
#AxisUnit[0]=Cnt
#AxisType[1]=Spectr
#AxisUnit[1]=1/cm
200.43	9.96875
202.246	10.4612
204.061	10.1636
205.875	9.50617
207.688	8.25295
209.501	6.91737
211.316	5.79264
213.129	5.27161
214.941	4.97419
216.753	4.71603
218.566	5.88051
220.377	8.21524
222.188	9.05188
223.999	10.8083
225.809	13.3337
227.618	13.6873
229.43	14.9595
231.239	17.2854
233.047	17.524
234.855	18.7262
236.663	17.8047
238.471	17.7491
240.278	17.1428
242.087	17.5273
243.894	17.3481
245.7	18.1295
247.506	18.9336
249.311	19.0079
251.116	19.3034
252.921	18.0288
254.725	18.4148
256.529	17.878
258.333	17.6864
260.136	18.3085
261.939	18.2398
263.744	19.592
265.546	20.3193
267.348	20.281
269.15	19.3524
270.951	17.8095
272.752	16.1806
274.552	15.9465
276.353	15.3726
278.152	14.6544
279.952	13.315
281.751	11.7931
283.55	10.4821
285.348	9.29029
287.146	8.31389
288.942	6.72699
290.739	4.98596
292.536	3.47182
294.333	2.34358
296.129	2.25864
297.925	2.6355
299.721	3.11774
301.516	4.4254
303.311	4.73057
305.106	4.62975
306.9	5.77329
308.694	7.4509
310.486	8.42301
312.279	8.488
314.072	8.76899
315.864	8.27396
317.656	7.45037
319.448	7.08786
321.24	6.85219
323.029	6.38536
324.819	6.2035
326.61	6.45309
328.4	6.59706
330.19	6.30254
331.977	6.77471
333.766	6.62729
335.555	6.36882
337.343	6.36148
339.131	5.81791
340.917	5.44471
342.704	5.64075
344.491	6.22132
346.277	5.48604
348.062	5.67944
349.848	5.96264
351.633	6.46746
353.416	7.28967
355.201	6.94437
356.986	6.66479
358.77	6.4815
360.552	7.63124
362.335	8.19332
364.118	8.97169
365.899	9.17474
367.682	9.30609
369.464	10.732
371.243	11.2598
373.025	11.9692
374.806	13.5313
376.585	14.5768
378.365	15.2354
380.143	15.6899
381.923	17.0199
383.702	18.972
385.479	21.6346
387.258	24.2275
389.034	24.5257
390.812	25.2134
392.59	25.3973
394.365	25.7511
396.142	27.0048
397.916	27.3715
399.693	27.8809
401.467	27.4398
403.242	26.4768
405.015	26.3608
406.79	26.8327
408.565	25.7043
410.337	26.7829
412.111	26.4599
413.882	25.1343
415.656	24.3949
417.426	22.3164
419.197	21.8818
420.969	21.2572
422.739	20.5382
424.51	19.2871
426.279	18.7828
428.05	17.9742
429.819	16.6463
431.589	15.8719
433.356	14.2031
435.124	13.2026
436.893	12.4606
438.66	11.7975
440.428	10.9462
442.194	11.1567
443.96	9.30584
445.727	8.89126
447.492	7.21022
449.259	7.2879
451.023	6.96131
452.787	7.15381
454.553	7.88254
456.316	7.37997
458.079	7.20679
459.844	7.60553
461.606	8.61198
463.368	9.28192
465.132	9.60767
466.893	10.0553
468.654	10.1889
470.415	11.6911
472.177	12.3101
473.937	13.2593
475.696	12.9081
477.456	12.0239
479.217	13.6514
480.975	13.9616
482.733	14.2732
484.491	16.4886
486.251	17.3156
488.008	17.6878
489.765	17.9022
491.522	18.9286
493.278	19.9573
495.036	20.242
496.791	20.7476
498.546	21.9897
500.301	22.1637
502.056	22.6074
503.81	23.3814
505.566	24.95
507.319	26.5334
509.073	26.8276
510.825	26.7677
512.578	26.6348
514.33	26.8644
516.082	27.696
517.833	27.5602
519.587	28.2139
521.337	28.0848
523.088	28.6151
524.838	28.7452
526.588	27.8742
528.337	26.8842
530.087	25.9147
531.835	24.5881
533.584	24.6011
535.332	23.415
537.08	24.7025
538.827	24.6448
540.574	24.3711
542.321	23.744
544.068	21.9544
545.814	21.9366
547.56	21.9747
549.305	20.4873
551.05	18.4917
552.795	17.4818
554.54	16.5243
556.284	15.668
558.027	14.5199
559.771	13.5992
561.514	12.9264
563.257	12.2721
564.999	12.0265
566.742	11.5069
568.481	10.2616
570.223	8.47808
571.964	7.82188
573.705	6.11147
575.445	5.5146
577.185	5.86818
578.925	5.05098
580.665	3.56369
582.402	2.77457
584.141	2.61239
585.879	2.14542
587.617	2.7205
589.355	2.87741
591.092	3.54194
592.828	4.40998
594.564	4.4853
596.301	4.44
598.037	5.18659
599.773	5.23033
601.506	5.9295
603.242	6.21802
604.976	6.51013
606.711	7.7109
608.443	7.07594
610.177	8.42306
611.91	7.93538
613.644	8.00443
615.374	8.62405
617.107	10.1309
618.839	10.841
620.569	10.8475
622.3	11.7412
624.032	12.5891
625.761	12.6932
627.491	13.0017
629.221	12.7195
630.949	12.7611
632.679	13.5242
634.408	14.3982
636.135	14.6664
637.863	16.0435
639.592	17.9666
641.318	19.2184
643.045	19.2788
644.77	19.1776
646.497	20.0861
648.224	20.4986
649.948	21.1798
651.674	20.7205
653.398	20.5505
655.123	19.4957
656.846	18.8333
658.57	20.1668
660.293	20.5434
662.017	20.5147
663.738	20.275
665.462	19.4488
667.185	19.6702
668.905	20.5646
670.628	21.2923
672.348	21.7149
674.067	21.8205
675.789	21.2804
677.508	21.8938
679.228	22.2199
680.947	22.3419
682.667	21.8593
684.385	21.9568
686.104	21.9445
687.821	22.8483
689.538	23.7555
691.256	25.2788
692.972	26.7766
694.69	26.4543
696.406	26.8821
698.121	26.0546
699.837	26.2157
701.552	26.2345
703.268	26.6252
704.982	26.6484
706.695	26.7244
708.41	27.3512
710.123	27.6188
711.836	28.9126
713.55	28.9453
715.262	30.1702
716.973	31.3155
718.685	33.3646
720.398	33.6911
722.108	34.8734
723.818	36.6012
725.53	37.7027
727.24	38.0682
728.949	38.245
730.658	39.3734
732.369	40.9563
734.077	41.5267
735.785	42.4215
737.493	42.8664
739.2	42.7345
740.909	44.6585
742.616	46.1707
744.322	48.3263
746.028	49.4743
747.734	51.1627
749.441	52.8718
751.146	55.7097
752.851	58.0527
754.555	59.3673
756.26	60.6932
757.963	62.4556
759.667	64.2306
761.372	65.6229
763.075	66.7694
764.777	68.7417
766.479	70.3178
768.181	71.3589
769.883	73.8706
771.584	75.9244
773.285	77.1409
774.986	77.7479
776.686	78.5739
778.386	78.9788
780.085	78.2225
781.785	78.2688
783.484	79.8526
785.182	80.9211
786.881	81.3047
788.579	81.7682
790.276	82.6665
791.974	82.6027
793.671	83.2999
795.367	83.8492
797.064	83.5142
798.76	82.6744
800.456	83.7245
802.151	83.6244
803.846	83.4856
805.541	82.5084
807.236	82.9782
808.93	82.3976
810.624	81.6262
812.317	81.3808
814.01	81.3843
815.703	81.1582
817.394	81.1974
819.086	80.5802
820.778	80.5832
822.47	80.1451
824.161	80.0775
825.852	81.4496
827.543	80.7933
829.231	80.2809
830.921	80.2688
832.611	79.746
834.3	78.7814
835.989	78.2735
837.676	76.8347
839.364	75.5543
841.053	74.5426
842.74	73.4559
844.426	71.3641
846.113	68.8154
847.8	67.6831
849.486	67.5905
851.171	65.6979
852.857	64.4866
854.542	64.1032
856.227	62.8554
857.911	61.9281
859.595	60.4999
861.279	60.2693
862.961	58.231
864.645	57.8195
866.329	57.1987
868.01	56.2627
869.692	55.2867
871.375	53.0607
873.055	51.4829
874.737	50.5063
876.418	50.0585
878.097	49.0694
879.778	47.9517
881.457	46.8906
883.137	46.2592
884.817	46.4102
886.495	45.007
888.174	44.2966
889.851	44.1331
891.53	44.4732
893.206	44.9361
894.884	44.7821
896.562	45.6811
898.237	45.2823
899.914	45.8266
901.589	45.7253
903.265	45.8545
904.94	46.0896
906.615	46.2365
908.289	45.6802
909.964	45.9118
911.637	45.9064
913.31	45.522
914.984	46.3172
916.656	45.7401
918.33	45.3519
920.001	45.751
921.674	46.6017
923.345	46.5502
925.015	46.7015
926.687	47.1042
928.357	46.6762
930.028	46.1883
931.698	46.1367
933.366	46.1936
935.037	45.5365
936.705	45.1345
938.373	44.542
940.043	43.4297
941.71	42.4232
943.379	41.1217
945.046	40.1617
946.712	39.1976
948.378	38.2417
950.046	35.9966
951.711	33.9799
953.376	33.0279
955.043	31.1171
956.708	30.6265
958.372	29.8447
960.036	28.2802
961.701	27.3033
963.364	26.9679
965.027	27.012
966.69	28.1956
968.354	30.2202
970.016	30.7557
971.678	32.7492
973.339	33.3181
975	33.9301
976.661	33.7215
978.324	34.3746
979.984	35.6199
981.644	36.3102
983.303	36.9172
984.962	36.4583
986.621	36.6339
988.282	36.6057
989.94	37.1546
991.598	38.0823
993.256	38.6838
994.913	39.695
996.57	40.1488
998.227	40.9876
999.884	41.614
1001.54	42.5025
1003.2	44.7235
1004.85	44.963
1006.51	44.0545
1008.16	44.8643
1009.82	45.0608
1011.47	45.2107
1013.12	45.4217
1014.78	45.6489
1016.43	46.8442
1018.08	46.5066
1019.74	47.2922
1021.39	47.4581
1023.04	47.4891
1024.69	47.1289
1026.34	47.7735
1028	46.9358
1029.65	46.6205
1031.3	45.608
1032.95	45.0235
1034.6	43.7376
1036.25	44.2775
1037.9	43.8137
1039.55	42.3084
1041.19	41.4891
1042.84	41.2065
1044.49	41.7475
1046.14	40.8859
1047.79	40.4343
1049.43	39.2558
1051.08	37.8177
1052.73	35.9737
1054.37	34.0808
1056.02	31.9496
1057.66	30.476
1059.31	28.2165
1060.95	26.0672
1062.6	24.4982
1064.24	23.2234
1065.88	21.0158
1067.53	19.3511
1069.17	18.758
1070.81	17.8868
1072.46	17.7106
1074.1	16.6906
1075.74	15.4631
1077.38	16.1338
1079.02	15.1635
1080.66	14.9532
1082.3	14.4364
1083.94	14.0273
1085.58	13.8758
1087.22	13.1997
1088.86	13.7227
1090.5	15.0055
1092.14	14.799
1093.78	15.3806
1095.42	16.1788
1097.05	16.6672
1098.69	16.9897
1100.33	16.8975
1101.97	18.3303
1103.6	18.8808
1105.24	19.4093
1106.87	19.6474
1108.51	19.4153
1110.15	19.625
1111.78	19.7527
1113.41	19.6208
1115.05	17.9962
1116.68	17.7067
1118.31	17.0647
1119.95	15.7456
1121.58	13.8661
1123.21	13.7437
1124.85	12.9385
1126.48	11.6503
1128.11	9.94121
1129.74	10.1949
1131.37	9.55063
1133	8.90244
1134.63	8.24483
1136.26	7.53598
1137.89	7.58227
1139.52	6.77568
1141.15	6.87897
1142.78	6.88278
1144.41	8.00383
1146.04	7.84134
1147.66	7.55088
1149.29	8.14286
1150.92	8.7307
1152.55	8.02999
1154.17	8.23429
1155.8	7.35632
1157.43	7.54559
1159.05	7.47449
1160.68	5.66946
1162.3	4.87994
1163.93	5.44635
1165.55	5.45638
1167.17	5.96411
1168.8	6.12731
1170.42	5.11037
1172.05	5.94808
1173.67	6.38961
1175.29	7.11268
1176.91	6.78358
1178.54	6.84527
1180.16	7.33631
1181.78	8.09029
1183.4	8.41185
1185.02	8.4671
1186.64	7.48363
1188.26	6.89917
1189.88	7.40125
1191.5	7.97589
1193.12	7.72531
1194.74	6.79164
1196.36	5.57408
1197.97	6.14424
1199.59	5.50597
1201.21	6.92216
1202.83	7.36038
1204.44	7.75016
1206.06	8.85562
1207.68	9.96783
1209.29	11.9514
1210.91	13.5267
1212.52	13.8845
1214.14	14.7887
1215.75	17.1316
1217.37	19.461
1218.98	21.731
1220.6	22.8878
1222.21	24.8368
1223.82	25.3076
1225.44	27.3089
1227.05	28.3226
1228.66	29.8824
1230.27	30.6984
1231.88	31.8986
1233.49	32.4298
1235.1	33.0077
1236.72	33.7932
1238.33	35.4992
1239.94	36.1132
1241.55	37.2685
1243.16	39.2761
1244.76	40.8936
1246.37	40.9436
1247.98	41.9379
1249.59	42.843
1251.2	43.7618
1252.8	45.0359
1254.41	44.6891
1256.02	44.3567
1257.63	44.6661
1259.23	45.271
1260.84	44.4766
1262.44	44.2642
1264.05	44.008
1265.66	44.1152
1267.26	43.7143
1268.87	44.3046
1270.47	44.2211
1272.07	42.4937
1273.68	41.9139
1275.28	41.8415
1276.88	42.3621
1278.48	43.135
1280.09	44.1349
1281.69	45.1907
1283.29	45.4044
1284.89	46.0482
1286.49	47.8068
1288.09	48.3969
1289.69	49.2029
1291.3	49.137
1292.9	49.5639
1294.49	51.0371
1296.09	51.6258
1297.69	52.4366
1299.29	53.1565
1300.89	53.5877
1302.49	54.0962
1304.09	53.6554
1305.68	54.8953
1307.28	55.2145
1308.88	56.6443
1310.47	57.5427
1312.07	58.6077
1313.66	57.9936
1315.26	58.5157
1316.86	59.855
1318.45	60.4221
1320.05	60.784
1321.64	61.0262
1323.23	60.7279
1324.83	61.4299
1326.42	61.1828
1328.01	62.1606
1329.61	62.1779
1331.2	61.2964
1332.79	59.9271
1334.38	58.6102
1335.98	58.0032
1337.57	57.1745
1339.16	56.0536
1340.75	54.7412
1342.34	54.0414
1343.93	52.7279
1345.52	51.353
1347.11	50.9068
1348.7	49.8818
1350.29	48.197
1351.87	46.7624
1353.46	46.9093
1355.05	46.0768
1356.64	44.9089
1358.23	43.2823
1359.81	42.2205
1361.4	40.7207
1362.99	40.0222
1364.57	39.0125
1366.16	37.8676
1367.74	36.5734
1369.33	35.4335
1370.91	33.7074
1372.5	32.9863
1374.08	32.2349
1375.67	31.0101
1377.25	30.5177
1378.83	29.6381
1380.42	29.4668
1382	27.7162
1383.58	26.7902
1385.16	27.7081
1386.75	26.8759
1388.33	26.516
1389.91	25.4513
1391.49	24.3429
1393.07	23.9286
1394.65	24.9394
1396.23	24.6479
1397.81	24.3482
1399.39	23.008
1400.97	23.1256
1402.55	23.5202
1404.13	24.0177
1405.7	24.4908
1407.28	25.257
1408.86	25.1962
1410.44	25.8468
1412.01	27.4729
1413.59	29.9125
1415.17	33.0321
1416.74	34.7192
1418.32	37.399
1419.89	39.358
1421.47	42.32
1423.05	45.7427
1424.62	48.6195
1426.19	51.6218
1427.77	53.8714
1429.34	56.5016
1430.92	59.4256
1432.49	62.1035
1434.06	63.7662
1435.63	66.0493
1437.2	67.6491
1438.78	70.3917
1440.35	72.3271
1441.92	74.6688
1443.49	75.515
1445.06	77.0216
1446.63	77.8429
1448.2	78.3011
1449.77	78.1682
1451.34	78.3239
1452.91	77.9425
1454.48	77.1048
1456.05	76.2083
1457.62	75.6398
1459.18	75.2027
1460.75	73.7473
1462.32	73.2665
1463.89	71.5728
1465.45	69.2882
1467.02	68.3519
1468.59	66.0557
1470.15	64.5272
1471.72	62.646
1473.28	61.2543
1474.85	57.719
1476.41	56.4802
1477.98	54.4417
1479.54	53.0068
1481.11	51.1771
1482.67	50.0935
1484.23	49.4825
1485.8	47.7735
1487.36	47.2097
1488.92	46.3292
1490.48	45.4068
1492.05	44.4219
1493.61	42.8692
1495.17	41.6501
1496.73	39.938
1498.29	38.3174
1499.85	37.7221
1501.41	36.216
1502.97	34.6534
1504.53	33.1829
1506.09	30.9253
1507.65	29.8281
1509.2	27.8302
1510.76	26.2118
1512.32	25.0209
1513.88	23.4561
1515.44	21.9179
1516.99	20.53
1518.55	18.8706
1520.1	17.7508
1521.66	16.0003
1523.22	15.2749
1524.77	13.0177
1526.33	11.3772
1527.88	10.1533
1529.44	9.43541
1530.99	9.47728
1532.55	9.52358
1534.1	10.0071
1535.65	10.3826
1537.21	11.3612
1538.76	10.9199
1540.31	10.4926
1541.86	9.98663
1543.42	11.2292
1544.97	11.8862
1546.52	11.938
1548.07	13.193
1549.62	13.1901
1551.17	14.8263
1552.72	15.3046
1554.27	16.5335
1555.82	16.2836
1557.37	16.4482
1558.92	17.646
1560.47	18.6004
1562.02	19.0392
1563.57	19.6892
1565.11	20.725
1566.66	22.1841
1568.21	24.2843
1569.75	25.8161
1571.3	27.4221
1572.85	28.4577
1574.39	28.3943
1575.94	29.6938
1577.49	31.2355
1579.03	31.9873
1580.58	33.0013
1582.12	33.7747
1583.67	34.6543
1585.21	36.0548
1586.75	36.8925
1588.3	37.9627
1589.84	38.9643
1591.38	39.3134
1592.93	39.9422
1594.47	40.7006
1596.01	42.2269
1597.55	43.9288
1599.09	44.9567
1600.63	45.203
1602.18	45.5316
1603.72	45.8586
1605.26	47.0011
1606.8	48.0378
1608.34	48.2687
1609.87	48.7008
1611.41	48.1163
1612.95	48.0704
1614.49	47.4884
1616.03	47.1228
1617.57	46.8516
1619.11	46.4387
1620.64	47.5073
1622.18	47.7902
1623.72	48.234
1625.25	48.3225
1626.79	47.7951
1628.32	48.592
1629.86	49.7881
1631.4	49.793
1632.93	50.7782
1634.47	51.979
1636	53.5037
1637.53	54.2913
1639.07	55.7682
1640.6	57.6385
1642.14	59.0083
1643.67	60.8735
1645.2	62.551
1646.73	63.3024
1648.27	65.0054
1649.8	65.2032
1651.33	66.5195
1652.86	67.2155
1654.39	67.9063
1655.92	68.254
1657.45	68.0904
1658.98	68.7069
1660.51	68.4163
1662.04	68.0624
1663.57	67.8315
1665.1	67.4566
1666.63	67.209
1668.16	66.0397
1669.69	65.1429
1671.21	64.441
1672.74	62.297
1674.27	59.9372
1675.79	57.2008
1677.32	54.442
1678.85	53.0044
1680.37	50.3234
1681.9	47.1064
1683.42	43.9269
1684.95	40.7594
1686.47	38.2165
1688	35.0924
1689.52	32.0697
1691.05	28.8692
1692.57	25.8626
1694.1	23.2703
1695.62	21.694
1697.14	20.1696
1698.66	17.9504
1700.19	15.6679
1701.71	13.7278
1703.23	12.4419
1704.75	11.5757
1706.27	10.3561
1707.79	8.24792
1709.32	7.37128
1710.83	5.92394
1712.35	4.50348
1713.88	3.11648
1715.39	3.26813
1716.91	2.52896
1718.43	1.8395
1719.95	1.35503
1721.47	1.17583
1722.99	0.989586
1724.5	0.314651
1726.02	-0.17151
1727.54	0.118137
1729.06	-0.868776
1730.57	-0.827234
1732.09	-0.486992
1733.61	-0.722164
1735.12	-0.382924
1736.64	-0.756205
1738.15	-0.298764
1739.67	-0.230794
1741.18	0.509255
1742.7	0.212845
1744.21	-0.281124
1745.72	-0.088676
1747.24	-0.138699
1748.75	-1.02132
1750.26	-0.15925
1751.78	-0.352142
1753.29	-0.441213
1754.8	0.0245319
1756.31	-0.599937
1757.82	-0.7189
1759.34	0.0265984
1760.85	-0.0464496
1762.36	-0.00685405
1763.87	0.0881562
1765.38	-0.667551
1766.89	-0.388087
1768.4	-0.0438738
1769.91	0.642142
1771.41	0.985148
1772.92	1.05284
1774.43	1.32606
1775.94	0.693447
1777.45	0.550488
1778.96	0.699254
1780.46	0.759778
1781.97	0.765884
1783.48	1.48462
1784.98	1.50548
1786.49	1.29529
1788	1.22527
1789.5	1.21215
1791.01	1.17242
1792.51	1.18299
1794.01	1.57493
1795.52	1.78089
1797.02	1.96954
1798.53	2.26143
1800.03	1.59133
1801.54	1.66232
1803.04	1.4564
1804.54	1.37692
1806.04	1.74051
1807.54	2.28622
1809.05	1.95507
1810.55	2.06988
1812.05	2.46148
1813.55	3.12742
1815.05	3.37649
1816.55	3.96861
1818.05	3.72044
1819.55	3.91246
1821.05	4.63915
1822.55	4.5581
1824.05	4.74827
1825.55	4.8226
1827.05	4.70916
1828.55	5.1928
1830.04	5.75868
1831.54	5.67558
1833.04	5.91499
1834.54	5.70042
1836.03	5.56073
1837.53	5.90933
1839.03	5.66702
1840.52	5.29447
1842.02	5.50374
1843.51	5.22078
1845.01	4.86124
1846.5	4.5342
1848	4.14832
1849.49	3.83739
1850.99	3.77298
1852.48	4.53831
1853.97	4.5708
1855.47	4.28497
1856.96	4.63255
1858.45	5.24633
1859.94	4.46164
1861.44	4.20889
1862.93	4.36883
1864.42	4.56399
1865.91	4.22404
1867.4	4.213
1868.89	3.97508
1870.38	3.23148
1871.87	3.29562
1873.36	3.45405
1874.85	3.12345
1876.34	3.66634
1877.83	4.33464
1879.32	4.12033
1880.81	4.17777
1882.3	3.7082
1882.56	3.82414
1884.06	4.81487
1885.55	5.14639
1887.04	5.60786
1888.54	5.67228
1890.03	5.88846
1891.52	6.2621
1893.02	6.92999
1894.51	7.63942
1896	8.02249
1897.49	8.05728
1898.99	7.64442
1900.48	7.73688
1901.97	7.98702
1903.46	8.48191
1904.95	8.44935
1906.44	8.67395
1907.93	8.23434
1909.42	8.73469
1910.91	8.75206
1912.4	8.50974
1913.89	8.77955
1915.38	8.94313
1916.86	8.3909
1918.35	8.25955
1919.84	8.49231
1921.33	8.6892
1922.82	8.71872
1924.3	8.51829
1925.79	8.43947
1927.28	8.08999
1928.76	8.5034
1930.25	9.34205
1931.74	9.49951
1933.22	9.34076
1934.71	10.2048
1936.19	10.3077
1937.67	10.5654
1939.16	10.2109
1940.64	10.8113
1942.13	10.273
1943.61	9.60069
1945.09	9.67198
1946.58	9.56834
1948.06	9.36628
1949.54	9.13589
1951.03	8.85475
1952.51	8.24519
1953.99	8.71423
1955.47	8.31559
1956.95	8.57968
1958.43	8.22359
1959.91	7.71392
1961.39	7.43157
1962.87	7.81355
1964.35	7.90521
1965.83	7.83792
1967.31	7.43164
1968.79	7.59065
1970.27	7.62675
1971.75	7.12141
1973.22	6.59045
1974.7	6.77752
1976.18	6.97524
1977.66	7.12395
1979.13	6.51828
1980.61	7.3042
1982.09	7.5413
1983.56	8.06357
1985.04	7.97277
1986.52	8.48454
1987.99	8.98128
1989.47	8.60647
1990.94	8.77281
1992.41	9.30413
1993.89	9.68074
1995.36	9.71376
1996.84	9.51518
1998.31	9.74601
1999.78	10.3116
2001.26	10.8807
2002.73	11.3904
2004.2	11.3889
2005.67	11.661
2007.15	12.427
2008.62	13.0187
2010.09	12.914
2011.56	13.3546
2013.03	12.5714
2014.5	12.253
2015.97	11.4436
2017.44	11.1018
2018.91	11.5746
2020.38	11.9728
2021.85	11.8057
2023.32	11.7659
2024.79	12.0203
2026.25	11.7931
2027.72	11.7752
2029.19	11.1309
2030.66	11.3396
2032.13	11.4521
2033.59	11.4679
2035.06	11.1956
2036.53	11.3114
2037.99	11.2666
2039.46	10.8862
2040.92	11.1476
2042.39	11.8372
2043.85	12.2707
2045.32	12.0045
2046.78	11.6487
2048.25	12.093
2049.71	12.7992
2051.18	13.5056
2052.64	13.8299
2054.1	14.3542
2055.56	14.3218
2057.03	14.6014
2058.49	14.7736
2059.95	14.8539
2061.42	14.768
2062.88	14.3704
2064.34	14.7791
2065.8	14.3536
2067.26	13.8113
2068.72	13.3091
2070.18	12.6373
2071.64	12.641
2073.1	12.6732
2074.56	12.8186
2076.02	13.1412
2077.48	13.444
2078.94	14.1405
2080.39	15.1451
2081.85	14.4316
2083.31	13.9727
2084.77	13.8894
2086.22	13.2121
2087.68	12.7667
2089.14	12.9436
2090.6	13.3484
2092.05	13.5237
2093.51	13.5586
2094.96	13.7062
2096.42	13.771
2097.87	13.3665
2099.33	13.2001
2100.78	13.6238
2102.24	13.6322
2103.69	13.9387
2105.15	13.9444
2106.6	14.384
2108.05	14.7285
2109.51	15.4133
2110.96	16.3851
2112.41	16.7072
2113.86	17.6486
2115.32	18.1004
2116.77	18.0934
2118.22	18.1355
2119.67	18.9083
2121.12	19.9626
2122.57	21.2067
2124.02	21.1578
2125.47	21.4515
2126.92	21.9349
2128.37	22.6524
2129.82	23.0494
2131.27	23.5457
2132.72	24.351
2134.17	24.808
2135.62	25.5571
2137.06	26.4086
2138.51	26.9231
2139.96	27.8218
2141.41	28.7603
2142.85	29.4223
2144.3	30.4507
2145.75	31.5804
2147.19	32.5999
2148.64	34.1594
2150.09	35.0842
2151.53	35.7053
2152.97	36.5251
2154.42	37.0881
2155.86	38.1785
2157.31	39.388
2158.75	40.1537
2160.2	40.3898
2161.64	40.9734
2163.08	41.451
2164.53	42.3241
2165.97	43.0733
2167.41	43.5231
2168.86	43.3127
2170.3	43.5213
2171.74	44.4178
2173.18	44.8961
2174.62	44.8403
2176.06	44.6253
2177.5	44.1601
2178.94	43.9579
2180.38	44.0566
2181.82	44.0124
2183.26	43.7811
2184.7	42.4597
2186.14	41.4045
2187.58	40.5574
2189.02	39.8657
2190.46	39.6744
2191.89	38.5649
2193.33	37.4763
2194.77	36.5468
2196.21	35.2328
2197.64	34.3494
2199.08	33.0886
2200.52	31.9673
2201.95	31.132
2203.39	30.8202
2204.83	30.139
2206.26	29.0161
2207.7	28.8427
2209.13	27.4991
2210.57	26.4676
2212	25.715
2213.43	24.6831
2214.87	24.149
2216.3	23.8049
2217.73	23.4054
2219.17	23.3893
2220.6	23.287
2222.03	23.8224
2223.47	23.9464
2224.9	24.6122
2226.33	24.966
2227.76	24.8296
2229.19	24.7763
2230.62	24.7446
2232.05	24.2462
2233.49	24.3212
2234.91	24.3407
2236.34	25.174
2237.77	24.1617
2239.2	24.0263
2240.63	23.7328
2242.06	23.8358
2243.49	23.7733
2244.92	23.5593
2246.35	23.1923
2247.78	22.9489
2249.2	22.9907
2250.63	23.4546
2252.06	23.3554
2253.48	22.3621
2254.91	21.1743
2256.34	20.4947
2257.76	20.3065
2259.19	19.4756
2260.61	18.8613
2262.04	18.3258
2263.46	17.1501
2264.89	17.5984
2266.31	17.4605
2267.74	16.7092
2269.16	15.7752
2270.59	15.4141
2272.01	15.3165
2273.43	14.7167
2274.85	14.1608
2276.28	12.6708
2277.7	11.7099
2279.12	11.3294
2280.54	10.5532
2281.97	10.2768
2283.39	10.0444
2284.81	9.57177
2286.23	10.0112
2287.65	10.3639
2289.07	9.8776
2290.49	9.81165
2291.91	9.96525
2293.33	10.1171
2294.75	9.16994
2296.17	9.24045
2297.59	9.17236
2299.01	9.47658
2300.42	10.0235
2301.84	10.2514
2303.26	10.0367
2304.68	10.0816
2306.1	10.416
2307.51	11.0454
2308.93	11.2715
2310.35	11.1827
2311.76	11.6604
2313.18	12.3417
2314.59	12.9638
2316.01	13.3693
2317.43	13.6904
2318.84	14.2214
2320.26	14.3605
2321.67	14.0372
2323.08	13.5147
2324.5	13.385
2325.91	13.9583
2327.33	14.8588
2328.74	14.4354
2330.15	14.3364
2331.56	14.6152
2332.98	14.4817
2334.39	14.2093
2335.8	14.2507
2337.21	12.4529
2338.62	10.8869
2340.04	9.69788
2341.45	9.70045
2342.86	9.18423
2344.27	7.9439
2345.68	6.91103
2347.09	6.49415
2348.5	6.4353
2349.91	6.5913
2351.31	6.2531
2352.72	5.39129
2354.13	5.08909
2355.54	4.27754
2356.95	4.13506
2358.36	3.50654
2359.76	2.37962
2361.17	2.00431
2362.58	2.73482
2363.98	2.47436
2365.39	3.12441
2366.8	4.08015
2368.21	3.97899
2369.61	3.70354
2371.02	3.39957
2372.42	2.79058
2373.83	3.00847
2375.23	2.99276
2376.64	3.20308
2378.04	3.03779
2379.44	2.97735
2380.85	2.63911
2382.25	3.35982
2383.66	3.80345
2385.06	3.50488
2386.46	4.02941
2387.86	4.42485
2389.26	5.15702
2390.67	4.98438
2392.07	4.62694
2393.47	5.08464
2394.87	5.25395
2396.27	5.70931
2397.67	5.46869
2399.07	4.72225
2400.47	4.61721
2401.87	4.40832
2403.27	3.92071
2404.67	3.36038
2406.07	2.66387
2407.47	1.99332
2408.87	2.36479
2410.27	2.64788
2411.67	3.17248
2413.07	2.45667
2414.46	2.52188
2415.86	2.93733
2417.26	3.64745
2418.66	3.78345
2420.05	4.0716
2421.45	3.94562
2422.84	3.75476
2424.24	3.7043
2425.64	4.20877
2427.03	4.6284
2428.43	5.22815
2429.82	5.16157
2431.22	5.51771
2432.61	6.5018
2434.01	5.80152
2435.4	5.62293
2436.79	5.3113
2438.19	4.46252
2439.58	4.28407
2440.97	4.29891
2442.37	4.09113
2443.76	3.95986
2445.15	3.84845
2446.54	4.07276
2447.93	3.82825
2449.33	4.85216
2450.72	5.96249
2452.11	5.74335
2453.5	5.94511
2454.89	5.68226
2456.28	6.16692
2457.67	6.1718
2459.06	5.60479
2460.45	5.34901
2461.84	5.17145
2463.23	5.46443
2464.62	5.48595
2466	5.46012
2467.39	5.18983
2468.78	4.5597
2470.17	4.47917
2471.55	4.28374
2472.94	4.03155
2474.33	3.67749
2475.72	3.39248
2477.1	3.4154
2478.49	3.19592
2479.87	3.08091
2481.26	2.60691
2482.65	2.4237
2484.03	2.75514
2485.42	2.51044
2486.8	2.10319
2488.19	2.26295
2489.57	2.43979
2490.95	2.62975
2492.34	2.74254
2493.72	2.97568
2495.1	3.52261
2496.49	3.51718
2497.87	3.70523
2499.25	3.25153
2500.63	3.27537
2502.02	3.44342
2503.4	3.59285
2504.78	4.16359
2506.16	5.01126
2507.54	5.1896
2508.92	5.24015
2510.3	5.07218
2511.68	5.00109
2513.06	5.52042
2514.44	7.00752
2515.82	6.88485
2517.2	6.91504
2518.58	7.32097
2519.96	7.13303
2521.34	6.48439
2522.72	6.60343
2524.1	6.52419
2525.47	6.58815
2526.85	7.34855
2528.23	7.62493
2529.6	8.03951
2530.98	7.60118
2532.36	7.22539
2533.74	6.99142
2535.11	6.66782
2536.49	6.75937
2537.86	6.15249
2539.24	5.89904
2540.61	5.74341
2541.99	5.27144
2543.36	4.85943
2544.74	4.35879
2546.11	4.41647
2547.49	4.07769
2548.86	3.58166
2550.23	3.37358
2551.61	3.14693
2552.98	2.88865
2554.35	3.05434
2555.72	2.66149
2557.09	3.01911
2558.47	3.06005
2559.84	2.76142
2561.21	2.42273
2562.58	2.24213
2563.95	1.98871
2565.32	1.96898
2566.69	1.58738
2568.06	1.27443
2569.43	1.39233
2570.8	1.94851
2572.17	2.10603
2573.54	2.35416
2574.91	1.87233
2576.28	0.999295
2577.65	0.439043
2579.02	0.495274
2580.39	0.813206
2581.75	1.01637
2583.12	0.912292
2584.49	0.155562
2585.85	0.652022
2587.22	0.493752
2588.59	0.824234
2589.95	0.855276
2591.32	1.41989
2592.68	1.78481
2594.05	2.29248
2595.42	2.52634
2596.78	2.25625
2598.15	2.12603
2599.51	2.02776
2600.88	1.61914
2602.24	1.99901
2603.6	2.00962
2604.97	2.33171
2606.33	2.26745
2607.69	2.34311
2609.06	2.15867
2610.42	2.10472
2611.78	2.21595
2613.14	1.94634
2614.51	1.86765
2615.87	1.62462
2617.23	1.35643
2618.59	1.99623
2619.95	2.01628
2621.31	2.57103
2622.67	2.89318
2624.03	2.89857
2625.39	3.39217
2626.75	3.66378
2628.11	3.30699
2629.47	3.76456
2630.83	3.92608
2632.19	4.05232
2633.55	4.54398
2634.91	4.37439
2636.26	4.15279
2637.62	5.16491
2638.98	5.84253
2640.34	5.98186
2641.69	6.28121
2643.05	5.94705
2644.41	6.29251
2645.76	6.4047
2647.12	6.46264
2648.48	6.72178
2649.83	6.6561
2651.19	6.70439
2652.54	7.15935
2653.9	7.08117
2655.25	7.2033
2656.6	7.97938
2657.96	8.00603
2659.31	8.13484
2660.67	7.63263
2662.02	7.59159
2663.37	7.04972
2664.73	7.52163
2666.08	7.33489
2667.43	7.18457
2668.78	6.57
2670.14	6.82649
2671.49	6.07822
2672.84	5.49158
2674.19	5.12162
2675.54	4.71833
2676.89	4.06383
2678.24	4.0711
2679.59	3.88435
2680.94	3.61116
2682.29	3.43717
2683.64	3.63163
2684.99	3.79942
2686.34	4.01849
2687.69	3.87031
2689.04	3.87183
2690.39	3.53752
2691.74	3.77565
2693.08	3.93508
2694.43	4.32167
2695.78	4.52126
2697.13	4.55163
2698.47	4.32969
2699.82	4.44601
2701.17	4.90198
2702.51	4.86402
2703.86	5.26635
2705.21	6.22035
2706.55	6.06208
2707.9	6.30013
2709.24	6.83618
2710.58	7.27147
2711.93	7.37443
2713.27	7.74143
2714.62	8.60593
2715.96	9.30556
2717.3	9.64426
2718.65	10.1475
2719.99	10.8249
2721.33	10.8169
2722.68	11.2556
2724.02	11.271
2725.36	11.2013
2726.71	10.659
2728.05	10.5252
2729.39	10.7747
2730.73	10.9391
2732.07	11.4006
2733.41	10.3526
2734.75	9.69635
2736.09	8.83395
2737.43	9.00579
2738.77	8.76433
2740.11	8.88187
2741.45	9.16099
2742.79	8.45562
2744.13	7.5055
2745.47	7.33034
2746.81	7.06014
2748.14	6.29424
2749.48	6.01578
2750.82	5.97106
2752.16	5.42063
2753.49	5.12776
2754.83	5.27963
2756.17	4.81259
2757.5	4.23612
2758.84	4.1077
2760.18	3.43206
2761.51	3.24387
2762.85	2.59948
2764.18	1.714
2765.52	1.65179
2766.85	2.19608
2768.19	1.94496
2769.52	2.01968
2770.86	1.49821
2772.19	0.996521
2773.52	0.27427
2774.86	0.673285
2776.19	0.243419
2777.52	0.124444
2778.86	-0.220812
2780.19	0.132352
2781.52	-0.343089
2782.85	-0.424346
2784.19	-0.999294
2785.52	-1.2262
2786.85	-1.38598
2788.18	-1.60895
2789.51	-1.84162
2790.84	-1.63021
2792.17	-1.33046
2793.5	-1.8701
2794.83	-1.30672
2796.16	-1.18701
2797.49	-1.26545
2798.82	-1.79346
2800.15	-1.92538
2801.48	-1.94141
2802.81	-1.65614
2804.13	-1.62919
2805.46	-1.69234
2806.79	-2.04953
2808.12	-2.24643
2809.45	-2.97456
2810.77	-2.82735
2812.1	-2.93464
2813.43	-3.19904
2814.75	-3.34668
2816.08	-2.83083
2817.41	-1.97503
2818.73	-1.68583
2820.06	-0.409215
2821.38	1.23513
2822.71	2.30926
2824.03	3.87734
2825.36	6.06
2826.68	8.2836
2828	10.5699
2829.33	12.6821
2830.65	14.8241
2831.98	17.9749
2833.3	19.905
2834.62	21.6209
2835.94	24.7468
2837.27	27.2491
2838.59	31.2507
2839.91	34.3365
2841.23	38.1844
2842.55	41.9176
2843.87	47.0879
2845.2	51.4642
2846.52	56.4536
2847.84	61.2885
2849.16	67.0275
2850.48	72.8464
2851.8	78.9477
2853.12	84.8469
2854.44	90.5174
2855.76	96.2204
2857.08	102.62
2858.39	107.569
2859.71	112.074
2861.03	116.795
2862.35	121.609
2863.67	126.636
2864.98	130.731
2866.3	135.466
2867.62	139.419
2868.94	143.672
2870.25	147.038
2871.57	150.493
2872.88	153.418
2874.2	156.154
2875.52	158.103
2876.83	161.116
2878.15	163.407
2879.46	165.557
2880.78	167.747
2882.09	170.642
2883.41	172.595
2884.72	174.72
2886.03	177.297
2887.35	179.294
2888.66	181.097
2889.97	183.282
2891.29	185.423
2892.6	187.148
2893.91	189.085
2895.22	190.587
2896.54	192.959
2897.85	196.135
2899.16	198.466
2900.47	201.972
2901.78	206.233
2903.09	210.313
2904.4	214.77
2905.71	218.878
2907.02	224.568
2908.33	230.397
2909.64	236.375
2910.95	241.841
2912.26	248.274
2913.57	255.141
2914.88	261.2
2916.19	267.187
2917.5	273.138
2918.81	278.673
2920.11	283.679
2921.42	288.027
2922.73	291.725
2924.04	294.186
2925.34	297.603
2926.65	300.17
2927.96	303.015
2929.26	304.293
2930.57	304.765
2931.87	305.51
2933.18	305.25
2934.49	303.882
2935.79	302.277
2937.1	300.45
2938.4	297.864
2939.7	294.943
2941.01	291.36
2942.31	288.02
2943.62	283.317
2944.92	277.916
2946.22	273.546
2947.53	268.487
2948.83	263.159
2950.13	257.743
2951.43	251.465
2952.74	245.481
2954.04	239.505
2955.34	233.199
2956.64	226.788
2957.94	220.654
2959.24	215.164
2960.54	208.647
2961.84	203.752
2963.15	198.244
2964.45	192.424
2965.75	187.37
2967.05	182.936
2968.34	177.897
2969.64	173.115
2970.94	168.356
2972.24	163.845
2973.54	159.57
2974.84	155.147
2976.14	151.113
2977.43	147.494
2978.73	142.833
2980.03	138.009
2981.33	133.873
2982.62	129.094
2983.92	123.796
2985.22	118.452
2986.51	112.906
2987.81	108.105
2989.11	103.613
2990.4	99.4548
2991.7	94.1992
2992.99	89.5131
2994.29	84.2282
2995.58	79.785
2996.88	75.2989
2998.17	71.2542
2999.46	66.1461
3000.76	61.9177
3002.05	57.501
3003.34	53.3672
3004.64	49.1178
3005.93	44.8065
3007.22	41.1464
3008.52	37.2826
3009.81	33.9903
3011.1	31.1971
3012.39	28.4813
3013.68	26.1601
3014.97	22.9724
3016.27	20.7687
3017.56	18.5164
3018.85	16.3428
3020.14	14.3707
3021.43	13.2338
3022.72	11.4811
3024.01	10.134
3025.3	8.3129
3026.59	7.32519
3027.88	6.18943
3029.16	5.76457
3030.45	4.93427
3031.74	4.09388
3033.03	3.05619
3034.32	2.92705
3035.6	3.19291
3036.89	3.09683
3038.18	3.21288
3039.47	3.48279
3040.75	4.61317
3042.04	4.87012
3043.33	5.2425
3044.61	6.09614
3045.9	6.90024
3047.18	7.92087
3048.47	8.74313
3049.75	9.53943
3051.04	10.5131
3052.32	11.365
3053.61	11.7519
3054.89	11.9118
3056.18	11.8358
3057.46	12.2134
3058.74	12.1896
3060.03	12.0116
3061.31	11.8731
3062.59	11.9292
3063.88	11.2895
3065.16	11.7837
3066.44	11.9242
3067.72	11.7159
3069	11.4766
3070.29	11.6168
3071.57	11.5763
3072.85	11.0216
3074.13	10.695
3075.41	10.4825
3076.69	9.96319
3077.97	8.86337
3079.25	8.03998
3080.53	7.39118
3081.81	6.02375
3083.09	4.99104
3084.37	4.3883
3085.65	3.5657
3086.93	2.66017
3088.21	1.65834
3089.49	0.854662
3090.76	0.291941
3092.04	0.412924
3093.32	0.0891467
3094.6	-0.521507
3095.87	-0.568994
3097.15	-0.665351
3098.43	0.0431178
3099.7	0.137055
3100.98	0.0401817
3102.26	0.310652
3103.53	0.759149
3104.81	1.14447
3106.08	1.43204
3107.36	2.06468
3108.63	1.98076
3109.91	2.53762
3111.18	3.22127
3112.46	3.03699
3113.73	3.12494
3115	3.08852
3116.28	3.25784
3117.55	3.78365
3118.83	4.30411
3120.1	4.73679
3121.37	5.24194
3122.64	5.56544
3123.92	6.37381
3125.19	7.55294
3126.46	8.36452
3127.73	8.94656
3129	9.74212
3130.27	10.0977
3131.55	10.6185
3132.82	11.5528
3134.09	12.063
3135.36	12.6276
3136.63	13.1302
3137.9	13.8161
3139.17	14.6949
3140.44	15.2311
3141.71	16.3642
3142.98	17.5202
3144.24	18.7469
3145.51	20.4364
3146.78	22.2125
3148.05	23.6789
3149.32	26.2316
