#Acq. time (s)=	45
#Accumulations=	2
#Range (cm-¹)=	200...3150
#Windows=	2
#Auto scanning=	Off
#Autofocus=	Off
#Macrospot=	Off
#AutoExposure=	Off
#Spike filter=	Multiple accum.
#Delay time (s)=	0
#Binning=	1
#Readout mode=	Signal
#DeNoise=	Off
#ICS correction=	On
#Dark correction=	Off
#Inst. Process=	Off
#Detector Gain=	Best Dynamic Range
#Detector ADC=	20 kHz       
#Detector temperature (°C)=	-69.85
#Instrument=	LabRAM HR Evol
#Detector=	Synapse
#Objective=	x100
#Grating=	600 gr/mm
#ND Filter=	100%
#Laser (nm)=	532 
#Hole=	100.021
#Range=	Auto
#Laser Pol.=	No
#Raman. Pol.=	No
#Laser Pol. (°)=	-0.0007625
#Raman Pol. (°)=	89.9995
#Collection=	Microscope
#StageXY=	Marzhauser
#StageZ=	Marzhauser
#X (µm)=	-616.5
#Y (µm)=	-1589.6
#Z (µm)=	89.85
#Full time(mm:ss)=	3:18
#Project=	
#Sample=	
#Site=	
#Title=	Mb_10_14_26_2x_45s_532 nm_x100_100%_600 gr_mm
#Remark=	
#Date=	11.07.2022 10:28
#Acquired=	11.07.2022 10:28:25
#Base:Fit=	10.08.2022 10:21:11
#Base:Sub=	10.08.2022 10:21:41
#Filter:Polynom=	16.08.2022 10:17:53
#AxisType[0]=Intens
#AxisUnit[0]=Cnt
#AxisType[1]=Spectr
#AxisUnit[1]=1/cm
200.388	8.39692
202.204	9.17431
204.019	10.2714
205.832	9.77112
207.646	8.68915
209.459	7.56627
211.274	7.11104
213.087	7.36371
214.899	7.01865
216.711	6.85918
218.524	7.51098
220.335	7.68055
222.146	9.13726
223.956	9.24833
225.766	9.38575
227.576	10.9368
229.388	10.4482
231.197	10.6276
233.005	11.3418
234.813	10.8327
236.621	11.4004
238.429	12.6615
240.236	13.0744
242.045	14.4006
243.852	15.5377
245.658	16.9566
247.464	16.8795
249.269	17.176
251.074	16.4097
252.879	17.3068
254.683	17.6768
256.487	20.1231
258.291	21.6345
260.094	20.9693
261.897	21.6156
263.702	21.4313
265.504	22.682
267.306	23.8732
269.108	24.0653
270.909	24.5343
272.71	25.5206
274.511	25.0522
276.311	24.9664
278.111	24.118
279.91	22.9215
281.709	21.8263
283.508	21.307
285.306	19.8957
287.105	19.709
288.9	17.4016
290.698	16.0073
292.495	14.8146
294.291	13.6787
296.088	13.0298
297.884	12.4016
299.679	12.7393
301.475	11.8818
303.27	10.6055
305.064	9.49734
306.858	8.65195
308.652	7.88512
310.444	6.52
312.237	5.34148
314.03	3.88339
315.822	3.27176
317.615	3.60124
319.406	1.97106
321.198	1.51834
322.987	1.4379
324.778	0.882272
326.568	1.96025
328.358	2.09696
330.148	2.51134
331.935	2.97914
333.724	2.69485
335.513	1.50503
337.301	0.125435
339.089	-0.371193
340.875	-0.747514
342.662	0.106654
344.449	-0.579669
346.236	0.546027
348.02	1.00821
349.806	0.988618
351.592	2.51441
353.375	2.05567
355.16	2.11875
356.944	2.78291
358.728	2.36862
360.51	2.92982
362.294	4.09017
364.077	3.81745
365.858	5.22583
367.64	6.56353
369.422	7.29151
371.202	7.16922
372.983	7.77351
374.764	7.65598
376.543	8.05955
378.324	8.41858
380.102	9.29993
381.881	10.303
383.661	10.8952
385.438	11.2052
387.216	11.7502
388.993	12.7252
390.771	13.2224
392.548	14.1292
394.324	15.0242
396.101	14.699
397.875	15.4865
399.651	16.9566
401.425	17.7552
403.201	19.0459
404.974	20.0824
406.749	19.5667
408.524	20.1412
410.296	20.226
412.07	20.9872
413.841	20.6668
415.614	21.2264
417.385	20.4579
419.156	20.3163
420.928	19.2375
422.698	18.5129
424.469	18.4022
426.238	18.1969
428.009	17.8401
429.777	18.1288
431.548	16.6506
433.315	15.2009
435.083	16.2304
436.852	15.3437
438.618	14.2075
440.387	13.2446
442.153	12.936
443.919	13.7493
445.686	13.4391
447.451	12.9756
449.218	14.2818
450.982	14.8851
452.746	14.9007
454.512	15.551
456.275	15.2406
458.038	14.233
459.803	13.672
461.565	14.8483
463.327	14.9708
465.091	14.8262
466.852	15.5882
468.613	15.461
470.374	15.9776
472.136	16.0555
473.896	16.5991
475.655	16.1352
477.415	16.1867
479.176	16.322
480.934	16.2201
482.692	16.1995
484.45	16.81
486.21	17.7227
487.967	18.777
489.724	17.8362
491.481	18.5502
493.237	18.5607
494.995	18.1869
496.75	18.6085
498.506	17.3831
500.26	16.1956
502.015	16.2901
503.769	16.9403
505.525	16.0297
507.279	15.6596
509.032	16.3009
510.785	16.5318
512.537	15.6917
514.289	14.4137
516.041	14.6216
517.793	13.922
519.546	13.472
521.297	13.67
523.047	13.424
524.797	13.3042
526.547	14.8586
528.297	15.0466
530.046	15.3419
531.795	15.2856
533.543	14.5171
535.291	15.766
537.039	16.899
538.787	17.2085
540.534	16.9467
542.281	17.3213
544.027	16.362
545.773	16.1448
547.519	16.7755
549.264	17.8075
551.01	16.6097
552.754	16.6269
554.499	16.1694
556.243	15.6565
557.987	14.7986
559.73	13.1058
561.474	12.1644
563.216	10.9257
564.959	11.7567
566.701	11.9254
568.441	11.5693
570.182	12.2842
571.923	12.5021
573.664	10.8529
575.405	9.61735
577.145	8.33947
578.885	8.28177
580.624	8.0062
582.361	7.46596
584.1	6.15045
585.839	6.0416
587.577	5.69994
589.315	6.61728
591.052	6.7877
592.787	5.48964
594.524	6.86431
596.26	7.79248
597.997	7.18235
599.732	5.82957
601.466	7.13861
603.201	7.33499
604.936	6.81536
606.67	7.87035
608.403	7.87886
610.136	8.90022
611.87	11.102
613.603	11.6232
615.334	11.8307
617.067	13.6962
618.799	13.9908
620.529	14.5229
622.26	14.7956
623.991	14.1908
625.72	14.409
627.451	14.3897
629.181	14.1162
630.909	12.0622
632.638	12.5223
634.368	13.0966
636.095	13.0686
637.823	12.8606
639.551	12.9567
641.277	11.2233
643.005	11.1266
644.73	11.3613
646.457	11.8139
648.184	13.2038
649.908	14.0957
651.634	14.7681
653.357	13.9864
655.083	13.2389
656.806	12.4895
658.53	11.4594
660.253	10.7271
661.977	11.2631
663.7	12.4443
665.422	13.0166
667.145	13.3214
668.865	12.592
670.588	12.4724
672.308	13.5368
674.027	14.0159
675.749	14.9786
677.468	16.293
679.188	16.8083
680.907	17.9147
682.627	16.9536
684.345	17.525
686.064	18.4652
687.781	20.5813
689.498	22.2048
691.216	24.1696
692.932	26.2955
694.65	27.7218
696.366	29.0046
698.081	30.4637
699.797	31.7024
701.512	33.0508
703.228	33.3924
704.942	33.1688
706.655	32.9827
708.371	33.3644
710.083	34.2153
711.796	35.0537
713.51	36.1283
715.222	37.2399
716.934	37.6215
718.645	39.7748
720.358	41.0996
722.068	40.8441
723.779	41.7272
725.49	40.9781
727.2	41.4415
728.909	43.371
730.618	44.3172
732.329	44.4044
734.037	43.7666
735.745	43.3074
737.453	41.9909
739.16	41.7165
740.869	41.5915
742.576	41.5265
744.282	42.84
745.988	43.2552
747.694	42.2778
749.401	42.3877
751.107	43.8366
752.811	43.8798
754.516	43.9864
756.22	45.047
757.924	46.0843
759.627	46.414
761.332	47.6856
763.035	48.3733
764.738	49.0548
766.44	50.441
768.142	52.0338
769.843	54.0628
771.544	55.746
773.245	58.2946
774.946	60.2986
776.646	61.628
778.346	63.0709
780.046	63.4583
781.745	65.2531
783.444	66.8131
785.143	67.9382
786.841	69.0252
788.539	69.9369
790.237	71.586
791.934	73.6133
793.631	75.463
795.328	76.8051
797.024	78.1119
798.72	79.9907
800.416	80.2895
802.112	80.8398
803.807	81.127
805.502	81.4522
807.196	81.1335
808.89	82.0462
810.584	82.2934
812.278	82.5337
813.971	82.1776
815.664	80.8314
817.354	79.9131
819.047	77.9739
820.739	77.5799
822.43	76.8397
824.122	76.2524
825.813	76.1224
827.503	75.079
829.192	74.9288
830.882	73.4958
832.571	72.4975
834.261	73.0495
835.95	73.5126
837.637	71.0282
839.325	70.3356
841.013	69.6935
842.701	68.4209
844.389	67.5448
846.074	66.8251
847.761	64.3367
849.447	63.4306
851.131	61.9876
852.817	59.7386
854.503	59.0366
856.188	58.1738
857.871	57.1672
859.556	54.7591
861.24	53.378
862.922	52.0124
864.606	51.4217
866.289	52.0927
867.97	50.8333
869.653	49.2019
871.336	48.3831
873.016	48.5827
874.698	48.5509
876.379	48.6488
878.058	47.8058
879.739	48.2379
881.418	47.5794
883.098	47.9006
884.778	47.4572
886.456	46.7538
888.135	46.1431
889.812	46.3872
891.49	46.1635
893.167	45.8346
894.845	46.2508
896.523	46.2952
898.198	46.2878
899.875	45.8378
901.55	46.3875
903.226	46.1326
904.901	47.7266
906.576	48.0473
908.25	48.9146
909.925	49.8208
911.598	49.9044
913.271	51.6697
914.945	51.931
916.617	52.709
918.291	52.7354
919.962	52.5511
921.635	52.2202
923.306	52.3254
924.978	51.8938
926.648	52.4564
928.318	52.2283
929.989	51.4515
931.659	50.3125
933.328	51.8375
934.998	50.8561
936.666	51.5263
938.336	51.8741
940.004	50.9771
941.671	48.6424
943.34	47.5356
945.007	47.2357
946.673	46.2852
948.339	46.3711
950.007	45.2901
951.672	45.1384
953.337	43.9736
955.004	44.1447
956.669	43.0852
958.333	42.2187
959.997	42.655
961.662	41.8883
963.326	40.9509
964.989	40.639
966.651	40.5709
968.315	39.4536
969.977	38.3239
971.639	37.7359
973.301	37.8332
974.962	37.4535
976.624	37.4801
978.285	38.4978
979.945	38.1598
981.605	37.1582
983.264	36.4505
984.924	35.65
986.583	34.8144
988.243	34.4523
989.901	33.1456
991.56	33.2049
993.217	32.7434
994.875	33.4878
996.532	33.6518
998.188	32.8242
999.845	32.7231
1001.5	31.7276
1003.16	30.949
1004.81	30.7644
1006.47	30.0294
1008.12	30.6484
1009.78	30.3515
1011.43	30.9682
1013.09	32.6776
1014.74	33.8657
1016.39	33.9564
1018.05	33.7137
1019.7	34.1634
1021.35	33.8079
1023	33.1443
1024.65	32.8739
1026.31	34.4195
1027.96	35.5137
1029.61	36.7048
1031.26	37.8345
1032.91	38.1406
1034.56	39.2863
1036.21	37.8261
1037.86	38.4339
1039.51	38.1614
1041.16	39.4167
1042.8	39.2227
1044.45	38.9088
1046.1	38.4291
1047.75	38.8034
1049.39	37.3711
1051.04	36.851
1052.69	36.198
1054.33	36.4992
1055.98	36.8942
1057.62	36.0698
1059.27	35.7526
1060.91	35.0125
1062.56	33.9611
1064.2	32.0428
1065.85	30.2306
1067.49	29.7672
1069.13	28.97
1070.77	27.2755
1072.42	26.6544
1074.06	26.7797
1075.7	25.7273
1077.34	25.6957
1078.98	23.4107
1080.62	22.2074
1082.27	21.0533
1083.91	20.6565
1085.55	21.2106
1087.18	22.1638
1088.82	23.1931
1090.46	23.5033
1092.1	23.9934
1093.74	25.3374
1095.38	25.4208
1097.02	24.8062
1098.65	23.9708
1100.29	24.8702
1101.93	25.1052
1103.56	25.1862
1105.2	24.732
1106.84	26.0396
1108.47	26.7544
1110.11	27.2294
1111.74	27.7424
1113.38	27.9075
1115.01	26.8993
1116.64	26.84
1118.28	25.4144
1119.91	25.1178
1121.54	25.0081
1123.18	24.5203
1124.81	24.3105
1126.44	24.4802
1128.07	23.1842
1129.7	22.8068
1131.33	22.7461
1132.97	23.2499
1134.6	22.3828
1136.23	22.0906
1137.86	21.3214
1139.49	20.5096
1141.11	19.5445
1142.74	19.7262
1144.37	18.779
1146	17.0027
1147.63	16.66
1149.26	16.82
1150.88	15.6802
1152.51	15.2731
1154.14	16.2036
1155.76	16.0922
1157.39	15.88
1159.01	16.0468
1160.64	14.7201
1162.27	14.9889
1163.89	14.2283
1165.51	14.7321
1167.14	13.847
1168.76	12.8706
1170.39	12.082
1172.01	11.7051
1173.63	11.798
1175.25	10.9775
1176.88	10.2382
1178.5	10.088
1180.12	10.1043
1181.74	10.0132
1183.36	10.9345
1184.98	11.385
1186.6	12.2366
1188.22	13.9464
1189.84	13.7138
1191.46	12.5528
1193.08	12.9183
1194.7	12.9259
1196.32	12.4212
1197.94	13.1212
1199.55	12.893
1201.17	13.1306
1202.79	13.9908
1204.41	12.8753
1206.02	13.9136
1207.64	14.0604
1209.25	13.8706
1210.87	15.7681
1212.48	17.839
1214.1	17.9827
1215.71	18.5827
1217.33	19.3771
1218.94	20.741
1220.56	21.8898
1222.17	24.2935
1223.79	26.5698
1225.4	26.9203
1227.01	28.4044
1228.62	30.8128
1230.23	32.314
1231.85	33.8857
1233.46	35.6182
1235.07	36.7838
1236.68	37.6938
1238.29	37.4614
1239.9	36.8123
1241.51	37.6088
1243.12	37.2872
1244.73	37.3511
1246.34	38.162
1247.94	37.309
1249.55	38.3639
1251.16	38.6152
1252.77	38.7718
1254.37	39.3033
1255.98	39.1529
1257.59	39.698
1259.2	40.8257
1260.8	41.4727
1262.41	41.3493
1264.01	42.6721
1265.62	43.1852
1267.22	42.6374
1268.83	42.5218
1270.43	41.5563
1272.03	41.0198
1273.64	41.481
1275.24	40.7936
1276.85	39.6649
1278.45	39.4832
1280.05	39.5417
1281.65	40.2233
1283.25	41.362
1284.85	42.4024
1286.46	44.3734
1288.06	45.2724
1289.66	46.3335
1291.26	48.6144
1292.86	48.8828
1294.46	49.913
1296.06	51.2951
1297.66	52.2697
1299.25	53.7422
1300.85	54.5094
1302.45	55.4386
1304.05	55.9864
1305.65	56.7374
1307.24	57.3806
1308.84	58.0651
1310.43	59.144
1312.03	59.467
1313.63	59.6281
1315.22	59.3633
1316.82	59.4033
1318.41	58.9448
1320.01	59.7278
1321.6	60.2886
1323.2	59.2429
1324.79	59.027
1326.38	59.5632
1327.98	60.0156
1329.57	60.635
1331.16	60.0888
1332.76	60.4688
1334.35	61.0824
1335.94	59.101
1337.53	58.8043
1339.12	57.9163
1340.71	57.9933
1342.3	57.4809
1343.89	56.8865
1345.48	56.0157
1347.07	54.0852
1348.66	52.9488
1350.25	52.0383
1351.84	51.3546
1353.43	50.7251
1355.01	49.6818
1356.6	50.0888
1358.19	49.8805
1359.77	49.948
1361.36	49.9747
1362.95	48.5886
1364.53	47.7474
1366.12	47.7562
1367.71	47.2982
1369.29	46.7344
1370.88	46.759
1372.46	45.9621
1374.04	45.3449
1375.63	44.8536
1377.21	43.298
1378.8	42.7604
1380.38	42.6837
1381.96	42.3865
1383.54	42.7361
1385.13	42.1861
1386.71	42.5209
1388.29	43.2522
1389.87	43.0078
1391.45	41.1613
1393.03	41.499
1394.61	41.0533
1396.19	41.7251
1397.77	41.8508
1399.35	41.7258
1400.93	41.8962
1402.51	42.9503
1404.09	43.7797
1405.67	44.964
1407.24	45.176
1408.82	45.7573
1410.4	46.187
1411.98	46.599
1413.55	47.0361
1415.13	47.2157
1416.71	48.644
1418.28	49.3198
1419.86	51.6105
1421.43	52.969
1423.01	53.488
1424.58	55.9092
1426.16	57.4823
1427.73	59.5418
1429.31	62.6677
1430.88	64.8694
1432.45	67.3107
1434.02	68.7083
1435.6	70.824
1437.17	72.3701
1438.74	74.7401
1440.31	75.7631
1441.88	77.1599
1443.45	78.9108
1445.03	80.9092
1446.6	80.5798
1448.17	81.1361
1449.74	81.5458
1451.3	80.7383
1452.87	81.1442
1454.44	80.8529
1456.01	80.1764
1457.58	80.1078
1459.15	80.2835
1460.72	80.0799
1462.28	78.8809
1463.85	78.1373
1465.42	77.3074
1466.98	75.291
1468.55	74.0065
1470.12	72.7125
1471.68	72.4628
1473.25	71.7026
1474.81	70.4073
1476.38	68.8921
1477.94	67.9937
1479.51	66.9484
1481.07	66.1757
1482.63	64.2885
1484.2	60.9692
1485.76	59.0097
1487.32	57.7236
1488.88	55.5154
1490.45	54.238
1492.01	53.9005
1493.57	52.5637
1495.13	51.6998
1496.69	50.623
1498.25	50.4852
1499.81	49.7722
1501.37	49.3365
1502.93	49.996
1504.49	48.4579
1506.05	48.5796
1507.61	47.3494
1509.17	46.5506
1510.73	45.0745
1512.28	42.7327
1513.84	41.4144
1515.4	40.4723
1516.96	39.3293
1518.51	38.71
1520.07	37.5093
1521.63	36.8199
1523.18	35.6708
1524.74	34.525
1526.29	34.0065
1527.85	32.8072
1529.4	32.4325
1530.96	32.509
1532.51	31.635
1534.06	31.5933
1535.62	31.5173
1537.17	31.3901
1538.72	31.5352
1540.28	30.7135
1541.83	31.1083
1543.38	31.6174
1544.93	31.9975
1546.48	32.8951
1548.03	32.8211
1549.59	32.7339
1551.14	33.2456
1552.69	33.0779
1554.24	34.5321
1555.79	34.2658
1557.34	34.4819
1558.88	34.1065
1560.43	33.1801
1561.98	32.986
1563.53	34.7737
1565.08	35.747
1566.62	37.065
1568.17	38.2272
1569.72	39.8173
1571.27	40.129
1572.81	41.3252
1574.36	42.0937
1575.9	43.1236
1577.45	43.9176
1579	44.9349
1580.54	45.397
1582.09	45.6883
1583.63	45.6961
1585.17	45.5697
1586.72	46.5865
1588.26	46.4018
1589.8	46.7288
1591.35	47.3789
1592.89	48.5126
1594.43	49.3982
1595.97	49.2039
1597.52	48.2335
1599.06	48.7707
1600.6	48.2058
1602.14	48.7076
1603.68	48.1322
1605.22	47.422
1606.76	47.9401
1608.3	46.9738
1609.84	46.8759
1611.38	46.0825
1612.92	46.6816
1614.46	46.0989
1615.99	46.5467
1617.53	46.3016
1619.07	46.9661
1620.61	47.3811
1622.14	46.9129
1623.68	48.0236
1625.22	47.5241
1626.75	47.9037
1628.29	48.7255
1629.82	48.5059
1631.36	48.0786
1632.9	46.8859
1634.43	47.9423
1635.96	48.1068
1637.5	49.1027
1639.03	50.3733
1640.57	50.8704
1642.1	51.6715
1643.63	51.9266
1645.16	52.6143
1646.7	53.5163
1648.23	53.7733
1649.76	53.9909
1651.29	54.1605
1652.82	54.8523
1654.36	55.1425
1655.89	55.2387
1657.42	54.2629
1658.95	53.3542
1660.48	51.7041
1662.01	52.0473
1663.53	50.7996
1665.06	49.7621
1666.59	48.9596
1668.12	47.259
1669.65	45.5316
1671.18	42.9761
1672.7	41.5962
1674.23	39.8687
1675.76	38.761
1677.29	36.2556
1678.81	34.6893
1680.34	33.7531
1681.86	31.5701
1683.39	30.1893
1684.91	28.5203
1686.44	27.4429
1687.96	25.7525
1689.49	25.1861
1691.01	24.3683
1692.54	23.4261
1694.06	22.7035
1695.58	21.3321
1697.11	20.0521
1698.63	19.0729
1700.15	18.3532
1701.67	16.0453
1703.2	15.4916
1704.72	14.0178
1706.24	13.5116
1707.76	13.088
1709.28	13.3813
1710.8	13.8304
1712.32	13.6372
1713.84	13.2525
1715.36	12.0323
1716.88	11.6152
1718.4	11.8454
1719.91	12.5953
1721.43	12.9472
1722.95	12.673
1724.47	12.3844
1725.99	12.412
1727.5	11.8232
1729.02	10.9626
1730.54	10.2814
1732.05	10.0686
1733.57	9.28035
1735.09	9.09054
1736.6	8.34506
1738.12	8.23818
1739.63	7.71873
1741.15	7.21569
1742.66	7.30335
1744.18	5.83488
1745.69	5.33791
1747.2	5.3397
1748.72	5.38425
1750.23	4.1306
1751.74	3.7869
1753.25	2.74697
1754.77	2.93105
1756.28	2.75106
1757.79	1.7762
1759.3	1.46337
1760.81	1.4901
1762.32	1.00331
1763.83	1.53395
1765.34	1.76031
1766.85	1.21727
1768.36	0.228755
1769.87	0.171483
1771.38	0.316732
1772.89	0.624171
1774.4	0.682134
1775.91	0.526854
1777.41	0.065749
1778.92	0.939535
1780.43	1.50524
1781.94	2.50453
1783.44	2.68462
1784.95	3.2548
1786.45	3.41349
1787.96	3.57312
1789.47	3.30573
1790.97	3.69922
1792.47	4.50959
1793.98	5.01772
1795.48	5.19641
1796.99	4.35901
1798.49	4.63078
1800	4.58962
1801.5	4.41011
1803	4.09371
1804.51	4.56641
1806.01	5.46936
1807.51	5.49428
1809.01	5.01352
1810.51	4.99438
1812.02	4.80442
1813.52	5.14726
1815.02	5.45553
1816.52	6.11051
1818.02	6.44476
1819.52	5.64136
1821.02	5.83008
1822.52	5.37947
1824.02	4.48943
1825.51	4.48097
1827.01	4.04433
1828.51	3.98566
1830.01	4.27014
1831.51	3.80303
1833	3.47624
1834.5	3.23866
1836	3.64506
1837.49	3.92624
1838.99	4.52996
1840.49	4.39925
1841.98	4.39701
1843.48	4.72954
1844.97	5.57423
1846.47	6.29297
1847.96	5.77627
1849.46	5.72099
1850.95	5.75397
1852.45	6.24952
1853.94	6.90482
1855.43	6.91411
1856.92	6.76725
1858.42	6.41701
1859.91	6.10275
1861.4	5.34237
1862.89	4.84053
1864.39	5.01922
1865.88	4.88079
1867.37	4.0365
1868.86	4.55888
1870.35	4.33835
1871.84	4.18936
1873.33	3.74662
1874.82	2.61947
1876.31	0.996478
1877.8	1.07839
1879.29	0.994563
1880.77	0.98048
1882.26	0.64964
1882.52	0.228571
1884.02	0.892865
1885.51	1.4592
1887.01	2.42091
1888.5	2.32916
1889.99	2.63053
1891.49	2.47632
1892.98	2.08068
1894.47	2.52803
1895.96	2.54162
1897.46	3.2449
1898.95	3.79718
1900.44	3.59298
1901.93	4.45077
1903.42	5.06989
1904.91	5.72659
1906.4	6.95209
1907.89	7.71585
1909.38	8.78541
1910.87	9.40979
1912.36	9.48328
1913.85	9.94819
1915.34	9.97003
1916.83	10.7993
1918.32	11.6543
1919.8	11.6149
1921.29	11.2809
1922.78	11.8221
1924.27	12.2873
1925.75	11.6038
1927.24	11.2959
1928.73	11.6633
1930.21	12.0233
1931.7	12.0723
1933.18	11.3836
1934.67	11.3752
1936.15	11.7246
1937.64	11.6299
1939.12	11.2714
1940.61	10.6294
1942.09	9.72578
1943.57	8.64248
1945.06	7.90736
1946.54	6.86423
1948.02	6.35976
1949.51	6.45614
1950.99	7.19298
1952.47	6.93078
1953.95	6.26998
1955.43	6.45295
1956.91	6.87019
1958.39	7.42278
1959.87	7.11366
1961.36	6.94005
1962.84	6.66727
1964.32	6.81705
1965.79	6.7424
1967.27	6.53771
1968.75	6.61513
1970.23	6.23099
1971.71	6.18881
1973.19	6.17322
1974.66	6.87024
1976.14	7.46491
1977.62	7.66837
1979.1	7.15023
1980.57	6.80724
1982.05	6.95033
1983.53	7.39773
1985	7.21266
1986.48	7.68661
1987.95	8.20236
1989.43	8.81113
1990.9	9.03745
1992.38	8.70053
1993.85	8.34183
1995.33	8.54924
1996.8	8.85302
1998.27	8.3683
1999.75	8.75683
2001.22	9.60397
2002.69	9.24851
2004.16	9.24328
2005.64	8.68898
2007.11	8.52653
2008.58	9.11135
2010.05	9.34246
2011.52	9.80194
2012.99	10.9512
2014.46	11.423
2015.93	11.4751
2017.4	11.9405
2018.87	11.6487
2020.34	12.0541
2021.81	11.7101
2023.28	11.4131
2024.75	11.5685
2026.22	11.7635
2027.69	11.6858
2029.15	12.1166
2030.62	11.8017
2032.09	11.7138
2033.56	11.1198
2035.02	11.0142
2036.49	11.6548
2037.95	12.0331
2039.42	12.0799
2040.89	11.6965
2042.35	11.4122
2043.82	12.0076
2045.28	12.1903
2046.75	12.3076
2048.21	12.1929
2049.67	11.5468
2051.14	11.3974
2052.6	10.726
2054.06	11.1804
2055.53	11.6622
2056.99	11.5941
2058.45	11.443
2059.92	10.9815
2061.38	10.5546
2062.84	10.7784
2064.3	9.26174
2065.76	9.11947
2067.22	9.78467
2068.68	10.4299
2070.14	10.0027
2071.6	9.72005
2073.06	9.85435
2074.52	9.87427
2075.98	10.5984
2077.44	11.7335
2078.9	12.0754
2080.36	13.1015
2081.82	13.5586
2083.27	14.2736
2084.73	14.8289
2086.19	15.1759
2087.65	13.873
2089.1	13.9563
2090.56	13.9681
2092.01	13.8539
2093.47	13.7898
2094.93	12.7943
2096.38	13.0356
2097.84	12.9659
2099.29	12.2028
2100.75	11.6609
2102.2	11.7105
2103.66	11.2988
2105.11	11.7494
2106.56	11.9098
2108.02	12.9534
2109.47	13.1397
2110.92	12.601
2112.37	12.3573
2113.83	11.7644
2115.28	11.5752
2116.73	11.7215
2118.18	11.1496
2119.63	11.0598
2121.09	11.2761
2122.54	11.3113
2123.99	11.9362
2125.44	12.3625
2126.89	12.9864
2128.34	12.9028
2129.79	13.2609
2131.23	13.5058
2132.68	13.6736
2134.13	14.1227
2135.58	14.7878
2137.03	15.201
2138.48	16.1736
2139.92	17.7701
2141.37	17.5342
2142.82	17.3353
2144.26	18.6517
2145.71	19.4908
2147.16	21.3336
2148.6	22.3373
2150.05	22.6026
2151.49	23.5481
2152.94	24.7819
2154.38	25.127
2155.83	25.9861
2157.27	26.6556
2158.72	26.736
2160.16	27.4537
2161.6	28.3505
2163.05	28.6234
2164.49	28.3472
2165.93	28.4217
2167.38	28.6112
2168.82	28.9738
2170.26	28.4214
2171.7	28.4477
2173.14	28.6243
2174.58	28.4642
2176.03	28.7007
2177.47	28.0908
2178.91	27.7836
2180.35	27.3348
2181.79	27.0133
2183.23	26.524
2184.67	26.4635
2186.1	25.9812
2187.54	25.8122
2188.98	25.4514
2190.42	24.832
2191.86	24.3266
2193.3	24.298
2194.73	23.6978
2196.17	23.4436
2197.61	22.8179
2199.05	21.5621
2200.48	20.3893
2201.92	20.2637
2203.35	19.787
2204.79	19.5834
2206.22	18.7669
2207.66	18.6443
2209.09	17.5153
2210.53	16.6933
2211.96	16.0381
2213.4	14.6644
2214.83	15.0475
2216.27	15.3797
2217.7	14.3901
2219.13	13.7169
2220.56	13.1297
2222	12.6281
2223.43	12.3806
2224.86	12.0552
2226.29	11.4636
2227.72	11.373
2229.16	10.3523
2230.59	9.89665
2232.02	10.1257
2233.45	9.09735
2234.88	8.86433
2236.31	7.74814
2237.74	7.48245
2239.17	6.94484
2240.6	7.06725
2242.03	6.56773
2243.45	6.40295
2244.88	6.17267
2246.31	6.08775
2247.74	5.78919
2249.17	5.24489
2250.59	6.23289
2252.02	6.23649
2253.45	6.65903
2254.87	6.21715
2256.3	6.40456
2257.73	6.09558
2259.15	5.67098
2260.58	5.65696
2262	5.71548
2263.43	6.06208
2264.85	6.61475
2266.28	6.68444
2267.7	6.99368
2269.13	7.07245
2270.55	6.65366
2271.97	6.78559
2273.4	7.357
2274.82	7.3604
2276.24	7.13411
2277.66	6.54852
2279.09	6.61833
2280.51	6.12482
2281.93	6.67552
2283.35	6.86407
2284.77	7.15588
2286.19	7.06004
2287.61	7.25915
2289.04	6.88897
2290.46	7.36177
2291.88	7.67846
2293.29	7.49059
2294.71	7.93255
2296.13	8.71756
2297.55	9.0321
2298.97	9.90852
2300.39	10.4049
2301.81	11.45
2303.23	12.7171
2304.64	13.1448
2306.06	13.4912
2307.48	13.7881
2308.89	14.7719
2310.31	15.6262
2311.73	16.2191
2313.14	15.8799
2314.56	16.3373
2315.97	16.155
2317.39	16.2301
2318.8	16.385
2320.22	16.7795
2321.63	17.0634
2323.05	16.9723
2324.46	16.8388
2325.88	16.8797
2327.29	16.6477
2328.7	16.2304
2330.12	15.8747
2331.53	15.496
2332.94	15.0283
2334.35	14.6204
2335.76	13.8585
2337.18	12.5956
2338.59	12.1519
2340	10.7768
2341.41	9.50564
2342.82	8.68824
2344.23	7.86015
2345.64	6.4888
2347.05	5.22488
2348.46	4.51026
2349.87	3.68388
2351.28	3.32326
2352.69	3.28878
2354.1	2.03181
2355.5	1.07008
2356.91	0.44687
2358.32	0.738564
2359.73	-0.347217
2361.14	-0.578674
2362.54	-1.21877
2363.95	-1.13242
2365.36	-0.763705
2366.76	-0.524617
2368.17	-0.708938
2369.58	0.358362
2370.98	-0.32866
2372.39	0.11837
2373.79	1.02148
2375.2	0.623758
2376.6	0.0439217
2378	1.31673
2379.41	1.81205
2380.81	2.5229
2382.22	2.28722
2383.62	2.00346
2385.02	2.15272
2386.42	2.3744
2387.83	3.06119
2389.23	2.89409
2390.63	2.87745
2392.03	4.25932
2393.43	4.6189
2394.84	4.42266
2396.24	4.30441
2397.64	3.48713
2399.04	3.81395
2400.44	4.07648
2401.84	4.51535
2403.24	4.22669
2404.64	5.01807
2406.04	5.20675
2407.44	5.92014
2408.83	6.20994
2410.23	6.08026
2411.63	6.27041
2413.03	6.7651
2414.43	7.02584
2415.83	7.03749
2417.22	7.531
2418.62	8.14928
2420.02	8.18686
2421.41	9.08575
2422.81	9.30898
2424.21	9.19361
2425.6	9.62008
2427	10.2661
2428.39	10.3377
2429.79	9.68386
2431.18	10.147
2432.58	10.0082
2433.97	10.525
2435.36	10.5956
2436.76	10.9239
2438.15	11.0953
2439.54	10.8396
2440.94	11.0681
2442.33	11.309
2443.72	10.4671
2445.11	10.256
2446.51	9.4166
2447.9	9.81253
2449.29	8.53511
2450.68	8.30046
2452.07	7.54951
2453.46	7.10815
2454.85	6.73296
2456.24	6.4196
2457.63	5.84561
2459.02	5.39942
2460.41	5.59921
2461.8	5.29123
2463.19	4.23784
2464.58	3.10675
2465.97	2.87815
2467.36	2.56338
2468.75	3.14518
2470.13	3.58291
2471.52	3.88209
2472.91	3.69777
2474.29	3.78077
2475.68	3.58937
2477.07	3.4929
2478.45	2.92281
2479.84	2.9268
2481.22	2.4277
2482.61	2.10439
2484	1.80323
2485.38	1.41181
2486.77	1.48573
2488.15	1.61393
2489.54	1.75338
2490.92	2.01574
2492.3	1.78663
2493.69	2.09089
2495.07	1.99342
2496.45	1.54924
2497.84	1.07826
2499.22	1.288
2500.6	2.00938
2501.98	2.21054
2503.36	2.28139
2504.74	1.8763
2506.13	1.59852
2507.51	0.961671
2508.89	0.758151
2510.27	0.890962
2511.65	0.386114
2513.03	0.439236
2514.41	0.854296
2515.79	0.211931
2517.17	0.868694
2518.55	0.847171
2519.93	1.24836
2521.3	1.49273
2522.68	0.786302
2524.06	0.876328
2525.44	1.35265
2526.82	1.40233
2528.19	1.62377
2529.57	1.34673
2530.95	1.39588
2532.32	1.91234
2533.7	2.02316
2535.08	2.54132
2536.45	3.1697
2537.83	3.89216
2539.2	4.04254
2540.58	3.60754
2541.95	3.3518
2543.33	3.19886
2544.7	3.80981
2546.08	3.14837
2547.45	3.23478
2548.82	3.43069
2550.2	3.10068
2551.57	3.47198
2552.94	4.14494
2554.32	3.88041
2555.69	4.23092
2557.06	4.15391
2558.43	4.35752
2559.8	4.24912
2561.17	4.80482
2562.55	4.8703
2563.92	4.48086
2565.29	4.37819
2566.66	5.02132
2568.03	4.87828
2569.4	4.76754
2570.77	4.37194
2572.14	4.49005
2573.51	4.91799
2574.88	5.15493
2576.24	4.53008
2577.61	4.58482
2578.98	4.47173
2580.35	4.91332
2581.72	4.89871
2583.09	5.02726
2584.45	5.07894
2585.82	5.40212
2587.19	5.18974
2588.55	5.45209
2589.92	5.68111
2591.28	5.63678
2592.65	6.00774
2594.02	6.13488
2595.38	5.8775
2596.75	6.38977
2598.11	6.21209
2599.48	6.94605
2600.84	6.90348
2602.2	6.94394
2603.57	6.66045
2604.93	6.82217
2606.3	7.06936
2607.66	7.15616
2609.02	6.8772
2610.38	6.28835
2611.75	5.81467
2613.11	5.84115
2614.47	5.31242
2615.83	5.31488
2617.19	5.22236
2618.56	4.22567
2619.92	4.27733
2621.28	3.84262
2622.64	3.00586
2624	2.494
2625.36	1.845
2626.72	1.74633
2628.08	1.06885
2629.44	1.00495
2630.8	0.637925
2632.15	0.665263
2633.51	1.2487
2634.87	1.3084
2636.23	1.13286
2637.59	1.13904
2638.94	1.21369
2640.3	1.11944
2641.66	0.342734
2643.02	-0.490422
2644.37	-1.21374
2645.73	-0.887375
2647.08	-0.0659028
2648.44	0.0275333
2649.8	0.582501
2651.15	0.268006
2652.51	0.924401
2653.86	1.27139
2655.22	1.45668
2656.57	1.66861
2657.92	1.77141
2659.28	1.8896
2660.63	2.19616
2661.99	2.75992
2663.34	2.72606
2664.69	3.09207
2666.04	3.18289
2667.4	3.1632
2668.75	2.91587
2670.1	3.19136
2671.45	3.37544
2672.81	3.72808
2674.16	3.66346
2675.51	3.01011
2676.86	2.5726
2678.21	2.42664
2679.56	2.31665
2680.91	2.73764
2682.26	2.7177
2683.61	2.90354
2684.96	2.85456
2686.31	2.86855
2687.66	2.7171
2689	2.81036
2690.35	2.54322
2691.7	2.63207
2693.05	3.14573
2694.4	3.80367
2695.74	4.43298
2697.09	5.20961
2698.44	6.21717
2699.79	6.7348
2701.13	6.55314
2702.48	6.25157
2703.82	5.94789
2705.17	5.85788
2706.52	5.93426
2707.86	6.08027
2709.21	7.24362
2710.55	8.12612
2711.9	8.64638
2713.24	9.60574
2714.58	10.6639
2715.93	11.2218
2717.27	11.3359
2718.61	11.1506
2719.96	11.2277
2721.3	11.2392
2722.64	11.0894
2723.99	11.358
2725.33	11.2194
2726.67	11.4875
2728.01	11.4956
2729.35	11.3735
2730.7	10.9411
2732.04	10.8709
2733.38	10.7484
2734.72	10.4298
2736.06	10.6495
2737.4	10.1843
2738.74	10.1408
2740.08	9.66241
2741.42	8.48825
2742.76	8.53724
2744.09	7.99559
2745.43	7.42729
2746.77	7.4807
2748.11	7.32839
2749.45	6.64418
2750.79	5.92103
2752.12	5.00121
2753.46	4.56503
2754.8	3.91686
2756.13	4.01141
2757.47	3.55653
2758.81	3.75481
2760.14	4.03346
2761.48	4.45643
2762.81	4.41454
2764.15	3.70699
2765.49	4.03771
2766.82	3.09591
2768.15	2.43167
2769.49	2.95612
2770.82	2.70892
2772.16	3.54307
2773.49	4.17008
2774.82	4.44109
2776.16	4.38821
2777.49	4.24739
2778.82	4.07686
2780.16	4.26963
2781.49	3.92933
2782.82	3.29191
2784.15	2.35638
2785.48	2.5328
2786.81	2.22702
2788.15	2.48984
2789.48	2.50826
2790.81	2.89381
2792.14	2.07115
2793.47	2.20989
2794.8	2.61666
2796.13	2.94709
2797.46	2.80702
2798.79	3.48292
2800.12	3.99346
2801.44	4.02518
2802.77	3.66121
2804.1	3.085
2805.43	3.22298
2806.76	2.11786
2808.08	1.51148
2809.41	2.09961
2810.74	1.33807
2812.07	1.669
2813.39	1.93351
2814.72	1.53551
2816.05	1.44496
2817.37	1.44609
2818.7	1.78428
2820.02	2.56527
2821.35	3.35208
2822.67	4.84832
2824	6.14912
2825.32	7.56297
2826.65	9.56432
2827.97	10.8873
2829.29	11.8215
2830.62	13.5363
2831.94	15.5295
2833.26	16.6914
2834.59	18.5612
2835.91	21.0171
2837.23	23.1321
2838.55	26.0319
2839.88	28.4236
2841.2	30.2622
2842.52	32.9647
2843.84	36.1454
2845.16	38.7963
2846.48	42.152
2847.8	45.2498
2849.12	49.0554
2850.44	52.4849
2851.76	55.9154
2853.08	59.6838
2854.4	63.9726
2855.72	68.4883
2857.04	71.8946
2858.36	74.9641
2859.68	78.7098
2861	82.1821
2862.32	84.9832
2863.63	87.7823
2864.95	91.4731
2866.27	93.6991
2867.58	96.1247
2868.9	98.6698
2870.22	101.292
2871.53	104.155
2872.85	106.66
2874.17	109.382
2875.48	112.357
2876.8	114.424
2878.11	116.76
2879.43	119.303
2880.74	120.975
2882.06	122.944
2883.37	125.082
2884.69	127.452
2886	128.921
2887.31	131.24
2888.63	133.254
2889.94	135.222
2891.25	137.091
2892.57	139.586
2893.88	141.182
2895.19	142.866
2896.5	144.761
2897.82	147.499
2899.13	149.557
2900.44	152.049
2901.75	155.753
2903.06	158.283
2904.37	160.901
2905.68	163.519
2906.99	166.152
2908.3	170.25
2909.61	173.742
2910.92	177.171
2912.23	180.739
2913.54	184.097
2914.85	187.782
2916.16	190.408
2917.46	193.287
2918.77	196.103
2920.08	198.411
2921.39	200.176
2922.7	200.953
2924	202.38
2925.31	203.51
2926.62	204.381
2927.92	205.317
2929.23	205.709
2930.53	205.778
2931.84	205.168
2933.15	204.404
2934.45	203.435
2935.76	202.045
2937.06	200.51
2938.37	198.411
2939.67	195.994
2940.98	194.066
2942.28	191.476
2943.58	188.827
2944.89	185.894
2946.19	182.005
2947.49	179.537
2948.8	176.792
2950.1	173.441
2951.4	169.932
2952.7	167.3
2954.01	163.132
2955.31	160.036
2956.61	156.135
2957.91	152.924
2959.21	149.667
2960.51	145.887
2961.81	142.43
2963.11	139.64
2964.41	135.245
2965.71	131.91
2967.01	128.605
2968.31	124.999
2969.61	122.02
2970.91	119.463
2972.21	116.343
2973.51	113.738
2974.81	110.304
2976.1	107.065
2977.4	103.738
2978.7	100.454
2980	96.8734
2981.29	92.9582
2982.59	89.503
2983.89	86.2282
2985.18	82.7453
2986.48	79.1448
2987.78	75.243
2989.07	71.5575
2990.37	67.9315
2991.66	63.8198
2992.96	60.2319
2994.25	56.259
2995.55	52.3032
2996.84	48.4621
2998.14	45.1023
2999.43	42.3836
3000.72	39.4628
3002.02	36.5206
3003.31	33.5932
3004.6	31.7047
3005.9	29.449
3007.19	26.7386
3008.48	24.7822
3009.77	22.6042
3011.07	21.2675
3012.36	19.4529
3013.65	17.0303
3014.94	14.5919
3016.23	13.1222
3017.52	11.4392
3018.81	9.49427
3020.1	8.91236
3021.39	7.77633
3022.68	7.19099
3023.97	6.41529
3025.26	5.34488
3026.55	4.32043
3027.84	3.43655
3029.13	2.86266
3030.42	2.8186
3031.71	2.45276
3033	2.60685
3034.28	1.9711
3035.57	2.08219
3036.86	2.31962
3038.15	3.30086
3039.43	3.27895
3040.72	3.43156
3042.01	3.33775
3043.29	3.36265
3044.58	3.4225
3045.86	3.95838
3047.15	5.01876
3048.44	5.00464
3049.72	5.10678
3051.01	5.16565
3052.29	4.99295
3053.58	5.06116
3054.86	4.95424
3056.14	4.81627
3057.43	5.38618
3058.71	5.39102
3060	5.62833
3061.28	6.06314
3062.56	6.37713
3063.84	6.66934
3065.13	6.27996
3066.41	6.18826
3067.69	5.75089
3068.97	6.37205
3070.25	5.20887
3071.54	4.34233
3072.82	4.4802
3074.1	3.26264
3075.38	3.31786
3076.66	2.71896
3077.94	2.57002
3079.22	2.63352
3080.5	2.96014
3081.78	2.89064
3083.06	2.73779
3084.34	3.70855
3085.62	3.83963
3086.9	4.16534
3088.17	3.95367
3089.45	4.04412
3090.73	4.01786
3092.01	4.05724
3093.29	4.74766
3094.56	5.0695
3095.84	4.89011
3097.12	5.57268
3098.4	6.56592
3099.67	7.28702
3100.95	7.69197
3102.22	7.56477
3103.5	7.26657
3104.77	7.41555
3106.05	7.04981
3107.33	7.33404
3108.6	7.67198
3109.88	8.37085
3111.15	8.62656
3112.43	7.94037
3113.7	8.77775
3114.97	9.07498
3116.25	9.29117
3117.52	10.074
3118.79	10.7173
3120.07	11.7744
3121.34	12.3671
3122.61	12.811
3123.88	13.4608
3125.16	14.0417
3126.43	14.5273
3127.7	15.231
3128.97	15.3806
3130.24	16.3321
3131.51	16.6608
3132.78	18.0364
3134.05	18.4876
3135.33	19.9344
3136.59	21.7291
3137.86	22.8228
3139.14	24.7297
3140.41	26.04
3141.67	27.692
3142.94	29.582
3144.21	31.2243
3145.48	32.9003
3146.75	34.3051
3148.02	35.3389
3149.28	38.0053
