#Acq. time (s)=	45
#Accumulations=	2
#Range (cm-¹)=	200...3150
#Windows=	2
#Auto scanning=	Off
#Autofocus=	Off
#Macrospot=	Off
#AutoExposure=	Off
#Spike filter=	Multiple accum.
#Delay time (s)=	0
#Binning=	1
#Readout mode=	Signal
#DeNoise=	Off
#ICS correction=	On
#Dark correction=	Off
#Inst. Process=	Off
#Detector Gain=	Best Dynamic Range
#Detector ADC=	20 kHz       
#Detector temperature (°C)=	-69.85
#Instrument=	LabRAM HR Evol
#Detector=	Synapse
#Objective=	x100
#Grating=	600 gr/mm
#ND Filter=	100%
#Laser (nm)=	532 
#Hole=	100.021
#Range=	Auto
#Laser Pol.=	No
#Raman. Pol.=	No
#Laser Pol. (°)=	-0.0007625
#Raman Pol. (°)=	89.9995
#Collection=	Microscope
#StageXY=	Marzhauser
#StageZ=	Marzhauser
#X (µm)=	-628.8
#Y (µm)=	-1601.4
#Z (µm)=	89.25
#Full time(mm:ss)=	3:18
#Project=	
#Sample=	
#Site=	
#Title=	Mb_10_14_18_2x_45s_532 nm_x100_100%_600 gr_mm
#Remark=	
#Date=	11.07.2022 09:52
#Acquired=	11.07.2022 09:52:43
#Base:Fit=	10.08.2022 10:21:11
#Base:Sub=	10.08.2022 10:21:41
#Filter:Polynom=	16.08.2022 10:17:53
#AxisType[0]=Intens
#AxisUnit[0]=Cnt
#AxisType[1]=Spectr
#AxisUnit[1]=1/cm
200.388	-1.30393
202.204	-0.0173395
204.019	0.577893
205.832	0.124001
207.646	-0.0329829
209.459	-0.181032
211.274	0.657532
213.087	1.41945
214.899	1.27294
216.711	1.09779
218.524	1.55109
220.335	1.56049
222.146	0.907833
223.956	0.155773
225.766	1.20705
227.576	0.847511
229.388	1.89017
231.197	2.98656
233.005	4.18304
234.813	4.80831
236.621	5.97003
238.429	6.6759
240.236	7.20561
242.045	7.28076
243.852	7.53718
245.658	8.6434
247.464	8.87218
249.269	7.78216
251.074	8.07615
252.879	9.72691
254.683	11.4247
256.487	12.2722
258.291	12.1786
260.094	12.1784
261.897	12.6879
263.702	13.5735
265.504	13.4379
267.306	13.5873
269.108	13.1284
270.909	12.9818
272.71	13.0197
274.511	13.5717
276.311	14.4031
278.111	15.2978
279.91	15.4729
281.709	15.3659
283.508	15.8626
285.306	13.4473
287.105	12.9206
288.9	13.3958
290.698	13.5425
292.495	13.6347
294.291	13.6547
296.088	14.2107
297.884	13.8492
299.679	12.7138
301.475	12.8758
303.27	12.414
305.064	12.0592
306.858	13.0873
308.652	13.2909
310.444	13.376
312.237	14.0337
314.03	15.0881
315.822	15.6404
317.615	16.6918
319.406	17.8562
321.198	17.9217
322.987	18.0113
324.778	17.5779
326.568	17.1824
328.358	16.5731
330.148	17.0845
331.935	16.5348
333.724	16.2836
335.513	15.6574
337.301	14.7081
339.089	14.2799
340.875	14.7317
342.662	14.1308
344.449	13.3621
346.236	12.1656
348.02	11.0835
349.806	10.3147
351.592	9.56674
353.375	9.8406
355.16	8.50868
356.944	8.0633
358.728	7.83824
360.51	7.34548
362.294	7.00255
364.077	7.74952
365.858	7.93871
367.64	7.30998
369.422	7.47219
371.202	7.40717
372.983	7.60692
374.764	7.3351
376.543	8.74038
378.324	9.20943
380.102	9.19904
381.881	9.52641
383.661	10.0797
385.438	10.8415
387.216	11.3116
388.993	11.5964
390.771	13.2987
392.548	15.595
394.324	15.9838
396.101	16.7099
397.875	17.5292
399.651	19.1217
401.425	19.1753
403.201	19.8771
404.974	20.3177
406.749	21.3271
408.524	20.2979
410.296	20.3547
412.07	20.3363
413.841	19.2463
415.614	18.7444
417.385	18.1559
419.156	17.6529
420.928	15.9425
422.698	15.4873
424.469	13.6663
426.238	13.4669
428.009	12.6116
429.777	11.4519
431.548	11.1254
433.315	10.9748
435.083	10.8942
436.852	9.73034
438.618	10.2631
440.387	10.1433
442.153	9.87613
443.919	8.38022
445.686	7.61234
447.451	7.78808
449.218	7.35253
450.982	8.25474
452.746	10.0312
454.512	10.2944
456.275	9.71097
458.038	10.2231
459.803	11.2165
461.565	11.8311
463.327	12.5504
465.091	12.1509
466.852	12.7194
468.613	12.1083
470.374	12.6354
472.136	12.7932
473.896	12.6793
475.655	13.1902
477.415	13.8003
479.176	15.1361
480.934	16.4719
482.692	16.4423
484.45	17.3256
486.21	18.4446
487.967	18.4585
489.724	17.6726
491.481	18.7409
493.237	19.1138
494.995	20.4925
496.75	20.3272
498.506	20.5698
500.26	20.1668
502.015	19.2747
503.769	19.2465
505.525	19.3408
507.279	19.024
509.032	18.7924
510.785	18.9373
512.537	16.8986
514.289	17.8451
516.041	17.1673
517.793	17.4658
519.546	17.8335
521.297	17.3356
523.047	17.7307
524.797	16.8144
526.547	17.5419
528.297	16.5341
530.046	16.1309
531.795	16.023
533.543	16.3534
535.291	16.8232
537.039	17.4076
538.787	17.5275
540.534	17.1743
542.281	15.6091
544.027	14.8715
545.773	14.8157
547.519	14.1626
549.264	14.3148
551.01	13.4431
552.754	13.3247
554.499	12.9704
556.243	12.6483
557.987	12.7978
559.73	12.2863
561.474	11.7214
563.216	11.5178
564.959	11.4227
566.701	11.0387
568.441	10.8881
570.182	10.8164
571.923	9.8458
573.664	9.567
575.405	9.74411
577.145	9.31536
578.885	10.0078
580.624	9.75402
582.361	8.75917
584.1	6.01074
585.839	6.02544
587.577	5.33934
589.315	4.81372
591.052	4.60737
592.787	2.88611
594.524	1.66124
596.26	2.3417
597.997	1.89787
599.732	0.741794
601.466	1.33928
603.201	1.34754
604.936	1.92756
606.67	2.63681
608.403	2.93871
610.136	4.60903
611.87	5.48448
613.603	5.8356
615.334	6.84516
617.067	7.41996
618.799	8.38454
620.529	9.40838
622.26	9.98736
623.991	10.1967
625.72	10.5148
627.451	11.3071
629.181	12.4153
630.909	12.9575
632.638	14.24
634.368	16.7549
636.095	18.6261
637.823	18.423
639.551	18.9378
641.277	18.8052
643.005	19.8061
644.73	19.8868
646.457	20.5778
648.184	22.0006
649.908	22.3873
651.634	22.8229
653.357	23.449
655.083	23.9083
656.806	23.7496
658.53	23.1708
660.253	23.6395
661.977	23.5113
663.7	21.9586
665.422	21.3926
667.145	20.1179
668.865	20.1627
670.588	20.7805
672.308	21.4601
674.027	20.0835
675.749	19.5217
677.468	20.0332
679.188	18.9553
680.907	20.3803
682.627	21.0475
684.345	20.5158
686.064	20.0594
687.781	21.6813
689.498	23.5451
691.216	24.0435
692.932	25.8183
694.65	27.0313
696.366	29.3048
698.081	30.2444
699.797	30.0071
701.512	31.6822
703.228	32.1105
704.942	33.4201
706.655	34.635
708.371	34.4599
710.083	35.4902
711.796	37.1066
713.51	38.1019
715.222	38.0816
716.934	38.3246
718.645	40.1425
720.358	41.5624
722.068	40.8793
723.779	40.6484
725.49	39.48
727.2	40.9978
728.909	41.2122
730.618	41.7821
732.329	42.0574
734.037	43.209
735.745	43.0252
737.453	43.8157
739.16	44.8065
740.869	45.2383
742.576	45.2448
744.282	44.9868
745.988	46.1151
747.694	46.1319
749.401	47.2912
751.107	48.263
752.811	49.6871
754.516	51.371
756.22	53.0046
757.924	53.4248
759.627	54.5419
761.332	56.2226
763.035	58.1063
764.738	58.3232
766.44	59.5766
768.142	60.5784
769.843	62.0605
771.544	64.7719
773.245	66.5046
774.946	67.8626
776.646	69.2942
778.346	70.6729
780.046	72.0899
781.745	72.4518
783.444	73.1449
785.143	75.2538
786.841	76.3637
788.539	76.9225
790.237	78.0267
791.934	78.1032
793.631	77.9994
795.328	78.8017
797.024	78.9254
798.72	78.2406
800.416	77.4059
802.112	77.3891
803.807	77.1619
805.502	76.7151
807.196	76.5628
808.89	76.4945
810.584	77.1248
812.278	78.373
813.971	77.7531
815.664	78.2576
817.354	78.5518
819.047	78.4418
820.739	78.703
822.43	78.9768
824.122	78.7356
825.813	80.2281
827.503	80.2185
829.192	80.8971
830.882	81.7577
832.571	81.2039
834.261	81.8306
835.95	80.2281
837.637	80.4584
839.325	79.6905
841.013	78.8478
842.701	76.1805
844.389	73.9321
846.074	72.7343
847.761	73.1373
849.447	72.1202
851.131	70.7597
852.817	69.5575
854.503	68.9343
856.188	67.7381
857.871	65.4972
859.556	65.3922
861.24	63.8463
862.922	62.1772
864.606	61.9396
866.289	59.9678
867.97	60.4698
869.653	60.5218
871.336	58.3589
873.016	58.1874
874.698	56.189
876.379	55.3762
878.058	54.6482
879.739	53.9406
881.418	53.2279
883.098	51.2975
884.778	51.9799
886.456	51.2264
888.135	51.4251
889.812	52.7394
891.49	53.9706
893.167	53.9231
894.845	54.248
896.523	53.2411
898.198	54.0907
899.875	55.403
901.55	55.6162
903.226	55.8446
904.901	57.7318
906.576	57.6395
908.25	56.7323
909.925	58.1846
911.598	57.0552
913.271	57.0786
914.945	55.6702
916.617	54.572
918.291	53.4418
919.962	52.3798
921.635	51.5846
923.306	49.7586
924.978	48.9606
926.648	47.4809
928.318	47.2529
929.989	47.2961
931.659	46.6999
933.328	44.679
934.998	42.7081
936.666	40.9781
938.336	40.4916
940.004	39.8002
941.671	39.0993
943.34	37.5774
945.007	36.5329
946.673	36.6326
948.339	35.7072
950.007	33.9181
951.672	33.4699
953.337	32.4307
955.004	30.6421
956.669	29.7538
958.333	28.5287
959.997	29.1671
961.662	27.601
963.326	28.5536
964.989	28.5878
966.651	28.7993
968.315	30.1031
969.977	29.9367
971.639	31.9048
973.301	32.8551
974.962	32.5313
976.624	33.2619
978.285	33.5465
979.945	33.5014
981.605	34.9652
983.264	34.9177
984.924	33.8841
986.583	33.5324
988.243	33.6808
989.901	33.3953
991.56	32.0603
993.217	32.694
994.875	32.456
996.532	32.4357
998.188	31.4012
999.845	31.2671
1001.5	30.7617
1003.16	30.8164
1004.81	31.0206
1006.47	31.472
1008.12	32.0033
1009.78	30.6831
1011.43	30.2994
1013.09	29.4864
1014.74	30.0413
1016.39	29.8459
1018.05	28.4739
1019.7	28.185
1021.35	28.0709
1023	28.0772
1024.65	26.318
1026.31	24.2192
1027.96	24.1743
1029.61	23.5427
1031.26	21.8987
1032.91	19.8341
1034.56	19.3348
1036.21	19.5702
1037.86	19.5684
1039.51	18.9448
1041.16	19.6469
1042.8	19.8839
1044.45	20.0076
1046.1	20.7934
1047.75	20.1099
1049.39	20.114
1051.04	20.0579
1052.69	19.9576
1054.33	20.0065
1055.98	19.3975
1057.62	19.3944
1059.27	20.7999
1060.91	20.0086
1062.56	19.3638
1064.2	18.7827
1065.85	16.7592
1067.49	16.1478
1069.13	16.0274
1070.77	16.9891
1072.42	16.4161
1074.06	15.3969
1075.7	16.1755
1077.34	16.449
1078.98	16.4348
1080.62	15.6163
1082.27	16.4444
1083.91	17.3341
1085.55	17.8785
1087.18	19.2582
1088.82	18.7958
1090.46	18.0313
1092.1	17.7028
1093.74	17.4337
1095.38	17.9268
1097.02	17.9524
1098.65	16.1699
1100.29	15.8642
1101.93	16.4957
1103.56	15.7117
1105.2	16.1727
1106.84	14.9307
1108.47	13.9316
1110.11	14.3041
1111.74	13.9271
1113.38	13.1542
1115.01	12.0307
1116.64	12.1865
1118.28	12.3094
1119.91	11.9643
1121.54	11.3835
1123.18	12.0033
1124.81	11.2699
1126.44	10.3442
1128.07	9.70915
1129.7	9.34167
1131.33	8.75418
1132.97	7.81403
1134.6	7.98523
1136.23	7.89367
1137.86	7.60588
1139.49	6.98512
1141.11	7.02332
1142.74	5.78502
1144.37	4.8716
1146	4.38157
1147.63	4.38542
1149.26	4.63418
1150.88	5.17661
1152.51	5.13841
1154.14	4.38152
1155.76	4.76066
1157.39	4.96181
1159.01	5.37716
1160.64	5.45976
1162.27	4.566
1163.89	5.3991
1165.51	5.92685
1167.14	5.76868
1168.76	4.78049
1170.39	3.90558
1172.01	3.09541
1173.63	3.90334
1175.25	3.84231
1176.88	4.48044
1178.5	4.13396
1180.12	4.22857
1181.74	5.45342
1183.36	4.61917
1184.98	4.36816
1186.6	5.23673
1188.22	3.64491
1189.84	3.27629
1191.46	3.56314
1193.08	3.38255
1194.7	2.68665
1196.32	2.99332
1197.94	2.98778
1199.55	2.79363
1201.17	3.44096
1202.79	3.8312
1204.41	3.93293
1206.02	3.66894
1207.64	4.98726
1209.25	5.80595
1210.87	6.97193
1212.48	7.84815
1214.1	9.39385
1215.71	10.6549
1217.33	12.7658
1218.94	13.8032
1220.56	15.2214
1222.17	17.6697
1223.79	19.2603
1225.4	20.6615
1227.01	22.5459
1228.62	23.6337
1230.23	24.4456
1231.85	26.091
1233.46	27.2415
1235.07	28.8544
1236.68	31.4289
1238.29	33.0091
1239.9	33.9575
1241.51	34.2762
1243.12	34.2183
1244.73	35.5458
1246.34	36.5695
1247.94	36.6099
1249.55	36.2285
1251.16	37.4161
1252.77	37.5941
1254.37	38.6665
1255.98	39.3581
1257.59	39.7469
1259.2	39.3228
1260.8	40.0973
1262.41	40.3079
1264.01	40.8762
1265.62	41.646
1267.22	41.4887
1268.83	40.7148
1270.43	41.6535
1272.03	42.5681
1273.64	43.7672
1275.24	44.1055
1276.85	45.6269
1278.45	45.8616
1280.05	47.1252
1281.65	48.0289
1283.25	48.7223
1284.85	49.9678
1286.46	51.4729
1288.06	53.5515
1289.66	54.5305
1291.26	55.5688
1292.86	55.6732
1294.46	57.9671
1296.06	58.9221
1297.66	61.4685
1299.25	62.2743
1300.85	63.1956
1302.45	64.6395
1304.05	66.1246
1305.65	67.1892
1307.24	67.9987
1308.84	68.8178
1310.43	70.1291
1312.03	71.4723
1313.63	72.8435
1315.22	73.7242
1316.82	74.2074
1318.41	73.3853
1320.01	73.1876
1321.6	72.9669
1323.2	72.6963
1324.79	73.0763
1326.38	72.5877
1327.98	72.4533
1329.57	71.5351
1331.16	72.0575
1332.76	71.6711
1334.35	71.7829
1335.94	70.8868
1337.53	69.4448
1339.12	68.7264
1340.71	68.646
1342.3	66.7701
1343.89	65.2349
1345.48	63.1423
1347.07	61.8812
1348.66	61.5283
1350.25	61.0858
1351.84	60.8925
1353.43	59.2696
1355.01	58.1164
1356.6	58.0217
1358.19	55.5709
1359.77	54.8427
1361.36	53.2898
1362.95	53.2947
1364.53	52.3206
1366.12	49.7418
1367.71	49.187
1369.29	47.3805
1370.88	45.3804
1372.46	44.7442
1374.04	44.4379
1375.63	43.5465
1377.21	43.1753
1378.8	41.5992
1380.38	40.3978
1381.96	40.2881
1383.54	40.8519
1385.13	39.0865
1386.71	37.8168
1388.29	37.8005
1389.87	37.3444
1391.45	36.1235
1393.03	35.6709
1394.61	35.094
1396.19	34.376
1397.77	34.2795
1399.35	33.713
1400.93	33.1512
1402.51	33.1926
1404.09	33.6149
1405.67	34.241
1407.24	36.2594
1408.82	36.7592
1410.4	37.1864
1411.98	37.6108
1413.55	38.8904
1415.13	40.0152
1416.71	40.8967
1418.28	41.6164
1419.86	43.06
1421.43	44.6668
1423.01	47.1258
1424.58	49.7154
1426.16	52.9051
1427.73	55.9554
1429.31	58.9117
1430.88	61.793
1432.45	63.915
1434.02	66.3883
1435.6	68.7329
1437.17	70.5801
1438.74	73.116
1440.31	74.79
1441.88	76.4443
1443.45	77.0589
1445.03	77.8113
1446.6	79.3232
1448.17	78.1024
1449.74	78.9558
1451.3	78.4702
1452.87	78.1531
1454.44	78.0909
1456.01	76.8928
1457.58	76.0837
1459.15	75.0548
1460.72	73.5313
1462.28	72.369
1463.85	69.8648
1465.42	67.8228
1466.98	65.3211
1468.55	63.1646
1470.12	60.979
1471.68	59.0011
1473.25	57.6675
1474.81	54.8993
1476.38	52.7078
1477.94	50.7808
1479.51	48.8446
1481.07	46.9502
1482.63	44.7448
1484.2	43.0162
1485.76	41.1443
1487.32	38.7757
1488.88	37.413
1490.45	37.3834
1492.01	35.3042
1493.57	33.5284
1495.13	31.1432
1496.69	30.3758
1498.25	29.9708
1499.81	28.7493
1501.37	28.0837
1502.93	27.8023
1504.49	27.7561
1506.05	27.4084
1507.61	27.6015
1509.17	27.2704
1510.73	27.2382
1512.28	26.9573
1513.84	27.0804
1515.4	26.0443
1516.96	25.2604
1518.51	25.5737
1520.07	24.9155
1521.63	23.7192
1523.18	23.0482
1524.74	22.4976
1526.29	22.0685
1527.85	22.9497
1529.4	22.293
1530.96	22.7039
1532.51	22.6264
1534.06	22.1164
1535.62	22.655
1537.17	22.6026
1538.72	22.6321
1540.28	22.38
1541.83	23.363
1543.38	23.1689
1544.93	23.4111
1546.48	25.1039
1548.03	25.1898
1549.59	25.1872
1551.14	26.0843
1552.69	25.0215
1554.24	25.3073
1555.79	26.6601
1557.34	27.1083
1558.88	28.7182
1560.43	29.3269
1561.98	30.8217
1563.53	31.2047
1565.08	31.812
1566.62	32.5765
1568.17	32.5898
1569.72	31.952
1571.27	32.5106
1572.81	33.3447
1574.36	34.0266
1575.9	35.5964
1577.45	37.5971
1579	39.4465
1580.54	41.2971
1582.09	43.3776
1583.63	44.5239
1585.17	45.8578
1586.72	46.6788
1588.26	48.2496
1589.8	49.571
1591.35	50.797
1592.89	51.745
1594.43	53.2649
1595.97	53.9866
1597.52	53.967
1599.06	54.6943
1600.6	54.6847
1602.14	55.2207
1603.68	55.0725
1605.22	54.8679
1606.76	54.9776
1608.3	54.8516
1609.84	55.5384
1611.38	55.3855
1612.92	56.4737
1614.46	56.0962
1615.99	54.1288
1617.53	54.1323
1619.07	54.9866
1620.61	53.5131
1622.14	52.9594
1623.68	53.4724
1625.22	54.0245
1626.75	54.2349
1628.29	55.5381
1629.82	56.3037
1631.36	57.957
1632.9	59.0031
1634.43	59.4356
1635.96	60.3787
1637.5	60.4596
1639.03	60.9046
1640.57	60.8982
1642.1	61.892
1643.63	63.7701
1645.16	64.5146
1646.7	65.671
1648.23	66.7875
1649.76	68.4647
1651.29	68.7094
1652.82	70.3419
1654.36	70.6368
1655.89	71.7282
1657.42	72.5163
1658.95	72.8973
1660.48	71.7461
1662.01	71.693
1663.53	71.8062
1665.06	71.764
1666.59	70.1344
1668.12	68.0324
1669.65	66.7048
1671.18	65.3234
1672.7	64.1033
1674.23	62.8392
1675.76	61.6877
1677.29	58.3103
1678.81	57.5339
1680.34	55.5497
1681.86	53.73
1683.39	51.9609
1684.91	49.5933
1686.44	47.4343
1687.96	44.1017
1689.49	41.2196
1691.01	37.3252
1692.54	34.2449
1694.06	32.6706
1695.58	28.9878
1697.11	26.2032
1698.63	24.6973
1700.15	23.8259
1701.67	22.634
1703.2	20.3098
1704.72	19.4138
1706.24	17.9785
1707.76	15.5992
1709.28	13.6925
1710.8	12.071
1712.32	10.5658
1713.84	9.55024
1715.36	8.41539
1716.88	7.2585
1718.4	6.86737
1719.91	5.77577
1721.43	4.52758
1722.95	4.22535
1724.47	4.01948
1725.99	3.54681
1727.5	2.21485
1729.02	2.64877
1730.54	1.94084
1732.05	1.95395
1733.57	1.85315
1735.09	2.23727
1736.6	1.68413
1738.12	1.92612
1739.63	2.10092
1741.15	1.70297
1742.66	1.67176
1744.18	1.96567
1745.69	2.88837
1747.2	3.31163
1748.72	4.27335
1750.23	3.9488
1751.74	3.68767
1753.25	3.36502
1754.77	4.24056
1756.28	4.15561
1757.79	4.1784
1759.3	4.02585
1760.81	4.35831
1762.32	4.11407
1763.83	3.69891
1765.34	3.65758
1766.85	2.97952
1768.36	2.99984
1769.87	2.36441
1771.38	2.86587
1772.89	4.43333
1774.4	4.76468
1775.91	5.05081
1777.41	4.31439
1778.92	3.69968
1780.43	3.8616
1781.94	3.47838
1783.44	2.65063
1784.95	2.57265
1786.45	2.64981
1787.96	3.33396
1789.47	3.70463
1790.97	2.65682
1792.47	2.16475
1793.98	2.52221
1795.48	2.48956
1796.99	2.98459
1798.49	3.1888
1800	3.06911
1801.5	2.53833
1803	1.92691
1804.51	2.08766
1806.01	2.24894
1807.51	2.67926
1809.01	2.60211
1810.51	2.61059
1812.02	1.79441
1813.52	1.717
1815.02	1.50621
1816.52	1.2116
1818.02	1.41325
1819.52	1.04478
1821.02	0.744494
1822.52	0.941926
1824.02	1.31501
1825.51	0.993506
1827.01	1.13279
1828.51	1.59393
1830.01	2.0634
1831.51	2.8398
1833	3.00476
1834.5	3.30785
1836	3.3212
1837.49	3.11694
1838.99	3.62994
1840.49	3.99684
1841.98	4.20975
1843.48	5.40673
1844.97	6.22024
1846.47	7.22566
1847.96	6.4491
1849.46	6.07088
1850.95	5.51457
1852.45	4.94936
1853.94	5.30984
1855.43	5.4547
1856.92	6.06242
1858.42	6.25587
1859.91	6.22173
1861.4	6.19883
1862.89	6.68616
1864.39	6.43072
1865.88	5.96325
1867.37	6.07323
1868.86	6.53794
1870.35	6.46995
1871.84	6.50619
1873.33	7.12562
1874.82	7.21168
1876.31	7.4008
1877.8	6.97782
1879.29	6.91877
1880.77	6.95309
1882.26	6.26643
1882.52	5.82624
1884.02	4.95997
1885.51	4.52103
1887.01	3.9811
1888.5	3.2293
1889.99	3.48268
1891.49	3.75561
1892.98	3.24059
1894.47	3.22107
1895.96	3.62766
1897.46	3.90265
1898.95	3.87371
1900.44	3.88059
1901.93	3.95938
1903.42	3.75069
1904.91	3.34086
1906.4	3.15378
1907.89	3.44168
1909.38	3.38847
1910.87	3.42547
1912.36	4.08316
1913.85	3.96666
1915.34	3.8125
1916.83	3.54435
1918.32	3.23066
1919.8	3.10145
1921.29	2.28624
1922.78	2.60086
1924.27	2.71993
1925.75	3.64984
1927.24	3.386
1928.73	2.98282
1930.21	2.38555
1931.7	2.37682
1933.18	3.04194
1934.67	2.83109
1936.15	3.10736
1937.64	2.96441
1939.12	2.59788
1940.61	2.68538
1942.09	3.04243
1943.57	3.86173
1945.06	4.19872
1946.54	4.26022
1948.02	3.41554
1949.51	3.01456
1950.99	2.62046
1952.47	2.17127
1953.95	1.52595
1955.43	0.539925
1956.91	0.120051
1958.39	-0.282411
1959.87	0.88676
1961.36	0.593051
1962.84	0.725577
1964.32	1.25621
1965.79	1.30358
1967.27	1.3191
1968.75	1.80352
1970.23	1.87256
1971.71	1.77183
1973.19	1.84693
1974.66	1.97826
1976.14	1.44841
1977.62	1.86597
1979.1	2.08252
1980.57	2.46614
1982.05	1.47994
1983.53	1.21121
1985	1.76009
1986.48	2.60045
1987.95	2.36289
1989.43	2.14778
1990.9	2.2515
1992.38	2.28474
1993.85	2.13973
1995.33	2.02629
1996.8	2.2163
1998.27	2.76348
1999.75	2.46375
2001.22	1.7376
2002.69	1.88563
2004.16	1.79763
2005.64	2.25757
2007.11	1.46587
2008.58	0.551563
2010.05	1.61596
2011.52	1.47901
2012.99	1.01725
2014.46	1.54439
2015.93	1.52549
2017.4	2.33141
2018.87	2.00366
2020.34	2.63785
2021.81	3.34175
2023.28	4.11705
2024.75	4.76014
2026.22	4.67602
2027.69	4.35401
2029.15	4.51457
2030.62	4.92736
2032.09	5.31642
2033.56	6.66399
2035.02	6.57728
2036.49	7.27621
2037.95	7.62888
2039.42	8.29099
2040.89	8.27307
2042.35	8.60145
2043.82	9.15501
2045.28	10.1081
2046.75	10.5562
2048.21	10.7136
2049.67	10.006
2051.14	10.1576
2052.6	9.81865
2054.06	9.62618
2055.53	9.47598
2056.99	10.2959
2058.45	10.0269
2059.92	9.11818
2061.38	8.56945
2062.84	8.78094
2064.3	8.96166
2065.76	8.59509
2067.22	8.62306
2068.68	8.51666
2070.14	8.1012
2071.6	7.77887
2073.06	7.10959
2074.52	6.74593
2075.98	6.00342
2077.44	6.06658
2078.9	6.05211
2080.36	6.0766
2081.82	6.97758
2083.27	7.60279
2084.73	7.33184
2086.19	8.59875
2087.65	9.12715
2089.1	10.1913
2090.56	11.2866
2092.01	12.0014
2093.47	12.6438
2094.93	13.4603
2096.38	13.6343
2097.84	14.1466
2099.29	14.4798
2100.75	14.0785
2102.2	14.5585
2103.66	14.827
2105.11	15.9565
2106.56	16.0792
2108.02	16.0638
2109.47	17.168
2110.92	17.7537
2112.37	18.2088
2113.83	18.8078
2115.28	19.2661
2116.73	19.7718
2118.18	19.3993
2119.63	19.6602
2121.09	19.5922
2122.54	19.5956
2123.99	19.5142
2125.44	19.682
2126.89	19.2588
2128.34	19.3797
2129.79	19.6502
2131.23	19.9819
2132.68	20.8091
2134.13	21.5065
2135.58	21.9729
2137.03	21.666
2138.48	21.8387
2139.92	22.7866
2141.37	24.1638
2142.82	24.6255
2144.26	25.2897
2145.71	25.5729
2147.16	26.6781
2148.6	27.2943
2150.05	28.6682
2151.49	29.4293
2152.94	30.4295
2154.38	31.4993
2155.83	32.0082
2157.27	33.4334
2158.72	33.1557
2160.16	33.3583
2161.6	34.5001
2163.05	34.8119
2164.49	35.9571
2165.93	36.612
2167.38	37.9142
2168.82	38.1455
2170.26	38.7008
2171.7	38.9729
2173.14	38.8949
2174.58	39.1515
2176.03	39.3981
2177.47	39.7038
2178.91	39.2606
2180.35	39.8945
2181.79	39.747
2183.23	39.1682
2184.67	38.2964
2186.1	37.776
2187.54	37.4191
2188.98	37.528
2190.42	37.5575
2191.86	37.6349
2193.3	36.4758
2194.73	35.9104
2196.17	34.539
2197.61	34.7635
2199.05	34.807
2200.48	35.0056
2201.92	34.888
2203.35	34.4625
2204.79	33.5989
2206.22	33.4919
2207.66	32.9753
2209.09	31.9741
2210.53	31.7655
2211.96	31.2393
2213.4	29.6376
2214.83	28.0354
2216.27	27.3626
2217.7	26.4893
2219.13	26.5678
2220.56	25.9284
2222	25.8208
2223.43	24.7809
2224.86	23.8191
2226.29	23.8458
2227.72	23.0915
2229.16	22.503
2230.59	21.5673
2232.02	21.9781
2233.45	22.1572
2234.88	21.9473
2236.31	21.5191
2237.74	20.9307
2239.17	20.6343
2240.6	20.281
2242.03	19.8576
2243.45	19.1192
2244.88	18.3161
2246.31	17.0166
2247.74	16.3209
2249.17	14.8654
2250.59	13.9711
2252.02	13.9896
2253.45	13.8289
2254.87	13.006
2256.3	12.8337
2257.73	12.5621
2259.15	12.5802
2260.58	12.6706
2262	12.9303
2263.43	12.4671
2264.85	12.2752
2266.28	12.1964
2267.7	12.3695
2269.13	12.513
2270.55	12.6009
2271.97	12.4024
2273.4	12.632
2274.82	12.3391
2276.24	11.9863
2277.66	12.0113
2279.09	11.0869
2280.51	10.1675
2281.93	10.2185
2283.35	9.77706
2284.77	9.9924
2286.19	10.668
2287.61	11.0428
2289.04	11.2492
2290.46	11.7863
2291.88	11.5636
2293.29	10.4162
2294.71	10.5512
2296.13	11.8702
2297.55	13.4071
2298.97	12.8679
2300.39	13.0664
2301.81	13.2059
2303.23	13.5961
2304.64	13.827
2306.06	13.8232
2307.48	14.2014
2308.89	14.2877
2310.31	15.0173
2311.73	14.7564
2313.14	14.4458
2314.56	14.0078
2315.97	13.6904
2317.39	13.43
2318.8	13.485
2320.22	13.3217
2321.63	14.1097
2323.05	15.3022
2324.46	14.8102
2325.88	14.2188
2327.29	14.315
2328.7	14.1816
2330.12	14.183
2331.53	13.6731
2332.94	13.7887
2334.35	13.0538
2335.76	12.4552
2337.18	12.313
2338.59	11.7887
2340	11.6855
2341.41	12.0204
2342.82	11.5084
2344.23	11.5453
2345.64	10.5459
2347.05	10.369
2348.46	10.2868
2349.87	9.52376
2351.28	9.11094
2352.69	9.87662
2354.1	9.15436
2355.5	8.64942
2356.91	8.30229
2358.32	8.23701
2359.73	7.45267
2361.14	7.20632
2362.54	6.51956
2363.95	6.66224
2365.36	7.51342
2366.76	7.57494
2368.17	6.7449
2369.58	5.3403
2370.98	4.62034
2372.39	4.19584
2373.79	3.83779
2375.2	3.07755
2376.6	2.7394
2378	2.2221
2379.41	1.57462
2380.81	1.12579
2382.22	0.485918
2383.62	0.607125
2385.02	0.541452
2386.42	1.69205
2387.83	2.44039
2389.23	2.42729
2390.63	2.49265
2392.03	3.29028
2393.43	3.53416
2394.84	3.16968
2396.24	3.42219
2397.64	3.67184
2399.04	4.6311
2400.44	4.3788
2401.84	4.16043
2403.24	5.26822
2404.64	5.15825
2406.04	6.29038
2407.44	7.01246
2408.83	7.43874
2410.23	8.00116
2411.63	8.55766
2413.03	8.78113
2414.43	10.0097
2415.83	10.3962
2417.22	11.1959
2418.62	12.0439
2420.02	12.6295
2421.41	13.2456
2422.81	13.8327
2424.21	14.1298
2425.6	14.2758
2427	14.4881
2428.39	14.47
2429.79	14.2831
2431.18	15.6234
2432.58	15.109
2433.97	14.646
2435.36	14.3419
2436.76	14.2599
2438.15	13.5248
2439.54	13.1386
2440.94	12.9216
2442.33	12.0199
2443.72	11.6119
2445.11	11.1899
2446.51	11.1599
2447.9	11.1012
2449.29	11.2535
2450.68	11.0718
2452.07	11.7404
2453.46	11.8365
2454.85	12.4023
2456.24	12.4351
2457.63	11.6743
2459.02	10.4832
2460.41	10.5086
2461.8	10.4538
2463.19	10.4071
2464.58	10.619
2465.97	10.6739
2467.36	10.5786
2468.75	10.9448
2470.13	10.6944
2471.52	10.5054
2472.91	9.76795
2474.29	9.42318
2475.68	10.1441
2477.07	8.79396
2478.45	8.41956
2479.84	8.42327
2481.22	8.95992
2482.61	8.30541
2484	8.71966
2485.38	8.28674
2486.77	8.11927
2488.15	7.84951
2489.54	8.1254
2490.92	7.65512
2492.3	8.10704
2493.69	8.37755
2495.07	7.64779
2496.45	7.56619
2497.84	7.69239
2499.22	7.82353
2500.6	7.91049
2501.98	7.19909
2503.36	8.10174
2504.74	8.13424
2506.13	8.07461
2507.51	8.67784
2508.89	9.50284
2510.27	9.11085
2511.65	8.35784
2513.03	8.29711
2514.41	8.30707
2515.79	8.92507
2517.17	8.77568
2518.55	8.87482
2519.93	9.49641
2521.3	10.5527
2522.68	10.502
2524.06	10.7516
2525.44	10.6061
2526.82	10.2916
2528.19	10.7785
2529.57	11.7028
2530.95	12.4639
2532.32	13.2907
2533.7	13.4144
2535.08	13.5907
2536.45	13.3241
2537.83	13.5975
2539.2	13.3541
2540.58	12.5394
2541.95	12.5819
2543.33	13.4727
2544.7	13.0122
2546.08	12.0296
2547.45	12.5884
2548.82	13.1046
2550.2	12.3014
2551.57	11.5779
2552.94	11.9908
2554.32	12.5173
2555.69	12.1576
2557.06	12.5597
2558.43	13.3551
2559.8	12.854
2561.17	12.6472
2562.55	12.325
2563.92	11.4624
2565.29	11.5421
2566.66	12.882
2568.03	14.0511
2569.4	15.2505
2570.77	16.0649
2572.14	16.2353
2573.51	15.5844
2574.88	16.3541
2576.24	16.1741
2577.61	16.1025
2578.98	15.3581
2580.35	14.6898
2581.72	15.083
2583.09	15.7275
2584.45	16.0478
2585.82	15.9648
2587.19	16.5346
2588.55	16.5564
2589.92	17.1401
2591.28	16.8355
2592.65	17.4461
2594.02	17.4579
2595.38	16.9078
2596.75	16.9223
2598.11	16.1442
2599.48	15.5818
2600.84	14.4601
2602.2	13.6758
2603.57	13.1198
2604.93	12.5993
2606.3	12.262
2607.66	11.9702
2609.02	10.9363
2610.38	10.9649
2611.75	10.0061
2613.11	8.97522
2614.47	9.23107
2615.83	9.12325
2617.19	8.86771
2618.56	7.77005
2619.92	8.03784
2621.28	8.03565
2622.64	8.07506
2624	7.29567
2625.36	7.36925
2626.72	7.3528
2628.08	7.15823
2629.44	7.60612
2630.8	8.13755
2632.15	8.67466
2633.51	9.21672
2634.87	9.37236
2636.23	9.3502
2637.59	9.36076
2638.94	9.08989
2640.3	8.60636
2641.66	8.18014
2643.02	8.92019
2644.37	8.83131
2645.73	8.81177
2647.08	8.88825
2648.44	8.75896
2649.8	9.08555
2651.15	9.25991
2652.51	9.41436
2653.86	9.9952
2655.22	10.3246
2656.57	10.6297
2657.92	10.9848
2659.28	10.7859
2660.63	10.3777
2661.99	10.4374
2663.34	9.97296
2664.69	9.44652
2666.04	9.6307
2667.4	9.31412
2668.75	9.44853
2670.1	8.60818
2671.45	8.67629
2672.81	8.71242
2674.16	8.14017
2675.51	8.21666
2676.86	8.39642
2678.21	9.09657
2679.56	9.28732
2680.91	9.70691
2682.26	10.2584
2683.61	10.2781
2684.96	10.2906
2686.31	10.4709
2687.66	10.989
2689	10.9825
2690.35	11.4253
2691.7	11.7992
2693.05	12.0927
2694.4	12.6866
2695.74	12.9221
2697.09	13.4238
2698.44	13.6131
2699.79	14.1934
2701.13	14.739
2702.48	15.2495
2703.82	16.9298
2705.17	16.8089
2706.52	17.3147
2707.86	17.7758
2709.21	18.5077
2710.55	19.0811
2711.9	18.339
2713.24	17.9561
2714.58	18.3281
2715.93	18.4998
2717.27	18.8093
2718.61	19.2826
2719.96	18.8137
2721.3	18.9795
2722.64	18.4203
2723.99	18.3041
2725.33	17.8503
2726.67	18.2009
2728.01	17.6182
2729.35	17.3898
2730.7	16.5704
2732.04	16.2641
2733.38	16.6696
2734.72	15.6766
2736.06	14.9949
2737.4	13.8966
2738.74	14.563
2740.08	14.2833
2741.42	13.5919
2742.76	13.6183
2744.09	13.4027
2745.43	12.5902
2746.77	11.5878
2748.11	10.8459
2749.45	10.078
2750.79	9.95792
2752.12	9.29464
2753.46	9.00625
2754.8	8.00428
2756.13	7.70425
2757.47	7.73708
2758.81	7.91581
2760.14	7.66992
2761.48	7.44656
2762.81	7.14855
2764.15	7.48866
2765.49	7.55295
2766.82	7.8851
2768.15	7.37033
2769.49	6.65198
2770.82	7.57006
2772.16	6.51913
2773.49	6.46457
2774.82	6.09639
2776.16	4.99741
2777.49	4.01516
2778.82	3.31167
2780.16	3.01276
2781.49	2.85637
2782.82	2.44643
2784.15	1.95728
2785.48	1.51323
2786.81	1.02589
2788.15	1.38521
2789.48	0.752377
2790.81	0.59467
2792.14	1.23803
2793.47	1.261
2794.8	0.526919
2796.13	1.58916
2797.46	2.00794
2798.79	1.88414
2800.12	2.19984
2801.44	1.48871
2802.77	2.21283
2804.1	2.16974
2805.43	1.47337
2806.76	0.877904
2808.08	0.814857
2809.41	0.367912
2810.74	0.602223
2812.07	-0.0583088
2813.39	-0.170595
2814.72	0.931259
2816.05	1.39497
2817.37	2.04427
2818.7	3.34022
2820.02	5.22187
2821.35	6.61366
2822.67	8.50142
2824	10.5363
2825.32	12.3216
2826.65	13.8319
2827.97	15.4625
2829.29	18.0064
2830.62	20.6216
2831.94	22.3583
2833.26	24.4619
2834.59	26.509
2835.91	29.2751
2837.23	32.4478
2838.55	34.8075
2839.88	38.043
2841.2	41.1801
2842.52	44.7118
2843.84	49.3847
2845.16	54.2813
2846.48	59.3887
2847.8	64.3785
2849.12	69.662
2850.44	75.5389
2851.76	81.5504
2853.08	87.3293
2854.4	92.9896
2855.72	97.9488
2857.04	103.636
2858.36	108.854
2859.68	113.078
2861	117.915
2862.32	122.789
2863.63	127.058
2864.95	131.179
2866.27	135.524
2867.58	139.592
2868.9	143.823
2870.22	145.974
2871.53	149.355
2872.85	153.4
2874.17	155.974
2875.48	158.276
2876.8	161.618
2878.11	163.966
2879.43	167.118
2880.74	170.256
2882.06	171.946
2883.37	174.268
2884.69	176.39
2886	178.027
2887.31	179.608
2888.63	181.132
2889.94	182.735
2891.25	184.089
2892.57	185.669
2893.88	187.584
2895.19	189.95
2896.5	192.014
2897.82	193.759
2899.13	196.714
2900.44	200.087
2901.75	203.432
2903.06	207.038
2904.37	211.43
2905.68	215.897
2906.99	220.693
2908.3	226.912
2909.61	232.68
2910.92	238.127
2912.23	243.835
2913.54	249.793
2914.85	255.617
2916.16	261.109
2917.46	266.411
2918.77	270.437
2920.08	274.014
2921.39	277.281
2922.7	280.487
2924	282.991
2925.31	285.308
2926.62	288.087
2927.92	289.433
2929.23	290.85
2930.53	291.192
2931.84	291.587
2933.15	290.986
2934.45	289.442
2935.76	287.687
2937.06	286.689
2938.37	283.996
2939.67	280.299
2940.98	276.721
2942.28	273.192
2943.58	269.163
2944.89	264.056
2946.19	259.291
2947.49	253.897
2948.8	249.174
2950.1	243.566
2951.4	238.96
2952.7	233.435
2954.01	227.338
2955.31	221.518
2956.61	215.833
2957.91	210.578
2959.21	205.145
2960.51	199.337
2961.81	193.197
2963.11	186.953
2964.41	182.072
2965.71	176.086
2967.01	170.622
2968.31	165.264
2969.61	160.107
2970.91	155.612
2972.21	151.341
2973.51	147.399
2974.81	142.245
2976.1	137.673
2977.4	133.225
2978.7	128.648
2980	123.822
2981.29	118.666
2982.59	113.371
2983.89	107.746
2985.18	102.499
2986.48	97.3587
2987.78	91.8416
2989.07	86.9245
2990.37	82.2177
2991.66	77.2419
2992.96	71.9257
2994.25	67.417
2995.55	62.6069
2996.84	58.4443
2998.14	54.0444
2999.43	49.9837
3000.72	46.116
3002.02	41.8794
3003.31	37.5801
3004.6	34.1336
3005.9	31.0548
3007.19	29.0387
3008.48	25.8493
3009.77	22.8205
3011.07	21.2426
3012.36	19.5779
3013.65	17.7136
3014.94	15.3255
3016.23	13.8185
3017.52	11.6531
3018.81	9.89046
3020.1	8.94512
3021.39	8.08763
3022.68	6.62179
3023.97	5.18804
3025.26	3.85238
3026.55	2.72819
3027.84	1.63948
3029.13	0.905982
3030.42	-0.0565829
3031.71	0.17801
3033	-0.18108
3034.28	-0.0937092
3035.57	1.21021
3036.86	1.42782
3038.15	1.93159
3039.43	1.99556
3040.72	3.272
3042.01	3.72555
3043.29	4.50212
3044.58	4.4163
3045.86	4.25287
3047.15	4.96266
3048.44	5.59474
3049.72	5.91159
3051.01	6.39227
3052.29	6.62908
3053.58	7.33598
3054.86	7.72581
3056.14	7.76821
3057.43	8.33641
3058.71	7.90304
3060	7.54665
3061.28	7.71198
3062.56	7.22106
3063.84	7.0668
3065.13	7.11874
3066.41	6.87837
3067.69	7.12214
3068.97	7.33499
3070.25	7.6596
3071.54	7.16
3072.82	6.02089
3074.1	6.07098
3075.38	5.99331
3076.66	5.20697
3077.94	4.27629
3079.22	3.53751
3080.5	2.84737
3081.78	2.01892
3083.06	1.94723
3084.34	1.02252
3085.62	0.852796
3086.9	-0.458313
3088.17	-0.344914
3089.45	-1.08274
3090.73	-1.34713
3092.01	-1.43801
3093.29	-1.4952
3094.56	-1.24624
3095.84	-0.693812
3097.12	0.103841
3098.4	0.805975
3099.67	1.81967
3100.95	2.34245
3102.22	3.16161
3103.5	3.44765
3104.77	4.58211
3106.05	5.18718
3107.33	6.46443
3108.6	6.78578
3109.88	8.35183
3111.15	9.80033
3112.43	10.8749
3113.7	12.0426
3114.97	13.6627
3116.25	14.3431
3117.52	15.369
3118.79	16.1943
3120.07	16.9681
3121.34	17.8997
3122.61	18.4557
3123.88	19.472
3125.16	20.5481
3126.43	21.604
3127.7	22.5353
3128.97	23.4103
3130.24	24.0328
3131.51	25.1095
3132.78	25.9297
3134.05	26.1389
3135.33	25.6022
3136.59	26.1081
3137.86	26.5928
3139.14	26.6418
3140.41	26.3003
3141.67	26.0475
3142.94	25.4657
3144.21	24.8682
3145.48	23.9255
3146.75	22.5422
3148.02	22.0172
3149.28	19.3457
