#Acq. time (s)=	45
#Accumulations=	2
#Range (cm-¹)=	200...3150
#Windows=	2
#Auto scanning=	Off
#Autofocus=	Off
#Macrospot=	Off
#AutoExposure=	Off
#Spike filter=	Multiple accum.
#Delay time (s)=	0
#Binning=	1
#Readout mode=	Signal
#DeNoise=	Off
#ICS correction=	On
#Dark correction=	Off
#Inst. Process=	Off
#Detector Gain=	Best Dynamic Range
#Detector ADC=	20 kHz       
#Detector temperature (°C)=	-69.85
#Instrument=	LabRAM HR Evol
#Detector=	Synapse
#Objective=	x100
#Grating=	600 gr/mm
#ND Filter=	100%
#Laser (nm)=	532 
#Hole=	100.021
#Range=	Auto
#Laser Pol.=	No
#Raman. Pol.=	No
#Laser Pol. (°)=	-0.0007625
#Raman Pol. (°)=	89.9995
#Collection=	Microscope
#StageXY=	Marzhauser
#StageZ=	Marzhauser
#X (µm)=	-626.5
#Y (µm)=	-1673.8
#Z (µm)=	89.55
#Full time(mm:ss)=	3:18
#Project=	
#Sample=	
#Site=	
#Title=	Mb_10_14_38_2x_45s_532 nm_x100_100%_600 gr_mm
#Remark=	
#Date=	11.07.2022 11:26
#Acquired=	11.07.2022 11:26:15
#Edit:Spike=	11.07.2022 11:29:30
#Base:Fit=	10.08.2022 10:21:11
#Base:Sub=	10.08.2022 10:21:41
#Filter:Polynom=	16.08.2022 10:17:53
#AxisType[0]=Intens
#AxisUnit[0]=Cnt
#AxisType[1]=Spectr
#AxisUnit[1]=1/cm
200.388	21.6473
202.204	19.0816
204.019	15.1964
205.832	11.7435
207.646	9.06949
209.459	6.78674
211.274	4.72296
213.087	3.83263
214.899	3.21883
216.711	3.91154
218.524	4.78933
220.335	6.38538
222.146	7.10226
223.956	8.54171
225.766	9.97349
227.576	11.5195
229.388	13.0686
231.197	16.5146
233.005	18.5677
234.813	21.0772
236.621	23.0105
238.429	23.7679
240.236	26.4624
242.045	28.5513
243.852	30.125
245.658	31.242
247.464	32.9675
249.269	34.8221
251.074	36.2694
252.879	37.4118
254.683	37.8337
256.487	38.9111
258.291	39.5497
260.094	40.3259
261.897	40.2156
263.702	39.9233
265.504	39.8985
267.306	38.3224
269.108	38.6619
270.909	39.7789
272.71	39.4596
274.511	38.9618
276.311	38.0987
278.111	36.5544
279.91	34.4374
281.709	32.1949
283.508	30.4358
285.306	29.5993
287.105	28.1664
288.9	25.907
290.698	25.0839
292.495	23.216
294.291	22.4765
296.088	21.8061
297.884	20.1261
299.679	17.9143
301.475	17.5848
303.27	17.1225
305.064	15.4233
306.858	14.7468
308.652	13.8562
310.444	13.0123
312.237	12.1732
314.03	12.33
315.822	12.7044
317.615	12.4274
319.406	11.7659
321.198	12.2628
322.987	10.2908
324.778	9.83557
326.568	9.20518
328.358	8.83563
330.148	10.0164
331.935	9.11293
333.724	8.71791
335.513	7.72404
337.301	6.77778
339.089	6.43858
340.875	5.8584
342.662	6.62429
344.449	7.71006
346.236	10.0257
348.02	12.0976
349.806	13.4718
351.592	15.5667
353.375	18.3428
355.16	20.846
356.944	24.022
358.728	28.2878
360.51	31.1102
362.294	32.7354
364.077	35.2552
365.858	39.5386
367.64	41.7706
369.422	43.9085
371.202	46.0655
372.983	48.964
374.764	51.5508
376.543	53.7956
378.324	55.188
380.102	57.8109
381.881	58.3636
383.661	61.0233
385.438	62.0579
387.216	62.0355
388.993	63.5263
390.771	65.1695
392.548	65.9195
394.324	66.4583
396.101	67.244
397.875	66.4668
399.651	66.4087
401.425	65.5865
403.201	63.3678
404.974	61.8055
406.749	59.0006
408.524	56.9283
410.296	55.5179
412.07	52.7373
413.841	51.8867
415.614	49.787
417.385	48.061
419.156	45.9664
420.928	43.6843
422.698	42.0538
424.469	39.7812
426.238	38.4428
428.009	37.6302
429.777	36.8915
431.548	36.269
433.315	35.1177
435.083	34.135
436.852	32.5026
438.618	31.2944
440.387	30.3301
442.153	28.74
443.919	26.9261
445.686	24.8972
447.451	23.8927
449.218	22.8096
450.982	21.4947
452.746	20.7625
454.512	21.09
456.275	19.4385
458.038	19.5747
459.803	19.2848
461.565	19.0408
463.327	19.9833
465.091	20.8144
466.852	21.399
468.613	22.8151
470.374	21.8871
472.136	22.6733
473.896	21.7537
475.655	22.3706
477.415	23.1916
479.176	23.412
480.934	24.708
482.692	24.8908
484.45	25.481
486.21	26.5317
487.967	28.1869
489.724	27.7599
491.481	28.8758
493.237	30.6103
494.995	31.7017
496.75	33.1466
498.506	35.9117
500.26	36.6033
502.015	38.9795
503.769	40.7557
505.525	43.1909
507.279	45.6613
509.032	48.184
510.785	50.3425
512.537	51.4265
514.289	51.5407
516.041	51.7398
517.793	52.7
519.546	51.9771
521.297	52.0274
523.047	50.8737
524.797	50.7196
526.547	50.9568
528.297	50.5891
530.046	49.1395
531.795	50.0416
533.543	49.5333
535.291	50.029
537.039	48.2894
538.787	47.5152
540.534	47.7079
542.281	47.1672
544.027	44.782
545.773	43.9591
547.519	42.4903
549.264	42.9583
551.01	42.6488
552.754	39.8741
554.499	37.3243
556.243	34.7136
557.987	31.8395
559.73	29.8158
561.474	28.6677
563.216	27.3228
564.959	25.9438
566.701	24.3964
568.441	22.2458
570.182	18.6783
571.923	16.9789
573.664	14.8503
575.405	12.7046
577.145	11.2084
578.885	11.1388
580.624	10.8682
582.361	10.568
584.1	10.329
585.839	10.9178
587.577	9.26819
589.315	10.2085
591.052	11.1268
592.787	11.9026
594.524	11.558
596.26	10.9243
597.997	9.97284
599.732	9.31639
601.466	9.51093
603.201	11.2025
604.936	12.3694
606.67	11.9377
608.403	12.8647
610.136	14.3011
611.87	16.741
613.603	17.1713
615.334	18.6236
617.067	19.7735
618.799	22.1547
620.529	21.9768
622.26	23.7202
623.991	25.0038
625.72	25.7307
627.451	26.5464
629.181	27.3818
630.909	28.2989
632.638	29.9674
634.368	30.1745
636.095	31.0362
637.823	30.2184
639.551	29.1738
641.277	29.4615
643.005	29.7491
644.73	29.1869
646.457	28.7507
648.184	29.1044
649.908	27.8044
651.634	26.5369
653.357	25.266
655.083	24.4237
656.806	23.4645
658.53	23.6984
660.253	23.0978
661.977	23.2531
663.7	23.4107
665.422	23.0228
667.145	22.6399
668.865	21.0111
670.588	21.1831
672.308	21.3106
674.027	21.5437
675.749	21.2371
677.468	21.4988
679.188	20.8325
680.907	20.5343
682.627	20.4933
684.345	20.4435
686.064	21.6943
687.781	21.7077
689.498	21.9125
691.216	23.6195
692.932	23.3667
694.65	24.3467
696.366	25.4997
698.081	25.4429
699.797	24.5383
701.512	26.2111
703.228	26.5684
704.942	27.1465
706.655	26.3182
708.371	27.8663
710.083	28.4712
711.796	28.4518
713.51	30.2577
715.222	30.1837
716.934	30.0805
718.645	30.8712
720.358	31.2765
722.068	32.6759
723.779	32.7408
725.49	33.6139
727.2	34.8023
728.909	35.2028
730.618	35.6524
732.329	36.658
734.037	36.7111
735.745	35.6529
737.453	36.3104
739.16	36.9663
740.869	36.7226
742.576	36.693
744.282	37.4013
745.988	37.7125
747.694	38.0468
749.401	38.6926
751.107	39.7994
752.811	41.3729
754.516	40.9087
756.22	42.6361
757.924	43.2882
759.627	43.8615
761.332	43.5771
763.035	44.8363
764.738	45.8726
766.44	47.3304
768.142	47.914
769.843	48.6723
771.544	50.0413
773.245	50.4876
774.946	51.4226
776.646	52.0524
778.346	51.2147
780.046	53.6746
781.745	54.8159
783.444	56.4277
785.143	57.8505
786.841	60.3969
788.539	61.45
790.237	63.3723
791.934	64.8405
793.631	66.8567
795.328	68.5018
797.024	69.6204
798.72	70.1449
800.416	70.3337
802.112	72.6292
803.807	73.7768
805.502	74.4072
807.196	75.0565
808.89	75.7001
810.584	76.3223
812.278	77.1488
813.971	76.41
815.664	76.0218
817.354	75.3461
819.047	74.2134
820.739	74.0126
822.43	73.3857
824.122	72.6002
825.813	72.0351
827.503	71.2441
829.192	71.0502
830.882	70.5806
832.571	70.3962
834.261	70.245
835.95	69.979
837.637	68.8644
839.325	67.4599
841.013	67.8234
842.701	66.7859
844.389	65.7115
846.074	64.4195
847.761	64.4286
849.447	63.5574
851.131	62.5369
852.817	60.1764
854.503	58.0215
856.188	56.6178
857.871	55.3422
859.556	55.0465
861.24	54.5094
862.922	53.9856
864.606	53.5603
866.289	53.3061
867.97	51.6794
869.653	51.2608
871.336	50.1502
873.016	48.7686
874.698	48.0886
876.379	47.3422
878.058	46.4794
879.739	46.0189
881.418	44.0814
883.098	43.6137
884.778	43.9257
886.456	43.2907
888.135	41.8155
889.812	40.6548
891.49	40.6614
893.167	40.0376
894.845	38.7611
896.523	39.058
898.198	38.5924
899.875	38.2692
901.55	38.7756
903.226	38.9918
904.901	39.2474
906.576	37.4287
908.25	37.6979
909.925	38.5752
911.598	38.8947
913.271	39.3237
914.945	39.7369
916.617	40.557
918.291	40.1792
919.962	41.643
921.635	41.4178
923.306	41.9209
924.978	41.6464
926.648	40.708
928.318	40.9243
929.989	40.718
931.659	40.9493
933.328	39.7061
934.998	39.6588
936.666	39.1916
938.336	39.304
940.004	39.2441
941.671	39.0781
943.34	38.43
945.007	37.9057
946.673	37.8316
948.339	37.6255
950.007	37.7653
951.672	37.8062
953.337	38.908
955.004	38.6882
956.669	38.244
958.333	38.2074
959.997	37.1363
961.662	37.2528
963.326	37.6002
964.989	39.3992
966.651	41.5434
968.315	42.2932
969.977	43.5082
971.639	45.6645
973.301	46.2989
974.962	47.8855
976.624	49.0185
978.285	50.6424
979.945	51.1982
981.605	50.5682
983.264	49.7423
984.924	49.8861
986.583	49.5054
988.243	50.2003
989.901	49.5275
991.56	50.6106
993.217	51.8534
994.875	51.7685
996.532	52.1455
998.188	52.9439
999.845	53.4503
1001.5	54.0238
1003.16	56.4198
1004.81	56.2754
1006.47	57.1524
1008.12	56.2956
1009.78	56.0467
1011.43	58.6873
1013.09	60.4741
1014.74	62.1773
1016.39	63.8062
1018.05	66.134
1019.7	66.8788
1021.35	67.2886
1023	68.9466
1024.65	70.6156
1026.31	72.5681
1027.96	74.3932
1029.61	74.1797
1031.26	73.6561
1032.91	75.1828
1034.56	75.5476
1036.21	74.3702
1037.86	73.7711
1039.51	72.7885
1041.16	72.2602
1042.8	72.2021
1044.45	72.3078
1046.1	71.6791
1047.75	70.9999
1049.39	68.5892
1051.04	67.1857
1052.69	65.2674
1054.33	61.7544
1055.98	57.9006
1057.62	55.4307
1059.27	52.7647
1060.91	48.7829
1062.56	44.3023
1064.2	42.2156
1065.85	39.5624
1067.49	37.3678
1069.13	34.9052
1070.77	32.5176
1072.42	29.1529
1074.06	26.6338
1075.7	24.7521
1077.34	23.5739
1078.98	22.2661
1080.62	20.1413
1082.27	18.9502
1083.91	18.459
1085.55	18.0783
1087.18	15.9554
1088.82	14.6774
1090.46	15.2439
1092.1	16.6485
1093.74	19.2424
1095.38	19.4441
1097.02	19.0659
1098.65	19.3974
1100.29	20.3035
1101.93	20.133
1103.56	20.1104
1105.2	21.2516
1106.84	19.9592
1108.47	20.0565
1110.11	19.3201
1111.74	18.4916
1113.38	17.7912
1115.01	18.2386
1116.64	16.8292
1118.28	16.2464
1119.91	15.6133
1121.54	14.8154
1123.18	14.3987
1124.81	13.1813
1126.44	12.2158
1128.07	12.8118
1129.7	11.9309
1131.33	11.3335
1132.97	11.2181
1134.6	10.2274
1136.23	9.87139
1137.86	10.1416
1139.49	10.0191
1141.11	10.3479
1142.74	11.2927
1144.37	11.3399
1146	13.0575
1147.63	11.8077
1149.26	11.6391
1150.88	11.3926
1152.51	10.3587
1154.14	10.6384
1155.76	10.5064
1157.39	9.98702
1159.01	9.64058
1160.64	8.99601
1162.27	8.66517
1163.89	9.18243
1165.51	8.61047
1167.14	7.60567
1168.76	6.77272
1170.39	7.27961
1172.01	8.2033
1173.63	8.33447
1175.25	9.04734
1176.88	8.59329
1178.5	8.70554
1180.12	10.2016
1181.74	11.0246
1183.36	10.4383
1184.98	10.8737
1186.6	11.3088
1188.22	12.4989
1189.84	13.761
1191.46	13.6795
1193.08	14.9243
1194.7	15.7568
1196.32	17.7291
1197.94	18.5521
1199.55	20.7452
1201.17	22.3269
1202.79	23.6328
1204.41	26.3802
1206.02	28.0529
1207.64	30.8289
1209.25	33.1409
1210.87	33.7244
1212.48	36.6587
1214.1	39.122
1215.71	41.364
1217.33	44.2163
1218.94	46.2624
1220.56	48.3985
1222.17	52.0991
1223.79	54.8543
1225.4	55.2367
1227.01	56.9251
1228.62	57.2267
1230.23	59.7475
1231.85	60.9908
1233.46	61.6159
1235.07	64.0854
1236.68	64.74
1238.29	64.9437
1239.9	67.1646
1241.51	68.0488
1243.12	69.5532
1244.73	70.2535
1246.34	69.7409
1247.94	70.616
1249.55	72.148
1251.16	72.7645
1252.77	74.5609
1254.37	74.74
1255.98	74.954
1257.59	75.5965
1259.2	77.7172
1260.8	78.4998
1262.41	78.7603
1264.01	78.9792
1265.62	79.7204
1267.22	80.5101
1268.83	82.0836
1270.43	81.4307
1272.03	82.5387
1273.64	83.1958
1275.24	83.6352
1276.85	84.3043
1278.45	84.984
1280.05	85.2456
1281.65	86.7791
1283.25	87.4204
1284.85	88.1841
1286.46	88.4505
1288.06	88.6468
1289.66	89.9662
1291.26	90.7805
1292.86	91.5589
1294.46	92.0958
1296.06	91.4113
1297.66	90.7971
1299.25	91.4614
1300.85	92.2449
1302.45	93.2525
1304.05	92.9554
1305.65	94.1542
1307.24	95.7254
1308.84	97.8297
1310.43	99.9885
1312.03	100.536
1313.63	102.248
1315.22	104.047
1316.82	104.524
1318.41	105.853
1320.01	107.077
1321.6	107.456
1323.2	109.728
1324.79	108.567
1326.38	108.698
1327.98	109.791
1329.57	110.974
1331.16	110.756
1332.76	111.856
1334.35	110.139
1335.94	110.648
1337.53	111.127
1339.12	110.826
1340.71	108.554
1342.3	107.276
1343.89	106.363
1345.48	104.827
1347.07	104.874
1348.66	103.315
1350.25	101.374
1351.84	100.196
1353.43	98.7801
1355.01	97.8294
1356.6	95.3943
1358.19	93.4804
1359.77	91.6386
1361.36	90.5291
1362.95	86.9189
1364.53	84.3033
1366.12	82.2284
1367.71	79.6218
1369.29	77.6405
1370.88	74.2775
1372.46	71.539
1374.04	69.3254
1375.63	67.0457
1377.21	66.8585
1378.8	67.4796
1380.38	65.773
1381.96	64.8741
1383.54	64.0832
1385.13	65.1647
1386.71	63.8633
1388.29	64.535
1389.87	63.7379
1391.45	62.7495
1393.03	62.8926
1394.61	62.2589
1396.19	62.4694
1397.77	62.7859
1399.35	62.6249
1400.93	62.9733
1402.51	62.468
1404.09	62.0544
1405.67	64.3124
1407.24	64.2385
1408.82	65.3361
1410.4	65.2944
1411.98	66.8437
1413.55	68.5795
1415.13	72.1678
1416.71	74.9217
1418.28	77.8828
1419.86	80.4794
1421.43	84.6138
1423.01	89.4044
1424.58	93.7785
1426.16	99.7415
1427.73	103.417
1429.31	107.591
1430.88	112.035
1432.45	116.289
1434.02	119.689
1435.6	122.321
1437.17	126.658
1438.74	130.233
1440.31	133.566
1441.88	135.366
1443.45	137.839
1445.03	139.955
1446.6	140.877
1448.17	141.286
1449.74	141.719
1451.3	142.393
1452.87	142.3
1454.44	142.301
1456.01	142.552
1457.58	141.47
1459.15	140.113
1460.72	138.944
1462.28	138.108
1463.85	136.825
1465.42	133.821
1466.98	131.372
1468.55	127.817
1470.12	124.771
1471.68	122.039
1473.25	117.843
1474.81	113.751
1476.38	109.634
1477.94	106.057
1479.51	101.908
1481.07	98.8353
1482.63	96.2257
1484.2	92.2069
1485.76	88.1587
1487.32	86.1853
1488.88	82.2142
1490.45	79.512
1492.01	76.6804
1493.57	74.3633
1495.13	71.5295
1496.69	68.6231
1498.25	66.8493
1499.81	66.7067
1501.37	65.306
1502.93	63.5539
1504.49	62.5688
1506.05	60.4288
1507.61	58.6942
1509.17	57.6849
1510.73	56.3455
1512.28	54.6264
1513.84	52.4255
1515.4	51.1786
1516.96	49.2105
1518.51	48.0662
1520.07	45.4853
1521.63	43.9023
1523.18	42.5022
1524.74	40.6392
1526.29	39.5648
1527.85	40.0523
1529.4	40.3113
1530.96	40.6455
1532.51	41.2203
1534.06	42.1633
1535.62	41.5185
1537.17	41.6158
1538.72	41.4309
1540.28	42.1769
1541.83	43.1841
1543.38	43.5672
1544.93	44.9007
1546.48	45.9801
1548.03	46.6404
1549.59	48.289
1551.14	49.5751
1552.69	51.9386
1554.24	54.0682
1555.79	55.173
1557.34	56.2994
1558.88	57.4495
1560.43	57.7862
1561.98	58.482
1563.53	58.5613
1565.08	58.4841
1566.62	58.038
1568.17	59.7821
1569.72	61.9748
1571.27	65.1898
1572.81	66.5048
1574.36	67.2069
1575.9	70.4266
1577.45	71.8481
1579	72.7546
1580.54	74.6682
1582.09	77.2182
1583.63	78.2067
1585.17	79.9991
1586.72	81.102
1588.26	81.6361
1589.8	82.5017
1591.35	83.4539
1592.89	85.0799
1594.43	86.3504
1595.97	87.5634
1597.52	88.705
1599.06	89.7542
1600.6	90.9495
1602.14	91.5979
1603.68	92.4283
1605.22	93.0645
1606.76	92.929
1608.3	91.7402
1609.84	90.9558
1611.38	91.0253
1612.92	91.5432
1614.46	91.7583
1615.99	92.1619
1617.53	92.599
1619.07	93.2753
1620.61	93.8945
1622.14	94.2639
1623.68	94.3068
1625.22	95.5695
1626.75	96.909
1628.29	97.7268
1629.82	99.1364
1631.36	98.5132
1632.9	98.9951
1634.43	99.4203
1635.96	100.241
1637.5	100.614
1639.03	101.167
1640.57	101.548
1642.1	103.574
1643.63	104.994
1645.16	106.985
1646.7	108.044
1648.23	108.898
1649.76	109.599
1651.29	110.567
1652.82	112.092
1654.36	112.334
1655.89	113.256
1657.42	113.161
1658.95	113.074
1660.48	112.876
1662.01	112.661
1663.53	111.432
1665.06	110.66
1666.59	109.714
1668.12	108.044
1669.65	105.872
1671.18	104.009
1672.7	101.941
1674.23	99.4344
1675.76	96.6082
1677.29	92.4861
1678.81	89.6172
1680.34	84.4426
1681.86	80.6526
1683.39	76.6475
1684.91	73.3263
1686.44	69.7495
1687.96	66.481
1689.49	62.7065
1691.01	58.8133
1692.54	55.7992
1694.06	52.6608
1695.58	49.8733
1697.11	46.5963
1698.63	43.2746
1700.15	41.159
1701.67	38.8087
1703.2	36.4237
1704.72	34.5543
1706.24	32.6681
1707.76	29.9618
1709.28	28.333
1710.8	26.2087
1712.32	24.7609
1713.84	22.7259
1715.36	21.7581
1716.88	20.093
1718.4	19.158
1719.91	18.8411
1721.43	17.7249
1722.95	17.4168
1724.47	17.3818
1725.99	16.4916
1727.5	14.8252
1729.02	13.5197
1730.54	12.7843
1732.05	11.9101
1733.57	11.2258
1735.09	10.7776
1736.6	10.1703
1738.12	9.57994
1739.63	9.29281
1741.15	8.61357
1742.66	9.02603
1744.18	8.51126
1745.69	8.60803
1747.2	8.36997
1748.72	7.60847
1750.23	6.6766
1751.74	6.6224
1753.25	5.57679
1754.77	5.92417
1756.28	4.27398
1757.79	4.04668
1759.3	3.31143
1760.81	4.0487
1762.32	2.91518
1763.83	2.86689
1765.34	3.2548
1766.85	3.49975
1768.36	3.73151
1769.87	3.42332
1771.38	3.26265
1772.89	3.66839
1774.4	3.9052
1775.91	4.26029
1777.41	3.81765
1778.92	4.23988
1780.43	4.01083
1781.94	3.74432
1783.44	2.87714
1784.95	2.87292
1786.45	2.98714
1787.96	2.93993
1789.47	2.99606
1790.97	3.03364
1792.47	2.58892
1793.98	2.65853
1795.48	3.19414
1796.99	2.96012
1798.49	3.47409
1800	2.63031
1801.5	1.62567
1803	1.72724
1804.51	0.972256
1806.01	1.30167
1807.51	1.2249
1809.01	1.50804
1810.51	1.63953
1812.02	1.99269
1813.52	1.79184
1815.02	2.1947
1816.52	2.1501
1818.02	2.34065
1819.52	1.63086
1821.02	1.77476
1822.52	1.36509
1824.02	0.856383
1825.51	0.448651
1827.01	1.0428
1828.51	1.05689
1830.01	0.890001
1831.51	0.0954856
1833	0.010819
1834.5	0.504076
1836	0.382196
1837.49	-0.328153
1838.99	-0.43954
1840.49	-0.259861
1841.98	0.194748
1843.48	0.459213
1844.97	0.15964
1846.47	0.369751
1847.96	0.483759
1849.46	0.228817
1850.95	0.848708
1852.45	0.840935
1853.94	1.43799
1855.43	1.71601
1856.92	2.65384
1858.42	3.74993
1859.91	4.80162
1861.4	4.72629
1862.89	4.79455
1864.39	5.10216
1865.88	4.81721
1867.37	5.80889
1868.86	6.8819
1870.35	7.64783
1871.84	7.36125
1873.33	7.03095
1874.82	5.55681
1876.31	5.62132
1877.8	5.55368
1879.29	6.35101
1880.77	6.89838
1882.26	6.47557
1882.52	6.38155
1884.02	6.39659
1885.51	6.23239
1887.01	5.84922
1888.5	6.78778
1889.99	6.75393
1891.49	6.71173
1892.98	6.62078
1894.47	6.40806
1895.96	5.82635
1897.46	5.71911
1898.95	5.79013
1900.44	5.7138
1901.93	4.09881
1903.42	2.89535
1904.91	2.50045
1906.4	2.33784
1907.89	2.41327
1909.38	2.50459
1910.87	3.3437
1912.36	3.49173
1913.85	3.91218
1915.34	3.97125
1916.83	3.61299
1918.32	3.95545
1919.8	3.76712
1921.29	4.16738
1922.78	4.6493
1924.27	4.67164
1925.75	4.7389
1927.24	5.24173
1928.73	5.14222
1930.21	5.56307
1931.7	5.3185
1933.18	4.40205
1934.67	3.18686
1936.15	3.5515
1937.64	3.46232
1939.12	4.01705
1940.61	4.99013
1942.09	4.54264
1943.57	4.22023
1945.06	4.89156
1946.54	5.57591
1948.02	5.46817
1949.51	6.32142
1950.99	6.30497
1952.47	6.54574
1953.95	5.96692
1955.43	6.85995
1956.91	7.29767
1958.39	7.30259
1959.87	7.23461
1961.36	7.17259
1962.84	7.3054
1964.32	6.65526
1965.79	5.88307
1967.27	5.37607
1968.75	5.6101
1970.23	5.85501
1971.71	5.82475
1973.19	5.42788
1974.66	5.14215
1976.14	4.92843
1977.62	6.02733
1979.1	7.07582
1980.57	7.71453
1982.05	8.66718
1983.53	8.45562
1985	7.69145
1986.48	7.14499
1987.95	7.25418
1989.43	7.13867
1990.9	7.39056
1992.38	6.6504
1993.85	6.7075
1995.33	7.01478
1996.8	6.5717
1998.27	5.38503
1999.75	5.82059
2001.22	6.25426
2002.69	6.19473
2004.16	6.62506
2005.64	5.9426
2007.11	5.04576
2008.58	5.16023
2010.05	6.2534
2011.52	6.1383
2012.99	6.34967
2014.46	5.95969
2015.93	5.63952
2017.4	6.12925
2018.87	5.82856
2020.34	5.3655
2021.81	4.14322
2023.28	3.54992
2024.75	3.33679
2026.22	3.59957
2027.69	3.8959
2029.15	4.46328
2030.62	3.96205
2032.09	3.86271
2033.56	3.66539
2035.02	2.91972
2036.49	2.51188
2037.95	2.69666
2039.42	2.86346
2040.89	3.27707
2042.35	4.69905
2043.82	4.69933
2045.28	5.08949
2046.75	6.00282
2048.21	7.18789
2049.67	7.91846
2051.14	8.36457
2052.6	8.9649
2054.06	9.36174
2055.53	9.14024
2056.99	8.94971
2058.45	8.84385
2059.92	10.4496
2061.38	10.6343
2062.84	12.0508
2064.3	11.8542
2065.76	11.7195
2067.22	12.9851
2068.68	13.112
2070.14	12.99
2071.6	12.8849
2073.06	14.1507
2074.52	13.8489
2075.98	13.2241
2077.44	11.7828
2078.9	11.2209
2080.36	10.8263
2081.82	11.6525
2083.27	11.0535
2084.73	10.8871
2086.19	9.5697
2087.65	9.32492
2089.1	9.75003
2090.56	9.92497
2092.01	9.17999
2093.47	8.86011
2094.93	8.35889
2096.38	8.2574
2097.84	7.58088
2099.29	8.69462
2100.75	9.11485
2102.2	8.93921
2103.66	8.97916
2105.11	8.33693
2106.56	7.46342
2108.02	7.59382
2109.47	8.38493
2110.92	8.81283
2112.37	8.97031
2113.83	9.99583
2115.28	11.1394
2116.73	10.4303
2118.18	11.6317
2119.63	12.0852
2121.09	12.2708
2122.54	12.8601
2123.99	13.5139
2125.44	14.478
2126.89	15.2554
2128.34	15.8423
2129.79	17.4164
2131.23	18.1194
2132.68	19.2477
2134.13	19.901
2135.58	21.0441
2137.03	20.9143
2138.48	21.6112
2139.92	22.9001
2141.37	23.0258
2142.82	23.4824
2144.26	23.9695
2145.71	24.6352
2147.16	24.0319
2148.6	24.6096
2150.05	25.4026
2151.49	27.044
2152.94	28.1567
2154.38	29.3322
2155.83	29.3007
2157.27	30.2616
2158.72	30.8456
2160.16	32.0631
2161.6	33.463
2163.05	33.3431
2164.49	33.7461
2165.93	34.7494
2167.38	36.0634
2168.82	37.9145
2170.26	39.0039
2171.7	41.5348
2173.14	41.9969
2174.58	42.0575
2176.03	42.9155
2177.47	42.0792
2178.91	42.9286
2180.35	44.0618
2181.79	43.8429
2183.23	43.9349
2184.67	43.4249
2186.1	43.6629
2187.54	43.4148
2188.98	42.9873
2190.42	43.1306
2191.86	41.5953
2193.3	40.3831
2194.73	39.6403
2196.17	37.8889
2197.61	37.204
2199.05	36.5999
2200.48	34.7831
2201.92	34.1128
2203.35	32.88
2204.79	30.7413
2206.22	29.1704
2207.66	27.7493
2209.09	26.0372
2210.53	23.7492
2211.96	21.7206
2213.4	19.871
2214.83	18.2682
2216.27	16.0059
2217.7	14.1948
2219.13	13.4844
2220.56	13.0767
2222	12.1557
2223.43	11.9491
2224.86	12.1476
2226.29	10.197
2227.72	9.88562
2229.16	9.67311
2230.59	9.4834
2232.02	9.00658
2233.45	10.131
2234.88	10.5174
2236.31	12.1153
2237.74	12.9216
2239.17	13.5178
2240.6	14.0082
2242.03	13.7593
2243.45	14.324
2244.88	13.9298
2246.31	14.0591
2247.74	14.4648
2249.17	15.0043
2250.59	15.7661
2252.02	15.526
2253.45	14.3691
2254.87	13.9947
2256.3	13.4341
2257.73	14.7438
2259.15	13.8919
2260.58	13.1895
2262	12.1733
2263.43	11.5754
2264.85	11.168
2266.28	11.6156
2267.7	11.3849
2269.13	11.7382
2270.55	10.7388
2271.97	10.012
2273.4	10.2818
2274.82	9.51898
2276.24	8.12806
2277.66	8.25643
2279.09	8.47063
2280.51	7.79478
2281.93	7.30173
2283.35	7.53077
2284.77	7.71792
2286.19	6.50334
2287.61	6.2266
2289.04	6.22005
2290.46	7.08699
2291.88	6.38295
2293.29	6.31705
2294.71	6.68285
2296.13	5.96983
2297.55	5.1303
2298.97	6.45188
2300.39	6.69279
2301.81	7.35075
2303.23	8.08132
2304.64	8.42148
2306.06	8.70429
2307.48	8.71036
2308.89	8.39174
2310.31	7.9675
2311.73	7.83701
2313.14	8.27577
2314.56	8.75665
2315.97	8.58083
2317.39	8.8422
2318.8	8.21277
2320.22	8.29106
2321.63	7.51116
2323.05	6.51729
2324.46	6.22876
2325.88	7.176
2327.29	7.80157
2328.7	8.18422
2330.12	6.30547
2331.53	6.26482
2332.94	6.45004
2334.35	6.29433
2335.76	6.12114
2337.18	6.81239
2338.59	6.45482
2340	6.44919
2341.41	6.13512
2342.82	6.97808
2344.23	6.91709
2345.64	6.565
2347.05	6.26396
2348.46	6.90936
2349.87	7.12745
2351.28	6.3421
2352.69	5.00566
2354.1	4.75579
2355.5	3.38963
2356.91	2.64606
2358.32	2.78221
2359.73	2.56306
2361.14	2.71667
2362.54	1.95794
2363.95	2.10484
2365.36	1.90792
2366.76	2.01337
2368.17	2.08546
2369.58	1.37023
2370.98	0.423777
2372.39	-0.416634
2373.79	-1.1374
2375.2	-1.7432
2376.6	-1.55154
2378	-2.0208
2379.41	-1.81311
2380.81	-2.18539
2382.22	-1.18335
2383.62	-0.608131
2385.02	-0.54768
2386.42	-0.90032
2387.83	-0.513717
2389.23	-0.350491
2390.63	-0.020103
2392.03	0.352547
2393.43	0.980301
2394.84	1.6679
2396.24	2.19224
2397.64	1.72614
2399.04	1.79881
2400.44	1.93365
2401.84	3.34043
2403.24	4.05887
2404.64	3.53161
2406.04	3.9791
2407.44	4.53529
2408.83	4.06877
2410.23	4.37932
2411.63	5.54691
2413.03	5.89438
2414.43	5.23408
2415.83	6.49986
2417.22	6.86091
2418.62	7.53826
2420.02	7.50598
2421.41	6.93011
2422.81	7.27399
2424.21	8.01522
2425.6	7.93734
2427	7.69084
2428.39	7.4377
2429.79	7.66572
2431.18	8.17642
2432.58	8.09847
2433.97	8.2226
2435.36	7.37209
2436.76	6.55783
2438.15	5.37634
2439.54	4.76974
2440.94	4.44564
2442.33	4.84611
2443.72	4.56071
2445.11	5.25322
2446.51	5.63089
2447.9	5.40924
2449.29	5.17126
2450.68	5.19814
2452.07	5.21223
2453.46	5.32146
2454.85	5.31944
2456.24	5.49739
2457.63	5.9548
2459.02	5.94459
2460.41	5.56752
2461.8	5.98672
2463.19	5.86645
2464.58	5.76692
2465.97	5.89008
2467.36	6.45303
2468.75	6.52244
2470.13	6.2698
2471.52	5.9121
2472.91	5.3844
2474.29	5.11469
2475.68	5.61947
2477.07	5.78037
2478.45	5.75763
2479.84	5.57045
2481.22	6.15786
2482.61	5.5036
2484	5.95769
2485.38	6.46733
2486.77	4.77611
2488.15	5.11634
2489.54	5.04799
2490.92	4.82203
2492.3	4.47299
2493.69	4.43369
2495.07	3.42506
2496.45	3.00224
2497.84	2.81617
2499.22	1.78108
2500.6	1.57693
2501.98	0.363906
2503.36	-0.355918
2504.74	-0.703326
2506.13	-0.351626
2507.51	-0.547483
2508.89	-0.456556
2510.27	-1.40772
2511.65	-1.12367
2513.03	-0.882655
2514.41	-0.0811445
2515.79	-0.388947
2517.17	-1.26813
2518.55	-0.989683
2519.93	-0.0346834
2521.3	-0.121485
2522.68	0.857455
2524.06	1.36529
2525.44	1.24896
2526.82	1.4189
2528.19	1.8842
2529.57	1.8589
2530.95	1.64494
2532.32	2.11973
2533.7	2.77611
2535.08	2.7
2536.45	3.16247
2537.83	3.40132
2539.2	4.14055
2540.58	5.19103
2541.95	5.71963
2543.33	6.41242
2544.7	6.42535
2546.08	6.49224
2547.45	6.58182
2548.82	5.80399
2550.2	6.31522
2551.57	6.39205
2552.94	7.12238
2554.32	7.62601
2555.69	8.49259
2557.06	9.31558
2558.43	9.19217
2559.8	9.2817
2561.17	9.51766
2562.55	9.81672
2563.92	9.18062
2565.29	9.29271
2566.66	9.46624
2568.03	10.3166
2569.4	12.2882
2570.77	12.1634
2572.14	12.4585
2573.51	13.2243
2574.88	13.6653
2576.24	13.2292
2577.61	13.191
2578.98	12.6833
2580.35	14.0104
2581.72	13.9535
2583.09	13.252
2584.45	12.0601
2585.82	10.6524
2587.19	10.698
2588.55	10.661
2589.92	10.5375
2591.28	10.5907
2592.65	10.3445
2594.02	9.68516
2595.38	9.48922
2596.75	9.64409
2598.11	8.86105
2599.48	8.04117
2600.84	8.69373
2602.2	8.61402
2603.57	8.3068
2604.93	9.03284
2606.3	9.53454
2607.66	9.77787
2609.02	9.96067
2610.38	9.72528
2611.75	9.85595
2613.11	8.93955
2614.47	8.77335
2615.83	8.48064
2617.19	8.98515
2618.56	9.35412
2619.92	9.90145
2621.28	10.5937
2622.64	11.1984
2624	11.8906
2625.36	12.1138
2626.72	12.8114
2628.08	13.4158
2629.44	13.9375
2630.8	13.7335
2632.15	14.2793
2633.51	15.3126
2634.87	16.4518
2636.23	16.5954
2637.59	16.9781
2638.94	16.3121
2640.3	16.7451
2641.66	17.5834
2643.02	17.065
2644.37	16.2435
2645.73	15.395
2647.08	15.0225
2648.44	15.278
2649.8	14.1632
2651.15	13.0148
2652.51	11.9305
2653.86	11.7081
2655.22	12.2026
2656.57	11.9757
2657.92	12.1105
2659.28	11.6735
2660.63	12.503
2661.99	12.8022
2663.34	12.9316
2664.69	12.9054
2666.04	11.6629
2667.4	11.2335
2668.75	12.8821
2670.1	13.1293
2671.45	13.6482
2672.81	14.1182
2674.16	13.4731
2675.51	13.6093
2676.86	13.5033
2678.21	13.6797
2679.56	14.1522
2680.91	14.2782
2682.26	14.9941
2683.61	15.4178
2684.96	15.6346
2686.31	14.7128
2687.66	15.8705
2689	16.833
2690.35	18.042
2691.7	18.3422
2693.05	18.3018
2694.4	18.3056
2695.74	18.0212
2697.09	18.3551
2698.44	19.0485
2699.79	19.9556
2701.13	21.1107
2702.48	21.877
2703.82	22.0584
2705.17	22.7076
2706.52	22.1191
2707.86	22.1055
2709.21	21.2336
2710.55	21.189
2711.9	21.0949
2713.24	20.3814
2714.58	19.7897
2715.93	18.8915
2717.27	18.4602
2718.61	18.8209
2719.96	19.0233
2721.3	19.3605
2722.64	19.2035
2723.99	19.1294
2725.33	19.1675
2726.67	19.4066
2728.01	19.416
2729.35	18.3948
2730.7	17.6555
2732.04	16.691
2733.38	16.3095
2734.72	16.6689
2736.06	16.1731
2737.4	14.4319
2738.74	14.3191
2740.08	13.8279
2741.42	13.5067
2742.76	14.4537
2744.09	14.6917
2745.43	14.3864
2746.77	13.8948
2748.11	13.0657
2749.45	12.2809
2750.79	12.3218
2752.12	12.0641
2753.46	11.6168
2754.8	11.8437
2756.13	11.9106
2757.47	11.913
2758.81	11.4566
2760.14	11.9098
2761.48	12.4411
2762.81	12.3413
2764.15	13.1585
2765.49	13.1856
2766.82	13.5876
2768.15	14.0418
2769.49	13.7014
2770.82	12.6416
2772.16	12.1819
2773.49	11.7228
2774.82	11.3502
2776.16	10.6765
2777.49	10.7348
2778.82	10.1526
2780.16	10.0234
2781.49	9.98735
2782.82	9.99464
2784.15	10.8394
2785.48	10.4083
2786.81	9.57508
2788.15	8.46346
2789.48	8.04938
2790.81	7.99967
2792.14	7.41041
2793.47	6.97402
2794.8	5.88894
2796.13	5.1116
2797.46	4.92375
2798.79	4.12221
2800.12	3.45456
2801.44	2.90683
2802.77	1.99903
2804.1	1.79735
2805.43	2.1336
2806.76	1.77785
2808.08	1.80761
2809.41	1.27556
2810.74	1.19087
2812.07	0.80661
2813.39	1.11794
2814.72	1.44144
2816.05	1.87418
2817.37	2.85822
2818.7	3.01065
2820.02	4.75574
2821.35	5.97219
2822.67	8.24924
2824	10.2691
2825.32	12.8333
2826.65	15.1943
2827.97	16.4449
2829.29	17.7272
2830.62	19.0962
2831.94	21.1007
2833.26	23.8703
2834.59	25.9415
2835.91	28.5501
2837.23	31.5558
2838.55	34.8862
2839.88	38.5002
2841.2	43.2161
2842.52	47.6019
2843.84	52.3574
2845.16	57.8094
2846.48	62.0128
2847.8	66.5246
2849.12	72.52
2850.44	79.6309
2851.76	85.5291
2853.08	91.9922
2854.4	98.1433
2855.72	104.607
2857.04	110.371
2858.36	115.751
2859.68	120.985
2861	126.371
2862.32	132.316
2863.63	137.652
2864.95	142.401
2866.27	147.123
2867.58	151.519
2868.9	155.67
2870.22	160.653
2871.53	164.998
2872.85	169.045
2874.17	172.66
2875.48	176.451
2876.8	180.544
2878.11	184.056
2879.43	187.377
2880.74	190.808
2882.06	194.297
2883.37	197.795
2884.69	200.944
2886	204.225
2887.31	206.476
2888.63	210.107
2889.94	213.106
2891.25	216.073
2892.57	219.133
2893.88	221.656
2895.19	225.868
2896.5	229.509
2897.82	234.296
2899.13	239.159
2900.44	242.674
2901.75	247.288
2903.06	252.475
2904.37	257.949
2905.68	264.332
2906.99	269.959
2908.3	275.886
2909.61	282.794
2910.92	290.497
2912.23	298.434
2913.54	306.687
2914.85	314.849
2916.16	322.349
2917.46	328.83
2918.77	335.22
2920.08	339.765
2921.39	344.731
2922.7	348.917
2924	351.647
2925.31	354.033
2926.62	357.415
2927.92	360.526
2929.23	360.644
2930.53	361.508
2931.84	360.936
2933.15	360.288
2934.45	359.361
2935.76	357.77
2937.06	354.764
2938.37	351.441
2939.67	347.821
2940.98	344.364
2942.28	338.784
2943.58	333.894
2944.89	328.03
2946.19	322.738
2947.49	316.182
2948.8	309.84
2950.1	303.64
2951.4	297.658
2952.7	292.525
2954.01	286.218
2955.31	279.86
2956.61	273.619
2957.91	267.434
2959.21	260.868
2960.51	254.905
2961.81	247.365
2963.11	240.498
2964.41	233.854
2965.71	226.927
2967.01	222.151
2968.31	216.163
2969.61	210.847
2970.91	205.471
2972.21	200.229
2973.51	195.22
2974.81	190.449
2976.1	185.832
2977.4	180.423
2978.7	174.164
2980	168.391
2981.29	163.429
2982.59	156.97
2983.89	150.47
2985.18	144.195
2986.48	138.679
2987.78	132.581
2989.07	126.161
2990.37	120.351
2991.66	114.965
2992.96	108.677
2994.25	100.861
2995.55	94.8095
2996.84	88.972
2998.14	83.4687
2999.43	77.6228
3000.72	72.4379
3002.02	66.0455
3003.31	60.0626
3004.6	54.8267
3005.9	49.4238
3007.19	43.8165
3008.48	39.5596
3009.77	35.3705
3011.07	31.1091
3012.36	26.9856
3013.65	23.9133
3014.94	21.6272
3016.23	18.7384
3017.52	16.269
3018.81	12.805
3020.1	9.91497
3021.39	8.40443
3022.68	6.83683
3023.97	5.06057
3025.26	2.54875
3026.55	0.30173
3027.84	-0.196457
3029.13	-1.05685
3030.42	-2.03018
3031.71	-2.42475
3033	-3.63133
3034.28	-2.90502
3035.57	-2.63852
3036.86	-2.97791
3038.15	-2.77913
3039.43	-1.15463
3040.72	-0.928628
3042.01	-0.0678002
3043.29	1.27026
3044.58	2.3497
3045.86	3.6738
3047.15	4.18147
3048.44	5.55132
3049.72	5.95694
3051.01	6.73737
3052.29	7.5087
3053.58	7.47688
3054.86	8.02329
3056.14	8.50468
3057.43	9.07324
3058.71	9.59673
3060	10.2467
3061.28	10.8934
3062.56	10.8169
3063.84	11.0025
3065.13	11.0012
3066.41	10.1935
3067.69	10.3819
3068.97	10.7669
3070.25	9.57221
3071.54	9.55844
3072.82	9.58512
3074.1	9.58154
3075.38	8.97503
3076.66	8.70396
3077.94	7.87887
3079.22	7.43959
3080.5	5.95937
3081.78	5.75275
3083.06	4.38163
3084.34	3.7378
3085.62	3.68947
3086.9	3.09409
3088.17	2.14144
3089.45	0.860321
3090.73	1.1713
3092.01	1.27868
3093.29	0.361098
3094.56	0.518868
3095.84	1.14479
3097.12	1.40479
3098.4	2.31696
3099.67	2.31646
3100.95	1.84203
3102.22	2.79323
3103.5	3.31796
3104.77	3.15751
3106.05	3.77638
3107.33	3.79365
3108.6	4.48029
3109.88	5.59559
3111.15	6.02157
3112.43	6.88654
3113.7	7.62419
3114.97	8.8261
3116.25	10.0956
3117.52	10.9803
3118.79	12.012
3120.07	13.1145
3121.34	14.5648
3122.61	15.7938
3123.88	16.5879
3125.16	18.3245
3126.43	19.9197
3127.7	21.4621
3128.97	22.6487
3130.24	24.0744
3131.51	25.5824
3132.78	26.9966
3134.05	27.6809
3135.33	30.2115
3136.59	31.5936
3137.86	32.7743
3139.14	34.0568
3140.41	35.0275
3141.67	36.1659
3142.94	37.5888
3144.21	38.7501
3145.48	39.8133
3146.75	41.6551
3148.02	42.4203
3149.28	43.6926
