#Acq. time (s)=	45
#Accumulations=	2
#Range (cm-¹)=	200...3150
#Windows=	2
#Auto scanning=	Off
#Autofocus=	Off
#Macrospot=	Off
#AutoExposure=	Off
#Spike filter=	Multiple accum.
#Delay time (s)=	0
#Binning=	1
#Readout mode=	Signal
#DeNoise=	Off
#ICS correction=	On
#Dark correction=	Off
#Inst. Process=	Off
#Detector Gain=	Best Dynamic Range
#Detector ADC=	20 kHz       
#Detector temperature (°C)=	-69.85
#Instrument=	LabRAM HR Evol
#Detector=	Synapse
#Objective=	x100
#Grating=	600 gr/mm
#ND Filter=	100%
#Laser (nm)=	532 
#Hole=	100.021
#Range=	Auto
#Laser Pol.=	No
#Raman. Pol.=	No
#Laser Pol. (°)=	-0.0007625
#Raman Pol. (°)=	89.9995
#Collection=	Microscope
#StageXY=	Marzhauser
#StageZ=	Marzhauser
#X (µm)=	-641.9
#Y (µm)=	-1591.2
#Z (µm)=	89
#Full time(mm:ss)=	3:19
#Project=	
#Sample=	
#Site=	
#Title=	Mb_10_14_13_2x_45s_532 nm_x100_100%_600 gr_mm
#Remark=	
#Date=	11.07.2022 09:29
#Acquired=	11.07.2022 09:29:10
#Base:Fit=	10.08.2022 10:21:11
#Base:Sub=	10.08.2022 10:21:41
#Filter:Polynom=	16.08.2022 10:17:53
#AxisType[0]=Intens
#AxisUnit[0]=Cnt
#AxisType[1]=Spectr
#AxisUnit[1]=1/cm
200.388	16.6846
202.204	14.1523
204.019	11.5041
205.832	8.03823
207.646	5.36815
209.459	3.25046
211.274	1.195
213.087	-0.569529
214.899	-1.77433
216.711	-1.51823
218.524	-0.0253104
220.335	1.94487
222.146	4.43434
223.956	6.22963
225.766	8.42014
227.576	10.7964
229.388	12.4164
231.197	12.878
233.005	13.9606
234.813	17.0637
236.621	19.0824
238.429	20.9511
240.236	22.4074
242.045	23.1278
243.852	23.5168
245.658	24.1551
247.464	25.7886
249.269	27.2616
251.074	28.4028
252.879	29.3318
254.683	30.0282
256.487	31.4143
258.291	33.2833
260.094	33.0548
261.897	32.7689
263.702	31.8376
265.504	30.8367
267.306	30.1155
269.108	30.314
270.909	30.2967
272.71	28.2298
274.511	27.4195
276.311	25.838
278.111	23.9443
279.91	22.4181
281.709	21.1029
283.508	19.0218
285.306	17.9393
287.105	15.1419
288.9	12.6097
290.698	10.8053
292.495	10.1914
294.291	9.42425
296.088	8.70656
297.884	7.88006
299.679	7.08861
301.475	6.49579
303.27	7.14011
305.064	7.16119
306.858	7.79656
308.652	8.07493
310.444	8.61364
312.237	8.23587
314.03	7.7866
315.822	8.48276
317.615	8.96773
319.406	8.72724
321.198	8.22879
322.987	8.81132
324.778	10.358
326.568	9.03187
328.358	8.38612
330.148	7.35677
331.935	6.52792
333.724	5.90391
335.513	6.14111
337.301	5.71831
339.089	4.84859
340.875	4.38078
342.662	4.35557
344.449	4.61896
346.236	5.37742
348.02	6.97298
349.806	6.21248
351.592	6.58795
353.375	7.36133
355.16	8.29036
356.944	9.58026
358.728	10.7394
360.51	12.4066
362.294	13.154
364.077	15.1523
365.858	16.7924
367.64	18.082
369.422	19.0085
371.202	20.5936
372.983	22.507
374.764	23.766
376.543	24.5551
378.324	26.639
380.102	29.5607
381.881	32.1681
383.661	34.5791
385.438	36.2186
387.216	38.4106
388.993	39.504
390.771	40.8682
392.548	42.0448
394.324	42.4125
396.101	44.5461
397.875	46.4644
399.651	47.2831
401.425	47.0077
403.201	47.4689
404.974	47.4856
406.749	46.3676
408.524	45.524
410.296	44.8892
412.07	43.8714
413.841	43.3102
415.614	41.2201
417.385	40.3275
419.156	38.6517
420.928	36.9212
422.698	34.276
424.469	32.5234
426.238	30.4716
428.009	29.4451
429.777	28.8887
431.548	27.8353
433.315	25.5921
435.083	24.0616
436.852	23.1054
438.618	21.5285
440.387	20.903
442.153	19.368
443.919	18.8285
445.686	17.1639
447.451	15.589
449.218	15.1622
450.982	14.372
452.746	13.8631
454.512	13.4648
456.275	12.2694
458.038	12.0248
459.803	12.3937
461.565	11.9894
463.327	11.4032
465.091	12.4973
466.852	13.968
468.613	14.7146
470.374	15.0303
472.136	15.7709
473.896	14.9119
475.655	15.0592
477.415	16.0652
479.176	16.7317
480.934	18.5312
482.692	19.4363
484.45	21.1065
486.21	22.2456
487.967	22.8481
489.724	23.3071
491.481	24.442
493.237	26.2636
494.995	27.5106
496.75	29.1245
498.506	29.4945
500.26	29.8753
502.015	31.2484
503.769	31.7218
505.525	32.5999
507.279	31.5402
509.032	31.9314
510.785	31.659
512.537	32.1025
514.289	33.0766
516.041	33.4454
517.793	32.9473
519.546	32.3898
521.297	31.7162
523.047	32.5756
524.797	32.3107
526.547	32.1141
528.297	30.7571
530.046	29.2206
531.795	29.5293
533.543	28.3982
535.291	27.4015
537.039	27.2052
538.787	26.4184
540.534	25.8226
542.281	24.3352
544.027	22.8865
545.773	21.7749
547.519	19.8031
549.264	18.9668
551.01	18.3617
552.754	17.7737
554.499	16.469
556.243	15.3134
557.987	14.827
559.73	14.1553
561.474	14.0928
563.216	14.4097
564.959	13.601
566.701	12.3205
568.441	11.8936
570.182	11.1217
571.923	10.1129
573.664	10.0077
575.405	9.17061
577.145	8.35642
578.885	9.58968
580.624	9.23673
582.361	8.69201
584.1	8.97098
585.839	7.60597
587.577	7.91561
589.315	7.17555
591.052	7.07015
592.787	6.3574
594.524	5.62484
596.26	5.39232
597.997	5.68213
599.732	6.51224
601.466	7.69524
603.201	7.12352
604.936	7.30628
606.67	6.74199
608.403	6.78815
610.136	7.36965
611.87	7.51943
613.603	7.68966
615.334	7.45646
617.067	7.99544
618.799	8.69848
620.529	8.39717
622.26	9.11788
623.991	9.89914
625.72	9.77917
627.451	10.8831
629.181	9.90401
630.909	10.3276
632.638	11.0527
634.368	11.1558
636.095	13.1499
637.823	13.5945
639.551	14.0091
641.277	15.683
643.005	16.4931
644.73	16.6139
646.457	17.3325
648.184	17.5826
649.908	17.341
651.634	15.817
653.357	16.571
655.083	16.9363
656.806	17.1511
658.53	17.3272
660.253	17.6843
661.977	17.3751
663.7	17.4732
665.422	17.6546
667.145	17.1061
668.865	16.8368
670.588	16.8554
672.308	15.6188
674.027	17.2267
675.749	17.6044
677.468	19.3329
679.188	18.6274
680.907	19.783
682.627	20.4866
684.345	22.2159
686.064	22.7651
687.781	23.3291
689.498	22.4875
691.216	23.326
692.932	23.4932
694.65	24.8969
696.366	24.4412
698.081	24.9955
699.797	24.5036
701.512	24.5008
703.228	24.3106
704.942	25.0729
706.655	25.5633
708.371	26.4859
710.083	27.0012
711.796	27.2118
713.51	28.2156
715.222	28.358
716.934	29.5174
718.645	31.0507
720.358	31.0562
722.068	33.3073
723.779	33.3021
725.49	33.3732
727.2	33.8972
728.909	34.2948
730.618	34.539
732.329	35.2741
734.037	35.2133
735.745	34.9158
737.453	35.1152
739.16	36.163
740.869	35.9859
742.576	36.3196
744.282	36.8211
745.988	36.3257
747.694	37.5703
749.401	38.2575
751.107	39.2783
752.811	40.2795
754.516	41.2826
756.22	44.2527
757.924	45.818
759.627	48.7259
761.332	49.9281
763.035	50.8811
764.738	51.3238
766.44	53.8887
768.142	54.9674
769.843	55.1201
771.544	56.0571
773.245	56.5622
774.946	56.9576
776.646	58.3678
778.346	58.7844
780.046	59.019
781.745	58.9937
783.444	60.4888
785.143	60.215
786.841	62.4108
788.539	62.7754
790.237	63.6756
791.934	64.3359
793.631	65.791
795.328	67.515
797.024	67.3374
798.72	67.8356
800.416	67.8848
802.112	68.599
803.807	69.5497
805.502	69.6719
807.196	70.3016
808.89	69.725
810.584	69.7159
812.278	69.7666
813.971	69.6315
815.664	69.0205
817.354	68.7133
819.047	68.2945
820.739	68.2221
822.43	68.4327
824.122	67.4748
825.813	67.2534
827.503	66.9062
829.192	66.1231
830.882	66.7856
832.571	68.0648
834.261	68.5694
835.95	69.3532
837.637	69.2331
839.325	69.5582
841.013	69.8909
842.701	68.7589
844.389	67.6752
846.074	66.8995
847.761	65.1083
849.447	64.5849
851.131	63.3538
852.817	61.8723
854.503	60.7783
856.188	59.4331
857.871	58.792
859.556	58.0807
861.24	56.6747
862.922	55.2246
864.606	53.8538
866.289	52.8892
867.97	52.9804
869.653	51.9287
871.336	50.9431
873.016	48.8506
874.698	50.0252
876.379	50.7937
878.058	50.6965
879.739	49.2662
881.418	47.8108
883.098	47.6143
884.778	47.463
886.456	47.2209
888.135	47.017
889.812	46.5263
891.49	45.7928
893.167	44.9743
894.845	44.12
896.523	43.3795
898.198	43.4198
899.875	43.4091
901.55	43.3116
903.226	42.7937
904.901	43.1085
906.576	43.6331
908.25	43.8325
909.925	44.597
911.598	44.5074
913.271	46.0448
914.945	47.6121
916.617	47.7505
918.291	48.3166
919.962	49.0672
921.635	49.0449
923.306	48.6103
924.978	49.0286
926.648	48.2203
928.318	48.7471
929.989	48.717
931.659	48.0918
933.328	47.9738
934.998	47.8714
936.666	47.8172
938.336	47.1612
940.004	46.2542
941.671	45.7761
943.34	44.5935
945.007	43.1452
946.673	42.5341
948.339	42.504
950.007	42.5429
951.672	42.804
953.337	42.4752
955.004	43.0577
956.669	43.3684
958.333	43.5274
959.997	41.2933
961.662	40.0292
963.326	40.0774
964.989	42.2696
966.651	42.6937
968.315	43.0086
969.977	44.0763
971.639	45.1636
973.301	47.0781
974.962	47.3793
976.624	47.3901
978.285	48.0768
979.945	48.891
981.605	50.1417
983.264	50.5616
984.924	51.784
986.583	53.0418
988.243	54.853
989.901	55.7748
991.56	55.625
993.217	55.5504
994.875	56.2329
996.532	57.9786
998.188	58.4523
999.845	58.6434
1001.5	59.715
1003.16	60.1368
1004.81	58.971
1006.47	58.4792
1008.12	59.9672
1009.78	60.0307
1011.43	61.0675
1013.09	61.5833
1014.74	62.9605
1016.39	62.8699
1018.05	64.7016
1019.7	64.9964
1021.35	64.9015
1023	65.2392
1024.65	65.0952
1026.31	66.0908
1027.96	66.4939
1029.61	67.5143
1031.26	67.743
1032.91	66.4476
1034.56	66.2748
1036.21	65.2627
1037.86	63.7339
1039.51	62.2294
1041.16	61.2673
1042.8	60.1379
1044.45	60.2013
1046.1	60.3302
1047.75	59.3291
1049.39	57.872
1051.04	57.4501
1052.69	55.6471
1054.33	53.9125
1055.98	52.5234
1057.62	48.8107
1059.27	46.7487
1060.91	45.1299
1062.56	42.8429
1064.2	40.6971
1065.85	37.9137
1067.49	35.7801
1069.13	32.3354
1070.77	30.2373
1072.42	26.5382
1074.06	24.4628
1075.7	22.2788
1077.34	21.4151
1078.98	19.7452
1080.62	17.8004
1082.27	15.2496
1083.91	15.4102
1085.55	13.5489
1087.18	12.2693
1088.82	11.9439
1090.46	12.3942
1092.1	12.5209
1093.74	12.8175
1095.38	13.0174
1097.02	12.9774
1098.65	13.1453
1100.29	14.456
1101.93	14.2154
1103.56	14.3381
1105.2	14.5524
1106.84	14.8823
1108.47	15.4355
1110.11	14.1214
1111.74	13.5175
1113.38	12.6369
1115.01	12.0593
1116.64	12.8638
1118.28	11.9461
1119.91	12.2031
1121.54	12.4216
1123.18	12.3389
1124.81	11.5538
1126.44	11.6839
1128.07	11.3832
1129.7	10.9176
1131.33	10.9287
1132.97	10.1365
1134.6	9.38554
1136.23	9.55752
1137.86	8.08694
1139.49	8.44697
1141.11	8.63579
1142.74	7.55419
1144.37	7.31049
1146	8.00364
1147.63	7.24329
1149.26	6.54719
1150.88	5.92401
1152.51	6.3827
1154.14	5.06024
1155.76	5.64588
1157.39	5.73055
1159.01	5.72699
1160.64	5.72617
1162.27	4.7548
1163.89	4.34062
1165.51	5.53648
1167.14	3.78959
1168.76	3.33182
1170.39	3.83445
1172.01	4.82721
1173.63	5.74145
1175.25	6.83904
1176.88	8.08006
1178.5	9.16938
1180.12	9.97035
1181.74	11.0502
1183.36	10.8589
1184.98	11.1002
1186.6	10.9009
1188.22	12.0049
1189.84	12.757
1191.46	12.8798
1193.08	14.4481
1194.7	16.4416
1196.32	17.7422
1197.94	19.2502
1199.55	21.2867
1201.17	22.5994
1202.79	23.8071
1204.41	24.5616
1206.02	24.6372
1207.64	26.3272
1209.25	28.1688
1210.87	29.9849
1212.48	31.5226
1214.1	32.9317
1215.71	35.0766
1217.33	37.2778
1218.94	40.3977
1220.56	44.1225
1222.17	45.0193
1223.79	46.4834
1225.4	50.0063
1227.01	51.9744
1228.62	52.8026
1230.23	55.9591
1231.85	58.3211
1233.46	60.4467
1235.07	61.9701
1236.68	62.7435
1238.29	64.1572
1239.9	64.8285
1241.51	65.7718
1243.12	66.1557
1244.73	66.892
1246.34	67.0116
1247.94	67.1775
1249.55	68.4683
1251.16	70.2103
1252.77	70.7047
1254.37	70.7075
1255.98	70.0526
1257.59	69.8687
1259.2	69.035
1260.8	68.4339
1262.41	67.9008
1264.01	66.8409
1265.62	66.6677
1267.22	66.2051
1268.83	66.6842
1270.43	66.3424
1272.03	66.159
1273.64	66.8671
1275.24	67.6785
1276.85	67.3782
1278.45	67.376
1280.05	68.0329
1281.65	66.8882
1283.25	67.0416
1284.85	66.963
1286.46	68.3332
1288.06	69.4776
1289.66	70.3993
1291.26	70.8931
1292.86	72.7048
1294.46	74.2452
1296.06	76.7537
1297.66	78.3858
1299.25	79.1533
1300.85	79.538
1302.45	81.0393
1304.05	82.0897
1305.65	83.9575
1307.24	83.986
1308.84	84.7016
1310.43	85.9088
1312.03	85.487
1313.63	86.5448
1315.22	86.6037
1316.82	86.7308
1318.41	87.8572
1320.01	87.7575
1321.6	87.7736
1323.2	87.5233
1324.79	87.7907
1326.38	88.5405
1327.98	88.4348
1329.57	88.6021
1331.16	88.0951
1332.76	86.5218
1334.35	85.6786
1335.94	84.6486
1337.53	84.2918
1339.12	82.5073
1340.71	81.0673
1342.3	79.4094
1343.89	77.8889
1345.48	76.1239
1347.07	74.6132
1348.66	73.2532
1350.25	71.5545
1351.84	70.3789
1353.43	68.7357
1355.01	66.7799
1356.6	64.8042
1358.19	63.438
1359.77	61.4315
1361.36	59.3661
1362.95	58.1014
1364.53	56.2958
1366.12	54.0675
1367.71	52.3417
1369.29	52.0386
1370.88	49.939
1372.46	48.894
1374.04	46.3622
1375.63	45.2815
1377.21	43.4603
1378.8	42.0021
1380.38	41.9337
1381.96	41.5966
1383.54	40.2189
1385.13	40.7237
1386.71	40.6504
1388.29	40.5614
1389.87	40.9458
1391.45	41.9261
1393.03	43.2392
1394.61	41.479
1396.19	41.4799
1397.77	41.7233
1399.35	42.2917
1400.93	43.3618
1402.51	43.8916
1404.09	45.9398
1405.67	47.067
1407.24	47.2386
1408.82	49.18
1410.4	50.7119
1411.98	52.6628
1413.55	54.9112
1415.13	56.9131
1416.71	59.562
1418.28	62.6575
1419.86	65.9649
1421.43	69.3442
1423.01	72.7049
1424.58	76.2862
1426.16	78.6231
1427.73	81.8077
1429.31	84.8312
1430.88	87.7653
1432.45	91.2127
1434.02	94.6779
1435.6	97.763
1437.17	99.7234
1438.74	100.755
1440.31	103.527
1441.88	104.493
1443.45	104.771
1445.03	105.636
1446.6	106.917
1448.17	106.637
1449.74	106.46
1451.3	105.672
1452.87	104.958
1454.44	104.791
1456.01	103.832
1457.58	101.87
1459.15	100.326
1460.72	97.7197
1462.28	95.4541
1463.85	92.789
1465.42	89.0171
1466.98	85.5617
1468.55	81.8895
1470.12	77.4185
1471.68	72.7408
1473.25	67.8813
1474.81	64.4533
1476.38	60.8678
1477.94	57.1007
1479.51	53.6045
1481.07	49.8205
1482.63	47.9861
1484.2	44.6261
1485.76	41.666
1487.32	40.1467
1488.88	37.6922
1490.45	35.9365
1492.01	33.76
1493.57	31.9628
1495.13	31.6084
1496.69	30.7236
1498.25	29.3213
1499.81	28.6305
1501.37	27.9461
1502.93	27.276
1504.49	26.8546
1506.05	27.5478
1507.61	27.1117
1509.17	27.617
1510.73	27.5049
1512.28	26.5231
1513.84	25.2341
1515.4	24.4623
1516.96	24.8398
1518.51	24.676
1520.07	24.3836
1521.63	23.4714
1523.18	24.0957
1524.74	24.614
1526.29	25.1317
1527.85	25.9206
1529.4	24.3373
1530.96	25.3755
1532.51	25.9304
1534.06	26.0529
1535.62	25.8706
1537.17	27.3073
1538.72	28.253
1540.28	28.9367
1541.83	28.9408
1543.38	28.6691
1544.93	29.2105
1546.48	29.7295
1548.03	30.5504
1549.59	31.8064
1551.14	32.7061
1552.69	33.4525
1554.24	34.0928
1555.79	34.1712
1557.34	34.8625
1558.88	35.1328
1560.43	36.5311
1561.98	35.6442
1563.53	36.4328
1565.08	37.1164
1566.62	37.5196
1568.17	39.1632
1569.72	39.8316
1571.27	41.2541
1572.81	42.7403
1574.36	43.6919
1575.9	44.7213
1577.45	46.9045
1579	46.9419
1580.54	48.1704
1582.09	49.538
1583.63	50.2732
1585.17	50.8674
1586.72	53.0514
1588.26	53.7647
1589.8	56.041
1591.35	57.9197
1592.89	59.0335
1594.43	59.3185
1595.97	59.0278
1597.52	60.4525
1599.06	61.7953
1600.6	63.0997
1602.14	62.7863
1603.68	62.7421
1605.22	62.6145
1606.76	62.8253
1608.3	64.4537
1609.84	65.8071
1611.38	66.0918
1612.92	66.8109
1614.46	67.7351
1615.99	67.4816
1617.53	67.2564
1619.07	67.7129
1620.61	67.8692
1622.14	69.0614
1623.68	70.0634
1625.22	70.7341
1626.75	71.8218
1628.29	73.0819
1629.82	73.7609
1631.36	73.7662
1632.9	75.3489
1634.43	76.2802
1635.96	77.8411
1637.5	79.9688
1639.03	80.5248
1640.57	82.9416
1642.1	84.468
1643.63	86.1805
1645.16	88.5382
1646.7	89.6101
1648.23	91.1539
1649.76	92.7468
1651.29	93.8244
1652.82	94.6935
1654.36	96.3111
1655.89	97.0587
1657.42	98.7959
1658.95	98.9712
1660.48	99.0772
1662.01	99.461
1663.53	99.9451
1665.06	98.4901
1666.59	97.7736
1668.12	96.1858
1669.65	93.1389
1671.18	90.8567
1672.7	89.0415
1674.23	87.0678
1675.76	84.445
1677.29	80.3962
1678.81	77.8472
1680.34	75.4317
1681.86	71.6609
1683.39	68.8674
1684.91	65.3665
1686.44	61.5484
1687.96	57.5327
1689.49	54.594
1691.01	51.3347
1692.54	47.8609
1694.06	45.4117
1695.58	42.4113
1697.11	38.9933
1698.63	36.5364
1700.15	33.2553
1701.67	30.7952
1703.2	27.9525
1704.72	25.6184
1706.24	22.8435
1707.76	20.3964
1709.28	18.8757
1710.8	16.1595
1712.32	15.4004
1713.84	13.4833
1715.36	11.0836
1716.88	10.4872
1718.4	9.68902
1719.91	9.47419
1721.43	8.68577
1722.95	7.41405
1724.47	7.23957
1725.99	7.3277
1727.5	7.27235
1729.02	7.91339
1730.54	8.17601
1732.05	7.99773
1733.57	7.66749
1735.09	7.32247
1736.6	7.18113
1738.12	7.39259
1739.63	7.61638
1741.15	7.51677
1742.66	7.62175
1744.18	7.20501
1745.69	6.09824
1747.2	6.53279
1748.72	6.81366
1750.23	6.66659
1751.74	6.08224
1753.25	6.19348
1754.77	6.15811
1756.28	5.71546
1757.79	5.6447
1759.3	6.57971
1760.81	6.04489
1762.32	6.26442
1763.83	6.55148
1765.34	6.40604
1766.85	6.03075
1768.36	6.24392
1769.87	5.70899
1771.38	4.78416
1772.89	4.1219
1774.4	4.00465
1775.91	3.75765
1777.41	3.9728
1778.92	3.64991
1780.43	3.84532
1781.94	3.77268
1783.44	3.60155
1784.95	4.13558
1786.45	4.03527
1787.96	4.47241
1789.47	4.54102
1790.97	5.22312
1792.47	5.90403
1793.98	5.82569
1795.48	5.79189
1796.99	5.4546
1798.49	5.8372
1800	6.56152
1801.5	6.88401
1803	6.37633
1804.51	6.08227
1806.01	5.58359
1807.51	5.06755
1809.01	4.62623
1810.51	4.5514
1812.02	4.26994
1813.52	4.90441
1815.02	5.30639
1816.52	4.92886
1818.02	4.98082
1819.52	4.94866
1821.02	4.21678
1822.52	3.8796
1824.02	3.5428
1825.51	3.55354
1827.01	3.01784
1828.51	3.74482
1830.01	3.66407
1831.51	3.43507
1833	2.94693
1834.5	2.36671
1836	1.6238
1837.49	2.13085
1838.99	2.09995
1840.49	2.29904
1841.98	2.21196
1843.48	2.03985
1844.97	1.65396
1846.47	1.90178
1847.96	1.69562
1849.46	2.02463
1850.95	2.29946
1852.45	2.81336
1853.94	3.12913
1855.43	3.31349
1856.92	3.13206
1858.42	3.96857
1859.91	4.62909
1861.4	3.90291
1862.89	3.80986
1864.39	4.42859
1865.88	4.09051
1867.37	3.30371
1868.86	3.01387
1870.35	3.20562
1871.84	3.55063
1873.33	3.90018
1874.82	4.06366
1876.31	4.34061
1877.8	4.13104
1879.29	5.36681
1880.77	5.91444
1882.26	5.84107
1882.52	6.28335
1884.02	7.03603
1885.51	7.25969
1887.01	8.2432
1888.5	7.63274
1889.99	6.87158
1891.49	6.65345
1892.98	6.02291
1894.47	5.2554
1895.96	5.15463
1897.46	5.35878
1898.95	6.10572
1900.44	5.25195
1901.93	5.21187
1903.42	4.72544
1904.91	4.6371
1906.4	4.59417
1907.89	4.6916
1909.38	4.4703
1910.87	5.30434
1912.36	5.39664
1913.85	5.17904
1915.34	4.76989
1916.83	4.34758
1918.32	4.06236
1919.8	3.9353
1921.29	3.65697
1922.78	3.70884
1924.27	3.66031
1925.75	3.09482
1927.24	2.1305
1928.73	2.32463
1930.21	2.3378
1931.7	2.49856
1933.18	1.50525
1934.67	0.799947
1936.15	0.765683
1937.64	1.00707
1939.12	0.0854583
1940.61	-0.400646
1942.09	0.0476625
1943.57	0.316813
1945.06	0.855002
1946.54	0.818849
1948.02	1.43679
1949.51	1.65416
1950.99	1.51926
1952.47	2.11548
1953.95	1.55674
1955.43	1.01887
1956.91	1.80088
1958.39	1.82374
1959.87	1.19798
1961.36	0.818189
1962.84	-0.00588179
1964.32	-0.0233803
1965.79	0.327724
1967.27	-0.0768878
1968.75	0.666045
1970.23	1.36419
1971.71	2.34602
1973.19	2.9901
1974.66	2.36902
1976.14	3.25788
1977.62	3.59597
1979.1	3.87392
1980.57	4.2918
1982.05	5.17244
1983.53	5.47356
1985	6.3574
1986.48	6.10563
1987.95	6.14938
1989.43	5.85235
1990.9	5.69096
1992.38	5.91318
1993.85	6.15291
1995.33	6.12633
1996.8	6.46358
1998.27	6.6319
1999.75	6.99798
2001.22	6.7429
2002.69	6.78182
2004.16	6.28821
2005.64	5.78132
2007.11	5.94612
2008.58	6.07348
2010.05	5.72735
2011.52	5.59788
2012.99	5.17004
2014.46	5.27134
2015.93	5.71885
2017.4	6.08188
2018.87	6.7524
2020.34	6.58272
2021.81	7.05308
2023.28	6.96129
2024.75	6.92402
2026.22	6.69418
2027.69	6.83835
2029.15	6.88848
2030.62	7.33146
2032.09	6.54387
2033.56	6.41749
2035.02	6.78107
2036.49	7.23261
2037.95	7.56592
2039.42	7.67357
2040.89	7.97345
2042.35	8.55668
2043.82	8.47435
2045.28	8.42919
2046.75	8.25359
2048.21	7.6475
2049.67	7.75405
2051.14	7.05119
2052.6	6.66548
2054.06	7.42665
2055.53	7.88483
2056.99	7.66618
2058.45	7.8215
2059.92	7.40207
2061.38	6.81502
2062.84	5.78036
2064.3	5.29111
2065.76	5.34078
2067.22	5.82416
2068.68	5.82722
2070.14	6.25336
2071.6	5.89659
2073.06	6.31162
2074.52	6.29559
2075.98	6.73455
2077.44	7.23164
2078.9	7.96675
2080.36	8.03911
2081.82	7.97945
2083.27	7.33357
2084.73	7.13586
2086.19	7.25974
2087.65	8.16352
2089.1	9.23092
2090.56	9.85161
2092.01	10.2292
2093.47	10.1099
2094.93	11.009
2096.38	10.6491
2097.84	10.8449
2099.29	11.0543
2100.75	11.587
2102.2	11.8521
2103.66	12.4792
2105.11	13.1497
2106.56	13.2481
2108.02	13.1843
2109.47	13.3909
2110.92	12.7798
2112.37	11.9058
2113.83	11.9265
2115.28	11.1123
2116.73	11.2089
2118.18	10.4991
2119.63	10.3394
2121.09	10.5793
2122.54	11.445
2123.99	11.2815
2125.44	11.7292
2126.89	12.7699
2128.34	12.7792
2129.79	12.5534
2131.23	12.7779
2132.68	12.989
2134.13	13.2719
2135.58	14.0642
2137.03	15.6017
2138.48	16.5663
2139.92	16.9738
2141.37	17.5309
2142.82	18.7837
2144.26	19.2272
2145.71	20.7375
2147.16	21.0534
2148.6	21.5322
2150.05	22.6777
2151.49	23.1198
2152.94	23.1176
2154.38	24.105
2155.83	24.7975
2157.27	26.4451
2158.72	28.3904
2160.16	29.9931
2161.6	30.8303
2163.05	31.1202
2164.49	32.2377
2165.93	32.9015
2167.38	34.1514
2168.82	34.2371
2170.26	35.0083
2171.7	35.1778
2173.14	35.9388
2174.58	35.4349
2176.03	35.7649
2177.47	35.0011
2178.91	34.1818
2180.35	34.1754
2181.79	33.7602
2183.23	33.3091
2184.67	33.3284
2186.1	33.3866
2187.54	33.1371
2188.98	33.3752
2190.42	32.8204
2191.86	32.5363
2193.3	31.9213
2194.73	31.8417
2196.17	30.3656
2197.61	29.79
2199.05	29.5792
2200.48	28.3933
2201.92	27.7859
2203.35	26.4647
2204.79	24.8214
2206.22	23.9706
2207.66	22.954
2209.09	22.2074
2210.53	20.7519
2211.96	20.4091
2213.4	20.375
2214.83	20.273
2216.27	19.8757
2217.7	19.5134
2219.13	18.2136
2220.56	17.6374
2222	17.5407
2223.43	16.7564
2224.86	16.5746
2226.29	16.4268
2227.72	16.393
2229.16	16.1442
2230.59	15.5319
2232.02	15.542
2233.45	15.193
2234.88	15.4284
2236.31	15.2856
2237.74	14.7813
2239.17	14.7357
2240.6	13.6285
2242.03	13.1331
2243.45	12.7541
2244.88	12.3951
2246.31	11.3652
2247.74	11.8528
2249.17	11.555
2250.59	11.9329
2252.02	11.7013
2253.45	11.6423
2254.87	11.8005
2256.3	11.1796
2257.73	10.3133
2259.15	10.5141
2260.58	10.0744
2262	8.89561
2263.43	8.19976
2264.85	8.23802
2266.28	8.62916
2267.7	7.45061
2269.13	7.01513
2270.55	6.29672
2271.97	4.98964
2273.4	4.94914
2274.82	3.99494
2276.24	4.70333
2277.66	4.81795
2279.09	4.04171
2280.51	3.78249
2281.93	3.38439
2283.35	3.27258
2284.77	3.11035
2286.19	2.97323
2287.61	2.4038
2289.04	1.8241
2290.46	1.36613
2291.88	1.4984
2293.29	1.79215
2294.71	1.17117
2296.13	1.26686
2297.55	1.92623
2298.97	2.41069
2300.39	2.7137
2301.81	3.26473
2303.23	4.84534
2304.64	5.15321
2306.06	5.86788
2307.48	5.81491
2308.89	5.91417
2310.31	6.55217
2311.73	6.5743
2313.14	7.22943
2314.56	8.31789
2315.97	9.52667
2317.39	10.3339
2318.8	10.9905
2320.22	11.6188
2321.63	11.6689
2323.05	11.957
2324.46	11.9481
2325.88	11.6686
2327.29	11.0744
2328.7	10.9765
2330.12	11.1964
2331.53	10.7789
2332.94	10.4089
2334.35	11.0208
2335.76	11.5838
2337.18	11.1163
2338.59	10.2068
2340	10.2267
2341.41	9.73499
2342.82	10.2125
2344.23	10.2555
2345.64	9.87024
2347.05	9.84008
2348.46	8.67618
2349.87	8.68248
2351.28	8.65273
2352.69	8.30014
2354.1	8.6876
2355.5	8.69903
2356.91	8.2654
2358.32	7.83931
2359.73	7.79783
2361.14	7.53523
2362.54	7.39834
2363.95	7.62471
2365.36	7.77548
2366.76	8.49312
2368.17	8.86021
2369.58	8.50928
2370.98	8.92824
2372.39	8.67401
2373.79	8.66753
2375.2	8.20707
2376.6	8.09277
2378	8.30642
2379.41	8.82775
2380.81	9.31778
2382.22	9.22242
2383.62	9.3141
2385.02	9.85659
2386.42	9.5058
2387.83	8.82473
2389.23	7.87216
2390.63	7.56026
2392.03	7.1078
2393.43	6.89929
2394.84	6.40395
2396.24	5.61499
2397.64	5.43721
2399.04	5.83539
2400.44	6.35682
2401.84	6.39958
2403.24	6.14642
2404.64	5.94688
2406.04	5.46285
2407.44	4.60678
2408.83	4.70725
2410.23	4.76524
2411.63	4.61342
2413.03	4.89573
2414.43	3.98987
2415.83	4.16488
2417.22	4.32732
2418.62	4.78548
2420.02	5.15457
2421.41	4.74211
2422.81	4.55887
2424.21	5.39985
2425.6	5.41402
2427	5.87495
2428.39	6.64811
2429.79	7.65577
2431.18	7.6834
2432.58	7.32686
2433.97	7.44487
2435.36	7.03968
2436.76	6.92508
2438.15	6.14613
2439.54	6.04288
2440.94	6.50023
2442.33	5.58141
2443.72	6.01589
2445.11	5.73252
2446.51	5.6447
2447.9	5.29506
2449.29	4.93985
2450.68	4.18443
2452.07	4.09354
2453.46	3.83885
2454.85	3.50135
2456.24	2.97474
2457.63	2.72921
2459.02	2.16766
2460.41	2.26493
2461.8	2.05252
2463.19	2.05146
2464.58	1.09997
2465.97	1.0296
2467.36	1.588
2468.75	1.0847
2470.13	0.526203
2471.52	-0.0280069
2472.91	-0.0895597
2474.29	-0.37587
2475.68	-0.394318
2477.07	-0.616665
2478.45	-0.982574
2479.84	-0.966431
2481.22	-1.20417
2482.61	-1.29855
2484	-1.08658
2485.38	-0.427318
2486.77	-0.0361486
2488.15	0.165959
2489.54	0.118892
2490.92	0.877876
2492.3	2.00015
2493.69	3.18252
2495.07	3.47988
2496.45	4.06031
2497.84	4.14937
2499.22	4.32626
2500.6	3.61684
2501.98	3.57708
2503.36	4.14689
2504.74	3.91418
2506.13	3.64259
2507.51	2.47431
2508.89	1.9541
2510.27	1.9016
2511.65	1.72863
2513.03	2.18069
2514.41	2.37408
2515.79	3.16461
2517.17	3.88144
2518.55	4.00667
2519.93	4.67003
2521.3	4.91722
2522.68	5.07505
2524.06	5.23013
2525.44	5.54356
2526.82	5.78825
2528.19	5.80068
2529.57	6.3103
2530.95	6.82362
2532.32	7.08524
2533.7	6.81632
2535.08	7.88934
2536.45	8.10364
2537.83	7.39884
2539.2	8.38017
2540.58	8.68304
2541.95	8.65653
2543.33	8.63234
2544.7	8.32875
2546.08	7.866
2547.45	7.80983
2548.82	8.61375
2550.2	8.37865
2551.57	8.96042
2552.94	8.74269
2554.32	9.25723
2555.69	10.143
2557.06	10.8544
2558.43	11.5445
2559.8	11.9987
2561.17	12.0564
2562.55	11.807
2563.92	12.3566
2565.29	12.4751
2566.66	12.2724
2568.03	12.3525
2569.4	11.35
2570.77	11.0127
2572.14	9.90662
2573.51	9.00078
2574.88	8.45089
2576.24	7.99544
2577.61	8.63941
2578.98	9.786
2580.35	10.6039
2581.72	10.4124
2583.09	10.6393
2584.45	10.2775
2585.82	9.91801
2587.19	8.95223
2588.55	9.07053
2589.92	8.62866
2591.28	8.91816
2592.65	9.09361
2594.02	9.14292
2595.38	9.20469
2596.75	9.06447
2598.11	9.46842
2599.48	9.65552
2600.84	10.0686
2602.2	10.5157
2603.57	10.809
2604.93	10.3421
2606.3	10.1447
2607.66	10.2072
2609.02	9.43697
2610.38	8.88819
2611.75	8.63152
2613.11	8.08497
2614.47	8.47996
2615.83	8.36012
2617.19	8.64267
2618.56	8.29305
2619.92	8.9885
2621.28	9.31067
2622.64	10.4774
2624	11.2088
2625.36	11.0414
2626.72	10.7969
2628.08	10.4182
2629.44	10.4697
2630.8	10.1124
2632.15	10.1332
2633.51	9.29556
2634.87	8.95311
2636.23	8.34651
2637.59	7.76841
2638.94	7.31775
2640.3	7.70043
2641.66	7.99417
2643.02	7.72799
2644.37	7.32272
2645.73	7.57672
2647.08	7.80785
2648.44	7.92134
2649.8	7.46072
2651.15	7.30819
2652.51	7.05263
2653.86	6.93618
2655.22	7.30852
2656.57	7.60089
2657.92	7.78157
2659.28	7.91287
2660.63	8.40093
2661.99	8.44446
2663.34	8.54941
2664.69	9.27287
2666.04	9.92788
2667.4	10.0581
2668.75	10.317
2670.1	9.92602
2671.45	9.23365
2672.81	9.03039
2674.16	8.79913
2675.51	8.41184
2676.86	8.60662
2678.21	8.35598
2679.56	8.57293
2680.91	8.91027
2682.26	9.10484
2683.61	9.30199
2684.96	9.99222
2686.31	10.4579
2687.66	10.9859
2689	10.7824
2690.35	11.0976
2691.7	11.4289
2693.05	11.2016
2694.4	11.2487
2695.74	10.8075
2697.09	10.3488
2698.44	9.99664
2699.79	9.97031
2701.13	9.96239
2702.48	10.1709
2703.82	10.3286
2705.17	10.8879
2706.52	10.6497
2707.86	11.3884
2709.21	10.7681
2710.55	10.9456
2711.9	11.3921
2713.24	11.4477
2714.58	11.0796
2715.93	11.4087
2717.27	11.1901
2718.61	11.1568
2719.96	11.1772
2721.3	11.1711
2722.64	11.3318
2723.99	11.739
2725.33	11.9925
2726.67	12.2769
2728.01	13.0012
2729.35	12.7973
2730.7	12.6514
2732.04	13.2074
2733.38	13.4488
2734.72	13.3031
2736.06	13.2306
2737.4	12.5238
2738.74	12.149
2740.08	12.0483
2741.42	11.7562
2742.76	11.5209
2744.09	11.1931
2745.43	10.5311
2746.77	11.16
2748.11	11.2196
2749.45	11.0105
2750.79	10.6776
2752.12	9.70116
2753.46	9.29077
2754.8	8.53363
2756.13	7.89822
2757.47	7.5795
2758.81	7.56329
2760.14	7.39058
2761.48	6.27952
2762.81	5.39047
2764.15	4.87266
2765.49	4.54083
2766.82	4.33216
2768.15	4.35599
2769.49	4.44491
2770.82	4.21936
2772.16	4.08731
2773.49	3.63323
2774.82	3.3563
2776.16	3.09743
2777.49	2.59644
2778.82	1.96349
2780.16	1.61225
2781.49	1.79027
2782.82	1.86823
2784.15	1.56212
2785.48	1.37053
2786.81	1.68235
2788.15	2.28039
2789.48	2.11009
2790.81	2.13912
2792.14	1.63759
2793.47	1.79052
2794.8	1.44423
2796.13	0.966059
2797.46	0.600094
2798.79	1.0931
2800.12	1.28835
2801.44	0.845613
2802.77	0.753839
2804.1	0.331354
2805.43	1.03941
2806.76	0.41539
2808.08	0.358728
2809.41	0.118145
2810.74	-0.357846
2812.07	-0.142606
2813.39	-0.3595
2814.72	-1.07024
2816.05	-1.41916
2817.37	-1.05757
2818.7	-0.509837
2820.02	-0.0109493
2821.35	1.14753
2822.67	1.83582
2824	3.16473
2825.32	4.5069
2826.65	5.20805
2827.97	5.90899
2829.29	6.81536
2830.62	7.95472
2831.94	9.38784
2833.26	11.6952
2834.59	13.2824
2835.91	14.802
2837.23	16.5714
2838.55	18.276
2839.88	20.4706
2841.2	23.8354
2842.52	27.0765
2843.84	30.0407
2845.16	33.6303
2846.48	37.5605
2847.8	41.5558
2849.12	45.8137
2850.44	50.4573
2851.76	56.0257
2853.08	61.3294
2854.4	65.8746
2855.72	70.0234
2857.04	75.4201
2858.36	79.916
2859.68	84.5062
2861	88.282
2862.32	93.5704
2863.63	98.1013
2864.95	103.213
2866.27	107.652
2867.58	111.582
2868.9	114.922
2870.22	118.25
2871.53	121.534
2872.85	124.703
2874.17	127.82
2875.48	130.963
2876.8	134.052
2878.11	137.605
2879.43	140.091
2880.74	142.965
2882.06	145.824
2883.37	148.158
2884.69	151.115
2886	154.329
2887.31	157.207
2888.63	159.126
2889.94	162.165
2891.25	164.221
2892.57	166.99
2893.88	169.423
2895.19	172.587
2896.5	175.77
2897.82	179.457
2899.13	183.004
2900.44	186.945
2901.75	191.097
2903.06	195.865
2904.37	201.488
2905.68	207.634
2906.99	214.052
2908.3	220.264
2909.61	227.307
2910.92	234.411
2912.23	241.849
2913.54	249.61
2914.85	256.056
2916.16	262.844
2917.46	269.549
2918.77	274.912
2920.08	279.934
2921.39	284.652
2922.7	288.84
2924	291.818
2925.31	295.26
2926.62	298.115
2927.92	300.273
2929.23	301.352
2930.53	302.216
2931.84	302.189
2933.15	301.323
2934.45	300.173
2935.76	299.141
2937.06	297.788
2938.37	296.632
2939.67	293.732
2940.98	290.477
2942.28	285.873
2943.58	281.852
2944.89	277.153
2946.19	272.133
2947.49	267.624
2948.8	262.249
2950.1	258.019
2951.4	251.799
2952.7	244.932
2954.01	238.747
2955.31	232.875
2956.61	226.479
2957.91	220.269
2959.21	213.698
2960.51	208.299
2961.81	201.553
2963.11	196.399
2964.41	191.181
2965.71	186.895
2967.01	181.432
2968.31	177.756
2969.61	173.173
2970.91	169.062
2972.21	165.73
2973.51	161.343
2974.81	156.651
2976.1	151.873
2977.4	147.407
2978.7	143.288
2980	137.896
2981.29	133.669
2982.59	128.361
2983.89	123.021
2985.18	117.437
2986.48	112.416
2987.78	106.889
2989.07	101.875
2990.37	96.8414
2991.66	91.5277
2992.96	86.4204
2994.25	81.9471
2995.55	77.228
2996.84	72.3605
2998.14	67.5109
2999.43	63.1543
3000.72	58.6672
3002.02	54.6477
3003.31	50.6878
3004.6	45.9018
3005.9	41.3478
3007.19	37.4871
3008.48	34.67
3009.77	31.0049
3011.07	27.4323
3012.36	25.0308
3013.65	21.8411
3014.94	19.2769
3016.23	16.7021
3017.52	14.5079
3018.81	12.3211
3020.1	10.2349
3021.39	8.46068
3022.68	6.04339
3023.97	4.76204
3025.26	3.27781
3026.55	2.06266
3027.84	1.31161
3029.13	0.650635
3030.42	0.221721
3031.71	-0.94423
3033	-1.37214
3034.28	-2.25001
3035.57	-1.75977
3036.86	-0.957406
3038.15	-0.732487
3039.43	0.150141
3040.72	0.342263
3042.01	1.01059
3043.29	1.70611
3044.58	2.19349
3045.86	2.85993
3047.15	3.00993
3048.44	4.33194
3049.72	5.08313
3051.01	6.03564
3052.29	6.1358
3053.58	6.6443
3054.86	7.09815
3056.14	7.29857
3057.43	7.98185
3058.71	7.70478
3060	8.0184
3061.28	7.75296
3062.56	8.30004
3063.84	8.24335
3065.13	8.32403
3066.41	8.50405
3067.69	8.21575
3068.97	7.4773
3070.25	7.00163
3071.54	7.02333
3072.82	7.41267
3074.1	7.41518
3075.38	7.33535
3076.66	7.12374
3077.94	6.61191
3079.22	6.34679
3080.5	5.96554
3081.78	4.70696
3083.06	3.68238
3084.34	2.83498
3085.62	2.32166
3086.9	1.21286
3088.17	0.799444
3089.45	-0.0589751
3090.73	0.0429934
3092.01	-0.240136
3093.29	-0.160883
3094.56	-0.281888
3095.84	-0.431043
3097.12	0.0981305
3098.4	1.25562
3099.67	1.84133
3100.95	2.83782
3102.22	2.93051
3103.5	2.78713
3104.77	2.91387
3106.05	3.54247
3107.33	4.73581
3108.6	5.35495
3109.88	5.84068
3111.15	6.34943
3112.43	7.236
3113.7	7.36556
3114.97	7.63952
3116.25	7.73457
3117.52	8.4695
3118.79	9.05713
3120.07	9.52196
3121.34	10.5082
3122.61	10.9926
3123.88	11.8498
3125.16	12.0081
3126.43	12.8024
3127.7	12.8599
3128.97	13.8467
3130.24	14.6353
3131.51	15.5444
3132.78	16.6143
3134.05	17.9125
3135.33	19.2367
3136.59	19.9235
3137.86	20.2982
3139.14	20.8277
3140.41	21.5188
3141.67	22.321
3142.94	22.6994
3144.21	23.2379
3145.48	24.0219
3146.75	24.8501
3148.02	25.8663
3149.28	26.7543
