#Acq. time (s)=	45
#Accumulations=	2
#Range (cm-¹)=	200...3150
#Windows=	2
#Auto scanning=	Off
#Autofocus=	Off
#Macrospot=	Off
#AutoExposure=	Off
#Spike filter=	Multiple accum.
#Delay time (s)=	0
#Binning=	1
#Readout mode=	Signal
#DeNoise=	Off
#ICS correction=	On
#Dark correction=	Off
#Inst. Process=	Off
#Detector Gain=	Best Dynamic Range
#Detector ADC=	20 kHz       
#Detector temperature (°C)=	-69.85
#Instrument=	LabRAM HR Evol
#Detector=	Synapse
#Objective=	x100
#Grating=	600 gr/mm
#ND Filter=	100%
#Laser (nm)=	532 
#Hole=	100.021
#Range=	Auto
#Laser Pol.=	No
#Raman. Pol.=	No
#Laser Pol. (°)=	-0.0007625
#Raman Pol. (°)=	89.9995
#Collection=	Microscope
#StageXY=	Marzhauser
#StageZ=	Marzhauser
#X (µm)=	-634.1
#Y (µm)=	-1681.3
#Z (µm)=	88.5
#Full time(mm:ss)=	3:18
#Project=	
#Sample=	
#Site=	
#Title=	Mb_10_14_41_2x_45s_532 nm_x100_100%_600 gr_mm
#Remark=	
#Date=	11.07.2022 11:41
#Acquired=	11.07.2022 11:41:01
#Base:Fit=	10.08.2022 10:21:11
#Base:Sub=	10.08.2022 10:21:41
#Filter:Polynom=	16.08.2022 10:17:53
#AxisType[0]=Intens
#AxisUnit[0]=Cnt
#AxisType[1]=Spectr
#AxisUnit[1]=1/cm
200.388	33.4872
202.204	27.2023
204.019	20.1831
205.832	15.9703
207.646	12.201
209.459	9.14917
211.274	6.52023
213.087	4.98183
214.899	4.34295
216.711	5.14717
218.524	7.13324
220.335	10.1628
222.146	11.9585
223.956	15.5739
225.766	17.4965
227.576	20.4754
229.388	22.4104
231.197	24.6442
233.005	25.6191
234.813	26.8856
236.621	28.7714
238.429	30.4652
240.236	31.1315
242.045	33.3187
243.852	36.0058
245.658	36.843
247.464	38.1794
249.269	40.1113
251.074	42.0148
252.879	43.6574
254.683	43.6346
256.487	45.0417
258.291	44.9057
260.094	45.5219
261.897	46.0748
263.702	45.4343
265.504	45.9513
267.306	44.0206
269.108	43.3012
270.909	42.567
272.71	40.9051
274.511	39.7395
276.311	37.6696
278.111	34.9365
279.91	32.7179
281.709	30.6822
283.508	28.1742
285.306	26.0095
287.105	23.668
288.9	21.9407
290.698	20.8064
292.495	20.213
294.291	19.2618
296.088	17.3321
297.884	16.8375
299.679	17.4378
301.475	15.7661
303.27	16.8603
305.064	17.7714
306.858	18.5638
308.652	18.7721
310.444	18.3724
312.237	18.3593
314.03	18.3374
315.822	17.3319
317.615	17.8191
319.406	16.6488
321.198	15.7162
322.987	14.4272
324.778	14.3645
326.568	14.4727
328.358	13.4572
330.148	12.414
331.935	12.1887
333.724	10.6285
335.513	8.02752
337.301	7.69746
339.089	7.74352
340.875	7.4597
342.662	6.74009
344.449	6.14998
346.236	7.63568
348.02	7.58082
349.806	10.3826
351.592	12.3369
353.375	15.0283
355.16	17.1958
356.944	19.7453
358.728	22.1861
360.51	25.0482
362.294	27.464
364.077	31.1167
365.858	34.1446
367.64	36.4481
369.422	39.4219
371.202	42.3638
372.983	45.1138
374.764	47.7956
376.543	50.103
378.324	52.3417
380.102	55.0896
381.881	55.7193
383.661	57.6419
385.438	59.2154
387.216	61.1816
388.993	62.2004
390.771	62.5868
392.548	63.8901
394.324	63.9929
396.101	64.2245
397.875	65.0059
399.651	64.7742
401.425	64.3154
403.201	62.067
404.974	60.7734
406.749	59.3339
408.524	56.0695
410.296	53.2096
412.07	50.5913
413.841	48.3549
415.614	44.6563
417.385	40.7446
419.156	36.7369
420.928	33.7976
422.698	31.2813
424.469	29.0776
426.238	27.8095
428.009	25.4678
429.777	22.6946
431.548	20.8933
433.315	19.7098
435.083	18.9338
436.852	18.023
438.618	17.1864
440.387	16.2667
442.153	14.7428
443.919	13.2878
445.686	12.8092
447.451	11.1251
449.218	11.4743
450.982	10.9938
452.746	11.6173
454.512	10.9476
456.275	10.3708
458.038	10.7281
459.803	11.1399
461.565	11.38
463.327	11.5166
465.091	12.4522
466.852	14.1295
468.613	14.6076
470.374	15.0083
472.136	16.7286
473.896	17.7511
475.655	18.504
477.415	19.5842
479.176	19.9937
480.934	22.2987
482.692	24.4798
484.45	26.1547
486.21	26.9028
487.967	27.9444
489.724	29.0476
491.481	30.0801
493.237	32.3574
494.995	33.0055
496.75	33.4465
498.506	35.0925
500.26	35.7966
502.015	36.3311
503.769	36.2732
505.525	37.3055
507.279	39.0265
509.032	40.2732
510.785	39.5536
512.537	39.8628
514.289	39.2365
516.041	39.0878
517.793	38.1686
519.546	38.6298
521.297	38.0092
523.047	37.6019
524.797	37.0765
526.547	35.7873
528.297	35.0164
530.046	34.1697
531.795	34.4689
533.543	33.9673
535.291	32.6321
537.039	31.628
538.787	29.8372
540.534	28.7205
542.281	26.7297
544.027	25.7224
545.773	24.4518
547.519	24.3969
549.264	22.9025
551.01	22.3095
552.754	20.7934
554.499	19.0069
556.243	17.3161
557.987	15.5157
559.73	15.1804
561.474	13.4204
563.216	12.1593
564.959	11.1792
566.701	10.2821
568.441	10.0272
570.182	9.40596
571.923	8.64363
573.664	7.67684
575.405	7.01112
577.145	5.29324
578.885	4.85641
580.624	4.43047
582.361	3.21511
584.1	3.83202
585.839	3.87798
587.577	2.96374
589.315	3.18051
591.052	3.63168
592.787	4.01215
594.524	4.72752
596.26	2.47103
597.997	2.56232
599.732	2.95656
601.466	2.61265
603.201	3.35866
604.936	3.07906
606.67	3.92393
608.403	3.85292
610.136	5.38214
611.87	6.6076
613.603	7.33276
615.334	8.74824
617.067	8.71204
618.799	8.30741
620.529	7.01454
622.26	6.4063
623.991	6.27907
625.72	7.26841
627.451	9.08236
629.181	9.9859
630.909	11.9119
632.638	13.4616
634.368	14.6712
636.095	15.2237
637.823	16.798
639.551	17.5552
641.277	18.6458
643.005	20.1541
644.73	19.5931
646.457	20.8385
648.184	20.4963
649.908	20.7935
651.634	21.0679
653.357	21.0451
655.083	20.756
656.806	20.7122
658.53	19.5408
660.253	18.8641
661.977	17.9445
663.7	17.5358
665.422	17.7175
667.145	17.5541
668.865	16.8126
670.588	16.9785
672.308	16.1625
674.027	15.5452
675.749	14.6843
677.468	14.1095
679.188	13.6869
680.907	13.1752
682.627	11.9934
684.345	12.4823
686.064	11.5572
687.781	11.2976
689.498	11.2783
691.216	10.9742
692.932	11.2361
694.65	11.0762
696.366	12.2805
698.081	11.7343
699.797	11.2579
701.512	10.8342
703.228	9.13557
704.942	9.24459
706.655	10.1508
708.371	11.2382
710.083	12.0647
711.796	13.3398
713.51	14.4447
715.222	14.983
716.934	15.9549
718.645	17.9102
720.358	18.695
722.068	19.8895
723.779	19.7404
725.49	20.6634
727.2	19.7015
728.909	20.7706
730.618	20.4595
732.329	21.834
734.037	22.633
735.745	23.1793
737.453	22.601
739.16	23.046
740.869	24.3555
742.576	25.0999
744.282	26.1273
745.988	26.2002
747.694	27.0689
749.401	28.2824
751.107	29.7936
752.811	31.8921
754.516	32.5795
756.22	35.3977
757.924	37.1252
759.627	38.1906
761.332	38.9606
763.035	41.6725
764.738	43.7137
766.44	45.0682
768.142	46.9412
769.843	47.9205
771.544	49.4016
773.245	51.1724
774.946	53.3223
776.646	55.0838
778.346	57.4778
780.046	59.6868
781.745	61.8544
783.444	62.0325
785.143	62.1092
786.841	63.1859
788.539	64.4693
790.237	66.8626
791.934	67.8755
793.631	68.8307
795.328	70.6179
797.024	71.9156
798.72	73.5751
800.416	74.7609
802.112	75.8715
803.807	75.5447
805.502	75.0432
807.196	74.9114
808.89	74.3726
810.584	74.6484
812.278	74.7888
813.971	74.8319
815.664	74.9766
817.354	75.029
819.047	74.4918
820.739	71.8833
822.43	70.9146
824.122	70.8469
825.813	70.3929
827.503	69.6015
829.192	68.0668
830.882	66.9
832.571	67.2951
834.261	67.117
835.95	65.8731
837.637	64.0708
839.325	62.3745
841.013	62.0413
842.701	60.1854
844.389	57.814
846.074	57.5223
847.761	56.7958
849.447	54.4958
851.131	53.7165
852.817	52.5092
854.503	50.8962
856.188	50.5531
857.871	49.7032
859.556	49.0452
861.24	47.6273
862.922	46.2257
864.606	45.4199
866.289	43.5043
867.97	42.0582
869.653	42.698
871.336	43.9828
873.016	44.5678
874.698	44.9717
876.379	44.0502
878.058	44.0631
879.739	44.0429
881.418	43.3091
883.098	43.8365
884.778	43.0244
886.456	43.1991
888.135	42.8125
889.812	42.7081
891.49	42.4472
893.167	43.1369
894.845	43.9017
896.523	44.2915
898.198	43.1712
899.875	43.8337
901.55	43.3676
903.226	42.4681
904.901	41.9335
906.576	42.8938
908.25	43.1664
909.925	43.265
911.598	43.4215
913.271	43.6671
914.945	44.5087
916.617	45.6001
918.291	44.6211
919.962	43.3761
921.635	43.2125
923.306	44.9115
924.978	44.9802
926.648	45.2555
928.318	44.9795
929.989	45.5539
931.659	45.4022
933.328	45.31
934.998	47.1243
936.666	46.9464
938.336	47.5621
940.004	48.2099
941.671	49.1481
943.34	48.8671
945.007	47.3234
946.673	46.6419
948.339	47.1936
950.007	47.7398
951.672	48.3791
953.337	49.8697
955.004	50.822
956.669	48.9806
958.333	47.4815
959.997	44.8646
961.662	42.66
963.326	43.0231
964.989	44.0166
966.651	45.193
968.315	44.966
969.977	46.7112
971.639	45.6588
973.301	46.4481
974.962	47.9105
976.624	49.0903
978.285	49.4584
979.945	49.1707
981.605	49.8211
983.264	51.1071
984.924	51.0977
986.583	50.5227
988.243	50.3039
989.901	49.9047
991.56	49.9887
993.217	49.8714
994.875	51.2725
996.532	51.9843
998.188	53.1167
999.845	55.2449
1001.5	56.6317
1003.16	58.0866
1004.81	60.1776
1006.47	62.2144
1008.12	63.1448
1009.78	64.4944
1011.43	66.6559
1013.09	69.3143
1014.74	70.9767
1016.39	72.2359
1018.05	74.6773
1019.7	76.3194
1021.35	77.3369
1023	79.2655
1024.65	79.9389
1026.31	79.8257
1027.96	80.2998
1029.61	81.3867
1031.26	82.2939
1032.91	82.6918
1034.56	81.5146
1036.21	80.8209
1037.86	79.3422
1039.51	76.0751
1041.16	75.8397
1042.8	73.9432
1044.45	74.3153
1046.1	76.1392
1047.75	74.0394
1049.39	71.1287
1051.04	68.6639
1052.69	65.9885
1054.33	62.8068
1055.98	60.9391
1057.62	58.1124
1059.27	54.6272
1060.91	52.0299
1062.56	48.136
1064.2	44.2997
1065.85	41.1178
1067.49	36.4187
1069.13	34.6856
1070.77	31.4696
1072.42	30.2043
1074.06	28.982
1075.7	28.9842
1077.34	28.8396
1078.98	27.302
1080.62	25.91
1082.27	24.4524
1083.91	21.7435
1085.55	20.9074
1087.18	20.7457
1088.82	20.3805
1090.46	21.0264
1092.1	21.2142
1093.74	22.3459
1095.38	21.4
1097.02	21.5304
1098.65	22.5676
1100.29	23.7184
1101.93	23.896
1103.56	24.8594
1105.2	26.0856
1106.84	25.7909
1108.47	27.0455
1110.11	26.7271
1111.74	27.481
1113.38	27.5843
1115.01	26.8042
1116.64	26.4477
1118.28	26.4908
1119.91	26.2654
1121.54	25.2966
1123.18	25.2148
1124.81	23.5092
1126.44	23.8245
1128.07	22.5818
1129.7	19.7928
1131.33	19.0972
1132.97	18.7861
1134.6	17.8835
1136.23	17.1162
1137.86	15.6787
1139.49	14.782
1141.11	13.9026
1142.74	13.7436
1144.37	12.3629
1146	11.8666
1147.63	11.5969
1149.26	10.8048
1150.88	10.7366
1152.51	8.37145
1154.14	8.76274
1155.76	7.51477
1157.39	6.04712
1159.01	3.41549
1160.64	1.97066
1162.27	1.80446
1163.89	1.05642
1165.51	0.482074
1167.14	1.25511
1168.76	0.939642
1170.39	1.82955
1172.01	1.32562
1173.63	2.06602
1175.25	2.49365
1176.88	2.33453
1178.5	2.83572
1180.12	4.37563
1181.74	5.64975
1183.36	5.70362
1184.98	8.04245
1186.6	8.53121
1188.22	9.777
1189.84	11.5617
1191.46	12.415
1193.08	14.5886
1194.7	15.353
1196.32	16.4967
1197.94	18.4331
1199.55	19.921
1201.17	21.6821
1202.79	23.1355
1204.41	24.4955
1206.02	24.844
1207.64	27.7405
1209.25	29.0506
1210.87	30.1256
1212.48	32.5309
1214.1	34.9783
1215.71	37.9658
1217.33	40.3131
1218.94	43.2883
1220.56	45.6263
1222.17	48.78
1223.79	50.8406
1225.4	52.4852
1227.01	54.4173
1228.62	56.2607
1230.23	58.9838
1231.85	60.6477
1233.46	62.061
1235.07	64.4839
1236.68	66.1978
1238.29	67.5894
1239.9	69.9265
1241.51	71.5399
1243.12	72.0972
1244.73	72.8944
1246.34	74.7834
1247.94	77.8227
1249.55	80.3148
1251.16	81.8094
1252.77	82.2944
1254.37	83.8041
1255.98	83.6312
1257.59	84.1499
1259.2	85.3254
1260.8	87.202
1262.41	87.1395
1264.01	86.5924
1265.62	87.9925
1267.22	88.1956
1268.83	88.011
1270.43	87.5881
1272.03	87.5783
1273.64	89.3201
1275.24	90.359
1276.85	90.7208
1278.45	91.4014
1280.05	91.8148
1281.65	92.721
1283.25	93.1637
1284.85	93.8201
1286.46	94.6276
1288.06	96.609
1289.66	97.1113
1291.26	96.5583
1292.86	97.8227
1294.46	98.5958
1296.06	100.389
1297.66	99.8653
1299.25	101.475
1300.85	102.035
1302.45	102.816
1304.05	102.477
1305.65	103.652
1307.24	104.976
1308.84	105.387
1310.43	106.821
1312.03	107.48
1313.63	108.118
1315.22	108.894
1316.82	109.655
1318.41	109.744
1320.01	109.56
1321.6	110.058
1323.2	110.765
1324.79	110.808
1326.38	109.68
1327.98	109.791
1329.57	109.512
1331.16	107.77
1332.76	106.485
1334.35	105.551
1335.94	104.31
1337.53	102.008
1339.12	101.608
1340.71	99.6178
1342.3	97.6145
1343.89	95.5899
1345.48	94.8416
1347.07	92.2988
1348.66	91.2771
1350.25	89.9919
1351.84	90.3713
1353.43	89.8413
1355.01	87.3919
1356.6	85.5509
1358.19	84.0899
1359.77	82.3761
1361.36	81.6843
1362.95	79.987
1364.53	78.2271
1366.12	76.5532
1367.71	75.5844
1369.29	72.9732
1370.88	71.4004
1372.46	72.1002
1374.04	71.7649
1375.63	72.3095
1377.21	70.5343
1378.8	71.3571
1380.38	70.9113
1381.96	70.6396
1383.54	69.7634
1385.13	70.9527
1386.71	70.6533
1388.29	70.8055
1389.87	72.1561
1391.45	72.3708
1393.03	72.6264
1394.61	71.7196
1396.19	71.7845
1397.77	70.522
1399.35	70.8884
1400.93	71.3131
1402.51	70.4831
1404.09	70.5097
1405.67	71.2462
1407.24	73.0835
1408.82	74.0132
1410.4	74.9959
1411.98	76.0492
1413.55	77.5215
1415.13	78.9444
1416.71	80.3718
1418.28	83.4731
1419.86	84.7444
1421.43	87.7726
1423.01	91.1443
1424.58	94.316
1426.16	97.4832
1427.73	101.624
1429.31	104.262
1430.88	107.762
1432.45	111.123
1434.02	113.592
1435.6	116.893
1437.17	119.747
1438.74	121.928
1440.31	124.888
1441.88	127.769
1443.45	130.124
1445.03	131.803
1446.6	133.545
1448.17	134.768
1449.74	137.511
1451.3	138.291
1452.87	138.017
1454.44	138.51
1456.01	137.456
1457.58	138.055
1459.15	137.144
1460.72	135.271
1462.28	133.146
1463.85	132.281
1465.42	130.724
1466.98	128.977
1468.55	125.429
1470.12	121.694
1471.68	117.848
1473.25	114.028
1474.81	110.697
1476.38	106.819
1477.94	103.697
1479.51	98.1302
1481.07	94.8458
1482.63	91.6884
1484.2	87.7439
1485.76	84.3251
1487.32	81.5995
1488.88	78.5959
1490.45	74.5321
1492.01	72.0872
1493.57	69.0834
1495.13	66.467
1496.69	64.4168
1498.25	61.8756
1499.81	59.9765
1501.37	59.9257
1502.93	57.8109
1504.49	56.1251
1506.05	53.6642
1507.61	52.8267
1509.17	51.5336
1510.73	51.1786
1512.28	48.5426
1513.84	48.4345
1515.4	47.3442
1516.96	45.8576
1518.51	45.7612
1520.07	45.3192
1521.63	43.3256
1523.18	41.7814
1524.74	40.7845
1526.29	40.365
1527.85	39.5178
1529.4	38.7119
1530.96	38.8863
1532.51	39.0568
1534.06	38.7857
1535.62	38.9931
1537.17	38.4997
1538.72	38.9497
1540.28	40.491
1541.83	42.0024
1543.38	43.2871
1544.93	43.1997
1546.48	43.7806
1548.03	45.1538
1549.59	46.7122
1551.14	47.9671
1552.69	47.9789
1554.24	48.7917
1555.79	49.2263
1557.34	49.8032
1558.88	51.786
1560.43	53.0206
1561.98	53.2767
1563.53	54.4792
1565.08	55.8141
1566.62	56.4076
1568.17	58.1128
1569.72	59.5993
1571.27	61.5754
1572.81	64.0406
1574.36	65.8667
1575.9	68.8752
1577.45	71.7448
1579	75.2834
1580.54	76.471
1582.09	79.3775
1583.63	81.636
1585.17	83.6856
1586.72	84.4373
1588.26	85.6162
1589.8	86.1406
1591.35	87.2839
1592.89	88.2235
1594.43	88.9212
1595.97	89.7428
1597.52	90.4932
1599.06	89.4983
1600.6	89.4671
1602.14	90.4538
1603.68	91.8802
1605.22	91.8746
1606.76	91.8767
1608.3	91.6546
1609.84	91.4932
1611.38	92.2286
1612.92	91.9577
1614.46	93.3998
1615.99	94.1184
1617.53	95.359
1619.07	95.2808
1620.61	95.356
1622.14	96.0526
1623.68	97.2049
1625.22	97.2817
1626.75	97.0723
1628.29	96.9684
1629.82	96.951
1631.36	96.8845
1632.9	98.1158
1634.43	99.5335
1635.96	100.857
1637.5	101.435
1639.03	102.466
1640.57	104.391
1642.1	106.73
1643.63	109.114
1645.16	110.561
1646.7	111.859
1648.23	114.12
1649.76	115.802
1651.29	116.663
1652.82	118.567
1654.36	119.366
1655.89	119.974
1657.42	120.721
1658.95	120.952
1660.48	118.99
1662.01	118.486
1663.53	117.762
1665.06	117.224
1666.59	116.597
1668.12	114.73
1669.65	113.882
1671.18	110.688
1672.7	108.374
1674.23	105.686
1675.76	101.393
1677.29	99.0402
1678.81	96.109
1680.34	91.9939
1681.86	87.4119
1683.39	82.0006
1684.91	78.6169
1686.44	75.0994
1687.96	70.8924
1689.49	67.1981
1691.01	64.5472
1692.54	60.0111
1694.06	55.9462
1695.58	52.088
1697.11	48.7589
1698.63	46.0424
1700.15	43.358
1701.67	39.8574
1703.2	36.9509
1704.72	34.9733
1706.24	32.9268
1707.76	30.9584
1709.28	29.7629
1710.8	26.9412
1712.32	24.4579
1713.84	22.7869
1715.36	22.1027
1716.88	21.0113
1718.4	19.8826
1719.91	18.3882
1721.43	16.6431
1722.95	16.558
1724.47	16.4765
1725.99	16.5433
1727.5	15.3968
1729.02	15.67
1730.54	15.2775
1732.05	14.6664
1733.57	15.0775
1735.09	15.1179
1736.6	13.9683
1738.12	14.0827
1739.63	13.4358
1741.15	13.4734
1742.66	13.4459
1744.18	13.0048
1745.69	13.2218
1747.2	12.1679
1748.72	12.8308
1750.23	12.163
1751.74	10.9411
1753.25	11.421
1754.77	9.61442
1756.28	8.8336
1757.79	8.12161
1759.3	7.26727
1760.81	8.10146
1762.32	7.50628
1763.83	6.92947
1765.34	7.06987
1766.85	6.29115
1768.36	4.80749
1769.87	4.628
1771.38	4.92791
1772.89	4.70761
1774.4	5.47429
1775.91	4.87536
1777.41	4.38081
1778.92	3.40014
1780.43	3.35706
1781.94	3.95716
1783.44	3.44324
1784.95	2.91961
1786.45	3.31679
1787.96	3.74353
1789.47	3.88489
1790.97	4.22302
1792.47	3.95844
1793.98	3.98597
1795.48	4.20649
1796.99	3.82652
1798.49	4.2234
1800	4.46441
1801.5	4.29063
1803	4.25274
1804.51	4.86129
1806.01	4.48619
1807.51	4.37119
1809.01	4.60014
1810.51	4.50065
1812.02	3.13412
1813.52	3.4844
1815.02	4.38792
1816.52	4.49215
1818.02	5.00971
1819.52	5.20882
1821.02	4.84747
1822.52	4.08993
1824.02	4.24275
1825.51	3.38881
1827.01	3.35346
1828.51	3.87588
1830.01	2.89603
1831.51	3.26946
1833	3.25787
1834.5	3.66579
1836	3.86711
1837.49	4.23155
1838.99	4.3944
1840.49	4.6872
1841.98	4.51006
1843.48	4.26916
1844.97	4.93744
1846.47	5.02317
1847.96	4.91149
1849.46	4.72042
1850.95	4.58108
1852.45	5.1848
1853.94	4.38456
1855.43	4.79109
1856.92	4.41999
1858.42	3.90806
1859.91	4.20561
1861.4	4.94684
1862.89	4.24024
1864.39	4.55763
1865.88	4.21043
1867.37	3.58682
1868.86	4.18462
1870.35	4.13362
1871.84	4.72251
1873.33	4.71197
1874.82	4.90776
1876.31	4.76175
1877.8	5.05976
1879.29	4.93154
1880.77	4.27334
1882.26	3.93886
1882.52	4.17704
1884.02	4.48482
1885.51	4.7418
1887.01	4.70922
1888.5	5.0893
1889.99	5.0005
1891.49	5.78304
1892.98	5.8921
1894.47	5.35819
1895.96	5.27432
1897.46	6.00391
1898.95	6.30006
1900.44	7.07195
1901.93	6.94209
1903.42	7.00545
1904.91	8.14801
1906.4	9.48482
1907.89	10.0992
1909.38	10.7586
1910.87	10.6017
1912.36	10.9253
1913.85	10.4613
1915.34	10.4921
1916.83	10.2957
1918.32	9.91924
1919.8	9.45605
1921.29	8.88949
1922.78	9.86232
1924.27	10.3095
1925.75	9.7639
1927.24	8.68918
1928.73	8.04983
1930.21	8.17737
1931.7	8.29902
1933.18	8.19184
1934.67	8.13945
1936.15	7.61156
1937.64	7.83517
1939.12	6.5685
1940.61	7.23927
1942.09	7.34461
1943.57	7.17441
1945.06	7.46937
1946.54	6.81115
1948.02	7.34826
1949.51	6.75677
1950.99	6.72327
1952.47	5.7087
1953.95	5.51551
1955.43	5.4768
1956.91	5.83261
1958.39	5.88522
1959.87	5.86927
1961.36	5.82289
1962.84	6.46302
1964.32	6.125
1965.79	5.90599
1967.27	5.31594
1968.75	4.75451
1970.23	4.4519
1971.71	4.19822
1973.19	4.19999
1974.66	3.90932
1976.14	3.53072
1977.62	4.30635
1979.1	4.62717
1980.57	4.50481
1982.05	3.69022
1983.53	3.95985
1985	2.84479
1986.48	3.17786
1987.95	2.91089
1989.43	2.72308
1990.9	2.41246
1992.38	2.56899
1993.85	2.8935
1995.33	3.3093
1996.8	3.34219
1998.27	2.02892
1999.75	1.69323
2001.22	1.74559
2002.69	1.35873
2004.16	1.69376
2005.64	1.51935
2007.11	1.84873
2008.58	1.5294
2010.05	1.9146
2011.52	1.95237
2012.99	2.25929
2014.46	3.48841
2015.93	2.79962
2017.4	3.23205
2018.87	2.68842
2020.34	3.63509
2021.81	3.23225
2023.28	2.40897
2024.75	2.96666
2026.22	3.34801
2027.69	4.49629
2029.15	4.88365
2030.62	5.57893
2032.09	5.51338
2033.56	5.42369
2035.02	4.93452
2036.49	4.22186
2037.95	3.76725
2039.42	3.51115
2040.89	3.78423
2042.35	3.18673
2043.82	2.97134
2045.28	2.89628
2046.75	3.13196
2048.21	3.04501
2049.67	4.10582
2051.14	4.35845
2052.6	4.61894
2054.06	4.86272
2055.53	4.47493
2056.99	5.08429
2058.45	5.03036
2059.92	5.79898
2061.38	5.64769
2062.84	5.0441
2064.3	5.41649
2065.76	5.36476
2067.22	5.75851
2068.68	5.17007
2070.14	4.55877
2071.6	4.82231
2073.06	4.91048
2074.52	4.9819
2075.98	4.314
2077.44	4.59794
2078.9	4.32755
2080.36	4.32265
2081.82	3.9743
2083.27	4.87875
2084.73	4.93773
2086.19	4.93982
2087.65	4.48446
2089.1	3.77746
2090.56	4.67169
2092.01	5.11957
2093.47	5.54883
2094.93	4.71754
2096.38	5.49853
2097.84	6.38125
2099.29	6.55475
2100.75	6.63725
2102.2	6.93812
2103.66	6.84579
2105.11	6.23038
2106.56	7.02965
2108.02	7.88516
2109.47	7.98129
2110.92	8.67752
2112.37	9.71119
2113.83	10.3043
2115.28	10.0344
2116.73	11.6197
2118.18	12.0027
2119.63	13.1279
2121.09	14.1542
2122.54	14.5448
2123.99	14.5347
2125.44	15.6166
2126.89	15.5473
2128.34	16.2946
2129.79	17.6316
2131.23	17.6416
2132.68	18.5159
2134.13	18.5654
2135.58	18.9362
2137.03	20.1408
2138.48	20.6179
2139.92	21.305
2141.37	21.6629
2142.82	22.0626
2144.26	23.0895
2145.71	23.1363
2147.16	24.0221
2148.6	25.1995
2150.05	25.8418
2151.49	27.273
2152.94	28.4284
2154.38	29.8239
2155.83	31.2189
2157.27	31.8467
2158.72	32.5145
2160.16	33.2738
2161.6	34.4939
2163.05	35.6228
2164.49	36.2981
2165.93	36.5311
2167.38	37.9622
2168.82	39.1395
2170.26	38.7936
2171.7	39.9684
2173.14	40.6744
2174.58	40.96
2176.03	40.538
2177.47	40.5699
2178.91	40.9794
2180.35	40.9391
2181.79	40.0437
2183.23	39.6512
2184.67	39.1274
2186.1	38.2258
2187.54	37.7026
2188.98	37.0491
2190.42	35.862
2191.86	35.0057
2193.3	33.7607
2194.73	32.8797
2196.17	32.7344
2197.61	31.4119
2199.05	29.7635
2200.48	28.9607
2201.92	26.7601
2203.35	25.0402
2204.79	24.486
2206.22	22.7378
2207.66	22.3633
2209.09	20.8573
2210.53	19.6379
2211.96	18.8283
2213.4	18.1712
2214.83	16.6878
2216.27	16.3969
2217.7	15.6615
2219.13	15.2188
2220.56	14.2909
2222	13.7418
2223.43	13.8468
2224.86	13.8951
2226.29	13.6821
2227.72	12.6223
2229.16	12.2869
2230.59	12.0893
2232.02	11.4889
2233.45	11.7953
2234.88	12.3153
2236.31	12.4207
2237.74	12.028
2239.17	11.8061
2240.6	12.0524
2242.03	11.7151
2243.45	12.8606
2244.88	12.0764
2246.31	11.6981
2247.74	11.2162
2249.17	11.3004
2250.59	11.3676
2252.02	11.5298
2253.45	11.1274
2254.87	11.3021
2256.3	11.7519
2257.73	12.4164
2259.15	12.4062
2260.58	12.4334
2262	12.8802
2263.43	12.6945
2264.85	12.5195
2266.28	12.6273
2267.7	12.0784
2269.13	11.0355
2270.55	10.7966
2271.97	10.442
2273.4	10.3672
2274.82	10.4463
2276.24	10.5058
2277.66	10.273
2279.09	10.2716
2280.51	9.44575
2281.93	10.21
2283.35	9.12142
2284.77	8.81081
2286.19	8.18615
2287.61	8.30824
2289.04	8.2548
2290.46	7.43422
2291.88	6.87744
2293.29	6.58905
2294.71	6.09508
2296.13	6.45235
2297.55	5.52002
2298.97	6.21406
2300.39	6.71113
2301.81	6.30244
2303.23	6.61029
2304.64	7.94022
2306.06	8.35527
2307.48	8.07273
2308.89	7.20322
2310.31	7.66117
2311.73	8.86455
2313.14	8.77339
2314.56	8.87479
2315.97	8.21164
2317.39	8.62622
2318.8	8.45037
2320.22	8.47048
2321.63	8.87987
2323.05	8.42229
2324.46	8.81165
2325.88	8.03375
2327.29	7.53153
2328.7	6.90292
2330.12	6.36937
2331.53	6.08552
2332.94	6.32632
2334.35	6.95761
2335.76	6.84217
2337.18	6.92398
2338.59	6.8262
2340	6.48418
2341.41	6.60493
2342.82	6.43209
2344.23	7.07947
2345.64	6.637
2347.05	6.62834
2348.46	6.57893
2349.87	5.81004
2351.28	5.10285
2352.69	4.35287
2354.1	3.43102
2355.5	3.70883
2356.91	3.778
2358.32	4.01269
2359.73	3.69655
2361.14	2.95786
2362.54	2.77867
2363.95	3.43669
2365.36	5.16337
2366.76	6.39052
2368.17	6.55175
2369.58	7.00595
2370.98	6.50538
2372.39	5.78842
2373.79	6.52231
2375.2	7.00161
2376.6	6.83861
2378	6.75039
2379.41	6.36155
2380.81	6.26117
2382.22	5.56965
2383.62	5.11622
2385.02	4.35377
2386.42	3.5043
2387.83	3.57275
2389.23	3.05493
2390.63	3.4181
2392.03	2.85981
2393.43	2.0957
2394.84	1.5558
2396.24	0.724399
2397.64	0.632388
2399.04	1.42556
2400.44	2.19169
2401.84	2.64426
2403.24	3.13841
2404.64	3.5805
2406.04	3.55742
2407.44	3.7173
2408.83	3.84329
2410.23	3.7461
2411.63	3.83761
2413.03	3.66306
2414.43	4.16386
2415.83	4.3501
2417.22	4.09648
2418.62	4.64488
2420.02	4.83736
2421.41	5.06668
2422.81	5.92018
2424.21	6.72525
2425.6	6.95802
2427	7.44546
2428.39	7.34692
2429.79	6.96695
2431.18	6.77284
2432.58	7.18092
2433.97	7.77746
2435.36	7.75285
2436.76	6.81857
2438.15	6.38973
2439.54	5.94161
2440.94	6.09264
2442.33	6.00335
2443.72	6.26654
2445.11	5.69633
2446.51	4.57322
2447.9	3.71732
2449.29	3.10514
2450.68	2.41257
2452.07	2.25072
2453.46	1.80845
2454.85	1.37121
2456.24	1.8966
2457.63	1.39394
2459.02	1.28939
2460.41	0.473513
2461.8	-0.428529
2463.19	-0.544303
2464.58	-0.58908
2465.97	-0.455114
2467.36	-0.207002
2468.75	0.48727
2470.13	-0.40264
2471.52	-0.249138
2472.91	0.0905877
2474.29	0.480849
2475.68	1.09785
2477.07	1.11056
2478.45	1.35248
2479.84	1.87114
2481.22	1.69416
2482.61	2.10035
2484	2.45838
2485.38	2.60288
2486.77	2.329
2488.15	2.92789
2489.54	3.09694
2490.92	3.42092
2492.3	3.72907
2493.69	3.51251
2495.07	3.89014
2496.45	4.05122
2497.84	4.54115
2499.22	4.99523
2500.6	5.68984
2501.98	5.0068
2503.36	4.2945
2504.74	4.69523
2506.13	5.25055
2507.51	6.26721
2508.89	6.20609
2510.27	6.96001
2511.65	6.67318
2513.03	6.14512
2514.41	6.70036
2515.79	7.31943
2517.17	8.26642
2518.55	9.26321
2519.93	9.56495
2521.3	9.49017
2522.68	9.88663
2524.06	10.5117
2525.44	10.4898
2526.82	9.99111
2528.19	10.9435
2529.57	11.2715
2530.95	11.8408
2532.32	12.6783
2533.7	12.7686
2535.08	12.6008
2536.45	12.7707
2537.83	12.8296
2539.2	12.6462
2540.58	13.1605
2541.95	13.2032
2543.33	12.774
2544.7	12.7469
2546.08	12.0185
2547.45	11.7915
2548.82	11.497
2550.2	10.751
2551.57	11.1169
2552.94	10.552
2554.32	10.2721
2555.69	9.71883
2557.06	9.38107
2558.43	9.73993
2559.8	9.32335
2561.17	9.00768
2562.55	8.74501
2563.92	8.613
2565.29	8.07161
2566.66	7.00097
2568.03	6.76396
2569.4	5.85286
2570.77	5.18825
2572.14	5.731
2573.51	6.38349
2574.88	6.39587
2576.24	5.85818
2577.61	4.92044
2578.98	4.60319
2580.35	4.29398
2581.72	3.82556
2583.09	4.27328
2584.45	3.69952
2585.82	3.78257
2587.19	3.67649
2588.55	2.8703
2589.92	2.59164
2591.28	2.82262
2592.65	2.82565
2594.02	2.94552
2595.38	3.28124
2596.75	3.81052
2598.11	4.01023
2599.48	4.40562
2600.84	4.92292
2602.2	4.77596
2603.57	4.42251
2604.93	5.02512
2606.3	4.63113
2607.66	4.66264
2609.02	5.53639
2610.38	6.01835
2611.75	6.28102
2613.11	6.7604
2614.47	7.22331
2615.83	7.71946
2617.19	7.22957
2618.56	7.24101
2619.92	7.76824
2621.28	8.33596
2622.64	8.37959
2624	8.32247
2625.36	9.37587
2626.72	9.5603
2628.08	9.04029
2629.44	9.32132
2630.8	8.7458
2632.15	8.83551
2633.51	8.90653
2634.87	9.71225
2636.23	10.4125
2637.59	10.0011
2638.94	10.2275
2640.3	9.33256
2641.66	9.22686
2643.02	9.19325
2644.37	8.67842
2645.73	8.7594
2647.08	8.65379
2648.44	8.64447
2649.8	8.10272
2651.15	8.12119
2652.51	8.47084
2653.86	8.81235
2655.22	8.7285
2656.57	9.13873
2657.92	9.69825
2659.28	8.77891
2660.63	8.5674
2661.99	8.95862
2663.34	9.48789
2664.69	9.84254
2666.04	10.124
2667.4	10.769
2668.75	10.7872
2670.1	10.6521
2671.45	9.94323
2672.81	10.1734
2674.16	10.2138
2675.51	10.8088
2676.86	11.3235
2678.21	10.398
2679.56	10.3735
2680.91	10.6326
2682.26	10.6294
2683.61	10.2877
2684.96	10.3775
2686.31	11.0128
2687.66	11.5144
2689	11.4422
2690.35	10.0702
2691.7	9.98637
2693.05	10.4794
2694.4	10.291
2695.74	10.7446
2697.09	11.3567
2698.44	11.3591
2699.79	12.0137
2701.13	12.9269
2702.48	13.6798
2703.82	13.3309
2705.17	13.9625
2706.52	14.2889
2707.86	15.3863
2709.21	16.298
2710.55	17.1898
2711.9	17.9871
2713.24	18.4125
2714.58	18.8086
2715.93	19.0557
2717.27	19.4692
2718.61	20.6478
2719.96	20.7678
2721.3	21.2472
2722.64	21.3349
2723.99	21.6117
2725.33	21.4658
2726.67	20.7859
2728.01	21.893
2729.35	21.7842
2730.7	21.8351
2732.04	21.9023
2733.38	21.6715
2734.72	21.2247
2736.06	20.6015
2737.4	19.5868
2738.74	19.2327
2740.08	18.8267
2741.42	18.1645
2742.76	17.3145
2744.09	17.2348
2745.43	16.446
2746.77	16.4901
2748.11	15.5663
2749.45	14.813
2750.79	13.4005
2752.12	13.4297
2753.46	11.6765
2754.8	10.6276
2756.13	9.22402
2757.47	8.18626
2758.81	8.12589
2760.14	7.68758
2761.48	6.40659
2762.81	5.0082
2764.15	4.50546
2765.49	3.90624
2766.82	3.31812
2768.15	2.98953
2769.49	2.75201
2770.82	2.51137
2772.16	2.31579
2773.49	2.48835
2774.82	2.62143
2776.16	1.19443
2777.49	1.23426
2778.82	1.1091
2780.16	0.178541
2781.49	0.317625
2782.82	0.0132013
2784.15	0.429834
2785.48	0.381445
2786.81	-0.736381
2788.15	0.575372
2789.48	0.254292
2790.81	0.205575
2792.14	0.456714
2793.47	0.30881
2794.8	1.13263
2796.13	0.50892
2797.46	1.98264
2798.79	2.22954
2800.12	1.78647
2801.44	1.23267
2802.77	1.6222
2804.1	1.80473
2805.43	2.05336
2806.76	1.66018
2808.08	1.01853
2809.41	1.30489
2810.74	1.90142
2812.07	1.4995
2813.39	1.10288
2814.72	1.12883
2816.05	2.00009
2817.37	3.21373
2818.7	4.79396
2820.02	5.74928
2821.35	7.64138
2822.67	9.86045
2824	11.9335
2825.32	13.6989
2826.65	15.4328
2827.97	17.7373
2829.29	20.9226
2830.62	25.0377
2831.94	28.1478
2833.26	31.2018
2834.59	35.3528
2835.91	39.434
2837.23	43.3523
2838.55	48.1145
2839.88	52.7498
2841.2	58.0964
2842.52	64.1986
2843.84	71.2993
2845.16	77.8908
2846.48	84.0962
2847.8	92.2634
2849.12	99.5994
2850.44	107.24
2851.76	114.145
2853.08	122.227
2854.4	131.134
2855.72	138.846
2857.04	147.18
2858.36	154.56
2859.68	161.452
2861	168.63
2862.32	174.987
2863.63	182.883
2864.95	187.956
2866.27	193.033
2867.58	198.088
2868.9	204.29
2870.22	209.167
2871.53	213.538
2872.85	217.761
2874.17	222.345
2875.48	226.896
2876.8	231.479
2878.11	235.001
2879.43	238.685
2880.74	242.693
2882.06	246.231
2883.37	248.895
2884.69	250.75
2886	253.123
2887.31	256.07
2888.63	259.699
2889.94	262.046
2891.25	264.278
2892.57	267.328
2893.88	270.874
2895.19	274.518
2896.5	277.863
2897.82	281.903
2899.13	285.952
2900.44	291.331
2901.75	297.301
2903.06	303.179
2904.37	309.891
2905.68	317.232
2906.99	325.486
2908.3	333.833
2909.61	341.048
2910.92	349.293
2912.23	358.308
2913.54	367.801
2914.85	376.129
2916.16	384.824
2917.46	392.514
2918.77	401.119
2920.08	407.993
2921.39	414.354
2922.7	418.886
2924	423.538
2925.31	427.344
2926.62	430.335
2927.92	432.954
2929.23	434.507
2930.53	434.453
2931.84	434.37
2933.15	434.654
2934.45	433.612
2935.76	430.957
2937.06	427.783
2938.37	423.132
2939.67	419.333
2940.98	414.19
2942.28	408.105
2943.58	400.909
2944.89	393.225
2946.19	386.127
2947.49	378.134
2948.8	370.398
2950.1	362.619
2951.4	354.439
2952.7	346.727
2954.01	337.247
2955.31	328.011
2956.61	319.339
2957.91	311.22
2959.21	302.753
2960.51	294.491
2961.81	286.558
2963.11	279.327
2964.41	271.04
2965.71	264.501
2967.01	257.319
2968.31	249.565
2969.61	242.912
2970.91	236.453
2972.21	229.931
2973.51	224.309
2974.81	217.856
2976.1	212.794
2977.4	206.958
2978.7	199.998
2980	193.857
2981.29	186.322
2982.59	179.288
2983.89	171.893
2985.18	164.097
2986.48	156.341
2987.78	149.021
2989.07	142.377
2990.37	134.045
2991.66	126.802
2992.96	119.895
2994.25	112.302
2995.55	105.116
2996.84	98.1239
2998.14	91.8817
2999.43	84.2044
3000.72	77.7975
3002.02	71.8977
3003.31	65.8283
3004.6	60.8787
3005.9	54.9316
3007.19	49.4443
3008.48	44.7645
3009.77	40.1569
3011.07	36.6318
3012.36	32.2456
3013.65	28.0913
3014.94	23.7407
3016.23	20.4105
3017.52	17.5144
3018.81	14.4995
3020.1	12.6116
3021.39	10.5757
3022.68	9.0525
3023.97	7.13603
3025.26	5.59547
3026.55	4.29869
3027.84	2.69968
3029.13	1.65781
3030.42	1.17935
3031.71	0.189971
3033	-0.22303
3034.28	-0.411063
3035.57	0.158211
3036.86	0.796488
3038.15	1.40676
3039.43	1.41825
3040.72	1.86098
3042.01	2.29085
3043.29	2.22035
3044.58	3.71823
3045.86	3.78389
3047.15	4.99935
3048.44	5.72929
3049.72	6.3455
3051.01	6.935
3052.29	8.41096
3053.58	8.76723
3054.86	8.70744
3056.14	9.0042
3057.43	9.39581
3058.71	9.89683
3060	9.87968
3061.28	9.74755
3062.56	9.85275
3063.84	9.80321
3065.13	10.5859
3066.41	10.7373
3067.69	10.035
3068.97	9.8949
3070.25	9.50507
3071.54	9.21152
3072.82	8.43011
3074.1	7.88024
3075.38	7.09796
3076.66	6.40881
3077.94	5.89782
3079.22	5.7289
3080.5	5.76148
3081.78	4.53104
3083.06	4.31637
3084.34	3.59722
3085.62	2.58265
3086.9	1.91355
3088.17	0.988845
3089.45	0.647416
3090.73	0.144709
3092.01	-0.699554
3093.29	-0.795073
3094.56	-0.997943
3095.84	-0.481206
3097.12	-0.516981
3098.4	-0.179501
3099.67	0.453147
3100.95	0.498397
3102.22	0.691643
3103.5	2.00481
3104.77	2.69846
3106.05	2.58777
3107.33	3.10032
3108.6	4.36665
3109.88	4.8233
3111.15	5.3059
3112.43	5.67688
3113.7	5.83418
3114.97	7.23532
3116.25	7.81561
3117.52	8.3665
3118.79	9.05817
3120.07	10.3522
3121.34	11.6817
3122.61	12.7713
3123.88	13.2799
3125.16	14.8898
3126.43	17.0406
3127.7	18.8315
3128.97	20.3358
3130.24	21.2471
3131.51	22.2539
3132.78	24.0712
3134.05	25.5601
3135.33	27.3445
3136.59	29.0379
3137.86	30.9952
3139.14	32.882
3140.41	35.2859
3141.67	37.0651
3142.94	38.9772
3144.21	41.0756
3145.48	43.6929
3146.75	45.9227
3148.02	49.5107
3149.28	53.2736
