#Acq. time (s)=	45
#Accumulations=	2
#Range (cm-¹)=	200...3150
#Windows=	2
#Auto scanning=	Off
#Autofocus=	Off
#Macrospot=	Off
#AutoExposure=	Off
#Spike filter=	Multiple accum.
#Delay time (s)=	0
#Binning=	1
#Readout mode=	Signal
#DeNoise=	Off
#ICS correction=	On
#Dark correction=	Off
#Inst. Process=	Off
#Detector Gain=	Best Dynamic Range
#Detector ADC=	20 kHz       
#Detector temperature (°C)=	-69.85
#Instrument=	LabRAM HR Evol
#Detector=	Synapse
#Objective=	x100
#Grating=	600 gr/mm
#ND Filter=	100%
#Laser (nm)=	532 
#Hole=	100.021
#Range=	Auto
#Laser Pol.=	No
#Raman. Pol.=	No
#Laser Pol. (°)=	-0.0007625
#Raman Pol. (°)=	89.9995
#Collection=	Microscope
#StageXY=	Marzhauser
#StageZ=	Marzhauser
#X (µm)=	-603.2
#Y (µm)=	-1684.8
#Z (µm)=	89.65
#Full time(mm:ss)=	3:18
#Project=	
#Sample=	
#Site=	
#Title=	Mb_10_14_43_2x_45s_532 nm_x100_100%_600 gr_mm
#Remark=	
#Date=	11.07.2022 11:54
#Acquired=	11.07.2022 11:54:54
#Edit:Spike=	11.07.2022 11:59:44
#Base:Fit=	10.08.2022 10:21:11
#Base:Sub=	10.08.2022 10:21:41
#Filter:Polynom=	16.08.2022 10:17:53
#AxisType[0]=Intens
#AxisUnit[0]=Cnt
#AxisType[1]=Spectr
#AxisUnit[1]=1/cm
200.388	7.82903
202.204	10.1894
204.019	11.7572
205.832	14.7412
207.646	15.9223
209.459	16.237
211.274	16.5062
213.087	15.7362
214.899	14.9644
216.711	13.5436
218.524	12.9424
220.335	13.4772
222.146	11.9425
223.956	12.0059
225.766	12.6966
227.576	11.675
229.388	9.82909
231.197	8.62916
233.005	9.16546
234.813	9.70205
236.621	11.7591
238.429	11.9006
240.236	12.8597
242.045	12.9208
243.852	13.3863
245.658	13.4313
247.464	13.9684
249.269	14.9498
251.074	14.5165
252.879	14.6338
254.683	15.1628
256.487	15.0707
258.291	13.9046
260.094	15.4121
261.897	14.5045
263.702	15.4234
265.504	15.8459
267.306	15.9372
269.108	17.2495
270.909	16.9807
272.71	16.9495
274.511	17.7945
276.311	17.9365
278.111	17.7382
279.91	17.8535
281.709	18.0916
283.508	17.633
285.306	17.555
287.105	17.9566
288.9	17.4484
290.698	17.3937
292.495	16.1317
294.291	15.3733
296.088	13.6544
297.884	13.336
299.679	14.0221
301.475	12.548
303.27	12.2761
305.064	13.6377
306.858	13.9992
308.652	14.7694
310.444	14.6459
312.237	14.1606
314.03	15.2787
315.822	14.6309
317.615	14.1897
319.406	14.3471
321.198	15.1809
322.987	16.8788
324.778	16.4326
326.568	16.3375
328.358	15.133
330.148	14.7004
331.935	13.6845
333.724	13.4784
335.513	13.7476
337.301	14.4253
339.089	13.5985
340.875	13.167
342.662	13.9015
344.449	13.1973
346.236	12.6468
348.02	13.2104
349.806	13.5868
351.592	12.8411
353.375	12.2135
355.16	10.9771
356.944	9.89363
358.728	10.2469
360.51	9.30602
362.294	8.67937
364.077	7.77243
365.858	6.16622
367.64	6.04264
369.422	6.35585
371.202	6.99692
372.983	6.32262
374.764	5.55108
376.543	5.27707
378.324	5.06383
380.102	5.23824
381.881	4.65194
383.661	5.33466
385.438	5.50632
387.216	6.10376
388.993	6.65226
390.771	7.9002
392.548	9.8175
394.324	10.5864
396.101	10.4282
397.875	9.93334
399.651	11.3083
401.425	13.0252
403.201	12.9764
404.974	13.5804
406.749	14.7077
408.524	14.0063
410.296	14.3165
412.07	14.796
413.841	15.0232
415.614	16.4806
417.385	17.4724
419.156	17.7077
420.928	18.5383
422.698	19.8792
424.469	21.1501
426.238	20.1771
428.009	19.8602
429.777	21.4181
431.548	20.9741
433.315	20.8765
435.083	20.1961
436.852	19.9896
438.618	19.135
440.387	18.6301
442.153	18.2069
443.919	17.9624
445.686	17.1146
447.451	17.2342
449.218	16.9317
450.982	16.0326
452.746	15.6572
454.512	16.0795
456.275	17.2864
458.038	16.4266
459.803	15.6241
461.565	15.0138
463.327	14.692
465.091	14.9987
466.852	14.9766
468.613	16.0968
470.374	16.6533
472.136	16.2979
473.896	16.9852
475.655	18.4115
477.415	18.9636
479.176	19.7628
480.934	19.7869
482.692	20.4631
484.45	21.3726
486.21	21.7785
487.967	24.0765
489.724	24.0657
491.481	24.0515
493.237	24.6425
494.995	25.1259
496.75	25.4211
498.506	26.7883
500.26	27.3026
502.015	28.0255
503.769	27.7137
505.525	27.1086
507.279	27.2916
509.032	27.7039
510.785	27.3578
512.537	26.4353
514.289	25.0689
516.041	25.7953
517.793	24.4029
519.546	23.762
521.297	22.7348
523.047	21.4418
524.797	21.6731
526.547	21.1823
528.297	20.2012
530.046	18.6388
531.795	17.4207
533.543	17.5269
535.291	18.1709
537.039	18.5197
538.787	17.4936
540.534	17.0496
542.281	16.9775
544.027	15.8801
545.773	14.942
547.519	15.118
549.264	14.7873
551.01	14.7298
552.754	14.5552
554.499	14.2483
556.243	14.8224
557.987	14.148
559.73	14.1014
561.474	15.1354
563.216	15.3254
564.959	14.2925
566.701	13.7833
568.441	14.6303
570.182	14.5505
571.923	13.3846
573.664	12.6334
575.405	12.7985
577.145	12.4141
578.885	12.6765
580.624	11.6333
582.361	10.9956
584.1	10.401
585.839	9.88457
587.577	9.33695
589.315	8.99143
591.052	8.56218
592.787	8.44567
594.524	8.23416
596.26	7.19176
597.997	6.60254
599.732	5.83089
601.466	6.10112
603.201	6.14103
604.936	5.47796
606.67	7.03499
608.403	6.35042
610.136	6.80393
611.87	7.24553
613.603	6.80322
615.334	6.50799
617.067	7.03921
618.799	7.90858
620.529	7.87646
622.26	7.35647
623.991	7.22533
625.72	6.35908
627.451	6.45184
629.181	7.47588
630.909	7.30431
632.638	7.94971
634.368	9.10655
636.095	9.29932
637.823	9.37068
639.551	9.41089
641.277	8.82109
643.005	8.91941
644.73	8.27578
646.457	8.45185
648.184	8.07361
649.908	8.16967
651.634	8.00491
653.357	7.81568
655.083	8.28058
656.806	6.75556
658.53	6.48052
660.253	6.13386
661.977	6.42989
663.7	6.10312
665.422	5.31358
667.145	5.10895
668.865	5.63405
670.588	7.49623
672.308	8.16535
674.027	8.56507
675.749	9.47751
677.468	10.6121
679.188	11.499
680.907	12.2371
682.627	12.8683
684.345	14.0874
686.064	14.447
687.781	15.252
689.498	15.4242
691.216	16.3042
692.932	17.2084
694.65	17.5222
696.366	18.5931
698.081	19.6276
699.797	20.205
701.512	20.7781
703.228	21.276
704.942	21.9582
706.655	22.7154
708.371	23.5923
710.083	23.8255
711.796	24.1637
713.51	25.3533
715.222	25.6097
716.934	24.2315
718.645	24.8145
720.358	25.4482
722.068	24.8514
723.779	24.388
725.49	24.4313
727.2	24.0767
728.909	24.567
730.618	25.6218
732.329	25.4347
734.037	25.4118
735.745	26.9749
737.453	27.3955
739.16	27.2027
740.869	28.4621
742.576	29.0788
744.282	30.4479
745.988	31.9395
747.694	33.1828
749.401	33.7954
751.107	35.1466
752.811	36.6356
754.516	38.2604
756.22	39.9145
757.924	40.8112
759.627	42.8235
761.332	44.4585
763.035	46.2546
764.738	47.4115
766.44	48.594
768.142	49.9763
769.843	51.4979
771.544	52.5209
773.245	54.4327
774.946	56.2315
776.646	57.7762
778.346	59.6128
780.046	61.7812
781.745	62.7195
783.444	63.9144
785.143	64.9423
786.841	66.4338
788.539	68.2076
790.237	70.3458
791.934	71.5725
793.631	72.3224
795.328	72.857
797.024	74.9458
798.72	76.2303
800.416	76.8642
802.112	77.3298
803.807	78.7089
805.502	79.4113
807.196	79.9216
808.89	80.9088
810.584	81.8034
812.278	82.9494
813.971	83.4347
815.664	83.9865
817.354	83.8931
819.047	85.0901
820.739	86.0157
822.43	85.6028
824.122	86.1603
825.813	86.7873
827.503	88.0648
829.192	87.673
830.882	87.6074
832.571	86.774
834.261	86.6158
835.95	86.5227
837.637	86.4827
839.325	87.3223
841.013	86.9048
842.701	86.9464
844.389	86.8953
846.074	85.6564
847.761	84.4195
849.447	83.4081
851.131	83.101
852.817	81.6758
854.503	80.7952
856.188	80.5748
857.871	80.1517
859.556	78.9843
861.24	78.6418
862.922	77.6201
864.606	76.2329
866.289	74.8053
867.97	74.8885
869.653	74.9973
871.336	74.8148
873.016	74.3986
874.698	73.8727
876.379	72.7679
878.058	72.1012
879.739	71.2912
881.418	71.0453
883.098	70.269
884.778	69.2887
886.456	68.7473
888.135	67.8795
889.812	67.6854
891.49	68.0482
893.167	67.9244
894.845	67.6255
896.523	67.3754
898.198	66.7693
899.875	66.3851
901.55	66.6388
903.226	66.3581
904.901	66.4786
906.576	66.9479
908.25	67.4494
909.925	67.505
911.598	67.6427
913.271	66.3994
914.945	66.5176
916.617	65.5724
918.291	64.9408
919.962	65.3939
921.635	65.5208
923.306	66.414
924.978	67.4739
926.648	68.614
928.318	69.3749
929.989	69.8414
931.659	71.2951
933.328	73.5414
934.998	73.7144
936.666	73.6565
938.336	74.9602
940.004	75.8477
941.671	76.1743
943.34	76.2622
945.007	76.4271
946.673	76.3963
948.339	76.5761
950.007	77.1295
951.672	77.5676
953.337	78.1229
955.004	77.6959
956.669	77.1413
958.333	75.7462
959.997	74.3121
961.662	72.4996
963.326	71.5402
964.989	71.6053
966.651	71.9544
968.315	71.5007
969.977	70.9749
971.639	70.7719
973.301	71.2296
974.962	70.8925
976.624	69.7803
978.285	69.023
979.945	68.7878
981.605	66.988
983.264	65.6758
984.924	65.704
986.583	64.0084
988.243	62.6595
989.901	62.0213
991.56	60.0819
993.217	58.7094
994.875	57.5535
996.532	57.0098
998.188	55.8585
999.845	55.3375
1001.5	56.2877
1003.16	57.8904
1004.81	58.7336
1006.47	60.2435
1008.12	61.3456
1009.78	61.8673
1011.43	61.8888
1013.09	61.679
1014.74	62.1668
1016.39	61.1684
1018.05	60.7489
1019.7	60.9957
1021.35	60.5525
1023	60.0887
1024.65	59.5274
1026.31	59.2186
1027.96	59.1512
1029.61	59.1458
1031.26	57.7481
1032.91	57.6738
1034.56	56.928
1036.21	55.5724
1037.86	54.9405
1039.51	53.1251
1041.16	52.5775
1042.8	52.1208
1044.45	52.3614
1046.1	54.1741
1047.75	54.5161
1049.39	54.6838
1051.04	53.9968
1052.69	53.4815
1054.33	53.8207
1055.98	52.8746
1057.62	51.7998
1059.27	51.7437
1060.91	51.6188
1062.56	51.4207
1064.2	50.3206
1065.85	50.5526
1067.49	50.0093
1069.13	48.8696
1070.77	47.9929
1072.42	48.4825
1074.06	47.28
1075.7	47.7089
1077.34	47.5677
1078.98	47.6433
1080.62	47.2931
1082.27	48.7378
1083.91	49.2256
1085.55	49.1373
1087.18	48.2685
1088.82	48.7734
1090.46	48.9648
1092.1	49.0613
1093.74	49.0681
1095.38	48.8576
1097.02	48.6415
1098.65	48.1513
1100.29	48.2048
1101.93	48.0573
1103.56	48.1043
1105.2	48.0186
1106.84	48.0889
1108.47	48.1456
1110.11	47.4974
1111.74	47.6891
1113.38	47.024
1115.01	47.7419
1116.64	46.662
1118.28	46.0256
1119.91	46.3865
1121.54	45.8546
1123.18	46.4949
1124.81	45.7825
1126.44	46.0223
1128.07	45.7268
1129.7	44.7432
1131.33	44.8825
1132.97	43.5964
1134.6	44.0682
1136.23	43.3582
1137.86	43.0149
1139.49	42.5325
1141.11	43.4218
1142.74	43.0123
1144.37	42.3865
1146	41.7895
1147.63	42.0665
1149.26	41.7012
1150.88	41.3471
1152.51	39.7914
1154.14	39.9771
1155.76	39.3808
1157.39	39.8601
1159.01	38.8217
1160.64	37.6853
1162.27	37.3449
1163.89	36.8971
1165.51	35.8911
1167.14	35.3043
1168.76	35.4736
1170.39	36.2001
1172.01	35.9572
1173.63	35.9955
1175.25	35.4142
1176.88	34.0045
1178.5	34.244
1180.12	34.4393
1181.74	33.9498
1183.36	34.8886
1184.98	34.1685
1186.6	33.7434
1188.22	34.1392
1189.84	33.7742
1191.46	33.3264
1193.08	34.0325
1194.7	33.84
1196.32	33.4344
1197.94	32.554
1199.55	33.3647
1201.17	33.7879
1202.79	34.379
1204.41	34.1698
1206.02	33.655
1207.64	33.8543
1209.25	34.3915
1210.87	35.8119
1212.48	36.1438
1214.1	37.2242
1215.71	38.6034
1217.33	39.2844
1218.94	41.8771
1220.56	44.1011
1222.17	46.4588
1223.79	47.1837
1225.4	48.284
1227.01	50.1982
1228.62	52.8333
1230.23	54.1941
1231.85	56.0452
1233.46	57.672
1235.07	59.7867
1236.68	61.744
1238.29	62.7203
1239.9	63.3907
1241.51	65.3983
1243.12	67.2649
1244.73	68.056
1246.34	69.3185
1247.94	70.8891
1249.55	71.6788
1251.16	72.6128
1252.77	73.0898
1254.37	72.6227
1255.98	73.3012
1257.59	73.5213
1259.2	74.582
1260.8	73.8626
1262.41	73.7025
1264.01	74.239
1265.62	73.3958
1267.22	73.3135
1268.83	73.5787
1270.43	73.0071
1272.03	73.9559
1273.64	74.8541
1275.24	74.2257
1276.85	74.3248
1278.45	73.459
1280.05	74.367
1281.65	74.0304
1283.25	73.7218
1284.85	73.0752
1286.46	72.4883
1288.06	73.5631
1289.66	74.4206
1291.26	75.317
1292.86	75.6092
1294.46	77.679
1296.06	78.1916
1297.66	79.8976
1299.25	80.8279
1300.85	81.6576
1302.45	82.0483
1304.05	81.9101
1305.65	83.0521
1307.24	84.6665
1308.84	85.9039
1310.43	86.906
1312.03	87.5693
1313.63	87.7278
1315.22	87.7839
1316.82	88.7008
1318.41	88.9391
1320.01	90.2685
1321.6	90.9103
1323.2	89.8147
1324.79	88.6973
1326.38	88.2156
1327.98	88.5126
1329.57	87.4151
1331.16	87.3999
1332.76	86.2697
1334.35	85.366
1335.94	85.6324
1337.53	84.3643
1339.12	83.6502
1340.71	82.4382
1342.3	82.2657
1343.89	81.9357
1345.48	81.5064
1347.07	81.016
1348.66	79.8207
1350.25	79.3759
1351.84	79.2943
1353.43	77.8731
1355.01	76.721
1356.6	76.0551
1358.19	74.6249
1359.77	73.8464
1361.36	72.21
1362.95	70.8419
1364.53	69.9172
1366.12	70.216
1367.71	71.3831
1369.29	70.644
1370.88	70.3561
1372.46	68.9837
1374.04	68.5599
1375.63	67.0732
1377.21	66.5814
1378.8	65.3965
1380.38	64.7551
1381.96	64.1338
1383.54	63.5392
1385.13	63.4166
1386.71	63.688
1388.29	63.8721
1389.87	63.2598
1391.45	62.0411
1393.03	60.5466
1394.61	60.6912
1396.19	60.1852
1397.77	60.0824
1399.35	59.2728
1400.93	57.9228
1402.51	57.3989
1404.09	57.5921
1405.67	57.8563
1407.24	58.9872
1408.82	58.8483
1410.4	59.5711
1411.98	60.4297
1413.55	60.9068
1415.13	61.8535
1416.71	62.8738
1418.28	63.7795
1419.86	65.5108
1421.43	67.5747
1423.01	69.8852
1424.58	71.8545
1426.16	74.0606
1427.73	76.8754
1429.31	81.1152
1430.88	83.5855
1432.45	86.4664
1434.02	89.2737
1435.6	90.7837
1437.17	93.1735
1438.74	95.5664
1440.31	98.4433
1441.88	101.225
1443.45	103.567
1445.03	106.544
1446.6	107.862
1448.17	107.89
1449.74	109.11
1451.3	109.219
1452.87	110.211
1454.44	110.266
1456.01	109.962
1457.58	109.586
1459.15	108.99
1460.72	108.283
1462.28	107.576
1463.85	105.776
1465.42	104.071
1466.98	101.213
1468.55	96.7526
1470.12	93.7901
1471.68	91.6242
1473.25	89.6268
1474.81	86.5808
1476.38	84.0928
1477.94	80.7742
1479.51	78.7904
1481.07	77.4582
1482.63	74.7174
1484.2	72.2962
1485.76	71.0172
1487.32	68.4545
1488.88	66.5391
1490.45	64.3951
1492.01	62.4446
1493.57	61.159
1495.13	59.6358
1496.69	57.4612
1498.25	56.097
1499.81	55.6093
1501.37	54.8515
1502.93	53.3022
1504.49	52.1803
1506.05	51.3396
1507.61	50.1512
1509.17	49.1267
1510.73	48.014
1512.28	46.2736
1513.84	44.5558
1515.4	44.3445
1516.96	44.3924
1518.51	43.5716
1520.07	43.4218
1521.63	42.6645
1523.18	41.9614
1524.74	40.8911
1526.29	39.9122
1527.85	39.634
1529.4	38.4929
1530.96	38.3667
1532.51	38.0529
1534.06	36.892
1535.62	35.8922
1537.17	35.3152
1538.72	34.8937
1540.28	34.972
1541.83	34.2983
1543.38	34.3155
1544.93	34.4685
1546.48	34.8715
1548.03	35.958
1549.59	36.8761
1551.14	37.242
1552.69	38.1701
1554.24	38.247
1555.79	38.919
1557.34	40.1515
1558.88	41.5118
1560.43	42.1565
1561.98	43.9149
1563.53	44.3059
1565.08	44.8065
1566.62	46.222
1568.17	47.1352
1569.72	48.2813
1571.27	49.34
1572.81	50.1417
1574.36	51.1593
1575.9	53.143
1577.45	54.9988
1579	56.0604
1580.54	57.3202
1582.09	58.4168
1583.63	59.2912
1585.17	60.794
1586.72	61.2342
1588.26	61.5297
1589.8	62.2553
1591.35	63.1058
1592.89	64.4951
1594.43	65.6711
1595.97	65.5755
1597.52	65.9833
1599.06	66.306
1600.6	65.3527
1602.14	65.0954
1603.68	64.1075
1605.22	63.835
1606.76	63.3681
1608.3	63.259
1609.84	62.59
1611.38	61.422
1612.92	60.8913
1614.46	61.5894
1615.99	60.976
1617.53	60.9495
1619.07	59.6148
1620.61	58.7775
1622.14	58.841
1623.68	57.9187
1625.22	57.0987
1626.75	57.3295
1628.29	57.6304
1629.82	57.2032
1631.36	56.8663
1632.9	57.5185
1634.43	58.579
1635.96	59.6439
1637.5	60.21
1639.03	59.6774
1640.57	59.3454
1642.1	60.9244
1643.63	61.8153
1645.16	62.7229
1646.7	63.2264
1648.23	64.8883
1649.76	65.844
1651.29	67.342
1652.82	67.3035
1654.36	67.6005
1655.89	68.2623
1657.42	67.9021
1658.95	67.0539
1660.48	67.1631
1662.01	67.7375
1663.53	66.9809
1665.06	66.8934
1666.59	66.0011
1668.12	64.8926
1669.65	63.7359
1671.18	62.3732
1672.7	60.6613
1674.23	58.8137
1675.76	57.0411
1677.29	54.3713
1678.81	52.4994
1680.34	50.7141
1681.86	49.1472
1683.39	47.0101
1684.91	45.3085
1686.44	42.8991
1687.96	40.6261
1689.49	38.3901
1691.01	35.7898
1692.54	33.3122
1694.06	31.5493
1695.58	29.3137
1697.11	28.2216
1698.63	26.6252
1700.15	24.6179
1701.67	23.867
1703.2	22.9841
1704.72	21.6005
1706.24	19.7338
1707.76	19.2296
1709.28	18.2365
1710.8	17.1913
1712.32	16.2817
1713.84	15.5369
1715.36	14.4478
1716.88	15.3931
1718.4	15.0937
1719.91	15.3913
1721.43	15.2525
1722.95	13.9673
1724.47	14.262
1725.99	13.6593
1727.5	13.2714
1729.02	12.6709
1730.54	12.7954
1732.05	12.9063
1733.57	12.4281
1735.09	12.6533
1736.6	12.9444
1738.12	12.8107
1739.63	12.0032
1741.15	11.3645
1742.66	10.5531
1744.18	10.2362
1745.69	9.57416
1747.2	9.2909
1748.72	9.10033
1750.23	8.54346
1751.74	8.26368
1753.25	7.8296
1754.77	7.19252
1756.28	6.7911
1757.79	6.08544
1759.3	5.70853
1760.81	5.5376
1762.32	4.49585
1763.83	4.00407
1765.34	3.40582
1766.85	2.37665
1768.36	1.87499
1769.87	1.23144
1771.38	0.493751
1772.89	0.321974
1774.4	-0.210762
1775.91	0.0882666
1777.41	0.0742944
1778.92	-0.57407
1780.43	-0.801151
1781.94	-1.11333
1783.44	-1.14874
1784.95	-1.38661
1786.45	-0.84148
1787.96	0.0916555
1789.47	0.432521
1790.97	0.168076
1792.47	0.373825
1793.98	-0.361908
1795.48	-0.491537
1796.99	-0.762857
1798.49	-0.799106
1800	0.0583233
1801.5	0.826294
1803	0.657448
1804.51	0.679131
1806.01	0.318241
1807.51	0.57474
1809.01	1.35411
1810.51	1.76682
1812.02	1.67749
1813.52	1.86778
1815.02	1.78694
1816.52	2.11254
1818.02	2.15542
1819.52	2.55825
1821.02	2.72682
1822.52	3.45268
1824.02	3.87173
1825.51	4.00467
1827.01	3.82639
1828.51	4.05435
1830.01	3.91934
1831.51	3.58808
1833	3.41778
1834.5	3.20916
1836	3.3695
1837.49	3.22136
1838.99	2.92845
1840.49	2.34454
1841.98	1.7613
1843.48	1.82227
1844.97	2.283
1846.47	2.20362
1847.96	2.15464
1849.46	1.88682
1850.95	1.80946
1852.45	1.12342
1853.94	0.0274936
1855.43	-0.176889
1856.92	-0.23658
1858.42	-0.000830052
1859.91	0.133218
1861.4	-0.00125236
1862.89	-0.887281
1864.39	-1.05236
1865.88	-1.28003
1867.37	-1.02066
1868.86	-0.657699
1870.35	-0.486746
1871.84	0.197066
1873.33	0.146099
1874.82	0.435855
1876.31	0.543038
1877.8	-0.035695
1879.29	0.488579
1880.77	0.990504
1882.26	1.70861
1882.52	2.08201
1884.02	1.71151
1885.51	1.51196
1887.01	1.661
1888.5	1.86654
1889.99	2.45084
1891.49	2.17438
1892.98	2.90521
1894.47	2.8799
1895.96	3.26662
1897.46	2.97674
1898.95	2.70543
1900.44	2.42901
1901.93	2.41314
1903.42	2.70581
1904.91	3.03735
1906.4	3.10976
1907.89	3.37716
1909.38	3.72683
1910.87	3.70406
1912.36	3.35008
1913.85	3.40613
1915.34	3.57939
1916.83	4.1068
1918.32	3.67602
1919.8	2.92937
1921.29	2.35148
1922.78	2.21781
1924.27	2.17001
1925.75	1.97978
1927.24	1.40733
1928.73	1.6826
1930.21	1.6615
1931.7	1.15788
1933.18	0.768729
1934.67	0.725325
1936.15	0.92625
1937.64	1.90023
1939.12	2.38459
1940.61	2.72113
1942.09	3.02262
1943.57	3.11159
1945.06	3.35217
1946.54	3.44633
1948.02	3.23212
1949.51	3.21476
1950.99	2.87508
1952.47	3.32474
1953.95	3.40346
1955.43	3.30922
1956.91	2.73886
1958.39	2.75426
1959.87	2.58077
1961.36	2.62011
1962.84	2.82856
1964.32	2.80623
1965.79	2.77973
1967.27	3.31177
1968.75	2.39234
1970.23	2.45534
1971.71	1.93039
1973.19	2.65197
1974.66	2.6901
1976.14	2.88909
1977.62	3.07251
1979.1	2.61026
1980.57	2.08127
1982.05	2.57638
1983.53	2.33773
1985	2.0957
1986.48	2.07984
1987.95	2.57061
1989.43	3.16827
1990.9	2.68677
1992.38	2.14417
1993.85	2.50419
1995.33	2.86587
1996.8	3.33945
1998.27	2.91648
1999.75	2.39538
2001.22	1.99621
2002.69	2.09348
2004.16	2.40749
2005.64	3.13288
2007.11	3.42575
2008.58	4.15272
2010.05	4.82826
2011.52	5.67913
2012.99	6.51043
2014.46	7.12084
2015.93	7.20819
2017.4	6.91279
2018.87	6.92822
2020.34	7.32319
2021.81	7.41473
2023.28	7.74322
2024.75	7.23754
2026.22	7.53162
2027.69	7.34903
2029.15	7.55511
2030.62	7.49246
2032.09	7.34275
2033.56	6.79256
2035.02	7.55208
2036.49	7.18887
2037.95	7.26526
2039.42	7.95976
2040.89	7.17342
2042.35	6.66035
2043.82	6.55118
2045.28	7.26216
2046.75	7.14474
2048.21	6.81022
2049.67	7.06056
2051.14	6.84991
2052.6	7.00076
2054.06	7.2299
2055.53	7.55627
2056.99	7.85708
2058.45	8.71656
2059.92	9.004
2061.38	8.76034
2062.84	7.95155
2064.3	7.38919
2065.76	8.06916
2067.22	8.33102
2068.68	8.02516
2070.14	8.23901
2071.6	7.28648
2073.06	7.25224
2074.52	7.63879
2075.98	7.68673
2077.44	8.31149
2078.9	8.72828
2080.36	8.78607
2081.82	9.39182
2083.27	9.45311
2084.73	9.56668
2086.19	9.40062
2087.65	9.54486
2089.1	8.59412
2090.56	8.41438
2092.01	9.07951
2093.47	8.65091
2094.93	8.56586
2096.38	8.28629
2097.84	8.7235
2099.29	9.36755
2100.75	9.23327
2102.2	9.64483
2103.66	10.0358
2105.11	10.2627
2106.56	11.1287
2108.02	12.3997
2109.47	11.7942
2110.92	12.9973
2112.37	13.6273
2113.83	13.0802
2115.28	14.183
2116.73	14.5682
2118.18	15.5951
2119.63	15.5046
2121.09	16.0452
2122.54	16.6201
2123.99	17.251
2125.44	18.2484
2126.89	18.9168
2128.34	19.4011
2129.79	19.518
2131.23	19.422
2132.68	19.328
2134.13	19.4739
2135.58	19.803
2137.03	20.5508
2138.48	21.1093
2139.92	20.589
2141.37	20.7722
2142.82	21.5697
2144.26	21.4054
2145.71	22.2813
2147.16	23.0825
2148.6	23.0987
2150.05	23.9806
2151.49	24.164
2152.94	24.1821
2154.38	24.5687
2155.83	24.3302
2157.27	25.0921
2158.72	25.0429
2160.16	25.6826
2161.6	25.3193
2163.05	25.7549
2164.49	26.3027
2165.93	26.9485
2167.38	27.9056
2168.82	28.0907
2170.26	28.0058
2171.7	27.6532
2173.14	28.1581
2174.58	28.7379
2176.03	29.0274
2177.47	28.8837
2178.91	29.1412
2180.35	28.7786
2181.79	28.6884
2183.23	28.7553
2184.67	27.8945
2186.1	26.8918
2187.54	27.0536
2188.98	26.3382
2190.42	26.1254
2191.86	25.6059
2193.3	25.1538
2194.73	25.2277
2196.17	24.9442
2197.61	23.8935
2199.05	22.7927
2200.48	21.4585
2201.92	20.4462
2203.35	19.9265
2204.79	19.603
2206.22	19.2438
2207.66	18.7512
2209.09	18.1065
2210.53	17.6196
2211.96	17.0671
2213.4	17.0169
2214.83	17.3524
2216.27	16.8613
2217.7	17.2539
2219.13	17.1788
2220.56	16.8799
2222	17.0612
2223.43	16.4047
2224.86	15.9347
2226.29	15.6681
2227.72	14.9656
2229.16	14.8985
2230.59	14.7893
2232.02	14.8378
2233.45	14.6631
2234.88	14.7343
2236.31	14.9344
2237.74	15.6792
2239.17	15.4933
2240.6	15.5078
2242.03	15.2169
2243.45	15.9494
2244.88	16.6515
2246.31	16.9106
2247.74	17.0753
2249.17	17.2372
2250.59	17.3087
2252.02	16.6279
2253.45	16.9006
2254.87	16.5336
2256.3	16.7678
2257.73	17.0724
2259.15	17.5189
2260.58	16.6698
2262	16.4277
2263.43	16.1593
2264.85	15.7886
2266.28	15.5491
2267.7	14.7121
2269.13	13.4899
2270.55	13.2051
2271.97	12.5995
2273.4	12.7053
2274.82	12.929
2276.24	13.541
2277.66	12.7396
2279.09	12.4483
2280.51	12.1709
2281.93	12.2615
2283.35	12.4108
2284.77	12.6388
2286.19	13.0194
2287.61	12.3266
2289.04	12.0206
2290.46	11.2901
2291.88	10.7201
2293.29	9.52682
2294.71	8.42598
2296.13	7.5963
2297.55	8.01749
2298.97	8.74115
2300.39	9.21949
2301.81	9.95431
2303.23	10.1453
2304.64	10.6164
2306.06	10.9343
2307.48	12.0617
2308.89	12.5972
2310.31	12.6032
2311.73	12.1439
2313.14	12.7448
2314.56	13.7951
2315.97	13.632
2317.39	13.4662
2318.8	13.3221
2320.22	13.2396
2321.63	13.3449
2323.05	13.0229
2324.46	13.391
2325.88	13.7721
2327.29	13.6022
2328.7	13.1424
2330.12	12.7477
2331.53	12.4524
2332.94	13.0861
2334.35	12.9099
2335.76	12.0248
2337.18	11.633
2338.59	11.5586
2340	11.0581
2341.41	10.9145
2342.82	10.7525
2344.23	10.8046
2345.64	10.6281
2347.05	10.4893
2348.46	9.45554
2349.87	9.78965
2351.28	9.24422
2352.69	8.77792
2354.1	9.12218
2355.5	8.86365
2356.91	8.19234
2358.32	7.7567
2359.73	7.5765
2361.14	7.06913
2362.54	6.60642
2363.95	6.2494
2365.36	6.34002
2366.76	6.0287
2368.17	6.75027
2369.58	5.94005
2370.98	5.10876
2372.39	4.87608
2373.79	4.2759
2375.2	3.67499
2376.6	3.5242
2378	3.4472
2379.41	2.49001
2380.81	2.45767
2382.22	1.62347
2383.62	2.25825
2385.02	2.22247
2386.42	1.68992
2387.83	2.19191
2389.23	2.45607
2390.63	2.63079
2392.03	2.24516
2393.43	1.9729
2394.84	3.10577
2396.24	4.04671
2397.64	3.58818
2399.04	4.13606
2400.44	4.42245
2401.84	4.65725
2403.24	5.10972
2404.64	4.85453
2406.04	4.75564
2407.44	6.08561
2408.83	6.4377
2410.23	5.69459
2411.63	5.91808
2413.03	6.65857
2414.43	7.45233
2415.83	7.9839
2417.22	8.63263
2418.62	9.05123
2420.02	10.2467
2421.41	10.6361
2422.81	10.9704
2424.21	11.269
2425.6	11.1064
2427	10.7766
2428.39	10.497
2429.79	10.2465
2431.18	9.61605
2432.58	9.53828
2433.97	9.10608
2435.36	8.44003
2436.76	7.83561
2438.15	7.70009
2439.54	7.5407
2440.94	7.67766
2442.33	7.35201
2443.72	6.74561
2445.11	6.88255
2446.51	6.4846
2447.9	6.21422
2449.29	6.01404
2450.68	5.46755
2452.07	4.71328
2453.46	4.74946
2454.85	4.53812
2456.24	4.12316
2457.63	3.71374
2459.02	3.61663
2460.41	3.83331
2461.8	3.50907
2463.19	3.6359
2464.58	4.30099
2465.97	4.04244
2467.36	3.8225
2468.75	4.30698
2470.13	4.27183
2471.52	4.36981
2472.91	5.22178
2474.29	5.09031
2475.68	5.43738
2477.07	5.88841
2478.45	5.13939
2479.84	5.23416
2481.22	5.79005
2482.61	6.40869
2484	6.58724
2485.38	6.66902
2486.77	6.65713
2488.15	6.95108
2489.54	6.93125
2490.92	6.10716
2492.3	6.0257
2493.69	5.86473
2495.07	6.48107
2496.45	6.39168
2497.84	6.67722
2499.22	6.76743
2500.6	6.46386
2501.98	7.0729
2503.36	6.84807
2504.74	7.46274
2506.13	7.94953
2507.51	8.58461
2508.89	9.04862
2510.27	8.334
2511.65	8.07658
2513.03	8.19388
2514.41	7.96157
2515.79	7.70396
2517.17	8.02353
2518.55	8.08502
2519.93	7.7707
2521.3	8.12864
2522.68	8.51012
2524.06	9.14297
2525.44	9.17237
2526.82	9.75245
2528.19	10.766
2529.57	10.7971
2530.95	10.5868
2532.32	10.6369
2533.7	11.5261
2535.08	11.7572
2536.45	11.7895
2537.83	11.6406
2539.2	11.2252
2540.58	11.2834
2541.95	11.3481
2543.33	10.9832
2544.7	10.6406
2546.08	10.7533
2547.45	10.4271
2548.82	10.5009
2550.2	10.3185
2551.57	10.2647
2552.94	10.3755
2554.32	10.9144
2555.69	10.7554
2557.06	10.9683
2558.43	10.2954
2559.8	10.2704
2561.17	10.563
2562.55	10.1269
2563.92	10.2555
2565.29	9.49273
2566.66	9.10659
2568.03	8.74501
2569.4	8.78382
2570.77	10.0413
2572.14	10.2621
2573.51	10.7155
2574.88	10.7067
2576.24	10.1717
2577.61	9.0904
2578.98	8.9374
2580.35	8.91138
2581.72	8.71103
2583.09	8.41137
2584.45	8.75179
2585.82	8.59886
2587.19	8.1083
2588.55	7.99484
2589.92	7.92912
2591.28	7.60502
2592.65	6.97196
2594.02	6.25857
2595.38	6.6563
2596.75	6.10089
2598.11	5.23796
2599.48	4.8484
2600.84	4.6687
2602.2	4.7349
2603.57	4.26178
2604.93	4.04014
2606.3	3.34672
2607.66	3.58118
2609.02	3.63331
2610.38	3.01985
2611.75	3.35115
2613.11	2.87898
2614.47	2.72687
2615.83	2.41981
2617.19	2.71908
2618.56	3.02851
2619.92	3.66024
2621.28	3.65462
2622.64	3.22684
2624	2.93131
2625.36	2.83678
2626.72	2.63181
2628.08	3.14677
2629.44	3.09634
2630.8	2.98088
2632.15	3.48974
2633.51	4.12378
2634.87	4.55069
2636.23	5.50778
2637.59	6.43914
2638.94	7.01829
2640.3	7.00875
2641.66	6.51114
2643.02	6.72515
2644.37	6.34111
2645.73	6.63439
2647.08	6.70216
2648.44	6.57199
2649.8	6.55575
2651.15	6.39856
2652.51	6.60176
2653.86	6.73371
2655.22	6.54109
2656.57	6.40592
2657.92	6.3542
2659.28	6.25151
2660.63	6.54728
2661.99	6.73936
2663.34	6.80491
2664.69	6.53479
2666.04	6.29846
2667.4	6.65666
2668.75	6.43735
2670.1	6.26278
2671.45	6.04092
2672.81	5.40808
2674.16	5.12585
2675.51	5.31433
2676.86	4.63003
2678.21	4.40283
2679.56	4.26689
2680.91	3.58864
2682.26	3.34954
2683.61	3.67424
2684.96	3.74811
2686.31	3.46592
2687.66	3.36777
2689	2.33403
2690.35	2.55024
2691.7	3.13052
2693.05	2.92338
2694.4	3.07851
2695.74	3.14823
2697.09	3.35815
2698.44	3.87083
2699.79	3.84649
2701.13	3.98652
2702.48	3.90532
2703.82	4.78956
2705.17	4.84851
2706.52	4.45713
2707.86	4.58095
2709.21	4.15757
2710.55	4.66635
2711.9	4.63022
2713.24	4.49903
2714.58	4.12039
2715.93	4.36937
2717.27	4.56179
2718.61	4.43884
2719.96	4.41491
2721.3	4.91077
2722.64	5.02755
2723.99	4.89975
2725.33	5.34842
2726.67	5.4
2728.01	5.69396
2729.35	5.67535
2730.7	5.49066
2732.04	5.49013
2733.38	5.82377
2734.72	6.09097
2736.06	5.89552
2737.4	6.36442
2738.74	6.41742
2740.08	6.04572
2741.42	6.29995
2742.76	5.99177
2744.09	5.5821
2745.43	5.36905
2746.77	5.22963
2748.11	5.61748
2749.45	5.52595
2750.79	5.6978
2752.12	5.50549
2753.46	5.37621
2754.8	5.54598
2756.13	5.34625
2757.47	5.27888
2758.81	4.71722
2760.14	4.57127
2761.48	4.76922
2762.81	4.27784
2764.15	4.23123
2765.49	3.58064
2766.82	3.11853
2768.15	2.78925
2769.49	2.16077
2770.82	2.41677
2772.16	1.85465
2773.49	1.1925
2774.82	1.18549
2776.16	0.92296
2777.49	0.731638
2778.82	0.710352
2780.16	-0.222357
2781.49	-0.544432
2782.82	-0.520931
2784.15	-0.848499
2785.48	-1.12267
2786.81	-1.4484
2788.15	-1.16945
2789.48	-1.25187
2790.81	-1.36018
2792.14	-0.901977
2793.47	-0.569932
2794.8	-0.336181
2796.13	-0.897061
2797.46	-0.976965
2798.79	-1.16084
2800.12	-1.10488
2801.44	-0.825767
2802.77	-0.801384
2804.1	-0.608026
2805.43	-0.754954
2806.76	-0.28499
2808.08	-0.204595
2809.41	-0.025874
2810.74	0.0666263
2812.07	0.639445
2813.39	1.21856
2814.72	2.07411
2816.05	3.22405
2817.37	3.93362
2818.7	4.67074
2820.02	5.34524
2821.35	6.48871
2822.67	6.84118
2824	7.8269
2825.32	9.7797
2826.65	11.4024
2827.97	12.3524
2829.29	12.4321
2830.62	13.978
2831.94	15.8971
2833.26	18.0308
2834.59	19.5998
2835.91	21.1714
2837.23	23.9796
2838.55	25.8623
2839.88	28.2429
2841.2	31.4847
2842.52	34.2086
2843.84	37.072
2845.16	39.7909
2846.48	42.9103
2847.8	46.276
2849.12	49.664
2850.44	53.2607
2851.76	56.9394
2853.08	60.62
2854.4	64.2982
2855.72	67.5906
2857.04	70.7656
2858.36	73.9037
2859.68	76.8223
2861	79.9112
2862.32	82.5723
2863.63	86.2726
2864.95	89.2344
2866.27	92.7463
2867.58	95.91
2868.9	98.328
2870.22	101.046
2871.53	103.697
2872.85	106.163
2874.17	108.223
2875.48	110.043
2876.8	112.255
2878.11	114.324
2879.43	116.67
2880.74	118.755
2882.06	120.95
2883.37	122.268
2884.69	124.174
2886	125.859
2887.31	127.236
2888.63	128.613
2889.94	130.597
2891.25	132.848
2892.57	133.618
2893.88	135.197
2895.19	136.478
2896.5	139.296
2897.82	141.915
2899.13	143.191
2900.44	144.958
2901.75	147.024
2903.06	150.107
2904.37	152.755
2905.68	155.564
2906.99	158.395
2908.3	160.995
2909.61	163.974
2910.92	167.248
2912.23	170.434
2913.54	173.778
2914.85	177.429
2916.16	180.995
2917.46	183.785
2918.77	186.67
2920.08	189.067
2921.39	191.928
2922.7	194.476
2924	196.253
2925.31	198.27
2926.62	200.311
2927.92	201.816
2929.23	202.612
2930.53	203.187
2931.84	202.736
2933.15	202.091
2934.45	201.623
2935.76	200.808
2937.06	199.583
2938.37	197.279
2939.67	195.194
2940.98	192.354
2942.28	190.271
2943.58	187.64
2944.89	185.12
2946.19	181.706
2947.49	179.01
2948.8	175.818
2950.1	171.982
2951.4	168.263
2952.7	163.793
2954.01	160.594
2955.31	156.638
2956.61	153.257
2957.91	148.646
2959.21	144.982
2960.51	140.687
2961.81	137.026
2963.11	132.81
2964.41	128.064
2965.71	124.135
2967.01	120.008
2968.31	115.875
2969.61	112.533
2970.91	108.803
2972.21	105.652
2973.51	102.653
2974.81	99.6653
2976.1	96.7257
2977.4	92.8895
2978.7	90.5032
2980	87.4038
2981.29	84.2635
2982.59	80.6477
2983.89	77.1884
2985.18	74.0039
2986.48	71.2946
2987.78	67.8911
2989.07	64.8532
2990.37	62.1444
2991.66	58.8437
2992.96	55.6079
2994.25	51.7436
2995.55	48.6032
2996.84	44.6039
2998.14	41.2853
2999.43	38.3274
3000.72	35.3178
3002.02	32.3768
3003.31	29.4977
3004.6	26.9376
3005.9	24.3671
3007.19	22.5218
3008.48	20.4249
3009.77	18.4009
3011.07	16.4229
3012.36	14.993
3013.65	13.5285
3014.94	11.489
3016.23	10.4771
3017.52	9.13905
3018.81	8.47276
3020.1	7.33928
3021.39	6.47806
3022.68	5.8577
3023.97	4.99403
3025.26	4.1154
3026.55	3.69722
3027.84	2.87995
3029.13	2.45834
3030.42	2.66957
3031.71	2.50913
3033	2.19592
3034.28	2.57969
3035.57	2.13267
3036.86	2.48758
3038.15	2.83898
3039.43	2.62408
3040.72	2.46442
3042.01	2.64829
3043.29	3.57722
3044.58	4.37023
3045.86	4.73453
3047.15	5.17961
3048.44	6.36496
3049.72	7.30795
3051.01	8.39884
3052.29	8.34161
3053.58	9.11182
3054.86	9.52537
3056.14	8.95299
3057.43	8.77958
3058.71	8.44903
3060	7.96057
3061.28	7.83862
3062.56	7.84071
3063.84	7.67272
3065.13	7.95004
3066.41	7.77096
3067.69	7.57443
3068.97	7.30193
3070.25	7.11639
3071.54	6.75875
3072.82	6.44963
3074.1	5.7069
3075.38	5.43698
3076.66	5.60801
3077.94	5.73458
3079.22	5.4486
3080.5	5.13192
3081.78	4.82259
3083.06	4.43432
3084.34	3.95966
3085.62	3.48191
3086.9	3.33688
3088.17	2.9826
3089.45	2.99775
3090.73	2.72741
3092.01	1.9191
3093.29	1.85046
3094.56	1.56342
3095.84	0.821822
3097.12	0.565027
3098.4	0.536936
3099.67	0.640932
3100.95	0.720309
3102.22	0.555302
3103.5	0.32915
3104.77	1.07972
3106.05	2.06406
3107.33	2.55587
3108.6	3.24129
3109.88	3.28679
3111.15	3.71316
3112.43	4.16536
3113.7	4.70076
3114.97	5.35906
3116.25	5.64841
3117.52	6.33083
3118.79	6.18596
3120.07	6.00707
3121.34	6.69606
3122.61	7.07872
3123.88	7.27836
3125.16	7.96914
3126.43	8.23205
3127.7	8.60075
3128.97	9.7077
3130.24	9.79314
3131.51	10.2504
3132.78	10.4536
3134.05	10.7367
3135.33	11.1971
3136.59	11.9179
3137.86	12.039
3139.14	12.8438
3140.41	12.9695
3141.67	12.6254
3142.94	12.1109
3144.21	11.5197
3145.48	10.6983
3146.75	9.84802
3148.02	9.11417
3149.28	7.57288
