#Acq. time (s)=	45
#Accumulations=	2
#Range (cm-¹)=	200...3150
#Windows=	2
#Auto scanning=	Off
#Autofocus=	Off
#Macrospot=	Off
#AutoExposure=	Off
#Spike filter=	Multiple accum.
#Delay time (s)=	0
#Binning=	1
#Readout mode=	Signal
#DeNoise=	Off
#ICS correction=	On
#Dark correction=	Off
#Inst. Process=	Off
#Detector Gain=	Best Dynamic Range
#Detector ADC=	20 kHz       
#Detector temperature (°C)=	-69.85
#Instrument=	LabRAM HR Evol
#Detector=	Synapse
#Objective=	x100
#Grating=	600 gr/mm
#ND Filter=	100%
#Laser (nm)=	532 
#Hole=	100.021
#Range=	Auto
#Laser Pol.=	No
#Raman. Pol.=	No
#Laser Pol. (°)=	-0.0007625
#Raman Pol. (°)=	89.9995
#Collection=	Microscope
#StageXY=	Marzhauser
#StageZ=	Marzhauser
#X (µm)=	-611.8
#Y (µm)=	-1589.8
#Z (µm)=	89.85
#Full time(mm:ss)=	3:18
#Project=	
#Sample=	
#Site=	
#Title=	Mb_10_14_28_2x_45s_532 nm_x100_100%_600 gr_mm
#Remark=	
#Date=	11.07.2022 10:37
#Acquired=	11.07.2022 10:37:04
#Base:Fit=	10.08.2022 10:21:11
#Base:Sub=	10.08.2022 10:21:41
#Filter:Polynom=	16.08.2022 10:17:53
#AxisType[0]=Intens
#AxisUnit[0]=Cnt
#AxisType[1]=Spectr
#AxisUnit[1]=1/cm
200.388	29.8126
202.204	26.1183
204.019	21.5728
205.832	17.2642
207.646	14.1233
209.459	11.4207
211.274	9.22285
213.087	7.74124
214.899	6.36525
216.711	6.18802
218.524	5.29634
220.335	5.35035
222.146	5.8795
223.956	7.44542
225.766	8.48133
227.576	9.04314
229.388	9.72753
231.197	10.4215
233.005	11.0807
234.813	12.1008
236.621	13.4465
238.429	14.9562
240.236	15.5471
242.045	16.3976
243.852	17.8219
245.658	18.1952
247.464	18.7647
249.269	20.0466
251.074	20.4336
252.879	21.2071
254.683	22.6503
256.487	22.1992
258.291	23.3152
260.094	23.7883
261.897	24.1647
263.702	23.3532
265.504	23.144
267.306	22.9862
269.108	22.9288
270.909	22.0123
272.71	21.3854
274.511	20.7387
276.311	20.2343
278.111	19.4617
279.91	18.3695
281.709	16.833
283.508	15.0464
285.306	14.1102
287.105	13.5217
288.9	13.3286
290.698	13.6094
292.495	13.0592
294.291	12.8679
296.088	11.9321
297.884	10.9773
299.679	10.7233
301.475	10.1232
303.27	9.71371
305.064	8.79983
306.858	8.69508
308.652	8.81378
310.444	8.74157
312.237	8.94272
314.03	8.64455
315.822	8.80387
317.615	8.87497
319.406	9.22793
321.198	9.22118
322.987	9.96955
324.778	10.4067
326.568	11.0767
328.358	11.7509
330.148	11.8204
331.935	11.8886
333.724	11.7689
335.513	11.4616
337.301	10.8586
339.089	11.6766
340.875	11.8551
342.662	12.6704
344.449	12.6004
346.236	13.0647
348.02	14.5993
349.806	14.2316
351.592	14.4866
353.375	14.0643
355.16	14.5395
356.944	15.4513
358.728	16.2927
360.51	17.0556
362.294	18.1229
364.077	18.0897
365.858	18.6246
367.64	18.6121
369.422	19.0613
371.202	19.78
372.983	20.7337
374.764	22.3918
376.543	22.9283
378.324	24.2787
380.102	24.8993
381.881	24.6136
383.661	24.541
385.438	25.3309
387.216	26.0358
388.993	26.0269
390.771	25.8217
392.548	26.3017
394.324	26.6954
396.101	27.5727
397.875	27.6771
399.651	26.1466
401.425	26.1415
403.201	25.6458
404.974	26.1338
406.749	25.4586
408.524	24.9603
410.296	25.1728
412.07	25.4504
413.841	25.1852
415.614	24.809
417.385	24.3059
419.156	23.4141
420.928	22.0298
422.698	21.3768
424.469	21.4603
426.238	20.6012
428.009	20.1479
429.777	19.1644
431.548	18.482
433.315	17.6566
435.083	16.6254
436.852	16.3419
438.618	15.5675
440.387	14.2244
442.153	13.2977
443.919	13.2973
445.686	13.803
447.451	13.7899
449.218	14.264
450.982	13.1834
452.746	13.3755
454.512	13.4705
456.275	13.5987
458.038	14.389
459.803	14.3218
461.565	15.1639
463.327	15.9796
465.091	16.9945
466.852	17.6735
468.613	16.9494
470.374	17.1397
472.136	17.5811
473.896	17.8027
475.655	17.3552
477.415	17.8797
479.176	18.1697
480.934	19.0011
482.692	19.3444
484.45	19.3483
486.21	20.0264
487.967	20.2229
489.724	20.7532
491.481	22.3173
493.237	22.7112
494.995	23.7699
496.75	24.6051
498.506	25.3022
500.26	25.5598
502.015	25.8184
503.769	25.2936
505.525	26.6101
507.279	26.889
509.032	27.2808
510.785	27.8171
512.537	28.6133
514.289	28.7169
516.041	28.5436
517.793	29.2214
519.546	28.7191
521.297	28.4123
523.047	27.8773
524.797	28.5473
526.547	27.3653
528.297	27.4187
530.046	27.1427
531.795	27.3249
533.543	28.1619
535.291	27.5789
537.039	26.8166
538.787	25.3659
540.534	25.9735
542.281	25.1906
544.027	25.4747
545.773	24.6643
547.519	23.7607
549.264	23.521
551.01	21.7991
552.754	21.8964
554.499	20.0372
556.243	19.4304
557.987	18.9714
559.73	17.8141
561.474	17.4335
563.216	17.294
564.959	16.6822
566.701	15.2421
568.441	15.5407
570.182	15.006
571.923	14.5984
573.664	13.6592
575.405	11.9876
577.145	10.7981
578.885	10.7925
580.624	9.4083
582.361	9.79994
584.1	9.2859
585.839	8.63836
587.577	8.13601
589.315	7.13528
591.052	7.15498
592.787	6.95104
594.524	6.2645
596.26	5.84333
597.997	5.03786
599.732	4.08575
601.466	4.90009
603.201	4.29519
604.936	4.23387
606.67	3.36373
608.403	3.67434
610.136	3.72451
611.87	3.91575
613.603	3.8154
615.334	3.79178
617.067	3.52254
618.799	4.41103
620.529	4.66961
622.26	4.04251
623.991	4.6069
625.72	5.08877
627.451	6.70218
629.181	7.56825
630.909	8.14925
632.638	8.4589
634.368	9.66769
636.095	11.3898
637.823	11.0453
639.551	12.6533
641.277	12.5043
643.005	14.0014
644.73	14.1653
646.457	15.6903
648.184	16.2796
649.908	16.0572
651.634	15.9772
653.357	17.505
655.083	19.5696
656.806	19.2805
658.53	19.1463
660.253	19.1163
661.977	19.628
663.7	20.2597
665.422	21.6216
667.145	21.6299
668.865	21.6107
670.588	21.5625
672.308	21.7034
674.027	21.9264
675.749	22.1168
677.468	23.4149
679.188	22.8456
680.907	23.6801
682.627	23.7506
684.345	23.6008
686.064	23.8507
687.781	24.9489
689.498	24.9278
691.216	24.5598
692.932	24.4218
694.65	25.9173
696.366	26.4394
698.081	26.3256
699.797	27.2788
701.512	27.3121
703.228	27.5906
704.942	28.3819
706.655	28.8241
708.371	29.7014
710.083	30.0412
711.796	30.7057
713.51	31.8868
715.222	32.3838
716.934	32.4444
718.645	33.7452
720.358	34.6548
722.068	35.7759
723.779	35.1905
725.49	36.3887
727.2	36.5004
728.909	37.3302
730.618	37.8521
732.329	38.7564
734.037	39.4263
735.745	40.5199
737.453	42.035
739.16	45.1596
740.869	46.0644
742.576	46.9056
744.282	48.0105
745.988	50.5312
747.694	52.1647
749.401	53.1279
751.107	54.501
752.811	55.6168
754.516	57.518
756.22	60.1418
757.924	61.5005
759.627	62.1641
761.332	63.487
763.035	64.1914
764.738	64.2741
766.44	65.859
768.142	66.5257
769.843	67.3255
771.544	68.7169
773.245	69.6282
774.946	70.9519
776.646	71.0695
778.346	73.0789
780.046	74.8698
781.745	75.2705
783.444	75.9681
785.143	76.7329
786.841	76.0925
788.539	76.093
790.237	76.3823
791.934	76.2975
793.631	76.2666
795.328	76.8559
797.024	77.1055
798.72	77.5656
800.416	77.7085
802.112	78.0586
803.807	78.9571
805.502	78.9266
807.196	78.9624
808.89	77.8736
810.584	77.7962
812.278	76.8742
813.971	76.325
815.664	76.9904
817.354	76.8662
819.047	77.3227
820.739	77.3735
822.43	77.3122
824.122	78.062
825.813	77.0636
827.503	76.9737
829.192	76.5289
830.882	76.987
832.571	76.2786
834.261	75.7532
835.95	76.2199
837.637	75.0992
839.325	73.4632
841.013	71.3638
842.701	68.9748
844.389	66.9152
846.074	65.6294
847.761	63.6293
849.447	63.2127
851.131	62.6228
852.817	60.9059
854.503	59.1696
856.188	58.3876
857.871	56.0825
859.556	55.8651
861.24	55.1639
862.922	54.9681
864.606	54.2407
866.289	53.7083
867.97	51.8212
869.653	51.3787
871.336	50.1109
873.016	50.5924
874.698	50.3206
876.379	50.3427
878.058	50.3939
879.739	51.1222
881.418	51.8216
883.098	52.0763
884.778	52.3307
886.456	52.024
888.135	51.6688
889.812	50.6381
891.49	48.9935
893.167	47.9803
894.845	48.3618
896.523	48.2432
898.198	49.3528
899.875	50.1836
901.55	50.4406
903.226	50.4756
904.901	50.9617
906.576	51.716
908.25	52.4525
909.925	52.9284
911.598	53.7136
913.271	54.0993
914.945	54.1229
916.617	54.4917
918.291	53.7445
919.962	53.0993
921.635	51.9903
923.306	51.6508
924.978	52.0342
926.648	52.7364
928.318	52.7208
929.989	52.6172
931.659	52.733
933.328	53.608
934.998	52.3507
936.666	51.701
938.336	51.1209
940.004	50.8774
941.671	50.0672
943.34	51.1334
945.007	50.3105
946.673	49.4648
948.339	48.4124
950.007	47.7559
951.672	47.1571
953.337	48.5013
955.004	47.1967
956.669	47.3479
958.333	46.6737
959.997	45.3179
961.662	44.7778
963.326	45.1291
964.989	45.1254
966.651	44.6975
968.315	44.4383
969.977	44.18
971.639	44.0272
973.301	43.9917
974.962	44.7517
976.624	45.7025
978.285	46.8259
979.945	47.4725
981.605	47.4383
983.264	46.8267
984.924	46.8838
986.583	46.1762
988.243	46.4139
989.901	46.1531
991.56	45.3423
993.217	44.8864
994.875	43.8371
996.532	42.4171
998.188	41.5211
999.845	41.3987
1001.5	40.336
1003.16	40.8236
1004.81	40.3027
1006.47	39.708
1008.12	39.3378
1009.78	38.9919
1011.43	37.5608
1013.09	36.9594
1014.74	38.0529
1016.39	37.8039
1018.05	36.4795
1019.7	36.6701
1021.35	36.5644
1023	36.0278
1024.65	35.8862
1026.31	35.1542
1027.96	35.2412
1029.61	34.9012
1031.26	35.6591
1032.91	36.2512
1034.56	36.9442
1036.21	37.3049
1037.86	36.3502
1039.51	37.5372
1041.16	37.0788
1042.8	36.3688
1044.45	37.8565
1046.1	39.0981
1047.75	38.7017
1049.39	39.007
1051.04	38.3357
1052.69	37.8252
1054.33	37.0519
1055.98	38.1496
1057.62	38.2005
1059.27	37.5279
1060.91	37.262
1062.56	35.67
1064.2	33.4223
1065.85	33.0396
1067.49	32.9784
1069.13	31.3206
1070.77	29.7243
1072.42	28.2731
1074.06	27.7047
1075.7	26.5009
1077.34	25.1264
1078.98	24.5683
1080.62	23.9709
1082.27	22.8231
1083.91	21.5034
1085.55	20.9579
1087.18	19.4822
1088.82	19.6156
1090.46	19.5987
1092.1	19.2007
1093.74	18.5916
1095.38	19.8845
1097.02	20.0462
1098.65	18.2846
1100.29	18.7303
1101.93	19.1176
1103.56	19.343
1105.2	19.3551
1106.84	19.1103
1108.47	19.2085
1110.11	19.2111
1111.74	19.1926
1113.38	19.796
1115.01	20.0731
1116.64	19.9388
1118.28	19.391
1119.91	18.63
1121.54	18.3347
1123.18	17.7968
1124.81	17.7142
1126.44	18.4233
1128.07	18.3371
1129.7	17.8942
1131.33	18.5951
1132.97	19.1413
1134.6	19.1262
1136.23	19.8121
1137.86	20.8544
1139.49	20.6842
1141.11	20.0345
1142.74	19.3755
1144.37	17.8568
1146	17.8502
1147.63	17.1574
1149.26	15.7687
1150.88	14.1828
1152.51	13.0975
1154.14	13.3167
1155.76	13.6399
1157.39	12.4845
1159.01	12.2696
1160.64	11.584
1162.27	10.7741
1163.89	10.3063
1165.51	11.003
1167.14	11.4134
1168.76	10.9458
1170.39	11.8706
1172.01	11.1875
1173.63	11.5286
1175.25	12.2085
1176.88	12.6663
1178.5	11.4677
1180.12	11.8586
1181.74	11.9531
1183.36	11.1349
1184.98	10.8564
1186.6	11.135
1188.22	10.8292
1189.84	12.0948
1191.46	12.4168
1193.08	13.7375
1194.7	14.0803
1196.32	15.2611
1197.94	15.0192
1199.55	16.3848
1201.17	17.6453
1202.79	17.7164
1204.41	18.3189
1206.02	18.8657
1207.64	19.5931
1209.25	21.1766
1210.87	21.905
1212.48	22.5633
1214.1	22.7553
1215.71	23.2255
1217.33	25.2661
1218.94	25.6136
1220.56	25.8952
1222.17	26.2291
1223.79	26.8445
1225.4	27.3195
1227.01	28.5759
1228.62	29.2626
1230.23	31.2903
1231.85	32.5232
1233.46	33.8815
1235.07	35.3754
1236.68	35.5639
1238.29	36.3284
1239.9	37.5451
1241.51	37.1547
1243.12	37.4213
1244.73	37.7239
1246.34	38.3365
1247.94	38.305
1249.55	37.9004
1251.16	38.8009
1252.77	37.8984
1254.37	38.3929
1255.98	38.346
1257.59	37.9913
1259.2	37.1121
1260.8	37.668
1262.41	37.4395
1264.01	38.0032
1265.62	37.5779
1267.22	38.12
1268.83	38.3389
1270.43	38.6847
1272.03	38.0935
1273.64	38.5867
1275.24	38.18
1276.85	37.9889
1278.45	37.1771
1280.05	37.4201
1281.65	36.4532
1283.25	36.4488
1284.85	37.1625
1286.46	38.0159
1288.06	39.8192
1289.66	40.4675
1291.26	39.6179
1292.86	39.9941
1294.46	40.9687
1296.06	42.768
1297.66	44.5594
1299.25	45.2739
1300.85	46.3963
1302.45	47.3777
1304.05	48.2462
1305.65	49.4998
1307.24	50.2909
1308.84	51.6224
1310.43	52.1684
1312.03	52.1548
1313.63	52.3722
1315.22	53.407
1316.82	54.4535
1318.41	56.4245
1320.01	57.2564
1321.6	56.9941
1323.2	57.3901
1324.79	57.9369
1326.38	58.4877
1327.98	58.2888
1329.57	57.9075
1331.16	58.6048
1332.76	57.7118
1334.35	58.0371
1335.94	57.8742
1337.53	57.9566
1339.12	57.1546
1340.71	57.0408
1342.3	55.8325
1343.89	54.42
1345.48	52.7059
1347.07	53.384
1348.66	52.5349
1350.25	52.09
1351.84	51.4279
1353.43	50.598
1355.01	49.0283
1356.6	48.7322
1358.19	47.0583
1359.77	46.2924
1361.36	45.6096
1362.95	45.2041
1364.53	44.1498
1366.12	42.8801
1367.71	42.1076
1369.29	40.1974
1370.88	38.796
1372.46	38.4679
1374.04	37.7284
1375.63	36.8965
1377.21	36.5086
1378.8	35.9118
1380.38	35.1378
1381.96	34.096
1383.54	34.584
1385.13	34.2844
1386.71	33.494
1388.29	34.2449
1389.87	33.4778
1391.45	34.2823
1393.03	34.5313
1394.61	35.0181
1396.19	35.0488
1397.77	35.4928
1399.35	34.7673
1400.93	33.0639
1402.51	34.077
1404.09	34.653
1405.67	34.6811
1407.24	35.0623
1408.82	35.8373
1410.4	36.8855
1411.98	38.6552
1413.55	40.4944
1415.13	41.9129
1416.71	43.2368
1418.28	43.8738
1419.86	45.729
1421.43	47.5843
1423.01	49.3591
1424.58	50.9075
1426.16	53.8975
1427.73	55.4994
1429.31	58.4872
1430.88	60.3151
1432.45	62.3856
1434.02	64.1019
1435.6	66.3989
1437.17	67.3487
1438.74	69.7538
1440.31	70.5794
1441.88	71.1947
1443.45	71.8194
1445.03	72.0209
1446.6	72.543
1448.17	73.9253
1449.74	74.2797
1451.3	74.8501
1452.87	74.9889
1454.44	75.0657
1456.01	75.1354
1457.58	74.6754
1459.15	74.3147
1460.72	73.1905
1462.28	74.0174
1463.85	72.7186
1465.42	70.9138
1466.98	69.8431
1468.55	68.2611
1470.12	67.6551
1471.68	65.3331
1473.25	63.6753
1474.81	62.5648
1476.38	60.2857
1477.94	58.2699
1479.51	56.3966
1481.07	55.286
1482.63	52.8265
1484.2	50.8568
1485.76	50.3718
1487.32	49.0741
1488.88	47.8698
1490.45	46.6835
1492.01	43.8588
1493.57	42.1803
1495.13	41.1043
1496.69	39.7339
1498.25	38.6342
1499.81	37.7356
1501.37	35.567
1502.93	34.6009
1504.49	33.9286
1506.05	33.0845
1507.61	32.0136
1509.17	29.9615
1510.73	28.7203
1512.28	26.9205
1513.84	25.788
1515.4	23.3658
1516.96	22.5297
1518.51	21.5721
1520.07	20.4847
1521.63	19.8297
1523.18	19.1879
1524.74	18.3822
1526.29	18.2174
1527.85	16.6966
1529.4	15.7975
1530.96	15.6088
1532.51	14.8112
1534.06	14.6369
1535.62	14.7834
1537.17	15.5206
1538.72	15.4715
1540.28	15.8387
1541.83	15.4007
1543.38	15.3552
1544.93	17.112
1546.48	17.9671
1548.03	18.3087
1549.59	18.1617
1551.14	18.4562
1552.69	18.9828
1554.24	19.2734
1555.79	20.209
1557.34	20.8123
1558.88	20.8839
1560.43	21.7468
1561.98	22.3309
1563.53	23.9304
1565.08	23.8408
1566.62	24.3605
1568.17	24.6804
1569.72	26.36
1571.27	27.8662
1572.81	29.0375
1574.36	30.2617
1575.9	31.4301
1577.45	32.3037
1579	33.1011
1580.54	34.4403
1582.09	34.8921
1583.63	35.351
1585.17	36.4398
1586.72	36.8602
1588.26	38.3569
1589.8	38.2502
1591.35	39.4228
1592.89	39.8281
1594.43	41.6271
1595.97	41.9385
1597.52	42.2212
1599.06	42.9992
1600.6	42.6472
1602.14	42.5116
1603.68	42.6563
1605.22	42.3115
1606.76	42.0534
1608.3	42.7472
1609.84	43.0704
1611.38	43.845
1612.92	44.3397
1614.46	44.1333
1615.99	44.4272
1617.53	44.8047
1619.07	45.5165
1620.61	46.1859
1622.14	47.3949
1623.68	46.9226
1625.22	47.0277
1626.75	47.2184
1628.29	47.5703
1629.82	47.7976
1631.36	48.2906
1632.9	48.9077
1634.43	49.3281
1635.96	49.5135
1637.5	50.6817
1639.03	51.2439
1640.57	52.3327
1642.1	52.8785
1643.63	54.3319
1645.16	55.4485
1646.7	56.8207
1648.23	57.0001
1649.76	58.6106
1651.29	59.4148
1652.82	59.9414
1654.36	59.3394
1655.89	59.5327
1657.42	58.9669
1658.95	58.1618
1660.48	58.2761
1662.01	58.6328
1663.53	57.1285
1665.06	57.2146
1666.59	56.1082
1668.12	55.7106
1669.65	54.1755
1671.18	52.6724
1672.7	51.7695
1674.23	49.5871
1675.76	47.2765
1677.29	45.6114
1678.81	44.4571
1680.34	42.5316
1681.86	40.7428
1683.39	38.6693
1684.91	36.9672
1686.44	34.6279
1687.96	32.4011
1689.49	30.8584
1691.01	29.2614
1692.54	27.5962
1694.06	26.0719
1695.58	24.9863
1697.11	22.5897
1698.63	21.325
1700.15	19.13
1701.67	17.5044
1703.2	16.7514
1704.72	15.4394
1706.24	13.6978
1707.76	12.9203
1709.28	11.7985
1710.8	10.5398
1712.32	9.81134
1713.84	8.98328
1715.36	7.56221
1716.88	7.65993
1718.4	7.62245
1719.91	6.89433
1721.43	6.08745
1722.95	5.22637
1724.47	4.95295
1725.99	5.37506
1727.5	4.25285
1729.02	3.52774
1730.54	2.32972
1732.05	2.72364
1733.57	2.40609
1735.09	2.03061
1736.6	2.43202
1738.12	2.26198
1739.63	1.50502
1741.15	1.66214
1742.66	1.38151
1744.18	1.653
1745.69	2.14592
1747.2	1.81021
1748.72	2.15858
1750.23	1.48822
1751.74	2.15393
1753.25	2.67719
1754.77	2.68072
1756.28	2.11235
1757.79	1.52722
1759.3	0.689453
1760.81	0.882165
1762.32	1.6713
1763.83	1.90348
1765.34	2.57044
1766.85	1.87192
1768.36	1.38
1769.87	1.74723
1771.38	1.78563
1772.89	0.822015
1774.4	1.74519
1775.91	1.00677
1777.41	1.0513
1778.92	1.46187
1780.43	0.878825
1781.94	0.737383
1783.44	0.951231
1784.95	1.52448
1786.45	2.01042
1787.96	2.07627
1789.47	2.00752
1790.97	1.45435
1792.47	1.95484
1793.98	1.40236
1795.48	1.02982
1796.99	1.16166
1798.49	1.01617
1800	1.34792
1801.5	1.3742
1803	0.705366
1804.51	0.33832
1806.01	0.822702
1807.51	1.13834
1809.01	1.31387
1810.51	1.81128
1812.02	1.63673
1813.52	1.68135
1815.02	1.51902
1816.52	1.79897
1818.02	2.25666
1819.52	2.42787
1821.02	2.21479
1822.52	1.98862
1824.02	2.28814
1825.51	2.45472
1827.01	2.70766
1828.51	2.73525
1830.01	2.94959
1831.51	2.8561
1833	3.00346
1834.5	3.42454
1836	3.72726
1837.49	4.37532
1838.99	3.87635
1840.49	3.66219
1841.98	3.38326
1843.48	3.37896
1844.97	3.13191
1846.47	2.91492
1847.96	3.28272
1849.46	3.47042
1850.95	3.73606
1852.45	4.0467
1853.94	4.53019
1855.43	4.43848
1856.92	4.25044
1858.42	4.8482
1859.91	5.18918
1861.4	5.13473
1862.89	4.62789
1864.39	4.58511
1865.88	4.53023
1867.37	4.7926
1868.86	4.73519
1870.35	4.8279
1871.84	5.14357
1873.33	4.89694
1874.82	4.73176
1876.31	4.49318
1877.8	4.53695
1879.29	5.01573
1880.77	5.69238
1882.26	4.93016
1882.52	4.29811
1884.02	4.17272
1885.51	3.74274
1887.01	3.75796
1888.5	3.29086
1889.99	3.04232
1891.49	2.99526
1892.98	3.16443
1894.47	3.50546
1895.96	3.60484
1897.46	3.54198
1898.95	3.88295
1900.44	4.5278
1901.93	4.84821
1903.42	5.19169
1904.91	5.45068
1906.4	5.54677
1907.89	5.65184
1909.38	5.58146
1910.87	4.91582
1912.36	4.15756
1913.85	4.88788
1915.34	5.24409
1916.83	4.94687
1918.32	4.94466
1919.8	5.28489
1921.29	6.52515
1922.78	5.85447
1924.27	6.58578
1925.75	6.61633
1927.24	7.04921
1928.73	6.83579
1930.21	6.75072
1931.7	7.83928
1933.18	7.0951
1934.67	7.25794
1936.15	6.65556
1937.64	6.63829
1939.12	6.59956
1940.61	6.81583
1942.09	6.92249
1943.57	6.87824
1945.06	7.03431
1946.54	5.99833
1948.02	5.33599
1949.51	4.67318
1950.99	4.27071
1952.47	4.06952
1953.95	3.42249
1955.43	2.47009
1956.91	2.16623
1958.39	2.15187
1959.87	1.7813
1961.36	0.955863
1962.84	0.944845
1964.32	0.626378
1965.79	0.406561
1967.27	0.185822
1968.75	0.126975
1970.23	-0.419352
1971.71	-0.606825
1973.19	-0.441091
1974.66	-0.104456
1976.14	-0.248787
1977.62	-0.0235945
1979.1	0.096618
1980.57	-0.634742
1982.05	-0.91527
1983.53	-0.859131
1985	-1.35737
1986.48	-0.463804
1987.95	0.0108326
1989.43	-0.205373
1990.9	0.288031
1992.38	0.758687
1993.85	1.2442
1995.33	1.83393
1996.8	1.79615
1998.27	2.33437
1999.75	2.51189
2001.22	2.8749
2002.69	2.32808
2004.16	2.28503
2005.64	3.03774
2007.11	2.43152
2008.58	2.92794
2010.05	2.97744
2011.52	3.49235
2012.99	3.79783
2014.46	4.52057
2015.93	4.66085
2017.4	4.98926
2018.87	4.53142
2020.34	4.68792
2021.81	4.17909
2023.28	4.21932
2024.75	5.02531
2026.22	5.35642
2027.69	5.75867
2029.15	6.12391
2030.62	6.08311
2032.09	5.6776
2033.56	6.35625
2035.02	6.30576
2036.49	5.80101
2037.95	5.79912
2039.42	6.09231
2040.89	6.29323
2042.35	6.46344
2043.82	6.18209
2045.28	6.63199
2046.75	6.69462
2048.21	6.72045
2049.67	7.24181
2051.14	6.95235
2052.6	6.42944
2054.06	6.40599
2055.53	7.15464
2056.99	7.35736
2058.45	6.7962
2059.92	7.66168
2061.38	8.04768
2062.84	8.70907
2064.3	8.66703
2065.76	8.46088
2067.22	8.39987
2068.68	9.14085
2070.14	9.28614
2071.6	9.49866
2073.06	9.72568
2074.52	9.96589
2075.98	9.8869
2077.44	10.5157
2078.9	10.7697
2080.36	10.328
2081.82	10.1808
2083.27	10.1948
2084.73	9.85905
2086.19	9.96849
2087.65	10.1051
2089.1	9.65125
2090.56	8.9901
2092.01	8.43804
2093.47	8.89952
2094.93	8.10878
2096.38	9.02677
2097.84	9.53637
2099.29	8.72865
2100.75	8.91908
2102.2	8.33639
2103.66	8.16128
2105.11	7.52048
2106.56	8.026
2108.02	8.00207
2109.47	8.41684
2110.92	8.78681
2112.37	8.24181
2113.83	8.13196
2115.28	8.67096
2116.73	9.29455
2118.18	9.49534
2119.63	9.74801
2121.09	11.0533
2122.54	11.8483
2123.99	12.1249
2125.44	13.087
2126.89	13.7189
2128.34	13.8811
2129.79	15.1086
2131.23	16.2416
2132.68	17.5209
2134.13	18.2631
2135.58	18.4263
2137.03	19.1262
2138.48	20.2987
2139.92	20.6487
2141.37	21.5801
2142.82	21.7786
2144.26	22.4871
2145.71	22.8174
2147.16	24.1168
2148.6	24.7356
2150.05	25.0709
2151.49	25.1122
2152.94	25.3202
2154.38	25.1943
2155.83	25.1698
2157.27	24.7421
2158.72	24.6689
2160.16	24.5118
2161.6	24.5287
2163.05	25.5367
2164.49	26.6177
2165.93	26.7431
2167.38	26.5005
2168.82	26.7165
2170.26	26.063
2171.7	26.5072
2173.14	26.7671
2174.58	26.778
2176.03	26.9646
2177.47	27.3516
2178.91	27.9489
2180.35	28.3374
2181.79	28.5198
2183.23	28.4311
2184.67	28.8715
2186.1	29.3443
2187.54	29.3733
2188.98	29.1932
2190.42	28.6797
2191.86	28.7778
2193.3	28.5995
2194.73	27.6451
2196.17	27.6866
2197.61	27.3563
2199.05	26.9194
2200.48	26.8339
2201.92	26.985
2203.35	25.7897
2204.79	24.6948
2206.22	24.0891
2207.66	23.0222
2209.09	22.0059
2210.53	21.2171
2211.96	20.0022
2213.4	19.6044
2214.83	18.7802
2216.27	18.3021
2217.7	17.9903
2219.13	18.0333
2220.56	16.2358
2222	15.001
2223.43	13.441
2224.86	12.2621
2226.29	11.3092
2227.72	10.881
2229.16	9.99915
2230.59	9.98649
2232.02	10.2642
2233.45	9.83105
2234.88	9.6858
2236.31	8.66664
2237.74	8.18929
2239.17	8.06313
2240.6	8.07828
2242.03	8.20798
2243.45	9.09986
2244.88	8.46375
2246.31	8.9115
2247.74	9.05441
2249.17	9.72013
2250.59	9.02391
2252.02	8.46774
2253.45	8.5036
2254.87	7.97136
2256.3	7.8604
2257.73	7.71491
2259.15	7.52085
2260.58	7.4063
2262	7.22479
2263.43	7.38484
2264.85	7.53374
2266.28	7.72639
2267.7	7.90835
2269.13	7.99998
2270.55	7.44865
2271.97	7.34367
2273.4	6.82908
2274.82	6.94148
2276.24	6.51504
2277.66	5.91664
2279.09	5.12653
2280.51	4.63661
2281.93	4.69805
2283.35	3.74786
2284.77	4.23417
2286.19	3.97679
2287.61	4.07753
2289.04	3.89385
2290.46	3.30546
2291.88	1.90516
2293.29	1.7703
2294.71	1.81588
2296.13	2.52746
2297.55	3.42432
2298.97	3.54178
2300.39	3.53856
2301.81	4.35006
2303.23	4.05351
2304.64	4.09362
2306.06	5.07231
2307.48	5.41434
2308.89	6.22614
2310.31	6.66116
2311.73	7.01696
2313.14	6.70854
2314.56	6.961
2315.97	6.66196
2317.39	6.75955
2318.8	6.63577
2320.22	6.49065
2321.63	5.96998
2323.05	5.83572
2324.46	6.42196
2325.88	6.6585
2327.29	6.97339
2328.7	6.95514
2330.12	6.71345
2331.53	6.46219
2332.94	6.40818
2334.35	6.44382
2335.76	5.56951
2337.18	5.06548
2338.59	4.88262
2340	4.53773
2341.41	4.14126
2342.82	4.1687
2344.23	3.73943
2345.64	3.35818
2347.05	2.23089
2348.46	1.44302
2349.87	1.24579
2351.28	1.2269
2352.69	1.29305
2354.1	1.26857
2355.5	1.4346
2356.91	0.261203
2358.32	0.304361
2359.73	0.255885
2361.14	0.0358685
2362.54	-0.475113
2363.95	-0.0994822
2365.36	0.900115
2366.76	1.24867
2368.17	1.69003
2369.58	1.39714
2370.98	1.4282
2372.39	1.226
2373.79	0.892597
2375.2	0.8263
2376.6	1.07995
2378	1.09336
2379.41	1.09799
2380.81	0.811265
2382.22	0.687923
2383.62	1.10816
2385.02	1.65381
2386.42	2.10013
2387.83	2.61031
2389.23	2.59147
2390.63	2.55623
2392.03	2.50195
2393.43	2.42934
2394.84	2.51269
2396.24	2.18381
2397.64	1.94787
2399.04	2.58925
2400.44	1.96964
2401.84	2.00013
2403.24	2.36529
2404.64	3.23841
2406.04	2.80574
2407.44	3.15344
2408.83	3.50243
2410.23	3.5787
2411.63	4.79281
2413.03	4.87225
2414.43	5.39573
2415.83	6.00362
2417.22	6.07216
2418.62	6.43221
2420.02	6.88126
2421.41	6.84897
2422.81	6.91214
2424.21	6.81613
2425.6	6.83171
2427	6.81415
2428.39	7.29366
2429.79	7.41854
2431.18	7.51018
2432.58	6.9767
2433.97	7.53587
2435.36	8.03758
2436.76	7.27947
2438.15	7.73635
2439.54	6.95078
2440.94	6.96235
2442.33	6.42234
2443.72	6.10649
2445.11	5.98234
2446.51	6.66677
2447.9	6.35683
2449.29	5.70236
2450.68	6.30411
2452.07	6.87401
2453.46	6.91799
2454.85	6.23448
2456.24	6.217
2457.63	5.77643
2459.02	5.1027
2460.41	4.40962
2461.8	4.16777
2463.19	4.08021
2464.58	4.61428
2465.97	4.958
2467.36	5.50899
2468.75	5.95856
2470.13	5.68481
2471.52	6.9488
2472.91	7.08999
2474.29	7.21532
2475.68	6.02455
2477.07	6.42016
2478.45	6.44659
2479.84	7.06221
2481.22	7.07752
2482.61	6.74059
2484	6.50944
2485.38	5.77008
2486.77	5.26369
2488.15	5.21942
2489.54	5.00265
2490.92	4.46813
2492.3	5.00388
2493.69	4.59881
2495.07	4.72974
2496.45	4.37665
2497.84	4.29468
2499.22	3.88813
2500.6	2.86422
2501.98	2.27906
2503.36	2.80463
2504.74	2.47889
2506.13	2.17581
2507.51	2.45118
2508.89	1.86245
2510.27	2.12429
2511.65	1.66084
2513.03	1.43316
2514.41	1.37277
2515.79	1.43615
2517.17	1.53124
2518.55	2.02679
2519.93	2.90601
2521.3	2.52485
2522.68	2.48055
2524.06	1.80771
2525.44	1.99358
2526.82	1.98203
2528.19	1.69162
2529.57	2.52421
2530.95	3.26576
2532.32	3.33532
2533.7	4.11936
2535.08	4.14451
2536.45	4.44615
2537.83	5.03244
2539.2	5.20812
2540.58	5.58954
2541.95	4.89199
2543.33	4.78473
2544.7	5.00434
2546.08	5.05142
2547.45	5.12348
2548.82	5.67152
2550.2	4.89268
2551.57	4.73377
2552.94	4.6255
2554.32	5.10991
2555.69	5.73916
2557.06	6.12511
2558.43	6.19324
2559.8	6.30636
2561.17	6.60045
2562.55	6.01361
2563.92	5.89584
2565.29	5.28429
2566.66	4.65012
2568.03	4.4025
2569.4	4.53403
2570.77	5.08947
2572.14	5.33562
2573.51	5.07889
2574.88	5.41913
2576.24	5.19543
2577.61	5.29382
2578.98	5.11047
2580.35	4.42165
2581.72	4.06649
2583.09	3.84549
2584.45	4.35113
2585.82	4.5359
2587.19	4.36197
2588.55	4.00856
2589.92	3.6438
2591.28	3.47924
2592.65	3.01014
2594.02	2.88495
2595.38	2.82868
2596.75	3.02914
2598.11	3.35224
2599.48	3.64054
2600.84	3.80453
2602.2	4.24929
2603.57	4.06499
2604.93	4.39873
2606.3	4.50523
2607.66	4.79718
2609.02	5.52286
2610.38	5.72355
2611.75	6.0859
2613.11	6.70502
2614.47	5.91373
2615.83	6.21488
2617.19	6.28993
2618.56	5.91992
2619.92	6.26694
2621.28	7.15075
2622.64	7.45809
2624	7.08276
2625.36	6.81672
2626.72	6.1701
2628.08	6.10268
2629.44	5.65193
2630.8	5.57622
2632.15	5.29245
2633.51	5.47041
2634.87	5.34228
2636.23	5.56502
2637.59	5.87821
2638.94	5.61649
2640.3	5.64169
2641.66	5.33179
2643.02	5.06893
2644.37	4.77728
2645.73	4.90266
2647.08	4.68381
2648.44	4.77849
2649.8	4.70741
2651.15	4.53024
2652.51	4.9056
2653.86	4.57279
2655.22	4.38734
2656.57	4.04856
2657.92	3.92296
2659.28	3.44963
2660.63	3.32912
2661.99	3.28368
2663.34	3.83192
2664.69	4.35855
2666.04	4.51663
2667.4	5.11497
2668.75	4.4407
2670.1	4.70203
2671.45	5.48442
2672.81	5.47902
2674.16	5.8655
2675.51	5.90269
2676.86	5.65559
2678.21	5.40186
2679.56	5.3286
2680.91	4.80654
2682.26	3.97615
2683.61	4.54441
2684.96	4.65079
2686.31	4.33675
2687.66	4.50257
2689	4.21781
2690.35	4.50185
2691.7	3.88828
2693.05	4.59715
2694.4	5.0238
2695.74	5.33836
2697.09	5.79378
2698.44	5.71589
2699.79	5.4821
2701.13	5.90385
2702.48	5.76534
2703.82	6.24679
2705.17	6.58198
2706.52	6.36591
2707.86	6.78204
2709.21	7.45908
2710.55	7.81841
2711.9	8.49731
2713.24	8.668
2714.58	8.47415
2715.93	8.53524
2717.27	8.34824
2718.61	8.79123
2719.96	9.09196
2721.3	9.00746
2722.64	9.69379
2723.99	9.67271
2725.33	9.849
2726.67	9.61883
2728.01	10.1185
2729.35	10.3186
2730.7	10.3032
2732.04	10.5013
2733.38	10.3905
2734.72	10.3976
2736.06	10.6926
2737.4	11.304
2738.74	11.3046
2740.08	10.7314
2741.42	10.9335
2742.76	10.9412
2744.09	11.3342
2745.43	11.6667
2746.77	11.4868
2748.11	10.5799
2749.45	10.6387
2750.79	10.947
2752.12	10.7689
2753.46	10.7653
2754.8	10.4107
2756.13	10.2388
2757.47	10.4339
2758.81	9.94255
2760.14	10.2242
2761.48	9.47983
2762.81	8.45033
2764.15	8.03898
2765.49	6.76745
2766.82	7.0624
2768.15	7.15893
2769.49	6.41536
2770.82	5.7547
2772.16	5.08133
2773.49	4.7139
2774.82	4.70219
2776.16	4.29082
2777.49	3.22341
2778.82	2.58559
2780.16	1.71282
2781.49	1.38307
2782.82	1.44348
2784.15	0.966319
2785.48	0.907688
2786.81	1.05744
2788.15	1.17293
2789.48	1.2564
2790.81	0.536148
2792.14	0.451838
2793.47	0.351155
2794.8	0.421553
2796.13	0.7408
2797.46	0.808279
2798.79	0.851834
2800.12	1.04557
2801.44	1.80325
2802.77	2.48045
2804.1	2.60157
2805.43	2.97566
2806.76	3.07701
2808.08	3.20596
2809.41	3.37471
2810.74	3.89205
2812.07	4.15911
2813.39	4.20894
2814.72	5.23476
2816.05	6.16707
2817.37	7.27058
2818.7	7.84257
2820.02	8.41083
2821.35	9.15403
2822.67	10.6987
2824	11.404
2825.32	12.8258
2826.65	13.9489
2827.97	15.4211
2829.29	16.6524
2830.62	18.6087
2831.94	20.1579
2833.26	22.6602
2834.59	24.2411
2835.91	25.8138
2837.23	28.6486
2838.55	31.2926
2839.88	33.812
2841.2	37.6096
2842.52	40.2777
2843.84	43.5504
2845.16	47.1967
2846.48	51.7858
2847.8	56.5973
2849.12	60.9324
2850.44	65.5192
2851.76	70.2864
2853.08	74.6353
2854.4	78.1427
2855.72	82.7302
2857.04	86.8976
2858.36	90.9854
2859.68	95.683
2861	100.302
2862.32	105.047
2863.63	109.244
2864.95	113.436
2866.27	117.497
2867.58	121.859
2868.9	125.309
2870.22	128.741
2871.53	131.678
2872.85	133.884
2874.17	137.26
2875.48	140.39
2876.8	143.214
2878.11	145.426
2879.43	147.684
2880.74	150.45
2882.06	152.349
2883.37	154.413
2884.69	156.154
2886	158.456
2887.31	161.125
2888.63	163.881
2889.94	166.014
2891.25	168.39
2892.57	170.221
2893.88	172.578
2895.19	175.016
2896.5	177.352
2897.82	179.91
2899.13	183.086
2900.44	186.335
2901.75	189.972
2903.06	194.286
2904.37	197.716
2905.68	203.546
2906.99	208.793
2908.3	213.016
2909.61	218.357
2910.92	224.145
2912.23	229.541
2913.54	234.084
2914.85	239.279
2916.16	244.007
2917.46	248.39
2918.77	252.737
2920.08	256.97
2921.39	261.684
2922.7	265.129
2924	268.312
2925.31	271.53
2926.62	273.676
2927.92	275.087
2929.23	275.975
2930.53	276.027
2931.84	275.234
2933.15	275.051
2934.45	273.825
2935.76	272.414
2937.06	270.378
2938.37	268.004
2939.67	265.268
2940.98	261.539
2942.28	258.077
2943.58	254.383
2944.89	249.977
2946.19	245.645
2947.49	240.758
2948.8	235.935
2950.1	231.485
2951.4	226.527
2952.7	221.219
2954.01	215.969
2955.31	210.055
2956.61	204.061
2957.91	198.36
2959.21	193.167
2960.51	187.723
2961.81	181.767
2963.11	177.48
2964.41	172.285
2965.71	167.352
2967.01	162.638
2968.31	158.007
2969.61	153.039
2970.91	149.373
2972.21	144.083
2973.51	139.529
2974.81	135.605
2976.1	130.889
2977.4	126.643
2978.7	122.223
2980	118.581
2981.29	113.856
2982.59	109.136
2983.89	104.362
2985.18	99.8298
2986.48	94.9669
2987.78	89.9686
2989.07	85.4569
2990.37	80.7195
2991.66	75.8537
2992.96	71.1735
2994.25	66.8408
2995.55	61.9994
2996.84	57.7193
2998.14	54.2739
2999.43	50.0435
3000.72	46.1516
3002.02	41.8359
3003.31	37.9238
3004.6	35.0771
3005.9	31.8558
3007.19	29.0507
3008.48	25.8271
3009.77	23.3614
3011.07	21.5424
3012.36	19.6991
3013.65	18.1983
3014.94	16.6565
3016.23	15.1124
3017.52	13.4742
3018.81	12.4081
3020.1	10.7199
3021.39	10.0626
3022.68	9.25197
3023.97	8.95815
3025.26	7.91049
3026.55	7.21574
3027.84	6.81329
3029.13	6.01353
3030.42	6.26281
3031.71	6.19243
3033	6.05618
3034.28	5.55513
3035.57	6.15681
3036.86	6.19835
3038.15	6.63151
3039.43	6.93985
3040.72	6.95182
3042.01	8.29519
3043.29	8.3669
3044.58	8.53127
3045.86	8.46739
3047.15	8.23282
3048.44	8.48366
3049.72	8.59385
3051.01	8.7611
3052.29	9.06995
3053.58	9.26309
3054.86	8.88527
3056.14	8.66697
3057.43	9.03728
3058.71	8.38567
3060	7.36742
3061.28	7.45354
3062.56	6.99233
3063.84	6.44038
3065.13	6.49887
3066.41	6.17861
3067.69	5.75902
3068.97	5.31134
3070.25	5.05073
3071.54	4.97495
3072.82	4.66141
3074.1	4.58404
3075.38	3.80599
3076.66	3.0643
3077.94	2.54392
3079.22	2.30549
3080.5	1.6057
3081.78	0.907508
3083.06	0.580918
3084.34	0.6202
3085.62	0.908456
3086.9	0.248185
3088.17	0.492079
3089.45	0.533754
3090.73	0.531031
3092.01	0.832514
3093.29	0.963388
3094.56	0.739864
3095.84	0.050921
3097.12	0.0743366
3098.4	0.0788482
3099.67	0.741331
3100.95	1.12567
3102.22	1.28213
3103.5	1.31411
3104.77	1.92849
3106.05	2.36204
3107.33	1.96628
3108.6	2.09073
3109.88	2.70905
3111.15	3.17517
3112.43	3.81431
3113.7	4.06591
3114.97	4.89637
3116.25	5.13233
3117.52	5.7101
3118.79	6.17283
3120.07	6.61238
3121.34	7.36551
3122.61	7.36448
3123.88	8.12842
3125.16	9.28525
3126.43	9.83755
3127.7	10.7364
3128.97	11.5252
3130.24	11.899
3131.51	12.4424
3132.78	13.6735
3134.05	15.0339
3135.33	15.1803
3136.59	16.006
3137.86	16.8355
3139.14	17.7995
3140.41	19.3592
3141.67	20.8238
3142.94	22.3055
3144.21	23.6908
3145.48	25.0693
3146.75	26.083
3148.02	26.3938
3149.28	26.8106
