#Acq. time (s)=	45
#Accumulations=	2
#Range (cm-¹)=	200...3150
#Windows=	2
#Auto scanning=	Off
#Autofocus=	Off
#Macrospot=	Off
#AutoExposure=	Off
#Spike filter=	Multiple accum.
#Delay time (s)=	0
#Binning=	1
#Readout mode=	Signal
#DeNoise=	Off
#ICS correction=	On
#Dark correction=	Off
#Inst. Process=	Off
#Detector Gain=	Best Dynamic Range
#Detector ADC=	20 kHz       
#Detector temperature (°C)=	-69.85
#Instrument=	LabRAM HR Evol
#Detector=	Synapse
#Objective=	x100
#Grating=	600 gr/mm
#ND Filter=	100%
#Laser (nm)=	532 
#Hole=	100.021
#Range=	Auto
#Laser Pol.=	No
#Raman. Pol.=	No
#Laser Pol. (°)=	-0.0007625
#Raman Pol. (°)=	89.9995
#Collection=	Microscope
#StageXY=	Marzhauser
#StageZ=	Marzhauser
#X (µm)=	-621.2
#Y (µm)=	-1586.7
#Z (µm)=	89.85
#Full time(mm:ss)=	3:18
#Project=	
#Sample=	
#Site=	
#Title=	Mb_10_14_21_2x_45s_532 nm_x100_100%_600 gr_mm
#Remark=	
#Date=	11.07.2022 10:08
#Acquired=	11.07.2022 10:08:01
#Base:Fit=	10.08.2022 10:21:11
#Base:Sub=	10.08.2022 10:21:41
#Filter:Polynom=	16.08.2022 10:17:53
#AxisType[0]=Intens
#AxisUnit[0]=Cnt
#AxisType[1]=Spectr
#AxisUnit[1]=1/cm
200.388	41.5527
202.204	38.2858
204.019	33.515
205.832	28.7204
207.646	24.5985
209.459	20.9416
211.274	17.7915
213.087	15.5211
214.899	14.6818
216.711	14.8455
218.524	15.2888
220.335	14.8255
222.146	15.7374
223.956	15.9422
225.766	16.4739
227.576	17.3809
229.388	16.9875
231.197	17.0417
233.005	17.8904
234.813	18.4996
236.621	19.2053
238.429	19.0276
240.236	19.5079
242.045	19.5037
243.852	20.0966
245.658	19.8935
247.464	21.3182
249.269	22.2916
251.074	22.9614
252.879	23.8888
254.683	23.3361
256.487	24.0814
258.291	23.8096
260.094	22.868
261.897	22.8268
263.702	21.567
265.504	20.8351
267.306	22.5142
269.108	21.3843
270.909	22.0234
272.71	21.1211
274.511	20.0874
276.311	19.1367
278.111	18.2722
279.91	16.6532
281.709	13.9851
283.508	12.7439
285.306	10.3211
287.105	8.61871
288.9	7.01509
290.698	5.45579
292.495	5.6294
294.291	5.63075
296.088	5.04575
297.884	5.02871
299.679	5.17596
301.475	6.33009
303.27	7.30224
305.064	8.12587
306.858	8.3939
308.652	8.24527
310.444	6.90055
312.237	6.5978
314.03	5.82665
315.822	6.22627
317.615	5.80999
319.406	5.36198
321.198	5.15729
322.987	6.36386
324.778	6.65642
326.568	7.29206
328.358	6.98956
330.148	8.13092
331.935	9.33688
333.724	10.0936
335.513	9.39072
337.301	9.66964
339.089	8.93215
340.875	8.5246
342.662	9.15597
344.449	8.49921
346.236	9.14239
348.02	8.2255
349.806	8.00594
351.592	9.34454
353.375	9.84037
355.16	10.3012
356.944	10.5619
358.728	10.4054
360.51	12.0771
362.294	12.0744
364.077	11.8708
365.858	11.7804
367.64	12.4258
369.422	12.3647
371.202	13.2279
372.983	15.5957
374.764	15.7505
376.543	16.5877
378.324	18.1987
380.102	19.3658
381.881	20.7487
383.661	21.1896
385.438	21.5541
387.216	22.3401
388.993	23.3121
390.771	23.8682
392.548	23.3798
394.324	23.5585
396.101	23.4999
397.875	23.2237
399.651	22.6873
401.425	22.6036
403.201	23.1325
404.974	23.161
406.749	22.6607
408.524	22.9351
410.296	23.1961
412.07	23.2008
413.841	22.698
415.614	22.1207
417.385	21.284
419.156	20.3636
420.928	20.0638
422.698	17.8984
424.469	16.3527
426.238	15.8789
428.009	15.3985
429.777	14.2945
431.548	13.4692
433.315	12.4103
435.083	11.6243
436.852	9.28783
438.618	7.48189
440.387	8.07342
442.153	7.40152
443.919	7.00088
445.686	7.40348
447.451	7.24568
449.218	7.19752
450.982	7.3539
452.746	7.83602
454.512	9.18434
456.275	9.55108
458.038	10.1034
459.803	11.2611
461.565	10.8817
463.327	11.0863
465.091	12.3086
466.852	13.622
468.613	14.5205
470.374	15.5291
472.136	15.9662
473.896	16.4225
475.655	16.7636
477.415	17.3702
479.176	16.968
480.934	18.1981
482.692	20.1299
484.45	21.5175
486.21	22.698
487.967	23.9109
489.724	24.6094
491.481	25.8699
493.237	26.2538
494.995	27.3567
496.75	28.597
498.506	29.4431
500.26	30.4029
502.015	31.624
503.769	32.1083
505.525	33.0575
507.279	33.5292
509.032	34.1141
510.785	33.5905
512.537	33.6316
514.289	33.9821
516.041	34.2179
517.793	34.6252
519.546	33.9261
521.297	33.5206
523.047	32.9764
524.797	33.2476
526.547	33.6256
528.297	35.5671
530.046	34.9508
531.795	34.3299
533.543	33.5951
535.291	32.8535
537.039	32.0443
538.787	30.6823
540.534	29.0976
542.281	28.6362
544.027	26.2923
545.773	26.1248
547.519	25.1815
549.264	23.4056
551.01	23.0991
552.754	21.9886
554.499	20.9209
556.243	20.5797
557.987	17.5505
559.73	16.1191
561.474	14.3133
563.216	12.5595
564.959	12.4942
566.701	11.9039
568.441	12.3402
570.182	11.5643
571.923	9.67346
573.664	7.8387
575.405	7.20742
577.145	6.09079
578.885	5.63956
580.624	5.24096
582.361	5.59513
584.1	5.4922
585.839	5.30454
587.577	4.17644
589.315	3.08591
591.052	2.60973
592.787	3.0893
594.524	2.88179
596.26	2.2471
597.997	3.08495
599.732	3.95055
601.466	4.18099
603.201	4.21686
604.936	4.10313
606.67	3.19312
608.403	4.5431
610.136	5.10318
611.87	5.49122
613.603	5.32777
615.334	5.85404
617.067	4.69824
618.799	4.48941
620.529	4.3138
622.26	4.58905
623.991	5.122
625.72	6.41357
627.451	7.13213
629.181	8.56113
630.909	9.15282
632.638	10.1078
634.368	10.4547
636.095	10.8815
637.823	12.1787
639.551	12.8012
641.277	13.9947
643.005	14.3631
644.73	14.8269
646.457	15.7967
648.184	15.98
649.908	16.7573
651.634	17.3437
653.357	16.9531
655.083	17.645
656.806	17.3505
658.53	17.6478
660.253	17.6239
661.977	18.5659
663.7	18.3911
665.422	19.134
667.145	18.5122
668.865	18.7371
670.588	18.5126
672.308	18.3078
674.027	17.0815
675.749	17.186
677.468	17.3896
679.188	18.0052
680.907	17.3692
682.627	16.8102
684.345	17.1626
686.064	17.5863
687.781	17.4585
689.498	17.2771
691.216	17.9574
692.932	18.6277
694.65	19.2825
696.366	19.5371
698.081	20.2014
699.797	20.3293
701.512	19.5074
703.228	19.4023
704.942	20.9639
706.655	21.2773
708.371	21.7211
710.083	23.1571
711.796	23.6944
713.51	24.3755
715.222	24.7551
716.934	25.4688
718.645	25.6697
720.358	26.9172
722.068	26.7537
723.779	27.0853
725.49	27.6187
727.2	28.4911
728.909	29.5155
730.618	31.1148
732.329	31.0391
734.037	32.4467
735.745	33.1613
737.453	33.3013
739.16	34.2101
740.869	34.9396
742.576	34.9279
744.282	35.7908
745.988	36.9681
747.694	38.2235
749.401	40.1054
751.107	41.5175
752.811	41.0502
754.516	41.8911
756.22	42.8858
757.924	43.7538
759.627	43.7253
761.332	45.8383
763.035	47.8436
764.738	49.7059
766.44	50.8213
768.142	53.3138
769.843	55.8294
771.544	58.2209
773.245	58.4706
774.946	58.7532
776.646	60.2601
778.346	61.2359
780.046	62.6454
781.745	64.0352
783.444	65.2604
785.143	65.9265
786.841	66.9775
788.539	69.9482
790.237	71.3418
791.934	71.8274
793.631	73.467
795.328	74.3938
797.024	74.2695
798.72	74.5638
800.416	74.7911
802.112	76.1854
803.807	77.5978
805.502	77.4335
807.196	77.2324
808.89	77.6365
810.584	77.883
812.278	78.1649
813.971	78.787
815.664	79.1174
817.354	77.9137
819.047	77.8113
820.739	77.2887
822.43	77.4354
824.122	77.4513
825.813	77.6623
827.503	77.0251
829.192	76.9559
830.882	76.5997
832.571	76.0329
834.261	75.5129
835.95	73.7129
837.637	71.1712
839.325	70.1676
841.013	69.0728
842.701	67.7085
844.389	67.0062
846.074	67.6664
847.761	66.1173
849.447	64.0222
851.131	63.0078
852.817	62.3039
854.503	60.7495
856.188	59.6347
857.871	57.5096
859.556	56.9977
861.24	56.468
862.922	56.248
864.606	55.4542
866.289	54.5377
867.97	53.8144
869.653	52.7524
871.336	53.006
873.016	51.9372
874.698	49.6056
876.379	48.6135
878.058	48.9303
879.739	47.1546
881.418	47.4344
883.098	46.6085
884.778	46.7135
886.456	46.6984
888.135	45.7946
889.812	44.9405
891.49	45.21
893.167	44.5363
894.845	44.7797
896.523	44.4347
898.198	44.5971
899.875	45.2961
901.55	44.5019
903.226	45.8882
904.901	46.5276
906.576	45.9832
908.25	45.5707
909.925	45.3428
911.598	44.2549
913.271	44.3662
914.945	44.8631
916.617	44.9467
918.291	44.7971
919.962	44.597
921.635	44.7929
923.306	45.5896
924.978	46.4037
926.648	47.2379
928.318	47.6425
929.989	48.129
931.659	47.2488
933.328	47.9134
934.998	49.361
936.666	49.2835
938.336	49.6197
940.004	49.5455
941.671	49.048
943.34	49.4431
945.007	48.2397
946.673	49.1613
948.339	49.0026
950.007	49.3499
951.672	48.6644
953.337	48.6867
955.004	48.6472
956.669	47.4956
958.333	46.8994
959.997	47.4598
961.662	47.3649
963.326	47.0294
964.989	48.84
966.651	48.8925
968.315	50.0613
969.977	51.3819
971.639	51.9045
973.301	53.8149
974.962	54.4604
976.624	55.0126
978.285	55.4279
979.945	55.6582
981.605	57.0175
983.264	57.3151
984.924	56.521
986.583	55.7001
988.243	54.137
989.901	53.7902
991.56	54.2852
993.217	54.1085
994.875	53.5034
996.532	53.1995
998.188	53.7683
999.845	52.8416
1001.5	52.9145
1003.16	52.4729
1004.81	52.1007
1006.47	50.7691
1008.12	50.6316
1009.78	50.3483
1011.43	50.7089
1013.09	50.4502
1014.74	50.7015
1016.39	51.0612
1018.05	50.9051
1019.7	51.489
1021.35	51.6922
1023	51.9934
1024.65	51.3891
1026.31	51.6802
1027.96	51.4204
1029.61	52.3986
1031.26	50.4508
1032.91	49.8383
1034.56	48.4332
1036.21	48.384
1037.86	47.3195
1039.51	45.7403
1041.16	45.9502
1042.8	45.455
1044.45	46.1357
1046.1	46.7989
1047.75	46.3399
1049.39	45.2282
1051.04	44.9744
1052.69	44.8761
1054.33	43.3574
1055.98	42.9341
1057.62	40.8816
1059.27	39.5744
1060.91	38.3711
1062.56	36.7597
1064.2	35.2709
1065.85	32.8945
1067.49	31.432
1069.13	29.9906
1070.77	28.7372
1072.42	28.0382
1074.06	26.1567
1075.7	24.2247
1077.34	22.5367
1078.98	21.6253
1080.62	21.1738
1082.27	19.6424
1083.91	18.638
1085.55	17.5499
1087.18	16.7657
1088.82	16.5827
1090.46	17.5734
1092.1	18.1343
1093.74	18.3606
1095.38	17.8128
1097.02	18.2989
1098.65	18.0192
1100.29	18.5315
1101.93	19.2904
1103.56	18.6067
1105.2	18.256
1106.84	18.6044
1108.47	19.12
1110.11	18.8357
1111.74	18.6604
1113.38	18.399
1115.01	19.2367
1116.64	19.5447
1118.28	20.1301
1119.91	19.5946
1121.54	19.5608
1123.18	20.5658
1124.81	20.4208
1126.44	21.9129
1128.07	22.2388
1129.7	22.4251
1131.33	22.5527
1132.97	23.4271
1134.6	23.5515
1136.23	23.5427
1137.86	23.8728
1139.49	23.7244
1141.11	23.8959
1142.74	23.1739
1144.37	22.712
1146	22.0453
1147.63	21.3366
1149.26	20.7123
1150.88	19.3381
1152.51	17.8731
1154.14	17.3124
1155.76	15.9458
1157.39	14.5467
1159.01	13.2468
1160.64	12.0823
1162.27	10.4945
1163.89	8.99524
1165.51	7.42501
1167.14	8.39056
1168.76	8.23951
1170.39	8.40242
1172.01	7.20831
1173.63	6.19856
1175.25	4.66833
1176.88	4.21164
1178.5	4.22293
1180.12	4.56839
1181.74	4.19636
1183.36	3.67626
1184.98	3.53047
1186.6	3.63451
1188.22	4.81474
1189.84	5.13671
1191.46	5.85414
1193.08	6.30772
1194.7	6.99186
1196.32	7.76298
1197.94	8.14097
1199.55	9.07394
1201.17	9.50029
1202.79	11.2005
1204.41	12.4586
1206.02	14.06
1207.64	15.3912
1209.25	16.7529
1210.87	17.7597
1212.48	19.4106
1214.1	20.6435
1215.71	22.0282
1217.33	24.4094
1218.94	26.0811
1220.56	27.6833
1222.17	28.4942
1223.79	30.0813
1225.4	31.6608
1227.01	32.1337
1228.62	34.8475
1230.23	35.8979
1231.85	36.4127
1233.46	37.7673
1235.07	37.9465
1236.68	38.9495
1238.29	40.5423
1239.9	40.7228
1241.51	41.2103
1243.12	41.3235
1244.73	43.8458
1246.34	44.5329
1247.94	46.3515
1249.55	46.4456
1251.16	46.9133
1252.77	47.6438
1254.37	48.1279
1255.98	48.1954
1257.59	48.9095
1259.2	49.2293
1260.8	49.6357
1262.41	49.4344
1264.01	50.0534
1265.62	50.2236
1267.22	50.683
1268.83	52.1036
1270.43	51.4556
1272.03	50.899
1273.64	50.6096
1275.24	50.9127
1276.85	51.2249
1278.45	51.492
1280.05	52.4602
1281.65	53.1204
1283.25	54.7697
1284.85	55.9666
1286.46	56.8225
1288.06	58.2247
1289.66	59.7803
1291.26	60.4707
1292.86	61.5807
1294.46	63.0221
1296.06	65.0204
1297.66	65.86
1299.25	66.215
1300.85	66.7333
1302.45	66.7105
1304.05	67.5392
1305.65	68.2324
1307.24	69.7298
1308.84	71.0465
1310.43	70.0467
1312.03	69.8799
1313.63	69.7801
1315.22	69.7745
1316.82	71.0613
1318.41	71.1001
1320.01	70.915
1321.6	71.3689
1323.2	71.9841
1324.79	72.336
1326.38	70.4825
1327.98	70.7896
1329.57	68.754
1331.16	67.9791
1332.76	67.5784
1334.35	64.9422
1335.94	64.2343
1337.53	63.1237
1339.12	62.1947
1340.71	60.5706
1342.3	59.8168
1343.89	58.55
1345.48	57.2427
1347.07	56.8005
1348.66	56.0985
1350.25	53.8008
1351.84	53.1053
1353.43	53.0361
1355.01	52.785
1356.6	52.7684
1358.19	52.4229
1359.77	52.4864
1361.36	52.5187
1362.95	51.8436
1364.53	51.4487
1366.12	50.4671
1367.71	50.23
1369.29	48.6691
1370.88	47.2993
1372.46	46.8211
1374.04	46.5698
1375.63	45.48
1377.21	44.2994
1378.8	43.0746
1380.38	42.8052
1381.96	42.674
1383.54	42.9215
1385.13	43.8322
1386.71	43.9907
1388.29	43.1426
1389.87	42.3131
1391.45	43.0996
1393.03	43.1008
1394.61	43.6568
1396.19	43.773
1397.77	44.0846
1399.35	43.1592
1400.93	42.0541
1402.51	41.8245
1404.09	41.318
1405.67	41.2212
1407.24	42.0812
1408.82	42.1065
1410.4	43.8152
1411.98	45.0339
1413.55	46.1578
1415.13	48.5935
1416.71	50.3744
1418.28	51.9007
1419.86	54.0856
1421.43	56.54
1423.01	58.3864
1424.58	61.2382
1426.16	64.5664
1427.73	67.9177
1429.31	70.2419
1430.88	74.3107
1432.45	77.2832
1434.02	79.516
1435.6	82.014
1437.17	83.9319
1438.74	86.3765
1440.31	88.024
1441.88	89.1106
1443.45	89.9281
1445.03	90.374
1446.6	89.8415
1448.17	89.5794
1449.74	90.3443
1451.3	90.6408
1452.87	90.2934
1454.44	88.9287
1456.01	88.026
1457.58	87.4447
1459.15	86.5211
1460.72	85.7631
1462.28	84.3476
1463.85	81.879
1465.42	79.1429
1466.98	77.1544
1468.55	75.539
1470.12	73.7007
1471.68	70.3024
1473.25	67.9744
1474.81	65.7338
1476.38	62.7445
1477.94	59.1001
1479.51	57.2272
1481.07	55.6913
1482.63	53.4044
1484.2	51.6077
1485.76	49.9247
1487.32	46.9219
1488.88	45.6895
1490.45	43.9922
1492.01	42.0841
1493.57	40.2182
1495.13	37.6188
1496.69	36.5425
1498.25	35.6108
1499.81	34.0831
1501.37	33.1203
1502.93	31.8682
1504.49	31.301
1506.05	29.3455
1507.61	28.5474
1509.17	27.0291
1510.73	25.5771
1512.28	25.3172
1513.84	24.4489
1515.4	23.8331
1516.96	23.5397
1518.51	22.8356
1520.07	22.0623
1521.63	21.5823
1523.18	21.0895
1524.74	20.0136
1526.29	20.2057
1527.85	20.4674
1529.4	20.1261
1530.96	20.3537
1532.51	19.5439
1534.06	20.6134
1535.62	20.8111
1537.17	21.1461
1538.72	21.9607
1540.28	21.5792
1541.83	22.1078
1543.38	23.0273
1544.93	24.204
1546.48	24.8086
1548.03	25.1731
1549.59	25.9399
1551.14	26.3657
1552.69	26.8032
1554.24	28.0051
1555.79	29.178
1557.34	30.7476
1558.88	31.4029
1560.43	31.3095
1561.98	32.3651
1563.53	32.3402
1565.08	33.5552
1566.62	34.8732
1568.17	35.5931
1569.72	36.4316
1571.27	37.455
1572.81	38.2494
1574.36	39.6492
1575.9	39.5411
1577.45	40.9674
1579	41.5336
1580.54	42.1612
1582.09	43.3769
1583.63	44.5898
1585.17	47.057
1586.72	47.8722
1588.26	50.2235
1589.8	51.5425
1591.35	51.9519
1592.89	52.3026
1594.43	52.5285
1595.97	52.9061
1597.52	53.2374
1599.06	53.3969
1600.6	53.5007
1602.14	54.4866
1603.68	55.0749
1605.22	55.5275
1606.76	55.5475
1608.3	55.3919
1609.84	54.9425
1611.38	55.6872
1612.92	54.9961
1614.46	54.4878
1615.99	54.5203
1617.53	54.8565
1619.07	55.258
1620.61	54.7462
1622.14	55.2943
1623.68	55.5135
1625.22	55.6726
1626.75	55.6793
1628.29	56.6346
1629.82	57.9142
1631.36	59.8464
1632.9	60.3808
1634.43	60.9689
1635.96	61.7237
1637.5	64.0873
1639.03	66.1438
1640.57	67.2601
1642.1	68.9073
1643.63	69.9927
1645.16	71.3312
1646.7	71.9754
1648.23	73.4459
1649.76	74.6223
1651.29	75.8311
1652.82	76.4874
1654.36	77.1028
1655.89	76.9488
1657.42	77.4642
1658.95	78.2646
1660.48	78.1928
1662.01	77.6582
1663.53	75.9651
1665.06	74.7066
1666.59	72.8388
1668.12	70.8533
1669.65	68.5162
1671.18	67.081
1672.7	65.9745
1674.23	64.2305
1675.76	62.1917
1677.29	59.6782
1678.81	57.2647
1680.34	54.2728
1681.86	50.8517
1683.39	47.3235
1684.91	43.8431
1686.44	41.3923
1687.96	38.813
1689.49	35.7918
1691.01	33.2976
1692.54	31.8952
1694.06	28.8908
1695.58	27.1502
1697.11	24.8123
1698.63	22.8151
1700.15	20.8968
1701.67	18.8254
1703.2	17.2942
1704.72	16.3213
1706.24	14.4613
1707.76	13.4823
1709.28	12.3059
1710.8	11.8881
1712.32	12.029
1713.84	11.2847
1715.36	10.0286
1716.88	9.05093
1718.4	8.06677
1719.91	7.94232
1721.43	7.70837
1722.95	7.82629
1724.47	7.97098
1725.99	7.81247
1727.5	7.61925
1729.02	6.78511
1730.54	6.13564
1732.05	5.82348
1733.57	5.48884
1735.09	4.92668
1736.6	4.67357
1738.12	4.82757
1739.63	4.2688
1741.15	4.04758
1742.66	3.56714
1744.18	3.56576
1745.69	3.76489
1747.2	4.10671
1748.72	4.34027
1750.23	3.37594
1751.74	2.96081
1753.25	2.227
1754.77	2.10788
1756.28	1.95288
1757.79	1.24733
1759.3	1.33459
1760.81	1.76466
1762.32	2.35377
1763.83	2.10829
1765.34	1.96705
1766.85	2.11236
1768.36	2.1169
1769.87	1.61839
1771.38	1.55313
1772.89	0.750111
1774.4	0.564707
1775.91	0.685575
1777.41	0.725774
1778.92	1.15127
1780.43	1.3263
1781.94	1.60988
1783.44	1.61452
1784.95	1.90123
1786.45	2.07395
1787.96	2.43214
1789.47	2.38827
1790.97	2.60009
1792.47	2.28354
1793.98	2.25904
1795.48	3.07825
1796.99	3.32232
1798.49	3.06285
1800	2.23821
1801.5	1.6392
1803	0.749532
1804.51	0.133439
1806.01	-0.383485
1807.51	-0.238751
1809.01	0.00166108
1810.51	0.355347
1812.02	0.743749
1813.52	0.62011
1815.02	0.364745
1816.52	0.605635
1818.02	1.06403
1819.52	2.15767
1821.02	2.86124
1822.52	2.82477
1824.02	2.9097
1825.51	2.61609
1827.01	3.28653
1828.51	3.56505
1830.01	3.89672
1831.51	4.14169
1833	3.90677
1834.5	4.02514
1836	4.2701
1837.49	4.05257
1838.99	3.90141
1840.49	3.61296
1841.98	3.75127
1843.48	3.75879
1844.97	3.45477
1846.47	3.20085
1847.96	3.47625
1849.46	3.73774
1850.95	3.70396
1852.45	4.10963
1853.94	4.40139
1855.43	4.3149
1856.92	4.54808
1858.42	4.37089
1859.91	5.34943
1861.4	5.63294
1862.89	5.85946
1864.39	5.00867
1865.88	3.76868
1867.37	4.16506
1868.86	4.03396
1870.35	4.27043
1871.84	3.79901
1873.33	3.33581
1874.82	3.11003
1876.31	3.55767
1877.8	3.91797
1879.29	4.20024
1880.77	4.28528
1882.26	4.75829
1882.52	4.91287
1884.02	5.19125
1885.51	5.71074
1887.01	5.84431
1888.5	5.86857
1889.99	6.01454
1891.49	6.01773
1892.98	6.92464
1894.47	7.02794
1895.96	6.72771
1897.46	6.4152
1898.95	6.27998
1900.44	6.2411
1901.93	6.30945
1903.42	6.14693
1904.91	5.90249
1906.4	5.79087
1907.89	6.13255
1909.38	5.91222
1910.87	5.55904
1912.36	5.21865
1913.85	5.18609
1915.34	5.57385
1916.83	5.13254
1918.32	3.94602
1919.8	4.16182
1921.29	4.96661
1922.78	4.93841
1924.27	5.3564
1925.75	5.56235
1927.24	5.10482
1928.73	4.51214
1930.21	4.83401
1931.7	4.30725
1933.18	3.67778
1934.67	3.66341
1936.15	3.11138
1937.64	2.28329
1939.12	2.77953
1940.61	4.29264
1942.09	4.0661
1943.57	4.55222
1945.06	4.04488
1946.54	3.9496
1948.02	3.53551
1949.51	3.06065
1950.99	3.11619
1952.47	2.38837
1953.95	2.66032
1955.43	2.08334
1956.91	1.7063
1958.39	1.2575
1959.87	1.53765
1961.36	0.636079
1962.84	0.323223
1964.32	0.094286
1965.79	0.81102
1967.27	1.84869
1968.75	1.39531
1970.23	1.38586
1971.71	1.11776
1973.19	1.70556
1974.66	1.78543
1976.14	1.77177
1977.62	1.81076
1979.1	2.01592
1980.57	1.70962
1982.05	1.70634
1983.53	1.90525
1985	2.05794
1986.48	2.43832
1987.95	2.95019
1989.43	3.23996
1990.9	3.46501
1992.38	3.41071
1993.85	4.99634
1995.33	5.57891
1996.8	5.60465
1998.27	6.21347
1999.75	6.00152
2001.22	5.78735
2002.69	5.73982
2004.16	5.87651
2005.64	5.47656
2007.11	5.64359
2008.58	6.54362
2010.05	5.7344
2011.52	5.98419
2012.99	7.22966
2014.46	7.09219
2015.93	6.50126
2017.4	5.85856
2018.87	5.44643
2020.34	5.56018
2021.81	4.91595
2023.28	5.49931
2024.75	5.52607
2026.22	4.87164
2027.69	4.86944
2029.15	3.60516
2030.62	3.87876
2032.09	3.55741
2033.56	3.72504
2035.02	3.45555
2036.49	3.2572
2037.95	3.9609
2039.42	4.35668
2040.89	4.55207
2042.35	3.96918
2043.82	3.96926
2045.28	3.65653
2046.75	3.91874
2048.21	3.60756
2049.67	3.67519
2051.14	4.48971
2052.6	4.90689
2054.06	5.223
2055.53	6.49118
2056.99	7.47256
2058.45	7.97203
2059.92	7.84482
2061.38	7.88043
2062.84	8.2703
2064.3	8.27686
2065.76	8.09848
2067.22	8.8774
2068.68	8.63082
2070.14	8.62737
2071.6	9.22303
2073.06	8.91433
2074.52	8.6925
2075.98	8.95493
2077.44	8.80236
2078.9	8.61006
2080.36	8.27257
2081.82	8.40134
2083.27	8.19917
2084.73	8.92033
2086.19	9.8908
2087.65	9.31523
2089.1	8.83221
2090.56	9.06984
2092.01	9.12672
2093.47	8.59918
2094.93	8.0009
2096.38	7.99336
2097.84	7.39736
2099.29	7.5526
2100.75	7.83396
2102.2	7.43251
2103.66	7.61347
2105.11	6.4095
2106.56	6.60489
2108.02	6.46377
2109.47	6.66412
2110.92	7.04479
2112.37	7.20879
2113.83	7.92802
2115.28	7.84839
2116.73	8.16774
2118.18	8.71943
2119.63	9.74878
2121.09	9.9725
2122.54	11.0597
2123.99	11.9644
2125.44	12.8312
2126.89	13.3045
2128.34	14.0995
2129.79	14.3396
2131.23	14.7499
2132.68	15.1082
2134.13	16.6494
2135.58	17.8475
2137.03	19.0904
2138.48	20.4158
2139.92	22.1954
2141.37	22.7749
2142.82	23.6157
2144.26	24.6197
2145.71	24.7804
2147.16	26.0104
2148.6	26.6548
2150.05	27.3746
2151.49	28.0103
2152.94	28.896
2154.38	29.8767
2155.83	30.7371
2157.27	31.4509
2158.72	31.9722
2160.16	31.5818
2161.6	31.3833
2163.05	32.5095
2164.49	32.7391
2165.93	33.1135
2167.38	32.9561
2168.82	32.9218
2170.26	33.4338
2171.7	33.5095
2173.14	32.6192
2174.58	31.3953
2176.03	30.8588
2177.47	30.1948
2178.91	30.2904
2180.35	30.3992
2181.79	30.4492
2183.23	29.3471
2184.67	29.259
2186.1	28.6597
2187.54	28.1249
2188.98	27.8383
2190.42	27.7091
2191.86	27.1904
2193.3	26.6163
2194.73	26.8141
2196.17	26.0405
2197.61	25.8724
2199.05	24.7926
2200.48	24.5514
2201.92	24.0843
2203.35	24.0784
2204.79	23.4622
2206.22	23.0037
2207.66	22.4071
2209.09	22.0833
2210.53	21.3696
2211.96	20.635
2213.4	18.8579
2214.83	18.1636
2216.27	18.1408
2217.7	18.1573
2219.13	17.4931
2220.56	16.6953
2222	16.6099
2223.43	15.9875
2224.86	15.4032
2226.29	15.1933
2227.72	14.8486
2229.16	14.4788
2230.59	14.0896
2232.02	14.0384
2233.45	13.6481
2234.88	13.8031
2236.31	12.4535
2237.74	11.1996
2239.17	10.5637
2240.6	10.8788
2242.03	10.2435
2243.45	9.63594
2244.88	8.98363
2246.31	8.88228
2247.74	9.26541
2249.17	9.24913
2250.59	9.09382
2252.02	8.5003
2253.45	8.61854
2254.87	7.77431
2256.3	7.7856
2257.73	7.51023
2259.15	7.10937
2260.58	6.75746
2262	6.4085
2263.43	5.80523
2264.85	6.45218
2266.28	6.46063
2267.7	5.8828
2269.13	5.64986
2270.55	5.73639
2271.97	5.51202
2273.4	5.08047
2274.82	5.2974
2276.24	4.93406
2277.66	5.10602
2279.09	5.02938
2280.51	5.39542
2281.93	5.3709
2283.35	5.73502
2284.77	5.81311
2286.19	6.20952
2287.61	6.80058
2289.04	6.77111
2290.46	6.18789
2291.88	7.1514
2293.29	6.85962
2294.71	6.54841
2296.13	7.11616
2297.55	8.02757
2298.97	8.29761
2300.39	8.7072
2301.81	8.50296
2303.23	8.69421
2304.64	9.12463
2306.06	9.43798
2307.48	9.15032
2308.89	9.57442
2310.31	10.2831
2311.73	10.4595
2313.14	9.82016
2314.56	10.8507
2315.97	10.8311
2317.39	10.5929
2318.8	10.6211
2320.22	10.4976
2321.63	9.781
2323.05	9.62572
2324.46	10.2628
2325.88	9.4033
2327.29	9.19982
2328.7	9.4706
2330.12	9.36148
2331.53	9.10904
2332.94	9.05799
2334.35	8.64938
2335.76	9.05107
2337.18	8.13957
2338.59	7.1913
2340	6.61287
2341.41	6.81752
2342.82	6.19639
2344.23	5.54094
2345.64	5.89475
2347.05	5.27551
2348.46	4.88669
2349.87	4.54253
2351.28	4.51374
2352.69	4.1886
2354.1	3.81717
2355.5	3.07742
2356.91	2.34404
2358.32	2.39254
2359.73	1.84376
2361.14	1.89912
2362.54	1.94363
2363.95	1.47832
2365.36	1.66759
2366.76	1.90047
2368.17	1.20818
2369.58	0.603399
2370.98	0.342637
2372.39	0.450547
2373.79	0.37827
2375.2	0.419532
2376.6	-0.260804
2378	-0.494307
2379.41	0.488228
2380.81	0.740896
2382.22	1.03295
2383.62	0.733057
2385.02	1.36153
2386.42	1.45372
2387.83	1.26853
2389.23	2.10977
2390.63	2.04568
2392.03	2.18616
2393.43	3.47439
2394.84	4.11765
2396.24	4.49051
2397.64	4.69457
2399.04	5.49536
2400.44	5.47638
2401.84	5.14082
2403.24	5.82714
2404.64	5.75172
2406.04	5.8636
2407.44	5.21748
2408.83	5.72489
2410.23	6.04018
2411.63	6.66344
2413.03	6.88429
2414.43	6.85905
2415.83	7.63891
2417.22	7.43706
2418.62	7.44165
2420.02	7.452
2421.41	7.64518
2422.81	6.99644
2424.21	6.9384
2425.6	6.95411
2427	6.33836
2428.39	6.77511
2429.79	6.29085
2431.18	5.72863
2432.58	5.49987
2433.97	5.00957
2435.36	4.12066
2436.76	3.98904
2438.15	3.59495
2439.54	3.84318
2440.94	4.00683
2442.33	4.04367
2443.72	3.47278
2445.11	3.71983
2446.51	3.80961
2447.9	3.23447
2449.29	3.59609
2450.68	2.68079
2452.07	2.83053
2453.46	2.69789
2454.85	3.0032
2456.24	3.24271
2457.63	2.71527
2459.02	2.53034
2460.41	2.21222
2461.8	3.05721
2463.19	3.32767
2464.58	3.17964
2465.97	3.22901
2467.36	2.64282
2468.75	2.26046
2470.13	1.97569
2471.52	1.89344
2472.91	2.19337
2474.29	1.53813
2475.68	1.76234
2477.07	2.4095
2478.45	3.11009
2479.84	3.05733
2481.22	3.37943
2482.61	3.59748
2484	3.67691
2485.38	3.50028
2486.77	3.7354
2488.15	3.4036
2489.54	3.39669
2490.92	3.32323
2492.3	3.34592
2493.69	3.45973
2495.07	2.69496
2496.45	2.43462
2497.84	2.54534
2499.22	2.09382
2500.6	1.3548
2501.98	1.55402
2503.36	1.3557
2504.74	1.92573
2506.13	2.71563
2507.51	2.99743
2508.89	3.19254
2510.27	3.09719
2511.65	3.2783
2513.03	3.29924
2514.41	3.41953
2515.79	3.42262
2517.17	3.27055
2518.55	4.26047
2519.93	4.20905
2521.3	4.65139
2522.68	5.09664
2524.06	4.94273
2525.44	4.21034
2526.82	3.66328
2528.19	3.66007
2529.57	4.24267
2530.95	5.05482
2532.32	5.14719
2533.7	4.85744
2535.08	5.24208
2536.45	5.22762
2537.83	6.24711
2539.2	6.93178
2540.58	6.79265
2541.95	6.81053
2543.33	7.38461
2544.7	8.12352
2546.08	8.89939
2547.45	8.64972
2548.82	9.36189
2550.2	9.0682
2551.57	8.74828
2552.94	8.53653
2554.32	7.76154
2555.69	7.35887
2557.06	6.29674
2558.43	5.45427
2559.8	5.0517
2561.17	4.81225
2562.55	4.62395
2563.92	5.10802
2565.29	4.95268
2566.66	4.68466
2568.03	4.62366
2569.4	3.58973
2570.77	4.13314
2572.14	3.87093
2573.51	3.61577
2574.88	3.74523
2576.24	3.65873
2577.61	3.3977
2578.98	3.54214
2580.35	3.81222
2581.72	3.27458
2583.09	3.48833
2584.45	3.26122
2585.82	3.28393
2587.19	3.91643
2588.55	3.37279
2589.92	3.56492
2591.28	2.95742
2592.65	2.7756
2594.02	3.22319
2595.38	3.97027
2596.75	4.31218
2598.11	4.85408
2599.48	5.13227
2600.84	4.97168
2602.2	5.05645
2603.57	5.97892
2604.93	6.52754
2606.3	6.94045
2607.66	6.62232
2609.02	6.84296
2610.38	8.00245
2611.75	8.4096
2613.11	8.32088
2614.47	8.94107
2615.83	8.6897
2617.19	9.17737
2618.56	8.05459
2619.92	7.88261
2621.28	7.83936
2622.64	7.85255
2624	8.47594
2625.36	8.91774
2626.72	9.30573
2628.08	9.74916
2629.44	10.3905
2630.8	10.5294
2632.15	10.1925
2633.51	9.37475
2634.87	9.1489
2636.23	8.87016
2637.59	8.68165
2638.94	9.79585
2640.3	9.87089
2641.66	10.6563
2643.02	11.2066
2644.37	11.099
2645.73	11.4009
2647.08	11.3732
2648.44	10.8531
2649.8	11.0552
2651.15	11.3018
2652.51	10.974
2653.86	11.2517
2655.22	11.4324
2656.57	10.9696
2657.92	11.0396
2659.28	10.7031
2660.63	11.3211
2661.99	11.2258
2663.34	10.8309
2664.69	10.7222
2666.04	10.8083
2667.4	10.9541
2668.75	11.1798
2670.1	11.2842
2671.45	11.539
2672.81	11.7268
2674.16	11.2499
2675.51	10.8066
2676.86	11.2231
2678.21	11.3786
2679.56	10.7563
2680.91	10.8486
2682.26	10.408
2683.61	9.88676
2684.96	9.66433
2686.31	9.35293
2687.66	9.66873
2689	9.67787
2690.35	9.55755
2691.7	10.1108
2693.05	9.71528
2694.4	10.0202
2695.74	10.6145
2697.09	11.186
2698.44	11.123
2699.79	11.0813
2701.13	11.314
2702.48	11.3988
2703.82	12.1193
2705.17	12.6388
2706.52	13.4978
2707.86	13.4645
2709.21	13.6593
2710.55	13.895
2711.9	14.4021
2713.24	14.4304
2714.58	14.8515
2715.93	15.7404
2717.27	16.671
2718.61	16.7708
2719.96	17.4521
2721.3	17.8987
2722.64	18.3233
2723.99	18.1392
2725.33	18.1056
2726.67	17.9022
2728.01	18.9334
2729.35	19.4174
2730.7	19.3062
2732.04	19.7265
2733.38	19.6367
2734.72	19.3882
2736.06	19.1351
2737.4	18.7713
2738.74	18.1157
2740.08	17.9721
2741.42	17.4617
2742.76	17.3667
2744.09	17.1622
2745.43	16.3286
2746.77	15.5596
2748.11	14.7754
2749.45	14.0732
2750.79	14.2817
2752.12	14.4358
2753.46	13.6876
2754.8	12.807
2756.13	11.9663
2757.47	11.4803
2758.81	11.3873
2760.14	10.894
2761.48	10.1898
2762.81	9.18872
2764.15	8.06935
2765.49	7.43755
2766.82	6.59591
2768.15	6.3989
2769.49	5.46185
2770.82	5.02978
2772.16	4.52412
2773.49	4.3047
2774.82	3.78785
2776.16	3.92046
2777.49	4.3266
2778.82	4.61455
2780.16	3.88336
2781.49	4.35187
2782.82	4.10458
2784.15	3.74689
2785.48	3.76437
2786.81	3.17887
2788.15	2.98761
2789.48	3.07231
2790.81	3.08878
2792.14	3.44999
2793.47	3.86296
2794.8	4.76216
2796.13	4.20812
2797.46	4.01978
2798.79	4.20677
2800.12	3.89226
2801.44	3.35758
2802.77	3.4938
2804.1	3.08402
2805.43	3.51363
2806.76	3.84711
2808.08	3.6713
2809.41	3.42919
2810.74	3.5279
2812.07	3.55134
2813.39	3.96355
2814.72	3.6922
2816.05	4.38822
2817.37	5.10702
2818.7	5.90159
2820.02	6.73584
2821.35	7.83417
2822.67	9.61787
2824	11.9645
2825.32	14.3184
2826.65	16.6511
2827.97	18.9257
2829.29	21.272
2830.62	23.9526
2831.94	27.0528
2833.26	29.9776
2834.59	33.8287
2835.91	36.7316
2837.23	40.4558
2838.55	44.5394
2839.88	49.4429
2841.2	54.5066
2842.52	59.6744
2843.84	65.1852
2845.16	70.8274
2846.48	75.9364
2847.8	82.9079
2849.12	89.036
2850.44	95.2998
2851.76	101.601
2853.08	108.047
2854.4	115.046
2855.72	121.347
2857.04	127.705
2858.36	133.861
2859.68	139.573
2861	144.713
2862.32	150.07
2863.63	155.032
2864.95	159.336
2866.27	164.086
2867.58	168.304
2868.9	173.139
2870.22	176.931
2871.53	181.313
2872.85	184.402
2874.17	188.214
2875.48	191.689
2876.8	194.656
2878.11	196.849
2879.43	199.317
2880.74	201.41
2882.06	204.678
2883.37	207.222
2884.69	209.867
2886	212.393
2887.31	214.682
2888.63	217.581
2889.94	219.834
2891.25	221.538
2892.57	223.11
2893.88	225.078
2895.19	226.645
2896.5	229.767
2897.82	233.072
2899.13	235.583
2900.44	239.286
2901.75	242.575
2903.06	247.112
2904.37	251.864
2905.68	257.438
2906.99	263.224
2908.3	269.262
2909.61	275.078
2910.92	281.028
2912.23	286.782
2913.54	292.546
2914.85	297.092
2916.16	302.34
2917.46	307.914
2918.77	313.295
2920.08	317.549
2921.39	321.582
2922.7	325.165
2924	327.307
2925.31	330.144
2926.62	332.609
2927.92	333.856
2929.23	334.433
2930.53	334.317
2931.84	334.001
2933.15	332.466
2934.45	331.278
2935.76	328.519
2937.06	325.939
2938.37	321.7
2939.67	318.062
2940.98	313.344
2942.28	308.332
2943.58	304
2944.89	298.905
2946.19	293.329
2947.49	287.985
2948.8	281.547
2950.1	275.365
2951.4	269.434
2952.7	262.679
2954.01	255.813
2955.31	248.674
2956.61	241.773
2957.91	235.017
2959.21	228.128
2960.51	221.042
2961.81	215.169
2963.11	208.897
2964.41	202.674
2965.71	197.514
2967.01	191.81
2968.31	186.574
2969.61	181.184
2970.91	176.331
2972.21	171.141
2973.51	165.296
2974.81	159.962
2976.1	155.142
2977.4	149.674
2978.7	144.387
2980	138.768
2981.29	133.717
2982.59	128.871
2983.89	123.044
2985.18	117.172
2986.48	111.53
2987.78	106.131
2989.07	100.342
2990.37	95.6223
2991.66	89.6392
2992.96	83.1021
2994.25	77.7425
2995.55	72.2978
2996.84	67.3601
2998.14	62.5387
2999.43	57.5302
3000.72	52.2984
3002.02	48.2803
3003.31	43.6238
3004.6	40.074
3005.9	36.2235
3007.19	32.7494
3008.48	29.624
3009.77	26.3968
3011.07	22.9408
3012.36	20.2821
3013.65	16.9838
3014.94	14.9644
3016.23	13.2907
3017.52	11.1376
3018.81	9.69986
3020.1	7.86499
3021.39	6.53474
3022.68	5.09234
3023.97	3.38367
3025.26	2.40712
3026.55	1.97139
3027.84	0.85671
3029.13	0.528877
3030.42	0.626162
3031.71	0.444
3033	0.178941
3034.28	-0.178799
3035.57	-0.0305753
3036.86	-0.177607
3038.15	0.212246
3039.43	1.18211
3040.72	1.80133
3042.01	2.50541
3043.29	3.29985
3044.58	3.42753
3045.86	4.73099
3047.15	5.60566
3048.44	6.25016
3049.72	6.66339
3051.01	6.99634
3052.29	7.98024
3053.58	7.84266
3054.86	8.36649
3056.14	8.47803
3057.43	8.23682
3058.71	8.65956
3060	8.54904
3061.28	8.40725
3062.56	8.55234
3063.84	8.31113
3065.13	8.66369
3066.41	8.22536
3067.69	7.79407
3068.97	7.50786
3070.25	7.12221
3071.54	6.87671
3072.82	6.99601
3074.1	6.19673
3075.38	5.54674
3076.66	5.32566
3077.94	4.68041
3079.22	4.95773
3080.5	4.88846
3081.78	4.41554
3083.06	3.96342
3084.34	3.1756
3085.62	2.59329
3086.9	2.29193
3088.17	1.86096
3089.45	1.86812
3090.73	1.81818
3092.01	1.79919
3093.29	2.17632
3094.56	2.50845
3095.84	1.99354
3097.12	1.82793
3098.4	2.19638
3099.67	2.16672
3100.95	2.37886
3102.22	3.0313
3103.5	4.01919
3104.77	5.00106
3106.05	5.44384
3107.33	5.94538
3108.6	6.19356
3109.88	6.81597
3111.15	7.11189
3112.43	7.81059
3113.7	8.5816
3114.97	9.82863
3116.25	10.7629
3117.52	11.3103
3118.79	12.184
3120.07	12.8395
3121.34	13.7392
3122.61	14.9607
3123.88	16.0559
3125.16	17.6392
3126.43	18.7401
3127.7	19.3267
3128.97	20.1191
3130.24	20.8632
3131.51	21.969
3132.78	22.7754
3134.05	24.0785
3135.33	25.6561
3136.59	27.0713
3137.86	27.9512
3139.14	29.4025
3140.41	30.6495
3141.67	32.0686
3142.94	33.401
3144.21	34.2406
3145.48	34.8509
3146.75	35.3871
3148.02	35.9139
3149.28	35.7183
