#Acq. time (s)=	45
#Accumulations=	2
#Range (cm-¹)=	200...3150
#Windows=	2
#Auto scanning=	Off
#Autofocus=	Off
#Macrospot=	Off
#AutoExposure=	Off
#Spike filter=	Multiple accum.
#Delay time (s)=	0
#Binning=	1
#Readout mode=	Signal
#DeNoise=	Off
#ICS correction=	On
#Dark correction=	Off
#Inst. Process=	Off
#Detector Gain=	Best Dynamic Range
#Detector ADC=	20 kHz       
#Detector temperature (°C)=	-69.85
#Instrument=	LabRAM HR Evol
#Detector=	Synapse
#Objective=	x100
#Grating=	600 gr/mm
#ND Filter=	100%
#Laser (nm)=	532 
#Hole=	100.021
#Range=	Auto
#Laser Pol.=	No
#Raman. Pol.=	No
#Laser Pol. (°)=	-0.0007625
#Raman Pol. (°)=	89.9995
#Collection=	Microscope
#StageXY=	Marzhauser
#StageZ=	Marzhauser
#X (µm)=	-6969.1
#Y (µm)=	2051
#Z (µm)=	-75.05
#Full time(mm:ss)=	3:19
#Project=	
#Sample=	
#Site=	
#Title=	Mb_20_23_22_2x_45s_532 nm_x100_100%_600 gr_mm
#Remark=	
#Date=	13.07.2022 14:54
#Acquired=	13.07.2022 14:54:48
#Base:Fit=	10.08.2022 10:29:37
#Base:Sub=	10.08.2022 10:33:46
#Filter:Polynom=	16.08.2022 10:13:29
#AxisType[0]=Intens
#AxisUnit[0]=Cnt
#AxisType[1]=Spectr
#AxisUnit[1]=1/cm
200.563	39.438
202.377	41.9097
204.194	39.5766
206.008	38.666
207.821	37.9323
209.634	37.6071
211.449	37.4959
213.262	36.8897
215.074	37.9614
216.885	36.4976
218.699	37.0647
220.51	36.6703
222.321	35.8215
224.131	34.2863
225.941	34.5636
227.751	34.414
229.562	33.6446
231.371	33.3033
233.18	33.3968
234.988	32.5037
236.796	31.1755
238.603	29.7321
240.411	29.154
242.219	27.257
244.026	27.6185
245.832	26.3989
247.638	25.9154
249.443	24.6156
251.248	23.923
253.053	22.843
254.857	23.3757
256.661	23.6861
258.465	22.6348
260.268	21.862
262.071	19.897
263.874	16.5184
265.678	15.1561
267.48	13.5649
269.282	11.7
271.083	10.4016
272.884	9.09342
274.684	8.62333
276.484	8.63405
278.284	7.96242
280.084	7.54506
281.883	7.39764
283.682	5.75975
285.48	3.86262
287.276	4.36979
289.074	4.29227
290.871	4.20753
292.668	2.94623
294.465	4.48406
296.261	4.99741
298.057	7.1378
299.853	8.74119
301.648	8.20178
303.443	9.27009
305.237	10.1846
307.032	9.70847
308.823	12.0928
310.617	12.8175
312.41	13.5206
314.203	15.0192
315.995	16.6998
317.788	17.3773
319.579	18.4359
321.369	19.462
323.16	21.3443
324.951	22.062
326.741	22.8257
328.531	23.6775
330.321	25.275
332.108	24.4703
333.897	26.4341
335.686	26.1815
337.474	27.4908
339.26	27.8741
341.048	29.414
342.835	28.8686
344.622	28.8655
346.406	26.5228
348.192	25.7997
349.978	24.8617
351.764	24.2961
353.547	22.5629
355.332	23.2648
357.116	22.4785
358.901	20.9097
360.682	20.0834
362.466	18.9054
364.249	17.9953
366.03	17.0933
367.812	16.0747
369.594	14.0802
371.374	12.871
373.155	12.1239
374.936	12.715
376.715	11.972
378.495	11.3027
380.273	9.9971
382.053	12.2551
383.832	13.0567
385.609	14.551
387.388	14.1494
389.164	12.8027
390.942	11.2209
392.72	11.628
394.495	10.9693
396.272	11.402
398.047	11.6004
399.823	10.8726
401.597	9.98218
403.372	11.4001
405.145	11.6764
406.92	11.5214
408.693	12.4446
410.467	12.7281
412.239	14.6503
414.012	13.6319
415.783	12.8089
417.556	12.2533
419.327	12.1076
421.099	11.35
422.869	13.624
424.64	13.8568
426.409	14.5945
428.18	14.3984
429.948	13.5521
431.718	12.6064
433.486	12.0374
435.253	12.248
437.022	13.4136
438.789	12.8933
440.558	12.7771
442.324	12.8722
444.089	14.2403
445.857	13.1876
447.622	12.6488
449.386	13.6001
451.153	13.3069
452.917	13.724
454.682	13.1338
456.446	13.4894
458.208	13.9906
459.973	15.0836
461.735	17.064
463.497	18.0973
465.259	18.8687
467.022	19.4483
468.783	20.0273
470.544	21.6588
472.306	20.8867
474.066	21.8571
475.825	21.6172
477.585	21.8464
479.346	22.4746
481.104	23.8636
482.862	24.684
484.62	24.7677
486.38	25.8639
488.137	28.0343
489.894	29.253
491.65	30.9445
493.407	30.3248
495.164	31.2899
496.92	33.8623
498.675	33.8976
500.43	34.8376
502.184	34.7681
503.939	36.4772
505.694	36.8881
507.448	38.2179
509.201	38.8799
510.954	40.6469
512.706	42.2482
514.459	42.7024
516.21	42.0029
517.962	41.2043
519.715	41.3748
521.466	41.6908
523.216	42.7399
524.966	42.3521
526.716	42.553
528.466	41.7679
530.215	41.7968
531.964	40.3326
533.712	37.6513
535.46	37.2821
537.208	36.9366
538.955	35.3157
540.703	34.406
542.449	34.1018
544.196	34.1427
545.942	34.556
547.688	32.377
549.433	31.1219
551.178	28.3881
552.923	24.9244
554.667	23.945
556.412	24.008
558.155	23.09
559.899	21.6029
561.642	20.7218
563.385	19.3924
565.127	19.6601
566.867	18.502
568.609	17.9194
570.35	16.6057
572.092	16.74
573.832	16.3254
575.573	15.3185
577.313	13.2436
579.053	12.2231
580.79	12.1343
582.529	12.6714
584.268	12.2687
586.006	11.4866
587.745	11.263
589.482	10.8301
591.218	9.22202
592.955	7.32234
594.692	7.14122
596.428	8.01949
598.164	8.00517
599.898	6.9458
601.634	4.82819
603.369	4.41148
605.104	4.43788
606.836	5.61534
608.57	6.20584
610.304	4.74697
612.037	3.33417
613.769	3.02835
615.501	2.34363
617.234	2.39868
618.966	1.49565
620.696	0.718206
622.427	1.61532
624.159	0.808928
625.887	-0.000421072
627.618	1.29781
629.348	1.8284
631.076	1.29783
632.806	1.48571
634.535	0.637492
636.262	1.84618
637.99	1.3549
639.716	1.16544
641.444	2.9987
643.172	2.30532
644.897	2.52934
646.624	3.14867
648.348	4.5582
650.075	6.75829
651.801	7.50982
653.524	6.22004
655.249	8.00805
656.972	8.45946
658.697	9.66227
660.419	9.43755
662.143	10.9159
663.865	10.9983
665.588	11.2906
667.309	12.572
669.032	12.8859
670.752	13.2989
672.474	13.1062
674.194	12.3107
675.915	12.8984
677.634	11.6654
679.355	12.2289
681.073	12.1227
682.793	12.3444
684.511	11.2049
686.23	12.2948
687.947	12.5607
689.664	13.1844
691.382	13.2859
693.098	12.5672
694.816	12.0366
696.531	9.99461
698.247	10.2886
699.963	8.83087
701.678	8.52731
703.392	7.51815
705.108	7.70241
706.821	8.04647
708.534	8.34364
710.249	8.87359
711.962	10.0377
713.674	10.8728
715.388	11.1812
717.099	11.3546
718.81	10.3807
720.523	9.59875
722.234	8.59315
723.944	7.50449
725.654	6.87861
727.365	8.47195
729.075	7.69604
730.784	8.3971
732.492	9.16076
734.202	10.1555
735.91	12.0463
737.618	12.2956
739.325	14.5768
741.034	16.4674
742.741	19.3321
744.447	20.2933
746.153	21.9523
747.859	23.8719
749.564	24.9221
751.271	27.7543
752.976	30.8051
754.681	33.2586
756.385	35.2051
758.088	36.6845
759.792	38.2218
761.495	39.4304
763.2	39.7407
764.902	42.4531
766.604	43.677
768.306	46.2529
770.008	49.7245
771.709	51.5004
773.41	51.6278
775.11	52.1934
776.811	52.4771
778.51	53.3594
780.21	55.6531
781.909	56.8731
783.608	59.8692
785.307	61.9427
787.005	65.7993
788.703	67.7185
790.401	70.3082
792.098	71.668
793.795	71.4429
795.492	73.1871
797.188	74.2347
798.884	74.2431
800.58	74.4944
802.276	73.779
803.971	74.0191
805.665	75.503
807.36	75.513
809.054	75.9034
810.748	76.0905
812.441	76.8833
814.135	76.0071
815.826	76.207
817.518	78.0099
819.21	79.5184
820.902	80.6863
822.594	80.6423
824.285	81.0355
825.976	80.4139
827.665	81.1438
829.355	80.3099
831.045	82.9472
832.735	83.3864
834.424	83.4971
836.111	83.6959
837.8	82.8639
839.488	81.7479
841.177	80.1482
842.864	79.3173
844.55	78.6616
846.237	78.5422
847.924	77.5132
849.61	77.2127
851.295	76.2781
852.98	75.6201
854.666	75.1771
856.349	74.0702
858.034	73.0744
859.719	74.5723
861.403	75.6554
863.085	76.7045
864.769	77.7526
866.452	77.9531
868.133	77.7195
869.816	77.2197
871.498	75.9366
873.179	76.0544
874.86	75.2299
876.54	74.4815
878.221	74.5086
879.902	75.0075
881.58	72.6842
883.26	71.254
884.938	71.0333
886.618	70.0614
888.297	69.4461
889.974	67.4675
891.653	65.5429
893.329	65.7974
895.007	64.3109
896.683	62.7717
898.36	62.3768
900.035	62.7004
901.712	63.0797
903.387	62.9231
905.063	61.3847
906.737	60.4051
908.412	60.2636
910.085	60.2341
911.76	59.9797
913.433	59.2002
915.107	58.3169
916.779	55.1953
918.452	53.8793
920.124	52.8808
921.797	51.1965
923.467	50.8021
925.138	51.6106
926.81	51.7024
928.48	52.5878
930.151	52.0463
931.82	49.9495
933.489	49.9406
935.16	48.7022
936.828	47.3429
938.496	46.8983
940.165	46.0513
941.833	44.0781
943.5	43.0211
945.168	39.755
946.834	37.7061
948.5	37.3387
950.168	36.6371
951.834	34.5152
953.499	33.2072
955.163	31.5732
956.83	30.3203
958.494	27.7884
960.158	26.1007
961.821	23.6796
963.487	19.8802
965.15	18.2263
966.812	18.2564
968.474	17.5929
970.138	16.4475
971.8	16.3275
973.461	15.9897
975.123	16.5413
976.783	17.55
978.446	16.9195
980.106	17.799
981.766	18.0707
983.425	18.4034
985.084	18.4148
986.743	18.5085
988.402	18.0182
990.06	17.6255
991.72	18.4545
993.378	16.9895
995.035	16.6526
996.692	16.5062
998.349	17.332
1000.01	18.3606
1001.66	20.1336
1003.32	22.8128
1004.97	23.8461
1006.63	27.2345
1008.28	30.9517
1009.94	33.5543
1011.59	37.8929
1013.25	39.1084
1014.9	40.8992
1016.55	43.5503
1018.21	44.8071
1019.86	47.7767
1021.51	52.1982
1023.16	56.7667
1024.81	60.717
1026.47	66.834
1028.12	72.9278
1029.77	79.8816
1031.42	86.2889
1033.07	90.9547
1034.72	92.8597
1036.37	97.3765
1038.02	101.777
1039.67	106.064
1041.31	109.537
1042.96	113.822
1044.61	117.735
1046.26	121.746
1047.91	125.948
1049.55	129.195
1051.2	131.726
1052.84	133.213
1054.49	135.653
1056.14	136.801
1057.78	137.794
1059.43	138.144
1061.07	137.676
1062.72	136.881
1064.36	135.755
1066	134.689
1067.65	131.845
1069.29	129.01
1070.93	126.439
1072.58	122.867
1074.22	120.225
1075.86	116.025
1077.5	113.249
1079.14	108.893
1080.78	105.674
1082.42	101.339
1084.06	96.1205
1085.7	91.3161
1087.34	86.1133
1088.98	84.6294
1090.62	83.0224
1092.26	80.6579
1093.9	79.0347
1095.54	76.7456
1097.17	75.9236
1098.81	76.3884
1100.45	76.9394
1102.09	78.2992
1103.72	79.265
1105.36	80.3739
1106.99	81.0557
1108.63	82.4628
1110.27	81.4458
1111.9	80.6441
1113.53	79.0044
1115.17	77.8212
1116.8	75.9993
1118.43	75.8986
1120.07	75.4648
1121.7	73.9332
1123.33	71.9526
1124.97	70.5696
1126.6	68.0514
1128.23	65.1504
1129.86	64.0381
1131.49	61.0476
1133.12	58.713
1134.75	56.8748
1136.38	56.3415
1138.01	53.6308
1139.64	51.5542
1141.27	49.4301
1142.9	48.2204
1144.53	46.2358
1146.16	44.787
1147.78	42.3471
1149.41	38.866
1151.04	36.9261
1152.67	34.7415
1154.29	31.7909
1155.92	27.9049
1157.54	24.6106
1159.17	21.8765
1160.8	17.9594
1162.42	16.5536
1164.05	13.3657
1165.67	12.5662
1167.29	12.9576
1168.92	13.4455
1170.54	14.6188
1172.16	15.1716
1173.79	15.4211
1175.41	16.3041
1177.03	16.4442
1178.65	15.0227
1180.28	14.696
1181.9	13.9948
1183.52	13.0593
1185.14	13.2379
1186.76	14.0024
1188.38	12.682
1190	12.8512
1191.62	12.0905
1193.24	11.228
1194.86	11.4106
1196.47	11.181
1198.09	10.7609
1199.71	10.617
1201.33	9.79122
1202.95	8.78171
1204.56	9.46323
1206.18	9.72075
1207.8	10.0378
1209.41	11.4957
1211.03	12.1742
1212.64	11.8163
1214.26	14.995
1215.87	16.4614
1217.49	19.2354
1219.1	20.6446
1220.71	22.7419
1222.33	25.5414
1223.94	28.3824
1225.55	29.7635
1227.16	32.8785
1228.78	34.3784
1230.39	35.3584
1232	38.1802
1233.61	40.5211
1235.22	43.5886
1236.83	45.4646
1238.44	49.7618
1240.05	52.4429
1241.66	55.8104
1243.27	59.0173
1244.88	60.0029
1246.49	63.0185
1248.1	64.1505
1249.71	64.1899
1251.32	64.1019
1252.92	63.9491
1254.53	64.3138
1256.14	65.8999
1257.74	68.6144
1259.35	72.1287
1260.96	79.0566
1262.56	85.282
1264.17	91.7677
1265.77	98.6539
1267.38	105.926
1268.98	113.951
1270.59	122.137
1272.19	129.047
1273.79	136.052
1275.4	143.301
1277	150.119
1278.6	155.768
1280.21	162.263
1281.81	166.962
1283.41	173.547
1285.01	179.907
1286.61	183.407
1288.21	187.066
1289.81	191.308
1291.41	192.785
1293.01	196.598
1294.61	198.52
1296.21	199.945
1297.81	200.599
1299.41	201.155
1301.01	201.548
1302.6	200.722
1304.2	200.067
1305.8	198.173
1307.4	195.318
1308.99	191.574
1310.59	189.404
1312.19	186.796
1313.78	183.519
1315.38	179.58
1316.97	173.755
1318.57	169.704
1320.16	163.002
1321.76	157.822
1323.35	150.753
1324.94	144.682
1326.54	138.218
1328.13	130.245
1329.72	124.713
1331.32	119.356
1332.91	115.867
1334.5	114.239
1336.09	112.432
1337.68	112.111
1339.27	110.714
1340.87	111.471
1342.45	110.45
1344.04	109.64
1345.64	109.402
1347.22	108.947
1348.81	108.976
1350.4	107.347
1351.99	106.18
1353.58	104.707
1355.17	103.622
1356.75	102.964
1358.34	101.346
1359.93	101.385
1361.51	99.5995
1363.1	98.6966
1364.69	97.5762
1366.27	94.5736
1367.86	93.605
1369.44	93.399
1371.03	91.9768
1372.61	92.4237
1374.2	91.8068
1375.78	92.0106
1377.37	91.2582
1378.95	92.7237
1380.53	91.8945
1382.11	90.7994
1383.7	90.4003
1385.28	91.6464
1386.86	92.9663
1388.44	94.7214
1390.02	96.0409
1391.6	95.9546
1393.19	95.474
1394.77	95.2955
1396.35	94.4207
1397.93	96.5152
1399.51	97.7704
1401.08	103.663
1402.66	109.665
1404.24	117.664
1405.82	126.89
1407.4	137.386
1408.97	150.767
1410.55	161.605
1412.13	173.826
1413.71	185.948
1415.28	199.401
1416.86	214.163
1418.43	227.692
1420.01	242.527
1421.59	255.553
1423.16	269.894
1424.73	283.794
1426.31	297.467
1427.88	312.035
1429.46	324.54
1431.03	337.517
1432.6	350.099
1434.18	362.781
1435.75	373.916
1437.32	384.253
1438.89	392.281
1440.46	400.042
1442.04	405.821
1443.61	410.875
1445.18	414.603
1446.75	417.586
1448.32	418.528
1449.89	417.144
1451.46	414.074
1453.03	409.2
1454.6	401.853
1456.16	392.882
1457.73	383.116
1459.3	372.126
1460.87	359.245
1462.44	346.231
1464	331.427
1465.57	313.107
1467.14	295.198
1468.7	276.812
1470.27	258.172
1471.83	240.68
1473.4	225.41
1474.96	209.499
1476.53	196.626
1478.09	183.183
1479.66	172.578
1481.22	159.879
1482.78	148.868
1484.35	138.593
1485.91	127.25
1487.47	116.682
1489.04	105.215
1490.6	94.9664
1492.16	86.1177
1493.72	78.5409
1495.28	71.0417
1496.84	64.8889
1498.4	59.2585
1499.96	54.6164
1501.52	50.9836
1503.08	47.4015
1504.64	44.6359
1506.2	43.5064
1507.76	42.4077
1509.32	41.8
1510.88	39.7632
1512.44	38.7571
1513.99	36.6248
1515.55	36.0587
1517.11	36.5283
1518.66	37.464
1520.22	37.3238
1521.78	38.069
1523.33	38.3667
1524.89	37.4872
1526.44	37.0288
1528	36.9507
1529.55	37.0087
1531.11	37.2532
1532.66	36.8073
1534.21	38.4914
1535.77	39.4363
1537.32	40.929
1538.87	39.7222
1540.43	40.6554
1541.98	40.0135
1543.53	41.0909
1545.08	43.1027
1546.63	44.2743
1548.18	45.2475
1549.74	46.5916
1551.29	47.2996
1552.84	47.4471
1554.39	48.0145
1555.94	49.495
1557.48	50.3505
1559.03	51.446
1560.58	52.1487
1562.13	52.0663
1563.68	53.5747
1565.23	54.5016
1566.78	55.9946
1568.32	58.3331
1569.87	60.2284
1571.42	61.4036
1572.96	64.2005
1574.51	67.6693
1576.05	69.0428
1577.6	71.0677
1579.14	73.1941
1580.69	74.0945
1582.24	76.3012
1583.78	79.6328
1585.32	81.0535
1586.87	81.6861
1588.41	81.8936
1589.95	83.9774
1591.5	86.7995
1593.04	88.6602
1594.58	90.813
1596.12	91.3731
1597.67	92.1305
1599.21	92.6679
1600.75	93.565
1602.29	94.0427
1603.83	95.8772
1605.37	96.9842
1606.91	96.9162
1608.45	97.5084
1609.99	98.5659
1611.53	99.0868
1613.07	97.575
1614.6	96.8071
1616.14	95.3225
1617.68	95.9977
1619.22	94.8514
1620.75	94.0831
1622.29	94.3244
1623.83	93.2137
1625.37	91.4616
1626.9	91.7971
1628.44	91.097
1629.97	90.5302
1631.51	89.048
1633.04	88.996
1634.58	87.6586
1636.11	87.7043
1637.65	87.175
1639.18	87.8269
1640.72	89.7546
1642.25	88.8963
1643.78	88.7585
1645.31	89.1045
1646.85	88.1084
1648.38	88.4006
1649.91	89.5116
1651.44	89.7366
1652.97	89.0278
1654.5	88.9161
1656.03	89.1088
1657.56	88.2491
1659.1	88.8046
1660.62	87.9559
1662.15	85.4203
1663.68	83.1199
1665.21	81.0896
1666.74	80.0076
1668.27	79.2535
1669.8	77.2547
1671.32	76.8636
1672.85	74.8322
1674.38	73.6281
1675.91	72.227
1677.43	70.0193
1678.96	67.7522
1680.49	66.5389
1682.01	63.6937
1683.54	61.7895
1685.06	61.3088
1686.59	60.0102
1688.11	57.5628
1689.64	55.1556
1691.16	52.988
1692.68	51.199
1694.21	49.5768
1695.73	48.1138
1697.25	47.1631
1698.78	46.3827
1700.3	45.6885
1701.82	44.9836
1703.34	44.8158
1704.86	44.1625
1706.39	44.1395
1707.91	43.3925
1709.43	43.1486
1710.95	42.5746
1712.47	41.8691
1713.99	41.9729
1715.51	41.2977
1717.02	41.441
1718.54	40.5394
1720.06	39.5854
1721.58	39.6056
1723.1	38.3422
1724.62	38.6798
1726.13	38.1239
1727.65	37.7709
1729.17	37.3835
1730.68	36.4831
1732.2	35.9569
1733.72	33.8583
1735.23	33.1603
1736.75	32.181
1738.26	30.1574
1739.78	29.7364
1741.29	28.7771
1742.81	28.7698
1744.32	28.7442
1745.84	27.6192
1747.35	27.1567
1748.86	25.289
1750.37	24.162
1751.89	22.4993
1753.4	21.9077
1754.91	21.1839
1756.42	20.8956
1757.93	19.7034
1759.45	18.9277
1760.96	17.8396
1762.47	16.3781
1763.98	14.8635
1765.49	13.5771
1767	12.2393
1768.51	12.0315
1770.02	12.1075
1771.53	12.5272
1773.03	11.6412
1774.54	11.2628
1776.05	11.4367
1777.56	10.7742
1779.07	10.474
1780.57	10.3715
1782.08	9.05915
1783.59	8.48639
1785.09	8.30525
1786.6	8.41888
1788.11	7.30497
1789.61	7.52045
1791.12	5.99956
1792.62	5.24646
1794.13	4.20857
1795.63	3.12227
1797.13	3.01607
1798.64	2.23039
1800.14	2.55758
1801.65	2.52996
1803.15	3.17576
1804.65	3.00381
1806.15	2.36618
1807.66	2.42452
1809.16	2.13577
1810.66	2.72621
1812.16	2.01243
1813.66	2.15824
1815.16	2.365
1816.66	2.79581
1818.16	2.59096
1819.66	2.37248
1821.16	1.66204
1822.66	1.97942
1824.16	0.949977
1825.66	1.96409
1827.16	2.2546
1828.66	2.55783
1830.16	1.98536
1831.65	2.01531
1833.15	1.58695
1834.65	1.44457
1836.14	1.84209
1837.64	1.98497
1839.14	1.86493
1840.63	1.28419
1842.13	1.50891
1843.62	2.55809
1845.12	2.90462
1846.61	3.25659
1848.11	3.45268
1849.6	4.04243
1851.1	4.18934
1852.59	4.25996
1854.08	3.93391
1855.58	3.91967
1857.07	3.25334
1858.56	3.8681
1860.05	3.8994
1861.55	3.90979
1863.04	3.17754
1864.53	3.95578
1866.02	2.93283
1867.51	2.50319
1869	2.07708
1870.49	1.41405
1871.98	1.42077
1873.47	1.75298
1874.96	2.83794
1876.45	3.67462
1877.94	4.01608
1879.43	3.8774
1880.92	5.04888
1882.41	6.14395
1882.51	6.1505
1884	6.06569
1885.5	6.90997
1886.99	7.84872
1888.48	6.67536
1889.98	6.57172
1891.47	5.77999
1892.96	5.64396
1894.46	4.93969
1895.95	5.45625
1897.44	5.2466
1898.93	4.9786
1900.42	3.79262
1901.91	3.72853
1903.41	2.39564
1904.9	2.62422
1906.39	3.20598
1907.88	3.36959
1909.37	3.93316
1910.86	4.0559
1912.35	3.99762
1913.83	4.77757
1915.32	6.0976
1916.81	6.33478
1918.3	6.36894
1919.79	6.33252
1921.27	6.13895
1922.76	6.30223
1924.25	6.51409
1925.74	6.24967
1927.22	6.81666
1928.71	6.85405
1930.19	6.90566
1931.68	8.00909
1933.17	8.60586
1934.65	7.91394
1936.14	6.70543
1937.62	6.73539
1939.11	6.05198
1940.59	6.19526
1942.07	6.21674
1943.56	7.19154
1945.04	7.9417
1946.52	9.39174
1948.01	9.75305
1949.49	10.332
1950.97	11.3912
1952.45	10.9423
1953.93	11.4895
1955.42	10.6893
1956.9	10.4257
1958.38	9.89156
1959.86	9.64234
1961.34	8.47661
1962.82	7.84766
1964.3	8.52503
1965.78	9.13598
1967.26	8.76385
1968.74	8.91776
1970.21	8.92542
1971.69	8.43815
1973.17	8.26969
1974.65	8.97546
1976.13	9.36099
1977.6	8.56451
1979.08	9.76144
1980.56	9.1566
1982.03	8.43169
1983.51	8.34592
1984.99	8.44155
1986.46	8.14386
1987.94	8.11269
1989.41	7.45227
1990.89	6.99501
1992.36	7.35192
1993.84	7.54068
1995.31	7.46941
1996.78	8.10999
1998.26	7.4614
1999.73	7.30046
2001.2	9.03059
2002.68	8.16482
2004.15	8.91955
2005.62	8.13096
2007.09	7.64321
2008.56	6.47999
2010.04	6.30599
2011.51	7.16962
2012.98	6.65853
2014.45	6.29895
2015.92	7.37042
2017.39	7.55419
2018.86	6.46613
2020.33	7.06668
2021.8	6.54332
2023.26	6.81717
2024.73	6.59604
2026.2	6.14344
2027.67	6.35078
2029.14	6.5483
2030.61	7.08308
2032.07	6.08472
2033.54	7.10261
2035.01	8.70843
2036.47	9.26538
2037.94	8.97255
2039.4	9.15408
2040.87	8.65919
2042.33	8.603
2043.8	8.75257
2045.27	9.66306
2046.73	9.70836
2048.19	9.65691
2049.66	9.28188
2051.12	9.75331
2052.59	10.5438
2054.05	10.8829
2055.51	11.5985
2056.97	12.563
2058.44	13.6148
2059.9	14.016
2061.36	14.3809
2062.82	15.6246
2064.28	16.186
2065.74	16.4622
2067.21	16.498
2068.67	16.7781
2070.13	17.7819
2071.59	17.9614
2073.05	19.4064
2074.51	20.4824
2075.96	19.1015
2077.42	19.529
2078.88	19.4988
2080.34	19.9759
2081.8	20.3292
2083.26	20.8155
2084.72	21.7886
2086.17	21.4846
2087.63	21.8456
2089.09	22.1048
2090.54	20.526
2092	20.3672
2093.45	21.6111
2094.91	21.1607
2096.37	21.2113
2097.82	20.421
2099.28	20.3249
2100.73	19.6726
2102.19	18.9011
2103.64	18.2121
2105.09	18.0041
2106.55	19.1519
2108	18.3753
2109.45	17.7092
2110.91	17.6243
2112.36	18.3468
2113.81	17.5981
2115.26	17.5802
2116.72	17.7495
2118.17	17.3615
2119.62	16.6076
2121.07	16.6839
2122.52	17.424
2123.97	18.5813
2125.42	18.6089
2126.87	19.4185
2128.32	20.0708
2129.77	20.6261
2131.22	21.7088
2132.67	22.144
2134.11	22.6889
2135.56	23.6742
2137.01	23.0779
2138.46	23.8167
2139.91	25.5342
2141.35	27.2001
2142.8	29.365
2144.25	30.5785
2145.7	31.2666
2147.14	32.8823
2148.59	33.876
2150.03	35.5454
2151.48	36.7639
2152.92	37.9249
2154.37	39.5964
2155.81	41.6324
2157.26	42.9605
2158.7	44.1304
2160.15	45.646
2161.59	46.9436
2163.03	46.9736
2164.47	48.4605
2165.92	49.9221
2167.36	49.8598
2168.8	51.2486
2170.24	52.4414
2171.69	53.3831
2173.13	53.7756
2174.57	53.9043
2176.01	55.1509
2177.45	56.6547
2178.89	56.7281
2180.33	56.1245
2181.77	56.8309
2183.21	56.0756
2184.65	55.5842
2186.09	54.7668
2187.53	53.9306
2188.97	52.4622
2190.4	51.5824
2191.84	50.9259
2193.28	50.6746
2194.72	50.753
2196.16	50.0723
2197.59	48.8096
2199.03	47.577
2200.47	46.7947
2201.9	44.7359
2203.34	43.0916
2204.77	41.5068
2206.21	40.3877
2207.64	39.0312
2209.08	36.7657
2210.51	36.4386
2211.95	35.5946
2213.38	34.4017
2214.82	33.0008
2216.25	31.7863
2217.68	30.121
2219.12	29.9995
2220.55	28.7483
2221.98	27.3226
2223.41	25.9128
2224.85	25.9782
2226.28	25.391
2227.71	26.0782
2229.14	26.0738
2230.57	26.2906
2232	25.2628
2233.43	24.9164
2234.86	24.1456
2236.29	25.1994
2237.72	25.2194
2239.15	25.0894
2240.58	25.5054
2242.01	25.075
2243.44	24.5116
2244.87	23.8518
2246.29	23.1985
2247.72	22.1599
2249.15	22.6205
2250.58	22.3011
2252.01	22.361
2253.43	22.4582
2254.86	22.2046
2256.29	21.9223
2257.71	21.4134
2259.14	21.0018
2260.56	20.5488
2261.99	20.6764
2263.41	20.2055
2264.84	19.7859
2266.26	19.913
2267.69	18.4582
2269.11	17.2643
2270.53	16.5613
2271.96	16.4868
2273.38	14.225
2274.8	12.8313
2276.23	12.999
2277.65	12.3021
2279.07	11.4986
2280.49	10.4625
2281.91	10.7274
2283.34	9.97395
2284.76	9.83794
2286.18	9.2485
2287.6	8.67861
2289.02	7.87138
2290.44	7.5872
2291.86	7.06145
2293.28	6.04934
2294.7	6.24836
2296.12	7.66021
2297.54	8.49025
2298.96	9.72117
2300.37	9.83049
2301.79	9.75082
2303.21	9.40228
2304.63	10.0736
2306.04	9.57293
2307.46	9.28348
2308.88	8.83414
2310.3	7.45833
2311.71	6.93751
2313.13	6.05682
2314.54	5.59919
2315.96	4.65374
2317.37	4.63465
2318.79	5.19729
2320.2	7.57028
2321.62	7.46837
2323.03	6.87054
2324.45	7.35895
2325.86	7.63878
2327.27	7.20859
2328.69	7.02177
2330.1	6.91468
2331.51	6.49698
2332.92	6.25615
2334.34	5.62511
2335.75	5.79904
2337.16	5.55999
2338.57	3.94499
2339.98	4.28723
2341.39	4.42904
2342.8	3.82713
2344.21	3.31005
2345.63	3.30293
2347.04	4.15409
2348.45	3.78686
2349.85	3.97816
2351.26	3.75441
2352.67	3.66976
2354.08	3.5271
2355.49	4.60694
2356.9	4.80031
2358.3	4.76902
2359.71	5.36519
2361.12	5.28742
2362.53	5.90187
2363.93	6.56882
2365.34	7.63435
2366.75	8.19526
2368.15	8.21844
2369.56	7.79869
2370.97	7.45791
2372.37	6.98848
2373.77	6.02475
2375.18	5.78358
2376.59	5.67803
2377.99	5.39969
2379.39	5.02657
2380.8	4.02215
2382.2	5.47223
2383.6	4.90239
2385.01	4.90526
2386.41	4.68696
2387.81	5.19822
2389.21	5.88668
2390.62	5.68023
2392.02	4.71885
2393.42	4.81636
2394.82	5.8264
2396.22	5.16719
2397.62	4.35412
2399.02	3.75633
2400.42	4.13895
2401.82	4.00968
2403.22	3.80204
2404.62	4.54002
2406.02	4.7301
2407.42	4.14523
2408.82	4.61634
2410.22	6.13315
2411.62	6.54709
2413.01	7.59448
2414.41	7.39656
2415.81	7.46904
2417.21	8.23809
2418.6	8.91553
2420	9.86007
2421.4	10.4856
2422.79	11.1734
2424.19	11.9542
2425.59	12.395
2426.98	11.7347
2428.38	12.1975
2429.77	13.1811
2431.17	13.4232
2432.56	13.811
2433.95	13.4409
2435.35	13.1102
2436.74	12.6691
2438.14	12.9205
2439.53	12.6727
2440.92	12.8588
2442.31	13.3997
2443.71	13.649
2445.1	13.7595
2446.49	13.4407
2447.88	12.6133
2449.27	12.2486
2450.67	11.6765
2452.06	11.4907
2453.45	10.4702
2454.84	10.6195
2456.23	10.3832
2457.62	11.171
2459.01	10.5427
2460.4	9.46379
2461.79	8.98856
2463.18	8.49995
2464.57	7.89164
2465.95	6.59482
2467.34	6.58062
2468.73	6.20175
2470.12	6.53428
2471.5	6.02746
2472.89	6.87773
2474.28	7.16537
2475.67	6.64418
2477.05	6.53955
2478.44	6.27252
2479.82	6.81087
2481.21	6.94547
2482.6	7.08964
2483.98	6.12953
2485.37	6.26819
2486.75	5.51951
2488.13	5.7865
2489.52	5.52398
2490.9	4.31059
2492.29	3.94944
2493.67	3.86976
2495.05	2.90335
2496.44	2.63586
2497.82	2.78765
2499.2	1.92083
2500.58	1.35765
2501.97	0.897124
2503.35	0.275566
2504.73	0.162635
2506.11	1.07654
2507.49	1.56238
2508.87	1.68222
2510.25	2.30355
2511.63	2.21048
2513.01	1.22712
2514.39	1.26787
2515.77	1.64587
2517.15	1.57892
2518.53	1.31333
2519.91	1.33397
2521.29	1.68844
2522.67	2.54315
2524.05	2.71211
2525.42	3.4924
2526.8	3.75036
2528.18	3.29749
2529.55	3.18894
2530.93	4.1461
2532.31	5.07882
2533.69	5.46338
2535.06	6.18856
2536.44	6.2501
2537.81	6.68425
2539.19	7.45074
2540.56	7.17105
2541.94	7.43832
2543.31	8.18362
2544.69	7.76828
2546.06	7.68253
2547.44	7.90868
2548.81	8.39681
2550.18	8.53898
2551.56	8.18927
2552.93	7.51158
2554.3	7.46764
2555.67	7.9386
2557.04	8.4653
2558.42	7.73389
2559.79	7.18519
2561.16	7.73467
2562.53	6.97634
2563.9	6.2233
2565.27	6.99541
2566.64	7.58866
2568.01	7.95372
2569.38	9.457
2570.75	10.12
2572.12	10.7962
2573.49	11.0286
2574.86	12.3078
2576.23	12.6934
2577.6	13.0861
2578.97	13.8119
2580.33	14.3742
2581.7	14.6279
2583.07	15.7478
2584.44	15.9943
2585.8	15.97
2587.17	16.8196
2588.54	17.8016
2589.9	18.3671
2591.27	18.4139
2592.64	18.8172
2594	19.3489
2595.37	17.7536
2596.73	17.4535
2598.1	16.7368
2599.46	16.8218
2600.83	16.3859
2602.19	15.246
2603.55	13.655
2604.92	12.33
2606.28	12.7855
2607.64	11.4937
2609.01	10.1718
2610.37	10.1436
2611.73	10.2943
2613.09	9.39329
2614.46	9.19665
2615.82	9.28714
2617.18	8.72878
2618.54	10.0204
2619.9	9.24751
2621.26	8.77834
2622.62	9.55387
2623.98	9.26234
2625.34	8.45815
2626.7	8.1843
2628.06	7.70524
2629.42	8.02452
2630.78	7.17984
2632.14	8.6244
2633.5	9.10917
2634.86	10.7218
2636.21	11.352
2637.57	12.4315
2638.93	12.4319
2640.29	13.5192
2641.64	13.9145
2643	14.7551
2644.36	15.2873
2645.71	15.4181
2647.07	15.5643
2648.43	16.2891
2649.78	16.0588
2651.14	16.3671
2652.49	16.4206
2653.85	16.708
2655.2	17.2444
2656.56	17.3623
2657.91	17.2936
2659.26	16.4983
2660.62	15.7183
2661.97	15.2442
2663.32	14.0136
2664.68	14.4208
2666.03	14.3557
2667.38	14.5427
2668.74	14.3191
2670.09	13.6741
2671.44	13.6065
2672.79	14.417
2674.14	14.8876
2675.49	13.9546
2676.84	14.4439
2678.19	15.2192
2679.54	16.5621
2680.89	16.7735
2682.24	16.9966
2683.59	17.7821
2684.94	17.8315
2686.29	19.8301
2687.64	19.8108
2688.99	21.3976
2690.34	22.7559
2691.69	23.5511
2693.03	24.9121
2694.38	27.0626
2695.73	29.7471
2697.08	32.1138
2698.42	34.6458
2699.77	38.2648
2701.12	40.3149
2702.46	43.3597
2703.81	44.4828
2705.15	46.8487
2706.5	48.9015
2707.85	50.734
2709.19	51.6426
2710.54	52.5627
2711.88	54.8933
2713.22	56.1828
2714.57	57.4191
2715.91	58.9191
2717.26	59.527
2718.6	59.7201
2719.94	60.7997
2721.29	61.1279
2722.63	61.5087
2723.97	60.8941
2725.31	60.0049
2726.66	58.4949
2728	57.6954
2729.34	57.0001
2730.68	55.6656
2732.02	54.2557
2733.36	52.2906
2734.7	50.2255
2736.04	47.899
2737.38	45.3081
2738.72	42.7615
2740.06	40.0025
2741.4	36.771
2742.74	33.3283
2744.08	31.0072
2745.42	28.717
2746.76	26.3691
2748.09	23.1037
2749.43	21.0518
2750.77	18.8037
2752.11	16.5321
2753.45	14.8616
2754.78	12.1118
2756.12	10.8504
2757.46	9.6838
2758.79	8.40862
2760.13	7.08297
2761.46	6.58758
2762.8	5.45621
2764.14	4.61537
2765.47	3.97989
2766.8	2.91323
2768.14	2.08367
2769.47	0.769376
2770.81	-0.131326
2772.14	-0.107853
2773.48	-1.10403
2774.81	-1.14272
2776.14	-1.43637
2777.48	-2.24149
2778.81	-1.19974
2780.14	-2.38315
2781.47	-2.05295
2782.8	-1.8227
2784.14	-1.4708
2785.47	-1.08225
2786.8	-0.779485
2788.13	-1.54357
2789.46	-1.713
2790.79	-1.62413
2792.12	-1.84151
2793.45	-1.89583
2794.78	-1.24778
2796.11	-0.633465
2797.44	-0.166638
2798.77	-1.38376
2800.1	-2.17674
2801.43	-2.18737
2802.76	-2.78441
2804.09	-4.70095
2805.41	-5.97781
2806.74	-7.98821
2808.07	-10.7317
2809.4	-13.1366
2810.72	-14.6753
2812.05	-14.0135
2813.38	-11.7174
2814.71	-6.79369
2816.03	0.446048
2817.36	10.9025
2818.68	23.8098
2820.01	39.3551
2821.33	57.5238
2822.66	78.8586
2823.98	100.483
2825.31	123.895
2826.63	148.825
2827.96	175.564
2829.28	203.051
2830.6	230.403
2831.93	257.721
2833.25	285.411
2834.57	315.221
2835.9	343.493
2837.22	373.154
2838.54	401.001
2839.86	427.927
2841.18	454.537
2842.5	477.974
2843.83	500.987
2845.15	523.618
2846.47	546.216
2847.79	570.832
2849.11	595.836
2850.43	623.461
2851.75	650.918
2853.07	679.06
2854.39	708.529
2855.71	736.467
2857.03	761.714
2858.35	786.743
2859.66	808.86
2860.98	830.167
2862.3	847.721
2863.62	862.234
2864.94	874.507
2866.25	885.131
2867.57	892.737
2868.89	898.944
2870.2	903.45
2871.52	906.422
2872.84	909.272
2874.15	911.617
2875.47	914.779
2876.78	918.566
2878.1	923.74
2879.41	929.063
2880.73	933.78
2882.04	937.298
2883.36	942.171
2884.67	944.847
2885.99	947.11
2887.3	948.932
2888.61	949.031
2889.93	947.473
2891.24	944.714
2892.55	940.259
2893.86	935.333
2895.18	929.846
2896.49	921.696
2897.8	914.78
2899.11	908.252
2900.42	901.384
2901.73	891.679
2903.05	884.009
2904.36	873.932
2905.67	865.563
2906.98	858.933
2908.29	852.798
2909.6	850.549
2910.91	850.943
2912.21	855.141
2913.52	859.954
2914.83	865.978
2916.14	872.338
2917.45	876.863
2918.76	880.895
2920.07	881.014
2921.37	880.004
2922.68	877.468
2923.99	876.046
2925.29	870.696
2926.6	866.527
2927.91	859.044
2929.22	851.817
2930.52	843.094
2931.83	834.054
2933.13	824.175
2934.44	815.105
2935.74	803.864
2937.05	791.693
2938.35	779.666
2939.66	765.228
2940.96	750.391
2942.26	735.493
2943.57	720.176
2944.87	703.593
2946.18	686.277
2947.48	668.169
2948.78	650.463
2950.08	632.018
2951.39	613.457
2952.69	594.084
2953.99	574.321
2955.29	556.495
2956.59	537.171
2957.9	518.465
2959.2	500.843
2960.5	484.019
2961.8	466.596
2963.1	450.951
2964.4	435.864
2965.7	420.56
2967	405.864
2968.3	392.407
2969.6	377.677
2970.9	364.671
2972.19	352.436
2973.49	340.097
2974.79	328.29
2976.09	315.343
2977.39	303.169
2978.68	289.362
2979.98	277.058
2981.28	263.755
2982.58	250.259
2983.87	236.334
2985.17	222.682
2986.47	211.075
2987.76	197.748
2989.06	185.32
2990.35	173.011
2991.65	161.844
2992.94	150.467
2994.24	139.869
2995.53	128.94
2996.83	119.288
2998.12	109.46
2999.42	100.756
3000.71	91.959
3002	83.5742
3003.3	76.0857
3004.59	68.518
3005.88	62.0578
3007.18	55.7173
3008.47	49.1144
3009.76	44.1142
3011.05	38.8927
3012.34	33.8746
3013.64	29.5526
3014.93	25.491
3016.22	21.3403
3017.51	18.0221
3018.8	15.5062
3020.09	12.9904
3021.38	9.3622
3022.67	7.23067
3023.96	5.77104
3025.25	3.80166
3026.54	3.05115
3027.83	2.02068
3029.12	1.45999
3030.41	0.344093
3031.69	-1.1377
3032.98	-2.32902
3034.27	-3.75101
3035.56	-4.03074
3036.84	-3.54143
3038.13	-3.62102
3039.42	-3.90799
3040.71	-3.67464
3041.99	-3.17931
3043.28	-3.11911
3044.57	-1.77048
3045.85	-1.08837
3047.14	-0.451692
3048.42	0.0524541
3049.71	0.992886
3050.99	1.75889
3052.28	2.03797
3053.56	2.1003
3054.85	3.68942
3056.13	3.80015
3057.41	3.79649
3058.7	4.07536
3059.98	3.9444
3061.26	4.2667
3062.55	4.82716
3063.83	4.86022
3065.11	5.92424
3066.39	7.15042
3067.68	8.33821
3068.96	8.165
3070.24	9.10782
3071.52	10.0566
3072.8	11.0591
3074.08	12.2296
3075.36	12.1815
3076.65	13.3612
3077.93	13.7454
3079.21	14.5979
3080.49	15.6747
3081.77	15.5985
3083.04	16.5071
3084.32	16.3422
3085.6	17.7552
3086.88	18.7811
3088.16	19.3629
3089.44	20.2775
3090.72	21.7351
3091.99	22.3951
3093.27	23.0045
3094.55	23.2
3095.83	24.5289
3097.1	25.6552
3098.38	26.7902
3099.66	28.6634
3100.93	29.7729
3102.21	31.1502
3103.49	32.2153
3104.76	33.7903
3106.04	34.7961
3107.31	36.8549
3108.59	39.2103
3109.86	40.8636
3111.14	42.3198
3112.41	44.315
3113.69	46.6191
3114.96	47.9531
3116.23	50.1722
3117.51	51.9996
3118.78	54.5089
3120.05	55.8468
3121.33	58.2575
3122.6	60.6433
3123.87	62.6991
3125.14	65.6223
3126.41	68.4009
3127.69	71.2831
3128.96	75.5558
3130.23	78.4125
3131.5	80.9061
3132.77	83.0443
3134.04	86.6184
3135.31	89.5954
3136.58	92.2347
3137.85	95.4222
3139.12	98.6717
3140.39	101.85
3141.66	104.966
3142.93	108.176
3144.2	111.119
3145.47	114.355
3146.74	116.948
3148	120.395
3149.27	120.855
