#Acq. time (s)=	45
#Accumulations=	2
#Range (cm-¹)=	200...3150
#Windows=	2
#Auto scanning=	Off
#Autofocus=	Off
#Macrospot=	Off
#AutoExposure=	Off
#Spike filter=	Multiple accum.
#Delay time (s)=	0
#Binning=	1
#Readout mode=	Signal
#DeNoise=	Off
#ICS correction=	On
#Dark correction=	Off
#Inst. Process=	Off
#Detector Gain=	Best Dynamic Range
#Detector ADC=	20 kHz       
#Detector temperature (°C)=	-69.85
#Instrument=	LabRAM HR Evol
#Detector=	Synapse
#Objective=	x100
#Grating=	600 gr/mm
#ND Filter=	100%
#Laser (nm)=	532 
#Hole=	100.021
#Range=	Auto
#Laser Pol.=	No
#Raman. Pol.=	No
#Laser Pol. (°)=	-0.0007625
#Raman Pol. (°)=	89.9995
#Collection=	Microscope
#StageXY=	Marzhauser
#StageZ=	Marzhauser
#X (µm)=	-6945.4
#Y (µm)=	2013.7
#Z (µm)=	-74.8
#Full time(mm:ss)=	3:18
#Project=	
#Sample=	
#Site=	
#Title=	Mb_20_23_28_2x_45s_532 nm_x100_100%_600 gr_mm
#Remark=	
#Date=	13.07.2022 15:20
#Acquired=	13.07.2022 15:20:31
#Base:Fit=	10.08.2022 10:29:37
#Edit:Spike=	10.08.2022 10:33:06
#Edit:Spike=	10.08.2022 10:33:07
#Edit:Spike=	10.08.2022 10:33:26
#Edit:Spike=	10.08.2022 10:33:27
#Edit:Spike=	10.08.2022 10:33:28
#Edit:Spike=	10.08.2022 10:33:31
#Edit:Spike=	10.08.2022 10:33:31
#Edit:Spike=	10.08.2022 10:33:32
#Base:Sub=	10.08.2022 10:33:46
#Filter:Polynom=	16.08.2022 10:13:29
#AxisType[0]=Intens
#AxisUnit[0]=Cnt
#AxisType[1]=Spectr
#AxisUnit[1]=1/cm
200.563	38.4253
202.377	35.4641
204.194	30.7202
206.008	27.2779
207.821	23.8501
209.634	21.2716
211.449	19.1722
213.262	17.7172
215.074	15.669
216.885	13.2752
218.699	12.2183
220.51	11.9782
222.321	10.9075
224.131	11.5431
225.941	12.4675
227.751	13.6653
229.562	12.4477
231.371	12.4888
233.18	12.4316
234.988	14.1738
236.796	13.8436
238.603	15.1775
240.411	15.6915
242.219	15.8762
244.026	16.2652
245.832	16.3882
247.638	17.2428
249.443	16.1716
251.248	17.1935
253.053	17.7111
254.857	19.1821
256.661	19.3087
258.465	19.3654
260.268	19.3343
262.071	16.9935
263.874	18.2696
265.678	17.4947
267.48	18.3211
269.282	17.9865
271.083	16.8264
272.884	15.5145
274.684	13.21
276.484	10.9109
278.284	9.41257
280.084	8.38366
281.883	7.79075
283.682	6.38527
285.48	4.64564
287.276	4.64416
289.074	3.15478
290.871	1.66453
292.668	2.13287
294.465	2.67156
296.261	2.44512
298.057	4.20626
299.853	4.11954
301.648	5.09181
303.443	6.56319
305.237	7.09293
307.032	8.80591
308.823	11.6295
310.617	13.9209
312.41	15.3291
314.203	16.9238
315.995	18.7289
317.788	18.9078
319.579	19.6886
321.369	21.8597
323.16	23.6884
324.951	25.8597
326.741	27.3048
328.531	29.9427
330.321	29.4536
332.108	30.7248
333.897	32.0547
335.686	32.3589
337.474	33.1956
339.26	34.1718
341.048	37.213
342.835	37.9156
344.622	38.2551
346.406	37.8907
348.192	38.6685
349.978	39.4557
351.764	39.4311
353.547	38.9416
355.332	39.3803
357.116	38.0668
358.901	37.0628
360.682	35.3696
362.466	34.0909
364.249	32.9409
366.03	31.7485
367.812	30.9174
369.594	29.6905
371.374	27.4986
373.155	25.4768
374.936	25.3854
376.715	25.6247
378.495	25.9881
380.273	26.4791
382.053	27.2714
383.832	27.4431
385.609	28.1039
387.388	29.9161
389.164	30.2091
390.942	31.2736
392.72	31.1522
394.495	31.6088
396.272	31.4808
398.047	30.9769
399.823	30.5181
401.597	30.4879
403.372	31.3296
405.145	32.249
406.92	32.3099
408.693	33.0099
410.467	33.1042
412.239	33.8359
414.012	34.5837
415.783	34.8522
417.556	33.7668
419.327	32.8611
421.099	34.1621
422.869	34.2077
424.64	34.3238
426.409	34.2434
428.18	34.9554
429.948	34.47
431.718	32.9803
433.486	32.4038
435.253	32.152
437.022	32.2361
438.789	30.8706
440.558	29.5762
442.324	29.1591
444.089	29.7896
445.857	29.254
447.622	29.4581
449.386	29.4835
451.153	29.1492
452.917	28.798
454.682	29.4768
456.446	29.333
458.208	30.32
459.973	31.9993
461.735	34.2581
463.497	36.252
465.259	37.8139
467.022	39.0004
468.783	39.4835
470.544	41.6756
472.306	43.828
474.066	46.0455
475.825	48.2891
477.585	48.6962
479.346	50.2191
481.104	50.7728
482.862	52.3041
484.62	53.5427
486.38	55.5286
488.137	57.5994
489.894	60.5181
491.65	61.7169
493.407	62.358
495.164	63.4357
496.92	63.6137
498.675	64.4955
500.43	65.3175
502.184	65.0853
503.939	64.841
505.694	65.2401
507.448	66.1165
509.201	67.8279
510.954	67.1277
512.706	66.6733
514.459	65.9207
516.21	65.473
517.962	64.5775
519.715	64.122
521.466	64.6732
523.216	64.1533
524.966	63.861
526.716	63.8167
528.466	64.1454
530.215	63.7368
531.964	64.1019
533.712	64.6731
535.46	63.6396
537.208	62.9995
538.955	61.7505
540.703	60.4674
542.449	59.5541
544.196	58.8822
545.942	59.1667
547.688	58.0357
549.433	57.4754
551.178	56.0082
552.923	53.2878
554.667	52.9109
556.412	51.982
558.155	51.1886
559.899	48.8792
561.642	47.2019
563.385	44.0825
565.127	42.1715
566.867	40.8713
568.609	38.2511
570.35	36.1548
572.092	35.8215
573.832	32.8139
575.573	31.3655
577.313	29.7403
579.053	27.8242
580.79	26.688
582.529	25.1765
584.268	23.1847
586.006	21.3103
587.745	19.8697
589.482	17.8264
591.218	16.2331
592.955	15.5676
594.692	14.8685
596.428	13.3213
598.164	9.29565
599.898	8.55978
601.634	9.2057
603.369	8.9083
605.104	9.25702
606.836	8.79579
608.57	9.43573
610.304	9.76484
612.037	9.77736
613.769	9.28636
615.501	9.18935
617.234	9.41915
618.966	10.3521
620.696	11.6875
622.427	11.9678
624.159	12.6605
625.887	12.1774
627.618	14.0075
629.348	16.7221
631.076	17.7384
632.806	19.6838
634.535	19.5949
636.262	20.1601
637.99	19.9279
639.716	19.8197
641.444	20.9173
643.172	19.7402
644.897	18.3587
646.624	18.6191
648.348	17.7971
650.075	18.2807
651.801	18.5502
653.524	17.314
655.249	16.0444
656.972	15.9844
658.697	17.2515
660.419	16.1326
662.143	16.1227
663.865	14.5519
665.588	13.6266
667.309	11.6688
669.032	10.2089
670.752	7.19788
672.474	7.06625
674.194	6.64187
675.915	6.13972
677.634	4.81236
679.355	5.17829
681.073	4.53175
682.793	3.49106
684.511	3.04642
686.23	6.24764
687.947	6.90999
689.664	6.19831
691.382	5.52589
693.098	7.13663
694.816	8.93873
696.531	9.29112
698.247	9.12502
699.963	11.3256
701.678	13.2394
703.392	14.2189
705.108	15.4325
706.821	16.5149
708.534	16.6416
710.249	17.4543
711.962	18.1986
713.674	20.0572
715.388	21.254
717.099	21.3941
718.81	22.8801
720.523	21.8424
722.234	23.1341
723.944	23.5176
725.654	23.673
727.365	23.987
729.075	24.6101
730.784	24.39
732.492	24.3062
734.202	24.175
735.91	25.2461
737.618	24.146
739.325	23.9343
741.034	25.0026
742.741	25.6071
744.447	27.0307
746.153	27.896
747.859	27.566
749.564	27.0249
751.271	27.7987
752.976	29.4242
754.681	31.0088
756.385	31.6731
758.088	34.5577
759.792	34.7367
761.495	34.9422
763.2	35.3224
764.902	36.9881
766.604	38.1679
768.306	39.4649
770.008	39.6614
771.709	40.8349
773.41	41.0559
775.11	41.7474
776.811	42.3064
778.51	44.7044
780.21	44.9186
781.909	45.126
783.608	45.1602
785.307	46.121
787.005	46.8614
788.703	47.4121
790.401	48.0617
792.098	47.8736
793.795	49.9472
795.492	51.3737
797.188	50.9886
798.884	52.5887
800.58	53.5455
802.276	54.6666
803.971	56.2251
805.665	56.0389
807.36	58.0076
809.054	57.0195
810.748	57.0443
812.441	57.918
814.135	58.0548
815.826	57.6991
817.518	59.1229
819.21	61.2384
820.902	60.7133
822.594	61.2895
824.285	62.3724
825.976	62.8206
827.665	62.746
829.355	64.2665
831.045	63.5568
832.735	62.9058
834.424	62.8494
836.111	63.6762
837.8	64.6704
839.488	63.5579
841.177	62.2711
842.864	61.8809
844.55	59.8883
846.237	59.0527
847.924	57.7549
849.61	56.7089
851.295	55.0297
852.98	53.1323
854.666	51.4775
856.349	52.8246
858.034	52.3438
859.719	51.5732
861.403	51.4931
863.085	50.8532
864.769	49.9519
866.452	49.4969
868.133	48.0729
869.816	48.4326
871.498	49.4352
873.179	47.3504
874.86	45.8039
876.54	45.3278
878.221	45.9945
879.902	45.02
881.58	44.0452
883.26	44.6549
884.938	45.4102
886.618	47.4885
888.297	46.8169
889.974	47.1761
891.653	47.8715
893.329	47.6823
895.007	48.2837
896.683	49.7939
898.36	49.567
900.035	50.7717
901.712	52.8501
903.387	53.3253
905.063	52.3037
906.737	52.6365
908.412	51.7077
910.085	51.9915
911.76	52.4425
913.433	52.1036
915.107	52.3501
916.779	51.9798
918.452	50.8834
920.124	50.664
921.797	49.7414
923.467	47.7603
925.138	47.5911
926.81	48.1069
928.48	44.972
930.151	44.8746
931.82	42.882
933.489	41.9404
935.16	40.2324
936.828	39.6061
938.496	38.4126
940.165	36.6197
941.833	33.1267
943.5	30.15
945.168	27.3499
946.834	24.2439
948.5	23.0915
950.168	21.0956
951.834	19.8863
953.499	18.7002
955.163	16.0232
956.83	12.7106
958.494	10.4243
960.158	8.95044
961.821	6.4469
963.487	6.77972
965.15	7.50545
966.812	10.5122
968.474	12.5312
970.138	14.1432
971.8	15.2961
973.461	17.5574
975.123	18.5922
976.783	20.0822
978.446	21.3385
980.106	22.1537
981.766	24.0498
983.425	25.1898
985.084	26.9062
986.743	28.0572
988.402	27.2885
990.06	26.6022
991.72	26.5244
993.378	26.6646
995.035	27.1977
996.692	28.1099
998.349	28.9647
1000.01	27.3618
1001.66	26.735
1003.32	27.3073
1004.97	27.8638
1006.63	28.6132
1008.28	31.0065
1009.94	33.2538
1011.59	34.5513
1013.25	40.0722
1014.9	42.4132
1016.55	45.6
1018.21	49.1392
1019.86	52.2452
1021.51	54.6429
1023.16	58.3773
1024.81	63.0614
1026.47	67.1358
1028.12	71.8159
1029.77	75.9282
1031.42	80.807
1033.07	84.0042
1034.72	87.0835
1036.37	88.9353
1038.02	91.7756
1039.67	94.2568
1041.31	96.7082
1042.96	101.212
1044.61	105.251
1046.26	110.629
1047.91	114.021
1049.55	116.118
1051.2	116.776
1052.84	118.563
1054.49	118.319
1056.14	117.95
1057.78	116.291
1059.43	114.389
1061.07	113.066
1062.72	111.86
1064.36	111.159
1066	108.356
1067.65	105.647
1069.29	101.401
1070.93	97.7027
1072.58	94.5903
1074.22	91.1805
1075.86	88.7323
1077.5	85.6777
1079.14	81.9973
1080.78	76.8324
1082.42	73.1241
1084.06	71.2137
1085.7	70.3936
1087.34	68.6915
1088.98	67.7108
1090.62	68.082
1092.26	68.944
1093.9	71.0874
1095.54	71.7946
1097.17	71.6925
1098.81	73.0805
1100.45	73.9109
1102.09	73.9099
1103.72	74.1909
1105.36	75.5844
1106.99	75.6662
1108.63	74.8046
1110.27	74.0322
1111.9	73.1652
1113.53	72.9426
1115.17	71.8915
1116.8	71.0388
1118.43	70.3102
1120.07	69.3409
1121.7	67.5514
1123.33	66.9198
1124.97	65.7917
1126.6	62.3656
1128.23	61.2091
1129.86	59.8755
1131.49	57.4737
1133.12	56.387
1134.75	54.2054
1136.38	51.3047
1138.01	49.1864
1139.64	46.7198
1141.27	45.1875
1142.9	43.8937
1144.53	41.9401
1146.16	39.2375
1147.78	35.9887
1149.41	33.5056
1151.04	30.87
1152.67	28.3251
1154.29	23.7277
1155.92	20.5251
1157.54	17.9372
1159.17	15.0206
1160.8	13.3626
1162.42	10.3726
1164.05	9.07288
1165.67	7.24589
1167.29	7.2213
1168.92	6.02667
1170.54	6.98532
1172.16	8.58296
1173.79	11.5852
1175.41	11.8251
1177.03	10.6972
1178.65	11.0234
1180.28	10.9886
1181.9	10.237
1183.52	8.97963
1185.14	9.09727
1186.76	10.2326
1188.38	10.043
1190	10.8053
1191.62	11.6238
1193.24	12.3086
1194.86	13.6676
1196.47	15.3474
1198.09	17.7083
1199.71	18.0432
1201.33	18.9428
1202.95	20.5412
1204.56	22.5481
1206.18	24.824
1207.8	27.7574
1209.41	31.9029
1211.03	34.4484
1212.64	37.7322
1214.26	41.7143
1215.87	45.9713
1217.49	50.5941
1219.1	55.9623
1220.71	59.8117
1222.33	63.5766
1223.94	66.8908
1225.55	70.2584
1227.16	74.0598
1228.78	77.8918
1230.39	83.2867
1232	85.8019
1233.61	89.0619
1235.22	93.3713
1236.83	98.3295
1238.44	102.096
1240.05	106.601
1241.66	109.987
1243.27	113.49
1244.88	118.096
1246.49	122.087
1248.1	126.255
1249.71	128.662
1251.32	133.344
1252.92	135.961
1254.53	137.374
1256.14	139.046
1257.74	141.52
1259.35	143.992
1260.96	146.138
1262.56	148.091
1264.17	150.961
1265.77	154.892
1267.38	159.701
1268.98	163.353
1270.59	167.792
1272.19	171.387
1273.79	174.891
1275.4	178.431
1277	183.13
1278.6	185.807
1280.21	187.634
1281.81	191.484
1283.41	195.596
1285.01	198.594
1286.61	202.406
1288.21	205.905
1289.81	208.719
1291.41	211.859
1293.01	216.658
1294.61	219.904
1296.21	221.966
1297.81	223.98
1299.41	226.094
1301.01	227.491
1302.6	229.108
1304.2	230.384
1305.8	232.189
1307.4	233.724
1308.99	234.605
1310.59	235.673
1312.19	232.897
1313.78	231.605
1315.38	231.659
1316.97	229.34
1318.57	228.162
1320.16	225.949
1321.76	223.719
1323.35	220.627
1324.94	217.776
1326.54	213.171
1328.13	210.592
1329.72	206.511
1331.32	203.158
1332.91	199.104
1334.5	196.247
1336.09	195.274
1337.68	192.085
1339.27	189.68
1340.87	186.631
1342.45	185.697
1344.04	184.041
1345.64	182.559
1347.22	181.559
1348.81	178.685
1350.4	177.399
1351.99	175.733
1353.58	173.608
1355.17	172.305
1356.75	171.113
1358.34	167.94
1359.93	165.425
1361.51	163.941
1363.1	163.209
1364.69	161.874
1366.27	160.783
1367.86	158.793
1369.44	157.771
1371.03	156.72
1372.61	157.307
1374.2	156.821
1375.78	156.134
1377.37	157.272
1378.95	157.614
1380.53	158.024
1382.11	157.682
1383.7	157.928
1385.28	159.497
1386.86	158.536
1388.44	158.784
1390.02	157.446
1391.6	154.498
1393.19	155.71
1394.77	154.754
1396.35	154.339
1397.93	154.688
1399.51	154.421
1401.08	156.275
1402.66	156.804
1404.24	160.563
1405.82	164.527
1407.4	170.625
1408.97	174.172
1410.55	181.938
1412.13	189.475
1413.71	198.252
1415.28	206.584
1416.86	215.195
1418.43	224.594
1420.01	234.563
1421.59	246.994
1423.16	258.182
1424.73	270.021
1426.31	281.801
1427.88	293.494
1429.46	305.657
1431.03	316.374
1432.6	326.731
1434.18	337.417
1435.75	346.499
1437.32	354.518
1438.89	363.082
1440.46	370.206
1442.04	376.34
1443.61	380.862
1445.18	383.339
1446.75	385.765
1448.32	388.189
1449.89	389.313
1451.46	388.404
1453.03	386.297
1454.6	381.979
1456.16	377.724
1457.73	372.312
1459.3	365.498
1460.87	357.493
1462.44	348.063
1464	337.486
1465.57	324.742
1467.14	312.792
1468.7	299.307
1470.27	287.41
1471.83	275.471
1473.4	261.57
1474.96	248.63
1476.53	236.967
1478.09	225.029
1479.66	213.601
1481.22	202.261
1482.78	193.135
1484.35	182.06
1485.91	171.996
1487.47	161.099
1489.04	152.86
1490.6	144.297
1492.16	137.054
1493.72	130.037
1495.28	124.728
1496.84	118.594
1498.4	114.309
1499.96	110.723
1501.52	104.249
1503.08	98.4464
1504.64	94.228
1506.2	89.5602
1507.76	85.7327
1509.32	82.1471
1510.88	78.0036
1512.44	74.474
1513.99	71.2395
1515.55	68.4795
1517.11	65.958
1518.66	62.5139
1520.22	61.5327
1521.78	59.591
1523.33	58.062
1524.89	57.8912
1526.44	57.6764
1528	57.4163
1529.55	56.9696
1531.11	58.3303
1532.66	59.1073
1534.21	60.4996
1535.77	61.4472
1537.32	63.4414
1538.87	65.6086
1540.43	65.5625
1541.98	66.7585
1543.53	68.822
1545.08	70.8243
1546.63	74.1145
1548.18	77.0187
1549.74	78.5702
1551.29	81.1003
1552.84	83.1962
1554.39	88.3776
1555.94	90.0016
1557.48	92.2505
1559.03	94.2155
1560.58	95.9099
1562.13	96.7125
1563.68	99.4187
1565.23	101.52
1566.78	105.004
1568.32	108.889
1569.87	112.826
1571.42	115.743
1572.96	118.324
1574.51	121.459
1576.05	124.739
1577.6	125.996
1579.14	127.329
1580.69	131.095
1582.24	133.396
1583.78	135.79
1585.32	138.302
1586.87	140.721
1588.41	142.556
1589.95	144.639
1591.5	147.033
1593.04	149.088
1594.58	149.797
1596.12	150.948
1597.67	152.111
1599.21	152.38
1600.75	152.946
1602.29	152.787
1603.83	153.222
1605.37	154.55
1606.91	155.228
1608.45	154.771
1609.99	155.544
1611.53	155.509
1613.07	156.881
1614.6	157.113
1616.14	155.495
1617.68	154.768
1619.22	155.958
1620.75	157.512
1622.29	158.981
1623.83	161.088
1625.37	162.026
1626.9	163.484
1628.44	166.037
1629.97	169.114
1631.51	172.368
1633.04	173.561
1634.58	176.77
1636.11	178.964
1637.65	182.352
1639.18	185.678
1640.72	190.409
1642.25	193.91
1643.78	196.875
1645.31	200.06
1646.85	204.041
1648.38	206.511
1649.91	208.613
1651.44	211.057
1652.97	212.182
1654.5	211.365
1656.03	212.452
1657.56	212.698
1659.1	211.282
1660.62	211.437
1662.15	209.332
1663.68	206.634
1665.21	202.983
1666.74	198.637
1668.27	195.512
1669.8	190.791
1671.32	184.823
1672.85	179.288
1674.38	173.053
1675.91	167.166
1677.43	160.839
1678.96	154.214
1680.49	148.845
1682.01	142.835
1683.54	135.627
1685.06	128.727
1686.59	123.042
1688.11	116.099
1689.64	110.22
1691.16	102.806
1692.68	97.1734
1694.21	93.3519
1695.73	88.2407
1697.25	84.7701
1698.78	80.9229
1700.3	77.179
1701.82	73.5704
1703.34	70.2873
1704.86	67.4376
1706.39	64.966
1707.91	61.3873
1709.43	58.6467
1710.95	55.974
1712.47	53.1174
1713.99	52.3793
1715.51	50.5067
1717.02	48.5152
1718.54	46.4195
1720.06	44.3287
1721.58	43.4295
1723.1	43.4473
1724.62	40.8782
1726.13	39.2515
1727.65	38.0805
1729.17	36.361
1730.68	35.0615
1732.2	35.1216
1733.72	33.8639
1735.23	32.2636
1736.75	32.1458
1738.26	30.006
1739.78	28.3295
1741.29	27.0003
1742.81	26.0727
1744.32	25.5231
1745.84	24.3598
1747.35	23.3057
1748.86	22.1062
1750.37	21.3085
1751.89	20.8027
1753.4	20.432
1754.91	19.3795
1756.42	18.9418
1757.93	17.4876
1759.45	16.4305
1760.96	15.0727
1762.47	15.0991
1763.98	14.1407
1765.49	13.936
1767	13.7059
1768.51	13.4737
1770.02	12.9512
1771.53	11.5642
1773.03	11.1909
1774.54	10.069
1776.05	9.07768
1777.56	8.5847
1779.07	8.07247
1780.57	7.64032
1782.08	7.43082
1783.59	6.72302
1785.09	6.17639
1786.6	5.58597
1788.11	5.67359
1789.61	5.65542
1791.12	4.66022
1792.62	4.41493
1794.13	4.67417
1795.63	4.95356
1797.13	4.87255
1798.64	4.64945
1800.14	3.47441
1801.65	3.76888
1803.15	3.53507
1804.65	3.5946
1806.15	3.69044
1807.66	3.61285
1809.16	3.68611
1810.66	3.42873
1812.16	3.29147
1813.66	2.60982
1815.16	2.60612
1816.66	3.55361
1818.16	3.48609
1819.66	3.52587
1821.16	3.72777
1822.66	3.71644
1824.16	3.10164
1825.66	3.37909
1827.16	3.39906
1828.66	2.89515
1830.16	1.92377
1831.65	2.09264
1833.15	1.76266
1834.65	2.01063
1836.14	1.69875
1837.64	2.16885
1839.14	1.91948
1840.63	2.15651
1842.13	1.47991
1843.62	1.43088
1845.12	1.31207
1846.61	1.25449
1848.11	0.857926
1849.6	0.721141
1851.1	0.266166
1852.59	-0.138197
1854.08	-0.68543
1855.58	-1.35111
1857.07	-1.2705
1858.56	-1.44564
1860.05	-1.69002
1861.55	-0.927534
1863.04	-1.36177
1864.53	-0.987039
1866.02	-0.28225
1867.51	0.840964
1869	1.29473
1870.49	1.12403
1871.98	1.66892
1873.47	2.76052
1874.96	3.70324
1876.45	4.19244
1877.94	5.41449
1879.43	5.85144
1880.92	6.93068
1882.41	7.88997
1882.51	7.42438
1884	7.66851
1885.5	7.83669
1886.99	8.39289
1888.48	8.47948
1889.98	8.81865
1891.47	8.29696
1892.96	8.5063
1894.46	8.87335
1895.95	8.6716
1897.44	7.82894
1898.93	8.55357
1900.42	9.1074
1901.91	10.0074
1903.41	10.0908
1904.9	10.1878
1906.39	9.76039
1907.88	9.88971
1909.37	10.2456
1910.86	10.5556
1912.35	10.449
1913.83	10.01
1915.32	10.2425
1916.81	10.7325
1918.3	10.167
1919.79	9.63056
1921.27	8.83612
1922.76	8.67901
1924.25	7.89866
1925.74	8.60737
1927.22	9.33323
1928.71	9.21151
1930.19	8.74667
1931.68	8.31793
1933.17	8.36992
1934.65	8.12873
1936.14	7.50746
1937.62	7.84048
1939.11	7.8348
1940.59	8.02948
1942.07	7.37295
1943.56	7.81056
1945.04	8.39567
1946.52	7.98924
1948.01	7.47454
1949.49	7.73494
1950.97	8.49303
1952.45	7.62502
1953.93	7.05796
1955.42	6.35158
1956.9	5.39499
1958.38	5.25026
1959.86	4.60494
1961.34	4.12243
1962.82	3.70056
1964.3	3.36918
1965.78	2.94479
1967.26	2.78817
1968.74	2.70777
1970.21	1.87157
1971.69	2.97253
1973.17	3.40452
1974.65	3.22537
1976.13	2.60882
1977.6	1.96533
1979.08	1.89878
1980.56	2.92589
1982.03	3.75569
1983.51	3.79631
1984.99	3.56106
1986.46	3.20648
1987.94	3.38953
1989.41	4.25684
1990.89	4.44084
1992.36	4.22531
1993.84	4.58512
1995.31	4.02991
1996.78	4.18872
1998.26	5.29083
1999.73	6.66007
2001.2	6.18456
2002.68	5.50084
2004.15	5.09312
2005.62	5.17543
2007.09	4.87908
2008.56	4.42642
2010.04	5.22038
2011.51	6.13355
2012.98	6.30192
2014.45	7.63182
2015.92	8.28273
2017.39	9.44193
2018.86	9.25226
2020.33	9.63354
2021.8	10.4718
2023.26	10.8518
2024.73	10.9897
2026.2	10.9952
2027.67	11.0784
2029.14	11.1608
2030.61	11.8492
2032.07	12.8708
2033.54	12.7941
2035.01	12.7312
2036.47	13.0661
2037.94	13.82
2039.4	14.4732
2040.87	14.77
2042.33	14.7302
2043.8	14.4624
2045.27	15.1696
2046.73	14.2812
2048.19	14.9848
2049.66	15.5047
2051.12	16.8558
2052.59	16.4437
2054.05	16.9346
2055.51	16.6308
2056.97	15.6231
2058.44	15.6875
2059.9	15.2717
2061.36	16.3896
2062.82	15.8492
2064.28	15.4447
2065.74	15.3205
2067.21	15.875
2068.67	15.6572
2070.13	16.4427
2071.59	16.6376
2073.05	16.1669
2074.51	15.4543
2075.96	15.186
2077.42	15.5921
2078.88	16.67
2080.34	17.061
2081.8	19.1469
2083.26	20.3019
2084.72	21.619
2086.17	21.9714
2087.63	24.1071
2089.09	24.9774
2090.54	25.8387
2092	25.473
2093.45	26.405
2094.91	27.897
2096.37	28.7341
2097.82	29.7086
2099.28	29.8683
2100.73	29.9721
2102.19	31.0345
2103.64	32.1183
2105.09	32.4952
2106.55	32.0026
2108	32.5281
2109.45	33.7254
2110.91	34.2199
2112.36	35.2413
2113.81	35.4175
2115.26	37.1634
2116.72	38.7217
2118.17	40.838
2119.62	42.6208
2121.07	43.9478
2122.52	45.9862
2123.97	47.7171
2125.42	48.7655
2126.87	50.562
2128.32	51.5594
2129.77	52.4817
2131.22	54.4155
2132.67	56.5816
2134.11	58.8425
2135.56	60.8113
2137.01	63.5343
2138.46	66.5149
2139.91	68.7982
2141.35	70.6601
2142.8	72.8472
2144.25	74.8226
2145.7	78.0311
2147.14	80.9419
2148.59	84.213
2150.03	87.0955
2151.48	89.7214
2152.92	92.9911
2154.37	96.7481
2155.81	99.6938
2157.26	101.72
2158.7	105.046
2160.15	107.996
2161.59	109.837
2163.03	111.382
2164.47	112.586
2165.92	114.829
2167.36	117.023
2168.8	118.435
2170.24	119.315
2171.69	119.871
2173.13	121.111
2174.57	121.718
2176.01	121.965
2177.45	120.643
2178.89	120.22
2180.33	119.904
2181.77	119.769
2183.21	119.172
2184.65	119.299
2186.09	118.043
2187.53	117.807
2188.97	115.737
2190.4	113.151
2191.84	111.321
2193.28	108.016
2194.72	105.763
2196.16	102.836
2197.59	99.2513
2199.03	96.2035
2200.47	93.7236
2201.9	91.406
2203.34	89.0563
2204.77	86.6334
2206.21	83.5358
2207.64	80.5547
2209.08	76.6641
2210.51	73.5727
2211.95	69.4693
2213.38	66.0962
2214.82	63.5956
2216.25	60.8381
2217.68	58.898
2219.12	56.3922
2220.55	53.6384
2221.98	51.1045
2223.41	49.1248
2224.85	47.3276
2226.28	45.3321
2227.71	43.1658
2229.14	41.2378
2230.57	41.0691
2232	39.1536
2233.43	37.4559
2234.86	36.8076
2236.29	35.9427
2237.72	35.2778
2239.15	35.1337
2240.58	34.1343
2242.01	32.2484
2243.44	30.188
2244.87	29.6926
2246.29	28.2203
2247.72	27.8399
2249.15	26.6546
2250.58	26.7821
2252.01	26.0383
2253.43	25.6753
2254.86	24.8764
2256.29	23.5544
2257.71	22.0248
2259.14	21.6581
2260.56	20.3984
2261.99	19.1621
2263.41	18.5576
2264.84	17.0071
2266.26	16.5305
2267.69	17.1475
2269.11	16.1822
2270.53	16.0751
2271.96	15.6272
2273.38	14.5869
2274.8	14.3266
2276.23	13.2903
2277.65	12.0787
2279.07	11.6194
2280.49	10.877
2281.91	10.4501
2283.34	9.71237
2284.76	8.87711
2286.18	8.35651
2287.6	8.07592
2289.02	7.11659
2290.44	5.96602
2291.86	5.11372
2293.28	5.30215
2294.7	5.3204
2296.12	5.1992
2297.54	6.24992
2298.96	6.82506
2300.37	7.03895
2301.79	7.29622
2303.21	7.48255
2304.63	8.23039
2306.04	8.63395
2307.46	8.05146
2308.88	8.32796
2310.3	8.11542
2311.71	7.66873
2313.13	7.8234
2314.54	8.73119
2315.96	8.5245
2317.37	8.4943
2318.79	8.87399
2320.2	8.13904
2321.62	7.96081
2323.03	7.79458
2324.45	6.82973
2325.86	6.12363
2327.27	5.99502
2328.69	6.35906
2330.1	6.93713
2331.51	6.24706
2332.92	5.35547
2334.34	4.97745
2335.75	4.43254
2337.16	4.0704
2338.57	4.11231
2339.98	3.44927
2341.39	3.17701
2342.8	2.7362
2344.21	2.10969
2345.63	2.6796
2347.04	1.34076
2348.45	1.04679
2349.85	1.10139
2351.26	0.0140096
2352.67	-1.20371
2354.08	-2.17833
2355.49	-2.60911
2356.9	-2.09389
2358.3	-2.31262
2359.71	-2.99572
2361.12	-2.28358
2362.53	-0.680635
2363.93	-0.128647
2365.34	0.6631
2366.75	0.903676
2368.15	1.63582
2369.56	1.6898
2370.97	1.43039
2372.37	2.33168
2373.77	2.46173
2375.18	2.96573
2376.59	2.75516
2377.99	3.02471
2379.39	3.1208
2380.8	2.39086
2382.2	2.83032
2383.6	3.27064
2385.01	2.77965
2386.41	2.52222
2387.81	4.03699
2389.21	3.78727
2390.62	3.27109
2392.02	3.54669
2393.42	3.03179
2394.82	2.33549
2396.22	2.05566
2397.62	2.63402
2399.02	2.62937
2400.42	2.72909
2401.82	2.23383
2403.22	2.14889
2404.62	1.8805
2406.02	1.09637
2407.42	1.86654
2408.82	2.34366
2410.22	3.19611
2411.62	3.5671
2413.01	4.05294
2414.41	4.5367
2415.81	4.82119
2417.21	4.34753
2418.6	4.70796
2420	4.36419
2421.4	4.67156
2422.79	4.42437
2424.19	5.08374
2425.59	5.68757
2426.98	5.16843
2428.38	5.10609
2429.77	5.43445
2431.17	5.8296
2432.56	6.06609
2433.95	6.20791
2435.35	6.90111
2436.74	6.72884
2438.14	7.1362
2439.53	7.44469
2440.92	7.67789
2442.31	7.02313
2443.71	6.70805
2445.1	6.65307
2446.49	6.40852
2447.88	5.81155
2449.27	5.6529
2450.67	5.70678
2452.06	6.29734
2453.45	6.36453
2454.84	6.23192
2456.23	6.06123
2457.62	5.10165
2459.01	3.93826
2460.4	3.41841
2461.79	3.16821
2463.18	2.53989
2464.57	2.15488
2465.95	2.06025
2467.34	2.67584
2468.73	2.29905
2470.12	2.02785
2471.5	1.61127
2472.89	1.17131
2474.28	0.861169
2475.67	1.35872
2477.05	1.6499
2478.44	1.88169
2479.82	2.41435
2481.21	2.31612
2482.6	0.9373
2483.98	0.992067
2485.37	0.278398
2486.75	-0.0986214
2488.13	-0.451572
2489.52	-0.144809
2490.9	-0.110135
2492.29	-0.440447
2493.67	0.664823
2495.05	1.05123
2496.44	0.689903
2497.82	2.11256
2499.2	2.40279
2500.58	2.76582
2501.97	3.5637
2503.35	4.15336
2504.73	4.61496
2506.11	4.33163
2507.49	4.34116
2508.87	4.27252
2510.25	4.0456
2511.63	3.9965
2513.01	4.8821
2514.39	4.62096
2515.77	4.55829
2517.15	4.49124
2518.53	5.56354
2519.91	5.27972
2521.29	4.96613
2522.67	5.41774
2524.05	5.86241
2525.42	5.68759
2526.8	5.82316
2528.18	6.2468
2529.55	6.49009
2530.93	6.94899
2532.31	6.7146
2533.69	6.62659
2535.06	6.31053
2536.44	6.45406
2537.81	6.29794
2539.19	6.56117
2540.56	6.9479
2541.94	7.50501
2543.31	8.23788
2544.69	7.82967
2546.06	8.2635
2547.44	8.94324
2548.81	8.75891
2550.18	8.66856
2551.56	8.83978
2552.93	9.91366
2554.3	9.72279
2555.67	10.5151
2557.04	11.1781
2558.42	11.5511
2559.79	11.8086
2561.16	12.8207
2562.53	13.2635
2563.9	12.8514
2565.27	12.5229
2566.64	13.204
2568.01	12.7889
2569.38	12.7544
2570.75	12.642
2572.12	12.1517
2573.49	11.8085
2574.86	11.3327
2576.23	11.41
2577.6	10.6394
2578.97	10.9018
2580.33	10.8262
2581.7	10.142
2583.07	9.5154
2584.44	9.58718
2585.8	9.69899
2587.17	9.81308
2588.54	8.99273
2589.9	9.03738
2591.27	10.0138
2592.64	9.93238
2594	9.91141
2595.37	9.65378
2596.73	9.46293
2598.1	9.67942
2599.46	9.45184
2600.83	8.65576
2602.19	9.82675
2603.55	10.0621
2604.92	11.093
2606.28	11.309
2607.64	11.6593
2609.01	11.8923
2610.37	12.1681
2611.73	11.9177
2613.09	11.3762
2614.46	11.6552
2615.82	11.3989
2617.18	11.1498
2618.54	11.5051
2619.9	11.8043
2621.26	11.982
2622.62	12.1827
2623.98	11.927
2625.34	11.7113
2626.7	11.8821
2628.06	11.6713
2629.42	11.3119
2630.78	10.8558
2632.14	10.7443
2633.5	10.9583
2634.86	10.9383
2636.21	11.0729
2637.57	11.2093
2638.93	11.2649
2640.29	11.1578
2641.64	10.9202
2643	11.0021
2644.36	10.7978
2645.71	10.3064
2647.07	10.4547
2648.43	10.3724
2649.78	10.4374
2651.14	10.1995
2652.49	10.6154
2653.85	11.8151
2655.2	11.887
2656.56	12.6729
2657.91	13.6539
2659.26	13.782
2660.62	13.8822
2661.97	14.0438
2663.32	13.7398
2664.68	14.4309
2666.03	15.6315
2667.38	15.8998
2668.74	16.1194
2670.09	16.9711
2671.44	16.0366
2672.79	16.2244
2674.14	15.5472
2675.49	15.0668
2676.84	15.6281
2678.19	16.0036
2679.54	15.9401
2680.89	16.2726
2682.24	16.1592
2683.59	16.4292
2684.94	16.5351
2686.29	17.379
2687.64	17.1597
2688.99	17.2049
2690.34	16.5632
2691.69	16.2115
2693.03	16.0893
2694.38	16.2126
2695.73	17.0758
2697.08	18.4153
2698.42	19.2345
2699.77	20.5736
2701.12	21.3214
2702.46	22.589
2703.81	24.3278
2705.15	25.4001
2706.5	26.2351
2707.85	27.3419
2709.19	28.7086
2710.54	30.5067
2711.88	32.1642
2713.22	33.5907
2714.57	34.6472
2715.91	36.3191
2717.26	36.5243
2718.6	36.5941
2719.94	37.8355
2721.29	38.5831
2722.63	39.3426
2723.97	40.8868
2725.31	40.8883
2726.66	40.9752
2728	41.3309
2729.34	41.2845
2730.68	41.405
2732.02	41.0344
2733.36	40.9389
2734.7	39.3019
2736.04	38.089
2737.38	36.837
2738.72	35.8641
2740.06	35.5196
2741.4	34.5587
2742.74	33.4659
2744.08	32.8615
2745.42	31.4528
2746.76	29.0087
2748.09	26.5512
2749.43	23.5764
2750.77	21.939
2752.11	20.9213
2753.45	18.6853
2754.78	17.1249
2756.12	15.1536
2757.46	13.4286
2758.79	11.8469
2760.13	10.4432
2761.46	9.89495
2762.8	9.35626
2764.14	7.75145
2765.47	6.83519
2766.8	5.41815
2768.14	4.25568
2769.47	3.97822
2770.81	3.51358
2772.14	2.74388
2773.48	2.30411
2774.81	1.71132
2776.14	1.2296
2777.48	1.11349
2778.81	0.401677
2780.14	-0.594963
2781.47	-2.04876
2782.8	-1.99976
2784.14	-2.22124
2785.47	-1.70138
2786.8	-0.445831
2788.13	0.29355
2789.46	1.16601
2790.79	0.957203
2792.12	0.644206
2793.45	1.76157
2794.78	1.89267
2796.11	2.25774
2797.44	2.00417
2798.77	2.81815
2800.1	2.21938
2801.43	2.42372
2802.76	2.72497
2804.09	2.56154
2805.41	2.5958
2806.74	2.28758
2808.07	1.16642
2809.4	0.233089
2810.72	-0.979687
2812.05	-1.16164
2813.38	-1.55892
2814.71	0.686993
2816.03	3.60598
2817.36	8.7324
2818.68	14.4396
2820.01	20.3475
2821.33	28.6979
2822.66	38.5473
2823.98	49.3486
2825.31	61.0803
2826.63	73.2451
2827.96	86.3276
2829.28	99.7871
2830.6	112.927
2831.93	127.752
2833.25	141.989
2834.57	158.559
2835.9	175.426
2837.22	191.94
2838.54	208.41
2839.86	224.887
2841.18	241.754
2842.5	259.093
2843.83	275.737
2845.15	293.286
2846.47	310.34
2847.79	329.225
2849.11	348.966
2850.43	368.611
2851.75	388.478
2853.07	410.462
2854.39	431.199
2855.71	452.351
2857.03	472.187
2858.35	492.091
2859.66	510.415
2860.98	528.317
2862.3	545.077
2863.62	561.269
2864.94	576.086
2866.25	589.45
2867.57	603.765
2868.89	614.482
2870.2	624.795
2871.52	634.365
2872.84	643.203
2874.15	651.32
2875.47	660.036
2876.78	669.391
2878.1	678.824
2879.41	686.407
2880.73	695.728
2882.04	703.486
2883.36	712.378
2884.67	720.758
2885.99	728.381
2887.3	736.365
2888.61	744.573
2889.93	748.972
2891.24	754.332
2892.55	759.612
2893.86	766.047
2895.18	771.117
2896.49	776.909
2897.8	783.003
2899.11	790.144
2900.42	796.817
2901.73	803.167
2903.05	809.747
2904.36	816.135
2905.67	824.329
2906.98	834.367
2908.29	844.454
2909.6	856.415
2910.91	868.221
2912.21	881.518
2913.52	896.361
2914.83	910.651
2916.14	925.389
2917.45	939.508
2918.76	953.097
2920.07	963.443
2921.37	974.057
2922.68	983.264
2923.99	990.574
2925.29	996.966
2926.6	1002.26
2927.91	1005.37
2929.22	1007.13
2930.52	1005.89
2931.83	1004.55
2933.13	1000.4
2934.44	994.381
2935.74	988.819
2937.05	980.993
2938.35	971.072
2939.66	959.362
2940.96	946.659
2942.26	932.981
2943.57	917.674
2944.87	900.936
2946.18	884.319
2947.48	866.023
2948.78	847.789
2950.08	828.86
2951.39	808.491
2952.69	787.989
2953.99	766.977
2955.29	745.414
2956.59	725.26
2957.9	704.853
2959.2	684.451
2960.5	663.261
2961.8	644.094
2963.1	624.176
2964.4	605.379
2965.7	585.149
2967	566.893
2968.3	548.997
2969.6	531.645
2970.9	515.598
2972.19	499.942
2973.49	483.326
2974.79	467.846
2976.09	451.15
2977.39	436.517
2978.68	421.055
2979.98	405.498
2981.28	390.273
2982.58	373.664
2983.87	357.791
2985.17	341.773
2986.47	326.18
2987.76	310.373
2989.06	293.888
2990.35	279.223
2991.65	263.342
2992.94	248.21
2994.24	232.294
2995.53	216.92
2996.83	203.269
2998.12	189.253
2999.42	176.681
3000.71	163.484
3002	150.331
3003.3	137.446
3004.59	126.36
3005.88	116.331
3007.18	107.025
3008.47	97.1226
3009.76	87.262
3011.05	79.1169
3012.34	71.3499
3013.64	64.1065
3014.93	56.2592
3016.22	49.3828
3017.51	43.1826
3018.8	38.6401
3020.09	34.2557
3021.38	29.5764
3022.67	25.0414
3023.96	21.406
3025.25	17.9116
3026.54	15.0008
3027.83	12.08
3029.12	9.84598
3030.41	7.85558
3031.69	6.40133
3032.98	5.01846
3034.27	4.00212
3035.56	3.01006
3036.84	3.18333
3038.13	2.69929
3039.42	3.38905
3040.71	3.56058
3041.99	4.03321
3043.28	5.22622
3044.57	5.9459
3045.85	6.6755
3047.14	6.61464
3048.42	7.62427
3049.71	8.08178
3050.99	9.00336
3052.28	9.80216
3053.56	10.2309
3054.85	10.7181
3056.13	10.1872
3057.41	10.3743
3058.7	10.0104
3059.98	10.9951
3061.26	10.5983
3062.55	10.5157
3063.83	10.6342
3065.11	9.93255
3066.39	10.3464
3067.68	9.89054
3068.96	10.1418
3070.24	8.89849
3071.52	7.89987
3072.8	6.82399
3074.08	6.31206
3075.36	5.9504
3076.65	4.79303
3077.93	3.70309
3079.21	3.03136
3080.49	3.07416
3081.77	2.69025
3083.04	2.64044
3084.32	1.98043
3085.6	1.81286
3086.88	0.936128
3088.16	1.44061
3089.44	2.10747
3090.72	2.53589
3091.99	3.02491
3093.27	4.031
3094.55	4.75479
3095.83	5.66125
3097.1	6.66031
3098.38	8.20855
3099.66	9.66291
3100.93	11.125
3102.21	13.5128
3103.49	15.6389
3104.76	17.4154
3106.04	19.5694
3107.31	21.9674
3108.59	23.79
3109.86	25.5183
3111.14	28.0622
3112.41	30.456
3113.69	33.1263
3114.96	35.6366
3116.23	37.5124
3117.51	39.8756
3118.78	41.8998
3120.05	44.0361
3121.33	46.7173
3122.6	49.0186
3123.87	51.8417
3125.14	53.6004
3126.41	56.7011
3127.69	59.1517
3128.96	61.3703
3130.23	63.6143
3131.5	65.6339
3132.77	67.6555
3134.04	69.2315
3135.31	71.9754
3136.58	74.6404
3137.85	77.2692
3139.12	79.7666
3140.39	82.0144
3141.66	84.3497
3142.93	86.7587
3144.2	88.884
3145.47	90.9467
3146.74	92.7773
3148	94.3848
3149.27	95.9314
