#Acq. time (s)=	45
#Accumulations=	2
#Range (cm-¹)=	200...3150
#Windows=	2
#Auto scanning=	Off
#Autofocus=	Off
#Macrospot=	Off
#AutoExposure=	Off
#Spike filter=	Multiple accum.
#Delay time (s)=	0
#Binning=	1
#Readout mode=	Signal
#DeNoise=	Off
#ICS correction=	On
#Dark correction=	Off
#Inst. Process=	Off
#Detector Gain=	Best Dynamic Range
#Detector ADC=	20 kHz       
#Detector temperature (°C)=	-69.85
#Instrument=	LabRAM HR Evol
#Detector=	Synapse
#Objective=	x100
#Grating=	600 gr/mm
#ND Filter=	100%
#Laser (nm)=	532 
#Hole=	100.021
#Range=	Auto
#Laser Pol.=	No
#Raman. Pol.=	No
#Laser Pol. (°)=	-0.0007625
#Raman Pol. (°)=	89.9995
#Collection=	Microscope
#StageXY=	Marzhauser
#StageZ=	Marzhauser
#X (µm)=	-785.4
#Y (µm)=	2664.7
#Z (µm)=	584.2
#Full time(mm:ss)=	3:17
#Project=	
#Sample=	
#Site=	
#Title=	Mb_20_x_01_2x_45s_532 nm_x100_100%_600 gr_mm
#Remark=	
#Date=	18.07.2022 14:29
#Acquired=	18.07.2022 14:29:04
#Base:Fit=	16.08.2022 10:28:40
#Base:Fit=	16.08.2022 10:28:53
#Base:Fit=	16.08.2022 10:29:09
#Base:Fit=	16.08.2022 10:29:17
#Base:Fit=	16.08.2022 10:29:25
#Base:Fit=	16.08.2022 10:29:33
#Base:Sub=	16.08.2022 10:29:38
#Filter:Polynom=	16.08.2022 10:30:49
#AxisType[0]=Intens
#AxisUnit[0]=Cnt
#AxisType[1]=Spectr
#AxisUnit[1]=1/cm
200.419	14.8024
202.234	14.7212
204.048	14.8361
205.862	14.0496
207.678	13.2704
209.491	12.6904
211.304	11.5391
213.116	10.089
214.928	9.66189
216.742	8.78806
218.554	8.00104
220.365	7.13547
222.176	6.46499
223.986	5.49969
225.798	5.6105
227.608	5.51738
229.417	4.61474
231.226	4.55047
233.035	3.32604
234.843	3.325
236.653	2.93443
238.46	2.3829
240.268	1.57544
242.074	2.23943
243.881	2.17986
245.687	2.10555
247.493	1.92549
249.298	3.1818
251.103	4.23481
252.908	4.65469
254.715	3.14242
256.519	1.97954
258.322	1.98774
260.126	1.8107
261.929	3.65027
263.731	2.94272
265.534	2.97222
267.336	2.53376
269.137	2.89838
270.938	3.22002
272.739	3.15192
274.54	4.36228
276.34	4.34865
278.14	3.94604
279.939	4.1896
281.739	4.24998
283.537	4.00788
285.336	4.22248
287.134	5.03854
288.932	5.94885
290.729	6.03163
292.526	6.15328
294.323	6.59459
296.117	7.33109
297.913	7.49044
299.709	7.56312
301.504	7.2925
303.299	8.78335
305.093	10.5587
306.888	10.8369
308.682	10.8604
310.475	11.0048
312.268	11.1583
314.059	11.8381
315.852	12.6154
317.644	12.567
319.436	12.6754
321.227	12.9702
323.018	12.8488
324.807	13.4766
326.597	13.0196
328.387	13.1797
330.177	14.218
331.967	15.4306
333.753	16.1837
335.542	16.8249
337.331	17.1322
339.119	16.7839
340.906	15.9278
342.691	15.0822
344.478	13.0639
346.265	12.8979
348.051	12.217
349.835	11.6734
351.621	11.1935
353.406	9.34501
355.189	9.48383
356.973	9.38262
358.757	9.29121
360.541	8.35046
362.323	7.49403
364.106	7.93987
365.889	7.68271
367.669	6.95068
369.451	6.5342
371.233	7.06478
373.012	6.88127
374.793	6.05272
376.574	6.84087
378.353	6.24754
380.133	6.44389
381.91	5.55091
383.69	6.03359
385.469	6.13436
387.245	6.07217
389.024	5.91455
390.8	5.86561
392.577	6.66606
394.353	6.21943
396.129	4.76425
397.906	4.91668
399.68	5.44029
401.456	5.28175
403.23	4.84993
405.005	4.4489
406.778	4.32394
408.552	4.23685
410.325	4.40507
412.099	5.23803
413.87	4.34168
415.643	3.92863
417.414	4.92815
419.187	5.9807
420.957	5.30309
422.728	5.33739
424.498	4.77024
426.269	3.03011
428.038	1.8551
429.806	2.35015
431.576	1.15058
433.344	0.548114
435.114	0.936237
436.881	1.12151
438.649	2.12725
440.416	2.86729
442.182	4.31249
443.949	5.15646
445.715	5.17052
447.48	5.24848
449.247	5.32832
451.011	5.52521
452.777	6.79786
454.541	7.55517
456.304	7.96769
458.069	8.94417
459.832	9.41168
461.594	8.88336
463.358	8.66293
465.119	10.7764
466.881	10.4419
468.642	12.4335
470.404	14.2392
472.165	14.8474
473.925	15.6408
475.684	16.1992
477.445	17.1669
479.204	17.6963
480.963	18.1518
482.721	18.3948
484.481	18.7808
486.239	19.3713
487.996	19.1132
489.753	19.6547
491.511	20.0894
493.268	20.8003
495.023	21.9545
496.779	21.8001
498.534	22.3039
500.289	21.5635
502.046	19.946
503.8	20.2262
505.554	20.1385
507.307	19.6929
509.06	18.1353
510.813	17.326
512.566	15.9866
514.32	14.0271
516.072	14.5305
517.823	14.536
519.574	13.6828
521.325	14.5465
523.076	14.0408
524.826	14.5719
526.576	13.9335
528.325	13.7412
530.074	12.7792
531.823	11.6139
533.572	10.8093
535.32	11.8021
537.068	11.474
538.815	10.7018
540.562	10.5602
542.309	10.5093
544.056	9.51411
545.802	8.8109
547.547	8.24419
549.293	8.22857
551.038	8.20954
552.783	10.0081
554.527	9.95711
556.271	10.9245
558.015	10.0908
559.759	9.12642
561.502	9.35444
563.245	9.2072
564.987	8.57894
566.729	8.39456
568.471	8.17221
570.213	8.48447
571.954	8.09481
573.693	7.27863
575.433	7.44287
577.173	7.85947
578.913	7.21035
580.652	6.3937
582.392	6.28692
584.13	4.7676
585.867	3.53427
587.605	2.62119
589.343	2.49681
591.08	2.23136
592.817	1.34526
594.552	1.89794
596.289	1.0361
598.025	0.77261
599.761	0.713584
601.496	0.786067
603.229	2.10062
604.964	1.89348
606.699	1.62444
608.433	2.78326
610.165	2.69178
611.898	3.93175
613.631	3.76729
615.364	4.64945
617.095	4.83539
618.827	5.39139
620.559	5.4287
622.288	5.84409
624.02	5.70845
625.75	6.17638
627.479	7.08929
629.209	6.83678
630.939	6.00107
632.667	6.42726
634.396	7.45027
636.125	8.28201
637.851	8.32472
639.58	8.99401
641.305	9.46036
643.033	9.83508
644.76	9.11892
646.485	10.6719
648.212	10.0495
649.936	10.8547
651.662	11.1168
653.388	11.0697
655.111	11.0027
656.836	11.6237
658.558	11.5048
660.283	11.3296
662.005	11.7914
663.728	12.1841
665.45	12.404
667.173	11.2423
668.893	11.6147
670.616	11.8899
672.336	12.3793
674.057	13.4559
675.777	14.3585
677.498	14.7902
679.216	14.4055
680.937	15.382
682.655	16.164
684.375	17.113
686.092	18.6463
687.809	19.7366
689.528	21.0459
691.244	21.6561
692.962	23.1118
694.678	24.4637
696.393	25.5807
698.111	27.0903
699.825	27.5175
701.54	28.4312
703.256	28.5791
704.97	28.7615
706.685	29.2683
708.398	30.187
710.111	30.9326
711.826	30.991
713.538	30.9774
715.25	30.0917
716.961	31.0359
718.675	32.6649
720.386	33.5905
722.096	33.858
723.808	33.6385
725.518	34.8292
727.228	35.1124
728.937	34.5958
730.648	35.0608
732.357	36.4221
734.065	35.6903
735.773	36.336
737.483	36.0069
739.19	35.3003
740.897	34.9841
742.604	34.4034
744.31	34.3954
746.018	33.7958
747.724	34.4557
749.429	36.387
751.134	37.3879
752.839	37.4279
754.544	38.7037
756.248	39.4046
757.953	40.2874
759.657	40.9714
761.36	41.5128
763.063	41.387
764.765	42.2025
766.468	45.0076
768.169	46.0781
769.871	46.7595
771.572	47.3144
773.273	47.4627
774.976	48.12
776.676	49.5849
778.376	51.0773
780.075	51.9563
781.775	53.4201
783.474	53.9871
785.172	54.1727
786.871	55.2044
788.569	56.485
790.266	57.7086
791.964	58.2182
793.661	59.5914
795.358	61.2729
797.054	62.7084
798.75	63.6831
800.446	64.8183
802.141	65.982
803.834	67.6461
805.529	67.3315
807.224	67.4075
808.918	67.7527
810.612	68.7806
812.305	69.291
813.998	69.5906
815.691	69.2004
817.384	68.9001
819.076	69.0858
820.766	68.5027
822.458	68.6192
824.149	68.5115
825.84	68.0374
827.531	68.7852
829.221	69.5904
830.909	70.2937
832.599	71.3745
834.288	71.5372
835.977	70.0524
837.666	69.4416
839.353	69.0565
841.041	68.0146
842.729	67.9538
844.416	65.9898
846.103	64.7292
847.788	64.0479
849.475	62.8743
851.161	61.2398
852.845	59.0058
854.53	58.156
856.216	56.3519
857.901	54.885
859.583	54.5061
861.268	54.2686
862.952	54.5803
864.633	53.446
866.317	51.1915
868	49.3441
869.681	48.4959
871.363	48.1777
873.045	47.6366
874.725	47.2134
876.406	45.9225
878.088	45.9138
879.767	44.7811
881.447	43.4092
883.125	42.9069
884.805	42.4304
886.483	41.8404
888.162	41.0863
889.841	39.4544
891.518	39.3447
893.196	39.8356
894.872	39.6718
896.55	39.1963
898.225	39.178
899.902	38.7169
901.577	39.7483
903.254	39.9868
904.928	39.4107
906.604	39.849
908.277	39.8552
909.952	40.2307
911.625	41.4321
913.3	42.2276
914.972	42.8372
916.646	42.0068
918.318	41.6195
919.991	41.6285
921.662	41.8025
923.333	41.5493
925.005	40.4476
926.675	40.6145
928.347	39.563
930.017	39.8101
931.686	38.5156
933.357	38.3436
935.025	38.0623
936.693	37.5088
938.363	37.1907
940.031	36.7754
941.698	37.0029
943.367	37.3987
945.034	36.1049
946.7	35.4592
948.368	33.2684
950.034	31.7923
951.699	31.7701
953.367	31.6265
955.031	31.692
956.696	30.8329
958.36	30.2351
960.026	28.3377
961.689	27.8228
963.353	27.9472
965.016	28.4216
966.68	29.1304
968.343	28.967
970.005	29.1979
971.666	29.0531
973.328	29.4902
974.991	30.3644
976.652	31.7375
978.312	31.998
979.972	32.3412
981.632	32.5228
983.292	32.1013
984.953	32.7067
986.612	31.8205
988.27	31.4245
989.929	32.4188
991.587	32.1798
993.244	31.9071
994.902	31.1389
996.559	29.7451
998.216	28.0603
999.872	24.545
1001.53	23.9154
1003.19	22.3066
1004.84	21.3501
1006.5	21.7614
1008.15	23.0223
1009.81	26.7228
1011.46	31.2687
1013.11	36.6922
1014.77	42.8275
1016.42	50.228
1018.07	56.8269
1019.73	63.6602
1021.38	71.2434
1023.03	77.7767
1024.68	84.2698
1026.34	91.2076
1027.99	97.0248
1029.64	103.256
1031.29	107.551
1032.94	111.388
1034.59	113.968
1036.24	116.943
1037.89	118.71
1039.53	119.301
1041.18	120.488
1042.83	121.806
1044.48	123.318
1046.13	124.087
1047.77	122.737
1049.42	120.64
1051.07	118.082
1052.71	116.533
1054.36	114.439
1056	110.686
1057.65	107.347
1059.3	103.071
1060.94	96.8831
1062.59	90.614
1064.23	84.2807
1065.87	77.6431
1067.52	70.5404
1069.16	62.7816
1070.8	55.9802
1072.44	48.2486
1074.09	39.3953
1075.73	31.5404
1077.37	23.0991
1079.01	15.0639
1080.65	8.28528
1082.29	2.21554
1083.93	-0.606386
1085.57	-3.86279
1087.21	-4.43419
1088.85	-3.10648
1090.49	-1.66959
1092.13	0.726896
1093.77	3.18764
1095.41	5.61563
1097.04	7.62271
1098.68	9.36746
1100.32	11.3084
1101.95	12.731
1103.59	15.3455
1105.23	15.9961
1106.86	17.3621
1108.5	18.6733
1110.13	17.2106
1111.77	17.1808
1113.4	16.0197
1115.04	15.2216
1116.67	14.7696
1118.31	14.9495
1119.94	14.6999
1121.57	15.1343
1123.2	15.6779
1124.84	15.6812
1126.47	14.3233
1128.1	12.9873
1129.73	12.1337
1131.36	11.7616
1132.99	12.4857
1134.62	13.0271
1136.25	11.6392
1137.88	10.5481
1139.51	9.52119
1141.14	8.9195
1142.77	7.86349
1144.4	7.1705
1146.03	6.89515
1147.66	6.6153
1149.28	5.93343
1150.91	5.70393
1152.54	5.20514
1154.16	3.55124
1155.79	2.71083
1157.42	1.73703
1159.04	1.49738
1160.67	0.822956
1162.29	1.14735
1163.92	0.0615266
1165.54	0.319412
1167.17	0.647857
1168.79	1.69924
1170.41	1.94076
1172.04	2.06862
1173.66	3.05888
1175.28	3.96694
1176.9	4.97637
1178.53	5.10267
1180.15	5.48642
1181.77	7.0743
1183.39	6.94934
1185.01	7.62588
1186.63	8.63655
1188.25	9.98006
1189.87	10.4878
1191.49	10.6799
1193.11	10.9539
1194.73	10.6354
1196.35	10.72
1197.96	11.9654
1199.58	12.5937
1201.2	12.5118
1202.82	13.6644
1204.43	14.1128
1206.05	14.1222
1207.66	14.4024
1209.28	16.0265
1210.9	17.8314
1212.51	19.2699
1214.13	21.2339
1215.74	21.9265
1217.36	22.8654
1218.97	23.7378
1220.58	25.405
1222.2	27.2847
1223.81	28.5102
1225.42	30.0709
1227.04	31.6103
1228.65	33.1676
1230.26	33.4071
1231.87	34.4549
1233.48	34.3913
1235.1	35.9307
1236.71	37.5599
1238.32	38.3146
1239.93	39.7289
1241.53	40.3131
1243.14	40.4255
1244.75	41.1881
1246.36	41.9735
1247.97	42.5011
1249.58	42.7053
1251.19	42.5151
1252.8	43.5273
1254.4	44.24
1256.01	45.537
1257.62	45.7551
1259.22	45.7615
1260.83	46.668
1262.43	48.7265
1264.04	48.559
1265.64	50.7645
1267.25	51.6506
1268.85	50.9502
1270.46	51.1069
1272.06	51.4518
1273.66	50.5923
1275.27	52.1386
1276.87	53.8165
1278.48	55.2922
1280.08	55.4096
1281.68	55.6881
1283.28	57.9853
1284.88	57.5158
1286.48	58.7981
1288.08	61.076
1289.68	61.8585
1291.28	62.929
1292.88	64.1149
1294.48	64.1506
1296.08	64.894
1297.68	65.9491
1299.28	67.6407
1300.88	69.8695
1302.48	69.7524
1304.07	69.8839
1305.67	70.8781
1307.27	71.7284
1308.87	72.9987
1310.46	73.8885
1312.06	75.3405
1313.65	75.8806
1315.25	76.7916
1316.85	76.9033
1318.44	76.5704
1320.03	76.8434
1321.63	76.3105
1323.22	75.3273
1324.82	75.0212
1326.41	73.2707
1328	72.9989
1329.6	72.0152
1331.19	71.9842
1332.78	71.6139
1334.37	70.2609
1335.96	68.5887
1337.56	66.7742
1339.15	65.7756
1340.74	65.0604
1342.33	64.3766
1343.92	62.3532
1345.51	60.7863
1347.1	59.5458
1348.69	58.4182
1350.28	56.6413
1351.86	54.9768
1353.45	53.5388
1355.04	53.2869
1356.63	51.5889
1358.21	49.7266
1359.8	48.0958
1361.39	47.2701
1362.97	46.8902
1364.56	46.2148
1366.15	45.2337
1367.73	44.2031
1369.32	41.8112
1370.9	42.0513
1372.49	41.3528
1374.07	40.352
1375.65	41.2353
1377.24	41.5964
1378.82	41.9321
1380.41	41.7544
1381.99	41.9816
1383.57	42.6891
1385.15	44.8055
1386.73	46.6821
1388.32	47.2922
1389.9	47.8282
1391.48	48.0309
1393.06	48.277
1394.64	48.4745
1396.22	49.718
1397.8	49.8151
1399.38	50.6325
1400.96	50.6269
1402.54	50.8864
1404.11	52.4632
1405.69	52.9695
1407.27	54.5551
1408.85	55.1855
1410.43	56.1708
1412	56.2255
1413.58	57.765
1415.16	59.3134
1416.73	61.4942
1418.31	62.2725
1419.88	63.2762
1421.46	65.5429
1423.03	67.2148
1424.61	70.3057
1426.18	72.4267
1427.76	74.7919
1429.33	76.7215
1430.9	78.6128
1432.48	80.7018
1434.05	83.2352
1435.62	85.167
1437.2	87.6766
1438.77	89.1953
1440.34	90.7092
1441.91	91.2864
1443.48	92.0085
1445.05	92.0133
1446.62	92.0893
1448.19	91.9274
1449.76	91.9784
1451.33	92.4294
1452.9	92.6784
1454.47	92.8797
1456.04	92.6111
1457.61	92.0252
1459.17	91.3326
1460.74	91.0425
1462.31	89.3336
1463.88	88.3917
1465.44	85.8095
1467.01	82.7604
1468.58	80.4383
1470.14	77.8833
1471.71	74.9679
1473.27	72.6975
1474.84	71.1874
1476.4	68.4538
1477.97	66.4023
1479.53	64.2216
1481.1	62.3881
1482.66	60.185
1484.22	56.8604
1485.78	54.5649
1487.35	51.3992
1488.91	49.1125
1490.47	47.2416
1492.03	45.7293
1493.59	42.8383
1495.16	40.5962
1496.72	38.339
1498.28	37.4255
1499.84	36.807
1501.4	34.9415
1502.96	33.6248
1504.52	31.5662
1506.08	31.2241
1507.64	29.4017
1509.19	28.1256
1510.75	27.8128
1512.31	26.5598
1513.87	25.2578
1515.42	23.1414
1516.98	21.2537
1518.54	20.7747
1520.1	19.7213
1521.65	19.7233
1523.21	18.9976
1524.76	18.5478
1526.32	18.7948
1527.87	19.6224
1529.43	20.3953
1530.98	20.191
1532.54	20.7728
1534.09	21.52
1535.64	21.7847
1537.2	22.0076
1538.75	22.8214
1540.3	23.228
1541.85	24.5911
1543.41	25.8392
1544.96	26.5536
1546.51	28.5819
1548.06	30.0407
1549.61	32.2604
1551.16	33.5411
1552.71	35.8339
1554.26	36.3831
1555.81	37.3195
1557.36	38.3885
1558.91	38.6099
1560.46	38.5557
1562.01	38.5526
1563.56	39.47
1565.1	41.1032
1566.65	42.8542
1568.2	43.6149
1569.75	44.9206
1571.29	45.2852
1572.84	45.9714
1574.38	47.3598
1575.93	48.8496
1577.48	50.2182
1579.02	51.7014
1580.57	52.7883
1582.11	53.8903
1583.65	54.363
1585.2	55.131
1586.74	56.5383
1588.29	57.9944
1589.83	58.3109
1591.37	59.0769
1592.92	59.9508
1594.46	61.2411
1596	62.252
1597.54	62.4807
1599.08	62.6551
1600.62	62.4856
1602.16	63.1006
1603.7	61.9029
1605.24	62.1308
1606.78	62.3835
1608.32	62.5647
1609.86	63.2187
1611.4	64.2128
1612.94	65.1648
1614.48	65.6954
1616.02	67.4503
1617.56	67.7221
1619.09	68.4556
1620.63	68.7457
1622.17	68.3366
1623.71	69.2885
1625.24	68.6628
1626.78	69.3158
1628.31	68.8435
1629.85	69.989
1631.39	70.0125
1632.92	69.7589
1634.46	71.03
1635.99	70.7738
1637.52	71.7843
1639.06	73.4247
1640.59	75.2149
1642.12	76.0525
1643.66	75.7724
1645.19	75.9797
1646.72	76.9883
1648.25	77.3062
1649.79	78.2335
1651.32	79.6276
1652.85	79.8821
1654.38	80.3597
1655.91	80.1646
1657.44	79.8542
1658.97	80.2454
1660.5	80.0456
1662.03	80.2874
1663.56	80.3419
1665.09	78.7269
1666.62	76.4582
1668.15	74.6031
1669.67	73.2541
1671.2	70.8993
1672.73	69.3113
1674.26	67.4974
1675.79	65.3437
1677.31	63.1376
1678.84	61.5313
1680.36	59.0514
1681.89	58.058
1683.42	56.48
1684.94	54.6419
1686.47	52.2614
1687.99	50.696
1689.51	49.0699
1691.04	46.2708
1692.56	44.3394
1694.08	41.4929
1695.61	39.7249
1697.13	37.6008
1698.65	35.8956
1700.18	34.5998
1701.7	32.2434
1703.22	30.6004
1704.74	28.8421
1706.26	28.0028
1707.78	26.5084
1709.3	24.9081
1710.82	24.7387
1712.35	22.9525
1713.86	22.6127
1715.39	21.2545
1716.9	19.5964
1718.42	18.822
1719.94	17.7773
1721.46	17.05
1722.98	16.2421
1724.5	15.7331
1726.01	15.1745
1727.53	14.5762
1729.05	13.7084
1730.56	13.6122
1732.08	12.923
1733.6	12.2034
1735.11	11.4818
1736.63	9.91798
1738.14	8.99162
1739.66	7.97887
1741.17	6.51698
1742.69	5.31565
1744.2	4.60517
1745.71	4.6462
1747.23	4.25858
1748.74	4.46527
1750.25	3.93389
1751.77	4.13588
1753.28	3.73524
1754.79	4.00183
1756.3	3.94666
1757.81	4.199
1759.33	4.02243
1760.84	4.22087
1762.35	3.95624
1763.86	4.50525
1765.37	4.15653
1766.88	3.34092
1768.39	3.82814
1769.9	3.92845
1771.41	4.16709
1772.91	4.28954
1774.42	4.40201
1775.93	4.06688
1777.44	3.32481
1778.95	4.27183
1780.45	4.77843
1781.96	5.5755
1783.47	5.58756
1784.97	5.36423
1786.48	5.39932
1787.99	5.4171
1789.49	5.69851
1791	5.59748
1792.5	5.81933
1794.01	6.15746
1795.51	5.44498
1797.01	5.19039
1798.52	5.39372
1800.02	5.25155
1801.52	5.26475
1803.03	4.78655
1804.53	4.80529
1806.03	4.72578
1807.54	4.45685
1809.04	4.26752
1810.54	4.12531
1812.04	4.02798
1813.54	3.6453
1815.04	3.70634
1816.54	3.74921
1818.04	3.89544
1819.54	4.33761
1821.04	4.98857
1822.54	5.86018
1824.04	5.9859
1825.54	5.8015
1827.04	6.70217
1828.54	6.25508
1830.03	6.16047
1831.53	6.27447
1833.03	6.14294
1834.53	6.53551
1836.02	6.74661
1837.52	6.83178
1839.02	6.44324
1840.51	6.72961
1842.01	7.16213
1843.5	7.02809
1845	6.39932
1846.49	6.21615
1847.99	5.81096
1849.48	5.63104
1850.98	6.06333
1852.47	5.66004
1853.96	5.37693
1855.46	5.13357
1856.95	5.11874
1858.44	4.60654
1859.94	4.35962
1861.43	4.50776
1862.92	5.41435
1864.41	6.05875
1865.9	6.67021
1867.39	6.71942
1868.88	6.57835
1870.37	6.3512
1871.86	6.50515
1873.35	6.7554
1874.84	6.51632
1876.33	6.57216
1877.82	6.46738
1879.31	6.81604
1880.8	7.19023
1882.29	7.35875
1882.58	7.0846
1884.08	6.88429
1885.57	7.49017
1887.06	7.40058
1888.56	7.56998
1890.05	7.40816
1891.54	6.73057
1893.04	6.73441
1894.53	6.4429
1896.02	6.17877
1897.51	5.69353
1899	5.58717
1900.5	5.13564
1901.99	4.17772
1903.48	3.76712
1904.97	4.47164
1906.46	3.93732
1907.95	3.69049
1909.44	2.82114
1910.93	2.60277
1912.42	2.44749
1913.91	2.19302
1915.4	2.40675
1916.88	2.44022
1918.37	1.81618
1919.86	2.45063
1921.35	2.67686
1922.84	2.64039
1924.32	3.26599
1925.81	2.90805
1927.3	3.61189
1928.78	4.15797
1930.27	4.31244
1931.75	5.03668
1933.24	4.88479
1934.72	5.67809
1936.21	6.88021
1937.69	6.83474
1939.18	7.17344
1940.66	7.10834
1942.15	7.71567
1943.63	8.14062
1945.11	8.76504
1946.6	9.44168
1948.08	9.39114
1949.56	9.85931
1951.04	10.2808
1952.53	10.5751
1954.01	10.4399
1955.49	9.82802
1956.97	10.1334
1958.45	10.5322
1959.93	10.0942
1961.41	9.09486
1962.89	7.90285
1964.37	6.83846
1965.85	5.87142
1967.33	6.25505
1968.81	5.89143
1970.29	5.48256
1971.77	5.06691
1973.24	4.77361
1974.72	4.28185
1976.2	3.91148
1977.68	3.98974
1979.15	3.93506
1980.63	3.23893
1982.11	3.78238
1983.58	3.90698
1985.06	4.1467
1986.53	4.36527
1988.01	4.76269
1989.48	4.82628
1990.96	4.36186
1992.43	3.94679
1993.91	5.25302
1995.38	5.59756
1996.86	6.26766
1998.33	6.60956
1999.8	6.73302
2001.27	7.53642
2002.75	7.71739
2004.22	8.63339
2005.69	9.09219
2007.16	9.76319
2008.64	11.4208
2010.11	12.3003
2011.58	13.0084
2013.05	13.5095
2014.52	13.8431
2015.99	14.483
2017.46	14.2672
2018.93	14.4371
2020.4	15.0088
2021.87	14.6012
2023.34	14.6069
2024.8	14.7376
2026.27	14.6254
2027.74	14.8728
2029.21	15.0366
2030.68	15.3398
2032.14	14.8018
2033.61	14.0204
2035.08	13.8238
2036.54	13.9128
2038.01	14.8438
2039.48	16.0274
2040.94	16.9424
2042.41	16.7032
2043.87	16.0674
2045.34	16.3799
2046.8	16.6416
2048.27	15.9569
2049.73	15.9957
2051.19	16.2458
2052.66	16.6511
2054.12	17.4169
2055.58	17.2445
2057.05	16.5288
2058.51	16.731
2059.97	17.0531
2061.43	16.8427
2062.9	16.731
2064.36	17.3205
2065.82	17.9317
2067.28	19.0407
2068.74	19.1442
2070.2	19.5231
2071.66	19.7962
2073.12	20.8221
2074.58	21.6053
2076.04	21.1301
2077.5	20.9791
2078.95	20.7498
2080.41	21.3534
2081.87	20.6998
2083.33	20.1698
2084.79	20.5153
2086.24	20.0575
2087.7	20.3063
2089.16	20.4805
2090.61	20.3058
2092.07	21.0719
2093.53	22.1835
2094.98	22.2753
2096.44	23.2212
2097.89	24.1778
2099.35	24.6841
2100.8	25.6691
2102.26	25.7847
2103.71	26.0285
2105.16	26.1265
2106.62	26.658
2108.07	27.6844
2109.53	29.1216
2110.98	29.6598
2112.43	30.3965
2113.88	30.6955
2115.33	30.5315
2116.79	31.3293
2118.24	31.7266
2119.69	31.9693
2121.14	31.6551
2122.59	32.6669
2124.04	33.2806
2125.49	34.0877
2126.94	34.4974
2128.39	34.4723
2129.84	35.5799
2131.29	36.7206
2132.74	38.2977
2134.19	38.5575
2135.63	40.0606
2137.08	41.0997
2138.53	42.2683
2139.98	43.5128
2141.43	43.9573
2142.87	45.0323
2144.32	45.2398
2145.77	46.2158
2147.21	46.7943
2148.66	46.9079
2150.1	48.0371
2151.55	49.1668
2152.99	49.966
2154.44	51.0853
2155.88	52.9929
2157.33	54.6164
2158.77	55.2679
2160.21	56.9212
2161.66	58.421
2163.1	59.8285
2164.55	61.5493
2165.99	62.4586
2167.43	62.4842
2168.87	63.4721
2170.31	63.977
2171.76	63.7282
2173.2	63.9533
2174.64	63.7175
2176.08	64.052
2177.52	64.533
2178.96	65.7162
2180.4	65.7482
2181.84	65.7243
2183.28	65.8617
2184.72	65.2129
2186.16	64.252
2187.6	62.9232
2189.04	61.7125
2190.47	60.3394
2191.91	58.8937
2193.35	57.527
2194.79	56.6473
2196.23	55.4367
2197.66	54.5652
2199.1	53.5851
2200.54	52.8024
2201.97	51.985
2203.41	50.9374
2204.84	50.3094
2206.28	49.0601
2207.71	49.2422
2209.15	47.8882
2210.58	47.1248
2212.02	45.9337
2213.45	44.4383
2214.89	43.4783
2216.32	43.0302
2217.75	43.1007
2219.19	42.1328
2220.62	41.0508
2222.05	40.9225
2223.48	40.6376
2224.92	40.7354
2226.35	40.6033
2227.78	39.867
2229.21	38.7605
2230.64	38.5208
2232.07	38.1788
2233.5	38.0434
2234.93	37.2837
2236.36	36.0242
2237.79	35.2162
2239.22	34.6335
2240.65	35.6286
2242.08	35.4465
2243.51	34.523
2244.94	34.3922
2246.37	34.4006
2247.79	34.1135
2249.22	33.6312
2250.65	33.3015
2252.08	32.0118
2253.5	31.6331
2254.93	30.0906
2256.36	28.6456
2257.78	27.9135
2259.21	27.3238
2260.63	26.2323
2262.06	26.1946
2263.48	25.0136
2264.91	24.3844
2266.33	24.6746
2267.76	24.4093
2269.18	24.1185
2270.6	23.6851
2272.03	23.4925
2273.45	22.8466
2274.87	23.1585
2276.3	23.0289
2277.72	23.0647
2279.14	22.2593
2280.56	20.8659
2281.98	20.7487
2283.41	19.577
2284.83	18.9721
2286.25	18.6961
2287.67	18.7475
2289.09	17.3563
2290.51	16.583
2291.93	15.6528
2293.35	14.4329
2294.77	13.3317
2296.19	12.5859
2297.61	12.7699
2299.02	13.1411
2300.44	13.2394
2301.86	14.1275
2303.28	14.1624
2304.7	14.6175
2306.11	14.0509
2307.53	14.4177
2308.95	14.6947
2310.36	14.7702
2311.78	15.2248
2313.2	14.2159
2314.61	14.5707
2316.03	14.5938
2317.44	14.8242
2318.86	14.8949
2320.27	14.9783
2321.69	14.5885
2323.1	14.1937
2324.51	14.8122
2325.93	15.017
2327.34	15.9856
2328.76	16.4904
2330.17	16.9556
2331.58	16.7581
2332.99	17.0482
2334.41	16.646
2335.82	17.1073
2337.23	18.1193
2338.64	17.7506
2340.05	17.817
2341.46	17.4092
2342.87	17.811
2344.28	17.8336
2345.69	17.8954
2347.1	17.4431
2348.51	17.0966
2349.92	16.5573
2351.33	16.1209
2352.74	15.7282
2354.15	14.6876
2355.56	14.9309
2356.97	14.8724
2358.37	14.8137
2359.78	14.0069
2361.19	14.1018
2362.6	14.0225
2364	14.7319
2365.41	15.87
2366.82	17.0544
2368.22	17.8052
2369.63	17.9068
2371.03	17.5152
2372.44	18.121
2373.84	17.384
2375.25	17.0314
2376.65	16.2307
2378.06	15.9
2379.46	15.5267
2380.86	15.5615
2382.27	15.4152
2383.67	14.8035
2385.07	15.2018
2386.48	14.699
2387.88	14.7846
2389.28	14.7346
2390.69	14.1502
2392.09	14.0853
2393.49	14.0907
2394.89	14.3199
2396.29	13.8932
2397.69	13.2591
2399.09	12.9465
2400.49	12.5723
2401.89	12.7691
2403.29	12.4605
2404.69	12.4
2406.09	11.6595
2407.49	10.8017
2408.89	9.68937
2410.29	8.57595
2411.69	8.35336
2413.08	8.95561
2414.48	8.27564
2415.88	8.13649
2417.28	8.42875
2418.67	7.72043
2420.07	7.28769
2421.47	6.86484
2422.86	6.64544
2424.26	6.36909
2425.65	7.01291
2427.05	7.31436
2428.45	6.56469
2429.84	6.11664
2431.23	6.14704
2432.63	6.54205
2434.02	6.07477
2435.42	5.36433
2436.81	4.96789
2438.2	4.50925
2439.6	4.56302
2440.99	4.09185
2442.38	4.55194
2443.78	4.54757
2445.17	5.01909
2446.56	5.66004
2447.95	6.10656
2449.34	7.17168
2450.73	7.07714
2452.13	6.54474
2453.52	6.38184
2454.91	7.16187
2456.3	7.25508
2457.69	7.00313
2459.08	6.95011
2460.47	6.87774
2461.85	7.53907
2463.24	6.96121
2464.63	7.06194
2466.02	6.97181
2467.41	6.99212
2468.8	6.83098
2470.19	7.14134
2471.57	6.87553
2472.96	6.10904
2474.35	5.59776
2475.73	4.89486
2477.12	5.20727
2478.51	5.47505
2479.89	4.89089
2481.28	5.14405
2482.66	5.32849
2484.05	5.12524
2485.43	5.2768
2486.82	5.05441
2488.2	3.51225
2489.59	3.50048
2490.97	3.11181
2492.35	3.01
2493.74	2.56815
2495.12	2.487
2496.5	2.10839
2497.89	0.571725
2499.27	0.69036
2500.65	0.425803
2502.03	0.278256
2503.42	-0.0958126
2504.8	-0.79579
2506.18	-0.95677
2507.56	-1.2494
2508.94	-0.983895
2510.32	-0.495599
2511.7	0.588766
2513.08	1.00604
2514.46	0.983847
2515.84	1.46334
2517.22	1.0049
2518.6	1.33461
2519.98	0.702499
2521.36	0.701791
2522.73	1.1499
2524.11	1.18694
2525.49	1.57339
2526.87	1.61496
2528.25	1.91931
2529.62	2.62772
2531	2.04151
2532.38	0.616331
2533.75	0.524434
2535.13	0.903359
2536.5	1.91927
2537.88	2.50092
2539.25	3.49583
2540.63	3.66417
2542.01	4.38822
2543.38	5.48082
2544.75	6.01489
2546.13	6.67953
2547.5	7.4286
2548.88	7.70658
2550.25	9.11453
2551.62	10.3853
2553	10.6352
2554.37	11.2159
2555.74	11.3739
2557.11	11.0165
2558.49	12.1601
2559.86	12.8766
2561.23	13.176
2562.6	12.333
2563.97	12.3593
2565.34	12.1899
2566.71	11.5491
2568.08	11.6009
2569.45	11.2584
2570.82	10.9957
2572.19	10.1425
2573.56	9.69739
2574.93	9.72964
2576.3	10.0062
2577.67	9.93552
2579.03	10.119
2580.4	10.2618
2581.77	10.3004
2583.14	9.40146
2584.5	8.6805
2585.87	7.57151
2587.24	7.4271
2588.6	6.85176
2589.97	5.97449
2591.34	5.47335
2592.7	4.7644
2594.07	4.71995
2595.43	3.4506
2596.8	3.08332
2598.16	1.98145
2599.53	0.880005
2600.89	1.13512
2602.26	1.74617
2603.62	2.23558
2604.98	2.1658
2606.35	2.2064
2607.71	2.04571
2609.07	2.2149
2610.44	2.75615
2611.8	2.81104
2613.16	2.34797
2614.52	3.06137
2615.88	3.1728
2617.25	3.16925
2618.61	3.39369
2619.97	3.91454
2621.33	3.44843
2622.69	3.61302
2624.05	3.74655
2625.41	3.77803
2626.77	4.6431
2628.13	4.8043
2629.49	4.05015
2630.85	3.87168
2632.21	4.48733
2633.56	4.18568
2634.92	4.54134
2636.28	4.15396
2637.64	4.57142
2639	4.48949
2640.35	3.69612
2641.71	4.23367
2643.07	4.24289
2644.42	4.57221
2645.78	4.09681
2647.14	3.72306
2648.49	3.76487
2649.85	3.46351
2651.2	2.43535
2652.56	2.19946
2653.91	2.22251
2655.27	2.36938
2656.62	2.23649
2657.98	2.07553
2659.33	2.45518
2660.68	1.9547
2662.04	2.8923
2663.39	2.89468
2664.74	2.87328
2666.1	2.82068
2667.45	3.30607
2668.8	3.27806
2670.15	3.26988
2671.5	3.04878
2672.86	3.53576
2674.21	4.01356
2675.56	3.62601
2676.91	3.60962
2678.26	3.10412
2679.61	2.72162
2680.96	2.91382
2682.31	2.43624
2683.66	2.08543
2685.01	3.05685
2686.36	3.60274
2687.71	3.8709
2689.06	3.38663
2690.4	3.85795
2691.75	4.38226
2693.1	3.94822
2694.45	3.3329
2695.8	3.00792
2697.14	3.40201
2698.49	3.32728
2699.84	3.84663
2701.18	3.53341
2702.53	3.48094
2703.88	2.75141
2705.22	3.42975
2706.57	3.14365
2707.91	2.83168
2709.26	4.21194
2710.6	4.39289
2711.95	4.59546
2713.29	4.56943
2714.64	4.89722
2715.98	5.17152
2717.32	4.88378
2718.67	5.25738
2720.01	5.7307
2721.35	6.25155
2722.7	6.89574
2724.04	7.21081
2725.38	7.92983
2726.72	8.21199
2728.06	8.56386
2729.4	8.95918
2730.75	8.40263
2732.09	8.1955
2733.43	8.38934
2734.77	8.91022
2736.11	8.67844
2737.45	9.16046
2738.79	8.9596
2740.13	8.68972
2741.47	8.10074
2742.81	7.93459
2744.15	7.54544
2745.48	7.36861
2746.82	7.31913
2748.16	6.89111
2749.5	6.78315
2750.84	7.30095
2752.17	7.21094
2753.51	6.67998
2754.85	6.33504
2756.19	5.74187
2757.52	5.63543
2758.86	4.90954
2760.19	4.18287
2761.53	4.42747
2762.86	5.15138
2764.2	4.60992
2765.54	3.38392
2766.87	3.52948
2768.2	2.63469
2769.54	2.3925
2770.87	2.24209
2772.21	2.80166
2773.54	2.92424
2774.88	2.5794
2776.21	2.82925
2777.54	2.68139
2778.87	2.64848
2780.21	2.7721
2781.54	2.93105
2782.87	2.67189
2784.2	3.0839
2785.53	4.30599
2786.87	4.16938
2788.2	3.79243
2789.53	3.5263
2790.86	2.78229
2792.19	2.73658
2793.52	2.09984
2794.85	2.21794
2796.18	2.66137
2797.51	2.76931
2798.84	2.26776
2800.17	2.21451
2801.49	1.74736
2802.82	1.26692
2804.15	1.14772
2805.48	1.08011
2806.81	0.700652
2808.13	0.750683
2809.46	0.775489
2810.79	0.445726
2812.12	-0.0600852
2813.44	0.0373532
2814.77	0.562926
2816.09	1.48275
2817.42	1.55929
2818.75	2.55003
2820.07	3.32674
2821.4	4.67962
2822.72	5.54462
2824.05	6.97207
2825.37	8.31999
2826.7	9.80748
2828.02	11.3857
2829.35	12.2813
2830.67	13.1442
2831.99	15.3607
2833.31	18.1619
2834.64	20.4929
2835.96	22.6742
2837.28	25.5754
2838.61	28.2127
2839.93	31.0462
2841.25	33.7989
2842.57	37.5296
2843.89	41.4034
2845.21	45.1165
2846.53	49.1119
2847.85	53.4906
2849.17	57.437
2850.49	61.4984
2851.81	66.4347
2853.13	69.7753
2854.45	73.9024
2855.77	77.8617
2857.09	82.2865
2858.41	87.2697
2859.73	91.6248
2861.05	96.2308
2862.36	100.331
2863.68	103.887
2865	107.291
2866.32	111.161
2867.64	114.309
2868.95	118.277
2870.27	121.444
2871.59	124.47
2872.9	127.134
2874.22	130.26
2875.53	132.69
2876.85	134.842
2878.16	137.046
2879.48	140.854
2880.79	143.723
2882.11	146.212
2883.42	148.916
2884.74	151.887
2886.05	154.164
2887.36	156.11
2888.68	157.7
2889.99	160.369
2891.3	162.453
2892.62	164.319
2893.93	166.659
2895.24	168.709
2896.55	171.749
2897.86	174.951
2899.18	178.181
2900.49	181.566
2901.8	184.578
2903.11	188.07
2904.42	191.444
2905.73	195.687
2907.04	200.339
2908.35	204.439
2909.66	209.425
2910.97	214.687
2912.28	219.68
2913.59	225.129
2914.9	230.184
2916.21	235.601
2917.51	241.183
2918.82	246.264
2920.13	251.319
2921.44	255.983
2922.74	260.228
2924.05	264.546
2925.36	268.036
2926.67	270.692
2927.97	272.71
2929.28	274.265
2930.59	274.83
2931.89	275.334
2933.2	275.143
2934.5	275.326
2935.81	273.931
2937.11	273.467
2938.42	272.661
2939.72	270.824
2941.02	267.139
2942.33	264.804
2943.63	261.397
2944.94	258.177
2946.24	253.63
2947.54	248.742
2948.85	244.076
2950.15	238.588
2951.45	233.732
2952.75	227.983
2954.05	223.703
2955.36	218.659
2956.66	212.228
2957.96	206.597
2959.26	200.906
2960.56	195.399
2961.86	190.664
2963.16	184.923
2964.46	180.07
2965.76	174.723
2967.06	168.659
2968.36	163.601
2969.66	159.004
2970.96	154.223
2972.26	150.162
2973.56	145.369
2974.85	141.721
2976.15	138.457
2977.45	134.472
2978.75	130.635
2980.05	126.561
2981.34	122.573
2982.64	118.848
2983.94	115.137
2985.23	110.263
2986.53	105.695
2987.83	101.495
2989.12	97.3275
2990.42	92.5457
2991.71	87.572
2993.01	83.0456
2994.3	79.1223
2995.6	74.9925
2996.89	71.0979
2998.19	67.2443
2999.48	63.7998
3000.77	60.4852
3002.07	57.5294
3003.36	53.2553
3004.65	49.5109
3005.95	45.6105
3007.24	43.309
3008.53	39.7026
3009.82	37.5128
3011.12	34.9645
3012.41	32.3215
3013.7	30.2683
3014.99	28.0855
3016.28	26.4389
3017.57	23.6222
3018.86	21.6652
3020.15	19.4552
3021.44	17.5537
3022.73	16.6335
3024.02	15.1336
3025.31	13.6369
3026.6	12.3097
3027.89	10.8908
3029.18	10.6662
3030.47	9.53328
3031.76	9.08035
3033.04	9.23012
3034.33	8.94625
3035.62	8.74554
3036.91	9.39042
3038.19	8.96538
3039.48	9.3523
3040.77	9.57066
3042.05	9.022
3043.34	8.94439
3044.63	8.93591
3045.91	9.91126
3047.2	10.2197
3048.48	10.2552
3049.77	10.4623
3051.05	10.543
3052.34	10.8008
3053.62	10.8733
3054.91	10.7603
3056.19	11.1505
3057.48	11.44
3058.76	12.5556
3060.04	13.036
3061.33	13.0441
3062.61	13.2712
3063.89	13.1347
3065.17	13.2945
3066.46	13.065
3067.74	13.0268
3069.02	12.9649
3070.3	13.0717
3071.59	12.6254
3072.87	12.2415
3074.15	12.0687
3075.43	11.596
3076.71	10.1608
3077.99	9.42211
3079.27	8.32667
3080.55	7.51359
3081.83	6.63332
3083.11	5.79357
3084.39	5.2453
3085.67	4.08398
3086.94	3.08094
3088.22	1.94076
3089.5	1.73008
3090.78	2.15468
3092.06	2.89124
3093.34	3.13771
3094.61	2.80323
3095.89	2.83514
3097.17	2.6812
3098.44	2.48095
3099.72	2.22978
3101	2.01732
3102.27	1.7944
3103.55	1.97702
3104.82	1.59466
3106.1	1.82676
3107.38	2.05511
3108.65	2.55097
3109.93	3.26565
3111.2	2.95488
3112.47	3.02302
3113.75	3.00564
3115.02	2.94865
3116.3	3.65448
3117.57	4.56076
3118.84	4.72214
3120.12	5.62273
3121.39	5.9537
3122.66	6.4753
3123.93	6.09855
3125.2	5.74869
3126.48	6.0183
3127.75	6.01297
3129.02	6.71875
3130.29	6.87847
3131.56	6.67025
3132.83	6.55734
3134.1	7.03656
3135.37	6.64932
3136.64	6.8969
3137.91	6.71008
3139.18	6.37649
3140.45	5.8599
3141.72	6.2914
3142.99	6.40062
3144.26	6.55942
3145.53	6.70795
3146.8	7.35463
3148.07	7.62112
3149.33	8.14965
