#Acq. time (s)=	45
#Accumulations=	2
#Range (cm-¹)=	200...3150
#Windows=	2
#Auto scanning=	Off
#Autofocus=	Off
#Macrospot=	Off
#AutoExposure=	Off
#Spike filter=	Multiple accum.
#Delay time (s)=	0
#Binning=	1
#Readout mode=	Signal
#DeNoise=	Off
#ICS correction=	On
#Dark correction=	Off
#Inst. Process=	Off
#Detector Gain=	Best Dynamic Range
#Detector ADC=	20 kHz       
#Detector temperature (°C)=	-70.08
#Instrument=	LabRAM HR Evol
#Detector=	Synapse
#Objective=	x100
#Grating=	600 gr/mm
#ND Filter=	100%
#Laser (nm)=	532 
#Hole=	100.021
#Range=	Auto
#Laser Pol.=	No
#Raman. Pol.=	No
#Laser Pol. (°)=	-0.0007625
#Raman Pol. (°)=	89.9995
#Collection=	Microscope
#StageXY=	Marzhauser
#StageZ=	Marzhauser
#X (µm)=	416.2
#Y (µm)=	2941.8
#Z (µm)=	-9.1
#Full time(mm:ss)=	3:19
#Project=	
#Sample=	
#Site=	
#Title=	Mb_20_23_50_2x_45s_532 nm_x100_100%_600 gr_mm
#Remark=	
#Date=	14.07.2022 10:08
#Acquired=	14.07.2022 10:08:23
#Base:Fit=	10.08.2022 10:29:37
#Base:Sub=	10.08.2022 10:35:48
#Filter:Polynom=	16.08.2022 10:13:29
#AxisType[0]=Intens
#AxisUnit[0]=Cnt
#AxisType[1]=Spectr
#AxisUnit[1]=1/cm
200.554	20.6182
202.369	21.8015
204.183	19.7423
205.999	18.2177
207.813	16.9068
209.626	15.4055
211.439	13.8022
213.253	11.2188
215.065	9.98568
216.877	9.22974
218.688	7.92669
220.5	6.503
222.312	5.80617
224.123	4.58887
225.933	3.95627
227.742	4.38214
229.552	3.51658
231.361	2.82516
233.171	3.74255
234.98	3.05475
236.787	3.84131
238.595	3.93275
240.402	3.85065
242.209	2.55387
244.015	3.11402
245.822	2.56707
247.627	2.3099
249.435	2.22584
251.24	1.2628
253.045	1.73518
254.849	1.94133
256.653	3.40704
258.457	4.08126
260.26	5.0533
262.063	5.66305
263.866	6.05429
265.668	6.20497
267.47	5.39525
269.271	6.878
271.073	7.43119
272.873	8.76446
274.674	9.90857
276.474	10.4948
278.274	10.8606
280.073	10.729
281.872	11.0318
283.671	11.4231
285.47	11.9164
287.268	12.9082
289.065	12.4162
290.863	12.0155
292.66	11.7463
294.456	12.2342
296.253	11.9757
298.049	11.7456
299.844	11.3853
301.637	11.638
303.432	10.9239
305.227	13.6581
307.021	15.1199
308.815	16.0627
310.609	16.8965
312.402	18.9147
314.195	19.9083
315.987	22.0525
317.777	24.111
319.569	23.4643
321.36	23.8307
323.151	24.6984
324.942	25.2844
326.733	26.0927
328.521	24.9657
330.31	24.8789
332.1	24.3836
333.889	26.3316
335.677	26.5694
337.464	27.5334
339.252	27.9308
341.039	27.5749
342.826	29.7697
344.611	31.0738
346.398	31.4349
348.184	30.8108
349.97	31.326
351.754	32.3721
353.539	31.7919
355.324	31.5046
357.106	31.3751
358.89	31.8304
360.674	30.0002
362.455	28.4568
364.239	26.6002
366.021	24.71
367.804	24.3117
369.584	22.985
371.366	21.8785
373.145	20.6584
374.926	20.3496
376.707	19.618
378.485	18.4502
380.265	16.9539
382.045	16.6566
383.822	15.7922
385.601	15.2296
387.378	15.0504
389.156	14.7071
390.934	14.7924
392.71	14.8724
394.487	17.4665
396.262	17.3772
398.038	17.7783
399.813	17.4629
401.588	18.1848
403.362	17.9202
405.137	18.802
406.912	18.7068
408.685	17.9176
410.459	18.5518
412.23	19.6478
414.004	20.9877
415.775	20.5647
417.548	20.5737
419.318	22.3579
421.089	23.3567
422.86	25.5487
424.63	25.4973
426.401	26.0733
428.17	26.2259
429.94	27.8963
431.708	29.1843
433.478	29.1969
435.245	29.7882
437.012	30.0983
438.781	29.873
440.547	29.812
442.315	30.9148
444.081	30.5939
445.846	30.07
447.613	29.0749
449.378	28.3881
451.142	29.0334
452.908	30.6186
454.672	30.9852
456.435	31.9127
458.2	31.339
459.963	31.5019
461.725	30.9941
463.489	31.3651
465.251	32.1332
467.012	32.1588
468.775	31.5415
470.536	32.1887
472.296	32.6503
474.056	32.678
475.817	33.3795
477.576	33.5615
479.335	33.7065
481.094	35.0649
482.854	36.0964
484.612	35.8776
486.37	36.5463
488.127	36.5657
489.886	37.8381
491.642	38.5633
493.398	39.9177
495.154	40.449
496.91	40.0987
498.667	40.3194
500.422	39.7064
502.176	39.5815
503.93	38.9154
505.684	38.8919
507.438	39.4219
509.191	39.3506
510.946	38.5081
512.698	38.2302
514.45	38.9598
516.202	37.7723
517.954	38.1746
519.705	36.8179
521.456	36.576
523.206	37.6389
524.956	36.7326
526.706	36.1476
528.456	35.576
530.207	35.0496
531.956	32.3429
533.704	31.4195
535.452	30.281
537.2	29.7948
538.947	29.7784
540.694	27.9379
542.441	26.078
544.188	24.9968
545.934	23.6625
547.68	22.3997
549.425	20.9081
551.17	21.5562
552.915	21.2966
554.659	19.8834
556.403	19.172
558.145	19.7247
559.889	19.3389
561.632	18.4876
563.375	18.0809
565.117	18.28
566.859	18.1473
568.601	18.3824
570.342	16.1788
572.083	16.0335
573.824	16.1967
575.565	16.3486
577.303	16.0463
579.043	15.9455
580.782	15.9668
582.521	15.3421
584.26	14.0897
585.998	13.0469
587.734	12.065
589.472	12.8279
591.21	12.1628
592.947	11.9749
594.684	12.2321
596.418	12.366
598.154	12.0494
599.89	12.6773
601.626	11.8866
603.361	11.43
605.094	13.029
606.828	12.4456
608.562	12.2571
610.296	11.4526
612.027	10.3594
613.761	10.3863
615.493	9.05532
617.224	8.65347
618.956	7.49297
620.688	7.69619
622.419	6.95782
624.149	6.59288
625.879	6.0863
627.61	4.94552
629.338	5.81742
631.068	5.51261
632.797	4.66429
634.525	3.54914
636.254	3.69553
637.98	5.31781
639.708	5.59679
641.436	5.54367
643.162	5.49473
644.889	5.45777
646.614	4.25678
648.34	3.37339
650.067	3.66712
651.791	4.78529
653.516	4.22916
655.239	5.33566
656.964	4.94547
658.687	6.0308
660.411	6.38079
662.133	5.55547
663.857	5.97434
665.58	7.46522
667.301	6.76471
669.024	6.8634
670.744	6.58256
672.464	6.2272
674.186	7.90066
675.905	8.02718
677.626	7.88544
679.345	7.57318
681.065	8.32034
682.783	8.84661
684.503	9.43932
686.22	10.2314
687.939	11.5726
689.656	13.5363
691.372	13.5844
693.09	12.5976
694.806	12.6496
696.523	13.0131
698.239	14.4929
699.953	15.3524
701.67	14.6943
703.384	15.9717
705.098	16.9361
706.813	16.6025
708.526	17.1695
710.239	17.888
711.954	18.2739
713.666	18.7786
715.378	19.242
717.091	18.616
718.802	19.6486
720.513	20.0666
722.226	21.5256
723.936	22.131
725.646	21.4026
727.355	21.1901
729.067	21.47
730.776	21.7738
732.484	22.4196
734.192	23.6331
735.902	24.7372
737.61	26.0739
739.317	25.4733
741.024	26.8359
742.731	25.8401
744.439	27.0715
746.145	27.8401
747.851	29.4699
749.556	31.3974
751.262	32.4052
752.966	32.2722
754.673	32.7061
756.377	33.4929
758.081	33.8067
759.784	34.7736
761.487	33.9547
763.19	34.4623
764.892	34.9872
766.594	37.4119
768.296	38.2748
770	39.1036
771.701	40.2327
773.402	41.4543
775.102	42.1023
776.803	42.2573
778.503	43.4434
780.202	45.0412
781.901	46.6438
783.6	47.8166
785.299	49.1204
786.997	49.8349
788.695	51.1656
790.393	52.111
792.09	52.8034
793.787	55.1495
795.484	55.8487
797.18	56.6416
798.877	57.7149
800.572	59.61
802.268	60.0101
803.963	60.1507
805.658	60.6539
807.35	61.6153
809.044	62.9065
810.738	62.6489
812.432	62.6679
814.125	62.7879
815.818	63.2824
817.51	63.2709
819.202	63.1608
820.894	63.6285
822.584	63.7504
824.275	63.6293
825.966	64.9158
827.657	64.9439
829.347	65.3925
831.037	65.6238
832.725	64.9351
834.414	63.8533
836.103	63.8726
837.792	62.522
839.481	61.8147
841.167	62.6705
842.854	61.847
844.542	61.5223
846.229	60.4223
847.914	60.3086
849.6	60.1903
851.287	59.7211
852.973	59.6381
854.656	60.2038
856.341	59.9818
858.026	60.2706
859.711	58.6884
861.393	58.3891
863.077	57.8205
864.761	58.6019
866.442	57.5234
868.125	57.2422
869.808	58.0987
871.489	58.9041
873.171	58.3505
874.85	58.2284
876.532	57.5471
878.213	56.868
879.892	55.89
881.572	55.0029
883.251	55.3534
884.931	54.0206
886.61	51.8845
888.287	51.903
889.966	51.5566
891.643	50.6766
893.321	48.9219
894.997	46.6847
896.675	45.173
898.352	43.7545
900.028	42.9694
901.704	42.1988
903.379	40.4295
905.055	40.5437
906.729	39.6392
908.404	39.1755
910.077	39.0847
911.75	38.5392
913.425	38.0409
915.097	37.8921
916.771	38.4632
918.443	38.6104
920.116	39.4827
921.787	38.934
923.46	38.7413
925.13	38.2517
926.8	37.219
928.472	37.4279
930.141	37.2113
931.813	36.8695
933.481	35.8972
935.15	34.7781
936.82	34.3651
938.488	32.7104
940.156	30.427
941.825	30.1129
943.492	28.3906
945.158	29.0375
946.827	29.1061
948.493	27.3927
950.158	25.8658
951.824	26.9015
953.491	27.0629
955.156	26.4449
956.82	23.5748
958.486	22.3194
960.15	20.9282
961.814	20.1539
963.477	19.625
965.142	19.541
966.804	19.9931
968.467	19.4029
970.129	19.8463
971.79	20.4166
973.454	18.5215
975.115	19.0586
976.776	18.4359
978.436	17.9142
980.096	18.0465
981.756	18.2809
983.417	19.1378
985.077	18.2354
986.736	17.3195
988.394	17.4679
990.052	16.099
991.71	16.1355
993.368	16.67
995.025	16.5807
996.682	18.0123
998.341	18.7214
999.998	19.9768
1001.65	19.0934
1003.31	20.7023
1004.97	20.5376
1006.62	21.1758
1008.28	23.1103
1009.93	25.5723
1011.58	27.2435
1013.24	28.2584
1014.89	28.1149
1016.54	27.8586
1018.2	29.5062
1019.85	30.6205
1021.5	31.1707
1023.16	31.8015
1024.81	35.5001
1026.46	36.4186
1028.11	38.9333
1029.76	40.2366
1031.41	40.6381
1033.06	44.5161
1034.71	46.8872
1036.36	47.8389
1038.01	48.6945
1039.66	49.0033
1041.31	51.1095
1042.95	52.9169
1044.6	55.0189
1046.25	55.8167
1047.9	57.3944
1049.54	58.7051
1051.19	59.0183
1052.84	58.7364
1054.48	58.8928
1056.13	58.8208
1057.77	58.9982
1059.42	57.4877
1061.06	56.5306
1062.71	55.9029
1064.35	53.8386
1066	51.9093
1067.64	48.914
1069.28	47.4488
1070.93	46.2674
1072.57	46.1206
1074.21	45.0417
1075.85	43.8552
1077.49	43.2274
1079.13	43.5363
1080.78	42.313
1082.42	41.5107
1084.06	40.4724
1085.7	40.4079
1087.34	39.6404
1088.97	39.9834
1090.61	40.8764
1092.25	40.9157
1093.89	39.9706
1095.53	39.8511
1097.17	39.2847
1098.8	39.1361
1100.44	40.4851
1102.08	40.4526
1103.71	41.0153
1105.35	42.698
1106.99	44.0441
1108.62	43.9479
1110.26	43.9101
1111.89	42.6917
1113.52	42.8514
1115.16	44.2237
1116.79	43.4416
1118.43	43.9648
1120.06	44.0735
1121.69	43.7439
1123.32	43.8882
1124.96	42.9263
1126.59	42.1767
1128.22	41.1203
1129.85	41.7217
1131.48	40.8745
1133.11	39.1426
1134.75	38.294
1136.37	37.1814
1138	35.6693
1139.63	33.7379
1141.26	31.477
1142.89	29.4883
1144.52	26.492
1146.15	25.24
1147.78	23.921
1149.4	21.4085
1151.03	18.9626
1152.66	17.8823
1154.28	16.7215
1155.91	13.8618
1157.54	12.3037
1159.16	10.4432
1160.79	9.2949
1162.41	7.29226
1164.04	6.27156
1165.66	6.25453
1167.29	6.06446
1168.91	5.14771
1170.53	4.15335
1172.16	3.70852
1173.78	2.66517
1175.4	1.58367
1177.02	1.15264
1178.65	0.0814627
1180.27	-0.933953
1181.89	-1.05254
1183.51	-1.12792
1185.13	-1.7534
1186.75	-2.01477
1188.37	-1.36586
1189.99	-0.723246
1191.61	-0.223463
1193.23	0.404122
1194.85	1.72309
1196.47	2.66119
1198.08	4.18141
1199.7	5.41305
1201.32	6.37344
1202.94	7.61412
1204.55	10.4316
1206.17	11.9202
1207.79	14.6228
1209.4	16.8176
1211.02	18.676
1212.63	19.9697
1214.25	22.1793
1215.86	25.3679
1217.48	26.8343
1219.09	28.3292
1220.71	30.1449
1222.32	31.8727
1223.93	34.564
1225.54	37.7364
1227.16	41.6921
1228.77	43.778
1230.38	45.4156
1231.99	47.6603
1233.6	52.1504
1235.22	54.5233
1236.83	57.2336
1238.44	59.8079
1240.05	61.907
1241.66	64.7593
1243.26	66.0321
1244.87	67.5528
1246.48	68.8931
1248.09	70.0349
1249.7	71.1454
1251.31	71.6094
1252.92	73.7255
1254.52	74.525
1256.13	75.8914
1257.74	77.9163
1259.34	79.6186
1260.95	82.1313
1262.55	84.479
1264.16	86.2483
1265.76	87.9321
1267.37	91.2982
1268.97	95.992
1270.58	97.0603
1272.18	99.3993
1273.78	100.797
1275.39	104.752
1276.99	107.779
1278.59	111.393
1280.2	112.902
1281.8	115.54
1283.4	117.96
1285	119.943
1286.6	121.042
1288.2	123.742
1289.8	125.288
1291.4	127.365
1293	129.255
1294.6	131.67
1296.2	132.374
1297.8	132.893
1299.4	133.68
1301	134.743
1302.6	135.846
1304.19	135.707
1305.79	135.894
1307.39	135.94
1308.99	135.295
1310.58	134.833
1312.18	134.537
1313.77	134.9
1315.37	132.826
1316.96	131.001
1318.56	127.225
1320.15	124.802
1321.75	123.192
1323.34	119.937
1324.94	117.208
1326.53	116.101
1328.12	114.229
1329.72	111.667
1331.31	108.463
1332.9	107.902
1334.49	105.511
1336.08	104.176
1337.67	102.844
1339.27	100.124
1340.86	98.3235
1342.45	97.0557
1344.04	95.2631
1345.63	94.8005
1347.22	93.4154
1348.8	92.1399
1350.39	89.2816
1351.98	89.4057
1353.57	88.5754
1355.16	89.3419
1356.75	86.4143
1358.33	84.7928
1359.92	83.4461
1361.51	82.2783
1363.09	82.5623
1364.68	82.0635
1366.27	81.8728
1367.85	82.4196
1369.44	81.9727
1371.02	81.6693
1372.61	81.498
1374.19	81.581
1375.77	80.9939
1377.36	82.3386
1378.94	83.0294
1380.52	82.9985
1382.11	83.8336
1383.69	83.5131
1385.27	84.1622
1386.85	84.2712
1388.43	84.1802
1390.02	83.4468
1391.6	82.4106
1393.18	81.5851
1394.76	80.2971
1396.34	80.8754
1397.92	80.5408
1399.5	80.5957
1401.08	81.4041
1402.65	83.1668
1404.23	85.9945
1405.81	90.6354
1407.39	93.9175
1408.97	98.8913
1410.54	104.747
1412.12	110.934
1413.7	115.758
1415.27	120.985
1416.85	127.416
1418.43	132.678
1420	140.258
1421.58	147.011
1423.15	154.179
1424.73	161.116
1426.3	168.725
1427.87	176.514
1429.45	183.917
1431.02	190.887
1432.6	196.287
1434.17	201.853
1435.74	205.799
1437.31	212.186
1438.89	217.604
1440.46	220.926
1442.03	224.759
1443.6	226.355
1445.17	228.667
1446.74	229.798
1448.31	230.266
1449.88	229.362
1451.45	228.843
1453.02	226.579
1454.59	223.922
1456.16	220.641
1457.72	214.711
1459.29	208.761
1460.86	202.336
1462.43	194.35
1463.99	186.374
1465.56	178.168
1467.13	169.287
1468.69	159.602
1470.26	151.812
1471.83	143.405
1473.39	135.014
1474.95	127.173
1476.52	118.887
1478.08	111.35
1479.65	105.377
1481.21	100.079
1482.78	93.8712
1484.34	88.716
1485.9	83.1053
1487.47	77.6147
1489.03	72.5727
1490.59	67.1841
1492.15	61.6448
1493.71	57.4972
1495.27	53.8275
1496.84	50.99
1498.39	49.1858
1499.96	46.2749
1501.52	45.5302
1503.07	43.7544
1504.64	42.6338
1506.19	40.0488
1507.75	38.4783
1509.31	37.4524
1510.87	36.2534
1512.43	35.1965
1513.98	34.9092
1515.54	34.3519
1517.1	32.9629
1518.65	31.5357
1520.21	31.3113
1521.77	31.2113
1523.32	31.9985
1524.88	31.3509
1526.44	31.5864
1527.99	32.1263
1529.54	32.232
1531.1	32.4598
1532.65	33.2819
1534.21	33.5931
1535.76	34.0736
1537.31	35.3653
1538.87	35.4961
1540.42	36.4218
1541.97	37.2711
1543.52	38.052
1545.07	38.7305
1546.63	39.5473
1548.18	41.216
1549.73	41.5637
1551.28	42.5214
1552.83	43.8854
1554.38	45.8339
1555.93	47.225
1557.48	48.0297
1559.03	48.5311
1560.57	48.8189
1562.12	49.8857
1563.67	50.762
1565.22	52.421
1566.77	54.647
1568.31	55.4091
1569.86	57.3316
1571.41	59.8241
1572.95	61.8548
1574.5	64.7287
1576.05	65.7752
1577.59	68.2124
1579.14	70.5449
1580.68	71.1005
1582.23	72.7133
1583.77	74.734
1585.31	76.2373
1586.86	78.4262
1588.4	79.5861
1589.95	81.2466
1591.49	83.0144
1593.03	84.418
1594.57	85.5092
1596.11	86.1955
1597.66	87.2937
1599.2	87.7498
1600.74	87.9593
1602.28	88.471
1603.82	89.3346
1605.36	89.4084
1606.9	88.086
1608.44	88.6088
1609.98	88.6991
1611.52	87.4504
1613.06	86.4842
1614.6	86.7729
1616.13	85.8578
1617.67	86.2217
1619.21	85.3109
1620.75	85.6343
1622.28	85.267
1623.82	85.2819
1625.36	85.869
1626.89	87.4913
1628.43	87.2447
1629.96	88.4026
1631.5	89.9313
1633.04	89.7954
1634.57	90.3319
1636.11	92.1682
1637.64	93.065
1639.17	94.5255
1640.71	96.3304
1642.24	97.0187
1643.77	97.3392
1645.31	99.5461
1646.84	101.792
1648.37	102.625
1649.9	104.203
1651.43	105.298
1652.96	105.661
1654.5	107.325
1656.03	107.068
1657.56	107.605
1659.09	108.192
1660.62	107.806
1662.15	106.219
1663.67	105.342
1665.2	104.507
1666.73	102.954
1668.26	100.351
1669.79	97.5973
1671.32	94.8217
1672.84	92.0087
1674.37	89.205
1675.9	85.3701
1677.43	81.7288
1678.95	78.3254
1680.48	75.6695
1682	72.5073
1683.53	69.8873
1685.05	67.023
1686.58	64.0055
1688.1	60.6169
1689.63	57.5032
1691.15	55.0972
1692.68	50.6306
1694.2	48.7375
1695.72	45.363
1697.25	43.9824
1698.77	40.7019
1700.29	39.4631
1701.81	38.518
1703.33	37.4167
1704.86	35.7427
1706.38	35.3645
1707.9	35.2002
1709.42	33.8168
1710.94	33.2202
1712.46	32.7581
1713.98	31.4109
1715.5	31.27
1717.02	30.9281
1718.54	30.1405
1720.06	30.8027
1721.57	32.2224
1723.09	32.3033
1724.61	32.3612
1726.13	31.708
1727.64	31.0233
1729.16	30.031
1730.68	30.261
1732.19	29.507
1733.71	28.9086
1735.23	28.0726
1736.74	27.2357
1738.26	25.9191
1739.77	24.9473
1741.29	24.3658
1742.8	22.4282
1744.31	20.9837
1745.83	20.3032
1747.34	19.3712
1748.85	18.7291
1750.37	17.781
1751.88	17.2443
1753.39	17.2458
1754.91	17.9772
1756.42	18.5039
1757.93	17.5845
1759.44	16.0899
1760.95	14.7934
1762.46	13.6673
1763.97	12.2295
1765.48	10.6372
1766.99	9.55816
1768.5	8.48813
1770.01	8.98068
1771.52	8.22293
1773.03	8.07721
1774.54	7.16175
1776.04	8.02497
1777.55	7.8467
1779.06	7.62882
1780.57	7.58584
1782.07	7.28318
1783.58	7.62058
1785.09	7.2023
1786.59	6.88961
1788.1	6.32779
1789.6	5.86099
1791.11	5.71007
1792.61	5.36512
1794.12	4.76036
1795.62	4.2227
1797.13	4.13087
1798.63	3.26544
1800.13	2.2849
1801.64	1.49234
1803.14	1.1597
1804.64	1.00756
1806.15	1.31779
1807.65	1.09346
1809.15	0.539389
1810.65	0.398627
1812.15	-0.320623
1813.65	-0.151107
1815.16	0.229268
1816.66	1.1124
1818.15	0.997911
1819.66	1.26994
1821.16	1.19716
1822.65	1.76641
1824.15	2.00523
1825.65	1.80958
1827.15	1.6402
1828.65	1.83668
1830.15	2.32217
1831.64	1.48388
1833.14	1.75912
1834.64	1.44389
1836.14	0.8353
1837.63	0.442822
1839.13	0.232807
1840.62	0.295196
1842.12	0.747998
1843.62	0.857032
1845.11	1.55449
1846.61	1.65243
1848.1	1.33982
1849.6	1.61574
1851.09	1.75555
1852.58	1.68447
1854.08	1.84636
1855.57	1.7398
1857.06	1.66398
1858.55	1.59499
1860.05	1.34696
1861.54	0.793783
1863.03	1.59536
1864.52	2.32379
1866.01	1.86135
1867.5	2.12921
1869	2.22107
1870.49	2.11064
1871.98	2.69827
1873.47	2.87016
1874.96	2.89875
1876.44	2.9868
1877.93	2.72674
1879.42	4.32807
1880.91	5.01129
1882.4	4.9492
1882.47	4.84412
1883.96	5.09966
1885.46	5.14071
1886.95	5.36339
1888.44	5.33722
1889.94	5.00965
1891.43	4.57871
1892.93	4.60126
1894.42	4.74361
1895.91	4.74379
1897.4	4.27577
1898.89	5.03325
1900.39	5.02311
1901.88	5.68897
1903.37	5.50382
1904.86	5.6174
1906.35	6.97509
1907.84	6.1523
1909.33	6.09316
1910.82	7.4301
1912.31	7.76717
1913.8	8.44418
1915.29	8.57542
1916.77	8.84706
1918.26	9.38143
1919.75	9.783
1921.24	10.1423
1922.73	11.1422
1924.21	11.4955
1925.7	11.1943
1927.19	10.8864
1928.67	11.2185
1930.16	11.0221
1931.64	11.7172
1933.13	11.2717
1934.61	11.8646
1936.1	12.688
1937.58	12.6601
1939.07	11.7708
1940.55	11.2039
1942.04	10.798
1943.52	10.7064
1945	10.8793
1946.49	10.6496
1947.97	9.63795
1949.45	9.17863
1950.93	9.09273
1952.42	9.07462
1953.9	8.39279
1955.38	7.49991
1956.86	6.62905
1958.34	6.38559
1959.82	5.78818
1961.3	5.03984
1962.78	5.10567
1964.26	3.70092
1965.74	3.61116
1967.22	3.31057
1968.7	2.60253
1970.18	1.56171
1971.65	1.09966
1973.13	0.845482
1974.61	0.235509
1976.09	0.818599
1977.57	0.301204
1979.04	0.350905
1980.52	0.771955
1982	0.459418
1983.47	1.23742
1984.95	1.18487
1986.42	0.498385
1987.9	0.85555
1989.37	1.4245
1990.85	1.61094
1992.32	1.57229
1993.8	2.16353
1995.27	2.16618
1996.75	2.47431
1998.22	1.65777
1999.69	1.62842
2001.17	1.6057
2002.64	2.77648
2004.11	2.94236
2005.58	3.82806
2007.05	3.48608
2008.53	4.08602
2010	4.2731
2011.47	4.67511
2012.94	4.51487
2014.41	5.21662
2015.88	5.72546
2017.35	5.56854
2018.82	4.28958
2020.29	4.73948
2021.76	4.44235
2023.23	4.50184
2024.7	4.94498
2026.16	5.30188
2027.63	6.29773
2029.1	5.80745
2030.57	5.22359
2032.03	4.8457
2033.5	4.22299
2034.97	4.33364
2036.44	4.06038
2037.9	3.76273
2039.37	4.7078
2040.83	4.04673
2042.3	4.15177
2043.76	3.76516
2045.23	4.3364
2046.69	5.07673
2048.16	5.85203
2049.62	6.2516
2051.08	6.98075
2052.55	7.53565
2054.01	7.78144
2055.47	7.60777
2056.94	8.05248
2058.4	8.12117
2059.86	8.19651
2061.32	8.63612
2062.79	8.61365
2064.25	8.61371
2065.71	9.92238
2067.17	10.3192
2068.63	10.3886
2070.09	11.5831
2071.55	11.6718
2073.01	12.6263
2074.47	13.1171
2075.93	14.2225
2077.39	14.4113
2078.85	15.6227
2080.31	16.0138
2081.76	17.3653
2083.22	17.1742
2084.68	16.832
2086.13	16.348
2087.59	15.846
2089.05	15.0763
2090.51	15.2853
2091.96	14.8475
2093.42	15.8147
2094.87	16.5549
2096.33	16.6689
2097.78	18.1245
2099.24	18.1118
2100.69	18.1077
2102.15	17.3706
2103.6	17.4855
2105.06	17.7321
2106.51	18.4916
2107.96	19.8466
2109.42	19.9191
2110.87	21.0402
2112.32	20.8171
2113.77	20.9844
2115.23	21.2474
2116.68	21.3076
2118.13	22.9192
2119.58	23.8637
2121.03	24.3707
2122.48	24.8752
2123.93	25.9541
2125.38	25.3632
2126.83	25.812
2128.28	27.1177
2129.73	28.1189
2131.18	28.5333
2132.63	29.4932
2134.08	30.828
2135.53	31.7371
2136.97	33.3609
2138.42	35.0278
2139.87	35.7438
2141.32	37.0797
2142.76	38.2863
2144.21	38.7412
2145.66	40.2068
2147.1	42.4652
2148.55	43.842
2150	45.5991
2151.44	47.0452
2152.89	47.4164
2154.33	48.9911
2155.78	48.9705
2157.22	50.4446
2158.66	51.6816
2160.11	53.6332
2161.55	54.8808
2163	56.2634
2164.44	57.6951
2165.88	59.6782
2167.32	61.2665
2168.77	61.0081
2170.21	61.9291
2171.65	61.8547
2173.09	62.6659
2174.53	62.4605
2175.97	62.7404
2177.41	63.3081
2178.85	63.8909
2180.29	64.0199
2181.73	63.7635
2183.17	63.5777
2184.61	62.6754
2186.05	62.2901
2187.49	61.1592
2188.93	60.8997
2190.37	60.2957
2191.81	59.2481
2193.24	58.2577
2194.68	57.0805
2196.12	55.8334
2197.56	54.0455
2198.99	53.641
2200.43	52.8445
2201.87	51.7812
2203.3	50.3332
2204.74	48.9183
2206.17	47.2437
2207.61	45.9495
2209.04	45.3767
2210.48	43.8516
2211.91	42.5801
2213.35	41.1524
2214.78	39.477
2216.21	38.7068
2217.65	37.4552
2219.08	37.0192
2220.51	35.6802
2221.95	34.8395
2223.38	33.8712
2224.81	32.3239
2226.24	31.6381
2227.67	30.1812
2229.1	29.0186
2230.54	27.2454
2231.97	26.0829
2233.4	23.8018
2234.83	23.3955
2236.26	23.0876
2237.69	21.6245
2239.11	20.2052
2240.54	19.3609
2241.97	18.8751
2243.4	17.6094
2244.83	16.6698
2246.26	15.7001
2247.69	15.02
2249.11	15.1059
2250.54	14.1018
2251.97	12.9791
2253.4	12.4227
2254.82	11.0973
2256.25	10.4514
2257.67	9.12437
2259.1	9.05473
2260.53	9.05754
2261.95	8.65859
2263.38	8.46287
2264.8	8.14693
2266.23	7.89649
2267.65	8.12175
2269.07	8.42844
2270.5	8.77661
2271.92	8.26285
2273.34	8.86634
2274.77	9.11342
2276.19	9.15734
2277.61	9.80574
2279.03	11.0762
2280.46	11.683
2281.88	11.0147
2283.3	11.4302
2284.72	11.0262
2286.14	10.2962
2287.56	10.714
2288.98	10.1882
2290.4	10.3
2291.82	9.99073
2293.24	9.78002
2294.66	9.10189
2296.08	9.26071
2297.5	10.3136
2298.92	10.4868
2300.34	9.67227
2301.76	9.00023
2303.17	9.47779
2304.59	9.55646
2306.01	10.3451
2307.43	9.36057
2308.84	8.28108
2310.26	8.04777
2311.68	7.96889
2313.09	7.92632
2314.51	7.32411
2315.92	7.32197
2317.34	7.44686
2318.75	6.99415
2320.17	6.77274
2321.58	5.94483
2323	6.14782
2324.41	6.04535
2325.82	5.23784
2327.24	4.98768
2328.65	4.8103
2330.06	6.21985
2331.48	6.35644
2332.89	7.18726
2334.3	7.32372
2335.71	8.37823
2337.12	8.56807
2338.54	8.54125
2339.95	8.25025
2341.36	8.20488
2342.77	8.71536
2344.18	9.40481
2345.59	8.38219
2347	7.88911
2348.41	8.30503
2349.82	8.45909
2351.23	7.56221
2352.64	6.66365
2354.04	6.78362
2355.45	5.85061
2356.86	5.3629
2358.27	5.47128
2359.68	5.706
2361.08	6.16396
2362.49	7.29475
2363.9	7.22569
2365.3	6.81728
2366.71	6.87764
2368.12	6.50936
2369.52	5.45157
2370.93	4.53893
2372.33	5.16667
2373.74	5.27155
2375.14	5.20897
2376.55	5.29811
2377.95	4.11459
2379.36	3.93749
2380.76	4.07147
2382.16	4.91971
2383.57	5.56301
2384.97	5.21087
2386.37	5.32669
2387.78	4.98726
2389.18	4.69087
2390.58	4.31106
2391.98	4.71039
2393.38	5.04509
2394.79	4.07107
2396.19	4.36917
2397.59	5.37933
2398.99	6.02088
2400.39	6.45373
2401.79	5.92409
2403.19	5.28051
2404.59	4.90131
2405.99	5.13835
2407.39	4.09519
2408.78	4.0414
2410.18	4.10682
2411.58	3.77026
2412.98	3.7904
2414.38	3.1303
2415.77	1.77727
2417.17	2.67085
2418.57	2.62644
2419.97	2.56955
2421.36	2.91402
2422.76	3.25756
2424.15	3.08499
2425.55	3.20567
2426.95	4.40175
2428.34	5.38265
2429.74	5.73696
2431.13	5.66869
2432.52	5.51545
2433.92	4.71972
2435.31	4.45317
2436.71	4.87483
2438.1	5.17631
2439.49	5.10176
2440.89	6.33152
2442.28	6.5911
2443.67	6.06993
2445.06	5.93196
2446.46	5.80424
2447.85	5.68748
2449.24	6.18195
2450.63	6.7216
2452.02	7.47847
2453.41	7.405
2454.8	6.87501
2456.19	6.44452
2457.58	6.83137
2458.97	7.76954
2460.36	7.52253
2461.75	7.79878
2463.14	7.75889
2464.53	7.25542
2465.92	7.57613
2467.31	7.66275
2468.69	6.65306
2470.08	6.30746
2471.47	5.71753
2472.86	5.8123
2474.24	5.84442
2475.63	5.20784
2477.02	5.0385
2478.4	5.65528
2479.79	5.55073
2481.17	4.41623
2482.56	4.68933
2483.94	4.76457
2485.33	4.27165
2486.72	5.81444
2488.1	6.00718
2489.48	6.18411
2490.87	6.63901
2492.25	6.80025
2493.64	7.18084
2495.02	7.99284
2496.4	8.33026
2497.79	8.06685
2499.17	7.86962
2500.55	8.45414
2501.93	8.57588
2503.31	8.77955
2504.69	8.34794
2506.08	8.38731
2507.46	8.43151
2508.84	8.67798
2510.22	8.56109
2511.6	7.63986
2512.98	7.30879
2514.36	6.85227
2515.74	6.65691
2517.12	6.0775
2518.5	5.83791
2519.88	5.63012
2521.25	5.84307
2522.63	5.56657
2524.01	5.49078
2525.39	5.82603
2526.77	6.104
2528.14	5.82725
2529.52	5.21078
2530.9	4.55251
2532.27	4.5438
2533.65	3.67961
2535.03	3.31454
2536.4	3.30196
2537.78	2.30957
2539.15	2.83095
2540.53	2.46118
2541.9	2.73066
2543.28	2.61044
2544.65	2.47816
2546.03	2.69081
2547.4	3.06373
2548.77	3.02751
2550.15	3.21681
2551.52	4.47905
2552.89	4.87613
2554.27	5.33676
2555.64	6.97843
2557.01	7.30224
2558.38	7.14084
2559.75	8.48669
2561.12	9.07484
2562.5	9.89828
2563.87	10.4532
2565.24	11.0126
2566.61	12.0178
2567.98	13.76
2569.35	14.3203
2570.72	14.5592
2572.09	14.7358
2573.46	14.4207
2574.83	14.6543
2576.19	14.6737
2577.56	14.2858
2578.93	14.0101
2580.3	14.3934
2581.67	13.3965
2583.04	13.6833
2584.4	13.9155
2585.77	14.5154
2587.14	14.2201
2588.5	13.6115
2589.87	13.5781
2591.23	12.7549
2592.6	12.858
2593.97	12.6199
2595.33	12.1516
2596.7	12.2527
2598.06	11.8854
2599.43	11.7357
2600.79	12.1493
2602.15	10.8638
2603.52	10.7468
2604.88	10.0572
2606.25	9.05745
2607.61	8.70706
2608.97	7.69811
2610.33	7.78176
2611.7	7.14937
2613.06	6.74521
2614.42	6.71959
2615.78	6.94586
2617.15	6.7188
2618.51	6.4807
2619.87	6.55644
2621.23	6.26941
2622.59	6.31614
2623.95	6.09184
2625.31	5.52144
2626.67	5.22915
2628.03	5.69421
2629.39	5.51631
2630.75	5.35761
2632.1	6.09135
2633.46	5.71296
2634.82	6.42054
2636.18	6.94691
2637.54	6.1474
2638.89	5.90354
2640.25	5.88376
2641.61	6.03667
2642.97	6.711
2644.32	7.44914
2645.68	7.71845
2647.03	7.57666
2648.39	7.54955
2649.75	7.39823
2651.1	8.54397
2652.46	8.52201
2653.81	8.44204
2655.17	8.0209
2656.52	8.44641
2657.88	9.33446
2659.23	9.52939
2660.58	10.1792
2661.94	10.7572
2663.29	10.7276
2664.64	11.4169
2666	11.5107
2667.35	11.8926
2668.7	11.48
2670.05	11.5624
2671.4	11.7848
2672.76	11.6345
2674.11	11.9594
2675.46	13.1044
2676.81	12.842
2678.16	13.7028
2679.51	14.1611
2680.86	14.3687
2682.21	14.5881
2683.56	15.4796
2684.91	15.7311
2686.26	15.7006
2687.61	16.0754
2688.96	15.8354
2690.3	15.8213
2691.65	16.265
2693	16.7482
2694.35	17.4696
2695.7	17.7649
2697.04	18.1654
2698.39	18.7111
2699.74	19.912
2701.08	20.1345
2702.43	21.551
2703.77	21.9901
2705.12	22.4264
2706.47	23.6317
2707.81	24.6851
2709.16	25.7908
2710.5	25.9988
2711.85	25.9194
2713.19	25.9887
2714.53	26.3768
2715.88	26.6629
2717.22	26.997
2718.57	27.003
2719.91	26.7829
2721.25	27.0531
2722.59	26.8224
2723.94	26.7401
2725.28	26.6716
2726.62	26.3469
2727.96	26.2385
2729.3	25.8231
2730.65	24.6403
2731.99	24.5636
2733.33	23.7798
2734.67	23.5456
2736.01	22.8578
2737.35	22.3781
2738.69	20.6011
2740.03	20.1273
2741.37	18.7531
2742.71	17.8747
2744.05	15.8026
2745.38	15.1252
2746.72	13.8479
2748.06	12.2649
2749.4	11.347
2750.74	10.1972
2752.07	8.81614
2753.41	8.19717
2754.75	7.28366
2756.09	6.69871
2757.42	6.08945
2758.76	5.53956
2760.09	4.94119
2761.43	4.45313
2762.77	4.00914
2764.1	3.92827
2765.44	3.36824
2766.77	2.93999
2768.11	2.80255
2769.44	2.28865
2770.77	1.75233
2772.11	1.71942
2773.44	1.82637
2774.77	1.23962
2776.11	1.1886
2777.44	1.05634
2778.77	1.37428
2780.11	1.32033
2781.44	1.12418
2782.77	0.701384
2784.1	0.97758
2785.43	0.858014
2786.77	1.08868
2788.1	1.45538
2789.43	1.01578
2790.76	1.55218
2792.09	1.61845
2793.42	1.56984
2794.75	1.68166
2796.08	1.58349
2797.41	1.98237
2798.74	2.16832
2800.07	2.13147
2801.4	1.90573
2802.72	1.03799
2804.05	0.180884
2805.38	-0.926874
2806.71	-2.007
2808.04	-3.60881
2809.36	-4.51244
2810.69	-5.8647
2812.02	-5.34408
2813.34	-5.38546
2814.67	-4.99038
2816	-2.74432
2817.32	0.145251
2818.65	4.49502
2819.97	10.2927
2821.3	16.5107
2822.62	24.601
2823.95	33.319
2825.27	42.9511
2826.6	52.6973
2827.92	63.1215
2829.25	74.767
2830.57	85.4069
2831.89	96.9005
2833.22	109.504
2834.54	122.325
2835.86	134.7
2837.18	148.229
2838.51	161.719
2839.83	175.146
2841.15	188.011
2842.47	201.872
2843.79	214.618
2845.11	227.629
2846.43	241.481
2847.76	255.147
2849.08	269.685
2850.4	283.961
2851.72	298.876
2853.04	313.902
2854.36	327.912
2855.67	341.814
2856.99	355.734
2858.31	368.049
2859.63	379.07
2860.95	390.337
2862.27	400.423
2863.58	409.3
2864.9	417.04
2866.22	424.331
2867.54	431.049
2868.85	436.496
2870.17	441.475
2871.49	445.443
2872.8	448.792
2874.12	451.842
2875.43	455.209
2876.75	459.242
2878.07	463.117
2879.38	466.392
2880.7	470.95
2882.01	475.912
2883.32	480.667
2884.64	485.854
2885.95	489.544
2887.27	493.053
2888.58	497.008
2889.89	500.677
2891.21	503.003
2892.52	504.71
2893.83	507.717
2895.14	510.311
2896.46	512.385
2897.77	515.922
2899.08	518.492
2900.39	520.441
2901.7	522.775
2903.01	527.174
2904.32	529.378
2905.63	532.907
2906.94	537.535
2908.25	543.514
2909.56	548.803
2910.87	555.143
2912.18	561.877
2913.49	568.312
2914.8	575.406
2916.11	581.84
2917.42	588.271
2918.72	592.855
2920.03	596.891
2921.34	600.299
2922.65	602.026
2923.95	602.832
2925.26	603.54
2926.57	604.485
2927.88	602.979
2929.18	600.612
2930.49	598.288
2931.79	594.839
2933.1	590.901
2934.4	584.839
2935.71	578.841
2937.01	571.412
2938.32	563.069
2939.62	554.469
2940.93	545.949
2942.23	536.625
2943.54	526.045
2944.84	515.541
2946.14	503.578
2947.45	491.832
2948.75	480.739
2950.05	467.738
2951.35	455.393
2952.66	443.273
2953.96	430.68
2955.26	416.802
2956.56	403.378
2957.86	390.123
2959.16	378.467
2960.46	366.193
2961.77	354.437
2963.07	342.359
2964.37	329.646
2965.66	318.24
2966.96	307.681
2968.26	296.861
2969.56	285.688
2970.86	277.028
2972.16	267.489
2973.46	258.487
2974.76	248.509
2976.06	239.041
2977.35	229.749
2978.65	220.802
2979.95	211.958
2981.25	202.862
2982.54	193.298
2983.84	183.66
2985.14	174.546
2986.43	164.902
2987.73	155.948
2989.02	146.993
2990.32	138.724
2991.62	129.917
2992.91	120.456
2994.21	112.576
2995.5	104.877
2996.8	96.9732
2998.09	90.005
2999.38	82.6531
3000.68	75.9638
3001.97	69.3674
3003.26	63.5662
3004.56	58.3584
3005.85	53.0997
3007.14	48.4367
3008.43	43.5811
3009.73	39.7237
3011.02	35.8994
3012.31	32.2611
3013.6	28.8598
3014.89	25.2001
3016.19	22.1962
3017.48	18.5022
3018.77	15.5788
3020.06	12.7948
3021.35	11.1545
3022.64	9.06057
3023.93	8.04861
3025.22	6.38381
3026.5	4.57384
3027.79	3.47467
3029.08	2.02833
3030.37	1.29473
3031.66	0.89418
3032.95	-0.00114623
3034.24	0.221556
3035.52	0.127183
3036.81	0.463879
3038.1	0.921658
3039.39	0.476211
3040.67	0.926039
3041.96	1.57927
3043.25	2.55968
3044.53	2.77913
3045.82	2.92764
3047.1	3.67799
3048.39	3.76433
3049.67	3.49366
3050.96	3.52283
3052.24	3.81108
3053.53	3.79406
3054.81	4.71639
3056.1	4.5168
3057.38	4.64799
3058.67	5.08539
3059.95	4.98909
3061.23	5.20358
3062.52	5.16463
3063.8	4.3125
3065.08	4.12264
3066.36	3.99977
3067.65	4.19213
3068.93	3.8855
3070.21	3.45854
3071.49	4.00774
3072.77	3.93199
3074.05	4.45944
3075.33	3.8106
3076.61	3.51135
3077.89	4.03987
3079.17	4.19183
3080.45	3.91617
3081.73	4.08532
3083.01	4.42606
3084.29	5.46151
3085.57	6.32431
3086.85	7.20422
3088.13	8.17094
3089.41	8.52687
3090.68	9.1954
3091.96	10.3324
3093.24	10.672
3094.52	12.2962
3095.79	13.3991
3097.07	14.0732
3098.35	15.4798
3099.62	16.3919
3100.9	18.523
3102.18	19.3426
3103.45	20.0227
3104.73	21.3323
3106	22.3752
3107.28	23.7455
3108.55	24.6746
3109.83	25.7163
3111.1	26.7579
3112.38	27.2997
3113.65	28.0673
3114.93	29.6826
3116.2	30.7406
3117.47	31.9959
3118.75	33.3297
3120.02	33.8632
3121.29	34.9001
3122.57	35.8539
3123.84	37.0138
3125.11	38.3529
3126.38	39.2688
3127.65	40.9085
3128.92	43.2738
3130.2	45.027
3131.47	47.3127
3132.74	48.8995
3134.01	51.022
3135.28	53.6973
3136.55	55.8396
3137.82	58.1788
3139.09	60.5356
3140.36	63.4284
3141.63	66.177
3142.9	69.4402
3144.17	72.8746
3145.43	76.3671
3146.7	79.5876
3147.97	82.8189
3149.24	87.4404
