#Acq. time (s)=	45
#Accumulations=	2
#Range (cm-¹)=	200...3150
#Windows=	2
#Auto scanning=	Off
#Autofocus=	Off
#Macrospot=	Off
#AutoExposure=	Off
#Spike filter=	Multiple accum.
#Delay time (s)=	0
#Binning=	1
#Readout mode=	Signal
#DeNoise=	Off
#ICS correction=	On
#Dark correction=	Off
#Inst. Process=	Off
#Detector Gain=	Best Dynamic Range
#Detector ADC=	20 kHz       
#Detector temperature (°C)=	-69.85
#Instrument=	LabRAM HR Evol
#Detector=	Synapse
#Objective=	x100
#Grating=	600 gr/mm
#ND Filter=	100%
#Laser (nm)=	532 
#Hole=	100.021
#Range=	Auto
#Laser Pol.=	No
#Raman. Pol.=	No
#Laser Pol. (°)=	-0.0007625
#Raman Pol. (°)=	89.9995
#Collection=	Microscope
#StageXY=	Marzhauser
#StageZ=	Marzhauser
#X (µm)=	-6980.1
#Y (µm)=	2118.5
#Z (µm)=	-74.85
#Full time(mm:ss)=	3:18
#Project=	
#Sample=	
#Site=	
#Title=	Mb_20_23_13_2x_45s_532 nm_x100_100%_600 gr_mm
#Remark=	
#Date=	13.07.2022 13:52
#Acquired=	13.07.2022 13:52:33
#Base:Fit=	10.08.2022 10:29:19
#Base:Fit=	10.08.2022 10:29:37
#Base:Sub=	10.08.2022 10:32:28
#Filter:Polynom=	16.08.2022 10:13:29
#AxisType[0]=Intens
#AxisUnit[0]=Cnt
#AxisType[1]=Spectr
#AxisUnit[1]=1/cm
200.563	15.8796
202.377	15.991
204.194	14.3184
206.008	13.0156
207.821	11.1405
209.634	9.48316
211.449	8.30453
213.262	6.89149
215.074	5.29407
216.885	3.64967
218.699	3.62085
220.51	3.34694
222.321	3.91801
224.131	3.50276
225.941	4.03856
227.751	3.02425
229.562	3.82727
231.371	3.73702
233.18	5.63171
234.988	6.53167
236.796	7.26281
238.603	6.68366
240.411	7.13927
242.219	7.21735
244.026	8.7227
245.832	8.58946
247.638	9.48496
249.443	10.7601
251.248	11.583
253.053	12.0002
254.857	13.1596
256.661	14.2175
258.465	15.1116
260.268	16.0775
262.071	17.1813
263.874	17.6081
265.678	18.4783
267.48	18.7753
269.282	19.3719
271.083	19.2474
272.884	19.7609
274.684	18.3784
276.484	19.0639
278.284	18.4403
280.084	17.9116
281.883	16.9261
283.682	15.4931
285.48	14.6703
287.276	12.5709
289.074	11.9682
290.871	11.5658
292.668	11.8228
294.465	12.3001
296.261	11.1968
298.057	11.4167
299.853	11.9142
301.648	11.0914
303.443	11.0644
305.237	10.5669
307.032	10.068
308.823	11.1125
310.617	10.9631
312.41	11.4614
314.203	12.1856
315.995	12.3269
317.788	12.8286
319.579	13.5555
321.369	14.2486
323.16	15.2343
324.951	15.1048
326.741	14.8477
328.531	15.9845
330.321	18.2489
332.108	18.2791
333.897	19.6895
335.686	19.5512
337.474	20.1852
339.26	20.288
341.048	19.8191
342.835	19.8089
344.622	20.3712
346.406	19.5467
348.192	18.5966
349.978	18.233
351.764	16.3822
353.547	15.7998
355.332	14.4209
357.116	14.0394
358.901	13.7074
360.682	13.5998
362.466	13.383
364.249	11.4599
366.03	11.3145
367.812	9.64462
369.594	8.62944
371.374	7.52574
373.155	7.81449
374.936	8.09293
376.715	9.36359
378.495	10.6794
380.273	11.9685
382.053	13.0616
383.832	13.3361
385.609	12.4743
387.388	13.8294
389.164	13.4898
390.942	13.8728
392.72	13.7003
394.495	13.1269
396.272	12.6577
398.047	15.0858
399.823	16.0804
401.597	16.2769
403.372	17.2513
405.145	17.4974
406.92	19.1001
408.693	19.5796
410.467	21.2386
412.239	21.9283
414.012	23.2731
415.783	24.0705
417.556	25.8461
419.327	26.456
421.099	26.2574
422.869	26.0107
424.64	25.504
426.409	24.5217
428.18	24.8227
429.948	24.6518
431.718	24.4157
433.486	23.7907
435.253	23.1436
437.022	23.0652
438.789	23.4246
440.558	22.3456
442.324	22.1692
444.089	22.6188
445.857	24.2071
447.622	24.5467
449.386	24.5105
451.153	24.7627
452.917	23.986
454.682	25.4131
456.446	25.1294
458.208	26.3228
459.973	26.9612
461.735	26.9692
463.497	28.5436
465.259	30.1569
467.022	30.5836
468.783	31.4223
470.544	31.9956
472.306	31.9253
474.066	30.2779
475.825	30.7413
477.585	30.8343
479.346	31.0978
481.104	30.3012
482.862	30.1507
484.62	30.6667
486.38	32.071
488.137	31.7419
489.894	32.8735
491.65	34.9473
493.407	35.6023
495.164	36.2583
496.92	35.9721
498.675	36.9047
500.43	37.2373
502.184	37.8804
503.939	37.9769
505.694	38.4903
507.448	38.935
509.201	37.7
510.954	37.4939
512.706	38.9946
514.459	38.5224
516.21	38.5936
517.962	38.1465
519.715	38.3586
521.466	37.703
523.216	37.4418
524.966	36.5917
526.716	35.238
528.466	35.0807
530.215	34.4337
531.964	34.7215
533.712	34.8369
535.46	33.7618
537.208	32.3105
538.955	31.3374
540.703	31.2445
542.449	30.6077
544.196	29.1872
545.942	29.2957
547.688	28.4795
549.433	27.366
551.178	28.1842
552.923	25.9092
554.667	24.8771
556.412	24.2129
558.155	23.037
559.899	20.6355
561.642	19.7563
563.385	20.6593
565.127	20.9448
566.867	18.6835
568.609	18.2178
570.35	18.2547
572.092	18.3195
573.832	17.3838
575.573	17.4689
577.313	16.5213
579.053	15.4246
580.79	15.0258
582.529	13.621
584.268	13.3531
586.006	12.7319
587.745	12.2135
589.482	12.0567
591.218	11.6874
592.955	11.0465
594.692	10.2812
596.428	9.02692
598.164	9.84125
599.898	9.53529
601.634	9.10082
603.369	9.57662
605.104	9.32299
606.836	9.49978
608.57	9.48656
610.304	9.08197
612.037	8.6686
613.769	8.95051
615.501	10.0261
617.234	9.17743
618.966	9.58852
620.696	10.0868
622.427	9.48003
624.159	9.9522
625.887	10.8345
627.618	11.3768
629.348	11.0586
631.076	11.3869
632.806	11.9473
634.535	10.2556
636.262	8.70866
637.99	9.9651
639.716	9.3396
641.444	10.4423
643.172	10.3436
644.897	10.0217
646.624	9.8102
648.348	10.9446
650.075	11.1081
651.801	10.026
653.524	8.92048
655.249	8.67946
656.972	8.11488
658.697	6.87022
660.419	5.9261
662.143	5.4972
663.865	4.34699
665.588	4.43096
667.309	3.87768
669.032	2.86899
670.752	3.51333
672.474	2.18549
674.194	2.19958
675.915	1.94549
677.634	1.6688
679.355	0.638069
681.073	2.35802
682.793	3.21154
684.511	4.63063
686.23	4.67059
687.947	4.95403
689.664	5.17524
691.382	6.2753
693.098	7.71412
694.816	7.89226
696.531	8.31469
698.247	9.1174
699.963	9.77338
701.678	10.008
703.392	10.3664
705.108	11.606
706.821	12.6138
708.534	13.3464
710.249	15.3741
711.962	16.3332
713.674	16.3441
715.388	16.8176
717.099	17.1245
718.81	16.1834
720.523	15.8655
722.234	17.7331
723.944	19.806
725.654	18.9751
727.365	20.428
729.075	20.8812
730.784	21.1021
732.492	22.2216
734.202	22.2255
735.91	23.4366
737.618	24.4418
739.325	25.7653
741.034	26.2182
742.741	28.3247
744.447	29.3969
746.153	31.5192
747.859	32.7174
749.564	33.5253
751.271	34.3652
752.976	36.5933
754.681	38.4518
756.385	39.5124
758.088	39.7334
759.792	41.5298
761.495	43.8014
763.2	45.1739
764.902	46.4249
766.604	48.5885
768.306	49.2739
770.008	51.2138
771.709	51.3519
773.41	52.4739
775.11	53.8382
776.811	55.8682
778.51	55.7461
780.21	55.8479
781.909	57.0533
783.608	58.9052
785.307	59.8227
787.005	62.0221
788.703	63.5485
790.401	64.6051
792.098	66.4367
793.795	67.7134
795.492	68.8016
797.188	67.6834
798.884	66.9909
800.58	67.2526
802.276	68.2173
803.971	67.9986
805.665	69.4141
807.36	69.8516
809.054	70.2832
810.748	71.4353
812.441	73.4922
814.135	72.442
815.826	71.6938
817.518	72.0464
819.21	72.9941
820.902	74.0729
822.594	73.2036
824.285	72.4435
825.976	72.4033
827.665	72.6165
829.355	71.4565
831.045	71.013
832.735	70.2086
834.424	69.4815
836.111	69.2207
837.8	70.5452
839.488	69.8892
841.177	69.0204
842.864	69.3087
844.55	68.6607
846.237	68.5236
847.924	67.8313
849.61	67.002
851.295	65.3181
852.98	64.8396
854.666	64.4832
856.349	63.4523
858.034	64.3689
859.719	64.8566
861.403	65.2974
863.085	65.2158
864.769	66.1203
866.452	66.0712
868.133	66.9304
869.816	65.439
871.498	65.5306
873.179	65.2177
874.86	65.4746
876.54	64.1114
878.221	63.1085
879.902	60.6762
881.58	58.8999
883.26	59.0005
884.938	59.0348
886.618	58.8306
888.297	57.7779
889.974	57.5808
891.653	57.0337
893.329	57.42
895.007	56.6785
896.683	55.65
898.36	53.7264
900.035	53.5501
901.712	53.2018
903.387	53.4372
905.063	51.4802
906.737	50.5652
908.412	50.4887
910.085	50.8647
911.76	50.6098
913.433	49.9812
915.107	48.9194
916.779	48.6345
918.452	48.3564
920.124	49.1561
921.797	48.6995
923.467	48.6186
925.138	48.4393
926.81	48.5843
928.48	47.1089
930.151	47.064
931.82	45.4379
933.489	43.7211
935.16	42.4296
936.828	42.6147
938.496	41.9979
940.165	40.7387
941.833	39.961
943.5	38.0172
945.168	38.1975
946.834	36.3088
948.5	34.4628
950.168	34.2207
951.834	34.6107
953.499	34.9483
955.163	34.8198
956.83	32.897
958.494	31.3928
960.158	29.1577
961.821	29.4398
963.487	29.064
965.15	30.766
966.812	31.8058
968.474	32.906
970.138	34.2318
971.8	36.0293
973.461	38.5178
975.123	39.9104
976.783	42.4326
978.446	44.4456
980.106	46.1616
981.766	46.4933
983.425	48.193
985.084	49.3865
986.743	50.5613
988.402	50.9574
990.06	50.7253
991.72	51.6256
993.378	51.9113
995.035	52.6285
996.692	52.5063
998.349	52.7897
1000.01	54.9172
1001.66	54.9382
1003.32	55.4218
1004.97	54.686
1006.63	55.5726
1008.28	55.1662
1009.94	54.3047
1011.59	53.7564
1013.25	53.074
1014.9	53.2963
1016.55	53.3359
1018.21	53.1826
1019.86	53.8058
1021.51	54.0913
1023.16	54.0335
1024.81	54.8157
1026.47	54.9869
1028.12	57.0019
1029.77	56.6293
1031.42	58.5073
1033.07	59.6936
1034.72	58.4631
1036.37	58.594
1038.02	56.9442
1039.67	56.1354
1041.31	57.8703
1042.96	58.5865
1044.61	60.3075
1046.26	61.6534
1047.91	62.8005
1049.55	63.3785
1051.2	64.8047
1052.84	65.0481
1054.49	64.9617
1056.14	65.1389
1057.78	64.8242
1059.43	65.1873
1061.07	64.4998
1062.72	64.1117
1064.36	63.4818
1066	63.3425
1067.65	62.6742
1069.29	61.7715
1070.93	61.5417
1072.58	60.7068
1074.22	61.3944
1075.86	60.3016
1077.5	60.2292
1079.14	58.8383
1080.78	58.8128
1082.42	58.4654
1084.06	57.6917
1085.7	58.3525
1087.34	57.9054
1088.98	57.6723
1090.62	57.608
1092.26	57.7949
1093.9	58.6464
1095.54	57.8083
1097.17	58.4142
1098.81	57.2149
1100.45	56.5945
1102.09	57.1541
1103.72	56.1686
1105.36	55.554
1106.99	55.0219
1108.63	53.7418
1110.27	52.5183
1111.9	50.9472
1113.53	49.6768
1115.17	47.2039
1116.8	45.4499
1118.43	43.6021
1120.07	42.4338
1121.7	42.828
1123.33	41.6842
1124.97	40.1451
1126.6	39.8809
1128.23	38.5104
1129.86	36.4611
1131.49	35.1671
1133.12	33.9949
1134.75	32.6936
1136.38	33.0376
1138.01	32.552
1139.64	32.2849
1141.27	31.7814
1142.9	31.7789
1144.53	30.9416
1146.16	29.3262
1147.78	28.4959
1149.41	28.0597
1151.04	27.0812
1152.67	25.5373
1154.29	23.721
1155.92	22.5486
1157.54	20.1924
1159.17	19.9828
1160.8	19.0046
1162.42	18.518
1164.05	17.8642
1165.67	16.5018
1167.29	14.5984
1168.92	12.4899
1170.54	11.9837
1172.16	11.6588
1173.79	11.1894
1175.41	10.5545
1177.03	10.7366
1178.65	10.8027
1180.28	8.57571
1181.9	8.38205
1183.52	7.29191
1185.14	5.93334
1186.76	5.3125
1188.38	4.63558
1190	5.16606
1191.62	6.0596
1193.24	5.54032
1194.86	4.58302
1196.47	4.85952
1198.09	5.80351
1199.71	7.0735
1201.33	9.11247
1202.95	9.99918
1204.56	10.3344
1206.18	12.1079
1207.8	13.9218
1209.41	14.307
1211.03	16.0187
1212.64	18.2527
1214.26	21.7963
1215.87	24.6546
1217.49	26.9702
1219.1	28.2738
1220.71	31.3326
1222.33	33.6311
1223.94	35.6826
1225.55	37.169
1227.16	39.9027
1228.78	42.1297
1230.39	44.8991
1232	47.0621
1233.61	48.8068
1235.22	51.5199
1236.83	55.1368
1238.44	58.0908
1240.05	62.1686
1241.66	64.7344
1243.27	66.3616
1244.88	68.5729
1246.49	70.2168
1248.1	72.6561
1249.71	75.3201
1251.32	78.8358
1252.92	80.6948
1254.53	82.3167
1256.14	84.1991
1257.74	85.6902
1259.35	86.6836
1260.96	87.9753
1262.56	91.2641
1264.17	93.4972
1265.77	97.9609
1267.38	101.407
1268.98	104.587
1270.59	107.702
1272.19	109.849
1273.79	111.64
1275.4	114.808
1277	119.384
1278.6	123.378
1280.21	127.882
1281.81	130.718
1283.41	134.308
1285.01	137.467
1286.61	140.23
1288.21	142.367
1289.81	143.586
1291.41	145.563
1293.01	147.002
1294.61	149.212
1296.21	149.087
1297.81	150.897
1299.41	151.416
1301.01	152.557
1302.6	152.839
1304.2	152.887
1305.8	152.435
1307.4	152.764
1308.99	152.577
1310.59	153.661
1312.19	152.995
1313.78	151.456
1315.38	151.332
1316.97	150.25
1318.57	148.565
1320.16	147.434
1321.76	144.179
1323.35	141.178
1324.94	138.708
1326.54	135.576
1328.13	132.974
1329.72	131.009
1331.32	128.834
1332.91	125.481
1334.5	122.809
1336.09	120.524
1337.68	119.188
1339.27	118.528
1340.87	117.035
1342.45	115.576
1344.04	113.764
1345.64	112.334
1347.22	109.932
1348.81	107.914
1350.4	106.782
1351.99	105.699
1353.58	104.246
1355.17	103.801
1356.75	103.885
1358.34	102.857
1359.93	100.979
1361.51	98.9081
1363.1	96.8273
1364.69	94.1238
1366.27	92.9501
1367.86	91.3904
1369.44	89.7791
1371.03	89.7431
1372.61	89.4124
1374.2	88.3322
1375.78	87.4137
1377.37	88.0335
1378.95	85.8645
1380.53	85.217
1382.11	84.9397
1383.7	83.6073
1385.28	83.8889
1386.86	85.1879
1388.44	85.178
1390.02	85.1024
1391.6	83.4456
1393.19	82.4503
1394.77	82.629
1396.35	82.5321
1397.93	82.8801
1399.51	84.7015
1401.08	85.9275
1402.66	88.8745
1404.24	91.6504
1405.82	96.327
1407.4	102.3
1408.97	107.549
1410.55	112.217
1412.13	116.194
1413.71	121.582
1415.28	127.97
1416.86	135.327
1418.43	142.533
1420.01	148.662
1421.59	155.7
1423.16	162.756
1424.73	170.311
1426.31	178.627
1427.88	184.842
1429.46	192.806
1431.03	199.835
1432.6	206.627
1434.18	214.087
1435.75	220
1437.32	225.276
1438.89	229.406
1440.46	233.756
1442.04	237.261
1443.61	239.776
1445.18	242.347
1446.75	242.38
1448.32	242.308
1449.89	241.388
1451.46	238.498
1453.03	235.249
1454.6	231.347
1456.16	227.925
1457.73	221.899
1459.3	215.867
1460.87	209.569
1462.44	202.461
1464	195.219
1465.57	185.884
1467.14	176.222
1468.7	166.425
1470.27	156.487
1471.83	147.829
1473.4	139.694
1474.96	131.766
1476.53	123.006
1478.09	115.241
1479.66	106.958
1481.22	99.3072
1482.78	92.3201
1484.35	87.0306
1485.91	81.5975
1487.47	74.5979
1489.04	68.0612
1490.6	61.91
1492.16	58.3726
1493.72	54.5554
1495.28	50.7121
1496.84	47.5067
1498.4	43.766
1499.96	40.8777
1501.52	38.5761
1503.08	37.1831
1504.64	35.2275
1506.2	32.526
1507.76	32.2111
1509.32	31.2562
1510.88	30.1351
1512.44	29.1638
1513.99	27.2022
1515.55	25.9809
1517.11	25.1568
1518.66	25.1796
1520.22	24.4963
1521.78	23.2145
1523.33	22.8634
1524.89	22.6917
1526.44	23.9837
1528	24.4071
1529.55	24.7763
1531.11	25.8361
1532.66	26.1638
1534.21	27.2657
1535.77	27.2151
1537.32	28.6425
1538.87	30.5305
1540.43	31.4237
1541.98	32.4555
1543.53	33.1839
1545.08	35.661
1546.63	37.1269
1548.18	38.9674
1549.74	41.5179
1551.29	41.685
1552.84	43.4675
1554.39	45.1805
1555.94	47.2625
1557.48	49.4199
1559.03	52.1664
1560.58	53.6838
1562.13	55.6766
1563.68	56.9332
1565.23	57.4581
1566.78	59.6122
1568.32	60.8035
1569.87	63.4231
1571.42	65.2918
1572.96	67.1678
1574.51	69.221
1576.05	70.9855
1577.6	72.7048
1579.14	74.7495
1580.69	75.7228
1582.24	76.7113
1583.78	77.9996
1585.32	79.0245
1586.87	80.3686
1588.41	80.8781
1589.95	81.2897
1591.5	82.8585
1593.04	84.7016
1594.58	85.5985
1596.12	86.0882
1597.67	86.7349
1599.21	87.7088
1600.75	88.2022
1602.29	88.4356
1603.83	88.9802
1605.37	89.1613
1606.91	89.1132
1608.45	89.737
1609.99	89.5748
1611.53	89.934
1613.07	89.7061
1614.6	89.0483
1616.14	88.9644
1617.68	89.3067
1619.22	90.0554
1620.75	90.6546
1622.29	92.2868
1623.83	92.2653
1625.37	93.6269
1626.9	94.1572
1628.44	95.3624
1629.97	98.9503
1631.51	99.529
1633.04	100.946
1634.58	102.512
1636.11	105.307
1637.65	106.851
1639.18	109.727
1640.72	112.532
1642.25	114.626
1643.78	116.298
1645.31	116.966
1646.85	118.968
1648.38	120.243
1649.91	121.377
1651.44	121.757
1652.97	122.313
1654.5	123.086
1656.03	123.472
1657.56	123.829
1659.1	123.516
1660.62	122.648
1662.15	121.975
1663.68	121.065
1665.21	119.347
1666.74	116.431
1668.27	115.401
1669.8	112.505
1671.32	109.796
1672.85	106.683
1674.38	103.394
1675.91	100.162
1677.43	95.6977
1678.96	91.1048
1680.49	88.5529
1682.01	85.5258
1683.54	81.3361
1685.06	77.2869
1686.59	72.3752
1688.11	67.5491
1689.64	63.1464
1691.16	60.3958
1692.68	58.7638
1694.21	56.2085
1695.73	53.906
1697.25	51.5244
1698.78	49.3287
1700.3	47.7142
1701.82	46.8705
1703.34	45.4154
1704.86	45.1358
1706.39	43.7583
1707.91	42.2113
1709.43	41.945
1710.95	41.3445
1712.47	41.5467
1713.99	40.6232
1715.51	40.6776
1717.02	40.5021
1718.54	39.8534
1720.06	39.203
1721.58	38.7609
1723.1	38.8726
1724.62	39.2125
1726.13	38.5755
1727.65	38.4673
1729.17	38.4017
1730.68	38.2621
1732.2	36.298
1733.72	35.4311
1735.23	34.0725
1736.75	32.293
1738.26	30.9138
1739.78	28.9872
1741.29	28.1167
1742.81	27.1384
1744.32	27.2104
1745.84	25.6447
1747.35	24.0113
1748.86	22.481
1750.37	20.8912
1751.89	19.64
1753.4	17.9198
1754.91	16.6074
1756.42	16.1836
1757.93	14.7417
1759.45	13.5885
1760.96	12.1876
1762.47	11.0469
1763.98	9.97937
1765.49	9.53044
1767	8.87448
1768.51	7.5409
1770.02	6.68512
1771.53	6.38096
1773.03	5.19899
1774.54	4.44193
1776.05	3.81296
1777.56	2.97457
1779.07	2.39534
1780.57	1.97953
1782.08	1.39757
1783.59	1.58972
1785.09	1.55473
1786.6	2.10383
1788.11	1.91562
1789.61	1.77041
1791.12	2.02104
1792.62	2.14346
1794.13	1.89544
1795.63	1.35694
1797.13	1.22748
1798.64	1.40034
1800.14	1.0608
1801.65	0.586835
1803.15	0.826184
1804.65	0.356456
1806.15	-0.0737294
1807.66	-1.02258
1809.16	-0.517876
1810.66	-1.06859
1812.16	-1.44857
1813.66	-0.0740993
1815.16	0.925262
1816.66	1.47337
1818.16	1.10562
1819.66	0.824112
1821.16	0.479439
1822.66	0.684342
1824.16	1.25701
1825.66	1.68933
1827.16	2.74167
1828.66	3.68419
1830.16	4.42323
1831.65	5.02884
1833.15	5.62093
1834.65	5.89375
1836.14	5.43245
1837.64	6.14287
1839.14	5.9403
1840.63	5.79822
1842.13	6.61415
1843.62	6.52928
1845.12	7.54662
1846.61	8.1149
1848.11	8.09389
1849.6	8.26563
1851.1	8.40569
1852.59	8.88435
1854.08	9.0763
1855.58	8.86295
1857.07	9.07331
1858.56	9.79999
1860.05	9.99072
1861.55	10.4528
1863.04	10.5082
1864.53	10.8838
1866.02	11.5373
1867.51	11.7088
1869	11.7991
1870.49	11.4869
1871.98	11.0099
1873.47	10.3659
1874.96	9.46862
1876.45	8.85485
1877.94	8.97375
1879.43	9.05062
1880.92	8.3754
1882.41	8.04868
1882.51	7.7326
1884	7.6761
1885.5	7.75781
1886.99	8.54574
1888.48	8.14004
1889.98	7.36186
1891.47	7.12635
1892.96	7.07559
1894.46	6.94633
1895.95	7.13421
1897.44	7.19759
1898.93	7.19093
1900.42	6.53887
1901.91	6.37783
1903.41	6.0469
1904.9	5.49704
1906.39	5.72783
1907.88	6.36652
1909.37	5.75558
1910.86	5.28049
1912.35	5.20874
1913.83	5.14497
1915.32	5.82738
1916.81	5.6523
1918.3	6.22233
1919.79	5.90862
1921.27	5.55302
1922.76	5.24456
1924.25	5.46713
1925.74	5.65886
1927.22	5.87921
1928.71	5.57163
1930.19	5.48031
1931.68	5.39436
1933.17	5.51707
1934.65	4.70337
1936.14	4.48565
1937.62	3.8183
1939.11	3.79775
1940.59	3.20353
1942.07	2.97061
1943.56	2.96774
1945.04	2.69153
1946.52	2.92153
1948.01	2.7574
1949.49	2.93961
1950.97	3.67518
1952.45	3.19582
1953.93	2.41397
1955.42	2.20274
1956.9	1.81768
1958.38	2.39127
1959.86	2.24197
1961.34	2.80125
1962.82	2.21535
1964.3	2.20573
1965.78	2.087
1967.26	1.9239
1968.74	2.25966
1970.21	1.80865
1971.69	1.72422
1973.17	1.70876
1974.65	2.50275
1976.13	2.90671
1977.6	2.90919
1979.08	3.12961
1980.56	3.39205
1982.03	4.32806
1983.51	4.29333
1984.99	5.27548
1986.46	7.1073
1987.94	7.48853
1989.41	7.81178
1990.89	7.93227
1992.36	8.97532
1993.84	8.76439
1995.31	8.7811
1996.78	8.50743
1998.26	8.45327
1999.73	7.697
2001.2	7.47588
2002.68	6.95819
2004.15	6.80522
2005.62	6.92081
2007.09	7.41582
2008.56	7.68383
2010.04	7.72234
2011.51	8.20853
2012.98	8.1403
2014.45	7.32616
2015.92	7.40328
2017.39	7.47882
2018.86	6.32437
2020.33	6.12301
2021.8	5.49655
2023.26	5.32341
2024.73	5.05165
2026.2	4.34044
2027.67	4.48578
2029.14	4.11658
2030.61	4.23404
2032.07	5.00083
2033.54	4.78581
2035.01	4.89539
2036.47	5.031
2037.94	5.44282
2039.4	5.13793
2040.87	5.18071
2042.33	5.71975
2043.8	5.41597
2045.27	6.00349
2046.73	6.25525
2048.19	7.27396
2049.66	6.56237
2051.12	7.62901
2052.59	8.37343
2054.05	8.97914
2055.51	10.812
2056.97	11.1149
2058.44	11.2514
2059.9	12.2027
2061.36	11.747
2062.82	11.6917
2064.28	11.867
2065.74	11.6193
2067.21	10.6743
2068.67	10.3192
2070.13	10.4003
2071.59	10.8337
2073.05	11.0357
2074.51	11.4724
2075.96	12.5359
2077.42	12.8918
2078.88	13.5502
2080.34	14.3289
2081.8	14.7336
2083.26	14.7265
2084.72	15.2394
2086.17	14.2921
2087.63	14.8377
2089.09	15.7704
2090.54	15.3605
2092	15.9521
2093.45	16.8468
2094.91	16.6954
2096.37	16.2872
2097.82	16.4301
2099.28	16.4083
2100.73	17.0691
2102.19	17.8063
2103.64	19.3052
2105.09	19.6883
2106.55	19.6034
2108	20.7056
2109.45	22.2144
2110.91	21.9945
2112.36	22.9427
2113.81	24.4486
2115.26	26.0519
2116.72	26.7486
2118.17	27.5353
2119.62	28.5526
2121.07	29.7424
2122.52	30.8432
2123.97	32.0426
2125.42	32.9466
2126.87	33.9787
2128.32	35.3049
2129.77	35.2371
2131.22	36.4115
2132.67	37.9237
2134.11	38.271
2135.56	39.3684
2137.01	40.078
2138.46	41.1941
2139.91	43.0442
2141.35	44.5954
2142.8	46.9442
2144.25	49.0995
2145.7	51.2655
2147.14	53.1766
2148.59	55.2837
2150.03	56.2097
2151.48	58.3981
2152.92	60.6581
2154.37	62.0815
2155.81	63.4065
2157.26	63.8961
2158.7	65.2272
2160.15	66.3247
2161.59	67.1949
2163.03	68.6615
2164.47	70.0779
2165.92	70.0425
2167.36	70.2125
2168.8	71.1288
2170.24	72.5942
2171.69	73.4876
2173.13	74.464
2174.57	75.191
2176.01	75.2082
2177.45	74.6116
2178.89	74.7795
2180.33	74.6217
2181.77	74.7453
2183.21	73.9659
2184.65	73.7262
2186.09	72.6906
2187.53	71.2179
2188.97	70.241
2190.4	69.158
2191.84	67.6605
2193.28	66.7335
2194.72	65.0925
2196.16	62.9699
2197.59	61.2372
2199.03	59.5621
2200.47	57.6704
2201.9	55.8916
2203.34	54.6373
2204.77	52.7677
2206.21	50.8523
2207.64	49.4089
2209.08	47.7536
2210.51	46.5619
2211.95	45.2724
2213.38	44.0793
2214.82	42.2716
2216.25	40.4698
2217.68	38.0787
2219.12	36.5056
2220.55	35.0333
2221.98	33.091
2223.41	32.5948
2224.85	31.2729
2226.28	29.1357
2227.71	28.1464
2229.14	26.5194
2230.57	26.2929
2232	24.8638
2233.43	24.3929
2234.86	23.7205
2236.29	21.9965
2237.72	21.5961
2239.15	21.3387
2240.58	21.342
2242.01	20.8805
2243.44	20.4774
2244.87	20.0877
2246.29	19.8392
2247.72	19.3424
2249.15	19.2792
2250.58	19.7084
2252.01	19.0089
2253.43	19.4159
2254.86	19.6081
2256.29	19.3489
2257.71	19.4361
2259.14	19.2574
2260.56	20.1218
2261.99	19.09
2263.41	18.6807
2264.84	18.8586
2266.26	17.8797
2267.69	17.3925
2269.11	17.2346
2270.53	17.316
2271.96	16.9449
2273.38	16.6005
2274.8	16.2712
2276.23	16.0329
2277.65	15.4864
2279.07	14.8077
2280.49	14.0855
2281.91	13.31
2283.34	12.6481
2284.76	11.5997
2286.18	11.073
2287.6	10.5659
2289.02	9.86212
2290.44	9.6913
2291.86	8.73254
2293.28	8.16831
2294.7	8.07026
2296.12	7.86322
2297.54	7.56824
2298.96	8.01007
2300.37	8.62331
2301.79	9.33067
2303.21	9.32913
2304.63	9.61793
2306.04	9.97805
2307.46	10.3323
2308.88	11.4234
2310.3	11.2858
2311.71	11.6601
2313.13	11.2587
2314.54	11.5333
2315.96	12.0013
2317.37	12.0203
2318.79	12.3555
2320.2	12.4315
2321.62	12.4486
2323.03	11.1874
2324.45	11.3751
2325.86	11.5946
2327.27	10.7316
2328.69	9.71912
2330.1	9.03538
2331.51	9.36708
2332.92	8.34729
2334.34	8.66877
2335.75	8.84763
2337.16	8.43708
2338.57	8.19158
2339.98	8.34249
2341.39	8.04065
2342.8	6.60105
2344.21	5.60834
2345.63	5.44736
2347.04	4.58173
2348.45	4.25604
2349.85	3.29266
2351.26	2.59308
2352.67	1.78537
2354.08	1.45589
2355.49	0.713089
2356.9	1.10301
2358.3	0.989873
2359.71	0.645458
2361.12	0.454654
2362.53	1.06673
2363.93	1.34422
2365.34	2.14388
2366.75	2.38176
2368.15	2.61636
2369.56	3.34791
2370.97	3.95563
2372.37	3.59494
2373.77	3.22016
2375.18	3.21987
2376.59	3.83024
2377.99	3.54376
2379.39	3.78666
2380.8	3.26525
2382.2	2.96254
2383.6	2.51935
2385.01	2.73493
2386.41	2.46168
2387.81	1.70514
2389.21	1.82885
2390.62	0.499546
2392.02	0.491573
2393.42	1.05648
2394.82	1.37262
2396.22	1.7487
2397.62	1.78219
2399.02	1.45326
2400.42	1.74528
2401.82	2.95218
2403.22	3.2916
2404.62	3.66751
2406.02	2.93651
2407.42	2.80876
2408.82	3.01798
2410.22	3.5637
2411.62	3.08663
2413.01	2.29955
2414.41	3.14134
2415.81	3.2805
2417.21	3.23296
2418.6	3.06398
2420	2.13784
2421.4	2.03686
2422.79	2.33323
2424.19	3.16674
2425.59	3.88879
2426.98	4.95278
2428.38	5.8486
2429.77	4.89552
2431.17	4.95285
2432.56	5.77124
2433.95	5.79883
2435.35	6.20855
2436.74	5.58048
2438.14	6.38786
2439.53	6.19807
2440.92	5.90439
2442.31	5.39316
2443.71	5.58664
2445.1	6.12752
2446.49	5.97424
2447.88	5.29648
2449.27	5.34007
2450.67	4.4786
2452.06	3.45416
2453.45	2.96105
2454.84	3.08569
2456.23	2.37016
2457.62	2.39389
2459.01	2.6968
2460.4	2.73014
2461.79	2.92059
2463.18	3.16505
2464.57	2.16353
2465.95	2.24233
2467.34	2.11247
2468.73	1.42923
2470.12	1.39327
2471.5	1.57645
2472.89	0.970808
2474.28	0.691232
2475.67	-0.131401
2477.05	0.240386
2478.44	0.300348
2479.82	0.0414855
2481.21	-0.667703
2482.6	-0.224775
2483.98	0.282471
2485.37	-0.115725
2486.75	0.119946
2488.13	-0.399934
2489.52	-0.427829
2490.9	0.547568
2492.29	1.10399
2493.67	1.29874
2495.05	1.1419
2496.44	0.511887
2497.82	-0.0607489
2499.2	-1.01436
2500.58	-0.573054
2501.97	0.112674
2503.35	0.317009
2504.73	0.465616
2506.11	-0.382293
2507.49	0.29846
2508.87	0.393373
2510.25	0.866957
2511.63	1.39397
2513.01	1.93694
2514.39	2.05928
2515.77	2.17259
2517.15	2.27476
2518.53	2.94596
2519.91	2.98439
2521.29	2.87173
2522.67	3.04189
2524.05	3.29781
2525.42	3.11242
2526.8	3.58217
2528.18	3.80074
2529.55	3.64833
2530.93	2.97657
2532.31	3.42466
2533.69	3.23189
2535.06	3.41082
2536.44	4.50395
2537.81	4.70572
2539.19	5.06604
2540.56	5.41662
2541.94	5.64479
2543.31	5.29225
2544.69	4.69744
2546.06	5.6222
2547.44	5.57285
2548.81	5.88807
2550.18	6.1588
2551.56	6.3476
2552.93	6.32662
2554.3	5.76659
2555.67	5.92619
2557.04	5.07099
2558.42	5.02611
2559.79	4.52715
2561.16	4.05823
2562.53	3.21746
2563.9	2.66956
2565.27	3.41554
2566.64	3.54163
2568.01	3.42587
2569.38	3.60883
2570.75	3.85489
2572.12	4.00283
2573.49	3.60696
2574.86	3.69538
2576.23	4.76436
2577.6	5.53535
2578.97	5.25582
2580.33	6.52203
2581.7	7.3767
2583.07	7.75964
2584.44	7.85874
2585.8	8.74892
2587.17	9.04598
2588.54	8.53928
2589.9	8.13995
2591.27	7.9421
2592.64	7.85826
2594	7.62045
2595.37	7.81508
2596.73	8.10281
2598.1	7.8493
2599.46	7.6286
2600.83	7.50919
2602.19	7.18499
2603.55	7.5544
2604.92	8.15047
2606.28	7.9359
2607.64	7.1671
2609.01	7.22752
2610.37	7.47511
2611.73	7.12452
2613.09	7.45336
2614.46	7.73749
2615.82	7.27192
2617.18	8.21738
2618.54	8.08104
2619.9	8.05897
2621.26	8.0777
2622.62	7.89953
2623.98	7.36507
2625.34	7.18052
2626.7	7.50328
2628.06	7.70218
2629.42	8.4505
2630.78	8.47528
2632.14	8.82904
2633.5	9.49489
2634.86	8.58045
2636.21	8.95012
2637.57	9.83014
2638.93	10.6509
2640.29	11.4366
2641.64	11.8108
2643	12.8917
2644.36	13.505
2645.71	13.7935
2647.07	14.1217
2648.43	14.9474
2649.78	14.4534
2651.14	13.8082
2652.49	13.2329
2653.85	13.5091
2655.2	12.5885
2656.56	11.6264
2657.91	10.7198
2659.26	9.91524
2660.62	9.23559
2661.97	8.63684
2663.32	8.02
2664.68	8.08911
2666.03	7.704
2667.38	7.27433
2668.74	7.16569
2670.09	7.28289
2671.44	8.58181
2672.79	8.96004
2674.14	9.07864
2675.49	8.87946
2676.84	9.41591
2678.19	9.48796
2679.54	9.2508
2680.89	9.57801
2682.24	10.1182
2683.59	10.0235
2684.94	10.2541
2686.29	10.2809
2687.64	10.6173
2688.99	11.1563
2690.34	11.3726
2691.69	11.9076
2693.03	13.0668
2694.38	13.4288
2695.73	14.0791
2697.08	14.4528
2698.42	14.8513
2699.77	16.1638
2701.12	17.0823
2702.46	18.0343
2703.81	19.3605
2705.15	20.2821
2706.5	21.0184
2707.85	21.2873
2709.19	21.4712
2710.54	22.6647
2711.88	22.8082
2713.22	22.7068
2714.57	23.8718
2715.91	23.8113
2717.26	23.5675
2718.6	23.6906
2719.94	23.2617
2721.29	23.5624
2722.63	23.3773
2723.97	22.5258
2725.31	23.0728
2726.66	23.1901
2728	23.5741
2729.34	23.1789
2730.68	23.7829
2732.02	24.3267
2733.36	23.615
2734.7	23.4299
2736.04	22.7296
2737.38	23.0394
2738.72	23.0459
2740.06	22.1215
2741.4	21.4876
2742.74	20.1902
2744.08	19.4053
2745.42	18.5442
2746.76	17.7884
2748.09	17.0244
2749.43	16.0809
2750.77	15.1176
2752.11	14.6867
2753.45	14.5553
2754.78	14.0752
2756.12	12.8096
2757.46	11.2871
2758.79	10.9285
2760.13	9.81242
2761.46	8.55725
2762.8	8.11652
2764.14	7.73785
2765.47	7.43586
2766.8	7.58973
2768.14	6.7897
2769.47	6.18771
2770.81	5.50474
2772.14	5.17023
2773.48	3.94594
2774.81	2.79137
2776.14	2.46965
2777.48	2.34021
2778.81	1.47567
2780.14	1.75245
2781.47	2.05928
2782.8	0.951136
2784.14	0.456288
2785.47	0.641051
2786.8	-0.142291
2788.13	-0.098189
2789.46	-0.335646
2790.79	-0.320331
2792.12	0.102426
2793.45	-0.522098
2794.78	0.132589
2796.11	0.0236816
2797.44	0.809673
2798.77	1.09224
2800.1	1.27718
2801.43	2.04888
2802.76	2.21173
2804.09	3.01079
2805.41	2.70171
2806.74	2.82191
2808.07	2.54313
2809.4	2.53069
2810.72	2.5775
2812.05	2.97009
2813.38	3.30483
2814.71	4.12728
2816.03	5.66319
2817.36	7.93266
2818.68	11.8731
2820.01	15.7346
2821.33	20.9435
2822.66	27.0426
2823.98	33.3589
2825.31	41.657
2826.63	49.7629
2827.96	58.3026
2829.28	67.8649
2830.6	77.3029
2831.93	88.234
2833.25	98.7712
2834.57	110.072
2835.9	120.52
2837.22	132.78
2838.54	144.734
2839.86	156.8
2841.18	169.419
2842.5	182.516
2843.83	196.648
2845.15	209.725
2846.47	222.624
2847.79	235.363
2849.11	247.958
2850.43	261.441
2851.75	274.374
2853.07	287.515
2854.39	301.156
2855.71	313.009
2857.03	324.971
2858.35	336.975
2859.66	349.107
2860.98	360.062
2862.3	370.335
2863.62	379.521
2864.94	388.554
2866.25	396.172
2867.57	403.367
2868.89	409.649
2870.2	414.974
2871.52	419.963
2872.84	425.393
2874.15	429.912
2875.47	434.409
2876.78	438.015
2878.1	442.577
2879.41	446.636
2880.73	451.3
2882.04	457.168
2883.36	462.137
2884.67	468.054
2885.99	472.747
2887.3	479.621
2888.61	484.402
2889.93	488.321
2891.24	493.841
2892.55	499.11
2893.86	503.807
2895.18	508.536
2896.49	513.03
2897.8	518.797
2899.11	524.606
2900.42	530.537
2901.73	535.83
2903.05	543.02
2904.36	549.644
2905.67	556.883
2906.98	563.48
2908.29	571.824
2909.6	580.806
2910.91	587.106
2912.21	596.562
2913.52	605.138
2914.83	612.836
2916.14	621.11
2917.45	628.233
2918.76	635.089
2920.07	639.99
2921.37	644.438
2922.68	648.842
2923.99	652.054
2925.29	653.773
2926.6	654.55
2927.91	655.411
2929.22	653.374
2930.52	651.583
2931.83	648.094
2933.13	644.843
2934.44	641.268
2935.74	636.581
2937.05	631.2
2938.35	624.628
2939.66	615.955
2940.96	606.606
2942.26	596.639
2943.57	586.901
2944.87	576.6
2946.18	565.613
2947.48	554.04
2948.78	541.127
2950.08	529.698
2951.39	517.766
2952.69	504.364
2953.99	489.698
2955.29	475.782
2956.59	463.052
2957.9	449.604
2959.2	435.222
2960.5	422.152
2961.8	409.652
2963.1	396.856
2964.4	384.293
2965.7	371.046
2967	359.551
2968.3	348.48
2969.6	337.498
2970.9	327.198
2972.19	316.535
2973.49	306.966
2974.79	296.831
2976.09	285.955
2977.39	276.78
2978.68	265.414
2979.98	254.904
2981.28	244.566
2982.58	234.017
2983.87	223.606
2985.17	213.212
2986.47	203.554
2987.76	192.639
2989.06	182.975
2990.35	173.554
2991.65	164.23
2992.94	154.533
2994.24	144.799
2995.53	136.595
2996.83	128.163
2998.12	120.907
2999.42	112.517
3000.71	104.451
3002	96.2301
3003.3	88.1112
3004.59	80.6812
3005.88	74.2796
3007.18	68.5876
3008.47	63.1491
3009.76	57.7618
3011.05	52.2657
3012.34	47.8735
3013.64	44.3548
3014.93	41.0928
3016.22	37.8046
3017.51	33.2313
3018.8	30.7551
3020.09	28.103
3021.38	25.3846
3022.67	22.0328
3023.96	19.3759
3025.25	17.4354
3026.54	14.6369
3027.83	12.1205
3029.12	11.3361
3030.41	10.3536
3031.69	10.21
3032.98	9.1577
3034.27	7.99446
3035.56	7.94457
3036.84	7.32439
3038.13	7.02912
3039.42	6.91238
3040.71	7.07338
3041.99	6.85722
3043.28	7.26074
3044.57	7.9111
3045.85	8.70115
3047.14	9.70274
3048.42	10.3754
3049.71	11.5532
3050.99	12.0458
3052.28	12.034
3053.56	12.4408
3054.85	11.7132
3056.13	11.567
3057.41	11.7034
3058.7	12.0913
3059.98	11.4957
3061.26	11.0792
3062.55	11.3449
3063.83	10.6965
3065.11	11.258
3066.39	10.6533
3067.68	9.97918
3068.96	9.60906
3070.24	9.51731
3071.52	9.52018
3072.8	9.02904
3074.08	8.82343
3075.36	9.06408
3076.65	9.21833
3077.93	8.82238
3079.21	7.56306
3080.49	6.67192
3081.77	5.64282
3083.04	5.00528
3084.32	4.187
3085.6	3.06691
3086.88	2.71624
3088.16	2.17268
3089.44	2.0409
3090.72	1.38422
3091.99	1.43782
3093.27	1.48254
3094.55	1.10053
3095.83	1.01155
3097.1	0.638367
3098.38	1.03476
3099.66	2.37336
3100.93	2.92145
3102.21	3.2817
3103.49	4.2308
3104.76	5.51314
3106.04	6.26171
3107.31	7.93091
3108.59	9.13701
3109.86	10.4443
3111.14	11.383
3112.41	12.6093
3113.69	13.7146
3114.96	14.1995
3116.23	14.7249
3117.51	15.4185
3118.78	16.3835
3120.05	18.0132
3121.33	19.4969
3122.6	20.6575
3123.87	21.6086
3125.14	23.204
3126.41	24.7321
3127.69	25.7217
3128.96	27.0471
3130.23	27.4793
3131.5	28.4448
3132.77	30.1056
3134.04	31.5793
3135.31	32.8686
3136.58	33.945
3137.85	35.3746
3139.12	36.5623
3140.39	37.258
3141.66	38.1554
3142.93	39.0811
3144.2	40.2184
3145.47	41.0535
3146.74	42.2231
3148	42.9664
3149.27	45.2682
