#Acq. time (s)=	45
#Accumulations=	2
#Range (cm-¹)=	200...3150
#Windows=	2
#Auto scanning=	Off
#Autofocus=	Off
#Macrospot=	Off
#AutoExposure=	Off
#Spike filter=	Multiple accum.
#Delay time (s)=	0
#Binning=	1
#Readout mode=	Signal
#DeNoise=	Off
#ICS correction=	On
#Dark correction=	Off
#Inst. Process=	Off
#Detector Gain=	Best Dynamic Range
#Detector ADC=	20 kHz       
#Detector temperature (°C)=	-69.85
#Instrument=	LabRAM HR Evol
#Detector=	Synapse
#Objective=	x100
#Grating=	600 gr/mm
#ND Filter=	100%
#Laser (nm)=	532 
#Hole=	100.021
#Range=	Auto
#Laser Pol.=	No
#Raman. Pol.=	No
#Laser Pol. (°)=	-0.0007625
#Raman Pol. (°)=	89.9995
#Collection=	Microscope
#StageXY=	Marzhauser
#StageZ=	Marzhauser
#X (µm)=	-6965.7
#Y (µm)=	2053.4
#Z (µm)=	-74.3
#Full time(mm:ss)=	3:05
#Project=	
#Sample=	
#Site=	
#Title=	Mb_20_23_23_2x_45s_532 nm_x100_100%_600 gr_mm
#Remark=	
#Date=	13.07.2022 14:58
#Acquired=	13.07.2022 14:58:38
#Base:Fit=	10.08.2022 10:29:37
#Edit:Spike=	10.08.2022 10:33:16
#Base:Sub=	10.08.2022 10:33:46
#Filter:Polynom=	16.08.2022 10:13:29
#AxisType[0]=Intens
#AxisUnit[0]=Cnt
#AxisType[1]=Spectr
#AxisUnit[1]=1/cm
200.563	37.9929
202.377	35.5157
204.194	33.2222
206.008	30.072
207.821	27.5721
209.634	24.5228
211.449	21.4138
213.262	19.1073
215.074	17.886
216.885	16.3453
218.699	15.0039
220.51	12.4864
222.321	11.4909
224.131	10.6858
225.941	9.9945
227.751	8.83912
229.562	8.43991
231.371	7.40388
233.18	8.11697
234.988	7.83253
236.796	7.6624
238.603	7.46919
240.411	7.90135
242.219	6.55935
244.026	5.87827
245.832	5.20644
247.638	5.04584
249.443	5.42103
251.248	5.94855
253.053	6.73636
254.857	5.28812
256.661	6.40896
258.465	7.63205
260.268	8.32118
262.071	9.38931
263.874	10.1499
265.678	9.78861
267.48	9.25481
269.282	9.57503
271.083	9.74628
272.884	9.98079
274.684	9.52932
276.484	7.87923
278.284	8.12795
280.084	6.92683
281.883	7.35763
283.682	7.33638
285.48	5.52766
287.276	5.43585
289.074	5.01935
290.871	4.53304
292.668	4.60082
294.465	4.16701
296.261	4.51608
298.057	3.521
299.853	4.71516
301.648	5.35501
303.443	6.47041
305.237	7.16444
307.032	7.23357
308.823	8.05971
310.617	8.1134
312.41	8.62663
314.203	9.0695
315.995	9.5697
317.788	9.27699
319.579	10.5876
321.369	10.8771
323.16	10.5194
324.951	10.3043
326.741	10.7053
328.531	10.7359
330.321	10.7773
332.108	10.2859
333.897	10.8408
335.686	11.3782
337.474	12.5723
339.26	11.8831
341.048	12.392
342.835	13.1865
344.622	13.1576
346.406	12.6497
348.192	12.0677
349.978	11.4701
351.764	11.0027
353.547	10.0852
355.332	8.83369
357.116	9.12989
358.901	9.73735
360.682	8.71689
362.466	7.39128
364.249	6.57794
366.03	6.18905
367.812	5.10385
369.594	4.04004
371.374	4.76109
373.155	3.0796
374.936	3.03342
376.715	3.91492
378.495	4.21555
380.273	3.83841
382.053	3.23723
383.832	3.18619
385.609	3.10796
387.388	4.24482
389.164	5.71018
390.942	5.55684
392.72	6.04433
394.495	5.4682
396.272	4.95436
398.047	5.52405
399.823	4.41126
401.597	4.42325
403.372	5.06322
405.145	5.34051
406.92	4.98133
408.693	5.41913
410.467	5.21305
412.239	5.26135
414.012	5.96075
415.783	6.39931
417.556	6.41119
419.327	6.95698
421.099	6.61508
422.869	6.35321
424.64	6.5341
426.409	7.00125
428.18	7.20522
429.948	9.07869
431.718	9.23855
433.486	9.01927
435.253	8.37838
437.022	9.07539
438.789	9.72721
440.558	10.23
442.324	10.2503
444.089	10.1325
445.857	11.2436
447.622	10.0766
449.386	10.3275
451.153	11.6167
452.917	12.6261
454.682	12.4925
456.446	12.4402
458.208	13.2667
459.973	13.8758
461.735	13.9795
463.497	15.1341
465.259	15.2431
467.022	15.6433
468.783	16.3361
470.544	16.5351
472.306	17.8211
474.066	18.5891
475.825	19.9928
477.585	19.5439
479.346	18.946
481.104	19.187
482.862	19.0719
484.62	20.1591
486.38	21.3498
488.137	20.1329
489.894	21.7225
491.65	21.8058
493.407	22.8326
495.164	23.8723
496.92	24.618
498.675	26.5896
500.43	26.2285
502.184	26.794
503.939	27.0934
505.694	27.1944
507.448	27.4432
509.201	27.2448
510.954	27.1927
512.706	27.1145
514.459	27.4313
516.21	27.5302
517.962	27.4864
519.715	25.9626
521.466	25.4508
523.216	25.2418
524.966	24.5292
526.716	24.5058
528.466	24.6656
530.215	23.6781
531.964	22.8867
533.712	22.1066
535.46	21.5584
537.208	22.1102
538.955	21.9346
540.703	19.8833
542.449	18.7586
544.196	18.8236
545.942	17.8886
547.688	16.9528
549.433	16.0954
551.178	15.0066
552.923	13.9334
554.667	13.2701
556.412	12.6962
558.155	11.399
559.899	11.2993
561.642	9.99953
563.385	9.77765
565.127	9.12835
566.867	8.48851
568.609	8.75931
570.35	8.70192
572.092	8.8465
573.832	9.10009
575.573	9.55379
577.313	11.0684
579.053	10.5671
580.79	11.0696
582.529	11.7543
584.268	10.5976
586.006	10.9828
587.745	8.95405
589.482	8.32226
591.218	7.44613
592.955	7.80646
594.692	7.95293
596.428	7.84346
598.164	7.59333
599.898	8.07273
601.634	8.2058
603.369	7.9257
605.104	7.33086
606.836	6.52313
608.57	7.9042
610.304	9.08921
612.037	7.95902
613.769	7.96179
615.501	7.24861
617.234	6.73707
618.966	7.78238
620.696	8.34897
622.427	8.34556
624.159	9.23057
625.887	9.83776
627.618	9.82557
629.348	11.0648
631.076	10.5226
632.806	9.3664
634.535	8.68273
636.262	7.43338
637.99	6.18957
639.716	6.69169
641.444	7.97776
643.172	8.33023
644.897	8.31917
646.624	8.08808
648.348	7.59344
650.075	7.68947
651.801	7.2339
653.524	7.48538
655.249	8.53491
656.972	7.80703
658.697	7.4183
660.419	7.41034
662.143	7.24531
663.865	6.77673
665.588	6.01673
667.309	6.42918
669.032	7.24961
670.752	5.54465
672.474	5.47529
674.194	4.50865
675.915	5.38225
677.634	6.8927
679.355	8.17508
681.073	9.51519
682.793	9.98931
684.511	9.96669
686.23	10.552
687.947	11.4627
689.664	12.6249
691.382	13.6641
693.098	15.1191
694.816	15.9315
696.531	17.2489
698.247	16.6081
699.963	18.3027
701.678	18.5079
703.392	19.6311
705.108	20.3163
706.821	20.1531
708.534	20.1911
710.249	21.0816
711.962	20.7127
713.674	20.9907
715.388	20.5896
717.099	19.7685
718.81	19.7348
720.523	19.2356
722.234	19.3865
723.944	20.2374
725.654	22.6441
727.365	23.0034
729.075	22.2748
730.784	23.1993
732.492	23.371
734.202	23.4323
735.91	23.8146
737.618	24.6407
739.325	25.3328
741.034	26.8817
742.741	27.9005
744.447	29.6092
746.153	32.1605
747.859	33.5925
749.564	34.3284
751.271	36.015
752.976	38.546
754.681	39.0114
756.385	39.3094
758.088	41.1941
759.792	43.1746
761.495	45.1618
763.2	47.2316
764.902	48.7179
766.604	50.8759
768.306	52.1077
770.008	53.501
771.709	55.4707
773.41	57.5329
775.11	59.821
776.811	59.6233
778.51	61.0617
780.21	62.3591
781.909	63.2268
783.608	63.6576
785.307	64.4479
787.005	64.7504
788.703	64.9135
790.401	66.5016
792.098	67.9632
793.795	69.4339
795.492	69.8514
797.188	69.7737
798.884	70.1925
800.58	71.0812
802.276	71.3826
803.971	71.8587
805.665	72.7104
807.36	73.6943
809.054	74.6373
810.748	75.2822
812.441	75.4549
814.135	75.5798
815.826	76.4861
817.518	75.9467
819.21	76.309
820.902	77.6442
822.594	78.9868
824.285	80.0598
825.976	81.7158
827.665	82.5697
829.355	82.1426
831.045	81.6447
832.735	80.4893
834.424	79.74
836.111	79.8182
837.8	78.2205
839.488	76.5936
841.177	76.2646
842.864	76.6343
844.55	75.6722
846.237	74.3712
847.924	74.3784
849.61	73.1121
851.295	72.3516
852.98	72.3183
854.666	72.1104
856.349	72.9944
858.034	73.8806
859.719	72.961
861.403	70.7948
863.085	71.1711
864.769	70.0145
866.452	68.5528
868.133	68.2212
869.816	67.4107
871.498	66.2165
873.179	65.3409
874.86	67.0236
876.54	65.7048
878.221	64.204
879.902	61.8449
881.58	61.1835
883.26	60.2579
884.938	59.5157
886.618	58.5475
888.297	58.906
889.974	58.5404
891.653	58.6038
893.329	57.4813
895.007	56.212
896.683	56.6465
898.36	55.5038
900.035	56.0813
901.712	55.2094
903.387	54.7924
905.063	55.2958
906.737	54.9102
908.412	54.3675
910.085	52.3945
911.76	51.6499
913.433	49.5802
915.107	48.8489
916.779	48.5328
918.452	47.4011
920.124	47.5442
921.797	47.2078
923.467	47.0374
925.138	46.3205
926.81	45.1989
928.48	42.5402
930.151	41.8422
931.82	42.5357
933.489	40.7379
935.16	41.0338
936.828	41.8855
938.496	40.6925
940.165	39.8135
941.833	37.2959
943.5	34.9374
945.168	33.6917
946.834	32.0499
948.5	30.9534
950.168	30.6129
951.834	30.6656
953.499	29.9174
955.163	28.772
956.83	29.053
958.494	28.7732
960.158	27.5505
961.821	27.6089
963.487	27.7418
965.15	28.1909
966.812	27.7367
968.474	29.2607
970.138	30.1284
971.8	30.1495
973.461	30.5567
975.123	31.5528
976.783	31.1813
978.446	32.5896
980.106	34.6878
981.766	33.9964
983.425	34.8577
985.084	34.4423
986.743	35.4743
988.402	35.8948
990.06	35.5928
991.72	35.5734
993.378	36.4463
995.035	37.1463
996.692	37.8109
998.349	38.0819
1000.01	37.2656
1001.66	37.235
1003.32	37.2017
1004.97	36.6873
1006.63	36.2144
1008.28	35.3517
1009.94	35.5232
1011.59	36.5716
1013.25	37.2819
1014.9	39.3644
1016.55	39.4885
1018.21	41.0631
1019.86	41.3899
1021.51	40.6419
1023.16	41.1232
1024.81	43.1468
1026.47	45.5221
1028.12	47.1827
1029.77	48.6585
1031.42	51.6231
1033.07	53.5545
1034.72	54.8359
1036.37	55.7044
1038.02	57.3607
1039.67	57.8943
1041.31	57.589
1042.96	59.0593
1044.61	59.7055
1046.26	61.3437
1047.91	63.7075
1049.55	64.1064
1051.2	65.5412
1052.84	65.9817
1054.49	65.9963
1056.14	66.8906
1057.78	66.831
1059.43	65.8444
1061.07	66.1713
1062.72	65.1746
1064.36	63.6469
1066	63.7694
1067.65	62.8135
1069.29	61.866
1070.93	60.7574
1072.58	60.245
1074.22	58.6181
1075.86	57.1684
1077.5	54.7807
1079.14	52.9411
1080.78	49.6665
1082.42	47.4769
1084.06	45.4095
1085.7	43.4637
1087.34	42.5272
1088.98	40.9471
1090.62	39.5549
1092.26	40.7792
1093.9	41.5184
1095.54	41.1213
1097.17	41.876
1098.81	41.2949
1100.45	40.2882
1102.09	40.101
1103.72	40.1171
1105.36	41.8311
1106.99	41.7744
1108.63	41.6122
1110.27	40.7854
1111.9	40.3352
1113.53	39.8574
1115.17	38.3847
1116.8	37.9028
1118.43	36.4289
1120.07	35.4457
1121.7	33.7574
1123.33	33.0606
1124.97	33.3037
1126.6	32.9585
1128.23	33.2164
1129.86	32.0346
1131.49	29.5851
1133.12	28.9478
1134.75	26.6819
1136.38	25.292
1138.01	23.8421
1139.64	22.496
1141.27	21.4381
1142.9	21.521
1144.53	19.9449
1146.16	17.9404
1147.78	13.888
1149.41	11.4635
1151.04	9.29389
1152.67	8.18473
1154.29	7.13678
1155.92	6.18602
1157.54	5.53715
1159.17	4.64426
1160.8	2.95955
1162.42	2.15029
1164.05	2.39002
1165.67	1.77731
1167.29	2.09219
1168.92	2.85622
1170.54	3.23677
1172.16	4.79472
1173.79	6.4294
1175.41	6.92662
1177.03	6.43576
1178.65	7.43752
1180.28	7.75911
1181.9	8.84397
1183.52	9.19479
1185.14	10.4432
1186.76	10.7695
1188.38	10.1834
1190	10.1315
1191.62	9.385
1193.24	10.1642
1194.86	10.0828
1196.47	11.5899
1198.09	12.0012
1199.71	11.2335
1201.33	11.6828
1202.95	11.4418
1204.56	11.3948
1206.18	12.0635
1207.8	12.6138
1209.41	12.9226
1211.03	13.4362
1212.64	14.5962
1214.26	15.2728
1215.87	15.5169
1217.49	16.4742
1219.1	16.2548
1220.71	17.7944
1222.33	19.5221
1223.94	19.7464
1225.55	18.9873
1227.16	19.1534
1228.78	20.5339
1230.39	23.7412
1232	25.0055
1233.61	26.2528
1235.22	29.0749
1236.83	30.4165
1238.44	30.7671
1240.05	32.5622
1241.66	34.4212
1243.27	36.2098
1244.88	38.456
1246.49	38.8418
1248.1	40.8073
1249.71	41.6677
1251.32	42.6413
1252.92	43.2822
1254.53	43.1314
1256.14	43.9067
1257.74	46.1635
1259.35	49.1123
1260.96	50.8985
1262.56	54.1974
1264.17	55.3244
1265.77	57.6232
1267.38	60.0379
1268.98	62.7215
1270.59	66.3388
1272.19	72.1347
1273.79	76.2776
1275.4	79.8848
1277	83.7255
1278.6	86.282
1280.21	90.0526
1281.81	93.5778
1283.41	96.6919
1285.01	99.3413
1286.61	103.533
1288.21	106.07
1289.81	108.748
1291.41	112.261
1293.01	114.351
1294.61	115.63
1296.21	116.357
1297.81	117.242
1299.41	117.953
1301.01	120.085
1302.6	120.569
1304.2	120.048
1305.8	119.976
1307.4	119.597
1308.99	117.545
1310.59	115.279
1312.19	114.616
1313.78	114.41
1315.38	113.556
1316.97	111.357
1318.57	109.8
1320.16	108.867
1321.76	106.065
1323.35	102.372
1324.94	99.6721
1326.54	96.2684
1328.13	93.1786
1329.72	89.1276
1331.32	87.2338
1332.91	85.2764
1334.5	84.5999
1336.09	83.808
1337.68	83.8727
1339.27	81.9209
1340.87	80.8836
1342.45	80.4668
1344.04	78.81
1345.64	78.0689
1347.22	78.0227
1348.81	77.3205
1350.4	78.2317
1351.99	78.0552
1353.58	76.7934
1355.17	76.7411
1356.75	75.6189
1358.34	75.8692
1359.93	75.8857
1361.51	74.0662
1363.1	74.2393
1364.69	74.4302
1366.27	74.64
1367.86	73.8764
1369.44	74.2412
1371.03	74.5864
1372.61	74.0674
1374.2	74.3344
1375.78	73.8928
1377.37	74.9184
1378.95	75.1449
1380.53	76.5812
1382.11	75.9462
1383.7	76.3915
1385.28	75.951
1386.86	74.8333
1388.44	74.6889
1390.02	76.1136
1391.6	77.3555
1393.19	77.2707
1394.77	76.7813
1396.35	77.1644
1397.93	78.1067
1399.51	79.092
1401.08	80.6768
1402.66	83.7517
1404.24	87.4502
1405.82	92.2164
1407.4	96.8005
1408.97	102.579
1410.55	108.61
1412.13	113.948
1413.71	120.203
1415.28	124.915
1416.86	131.975
1418.43	138.634
1420.01	145.158
1421.59	152.449
1423.16	158.932
1424.73	166.328
1426.31	173.868
1427.88	183.183
1429.46	190.613
1431.03	197.392
1432.6	204.939
1434.18	211.81
1435.75	218.213
1437.32	224.874
1438.89	229.776
1440.46	233.328
1442.04	237.966
1443.61	240.385
1445.18	242.06
1446.75	243.424
1448.32	244.063
1449.89	243.259
1451.46	243.144
1453.03	240.435
1454.6	236.726
1456.16	232.258
1457.73	226.891
1459.3	221.556
1460.87	215.108
1462.44	207.73
1464	199.829
1465.57	192.038
1467.14	184.242
1468.7	175.261
1470.27	165.78
1471.83	157.39
1473.4	148.64
1474.96	141.118
1476.53	132.602
1478.09	124.787
1479.66	117.704
1481.22	110.264
1482.78	103.243
1484.35	97.7649
1485.91	91.2261
1487.47	84.7354
1489.04	77.2564
1490.6	71.2253
1492.16	65.3
1493.72	59.0659
1495.28	55.5448
1496.84	50.6154
1498.4	46.2324
1499.96	43.1241
1501.52	39.469
1503.08	37.0099
1504.64	35.62
1506.2	34.8102
1507.76	32.3136
1509.32	31.5904
1510.88	30.4895
1512.44	29.7689
1513.99	28.8455
1515.55	27.0688
1517.11	24.8616
1518.66	23.8653
1520.22	23.6778
1521.78	24.4797
1523.33	24.5841
1524.89	25.2853
1526.44	26.2847
1528	27.1566
1529.55	28.47
1531.11	28.4675
1532.66	29.1515
1534.21	30.4858
1535.77	32.777
1537.32	34.8368
1538.87	36.6058
1540.43	37.5898
1541.98	39.5033
1543.53	41.1979
1545.08	42.6111
1546.63	44.1844
1548.18	46.0998
1549.74	47.9258
1551.29	47.2847
1552.84	48.7945
1554.39	47.8845
1555.94	49.2421
1557.48	49.5571
1559.03	51.1185
1560.58	52.3035
1562.13	52.7597
1563.68	52.1913
1565.23	51.8187
1566.78	52.5031
1568.32	53.2466
1569.87	54.1818
1571.42	55.0378
1572.96	55.7037
1574.51	55.0962
1576.05	56.8519
1577.6	58.0062
1579.14	58.0857
1580.69	59.814
1582.24	61.8708
1583.78	62.4221
1585.32	62.8354
1586.87	63.8924
1588.41	64.5227
1589.95	65.5372
1591.5	65.0755
1593.04	65.1307
1594.58	66.2622
1596.12	68.5047
1597.67	69.6767
1599.21	70.3025
1600.75	69.9044
1602.29	71.2794
1603.83	71.6058
1605.37	72.8113
1606.91	72.7996
1608.45	73.0966
1609.99	72.8536
1611.53	73.8596
1613.07	73.1931
1614.6	72.8427
1616.14	72.5504
1617.68	71.9215
1619.22	70.6109
1620.75	70.456
1622.29	69.9494
1623.83	69.5506
1625.37	69.2318
1626.9	69.0993
1628.44	68.805
1629.97	69.44
1631.51	69.2447
1633.04	70.9579
1634.58	71.5512
1636.11	72.1336
1637.65	71.5323
1639.18	72.2663
1640.72	72.9896
1642.25	73.4132
1643.78	74.7616
1645.31	74.7186
1646.85	75.5252
1648.38	74.4292
1649.91	75.7699
1651.44	76.1578
1652.97	76.5438
1654.5	75.8873
1656.03	75.2017
1657.56	76.3664
1659.1	75.5667
1660.62	75.0023
1662.15	73.6742
1663.68	72.6371
1665.21	71.6878
1666.74	70.2807
1668.27	68.1605
1669.8	67.3207
1671.32	65.4853
1672.85	63.6102
1674.38	60.7492
1675.91	58.2007
1677.43	56.3206
1678.96	54.59
1680.49	51.0275
1682.01	48.9705
1683.54	46.4833
1685.06	44.2732
1686.59	41.8591
1688.11	39.833
1689.64	37.8442
1691.16	36.1965
1692.68	33.6801
1694.21	32.2425
1695.73	30.7828
1697.25	31.3216
1698.78	30.474
1700.3	29.2149
1701.82	27.7883
1703.34	27.467
1704.86	27.1009
1706.39	26.2441
1707.91	25.9979
1709.43	26.2076
1710.95	24.8672
1712.47	25.304
1713.99	25.5835
1715.51	25.8587
1717.02	24.8954
1718.54	24.9085
1720.06	24.9591
1721.58	24.2054
1723.1	24.2586
1724.62	22.7847
1726.13	22.8533
1727.65	21.2752
1729.17	20.8187
1730.68	20.8609
1732.2	20.9164
1733.72	20.8928
1735.23	19.856
1736.75	19.5432
1738.26	18.5629
1739.78	18.4481
1741.29	17.3087
1742.81	16.3174
1744.32	15.8714
1745.84	15.5696
1747.35	14.6716
1748.86	13.9827
1750.37	13.2406
1751.89	12.4535
1753.4	12.2295
1754.91	11.5677
1756.42	11.0476
1757.93	11.84
1759.45	11.6912
1760.96	10.6192
1762.47	10.3577
1763.98	9.86362
1765.49	9.77632
1767	9.08022
1768.51	8.70502
1770.02	9.12714
1771.53	8.83791
1773.03	8.39224
1774.54	6.99599
1776.05	6.32551
1777.56	6.8085
1779.07	7.06437
1780.57	6.67927
1782.08	5.91545
1783.59	5.19898
1785.09	5.70284
1786.6	4.58386
1788.11	4.21553
1789.61	2.94964
1791.12	1.94398
1792.62	1.17374
1794.13	1.19945
1795.63	0.546325
1797.13	0.624971
1798.64	-0.210464
1800.14	-1.58609
1801.65	-0.858769
1803.15	-0.607555
1804.65	-0.334945
1806.15	-0.13951
1807.66	0.456799
1809.16	0.238478
1810.66	-0.670735
1812.16	-0.033663
1813.66	0.422247
1815.16	0.0346786
1816.66	1.4706
1818.16	2.16919
1819.66	2.13939
1821.16	1.5713
1822.66	2.73222
1824.16	3.46127
1825.66	4.04922
1827.16	4.1686
1828.66	4.26494
1830.16	4.61386
1831.65	5.6448
1833.15	5.15118
1834.65	4.56321
1836.14	4.50615
1837.64	4.79866
1839.14	5.13109
1840.63	5.91247
1842.13	6.40617
1843.62	6.31218
1845.12	6.81552
1846.61	7.09003
1848.11	6.54628
1849.6	6.4686
1851.1	6.5923
1852.59	6.71241
1854.08	5.86805
1855.58	6.11994
1857.07	5.27794
1858.56	5.12567
1860.05	5.38244
1861.55	5.34973
1863.04	6.02178
1864.53	6.75233
1866.02	6.74616
1867.51	6.88007
1869	6.90551
1870.49	7.56811
1871.98	8.02679
1873.47	8.27567
1874.96	8.43787
1876.45	8.78085
1877.94	8.2694
1879.43	8.04207
1880.92	8.42859
1882.41	8.06563
1882.51	7.89203
1884	7.0298
1885.5	7.58605
1886.99	8.43204
1888.48	7.98836
1889.98	7.96484
1891.47	6.72094
1892.96	6.2115
1894.46	5.53912
1895.95	6.1136
1897.44	5.32171
1898.93	5.31652
1900.42	4.54766
1901.91	4.48143
1903.41	5.20614
1904.9	4.77451
1906.39	3.2021
1907.88	3.71989
1909.37	4.6326
1910.86	5.25294
1912.35	4.88737
1913.83	5.73849
1915.32	5.99465
1916.81	6.01464
1918.3	6.24678
1919.79	6.38983
1921.27	5.53966
1922.76	5.69211
1924.25	6.13998
1925.74	6.75688
1927.22	7.33204
1928.71	8.57532
1930.19	8.49294
1931.68	9.07505
1933.17	9.00093
1934.65	10.1341
1936.14	11.0431
1937.62	10.3086
1939.11	10.7056
1940.59	11.466
1942.07	12.665
1943.56	12.7764
1945.04	12.4584
1946.52	11.7217
1948.01	10.7794
1949.49	10.9458
1950.97	10.6044
1952.45	11.2174
1953.93	10.8374
1955.42	10.2623
1956.9	10.0182
1958.38	10.0619
1959.86	10.0154
1961.34	9.57883
1962.82	8.77635
1964.3	8.69565
1965.78	7.98589
1967.26	7.57192
1968.74	7.59973
1970.21	7.80849
1971.69	7.84028
1973.17	8.77103
1974.65	8.37382
1976.13	8.98659
1977.6	8.5644
1979.08	8.35505
1980.56	8.16619
1982.03	8.52295
1983.51	8.77451
1984.99	8.52954
1986.46	7.7247
1987.94	8.37355
1989.41	8.03106
1990.89	7.98415
1992.36	8.43743
1993.84	9.03087
1995.31	8.771
1996.78	10.18
1998.26	10.4304
1999.73	10.2044
2001.2	10.0848
2002.68	9.93773
2004.15	9.20799
2005.62	9.42808
2007.09	9.46618
2008.56	9.79296
2010.04	9.87635
2011.51	9.16863
2012.98	9.54574
2014.45	9.65637
2015.92	9.28948
2017.39	8.87123
2018.86	8.22161
2020.33	7.6061
2021.8	7.89067
2023.26	8.34187
2024.73	8.68297
2026.2	8.23025
2027.67	8.06345
2029.14	8.65752
2030.61	9.121
2032.07	8.85852
2033.54	8.73251
2035.01	9.93212
2036.47	11.0009
2037.94	11.0767
2039.4	11.0366
2040.87	11.1889
2042.33	11.5112
2043.8	12.1047
2045.27	12.6529
2046.73	13.1888
2048.19	13.3902
2049.66	14.1933
2051.12	14.4539
2052.59	14.6848
2054.05	14.5057
2055.51	14.5964
2056.97	14.8768
2058.44	15.5632
2059.9	15.4745
2061.36	16.7987
2062.82	18.4609
2064.28	19.6666
2065.74	20.1051
2067.21	19.6517
2068.67	19.0647
2070.13	18.7147
2071.59	18.0435
2073.05	18.139
2074.51	18.22
2075.96	18.0924
2077.42	18.0592
2078.88	17.6055
2080.34	17.705
2081.8	17.1113
2083.26	17.1243
2084.72	16.272
2086.17	16.9224
2087.63	17.5281
2089.09	17.404
2090.54	17.0966
2092	17.1523
2093.45	17.2885
2094.91	18.0424
2096.37	17.5958
2097.82	18.1016
2099.28	18.193
2100.73	18.9352
2102.19	19.1119
2103.64	19.8147
2105.09	19.8765
2106.55	21.0131
2108	20.8483
2109.45	20.2709
2110.91	20.7777
2112.36	20.2164
2113.81	21.1163
2115.26	21.3362
2116.72	21.8878
2118.17	22.2747
2119.62	23.0064
2121.07	22.9409
2122.52	23.649
2123.97	23.7324
2125.42	24.0526
2126.87	24.6828
2128.32	24.564
2129.77	25.7078
2131.22	27.0434
2132.67	27.8591
2134.11	28.7833
2135.56	28.881
2137.01	28.6282
2138.46	27.9968
2139.91	28.7548
2141.35	30.0034
2142.8	30.6773
2144.25	31.4768
2145.7	33.4119
2147.14	34.2753
2148.59	34.8855
2150.03	35.9481
2151.48	36.2958
2152.92	37.8224
2154.37	38.3552
2155.81	39.5475
2157.26	40.4872
2158.7	41.897
2160.15	41.6829
2161.59	41.9851
2163.03	42.4363
2164.47	42.8127
2165.92	43.2048
2167.36	44.2759
2168.8	44.0346
2170.24	44.9002
2171.69	44.7611
2173.13	44.5725
2174.57	44.83
2176.01	45.6851
2177.45	44.7229
2178.89	44.5417
2180.33	43.9814
2181.77	43.7864
2183.21	44.5466
2184.65	43.2383
2186.09	43.6718
2187.53	43.0588
2188.97	42.6361
2190.4	41.6433
2191.84	40.4392
2193.28	39.9868
2194.72	40.3966
2196.16	39.4904
2197.59	38.7625
2199.03	37.759
2200.47	36.472
2201.9	36.7883
2203.34	35.6877
2204.77	34.8332
2206.21	33.2917
2207.64	32.6516
2209.08	32.6085
2210.51	31.6537
2211.95	31.37
2213.38	30.2496
2214.82	28.5033
2216.25	28.5909
2217.68	28.9213
2219.12	27.1778
2220.55	25.9985
2221.98	25.189
2223.41	24.3035
2224.85	23.2112
2226.28	22.1091
2227.71	20.9338
2229.14	20.4235
2230.57	20.2644
2232	20.0744
2233.43	19.7269
2234.86	19.1508
2236.29	18.441
2237.72	17.2642
2239.15	15.9876
2240.58	14.8862
2242.01	14.9171
2243.44	14.6168
2244.87	14.0476
2246.29	13.5303
2247.72	12.586
2249.15	11.5687
2250.58	11.7354
2252.01	11.9728
2253.43	11.4165
2254.86	11.9883
2256.29	11.5755
2257.71	12.2904
2259.14	12.3795
2260.56	11.4684
2261.99	12.2746
2263.41	12.5116
2264.84	13.2903
2266.26	13.4506
2267.69	12.9514
2269.11	12.7304
2270.53	11.9753
2271.96	12.1381
2273.38	12.423
2274.8	11.7034
2276.23	11.3414
2277.65	11.0962
2279.07	11.1708
2280.49	10.4934
2281.91	10.0406
2283.34	10.0516
2284.76	9.89929
2286.18	10.2181
2287.6	10.7788
2289.02	9.72534
2290.44	8.48395
2291.86	8.37348
2293.28	8.10137
2294.7	7.47738
2296.12	6.89789
2297.54	6.87644
2298.96	6.79691
2300.37	7.32959
2301.79	7.78963
2303.21	7.71984
2304.63	6.42114
2306.04	5.74953
2307.46	5.65302
2308.88	5.23163
2310.3	5.80907
2311.71	5.89573
2313.13	6.13568
2314.54	6.77072
2315.96	6.53536
2317.37	6.98163
2318.79	6.88581
2320.2	8.69219
2321.62	8.41313
2323.03	9.09916
2324.45	9.01088
2325.86	10.4688
2327.27	10.6741
2328.69	11.1826
2330.1	10.5247
2331.51	10.7169
2332.92	10.8783
2334.34	10.5447
2335.75	10.0666
2337.16	8.98363
2338.57	8.67301
2339.98	8.75259
2341.39	8.544
2342.8	8.15954
2344.21	6.80216
2345.63	6.16282
2347.04	5.55819
2348.45	4.72693
2349.85	4.05941
2351.26	3.41741
2352.67	3.31091
2354.08	2.45292
2355.49	2.06439
2356.9	1.59543
2358.3	-0.211182
2359.71	-0.329677
2361.12	-0.822523
2362.53	-0.936516
2363.93	-1.81285
2365.34	-2.35097
2366.75	-1.92671
2368.15	-2.31406
2369.56	-2.36739
2370.97	-2.64686
2372.37	-2.56494
2373.77	-3.10159
2375.18	-3.28436
2376.59	-2.9641
2377.99	-2.20907
2379.39	-1.84784
2380.8	-1.66695
2382.2	-0.767598
2383.6	-0.0804604
2385.01	1.06117
2386.41	0.436575
2387.81	0.944878
2389.21	1.37132
2390.62	2.34838
2392.02	2.3298
2393.42	4.14404
2394.82	4.92305
2396.22	4.88512
2397.62	4.15139
2399.02	4.25613
2400.42	3.48155
2401.82	3.64041
2403.22	4.12079
2404.62	4.26523
2406.02	4.44389
2407.42	5.03661
2408.82	6.16179
2410.22	5.72739
2411.62	5.50305
2413.01	5.69239
2414.41	5.72659
2415.81	5.80947
2417.21	6.11062
2418.6	6.25285
2420	6.70372
2421.4	6.66178
2422.79	6.85271
2424.19	6.71769
2425.59	6.92186
2426.98	7.18019
2428.38	7.1787
2429.77	7.68049
2431.17	6.53589
2432.56	6.60913
2433.95	6.0343
2435.35	5.96695
2436.74	6.21966
2438.14	5.16039
2439.53	5.02719
2440.92	4.77284
2442.31	4.56445
2443.71	3.84751
2445.1	4.22621
2446.49	3.63686
2447.88	3.81915
2449.27	3.84809
2450.67	3.89205
2452.06	4.0819
2453.45	3.75719
2454.84	3.73218
2456.23	3.05086
2457.62	3.17286
2459.01	3.93843
2460.4	4.21227
2461.79	4.3194
2463.18	3.89959
2464.57	3.66982
2465.95	3.52321
2467.34	3.28368
2468.73	3.33865
2470.12	3.25646
2471.5	4.4963
2472.89	4.8783
2474.28	4.66347
2475.67	5.01797
2477.05	4.93828
2478.44	4.43485
2479.82	3.96293
2481.21	3.80058
2482.6	4.14315
2483.98	3.38647
2485.37	3.52049
2486.75	3.5064
2488.13	3.12258
2489.52	3.11951
2490.9	2.97338
2492.29	2.47232
2493.67	2.43153
2495.05	2.17336
2496.44	2.11471
2497.82	1.84497
2499.2	1.00148
2500.58	1.1124
2501.97	1.54277
2503.35	0.567974
2504.73	0.249499
2506.11	0.189868
2507.49	-0.309299
2508.87	-0.370394
2510.25	-1.08664
2511.63	-0.960702
2513.01	-0.237832
2514.39	0.102276
2515.77	-0.374746
2517.15	-0.284667
2518.53	0.291338
2519.91	0.769444
2521.29	1.1294
2522.67	1.17708
2524.05	1.32982
2525.42	1.76205
2526.8	2.28534
2528.18	2.80477
2529.55	2.30629
2530.93	2.28618
2532.31	3.01728
2533.69	3.61403
2535.06	3.291
2536.44	2.83014
2537.81	3.51415
2539.19	4.11532
2540.56	3.93144
2541.94	3.65268
2543.31	4.35661
2544.69	4.2015
2546.06	4.48385
2547.44	4.91441
2548.81	5.9226
2550.18	5.91738
2551.56	6.43363
2552.93	6.52586
2554.3	6.83051
2555.67	6.92789
2557.04	7.35404
2558.42	6.74391
2559.79	6.56688
2561.16	6.13251
2562.53	6.59461
2563.9	7.14543
2565.27	8.21625
2566.64	8.84003
2568.01	8.6973
2569.38	8.45399
2570.75	7.80423
2572.12	6.78004
2573.49	6.99951
2574.86	7.15639
2576.23	6.77093
2577.6	6.90522
2578.97	7.46545
2580.33	7.94942
2581.7	7.96164
2583.07	7.46782
2584.44	7.19925
2585.8	6.95161
2587.17	7.61794
2588.54	6.96591
2589.9	6.67614
2591.27	5.81959
2592.64	5.49834
2594	4.94741
2595.37	4.3071
2596.73	3.29218
2598.1	2.73591
2599.46	2.74542
2600.83	3.11812
2602.19	2.10346
2603.55	1.50498
2604.92	1.93397
2606.28	1.52877
2607.64	1.0729
2609.01	1.43263
2610.37	2.59561
2611.73	2.34635
2613.09	2.66903
2614.46	3.48694
2615.82	3.67098
2617.18	3.30274
2618.54	3.76655
2619.9	4.24461
2621.26	4.69276
2622.62	4.96692
2623.98	4.7585
2625.34	5.03102
2626.7	4.85414
2628.06	5.51065
2629.42	6.18427
2630.78	7.56315
2632.14	8.15261
2633.5	7.5895
2634.86	7.32733
2636.21	6.79137
2637.57	6.39938
2638.93	7.21728
2640.29	7.85768
2641.64	8.65303
2643	8.70996
2644.36	9.03413
2645.71	9.67729
2647.07	9.84883
2648.43	9.23317
2649.78	9.38319
2651.14	9.18323
2652.49	8.75829
2653.85	8.79907
2655.2	9.29806
2656.56	8.79179
2657.91	8.20787
2659.26	7.82864
2660.62	7.14261
2661.97	6.5611
2663.32	6.36188
2664.68	5.63411
2666.03	6.36819
2667.38	6.91855
2668.74	6.5155
2670.09	6.01889
2671.44	6.20645
2672.79	6.54589
2674.14	6.17075
2675.49	7.52317
2676.84	8.77634
2678.19	9.00848
2679.54	8.48342
2680.89	9.16077
2682.24	9.53875
2683.59	9.12542
2684.94	8.96237
2686.29	9.63673
2687.64	9.3947
2688.99	10.1099
2690.34	10.7805
2691.69	11.6789
2693.03	12.8861
2694.38	13.2619
2695.73	14.0139
2697.08	15.5729
2698.42	16.5693
2699.77	17.1434
2701.12	17.7901
2702.46	19.6396
2703.81	20.4791
2705.15	21.6044
2706.5	22.9432
2707.85	23.0797
2709.19	23.769
2710.54	23.9716
2711.88	24.8826
2713.22	25.2676
2714.57	25.6012
2715.91	25.5545
2717.26	26.3578
2718.6	26.3898
2719.94	26.8876
2721.29	27.5087
2722.63	28.3073
2723.97	28.6693
2725.31	28.5636
2726.66	28.6866
2728	27.5256
2729.34	27.315
2730.68	26.7794
2732.02	25.5365
2733.36	25.6067
2734.7	24.1255
2736.04	22.7872
2737.38	22.174
2738.72	21.59
2740.06	20.448
2741.4	19.7959
2742.74	19.8589
2744.08	18.454
2745.42	16.959
2746.76	15.8375
2748.09	14.9796
2749.43	13.8209
2750.77	12.3389
2752.11	11.8011
2753.45	11.5323
2754.78	11.0933
2756.12	10.5626
2757.46	9.82232
2758.79	8.80177
2760.13	7.60956
2761.46	6.61034
2762.8	6.01846
2764.14	6.40599
2765.47	6.05794
2766.8	5.28995
2768.14	5.02538
2769.47	5.36152
2770.81	4.0813
2772.14	3.72638
2773.48	3.51699
2774.81	3.17342
2776.14	3.87838
2777.48	4.07859
2778.81	3.8545
2780.14	3.64642
2781.47	3.92187
2782.8	4.12402
2784.14	4.76323
2785.47	4.9527
2786.8	5.53258
2788.13	5.63075
2789.46	5.77579
2790.79	5.90999
2792.12	5.04009
2793.45	5.12259
2794.78	4.57707
2796.11	5.36336
2797.44	5.48453
2798.77	5.60643
2800.1	5.69801
2801.43	5.70281
2802.76	6.06986
2804.09	5.74741
2805.41	5.10761
2806.74	3.99834
2808.07	4.44092
2809.4	3.36431
2810.72	2.2087
2812.05	2.16488
2813.38	1.83123
2814.71	2.58971
2816.03	4.83723
2817.36	7.87146
2818.68	11.9387
2820.01	17.7999
2821.33	24.8133
2822.66	32.691
2823.98	41.7825
2825.31	52.2128
2826.63	63.7622
2827.96	75.4387
2829.28	88.4805
2830.6	102.084
2831.93	115.752
2833.25	128.96
2834.57	142.703
2835.9	156.724
2837.22	169.895
2838.54	183.626
2839.86	196.92
2841.18	210.998
2842.5	224.382
2843.83	236.96
2845.15	249.62
2846.47	263.532
2847.79	276.007
2849.11	289.841
2850.43	304.262
2851.75	318.302
2853.07	332.192
2854.39	347.396
2855.71	362.284
2857.03	376.327
2858.35	388.313
2859.66	400.35
2860.98	410.547
2862.3	420.816
2863.62	428.993
2864.94	437.068
2866.25	443.727
2867.57	450.978
2868.89	455.342
2870.2	459.279
2871.52	463.173
2872.84	465.853
2874.15	469.078
2875.47	471.224
2876.78	474.319
2878.1	477.783
2879.41	480.78
2880.73	485.561
2882.04	490.123
2883.36	493.568
2884.67	497.778
2885.99	501.59
2887.3	505.474
2888.61	508.936
2889.93	512.192
2891.24	515.743
2892.55	517.169
2893.86	517.997
2895.18	520.427
2896.49	522.03
2897.8	522.45
2899.11	521.814
2900.42	521.928
2901.73	521.565
2903.05	521.62
2904.36	521.964
2905.67	523.57
2906.98	525.069
2908.29	526.491
2909.6	528.762
2910.91	532.649
2912.21	536.364
2913.52	539.848
2914.83	545.277
2916.14	549.486
2917.45	553.224
2918.76	556.842
2920.07	560.193
2921.37	560.645
2922.68	560.933
2923.99	559.859
2925.29	558.971
2926.6	558.069
2927.91	556.318
2929.22	553.316
2930.52	550.043
2931.83	545.927
2933.13	540.942
2934.44	533.935
2935.74	527.744
2937.05	521.579
2938.35	514.053
2939.66	506.407
2940.96	497.828
2942.26	487.746
2943.57	477.957
2944.87	467.688
2946.18	457.31
2947.48	445.751
2948.78	433.635
2950.08	422.876
2951.39	410.933
2952.69	399.746
2953.99	387.841
2955.29	375.86
2956.59	363.867
2957.9	351.994
2959.2	340.618
2960.5	330.041
2961.8	318.482
2963.1	306.665
2964.4	295.817
2965.7	286.18
2967	275.974
2968.3	267.193
2969.6	257.78
2970.9	249.172
2972.19	240.523
2973.49	232.402
2974.79	223.779
2976.09	215.57
2977.39	206.814
2978.68	198.842
2979.98	190.16
2981.28	181.44
2982.58	173.12
2983.87	164.677
2985.17	156.203
2986.47	148.522
2987.76	140.762
2989.06	133.13
2990.35	126.173
2991.65	119.402
2992.94	112.105
2994.24	104.64
2995.53	97.806
2996.83	91.1848
2998.12	84.0693
2999.42	78.0462
3000.71	72.8494
3002	67.625
3003.3	61.6586
3004.59	56.3851
3005.88	51.5486
3007.18	46.55
3008.47	43.0625
3009.76	39.6418
3011.05	35.7938
3012.34	31.8255
3013.64	29.0874
3014.93	26.979
3016.22	23.9429
3017.51	21.9023
3018.8	20.3099
3020.09	18.2473
3021.38	16.2233
3022.67	14.7912
3023.96	12.5079
3025.25	11.3437
3026.54	10.4544
3027.83	8.61392
3029.12	7.43939
3030.41	6.21494
3031.69	4.75841
3032.98	4.09758
3034.27	3.29732
3035.56	2.50647
3036.84	2.14051
3038.13	1.283
3039.42	0.361283
3040.71	0.475454
3041.99	1.01519
3043.28	1.30193
3044.57	1.19754
3045.85	2.14733
3047.14	2.66659
3048.42	3.01337
3049.71	4.07651
3050.99	4.29854
3052.28	4.59753
3053.56	5.34951
3054.85	5.29471
3056.13	4.9695
3057.41	4.21331
3058.7	3.77599
3059.98	4.50312
3061.26	4.72958
3062.55	4.70989
3063.83	4.71395
3065.11	4.92206
3066.39	5.35982
3067.68	6.32499
3068.96	6.37981
3070.24	5.88287
3071.52	5.98503
3072.8	5.78173
3074.08	5.64812
3075.36	5.06504
3076.65	4.93302
3077.93	5.37751
3079.21	5.24103
3080.49	4.40796
3081.77	4.05515
3083.04	3.64693
3084.32	3.49528
3085.6	2.89992
3086.88	3.01702
3088.16	2.992
3089.44	3.07293
3090.72	2.93605
3091.99	2.51048
3093.27	2.57778
3094.55	2.60496
3095.83	3.23143
3097.1	3.30724
3098.38	4.07391
3099.66	4.80445
3100.93	6.34622
3102.21	6.89185
3103.49	7.66275
3104.76	8.85206
3106.04	10.0618
3107.31	10.4863
3108.59	11.9575
3109.86	12.7818
3111.14	13.4323
3112.41	14.7081
3113.69	15.8034
3114.96	16.2067
3116.23	17.6533
3117.51	18.3961
3118.78	19.2645
3120.05	20.1427
3121.33	21.5029
3122.6	23.4822
3123.87	25.0519
3125.14	25.7411
3126.41	26.823
3127.69	28.4055
3128.96	30.5049
3130.23	32.4
3131.5	33.5317
3132.77	33.9366
3134.04	35.1538
3135.31	36.7831
3136.58	37.8081
3137.85	39.6691
3139.12	41.0115
3140.39	42.7733
3141.66	44.3919
3142.93	46.2625
3144.2	48.3047
3145.47	50.4531
3146.74	52.4355
3148	54.0506
3149.27	57.6076
