#Acq. time (s)=	45
#Accumulations=	2
#Range (cm-¹)=	200...3150
#Windows=	2
#Auto scanning=	Off
#Autofocus=	Off
#Macrospot=	Off
#AutoExposure=	Off
#Spike filter=	Multiple accum.
#Delay time (s)=	0
#Binning=	1
#Readout mode=	Signal
#DeNoise=	Off
#ICS correction=	On
#Dark correction=	Off
#Inst. Process=	Off
#Detector Gain=	Best Dynamic Range
#Detector ADC=	20 kHz       
#Detector temperature (°C)=	-69.85
#Instrument=	LabRAM HR Evol
#Detector=	Synapse
#Objective=	x50
#Grating=	600 gr/mm
#ND Filter=	100%
#Laser (nm)=	532 
#Hole=	100.021
#Range=	Auto
#Laser Pol.=	No
#Raman. Pol.=	No
#Laser Pol. (°)=	-0.0007625
#Raman Pol. (°)=	89.9995
#Collection=	Microscope
#StageXY=	Marzhauser
#StageZ=	Marzhauser
#X (µm)=	-6988
#Y (µm)=	2171.5
#Z (µm)=	-74.35
#Full time(mm:ss)=	3:18
#Project=	
#Sample=	
#Site=	
#Title=	Mb_20_23_04_2x_45s_532 nm_x50_100%_600 gr_mm
#Remark=	
#Date=	13.07.2022 13:12
#Acquired=	13.07.2022 13:12:07
#Edit:Spike=	10.08.2022 10:28:39
#Base:Fit=	10.08.2022 10:29:19
#Base:Fit=	10.08.2022 10:29:37
#Base:Sub=	10.08.2022 10:31:46
#Filter:Polynom=	16.08.2022 10:13:29
#AxisType[0]=Intens
#AxisUnit[0]=Cnt
#AxisType[1]=Spectr
#AxisUnit[1]=1/cm
200.563	44.7737
202.377	43.7005
204.194	42.5599
206.008	41.5834
207.821	39.7945
209.634	37.7611
211.449	36.342
213.262	34.3695
215.074	33.205
216.885	31.0668
218.699	30.0743
220.51	28.6836
222.321	27.8028
224.131	25.8782
225.941	24.5698
227.751	22.6652
229.562	20.6183
231.371	19.4261
233.18	18.8732
234.988	17.6374
236.796	16.885
238.603	17.274
240.411	16.2311
242.219	15.6819
244.026	14.435
245.832	12.5532
247.638	11.7545
249.443	11.6447
251.248	11.3341
253.053	10.1187
254.857	9.66383
256.661	9.15633
258.465	8.90397
260.268	7.45007
262.071	7.17231
263.874	6.28256
265.678	4.20312
267.48	3.10856
269.282	3.25592
271.083	2.19211
272.884	2.99627
274.684	3.83391
276.484	3.04932
278.284	3.74042
280.084	2.85974
281.883	2.46942
283.682	3.17576
285.48	2.72235
287.276	2.75202
289.074	3.09178
290.871	2.72305
292.668	3.78863
294.465	4.83153
296.261	6.26211
298.057	7.43903
299.853	8.41436
301.648	10.6665
303.443	10.4449
305.237	12.0327
307.032	13.1077
308.823	14.6018
310.617	15.2632
312.41	15.7834
314.203	16.2378
315.995	18.0207
317.788	18.6553
319.579	19.5991
321.369	20.6921
323.16	22.0845
324.951	22.9438
326.741	23.658
328.531	24.1901
330.321	23.0914
332.108	22.6579
333.897	22.7466
335.686	22.5774
337.474	23.7689
339.26	24.1029
341.048	23.5454
342.835	22.6997
344.622	21.0784
346.406	19.6404
348.192	19.1345
349.978	18.2298
351.764	17.6157
353.547	16.2274
355.332	14.3031
357.116	12.9778
358.901	12.531
360.682	11.3918
362.466	10.7021
364.249	9.37576
366.03	7.9629
367.812	7.44263
369.594	5.4155
371.374	5.57019
373.155	5.33952
374.936	4.37525
376.715	3.65568
378.495	3.17336
380.273	4.10184
382.053	4.04372
383.832	3.4
385.609	2.90208
387.388	2.173
389.164	2.81408
390.942	3.48352
392.72	2.97765
394.495	4.24985
396.272	4.0488
398.047	3.60284
399.823	4.184
401.597	5.41208
403.372	6.81856
405.145	7.48932
406.92	6.87339
408.693	7.02222
410.467	7.68714
412.239	9.48482
414.012	9.33514
415.783	9.56549
417.556	11.1337
419.327	11.4945
421.099	11.936
422.869	12.6786
424.64	12.3691
426.409	13.1035
428.18	12.2226
429.948	11.8863
431.718	11.7063
433.486	11.394
435.253	11.0875
437.022	10.7488
438.789	9.89598
440.558	9.38817
442.324	8.67752
444.089	8.65462
445.857	9.15771
447.622	8.82583
449.386	8.44697
451.153	8.8351
452.917	9.64652
454.682	10.1908
456.446	10.4907
458.208	10.5239
459.973	11.1322
461.735	9.96386
463.497	10.5678
465.259	12.0863
467.022	13.1183
468.783	13.5331
470.544	13.8503
472.306	16.3349
474.066	18.2288
475.825	20.405
477.585	22.8557
479.346	24.515
481.104	25.302
482.862	27.0056
484.62	28.8827
486.38	30.9351
488.137	32.9996
489.894	34.5605
491.65	35.8326
493.407	36.8813
495.164	38.2936
496.92	39.3179
498.675	41.5144
500.43	43.4583
502.184	44.951
503.939	46.5992
505.694	47.8269
507.448	46.8235
509.201	46.6602
510.954	46.7637
512.706	45.4391
514.459	44.6501
516.21	43.6628
517.962	43.0143
519.715	42.662
521.466	41.9839
523.216	41.7927
524.966	40.9055
526.716	41.2004
528.466	40.6309
530.215	39.8702
531.964	39.6304
533.712	38.7779
535.46	37.7073
537.208	37.4636
538.955	36.2149
540.703	35.1719
542.449	34.0506
544.196	33.221
545.942	31.2356
547.688	26.8368
549.433	23.2393
551.178	21.5503
552.923	22.0454
554.667	21.8598
556.412	22.7841
558.155	24.7977
559.899	27.3869
561.642	27.5629
563.385	28.6396
565.127	29.2378
566.867	29.4793
568.609	29.7776
570.35	30.3369
572.092	30.5071
573.832	29.2855
575.573	29.2107
577.313	29.7704
579.053	31.6169
580.79	30.6069
582.529	30.0643
584.268	30.1904
586.006	30.7265
587.745	30.0954
589.482	29.2694
591.218	28.0449
592.955	26.5227
594.692	25.1744
596.428	23.6555
598.164	22.6218
599.898	21.4364
601.634	22.1865
603.369	22.584
605.104	22.93
606.836	23.1609
608.57	22.945
610.304	21.8572
612.037	21.2838
613.769	20.621
615.501	19.4055
617.234	18.0146
618.966	17.1894
620.696	15.713
622.427	14.5794
624.159	13.6699
625.887	12.4484
627.618	11.7861
629.348	10.5669
631.076	10.0708
632.806	8.60817
634.535	7.03012
636.262	9.61714
637.99	13.5537
639.716	16.5641
641.444	17.0385
643.172	18.1843
644.897	19.5022
646.624	20.1097
648.348	20.2541
650.075	20.2081
651.801	20.991
653.524	21.537
655.249	21.4168
656.972	22.1715
658.697	22.488
660.419	22.9884
662.143	24.3728
663.865	25.2766
665.588	25.7275
667.309	24.0507
669.032	24.4832
670.752	25.658
672.474	25.3313
674.194	25.9578
675.915	26.687
677.634	27.2763
679.355	27.2233
681.073	28.3439
682.793	27.393
684.511	27.9108
686.23	27.6426
687.947	28.0058
689.664	27.6528
691.382	27.8212
693.098	27.3747
694.816	27.4859
696.531	26.5199
698.247	27.7466
699.963	27.8524
701.678	28.8018
703.392	29.3763
705.108	30.5038
706.821	30.9
708.534	31.3969
710.249	32.3519
711.962	32.301
713.674	33.1565
715.388	33.685
717.099	34.2678
718.81	34.4145
720.523	34.5091
722.234	35.0842
723.944	35.5123
725.654	34.7578
727.365	36.3284
729.075	36.822
730.784	36.8656
732.492	36.9426
734.202	37.6639
735.91	37.8206
737.618	39.4088
739.325	40.2101
741.034	40.8288
742.741	41.2974
744.447	40.339
746.153	41.8451
747.859	42.3838
749.564	43.5724
751.271	45.284
752.976	46.5373
754.681	48.9562
756.385	50.7905
758.088	52.8674
759.792	54.1436
761.495	54.9063
763.2	55.8489
764.902	56.281
766.604	57.116
768.306	56.3635
770.008	56.8156
771.709	57.584
773.41	59.3567
775.11	59.3042
776.811	60.6657
778.51	60.6846
780.21	61.472
781.909	63.1978
783.608	65.5462
785.307	65.8873
787.005	66.9977
788.703	68.0281
790.401	69.3481
792.098	69.8827
793.795	70.707
795.492	72.616
797.188	72.525
798.884	73.4609
800.58	73.9276
802.276	74.3952
803.971	76.2422
805.665	76.6279
807.36	76.7648
809.054	77.11
810.748	78.4635
812.441	80.2838
814.135	79.9631
815.826	79.9704
817.518	81.8326
819.21	82.717
820.902	82.9735
822.594	84.0096
824.285	84.4961
825.976	84.5107
827.665	84.9457
829.355	85.0389
831.045	86.1516
832.735	85.7333
834.424	86.5152
836.111	87.0354
837.8	87.095
839.488	87.4141
841.177	86.7869
842.864	86.1195
844.55	83.9288
846.237	83.3294
847.924	82.5983
849.61	81.3963
851.295	79.7637
852.98	77.9854
854.666	76.1016
856.349	75.7072
858.034	75.4136
859.719	74.5196
861.403	74.5914
863.085	72.9831
864.769	72.6134
866.452	72.0055
868.133	70.5044
869.816	69.5332
871.498	69.4959
873.179	69.1574
874.86	68.9421
876.54	67.7683
878.221	66.8553
879.902	66.7029
881.58	66.0302
883.26	66.3631
884.938	66.2678
886.618	66.989
888.297	66.0117
889.974	64.6827
891.653	65.0679
893.329	65.6301
895.007	66.4166
896.683	65.7633
898.36	65.9744
900.035	64.6702
901.712	65.4272
903.387	63.8422
905.063	62.8173
906.737	61.9878
908.412	60.573
910.085	60.4023
911.76	58.8313
913.433	56.9471
915.107	57.1771
916.779	57.0468
918.452	56.8465
920.124	57.1094
921.797	56.0222
923.467	55.3851
925.138	54.7524
926.81	54.8432
928.48	55.3821
930.151	55.291
931.82	53.7638
933.489	52.3964
935.16	50.7025
936.828	50.0714
938.496	48.7956
940.165	48.5884
941.833	47.2401
943.5	45.476
945.168	42.9035
946.834	40.4343
948.5	40.3505
950.168	40.2481
951.834	39.6333
953.499	39.6464
955.163	39.5685
956.83	38.8155
958.494	37.7929
960.158	35.2633
961.821	34.1926
963.487	34.4801
965.15	34.4523
966.812	33.088
968.474	32.6149
970.138	32.1733
971.8	31.1143
973.461	32.5763
975.123	33.2483
976.783	33.5126
978.446	33.0286
980.106	32.6198
981.766	32.4791
983.425	31.2482
985.084	31.3102
986.743	30.5483
988.402	30.4343
990.06	30.5658
991.72	31.163
993.378	31.1558
995.035	30.2602
996.692	31.0145
998.349	31.5824
1000.01	31.4569
1001.66	32.6474
1003.32	33.4936
1004.97	34.0488
1006.63	35.7368
1008.28	36.2415
1009.94	36.3765
1011.59	35.9079
1013.25	35.1885
1014.9	34.5165
1016.55	35.2059
1018.21	35.9936
1019.86	36.75
1021.51	37.5894
1023.16	37.8792
1024.81	39.283
1026.47	40.2178
1028.12	41.5449
1029.77	44.0906
1031.42	46.5403
1033.07	47.7901
1034.72	48.2724
1036.37	49.0965
1038.02	49.6511
1039.67	49.9396
1041.31	50.6826
1042.96	50.7767
1044.61	51.7944
1046.26	53.8954
1047.91	54.4038
1049.55	54.5021
1051.2	55.3136
1052.84	55.348
1054.49	55.0473
1056.14	54.351
1057.78	53.7904
1059.43	53.2941
1061.07	52.2732
1062.72	51.7368
1064.36	51.246
1066	50.3858
1067.65	49.3268
1069.29	47.9058
1070.93	47.0868
1072.58	46.6511
1074.22	45.3988
1075.86	44.0152
1077.5	43.4555
1079.14	42.0523
1080.78	41.0486
1082.42	41.5741
1084.06	40.8425
1085.7	39.0962
1087.34	37.9794
1088.98	35.9468
1090.62	34.7284
1092.26	33.8536
1093.9	34.8956
1095.54	34.4226
1097.17	34.4582
1098.81	36.2228
1100.45	36.8851
1102.09	37.6496
1103.72	37.6538
1105.36	38.4667
1106.99	39.2061
1108.63	38.5759
1110.27	38.5273
1111.9	39.2218
1113.53	38.4092
1115.17	37.9566
1116.8	37.241
1118.43	36.1724
1120.07	34.6833
1121.7	33.7955
1123.33	32.0189
1124.97	29.7725
1126.6	29.122
1128.23	28.8835
1129.86	27.3905
1131.49	25.3975
1133.12	24.4348
1134.75	22.8893
1136.38	21.0141
1138.01	20.5337
1139.64	20.0668
1141.27	18.7789
1142.9	17.3735
1144.53	15.7637
1146.16	14.8735
1147.78	13.2984
1149.41	12.7972
1151.04	11.5932
1152.67	11.1751
1154.29	9.14588
1155.92	8.02647
1157.54	6.52338
1159.17	4.60423
1160.8	2.59276
1162.42	1.70598
1164.05	1.88908
1165.67	0.346573
1167.29	-0.488018
1168.92	-0.63203
1170.54	-0.462974
1172.16	0.133246
1173.79	0.00801526
1175.41	0.841943
1177.03	0.320661
1178.65	1.96716
1180.28	3.47713
1181.9	3.23239
1183.52	3.71249
1185.14	3.96645
1186.76	5.09951
1188.38	4.87934
1190	5.40062
1191.62	6.57812
1193.24	7.82957
1194.86	7.49273
1196.47	7.22871
1198.09	7.21111
1199.71	7.29274
1201.33	8.58931
1202.95	9.53031
1204.56	10.2519
1206.18	12.2149
1207.8	13.8969
1209.41	15.425
1211.03	16.6567
1212.64	17.7325
1214.26	20.9139
1215.87	22.5555
1217.49	24.2726
1219.1	26.791
1220.71	28.278
1222.33	30.1785
1223.94	33.013
1225.55	35.3575
1227.16	37.3406
1228.78	38.9341
1230.39	40.3738
1232	41.4792
1233.61	43.0747
1235.22	44.6393
1236.83	46.7114
1238.44	48.1841
1240.05	50.7386
1241.66	53.1906
1243.27	56.2432
1244.88	59.7494
1246.49	60.9714
1248.1	62.7259
1249.71	65.0895
1251.32	66.2948
1252.92	67.1308
1254.53	68.3225
1256.14	70.358
1257.74	71.7949
1259.35	73.4233
1260.96	75.6465
1262.56	78.1528
1264.17	80.5869
1265.77	82.5216
1267.38	84.3651
1268.98	86.4469
1270.59	88.29
1272.19	89.3031
1273.79	90.434
1275.4	92.4391
1277	93.2046
1278.6	94.3955
1280.21	95.9983
1281.81	98.5049
1283.41	99.0004
1285.01	101.593
1286.61	103.387
1288.21	104.031
1289.81	106.356
1291.41	106.952
1293.01	109.008
1294.61	109.896
1296.21	109.829
1297.81	110.696
1299.41	111.071
1301.01	112.021
1302.6	112.228
1304.2	112.827
1305.8	112.728
1307.4	112.583
1308.99	112.758
1310.59	112.242
1312.19	113.273
1313.78	113.029
1315.38	112.623
1316.97	111.356
1318.57	111.93
1320.16	111.194
1321.76	110.3
1323.35	109.967
1324.94	109.325
1326.54	107.402
1328.13	105.822
1329.72	104.148
1331.32	101.807
1332.91	100.922
1334.5	99.6949
1336.09	98.5955
1337.68	97.4954
1339.27	97.3792
1340.87	96.0138
1342.45	94.9968
1344.04	92.683
1345.64	91.3869
1347.22	90.1948
1348.81	88.4617
1350.4	88.3343
1351.99	87.1755
1353.58	87.1094
1355.17	85.4117
1356.75	83.6327
1358.34	81.9935
1359.93	81.4615
1361.51	81.0925
1363.1	78.336
1364.69	77.8382
1366.27	76.3601
1367.86	75.8901
1369.44	76.1649
1371.03	75.7062
1372.61	75.1619
1374.2	73.9017
1375.78	73.8254
1377.37	73.9432
1378.95	72.2262
1380.53	71.8098
1382.11	70.9611
1383.7	70.573
1385.28	69.763
1386.86	68.5193
1388.44	68.3069
1390.02	67.6616
1391.6	67.1517
1393.19	65.6593
1394.77	64.787
1396.35	63.9541
1397.93	64.4849
1399.51	64.5382
1401.08	66.0053
1402.66	67.6419
1404.24	67.7354
1405.82	69.7244
1407.4	71.7145
1408.97	73.5855
1410.55	75.5355
1412.13	78.2589
1413.71	81.4743
1415.28	84.613
1416.86	87.6308
1418.43	90.9405
1420.01	94.7386
1421.59	100.565
1423.16	105.509
1424.73	111.406
1426.31	116.482
1427.88	123.235
1429.46	129.594
1431.03	133.798
1432.6	137.947
1434.18	141.795
1435.75	145.793
1437.32	148.903
1438.89	153.238
1440.46	156.086
1442.04	159.045
1443.61	162.296
1445.18	164.409
1446.75	166.914
1448.32	167.499
1449.89	167.321
1451.46	165.971
1453.03	165.095
1454.6	162.919
1456.16	160.383
1457.73	157.459
1459.3	155.611
1460.87	151.852
1462.44	148.097
1464	142.893
1465.57	137.834
1467.14	133.377
1468.7	127.448
1470.27	121.901
1471.83	116.146
1473.4	111.395
1474.96	106.411
1476.53	101.457
1478.09	97.0178
1479.66	92.2076
1481.22	86.3165
1482.78	80.6005
1484.35	77.3033
1485.91	71.856
1487.47	66.401
1489.04	62.8031
1490.6	59.5352
1492.16	57.0655
1493.72	53.056
1495.28	49.6631
1496.84	47.2001
1498.4	45.7759
1499.96	44.7573
1501.52	43.0967
1503.08	41.675
1504.64	39.7598
1506.2	38.8725
1507.76	36.2567
1509.32	30.546
1510.88	26.0262
1512.44	23.5413
1513.99	23.8656
1515.55	26.0683
1517.11	27.2913
1518.66	28.7193
1520.22	30.8976
1521.78	32.2351
1523.33	33.9065
1524.89	34.6034
1526.44	35.2235
1528	36.3628
1529.55	37.6284
1531.11	38.8908
1532.66	40.8822
1534.21	42.4258
1535.77	44.2059
1537.32	45.2832
1538.87	45.7169
1540.43	47.7536
1541.98	49.2106
1543.53	51.2402
1545.08	52.6601
1546.63	54.3206
1548.18	56.5205
1549.74	57.9844
1551.29	59.0215
1552.84	59.5699
1554.39	59.8322
1555.94	60.4521
1557.48	61.1806
1559.03	61.7197
1560.58	63.0358
1562.13	63.8076
1563.68	63.3435
1565.23	63.6418
1566.78	64.767
1568.32	64.6049
1569.87	64.8729
1571.42	63.5897
1572.96	63.3389
1574.51	64.3686
1576.05	65.8777
1577.6	65.4828
1579.14	64.735
1580.69	63.8645
1582.24	62.0875
1583.78	60.6436
1585.32	58.9061
1586.87	57.2441
1588.41	61.4909
1589.95	64.8484
1591.5	67.3626
1593.04	68.8222
1594.58	69.1965
1596.12	69.578
1597.67	69.0746
1599.21	69.5318
1600.75	67.8784
1602.29	67.0661
1603.83	67.7439
1605.37	68.1843
1606.91	68.4007
1608.45	68.5993
1609.99	69.1993
1611.53	68.0016
1613.07	67.9067
1614.6	67.8418
1616.14	68.8053
1617.68	70.0939
1619.22	70.8764
1620.75	71.316
1622.29	72.6613
1623.83	74.6674
1625.37	76.591
1626.9	78.1953
1628.44	79.4571
1629.97	80.4748
1631.51	82.2338
1633.04	83.6955
1634.58	86.13
1636.11	87.5788
1637.65	89.4204
1639.18	91.6462
1640.72	93.6688
1642.25	96.1186
1643.78	98.3525
1645.31	100.105
1646.85	101.531
1648.38	102.891
1649.91	104.825
1651.44	106.375
1652.97	106.107
1654.5	105.666
1656.03	105.717
1657.56	104.233
1659.1	102.818
1660.62	102.342
1662.15	101.128
1663.68	100.574
1665.21	99.9602
1666.74	97.2503
1668.27	94.9776
1669.8	92.9442
1671.32	89.5412
1672.85	86.0356
1674.38	83.0447
1675.91	80.0139
1677.43	75.8528
1678.96	73.5606
1680.49	70.2062
1682.01	66.3316
1683.54	62.0566
1685.06	59.3569
1686.59	55.9434
1688.11	51.9119
1689.64	49.3537
1691.16	46.8611
1692.68	43.9743
1694.21	41.9087
1695.73	39.924
1697.25	37.1649
1698.78	35.4718
1700.3	33.6087
1701.82	31.5535
1703.34	29.4532
1704.86	27.5237
1706.39	26.1111
1707.91	24.8828
1709.43	22.8909
1710.95	22.4451
1712.47	21.9407
1713.99	20.8187
1715.51	20.0971
1717.02	19.181
1718.54	17.4822
1720.06	16.1372
1721.58	15.3482
1723.1	14.5779
1724.62	14.3888
1726.13	13.3436
1727.65	12.6623
1729.17	12.251
1730.68	11.4487
1732.2	10.3373
1733.72	9.36802
1735.23	8.76285
1736.75	8.66988
1738.26	8.12681
1739.78	8.5785
1741.29	7.2919
1742.81	6.60423
1744.32	5.47922
1745.84	4.53748
1747.35	3.85366
1748.86	3.55873
1750.37	3.27678
1751.89	2.40781
1753.4	2.40739
1754.91	2.02279
1756.42	1.22428
1757.93	0.799755
1759.45	0.920165
1760.96	1.36874
1762.47	0.204349
1763.98	-0.197797
1765.49	0.215223
1767	-0.57322
1768.51	-0.960956
1770.02	-0.200079
1771.53	-0.579162
1773.03	-1.34094
1774.54	-0.55501
1776.05	-0.58069
1777.56	-0.274438
1779.07	0.209517
1780.57	0.0377582
1782.08	0.0416072
1783.59	0.0180331
1785.09	0.369835
1786.6	0.563315
1788.11	0.737795
1789.61	0.14026
1791.12	0.480859
1792.62	-0.0481096
1794.13	-0.0725115
1795.63	0.356128
1797.13	1.06051
1798.64	1.09571
1800.14	0.889108
1801.65	0.492986
1803.15	1.30951
1804.65	1.80941
1806.15	1.6485
1807.66	1.66634
1809.16	1.95646
1810.66	1.98403
1812.16	2.46931
1813.66	3.19398
1815.16	3.15333
1816.66	2.60189
1818.16	3.4016
1819.66	3.56864
1821.16	4.3578
1822.66	4.25811
1824.16	5.1838
1825.66	5.8454
1827.16	6.02281
1828.66	7.39483
1830.16	7.65849
1831.65	6.90846
1833.15	6.95513
1834.65	6.98119
1836.14	7.54841
1837.64	7.31039
1839.14	7.37073
1840.63	7.48195
1842.13	6.83695
1843.62	6.95594
1845.12	6.95822
1846.61	6.8113
1848.11	6.76177
1849.6	7.64267
1851.1	7.42921
1852.59	7.37765
1854.08	6.91818
1855.58	6.99422
1857.07	6.52058
1858.56	6.54374
1860.05	5.98696
1861.55	6.11776
1863.04	5.84428
1864.53	6.35505
1866.02	5.7267
1867.51	5.21025
1869	5.90899
1870.49	5.43346
1871.98	5.39342
1873.47	4.63449
1874.96	4.47388
1876.45	4.728
1877.94	4.97511
1879.43	4.75794
1880.92	4.64168
1882.41	4.00985
1882.51	3.76584
1884	3.63601
1885.5	3.59534
1886.99	3.51317
1888.48	3.59394
1889.98	3.25162
1891.47	4.27066
1892.96	4.87203
1894.46	4.47561
1895.95	4.94835
1897.44	5.54207
1898.93	6.37443
1900.42	6.36989
1901.91	7.67271
1903.41	7.32975
1904.9	6.77016
1906.39	7.58886
1907.88	7.96386
1909.37	8.02369
1910.86	7.99233
1912.35	8.30049
1913.83	8.36607
1915.32	7.53405
1916.81	7.87266
1918.3	7.63971
1919.79	7.84527
1921.27	7.9048
1922.76	7.9808
1924.25	7.28566
1925.74	7.0176
1927.22	7.27646
1928.71	7.48492
1930.19	6.89982
1931.68	7.1336
1933.17	7.12495
1934.65	7.35188
1936.14	7.7035
1937.62	8.35899
1939.11	6.64831
1940.59	7.14874
1942.07	6.84856
1943.56	5.73669
1945.04	5.27894
1946.52	4.41992
1948.01	4.50302
1949.49	3.47903
1950.97	3.41789
1952.45	2.92783
1953.93	2.63218
1955.42	1.94849
1956.9	1.9868
1958.38	1.60787
1959.86	1.78867
1961.34	2.33353
1962.82	1.69178
1964.3	1.14995
1965.78	2.31052
1967.26	2.01452
1968.74	2.02407
1970.21	2.38379
1971.69	1.81429
1973.17	2.14991
1974.65	1.75653
1976.13	1.53082
1977.6	1.25136
1979.08	0.775331
1980.56	0.878979
1982.03	0.993415
1983.51	0.613899
1984.99	0.487157
1986.46	-0.0174842
1987.94	-0.45625
1989.41	-0.332108
1990.89	0.739511
1992.36	0.230424
1993.84	0.597018
1995.31	0.629894
1996.78	0.540027
1998.26	0.862311
1999.73	0.959796
2001.2	1.34335
2002.68	0.603818
2004.15	0.882062
2005.62	1.31422
2007.09	2.11192
2008.56	2.91493
2010.04	3.58695
2011.51	3.97492
2012.98	3.9517
2014.45	4.21461
2015.92	4.2096
2017.39	4.76315
2018.86	5.27579
2020.33	5.28526
2021.8	6.06109
2023.26	6.49215
2024.73	7.74048
2026.2	7.59206
2027.67	8.51126
2029.14	8.22749
2030.61	8.74238
2032.07	8.26881
2033.54	8.70425
2035.01	8.32755
2036.47	7.65292
2037.94	8.2618
2039.4	8.84149
2040.87	8.32577
2042.33	8.82183
2043.8	9.05993
2045.27	8.69401
2046.73	8.81418
2048.19	9.22768
2049.66	9.26131
2051.12	10.0465
2052.59	10.1115
2054.05	10.1957
2055.51	10.3405
2056.97	10.704
2058.44	10.4721
2059.9	10.731
2061.36	10.9405
2062.82	11.8648
2064.28	12.5863
2065.74	12.2319
2067.21	12.7105
2068.67	12.4336
2070.13	12.2533
2071.59	12.805
2073.05	12.666
2074.51	13.4514
2075.96	13.5293
2077.42	14.155
2078.88	14.0408
2080.34	14.1637
2081.8	15.0249
2083.26	15.2985
2084.72	15.0874
2086.17	14.6198
2087.63	14.3957
2089.09	14.6717
2090.54	14.2985
2092	14.2285
2093.45	14.1419
2094.91	14.0084
2096.37	13.9695
2097.82	14.3019
2099.28	14.4439
2100.73	14.7703
2102.19	14.3245
2103.64	14.8104
2105.09	14.8832
2106.55	15.8773
2108	16.1073
2109.45	16.8102
2110.91	17.3764
2112.36	18.4663
2113.81	18.272
2115.26	18.8387
2116.72	19.3041
2118.17	18.8926
2119.62	20.6023
2121.07	21.992
2122.52	22.6894
2123.97	24.0753
2125.42	25.7154
2126.87	26.7647
2128.32	28.162
2129.77	30.561
2131.22	31.7114
2132.67	34.0907
2134.11	35.6821
2135.56	37.2733
2137.01	37.9832
2138.46	39.6551
2139.91	40.6283
2141.35	41.3553
2142.8	43.591
2144.25	45.4907
2145.7	46.6284
2147.14	47.6052
2148.59	47.8943
2150.03	48.7178
2151.48	49.6244
2152.92	50.5422
2154.37	51.5963
2155.81	52.0699
2157.26	52.8717
2158.7	54.0464
2160.15	54.9365
2161.59	56.0029
2163.03	57.6579
2164.47	58.7854
2165.92	59.8471
2167.36	60.5284
2168.8	61.7094
2170.24	62.9162
2171.69	63.789
2173.13	63.6792
2174.57	63.8928
2176.01	63.8545
2177.45	63.5777
2178.89	62.3184
2180.33	61.9264
2181.77	61.8061
2183.21	61.5054
2184.65	61.4038
2186.09	60.5339
2187.53	60.0974
2188.97	59.7883
2190.4	59.2923
2191.84	59.5915
2193.28	59.0457
2194.72	57.7791
2196.16	57.3284
2197.59	56.4375
2199.03	54.8461
2200.47	54.2702
2201.9	53.8697
2203.34	51.8949
2204.77	51.2714
2206.21	49.7742
2207.64	48.6821
2209.08	47.5421
2210.51	47.1004
2211.95	44.8091
2213.38	43.3575
2214.82	42.5565
2216.25	40.5546
2217.68	38.4429
2219.12	36.5592
2220.55	35.3118
2221.98	34.8584
2223.41	33.5601
2224.85	32.8629
2226.28	32.603
2227.71	31.8049
2229.14	31.0211
2230.57	30.2705
2232	29.4672
2233.43	28.9996
2234.86	28.5627
2236.29	27.163
2237.72	26.8002
2239.15	26.0194
2240.58	25.5106
2242.01	24.7693
2243.44	23.9977
2244.87	22.3521
2246.29	21.5479
2247.72	21.112
2249.15	20.3775
2250.58	19.6872
2252.01	20.2095
2253.43	19.1502
2254.86	18.7398
2256.29	17.7859
2257.71	17.2321
2259.14	16.5693
2260.56	16.5191
2261.99	16.3309
2263.41	16.0608
2264.84	15.9978
2266.26	15.5013
2267.69	15.5904
2269.11	15.3098
2270.53	14.7409
2271.96	15.2052
2273.38	14.5437
2274.8	14.3721
2276.23	13.8363
2277.65	12.6908
2279.07	11.6208
2280.49	11.1905
2281.91	10.4156
2283.34	9.65155
2284.76	9.06755
2286.18	9.16096
2287.6	9.12596
2289.02	8.86438
2290.44	8.17348
2291.86	7.75905
2293.28	7.32389
2294.7	7.10074
2296.12	7.82044
2297.54	7.85267
2298.96	7.88271
2300.37	8.04135
2301.79	8.82355
2303.21	8.74437
2304.63	9.21746
2306.04	9.12157
2307.46	9.12925
2308.88	10.1047
2310.3	10.3102
2311.71	10.6939
2313.13	11.1657
2314.54	11.8283
2315.96	11.5649
2317.37	11.658
2318.79	11.7778
2320.2	11.3781
2321.62	11.8165
2323.03	11.7454
2324.45	12.0119
2325.86	11.8683
2327.27	11.8357
2328.69	12.5079
2330.1	11.9926
2331.51	11.5715
2332.92	11.832
2334.34	11.9482
2335.75	11.9323
2337.16	11.3899
2338.57	11.1395
2339.98	10.4611
2341.39	9.65944
2342.8	9.21784
2344.21	8.35489
2345.63	8.10238
2347.04	7.32932
2348.45	7.29791
2349.85	6.95003
2351.26	6.58806
2352.67	5.86336
2354.08	6.02222
2355.49	5.72896
2356.9	5.96278
2358.3	5.47057
2359.71	4.90681
2361.12	4.43356
2362.53	4.63829
2363.93	5.21068
2365.34	6.43694
2366.75	6.49308
2368.15	6.85478
2369.56	6.8593
2370.97	6.40565
2372.37	6.92145
2373.77	6.44498
2375.18	6.19618
2376.59	6.78041
2377.99	7.32656
2379.39	8.46699
2380.8	8.74594
2382.2	8.7923
2383.6	8.65947
2385.01	9.04373
2386.41	9.01172
2387.81	9.21239
2389.21	9.36411
2390.62	9.12668
2392.02	8.73445
2393.42	8.74711
2394.82	9.22956
2396.22	8.83951
2397.62	9.51746
2399.02	10.4753
2400.42	9.87275
2401.82	10.0145
2403.22	10.7787
2404.62	11.054
2406.02	11.5263
2407.42	11.6011
2408.82	11.7357
2410.22	11.5105
2411.62	11.71
2413.01	12.0108
2414.41	11.9462
2415.81	12.2052
2417.21	12.351
2418.6	12.0958
2420	12.0337
2421.4	12.1348
2422.79	12.4174
2424.19	12.8208
2425.59	13.0076
2426.98	12.4991
2428.38	11.5855
2429.77	11.4296
2431.17	11.658
2432.56	11.7145
2433.95	11.8147
2435.35	11.7445
2436.74	11.26
2438.14	12.0159
2439.53	11.4842
2440.92	11.2794
2442.31	11.4762
2443.71	11.8001
2445.1	11.9695
2446.49	12.8065
2447.88	11.9914
2449.27	11.6382
2450.67	10.9248
2452.06	10.4176
2453.45	9.98579
2454.84	9.58778
2456.23	9.15695
2457.62	9.08902
2459.01	8.52608
2460.4	7.82893
2461.79	7.91282
2463.18	8.45703
2464.57	8.23942
2465.95	7.95254
2467.34	7.81502
2468.73	7.81429
2470.12	6.93641
2471.5	7.12215
2472.89	6.97756
2474.28	7.09279
2475.67	6.96462
2477.05	6.44886
2478.44	6.79988
2479.82	6.61643
2481.21	6.44512
2482.6	6.50846
2483.98	6.17014
2485.37	6.77573
2486.75	6.15692
2488.13	6.02599
2489.52	5.97935
2490.9	5.61263
2492.29	5.37504
2493.67	5.02532
2495.05	4.69335
2496.44	4.97471
2497.82	5.55127
2499.2	6.30424
2500.58	6.57477
2501.97	6.02168
2503.35	5.67932
2504.73	5.4659
2506.11	5.53135
2507.49	5.65209
2508.87	5.19842
2510.25	5.64968
2511.63	5.35888
2513.01	5.19373
2514.39	4.27943
2515.77	4.02491
2517.15	3.05238
2518.53	2.367
2519.91	2.30114
2521.29	2.01883
2522.67	1.57748
2524.05	1.63361
2525.42	1.67894
2526.8	1.52841
2528.18	0.356737
2529.55	0.0227623
2530.93	0.769939
2532.31	0.786684
2533.69	0.568822
2535.06	0.725253
2536.44	0.738664
2537.81	1.41221
2539.19	1.65346
2540.56	1.33006
2541.94	1.54004
2543.31	2.47801
2544.69	2.38782
2546.06	2.94848
2547.44	3.34136
2548.81	3.90035
2550.18	3.74002
2551.56	4.11886
2552.93	4.39902
2554.3	4.46042
2555.67	5.00837
2557.04	6.28538
2558.42	6.44435
2559.79	7.19311
2561.16	7.97708
2562.53	8.31052
2563.9	9.38431
2565.27	9.86865
2566.64	9.79225
2568.01	10.1295
2569.38	9.9661
2570.75	10.1156
2572.12	10.2627
2573.49	10.6993
2574.86	10.7522
2576.23	10.8159
2577.6	11.6593
2578.97	11.8678
2580.33	11.6821
2581.7	11.9852
2583.07	11.7631
2584.44	11.7075
2585.8	11.6889
2587.17	11.4072
2588.54	11.4429
2589.9	11.236
2591.27	11.1307
2592.64	10.3801
2594	10.7593
2595.37	10.6001
2596.73	10.2386
2598.1	10.5813
2599.46	10.3606
2600.83	9.84871
2602.19	9.48691
2603.55	9.03684
2604.92	8.96324
2606.28	8.30035
2607.64	7.56662
2609.01	7.24851
2610.37	7.10901
2611.73	6.62682
2613.09	6.01503
2614.46	6.07877
2615.82	5.75251
2617.18	6.08436
2618.54	5.15076
2619.9	5.58028
2621.26	5.62125
2622.62	6.00274
2623.98	5.98646
2625.34	5.7356
2626.7	5.10405
2628.06	5.18873
2629.42	5.36259
2630.78	5.24891
2632.14	5.64369
2633.5	5.07894
2634.86	5.7949
2636.21	5.86844
2637.57	6.01684
2638.93	6.08431
2640.29	6.15089
2641.64	6.71239
2643	6.7604
2644.36	7.71965
2645.71	8.0771
2647.07	8.01858
2648.43	8.56297
2649.78	8.95854
2651.14	9.36545
2652.49	9.77059
2653.85	10.2505
2655.2	9.82283
2656.56	10.0315
2657.91	10.354
2659.26	10.8894
2660.62	10.9037
2661.97	11.2805
2663.32	10.6772
2664.68	11.096
2666.03	10.808
2667.38	10.6373
2668.74	11.1248
2670.09	10.7482
2671.44	11.3352
2672.79	11.7283
2674.14	11.3148
2675.49	12.2411
2676.84	12.2577
2678.19	11.9294
2679.54	11.774
2680.89	12.3172
2682.24	12.5701
2683.59	12.9777
2684.94	13.1423
2686.29	12.8405
2687.64	13.1368
2688.99	13.767
2690.34	13.4854
2691.69	13.6285
2693.03	13.9593
2694.38	13.0861
2695.73	13.2002
2697.08	13.6298
2698.42	13.5562
2699.77	13.7703
2701.12	14.4198
2702.46	14.9298
2703.81	15.1398
2705.15	15.6469
2706.5	15.559
2707.85	15.5817
2709.19	15.6832
2710.54	15.6465
2711.88	16.0864
2713.22	15.9752
2714.57	16.1935
2715.91	16.7489
2717.26	16.5038
2718.6	16.247
2719.94	15.4863
2721.29	15.698
2722.63	15.4937
2723.97	15.0745
2725.31	15.1151
2726.66	14.4579
2728	14.2722
2729.34	14.0197
2730.68	13.9556
2732.02	13.719
2733.36	13.3499
2734.7	13.5755
2736.04	13.7811
2737.38	13.7017
2738.72	14.4755
2740.06	13.9372
2741.4	13.3566
2742.74	12.9786
2744.08	12.5657
2745.42	13.0313
2746.76	12.9723
2748.09	13.432
2749.43	12.9312
2750.77	12.3569
2752.11	11.714
2753.45	11.9724
2754.78	12.1432
2756.12	12.0159
2757.46	10.9708
2758.79	10.7989
2760.13	9.86821
2761.46	9.97425
2762.8	9.62027
2764.14	9.65314
2765.47	8.9537
2766.8	8.99785
2768.14	8.56332
2769.47	7.69813
2770.81	7.32245
2772.14	6.73712
2773.48	5.6031
2774.81	5.06101
2776.14	4.56767
2777.48	4.42531
2778.81	3.7552
2780.14	2.99878
2781.47	2.93563
2782.8	2.98409
2784.14	2.59595
2785.47	2.11813
2786.8	1.88895
2788.13	1.72626
2789.46	0.933155
2790.79	0.35842
2792.12	0.336678
2793.45	-0.501279
2794.78	-0.317887
2796.11	-0.234481
2797.44	-0.503974
2798.77	-0.641207
2800.1	-0.644646
2801.43	-0.639958
2802.76	-0.442289
2804.09	-0.950458
2805.41	-1.57562
2806.74	-2.38443
2808.07	-2.26985
2809.4	-2.15429
2810.72	-2.4127
2812.05	-2.39803
2813.38	-2.90132
2814.71	-2.93285
2816.03	-2.82711
2817.36	-1.71087
2818.68	0.0711731
2820.01	2.57725
2821.33	4.37015
2822.66	7.06252
2823.98	9.7628
2825.31	13.5559
2826.63	17.1588
2827.96	21.9757
2829.28	26.2233
2830.6	31.6718
2831.93	36.3025
2833.25	41.5721
2834.57	46.6803
2835.9	51.9833
2837.22	57.5851
2838.54	63.2213
2839.86	68.9115
2841.18	75.1999
2842.5	81.6837
2843.83	88.6243
2845.15	95.9973
2846.47	103.976
2847.79	111.657
2849.11	118.336
2850.43	125.875
2851.75	133.124
2853.07	140.593
2854.39	147.751
2855.71	154.839
2857.03	161.636
2858.35	169.047
2859.66	175.711
2860.98	182.999
2862.3	189.359
2863.62	194.932
2864.94	200.706
2866.25	206.716
2867.57	211.206
2868.89	215.624
2870.2	219.312
2871.52	223.403
2872.84	227.799
2874.15	231.262
2875.47	233.434
2876.78	236.29
2878.1	239.971
2879.41	243.909
2880.73	247.741
2882.04	250.92
2883.36	254.566
2884.67	258.56
2885.99	261.521
2887.3	265.112
2888.61	268.541
2889.93	272.178
2891.24	275.878
2892.55	279.359
2893.86	284.044
2895.18	286.465
2896.49	290.218
2897.8	293.464
2899.11	296.762
2900.42	299.931
2901.73	302.517
2903.05	306.322
2904.36	310.436
2905.67	316.133
2906.98	321.637
2908.29	327.846
2909.6	333.58
2910.91	339.492
2912.21	344.907
2913.52	350.039
2914.83	355.632
2916.14	361.796
2917.45	366.502
2918.76	371.155
2920.07	375.951
2921.37	379.903
2922.68	383.519
2923.99	386.833
2925.29	388.36
2926.6	390.2
2927.91	390.528
2929.22	391.411
2930.52	390.549
2931.83	388.745
2933.13	386.153
2934.44	384.301
2935.74	381.558
2937.05	378.076
2938.35	374.463
2939.66	370.026
2940.96	365.776
2942.26	361.721
2943.57	357.389
2944.87	351.926
2946.18	344.317
2947.48	336.628
2948.78	329.428
2950.08	322.683
2951.39	314.336
2952.69	306.975
2953.99	299.425
2955.29	293.02
2956.59	285.346
2957.9	277.488
2959.2	270.075
2960.5	261.48
2961.8	253.705
2963.1	245.11
2964.4	237.238
2965.7	230.02
2967	223.181
2968.3	217.325
2969.6	211.203
2970.9	205.252
2972.19	198.109
2973.49	191.612
2974.79	184.685
2976.09	178.307
2977.39	172.497
2978.68	166.034
2979.98	159.814
2981.28	153.758
2982.58	146.8
2983.87	140.579
2985.17	134.102
2986.47	127.132
2987.76	120.192
2989.06	113.675
2990.35	107.135
2991.65	101.487
2992.94	95.0764
2994.24	88.816
2995.53	81.5779
2996.83	76.1023
2998.12	70.7119
2999.42	65.5899
3000.71	60.483
3002	55.5394
3003.3	51.7547
3004.59	47.7474
3005.88	43.3206
3007.18	39.4704
3008.47	35.6651
3009.76	31.0963
3011.05	26.9907
3012.34	23.8069
3013.64	21.3792
3014.93	19.1097
3016.22	16.8573
3017.51	15.0424
3018.8	13.4127
3020.09	11.6538
3021.38	9.12122
3022.67	7.33687
3023.96	6.16979
3025.25	4.23747
3026.54	2.70584
3027.83	2.35131
3029.12	1.68096
3030.41	0.399964
3031.69	-0.479599
3032.98	-0.423848
3034.27	-0.717081
3035.56	-1.10186
3036.84	-1.30349
3038.13	-0.979701
3039.42	-0.391223
3040.71	0.671126
3041.99	1.57497
3043.28	2.15143
3044.57	2.83113
3045.85	3.27482
3047.14	3.92085
3048.42	4.42576
3049.71	4.72499
3050.99	4.66156
3052.28	4.80947
3053.56	5.36989
3054.85	5.1979
3056.13	5.1643
3057.41	4.62197
3058.7	4.1667
3059.98	4.51325
3061.26	4.93216
3062.55	4.94957
3063.83	5.17184
3065.11	5.11462
3066.39	5.12159
3067.68	5.35801
3068.96	5.11322
3070.24	4.74557
3071.52	5.04918
3072.8	5.57865
3074.08	4.8335
3075.36	4.37855
3076.65	3.92134
3077.93	3.8899
3079.21	2.92367
3080.49	2.62922
3081.77	1.71391
3083.04	1.19609
3084.32	0.688057
3085.6	0.291193
3086.88	0.202108
3088.16	0.203065
3089.44	-0.0515959
3090.72	-0.683524
3091.99	-0.0495574
3093.27	-0.18983
3094.55	-0.237824
3095.83	0.0110121
3097.1	0.580632
3098.38	0.47126
3099.66	0.833475
3100.93	1.4141
3102.21	1.86204
3103.49	2.43493
3104.76	2.90449
3106.04	3.05493
3107.31	3.58479
3108.59	3.46741
3109.86	3.86832
3111.14	4.57316
3112.41	4.68611
3113.69	5.13231
3114.96	5.9865
3116.23	7.29058
3117.51	8.77966
3118.78	9.51182
3120.05	10.7848
3121.33	12.0569
3122.6	13.2144
3123.87	14.8216
3125.14	15.7595
3126.41	17.1015
3127.69	18.2603
3128.96	19.5458
3130.23	20.9823
3131.5	22.5961
3132.77	24.4041
3134.04	26.2103
3135.31	28.0973
3136.58	29.7746
3137.85	30.0231
3139.12	31.8196
3140.39	33.4321
3141.66	35.2826
3142.93	37.0604
3144.2	39.0964
3145.47	40.9534
3146.74	42.8008
3148	44.4629
3149.27	44.9362
