#Acq. time (s)=	45
#Accumulations=	2
#Range (cm-¹)=	200...3150
#Windows=	2
#Auto scanning=	Off
#Autofocus=	Off
#Macrospot=	Off
#AutoExposure=	Off
#Spike filter=	Multiple accum.
#Delay time (s)=	0
#Binning=	1
#Readout mode=	Signal
#DeNoise=	Off
#ICS correction=	On
#Dark correction=	Off
#Inst. Process=	Off
#Detector Gain=	Best Dynamic Range
#Detector ADC=	20 kHz       
#Detector temperature (°C)=	-69.85
#Instrument=	LabRAM HR Evol
#Detector=	Synapse
#Objective=	x50
#Grating=	600 gr/mm
#ND Filter=	100%
#Laser (nm)=	532 
#Hole=	100.021
#Range=	Auto
#Laser Pol.=	No
#Raman. Pol.=	No
#Laser Pol. (°)=	-0.0007625
#Raman Pol. (°)=	89.9995
#Collection=	Microscope
#StageXY=	Marzhauser
#StageZ=	Marzhauser
#X (µm)=	-7000.6
#Y (µm)=	2174.2
#Z (µm)=	-74.5
#Full time(mm:ss)=	3:20
#Project=	
#Sample=	
#Site=	
#Title=	Mb_20_23_01_2x_45s_532 nm_x50_100%_600 gr_mm
#Remark=	
#Date=	13.07.2022 12:58
#Acquired=	13.07.2022 12:58:03
#Edit:Spike=	13.07.2022 12:59:55
#Base:Fit=	10.08.2022 10:29:19
#Base:Fit=	10.08.2022 10:29:37
#Base:Sub=	10.08.2022 10:31:46
#Filter:Polynom=	16.08.2022 10:13:29
#AxisType[0]=Intens
#AxisUnit[0]=Cnt
#AxisType[1]=Spectr
#AxisUnit[1]=1/cm
200.563	10.1635
202.377	8.98145
204.194	8.99651
206.008	8.81744
207.821	8.95333
209.634	8.91765
211.449	9.23018
213.262	10.1593
215.074	10.779
216.885	11.9471
218.699	11.3024
220.51	11.9251
222.321	12.6416
224.131	12.7739
225.941	14.1144
227.751	12.8447
229.562	14.0789
231.371	14.8579
233.18	14.8314
234.988	14.7227
236.796	16.7006
238.603	16.4045
240.411	17.0635
242.219	18.0987
244.026	18.8033
245.832	18.9798
247.638	19.7937
249.443	19.6623
251.248	19.601
253.053	19.9803
254.857	19.3549
256.661	19.7245
258.465	19.273
260.268	18.4734
262.071	19.2449
263.874	20.5696
265.678	19.7733
267.48	19.4206
269.282	17.5022
271.083	16.934
272.884	15.7866
274.684	15.4373
276.484	15.0047
278.284	13.6246
280.084	12.6977
281.883	11.7789
283.682	10.3735
285.48	9.85841
287.276	10.1854
289.074	10.2459
290.871	9.21154
292.668	10.0851
294.465	10.0272
296.261	10.2719
298.057	10.5326
299.853	11.7445
301.648	11.7921
303.443	13.0268
305.237	12.9808
307.032	13.9476
308.823	14.3887
310.617	16.3945
312.41	18.9762
314.203	20.2043
315.995	22.0417
317.788	22.2436
319.579	25.0275
321.369	25.7395
323.16	27.1202
324.951	28.6626
326.741	31.9221
328.531	32.878
330.321	35.3482
332.108	36.512
333.897	37.6574
335.686	38.5073
337.474	39.1566
339.26	39.2965
341.048	39.2343
342.835	39.601
344.622	39.4509
346.406	39.5776
348.192	38.7228
349.978	38.3151
351.764	38.1785
353.547	37.0057
355.332	35.9369
357.116	35.394
358.901	35.0274
360.682	35.4619
362.466	35.9072
364.249	35.2692
366.03	35.7831
367.812	34.5686
369.594	34.1294
371.374	33.5181
373.155	33.3853
374.936	34.3997
376.715	33.2319
378.495	33.3963
380.273	33.4573
382.053	34.1459
383.832	34.5762
385.609	35.2411
387.388	35.5929
389.164	35.3267
390.942	35.1612
392.72	36.8148
394.495	36.5374
396.272	37.0489
398.047	37.3086
399.823	37.0746
401.597	38.3154
403.372	36.4857
405.145	36.9569
406.92	37.4871
408.693	38.263
410.467	38.9926
412.239	39.0796
414.012	38.6731
415.783	39.065
417.556	37.765
419.327	37.5141
421.099	36.741
422.869	36.3916
424.64	34.6304
426.409	33.4617
428.18	32.884
429.948	32.1464
431.718	32.5258
433.486	31.4555
435.253	30.3135
437.022	30.2201
438.789	29.6967
440.558	28.8764
442.324	28.9588
444.089	29.3457
445.857	29.2961
447.622	30.197
449.386	30.769
451.153	30.9619
452.917	29.6142
454.682	29.5215
456.446	28.4556
458.208	29.6253
459.973	30.4407
461.735	31.2051
463.497	32.6528
465.259	32.8212
467.022	34.0985
468.783	34.876
470.544	36.0606
472.306	37.2955
474.066	38.6643
475.825	39.5126
477.585	41.1267
479.346	42.8882
481.104	44.069
482.862	45.1529
484.62	47.0383
486.38	48.9819
488.137	51.0393
489.894	52.8152
491.65	53.0767
493.407	55.1392
495.164	55.9749
496.92	56.195
498.675	56.8416
500.43	55.3134
502.184	56.8512
503.939	56.9498
505.694	57.4961
507.448	58.8761
509.201	59.1547
510.954	59.1382
512.706	58.611
514.459	60.1276
516.21	61.719
517.962	62.5822
519.715	62.474
521.466	62.3164
523.216	62.8031
524.966	63.4349
526.716	63.7336
528.466	64.2772
530.215	64.1609
531.964	63.2922
533.712	62.3342
535.46	61.7193
537.208	61.1236
538.955	60.1871
540.703	59.495
542.449	59.4593
544.196	59.3309
545.942	59.8127
547.688	58.9111
549.433	59.5605
551.178	57.9863
552.923	55.8451
554.667	54.4353
556.412	54.4663
558.155	54.6454
559.899	53.8128
561.642	53.6901
563.385	52.7227
565.127	51.3878
566.867	49.5225
568.609	47.6589
570.35	46.226
572.092	43.5944
573.832	41.2099
575.573	38.1834
577.313	34.4272
579.053	32.2241
580.79	30.2307
582.529	28.0683
584.268	26.575
586.006	25.2665
587.745	23.2783
589.482	23.7432
591.218	21.5662
592.955	21.8149
594.692	21.5873
596.428	19.4568
598.164	18.426
599.898	17.8039
601.634	19.1018
603.369	19.5794
605.104	18.8461
606.836	19.2661
608.57	18.4832
610.304	18.3314
612.037	18.1387
613.769	18.9151
615.501	18.5598
617.234	18.627
618.966	18.8664
620.696	19.7727
622.427	20.2847
624.159	22.5011
625.887	22.6354
627.618	23.4642
629.348	24.2389
631.076	24.6729
632.806	25.3479
634.535	24.2658
636.262	23.6667
637.99	22.4049
639.716	22.0764
641.444	21.5506
643.172	21.9854
644.897	21.3372
646.624	21.0339
648.348	19.9913
650.075	18.5213
651.801	16.3871
653.524	15.6957
655.249	14.3351
656.972	13.1154
658.697	11.6474
660.419	11.0633
662.143	9.55215
663.865	9.99
665.588	10.7722
667.309	10.945
669.032	11.3246
670.752	13.0189
672.474	12.7174
674.194	12.242
675.915	13.0969
677.634	13.2859
679.355	13.6574
681.073	13.7212
682.793	14.2434
684.511	15.3618
686.23	15.8483
687.947	17.6079
689.664	18.9554
691.382	18.7644
693.098	19.1838
694.816	19.9546
696.531	23.0043
698.247	25.32
699.963	27.1611
701.678	28.0621
703.392	30.3057
705.108	31.3426
706.821	33.4785
708.534	34.3968
710.249	35.5865
711.962	35.6707
713.674	36.3118
715.388	36.3163
717.099	35.8223
718.81	35.8448
720.523	35.4203
722.234	35.4037
723.944	35.272
725.654	34.6406
727.365	34.5731
729.075	34.3345
730.784	34.8131
732.492	34.7304
734.202	34.6492
735.91	34.8143
737.618	34.8463
739.325	35.9111
741.034	35.794
742.741	36.6678
744.447	36.9872
746.153	38.1986
747.859	38.9548
749.564	40.3085
751.271	41.202
752.976	42.3529
754.681	44.1216
756.385	45.4376
758.088	46.3072
759.792	47.7763
761.495	50.4458
763.2	51.7752
764.902	53.2787
766.604	54.6829
768.306	55.9286
770.008	57.5083
771.709	59.5276
773.41	61.637
775.11	62.8542
776.811	63.4549
778.51	65.2968
780.21	66.9604
781.909	67.5205
783.608	68.179
785.307	68.5395
787.005	69.1524
788.703	70.2443
790.401	71.4558
792.098	71.9266
793.795	71.7149
795.492	73.1197
797.188	73.7626
798.884	73.4274
800.58	73.7793
802.276	74.2617
803.971	74.714
805.665	75.3222
807.36	74.9749
809.054	76.5279
810.748	75.8655
812.441	76.925
814.135	77.1977
815.826	78.6985
817.518	78.5339
819.21	79.223
820.902	79.6473
822.594	80.3101
824.285	81.5173
825.976	81.6197
827.665	81.0903
829.355	81.1312
831.045	81.8195
832.735	81.0869
834.424	82.2282
836.111	82.4668
837.8	82.3561
839.488	81.1825
841.177	81.2499
842.864	81.8891
844.55	81.2499
846.237	81.1827
847.924	79.7999
849.61	79.6026
851.295	78.8759
852.98	78.4055
854.666	77.1025
856.349	75.2549
858.034	74.1335
859.719	73.8351
861.403	72.7145
863.085	71.7126
864.769	71.0328
866.452	70.3936
868.133	70.8123
869.816	70.0578
871.498	70.4176
873.179	71.0395
874.86	70.0617
876.54	68.6075
878.221	68.6002
879.902	68.1603
881.58	66.3494
883.26	66.5751
884.938	65.7045
886.618	66.5484
888.297	65.7356
889.974	65.7198
891.653	65.0997
893.329	65.3691
895.007	64.4155
896.683	65.8095
898.36	64.6841
900.035	65.2828
901.712	64.4158
903.387	65.4559
905.063	66.1479
906.737	66.4253
908.412	66.3074
910.085	64.7029
911.76	64.2359
913.433	65.2282
915.107	65.3848
916.779	65.4901
918.452	65.1343
920.124	64.6803
921.797	64.6096
923.467	63.6059
925.138	64.6716
926.81	63.55
928.48	62.5052
930.151	61.9096
931.82	60.5573
933.489	59.749
935.16	57.9875
936.828	56.4594
938.496	54.9717
940.165	54.1531
941.833	53.4508
943.5	52.1292
945.168	49.6895
946.834	49.7236
948.5	48.5963
950.168	48.2813
951.834	48.2079
953.499	47.1071
955.163	46.8861
956.83	45.1955
958.494	41.5532
960.158	39.4295
961.821	36.9791
963.487	37.0654
965.15	38.5693
966.812	39.8633
968.474	40.7724
970.138	43.0117
971.8	45.0382
973.461	47.2369
975.123	48.7387
976.783	49.8186
978.446	51.045
980.106	51.6423
981.766	52.8117
983.425	54.7544
985.084	54.2568
986.743	55.4423
988.402	56.7773
990.06	55.7508
991.72	55.2335
993.378	53.2415
995.035	54.6821
996.692	55.314
998.349	55.4496
1000.01	54.077
1001.66	51.6625
1003.32	50.9242
1004.97	50.7721
1006.63	50.894
1008.28	53.1159
1009.94	55.1115
1011.59	58.4385
1013.25	62.1756
1014.9	64.9219
1016.55	67.6138
1018.21	70.8301
1019.86	75.3617
1021.51	78.2857
1023.16	82.1225
1024.81	84.9169
1026.47	87.4725
1028.12	91.6864
1029.77	95.4831
1031.42	96.6576
1033.07	99.4025
1034.72	101.539
1036.37	102.656
1038.02	103.42
1039.67	105.382
1041.31	106.758
1042.96	110.876
1044.61	114.185
1046.26	118.054
1047.91	119.386
1049.55	120.599
1051.2	121.083
1052.84	121.359
1054.49	120.334
1056.14	117.316
1057.78	113.922
1059.43	111.64
1061.07	108.744
1062.72	105.434
1064.36	102.349
1066	98.2904
1067.65	94.3331
1069.29	91.3122
1070.93	87.8877
1072.58	82.3001
1074.22	78.4565
1075.86	73.6856
1077.5	70.9652
1079.14	65.9587
1080.78	61.91
1082.42	58.7704
1084.06	56.5267
1085.7	56.7381
1087.34	56.6962
1088.98	56.6268
1090.62	57.8225
1092.26	59.1394
1093.9	59.5058
1095.54	58.8568
1097.17	58.1106
1098.81	57.9494
1100.45	59.1537
1102.09	59.3423
1103.72	58.5678
1105.36	58.4364
1106.99	58.4945
1108.63	58.8133
1110.27	58.825
1111.9	57.2434
1113.53	56.2437
1115.17	57.8522
1116.8	57.2848
1118.43	56.9436
1120.07	56.4747
1121.7	56.8373
1123.33	56.0509
1124.97	54.8611
1126.6	52.1608
1128.23	52.0828
1129.86	50.1078
1131.49	49.0303
1133.12	47.5883
1134.75	45.237
1136.38	42.8701
1138.01	41.0442
1139.64	39.1031
1141.27	38.5551
1142.9	37.1057
1144.53	36.3623
1146.16	35.3611
1147.78	33.3556
1149.41	31.5628
1151.04	29.577
1152.67	26.2093
1154.29	21.787
1155.92	19.1394
1157.54	16.803
1159.17	14.878
1160.8	14.0747
1162.42	12.4948
1164.05	11.2137
1165.67	9.38972
1167.29	9.46255
1168.92	9.26072
1170.54	10.049
1172.16	9.84079
1173.79	10.0005
1175.41	9.1968
1177.03	9.38351
1178.65	9.9947
1180.28	10.115
1181.9	10.3949
1183.52	10.759
1185.14	11.3321
1186.76	11.8139
1188.38	12.1325
1190	12.0966
1191.62	12.8363
1193.24	13.7908
1194.86	16.3007
1196.47	18.9579
1198.09	19.2784
1199.71	22.7071
1201.33	24.3809
1202.95	26.9016
1204.56	28.505
1206.18	31.0131
1207.8	34.0404
1209.41	38.9316
1211.03	42.0451
1212.64	46.2463
1214.26	49.7388
1215.87	53.3166
1217.49	57.4044
1219.1	61.7074
1220.71	64.7591
1222.33	69.3287
1223.94	72.9458
1225.55	76.1103
1227.16	79.1721
1228.78	81.7415
1230.39	84.9225
1232	87.0174
1233.61	89.5966
1235.22	94.3038
1236.83	98.8093
1238.44	102.32
1240.05	106.005
1241.66	109.314
1243.27	110.727
1244.88	114.164
1246.49	117.48
1248.1	121.327
1249.71	123.204
1251.32	124.333
1252.92	125.542
1254.53	128.179
1256.14	129.46
1257.74	131.38
1259.35	131.93
1260.96	133.302
1262.56	135.961
1264.17	137.761
1265.77	140.542
1267.38	142.668
1268.98	145.254
1270.59	149.063
1272.19	152.077
1273.79	155.717
1275.4	160.131
1277	162.472
1278.6	164.999
1280.21	168.018
1281.81	170.873
1283.41	174.304
1285.01	177.649
1286.61	182.146
1288.21	184.706
1289.81	188.573
1291.41	190.585
1293.01	191.665
1294.61	193.209
1296.21	194.433
1297.81	195.156
1299.41	195.559
1301.01	195.892
1302.6	197.732
1304.2	198.805
1305.8	199.288
1307.4	200.122
1308.99	200.619
1310.59	200.838
1312.19	201.454
1313.78	202.225
1315.38	202.527
1316.97	201.881
1318.57	201.617
1320.16	201.608
1321.76	201.121
1323.35	199.274
1324.94	197.936
1326.54	196.004
1328.13	194.405
1329.72	190.98
1331.32	188.932
1332.91	186.831
1334.5	184.538
1336.09	182.357
1337.68	180.337
1339.27	178.661
1340.87	177.772
1342.45	176.661
1344.04	173.847
1345.64	171.624
1347.22	169.121
1348.81	167.587
1350.4	165.934
1351.99	164.138
1353.58	161.585
1355.17	159.547
1356.75	157.168
1358.34	154.015
1359.93	152.996
1361.51	152.279
1363.1	150.842
1364.69	149.224
1366.27	146.864
1367.86	144.599
1369.44	143.392
1371.03	141.188
1372.61	139.614
1374.2	138.425
1375.78	137.144
1377.37	136.252
1378.95	135.509
1380.53	134.16
1382.11	134.477
1383.7	133.96
1385.28	134.506
1386.86	135.449
1388.44	136.51
1390.02	136.826
1391.6	136.579
1393.19	137.141
1394.77	137.469
1396.35	137.62
1397.93	137.996
1399.51	138.376
1401.08	138.197
1402.66	137.531
1404.24	139.562
1405.82	142.483
1407.4	144.773
1408.97	147.649
1410.55	152.904
1412.13	156.991
1413.71	161.379
1415.28	168.311
1416.86	173.598
1418.43	181.238
1420.01	187.885
1421.59	194.364
1423.16	201.926
1424.73	210.575
1426.31	219.292
1427.88	228.246
1429.46	237.252
1431.03	244.927
1432.6	253.023
1434.18	262.043
1435.75	269.044
1437.32	275.278
1438.89	282.786
1440.46	287.475
1442.04	291.851
1443.61	295.372
1445.18	296.79
1446.75	299.631
1448.32	300.253
1449.89	299.927
1451.46	298.807
1453.03	296.039
1454.6	292.626
1456.16	288.671
1457.73	284.316
1459.3	278.886
1460.87	274.226
1462.44	268.128
1464	261.287
1465.57	253.256
1467.14	243.903
1468.7	233.552
1470.27	223.693
1471.83	214.637
1473.4	204.174
1474.96	194.102
1476.53	184.213
1478.09	173.806
1479.66	165.176
1481.22	156.274
1482.78	148.868
1484.35	140.146
1485.91	131.813
1487.47	124.741
1489.04	117.517
1490.6	109.298
1492.16	103.993
1493.72	99.565
1495.28	94.5454
1496.84	91.1458
1498.4	86.4146
1499.96	82.7155
1501.52	79.4385
1503.08	76.1076
1504.64	73.1194
1506.2	70.6643
1507.76	67.7313
1509.32	64.5642
1510.88	61.6958
1512.44	59.5737
1513.99	56.2425
1515.55	54.3861
1517.11	52.6568
1518.66	51.5922
1520.22	49.884
1521.78	49.4654
1523.33	48.0598
1524.89	49.1657
1526.44	47.8789
1528	47.5432
1529.55	46.9319
1531.11	46.693
1532.66	47.5544
1534.21	48.8302
1535.77	50.3225
1537.32	51.6057
1538.87	53.4004
1540.43	55.4761
1541.98	57.1513
1543.53	60.337
1545.08	62.5396
1546.63	65.1832
1548.18	68.3539
1549.74	69.7114
1551.29	71.7725
1552.84	73.0607
1554.39	74.8326
1555.94	77.1867
1557.48	78.7412
1559.03	79.4333
1560.58	80.4488
1562.13	82.6231
1563.68	84.6478
1565.23	86.6919
1566.78	89.5074
1568.32	92.2319
1569.87	96.279
1571.42	97.0364
1572.96	100.302
1574.51	102.812
1576.05	104.857
1577.6	107.623
1579.14	110.753
1580.69	112.673
1582.24	116.248
1583.78	118.39
1585.32	120.618
1586.87	122.506
1588.41	124.874
1589.95	128.351
1591.5	129.809
1593.04	132.063
1594.58	133.248
1596.12	134.308
1597.67	133.682
1599.21	134.963
1600.75	134.782
1602.29	135.107
1603.83	134.871
1605.37	134.97
1606.91	135.059
1608.45	134.935
1609.99	135.548
1611.53	137.472
1613.07	137.445
1614.6	138.604
1616.14	140.734
1617.68	142.373
1619.22	143.417
1620.75	145.376
1622.29	146.349
1623.83	148.709
1625.37	151.312
1626.9	152.322
1628.44	155.116
1629.97	157.565
1631.51	160.896
1633.04	164.57
1634.58	167.604
1636.11	173.016
1637.65	176.554
1639.18	181.097
1640.72	184.631
1642.25	188.476
1643.78	193.255
1645.31	196.261
1646.85	199.666
1648.38	202.472
1649.91	205.828
1651.44	206.848
1652.97	208.73
1654.5	210.258
1656.03	210.858
1657.56	210.099
1659.1	210.721
1660.62	208.625
1662.15	205.72
1663.68	203.567
1665.21	199.202
1666.74	194.598
1668.27	189.587
1669.8	184.032
1671.32	177.45
1672.85	171.189
1674.38	164.761
1675.91	159.417
1677.43	153.271
1678.96	146.606
1680.49	139.775
1682.01	132.938
1683.54	125.499
1685.06	117.946
1686.59	112.343
1688.11	105.004
1689.64	98.0723
1691.16	93.2984
1692.68	87.3453
1694.21	80.8057
1695.73	75.3639
1697.25	71.2447
1698.78	67.3032
1700.3	63.5423
1701.82	58.8912
1703.34	55.0037
1704.86	52.5151
1706.39	50.6821
1707.91	48.3759
1709.43	45.4111
1710.95	42.7973
1712.47	40.8734
1713.99	37.0852
1715.51	35.905
1717.02	34.6038
1718.54	33.2749
1720.06	31.9716
1721.58	29.5961
1723.1	29.195
1724.62	28.0325
1726.13	25.9033
1727.65	25.9044
1729.17	25.5186
1730.68	24.854
1732.2	24.1846
1733.72	23.2533
1735.23	21.6586
1736.75	19.9867
1738.26	18.3248
1739.78	16.9918
1741.29	15.5656
1742.81	15.7275
1744.32	14.602
1745.84	13.3496
1747.35	12.6542
1748.86	12.3656
1750.37	12.1237
1751.89	11.9276
1753.4	11.4525
1754.91	10.2938
1756.42	9.65233
1757.93	9.37454
1759.45	7.5636
1760.96	6.36678
1762.47	5.77146
1763.98	4.26545
1765.49	4.20008
1767	3.45854
1768.51	2.13311
1770.02	1.16423
1771.53	1.01876
1773.03	0.223746
1774.54	0.101539
1776.05	-0.986012
1777.56	-0.825791
1779.07	-0.705549
1780.57	-0.357137
1782.08	-0.43675
1783.59	-1.29885
1785.09	-2.12631
1786.6	-1.8662
1788.11	-1.92857
1789.61	-2.2264
1791.12	-1.3859
1792.62	-0.451648
1794.13	-0.214923
1795.63	-0.597878
1797.13	-0.485713
1798.64	0.256376
1800.14	-0.305576
1801.65	-0.169882
1803.15	0.0846506
1804.65	0.473036
1806.15	0.911955
1807.66	1.54201
1809.16	0.986794
1810.66	0.620064
1812.16	1.15137
1813.66	1.40799
1815.16	1.54724
1816.66	2.32909
1818.16	2.0713
1819.66	2.4306
1821.16	2.88316
1822.66	3.67757
1824.16	3.94104
1825.66	4.71262
1827.16	5.33134
1828.66	5.46628
1830.16	5.34133
1831.65	5.52552
1833.15	5.38526
1834.65	5.0538
1836.14	5.14828
1837.64	4.92502
1839.14	4.96981
1840.63	4.34874
1842.13	4.83173
1843.62	4.36366
1845.12	3.87334
1846.61	3.52297
1848.11	3.07264
1849.6	2.28109
1851.1	1.06509
1852.59	1.72296
1854.08	2.29684
1855.58	2.91639
1857.07	2.75989
1858.56	2.49028
1860.05	2.8741
1861.55	2.98254
1863.04	3.19418
1864.53	3.74903
1866.02	4.04182
1867.51	3.73831
1869	3.31417
1870.49	2.39555
1871.98	3.30757
1873.47	3.51173
1874.96	3.74533
1876.45	4.56664
1877.94	4.82129
1879.43	5.42019
1880.92	5.60569
1882.41	6.34963
1882.51	5.90919
1884	6.70924
1885.5	6.90194
1886.99	7.2681
1888.48	7.06879
1889.98	7.5848
1891.47	8.47114
1892.96	9.21549
1894.46	8.84361
1895.95	8.71235
1897.44	8.90765
1898.93	9.01924
1900.42	8.5476
1901.91	8.07468
1903.41	7.42307
1904.9	7.75635
1906.39	7.18625
1907.88	6.83433
1909.37	5.86036
1910.86	6.12871
1912.35	5.76657
1913.83	5.10513
1915.32	5.1563
1916.81	3.63304
1918.3	3.08368
1919.79	3.14004
1921.27	3.97486
1922.76	4.00252
1924.25	4.15341
1925.74	5.2996
1927.22	4.89233
1928.71	4.29106
1930.19	3.81791
1931.68	4.83656
1933.17	3.92397
1934.65	3.01224
1936.14	2.88571
1937.62	2.88203
1939.11	2.30514
1940.59	1.9327
1942.07	2.02204
1943.56	1.74003
1945.04	2.3303
1946.52	1.89528
1948.01	1.869
1949.49	1.6477
1950.97	1.6378
1952.45	2.95533
1953.93	3.94202
1955.42	4.68816
1956.9	4.51681
1958.38	4.58385
1959.86	4.18589
1961.34	5.20407
1962.82	4.6775
1964.3	5.30362
1965.78	5.41732
1967.26	4.62034
1968.74	4.02993
1970.21	4.0675
1971.69	4.55379
1973.17	4.19911
1974.65	3.39674
1976.13	3.69031
1977.6	2.81789
1979.08	3.59639
1980.56	3.70351
1982.03	3.49454
1983.51	3.32989
1984.99	4.02527
1986.46	3.81572
1987.94	3.40713
1989.41	3.23126
1990.89	3.13786
1992.36	4.00973
1993.84	4.29436
1995.31	4.57257
1996.78	3.84992
1998.26	3.86614
1999.73	3.46045
2001.2	2.80397
2002.68	3.2699
2004.15	3.8361
2005.62	3.28439
2007.09	1.13616
2008.56	1.59651
2010.04	2.59276
2011.51	3.00124
2012.98	3.62913
2014.45	5.0102
2015.92	5.60553
2017.39	6.79258
2018.86	7.12589
2020.33	7.40812
2021.8	7.99664
2023.26	8.51939
2024.73	9.77635
2026.2	10.9511
2027.67	10.1257
2029.14	9.97535
2030.61	9.78841
2032.07	9.87152
2033.54	9.79603
2035.01	10.1956
2036.47	9.7991
2037.94	10.515
2039.4	11.2135
2040.87	10.7551
2042.33	10.9091
2043.8	11.1643
2045.27	11.14
2046.73	11.4267
2048.19	10.9893
2049.66	11.6577
2051.12	11.0463
2052.59	12.2971
2054.05	11.8356
2055.51	11.111
2056.97	11.7911
2058.44	12.7455
2059.9	12.5922
2061.36	12.9332
2062.82	13.7831
2064.28	14.2106
2065.74	15.3854
2067.21	15.4504
2068.67	16.1162
2070.13	15.6525
2071.59	16.0323
2073.05	16.1826
2074.51	18.0151
2075.96	19.3635
2077.42	20.1545
2078.88	21.0275
2080.34	22.4065
2081.8	23.9265
2083.26	24.3497
2084.72	25.3493
2086.17	26.9491
2087.63	27.9181
2089.09	27.8815
2090.54	29.5091
2092	29.2749
2093.45	29.9725
2094.91	31.7416
2096.37	32.8568
2097.82	34.2855
2099.28	35.6832
2100.73	36.3226
2102.19	38.0823
2103.64	39.8349
2105.09	40.2453
2106.55	41.6284
2108	42.5926
2109.45	43.79
2110.91	45.5324
2112.36	45.7355
2113.81	45.5164
2115.26	47.3582
2116.72	48.638
2118.17	49.7526
2119.62	51.9976
2121.07	53.3988
2122.52	55.4079
2123.97	56.8982
2125.42	58.9169
2126.87	60.5371
2128.32	62.752
2129.77	65.7512
2131.22	68.1729
2132.67	70.8831
2134.11	73.5042
2135.56	75.8541
2137.01	78.7223
2138.46	81.5363
2139.91	83.4053
2141.35	86.3874
2142.8	88.612
2144.25	92.5131
2145.7	96.8485
2147.14	100.276
2148.59	102.919
2150.03	106.169
2151.48	108.708
2152.92	110.723
2154.37	113.518
2155.81	115.677
2157.26	119.39
2158.7	121.816
2160.15	124.882
2161.59	127.401
2163.03	129.944
2164.47	132.326
2165.92	135.341
2167.36	138.002
2168.8	139.983
2170.24	141.379
2171.69	142.557
2173.13	142.497
2174.57	144.069
2176.01	144.125
2177.45	143.817
2178.89	143.686
2180.33	142.376
2181.77	142.113
2183.21	140.819
2184.65	139.458
2186.09	138.665
2187.53	137.058
2188.97	135.129
2190.4	132.684
2191.84	130.304
2193.28	127.548
2194.72	124.482
2196.16	120.954
2197.59	117.512
2199.03	114.247
2200.47	111.717
2201.9	108.506
2203.34	104.836
2204.77	101.448
2206.21	97.4787
2207.64	93.4363
2209.08	90.0406
2210.51	86.1882
2211.95	83.3786
2213.38	80.0021
2214.82	76.8585
2216.25	74.064
2217.68	71.1126
2219.12	66.5697
2220.55	63.5433
2221.98	61.2802
2223.41	58.8744
2224.85	57.4087
2226.28	55.3
2227.71	52.4526
2229.14	51.5849
2230.57	49.6157
2232	48.2553
2233.43	45.8298
2234.86	44.5207
2236.29	43.9777
2237.72	43.1715
2239.15	41.6787
2240.58	41.1823
2242.01	40.0741
2243.44	39.9941
2244.87	39.4331
2246.29	39.6354
2247.72	37.7786
2249.15	36.9546
2250.58	35.82
2252.01	35.557
2253.43	35.2704
2254.86	34.6513
2256.29	34.2402
2257.71	33.792
2259.14	33.6867
2260.56	32.9939
2261.99	32.2097
2263.41	31.6582
2264.84	32.3652
2266.26	31.225
2267.69	29.6996
2269.11	29.2542
2270.53	29.3057
2271.96	29.2868
2273.38	27.7247
2274.8	26.7441
2276.23	25.0704
2277.65	24.0083
2279.07	23.2557
2280.49	22.4891
2281.91	20.9756
2283.34	19.1483
2284.76	17.9651
2286.18	16.7718
2287.6	15.8926
2289.02	15.2406
2290.44	14.0534
2291.86	13.6476
2293.28	12.1913
2294.7	11.0095
2296.12	9.80844
2297.54	9.15521
2298.96	8.54575
2300.37	8.6213
2301.79	7.3491
2303.21	7.2104
2304.63	7.12706
2306.04	6.74455
2307.46	6.58709
2308.88	7.00108
2310.3	6.37039
2311.71	7.07606
2313.13	6.57553
2314.54	6.89885
2315.96	6.66552
2317.37	7.15529
2318.79	7.09671
2320.2	7.27511
2321.62	8.42745
2323.03	8.86194
2324.45	8.44709
2325.86	9.40786
2327.27	9.48446
2328.69	10.2154
2330.1	8.92563
2331.51	7.93404
2332.92	8.60084
2334.34	8.62496
2335.75	8.67429
2337.16	7.77736
2338.57	7.78828
2339.98	7.85477
2341.39	7.63247
2342.8	7.10778
2344.21	5.68693
2345.63	4.53924
2347.04	4.06666
2348.45	3.58079
2349.85	2.80216
2351.26	1.58732
2352.67	1.72851
2354.08	1.53962
2355.49	1.41967
2356.9	0.0835729
2358.3	-0.245468
2359.71	-0.986062
2361.12	-2.34468
2362.53	-2.27677
2363.93	-2.13698
2365.34	-1.64392
2366.75	-1.46408
2368.15	-1.12458
2369.56	-1.93855
2370.97	-2.1699
2372.37	-3.21426
2373.77	-2.56238
2375.18	-3.02482
2376.59	-2.67235
2377.99	-2.66971
2379.39	-2.28512
2380.8	-2.57413
2382.2	-1.70744
2383.6	-1.2154
2385.01	-0.578747
2386.41	-0.579407
2387.81	-0.0589642
2389.21	-0.145523
2390.62	0.35254
2392.02	1.30988
2393.42	1.09208
2394.82	1.46824
2396.22	2.51521
2397.62	2.46602
2399.02	2.61684
2400.42	2.94954
2401.82	3.61565
2403.22	4.80255
2404.62	5.24917
2406.02	5.26414
2407.42	6.16162
2408.82	6.97584
2410.22	6.43911
2411.62	6.91897
2413.01	6.82274
2414.41	7.0678
2415.81	7.64243
2417.21	8.20211
2418.6	7.8265
2420	8.00356
2421.4	8.56205
2422.79	9.04758
2424.19	8.70135
2425.59	8.47895
2426.98	8.71714
2428.38	9.37352
2429.77	8.84243
2431.17	8.01913
2432.56	8.32615
2433.95	7.67499
2435.35	7.59348
2436.74	7.21515
2438.14	6.75867
2439.53	6.9951
2440.92	7.40682
2442.31	6.78582
2443.71	6.98493
2445.1	6.87879
2446.49	7.31331
2447.88	6.26722
2449.27	5.85783
2450.67	5.92879
2452.06	6.23496
2453.45	5.77476
2454.84	6.06225
2456.23	5.13094
2457.62	4.75566
2459.01	4.68797
2460.4	5.08878
2461.79	4.83015
2463.18	4.46097
2464.57	4.69805
2465.95	4.32971
2467.34	3.97335
2468.73	4.01891
2470.12	3.81032
2471.5	2.6436
2472.89	3.04159
2474.28	2.8325
2475.67	3.19575
2477.05	3.30512
2478.44	3.00069
2479.82	1.62845
2481.21	1.55341
2482.6	1.93727
2483.98	2.0929
2485.37	1.80751
2486.75	1.34974
2488.13	1.1615
2489.52	1.4936
2490.9	1.81097
2492.29	1.26768
2493.67	0.66737
2495.05	0.226377
2496.44	0.235836
2497.82	0.316956
2499.2	0.0167609
2500.58	0.462821
2501.97	1.54231
2503.35	1.85548
2504.73	2.38073
2506.11	2.22266
2507.49	2.84704
2508.87	3.90754
2510.25	4.28617
2511.63	4.28231
2513.01	4.78921
2514.39	5.27774
2515.77	5.27886
2517.15	6.01705
2518.53	6.43068
2519.91	7.52361
2521.29	7.94472
2522.67	7.69473
2524.05	7.19951
2525.42	6.33969
2526.8	7.28789
2528.18	7.94794
2529.55	8.10142
2530.93	7.96378
2532.31	8.09477
2533.69	8.52094
2535.06	8.14177
2536.44	8.85678
2537.81	9.11979
2539.19	8.77288
2540.56	9.07655
2541.94	10.3145
2543.31	11.0952
2544.69	10.2092
2546.06	9.94366
2547.44	9.38589
2548.81	10.1049
2550.18	10.7203
2551.56	11.6499
2552.93	11.6005
2554.3	11.5601
2555.67	10.7603
2557.04	10.7511
2558.42	10.9059
2559.79	10.8557
2561.16	10.2659
2562.53	10.5894
2563.9	10.5804
2565.27	11.3137
2566.64	11.1336
2568.01	10.7354
2569.38	10.8013
2570.75	10.6124
2572.12	9.46789
2573.49	8.75719
2574.86	8.6326
2576.23	8.46474
2577.6	8.02935
2578.97	7.29708
2580.33	6.96244
2581.7	6.52066
2583.07	6.77211
2584.44	6.35167
2585.8	5.69853
2587.17	4.5687
2588.54	3.8821
2589.9	3.57066
2591.27	3.03533
2592.64	2.6798
2594	2.86071
2595.37	3.18446
2596.73	3.11455
2598.1	3.57978
2599.46	3.94565
2600.83	4.46927
2602.19	4.47133
2603.55	4.21116
2604.92	5.03944
2606.28	4.98161
2607.64	5.07751
2609.01	6.56474
2610.37	6.83453
2611.73	6.70336
2613.09	7.35996
2614.46	8.59413
2615.82	9.04422
2617.18	10.7767
2618.54	11.1768
2619.9	11.8297
2621.26	12.1556
2622.62	12.2192
2623.98	12.9717
2625.34	13.7556
2626.7	13.7292
2628.06	14.9102
2629.42	15.2655
2630.78	15.8315
2632.14	15.7669
2633.5	15.5118
2634.86	14.8396
2636.21	14.7936
2637.57	14.7962
2638.93	14.295
2640.29	14.0352
2641.64	14.2137
2643	14.158
2644.36	13.5545
2645.71	13.3243
2647.07	13.5111
2648.43	13.7284
2649.78	13.2051
2651.14	12.5028
2652.49	11.7406
2653.85	11.2266
2655.2	11.3002
2656.56	11.48
2657.91	11.8379
2659.26	12.36
2660.62	12.4319
2661.97	12.1534
2663.32	12.7921
2664.68	12.4028
2666.03	12.8267
2667.38	12.4727
2668.74	12.6467
2670.09	11.3306
2671.44	11.7658
2672.79	12.811
2674.14	13.1594
2675.49	13.5813
2676.84	14.2902
2678.19	13.7258
2679.54	13.7984
2680.89	14.2506
2682.24	13.6457
2683.59	13.7499
2684.94	14.4706
2686.29	14.5798
2687.64	14.5075
2688.99	15.2668
2690.34	15.5752
2691.69	16.9454
2693.03	16.9551
2694.38	17.42
2695.73	18.9302
2697.08	18.744
2698.42	18.9459
2699.77	19.9049
2701.12	20.4923
2702.46	21.1192
2703.81	22.2234
2705.15	23.1766
2706.5	24.4619
2707.85	24.859
2709.19	25.1242
2710.54	25.7902
2711.88	26.3206
2713.22	27.4768
2714.57	27.9583
2715.91	27.9915
2717.26	28.0146
2718.6	27.8593
2719.94	28.1739
2721.29	27.7571
2722.63	28.5935
2723.97	28.499
2725.31	28.8215
2726.66	28.8102
2728	28.3379
2729.34	27.5925
2730.68	28.3003
2732.02	27.7623
2733.36	26.8486
2734.7	25.4036
2736.04	25.1246
2737.38	23.9872
2738.72	23.8531
2740.06	23.1656
2741.4	22.0383
2742.74	20.8974
2744.08	19.3738
2745.42	17.8972
2746.76	15.6661
2748.09	14.9832
2749.43	13.2745
2750.77	12.1059
2752.11	11.1525
2753.45	10.1536
2754.78	9.55328
2756.12	8.88098
2757.46	7.77804
2758.79	6.88665
2760.13	5.8637
2761.46	5.32196
2762.8	5.47203
2764.14	5.12463
2765.47	5.25632
2766.8	4.63727
2768.14	3.98705
2769.47	3.49648
2770.81	3.93417
2772.14	3.24141
2773.48	2.42409
2774.81	1.62654
2776.14	1.45179
2777.48	0.884632
2778.81	0.137127
2780.14	-0.656913
2781.47	-1.29993
2782.8	-1.53597
2784.14	-1.87353
2785.47	-2.55919
2786.8	-2.58127
2788.13	-2.70921
2789.46	-2.34962
2790.79	-2.60566
2792.12	-1.01764
2793.45	-0.721323
2794.78	-0.243861
2796.11	0.228301
2797.44	0.972718
2798.77	0.50716
2800.1	0.285581
2801.43	1.59482
2802.76	3.10632
2804.09	3.11223
2805.41	2.59443
2806.74	2.45969
2808.07	2.2828
2809.4	2.09528
2810.72	1.35371
2812.05	2.01248
2813.38	3.15733
2814.71	5.32575
2816.03	7.96577
2817.36	11.2799
2818.68	15.0781
2820.01	20.7593
2821.33	26.3776
2822.66	32.1681
2823.98	39.6909
2825.31	47.5487
2826.63	55.5309
2827.96	64.2352
2829.28	74.3821
2830.6	83.7149
2831.93	94.777
2833.25	104.932
2834.57	116.41
2835.9	127.266
2837.22	138.449
2838.54	150.318
2839.86	163.522
2841.18	176.129
2842.5	189.407
2843.83	204.339
2845.15	219.588
2846.47	235.007
2847.79	250.854
2849.11	267.482
2850.43	283.5
2851.75	300.069
2853.07	317.362
2854.39	334.086
2855.71	349.686
2857.03	366.252
2858.35	381.609
2859.66	394.784
2860.98	409.083
2862.3	422.296
2863.62	435.453
2864.94	447.302
2866.25	458.945
2867.57	469.804
2868.89	479.491
2870.2	487.051
2871.52	494.817
2872.84	503.091
2874.15	510.989
2875.47	518.281
2876.78	526.295
2878.1	534.305
2879.41	542.342
2880.73	549.601
2882.04	557.75
2883.36	564.211
2884.67	572.237
2885.99	580.578
2887.3	587.507
2888.61	594.384
2889.93	601.693
2891.24	608.962
2892.55	615.662
2893.86	623.614
2895.18	630.762
2896.49	638.479
2897.8	646.777
2899.11	654.716
2900.42	664.04
2901.73	674.085
2903.05	685.712
2904.36	697.678
2905.67	710.97
2906.98	724.691
2908.29	739.99
2909.6	755.44
2910.91	770.104
2912.21	785.276
2913.52	801.306
2914.83	817.08
2916.14	831.481
2917.45	845.503
2918.76	857.702
2920.07	868.728
2921.37	878.212
2922.68	887.733
2923.99	895.329
2925.29	901.306
2926.6	907.37
2927.91	910.444
2929.22	912.162
2930.52	911.226
2931.83	910.302
2933.13	906.785
2934.44	901.373
2935.74	894.583
2937.05	887.588
2938.35	878.872
2939.66	869.128
2940.96	858.104
2942.26	845.316
2943.57	831.058
2944.87	816.499
2946.18	800.439
2947.48	784.582
2948.78	766.734
2950.08	748.794
2951.39	730.458
2952.69	711.238
2953.99	691.958
2955.29	672.909
2956.59	653.03
2957.9	632.906
2959.2	614.285
2960.5	596.332
2961.8	578.666
2963.1	560.302
2964.4	543.811
2965.7	527.668
2967	511.32
2968.3	496.035
2969.6	480.788
2970.9	467.297
2972.19	451.968
2973.49	437.506
2974.79	423.65
2976.09	410.164
2977.39	397.012
2978.68	383.351
2979.98	368.61
2981.28	354.35
2982.58	339.815
2983.87	324.856
2985.17	310.758
2986.47	296.967
2987.76	282.978
2989.06	268.997
2990.35	254.35
2991.65	241.073
2992.94	227.052
2994.24	213.644
2995.53	200.902
2996.83	188.415
2998.12	175.613
2999.42	163.83
3000.71	152.602
3002	141.962
3003.3	131.766
3004.59	121.27
3005.88	110.472
3007.18	100.928
3008.47	92.6476
3009.76	83.7919
3011.05	75.8723
3012.34	68.6812
3013.64	61.4877
3014.93	55.6069
3016.22	50.8589
3017.51	45.6913
3018.8	40.8374
3020.09	36.2451
3021.38	32.6194
3022.67	30.4464
3023.96	28.2524
3025.25	25.4926
3026.54	22.9703
3027.83	20.815
3029.12	19.9429
3030.41	18.4475
3031.69	17.1599
3032.98	16.7169
3034.27	15.466
3035.56	14.8143
3036.84	14.4272
3038.13	14.9434
3039.42	15.4203
3040.71	15.6457
3041.99	16.4019
3043.28	16.5273
3044.57	16.9082
3045.85	17.4495
3047.14	17.7344
3048.42	18.0407
3049.71	19.0027
3050.99	20.1508
3052.28	19.9824
3053.56	20.1444
3054.85	20.0164
3056.13	20.2334
3057.41	20.022
3058.7	19.4316
3059.98	19.5681
3061.26	18.9598
3062.55	18.6056
3063.83	17.4131
3065.11	16.6279
3066.39	15.8417
3067.68	14.4341
3068.96	12.6049
3070.24	11.5743
3071.52	10.9236
3072.8	9.48472
3074.08	8.43053
3075.36	8.08403
3076.65	7.4661
3077.93	7.51284
3079.21	6.45503
3080.49	5.04819
3081.77	3.76473
3083.04	3.32049
3084.32	2.80387
3085.6	3.29365
3086.88	3.43296
3088.16	3.35489
3089.44	2.99854
3090.72	3.50971
3091.99	3.62372
3093.27	4.09637
3094.55	4.43253
3095.83	5.13531
3097.1	5.56837
3098.38	6.76621
3099.66	8.1064
3100.93	9.13324
3102.21	9.93195
3103.49	11.1683
3104.76	12.1857
3106.04	13.5741
3107.31	14.2744
3108.59	15.5979
3109.86	17.0809
3111.14	18.4675
3112.41	19.8311
3113.69	21.5024
3114.96	23.7678
3116.23	24.7725
3117.51	26.4283
3118.78	27.8729
3120.05	29.6196
3121.33	30.9212
3122.6	32.3556
3123.87	34.3725
3125.14	35.1702
3126.41	36.4042
3127.69	37.6431
3128.96	39.7035
3130.23	40.887
3131.5	42.6009
3132.77	44.3095
3134.04	46.0319
3135.31	48.1584
3136.58	50.3819
3137.85	52.5612
3139.12	54.0517
3140.39	55.8389
3141.66	57.5829
3142.93	59.0674
3144.2	61.2159
3145.47	62.9742
3146.74	63.9984
3148	65.1179
3149.27	64.1743
