#Acq. time (s)=	45
#Accumulations=	2
#Range (cm-¹)=	200...3150
#Windows=	2
#Auto scanning=	Off
#Autofocus=	Off
#Macrospot=	Off
#AutoExposure=	Off
#Spike filter=	Multiple accum.
#Delay time (s)=	0
#Binning=	1
#Readout mode=	Signal
#DeNoise=	Off
#ICS correction=	On
#Dark correction=	Off
#Inst. Process=	Off
#Detector Gain=	Best Dynamic Range
#Detector ADC=	20 kHz       
#Detector temperature (°C)=	-69.85
#Instrument=	LabRAM HR Evol
#Detector=	Synapse
#Objective=	x100
#Grating=	600 gr/mm
#ND Filter=	100%
#Laser (nm)=	532 
#Hole=	100.021
#Range=	Auto
#Laser Pol.=	No
#Raman. Pol.=	No
#Laser Pol. (°)=	-0.0007625
#Raman Pol. (°)=	89.9995
#Collection=	Microscope
#StageXY=	Marzhauser
#StageZ=	Marzhauser
#X (µm)=	-6916.1
#Y (µm)=	2136.4
#Z (µm)=	-74.85
#Full time(mm:ss)=	3:18
#Project=	
#Sample=	
#Site=	
#Title=	Mb_20_23_10_2x_45s_532 nm_x100_100%_600 gr_mm
#Remark=	
#Date=	13.07.2022 13:40
#Acquired=	13.07.2022 13:40:15
#Base:Fit=	10.08.2022 10:29:19
#Base:Fit=	10.08.2022 10:29:37
#Base:Sub=	10.08.2022 10:31:46
#Filter:Polynom=	16.08.2022 10:13:29
#AxisType[0]=Intens
#AxisUnit[0]=Cnt
#AxisType[1]=Spectr
#AxisUnit[1]=1/cm
200.563	50.3422
202.377	44.0177
204.194	42.1523
206.008	40.8942
207.821	38.9206
209.634	36.8301
211.449	35.9348
213.262	35.1281
215.074	33.9603
216.885	33.4536
218.699	32.6733
220.51	32.2414
222.321	30.4235
224.131	29.0554
225.941	27.532
227.751	26.596
229.562	24.4004
231.371	22.6827
233.18	20.5009
234.988	20.1719
236.796	20.1033
238.603	18.8168
240.411	18.3784
242.219	16.5529
244.026	15.7708
245.832	15.3455
247.638	14.8487
249.443	15.1182
251.248	15.7242
253.053	14.6125
254.857	14.0476
256.661	13.6057
258.465	13.1461
260.268	14.7108
262.071	14.5263
263.874	13.5511
265.678	13.9168
267.48	12.7316
269.282	12.7474
271.083	14.7218
272.884	14.2325
274.684	13.8207
276.484	13.4943
278.284	12.5367
280.084	11.6501
281.883	10.5833
283.682	10.345
285.48	10.6619
287.276	11.5019
289.074	11.3522
290.871	11.2019
292.668	11.5823
294.465	9.90499
296.261	9.95412
298.057	11.2334
299.853	12.6698
301.648	14.2522
303.443	14.5331
305.237	14.5938
307.032	15.0429
308.823	14.0658
310.617	13.4549
312.41	12.5218
314.203	12.8681
315.995	12.1126
317.788	12.1438
319.579	10.6988
321.369	10.6831
323.16	10.1741
324.951	11.4225
326.741	11.3117
328.531	10.2551
330.321	11.1154
332.108	9.90093
333.897	11.3644
335.686	12.555
337.474	12.6617
339.26	13.8858
341.048	14.1593
342.835	12.9001
344.622	13.1078
346.406	13.0046
348.192	13.6538
349.978	13.3032
351.764	11.6849
353.547	10.6783
355.332	10.6055
357.116	10.7159
358.901	11.5809
360.682	10.9022
362.466	9.62033
364.249	9.17394
366.03	8.4154
367.812	7.63558
369.594	6.59151
371.374	6.48332
373.155	7.00791
374.936	6.62533
376.715	7.56418
378.495	6.22375
380.273	6.51801
382.053	5.97422
383.832	5.8462
385.609	7.09391
387.388	7.41697
389.164	6.81366
390.942	7.00713
392.72	7.02319
394.495	6.92357
396.272	7.53771
398.047	6.56928
399.823	7.04381
401.597	7.40506
403.372	7.89877
405.145	8.65119
406.92	9.53681
408.693	9.50477
410.467	10.1425
412.239	10.3547
414.012	11.093
415.783	10.7976
417.556	11.4975
419.327	11.6625
421.099	11.1049
422.869	12.0256
424.64	11.5859
426.409	11.3189
428.18	11.8047
429.948	11.4007
431.718	11.0816
433.486	10.8179
435.253	9.72704
437.022	9.95668
438.789	8.99047
440.558	8.69125
442.324	8.80152
444.089	8.67923
445.857	8.82704
447.622	8.2228
449.386	7.47973
451.153	7.05322
452.917	8.14337
454.682	8.42057
456.446	8.81717
458.208	8.9613
459.973	9.63803
461.735	9.81653
463.497	10.6345
465.259	10.711
467.022	9.58804
468.783	8.99392
470.544	8.3714
472.306	8.29101
474.066	9.31823
475.825	9.55063
477.585	9.72043
479.346	10.79
481.104	10.6618
482.862	10.0787
484.62	10.3212
486.38	9.96478
488.137	11.4712
489.894	12.3772
491.65	13.703
493.407	14.5277
495.164	14.0688
496.92	14.931
498.675	15.1498
500.43	16.0506
502.184	17.1816
503.939	17.6021
505.694	18.159
507.448	18.4403
509.201	18.7489
510.954	19.0177
512.706	19.2301
514.459	20.4281
516.21	19.9593
517.962	19.8169
519.715	18.7579
521.466	17.6309
523.216	17.4279
524.966	18.0143
526.716	16.474
528.466	17.1641
530.215	17.1667
531.964	16.9047
533.712	16.7572
535.46	16.1866
537.208	15.9317
538.955	14.9659
540.703	15.4234
542.449	14.4683
544.196	13.8268
545.942	13.4835
547.688	13.062
549.433	13.1589
551.178	13.1738
552.923	12.4444
554.667	10.7778
556.412	9.49989
558.155	8.46446
559.899	7.9061
561.642	7.01082
563.385	5.32663
565.127	4.8481
566.867	5.2099
568.609	4.10767
570.35	4.80143
572.092	6.59656
573.832	6.07047
575.573	7.36923
577.313	7.73012
579.053	8.08729
580.79	8.35555
582.529	8.83794
584.268	9.48689
586.006	8.87197
587.745	8.79671
589.482	8.39364
591.218	7.48796
592.955	7.94756
594.692	8.28475
596.428	6.38904
598.164	6.34353
599.898	7.05785
601.634	7.88338
603.369	6.86176
605.104	6.17865
606.836	6.01655
608.57	6.23497
610.304	6.07929
612.037	6.33891
613.769	5.91384
615.501	6.55506
617.234	4.40988
618.966	4.44668
620.696	3.89721
622.427	3.53312
624.159	3.323
625.887	2.68398
627.618	3.51089
629.348	4.65319
631.076	5.1905
632.806	5.98102
634.535	5.99265
636.262	5.306
637.99	5.70424
639.716	4.41916
641.444	3.4819
643.172	2.78309
644.897	3.78446
646.624	4.65408
648.348	4.76994
650.075	6.10227
651.801	7.49468
653.524	7.77596
655.249	6.70451
656.972	7.92482
658.697	8.23881
660.419	8.06212
662.143	8.99953
663.865	9.01317
665.588	9.38468
667.309	10.5111
669.032	11.0926
670.752	11.4825
672.474	11.33
674.194	11.5056
675.915	11.8325
677.634	12.4628
679.355	14.4725
681.073	14.4542
682.793	14.3527
684.511	16.0657
686.23	16.692
687.947	16.551
689.664	16.2534
691.382	16.6722
693.098	17.6948
694.816	17.8612
696.531	18.3038
698.247	19.0564
699.963	19.9432
701.678	20.6605
703.392	22.1654
705.108	23.5654
706.821	23.5937
708.534	23.9752
710.249	25.147
711.962	26.2248
713.674	27.5217
715.388	27.6255
717.099	28.6773
718.81	29.0944
720.523	30.1692
722.234	29.7086
723.944	31.0337
725.654	29.9757
727.365	31.1359
729.075	30.9736
730.784	31.8047
732.492	30.6394
734.202	30.7985
735.91	31.094
737.618	31.0252
739.325	31.3816
741.034	31.9729
742.741	33.7023
744.447	34.5361
746.153	35.4822
747.859	37.2911
749.564	38.7523
751.271	40.0007
752.976	41.2051
754.681	40.9704
756.385	41.206
758.088	41.5732
759.792	43.0568
761.495	45.1319
763.2	46.6946
764.902	47.4026
766.604	47.4058
768.306	47.4454
770.008	47.5598
771.709	48.9973
773.41	50.3759
775.11	51.6276
776.811	52.7463
778.51	53.1874
780.21	54.1244
781.909	55.0279
783.608	57.266
785.307	58.9359
787.005	59.6633
788.703	61.0585
790.401	61.0209
792.098	62.5528
793.795	64.136
795.492	64.8465
797.188	65.5768
798.884	67.0582
800.58	68.3141
802.276	68.8831
803.971	68.8744
805.665	69.7401
807.36	67.9036
809.054	68.3516
810.748	68.2955
812.441	67.9272
814.135	66.43
815.826	66.7931
817.518	67.3489
819.21	67.3533
820.902	66.7976
822.594	67.7989
824.285	69.5314
825.976	69.4211
827.665	68.9456
829.355	68.6145
831.045	68.2002
832.735	67.6521
834.424	66.1182
836.111	65.3382
837.8	65.2075
839.488	64.4502
841.177	65.0633
842.864	63.5876
844.55	63.8428
846.237	63.0226
847.924	61.8227
849.61	61.2895
851.295	60.4159
852.98	58.7763
854.666	58.2519
856.349	59.1108
858.034	58.109
859.719	57.4287
861.403	55.9113
863.085	55.1964
864.769	55.1276
866.452	54.5693
868.133	54.3332
869.816	53.1983
871.498	53.0314
873.179	53.5305
874.86	52.975
876.54	53.4715
878.221	54.0213
879.902	53.2849
881.58	53.2484
883.26	53.1075
884.938	52.7356
886.618	51.6872
888.297	51.3021
889.974	49.9523
891.653	48.5033
893.329	48.7934
895.007	47.8031
896.683	46.7125
898.36	47.8468
900.035	48.8913
901.712	48.7151
903.387	47.3738
905.063	47.9203
906.737	48.781
908.412	48.8514
910.085	48.4714
911.76	48.3992
913.433	48.5465
915.107	48.6037
916.779	48.8441
918.452	49.8071
920.124	50.184
921.797	50.6572
923.467	49.3979
925.138	49.1111
926.81	47.8037
928.48	48.7427
930.151	48.7886
931.82	47.9129
933.489	46.113
935.16	44.141
936.828	42.9242
938.496	41.9918
940.165	41.4449
941.833	38.9754
943.5	37.505
945.168	35.112
946.834	34.3929
948.5	32.7101
950.168	31.7904
951.834	32.1081
953.499	31.7357
955.163	32.1805
956.83	31.6742
958.494	29.5266
960.158	28.5179
961.821	28.9372
963.487	28.0289
965.15	28.5739
966.812	28.5808
968.474	29.0952
970.138	29.7195
971.8	30.7456
973.461	32.0172
975.123	33.4606
976.783	34.838
978.446	34.8008
980.106	36.0591
981.766	37.4021
983.425	37.5156
985.084	36.7146
986.743	36.6634
988.402	37.1344
990.06	37.1479
991.72	36.5595
993.378	36.0235
995.035	35.1108
996.692	34.1408
998.349	32.6158
1000.01	31.1128
1001.66	30.6558
1003.32	27.2489
1004.97	26.7071
1006.63	25.8158
1008.28	26.8244
1009.94	27.5391
1011.59	28.9172
1013.25	29.4736
1014.9	29.7015
1016.55	31.1283
1018.21	33.0049
1019.86	34.8865
1021.51	36.7187
1023.16	38.718
1024.81	41.7339
1026.47	43.9354
1028.12	46.0117
1029.77	49.1229
1031.42	51.6025
1033.07	54.4572
1034.72	56.4608
1036.37	57.6954
1038.02	59.6633
1039.67	61.3173
1041.31	63.1464
1042.96	65.9568
1044.61	67.4944
1046.26	69.4466
1047.91	71.3864
1049.55	73.2892
1051.2	75.4091
1052.84	76.6292
1054.49	76.056
1056.14	75.514
1057.78	73.2005
1059.43	71.766
1061.07	69.4464
1062.72	68.8971
1064.36	67.3124
1066	65.1639
1067.65	62.5056
1069.29	59.4205
1070.93	56.9217
1072.58	54.8539
1074.22	52.3426
1075.86	49.8122
1077.5	46.0052
1079.14	42.1034
1080.78	39.2988
1082.42	36.7242
1084.06	34.4593
1085.7	31.2912
1087.34	31.413
1088.98	31.2063
1090.62	31.199
1092.26	29.8677
1093.9	30.5447
1095.54	30.7363
1097.17	32.0722
1098.81	31.6762
1100.45	31.6804
1102.09	30.5251
1103.72	31.1285
1105.36	31.8603
1106.99	31.1433
1108.63	30.0267
1110.27	30.6558
1111.9	30.3099
1113.53	29.3983
1115.17	28.3641
1116.8	27.0728
1118.43	26.9442
1120.07	26.1485
1121.7	25.7748
1123.33	23.2375
1124.97	22.6443
1126.6	22.1657
1128.23	22.9935
1129.86	22.0295
1131.49	20.7202
1133.12	19.5061
1134.75	18.5541
1136.38	17.0094
1138.01	15.6009
1139.64	13.906
1141.27	14.6609
1142.9	14.2261
1144.53	15.3239
1146.16	14.2732
1147.78	12.834
1149.41	11.4538
1151.04	9.88396
1152.67	9.84385
1154.29	8.656
1155.92	6.77338
1157.54	5.8719
1159.17	3.45799
1160.8	2.59227
1162.42	1.46028
1164.05	0.415505
1165.67	0.700711
1167.29	1.38141
1168.92	2.02006
1170.54	3.09903
1172.16	3.55416
1173.79	3.78891
1175.41	5.32127
1177.03	5.667
1178.65	5.58025
1180.28	5.35742
1181.9	5.93947
1183.52	6.45026
1185.14	7.73349
1186.76	6.75546
1188.38	6.07026
1190	7.71716
1191.62	7.79448
1193.24	7.96856
1194.86	7.91785
1196.47	8.25353
1198.09	9.34807
1199.71	10.8645
1201.33	10.4847
1202.95	10.8741
1204.56	11.5679
1206.18	14.1387
1207.8	14.3263
1209.41	15.6987
1211.03	15.7001
1212.64	16.2065
1214.26	17.5558
1215.87	17.6681
1217.49	18.6548
1219.1	20.4265
1220.71	22.0027
1222.33	23.5473
1223.94	24.7855
1225.55	25.5395
1227.16	25.965
1228.78	27.2021
1230.39	27.887
1232	29.6775
1233.61	32.167
1235.22	33.6711
1236.83	35.0313
1238.44	37.189
1240.05	38.3541
1241.66	40.9524
1243.27	42.0531
1244.88	44.6207
1246.49	46.3647
1248.1	48.2619
1249.71	48.7986
1251.32	50.4822
1252.92	50.7899
1254.53	51.1103
1256.14	52.5478
1257.74	54.4482
1259.35	55.3171
1260.96	57.856
1262.56	60.205
1264.17	62.595
1265.77	64.8615
1267.38	68.3049
1268.98	71.4844
1270.59	74.4668
1272.19	76.4515
1273.79	79.9578
1275.4	83.4729
1277	85.8208
1278.6	88.9168
1280.21	90.4513
1281.81	91.3034
1283.41	92.8916
1285.01	95.114
1286.61	96.1946
1288.21	98.0123
1289.81	99.0182
1291.41	98.4924
1293.01	99.3237
1294.61	100.917
1296.21	101.602
1297.81	102.675
1299.41	102.678
1301.01	102.037
1302.6	101.094
1304.2	101.106
1305.8	101.241
1307.4	101.041
1308.99	100.029
1310.59	99.039
1312.19	98.99
1313.78	98.2191
1315.38	97.233
1316.97	96.4724
1318.57	94.9598
1320.16	93.3729
1321.76	92.0575
1323.35	90.6638
1324.94	88.6984
1326.54	86.2486
1328.13	83.4495
1329.72	81.1517
1331.32	79.633
1332.91	78.1865
1334.5	76.6199
1336.09	75.1072
1337.68	75.3765
1339.27	74.7948
1340.87	75.6625
1342.45	75.1772
1344.04	75.6842
1345.64	75.4512
1347.22	75.0395
1348.81	74.0119
1350.4	74.0754
1351.99	74.109
1353.58	74.2512
1355.17	73.8421
1356.75	71.6293
1358.34	71.2139
1359.93	70.547
1361.51	69.9881
1363.1	69.3714
1364.69	69.5968
1366.27	69.6681
1367.86	70.471
1369.44	68.5273
1371.03	68.2965
1372.61	68.9221
1374.2	69.9142
1375.78	69.4248
1377.37	68.9495
1378.95	70.046
1380.53	70.65
1382.11	70.4749
1383.7	71.3801
1385.28	71.9329
1386.86	72.889
1388.44	73.6385
1390.02	73.9998
1391.6	74.5484
1393.19	75.4563
1394.77	74.9329
1396.35	74.2738
1397.93	74.2541
1399.51	75.7997
1401.08	76.7922
1402.66	76.5131
1404.24	77.9486
1405.82	80.1269
1407.4	83.0781
1408.97	87.2199
1410.55	91.1353
1412.13	94.8951
1413.71	97.421
1415.28	101.137
1416.86	106.479
1418.43	111.309
1420.01	116.849
1421.59	122.528
1423.16	128.451
1424.73	134.192
1426.31	139.219
1427.88	144.547
1429.46	150.258
1431.03	155.675
1432.6	160.933
1434.18	165.921
1435.75	170.183
1437.32	174.603
1438.89	178.079
1440.46	179.79
1442.04	182.649
1443.61	185.784
1445.18	186.846
1446.75	187.396
1448.32	187.077
1449.89	187.468
1451.46	186.516
1453.03	185.06
1454.6	183.34
1456.16	180.626
1457.73	178.338
1459.3	173.788
1460.87	170.296
1462.44	166.627
1464	161.945
1465.57	157.971
1467.14	151.039
1468.7	145.007
1470.27	139.433
1471.83	133.602
1473.4	126.563
1474.96	120.979
1476.53	115.767
1478.09	110.093
1479.66	104.509
1481.22	99.9697
1482.78	95.9767
1484.35	90.7103
1485.91	86.5286
1487.47	81.8729
1489.04	77.0159
1490.6	72.5641
1492.16	68.6677
1493.72	64.3286
1495.28	62.3889
1496.84	60.0559
1498.4	57.7593
1499.96	56.01
1501.52	54.1432
1503.08	52.8201
1504.64	50.5274
1506.2	48.5516
1507.76	47.037
1509.32	45.2545
1510.88	43.1821
1512.44	40.8444
1513.99	38.7222
1515.55	37.3231
1517.11	34.9755
1518.66	33.7546
1520.22	33.0701
1521.78	32.2592
1523.33	30.9967
1524.89	31.4904
1526.44	30.8704
1528	30.5201
1529.55	30.5597
1531.11	31.6127
1532.66	31.6506
1534.21	32.338
1535.77	33.2375
1537.32	33.8274
1538.87	36.3147
1540.43	37.9667
1541.98	38.258
1543.53	39.8387
1545.08	39.723
1546.63	41.7398
1548.18	42.0952
1549.74	43.7041
1551.29	43.9919
1552.84	44.4992
1554.39	45.9855
1555.94	46.7216
1557.48	47.7383
1559.03	48.5251
1560.58	48.5602
1562.13	49.2401
1563.68	50.1574
1565.23	51.051
1566.78	51.6593
1568.32	51.9385
1569.87	52.5166
1571.42	53.3595
1572.96	55.9887
1574.51	56.8344
1576.05	57.7801
1577.6	58.7356
1579.14	60.0904
1580.69	60.8488
1582.24	60.595
1583.78	60.1315
1585.32	61.3795
1586.87	61.8031
1588.41	62.4343
1589.95	63.2286
1591.5	64.3501
1593.04	64.8355
1594.58	64.1953
1596.12	64.8914
1597.67	65.2567
1599.21	65.765
1600.75	65.3161
1602.29	65.6745
1603.83	65.1408
1605.37	65.4459
1606.91	65.6957
1608.45	65.7204
1609.99	65.8069
1611.53	65.1248
1613.07	64.9103
1614.6	64.6096
1616.14	65.2986
1617.68	65.6932
1619.22	64.7835
1620.75	65.1815
1622.29	65.7147
1623.83	66.914
1625.37	67.403
1626.9	67.6698
1628.44	66.2219
1629.97	67.2289
1631.51	68.3147
1633.04	70.0935
1634.58	70.0051
1636.11	71.0769
1637.65	71.9398
1639.18	73.6484
1640.72	75.0159
1642.25	76.2841
1643.78	77.3744
1645.31	78.2465
1646.85	80.0232
1648.38	80.6924
1649.91	81.4094
1651.44	80.6522
1652.97	81.2288
1654.5	81.5796
1656.03	81.948
1657.56	80.9607
1659.1	79.9026
1660.62	80.7315
1662.15	80.2164
1663.68	79.4431
1665.21	78.4918
1666.74	76.084
1668.27	73.4102
1669.8	70.7539
1671.32	68.5735
1672.85	66.455
1674.38	64.2089
1675.91	62.0224
1677.43	59.6205
1678.96	57.782
1680.49	54.7177
1682.01	52.2849
1683.54	49.4187
1685.06	46.4613
1686.59	43.4513
1688.11	40.9277
1689.64	40.2476
1691.16	37.8441
1692.68	37.2212
1694.21	35.7321
1695.73	34.0704
1697.25	32.4552
1698.78	31.5977
1700.3	31.0718
1701.82	29.244
1703.34	26.9883
1704.86	26.3531
1706.39	26.8994
1707.91	26.5325
1709.43	26.3264
1710.95	24.2334
1712.47	24.756
1713.99	24.2252
1715.51	24.0096
1717.02	23.1661
1718.54	22.4666
1720.06	21.2325
1721.58	20.287
1723.1	19.9672
1724.62	19.7955
1726.13	19.4487
1727.65	18.9135
1729.17	19.4716
1730.68	19.2938
1732.2	19.0581
1733.72	18.5223
1735.23	18.7247
1736.75	18.2249
1738.26	16.758
1739.78	16.2769
1741.29	15.196
1742.81	14.4238
1744.32	14.1683
1745.84	13.7779
1747.35	13.5611
1748.86	13.192
1750.37	13.1142
1751.89	12.9392
1753.4	12.429
1754.91	12.0685
1756.42	11.3692
1757.93	10.7039
1759.45	10.5725
1760.96	10.6924
1762.47	10.5464
1763.98	10.9733
1765.49	10.2046
1767	9.21829
1768.51	9.30449
1770.02	7.75938
1771.53	7.40588
1773.03	6.94245
1774.54	6.66279
1776.05	5.8481
1777.56	4.12032
1779.07	3.79965
1780.57	4.09116
1782.08	4.11737
1783.59	3.92055
1785.09	3.14103
1786.6	2.63205
1788.11	1.99617
1789.61	1.44231
1791.12	1.65416
1792.62	1.52106
1794.13	1.3174
1795.63	1.45516
1797.13	1.79423
1798.64	2.33605
1800.14	2.12098
1801.65	2.12026
1803.15	2.36754
1804.65	2.43067
1806.15	2.19103
1807.66	1.56383
1809.16	1.62248
1810.66	2.16607
1812.16	1.52562
1813.66	1.96344
1815.16	3.07935
1816.66	3.23199
1818.16	3.88116
1819.66	4.55817
1821.16	4.53933
1822.66	5.30718
1824.16	5.70016
1825.66	5.82141
1827.16	5.77257
1828.66	5.96695
1830.16	5.64682
1831.65	5.97498
1833.15	6.04533
1834.65	6.57349
1836.14	6.60526
1837.64	6.53705
1839.14	6.35001
1840.63	5.9991
1842.13	5.71447
1843.62	6.17745
1845.12	5.49602
1846.61	5.62728
1848.11	5.6639
1849.6	4.73196
1851.1	5.07426
1852.59	4.77183
1854.08	4.66728
1855.58	4.82592
1857.07	3.95363
1858.56	4.75723
1860.05	3.85492
1861.55	3.75131
1863.04	4.01377
1864.53	3.6172
1866.02	3.29609
1867.51	2.67627
1869	2.72477
1870.49	2.09845
1871.98	1.76859
1873.47	1.79236
1874.96	1.78029
1876.45	1.84762
1877.94	2.13938
1879.43	1.95488
1880.92	1.84388
1882.41	1.87515
1882.51	2.16809
1884	2.35614
1885.5	2.8424
1886.99	3.97997
1888.48	4.42313
1889.98	4.03754
1891.47	4.4696
1892.96	4.09479
1894.46	3.82555
1895.95	4.5039
1897.44	3.56386
1898.93	3.4648
1900.42	3.57384
1901.91	3.90691
1903.41	3.98748
1904.9	4.58167
1906.39	4.40003
1907.88	4.86262
1909.37	4.95785
1910.86	5.60863
1912.35	5.60924
1913.83	6.27156
1915.32	5.75798
1916.81	5.62833
1918.3	5.19158
1919.79	6.39359
1921.27	6.95232
1922.76	6.49204
1924.25	6.60854
1925.74	6.04999
1927.22	6.06978
1928.71	6.29204
1930.19	6.04062
1931.68	5.89784
1933.17	4.4871
1934.65	4.55543
1936.14	4.7447
1937.62	4.23467
1939.11	4.22411
1940.59	4.00407
1942.07	4.50121
1943.56	4.03863
1945.04	5.02474
1946.52	5.79916
1948.01	5.7848
1949.49	5.70126
1950.97	6.41432
1952.45	6.33375
1953.93	6.65343
1955.42	6.91634
1956.9	6.44221
1958.38	6.72295
1959.86	6.51637
1961.34	5.64218
1962.82	5.53067
1964.3	5.16657
1965.78	5.31751
1967.26	5.1546
1968.74	5.26776
1970.21	5.39429
1971.69	5.35097
1973.17	6.26281
1974.65	5.37925
1976.13	5.41778
1977.6	5.29354
1979.08	5.65583
1980.56	5.97777
1982.03	6.28655
1983.51	6.06515
1984.99	6.20072
1986.46	5.96834
1987.94	6.12067
1989.41	5.53331
1990.89	6.32256
1992.36	7.28567
1993.84	7.44841
1995.31	6.48915
1996.78	6.39729
1998.26	6.65692
1999.73	6.53383
2001.2	6.05631
2002.68	5.94845
2004.15	6.51351
2005.62	6.81424
2007.09	7.43991
2008.56	7.6467
2010.04	7.82801
2011.51	7.46047
2012.98	7.49227
2014.45	7.88184
2015.92	8.53076
2017.39	8.69964
2018.86	9.40961
2020.33	9.78084
2021.8	9.50189
2023.26	9.52157
2024.73	9.84212
2026.2	9.62451
2027.67	9.28244
2029.14	9.00097
2030.61	9.31956
2032.07	10.1235
2033.54	10.0275
2035.01	10.8339
2036.47	11.223
2037.94	10.9673
2039.4	11.1497
2040.87	10.3189
2042.33	10.0497
2043.8	10.2282
2045.27	10.4005
2046.73	9.73847
2048.19	8.51221
2049.66	8.68621
2051.12	8.72582
2052.59	8.36304
2054.05	8.89432
2055.51	8.09065
2056.97	7.81996
2058.44	8.6178
2059.9	8.90915
2061.36	8.40693
2062.82	8.30422
2064.28	8.65724
2065.74	8.81897
2067.21	8.28872
2068.67	8.26038
2070.13	9.12435
2071.59	8.60476
2073.05	8.61162
2074.51	8.41284
2075.96	8.85225
2077.42	9.40227
2078.88	9.52977
2080.34	9.03133
2081.8	8.93394
2083.26	8.99016
2084.72	9.19025
2086.17	9.48558
2087.63	10.4432
2089.09	11.6909
2090.54	11.6763
2092	11.6769
2093.45	11.7768
2094.91	11.7294
2096.37	11.6998
2097.82	11.968
2099.28	12.7309
2100.73	13.1883
2102.19	13.4599
2103.64	14.0972
2105.09	14.5825
2106.55	15.0143
2108	15.5977
2109.45	15.5617
2110.91	15.4848
2112.36	15.8022
2113.81	16.2732
2115.26	17.0716
2116.72	17.7858
2118.17	18.8448
2119.62	19.2641
2121.07	19.8581
2122.52	20.2114
2123.97	21.3032
2125.42	21.9998
2126.87	23.4155
2128.32	23.3283
2129.77	24.4451
2131.22	25.1403
2132.67	25.3104
2134.11	26.147
2135.56	28.3888
2137.01	29.4766
2138.46	29.9286
2139.91	30.782
2141.35	31.8053
2142.8	33.4675
2144.25	33.9481
2145.7	35.7698
2147.14	36.6597
2148.59	37.8123
2150.03	39.0618
2151.48	39.8187
2152.92	40.3783
2154.37	41.9601
2155.81	42.3083
2157.26	43.3303
2158.7	45.1349
2160.15	46.5706
2161.59	46.5537
2163.03	45.8361
2164.47	47.0638
2165.92	47.7675
2167.36	48.0702
2168.8	48.4312
2170.24	48.709
2171.69	49.4406
2173.13	48.8787
2174.57	48.741
2176.01	48.7206
2177.45	48.972
2178.89	48.0138
2180.33	46.8766
2181.77	46.2208
2183.21	45.4975
2184.65	45.5784
2186.09	45.4191
2187.53	44.674
2188.97	44.8693
2190.4	44.3829
2191.84	43.5877
2193.28	42.0754
2194.72	41.27
2196.16	41.1555
2197.59	39.8815
2199.03	39.1234
2200.47	38.225
2201.9	37.475
2203.34	36.2045
2204.77	35.8391
2206.21	34.8265
2207.64	34.1351
2209.08	32.2744
2210.51	31.6422
2211.95	30.7906
2213.38	29.5548
2214.82	29.0362
2216.25	27.7636
2217.68	27.2082
2219.12	25.9778
2220.55	25.299
2221.98	24.4456
2223.41	24.0733
2224.85	24.3509
2226.28	23.6388
2227.71	22.4345
2229.14	22.1637
2230.57	21.7893
2232	20.6972
2233.43	19.9132
2234.86	19.0644
2236.29	19.1912
2237.72	17.9885
2239.15	16.736
2240.58	16.0557
2242.01	15.2076
2243.44	14.2223
2244.87	13.3224
2246.29	12.9308
2247.72	12.1859
2249.15	11.6289
2250.58	11.5044
2252.01	11.0611
2253.43	11.2314
2254.86	11.4594
2256.29	11.6938
2257.71	11.963
2259.14	11.7225
2260.56	11.9949
2261.99	11.9493
2263.41	12.5381
2264.84	12.268
2266.26	12.4771
2267.69	12.3681
2269.11	12.5943
2270.53	13.0491
2271.96	13.3978
2273.38	12.8369
2274.8	12.7583
2276.23	12.9302
2277.65	13.0714
2279.07	12.4481
2280.49	12.0978
2281.91	11.862
2283.34	10.5991
2284.76	10.6004
2286.18	10.7925
2287.6	10.8072
2289.02	11.3479
2290.44	10.5725
2291.86	9.32155
2293.28	8.6188
2294.7	8.65762
2296.12	8.45225
2297.54	7.80728
2298.96	7.36595
2300.37	6.97761
2301.79	6.78637
2303.21	7.02294
2304.63	6.4615
2306.04	6.47371
2307.46	6.77463
2308.88	6.78008
2310.3	6.19837
2311.71	6.07916
2313.13	5.64427
2314.54	5.46339
2315.96	5.50299
2317.37	5.37688
2318.79	5.59123
2320.2	5.90691
2321.62	5.82418
2323.03	5.18757
2324.45	5.06214
2325.86	5.00624
2327.27	5.08279
2328.69	5.9574
2330.1	6.32595
2331.51	6.1704
2332.92	6.77392
2334.34	6.62715
2335.75	6.4048
2337.16	6.28939
2338.57	6.62056
2339.98	7.11828
2341.39	6.65246
2342.8	6.55253
2344.21	5.5916
2345.63	5.21879
2347.04	4.73673
2348.45	4.19178
2349.85	3.23396
2351.26	3.04341
2352.67	2.10444
2354.08	1.36034
2355.49	1.75533
2356.9	1.50526
2358.3	1.55092
2359.71	1.29646
2361.12	0.151759
2362.53	-0.174351
2363.93	0.388341
2365.34	0.536248
2366.75	0.362089
2368.15	-0.329775
2369.56	-0.617449
2370.97	-0.450267
2372.37	-0.42637
2373.77	0.0656821
2375.18	-0.0517362
2376.59	0.485656
2377.99	0.997068
2379.39	1.05272
2380.8	0.382309
2382.2	0.536578
2383.6	0.902994
2385.01	1.16047
2386.41	0.94795
2387.81	1.4287
2389.21	1.453
2390.62	1.37688
2392.02	1.91136
2393.42	3.33023
2394.82	3.64489
2396.22	4.38711
2397.62	4.75871
2399.02	5.51177
2400.42	5.47367
2401.82	5.42516
2403.22	5.94921
2404.62	6.21396
2406.02	5.95563
2407.42	6.58179
2408.82	7.3562
2410.22	7.72643
2411.62	7.32492
2413.01	7.54003
2414.41	6.99981
2415.81	7.55232
2417.21	8.1548
2418.6	7.86062
2420	7.90872
2421.4	7.55888
2422.79	7.31954
2424.19	7.71219
2425.59	8.05115
2426.98	7.31026
2428.38	7.40211
2429.77	7.362
2431.17	6.7841
2432.56	6.35753
2433.95	6.14594
2435.35	6.0155
2436.74	5.63399
2438.14	5.60273
2439.53	5.30859
2440.92	4.62587
2442.31	4.42974
2443.71	4.26819
2445.1	3.93648
2446.49	3.49408
2447.88	3.31531
2449.27	2.65562
2450.67	2.57166
2452.06	2.27845
2453.45	2.01018
2454.84	1.64635
2456.23	2
2457.62	2.17968
2459.01	2.38378
2460.4	2.72427
2461.79	3.45541
2463.18	3.23263
2464.57	1.62443
2465.95	1.13142
2467.34	1.59117
2468.73	2.18033
2470.12	1.75859
2471.5	1.87537
2472.89	1.36505
2474.28	1.24543
2475.67	1.46199
2477.05	2.07404
2478.44	1.49845
2479.82	1.60664
2481.21	1.39612
2482.6	2.22754
2483.98	2.19498
2485.37	2.3877
2486.75	2.62317
2488.13	2.2038
2489.52	1.96144
2490.9	2.26704
2492.29	2.72745
2493.67	3.32065
2495.05	2.95372
2496.44	2.71926
2497.82	3.25428
2499.2	3.21361
2500.58	3.48092
2501.97	2.97306
2503.35	3.11327
2504.73	3.60497
2506.11	3.2398
2507.49	2.8063
2508.87	1.90072
2510.25	2.47308
2511.63	2.78026
2513.01	2.59886
2514.39	2.61512
2515.77	2.77209
2517.15	2.47113
2518.53	2.7202
2519.91	2.56049
2521.29	2.22614
2522.67	2.22894
2524.05	2.97469
2525.42	3.57406
2526.8	3.52736
2528.18	3.63163
2529.55	3.55929
2530.93	4.0735
2532.31	3.90348
2533.69	3.17424
2535.06	3.66814
2536.44	4.46011
2537.81	3.77707
2539.19	3.2447
2540.56	3.13151
2541.94	2.36645
2543.31	3.20676
2544.69	3.82485
2546.06	3.44797
2547.44	2.74506
2548.81	3.23871
2550.18	3.14727
2551.56	3.55796
2552.93	3.07688
2554.3	2.95124
2555.67	3.18809
2557.04	2.90558
2558.42	3.16493
2559.79	3.18005
2561.16	2.93258
2562.53	2.40754
2563.9	1.70145
2565.27	1.95217
2566.64	2.38311
2568.01	2.0756
2569.38	2.23502
2570.75	1.30516
2572.12	1.84101
2573.49	2.28914
2574.86	2.33898
2576.23	1.9251
2577.6	2.1544
2578.97	2.60706
2580.33	2.72353
2581.7	2.19192
2583.07	2.61685
2584.44	2.35679
2585.8	1.90226
2587.17	2.21322
2588.54	2.68563
2589.9	2.92095
2591.27	3.0413
2592.64	3.97922
2594	3.82896
2595.37	4.22936
2596.73	4.18548
2598.1	4.677
2599.46	5.29778
2600.83	4.51787
2602.19	4.15157
2603.55	4.46688
2604.92	4.50486
2606.28	4.07304
2607.64	4.22266
2609.01	4.94107
2610.37	5.01947
2611.73	5.71778
2613.09	5.60169
2614.46	5.95216
2615.82	5.65287
2617.18	7.13227
2618.54	6.85887
2619.9	7.46211
2621.26	7.61406
2622.62	7.75529
2623.98	8.6942
2625.34	9.21438
2626.7	8.91339
2628.06	8.42809
2629.42	9.19914
2630.78	9.03875
2632.14	9.40477
2633.5	9.85459
2634.86	10.3189
2636.21	10.3521
2637.57	10.6583
2638.93	11.4566
2640.29	12.299
2641.64	12.2257
2643	12.077
2644.36	12.0193
2645.71	12.8583
2647.07	12.2548
2648.43	12.2834
2649.78	12.2048
2651.14	12.2688
2652.49	12.3259
2653.85	12.4268
2655.2	13.0652
2656.56	13.5826
2657.91	13.3637
2659.26	13.1027
2660.62	13.4937
2661.97	13.4026
2663.32	13.2007
2664.68	12.5701
2666.03	12.3327
2667.38	11.9697
2668.74	11.6722
2670.09	11.5095
2671.44	11.3872
2672.79	10.8512
2674.14	10.8764
2675.49	11.0311
2676.84	11.3309
2678.19	10.7736
2679.54	11.057
2680.89	11.0094
2682.24	10.8003
2683.59	10.831
2684.94	12.1859
2686.29	12.6666
2687.64	12.9695
2688.99	13.5876
2690.34	14.1739
2691.69	14.9282
2693.03	14.5394
2694.38	14.6291
2695.73	15.3019
2697.08	16.1298
2698.42	15.9606
2699.77	16.5058
2701.12	16.8253
2702.46	17.4939
2703.81	18.2894
2705.15	19.0899
2706.5	19.8006
2707.85	20.0136
2709.19	19.8929
2710.54	20.7114
2711.88	21.3097
2713.22	21.0022
2714.57	20.4586
2715.91	20.7871
2717.26	21.1472
2718.6	20.9474
2719.94	21.1326
2721.29	20.9384
2722.63	21.4058
2723.97	21.1247
2725.31	21.3649
2726.66	21.1546
2728	20.9992
2729.34	20.4152
2730.68	19.4611
2732.02	19.446
2733.36	19.1036
2734.7	18.5254
2736.04	17.2959
2737.38	16.3514
2738.72	15.5889
2740.06	14.8648
2741.4	14.2357
2742.74	13.8521
2744.08	12.6841
2745.42	11.8378
2746.76	10.9811
2748.09	10.7309
2749.43	10.0035
2750.77	10.1443
2752.11	9.70689
2753.45	8.97806
2754.78	8.01553
2756.12	7.94739
2757.46	7.25085
2758.79	6.02742
2760.13	5.14329
2761.46	4.62343
2762.8	4.13052
2764.14	3.14338
2765.47	2.39299
2766.8	2.69451
2768.14	2.71929
2769.47	2.31587
2770.81	2.4099
2772.14	1.6825
2773.48	1.04084
2774.81	0.763937
2776.14	0.133573
2777.48	-0.133131
2778.81	-0.586855
2780.14	-1.16242
2781.47	-1.33679
2782.8	-1.18529
2784.14	-0.62197
2785.47	-0.234257
2786.8	-0.359997
2788.13	0.172196
2789.46	0.250685
2790.79	0.374917
2792.12	1.14772
2793.45	0.590329
2794.78	0.714707
2796.11	0.85554
2797.44	0.646479
2798.77	1.26489
2800.1	0.565419
2801.43	-0.261259
2802.76	-1.07519
2804.09	-0.912043
2805.41	-1.44375
2806.74	-1.74519
2808.07	-1.95615
2809.4	-2.15962
2810.72	-2.75633
2812.05	-2.84625
2813.38	-2.88175
2814.71	-1.81597
2816.03	-0.888172
2817.36	1.35756
2818.68	4.41379
2820.01	8.59565
2821.33	13.489
2822.66	18.7598
2823.98	25.388
2825.31	31.701
2826.63	39.671
2827.96	47.2632
2829.28	55.0729
2830.6	63.7055
2831.93	72.4512
2833.25	81.0643
2834.57	90.0065
2835.9	99.1634
2837.22	108.359
2838.54	116.044
2839.86	125.212
2841.18	133.226
2842.5	141.406
2843.83	149.492
2845.15	157.928
2846.47	165.788
2847.79	174.312
2849.11	182.266
2850.43	190.967
2851.75	199.745
2853.07	208.851
2854.39	219.348
2855.71	228.636
2857.03	238.529
2858.35	248.267
2859.66	255.989
2860.98	264.462
2862.3	271.474
2863.62	277.932
2864.94	283.969
2866.25	289.04
2867.57	294.228
2868.89	299.11
2870.2	303.627
2871.52	307.065
2872.84	310.375
2874.15	313.626
2875.47	316.775
2876.78	319.402
2878.1	321.996
2879.41	325.581
2880.73	329.427
2882.04	333.453
2883.36	337.66
2884.67	341.946
2885.99	346.197
2887.3	349.093
2888.61	352.258
2889.93	355.369
2891.24	357.491
2892.55	359.534
2893.86	361.126
2895.18	363.16
2896.49	365.258
2897.8	366.209
2899.11	367.869
2900.42	369.033
2901.73	369.393
2903.05	369.613
2904.36	370.662
2905.67	373.087
2906.98	374.397
2908.29	376.753
2909.6	380.145
2910.91	383.332
2912.21	386.444
2913.52	390.95
2914.83	395.386
2916.14	400.947
2917.45	405.829
2918.76	411.251
2920.07	414.954
2921.37	417.163
2922.68	419.309
2923.99	420.67
2925.29	421.399
2926.6	421.896
2927.91	421.992
2929.22	420.672
2930.52	419.582
2931.83	418.214
2933.13	415.509
2934.44	412.517
2935.74	407.96
2937.05	403.205
2938.35	399.255
2939.66	394.04
2940.96	388.721
2942.26	382.004
2943.57	376.055
2944.87	369.3
2946.18	362.348
2947.48	354.298
2948.78	345.791
2950.08	337.827
2951.39	328.915
2952.69	320.207
2953.99	312.314
2955.29	303.391
2956.59	294.714
2957.9	285.444
2959.2	277.399
2960.5	269.54
2961.8	261.492
2963.1	253.202
2964.4	244.896
2965.7	237.162
2967	229.999
2968.3	223.418
2969.6	217.006
2970.9	210.374
2972.19	203.656
2973.49	197.777
2974.79	191.266
2976.09	184.75
2977.39	178.415
2978.68	172.468
2979.98	165.787
2981.28	159.73
2982.58	153.658
2983.87	147.11
2985.17	139.545
2986.47	132.374
2987.76	125.827
2989.06	119.803
2990.35	113.321
2991.65	106.902
2992.94	100.885
2994.24	93.5025
2995.53	87.3534
2996.83	81.9107
2998.12	75.6646
2999.42	69.868
3000.71	64.6685
3002	60.1097
3003.3	55.5177
3004.59	50.4472
3005.88	46.2019
3007.18	40.9074
3008.47	36.5466
3009.76	32.5686
3011.05	28.5667
3012.34	24.7373
3013.64	22.1447
3014.93	19.6783
3016.22	16.8426
3017.51	14.6633
3018.8	12.2612
3020.09	9.9547
3021.38	7.77087
3022.67	6.33181
3023.96	5.77703
3025.25	4.37107
3026.54	3.20834
3027.83	2.35686
3029.12	1.50594
3030.41	1.14241
3031.69	0.196823
3032.98	0.252895
3034.27	0.106771
3035.56	-0.350092
3036.84	-0.0549839
3038.13	-0.00887453
3039.42	-0.10647
3040.71	0.48624
3041.99	-0.0945743
3043.28	0.44215
3044.57	0.775993
3045.85	0.985353
3047.14	1.02641
3048.42	0.647615
3049.71	0.355004
3050.99	0.445752
3052.28	0.85346
3053.56	1.24826
3054.85	1.28477
3056.13	1.43083
3057.41	1.67991
3058.7	1.3058
3059.98	1.47219
3061.26	2.25549
3062.55	1.5418
3063.83	1.36561
3065.11	1.73068
3066.39	1.03405
3067.68	0.460001
3068.96	0.446759
3070.24	-0.0876984
3071.52	-0.724732
3072.8	-0.220318
3074.08	0.40206
3075.36	0.393497
3076.65	0.901776
3077.93	0.742998
3079.21	0.648465
3080.49	0.974729
3081.77	0.506424
3083.04	1.03939
3084.32	2.02501
3085.6	1.88097
3086.88	2.40184
3088.16	2.02237
3089.44	2.12709
3090.72	2.69746
3091.99	2.8493
3093.27	3.02988
3094.55	3.78801
3095.83	4.60602
3097.1	5.87623
3098.38	6.67653
3099.66	6.87013
3100.93	7.54388
3102.21	7.69787
3103.49	8.28176
3104.76	9.18274
3106.04	9.79597
3107.31	10.5767
3108.59	11.2171
3109.86	11.7194
3111.14	13.4485
3112.41	14.4766
3113.69	15.5285
3114.96	17.1213
3116.23	17.9732
3117.51	19.3573
3118.78	20.209
3120.05	21.2738
3121.33	22.7247
3122.6	23.2918
3123.87	24.5418
3125.14	25.8165
3126.41	26.5603
3127.69	27.5978
3128.96	28.8206
3130.23	29.5113
3131.5	30.4063
3132.77	31.9741
3134.04	33.302
3135.31	34.9862
3136.58	36.5678
3137.85	37.7497
3139.12	38.6269
3140.39	39.4606
3141.66	40.4872
3142.93	41.6607
3144.2	42.5376
3145.47	43.5126
3146.74	44.0622
3148	44.7568
3149.27	48.6091
