#Acq. time (s)=	45
#Accumulations=	2
#Range (cm-¹)=	200...3150
#Windows=	2
#Auto scanning=	Off
#Autofocus=	Off
#Macrospot=	Off
#AutoExposure=	Off
#Spike filter=	Multiple accum.
#Delay time (s)=	0
#Binning=	1
#Readout mode=	Signal
#DeNoise=	Off
#ICS correction=	On
#Dark correction=	Off
#Inst. Process=	Off
#Detector Gain=	Best Dynamic Range
#Detector ADC=	20 kHz       
#Detector temperature (°C)=	-69.85
#Instrument=	LabRAM HR Evol
#Detector=	Synapse
#Objective=	x100
#Grating=	600 gr/mm
#ND Filter=	100%
#Laser (nm)=	532 
#Hole=	100.021
#Range=	Auto
#Laser Pol.=	No
#Raman. Pol.=	No
#Laser Pol. (°)=	-0.0007625
#Raman Pol. (°)=	89.9995
#Collection=	Microscope
#StageXY=	Marzhauser
#StageZ=	Marzhauser
#X (µm)=	-6940
#Y (µm)=	2083.4
#Z (µm)=	-75.05
#Full time(mm:ss)=	3:18
#Project=	
#Sample=	
#Site=	
#Title=	Mb_20_23_16_2x_45s_532 nm_x100_100%_600 gr_mm
#Remark=	
#Date=	13.07.2022 14:05
#Acquired=	13.07.2022 14:05:31
#Base:Fit=	10.08.2022 10:29:37
#Base:Sub=	10.08.2022 10:32:28
#Filter:Polynom=	16.08.2022 10:13:29
#AxisType[0]=Intens
#AxisUnit[0]=Cnt
#AxisType[1]=Spectr
#AxisUnit[1]=1/cm
200.563	50.3992
202.377	48.0893
204.194	46.9918
206.008	44.2539
207.821	42.0668
209.634	39.5237
211.449	36.7558
213.262	33.7469
215.074	31.8672
216.885	29.3875
218.699	27.1946
220.51	26.785
222.321	26.2687
224.131	25.3874
225.941	24.8367
227.751	24.6354
229.562	24.6928
231.371	23.934
233.18	24.675
234.988	25.133
236.796	22.6459
238.603	22.4164
240.411	21.8051
242.219	21.0715
244.026	20.5224
245.832	19.141
247.638	18.3223
249.443	17.2414
251.248	16.7973
253.053	16.4733
254.857	15.8639
256.661	15.9315
258.465	15.4328
260.268	14.7491
262.071	14.7603
263.874	13.7984
265.678	13.2607
267.48	13.8765
269.282	13.3809
271.083	11.5803
272.884	10.5229
274.684	9.48596
276.484	9.24415
278.284	8.12387
280.084	8.04125
281.883	8.14189
283.682	7.49736
285.48	5.94423
287.276	5.06814
289.074	4.27689
290.871	4.54719
292.668	3.28138
294.465	2.53881
296.261	3.4972
298.057	3.21704
299.853	4.52701
301.648	4.66884
303.443	6.03268
305.237	7.70042
307.032	8.86591
308.823	10.4667
310.617	12.4067
312.41	12.9085
314.203	13.9163
315.995	15.9021
317.788	17.2887
319.579	18.0057
321.369	18.381
323.16	18.5578
324.951	18.5115
326.741	16.8235
328.531	18.3609
330.321	18.2307
332.108	18.2044
333.897	18.3877
335.686	17.4835
337.474	18.1414
339.26	17.6892
341.048	18.2728
342.835	16.9997
344.622	16.5853
346.406	15.3041
348.192	14.8475
349.978	13.1073
351.764	12.1737
353.547	10.6002
355.332	8.8084
357.116	8.3156
358.901	8.12115
360.682	6.56117
362.466	5.82049
364.249	4.35575
366.03	4.05661
367.812	3.6657
369.594	3.59209
371.374	3.81952
373.155	2.88951
374.936	2.27919
376.715	2.51907
378.495	1.80135
380.273	1.513
382.053	1.20932
383.832	2.53578
385.609	4.35424
387.388	4.49374
389.164	5.5494
390.942	5.95944
392.72	7.42224
394.495	8.33826
396.272	9.84021
398.047	11.0169
399.823	11.5983
401.597	11.9979
403.372	12.4518
405.145	13.6995
406.92	14.4956
408.693	14.8758
410.467	15.2712
412.239	15.7576
414.012	17.227
415.783	16.5194
417.556	17.2628
419.327	16.9535
421.099	17.2169
422.869	17.1066
424.64	16.1166
426.409	16.5124
428.18	15.452
429.948	15.1839
431.718	14.1222
433.486	12.9399
435.253	12.1353
437.022	12.8565
438.789	11.8002
440.558	12.1009
442.324	11.6214
444.089	11.7576
445.857	12.5792
447.622	13.028
449.386	13.3119
451.153	13.1702
452.917	13.4234
454.682	14.062
456.446	14.4754
458.208	14.3475
459.973	14.5849
461.735	13.4798
463.497	14.1241
465.259	14.7389
467.022	15.3573
468.783	16.3693
470.544	17.7297
472.306	19.1753
474.066	20.0387
475.825	19.7326
477.585	21.5322
479.346	22.7102
481.104	23.8357
482.862	25.1449
484.62	26.0638
486.38	26.3566
488.137	27.0003
489.894	27.6034
491.65	28.6829
493.407	30.7153
495.164	31.2715
496.92	30.8752
498.675	31.6262
500.43	32.027
502.184	31.3792
503.939	30.0806
505.694	30.8986
507.448	31.54
509.201	32.5295
510.954	33.1925
512.706	33.4372
514.459	33.7486
516.21	33.3915
517.962	33.8134
519.715	33.1305
521.466	32.3003
523.216	33.3506
524.966	34.4303
526.716	33.3169
528.466	33.3632
530.215	32.7172
531.964	32.7369
533.712	32.2918
535.46	32.7054
537.208	31.9197
538.955	30.2759
540.703	30.9377
542.449	29.6873
544.196	29.3741
545.942	29.1123
547.688	29.1993
549.433	27.906
551.178	28.1082
552.923	26.3121
554.667	24.8586
556.412	24.1158
558.155	24.0197
559.899	23.5908
561.642	23.3119
563.385	22.0841
565.127	21.6866
566.867	20.2582
568.609	19.5051
570.35	18.642
572.092	17.0193
573.832	16.0802
575.573	15.6192
577.313	13.8064
579.053	14.0892
580.79	13.212
582.529	12.5737
584.268	12.142
586.006	12.3292
587.745	11.1989
589.482	10.6339
591.218	11.0066
592.955	10.9061
594.692	9.10763
596.428	8.68683
598.164	7.75613
599.898	6.56828
601.634	6.00716
603.369	5.47871
605.104	5.34196
606.836	4.56489
608.57	5.43259
610.304	5.97315
612.037	6.06127
613.769	4.67869
615.501	5.23211
617.234	6.85508
618.966	7.6096
620.696	7.87688
622.427	8.20854
624.159	8.30398
625.887	10.1915
627.618	12.8216
629.348	13.5937
631.076	14.7907
632.806	16.918
634.535	17.4262
636.262	17.3027
637.99	18.5051
639.716	18.6329
641.444	19.7819
643.172	21.1664
644.897	21.4472
646.624	21.4423
648.348	21.4022
650.075	21.1449
651.801	21.5734
653.524	22.6253
655.249	22.5451
656.972	22.2603
658.697	21.8327
660.419	21.6773
662.143	22.0404
663.865	22.4991
665.588	23.0471
667.309	22.8751
669.032	23.4753
670.752	23.704
672.474	23.1058
674.194	22.8133
675.915	22.7798
677.634	22.3883
679.355	21.5893
681.073	22.348
682.793	23.6491
684.511	24.1165
686.23	24.7335
687.947	24.6229
689.664	24.724
691.382	25.2751
693.098	25.8085
694.816	25.8437
696.531	26.2245
698.247	26.369
699.963	27.0945
701.678	28.9504
703.392	30.4546
705.108	30.0519
706.821	31.1025
708.534	32.4086
710.249	33.8354
711.962	34.9671
713.674	35.6901
715.388	36.0361
717.099	36.2892
718.81	36.7637
720.523	36.3102
722.234	37.8028
723.944	38.2598
725.654	37.4558
727.365	37.1655
729.075	37.2383
730.784	37.3165
732.492	38.9121
734.202	39.7066
735.91	40.371
737.618	41.65
739.325	43.1963
741.034	42.806
742.741	44.3354
744.447	45.264
746.153	47.0796
747.859	48.1578
749.564	49.7422
751.271	51.4009
752.976	53.7659
754.681	54.6584
756.385	56.7526
758.088	58.1583
759.792	60.3675
761.495	61.8154
763.2	63.5765
764.902	65.167
766.604	65.58
768.306	66.6238
770.008	66.8067
771.709	66.3338
773.41	66.5958
775.11	67.0996
776.811	69.0447
778.51	69.5546
780.21	70.4357
781.909	73.3605
783.608	73.8667
785.307	74.4028
787.005	75.4732
788.703	76.2102
790.401	77.3267
792.098	79.0067
793.795	79.4477
795.492	80.2742
797.188	80.936
798.884	82.7721
800.58	84.2561
802.276	84.4975
803.971	85.883
805.665	86.9524
807.36	88.0128
809.054	86.919
810.748	87.4451
812.441	88.745
814.135	91.1299
815.826	92.0314
817.518	93.6556
819.21	94.0024
820.902	93.9879
822.594	94.7453
824.285	95.3822
825.976	95.3726
827.665	96.238
829.355	95.2872
831.045	93.8919
832.735	92.9368
834.424	93.5431
836.111	92.8315
837.8	92.1856
839.488	90.5696
841.177	90.7714
842.864	89.7587
844.55	87.9936
846.237	85.9463
847.924	85.1444
849.61	84.6768
851.295	82.3425
852.98	81.1676
854.666	78.4868
856.349	77.0295
858.034	76.5217
859.719	75.3676
861.403	75.7601
863.085	72.7688
864.769	72.6504
866.452	71.9496
868.133	69.2477
869.816	68.6887
871.498	69.9183
873.179	69.8085
874.86	70.5845
876.54	70.0289
878.221	69.9693
879.902	70.003
881.58	70.3438
883.26	70.5365
884.938	70.1481
886.618	69.5611
888.297	69.9563
889.974	69.2409
891.653	69.9216
893.329	69.77
895.007	71.7106
896.683	71.9328
898.36	71.4102
900.035	71.3676
901.712	73.4417
903.387	74.1891
905.063	74.4858
906.737	75.1472
908.412	75.1484
910.085	74.5339
911.76	75.1018
913.433	73.5555
915.107	74.099
916.779	74.8123
918.452	75.251
920.124	74.9857
921.797	74.7447
923.467	73.5575
925.138	72.9616
926.81	72.3957
928.48	69.99
930.151	71.0104
931.82	71.145
933.489	69.1826
935.16	66.4602
936.828	64.8489
938.496	62.8026
940.165	60.4169
941.833	57.8099
943.5	56.0661
945.168	53.7409
946.834	51.7162
948.5	51.5553
950.168	50.6553
951.834	50.4044
953.499	50.3316
955.163	48.9508
956.83	47.2866
958.494	46.7776
960.158	44.7074
961.821	43.8163
963.487	44.2605
965.15	44.7051
966.812	44.7644
968.474	45.0022
970.138	45.3866
971.8	46.4376
973.461	47.5107
975.123	48.6788
976.783	48.4281
978.446	50.3347
980.106	50.1219
981.766	51.5491
983.425	53.0763
985.084	54.1548
986.743	53.6047
988.402	53.6494
990.06	54.0653
991.72	54.2082
993.378	56.0605
995.035	57.5105
996.692	57.1652
998.349	57.9161
1000.01	57.7659
1001.66	58.4723
1003.32	58.249
1004.97	58.7471
1006.63	58.9877
1008.28	60.7694
1009.94	61.9057
1011.59	62.0133
1013.25	63.8028
1014.9	62.1373
1016.55	61.0664
1018.21	61.0233
1019.86	61.088
1021.51	60.191
1023.16	59.9067
1024.81	60.7637
1026.47	61.7191
1028.12	61.237
1029.77	62.9632
1031.42	62.6957
1033.07	62.4897
1034.72	62.3384
1036.37	61.3232
1038.02	61.0189
1039.67	62.3288
1041.31	62.8439
1042.96	62.4489
1044.61	64.2541
1046.26	66.2126
1047.91	66.5605
1049.55	66.0344
1051.2	65.7493
1052.84	66.4034
1054.49	66.2882
1056.14	64.8467
1057.78	64.2533
1059.43	63.8653
1061.07	64.0938
1062.72	62.6935
1064.36	62.2941
1066	61.6981
1067.65	61.4447
1069.29	61.4433
1070.93	60.735
1072.58	60.274
1074.22	60.3884
1075.86	60.926
1077.5	59.7849
1079.14	58.7841
1080.78	58.7176
1082.42	59.061
1084.06	58.1809
1085.7	58.0367
1087.34	58.2819
1088.98	57.8376
1090.62	58.8529
1092.26	57.9709
1093.9	56.9554
1095.54	56.542
1097.17	56.0205
1098.81	55.8629
1100.45	56.0588
1102.09	55.7896
1103.72	54.4735
1105.36	54.0463
1106.99	53.5732
1108.63	52.7778
1110.27	51.7769
1111.9	51.2744
1113.53	50.0843
1115.17	48.8667
1116.8	48.675
1118.43	47.564
1120.07	47.4001
1121.7	47.3103
1123.33	46.7966
1124.97	46.2725
1126.6	46.3928
1128.23	46.7233
1129.86	45.4612
1131.49	44.0867
1133.12	42.8913
1134.75	42.598
1136.38	40.0215
1138.01	39.3015
1139.64	39.2186
1141.27	38.0005
1142.9	36.1523
1144.53	34.9048
1146.16	33.7574
1147.78	32.5427
1149.41	30.3756
1151.04	28.8594
1152.67	25.6347
1154.29	24.1031
1155.92	20.9297
1157.54	18.4183
1159.17	15.8146
1160.8	14.6617
1162.42	12.8526
1164.05	10.8913
1165.67	9.06698
1167.29	9.34699
1168.92	8.191
1170.54	7.64066
1172.16	7.79476
1173.79	7.09601
1175.41	6.93374
1177.03	8.28119
1178.65	7.94817
1180.28	7.57141
1181.9	6.94268
1183.52	8.15647
1185.14	8.69075
1186.76	8.39243
1188.38	9.7593
1190	10.2052
1191.62	11.3676
1193.24	12.5593
1194.86	14.1599
1196.47	15.0224
1198.09	17.5957
1199.71	18.8525
1201.33	21.2367
1202.95	23.5287
1204.56	26.078
1206.18	27.4102
1207.8	29.317
1209.41	32.973
1211.03	35.1934
1212.64	38.183
1214.26	40.6625
1215.87	44.2265
1217.49	47.7094
1219.1	52.4158
1220.71	54.917
1222.33	56.7916
1223.94	59.5347
1225.55	62.9273
1227.16	65.6727
1228.78	67.2643
1230.39	68.4145
1232	70.7124
1233.61	72.8458
1235.22	74.8111
1236.83	77.4483
1238.44	80.4795
1240.05	82.1457
1241.66	84.2208
1243.27	85.9451
1244.88	87.253
1246.49	88.3483
1248.1	90.1879
1249.71	91.2886
1251.32	93.3894
1252.92	95.5023
1254.53	95.2086
1256.14	96.2409
1257.74	96.753
1259.35	97.67
1260.96	99.1705
1262.56	100.152
1264.17	102.379
1265.77	102.326
1267.38	103.392
1268.98	105.599
1270.59	107.453
1272.19	110.161
1273.79	111.225
1275.4	112.933
1277	114.044
1278.6	115.533
1280.21	116.984
1281.81	119.206
1283.41	120.972
1285.01	121.88
1286.61	123.577
1288.21	126.701
1289.81	129.95
1291.41	132.328
1293.01	134.172
1294.61	136.257
1296.21	139.035
1297.81	140.222
1299.41	141.303
1301.01	141.536
1302.6	142.586
1304.2	143.811
1305.8	145.125
1307.4	145.385
1308.99	145.011
1310.59	146.353
1312.19	147.764
1313.78	148.632
1315.38	148.151
1316.97	148.3
1318.57	147.112
1320.16	145.416
1321.76	144.253
1323.35	142.595
1324.94	140.921
1326.54	140.63
1328.13	138.261
1329.72	137.225
1331.32	135.279
1332.91	132.95
1334.5	130.325
1336.09	129.267
1337.68	126.552
1339.27	125.283
1340.87	122.454
1342.45	120.599
1344.04	119.439
1345.64	117.412
1347.22	115.968
1348.81	115.405
1350.4	114.002
1351.99	112.164
1353.58	109.42
1355.17	107.573
1356.75	105.206
1358.34	103.601
1359.93	101.505
1361.51	98.9078
1363.1	96.8508
1364.69	95.7014
1366.27	94.9719
1367.86	93.0503
1369.44	91.5814
1371.03	90.1019
1372.61	87.8035
1374.2	86.83
1375.78	86.0953
1377.37	85.5765
1378.95	85.957
1380.53	85.1311
1382.11	85.3204
1383.7	85.593
1385.28	85.9019
1386.86	85.3128
1388.44	85.2944
1390.02	86.6642
1391.6	85.5662
1393.19	84.8107
1394.77	83.7521
1396.35	84.4215
1397.93	84.6202
1399.51	84.1744
1401.08	85.0762
1402.66	86.0782
1404.24	87.4076
1405.82	88.149
1407.4	90.4575
1408.97	94.3633
1410.55	96.0204
1412.13	99.3377
1413.71	102.585
1415.28	105.973
1416.86	110.399
1418.43	116.141
1420.01	121.873
1421.59	128.196
1423.16	133.409
1424.73	138.937
1426.31	144.88
1427.88	151.795
1429.46	157.175
1431.03	162.681
1432.6	166.476
1434.18	171.808
1435.75	175.802
1437.32	179.758
1438.89	182.242
1440.46	185.538
1442.04	188.413
1443.61	189.957
1445.18	190.555
1446.75	191.492
1448.32	192.153
1449.89	192.709
1451.46	192.029
1453.03	191.569
1454.6	189.615
1456.16	186.913
1457.73	183.434
1459.3	179.874
1460.87	175.665
1462.44	170.22
1464	164.653
1465.57	159.476
1467.14	153.549
1468.7	146.498
1470.27	139.532
1471.83	132.906
1473.4	127.209
1474.96	121.194
1476.53	113.667
1478.09	106.433
1479.66	100.674
1481.22	94.1613
1482.78	87.711
1484.35	82.2837
1485.91	78.5416
1487.47	72.7389
1489.04	67.6332
1490.6	63.185
1492.16	59.676
1493.72	56.3729
1495.28	52.6961
1496.84	50.408
1498.4	47.876
1499.96	44.6091
1501.52	41.377
1503.08	39.856
1504.64	37.4801
1506.2	35.8239
1507.76	33.1015
1509.32	30.9116
1510.88	28.777
1512.44	28.4415
1513.99	25.9226
1515.55	24.1873
1517.11	22.6553
1518.66	21.7024
1520.22	19.8038
1521.78	18.684
1523.33	19.2816
1524.89	19.7257
1526.44	19.7625
1528	20.4508
1529.55	19.5949
1531.11	19.9374
1532.66	20.1891
1534.21	22.2737
1535.77	24.065
1537.32	25.3217
1538.87	26.4282
1540.43	28.2133
1541.98	30.3576
1543.53	31.6495
1545.08	32.2338
1546.63	33.418
1548.18	35.269
1549.74	36.48
1551.29	38.3129
1552.84	39.6229
1554.39	39.4178
1555.94	41.1809
1557.48	42.6841
1559.03	44.0675
1560.58	45.7075
1562.13	47.4239
1563.68	49.032
1565.23	50.8423
1566.78	53.197
1568.32	55.4812
1569.87	57.3844
1571.42	59.425
1572.96	60.1066
1574.51	62.8078
1576.05	63.436
1577.6	65.7187
1579.14	67.9287
1580.69	70.9233
1582.24	71.4246
1583.78	72.9122
1585.32	74.2959
1586.87	75.8617
1588.41	76.5728
1589.95	78.8221
1591.5	78.4539
1593.04	78.9388
1594.58	79.697
1596.12	80.4879
1597.67	81.2022
1599.21	82.3287
1600.75	83.4205
1602.29	83.6653
1603.83	83.1037
1605.37	83.0226
1606.91	83.7499
1608.45	84.7237
1609.99	85.3372
1611.53	86.8938
1613.07	87.0832
1614.6	87.4695
1616.14	87.6055
1617.68	88.2373
1619.22	87.9488
1620.75	88.0369
1622.29	89.4985
1623.83	91.0997
1625.37	92.8304
1626.9	95.4542
1628.44	96.8018
1629.97	98.2409
1631.51	99.441
1633.04	103.255
1634.58	105.11
1636.11	107.897
1637.65	111.177
1639.18	113.94
1640.72	118.045
1642.25	121.898
1643.78	124.556
1645.31	127.059
1646.85	128.559
1648.38	130.972
1649.91	131.611
1651.44	134.453
1652.97	135.496
1654.5	138.287
1656.03	139.066
1657.56	139.209
1659.1	137.969
1660.62	137.813
1662.15	137.573
1663.68	136.084
1665.21	134.136
1666.74	132.45
1668.27	128.586
1669.8	125.475
1671.32	123.027
1672.85	119.314
1674.38	114.726
1675.91	110.634
1677.43	106.269
1678.96	101.585
1680.49	96.8944
1682.01	92.6344
1683.54	88.4961
1685.06	83.4385
1686.59	78.5994
1688.11	73.6881
1689.64	67.8891
1691.16	63.4821
1692.68	59.6999
1694.21	55.6317
1695.73	51.108
1697.25	47.5165
1698.78	45.2437
1700.3	41.9648
1701.82	39.1294
1703.34	36.2985
1704.86	32.9622
1706.39	30.647
1707.91	29.113
1709.43	27.8098
1710.95	25.8517
1712.47	25.0872
1713.99	24.6161
1715.51	22.5217
1717.02	22.3499
1718.54	21.0595
1720.06	20.0398
1721.58	18.3497
1723.1	17.2047
1724.62	16.7172
1726.13	16.6177
1727.65	16.7631
1729.17	15.8519
1730.68	16.0418
1732.2	15.3542
1733.72	14.2571
1735.23	13.8759
1736.75	13.4421
1738.26	13.0347
1739.78	12.4362
1741.29	12.4113
1742.81	11.682
1744.32	11.5872
1745.84	11.3551
1747.35	11.3428
1748.86	10.1681
1750.37	9.29551
1751.89	9.4824
1753.4	8.64752
1754.91	8.4488
1756.42	7.56035
1757.93	6.62771
1759.45	6.90489
1760.96	6.62451
1762.47	5.42236
1763.98	4.86873
1765.49	4.41976
1767	4.90026
1768.51	4.1337
1770.02	2.87196
1771.53	2.36424
1773.03	2.83075
1774.54	3.51285
1776.05	3.17122
1777.56	3.55065
1779.07	2.99743
1780.57	2.69751
1782.08	3.07575
1783.59	3.43669
1785.09	3.07607
1786.6	2.95357
1788.11	3.27076
1789.61	3.13734
1791.12	2.41524
1792.62	2.81993
1794.13	2.9626
1795.63	3.23035
1797.13	2.94907
1798.64	3.28992
1800.14	3.16862
1801.65	3.18973
1803.15	2.79121
1804.65	2.89479
1806.15	2.88999
1807.66	2.70229
1809.16	2.51423
1810.66	2.03503
1812.16	1.83759
1813.66	2.10918
1815.16	1.95203
1816.66	1.42012
1818.16	0.684768
1819.66	1.09429
1821.16	0.037485
1822.66	-0.53605
1824.16	-0.427423
1825.66	-0.156653
1827.16	-0.146304
1828.66	-0.353098
1830.16	-0.489441
1831.65	-0.968296
1833.15	-0.490517
1834.65	-0.157022
1836.14	-0.0535261
1837.64	0.0235722
1839.14	0.061666
1840.63	0.0636052
1842.13	0.928071
1843.62	1.4347
1845.12	1.63948
1846.61	1.97575
1848.11	2.61868
1849.6	2.99973
1851.1	3.55368
1852.59	3.82986
1854.08	3.51431
1855.58	4.20421
1857.07	5.02691
1858.56	5.29219
1860.05	5.6938
1861.55	6.65337
1863.04	7.36101
1864.53	7.39079
1866.02	7.74731
1867.51	8.91841
1869	9.29516
1870.49	8.70465
1871.98	8.11698
1873.47	7.77959
1874.96	8.08306
1876.45	7.79911
1877.94	7.41918
1879.43	7.64328
1880.92	7.36528
1882.41	7.37096
1882.51	7.03071
1884	6.5962
1885.5	7.0307
1886.99	5.88101
1888.48	5.15463
1889.98	5.10561
1891.47	4.52789
1892.96	4.34156
1894.46	3.51691
1895.95	3.77518
1897.44	3.85481
1898.93	2.58267
1900.42	1.94561
1901.91	1.40447
1903.41	1.52373
1904.9	1.79806
1906.39	1.97533
1907.88	1.72342
1909.37	2.79398
1910.86	2.92867
1912.35	2.04149
1913.83	2.36399
1915.32	3.42609
1916.81	3.85446
1918.3	3.16683
1919.79	3.95991
1921.27	4.51395
1922.76	5.25912
1924.25	6.11535
1925.74	5.77307
1927.22	6.49259
1928.71	6.35534
1930.19	7.03948
1931.68	6.99489
1933.17	7.05706
1934.65	7.28737
1936.14	6.90559
1937.62	6.45925
1939.11	6.43051
1940.59	6.81977
1942.07	5.88957
1943.56	5.3045
1945.04	5.46362
1946.52	5.36145
1948.01	5.03081
1949.49	4.67299
1950.97	4.41954
1952.45	4.49572
1953.93	3.90987
1955.42	3.20863
1956.9	3.21811
1958.38	3.33711
1959.86	3.49301
1961.34	2.47554
1962.82	2.49081
1964.3	2.28702
1965.78	1.97811
1967.26	1.88818
1968.74	1.58206
1970.21	1.57165
1971.69	1.59027
1973.17	1.25281
1974.65	1.55527
1976.13	2.40778
1977.6	2.96306
1979.08	3.60565
1980.56	3.56657
1982.03	3.63312
1983.51	4.68033
1984.99	4.9169
1986.46	5.51047
1987.94	6.35656
1989.41	7.21349
1990.89	7.16105
1992.36	7.4647
1993.84	8.09803
1995.31	8.37973
1996.78	9.09885
1998.26	8.92118
1999.73	8.88965
2001.2	9.67329
2002.68	9.03383
2004.15	9.61159
2005.62	9.33573
2007.09	9.3763
2008.56	9.22495
2010.04	9.16031
2011.51	9.38556
2012.98	9.93918
2014.45	9.27892
2015.92	9.18488
2017.39	9.17916
2018.86	9.631
2020.33	9.67658
2021.8	10.1775
2023.26	10.2573
2024.73	10.6502
2026.2	10.6046
2027.67	11.4626
2029.14	12.3494
2030.61	12.3738
2032.07	11.8011
2033.54	11.5898
2035.01	10.79
2036.47	11.4686
2037.94	12.3155
2039.4	12.7033
2040.87	13.2202
2042.33	14.0682
2043.8	14.8394
2045.27	15.5094
2046.73	15.2074
2048.19	16.0583
2049.66	16.4144
2051.12	15.6709
2052.59	16.7753
2054.05	16.8191
2055.51	17.2506
2056.97	18.2911
2058.44	18.6759
2059.9	18.7695
2061.36	19.118
2062.82	18.9865
2064.28	18.9198
2065.74	19.2368
2067.21	18.7113
2068.67	18.9578
2070.13	19.3292
2071.59	19.5459
2073.05	19.7469
2074.51	19.5165
2075.96	18.8969
2077.42	18.8199
2078.88	18.6468
2080.34	18.7112
2081.8	19.0266
2083.26	20.3444
2084.72	20.6048
2086.17	21.6324
2087.63	21.8873
2089.09	22.9266
2090.54	23.2398
2092	23.8224
2093.45	24.3056
2094.91	24.5523
2096.37	24.6057
2097.82	25.8865
2099.28	26.1905
2100.73	27.0246
2102.19	27.5894
2103.64	27.6825
2105.09	27.9129
2106.55	30.1005
2108	31.4632
2109.45	32.7179
2110.91	33.6337
2112.36	34.1353
2113.81	35.4229
2115.26	35.742
2116.72	36.0856
2118.17	36.0507
2119.62	37.254
2121.07	38.1091
2122.52	38.9873
2123.97	40.7949
2125.42	41.9177
2126.87	42.8289
2128.32	43.9241
2129.77	45.245
2131.22	45.9826
2132.67	47.5677
2134.11	48.8755
2135.56	49.201
2137.01	51.4818
2138.46	53.0128
2139.91	54.4802
2141.35	56.3369
2142.8	58.4159
2144.25	59.6142
2145.7	61.0973
2147.14	63.4221
2148.59	66.1601
2150.03	69.1678
2151.48	72.2364
2152.92	74.9072
2154.37	77.0452
2155.81	79.3303
2157.26	80.7935
2158.7	83.1091
2160.15	84.2547
2161.59	86.2606
2163.03	88.054
2164.47	89.3197
2165.92	90.7109
2167.36	92.54
2168.8	94.1494
2170.24	95.5616
2171.69	96.8045
2173.13	97.8861
2174.57	99.1875
2176.01	99.5979
2177.45	99.509
2178.89	100.259
2180.33	98.722
2181.77	98.1586
2183.21	96.9226
2184.65	95.4137
2186.09	94.7117
2187.53	92.7044
2188.97	91.0982
2190.4	89.0045
2191.84	87.6046
2193.28	84.9965
2194.72	83.2114
2196.16	80.5531
2197.59	77.6038
2199.03	75.9025
2200.47	73.0246
2201.9	71.2046
2203.34	69.1628
2204.77	67.0752
2206.21	64.9008
2207.64	62.4712
2209.08	60.7991
2210.51	57.9208
2211.95	56.8215
2213.38	55.6172
2214.82	53.915
2216.25	51.3967
2217.68	50.3149
2219.12	49.3141
2220.55	47.7246
2221.98	45.5286
2223.41	43.229
2224.85	40.9935
2226.28	38.6252
2227.71	37.8027
2229.14	36.0157
2230.57	34.7127
2232	33.7377
2233.43	33.1949
2234.86	31.7394
2236.29	31.7224
2237.72	31.5367
2239.15	31.6171
2240.58	30.7793
2242.01	30.9839
2243.44	30.307
2244.87	29.1405
2246.29	29.3243
2247.72	28.6317
2249.15	27.897
2250.58	26.8689
2252.01	25.8901
2253.43	25.0677
2254.86	23.8099
2256.29	23.1058
2257.71	22.6441
2259.14	21.7832
2260.56	21.2356
2261.99	20.7801
2263.41	21.0243
2264.84	20.3243
2266.26	19.5716
2267.69	18.4538
2269.11	18.3024
2270.53	18.0749
2271.96	17.2862
2273.38	17.1813
2274.8	16.6306
2276.23	15.5208
2277.65	14.8684
2279.07	13.905
2280.49	13.066
2281.91	12.4646
2283.34	12.3492
2284.76	11.5091
2286.18	10.3284
2287.6	9.17447
2289.02	9.21315
2290.44	8.54082
2291.86	6.81944
2293.28	6.53039
2294.7	6.30021
2296.12	6.58522
2297.54	6.95228
2298.96	7.17772
2300.37	6.956
2301.79	7.51006
2303.21	8.66489
2304.63	8.80501
2306.04	8.76999
2307.46	9.38782
2308.88	9.32033
2310.3	9.91947
2311.71	9.6529
2313.13	10.3296
2314.54	10.3264
2315.96	11.3558
2317.37	11.8279
2318.79	11.2212
2320.2	10.8341
2321.62	10.327
2323.03	10.682
2324.45	10.248
2325.86	10.6004
2327.27	10.6119
2328.69	11.2927
2330.1	11.461
2331.51	11.5516
2332.92	11.775
2334.34	12.1218
2335.75	10.9418
2337.16	11.4104
2338.57	11.1273
2339.98	11.5532
2341.39	10.7607
2342.8	10.2658
2344.21	10.1459
2345.63	10.6869
2347.04	10.4111
2348.45	10.3476
2349.85	9.95862
2351.26	9.7307
2352.67	10.0013
2354.08	9.74828
2355.49	9.10012
2356.9	8.43513
2358.3	7.24448
2359.71	6.72954
2361.12	6.43091
2362.53	6.47338
2363.93	7.27445
2365.34	6.58441
2366.75	6.70284
2368.15	6.03044
2369.56	5.13141
2370.97	4.46786
2372.37	4.64921
2373.77	4.29882
2375.18	3.65356
2376.59	3.08263
2377.99	2.70218
2379.39	2.27852
2380.8	1.81986
2382.2	1.06286
2383.6	0.963031
2385.01	1.16887
2386.41	1.36591
2387.81	1.05458
2389.21	0.902147
2390.62	0.971926
2392.02	1.22386
2393.42	1.31412
2394.82	0.804709
2396.22	1.18227
2397.62	1.91826
2399.02	2.10712
2400.42	2.7593
2401.82	3.10912
2403.22	2.9517
2404.62	3.12666
2406.02	2.77667
2407.42	3.70269
2408.82	3.62125
2410.22	4.05067
2411.62	4.13612
2413.01	4.40199
2414.41	5.11188
2415.81	5.40493
2417.21	6.34063
2418.6	5.95232
2420	5.84626
2421.4	6.14814
2422.79	5.51413
2424.19	4.97354
2425.59	5.00335
2426.98	5.76666
2428.38	5.83995
2429.77	5.71957
2431.17	5.94188
2432.56	5.49949
2433.95	4.60728
2435.35	4.09183
2436.74	4.12863
2438.14	3.69753
2439.53	3.57324
2440.92	4.18362
2442.31	5.21448
2443.71	4.56107
2445.1	4.34956
2446.49	3.95121
2447.88	3.80589
2449.27	3.54225
2450.67	4.05456
2452.06	3.8922
2453.45	4.27677
2454.84	5.43087
2456.23	5.12208
2457.62	4.50324
2459.01	3.79159
2460.4	3.55643
2461.79	3.11582
2463.18	2.58876
2464.57	2.52368
2465.95	2.9048
2467.34	2.8535
2468.73	1.95743
2470.12	1.87545
2471.5	0.913345
2472.89	0.578282
2474.28	0.611223
2475.67	0.622878
2477.05	0.510115
2478.44	0.339217
2479.82	0.0147591
2481.21	0.162658
2482.6	0.0395549
2483.98	1.0404
2485.37	1.20617
2486.75	1.49543
2488.13	0.603538
2489.52	0.916693
2490.9	0.991637
2492.29	1.53763
2493.67	2.25392
2495.05	2.399
2496.44	2.46719
2497.82	1.47156
2499.2	0.950777
2500.58	1.01558
2501.97	-0.0685218
2503.35	-0.154254
2504.73	0.0744709
2506.11	-0.7735
2507.49	-1.01403
2508.87	-0.265394
2510.25	-0.0377571
2511.63	-0.183629
2513.01	-0.156533
2514.39	-0.0318143
2515.77	0.391947
2517.15	0.145419
2518.53	0.0345936
2519.91	0.406938
2521.29	0.193322
2522.67	1.03742
2524.05	1.02991
2525.42	0.249992
2526.8	0.133997
2528.18	-0.0696652
2529.55	0.693017
2530.93	1.25999
2532.31	1.47296
2533.69	1.40887
2535.06	0.993747
2536.44	0.578155
2537.81	1.28382
2539.19	1.27285
2540.56	1.35518
2541.94	2.12673
2543.31	2.58584
2544.69	2.73484
2546.06	3.3798
2547.44	4.26233
2548.81	4.94829
2550.18	4.65197
2551.56	3.9984
2552.93	5.11188
2554.3	5.53427
2555.67	5.64067
2557.04	5.92453
2558.42	6.3933
2559.79	6.8281
2561.16	7.58212
2562.53	7.37982
2563.9	7.17103
2565.27	7.30057
2566.64	7.03555
2568.01	7.09663
2569.38	6.22739
2570.75	6.04908
2572.12	6.46947
2573.49	6.20811
2574.86	6.16238
2576.23	6.61823
2577.6	7.79359
2578.97	7.6078
2580.33	8.53767
2581.7	8.3433
2583.07	8.65658
2584.44	7.9061
2585.8	6.79385
2587.17	6.82979
2588.54	6.8346
2589.9	6.95091
2591.27	6.70012
2592.64	5.6944
2594	5.92428
2595.37	5.49039
2596.73	5.49718
2598.1	5.45989
2599.46	4.99213
2600.83	4.40373
2602.19	4.17084
2603.55	4.60829
2604.92	4.64546
2606.28	4.90033
2607.64	4.02136
2609.01	4.08209
2610.37	3.70157
2611.73	3.3035
2613.09	2.96306
2614.46	3.4898
2615.82	3.39788
2617.18	3.19176
2618.54	3.02357
2619.9	3.2892
2621.26	4.62025
2622.62	4.82426
2623.98	4.95373
2625.34	5.06363
2626.7	5.73155
2628.06	5.99261
2629.42	5.7455
2630.78	5.36249
2632.14	4.92545
2633.5	5.52508
2634.86	6.00343
2636.21	6.44522
2637.57	6.33039
2638.93	7.08255
2640.29	7.76063
2641.64	7.80127
2643	7.91669
2644.36	7.98628
2645.71	8.38922
2647.07	8.13752
2648.43	8.31603
2649.78	7.97668
2651.14	8.10676
2652.49	6.8327
2653.85	6.9985
2655.2	7.69736
2656.56	7.42129
2657.91	7.72093
2659.26	7.8912
2660.62	7.67387
2661.97	8.31641
2663.32	7.79416
2664.68	8.60537
2666.03	8.1523
2667.38	8.42785
2668.74	8.49181
2670.09	7.99451
2671.44	7.51846
2672.79	8.04958
2674.14	8.85524
2675.49	8.76587
2676.84	9.28133
2678.19	9.37589
2679.54	11.1189
2680.89	11.8952
2682.24	12.5072
2683.59	12.7634
2684.94	12.4713
2686.29	12.2578
2687.64	11.9914
2688.99	12.224
2690.34	12.0677
2691.69	12.0297
2693.03	11.7224
2694.38	12.0077
2695.73	12.3225
2697.08	13.4279
2698.42	14.2397
2699.77	15.2486
2701.12	15.7822
2702.46	16.2984
2703.81	16.3628
2705.15	16.4181
2706.5	16.692
2707.85	17.3626
2709.19	17.3461
2710.54	17.6581
2711.88	17.4924
2713.22	17.6835
2714.57	18.4148
2715.91	18.911
2717.26	18.7419
2718.6	19.1671
2719.94	19.412
2721.29	20.1591
2722.63	20.3395
2723.97	20.7309
2725.31	20.9621
2726.66	20.4684
2728	19.5525
2729.34	19.6378
2730.68	18.9363
2732.02	18.8514
2733.36	18.2165
2734.7	17.9692
2736.04	17.5184
2737.38	16.8874
2738.72	17.3127
2740.06	17.6805
2741.4	16.98
2742.74	15.8614
2744.08	15.3394
2745.42	14.9739
2746.76	15.2308
2748.09	13.8196
2749.43	13.0689
2750.77	11.947
2752.11	10.5464
2753.45	9.67588
2754.78	9.24691
2756.12	8.9167
2757.46	9.23429
2758.79	9.0145
2760.13	8.5244
2761.46	8.21213
2762.8	8.28541
2764.14	7.47673
2765.47	6.98256
2766.8	6.39565
2768.14	6.00796
2769.47	6.15681
2770.81	5.82152
2772.14	5.43797
2773.48	5.03263
2774.81	4.77482
2776.14	3.82963
2777.48	2.97337
2778.81	2.52533
2780.14	2.96619
2781.47	2.91188
2782.8	2.47942
2784.14	1.8481
2785.47	2.13166
2786.8	2.06414
2788.13	1.53565
2789.46	1.38959
2790.79	0.981006
2792.12	-0.0031467
2793.45	0.0276306
2794.78	0.145186
2796.11	0.790362
2797.44	0.838376
2798.77	0.93238
2800.1	1.56422
2801.43	1.25591
2802.76	1.18372
2804.09	1.47354
2805.41	1.72183
2806.74	0.921274
2808.07	1.22351
2809.4	1.36362
2810.72	1.23507
2812.05	1.47111
2813.38	2.1736
2814.71	2.41159
2816.03	3.76487
2817.36	5.04621
2818.68	7.74398
2820.01	11.2105
2821.33	14.7504
2822.66	19.571
2823.98	23.6976
2825.31	28.0548
2826.63	32.6399
2827.96	37.6747
2829.28	43.3816
2830.6	49.1016
2831.93	56.8776
2833.25	63.1254
2834.57	70.4676
2835.9	77.0852
2837.22	83.4386
2838.54	89.742
2839.86	97.4402
2841.18	105.317
2842.5	113.96
2843.83	123.195
2845.15	132.843
2846.47	142.35
2847.79	151.722
2849.11	161.948
2850.43	172.157
2851.75	183.213
2853.07	193.763
2854.39	203.383
2855.71	213.479
2857.03	223.74
2858.35	234.119
2859.66	244.252
2860.98	253.514
2862.3	261.984
2863.62	270.069
2864.94	277.99
2866.25	285.944
2867.57	292.111
2868.89	298.29
2870.2	304.086
2871.52	310.026
2872.84	315.322
2874.15	320.854
2875.47	325.306
2876.78	329.501
2878.1	334.749
2879.41	339.292
2880.73	343.753
2882.04	347.982
2883.36	353.036
2884.67	357.833
2885.99	363.081
2887.3	367.001
2888.61	371.206
2889.93	375.184
2891.24	379.53
2892.55	383.962
2893.86	388.787
2895.18	393.939
2896.49	399.589
2897.8	405.308
2899.11	410.319
2900.42	416.016
2901.73	421.54
2903.05	428.267
2904.36	436.139
2905.67	444.789
2906.98	453.536
2908.29	462.875
2909.6	472.762
2910.91	483.083
2912.21	493.374
2913.52	503.355
2914.83	513.838
2916.14	523.978
2917.45	533.262
2918.76	541.601
2920.07	549.951
2921.37	558.259
2922.68	565.943
2923.99	570.97
2925.29	575.598
2926.6	579.996
2927.91	583.1
2929.22	585.333
2930.52	585.747
2931.83	584.867
2933.13	582.782
2934.44	580.489
2935.74	577.723
2937.05	573.732
2938.35	567.645
2939.66	561.18
2940.96	554.368
2942.26	546.496
2943.57	537.947
2944.87	528.293
2946.18	519.286
2947.48	508.944
2948.78	499.394
2950.08	488.286
2951.39	477.263
2952.69	464.052
2953.99	452.33
2955.29	441.206
2956.59	429.538
2957.9	418.04
2959.2	406.567
2960.5	395.439
2961.8	384.301
2963.1	372.735
2964.4	361.629
2965.7	350.68
2967	340.594
2968.3	330.849
2969.6	320.993
2970.9	311.623
2972.19	303.377
2973.49	294.69
2974.79	286.284
2976.09	277.615
2977.39	268.637
2978.68	260.181
2979.98	251.72
2981.28	242.934
2982.58	233.74
2983.87	224.383
2985.17	214.97
2986.47	204.757
2987.76	194.856
2989.06	184.897
2990.35	176.1
2991.65	167.166
2992.94	157.469
2994.24	148.369
2995.53	138.9
2996.83	129.839
2998.12	121.347
2999.42	113.392
3000.71	106.114
3002	98.4034
3003.3	90.7059
3004.59	83.7045
3005.88	77.0031
3007.18	70.1137
3008.47	63.8226
3009.76	58.2982
3011.05	52.8443
3012.34	47.5212
3013.64	43.0333
3014.93	38.7544
3016.22	34.737
3017.51	30.6895
3018.8	27.9555
3020.09	25.5215
3021.38	23.5478
3022.67	21.0318
3023.96	19.8692
3025.25	18.5432
3026.54	16.5472
3027.83	14.7858
3029.12	14.4501
3030.41	13.9584
3031.69	13.9366
3032.98	13.7092
3034.27	14.0868
3035.56	15.1312
3036.84	15.6286
3038.13	15.5841
3039.42	16.1669
3040.71	17.1514
3041.99	18.0155
3043.28	18.9595
3044.57	18.8583
3045.85	18.9814
3047.14	19.6598
3048.42	19.588
3049.71	20.1209
3050.99	20.601
3052.28	21.0026
3053.56	21.1577
3054.85	21.1676
3056.13	21.8588
3057.41	21.4772
3058.7	21.6504
3059.98	21.1652
3061.26	20.1518
3062.55	20.1889
3063.83	20.1951
3065.11	19.8796
3066.39	18.4646
3067.68	16.8738
3068.96	15.2811
3070.24	13.7994
3071.52	12.6054
3072.8	11.8078
3074.08	11.0625
3075.36	9.44168
3076.65	8.47915
3077.93	7.5324
3079.21	6.4462
3080.49	5.29121
3081.77	4.27463
3083.04	3.67952
3084.32	3.11796
3085.6	2.79864
3086.88	1.99711
3088.16	2.27019
3089.44	1.82697
3090.72	1.26035
3091.99	1.4528
3093.27	1.922
3094.55	2.46593
3095.83	3.24339
3097.1	3.20939
3098.38	3.851
3099.66	4.55118
3100.93	4.66337
3102.21	5.89814
3103.49	6.80979
3104.76	8.3766
3106.04	9.29418
3107.31	9.92414
3108.59	10.8856
3109.86	12.0057
3111.14	12.9301
3112.41	13.8258
3113.69	14.6648
3114.96	15.3048
3116.23	16.4129
3117.51	17.4706
3118.78	18.8454
3120.05	20.2878
3121.33	20.8756
3122.6	22.3868
3123.87	23.1819
3125.14	23.6981
3126.41	25.3669
3127.69	26.1714
3128.96	26.5988
3130.23	27.0386
3131.5	27.5549
3132.77	28.3932
3134.04	29.8824
3135.31	31.2947
3136.58	32.291
3137.85	32.872
3139.12	33.2988
3140.39	34.3123
3141.66	35.2848
3142.93	36.2594
3144.2	37.4899
3145.47	38.8864
3146.74	40.534
3148	42.2752
3149.27	43.7543
