#Acq. time (s)=	45
#Accumulations=	2
#Range (cm-¹)=	200...3150
#Windows=	2
#Auto scanning=	Off
#Autofocus=	Off
#Macrospot=	Off
#AutoExposure=	Off
#Spike filter=	Multiple accum.
#Delay time (s)=	0
#Binning=	1
#Readout mode=	Signal
#DeNoise=	Off
#ICS correction=	On
#Dark correction=	Off
#Inst. Process=	Off
#Detector Gain=	Best Dynamic Range
#Detector ADC=	20 kHz       
#Detector temperature (°C)=	-69.85
#Instrument=	LabRAM HR Evol
#Detector=	Synapse
#Objective=	x50
#Grating=	600 gr/mm
#ND Filter=	100%
#Laser (nm)=	532 
#Hole=	100.021
#Range=	Auto
#Laser Pol.=	No
#Raman. Pol.=	No
#Laser Pol. (°)=	-0.0007625
#Raman Pol. (°)=	89.9995
#Collection=	Microscope
#StageXY=	Marzhauser
#StageZ=	Marzhauser
#X (µm)=	-6993.5
#Y (µm)=	2158.4
#Z (µm)=	-74.35
#Full time(mm:ss)=	3:18
#Project=	
#Sample=	
#Site=	
#Title=	Mb_20_23_03_2x_45s_532 nm_x50_100%_600 gr_mm
#Remark=	
#Date=	13.07.2022 13:07
#Acquired=	13.07.2022 13:07:31
#Base:Fit=	10.08.2022 10:29:19
#Base:Fit=	10.08.2022 10:29:37
#Base:Sub=	10.08.2022 10:31:46
#Filter:Polynom=	16.08.2022 10:13:29
#AxisType[0]=Intens
#AxisUnit[0]=Cnt
#AxisType[1]=Spectr
#AxisUnit[1]=1/cm
200.563	8.41095
202.377	11.3515
204.194	10.8036
206.008	11.4106
207.821	11.5805
209.634	11.9948
211.449	12.4533
213.262	13.1025
215.074	13.1411
216.885	14.0428
218.699	14.62
220.51	15.498
222.321	15.3804
224.131	16.5175
225.941	16.0379
227.751	15.2388
229.562	15.3305
231.371	15.6752
233.18	15.9675
234.988	15.7883
236.796	16.09
238.603	15.8124
240.411	16.318
242.219	16.8444
244.026	16.2582
245.832	16.2679
247.638	15.9105
249.443	16.1408
251.248	16.3053
253.053	16.5765
254.857	16.38
256.661	16.2201
258.465	15.712
260.268	16.1147
262.071	16.3987
263.874	16.0352
265.678	15.7779
267.48	15.3672
269.282	14.6346
271.083	13.233
272.884	12.9633
274.684	10.5416
276.484	10.4356
278.284	9.59475
280.084	9.43677
281.883	8.86666
283.682	7.86493
285.48	6.41463
287.276	5.55957
289.074	5.87795
290.871	6.25772
292.668	5.68966
294.465	5.77089
296.261	5.99896
298.057	7.49791
299.853	9.66718
301.648	9.54733
303.443	9.91438
305.237	10.193
307.032	12.1247
308.823	12.3226
310.617	13.9076
312.41	13.6509
314.203	14.9991
315.995	15.3174
317.788	15.9823
319.579	17.7325
321.369	19.2914
323.16	19.8803
324.951	20.9129
326.741	21.9975
328.531	22.5004
330.321	22.9362
332.108	23.3464
333.897	23.1748
335.686	23.5567
337.474	25.6986
339.26	26.8046
341.048	27.6151
342.835	28.0605
344.622	27.0868
346.406	26.4562
348.192	27.461
349.978	27.8818
351.764	27.0638
353.547	26.7602
355.332	26.0306
357.116	25.9667
358.901	25.2014
360.682	24.1066
362.466	22.27
364.249	22.0242
366.03	20.6387
367.812	19.1387
369.594	18.8873
371.374	18.5565
373.155	17.4725
374.936	17.7504
376.715	18.5709
378.495	18.8367
380.273	18.6761
382.053	18.5866
383.832	19.5911
385.609	21.1117
387.388	21.1621
389.164	20.8207
390.942	19.298
392.72	18.6329
394.495	19.8643
396.272	19.8608
398.047	19.0832
399.823	19.5044
401.597	17.7518
403.372	17.2044
405.145	16.1326
406.92	16.3482
408.693	16.4033
410.467	14.5857
412.239	13.1685
414.012	12.6278
415.783	12.2302
417.556	11.9442
419.327	11.6299
421.099	11.3281
422.869	11.5802
424.64	11.6687
426.409	12.9381
428.18	11.6535
429.948	11.8351
431.718	11.2614
433.486	10.9185
435.253	12.371
437.022	12.5813
438.789	12.8402
440.558	11.6991
442.324	11.6578
444.089	11.7273
445.857	10.8378
447.622	11.1127
449.386	11.2735
451.153	10.654
452.917	11.9187
454.682	11.8133
456.446	12.5223
458.208	14.3706
459.973	16.5177
461.735	17.9609
463.497	18.0913
465.259	18.9817
467.022	19.6582
468.783	21.4208
470.544	21.7782
472.306	22.2493
474.066	23.3687
475.825	23.4611
477.585	23.8772
479.346	24.814
481.104	25.8738
482.862	27.9721
484.62	27.6614
486.38	28.5952
488.137	28.3604
489.894	28.7238
491.65	28.4297
493.407	29.3446
495.164	29.8134
496.92	30.4545
498.675	31.7514
500.43	33.9241
502.184	34.4708
503.939	35.6733
505.694	36.8584
507.448	36.9084
509.201	36.8212
510.954	37.1645
512.706	36.6461
514.459	37.8075
516.21	37.5928
517.962	38.3261
519.715	38.4679
521.466	38.5436
523.216	38.5148
524.966	38.5303
526.716	37.9861
528.466	36.2832
530.215	36.7272
531.964	35.585
533.712	34.1326
535.46	33.9638
537.208	32.5368
538.955	31.8368
540.703	31.7108
542.449	30.6101
544.196	30.1662
545.942	30.2673
547.688	28.7134
549.433	27.5558
551.178	25.5908
552.923	24.9134
554.667	23.7582
556.412	22.4528
558.155	20.5504
559.899	15.5079
561.642	10.9463
563.385	8.63965
565.127	9.92101
566.867	11.0097
568.609	11.7971
570.35	12.1962
572.092	12.1898
573.832	12.685
575.573	12.6649
577.313	13.6246
579.053	14.0852
580.79	15.993
582.529	17.7075
584.268	19.4247
586.006	19.7012
587.745	19.6676
589.482	21.0185
591.218	22.5753
592.955	22.6996
594.692	21.9207
596.428	21.9069
598.164	21.8527
599.898	22.3856
601.634	23.8161
603.369	24.2653
605.104	24.4818
606.836	23.5114
608.57	23.4726
610.304	23.7945
612.037	23.8747
613.769	21.7049
615.501	21.1904
617.234	20.8148
618.966	19.705
620.696	18.5276
622.427	17.3641
624.159	16.2544
625.887	16.2683
627.618	14.788
629.348	14.0317
631.076	12.686
632.806	11.0158
634.535	10.0568
636.262	9.30931
637.99	7.36043
639.716	5.85671
641.444	3.43287
643.172	1.5259
644.897	-1.55584
646.624	-4.0842
648.348	-0.942074
650.075	3.13974
651.801	4.51641
653.524	3.77389
655.249	4.15222
656.972	3.48451
658.697	3.26605
660.419	3.19292
662.143	2.76759
663.865	2.69087
665.588	3.78545
667.309	4.69017
669.032	5.70978
670.752	6.08016
672.474	7.29671
674.194	7.15326
675.915	8.25166
677.634	7.90027
679.355	7.36041
681.073	7.35784
682.793	8.77259
684.511	10.1285
686.23	11.4277
687.947	12.2154
689.664	11.3799
691.382	11.4806
693.098	12.3119
694.816	13.5993
696.531	13.7528
698.247	13.1198
699.963	13.2601
701.678	14.4449
703.392	15.5387
705.108	16.1339
706.821	16.5217
708.534	17.834
710.249	19.4558
711.962	20.1854
713.674	21.9407
715.388	22.8156
717.099	23.1698
718.81	25.0633
720.523	25.4856
722.234	25.3347
723.944	25.1366
725.654	25.4643
727.365	25.0331
729.075	26.2002
730.784	26.5517
732.492	27.4853
734.202	27.5788
735.91	27.5311
737.618	27.7277
739.325	27.6727
741.034	28.1813
742.741	28.2888
744.447	29.0955
746.153	29.7727
747.859	30.6243
749.564	31.3054
751.271	32.4083
752.976	32.9626
754.681	33.2677
756.385	33.0383
758.088	34.6184
759.792	35.7084
761.495	36.673
763.2	37.303
764.902	38.7688
766.604	40.3195
768.306	42.6645
770.008	44.0165
771.709	44.4299
773.41	44.4828
775.11	45.7978
776.811	47.8357
778.51	48.1897
780.21	48.1293
781.909	48.7886
783.608	50.1002
785.307	52.5848
787.005	53.3127
788.703	54.9763
790.401	54.9912
792.098	55.8956
793.795	57.7034
795.492	59.748
797.188	61.6059
798.884	62.7528
800.58	61.7481
802.276	63.1073
803.971	64.2308
805.665	64.8767
807.36	66.8727
809.054	67.9775
810.748	69.2581
812.441	68.8991
814.135	69.9739
815.826	69.9161
817.518	70.0211
819.21	70.2995
820.902	70.1368
822.594	70.6765
824.285	71.2786
825.976	72.1935
827.665	72.2592
829.355	72.4295
831.045	71.7979
832.735	71.5419
834.424	71.5717
836.111	71.5568
837.8	70.8604
839.488	70.5856
841.177	70.3467
842.864	71.1652
844.55	70.3622
846.237	67.8991
847.924	68.5428
849.61	67.2625
851.295	65.8145
852.98	65.8832
854.666	65.0878
856.349	63.2033
858.034	62.3847
859.719	62.431
861.403	61.0492
863.085	59.7447
864.769	59.2913
866.452	58.5051
868.133	57.8694
869.816	57.7008
871.498	55.6557
873.179	55.1904
874.86	54.0648
876.54	54.9946
878.221	55.3353
879.902	55.4157
881.58	54.4145
883.26	52.5458
884.938	52.541
886.618	52.496
888.297	52.3227
889.974	52.3659
891.653	52.1769
893.329	50.9904
895.007	51.2269
896.683	51.4089
898.36	52.4621
900.035	51.5611
901.712	51.7235
903.387	51.8858
905.063	51.2367
906.737	52.2636
908.412	52.2526
910.085	51.1452
911.76	49.8825
913.433	50.7941
915.107	49.1827
916.779	48.5314
918.452	47.5049
920.124	46.0925
921.797	43.7924
923.467	44.5048
925.138	45.0682
926.81	44.1643
928.48	42.749
930.151	40.0192
931.82	40.4629
933.489	39.2795
935.16	39.7797
936.828	38.9827
938.496	36.9851
940.165	35.0781
941.833	34.09
943.5	32.0174
945.168	29.8017
946.834	29.1862
948.5	28.8682
950.168	27.6597
951.834	27.8664
953.499	28.049
955.163	26.9852
956.83	27.9475
958.494	27.8835
960.158	27.2555
961.821	25.6564
963.487	24.3654
965.15	23.5572
966.812	23.7271
968.474	24.7219
970.138	27.2437
971.8	30.5934
973.461	32.0513
975.123	33.2923
976.783	34.6474
978.446	35.9707
980.106	37.6367
981.766	37.8338
983.425	38.2067
985.084	37.4646
986.743	38.1417
988.402	38.39
990.06	39.1606
991.72	38.5993
993.378	38.2243
995.035	38.9943
996.692	39.6934
998.349	38.5899
1000.01	39.1677
1001.66	39.3792
1003.32	39.7312
1004.97	39.6422
1006.63	41.0277
1008.28	40.909
1009.94	37.8237
1011.59	37.3639
1013.25	35.9857
1014.9	37.0324
1016.55	36.3144
1018.21	35.5775
1019.86	34.7459
1021.51	34.5942
1023.16	34.6404
1024.81	35.7634
1026.47	37.0177
1028.12	38.3806
1029.77	39.9273
1031.42	41.2064
1033.07	42.2659
1034.72	42.0622
1036.37	42.7227
1038.02	42.4211
1039.67	42.0557
1041.31	41.413
1042.96	41.4459
1044.61	42.7396
1046.26	45.3112
1047.91	47.0263
1049.55	49.4227
1051.2	50.9029
1052.84	52.3672
1054.49	52.8308
1056.14	52.6194
1057.78	53.0792
1059.43	53.2228
1061.07	53.7652
1062.72	53.9863
1064.36	54.3441
1066	54.4014
1067.65	54.3386
1069.29	55.1983
1070.93	54.6793
1072.58	55.2803
1074.22	55.3824
1075.86	54.9518
1077.5	53.4379
1079.14	52.2516
1080.78	52.4094
1082.42	50.7212
1084.06	50.1094
1085.7	49.1466
1087.34	48.1139
1088.98	47.1476
1090.62	46.3497
1092.26	44.3945
1093.9	45.0791
1095.54	44.2266
1097.17	44.2155
1098.81	44.5456
1100.45	44.1891
1102.09	43.2645
1103.72	42.1198
1105.36	41.4107
1106.99	42.2816
1108.63	41.6058
1110.27	40.6347
1111.9	39.9515
1113.53	39.4807
1115.17	39.4641
1116.8	37.8027
1118.43	37.2648
1120.07	36.7874
1121.7	35.3392
1123.33	33.6478
1124.97	32.2625
1126.6	32.2861
1128.23	31.1125
1129.86	29.2245
1131.49	29.156
1133.12	28.6765
1134.75	28.3702
1136.38	27.9734
1138.01	28.0099
1139.64	26.9842
1141.27	27.15
1142.9	26.4676
1144.53	26.009
1146.16	25.9967
1147.78	23.3091
1149.41	21.2203
1151.04	18.458
1152.67	18.3631
1154.29	17.5422
1155.92	15.7857
1157.54	14.1888
1159.17	13.3652
1160.8	13.5779
1162.42	12.806
1164.05	11.0098
1165.67	10.6571
1167.29	9.44716
1168.92	8.16478
1170.54	6.87519
1172.16	6.44513
1173.79	6.48571
1175.41	6.59485
1177.03	6.58176
1178.65	6.39014
1180.28	6.33143
1181.9	5.26852
1183.52	4.2582
1185.14	4.28894
1186.76	4.83826
1188.38	6.03895
1190	5.2036
1191.62	7.06806
1193.24	7.80607
1194.86	8.80575
1196.47	8.89913
1198.09	9.27635
1199.71	10.4253
1201.33	12.4862
1202.95	13.2368
1204.56	14.623
1206.18	17.5533
1207.8	19.8043
1209.41	21.548
1211.03	23.8605
1212.64	27.1042
1214.26	29.9314
1215.87	32.5992
1217.49	34.6332
1219.1	37.0089
1220.71	40.0484
1222.33	44.0038
1223.94	45.6543
1225.55	49.0965
1227.16	51.3352
1228.78	54.7399
1230.39	58.003
1232	61.0194
1233.61	64.2188
1235.22	66.4439
1236.83	69.7613
1238.44	72.4092
1240.05	73.7527
1241.66	75.4172
1243.27	77.416
1244.88	79.4027
1246.49	81.0896
1248.1	83.0952
1249.71	84.7888
1251.32	87.9376
1252.92	90.4144
1254.53	91.6773
1256.14	91.8173
1257.74	92.5545
1259.35	93.2508
1260.96	94.3237
1262.56	95.7471
1264.17	96.8062
1265.77	99.0967
1267.38	101.354
1268.98	103.768
1270.59	106.191
1272.19	110.451
1273.79	111.646
1275.4	114.856
1277	117.648
1278.6	121.114
1280.21	123.375
1281.81	126.616
1283.41	129.632
1285.01	132.657
1286.61	135.954
1288.21	138.745
1289.81	141.068
1291.41	143.358
1293.01	146.154
1294.61	148.107
1296.21	150.253
1297.81	151.765
1299.41	154.289
1301.01	157.404
1302.6	158.528
1304.2	158.598
1305.8	159.592
1307.4	160.743
1308.99	161.385
1310.59	159.149
1312.19	157.837
1313.78	157.916
1315.38	157.69
1316.97	157.704
1318.57	155.983
1320.16	153.234
1321.76	151.435
1323.35	150.571
1324.94	148.365
1326.54	146.248
1328.13	143.635
1329.72	141.459
1331.32	139.257
1332.91	134.931
1334.5	131.379
1336.09	128.472
1337.68	127.557
1339.27	125.152
1340.87	122.89
1342.45	120.216
1344.04	118.109
1345.64	116.286
1347.22	114.817
1348.81	113.635
1350.4	113.179
1351.99	111.221
1353.58	108.032
1355.17	107.369
1356.75	105.054
1358.34	103.407
1359.93	103.214
1361.51	101.999
1363.1	100.606
1364.69	99.0246
1366.27	97.7913
1367.86	96.5182
1369.44	95.3252
1371.03	95.7611
1372.61	96.2672
1374.2	97.0465
1375.78	97.7623
1377.37	98.5675
1378.95	98.601
1380.53	97.7089
1382.11	96.5836
1383.7	96.3479
1385.28	96.5714
1386.86	96.9234
1388.44	96.9784
1390.02	95.5633
1391.6	96.5081
1393.19	97.7051
1394.77	97.4211
1396.35	98.261
1397.93	97.8444
1399.51	98.6262
1401.08	101.189
1402.66	104.676
1404.24	107.018
1405.82	110.101
1407.4	113.458
1408.97	118.01
1410.55	121.83
1412.13	126.313
1413.71	131.086
1415.28	137.622
1416.86	144.05
1418.43	148.954
1420.01	155.826
1421.59	162.979
1423.16	170.819
1424.73	178.049
1426.31	185.348
1427.88	191.728
1429.46	199.379
1431.03	205.965
1432.6	213.158
1434.18	220.305
1435.75	225.565
1437.32	229.872
1438.89	235.423
1440.46	239.875
1442.04	244.235
1443.61	247.473
1445.18	250.245
1446.75	251.681
1448.32	252.005
1449.89	251.322
1451.46	250.385
1453.03	248.837
1454.6	244.761
1456.16	239.321
1457.73	233.879
1459.3	228.181
1460.87	222.251
1462.44	215.229
1464	206.868
1465.57	198.364
1467.14	190.31
1468.7	180.69
1470.27	172.666
1471.83	163.547
1473.4	153.012
1474.96	143.44
1476.53	134.374
1478.09	127.183
1479.66	119.898
1481.22	112.084
1482.78	104.166
1484.35	95.6828
1485.91	89.066
1487.47	82.0488
1489.04	75.9733
1490.6	70.7933
1492.16	64.7294
1493.72	60.9626
1495.28	56.9051
1496.84	53.3603
1498.4	50.3132
1499.96	47.0982
1501.52	44.4624
1503.08	41.6255
1504.64	40.6359
1506.2	39.4852
1507.76	38.7758
1509.32	37.7982
1510.88	36.4988
1512.44	35.8329
1513.99	35.5454
1515.55	35.9526
1517.11	37.8795
1518.66	37.7073
1520.22	36.9227
1521.78	37.2421
1523.33	37.2716
1524.89	37.292
1526.44	37.9539
1528	39.2368
1529.55	40.4822
1531.11	41.3427
1532.66	41.0545
1534.21	42.2345
1535.77	44.7026
1537.32	44.8671
1538.87	45.0987
1540.43	45.0116
1541.98	46.3207
1543.53	48.326
1545.08	49.6837
1546.63	49.9321
1548.18	50.6882
1549.74	51.4305
1551.29	51.1432
1552.84	52.6904
1554.39	53.3434
1555.94	54.1345
1557.48	54.9312
1559.03	54.7393
1560.58	55.2814
1562.13	56.2519
1563.68	58.0795
1565.23	58.981
1566.78	60.6694
1568.32	60.9939
1569.87	62.6408
1571.42	64.5699
1572.96	66.7421
1574.51	68.0971
1576.05	69.1836
1577.6	71.5199
1579.14	73.3509
1580.69	75.2159
1582.24	78.0899
1583.78	79.1017
1585.32	81.8798
1586.87	84.6682
1588.41	85.8578
1589.95	87.9763
1591.5	89.7162
1593.04	91.8666
1594.58	93.0782
1596.12	93.7074
1597.67	95.1528
1599.21	95.9576
1600.75	96.1939
1602.29	97.4106
1603.83	98.3626
1605.37	98.6292
1606.91	98.0671
1608.45	98.6603
1609.99	99.1157
1611.53	99.2086
1613.07	98.8732
1614.6	97.6216
1616.14	97.784
1617.68	97.8187
1619.22	99.2568
1620.75	98.7969
1622.29	98.6634
1623.83	98.6598
1625.37	98.9074
1626.9	100.295
1628.44	101.026
1629.97	102.332
1631.51	103.505
1633.04	105.109
1634.58	106.53
1636.11	106.81
1637.65	108.811
1639.18	110.777
1640.72	112.147
1642.25	114.084
1643.78	115.702
1645.31	118.39
1646.85	121.059
1648.38	122.271
1649.91	123.046
1651.44	124.491
1652.97	125.454
1654.5	126.291
1656.03	125.958
1657.56	125.915
1659.1	125.96
1660.62	125.348
1662.15	125.662
1663.68	124.028
1665.21	122.297
1666.74	121.659
1668.27	119.866
1669.8	117.55
1671.32	114.371
1672.85	110.868
1674.38	107.653
1675.91	103.849
1677.43	101.703
1678.96	98.1443
1680.49	93.0326
1682.01	89.063
1683.54	84.8544
1685.06	82.1514
1686.59	78.4074
1688.11	73.7502
1689.64	69.9216
1691.16	66.9111
1692.68	62.8649
1694.21	60.0515
1695.73	57.7315
1697.25	54.4926
1698.78	51.9599
1700.3	48.9535
1701.82	47.0123
1703.34	45.6926
1704.86	43.5551
1706.39	41.1695
1707.91	39.572
1709.43	37.9779
1710.95	36.867
1712.47	36.309
1713.99	36.0538
1715.51	36.1908
1717.02	35.7972
1718.54	35.8261
1720.06	35.7925
1721.58	35.8645
1723.1	35.0525
1724.62	34.4448
1726.13	34.0166
1727.65	34.9024
1729.17	34.1375
1730.68	33.4058
1732.2	32.6862
1733.72	31.7787
1735.23	32.1061
1736.75	31.5754
1738.26	30.8753
1739.78	29.8052
1741.29	29.1437
1742.81	28.6783
1744.32	27.2516
1745.84	25.5322
1747.35	24.6486
1748.86	23.0403
1750.37	21.6525
1751.89	20.9959
1753.4	20.1081
1754.91	17.7711
1756.42	16.8308
1757.93	17.124
1759.45	16.1375
1760.96	14.921
1762.47	12.5702
1763.98	10.6007
1765.49	9.67835
1767	8.28181
1768.51	6.53413
1770.02	6.14175
1771.53	4.98417
1773.03	3.5407
1774.54	2.41816
1776.05	1.94204
1777.56	2.42407
1779.07	2.30857
1780.57	2.02457
1782.08	1.6587
1783.59	1.85341
1785.09	1.94521
1786.6	1.73325
1788.11	1.68892
1789.61	1.86075
1791.12	2.49495
1792.62	2.16936
1794.13	2.04965
1795.63	2.22772
1797.13	2.41686
1798.64	2.89879
1800.14	3.13742
1801.65	3.5195
1803.15	3.51192
1804.65	3.5013
1806.15	3.00619
1807.66	3.43188
1809.16	3.75048
1810.66	4.56801
1812.16	5.09173
1813.66	5.63421
1815.16	5.81328
1816.66	5.62673
1818.16	6.03333
1819.66	5.96661
1821.16	5.27056
1822.66	5.60604
1824.16	5.07417
1825.66	5.40562
1827.16	6.15423
1828.66	5.53263
1830.16	5.68949
1831.65	5.62415
1833.15	5.13386
1834.65	4.86285
1836.14	4.79936
1837.64	4.05368
1839.14	3.98207
1840.63	3.77447
1842.13	3.16522
1843.62	2.72687
1845.12	2.13393
1846.61	1.77683
1848.11	1.00801
1849.6	1.17982
1851.1	0.349592
1852.59	0.580044
1854.08	-0.511232
1855.58	-0.67568
1857.07	-1.0121
1858.56	-1.44306
1860.05	-1.44479
1861.55	-1.1435
1863.04	-0.526114
1864.53	-0.214231
1866.02	-0.60928
1867.51	-0.376435
1869	-0.503903
1870.49	0.511994
1871.98	0.787578
1873.47	1.06391
1874.96	1.74762
1876.45	1.05559
1877.94	1.58393
1879.43	2.56919
1880.92	2.3728
1882.41	3.47133
1882.51	3.08963
1884	3.40555
1885.5	3.53633
1886.99	3.69862
1888.48	3.32792
1889.98	3.78729
1891.47	4.03261
1892.96	3.49818
1894.46	2.8369
1895.95	3.34734
1897.44	3.37737
1898.93	3.29881
1900.42	2.71174
1901.91	2.3814
1903.41	2.78572
1904.9	3.14749
1906.39	3.37608
1907.88	3.5296
1909.37	2.95669
1910.86	1.87244
1912.35	1.82655
1913.83	1.18704
1915.32	1.31593
1916.81	1.42144
1918.3	0.78433
1919.79	1.50117
1921.27	1.29636
1922.76	1.68672
1924.25	0.944003
1925.74	1.27964
1927.22	1.00048
1928.71	1.81494
1930.19	1.36787
1931.68	1.62043
1933.17	2.2258
1934.65	2.47955
1936.14	2.69574
1937.62	2.2567
1939.11	2.35784
1940.59	2.84531
1942.07	2.89718
1943.56	2.93745
1945.04	2.74598
1946.52	2.88096
1948.01	3.6196
1949.49	3.34322
1950.97	4.86625
1952.45	4.86849
1953.93	3.67343
1955.42	4.07133
1956.9	3.77079
1958.38	3.79506
1959.86	3.93337
1961.34	3.9585
1962.82	3.1974
1964.3	3.3372
1965.78	2.76124
1967.26	2.7786
1968.74	2.05005
1970.21	1.97832
1971.69	1.99257
1973.17	2.0832
1974.65	2.51079
1976.13	2.19425
1977.6	2.37968
1979.08	2.77694
1980.56	2.11209
1982.03	2.28378
1983.51	2.18408
1984.99	2.22593
1986.46	2.41899
1987.94	2.71783
1989.41	2.68175
1990.89	2.63372
1992.36	2.11708
1993.84	2.31952
1995.31	1.63686
1996.78	2.09441
1998.26	2.33386
1999.73	2.71563
2001.2	2.98317
2002.68	2.7657
2004.15	2.77869
2005.62	3.64972
2007.09	3.98409
2008.56	4.07946
2010.04	4.80786
2011.51	4.86907
2012.98	5.20828
2014.45	5.43207
2015.92	5.26773
2017.39	5.77632
2018.86	6.42894
2020.33	6.30625
2021.8	7.19274
2023.26	7.0227
2024.73	7.21348
2026.2	6.32086
2027.67	6.57297
2029.14	7.17621
2030.61	7.92606
2032.07	7.85473
2033.54	8.12375
2035.01	8.12545
2036.47	8.132
2037.94	8.42674
2039.4	9.00275
2040.87	9.27599
2042.33	8.96378
2043.8	9.86834
2045.27	10.4746
2046.73	9.84833
2048.19	9.40759
2049.66	8.81139
2051.12	9.0548
2052.59	8.74537
2054.05	8.34606
2055.51	8.34066
2056.97	7.91202
2058.44	8.41425
2059.9	7.94223
2061.36	8.45354
2062.82	7.7291
2064.28	7.19851
2065.74	6.13954
2067.21	5.99134
2068.67	5.86364
2070.13	6.05127
2071.59	5.63615
2073.05	4.9796
2074.51	5.53454
2075.96	5.37416
2077.42	5.60107
2078.88	5.64152
2080.34	5.96476
2081.8	6.30586
2083.26	6.22501
2084.72	6.13859
2086.17	6.09137
2087.63	6.09009
2089.09	6.2605
2090.54	7.80784
2092	7.72204
2093.45	8.98015
2094.91	9.94539
2096.37	10.058
2097.82	11.2686
2099.28	12.0198
2100.73	13.3891
2102.19	13.7583
2103.64	15.1239
2105.09	15.8864
2106.55	17.146
2108	17.7384
2109.45	18.9621
2110.91	20.4129
2112.36	21.8625
2113.81	22.0371
2115.26	22.6375
2116.72	23.5069
2118.17	23.8074
2119.62	24.7122
2121.07	25.8482
2122.52	27.1097
2123.97	27.8606
2125.42	29.1098
2126.87	30.059
2128.32	30.8481
2129.77	31.7696
2131.22	32.4865
2132.67	32.9037
2134.11	33.9327
2135.56	33.9951
2137.01	34.2391
2138.46	35.2865
2139.91	36.6751
2141.35	38.3347
2142.8	41.1778
2144.25	42.5582
2145.7	44.1636
2147.14	46.1724
2148.59	47.6791
2150.03	50.4216
2151.48	52.4075
2152.92	54.0861
2154.37	55.9269
2155.81	57.7465
2157.26	59.6418
2158.7	61.4427
2160.15	63.6719
2161.59	65.6984
2163.03	67.6838
2164.47	68.2911
2165.92	69.7536
2167.36	70.2503
2168.8	71.1278
2170.24	72.6712
2171.69	73.4641
2173.13	74.2486
2174.57	74.6805
2176.01	75.1827
2177.45	75.6586
2178.89	75.4341
2180.33	75.4043
2181.77	75.6458
2183.21	74.9223
2184.65	74.4362
2186.09	73.5479
2187.53	72.3135
2188.97	71.3581
2190.4	70.0775
2191.84	69.5489
2193.28	67.6636
2194.72	66.6067
2196.16	64.0503
2197.59	62.0851
2199.03	60.402
2200.47	58.6963
2201.9	56.5848
2203.34	54.2207
2204.77	52.8149
2206.21	50.9595
2207.64	48.9243
2209.08	46.8701
2210.51	46.1595
2211.95	45.2442
2213.38	44.1319
2214.82	42.8235
2216.25	39.805
2217.68	38.3034
2219.12	36.8583
2220.55	35.8218
2221.98	34.437
2223.41	32.4672
2224.85	31.8221
2226.28	30.4511
2227.71	28.5832
2229.14	27.1302
2230.57	26.4556
2232	25.0926
2233.43	23.7733
2234.86	22.2878
2236.29	20.8476
2237.72	20.1906
2239.15	19.1822
2240.58	18.5345
2242.01	18.2358
2243.44	17.2677
2244.87	16.5392
2246.29	16.2373
2247.72	15.5489
2249.15	15.2508
2250.58	14.1502
2252.01	14.4251
2253.43	13.8715
2254.86	13.6595
2256.29	13.3333
2257.71	12.5326
2259.14	12.2481
2260.56	13.0874
2261.99	12.8337
2263.41	13.2316
2264.84	12.9946
2266.26	12.465
2267.69	12.303
2269.11	12.898
2270.53	12.6668
2271.96	11.8497
2273.38	10.6607
2274.8	10.2001
2276.23	10.4473
2277.65	10.3816
2279.07	9.75546
2280.49	9.29233
2281.91	9.47965
2283.34	9.32046
2284.76	8.83131
2286.18	9.0914
2287.6	7.9583
2289.02	8.02455
2290.44	7.71296
2291.86	7.45747
2293.28	6.88284
2294.7	6.59921
2296.12	6.64486
2297.54	6.56519
2298.96	7.154
2300.37	7.89552
2301.79	7.55177
2303.21	7.15504
2304.63	7.8049
2306.04	7.57826
2307.46	8.08922
2308.88	8.68995
2310.3	9.18545
2311.71	9.11591
2313.13	9.03004
2314.54	9.14655
2315.96	9.45687
2317.37	9.22766
2318.79	9.30797
2320.2	9.69957
2321.62	10.3262
2323.03	11.2966
2324.45	11.1571
2325.86	11.1217
2327.27	11.1749
2328.69	11.9666
2330.1	12.5792
2331.51	12.7818
2332.92	12.1216
2334.34	12.6828
2335.75	12.9371
2337.16	12.147
2338.57	12.0698
2339.98	11.0939
2341.39	10.0777
2342.8	9.84602
2344.21	9.0037
2345.63	9.20065
2347.04	9.24844
2348.45	9.42557
2349.85	8.6965
2351.26	8.25763
2352.67	8.10853
2354.08	7.98671
2355.49	7.8145
2356.9	7.72587
2358.3	6.47057
2359.71	6.30141
2361.12	6.53589
2362.53	6.13307
2363.93	6.14432
2365.34	6.00044
2366.75	5.67457
2368.15	5.77164
2369.56	5.28228
2370.97	4.98203
2372.37	3.92604
2373.77	3.66061
2375.18	3.98487
2376.59	3.56106
2377.99	3.3357
2379.39	3.60272
2380.8	3.30011
2382.2	2.005
2383.6	1.85937
2385.01	1.35123
2386.41	1.097
2387.81	1.62549
2389.21	2.10064
2390.62	1.75563
2392.02	1.03573
2393.42	-0.0156969
2394.82	-0.0566572
2396.22	0.445002
2397.62	0.505366
2399.02	0.506678
2400.42	-0.0730622
2401.82	-0.129029
2403.22	0.702397
2404.62	1.43764
2406.02	1.26917
2407.42	0.772176
2408.82	0.897104
2410.22	1.21392
2411.62	1.64592
2413.01	1.74101
2414.41	1.99254
2415.81	2.27604
2417.21	2.6791
2418.6	2.78221
2420	3.08869
2421.4	2.72709
2422.79	3.42301
2424.19	4.43662
2425.59	5.00369
2426.98	5.00962
2428.38	4.97114
2429.77	5.6115
2431.17	5.62872
2432.56	4.95732
2433.95	4.31128
2435.35	3.97439
2436.74	4.06067
2438.14	4.6899
2439.53	5.20596
2440.92	4.53899
2442.31	3.8394
2443.71	5.00437
2445.1	5.17315
2446.49	4.97408
2447.88	4.50176
2449.27	4.09948
2450.67	3.52996
2452.06	2.707
2453.45	2.01897
2454.84	1.79359
2456.23	1.76301
2457.62	1.57442
2459.01	0.859387
2460.4	0.451373
2461.79	-0.15758
2463.18	0.193291
2464.57	0.399249
2465.95	0.790739
2467.34	0.170872
2468.73	0.699546
2470.12	0.730537
2471.5	1.10844
2472.89	1.69385
2474.28	1.05832
2475.67	0.957384
2477.05	1.08705
2478.44	1.20594
2479.82	1.04905
2481.21	1.35839
2482.6	1.35447
2483.98	2.02729
2485.37	1.7012
2486.75	2.02038
2488.13	2.29329
2489.52	2.92324
2490.9	2.92175
2492.29	3.74104
2493.67	3.90766
2495.05	4.30617
2496.44	5.13118
2497.82	4.53932
2499.2	4.74894
2500.58	4.60414
2501.97	4.30542
2503.35	4.5202
2504.73	5.43187
2506.11	5.67884
2507.49	5.49252
2508.87	5.54122
2510.25	5.06874
2511.63	5.14655
2513.01	5.82154
2514.39	5.46878
2515.77	5.81884
2517.15	5.85758
2518.53	5.76295
2519.91	6.30045
2521.29	6.26188
2522.67	6.16812
2524.05	6.42339
2525.42	6.28825
2526.8	6.14474
2528.18	6.0464
2529.55	6.03805
2530.93	5.42436
2532.31	5.66649
2533.69	5.53852
2535.06	6.42722
2536.44	5.99284
2537.81	6.37501
2539.19	6.04904
2540.56	6.24818
2541.94	6.61095
2543.31	6.83357
2544.69	6.83678
2546.06	6.56313
2547.44	6.22859
2548.81	6.32369
2550.18	6.76003
2551.56	7.01316
2552.93	6.79327
2554.3	6.85598
2555.67	7.357
2557.04	7.59755
2558.42	8.20876
2559.79	8.23393
2561.16	8.28257
2562.53	8.95934
2563.9	9.68748
2565.27	9.84806
2566.64	9.41851
2568.01	10.6832
2569.38	10.8984
2570.75	10.7877
2572.12	11.3541
2573.49	11.7798
2574.86	12.0351
2576.23	12.3355
2577.6	12.7767
2578.97	12.8795
2580.33	12.7707
2581.7	13.8543
2583.07	14.5752
2584.44	15.0553
2585.8	15.5238
2587.17	15.3551
2588.54	15.2028
2589.9	15.0113
2591.27	14.6451
2592.64	14.686
2594	14.2602
2595.37	14.6037
2596.73	15.17
2598.1	14.9864
2599.46	14.5242
2600.83	14.7618
2602.19	14.757
2603.55	14.9903
2604.92	14.95
2606.28	14.7945
2607.64	14.516
2609.01	14.507
2610.37	14.8472
2611.73	14.0631
2613.09	13.6158
2614.46	13.3216
2615.82	13.2469
2617.18	13.4159
2618.54	12.964
2619.9	12.8143
2621.26	12.1853
2622.62	12.7514
2623.98	12.9483
2625.34	12.7124
2626.7	13.0912
2628.06	12.8724
2629.42	12.6524
2630.78	12.8507
2632.14	13.24
2633.5	13.2768
2634.86	13.5024
2636.21	13.9037
2637.57	13.9332
2638.93	13.6777
2640.29	13.6754
2641.64	13.9885
2643	13.8012
2644.36	13.7275
2645.71	13.6902
2647.07	14.0726
2648.43	14.1611
2649.78	14.7557
2651.14	14.8177
2652.49	15.152
2653.85	14.3193
2655.2	13.0979
2656.56	12.6289
2657.91	12.7551
2659.26	13.27
2660.62	13.2367
2661.97	13.1201
2663.32	13.4797
2664.68	13.3375
2666.03	13.6382
2667.38	14.4164
2668.74	14.8795
2670.09	15.0909
2671.44	15.2894
2672.79	15.8464
2674.14	15.7223
2675.49	16.1166
2676.84	16.3374
2678.19	16.3879
2679.54	16.2551
2680.89	16.6708
2682.24	16.1316
2683.59	16.1134
2684.94	16.4002
2686.29	16.6175
2687.64	17.5229
2688.99	17.9793
2690.34	18.5178
2691.69	18.7858
2693.03	18.8669
2694.38	19.712
2695.73	19.9844
2697.08	20.3046
2698.42	21.5619
2699.77	22.9119
2701.12	23.2091
2702.46	23.8712
2703.81	24.1312
2705.15	24.9779
2706.5	25.47
2707.85	26.3146
2709.19	26.9524
2710.54	27.6886
2711.88	27.9721
2713.22	28.1573
2714.57	28.9152
2715.91	28.8958
2717.26	29.3503
2718.6	29.0493
2719.94	28.6586
2721.29	28.1563
2722.63	28.1381
2723.97	28.6159
2725.31	28.9033
2726.66	28.4356
2728	27.9117
2729.34	27.28
2730.68	27.3321
2732.02	27.4718
2733.36	27.088
2734.7	26.1238
2736.04	24.6137
2737.38	23.6153
2738.72	23.3422
2740.06	22.5588
2741.4	21.1697
2742.74	20.1245
2744.08	18.595
2745.42	17.2092
2746.76	15.9501
2748.09	14.4862
2749.43	13.5237
2750.77	12.999
2752.11	12.4792
2753.45	11.881
2754.78	10.8758
2756.12	10.0433
2757.46	8.83372
2758.79	8.29587
2760.13	7.30652
2761.46	6.96272
2762.8	6.23298
2764.14	5.96
2765.47	5.16282
2766.8	4.78887
2768.14	3.82031
2769.47	3.95723
2770.81	3.89684
2772.14	4.3911
2773.48	3.49891
2774.81	2.68955
2776.14	2.48687
2777.48	2.36926
2778.81	2.0637
2780.14	1.80599
2781.47	1.82806
2782.8	1.07598
2784.14	0.844624
2785.47	0.0189622
2786.8	-0.00610655
2788.13	-0.109078
2789.46	-0.876981
2790.79	-0.963554
2792.12	-0.89015
2793.45	-0.746001
2794.78	0.0112571
2796.11	-0.0471525
2797.44	0.42019
2798.77	0.0412683
2800.1	0.537306
2801.43	1.06339
2802.76	0.614033
2804.09	1.08299
2805.41	0.984718
2806.74	0.500947
2808.07	-0.547191
2809.4	-0.893656
2810.72	-1.58132
2812.05	-2.35365
2813.38	-3.02356
2814.71	-3.51355
2816.03	-2.82793
2817.36	-1.22977
2818.68	1.92571
2820.01	6.68135
2821.33	12.8602
2822.66	20.0796
2823.98	28.4149
2825.31	38.0098
2826.63	48.0514
2827.96	59.5864
2829.28	71.4795
2830.6	84.1872
2831.93	96.8576
2833.25	111.936
2834.57	124.777
2835.9	139.064
2837.22	153.172
2838.54	167.107
2839.86	181.048
2841.18	196.764
2842.5	212.716
2843.83	227.595
2845.15	243.26
2846.47	259.476
2847.79	275.494
2849.11	291.171
2850.43	306.268
2851.75	321.145
2853.07	336.228
2854.39	350.702
2855.71	365.606
2857.03	379.697
2858.35	392.787
2859.66	405.19
2860.98	417.621
2862.3	428.283
2863.62	438.48
2864.94	447.441
2866.25	455.968
2867.57	463.001
2868.89	468.821
2870.2	473.98
2871.52	478.604
2872.84	483.125
2874.15	485.147
2875.47	487.662
2876.78	489.393
2878.1	492.182
2879.41	494.623
2880.73	498.86
2882.04	504.344
2883.36	509.687
2884.67	514.527
2885.99	519.825
2887.3	524.375
2888.61	529.09
2889.93	534.203
2891.24	538.762
2892.55	543.43
2893.86	548.747
2895.18	553.221
2896.49	557.97
2897.8	562.561
2899.11	567.528
2900.42	572.02
2901.73	577.866
2903.05	582.593
2904.36	587.773
2905.67	595.104
2906.98	602.71
2908.29	609.987
2909.6	618.012
2910.91	626.68
2912.21	635.038
2913.52	642.258
2914.83	649.603
2916.14	657.568
2917.45	664.342
2918.76	670.698
2920.07	676.453
2921.37	681.024
2922.68	683.453
2923.99	685.936
2925.29	688.1
2926.6	688.804
2927.91	687.273
2929.22	685.315
2930.52	682.206
2931.83	678.897
2933.13	674.403
2934.44	668.457
2935.74	662.519
2937.05	655.336
2938.35	646.224
2939.66	636.19
2940.96	626.767
2942.26	616.182
2943.57	605.016
2944.87	591.933
2946.18	579.705
2947.48	565.673
2948.78	551.584
2950.08	536.05
2951.39	522.361
2952.69	507.495
2953.99	492.905
2955.29	478.381
2956.59	463.246
2957.9	448.408
2959.2	433.986
2960.5	419.572
2961.8	405.474
2963.1	391.099
2964.4	377.407
2965.7	364.435
2967	351.19
2968.3	338.938
2969.6	328.212
2970.9	317.702
2972.19	307.046
2973.49	296.524
2974.79	285.979
2976.09	275.017
2977.39	264.401
2978.68	253.368
2979.98	242.874
2981.28	232.786
2982.58	221.201
2983.87	210.109
2985.17	198.87
2986.47	187.447
2987.76	176.37
2989.06	166.807
2990.35	157.02
2991.65	146.941
2992.94	137.211
2994.24	127.977
2995.53	119.299
2996.83	111.192
2998.12	103.135
2999.42	96.0446
3000.71	88.8426
3002	81.3724
3003.3	74.1112
3004.59	68.0529
3005.88	61.9426
3007.18	56.1091
3008.47	50.7717
3009.76	45.5851
3011.05	40.9808
3012.34	36.612
3013.64	32.805
3014.93	27.9644
3016.22	25.9568
3017.51	22.3874
3018.8	19.1874
3020.09	16.8797
3021.38	14.328
3022.67	12.648
3023.96	10.5608
3025.25	9.20139
3026.54	7.51803
3027.83	6.61429
3029.12	5.69483
3030.41	5.33311
3031.69	4.01853
3032.98	3.51774
3034.27	3.40229
3035.56	3.29737
3036.84	3.38042
3038.13	3.05849
3039.42	2.93438
3040.71	3.61586
3041.99	3.70635
3043.28	4.21666
3044.57	4.7761
3045.85	5.37929
3047.14	5.30704
3048.42	5.41315
3049.71	5.59973
3050.99	5.95018
3052.28	6.67947
3053.56	7.34599
3054.85	7.15054
3056.13	7.41764
3057.41	6.69032
3058.7	7.2354
3059.98	7.14067
3061.26	6.93834
3062.55	7.14898
3063.83	7.58085
3065.11	7.00608
3066.39	6.91325
3067.68	6.27973
3068.96	6.23978
3070.24	5.96014
3071.52	5.48639
3072.8	4.99338
3074.08	4.3739
3075.36	3.55317
3076.65	2.71799
3077.93	2.07394
3079.21	1.67696
3080.49	1.7363
3081.77	0.50002
3083.04	-0.592521
3084.32	-0.523768
3085.6	-0.212614
3086.88	-0.544378
3088.16	-0.476844
3089.44	-0.0306698
3090.72	-0.190869
3091.99	-0.383121
3093.27	-0.149717
3094.55	0.430778
3095.83	0.532293
3097.1	1.80095
3098.38	2.13931
3099.66	3.13793
3100.93	4.05485
3102.21	5.32642
3103.49	6.31767
3104.76	7.94478
3106.04	8.81076
3107.31	9.84677
3108.59	10.7703
3109.86	12.0879
3111.14	13.3207
3112.41	14.7257
3113.69	15.5892
3114.96	16.6981
3116.23	17.7793
3117.51	18.7618
3118.78	20.2163
3120.05	21.8423
3121.33	23.1398
3122.6	25.5053
3123.87	26.6545
3125.14	28.5583
3126.41	30.875
3127.69	32.7355
3128.96	34.0363
3130.23	35.7126
3131.5	37.4832
3132.77	39.4519
3134.04	41.7616
3135.31	43.9534
3136.58	45.9479
3137.85	47.6655
3139.12	49.6153
3140.39	51.8657
3141.66	54.3393
3142.93	56.6871
3144.2	59.2589
3145.47	62.1466
3146.74	65.1927
3148	66.982
3149.27	69.8365
