#Acq. time (s)=	45
#Accumulations=	2
#Range (cm-¹)=	200...3150
#Windows=	2
#Auto scanning=	Off
#Autofocus=	Off
#Macrospot=	Off
#AutoExposure=	Off
#Spike filter=	Multiple accum.
#Delay time (s)=	0
#Binning=	1
#Readout mode=	Signal
#DeNoise=	Off
#ICS correction=	On
#Dark correction=	Off
#Inst. Process=	Off
#Detector Gain=	Best Dynamic Range
#Detector ADC=	20 kHz       
#Detector temperature (°C)=	-69.85
#Instrument=	LabRAM HR Evol
#Detector=	Synapse
#Objective=	x100
#Grating=	600 gr/mm
#ND Filter=	100%
#Laser (nm)=	532 
#Hole=	100.021
#Range=	Auto
#Laser Pol.=	No
#Raman. Pol.=	No
#Laser Pol. (°)=	-0.0007625
#Raman Pol. (°)=	89.9995
#Collection=	Microscope
#StageXY=	Marzhauser
#StageZ=	Marzhauser
#X (µm)=	-6909.7
#Y (µm)=	1989.2
#Z (µm)=	-75.25
#Full time(mm:ss)=	3:19
#Project=	
#Sample=	
#Site=	
#Title=	Mb_20_23_31_2x_45s_532 nm_x100_100%_600 gr_mm
#Remark=	
#Date=	13.07.2022 15:34
#Acquired=	13.07.2022 15:34:26
#Base:Fit=	10.08.2022 10:29:37
#Base:Sub=	10.08.2022 10:34:43
#Filter:Polynom=	16.08.2022 10:13:29
#AxisType[0]=Intens
#AxisUnit[0]=Cnt
#AxisType[1]=Spectr
#AxisUnit[1]=1/cm
200.563	1.55616
202.377	5.20993
204.194	5.42382
206.008	6.6107
207.821	7.07825
209.634	7.66332
211.449	8.30157
213.262	8.87759
215.074	9.44382
216.885	9.62626
218.699	9.99854
220.51	10.2752
222.321	8.65613
224.131	8.86772
225.941	8.17639
227.751	7.89266
229.562	8.88671
231.371	8.82145
233.18	9.22503
234.988	8.03367
236.796	7.79512
238.603	7.53224
240.411	7.51278
242.219	8.19379
244.026	8.85399
245.832	9.14844
247.638	8.69109
249.443	8.57063
251.248	7.52955
253.053	7.61015
254.857	7.49892
256.661	8.0271
258.465	8.82934
260.268	9.26135
262.071	9.07158
263.874	7.95687
265.678	8.68905
267.48	8.88364
269.282	9.28222
271.083	7.96863
272.884	7.45541
274.684	8.22938
276.484	8.3488
278.284	7.27274
280.084	7.93672
281.883	7.7736
283.682	6.35942
285.48	5.52078
287.276	6.05411
289.074	6.86828
290.871	7.18269
292.668	7.32353
294.465	8.66426
296.261	7.96623
298.057	9.40145
299.853	9.81949
301.648	9.332
303.443	8.30358
305.237	8.10884
307.032	8.8192
308.823	10.0044
310.617	9.321
312.41	9.66389
314.203	11.3125
315.995	11.6705
317.788	12.5417
319.579	13.9529
321.369	14.0653
323.16	14.5294
324.951	14.0357
326.741	15.4774
328.531	16.1154
330.321	17.0866
332.108	17.5052
333.897	18.1698
335.686	18.0109
337.474	18.1054
339.26	17.9032
341.048	16.8494
342.835	17.5019
344.622	17.0212
346.406	16.9419
348.192	15.2343
349.978	14.2908
351.764	13.3501
353.547	12.6908
355.332	12.102
357.116	10.6018
358.901	9.92431
360.682	8.90075
362.466	8.69785
364.249	7.69224
366.03	6.28396
367.812	5.25402
369.594	4.56604
371.374	3.98377
373.155	3.68918
374.936	3.58227
376.715	2.60384
378.495	1.69144
380.273	0.881018
382.053	0.400406
383.832	-0.154745
385.609	-0.353277
387.388	0.531777
389.164	-0.585386
390.942	-0.404186
392.72	1.39954
394.495	3.13474
396.272	4.02379
398.047	4.02146
399.823	3.27785
401.597	4.55931
403.372	5.07054
405.145	5.89333
406.92	6.10023
408.693	7.05738
410.467	6.64539
412.239	6.57264
414.012	6.00194
415.783	6.4837
417.556	7.05458
419.327	7.69789
421.099	7.55003
422.869	8.06856
424.64	7.69763
426.409	7.51005
428.18	8.05833
429.948	7.96796
431.718	8.50241
433.486	7.47904
435.253	8.3006
437.022	8.26603
438.789	8.38129
440.558	8.17372
442.324	7.47028
444.089	6.4792
445.857	6.70331
447.622	6.62563
449.386	6.37582
451.153	6.2316
452.917	5.30774
454.682	4.85818
456.446	4.89072
458.208	4.06305
459.973	4.40129
461.735	3.80509
463.497	3.44216
465.259	2.57958
467.022	4.27862
468.783	5.2091
470.544	6.12764
472.306	7.00438
474.066	7.8177
475.825	7.98835
477.585	8.18056
479.346	9.07935
481.104	9.59325
482.862	9.07582
484.62	8.93675
486.38	9.58422
488.137	10.1695
489.894	11.0945
491.65	11.5354
493.407	12.1842
495.164	12.3271
496.92	13.2395
498.675	13.4375
500.43	14.999
502.184	15.378
503.939	15.6784
505.694	15.9892
507.448	16.5584
509.201	17.0223
510.954	17.8664
512.706	18.8796
514.459	19.0043
516.21	19.5884
517.962	19.8676
519.715	20.6862
521.466	20.6482
523.216	20.7202
524.966	19.7966
526.716	19.3699
528.466	19.8267
530.215	18.8862
531.964	17.8387
533.712	17.074
535.46	16.1586
537.208	15.3955
538.955	14.4297
540.703	12.873
542.449	12.6257
544.196	13.2996
545.942	12.7926
547.688	12.643
549.433	11.2686
551.178	10.4623
552.923	9.6538
554.667	8.93924
556.412	7.7213
558.155	6.63013
559.899	5.56561
561.642	4.53913
563.385	4.06322
565.127	5.00047
566.867	5.64856
568.609	6.18234
570.35	6.72961
572.092	6.49303
573.832	7.50262
575.573	7.28569
577.313	7.10324
579.053	7.52888
580.79	8.70711
582.529	9.10129
584.268	9.86308
586.006	10.5444
587.745	10.5397
589.482	8.95626
591.218	9.15631
592.955	10.0293
594.692	11.1566
596.428	11.0234
598.164	10.7538
599.898	10.8399
601.634	10.8985
603.369	11.4063
605.104	11.2239
606.836	9.75495
608.57	9.19378
610.304	9.03697
612.037	8.71407
613.769	8.34479
615.501	7.5899
617.234	6.94961
618.966	6.27955
620.696	5.9896
622.427	6.59795
624.159	6.33958
625.887	6.60574
627.618	6.4323
629.348	6.98759
631.076	6.75712
632.806	5.85761
634.535	4.64218
636.262	4.37722
637.99	3.96351
639.716	3.69896
641.444	3.49335
643.172	4.14661
644.897	5.3392
646.624	6.13209
648.348	7.07205
650.075	8.57636
651.801	10.1022
653.524	9.98822
655.249	10.7244
656.972	12.1504
658.697	12.6013
660.419	13.9354
662.143	13.8244
663.865	14.6949
665.588	16.8364
667.309	18.4071
669.032	19.4729
670.752	19.8455
672.474	19.373
674.194	19.1758
675.915	18.7012
677.634	19.8381
679.355	19.5731
681.073	20.1555
682.793	20.1626
684.511	20.6385
686.23	22.1325
687.947	23.4851
689.664	23.5943
691.382	23.7917
693.098	24.5568
694.816	25.6166
696.531	25.9963
698.247	26.1699
699.963	26.9866
701.678	28.4319
703.392	28.7641
705.108	29.3321
706.821	31.0289
708.534	31.9972
710.249	32.5354
711.962	34.2385
713.674	34.7504
715.388	35.1197
717.099	35.5926
718.81	36.5349
720.523	37.1231
722.234	37.3136
723.944	38.7793
725.654	38.8525
727.365	40.0074
729.075	41.4646
730.784	42.9164
732.492	43.7921
734.202	44.5559
735.91	45.6559
737.618	46.616
739.325	47.2461
741.034	49.2084
742.741	50.1603
744.447	50.0774
746.153	51.0345
747.859	52.037
749.564	54.2996
751.271	55.6456
752.976	57.0417
754.681	57.4095
756.385	57.0355
758.088	57.1981
759.792	57.8667
761.495	58.8263
763.2	60.6997
764.902	62.1351
766.604	63.2456
768.306	64.9212
770.008	67.1334
771.709	69.0224
773.41	69.8021
775.11	70.7355
776.811	72.6846
778.51	74.5922
780.21	76.5705
781.909	78.4619
783.608	79.3066
785.307	80.8913
787.005	82.1939
788.703	83.1833
790.401	85.0023
792.098	86.5221
793.795	87.7292
795.492	88.6788
797.188	89.3375
798.884	90.0221
800.58	89.8015
802.276	90.4674
803.971	91.0847
805.665	90.7363
807.36	89.7541
809.054	91.2612
810.748	90.3622
812.441	90.2001
814.135	90.237
815.826	89.6009
817.518	89.5151
819.21	88.595
820.902	88.0951
822.594	87.5453
824.285	86.8829
825.976	87.5387
827.665	86.3226
829.355	86.31
831.045	85.0907
832.735	81.6106
834.424	79.3981
836.111	78.9041
837.8	80.1699
839.488	79.2888
841.177	78.9431
842.864	78.6131
844.55	78.8747
846.237	79.292
847.924	79.4485
849.61	79.7115
851.295	79.1098
852.98	79.4156
854.666	79.6194
856.349	80.1443
858.034	80.286
859.719	81.1002
861.403	81.4211
863.085	81.3841
864.769	80.787
866.452	79.7067
868.133	80.0402
869.816	80.1373
871.498	79.7189
873.179	79.5714
874.86	79.1921
876.54	79.5451
878.221	79.1081
879.902	78.032
881.58	76.8025
883.26	76.191
884.938	74.737
886.618	74.6996
888.297	73.8852
889.974	73.0888
891.653	72.6138
893.329	72.689
895.007	70.944
896.683	71.5283
898.36	72.1718
900.035	71.7589
901.712	71.9322
903.387	70.1881
905.063	70.0173
906.737	69.7395
908.412	68.8932
910.085	68.073
911.76	65.8732
913.433	64.7823
915.107	62.9257
916.779	63.3215
918.452	66.0613
920.124	68.1385
921.797	68.2033
923.467	66.9099
925.138	66.1488
926.81	65.6909
928.48	65.2182
930.151	64.1414
931.82	64.2066
933.489	63.1287
935.16	62.197
936.828	61.4293
938.496	61.1942
940.165	60.4661
941.833	59.0533
943.5	57.6378
945.168	56.0261
946.834	55.3058
948.5	54.0858
950.168	53.4371
951.834	52.2652
953.499	49.9608
955.163	48.7587
956.83	47.0758
958.494	45.6535
960.158	44.8766
961.821	43.667
963.487	42.4555
965.15	41.0208
966.812	40.8195
968.474	40.4558
970.138	40.7503
971.8	40.4426
973.461	39.7444
975.123	40.525
976.783	40.4943
978.446	41.2676
980.106	42.5744
981.766	41.3747
983.425	40.9162
985.084	40.3012
986.743	38.8102
988.402	39.5283
990.06	38.9051
991.72	38.2477
993.378	38.4604
995.035	38.4097
996.692	38.8585
998.349	39.5483
1000.01	38.9451
1001.66	39.338
1003.32	39.1777
1004.97	39.1907
1006.63	39.5273
1008.28	39.7361
1009.94	39.7971
1011.59	39.802
1013.25	40.3196
1014.9	41.7132
1016.55	41.239
1018.21	41.3442
1019.86	41.2587
1021.51	41.0966
1023.16	40.5421
1024.81	40.4439
1026.47	40.1341
1028.12	41.0961
1029.77	41.7969
1031.42	41.0885
1033.07	40.7891
1034.72	40.6535
1036.37	41.4899
1038.02	42.3739
1039.67	42.6066
1041.31	43.3768
1042.96	43.7981
1044.61	44.524
1046.26	44.417
1047.91	45.0466
1049.55	46.1538
1051.2	47.0902
1052.84	47.146
1054.49	47.1439
1056.14	47.0902
1057.78	47.6214
1059.43	46.5352
1061.07	46.1832
1062.72	45.1813
1064.36	44.0314
1066	43.1533
1067.65	41.202
1069.29	39.9281
1070.93	39.952
1072.58	38.8332
1074.22	38.192
1075.86	37.6408
1077.5	36.7954
1079.14	37.0018
1080.78	36.9639
1082.42	36.1749
1084.06	36.7315
1085.7	35.4891
1087.34	36.01
1088.98	35.7819
1090.62	35.2181
1092.26	34.8211
1093.9	35.7942
1095.54	36.101
1097.17	35.6165
1098.81	34.9164
1100.45	34.8969
1102.09	34.8705
1103.72	34.7943
1105.36	35.9771
1106.99	36.736
1108.63	37.2807
1110.27	37.7351
1111.9	37.3327
1113.53	37.3543
1115.17	37.7658
1116.8	37.4388
1118.43	37.0252
1120.07	36.5894
1121.7	35.8562
1123.33	35.0947
1124.97	35.2663
1126.6	35.3895
1128.23	35.4082
1129.86	35.3305
1131.49	35.002
1133.12	34.2721
1134.75	34.0109
1136.38	34.0288
1138.01	33.7256
1139.64	32.9829
1141.27	32.0043
1142.9	31.5102
1144.53	30.7015
1146.16	29.7466
1147.78	27.6677
1149.41	25.8372
1151.04	24.3469
1152.67	23.2095
1154.29	22.2203
1155.92	21.3475
1157.54	20.7167
1159.17	20.6887
1160.8	20.1171
1162.42	18.7229
1164.05	17.8275
1165.67	18.0051
1167.29	17.3602
1168.92	17.865
1170.54	16.771
1172.16	16.4683
1173.79	16.5678
1175.41	16.6868
1177.03	15.2113
1178.65	14.9638
1180.28	15.1674
1181.9	14.7236
1183.52	14.46
1185.14	13.5856
1186.76	13.4902
1188.38	12.6467
1190	11.1426
1191.62	10.2486
1193.24	9.67485
1194.86	8.98763
1196.47	8.16932
1198.09	7.73735
1199.71	7.60869
1201.33	7.81202
1202.95	8.15917
1204.56	8.70758
1206.18	11.3327
1207.8	12.1898
1209.41	13.0016
1211.03	14.6458
1212.64	16.5805
1214.26	17.8577
1215.87	19.5085
1217.49	20.1094
1219.1	21.0466
1220.71	21.9289
1222.33	23.5209
1223.94	25.6265
1225.55	26.3794
1227.16	27.1417
1228.78	27.2042
1230.39	28.0875
1232	29.7922
1233.61	31.7889
1235.22	33.2215
1236.83	34.5952
1238.44	36.0895
1240.05	37.9898
1241.66	39.264
1243.27	40.6442
1244.88	42.6227
1246.49	43.2616
1248.1	44.0759
1249.71	44.3042
1251.32	44.0003
1252.92	43.9674
1254.53	44.9221
1256.14	44.916
1257.74	45.0832
1259.35	45.4108
1260.96	44.4417
1262.56	44.0306
1264.17	44.3576
1265.77	43.6137
1267.38	44.8244
1268.98	44.9041
1270.59	43.8399
1272.19	44.9473
1273.79	46.2398
1275.4	46.95
1277	47.6525
1278.6	48.7545
1280.21	48.744
1281.81	50.3389
1283.41	52.1805
1285.01	53.1829
1286.61	53.9881
1288.21	54.4713
1289.81	55.0898
1291.41	56.4364
1293.01	56.7076
1294.61	56.9111
1296.21	57.5111
1297.81	57.8493
1299.41	58.912
1301.01	59.9741
1302.6	60.6521
1304.2	60.5632
1305.8	60.2981
1307.4	60.6612
1308.99	60.4626
1310.59	60.4006
1312.19	60.5862
1313.78	60.7887
1315.38	61.1993
1316.97	61.8557
1318.57	61.7045
1320.16	61.6978
1321.76	60.1809
1323.35	58.9747
1324.94	58.2549
1326.54	56.8177
1328.13	55.5121
1329.72	53.4961
1331.32	53.5835
1332.91	53.1318
1334.5	52.8581
1336.09	52.1961
1337.68	50.9305
1339.27	50.1585
1340.87	49.1457
1342.45	49.21
1344.04	48.9409
1345.64	47.4535
1347.22	48.2394
1348.81	47.1954
1350.4	46.5502
1351.99	47.5894
1353.58	47.6288
1355.17	46.532
1356.75	46.7593
1358.34	46.0795
1359.93	45.6754
1361.51	45.9993
1363.1	45.3832
1364.69	43.4396
1366.27	42.4267
1367.86	42.5172
1369.44	42.0989
1371.03	42.149
1372.61	41.7993
1374.2	40.1234
1375.78	39.0979
1377.37	38.1729
1378.95	38.2632
1380.53	37.496
1382.11	36.5366
1383.7	35.5906
1385.28	35.0546
1386.86	34.3187
1388.44	32.8753
1390.02	33.2106
1391.6	33.2486
1393.19	33.6823
1394.77	32.4987
1396.35	31.6598
1397.93	30.7122
1399.51	30.7528
1401.08	30.4762
1402.66	31.7583
1404.24	32.8571
1405.82	33.6346
1407.4	34.6064
1408.97	36.1483
1410.55	37.8216
1412.13	39.1333
1413.71	41.0182
1415.28	42.8659
1416.86	43.8311
1418.43	46.498
1420.01	48.4406
1421.59	51.8331
1423.16	54.4589
1424.73	56.9382
1426.31	60.8296
1427.88	63.5916
1429.46	67.0222
1431.03	70.6152
1432.6	73.0423
1434.18	75.7842
1435.75	77.9805
1437.32	79.4406
1438.89	81.6203
1440.46	82.6906
1442.04	84.2089
1443.61	84.611
1445.18	85.5003
1446.75	86.1552
1448.32	86.4859
1449.89	85.9841
1451.46	84.0244
1453.03	82.3706
1454.6	81.4352
1456.16	79.2136
1457.73	77.5162
1459.3	74.4574
1460.87	71.4061
1462.44	69.6568
1464	67.5726
1465.57	65.2314
1467.14	62.283
1468.7	59.7396
1470.27	56.0988
1471.83	52.5805
1473.4	48.1214
1474.96	45.2263
1476.53	42.0955
1478.09	39.8663
1479.66	36.9851
1481.22	34.6699
1482.78	32.2611
1484.35	29.7341
1485.91	26.8065
1487.47	24.3342
1489.04	22.4371
1490.6	20.8636
1492.16	19.2426
1493.72	17.8133
1495.28	16.6633
1496.84	16.135
1498.4	15.1345
1499.96	14.8402
1501.52	14.27
1503.08	14.086
1504.64	13.9563
1506.2	14.3014
1507.76	14.0399
1509.32	13.8017
1510.88	12.5564
1512.44	11.8794
1513.99	10.9577
1515.55	11.3644
1517.11	11.0519
1518.66	10.6308
1520.22	11.0746
1521.78	11.0489
1523.33	10.5247
1524.89	10.6139
1526.44	10.8537
1528	10.8381
1529.55	10.7233
1531.11	11.5791
1532.66	11.4275
1534.21	11.6841
1535.77	13.1406
1537.32	13.5458
1538.87	14.8578
1540.43	16.8676
1541.98	17.1509
1543.53	17.0847
1545.08	16.8817
1546.63	17.2672
1548.18	18.0003
1549.74	18.4559
1551.29	19.4546
1552.84	20.7421
1554.39	20.599
1555.94	22.0175
1557.48	22.3005
1559.03	22.8579
1560.58	22.9
1562.13	22.7656
1563.68	22.928
1565.23	23.7407
1566.78	24.2684
1568.32	24.3861
1569.87	24.9631
1571.42	25.6968
1572.96	26.536
1574.51	27.2471
1576.05	28.4572
1577.6	29.1669
1579.14	30.2081
1580.69	29.6217
1582.24	29.854
1583.78	29.6697
1585.32	28.6342
1586.87	28.6629
1588.41	28.5812
1589.95	28.938
1591.5	29.0144
1593.04	29.338
1594.58	29.3122
1596.12	29.8483
1597.67	30.3498
1599.21	30.1215
1600.75	29.5228
1602.29	30.573
1603.83	31.3884
1605.37	32.1045
1606.91	32.3122
1608.45	32.4961
1609.99	32.6442
1611.53	34.0781
1613.07	34.5779
1614.6	34.3655
1616.14	34.6924
1617.68	34.8422
1619.22	35.2329
1620.75	36.0267
1622.29	36.6856
1623.83	38.138
1625.37	39.1753
1626.9	39.9418
1628.44	39.7398
1629.97	39.7939
1631.51	40.1753
1633.04	41.452
1634.58	41.0125
1636.11	42.2666
1637.65	43.0735
1639.18	43.8786
1640.72	44.9715
1642.25	46.1592
1643.78	47.2017
1645.31	48.5496
1646.85	50.3651
1648.38	52.3596
1649.91	52.8659
1651.44	53.0893
1652.97	53.7553
1654.5	53.6033
1656.03	53.6911
1657.56	52.4193
1659.1	52.0332
1660.62	51.0764
1662.15	51.0196
1663.68	50.7335
1665.21	49.801
1666.74	48.7058
1668.27	47.3294
1669.8	46.1834
1671.32	45.5091
1672.85	43.732
1674.38	42.611
1675.91	41.1413
1677.43	40.1666
1678.96	39.1419
1680.49	37.9463
1682.01	35.8353
1683.54	33.5968
1685.06	32.1137
1686.59	30.3624
1688.11	28.4021
1689.64	26.1609
1691.16	24.2983
1692.68	22.9408
1694.21	21.9103
1695.73	20.9837
1697.25	19.5557
1698.78	17.4168
1700.3	15.9326
1701.82	14.0235
1703.34	12.0931
1704.86	10.8561
1706.39	10.4825
1707.91	9.66506
1709.43	9.15491
1710.95	8.39785
1712.47	8.22856
1713.99	7.61783
1715.51	8.00051
1717.02	7.9398
1718.54	8.6517
1720.06	8.99656
1721.58	9.20702
1723.1	9.46427
1724.62	9.95899
1726.13	9.36936
1727.65	10.2456
1729.17	10.3381
1730.68	9.85616
1732.2	9.57382
1733.72	9.09479
1735.23	9.3272
1736.75	9.97594
1738.26	9.8596
1739.78	9.43898
1741.29	9.48219
1742.81	9.48446
1744.32	9.35045
1745.84	9.18654
1747.35	9.10664
1748.86	8.8641
1750.37	9.74994
1751.89	9.73156
1753.4	9.70362
1754.91	9.21869
1756.42	8.65337
1757.93	7.71013
1759.45	7.36862
1760.96	7.67909
1762.47	7.39044
1763.98	7.06288
1765.49	6.48101
1767	5.80377
1768.51	5.26819
1770.02	4.77603
1771.53	4.20161
1773.03	3.31021
1774.54	2.32577
1776.05	2.36217
1777.56	2.18675
1779.07	1.83537
1780.57	1.69731
1782.08	0.856633
1783.59	0.758502
1785.09	0.547397
1786.6	-0.0806836
1788.11	0.209088
1789.61	0.643373
1791.12	1.08644
1792.62	0.388826
1794.13	0.60968
1795.63	0.635391
1797.13	0.59221
1798.64	0.917847
1800.14	1.49432
1801.65	1.21934
1803.15	1.54523
1804.65	1.34278
1806.15	1.55641
1807.66	2.11969
1809.16	2.39434
1810.66	2.40071
1812.16	2.69788
1813.66	2.33352
1815.16	2.97044
1816.66	3.61756
1818.16	3.4703
1819.66	3.26109
1821.16	3.14011
1822.66	3.41196
1824.16	4.03645
1825.66	4.71824
1827.16	4.63929
1828.66	3.92735
1830.16	4.17991
1831.65	4.95258
1833.15	5.23071
1834.65	5.69705
1836.14	5.98926
1837.64	6.14604
1839.14	5.63458
1840.63	5.75963
1842.13	6.00339
1843.62	5.78649
1845.12	6.06848
1846.61	6.09965
1848.11	6.39182
1849.6	6.3028
1851.1	6.42165
1852.59	6.05307
1854.08	5.84869
1855.58	5.35067
1857.07	5.55176
1858.56	5.73359
1860.05	5.15801
1861.55	5.1222
1863.04	5.56468
1864.53	4.99222
1866.02	4.71804
1867.51	4.47933
1869	4.79648
1870.49	5.11025
1871.98	4.71478
1873.47	4.4741
1874.96	4.52325
1876.45	3.45437
1877.94	3.51255
1879.43	3.31026
1880.92	3.00109
1882.41	2.55615
1882.51	2.38058
1884	2.02904
1885.5	2.14978
1886.99	1.76356
1888.48	1.53755
1889.98	1.27886
1891.47	0.780828
1892.96	0.206779
1894.46	0.323624
1895.95	0.748305
1897.44	1.00096
1898.93	0.874671
1900.42	0.703706
1901.91	0.712911
1903.41	1.16632
1904.9	1.39021
1906.39	1.18814
1907.88	1.77657
1909.37	1.79309
1910.86	2.16788
1912.35	2.14515
1913.83	2.87437
1915.32	2.36139
1916.81	2.65065
1918.3	3.15646
1919.79	3.60667
1921.27	3.43598
1922.76	3.57799
1924.25	3.64022
1925.74	3.77447
1927.22	3.73017
1928.71	3.86271
1930.19	4.39415
1931.68	3.92604
1933.17	3.84591
1934.65	4.04162
1936.14	3.84026
1937.62	3.41037
1939.11	4.29866
1940.59	4.53493
1942.07	4.13404
1943.56	3.43678
1945.04	2.72553
1946.52	2.75163
1948.01	2.98268
1949.49	2.66373
1950.97	2.83136
1952.45	2.57942
1953.93	2.20528
1955.42	1.90113
1956.9	1.5577
1958.38	1.57554
1959.86	1.41602
1961.34	1.65857
1962.82	1.20081
1964.3	0.860538
1965.78	0.264659
1967.26	-0.215644
1968.74	0.573746
1970.21	0.6156
1971.69	-0.184999
1973.17	0.0576413
1974.65	-0.00407294
1976.13	-0.432332
1977.6	-0.259139
1979.08	-0.604012
1980.56	-0.650675
1982.03	-0.657947
1983.51	-1.0066
1984.99	-0.479562
1986.46	-0.199984
1987.94	0.132896
1989.41	-0.0802277
1990.89	0.382396
1992.36	0.593512
1993.84	1.05584
1995.31	0.98847
1996.78	1.89695
1998.26	2.03552
1999.73	3.12471
2001.2	2.78404
2002.68	2.68459
2004.15	2.69506
2005.62	2.42376
2007.09	2.32061
2008.56	2.47044
2010.04	3.06918
2011.51	3.78754
2012.98	4.54664
2014.45	3.4653
2015.92	3.65546
2017.39	3.87467
2018.86	4.4212
2020.33	4.85187
2021.8	5.01034
2023.26	4.55686
2024.73	4.04062
2026.2	3.98229
2027.67	3.51329
2029.14	3.76223
2030.61	4.16761
2032.07	4.30928
2033.54	4.23845
2035.01	4.13979
2036.47	4.00035
2037.94	4.27072
2039.4	4.61335
2040.87	5.06453
2042.33	5.08289
2043.8	4.48119
2045.27	3.76648
2046.73	3.85287
2048.19	3.43459
2049.66	2.76092
2051.12	2.81676
2052.59	2.47554
2054.05	2.4637
2055.51	2.521
2056.97	3.25793
2058.44	3.57782
2059.9	3.80441
2061.36	3.81529
2062.82	4.08879
2064.28	4.39411
2065.74	5.15953
2067.21	5.57457
2068.67	5.76159
2070.13	6.40605
2071.59	6.78481
2073.05	6.94922
2074.51	6.74022
2075.96	7.35612
2077.42	8.22108
2078.88	8.02952
2080.34	8.56362
2081.8	9.77274
2083.26	10.4655
2084.72	10.6243
2086.17	10.8635
2087.63	10.9548
2089.09	12.5685
2090.54	13.0376
2092	13.3238
2093.45	14.0201
2094.91	14.3233
2096.37	14.6287
2097.82	14.404
2099.28	15.2672
2100.73	15.9692
2102.19	16.9447
2103.64	17.2631
2105.09	17.2596
2106.55	18.4172
2108	18.7541
2109.45	19.2222
2110.91	18.9384
2112.36	19.1577
2113.81	19.2015
2115.26	19.0515
2116.72	20.1095
2118.17	19.9741
2119.62	20.5954
2121.07	21.0831
2122.52	20.9986
2123.97	21.4642
2125.42	20.9723
2126.87	20.9421
2128.32	22.1291
2129.77	23.0226
2131.22	22.5163
2132.67	23.8011
2134.11	23.9848
2135.56	25.1155
2137.01	25.7058
2138.46	26.7258
2139.91	27.8883
2141.35	28.8451
2142.8	30.0914
2144.25	31.3038
2145.7	32.3562
2147.14	33.2652
2148.59	33.8095
2150.03	34.1033
2151.48	34.5808
2152.92	35.7151
2154.37	36.4806
2155.81	37.0059
2157.26	38.6592
2158.7	39.762
2160.15	40.9441
2161.59	41.6007
2163.03	42.1579
2164.47	42.8429
2165.92	43.6607
2167.36	43.57
2168.8	44.5021
2170.24	44.7503
2171.69	45.4621
2173.13	46.0464
2174.57	46.1564
2176.01	46.2312
2177.45	46.4054
2178.89	46.6495
2180.33	45.4396
2181.77	45.0936
2183.21	43.9953
2184.65	43.8429
2186.09	42.9244
2187.53	42.2046
2188.97	42.0221
2190.4	39.6494
2191.84	39.2505
2193.28	38.1178
2194.72	36.5036
2196.16	35.7922
2197.59	34.7865
2199.03	34.253
2200.47	33.7987
2201.9	32.6766
2203.34	31.6113
2204.77	30.6456
2206.21	29.2582
2207.64	29.0847
2209.08	28.0374
2210.51	27.1665
2211.95	26.4524
2213.38	24.6732
2214.82	23.8042
2216.25	23.3238
2217.68	21.7144
2219.12	20.4347
2220.55	19.2086
2221.98	18.5933
2223.41	18.3799
2224.85	17.4371
2226.28	16.8588
2227.71	16.8555
2229.14	16.5289
2230.57	15.5898
2232	15.7644
2233.43	15.0215
2234.86	15.0297
2236.29	14.6453
2237.72	14.5215
2239.15	14.993
2240.58	14.6881
2242.01	14.4328
2243.44	14.9838
2244.87	15.4063
2246.29	15.3492
2247.72	14.5459
2249.15	14.4936
2250.58	13.8642
2252.01	13.2949
2253.43	13.5436
2254.86	13.6301
2256.29	13.9689
2257.71	14.216
2259.14	14.7601
2260.56	15.0125
2261.99	14.7265
2263.41	14.9075
2264.84	14.7203
2266.26	15.1005
2267.69	15.7938
2269.11	15.7485
2270.53	15.478
2271.96	15.5128
2273.38	15.6369
2274.8	14.9532
2276.23	14.9918
2277.65	14.7771
2279.07	14.3716
2280.49	13.7244
2281.91	13.0663
2283.34	12.8482
2284.76	11.8612
2286.18	11.8585
2287.6	11.8446
2289.02	10.6575
2290.44	10.1709
2291.86	8.90236
2293.28	8.18147
2294.7	7.41557
2296.12	7.44408
2297.54	8.02576
2298.96	8.96933
2300.37	8.88515
2301.79	9.45105
2303.21	9.14373
2304.63	8.7169
2306.04	9.33693
2307.46	9.6594
2308.88	10.4253
2310.3	10.2617
2311.71	10.5122
2313.13	11.2011
2314.54	11.6648
2315.96	11.2065
2317.37	11.1209
2318.79	10.6501
2320.2	11.3976
2321.62	11.0177
2323.03	11.2908
2324.45	11.4693
2325.86	11.4104
2327.27	11.4689
2328.69	11.6288
2330.1	10.9102
2331.51	10.2332
2332.92	10.2365
2334.34	10.0802
2335.75	10.2356
2337.16	9.68308
2338.57	9.11867
2339.98	8.5013
2341.39	7.84842
2342.8	7.03411
2344.21	6.74856
2345.63	5.85428
2347.04	5.42254
2348.45	4.54119
2349.85	4.60869
2351.26	4.27596
2352.67	3.55899
2354.08	2.83244
2355.49	2.1193
2356.9	1.54402
2358.3	1.19461
2359.71	0.0211772
2361.12	-0.605488
2362.53	-0.910296
2363.93	-0.458485
2365.34	0.428636
2366.75	1.49362
2368.15	1.45265
2369.56	1.1537
2370.97	0.271168
2372.37	0.0127725
2373.77	-0.488618
2375.18	0.138079
2376.59	0.132319
2377.99	0.0185004
2379.39	0.810707
2380.8	0.682357
2382.2	0.870778
2383.6	0.872232
2385.01	1.13434
2386.41	1.3845
2387.81	1.72285
2389.21	1.76111
2390.62	2.01723
2392.02	2.1598
2393.42	2.27037
2394.82	3.19448
2396.22	3.53825
2397.62	4.01547
2399.02	3.30187
2400.42	3.28013
2401.82	3.64833
2403.22	4.10468
2404.62	4.06359
2406.02	3.81276
2407.42	3.53402
2408.82	4.36187
2410.22	5.22394
2411.62	5.61652
2413.01	5.5672
2414.41	6.39254
2415.81	6.78456
2417.21	6.62236
2418.6	7.21812
2420	6.7293
2421.4	6.46442
2422.79	5.9259
2424.19	6.0593
2425.59	6.53829
2426.98	6.43833
2428.38	7.04637
2429.77	6.66297
2431.17	6.58664
2432.56	6.74309
2433.95	7.03299
2435.35	6.63156
2436.74	6.41828
2438.14	5.93456
2439.53	5.56018
2440.92	5.1893
2442.31	4.87594
2443.71	4.78666
2445.1	5.26451
2446.49	5.05969
2447.88	5.21321
2449.27	5.50688
2450.67	4.75272
2452.06	5.18389
2453.45	4.85429
2454.84	4.43255
2456.23	4.4802
2457.62	4.60207
2459.01	3.90243
2460.4	4.08078
2461.79	3.66076
2463.18	3.71787
2464.57	4.24337
2465.95	4.03901
2467.34	3.56421
2468.73	2.74737
2470.12	2.86196
2471.5	2.59796
2472.89	3.01502
2474.28	2.6763
2475.67	2.56689
2477.05	2.45447
2478.44	2.89019
2479.82	2.7602
2481.21	2.41305
2482.6	2.06376
2483.98	2.06206
2485.37	1.34035
2486.75	0.386114
2488.13	0.340073
2489.52	-0.12069
2490.9	0.0907791
2492.29	0.0996133
2493.67	1.17251
2495.05	1.63581
2496.44	1.7568
2497.82	1.8929
2499.2	1.62922
2500.58	1.91949
2501.97	2.07516
2503.35	1.9277
2504.73	1.77225
2506.11	2.41814
2507.49	2.21088
2508.87	2.0355
2510.25	2.12415
2511.63	2.81886
2513.01	2.71185
2514.39	3.04831
2515.77	2.53703
2517.15	2.68087
2518.53	2.56871
2519.91	2.31968
2521.29	2.54991
2522.67	2.22915
2524.05	2.95023
2525.42	3.1194
2526.8	3.18837
2528.18	2.89758
2529.55	3.70561
2530.93	3.87515
2532.31	4.48388
2533.69	4.7699
2535.06	4.86593
2536.44	4.35512
2537.81	4.64733
2539.19	4.87194
2540.56	5.10815
2541.94	5.90192
2543.31	5.72251
2544.69	5.86191
2546.06	5.92036
2547.44	6.25311
2548.81	5.89713
2550.18	5.35741
2551.56	4.99466
2552.93	4.89338
2554.3	4.66144
2555.67	4.88179
2557.04	5.48497
2558.42	5.60442
2559.79	5.50048
2561.16	5.08731
2562.53	5.58134
2563.9	5.53747
2565.27	5.19227
2566.64	5.33779
2568.01	5.72913
2569.38	5.53426
2570.75	5.88179
2572.12	5.93304
2573.49	5.92829
2574.86	5.83823
2576.23	5.28417
2577.6	5.25533
2578.97	4.68546
2580.33	4.52284
2581.7	4.30284
2583.07	4.94094
2584.44	4.79237
2585.8	5.1411
2587.17	5.57101
2588.54	5.80118
2589.9	5.90505
2591.27	5.67421
2592.64	5.12521
2594	4.27709
2595.37	4.71242
2596.73	4.05909
2598.1	3.85288
2599.46	2.91965
2600.83	2.69563
2602.19	2.55239
2603.55	2.28607
2604.92	2.21013
2606.28	2.55604
2607.64	2.20962
2609.01	2.69954
2610.37	2.95954
2611.73	2.5848
2613.09	2.36491
2614.46	2.71059
2615.82	2.35572
2617.18	1.94047
2618.54	2.14885
2619.9	2.45018
2621.26	2.19043
2622.62	1.99827
2623.98	2.01146
2625.34	1.50404
2626.7	0.88099
2628.06	1.51312
2629.42	1.89213
2630.78	2.71567
2632.14	3.02824
2633.5	2.94351
2634.86	3.57117
2636.21	3.76803
2637.57	3.16759
2638.93	3.74585
2640.29	3.34064
2641.64	3.4583
2643	3.96505
2644.36	4.24606
2645.71	4.36102
2647.07	4.48508
2648.43	5.26649
2649.78	5.93745
2651.14	5.99646
2652.49	6.25488
2653.85	6.66222
2655.2	7.0639
2656.56	6.68876
2657.91	6.57451
2659.26	6.38002
2660.62	6.24577
2661.97	5.76465
2663.32	6.41152
2664.68	5.72036
2666.03	5.95732
2667.38	6.30697
2668.74	6.89086
2670.09	6.90621
2671.44	7.36351
2672.79	7.74848
2674.14	8.02346
2675.49	8.12362
2676.84	9.15697
2678.19	9.38545
2679.54	9.17764
2680.89	9.50959
2682.24	10.0395
2683.59	9.95662
2684.94	10.2195
2686.29	10.4583
2687.64	10.223
2688.99	10.555
2690.34	10.5707
2691.69	10.6173
2693.03	10.7059
2694.38	10.837
2695.73	11.1773
2697.08	11.5025
2698.42	11.5256
2699.77	11.7305
2701.12	11.6594
2702.46	11.6783
2703.81	11.6419
2705.15	11.2451
2706.5	11.3362
2707.85	11.3664
2709.19	11.8832
2710.54	12.2185
2711.88	11.9467
2713.22	12.1738
2714.57	12.7638
2715.91	13.0045
2717.26	12.7753
2718.6	12.9365
2719.94	13.2295
2721.29	13.0047
2722.63	12.5986
2723.97	12.2881
2725.31	12.3825
2726.66	12.0125
2728	11.8287
2729.34	11.3768
2730.68	11.3548
2732.02	10.5058
2733.36	9.71741
2734.7	9.67723
2736.04	8.97618
2737.38	8.91515
2738.72	8.72939
2740.06	8.44321
2741.4	7.89573
2742.74	8.08331
2744.08	7.80672
2745.42	7.66342
2746.76	7.37831
2748.09	7.5882
2749.43	7.514
2750.77	6.86409
2752.11	6.55698
2753.45	6.71535
2754.78	6.29022
2756.12	6.10342
2757.46	5.62224
2758.79	5.71182
2760.13	5.6784
2761.46	5.3755
2762.8	5.90762
2764.14	6.4158
2765.47	6.41375
2766.8	6.66811
2768.14	6.97348
2769.47	7.14958
2770.81	7.53328
2772.14	7.08735
2773.48	7.42158
2774.81	7.86975
2776.14	7.97819
2777.48	7.81712
2778.81	7.49896
2780.14	7.58049
2781.47	7.27939
2782.8	7.06535
2784.14	6.40178
2785.47	6.56024
2786.8	5.94571
2788.13	5.75266
2789.46	5.84319
2790.79	6.1652
2792.12	6.36975
2793.45	6.10209
2794.78	6.15202
2796.11	5.89788
2797.44	5.76687
2798.77	5.47134
2800.1	5.16101
2801.43	5.65041
2802.76	5.64872
2804.09	5.71258
2805.41	5.52549
2806.74	5.6838
2808.07	5.91657
2809.4	6.42863
2810.72	6.26975
2812.05	6.8146
2813.38	7.19572
2814.71	7.93236
2816.03	8.58923
2817.36	9.61233
2818.68	11.1783
2820.01	12.7809
2821.33	14.1316
2822.66	16.2009
2823.98	19.0463
2825.31	21.3258
2826.63	24.2535
2827.96	27.444
2829.28	30.616
2830.6	34.2577
2831.93	38.3124
2833.25	41.4922
2834.57	44.8538
2835.9	48.8304
2837.22	52.2611
2838.54	56.1101
2839.86	60.4085
2841.18	64.9118
2842.5	68.8086
2843.83	74.0337
2845.15	78.3961
2846.47	83.529
2847.79	88.5728
2849.11	93.9012
2850.43	98.5104
2851.75	104.594
2853.07	110.02
2854.39	115.092
2855.71	120.533
2857.03	125.385
2858.35	129.36
2859.66	133.572
2860.98	137.914
2862.3	142.002
2863.62	146.676
2864.94	150.414
2866.25	154.419
2867.57	157.894
2868.89	160.777
2870.2	163.626
2871.52	166.338
2872.84	168.986
2874.15	170.618
2875.47	172.863
2876.78	174.34
2878.1	175.761
2879.41	177.508
2880.73	178.683
2882.04	180.714
2883.36	182.355
2884.67	183.475
2885.99	185.613
2887.3	187.289
2888.61	188.61
2889.93	190.289
2891.24	191.302
2892.55	193.631
2893.86	195.963
2895.18	198.118
2896.49	200.346
2897.8	202.635
2899.11	204.043
2900.42	206.804
2901.73	209.201
2903.05	211.503
2904.36	214.47
2905.67	217.652
2906.98	221.026
2908.29	224.602
2909.6	229.387
2910.91	232.921
2912.21	237.216
2913.52	241.176
2914.83	245.548
2916.14	249.547
2917.45	253.171
2918.76	255.487
2920.07	258.317
2921.37	261.682
2922.68	263.809
2923.99	266.024
2925.29	268.778
2926.6	270.379
2927.91	271.623
2929.22	272.113
2930.52	271.338
2931.83	271.39
2933.13	270.378
2934.44	269.166
2935.74	267.308
2937.05	264.677
2938.35	262.423
2939.66	259.247
2940.96	256.626
2942.26	252.845
2943.57	249.264
2944.87	245.794
2946.18	242.205
2947.48	237.911
2948.78	232.667
2950.08	227.8
2951.39	223.581
2952.69	218.106
2953.99	212.315
2955.29	207.594
2956.59	201.781
2957.9	196.712
2959.2	191.194
2960.5	185.768
2961.8	180.193
2963.1	175.379
2964.4	169.443
2965.7	164.49
2967	159.408
2968.3	154.746
2969.6	150.497
2970.9	146.636
2972.19	142.278
2973.49	138.538
2974.79	134.603
2976.09	130.027
2977.39	125.869
2978.68	121.907
2979.98	117.913
2981.28	113.512
2982.58	108.693
2983.87	104.608
2985.17	100.662
2986.47	96.3793
2987.76	92.1388
2989.06	88.2636
2990.35	84.2984
2991.65	80.1202
2992.94	76.5438
2994.24	72.7039
2995.53	69.3575
2996.83	66.1495
2998.12	62.6459
2999.42	58.9491
3000.71	55.7619
3002	53.1206
3003.3	50.3746
3004.59	47.1137
3005.88	44.3237
3007.18	41.613
3008.47	39.1659
3009.76	36.657
3011.05	34.3235
3012.34	31.3895
3013.64	29.055
3014.93	27.1673
3016.22	25.769
3017.51	24.2358
3018.8	22.3709
3020.09	21.176
3021.38	20.0212
3022.67	19.0258
3023.96	18.0304
3025.25	17.6162
3026.54	16.9414
3027.83	16.088
3029.12	14.8961
3030.41	14.7612
3031.69	14.6528
3032.98	14.2488
3034.27	14.3454
3035.56	14.2525
3036.84	14.8778
3038.13	15.013
3039.42	15.3864
3040.71	14.9384
3041.99	15.0124
3043.28	15.2978
3044.57	15.3064
3045.85	15.3657
3047.14	15.2751
3048.42	15.0778
3049.71	15.4076
3050.99	15.6528
3052.28	16.4078
3053.56	16.3932
3054.85	15.9772
3056.13	15.7893
3057.41	15.4118
3058.7	14.9263
3059.98	14.3988
3061.26	13.8365
3062.55	13.5538
3063.83	12.5328
3065.11	11.9068
3066.39	10.6788
3067.68	9.45716
3068.96	8.67436
3070.24	8.38682
3071.52	7.96237
3072.8	7.57062
3074.08	6.81001
3075.36	6.24937
3076.65	6.04918
3077.93	5.35832
3079.21	5.46404
3080.49	5.36237
3081.77	4.98665
3083.04	3.97298
3084.32	3.45844
3085.6	3.15964
3086.88	3.09578
3088.16	3.68974
3089.44	3.60082
3090.72	3.71387
3091.99	3.57914
3093.27	3.57833
3094.55	4.34586
3095.83	5.1148
3097.1	5.7166
3098.38	6.15417
3099.66	6.86502
3100.93	7.06478
3102.21	6.25667
3103.49	6.53167
3104.76	6.27896
3106.04	6.47031
3107.31	6.44618
3108.59	6.33643
3109.86	6.82419
3111.14	7.21426
3112.41	8.02131
3113.69	8.72168
3114.96	8.63981
3116.23	8.90084
3117.51	8.37803
3118.78	8.42525
3120.05	8.69714
3121.33	8.62888
3122.6	8.83223
3123.87	8.85008
3125.14	8.96732
3126.41	9.00322
3127.69	8.71406
3128.96	8.88693
3130.23	8.9243
3131.5	9.7407
3132.77	10.3355
3134.04	11.2253
3135.31	11.4885
3136.58	11.9059
3137.85	12.2386
3139.12	12.6716
3140.39	13.2929
3141.66	13.7084
3142.93	14.6719
3144.2	15.576
3145.47	16.6767
3146.74	18.2168
3148	19.2277
3149.27	19.16
