#Acq. time (s)=	45
#Accumulations=	2
#Range (cm-¹)=	200...3150
#Windows=	2
#Auto scanning=	Off
#Autofocus=	Off
#Macrospot=	Off
#AutoExposure=	Off
#Spike filter=	Multiple accum.
#Delay time (s)=	0
#Binning=	1
#Readout mode=	Signal
#DeNoise=	Off
#ICS correction=	On
#Dark correction=	Off
#Inst. Process=	Off
#Detector Gain=	Best Dynamic Range
#Detector ADC=	20 kHz       
#Detector temperature (°C)=	-69.85
#Instrument=	LabRAM HR Evol
#Detector=	Synapse
#Objective=	x100
#Grating=	600 gr/mm
#ND Filter=	100%
#Laser (nm)=	532 
#Hole=	100.021
#Range=	Auto
#Laser Pol.=	No
#Raman. Pol.=	No
#Laser Pol. (°)=	-0.0007625
#Raman Pol. (°)=	89.9995
#Collection=	Microscope
#StageXY=	Marzhauser
#StageZ=	Marzhauser
#X (µm)=	-6910.2
#Y (µm)=	2087.2
#Z (µm)=	-74.6
#Full time(mm:ss)=	3:18
#Project=	
#Sample=	
#Site=	
#Title=	Mb_20_23_17_2x_45s_532 nm_x100_100%_600 gr_mm
#Remark=	
#Date=	13.07.2022 14:09
#Acquired=	13.07.2022 14:09:52
#Base:Fit=	10.08.2022 10:29:37
#Base:Sub=	10.08.2022 10:32:28
#Filter:Polynom=	16.08.2022 10:13:29
#AxisType[0]=Intens
#AxisUnit[0]=Cnt
#AxisType[1]=Spectr
#AxisUnit[1]=1/cm
200.563	29.3027
202.377	25.3656
204.194	22.2925
206.008	19.5737
207.821	17.5876
209.634	15.8599
211.449	14.5333
213.262	13.1223
215.074	12.6414
216.885	12.4963
218.699	10.6547
220.51	9.04984
222.321	7.34707
224.131	7.48139
225.941	7.24361
227.751	6.85094
229.562	5.77778
231.371	4.65557
233.18	3.89439
234.988	3.43342
236.796	2.58054
238.603	2.96972
240.411	2.10292
242.219	0.733583
244.026	0.580031
245.832	0.181574
247.638	1.02818
249.443	1.77972
251.248	2.19269
253.053	2.63184
254.857	3.0928
256.661	3.57604
258.465	3.68293
260.268	3.82544
262.071	4.44835
263.874	5.93145
265.678	6.23583
267.48	5.86152
269.282	5.42831
271.083	5.21715
272.884	7.63374
274.684	8.01752
276.484	7.53859
278.284	6.94769
280.084	6.80177
281.883	6.12845
283.682	7.5708
285.48	6.85031
287.276	6.50332
289.074	7.45381
290.871	7.92359
292.668	8.88806
294.465	8.72164
296.261	9.41893
298.057	9.1584
299.853	9.56837
301.648	9.52262
303.443	9.33821
305.237	9.66538
307.032	8.78809
308.823	6.54437
310.617	7.11712
312.41	6.69706
314.203	7.23362
315.995	6.65118
317.788	7.04993
319.579	7.07295
321.369	7.22093
323.16	7.46184
324.951	7.91856
326.741	8.18268
328.531	8.00438
330.321	7.92737
332.108	9.34649
333.897	10.6499
335.686	11.4988
337.474	12.365
339.26	12.08
341.048	12.6077
342.835	12.9554
344.622	13.153
346.406	13.4776
348.192	12.7901
349.978	14.2073
351.764	13.803
353.547	13.4612
355.332	13.2822
357.116	13.2233
358.901	13.4134
360.682	13.8886
362.466	13.1501
364.249	12.2094
366.03	12.2882
367.812	11.8733
369.594	12.1576
371.374	12.8626
373.155	13.8108
374.936	12.2614
376.715	12.8662
378.495	12.0765
380.273	11.3836
382.053	11.0175
383.832	9.98287
385.609	10.8203
387.388	10.281
389.164	9.75363
390.942	9.5498
392.72	9.25361
394.495	9.08834
396.272	8.39831
398.047	8.05145
399.823	8.88706
401.597	8.93238
403.372	10.5673
405.145	10.7531
406.92	10.9982
408.693	10.7442
410.467	11.0218
412.239	10.9285
414.012	10.7931
415.783	11.3769
417.556	11.1939
419.327	11.0932
421.099	10.4676
422.869	8.45825
424.64	7.90139
426.409	7.18679
428.18	6.58057
429.948	6.5103
431.718	5.87279
433.486	5.81124
435.253	5.70441
437.022	5.24987
438.789	6.01239
440.558	5.14929
442.324	5.57927
444.089	6.33497
445.857	5.94433
447.622	5.62179
449.386	6.12564
451.153	5.81509
452.917	7.02239
454.682	7.11264
456.446	7.75026
458.208	7.19804
459.973	7.2446
461.735	6.5949
463.497	6.53528
465.259	7.02272
467.022	6.59349
468.783	8.16747
470.544	7.77643
472.306	8.68816
474.066	9.6105
475.825	8.78047
477.585	9.30462
479.346	10.2456
481.104	10.5536
482.862	9.85283
484.62	9.37093
486.38	10.1773
488.137	10.2388
489.894	11.4679
491.65	11.9862
493.407	11.9097
495.164	12.2817
496.92	12.7932
498.675	13.6491
500.43	13.1894
502.184	13.8502
503.939	14.2089
505.694	13.2472
507.448	13.2918
509.201	13.9653
510.954	14.2138
512.706	14.889
514.459	14.5943
516.21	14.6233
517.962	14.7067
519.715	15.1003
521.466	15.4199
523.216	15.0471
524.966	15.2239
526.716	15.7545
528.466	16.205
530.215	15.7624
531.964	14.977
533.712	15.1274
535.46	15.5656
537.208	16.27
538.955	16.0757
540.703	16.0882
542.449	15.8604
544.196	15.336
545.942	14.8287
547.688	14.4467
549.433	14.1513
551.178	13.5011
552.923	12.8657
554.667	12.5063
556.412	11.9366
558.155	11.4994
559.899	12.056
561.642	12.0321
563.385	12.1925
565.127	12.3606
566.867	11.4341
568.609	9.91187
570.35	7.88165
572.092	8.57016
573.832	10.0663
575.573	10.0896
577.313	10.5967
579.053	10.6693
580.79	10.9962
582.529	9.50352
584.268	9.68749
586.006	10.72
587.745	9.11935
589.482	9.31357
591.218	9.24914
592.955	9.1263
594.692	8.93087
596.428	8.78881
598.164	8.10459
599.898	7.09692
601.634	7.17565
603.369	8.3952
605.104	8.80772
606.836	8.86049
608.57	9.14479
610.304	9.65274
612.037	11.3967
613.769	11.8644
615.501	11.5307
617.234	10.9883
618.966	12.2521
620.696	13.9006
622.427	15.0758
624.159	15.7511
625.887	15.8986
627.618	16.5409
629.348	16.7568
631.076	16.2021
632.806	17.7277
634.535	17.1708
636.262	18.0736
637.99	18.2849
639.716	19.1399
641.444	19.3121
643.172	19.9047
644.897	20.9383
646.624	21.5366
648.348	21.2911
650.075	21.739
651.801	21.1356
653.524	21.0833
655.249	20.5271
656.972	20.3309
658.697	21.9911
660.419	21.7601
662.143	21.1687
663.865	20.7445
665.588	19.9436
667.309	20.0166
669.032	18.5847
670.752	19.5212
672.474	19.8716
674.194	17.8499
675.915	19.6569
677.634	19.8046
679.355	19.6371
681.073	18.8682
682.793	19.6441
684.511	19.7062
686.23	21.4425
687.947	22.5537
689.664	22.7739
691.382	22.8749
693.098	23.1356
694.816	24.7433
696.531	25.5729
698.247	26.518
699.963	27.7511
701.678	29.607
703.392	30.1045
705.108	32.2244
706.821	33.3573
708.534	34.8819
710.249	35.2836
711.962	36.7398
713.674	37.2686
715.388	38.8562
717.099	40.2711
718.81	42.5726
720.523	42.1887
722.234	43.4674
723.944	44.1605
725.654	46.2147
727.365	47.9258
729.075	49.9303
730.784	51.1239
732.492	51.9408
734.202	52.4739
735.91	54.4149
737.618	54.848
739.325	55.313
741.034	56.0017
742.741	56.5504
744.447	58.2055
746.153	57.8589
747.859	58.8544
749.564	59.4554
751.271	59.675
752.976	61.0308
754.681	61.4349
756.385	64.9629
758.088	65.948
759.792	67.7229
761.495	70.5859
763.2	70.9343
764.902	71.7276
766.604	72.0956
768.306	74.1929
770.008	75.0303
771.709	75.875
773.41	76.0438
775.11	76.2765
776.811	77.4239
778.51	78.4059
780.21	80.107
781.909	80.5729
783.608	82.2389
785.307	83.0662
787.005	83.5491
788.703	83.35
790.401	85.9313
792.098	87.3168
793.795	88.6664
795.492	89.3913
797.188	90.2292
798.884	90.5632
800.58	92.1048
802.276	92.2909
803.971	92.5177
805.665	92.1654
807.36	93.5915
809.054	94.036
810.748	93.8155
812.441	93.1227
814.135	92.8558
815.826	92.3963
817.518	92.2674
819.21	92.3099
820.902	92.1168
822.594	91.5031
824.285	91.2217
825.976	90.4457
827.665	90.4598
829.355	90.4422
831.045	90.5283
832.735	91.407
834.424	91.3117
836.111	92.2664
837.8	92.118
839.488	92.4827
841.177	93.2641
842.864	91.7528
844.55	91.8742
846.237	90.6257
847.924	89.2081
849.61	88.4044
851.295	87.2028
852.98	85.7756
854.666	84.6208
856.349	83.8307
858.034	83.134
859.719	82.798
861.403	82.8441
863.085	82.672
864.769	81.8773
866.452	80.8851
868.133	80.815
869.816	79.5696
871.498	78.9146
873.179	77.5702
874.86	76.8236
876.54	75.633
878.221	73.7671
879.902	72.018
881.58	70.815
883.26	69.9353
884.938	68.7881
886.618	68.0144
888.297	67.2676
889.974	66.6973
891.653	65.5938
893.329	64.5006
895.007	63.4175
896.683	63.592
898.36	63.7469
900.035	62.6857
901.712	62.4699
903.387	60.6878
905.063	61.1171
906.737	60.9667
908.412	60.1033
910.085	60.5723
911.76	61.4372
913.433	60.833
915.107	60.5784
916.779	60.2772
918.452	59.4902
920.124	59.2914
921.797	57.7052
923.467	58.5658
925.138	59.6507
926.81	58.8084
928.48	58.7099
930.151	58.3175
931.82	57.6282
933.489	57.3132
935.16	56.4298
936.828	56.1026
938.496	56.5228
940.165	56.3997
941.833	55.8698
943.5	55.3613
945.168	52.8547
946.834	52.1494
948.5	50.5693
950.168	49.1528
951.834	47.9388
953.499	46.4602
955.163	45.2285
956.83	43.8389
958.494	42.4055
960.158	40.5803
961.821	40.6336
963.487	40.509
965.15	40.5501
966.812	40.0174
968.474	39.5919
970.138	39.5162
971.8	39.8247
973.461	39.9993
975.123	39.9098
976.783	40.2349
978.446	40.2746
980.106	40.2463
981.766	40.9116
983.425	40.1584
985.084	39.9882
986.743	39.6919
988.402	41.056
990.06	40.1911
991.72	40.4637
993.378	41.036
995.035	39.7981
996.692	39.4499
998.349	38.8311
1000.01	37.9496
1001.66	38.0248
1003.32	38.2718
1004.97	38.368
1006.63	39.1467
1008.28	39.3907
1009.94	38.5218
1011.59	39.641
1013.25	39.6239
1014.9	38.9824
1016.55	38.7282
1018.21	38.8142
1019.86	39.2678
1021.51	38.7546
1023.16	38.3235
1024.81	38.3167
1026.47	38.4376
1028.12	37.8412
1029.77	38.8577
1031.42	38.2521
1033.07	37.736
1034.72	37.3363
1036.37	36.78
1038.02	35.6667
1039.67	34.7127
1041.31	35.1782
1042.96	35.4669
1044.61	37.1353
1046.26	35.9854
1047.91	35.1821
1049.55	34.8402
1051.2	35.2807
1052.84	36.2377
1054.49	36.898
1056.14	36.9345
1057.78	37.0858
1059.43	36.8043
1061.07	37.3018
1062.72	36.9695
1064.36	37.0488
1066	36.653
1067.65	36.9129
1069.29	37.0583
1070.93	36.7217
1072.58	36.2669
1074.22	36.5041
1075.86	35.8728
1077.5	35.454
1079.14	35.7641
1080.78	34.6163
1082.42	34.4406
1084.06	35.5643
1085.7	34.9238
1087.34	34.628
1088.98	35.1453
1090.62	34.9854
1092.26	34.133
1093.9	34.1125
1095.54	33.7826
1097.17	33.2527
1098.81	34.3282
1100.45	34.3551
1102.09	34.0883
1103.72	32.8977
1105.36	33.5001
1106.99	33.7726
1108.63	32.4765
1110.27	31.4277
1111.9	30.706
1113.53	29.7167
1115.17	28.544
1116.8	27.2825
1118.43	26.9332
1120.07	25.4361
1121.7	25.0109
1123.33	24.3583
1124.97	21.9147
1126.6	21.2634
1128.23	19.9617
1129.86	19.4614
1131.49	18.3411
1133.12	18.3453
1134.75	18.4418
1136.38	17.4291
1138.01	17.3929
1139.64	16.8368
1141.27	15.4185
1142.9	15.7629
1144.53	15.2449
1146.16	14.6269
1147.78	15.05
1149.41	15.1893
1151.04	15.7595
1152.67	15.8077
1154.29	15.6002
1155.92	15.2993
1157.54	15.2913
1159.17	15.687
1160.8	15.8431
1162.42	14.5738
1164.05	14.9116
1165.67	14.6477
1167.29	14.3831
1168.92	13.8652
1170.54	13.5752
1172.16	13.2842
1173.79	12.6758
1175.41	13.1655
1177.03	13.6405
1178.65	13.8522
1180.28	13.7518
1181.9	13.0686
1183.52	12.5241
1185.14	11.9114
1186.76	11.6563
1188.38	10.7091
1190	9.27334
1191.62	9.39394
1193.24	9.38879
1194.86	9.38947
1196.47	9.13029
1198.09	9.06774
1199.71	9.59025
1201.33	9.47758
1202.95	10.4413
1204.56	10.5477
1206.18	11.0531
1207.8	11.4772
1209.41	11.9026
1211.03	11.9879
1212.64	12.3136
1214.26	13.5782
1215.87	14.5857
1217.49	15.0607
1219.1	16.2127
1220.71	16.5928
1222.33	17.3361
1223.94	19.6216
1225.55	20.8522
1227.16	22.0659
1228.78	24.5211
1230.39	26.1069
1232	27.2358
1233.61	28.0703
1235.22	28.9651
1236.83	29.1617
1238.44	30.9426
1240.05	30.4039
1241.66	30.2196
1243.27	30.2031
1244.88	31.785
1246.49	32.3177
1248.1	32.7901
1249.71	32.9242
1251.32	33.2662
1252.92	33.0105
1254.53	33.3548
1256.14	34.0054
1257.74	34.1852
1259.35	33.772
1260.96	33.3234
1262.56	33.4504
1264.17	34.2945
1265.77	34.7732
1267.38	35.9336
1268.98	37.9431
1270.59	39.8215
1272.19	41.399
1273.79	42.7086
1275.4	44.2872
1277	46.2402
1278.6	48.7252
1280.21	51.111
1281.81	53.1156
1283.41	54.7078
1285.01	55.5849
1286.61	57.5262
1288.21	58.3234
1289.81	60.9346
1291.41	62.2358
1293.01	63.6009
1294.61	63.6208
1296.21	65.259
1297.81	65.2514
1299.41	66.2973
1301.01	66.2633
1302.6	67.5597
1304.2	68.5224
1305.8	69.1815
1307.4	69.047
1308.99	69.3648
1310.59	69.2657
1312.19	69.2498
1313.78	69.3719
1315.38	68.4768
1316.97	68.0866
1318.57	68.4601
1320.16	67.1842
1321.76	67.0989
1323.35	67.1318
1324.94	65.9596
1326.54	64.1745
1328.13	62.9741
1329.72	61.609
1331.32	60.8027
1332.91	58.7643
1334.5	58.5731
1336.09	56.466
1337.68	55.8533
1339.27	55.0248
1340.87	54.4403
1342.45	53.3985
1344.04	53.8697
1345.64	52.8739
1347.22	52.729
1348.81	52.4158
1350.4	52.0281
1351.99	51.6156
1353.58	51.7755
1355.17	52.3022
1356.75	52.0413
1358.34	52.25
1359.93	52.3358
1361.51	51.6601
1363.1	52.2095
1364.69	51.3935
1366.27	52.1217
1367.86	51.9459
1369.44	52.5012
1371.03	52.0338
1372.61	51.2738
1374.2	50.8742
1375.78	51.6089
1377.37	51.5206
1378.95	52.6192
1380.53	52.511
1382.11	53.5671
1383.7	53.1355
1385.28	54.0258
1386.86	54.2576
1388.44	55.1967
1390.02	54.7321
1391.6	54.2931
1393.19	53.4587
1394.77	53.5817
1396.35	53.3409
1397.93	53.2591
1399.51	54.4233
1401.08	54.5475
1402.66	55.9362
1404.24	55.9568
1405.82	57.8229
1407.4	59.3149
1408.97	60.0224
1410.55	62.2638
1412.13	64.1795
1413.71	68.3682
1415.28	71.2602
1416.86	74.6242
1418.43	77.8289
1420.01	80.1349
1421.59	83.6171
1423.16	88.1732
1424.73	91.6191
1426.31	96.1321
1427.88	100.41
1429.46	104.263
1431.03	107.153
1432.6	110.56
1434.18	113.894
1435.75	117.188
1437.32	120.384
1438.89	122.902
1440.46	125.519
1442.04	127.346
1443.61	127.673
1445.18	130.143
1446.75	130.262
1448.32	130.146
1449.89	129.153
1451.46	128.073
1453.03	126.944
1454.6	125.244
1456.16	122.913
1457.73	119.684
1459.3	116.893
1460.87	113.781
1462.44	109.826
1464	105.858
1465.57	100.689
1467.14	95.6427
1468.7	90.4959
1470.27	85.3132
1471.83	80.644
1473.4	76.1285
1474.96	70.6136
1476.53	66.2499
1478.09	61.2078
1479.66	55.9332
1481.22	52.8398
1482.78	48.4101
1484.35	45.4765
1485.91	42.2087
1487.47	38.6324
1489.04	36.3659
1490.6	34.1277
1492.16	31.8519
1493.72	29.1706
1495.28	26.7833
1496.84	25.1093
1498.4	22.4837
1499.96	21.751
1501.52	20.339
1503.08	19.8482
1504.64	18.643
1506.2	16.3673
1507.76	15.8129
1509.32	15.3943
1510.88	15.2022
1512.44	14.6413
1513.99	13.8168
1515.55	12.8914
1517.11	12.7171
1518.66	13.1549
1520.22	12.1766
1521.78	12.167
1523.33	12.4319
1524.89	11.8483
1526.44	11.751
1528	12.2562
1529.55	11.7873
1531.11	11.434
1532.66	11.7464
1534.21	12.054
1535.77	13.4437
1537.32	14.3961
1538.87	14.3382
1540.43	15.1522
1541.98	15.2619
1543.53	15.9451
1545.08	17.1664
1546.63	18.1939
1548.18	17.6247
1549.74	18.0165
1551.29	18.2241
1552.84	18.5442
1554.39	18.4863
1555.94	18.8262
1557.48	20.0818
1559.03	21.2528
1560.58	20.8937
1562.13	21.4999
1563.68	21.9454
1565.23	22.503
1566.78	24.0137
1568.32	25.7807
1569.87	26.6188
1571.42	26.794
1572.96	27.4324
1574.51	27.386
1576.05	27.8847
1577.6	28.925
1579.14	29.6884
1580.69	30.7487
1582.24	31.5848
1583.78	32.0523
1585.32	32.9383
1586.87	33.0886
1588.41	33.3
1589.95	33.6143
1591.5	34.1026
1593.04	34.4928
1594.58	34.8145
1596.12	35.1936
1597.67	35.2299
1599.21	35.0586
1600.75	34.8902
1602.29	35.355
1603.83	35.6476
1605.37	35.9136
1606.91	35.1062
1608.45	35.6915
1609.99	36.5009
1611.53	36.8325
1613.07	36.4494
1614.6	35.6123
1616.14	34.9899
1617.68	35.788
1619.22	34.6014
1620.75	34.9525
1622.29	34.8515
1623.83	34.5746
1625.37	33.8619
1626.9	33.6165
1628.44	33.2252
1629.97	33.0404
1631.51	32.8928
1633.04	34.165
1634.58	34.9324
1636.11	36.2869
1637.65	36.3022
1639.18	37.2239
1640.72	38.2677
1642.25	39.1177
1643.78	39.1928
1645.31	39.3735
1646.85	39.1963
1648.38	39.2935
1649.91	39.5941
1651.44	39.7674
1652.97	40.1711
1654.5	40.5919
1656.03	41.0234
1657.56	40.8803
1659.1	40.8667
1660.62	40.2077
1662.15	39.3733
1663.68	39.6761
1665.21	38.8083
1666.74	38.0223
1668.27	38.2218
1669.8	36.7962
1671.32	36.0215
1672.85	34.959
1674.38	33.8265
1675.91	33.2509
1677.43	32.5658
1678.96	31.5644
1680.49	30.3809
1682.01	29.0612
1683.54	28.3496
1685.06	26.7872
1686.59	25.1861
1688.11	23.3935
1689.64	21.6014
1691.16	21.1216
1692.68	20.1604
1694.21	19.4637
1695.73	17.7205
1697.25	18.4498
1698.78	17.4602
1700.3	16.628
1701.82	16.1051
1703.34	15.0837
1704.86	14.5853
1706.39	14.2119
1707.91	13.3546
1709.43	13.4853
1710.95	13.2962
1712.47	12.5115
1713.99	11.9578
1715.51	11.4648
1717.02	10.7405
1718.54	9.92733
1720.06	9.70483
1721.58	9.89981
1723.1	10.102
1724.62	10.2571
1726.13	10.6074
1727.65	10.5871
1729.17	10.3525
1730.68	10.4151
1732.2	10.9892
1733.72	10.5737
1735.23	10.9006
1736.75	11.1722
1738.26	10.684
1739.78	11.2159
1741.29	10.6765
1742.81	10.7105
1744.32	10.5357
1745.84	9.14279
1747.35	9.05956
1748.86	9.09611
1750.37	9.27728
1751.89	9.72937
1753.4	8.80236
1754.91	8.30301
1756.42	8.37763
1757.93	7.81791
1759.45	7.37775
1760.96	6.26805
1762.47	5.54693
1763.98	5.50569
1765.49	5.50098
1767	5.50197
1768.51	4.58769
1770.02	4.25642
1771.53	4.40009
1773.03	4.29342
1774.54	2.91928
1776.05	2.49461
1777.56	2.71651
1779.07	1.67192
1780.57	1.20673
1782.08	0.5402
1783.59	0.894265
1785.09	0.924312
1786.6	0.547663
1788.11	-0.205552
1789.61	0.335707
1791.12	0.00296949
1792.62	-0.415737
1794.13	-0.34833
1795.63	0.190868
1797.13	0.14701
1798.64	-0.256498
1800.14	-0.226179
1801.65	-0.231792
1803.15	-0.644843
1804.65	0.0466852
1806.15	0.544278
1807.66	1.35146
1809.16	0.88374
1810.66	0.957473
1812.16	0.910896
1813.66	1.00538
1815.16	1.38032
1816.66	1.83247
1818.16	2.19528
1819.66	3.18628
1821.16	3.43931
1822.66	3.97747
1824.16	4.0461
1825.66	4.61113
1827.16	5.02422
1828.66	4.46223
1830.16	5.21772
1831.65	5.09245
1833.15	5.30072
1834.65	5.41518
1836.14	5.25997
1837.64	5.64357
1839.14	6.0475
1840.63	5.74372
1842.13	6.43199
1843.62	6.3751
1845.12	6.64463
1846.61	6.54239
1848.11	6.36219
1849.6	6.41954
1851.1	6.09826
1852.59	6.06404
1854.08	6.10339
1855.58	6.56989
1857.07	6.27064
1858.56	5.79427
1860.05	5.701
1861.55	5.23077
1863.04	5.14524
1864.53	4.41304
1866.02	4.34925
1867.51	3.38432
1869	3.08346
1870.49	3.03002
1871.98	3.04573
1873.47	2.59724
1874.96	2.54836
1876.45	2.57789
1877.94	2.20627
1879.43	2.4762
1880.92	2.89544
1882.41	2.47332
1882.51	2.92323
1884	3.07901
1885.5	4.32912
1886.99	5.36448
1888.48	5.68803
1889.98	6.32333
1891.47	6.50956
1892.96	6.98789
1894.46	6.6284
1895.95	6.98542
1897.44	7.68337
1898.93	8.27035
1900.42	7.89177
1901.91	7.38151
1903.41	8.0776
1904.9	7.62847
1906.39	8.37028
1907.88	8.11478
1909.37	8.10705
1910.86	8.06155
1912.35	8.21338
1913.83	7.74092
1915.32	7.46318
1916.81	5.91669
1918.3	5.26633
1919.79	5.40338
1921.27	4.90668
1922.76	4.3873
1924.25	4.21457
1925.74	4.39213
1927.22	4.15099
1928.71	3.01147
1930.19	1.86767
1931.68	0.91983
1933.17	0.856327
1934.65	-0.219778
1936.14	-0.311846
1937.62	-1.10881
1939.11	-0.772986
1940.59	-1.68575
1942.07	-0.97459
1943.56	-1.39831
1945.04	-1.88339
1946.52	-3.15744
1948.01	-2.95581
1949.49	-2.7531
1950.97	-2.60208
1952.45	-2.02648
1953.93	-1.66059
1955.42	-1.50308
1956.9	-0.0315678
1958.38	-0.393509
1959.86	0.620499
1961.34	0.411588
1962.82	0.4686
1964.3	0.634575
1965.78	0.401821
1967.26	0.794573
1968.74	1.15718
1970.21	1.69439
1971.69	2.03285
1973.17	2.01202
1974.65	2.14877
1976.13	3.10004
1977.6	4.39648
1979.08	4.70445
1980.56	5.70809
1982.03	5.51421
1983.51	5.79639
1984.99	6.22375
1986.46	6.29456
1987.94	5.07235
1989.41	5.23779
1990.89	5.49819
1992.36	6.10936
1993.84	6.85362
1995.31	6.44511
1996.78	6.78098
1998.26	6.98115
1999.73	6.50919
2001.2	6.50725
2002.68	6.31756
2004.15	6.7847
2005.62	6.75074
2007.09	7.27929
2008.56	7.14203
2010.04	7.30679
2011.51	7.5201
2012.98	7.98849
2014.45	8.19385
2015.92	8.48353
2017.39	8.1566
2018.86	8.76314
2020.33	9.28154
2021.8	10.3885
2023.26	10.4361
2024.73	11.2081
2026.2	11.6794
2027.67	11.8532
2029.14	11.9254
2030.61	11.8118
2032.07	11.6575
2033.54	12.3182
2035.01	12.2856
2036.47	12.2152
2037.94	11.2055
2039.4	11.4336
2040.87	11.4357
2042.33	11.1338
2043.8	11.016
2045.27	11.1661
2046.73	11.5125
2048.19	12.2886
2049.66	12.1748
2051.12	11.5981
2052.59	10.777
2054.05	10.9171
2055.51	10.5367
2056.97	10.6172
2058.44	11.0233
2059.9	10.1411
2061.36	10.9748
2062.82	11.4562
2064.28	11.1904
2065.74	11.5918
2067.21	11.7928
2068.67	11.4419
2070.13	12.0942
2071.59	12.2556
2073.05	12.6573
2074.51	12.5646
2075.96	12.7392
2077.42	13.1879
2078.88	12.459
2080.34	12.8436
2081.8	13.4711
2083.26	13.655
2084.72	13.6812
2086.17	13.8238
2087.63	14.2591
2089.09	14.7154
2090.54	15.1022
2092	15.1052
2093.45	15.0289
2094.91	15.4415
2096.37	16.1209
2097.82	16.768
2099.28	16.4843
2100.73	16.2672
2102.19	16.2392
2103.64	16.5035
2105.09	16.5385
2106.55	16.307
2108	16.3368
2109.45	16.019
2110.91	16.017
2112.36	16.2386
2113.81	15.8379
2115.26	15.6926
2116.72	15.6389
2118.17	15.5107
2119.62	15.627
2121.07	15.9485
2122.52	15.3496
2123.97	16.3105
2125.42	17.6293
2126.87	19.2117
2128.32	19.8707
2129.77	20.3559
2131.22	21.1727
2132.67	21.4896
2134.11	22.5663
2135.56	22.4821
2137.01	23.9891
2138.46	25.1662
2139.91	26.0248
2141.35	27.2527
2142.8	28.7506
2144.25	29.6482
2145.7	29.8337
2147.14	30.4764
2148.59	30.9871
2150.03	31.225
2151.48	31.8462
2152.92	32.5453
2154.37	33.2437
2155.81	33.2293
2157.26	33.4896
2158.7	34.2756
2160.15	35.1836
2161.59	36.3113
2163.03	36.9484
2164.47	37.9495
2165.92	39.0549
2167.36	40.1956
2168.8	40.7212
2170.24	41.2001
2171.69	41.5986
2173.13	42.2494
2174.57	42.584
2176.01	42.9507
2177.45	43.0813
2178.89	43.7482
2180.33	43.731
2181.77	43.8527
2183.21	43.3468
2184.65	42.5796
2186.09	41.5643
2187.53	40.8396
2188.97	40.3009
2190.4	40.3097
2191.84	40.685
2193.28	40.236
2194.72	39.658
2196.16	39.5104
2197.59	38.8909
2199.03	37.8227
2200.47	37.3305
2201.9	36.9697
2203.34	36.4649
2204.77	35.7412
2206.21	35.0812
2207.64	34.6541
2209.08	34.3991
2210.51	33.2671
2211.95	31.6679
2213.38	30.0157
2214.82	28.603
2216.25	27.2853
2217.68	26.1271
2219.12	25.4248
2220.55	23.9278
2221.98	23.5353
2223.41	23.3151
2224.85	22.5647
2226.28	22.2698
2227.71	21.1186
2229.14	20.4489
2230.57	20.0701
2232	20.031
2233.43	19.6299
2234.86	19.2446
2236.29	18.7694
2237.72	18.431
2239.15	17.9102
2240.58	18.0202
2242.01	18.4082
2243.44	17.6838
2244.87	17.4469
2246.29	17.2416
2247.72	17.4905
2249.15	17.0482
2250.58	16.9579
2252.01	16.8516
2253.43	16.5767
2254.86	15.7262
2256.29	15.2548
2257.71	15.2196
2259.14	15.4867
2260.56	15.8312
2261.99	16.3508
2263.41	16.1991
2264.84	15.5715
2266.26	15.7075
2267.69	15.9125
2269.11	16.6187
2270.53	16.5013
2271.96	16.7666
2273.38	16.2947
2274.8	16.089
2276.23	15.9609
2277.65	15.5185
2279.07	15.3561
2280.49	16.0911
2281.91	15.7021
2283.34	15.0583
2284.76	15.6622
2286.18	15.6994
2287.6	16.0725
2289.02	16.1813
2290.44	15.5709
2291.86	15.1675
2293.28	14.7821
2294.7	15.0263
2296.12	14.614
2297.54	14.1959
2298.96	14.0267
2300.37	14.6834
2301.79	14.5443
2303.21	14.894
2304.63	14.9905
2306.04	15.0307
2307.46	14.8361
2308.88	15.6074
2310.3	15.6333
2311.71	15.7712
2313.13	15.4662
2314.54	15.1495
2315.96	15.5499
2317.37	15.8275
2318.79	15.274
2320.2	14.6381
2321.62	15.0775
2323.03	15.1578
2324.45	14.8103
2325.86	15.2591
2327.27	14.8834
2328.69	15.469
2330.1	14.6379
2331.51	14.6602
2332.92	14.2413
2334.34	13.9516
2335.75	13.7729
2337.16	14.3822
2338.57	14.9011
2339.98	14.9674
2341.39	14.3983
2342.8	14.2635
2344.21	13.882
2345.63	13.1589
2347.04	12.939
2348.45	12.7699
2349.85	12.5574
2351.26	12.4563
2352.67	11.4321
2354.08	10.3653
2355.49	9.77446
2356.9	8.55018
2358.3	8.52979
2359.71	7.86417
2361.12	7.38845
2362.53	6.99301
2363.93	6.88448
2365.34	7.43736
2366.75	6.70648
2368.15	6.37419
2369.56	6.10588
2370.97	6.03515
2372.37	5.49431
2373.77	5.45885
2375.18	5.1782
2376.59	4.5057
2377.99	4.64404
2379.39	5.06714
2380.8	5.30368
2382.2	6.14781
2383.6	6.61294
2385.01	6.93789
2386.41	7.05392
2387.81	7.20653
2389.21	6.71473
2390.62	6.81806
2392.02	7.46956
2393.42	8.35736
2394.82	8.75977
2396.22	9.18156
2397.62	9.65199
2399.02	10.0785
2400.42	10.0722
2401.82	10.7072
2403.22	10.9425
2404.62	10.9848
2406.02	11.2589
2407.42	11.5939
2408.82	11.3896
2410.22	10.9039
2411.62	11.1131
2413.01	10.9594
2414.41	11.2341
2415.81	10.3656
2417.21	10.4152
2418.6	9.93528
2420	9.01733
2421.4	8.88433
2422.79	8.17792
2424.19	7.33602
2425.59	7.3734
2426.98	6.43939
2428.38	6.78823
2429.77	6.6898
2431.17	6.68236
2432.56	6.26336
2433.95	5.74799
2435.35	5.45662
2436.74	5.31986
2438.14	5.48642
2439.53	5.79641
2440.92	6.37617
2442.31	6.02844
2443.71	6.52134
2445.1	6.67973
2446.49	7.22977
2447.88	8.05972
2449.27	8.73656
2450.67	9.56127
2452.06	8.75738
2453.45	8.29108
2454.84	8.12939
2456.23	8.07105
2457.62	7.33779
2459.01	6.86747
2460.4	7.28502
2461.79	7.99211
2463.18	7.76275
2464.57	7.48498
2465.95	7.38136
2467.34	7.41952
2468.73	7.1296
2470.12	6.79162
2471.5	6.43701
2472.89	6.2978
2474.28	6.55181
2475.67	6.72712
2477.05	5.9282
2478.44	5.90679
2479.82	5.49391
2481.21	5.27188
2482.6	4.5445
2483.98	4.20397
2485.37	2.99534
2486.75	3.16624
2488.13	2.9794
2489.52	2.56346
2490.9	2.10985
2492.29	1.67012
2493.67	2.01104
2495.05	2.11312
2496.44	2.41521
2497.82	3.27515
2499.2	3.03713
2500.58	2.97231
2501.97	3.1559
2503.35	3.39457
2504.73	3.74323
2506.11	4.32044
2507.49	3.90248
2508.87	4.79439
2510.25	5.00304
2511.63	4.78779
2513.01	5.34904
2514.39	5.39469
2515.77	4.96537
2517.15	5.33582
2518.53	5.45532
2519.91	5.61238
2521.29	4.77956
2522.67	5.04232
2524.05	4.68613
2525.42	5.1755
2526.8	4.64492
2528.18	5.27366
2529.55	5.31941
2530.93	5.0758
2532.31	4.95954
2533.69	5.25995
2535.06	5.15394
2536.44	5.11259
2537.81	5.10906
2539.19	4.69132
2540.56	4.21312
2541.94	4.5659
2543.31	4.59051
2544.69	3.06213
2546.06	2.31996
2547.44	2.14877
2548.81	1.18989
2550.18	1.51973
2551.56	1.30414
2552.93	1.12737
2554.3	0.87186
2555.67	0.622965
2557.04	0.16073
2558.42	-0.64918
2559.79	-1.02495
2561.16	-1.04006
2562.53	-0.681024
2563.9	-0.836175
2565.27	-0.882991
2566.64	-1.49778
2568.01	-1.66256
2569.38	-1.1526
2570.75	-1.16127
2572.12	-0.867101
2573.49	-1.04432
2574.86	-0.705775
2576.23	-0.742879
2577.6	-0.0560777
2578.97	-0.211576
2580.33	-0.051971
2581.7	0.796417
2583.07	1.24007
2584.44	1.51503
2585.8	2.09238
2587.17	2.71369
2588.54	2.79059
2589.9	3.22239
2591.27	4.00883
2592.64	4.49828
2594	4.74674
2595.37	4.08366
2596.73	4.5131
2598.1	4.36719
2599.46	5.10561
2600.83	5.45434
2602.19	5.92304
2603.55	6.13171
2604.92	5.40475
2606.28	5.42189
2607.64	5.11137
2609.01	5.27512
2610.37	5.80453
2611.73	5.28015
2613.09	4.63277
2614.46	4.87874
2615.82	5.01704
2617.18	5.32829
2618.54	5.99963
2619.9	6.05722
2621.26	6.39739
2622.62	6.37428
2623.98	6.01696
2625.34	5.94713
2626.7	5.85684
2628.06	6.32869
2629.42	6.62133
2630.78	6.78649
2632.14	6.67614
2633.5	6.71503
2634.86	6.67765
2636.21	7.11199
2637.57	7.43174
2638.93	7.0663
2640.29	6.68329
2641.64	6.73538
2643	6.73244
2644.36	7.02141
2645.71	6.99423
2647.07	7.02645
2648.43	6.40192
2649.78	6.5256
2651.14	6.40749
2652.49	5.86953
2653.85	5.7526
2655.2	6.19215
2656.56	5.65813
2657.91	5.52491
2659.26	4.69001
2660.62	4.20928
2661.97	3.84477
2663.32	3.71838
2664.68	3.48789
2666.03	3.06062
2667.38	2.8188
2668.74	2.42625
2670.09	2.08641
2671.44	2.01316
2672.79	1.63455
2674.14	1.96264
2675.49	1.9121
2676.84	1.92751
2678.19	1.94848
2679.54	2.25711
2680.89	1.99979
2682.24	1.93992
2683.59	2.10996
2684.94	2.49508
2686.29	2.73108
2687.64	3.17893
2688.99	3.00054
2690.34	3.12264
2691.69	3.08099
2693.03	2.94872
2694.38	3.62618
2695.73	4.36039
2697.08	4.73127
2698.42	4.93052
2699.77	5.58392
2701.12	6.17522
2702.46	6.95784
2703.81	7.72923
2705.15	8.20603
2706.5	8.323
2707.85	9.21182
2709.19	10.6
2710.54	11.1106
2711.88	11.4121
2713.22	11.3823
2714.57	12.2354
2715.91	12.3826
2717.26	13.1232
2718.6	13.8267
2719.94	14.0532
2721.29	14.8251
2722.63	14.5352
2723.97	14.7838
2725.31	14.6593
2726.66	14.8472
2728	15.113
2729.34	14.9778
2730.68	14.7732
2732.02	14.3303
2733.36	14.0956
2734.7	13.8956
2736.04	13.9823
2737.38	13.3349
2738.72	13.2981
2740.06	12.5339
2741.4	12.5368
2742.74	12.3117
2744.08	11.8936
2745.42	11.4045
2746.76	10.5171
2748.09	9.29819
2749.43	8.79204
2750.77	8.15798
2752.11	7.66547
2753.45	7.19014
2754.78	5.94523
2756.12	4.9048
2757.46	4.48995
2758.79	4.03972
2760.13	4.53333
2761.46	5.32603
2762.8	4.71754
2764.14	3.65217
2765.47	2.73165
2766.8	2.69714
2768.14	2.40683
2769.47	2.04286
2770.81	1.37285
2772.14	1.34306
2773.48	1.25313
2774.81	1.30566
2776.14	1.30169
2777.48	1.30423
2778.81	0.725188
2780.14	0.548198
2781.47	0.600413
2782.8	0.167917
2784.14	0.272227
2785.47	0.570583
2786.8	0.399573
2788.13	-0.197543
2789.46	-0.281403
2790.79	-0.454706
2792.12	-0.747156
2793.45	-0.927701
2794.78	-1.10425
2796.11	-1.16878
2797.44	-1.32962
2798.77	-1.43557
2800.1	-1.86764
2801.43	-1.81109
2802.76	-1.70222
2804.09	-1.73656
2805.41	-1.88484
2806.74	-1.98453
2808.07	-2.22673
2809.4	-3.03675
2810.72	-3.40468
2812.05	-3.4826
2813.38	-4.29477
2814.71	-3.59334
2816.03	-2.74877
2817.36	-1.39749
2818.68	1.09371
2820.01	4.02013
2821.33	7.29709
2822.66	12.6385
2823.98	17.4215
2825.31	22.6045
2826.63	28.242
2827.96	33.242
2829.28	38.5351
2830.6	44.9334
2831.93	51.5695
2833.25	58.6037
2834.57	64.9283
2835.9	72.4265
2837.22	79.8721
2838.54	87.2185
2839.86	94.7172
2841.18	101.928
2842.5	108.921
2843.83	116.765
2845.15	123.586
2846.47	130.803
2847.79	138.416
2849.11	145.386
2850.43	152.722
2851.75	160.054
2853.07	165.704
2854.39	172.036
2855.71	179.222
2857.03	185.115
2858.35	191.953
2859.66	197.39
2860.98	203.316
2862.3	207.504
2863.62	211.707
2864.94	215.783
2866.25	219.222
2867.57	222.812
2868.89	225.475
2870.2	227.631
2871.52	229.341
2872.84	231.209
2874.15	232.583
2875.47	234.616
2876.78	236.467
2878.1	238.229
2879.41	239.739
2880.73	242.467
2882.04	244.754
2883.36	246.857
2884.67	249.206
2885.99	252.958
2887.3	255.454
2888.61	257.632
2889.93	258.872
2891.24	261.224
2892.55	263.664
2893.86	265.927
2895.18	268.084
2896.49	270.173
2897.8	271.754
2899.11	273.688
2900.42	275.659
2901.73	277.961
2903.05	279.909
2904.36	281.902
2905.67	284.803
2906.98	287.326
2908.29	290.88
2909.6	295.036
2910.91	298.115
2912.21	301.705
2913.52	304.906
2914.83	308.51
2916.14	311.948
2917.45	314.528
2918.76	316.026
2920.07	318.772
2921.37	320.792
2922.68	321.548
2923.99	322.45
2925.29	322.073
2926.6	321.491
2927.91	320.392
2929.22	319.904
2930.52	317.9
2931.83	315.432
2933.13	312.981
2934.44	309.332
2935.74	305.806
2937.05	301.629
2938.35	296.717
2939.66	292.153
2940.96	286.873
2942.26	281.082
2943.57	274.959
2944.87	268.831
2946.18	262.666
2947.48	256.159
2948.78	248.919
2950.08	242.08
2951.39	235.461
2952.69	227.346
2953.99	220.41
2955.29	213.649
2956.59	207.292
2957.9	200.177
2959.2	193.258
2960.5	186.67
2961.8	180.506
2963.1	173.952
2964.4	167.652
2965.7	162.086
2967	156.883
2968.3	152.037
2969.6	147.12
2970.9	142.868
2972.19	138.29
2973.49	133.777
2974.79	129.301
2976.09	124.49
2977.39	120.014
2978.68	115.168
2979.98	110.558
2981.28	105.431
2982.58	100.855
2983.87	95.4213
2985.17	90.6233
2986.47	86.3272
2987.76	81.232
2989.06	76.5816
2990.35	72.4634
2991.65	68.4387
2992.94	64.4787
2994.24	59.9921
2995.53	55.4838
2996.83	51.9869
2998.12	48.3145
2999.42	43.9819
3000.71	40.4281
3002	36.5811
3003.3	33.3661
3004.59	31.2348
3005.88	28.0549
3007.18	25.5883
3008.47	23.081
3009.76	20.5424
3011.05	18.4026
3012.34	15.3886
3013.64	13.1982
3014.93	11.4381
3016.22	10.2031
3017.51	9.22125
3018.8	7.94532
3020.09	7.28535
3021.38	6.29712
3022.67	5.52101
3023.96	5.41004
3025.25	4.7457
3026.54	3.80496
3027.83	2.70542
3029.12	2.53491
3030.41	2.00967
3031.69	1.54816
3032.98	2.01622
3034.27	2.23875
3035.56	1.95237
3036.84	1.71521
3038.13	2.38093
3039.42	3.02584
3040.71	3.3661
3041.99	4.04673
3043.28	4.05717
3044.57	4.30218
3045.85	4.76296
3047.14	4.97098
3048.42	4.7237
3049.71	5.15766
3050.99	6.43133
3052.28	6.67277
3053.56	7.09431
3054.85	7.40452
3056.13	7.11515
3057.41	6.54508
3058.7	6.32068
3059.98	5.95434
3061.26	5.45499
3062.55	4.96044
3063.83	4.67016
3065.11	4.62474
3066.39	4.47924
3067.68	4.54119
3068.96	4.24331
3070.24	3.94619
3071.52	3.40935
3072.8	2.93454
3074.08	2.24729
3075.36	2.02595
3076.65	1.00591
3077.93	1.62676
3079.21	1.11287
3080.49	1.15247
3081.77	1.58432
3083.04	1.0213
3084.32	0.611181
3085.6	0.290994
3086.88	0.370311
3088.16	-0.00562994
3089.44	-0.279366
3090.72	-0.574016
3091.99	-0.146126
3093.27	0.304717
3094.55	0.024846
3095.83	0.713865
3097.1	1.29344
3098.38	1.19256
3099.66	1.08511
3100.93	1.80713
3102.21	2.1987
3103.49	2.11673
3104.76	2.3523
3106.04	2.34644
3107.31	2.60542
3108.59	2.41133
3109.86	3.16522
3111.14	4.14684
3112.41	5.01301
3113.69	5.58743
3114.96	6.00588
3116.23	5.49154
3117.51	5.95891
3118.78	6.19862
3120.05	6.46842
3121.33	6.80708
3122.6	7.36139
3123.87	7.84093
3125.14	8.50062
3126.41	9.49397
3127.69	10.3353
3128.96	10.8693
3130.23	11.5895
3131.5	12.3604
3132.77	12.8876
3134.04	13.7086
3135.31	13.672
3136.58	14.7627
3137.85	15.6966
3139.12	16.7092
3140.39	17.5653
3141.66	18.5703
3142.93	19.0573
3144.2	19.8184
3145.47	20.5201
3146.74	21.9393
3148	22.5787
3149.27	21.7513
