#Acq. time (s)=	45
#Accumulations=	2
#Range (cm-¹)=	200...3150
#Windows=	2
#Auto scanning=	Off
#Autofocus=	Off
#Macrospot=	Off
#AutoExposure=	Off
#Spike filter=	Multiple accum.
#Delay time (s)=	0
#Binning=	1
#Readout mode=	Signal
#DeNoise=	Off
#ICS correction=	On
#Dark correction=	Off
#Inst. Process=	Off
#Detector Gain=	Best Dynamic Range
#Detector ADC=	20 kHz       
#Detector temperature (°C)=	-69.85
#Instrument=	LabRAM HR Evol
#Detector=	Synapse
#Objective=	x50
#Grating=	600 gr/mm
#ND Filter=	100%
#Laser (nm)=	532 
#Hole=	100.021
#Range=	Auto
#Laser Pol.=	No
#Raman. Pol.=	No
#Laser Pol. (°)=	-0.0007625
#Raman Pol. (°)=	89.9995
#Collection=	Microscope
#StageXY=	Marzhauser
#StageZ=	Marzhauser
#X (µm)=	-6996.1
#Y (µm)=	2170.4
#Z (µm)=	-74.5
#Full time(mm:ss)=	3:18
#Project=	
#Sample=	
#Site=	
#Title=	Mb_20_23_02_2x_45s_532 nm_x50_100%_600 gr_mm
#Remark=	
#Date=	13.07.2022 13:02
#Acquired=	13.07.2022 13:02:01
#Base:Fit=	10.08.2022 10:29:19
#Base:Fit=	10.08.2022 10:29:37
#Base:Sub=	10.08.2022 10:31:46
#Filter:Polynom=	16.08.2022 10:13:29
#AxisType[0]=Intens
#AxisUnit[0]=Cnt
#AxisType[1]=Spectr
#AxisUnit[1]=1/cm
200.563	15.5985
202.377	17.517
204.194	16.1421
206.008	16.6278
207.821	16.9791
209.634	17.5219
211.449	17.4181
213.262	17.8243
215.074	17.6789
216.885	18.3183
218.699	19.3085
220.51	20.4566
222.321	21.6455
224.131	23.4649
225.941	23.351
227.751	21.6445
229.562	20.8578
231.371	20.39
233.18	20.9645
234.988	22.8541
236.796	22.7767
238.603	22.7123
240.411	22.8281
242.219	23.7357
244.026	22.5594
245.832	22.672
247.638	22.6837
249.443	21.9328
251.248	21.0266
253.053	20.3894
254.857	20.5345
256.661	19.9563
258.465	20.5179
260.268	20.8966
262.071	21.9066
263.874	22.1914
265.678	20.7578
267.48	19.7818
269.282	18.4223
271.083	17.4669
272.884	17.9632
274.684	17.7335
276.484	16.6445
278.284	15.4967
280.084	15.403
281.883	15.1185
283.682	14.8875
285.48	15.0183
287.276	13.372
289.074	13.2803
290.871	13.4476
292.668	14.3292
294.465	14.5827
296.261	14.1688
298.057	15.3156
299.853	16.8609
301.648	16.6229
303.443	18.3179
305.237	18.6065
307.032	19.0893
308.823	19.9273
310.617	20.3102
312.41	19.9303
314.203	20.2704
315.995	19.4036
317.788	20.2764
319.579	21.7809
321.369	22.666
323.16	23.7322
324.951	24.8354
326.741	24.8036
328.531	25.6684
330.321	25.2825
332.108	26.1815
333.897	25.6948
335.686	27.4245
337.474	26.4604
339.26	25.0356
341.048	25.0953
342.835	25.2574
344.622	24.7414
346.406	25.381
348.192	24.8965
349.978	23.4791
351.764	23.3654
353.547	22.0545
355.332	20.101
357.116	18.9469
358.901	18.5536
360.682	18.438
362.466	17.1147
364.249	15.2195
366.03	14.4709
367.812	13.0578
369.594	12.3786
371.374	11.6752
373.155	10.8738
374.936	10.4809
376.715	9.69067
378.495	10.5125
380.273	10.5718
382.053	10.2041
383.832	9.45796
385.609	9.67444
387.388	10.0684
389.164	9.26999
390.942	8.57188
392.72	8.35156
394.495	8.17013
396.272	8.65963
398.047	9.78791
399.823	10.2397
401.597	10.268
403.372	10.7119
405.145	11.2914
406.92	12.1355
408.693	11.7317
410.467	12.855
412.239	13.4661
414.012	14.972
415.783	15.6277
417.556	15.3455
419.327	15.653
421.099	15.8521
422.869	15.1151
424.64	14.8366
426.409	14.5208
428.18	15.5899
429.948	16.3419
431.718	16.1393
433.486	15.9267
435.253	16.1128
437.022	15.6435
438.789	14.5694
440.558	14.7944
442.324	14.9796
444.089	15.0249
445.857	15.7904
447.622	17.1991
449.386	17.0158
451.153	16.135
452.917	16.2457
454.682	15.5485
456.446	14.6009
458.208	14.5759
459.973	14.2175
461.735	14.6245
463.497	14.5777
465.259	14.3031
467.022	14.1817
468.783	14.9288
470.544	14.4248
472.306	14.0458
474.066	14.7033
475.825	15.2627
477.585	15.7305
479.346	16.9902
481.104	17.7242
482.862	18.1233
484.62	18.5018
486.38	19.4954
488.137	19.8472
489.894	20.3005
491.65	20.8829
493.407	22.7925
495.164	23.3258
496.92	25.0731
498.675	26.0632
500.43	25.9178
502.184	26.0431
503.939	26.1692
505.694	25.0196
507.448	25.6424
509.201	25.2597
510.954	26.4202
512.706	27.2411
514.459	26.7299
516.21	27.1167
517.962	27.0432
519.715	27.094
521.466	27.8185
523.216	28.2195
524.966	27.8071
526.716	27.371
528.466	28.4741
530.215	28.4649
531.964	28.0171
533.712	26.6011
535.46	25.3584
537.208	24.048
538.955	23.6183
540.703	23.2425
542.449	22.1085
544.196	20.5902
545.942	19.6547
547.688	19.3576
549.433	18.8569
551.178	17.9069
552.923	17.2364
554.667	16.7164
556.412	16.3721
558.155	15.5306
559.899	15.385
561.642	14.6502
563.385	13.8312
565.127	13.2693
566.867	12.8655
568.609	12.8372
570.35	13.2992
572.092	13.8973
573.832	14.96
575.573	15.1906
577.313	15.6641
579.053	15.3398
580.79	15.6052
582.529	15.0477
584.268	14.9183
586.006	14.1702
587.745	13.5196
589.482	12.5892
591.218	12.4908
592.955	12.2016
594.692	13.0689
596.428	12.1369
598.164	12.1571
599.898	11.2938
601.634	11.0315
603.369	10.7134
605.104	9.19347
606.836	7.79844
608.57	7.89067
610.304	7.46959
612.037	6.79594
613.769	6.41674
615.501	6.44266
617.234	5.352
618.966	5.47349
620.696	5.27073
622.427	6.36784
624.159	6.60968
625.887	7.77029
627.618	7.75476
629.348	7.36523
631.076	6.62206
632.806	7.49316
634.535	9.00512
636.262	9.71614
637.99	10.5974
639.716	10.7791
641.444	11.1341
643.172	11.5817
644.897	12.8382
646.624	13.8715
648.348	14.5241
650.075	15.1247
651.801	16.1087
653.524	18.0928
655.249	19.4311
656.972	19.5498
658.697	19.8893
660.419	20.4201
662.143	20.2476
663.865	20.161
665.588	20.3409
667.309	20.4698
669.032	20.4145
670.752	20.5961
672.474	20.7776
674.194	20.1545
675.915	19.3684
677.634	19.9279
679.355	21.2218
681.073	21.5063
682.793	21.9058
684.511	21.2538
686.23	21.543
687.947	20.8637
689.664	20.1777
691.382	20.8933
693.098	21.3777
694.816	22.4382
696.531	21.9869
698.247	22.105
699.963	23.1606
701.678	24.0781
703.392	24.6745
705.108	24.424
706.821	24.8865
708.534	25.3367
710.249	25.6555
711.962	26.3273
713.674	27.0717
715.388	27.3726
717.099	28.2071
718.81	29.1444
720.523	29.2519
722.234	29.6132
723.944	30.7971
725.654	30.9209
727.365	32.0289
729.075	32.9892
730.784	34.0645
732.492	34.0895
734.202	34.0802
735.91	35.2091
737.618	36.3612
739.325	36.9935
741.034	37.9783
742.741	38.1362
744.447	39.2299
746.153	40.1377
747.859	41.3541
749.564	41.7378
751.271	42.4837
752.976	44.1255
754.681	45.7506
756.385	47.7179
758.088	48.9935
759.792	50.9189
761.495	52.4046
763.2	55.3711
764.902	56.8594
766.604	57.1629
768.306	58.0704
770.008	59.6037
771.709	60.7195
773.41	61.9955
775.11	64.6667
776.811	65.9273
778.51	66.56
780.21	67.4076
781.909	67.3753
783.608	68.5152
785.307	68.3924
787.005	68.6969
788.703	70.025
790.401	70.3964
792.098	72.7694
793.795	73.0412
795.492	72.3021
797.188	72.713
798.884	74.0965
800.58	73.5275
802.276	74.022
803.971	73.788
805.665	74.8105
807.36	76.6012
809.054	77.2571
810.748	77.3421
812.441	77.8147
814.135	77.6975
815.826	78.0494
817.518	78.7749
819.21	79.052
820.902	79.8789
822.594	79.8973
824.285	79.417
825.976	79.4448
827.665	78.7301
829.355	78.2488
831.045	77.5641
832.735	77.5331
834.424	75.8616
836.111	76.3974
837.8	76.5471
839.488	75.2694
841.177	74.0508
842.864	72.3527
844.55	71.1423
846.237	68.9732
847.924	68.6289
849.61	67.2297
851.295	66.1627
852.98	64.7726
854.666	64.1347
856.349	62.5324
858.034	62.9354
859.719	62.0238
861.403	59.8751
863.085	58.7749
864.769	58.0366
866.452	56.2345
868.133	57.221
869.816	57.1205
871.498	57.6805
873.179	56.8589
874.86	56.1517
876.54	55.3
878.221	53.9288
879.902	52.7925
881.58	53.8335
883.26	54.4415
884.938	54.45
886.618	56.253
888.297	57.4913
889.974	58.0393
891.653	58.1159
893.329	58.431
895.007	58.9242
896.683	59.0007
898.36	60.1845
900.035	61.5577
901.712	60.6639
903.387	60.649
905.063	61.5234
906.737	61.2379
908.412	61.2026
910.085	61.8147
911.76	61.1385
913.433	59.4054
915.107	58.6829
916.779	58.5996
918.452	57.1737
920.124	56.7991
921.797	55.4444
923.467	53.8591
925.138	52.5596
926.81	50.938
928.48	50.1005
930.151	49.2828
931.82	48.1153
933.489	45.9503
935.16	44.2931
936.828	42.9152
938.496	42.3978
940.165	40.7367
941.833	38.6038
943.5	37.116
945.168	34.1309
946.834	33.6952
948.5	32.4815
950.168	30.5843
951.834	30.9131
953.499	29.118
955.163	27.5927
956.83	25.6653
958.494	25.8026
960.158	23.6611
961.821	22.762
963.487	23.0339
965.15	24.8955
966.812	25.8678
968.474	26.6399
970.138	26.7011
971.8	26.4999
973.461	25.9761
975.123	26.9049
976.783	27.6896
978.446	27.7634
980.106	28.8423
981.766	29.6823
983.425	29.5771
985.084	29.1812
986.743	30.5617
988.402	31.1519
990.06	31.097
991.72	31.3217
993.378	31.4471
995.035	30.1511
996.692	29.0862
998.349	29.1088
1000.01	28.6926
1001.66	27.0782
1003.32	26.1916
1004.97	26.8929
1006.63	27.8413
1008.28	28.6817
1009.94	29.8888
1011.59	31.2751
1013.25	32.4119
1014.9	33.2482
1016.55	35.7457
1018.21	37.3252
1019.86	38.2772
1021.51	38.7018
1023.16	39.2801
1024.81	40.5287
1026.47	42.1108
1028.12	43.4564
1029.77	45.8724
1031.42	47.002
1033.07	47.5833
1034.72	49.527
1036.37	50.1181
1038.02	50.6171
1039.67	51.0635
1041.31	52.1001
1042.96	52.445
1044.61	53.7254
1046.26	55.4173
1047.91	55.7692
1049.55	55.8712
1051.2	54.2453
1052.84	52.8928
1054.49	53.0014
1056.14	51.4224
1057.78	50.748
1059.43	49.9417
1061.07	48.7577
1062.72	46.9578
1064.36	44.693
1066	42.8959
1067.65	41.2646
1069.29	39.2621
1070.93	37.2988
1072.58	34.6689
1074.22	33.5959
1075.86	30.9632
1077.5	27.9618
1079.14	25.6924
1080.78	24.8693
1082.42	24.0007
1084.06	23.2091
1085.7	22.9487
1087.34	23.7727
1088.98	23.1119
1090.62	22.7799
1092.26	22.8632
1093.9	23.3562
1095.54	22.6537
1097.17	23.3602
1098.81	24.0118
1100.45	23.9124
1102.09	23.7276
1103.72	23.6719
1105.36	23.9454
1106.99	24.0865
1108.63	23.8917
1110.27	23.6016
1111.9	23.0138
1113.53	22.6717
1115.17	21.6047
1116.8	21.8807
1118.43	21.8415
1120.07	21.667
1121.7	21.2273
1123.33	20.9724
1124.97	20.3344
1126.6	19.1887
1128.23	19.2979
1129.86	18.3226
1131.49	17.5371
1133.12	16.2181
1134.75	15.3413
1136.38	14.6324
1138.01	14.0452
1139.64	12.6377
1141.27	11.1823
1142.9	10.4616
1144.53	9.39497
1146.16	8.57471
1147.78	8.5757
1149.41	8.3668
1151.04	7.60815
1152.67	6.82265
1154.29	5.7267
1155.92	4.71228
1157.54	4.0962
1159.17	4.02136
1160.8	3.95342
1162.42	3.78483
1164.05	3.60909
1165.67	3.69413
1167.29	3.28854
1168.92	2.97868
1170.54	3.13769
1172.16	3.28421
1173.79	2.93905
1175.41	3.50639
1177.03	3.19616
1178.65	4.77882
1180.28	4.74707
1181.9	4.71966
1183.52	4.81274
1185.14	5.14514
1186.76	5.47697
1188.38	5.38757
1190	5.68206
1191.62	6.24069
1193.24	6.87337
1194.86	7.79088
1196.47	8.69145
1198.09	9.82804
1199.71	9.65285
1201.33	10.5189
1202.95	10.5718
1204.56	11.5802
1206.18	12.5733
1207.8	12.8856
1209.41	14.1248
1211.03	15.1855
1212.64	16.1168
1214.26	15.6932
1215.87	15.9974
1217.49	16.7514
1219.1	17.8814
1220.71	18.4194
1222.33	19.7323
1223.94	21.6435
1225.55	21.7148
1227.16	22.2472
1228.78	23.5623
1230.39	24.8663
1232	25.6085
1233.61	25.8157
1235.22	27.2428
1236.83	28.9488
1238.44	30.7261
1240.05	31.4422
1241.66	32.0967
1243.27	33.8467
1244.88	34.964
1246.49	35.0952
1248.1	35.4167
1249.71	36.0921
1251.32	36.7889
1252.92	37.2837
1254.53	38.3051
1256.14	39.7305
1257.74	40.9909
1259.35	41.8867
1260.96	43.2103
1262.56	44.2934
1264.17	46.4732
1265.77	47.1286
1267.38	48.2911
1268.98	48.9697
1270.59	50.5553
1272.19	51.8099
1273.79	53.3147
1275.4	55.3246
1277	56.254
1278.6	57.9993
1280.21	59.5588
1281.81	62.1232
1283.41	62.3623
1285.01	64.377
1286.61	65.7994
1288.21	66.3143
1289.81	67.8565
1291.41	68.368
1293.01	67.8577
1294.61	68.2191
1296.21	69.1868
1297.81	70.1769
1299.41	71.6622
1301.01	72.1454
1302.6	72.3586
1304.2	72.9481
1305.8	72.9013
1307.4	73.1218
1308.99	72.9108
1310.59	72.5053
1312.19	71.2339
1313.78	70.7076
1315.38	70.2819
1316.97	69.34
1318.57	68.7737
1320.16	68.8683
1321.76	67.8684
1323.35	67.7738
1324.94	65.4987
1326.54	64.8483
1328.13	63.974
1329.72	63.6309
1331.32	62.9813
1332.91	62.358
1334.5	61.001
1336.09	59.4463
1337.68	58.3639
1339.27	58.8542
1340.87	58.373
1342.45	58.5183
1344.04	57.5028
1345.64	55.8846
1347.22	56.0813
1348.81	55.7947
1350.4	56.1058
1351.99	56.2276
1353.58	56.0892
1355.17	55.5926
1356.75	55.2761
1358.34	55.6623
1359.93	55.3436
1361.51	55.0009
1363.1	55.5076
1364.69	55.865
1366.27	55.5712
1367.86	55.5329
1369.44	54.8914
1371.03	55.2398
1372.61	55.3776
1374.2	55.6558
1375.78	56.3236
1377.37	57.5356
1378.95	56.8541
1380.53	56.5117
1382.11	55.8759
1383.7	55.5518
1385.28	55.2763
1386.86	54.115
1388.44	54.4702
1390.02	54.4726
1391.6	54.9765
1393.19	55.5707
1394.77	55.2919
1396.35	55.2991
1397.93	55.4646
1399.51	55.7224
1401.08	55.7643
1402.66	56.4557
1404.24	56.7762
1405.82	58.261
1407.4	58.5541
1408.97	61.9161
1410.55	62.9214
1412.13	64.4164
1413.71	66.3505
1415.28	69.2737
1416.86	71.8496
1418.43	74.9384
1420.01	76.36
1421.59	79.8801
1423.16	82.0367
1424.73	85.8009
1426.31	88.9227
1427.88	92.4236
1429.46	95.7623
1431.03	98.7561
1432.6	101.399
1434.18	103.971
1435.75	107.056
1437.32	110.036
1438.89	112.355
1440.46	114.217
1442.04	116.618
1443.61	116.522
1445.18	117.619
1446.75	118.418
1448.32	116.938
1449.89	116.825
1451.46	115.756
1453.03	114.756
1454.6	114.254
1456.16	112.173
1457.73	109.28
1459.3	106.922
1460.87	103.514
1462.44	100.383
1464	97.3299
1465.57	94.2044
1467.14	91.4548
1468.7	87.1179
1470.27	82.7846
1471.83	78.2553
1473.4	73.406
1474.96	68.7028
1476.53	64.9527
1478.09	61.1684
1479.66	57.1505
1481.22	53.8172
1482.78	50.3534
1484.35	48.0109
1485.91	45.1701
1487.47	43.6825
1489.04	40.8778
1490.6	38.7125
1492.16	35.8157
1493.72	33.2405
1495.28	30.4857
1496.84	29.1956
1498.4	27.9896
1499.96	27.5022
1501.52	26.3125
1503.08	25.5211
1504.64	24.7562
1506.2	25.2879
1507.76	24.5659
1509.32	23.7755
1510.88	23.0291
1512.44	22.1128
1513.99	22.1076
1515.55	21.6633
1517.11	20.5089
1518.66	19.8022
1520.22	19.0445
1521.78	17.9198
1523.33	18.3711
1524.89	18.9011
1526.44	18.4464
1528	19.0764
1529.55	19.2035
1531.11	19.3759
1532.66	19.6355
1534.21	19.0786
1535.77	17.7468
1537.32	17.2732
1538.87	17.6573
1540.43	18.5602
1541.98	18.8548
1543.53	18.7016
1545.08	18.9996
1546.63	18.96
1548.18	18.9998
1549.74	19.3313
1551.29	20.571
1552.84	20.9919
1554.39	22.1847
1555.94	23.5119
1557.48	25.2573
1559.03	27.2822
1560.58	28.2081
1562.13	30.4261
1563.68	30.7088
1565.23	31.7465
1566.78	33.0497
1568.32	32.7774
1569.87	33.8078
1571.42	35.6377
1572.96	37.4672
1574.51	38.8887
1576.05	39.7507
1577.6	41.7793
1579.14	43.0189
1580.69	44.8731
1582.24	45.4224
1583.78	47.0818
1585.32	47.2778
1586.87	48.0944
1588.41	48.7399
1589.95	49.2883
1591.5	50.6594
1593.04	50.4648
1594.58	50.068
1596.12	50.2986
1597.67	51.0407
1599.21	51.5313
1600.75	52.6618
1602.29	52.6923
1603.83	50.8085
1605.37	50.5649
1606.91	50.3157
1608.45	49.8175
1609.99	48.3511
1611.53	46.6749
1613.07	45.4223
1614.6	45.5548
1616.14	46.1533
1617.68	46.3153
1619.22	46.3123
1620.75	47.6022
1622.29	48.4255
1623.83	48.682
1625.37	50.0248
1626.9	51.5339
1628.44	53.4197
1629.97	53.9721
1631.51	55.814
1633.04	56.8609
1634.58	58.0283
1636.11	59.0644
1637.65	60.1223
1639.18	61.0537
1640.72	61.8817
1642.25	63.8789
1643.78	64.801
1645.31	65.9405
1646.85	67.6093
1648.38	68.5583
1649.91	69.7534
1651.44	70.5502
1652.97	71.1576
1654.5	72.4982
1656.03	72.9182
1657.56	72.4695
1659.1	71.7373
1660.62	72.1458
1662.15	70.7733
1663.68	69.8824
1665.21	68.9693
1666.74	67.6285
1668.27	66.0569
1669.8	63.7051
1671.32	62.3857
1672.85	60.7993
1674.38	59.1148
1675.91	56.4102
1677.43	54.0778
1678.96	51.2594
1680.49	48.6827
1682.01	47.7598
1683.54	44.8196
1685.06	41.5853
1686.59	38.3731
1688.11	36.2612
1689.64	35.6696
1691.16	34.6658
1692.68	34.0477
1694.21	32.4712
1695.73	30.7574
1697.25	29.7231
1698.78	28.5144
1700.3	28.3613
1701.82	27.7991
1703.34	27.012
1704.86	25.9342
1706.39	25.7102
1707.91	25.4979
1709.43	24.4756
1710.95	24.1406
1712.47	23.7393
1713.99	23.384
1715.51	22.7476
1717.02	23.0242
1718.54	22.2533
1720.06	21.287
1721.58	21.1078
1723.1	20.653
1724.62	20.895
1726.13	20.3777
1727.65	19.2099
1729.17	18.4762
1730.68	17.7511
1732.2	16.9225
1733.72	16.1081
1735.23	15.8444
1736.75	15.5018
1738.26	14.2321
1739.78	13.5015
1741.29	12.7722
1742.81	12.0659
1744.32	11.2256
1745.84	11.0191
1747.35	10.138
1748.86	9.58839
1750.37	9.59141
1751.89	8.97302
1753.4	8.62843
1754.91	8.25017
1756.42	7.80033
1757.93	7.25702
1759.45	6.11944
1760.96	5.68702
1762.47	5.88488
1763.98	6.61493
1765.49	7.45204
1767	7.07473
1768.51	7.10147
1770.02	6.98469
1771.53	7.66127
1773.03	8.1043
1774.54	7.8385
1776.05	7.74226
1777.56	7.95466
1779.07	8.54939
1780.57	8.99759
1782.08	9.5847
1783.59	8.96369
1785.09	8.82423
1786.6	9.38365
1788.11	9.80104
1789.61	10.0512
1791.12	9.80939
1792.62	9.4949
1794.13	9.83799
1795.63	9.73695
1797.13	9.78622
1798.64	9.98721
1800.14	10.414
1801.65	10.1377
1803.15	10.4963
1804.65	11.0881
1806.15	10.6511
1807.66	11.1465
1809.16	10.9732
1810.66	10.049
1812.16	9.83007
1813.66	8.91006
1815.16	8.76477
1816.66	8.60492
1818.16	8.43489
1819.66	7.72291
1821.16	7.60873
1822.66	6.92542
1824.16	6.41828
1825.66	6.01372
1827.16	5.39934
1828.66	4.57266
1830.16	4.82584
1831.65	5.30174
1833.15	5.54189
1834.65	5.39306
1836.14	5.49173
1837.64	5.80432
1839.14	6.17568
1840.63	7.06679
1842.13	6.80589
1843.62	7.31986
1845.12	7.05233
1846.61	6.61864
1848.11	5.86349
1849.6	5.47548
1851.1	5.81625
1852.59	6.0223
1854.08	5.95887
1855.58	5.60511
1857.07	4.97778
1858.56	4.76123
1860.05	5.38044
1861.55	6.2007
1863.04	5.9153
1864.53	5.38494
1866.02	5.13823
1867.51	4.99894
1869	6.10116
1870.49	6.10021
1871.98	5.8456
1873.47	5.84253
1874.96	6.6566
1876.45	5.98956
1877.94	5.49646
1879.43	4.9059
1880.92	4.37963
1882.41	4.14181
1882.51	3.42858
1884	3.06048
1885.5	3.24568
1886.99	3.06828
1888.48	2.91586
1889.98	3.7803
1891.47	3.20093
1892.96	2.85583
1894.46	3.22616
1895.95	3.46985
1897.44	4.06287
1898.93	4.19491
1900.42	4.11408
1901.91	4.26178
1903.41	5.11399
1904.9	4.77975
1906.39	5.2478
1907.88	5.82776
1909.37	7.31424
1910.86	8.33568
1912.35	8.44875
1913.83	8.4925
1915.32	7.19656
1916.81	6.90113
1918.3	6.6166
1919.79	6.21124
1921.27	5.59017
1922.76	5.46344
1924.25	5.6736
1925.74	6.24043
1927.22	6.36888
1928.71	5.5955
1930.19	6.03577
1931.68	6.44804
1933.17	6.78199
1934.65	6.54733
1936.14	5.62021
1937.62	5.92625
1939.11	6.17759
1940.59	6.88211
1942.07	7.92258
1943.56	6.96917
1945.04	6.96178
1946.52	7.49649
1948.01	7.23989
1949.49	6.26602
1950.97	6.53412
1952.45	7.23362
1953.93	7.32099
1955.42	6.71668
1956.9	6.74575
1958.38	7.11232
1959.86	7.33467
1961.34	7.49397
1962.82	7.71514
1964.3	8.05639
1965.78	6.74558
1967.26	7.34058
1968.74	7.42289
1970.21	7.90917
1971.69	7.79521
1973.17	7.2822
1974.65	7.41976
1976.13	7.65221
1977.6	7.69724
1979.08	8.21185
1980.56	9.35021
1982.03	9.42048
1983.51	9.20012
1984.99	8.07984
1986.46	7.0314
1987.94	6.82044
1989.41	6.44658
1990.89	6.61222
1992.36	6.87945
1993.84	6.52718
1995.31	6.61004
1996.78	7.02111
1998.26	6.7154
1999.73	6.66926
2001.2	6.1666
2002.68	5.95063
2004.15	6.54917
2005.62	6.36026
2007.09	6.62092
2008.56	6.81292
2010.04	7.10352
2011.51	8.02136
2012.98	8.24047
2014.45	8.61679
2015.92	8.14413
2017.39	8.08348
2018.86	8.66452
2020.33	8.74422
2021.8	8.78955
2023.26	10.0135
2024.73	10.368
2026.2	10.4946
2027.67	10.0399
2029.14	9.19681
2030.61	9.41867
2032.07	9.16093
2033.54	9.02204
2035.01	9.7632
2036.47	9.98462
2037.94	10.3102
2039.4	10.4403
2040.87	10.7541
2042.33	11.0557
2043.8	11.9206
2045.27	12.2574
2046.73	12.6501
2048.19	13.1088
2049.66	13.428
2051.12	13.2624
2052.59	13.6446
2054.05	13.2296
2055.51	13.0395
2056.97	12.9688
2058.44	12.7767
2059.9	13.2239
2061.36	13.4617
2062.82	12.8862
2064.28	12.7392
2065.74	12.7156
2067.21	12.8174
2068.67	12.9569
2070.13	12.6167
2071.59	12.5758
2073.05	13.3464
2074.51	12.8514
2075.96	12.8746
2077.42	13.1365
2078.88	13.124
2080.34	13.6838
2081.8	14.2288
2083.26	14.3752
2084.72	14.9254
2086.17	15.3557
2087.63	15.2547
2089.09	15.568
2090.54	16.6563
2092	16.5946
2093.45	17.6221
2094.91	18.1107
2096.37	18.0487
2097.82	17.6262
2099.28	18.0535
2100.73	18.5046
2102.19	18.3297
2103.64	19.3127
2105.09	20.213
2106.55	21.7538
2108	22.8649
2109.45	23.0355
2110.91	23.3225
2112.36	24.0798
2113.81	24.5905
2115.26	25.6561
2116.72	26.0709
2118.17	26.631
2119.62	26.6148
2121.07	26.7775
2122.52	26.9
2123.97	26.9588
2125.42	27.1008
2126.87	27.1365
2128.32	28.0869
2129.77	28.2195
2131.22	29.1109
2132.67	30.2263
2134.11	30.4252
2135.56	30.5432
2137.01	31.9091
2138.46	32.7205
2139.91	33.2944
2141.35	33.5704
2142.8	33.7513
2144.25	34.5802
2145.7	34.8756
2147.14	35.863
2148.59	37.3326
2150.03	38.6898
2151.48	39.396
2152.92	40.5762
2154.37	42.0383
2155.81	42.4964
2157.26	44.0871
2158.7	45.1042
2160.15	46.0378
2161.59	46.8883
2163.03	47.7823
2164.47	48.1641
2165.92	49.6408
2167.36	49.9229
2168.8	50.6029
2170.24	51.4669
2171.69	52.099
2173.13	51.6136
2174.57	51.3432
2176.01	51.8523
2177.45	52.1804
2178.89	52.435
2180.33	51.8605
2181.77	51.7053
2183.21	51.792
2184.65	51.6695
2186.09	50.6369
2187.53	50.3013
2188.97	50.1985
2190.4	49.0857
2191.84	48.558
2193.28	47.3699
2194.72	46.408
2196.16	45.2148
2197.59	44.2727
2199.03	43.3142
2200.47	42.5332
2201.9	41.2032
2203.34	40.7426
2204.77	39.7095
2206.21	37.9262
2207.64	36.3723
2209.08	35.4937
2210.51	33.5703
2211.95	32.0832
2213.38	30.9605
2214.82	29.7872
2216.25	29.3839
2217.68	28.305
2219.12	28.3133
2220.55	27.5647
2221.98	26.7627
2223.41	25.3704
2224.85	24.7174
2226.28	23.6211
2227.71	21.5569
2229.14	20.888
2230.57	20.0791
2232	19.385
2233.43	18.3507
2234.86	17.7261
2236.29	16.5541
2237.72	16.1668
2239.15	15.1683
2240.58	14.2458
2242.01	13.6538
2243.44	13.1827
2244.87	12.4454
2246.29	12.5639
2247.72	12.8301
2249.15	12.5125
2250.58	12.1797
2252.01	12.0665
2253.43	12.2981
2254.86	11.5904
2256.29	11.5435
2257.71	12.0417
2259.14	12.2996
2260.56	12.3328
2261.99	12.0145
2263.41	12.2329
2264.84	12.5562
2266.26	13.0634
2267.69	13.2073
2269.11	12.9751
2270.53	12.5762
2271.96	12.8111
2273.38	12.9422
2274.8	12.5005
2276.23	12.0302
2277.65	11.7607
2279.07	11.1384
2280.49	10.5257
2281.91	10.1769
2283.34	9.79111
2284.76	9.54205
2286.18	9.71883
2287.6	9.72995
2289.02	8.86752
2290.44	8.84964
2291.86	8.72492
2293.28	7.00653
2294.7	6.51139
2296.12	6.48971
2297.54	6.75844
2298.96	6.52033
2300.37	7.39855
2301.79	7.44505
2303.21	6.95978
2304.63	6.96127
2306.04	7.419
2307.46	7.01412
2308.88	7.82774
2310.3	7.5306
2311.71	7.13363
2313.13	7.36956
2314.54	7.34586
2315.96	7.37499
2317.37	7.36348
2318.79	8.18906
2320.2	8.02173
2321.62	8.13503
2323.03	8.64185
2324.45	9.06341
2325.86	9.19307
2327.27	10.807
2328.69	10.7796
2330.1	10.7826
2331.51	11.28
2332.92	11.2576
2334.34	11.2332
2335.75	11.1952
2337.16	10.4298
2338.57	9.71396
2339.98	9.216
2341.39	9.26574
2342.8	8.7192
2344.21	7.88918
2345.63	6.72413
2347.04	6.34922
2348.45	5.67364
2349.85	5.17833
2351.26	4.9161
2352.67	5.18636
2354.08	4.50621
2355.49	4.44123
2356.9	4.31565
2358.3	3.56681
2359.71	2.91636
2361.12	2.25851
2362.53	2.50834
2363.93	2.16296
2365.34	3.24268
2366.75	3.25857
2368.15	2.88647
2369.56	2.5117
2370.97	3.33903
2372.37	3.0436
2373.77	2.95414
2375.18	3.38587
2376.59	2.95639
2377.99	2.85512
2379.39	3.09263
2380.8	2.43994
2382.2	2.4387
2383.6	3.29936
2385.01	3.48246
2386.41	3.83737
2387.81	4.44291
2389.21	5.00571
2390.62	4.63386
2392.02	5.00588
2393.42	5.68054
2394.82	6.03172
2396.22	6.0572
2397.62	6.1874
2399.02	5.6818
2400.42	5.77267
2401.82	5.80809
2403.22	6.08092
2404.62	6.45767
2406.02	6.57045
2407.42	6.40685
2408.82	6.35391
2410.22	6.74117
2411.62	6.6079
2413.01	6.27797
2414.41	5.94404
2415.81	6.28393
2417.21	6.79951
2418.6	6.85661
2420	6.91332
2421.4	6.63062
2422.79	6.83048
2424.19	6.18328
2425.59	5.53617
2426.98	4.70504
2428.38	3.53459
2429.77	3.09332
2431.17	3.32733
2432.56	3.8591
2433.95	3.57765
2435.35	3.5362
2436.74	3.67657
2438.14	3.56048
2439.53	4.03317
2440.92	3.52683
2442.31	2.69208
2443.71	2.74381
2445.1	2.88984
2446.49	2.71278
2447.88	2.77317
2449.27	2.43392
2450.67	3.24576
2452.06	3.01882
2453.45	3.08397
2454.84	2.29601
2456.23	2.00062
2457.62	2.08492
2459.01	1.59264
2460.4	1.70607
2461.79	1.86224
2463.18	1.32476
2464.57	0.875077
2465.95	1.27052
2467.34	1.15037
2468.73	1.5463
2470.12	1.56718
2471.5	1.56218
2472.89	2.00396
2474.28	1.51343
2475.67	0.927828
2477.05	1.38108
2478.44	2.17635
2479.82	1.73782
2481.21	1.44239
2482.6	1.88377
2483.98	1.36792
2485.37	1.54039
2486.75	1.10394
2488.13	1.37585
2489.52	1.07391
2490.9	0.863199
2492.29	0.511358
2493.67	0.194519
2495.05	-0.300123
2496.44	-0.33793
2497.82	0.209032
2499.2	1.1281
2500.58	1.64958
2501.97	1.89917
2503.35	2.35462
2504.73	2.82429
2506.11	2.74835
2507.49	2.48682
2508.87	2.07208
2510.25	1.19578
2511.63	1.58681
2513.01	2.08327
2514.39	2.22902
2515.77	2.05204
2517.15	2.20895
2518.53	2.30086
2519.91	2.51976
2521.29	1.81008
2522.67	1.80025
2524.05	1.56758
2525.42	1.41381
2526.8	1.37442
2528.18	1.07302
2529.55	1.21435
2530.93	1.17217
2532.31	0.644271
2533.69	0.59146
2535.06	0.847567
2536.44	0.0765956
2537.81	0.302005
2539.19	-0.132437
2540.56	-0.263174
2541.94	0.185144
2543.31	0.168213
2544.69	0.50261
2546.06	1.85765
2547.44	1.33465
2548.81	0.230171
2550.18	0.251599
2551.56	0.846113
2552.93	0.436824
2554.3	0.912513
2555.67	1.22243
2557.04	1.21595
2558.42	0.737918
2559.79	1.0835
2561.16	1.29924
2562.53	1.26877
2563.9	1.82255
2565.27	2.22156
2566.64	2.37395
2568.01	2.54265
2569.38	2.71954
2570.75	2.44646
2572.12	2.39183
2573.49	2.28443
2574.86	1.90241
2576.23	1.75164
2577.6	1.40073
2578.97	2.00534
2580.33	2.72975
2581.7	2.58207
2583.07	2.65732
2584.44	2.32208
2585.8	2.7895
2587.17	2.81212
2588.54	3.26689
2589.9	2.95199
2591.27	2.23299
2592.64	2.14417
2594	1.94776
2595.37	2.30855
2596.73	2.21863
2598.1	1.67299
2599.46	1.215
2600.83	0.665117
2602.19	1.05172
2603.55	1.35987
2604.92	1.67988
2606.28	1.71381
2607.64	1.89094
2609.01	2.18718
2610.37	2.40929
2611.73	2.5406
2613.09	3.03115
2614.46	3.2225
2615.82	2.54193
2617.18	2.39698
2618.54	3.44877
2619.9	4.09825
2621.26	3.60453
2622.62	3.99277
2623.98	4.31613
2625.34	3.86211
2626.7	4.01421
2628.06	3.91247
2629.42	4.08486
2630.78	4.65342
2632.14	5.37391
2633.5	5.40117
2634.86	5.41635
2636.21	5.72211
2637.57	5.80602
2638.93	5.50224
2640.29	5.70953
2641.64	5.73336
2643	5.35534
2644.36	5.22941
2645.71	5.59335
2647.07	5.74457
2648.43	5.36556
2649.78	5.19487
2651.14	5.44962
2652.49	5.41445
2653.85	5.69023
2655.2	5.31135
2656.56	5.1951
2657.91	5.35539
2659.26	5.65366
2660.62	5.87334
2661.97	5.63603
2663.32	5.73184
2664.68	5.46357
2666.03	5.89357
2667.38	5.84097
2668.74	6.34538
2670.09	6.73586
2671.44	6.83489
2672.79	6.49622
2674.14	6.23647
2675.49	6.58348
2676.84	6.06342
2678.19	6.40769
2679.54	6.09978
2680.89	6.57775
2682.24	6.4713
2683.59	6.67938
2684.94	6.9427
2686.29	7.10077
2687.64	6.8957
2688.99	7.21114
2690.34	7.85279
2691.69	7.98594
2693.03	8.16682
2694.38	9.29523
2695.73	10.918
2697.08	12.0113
2698.42	12.4511
2699.77	13.6007
2701.12	13.7673
2702.46	13.2483
2703.81	13.6455
2705.15	13.8132
2706.5	13.9201
2707.85	14.0473
2709.19	13.6904
2710.54	13.0526
2711.88	13.772
2713.22	14.2904
2714.57	14.197
2715.91	14.222
2717.26	14.5128
2718.6	14.7579
2719.94	14.4039
2721.29	14.5987
2722.63	14.1667
2723.97	14.2314
2725.31	14.2736
2726.66	13.9905
2728	12.8927
2729.34	12.6224
2730.68	12.0004
2732.02	10.8496
2733.36	9.71549
2734.7	8.39545
2736.04	7.98024
2737.38	7.17854
2738.72	6.08183
2740.06	5.342
2741.4	5.10892
2742.74	5.11052
2744.08	4.63964
2745.42	4.81893
2746.76	4.57626
2748.09	5.13015
2749.43	4.80888
2750.77	4.70381
2752.11	4.77256
2753.45	4.75843
2754.78	5.43709
2756.12	5.30797
2757.46	5.12149
2758.79	5.30276
2760.13	5.69784
2761.46	5.63564
2762.8	5.85523
2764.14	5.09638
2765.47	5.10275
2766.8	4.93307
2768.14	4.31956
2769.47	4.74835
2770.81	4.51441
2772.14	4.51631
2773.48	4.78031
2774.81	4.53337
2776.14	4.27085
2777.48	4.38839
2778.81	4.79465
2780.14	4.04205
2781.47	3.69545
2782.8	3.58969
2784.14	3.35753
2785.47	3.2763
2786.8	2.31707
2788.13	2.38539
2789.46	1.79822
2790.79	1.30929
2792.12	0.846126
2793.45	0.684381
2794.78	-0.0641103
2796.11	-0.780731
2797.44	-1.70234
2798.77	-1.99649
2800.1	-2.41672
2801.43	-2.70213
2802.76	-2.67659
2804.09	-2.50571
2805.41	-2.22937
2806.74	-1.91147
2808.07	-1.69636
2809.4	-1.65586
2810.72	-2.41576
2812.05	-2.43961
2813.38	-2.8209
2814.71	-2.56657
2816.03	-1.67614
2817.36	0.241512
2818.68	2.30776
2820.01	4.43412
2821.33	6.83755
2822.66	9.22823
2823.98	12.99
2825.31	17.1378
2826.63	21.446
2827.96	25.8637
2829.28	30.602
2830.6	35.814
2831.93	41.1431
2833.25	46.3522
2834.57	52.093
2835.9	57.6267
2837.22	63.6225
2838.54	69.8623
2839.86	75.6003
2841.18	81.0444
2842.5	87.5509
2843.83	94.054
2845.15	99.8506
2846.47	105.663
2847.79	111.777
2849.11	118.237
2850.43	124.577
2851.75	131.122
2853.07	136.888
2854.39	143.075
2855.71	149.481
2857.03	155.111
2858.35	161.534
2859.66	167.607
2860.98	172.107
2862.3	176.336
2863.62	181.251
2864.94	185.538
2866.25	189.083
2867.57	192.641
2868.89	195.612
2870.2	198.036
2871.52	200.329
2872.84	202.105
2874.15	204.023
2875.47	206.094
2876.78	207.127
2878.1	209.367
2879.41	211.558
2880.73	213.789
2882.04	216.197
2883.36	219.013
2884.67	220.597
2885.99	222.366
2887.3	223.839
2888.61	225.354
2889.93	227.415
2891.24	229.032
2892.55	230.787
2893.86	232.879
2895.18	235.287
2896.49	237.631
2897.8	239.36
2899.11	241.415
2900.42	243.813
2901.73	246.558
2903.05	248.714
2904.36	250.231
2905.67	252.717
2906.98	255.604
2908.29	259.122
2909.6	261.995
2910.91	265.567
2912.21	268.915
2913.52	272.481
2914.83	276.75
2916.14	279.671
2917.45	282.464
2918.76	285.447
2920.07	287.969
2921.37	291.148
2922.68	292.91
2923.99	294.714
2925.29	295.124
2926.6	294.783
2927.91	295.302
2929.22	295.416
2930.52	294.127
2931.83	292.224
2933.13	290.49
2934.44	288.1
2935.74	285.399
2937.05	282.471
2938.35	278.825
2939.66	274.775
2940.96	270.118
2942.26	264.65
2943.57	259.698
2944.87	254.126
2946.18	248.137
2947.48	242.806
2948.78	236.457
2950.08	230.126
2951.39	224.043
2952.69	217.76
2953.99	211.287
2955.29	205.6
2956.59	199.308
2957.9	193.336
2959.2	187.16
2960.5	180.851
2961.8	174.422
2963.1	168.737
2964.4	163.22
2965.7	157.329
2967	151.803
2968.3	146.236
2969.6	141.749
2970.9	137.411
2972.19	133.15
2973.49	128.999
2974.79	124.269
2976.09	119.316
2977.39	114.462
2978.68	110.064
2979.98	105.484
2981.28	100.779
2982.58	97.0624
2983.87	93.1083
2985.17	88.9011
2986.47	84.4007
2987.76	80.2265
2989.06	75.6878
2990.35	71.209
2991.65	67.5357
2992.94	63.9905
2994.24	59.6376
2995.53	55.0772
2996.83	51.2124
2998.12	47.3669
2999.42	43.5049
3000.71	40.1744
3002	36.9658
3003.3	33.4406
3004.59	29.8898
3005.88	27.1649
3007.18	24.3098
3008.47	21.2961
3009.76	19.1624
3011.05	16.6023
3012.34	14.2332
3013.64	12.1043
3014.93	10.809
3016.22	8.74402
3017.51	7.02887
3018.8	5.44405
3020.09	4.29044
3021.38	2.95731
3022.67	2.0146
3023.96	1.21009
3025.25	0.821375
3026.54	0.127141
3027.83	-0.369765
3029.12	-0.940764
3030.41	-1.03629
3031.69	-0.988653
3032.98	-1.13066
3034.27	-1.18019
3035.56	-1.21926
3036.84	-0.900098
3038.13	-0.686473
3039.42	-0.40838
3040.71	-0.00250327
3041.99	0.684773
3043.28	0.682828
3044.57	0.953191
3045.85	1.77202
3047.14	2.00848
3048.42	2.27035
3049.71	2.91591
3050.99	3.17871
3052.28	4.35606
3053.56	4.64899
3054.85	5.33899
3056.13	5.45265
3057.41	5.18746
3058.7	4.66786
3059.98	4.77887
3061.26	5.38153
3062.55	5.61526
3063.83	6.23175
3065.11	6.10165
3066.39	5.93744
3067.68	5.70346
3068.96	5.56571
3070.24	5.42569
3071.52	4.65628
3072.8	4.15599
3074.08	4.44309
3075.36	3.87416
3076.65	3.37819
3077.93	3.5695
3079.21	3.09836
3080.49	2.94098
3081.77	3.02432
3083.04	2.74282
3084.32	2.48993
3085.6	2.04137
3086.88	1.83867
3088.16	1.66737
3089.44	1.6375
3090.72	1.68471
3091.99	1.90995
3093.27	1.94595
3094.55	1.95383
3095.83	1.47341
3097.1	1.52319
3098.38	1.62332
3099.66	2.12106
3100.93	2.48491
3102.21	2.44888
3103.49	2.88151
3104.76	3.04487
3106.04	3.47753
3107.31	4.2549
3108.59	4.74848
3109.86	5.80313
3111.14	6.51425
3112.41	7.60724
3113.69	8.84481
3114.96	9.79102
3116.23	10.6031
3117.51	11.2259
3118.78	11.8101
3120.05	12.2521
3121.33	13.372
3122.6	14.4343
3123.87	16.0496
3125.14	17.2596
3126.41	18.0331
3127.69	18.9915
3128.96	19.7602
3130.23	21.1687
3131.5	21.9188
3132.77	22.6918
3134.04	23.5947
3135.31	24.9966
3136.58	26.5295
3137.85	28.0666
3139.12	28.7572
3140.39	30.1017
3141.66	31.721
3142.93	33.0082
3144.2	34.2572
3145.47	35.1702
3146.74	36.1347
3148	37.0194
3149.27	38.4832
