#Acq. time (s)=	45
#Accumulations=	2
#Range (cm-¹)=	200...3150
#Windows=	2
#Auto scanning=	Off
#Autofocus=	Off
#Macrospot=	Off
#AutoExposure=	Off
#Spike filter=	Multiple accum.
#Delay time (s)=	0
#Binning=	1
#Readout mode=	Signal
#DeNoise=	Off
#ICS correction=	On
#Dark correction=	Off
#Inst. Process=	Off
#Detector Gain=	Best Dynamic Range
#Detector ADC=	20 kHz       
#Detector temperature (°C)=	-69.85
#Instrument=	LabRAM HR Evol
#Detector=	Synapse
#Objective=	x100
#Grating=	600 gr/mm
#ND Filter=	100%
#Laser (nm)=	532 
#Hole=	100.021
#Range=	Auto
#Laser Pol.=	No
#Raman. Pol.=	No
#Laser Pol. (°)=	-0.0007625
#Raman Pol. (°)=	89.9995
#Collection=	Microscope
#StageXY=	Marzhauser
#StageZ=	Marzhauser
#X (µm)=	-7085.9
#Y (µm)=	2206
#Z (µm)=	-74.3
#Full time(mm:ss)=	3:20
#Project=	
#Sample=	
#Site=	
#Title=	Mb_20_23_38_2x_45s_532 nm_x100_100%_600 gr_mm
#Remark=	
#Date=	13.07.2022 16:27
#Acquired=	13.07.2022 16:27:51
#Base:Fit=	10.08.2022 10:29:37
#Base:Sub=	10.08.2022 10:34:43
#Filter:Polynom=	16.08.2022 10:13:29
#AxisType[0]=Intens
#AxisUnit[0]=Cnt
#AxisType[1]=Spectr
#AxisUnit[1]=1/cm
200.563	34.3194
202.377	34.3359
204.194	30.2017
206.008	27.8034
207.821	25.1564
209.634	22.7922
211.449	21.4468
213.262	19.8576
215.074	18.7944
216.885	18.0308
218.699	17.4687
220.51	16.1783
222.321	15.5467
224.131	14.4647
225.941	13.0278
227.751	12.8601
229.562	12.3233
231.371	14.1206
233.18	13.627
234.988	14.2389
236.796	14.9351
238.603	15.3624
240.411	14.5389
242.219	15.1857
244.026	14.0469
245.832	12.8981
247.638	12.6963
249.443	12.8869
251.248	12.8858
253.053	13.1195
254.857	12.9042
256.661	12.2561
258.465	11.6909
260.268	12.3375
262.071	11.4834
263.874	12.4154
265.678	10.1013
267.48	9.77002
269.282	9.39893
271.083	9.83794
272.884	10.4166
274.684	10.4238
276.484	9.46148
278.284	9.50551
280.084	9.04219
281.883	7.35523
283.682	6.86143
285.48	4.79147
287.276	3.4412
289.074	1.9952
290.871	1.3855
292.668	2.33196
294.465	4.61813
296.261	5.61601
298.057	5.80846
299.853	5.43406
301.648	6.71735
303.443	6.29171
305.237	8.75494
307.032	8.97942
308.823	10.6995
310.617	10.7489
312.41	11.7504
314.203	13.1143
315.995	14.2012
317.788	15.9652
319.579	16.6585
321.369	18.2174
323.16	17.6337
324.951	18.9373
326.741	19.5611
328.531	19.652
330.321	19.7436
332.108	20.7095
333.897	20.3341
335.686	21.6412
337.474	22.0443
339.26	22.8026
341.048	22.1704
342.835	22.3735
344.622	22.5773
346.406	22.7065
348.192	23.0516
349.978	23.5847
351.764	22.5069
353.547	22.9987
355.332	22.033
357.116	22.7635
358.901	23.8649
360.682	22.7292
362.466	21.6908
364.249	19.5997
366.03	19.2251
367.812	16.9809
369.594	16.2802
371.374	14.6274
373.155	14.4336
374.936	13.0281
376.715	11.9836
378.495	11.8464
380.273	13.8103
382.053	14.7507
383.832	14.0379
385.609	13.2812
387.388	12.479
389.164	12.97
390.942	15.2964
392.72	14.9803
394.495	14.958
396.272	12.7736
398.047	12.8402
399.823	11.2605
401.597	11.6135
403.372	11.3961
405.145	10.9124
406.92	9.89093
408.693	9.88105
410.467	9.44629
412.239	8.92594
414.012	8.30636
415.783	7.45741
417.556	7.35275
419.327	6.92413
421.099	6.67798
422.869	6.75928
424.64	7.37255
426.409	6.79748
428.18	8.09369
429.948	7.26835
431.718	9.0685
433.486	9.71271
435.253	8.82385
437.022	9.32026
438.789	8.2808
440.558	7.63021
442.324	9.04948
444.089	8.7057
445.857	9.20906
447.622	9.25046
449.386	7.55388
451.153	7.86632
452.917	8.96474
454.682	8.86441
456.446	8.08538
458.208	8.09628
459.973	8.87721
461.735	10.4482
463.497	12.5114
465.259	13.4836
467.022	15.0221
468.783	16.1819
470.544	15.9467
472.306	16.9772
474.066	18.6662
475.825	19.1332
477.585	18.5214
479.346	19.4024
481.104	18.3162
482.862	17.9578
484.62	18.9235
486.38	19.8262
488.137	20.6985
489.894	21.21
491.65	22.6453
493.407	22.4756
495.164	21.8897
496.92	22.2826
498.675	21.7464
500.43	22.1347
502.184	22.8306
503.939	24.0397
505.694	25.6103
507.448	25.3369
509.201	25.6527
510.954	26.0012
512.706	26.3623
514.459	25.6465
516.21	26.8881
517.962	26.8634
519.715	27.5637
521.466	27.2931
523.216	26.7321
524.966	27.1796
526.716	25.7904
528.466	26.4864
530.215	25.2106
531.964	23.9491
533.712	23.7786
535.46	23.2381
537.208	23.0332
538.955	22.2603
540.703	21.7334
542.449	21.1536
544.196	21.0194
545.942	20.4252
547.688	21.4297
549.433	20.6663
551.178	20.2928
552.923	18.9607
554.667	19.1623
556.412	19.4906
558.155	18.6321
559.899	17.3201
561.642	15.5384
563.385	15.4087
565.127	15.0015
566.867	15.4842
568.609	15.5697
570.35	15.6227
572.092	16.6125
573.832	16.6741
575.573	17.1877
577.313	16.6828
579.053	15.9186
580.79	13.994
582.529	14.4069
584.268	15.0667
586.006	14.7464
587.745	15.0521
589.482	14.8406
591.218	13.4475
592.955	12.7514
594.692	10.9216
596.428	11.1346
598.164	11.2573
599.898	11.9009
601.634	11.4228
603.369	11.9125
605.104	11.4968
606.836	9.87255
608.57	8.33603
610.304	6.64082
612.037	6.01947
613.769	5.04601
615.501	3.73686
617.234	1.91594
618.966	2.01772
620.696	1.49847
622.427	2.06663
624.159	1.83658
625.887	0.708191
627.618	0.652812
629.348	1.56877
631.076	0.409245
632.806	0.638321
634.535	0.318952
636.262	0.132318
637.99	0.442992
639.716	0.449455
641.444	1.73705
643.172	1.16456
644.897	0.634668
646.624	1.37031
648.348	3.21065
650.075	4.22918
651.801	5.21038
653.524	6.61519
655.249	7.47512
656.972	7.83771
658.697	9.3749
660.419	11.3214
662.143	12.8313
663.865	12.3689
665.588	13.1481
667.309	13.134
669.032	15.1684
670.752	14.9706
672.474	15.5826
674.194	16.4811
675.915	15.5524
677.634	15.6862
679.355	15.5981
681.073	16.473
682.793	16.8917
684.511	17.3569
686.23	17.097
687.947	16.8737
689.664	18.2262
691.382	17.4452
693.098	17.089
694.816	17.837
696.531	18.9764
698.247	18.9544
699.963	19.104
701.678	18.6334
703.392	18.7616
705.108	18.3272
706.821	19.6036
708.534	20.6359
710.249	19.727
711.962	19.5687
713.674	19.8227
715.388	20.6701
717.099	20.3354
718.81	20.8968
720.523	21.0857
722.234	22.378
723.944	22.7209
725.654	24.256
727.365	25.6205
729.075	26.1969
730.784	26.4574
732.492	27.2431
734.202	27.8453
735.91	27.7251
737.618	30.7957
739.325	31.9726
741.034	33.962
742.741	35.9306
744.447	36.8665
746.153	37.4167
747.859	38.1707
749.564	37.899
751.271	39.5098
752.976	39.8547
754.681	42.7251
756.385	43.0393
758.088	44.5861
759.792	44.9044
761.495	45.4542
763.2	47.5999
764.902	48.0403
766.604	48.9051
768.306	48.2037
770.008	49.8473
771.709	51.3076
773.41	52.6614
775.11	53.9644
776.811	54.2805
778.51	56.4828
780.21	56.7965
781.909	57.6267
783.608	57.5095
785.307	59.5682
787.005	58.854
788.703	60.1895
790.401	61.3175
792.098	62.608
793.795	63.4915
795.492	64.3174
797.188	66.0898
798.884	67.4784
800.58	68.5014
802.276	69.5502
803.971	69.5095
805.665	71.165
807.36	71.4035
809.054	71.832
810.748	72.7989
812.441	73.5742
814.135	74.357
815.826	74.4947
817.518	74.6146
819.21	76.2951
820.902	77.2851
822.594	79.2333
824.285	80.0706
825.976	80.7484
827.665	80.6723
829.355	80.6529
831.045	81.139
832.735	81.7007
834.424	81.2642
836.111	80.9762
837.8	81.0142
839.488	81.039
841.177	80.0461
842.864	79.0913
844.55	78.3361
846.237	77.4735
847.924	75.8291
849.61	72.548
851.295	72.0973
852.98	72.046
854.666	71.5786
856.349	70.1612
858.034	68.6391
859.719	68.7276
861.403	66.624
863.085	65.1885
864.769	64.1851
866.452	64.1618
868.133	62.7656
869.816	61.591
871.498	59.7721
873.179	60.7539
874.86	59.7238
876.54	59.2524
878.221	59.668
879.902	59.72
881.58	58.0013
883.26	56.7629
884.938	55.4724
886.618	55.0916
888.297	54.8936
889.974	55.2762
891.653	54.7261
893.329	54.5697
895.007	54.8815
896.683	55.997
898.36	56.0388
900.035	57.0755
901.712	56.0023
903.387	57.3829
905.063	56.3709
906.737	57.8757
908.412	56.9176
910.085	56.6164
911.76	56.3568
913.433	56.7406
915.107	56.4369
916.779	56.8014
918.452	57.3217
920.124	56.7507
921.797	57.2081
923.467	55.5383
925.138	54.4397
926.81	54.0732
928.48	52.2529
930.151	51.3145
931.82	49.3512
933.489	47.7285
935.16	47.9419
936.828	45.5069
938.496	43.9832
940.165	43.8846
941.833	43.0295
943.5	40.8591
945.168	38.2409
946.834	37.0449
948.5	35.7935
950.168	33.6465
951.834	31.2399
953.499	30.6004
955.163	29.9787
956.83	29.1018
958.494	27.5577
960.158	26.8255
961.821	25.4221
963.487	23.9391
965.15	23.1288
966.812	22.9523
968.474	22.2578
970.138	22.4587
971.8	22.4026
973.461	22.6893
975.123	24.384
976.783	24.7374
978.446	25.3585
980.106	25.1365
981.766	24.8701
983.425	25.0846
985.084	25.0648
986.743	25.8153
988.402	25.2427
990.06	25.5677
991.72	23.7284
993.378	25.0264
995.035	25.3432
996.692	26.8551
998.349	27.3477
1000.01	28.8457
1001.66	29.5249
1003.32	29.4223
1004.97	30.2847
1006.63	29.4881
1008.28	31.1529
1009.94	33.2509
1011.59	33.4937
1013.25	35.888
1014.9	36.187
1016.55	38.83
1018.21	40.0314
1019.86	40.6089
1021.51	43.8088
1023.16	44.5562
1024.81	44.2334
1026.47	45.5873
1028.12	46.6068
1029.77	47.9931
1031.42	49.5699
1033.07	51.9022
1034.72	53.5328
1036.37	55.3229
1038.02	57.0504
1039.67	58.3524
1041.31	59.4238
1042.96	61.5836
1044.61	63.6592
1046.26	64.9539
1047.91	66.1351
1049.55	66.6506
1051.2	68.0207
1052.84	70.2828
1054.49	71.009
1056.14	73.0545
1057.78	73.2614
1059.43	72.3814
1061.07	71.2667
1062.72	71.1424
1064.36	71.5532
1066	71.9086
1067.65	70.5326
1069.29	67.6338
1070.93	66.4017
1072.58	65.1528
1074.22	65.0342
1075.86	64.195
1077.5	62.6863
1079.14	61.805
1080.78	59.8603
1082.42	57.2226
1084.06	55.5392
1085.7	53.6632
1087.34	52.1882
1088.98	51.3414
1090.62	50.6103
1092.26	48.9377
1093.9	47.2058
1095.54	46.441
1097.17	45.1227
1098.81	44.1006
1100.45	40.4611
1102.09	40.3754
1103.72	40.4571
1105.36	39.3511
1106.99	39.9269
1108.63	40.864
1110.27	40.3779
1111.9	40.0448
1113.53	39.9694
1115.17	40.611
1116.8	40.0918
1118.43	40.675
1120.07	41.4493
1121.7	40.1819
1123.33	40.7523
1124.97	40.6516
1126.6	39.3151
1128.23	37.6158
1129.86	38.6487
1131.49	38.2503
1133.12	38.0658
1134.75	38.1893
1136.38	37.5107
1138.01	37.4747
1139.64	36.3467
1141.27	35.6651
1142.9	33.9392
1144.53	32.9155
1146.16	32.5716
1147.78	31.6545
1149.41	29.8665
1151.04	28.1382
1152.67	26.681
1154.29	24.0315
1155.92	21.7842
1157.54	19.5722
1159.17	17.1795
1160.8	15.5717
1162.42	13.4388
1164.05	10.8683
1165.67	9.58231
1167.29	7.1048
1168.92	4.76343
1170.54	3.88025
1172.16	2.72494
1173.79	2.48968
1175.41	1.62245
1177.03	1.07737
1178.65	0.944418
1180.28	0.39753
1181.9	2.53747
1183.52	3.62338
1185.14	3.5274
1186.76	5.03394
1188.38	5.14457
1190	3.62179
1191.62	3.94766
1193.24	4.09847
1194.86	4.97441
1196.47	5.25405
1198.09	5.82946
1199.71	7.68372
1201.33	8.5207
1202.95	10.1576
1204.56	12.3871
1206.18	13.8594
1207.8	15.6803
1209.41	17.6103
1211.03	19.7417
1212.64	20.4398
1214.26	23.3271
1215.87	25.1001
1217.49	28.0199
1219.1	30.5307
1220.71	32.9811
1222.33	35.4359
1223.94	38.2062
1225.55	41.2526
1227.16	44.039
1228.78	45.1721
1230.39	45.6018
1232	46.7908
1233.61	49.3228
1235.22	50.66
1236.83	53.8994
1238.44	55.6955
1240.05	55.2542
1241.66	56.8728
1243.27	57.8036
1244.88	60.9602
1246.49	63.5514
1248.1	64.3203
1249.71	65.916
1251.32	67.8601
1252.92	69.6174
1254.53	70.297
1256.14	72.2568
1257.74	75.373
1259.35	76.4674
1260.96	76.6385
1262.56	77.8749
1264.17	78.0005
1265.77	79.9029
1267.38	81.409
1268.98	82.5211
1270.59	84.5544
1272.19	87.4567
1273.79	88.7823
1275.4	90.6832
1277	93.2518
1278.6	97.5863
1280.21	100.898
1281.81	102.64
1283.41	105.078
1285.01	106.089
1286.61	107.602
1288.21	109.722
1289.81	110.569
1291.41	112.422
1293.01	114.311
1294.61	115.311
1296.21	116.358
1297.81	116.399
1299.41	117.085
1301.01	117.66
1302.6	119.08
1304.2	119.278
1305.8	119.618
1307.4	120.952
1308.99	122.074
1310.59	124.366
1312.19	126.992
1313.78	128.293
1315.38	129.894
1316.97	130.577
1318.57	130.107
1320.16	131.033
1321.76	132.692
1323.35	132.572
1324.94	132.405
1326.54	130.287
1328.13	127.793
1329.72	127.156
1331.32	126.486
1332.91	125.857
1334.5	124.891
1336.09	123.976
1337.68	122.164
1339.27	119.727
1340.87	119.334
1342.45	118.486
1344.04	118.313
1345.64	116.843
1347.22	115.329
1348.81	114.893
1350.4	112.237
1351.99	110.244
1353.58	109.138
1355.17	108.373
1356.75	106.971
1358.34	106.297
1359.93	103.299
1361.51	100.523
1363.1	97.9515
1364.69	95.8868
1366.27	94.3019
1367.86	91.8321
1369.44	88.5101
1371.03	86.7098
1372.61	84.5693
1374.2	83.3137
1375.78	83.4015
1377.37	82.55
1378.95	83.903
1380.53	84.4925
1382.11	86.3881
1383.7	86.828
1385.28	86.9026
1386.86	87.4528
1388.44	87.4772
1390.02	88.7102
1391.6	88.4765
1393.19	90.1448
1394.77	89.9699
1396.35	88.4951
1397.93	89.7576
1399.51	90.3012
1401.08	90.7255
1402.66	91.4494
1404.24	92.7552
1405.82	95.5424
1407.4	98.5103
1408.97	101.753
1410.55	105.761
1412.13	109.201
1413.71	113.632
1415.28	118.908
1416.86	124.217
1418.43	129.311
1420.01	135.522
1421.59	142.006
1423.16	149.525
1424.73	154.666
1426.31	160.663
1427.88	167.173
1429.46	172.655
1431.03	179.153
1432.6	185.629
1434.18	190.597
1435.75	195.077
1437.32	199.23
1438.89	202.167
1440.46	205.694
1442.04	208.844
1443.61	210.084
1445.18	210.661
1446.75	211.673
1448.32	211.709
1449.89	211.503
1451.46	210.54
1453.03	209.09
1454.6	206.116
1456.16	202.309
1457.73	197.884
1459.3	193.896
1460.87	189.456
1462.44	182.862
1464	176.1
1465.57	171.932
1467.14	165.214
1468.7	158.473
1470.27	150.959
1471.83	143.624
1473.4	134.809
1474.96	127.764
1476.53	120.678
1478.09	112.727
1479.66	105.339
1481.22	98.2888
1482.78	91.5069
1484.35	86.6031
1485.91	80.753
1487.47	73.0699
1489.04	66.3892
1490.6	60.4622
1492.16	56.5981
1493.72	54.54
1495.28	52.49
1496.84	52.1719
1498.4	53.2489
1499.96	53.8484
1501.52	52.5216
1503.08	52.8631
1504.64	54.4332
1506.2	55.8828
1507.76	57.4438
1509.32	59.0302
1510.88	59.5543
1512.44	58.7443
1513.99	59.987
1515.55	60.0103
1517.11	61.0196
1518.66	62.2832
1520.22	62.2267
1521.78	61.9549
1523.33	61.5557
1524.89	61.9365
1526.44	61.456
1528	61.8391
1529.55	62.1849
1531.11	62.8667
1532.66	62.4386
1534.21	63.7061
1535.77	63.4034
1537.32	64.3309
1538.87	65.0978
1540.43	65.1102
1541.98	65.4433
1543.53	65.6119
1545.08	63.2466
1546.63	62.5704
1548.18	61.9445
1549.74	60.8439
1551.29	60.1317
1552.84	59.1553
1554.39	57.7535
1555.94	56.4705
1557.48	55.5234
1559.03	53.6417
1560.58	52.1965
1562.13	51.7465
1563.68	49.9057
1565.23	49.3456
1566.78	50.1858
1568.32	52.8259
1569.87	56.7853
1571.42	60.0793
1572.96	62.7567
1574.51	65.4805
1576.05	67.5547
1577.6	69.4655
1579.14	71.9479
1580.69	74.6521
1582.24	77.5282
1583.78	78.4388
1585.32	79.4545
1586.87	79.3011
1588.41	79.524
1589.95	81.1848
1591.5	82.3125
1593.04	81.8746
1594.58	83.2217
1596.12	82.7122
1597.67	81.9891
1599.21	82.0111
1600.75	80.4826
1602.29	81.7219
1603.83	82.4753
1605.37	81.9267
1606.91	80.7613
1608.45	80.5226
1609.99	79.4725
1611.53	80.4072
1613.07	80.5006
1614.6	81.1288
1616.14	81.7938
1617.68	81.9134
1619.22	81.4194
1620.75	80.6393
1622.29	80.5599
1623.83	81.6272
1625.37	82.3272
1626.9	83.3184
1628.44	84.2149
1629.97	85.1257
1631.51	85.5447
1633.04	87.2224
1634.58	88.1859
1636.11	88.6801
1637.65	91.0408
1639.18	92.516
1640.72	94.11
1642.25	94.5944
1643.78	95.2339
1645.31	97.8279
1646.85	100.364
1648.38	100.931
1649.91	101.531
1651.44	101.541
1652.97	102.273
1654.5	102.428
1656.03	102.957
1657.56	101.504
1659.1	101.673
1660.62	99.0622
1662.15	97.641
1663.68	95.6467
1665.21	94.2307
1666.74	92.5647
1668.27	89.3994
1669.8	86.814
1671.32	84.5918
1672.85	81.5353
1674.38	79.8208
1675.91	77.128
1677.43	74.9081
1678.96	72.494
1680.49	69.1218
1682.01	64.3983
1683.54	61.8947
1685.06	59.788
1686.59	57.736
1688.11	55.8066
1689.64	53.0463
1691.16	49.7952
1692.68	47.331
1694.21	44.2991
1695.73	40.9021
1697.25	39.797
1698.78	38.5127
1700.3	37.0704
1701.82	34.7767
1703.34	34.166
1704.86	32.6483
1706.39	31.6125
1707.91	29.3394
1709.43	28.212
1710.95	26.4579
1712.47	26.3038
1713.99	25.1085
1715.51	24.0113
1717.02	23.802
1718.54	22.6596
1720.06	23.2983
1721.58	23.0839
1723.1	22.0769
1724.62	20.7318
1726.13	20.3552
1727.65	20.3441
1729.17	20.145
1730.68	19.4732
1732.2	19.014
1733.72	18.0778
1735.23	17.7484
1736.75	16.6867
1738.26	16.5527
1739.78	16.4102
1741.29	16.4069
1742.81	16.519
1744.32	15.4711
1745.84	15.5289
1747.35	15.6193
1748.86	16.0627
1750.37	15.5516
1751.89	15.0762
1753.4	14.8571
1754.91	12.8403
1756.42	12.1491
1757.93	11.682
1759.45	12.0959
1760.96	11.0551
1762.47	10.5536
1763.98	9.04791
1765.49	8.53746
1767	7.76827
1768.51	7.53768
1770.02	6.48545
1771.53	6.34226
1773.03	6.81748
1774.54	5.37653
1776.05	4.42809
1777.56	4.33055
1779.07	4.82137
1780.57	3.61421
1782.08	3.2173
1783.59	2.75421
1785.09	4.4679
1786.6	4.58977
1788.11	5.14525
1789.61	4.07125
1791.12	4.49598
1792.62	4.70405
1794.13	5.87196
1795.63	6.24172
1797.13	6.58056
1798.64	7.04979
1800.14	7.54498
1801.65	7.76496
1803.15	7.92186
1804.65	7.49535
1806.15	7.72451
1807.66	7.481
1809.16	8.07043
1810.66	7.19945
1812.16	7.47775
1813.66	7.48409
1815.16	7.01137
1816.66	7.07511
1818.16	7.25354
1819.66	6.36182
1821.16	6.36133
1822.66	6.07033
1824.16	5.28714
1825.66	4.749
1827.16	4.35835
1828.66	4.02785
1830.16	2.87985
1831.65	2.30712
1833.15	1.86668
1834.65	1.27448
1836.14	0.620849
1837.64	0.551343
1839.14	0.593011
1840.63	0.91541
1842.13	1.37339
1843.62	0.487191
1845.12	-0.545915
1846.61	-0.578909
1848.11	-0.145281
1849.6	-0.40805
1851.1	0.0608578
1852.59	0.392713
1854.08	0.207343
1855.58	-0.386465
1857.07	-0.016017
1858.56	0.545078
1860.05	0.887507
1861.55	0.571678
1863.04	1.15639
1864.53	1.79736
1866.02	3.38302
1867.51	4.54713
1869	5.79675
1870.49	5.34046
1871.98	5.97399
1873.47	5.94721
1874.96	5.47076
1876.45	5.69271
1877.94	6.25427
1879.43	6.3012
1880.92	6.87666
1882.41	8.14265
1882.51	8.0173
1884	7.89373
1885.5	8.54353
1886.99	9.03632
1888.48	9.04698
1889.98	9.60738
1891.47	10.0989
1892.96	10.3594
1894.46	10.6091
1895.95	11.2098
1897.44	11.4443
1898.93	11.8798
1900.42	12.5563
1901.91	13.4971
1903.41	13.5208
1904.9	14.3104
1906.39	14.5706
1907.88	14.359
1909.37	14.1002
1910.86	14.3024
1912.35	14.184
1913.83	13.7105
1915.32	12.4259
1916.81	11.334
1918.3	11.3765
1919.79	11.6209
1921.27	11.7157
1922.76	12.1077
1924.25	11.3299
1925.74	10.7867
1927.22	10.1424
1928.71	8.92524
1930.19	8.68845
1931.68	9.161
1933.17	9.12781
1934.65	9.53451
1936.14	9.50963
1937.62	9.49461
1939.11	8.9139
1940.59	9.09602
1942.07	8.86644
1943.56	8.44198
1945.04	8.95512
1946.52	8.8635
1948.01	7.68015
1949.49	8.40583
1950.97	8.54538
1952.45	8.58261
1953.93	8.77193
1955.42	8.23204
1956.9	7.68032
1958.38	7.77537
1959.86	7.96152
1961.34	8.29899
1962.82	7.66785
1964.3	8.5977
1965.78	9.10482
1967.26	9.68556
1968.74	10.1035
1970.21	11.0244
1971.69	11.2486
1973.17	11.8055
1974.65	13.0057
1976.13	13.5128
1977.6	13.2935
1979.08	12.9458
1980.56	12.2145
1982.03	13.391
1983.51	14.0289
1984.99	14.901
1986.46	15.4364
1987.94	15.9704
1989.41	16.2608
1990.89	18.6006
1992.36	19.2608
1993.84	19.7262
1995.31	20.441
1996.78	20.4817
1998.26	19.2715
1999.73	19.7449
2001.2	20.4239
2002.68	21.0236
2004.15	22.0103
2005.62	22.2985
2007.09	22.4148
2008.56	22.5287
2010.04	22.598
2011.51	22.6334
2012.98	23.0321
2014.45	23.6426
2015.92	22.9751
2017.39	23.3764
2018.86	23.0501
2020.33	21.8868
2021.8	21.0666
2023.26	21.4199
2024.73	20.989
2026.2	20.5192
2027.67	19.0913
2029.14	18.3172
2030.61	18.4587
2032.07	17.6548
2033.54	17.6655
2035.01	16.8645
2036.47	16.251
2037.94	15.9943
2039.4	16.4893
2040.87	16.3258
2042.33	16.0036
2043.8	15.2627
2045.27	15.4501
2046.73	15.6044
2048.19	16.362
2049.66	16.5453
2051.12	16.7158
2052.59	17.0503
2054.05	18.3428
2055.51	19.042
2056.97	18.2945
2058.44	19.0362
2059.9	18.7508
2061.36	19.0662
2062.82	19.6426
2064.28	21.1991
2065.74	20.3687
2067.21	21.3075
2068.67	22.746
2070.13	22.5664
2071.59	23.9764
2073.05	25.7603
2074.51	26.4876
2075.96	26.7224
2077.42	27.1784
2078.88	28.1173
2080.34	29.0404
2081.8	28.6805
2083.26	29.4813
2084.72	29.5636
2086.17	30.0401
2087.63	30.5713
2089.09	31.7646
2090.54	31.6871
2092	31.0755
2093.45	31.0233
2094.91	31.0324
2096.37	31.2069
2097.82	31.8657
2099.28	32.1541
2100.73	32.256
2102.19	32.091
2103.64	31.9812
2105.09	32.584
2106.55	32.3932
2108	32.6342
2109.45	32.8364
2110.91	32.7091
2112.36	33.4069
2113.81	32.124
2115.26	32.3307
2116.72	31.739
2118.17	33.0884
2119.62	33.5557
2121.07	34.016
2122.52	33.8888
2123.97	34.1545
2125.42	34.5136
2126.87	35.6659
2128.32	35.6066
2129.77	36.5507
2131.22	38.3031
2132.67	38.8107
2134.11	40.4182
2135.56	40.7954
2137.01	42.4229
2138.46	43.6436
2139.91	45.2816
2141.35	46.4957
2142.8	47.0174
2144.25	48.6627
2145.7	49.8311
2147.14	50.5173
2148.59	51.9919
2150.03	53.1107
2151.48	54.7722
2152.92	56.5826
2154.37	57.7889
2155.81	58.8707
2157.26	60.457
2158.7	61.9817
2160.15	63.0029
2161.59	63.2099
2163.03	63.177
2164.47	63.9683
2165.92	64.2369
2167.36	65.5923
2168.8	67.5156
2170.24	67.9223
2171.69	68.4664
2173.13	68.2517
2174.57	67.7358
2176.01	68.0083
2177.45	68.6937
2178.89	67.9333
2180.33	67.76
2181.77	66.5309
2183.21	65.9126
2184.65	65.2069
2186.09	65.1788
2187.53	65.2428
2188.97	64.3039
2190.4	65.1254
2191.84	64.1172
2193.28	63.6173
2194.72	62.2428
2196.16	61.1458
2197.59	61.0559
2199.03	60.8795
2200.47	58.9559
2201.9	58.1893
2203.34	57.0053
2204.77	55.0586
2206.21	53.5871
2207.64	51.7792
2209.08	51.4883
2210.51	50.2374
2211.95	48.2965
2213.38	47.8238
2214.82	46.4619
2216.25	45.3482
2217.68	44.5669
2219.12	43.2927
2220.55	42.3515
2221.98	41.0029
2223.41	40.3881
2224.85	39.0821
2226.28	37.1543
2227.71	35.4559
2229.14	34.4577
2230.57	32.3353
2232	30.5719
2233.43	30.2614
2234.86	29.5212
2236.29	28.4265
2237.72	28.5007
2239.15	28.5505
2240.58	27.0791
2242.01	25.4085
2243.44	24.1147
2244.87	22.1968
2246.29	22.1414
2247.72	21.0842
2249.15	20.7942
2250.58	19.9724
2252.01	19.3801
2253.43	19.902
2254.86	20.4087
2256.29	20.4517
2257.71	21.0972
2259.14	20.7028
2260.56	20.2784
2261.99	21.3335
2263.41	21.0388
2264.84	21.6702
2266.26	21.3014
2267.69	22.3283
2269.11	23.3253
2270.53	22.7843
2271.96	22.8039
2273.38	22.6815
2274.8	23.2263
2276.23	23.5475
2277.65	22.9816
2279.07	23.2917
2280.49	23.5842
2281.91	23.0065
2283.34	22.3151
2284.76	22.2619
2286.18	20.0649
2287.6	18.8934
2289.02	18.7008
2290.44	17.4067
2291.86	16.5037
2293.28	15.1389
2294.7	14.4362
2296.12	13.4899
2297.54	13.0112
2298.96	12.3063
2300.37	12.6373
2301.79	13.1752
2303.21	13.1929
2304.63	13.0845
2306.04	12.0417
2307.46	11.1554
2308.88	10.5677
2310.3	9.32289
2311.71	8.92359
2313.13	9.14189
2314.54	9.28517
2315.96	9.6268
2317.37	10.1085
2318.79	9.3412
2320.2	10.2251
2321.62	11.552
2323.03	12.2789
2324.45	12.9068
2325.86	12.787
2327.27	13.347
2328.69	14.245
2330.1	14.5882
2331.51	15.6299
2332.92	17.243
2334.34	17.3916
2335.75	18.181
2337.16	18.9429
2338.57	19.4453
2339.98	20.1719
2341.39	20.0228
2342.8	19.4891
2344.21	18.9851
2345.63	20.0968
2347.04	19.1665
2348.45	18.1473
2349.85	17.8234
2351.26	17.1925
2352.67	16.9244
2354.08	16.1451
2355.49	14.8667
2356.9	13.4869
2358.3	13.5927
2359.71	13.077
2361.12	12.3306
2362.53	11.8919
2363.93	11.9599
2365.34	12.3399
2366.75	12.213
2368.15	11.7624
2369.56	12.4906
2370.97	12.3015
2372.37	11.3028
2373.77	10.5749
2375.18	9.46646
2376.59	8.71505
2377.99	8.64294
2379.39	9.52266
2380.8	10.0058
2382.2	10.3744
2383.6	10.8663
2385.01	10.9257
2386.41	11.209
2387.81	12.265
2389.21	12.9407
2390.62	13.4388
2392.02	14.0172
2393.42	13.9624
2394.82	13.3319
2396.22	13.907
2397.62	14.5584
2399.02	15.0548
2400.42	15.3308
2401.82	15.3212
2403.22	15.9336
2404.62	15.7897
2406.02	16.041
2407.42	16.0183
2408.82	15.9539
2410.22	15.8628
2411.62	15.4301
2413.01	15.821
2414.41	16.6007
2415.81	16.4765
2417.21	16.3156
2418.6	16.7651
2420	17.5569
2421.4	17.9271
2422.79	17.2752
2424.19	15.8566
2425.59	15.4152
2426.98	15.7225
2428.38	15.7289
2429.77	15.3055
2431.17	14.82
2432.56	13.6766
2433.95	13.6033
2435.35	12.8282
2436.74	12.738
2438.14	12.1346
2439.53	11.7277
2440.92	10.256
2442.31	9.37156
2443.71	8.81543
2445.1	8.65443
2446.49	8.80765
2447.88	9.38114
2449.27	9.17726
2450.67	9.13514
2452.06	9.26827
2453.45	9.93015
2454.84	9.4954
2456.23	9.81464
2457.62	9.54681
2459.01	9.04369
2460.4	8.0118
2461.79	8.01677
2463.18	6.91376
2464.57	6.00333
2465.95	6.90873
2467.34	6.70106
2468.73	6.59773
2470.12	5.36484
2471.5	4.03445
2472.89	5.07349
2474.28	4.40043
2475.67	4.70329
2477.05	5.57473
2478.44	5.58681
2479.82	5.22904
2481.21	5.42178
2482.6	5.16804
2483.98	5.23817
2485.37	5.3208
2486.75	6.03453
2488.13	5.34625
2489.52	4.86106
2490.9	3.87074
2492.29	3.06077
2493.67	3.39056
2495.05	3.47664
2496.44	2.9372
2497.82	2.58214
2499.2	2.43588
2500.58	1.97604
2501.97	1.90383
2503.35	2.02712
2504.73	1.59188
2506.11	1.6769
2507.49	0.970218
2508.87	0.44969
2510.25	-0.0506545
2511.63	0.201398
2513.01	0.366266
2514.39	0.394414
2515.77	-0.226746
2517.15	0.704438
2518.53	0.27862
2519.91	0.949265
2521.29	0.913284
2522.67	1.30116
2524.05	1.17198
2525.42	2.01521
2526.8	2.27694
2528.18	1.896
2529.55	1.25124
2530.93	1.94394
2532.31	2.37696
2533.69	3.07708
2535.06	3.55371
2536.44	3.69184
2537.81	3.83227
2539.19	3.85368
2540.56	4.44522
2541.94	5.67365
2543.31	5.22365
2544.69	6.20849
2546.06	6.33551
2547.44	6.48988
2548.81	7.25174
2550.18	7.6454
2551.56	7.95485
2552.93	8.22804
2554.3	7.27297
2555.67	7.00079
2557.04	6.68163
2558.42	7.24593
2559.79	7.16634
2561.16	7.16535
2562.53	7.11024
2563.9	6.11749
2565.27	5.1792
2566.64	5.93075
2568.01	5.435
2569.38	4.3134
2570.75	4.28038
2572.12	4.21458
2573.49	3.59788
2574.86	3.51523
2576.23	3.00899
2577.6	1.99259
2578.97	1.58807
2580.33	1.04266
2581.7	0.687553
2583.07	0.618533
2584.44	0.425447
2585.8	0.560061
2587.17	0.0839022
2588.54	0.985389
2589.9	0.427079
2591.27	0.336248
2592.64	0.768777
2594	1.06214
2595.37	0.605484
2596.73	-0.183843
2598.1	0.383604
2599.46	0.832762
2600.83	1.24998
2602.19	0.983392
2603.55	2.08301
2604.92	2.38192
2606.28	2.19906
2607.64	2.3143
2609.01	2.79218
2610.37	3.48011
2611.73	4.03758
2613.09	4.8787
2614.46	5.21468
2615.82	6.30569
2617.18	5.94591
2618.54	5.49446
2619.9	5.42427
2621.26	5.86913
2622.62	5.8175
2623.98	6.05615
2625.34	6.69881
2626.7	6.89423
2628.06	6.86702
2629.42	6.58124
2630.78	6.68885
2632.14	6.95707
2633.5	7.33216
2634.86	8.58016
2636.21	8.16586
2637.57	7.97804
2638.93	8.28208
2640.29	7.84003
2641.64	7.53098
2643	7.49974
2644.36	6.58084
2645.71	5.83774
2647.07	5.56377
2648.43	5.65112
2649.78	6.14249
2651.14	6.03918
2652.49	5.1015
2653.85	5.24965
2655.2	4.88378
2656.56	5.10128
2657.91	4.21665
2659.26	4.61315
2660.62	4.2229
2661.97	4.02909
2663.32	3.43149
2664.68	3.26076
2666.03	3.48646
2667.38	2.70009
2668.74	3.01198
2670.09	2.8275
2671.44	3.18383
2672.79	2.21198
2674.14	1.54068
2675.49	2.79729
2676.84	3.11004
2678.19	3.33209
2679.54	3.53806
2680.89	3.75233
2682.24	4.12204
2683.59	4.69857
2684.94	4.59657
2686.29	5.2786
2687.64	6.4221
2688.99	7.08781
2690.34	6.88436
2691.69	7.63726
2693.03	8.94329
2694.38	9.3583
2695.73	10.3075
2697.08	10.9001
2698.42	12.5437
2699.77	13.484
2701.12	14.8697
2702.46	16.1988
2703.81	17.1579
2705.15	17.6568
2706.5	18.1462
2707.85	19.0974
2709.19	20.5059
2710.54	20.9247
2711.88	21.6067
2713.22	22.8979
2714.57	23.9983
2715.91	24.5417
2717.26	24.8591
2718.6	25.3487
2719.94	24.623
2721.29	25.4877
2722.63	25.3745
2723.97	25.9618
2725.31	24.5181
2726.66	24.2406
2728	22.8703
2729.34	22.7819
2730.68	22.4945
2732.02	21.737
2733.36	21.3359
2734.7	20.2558
2736.04	19.7775
2737.38	18.9669
2738.72	17.4637
2740.06	15.9704
2741.4	15.3863
2742.74	15.2265
2744.08	13.4484
2745.42	12.6211
2746.76	11.9146
2748.09	10.4325
2749.43	9.1548
2750.77	8.61298
2752.11	7.70802
2753.45	6.83772
2754.78	6.43645
2756.12	5.55097
2757.46	5.42782
2758.79	5.04018
2760.13	4.64737
2761.46	3.09348
2762.8	2.87393
2764.14	2.90086
2765.47	3.55849
2766.8	3.42015
2768.14	2.97832
2769.47	2.06588
2770.81	1.86227
2772.14	1.66474
2773.48	2.15149
2774.81	2.08923
2776.14	1.91211
2777.48	1.02068
2778.81	0.782397
2780.14	0.519111
2781.47	0.558336
2782.8	0.807965
2784.14	0.441458
2785.47	0.490703
2786.8	0.202026
2788.13	0.253303
2789.46	-0.0903328
2790.79	0.121935
2792.12	-0.0994606
2793.45	1.06201
2794.78	1.20912
2796.11	1.87762
2797.44	1.94411
2798.77	0.924421
2800.1	0.710891
2801.43	-0.0431342
2802.76	-0.273635
2804.09	-0.354838
2805.41	-1.54802
2806.74	-1.5388
2808.07	-1.47467
2809.4	-2.347
2810.72	-2.29958
2812.05	-2.62849
2813.38	-2.56482
2814.71	-2.41809
2816.03	-0.943718
2817.36	1.53066
2818.68	3.96365
2820.01	7.41531
2821.33	11.8988
2822.66	16.7148
2823.98	22.4359
2825.31	27.8442
2826.63	34.347
2827.96	40.7943
2829.28	49.1068
2830.6	57.5022
2831.93	66.0734
2833.25	74.947
2834.57	83.7028
2835.9	93.54
2837.22	104.281
2838.54	114.072
2839.86	123.013
2841.18	132.382
2842.5	142.973
2843.83	153.6
2845.15	164.006
2846.47	175.229
2847.79	186.23
2849.11	196.361
2850.43	206.631
2851.75	217.788
2853.07	228.208
2854.39	239.096
2855.71	250.37
2857.03	260.707
2858.35	270.346
2859.66	280.024
2860.98	288.409
2862.3	296.801
2863.62	304.758
2864.94	312.61
2866.25	319.522
2867.57	326.334
2868.89	332.233
2870.2	337.505
2871.52	342.453
2872.84	347.038
2874.15	351.327
2875.47	355.544
2876.78	360.509
2878.1	364.246
2879.41	369.017
2880.73	373.628
2882.04	378.309
2883.36	383.539
2884.67	387.621
2885.99	392.738
2887.3	397.08
2888.61	402.145
2889.93	406.272
2891.24	410.253
2892.55	413.966
2893.86	417.34
2895.18	421.897
2896.49	425.609
2897.8	428.945
2899.11	432.973
2900.42	436.877
2901.73	441.54
2903.05	445.898
2904.36	449.852
2905.67	455.33
2906.98	461.052
2908.29	467.431
2909.6	473.966
2910.91	479.725
2912.21	487.121
2913.52	492.747
2914.83	499.424
2916.14	505.935
2917.45	511.287
2918.76	516.778
2920.07	522.45
2921.37	527.621
2922.68	531.024
2923.99	534.307
2925.29	536.672
2926.6	538.809
2927.91	539.988
2929.22	540.903
2930.52	539.823
2931.83	537.776
2933.13	536.041
2934.44	533.07
2935.74	528.487
2937.05	523.875
2938.35	518.46
2939.66	512.577
2940.96	505.556
2942.26	497.996
2943.57	489.253
2944.87	481.443
2946.18	472.303
2947.48	463.358
2948.78	453.646
2950.08	443.358
2951.39	432.945
2952.69	422.119
2953.99	411.483
2955.29	399.506
2956.59	387.61
2957.9	375.487
2959.2	364.654
2960.5	353.423
2961.8	342.092
2963.1	331.465
2964.4	322.181
2965.7	312.639
2967	302.832
2968.3	293.833
2969.6	284.947
2970.9	276.77
2972.19	267.742
2973.49	260.587
2974.79	251.917
2976.09	242.484
2977.39	234.92
2978.68	226.031
2979.98	217.666
2981.28	209.326
2982.58	201.108
2983.87	192.772
2985.17	184.558
2986.47	176.101
2987.76	166.841
2989.06	158.635
2990.35	150.266
2991.65	141.906
2992.94	133.031
2994.24	124.511
2995.53	116.348
2996.83	108.497
2998.12	101.345
2999.42	94.2069
3000.71	86.9738
3002	80.0827
3003.3	72.9046
3004.59	65.8917
3005.88	59.937
3007.18	55.0129
3008.47	50.2582
3009.76	45.7073
3011.05	41.344
3012.34	37.0221
3013.64	32.5601
3014.93	28.0747
3016.22	24.0336
3017.51	21.0153
3018.8	17.4652
3020.09	14.343
3021.38	11.4572
3022.67	9.34088
3023.96	7.83484
3025.25	5.67792
3026.54	5.02788
3027.83	4.52792
3029.12	3.76689
3030.41	3.31159
3031.69	2.00463
3032.98	1.6531
3034.27	1.26857
3035.56	1.43986
3036.84	1.19613
3038.13	1.182
3039.42	0.125467
3040.71	0.811922
3041.99	1.87873
3043.28	2.02757
3044.57	1.81138
3045.85	2.92297
3047.14	2.81489
3048.42	2.32073
3049.71	2.85422
3050.99	2.63371
3052.28	2.69475
3053.56	2.27309
3054.85	2.29556
3056.13	2.00658
3057.41	2.2231
3058.7	2.65288
3059.98	2.86012
3061.26	2.62166
3062.55	2.84902
3063.83	2.8202
3065.11	1.98951
3066.39	1.40625
3067.68	2.04537
3068.96	2.3258
3070.24	2.3679
3071.52	2.55069
3072.8	2.05693
3074.08	1.34578
3075.36	1.16128
3076.65	0.139859
3077.93	-0.497138
3079.21	-0.84932
3080.49	-0.707023
3081.77	-0.486215
3083.04	-0.386044
3084.32	-0.486723
3085.6	-1.07827
3086.88	-0.330247
3088.16	0.434621
3089.44	0.968113
3090.72	1.86848
3091.99	1.98035
3093.27	1.85627
3094.55	2.07705
3095.83	1.98643
3097.1	2.91563
3098.38	3.46361
3099.66	3.97251
3100.93	4.27034
3102.21	4.34713
3103.49	4.94665
3104.76	5.51465
3106.04	5.61738
3107.31	6.38638
3108.59	6.53868
3109.86	7.61731
3111.14	8.11278
3112.41	8.51853
3113.69	9.68374
3114.96	10.4609
3116.23	11.734
3117.51	12.2936
3118.78	13.431
3120.05	14.1638
3121.33	15.0366
3122.6	16.3102
3123.87	17.2342
3125.14	18.4361
3126.41	19.0593
3127.69	19.9073
3128.96	20.4757
3130.23	21.7193
3131.5	22.4675
3132.77	22.5468
3134.04	23.2028
3135.31	24.2503
3136.58	24.7698
3137.85	25.2383
3139.12	25.8553
3140.39	26.6583
3141.66	27.7789
3142.93	28.7724
3144.2	29.4415
3145.47	29.9974
3146.74	30.9702
3148	32.1216
3149.27	32.1279
