#Acq. time (s)=	45
#Accumulations=	2
#Range (cm-¹)=	200...3150
#Windows=	2
#Auto scanning=	Off
#Autofocus=	Off
#Macrospot=	Off
#AutoExposure=	Off
#Spike filter=	Multiple accum.
#Delay time (s)=	0
#Binning=	1
#Readout mode=	Signal
#DeNoise=	Off
#ICS correction=	On
#Dark correction=	Off
#Inst. Process=	Off
#Detector Gain=	Best Dynamic Range
#Detector ADC=	20 kHz       
#Detector temperature (°C)=	-69.85
#Instrument=	LabRAM HR Evol
#Detector=	Synapse
#Objective=	x100
#Grating=	600 gr/mm
#ND Filter=	100%
#Laser (nm)=	532 
#Hole=	100.021
#Range=	Auto
#Laser Pol.=	No
#Raman. Pol.=	No
#Laser Pol. (°)=	-0.0007625
#Raman Pol. (°)=	89.9995
#Collection=	Microscope
#StageXY=	Marzhauser
#StageZ=	Marzhauser
#X (µm)=	-6987.9
#Y (µm)=	2133.5
#Z (µm)=	-74.85
#Full time(mm:ss)=	3:19
#Project=	
#Sample=	
#Site=	
#Title=	Mb_20_23_12_2x_45s_532 nm_x100_100%_600 gr_mm
#Remark=	
#Date=	13.07.2022 13:48
#Acquired=	13.07.2022 13:48:34
#Base:Fit=	10.08.2022 10:29:19
#Base:Fit=	10.08.2022 10:29:37
#Base:Sub=	10.08.2022 10:32:28
#Filter:Polynom=	16.08.2022 10:13:29
#AxisType[0]=Intens
#AxisUnit[0]=Cnt
#AxisType[1]=Spectr
#AxisUnit[1]=1/cm
200.563	17.0549
202.377	14.2699
204.194	11.916
206.008	10.0288
207.821	8.23625
209.634	7.0442
211.449	5.99998
213.262	4.49601
215.074	3.4038
216.885	2.69918
218.699	1.95651
220.51	1.83009
222.321	1.91227
224.131	0.936823
225.941	1.91495
227.751	1.92485
229.562	2.20849
231.371	2.69575
233.18	2.07681
234.988	1.81206
236.796	2.90704
238.603	3.38517
240.411	2.81148
242.219	2.89198
244.026	2.91029
245.832	3.04786
247.638	3.20053
249.443	3.54335
251.248	4.34129
253.053	3.28335
254.857	3.01238
256.661	3.27148
258.465	3.14515
260.268	3.15157
262.071	3.79127
263.874	3.45819
265.678	3.0673
267.48	2.9035
269.282	3.02446
271.083	2.93856
272.884	3.01074
274.684	2.88979
276.484	2.70475
278.284	2.66648
280.084	2.89451
281.883	2.5334
283.682	1.42455
285.48	0.988575
287.276	0.54162
289.074	1.09374
290.871	0.328419
292.668	0.24514
294.465	0.29396
296.261	0.977314
298.057	1.42588
299.853	1.44223
301.648	1.76199
303.443	2.47946
305.237	3.80587
307.032	5.20052
308.823	6.39758
310.617	8.13219
312.41	9.52149
314.203	11.0003
315.995	12.4614
317.788	13.4635
319.579	14.5043
321.369	14.9574
323.16	15.2179
324.951	16.6917
326.741	17.5667
328.531	16.9278
330.321	17.2153
332.108	18.4209
333.897	18.5671
335.686	18.2595
337.474	17.8984
339.26	18.2861
341.048	19.175
342.835	18.3904
344.622	18.8946
346.406	18.5118
348.192	18.0959
349.978	17.9535
351.764	17.5814
353.547	17.2564
355.332	16.1002
357.116	15.8912
358.901	15.12
360.682	14.5813
362.466	13.6859
364.249	13.2629
366.03	13.3199
367.812	12.3244
369.594	11.9564
371.374	11.0339
373.155	10.8158
374.936	10.3708
376.715	10.2342
378.495	9.31498
380.273	9.09747
382.053	9.06371
383.832	9.94343
385.609	10.3413
387.388	10.6516
389.164	11.3434
390.942	12.4935
392.72	13.3191
394.495	14.1917
396.272	14.7973
398.047	15.0131
399.823	15.5805
401.597	15.1609
403.372	14.9046
405.145	13.4998
406.92	13.1089
408.693	12.5825
410.467	13.3161
412.239	13.4628
414.012	13.8645
415.783	13.194
417.556	13.057
419.327	13.2873
421.099	13.1141
422.869	12.4376
424.64	12.2262
426.409	13.1844
428.18	13.7325
429.948	13.7308
431.718	12.9952
433.486	13.1045
435.253	12.8336
437.022	13.2699
438.789	12.0787
440.558	11.7914
442.324	10.5627
444.089	10.2347
445.857	11.3401
447.622	11.6193
449.386	12.4278
451.153	11.4474
452.917	12.1942
454.682	12.6817
456.446	12.2741
458.208	12.4062
459.973	12.4122
461.735	12.2557
463.497	12.0323
465.259	12.4499
467.022	11.915
468.783	12.7706
470.544	13.7072
472.306	13.7487
474.066	14.541
475.825	14.1979
477.585	14.603
479.346	14.6833
481.104	14.2747
482.862	14.3725
484.62	14.4677
486.38	13.3026
488.137	12.4132
489.894	11.5309
491.65	12.3053
493.407	12.2354
495.164	14.6151
496.92	15.8833
498.675	16.3032
500.43	16.934
502.184	18.1281
503.939	18.7239
505.694	19.7088
507.448	20.6482
509.201	21.4317
510.954	22.1629
512.706	23.369
514.459	24.2149
516.21	24.9771
517.962	25.2069
519.715	26.0857
521.466	25.7718
523.216	25.5848
524.966	25.4265
526.716	24.0074
528.466	24.7426
530.215	24.2327
531.964	25.3099
533.712	24.9497
535.46	24.7252
537.208	24.1201
538.955	23.3907
540.703	22.9139
542.449	21.9454
544.196	21.9007
545.942	21.0425
547.688	20.6649
549.433	19.6118
551.178	18.8336
552.923	17.3405
554.667	15.4289
556.412	14.4632
558.155	13.2203
559.899	11.8771
561.642	11.1713
563.385	8.553
565.127	8.48341
566.867	5.92352
568.609	5.05862
570.35	5.16713
572.092	3.63173
573.832	1.99716
575.573	2.43959
577.313	3.52927
579.053	3.27384
580.79	2.75586
582.529	3.29743
584.268	3.13766
586.006	3.45691
587.745	3.64275
589.482	2.83357
591.218	2.15326
592.955	1.53597
594.692	1.51624
596.428	2.16669
598.164	2.68454
599.898	3.6645
601.634	4.66261
603.369	5.1974
605.104	5.00612
606.836	4.68586
608.57	4.05725
610.304	4.30237
612.037	5.06776
613.769	4.53403
615.501	5.32197
617.234	5.78078
618.966	6.68686
620.696	7.67644
622.427	9.26571
624.159	9.51771
625.887	9.86096
627.618	9.08506
629.348	8.87162
631.076	8.81554
632.806	9.16493
634.535	8.96405
636.262	9.32134
637.99	8.93782
639.716	9.13137
641.444	8.66524
643.172	9.87889
644.897	10.4225
646.624	9.78569
648.348	9.72732
650.075	8.99016
651.801	9.45974
653.524	8.75252
655.249	9.76208
656.972	9.15344
658.697	8.15804
660.419	8.13046
662.143	7.08651
663.865	6.4542
665.588	5.74597
667.309	7.49162
669.032	7.80182
670.752	8.19604
672.474	7.27708
674.194	6.69607
675.915	7.02713
677.634	7.79325
679.355	7.76122
681.073	8.31606
682.793	9.07648
684.511	9.3963
686.23	10.6537
687.947	11.5908
689.664	12.0531
691.382	12.8509
693.098	13.3706
694.816	15.0187
696.531	13.2401
698.247	11.6426
699.963	10.3075
701.678	13.6455
703.392	17.6578
705.108	20.7637
706.821	23.1107
708.534	24.8854
710.249	26.3572
711.962	28.7753
713.674	30.1947
715.388	32.5119
717.099	35.1912
718.81	38.0222
720.523	38.8699
722.234	41.7108
723.944	42.3197
725.654	43.8076
727.365	44.578
729.075	46.2108
730.784	47.0468
732.492	46.6994
734.202	48.0873
735.91	47.6703
737.618	48.2409
739.325	47.6271
741.034	48.0476
742.741	48.2432
744.447	49.0091
746.153	49.0702
747.859	49.6461
749.564	51.4836
751.271	52.5322
752.976	53.3356
754.681	52.5509
756.385	53.0005
758.088	52.8499
759.792	53.347
761.495	54.6227
763.2	54.703
764.902	54.0924
766.604	54.6434
768.306	55.2302
770.008	55.905
771.709	55.7973
773.41	56.5909
775.11	56.5696
776.811	56.2267
778.51	56.3639
780.21	56.7044
781.909	55.7417
783.608	59.3725
785.307	64.3998
787.005	68.7097
788.703	69.9963
790.401	70.215
792.098	67.9116
793.795	66.9613
795.492	67.0229
797.188	70.3902
798.884	72.6293
800.58	75.8602
802.276	78.5288
803.971	80.6432
805.665	81.9497
807.36	83.7402
809.054	84.3026
810.748	86.4159
812.441	87.9442
814.135	89.3362
815.826	91.2014
817.518	91.3712
819.21	91.8001
820.902	91.7939
822.594	92.443
824.285	92.7381
825.976	93.4153
827.665	92.9024
829.355	92.5797
831.045	91.6238
832.735	91.471
834.424	92.0434
836.111	91.215
837.8	90.7299
839.488	89.0865
841.177	87.9076
842.864	86.6361
844.55	84.475
846.237	82.7962
847.924	79.4424
849.61	77.2638
851.295	75.836
852.98	73.9717
854.666	72.9337
856.349	71.3576
858.034	69.9476
859.719	68.0781
861.403	65.9498
863.085	64.3356
864.769	61.4385
866.452	59.129
868.133	57.1812
869.816	54.3828
871.498	51.3219
873.179	49.219
874.86	47.7076
876.54	45.2612
878.221	46.3658
879.902	48.6663
881.58	50.8983
883.26	50.748
884.938	49.8062
886.618	48.5808
888.297	48.0497
889.974	47.2742
891.653	47.4294
893.329	47.8567
895.007	48.7567
896.683	49.2915
898.36	48.7707
900.035	49.281
901.712	48.1466
903.387	48.6087
905.063	48.394
906.737	48.5244
908.412	48.1532
910.085	47.9276
911.76	47.8863
913.433	47.5136
915.107	47.8111
916.779	48.0207
918.452	47.8173
920.124	45.6958
921.797	44.8967
923.467	44.0123
925.138	43.3078
926.81	42.2681
928.48	41.2808
930.151	41.5344
931.82	41.0036
933.489	40.8791
935.16	40.978
936.828	40.8704
938.496	40.8908
940.165	39.8329
941.833	38.3198
943.5	36.9848
945.168	35.9126
946.834	35.3406
948.5	33.8058
950.168	34.0378
951.834	33.8199
953.499	34.4322
955.163	33.9933
956.83	32.7676
958.494	31.1393
960.158	29.8461
961.821	29.0629
963.487	29.7488
965.15	29.7742
966.812	30.1619
968.474	30.1547
970.138	30.532
971.8	31.1241
973.461	31.3309
975.123	31.6535
976.783	31.5858
978.446	31.9316
980.106	32.1062
981.766	31.7504
983.425	32.3547
985.084	32.0052
986.743	31.7114
988.402	30.7575
990.06	30.891
991.72	30.4231
993.378	30.6075
995.035	29.7532
996.692	29.2685
998.349	29.5053
1000.01	28.2317
1001.66	28.4063
1003.32	27.6951
1004.97	28.3272
1006.63	27.7679
1008.28	27.5869
1009.94	28.4283
1011.59	29.3859
1013.25	30.6125
1014.9	30.1167
1016.55	29.3244
1018.21	28.8511
1019.86	28.5957
1021.51	27.9217
1023.16	27.6145
1024.81	28.5084
1026.47	29.2791
1028.12	30.3561
1029.77	30.773
1031.42	31.6913
1033.07	33.0618
1034.72	33.3904
1036.37	33.663
1038.02	33.0316
1039.67	33.6953
1041.31	34.5788
1042.96	35.9149
1044.61	37.1993
1046.26	38.2659
1047.91	38.5374
1049.55	39.1365
1051.2	39.9717
1052.84	40.3509
1054.49	40.9967
1056.14	41.3482
1057.78	42.002
1059.43	42.813
1061.07	43.7354
1062.72	44.2677
1064.36	43.9738
1066	43.3828
1067.65	43.5558
1069.29	43.0034
1070.93	42.8894
1072.58	42.5832
1074.22	42.4282
1075.86	42.8048
1077.5	42.6182
1079.14	41.5532
1080.78	40.9603
1082.42	40.3009
1084.06	39.1323
1085.7	38.1236
1087.34	39.1359
1088.98	38.93
1090.62	38.9466
1092.26	37.2156
1093.9	36.4361
1095.54	36.2054
1097.17	34.3481
1098.81	34.2295
1100.45	34.4209
1102.09	35.3083
1103.72	36.3307
1105.36	37.0173
1106.99	37.3165
1108.63	36.8388
1110.27	36.0233
1111.9	35.3072
1113.53	36.2668
1115.17	35.4383
1116.8	35.199
1118.43	34.986
1120.07	34.2052
1121.7	34.3918
1123.33	33.5208
1124.97	32.9961
1126.6	33.3848
1128.23	32.2146
1129.86	31.9648
1131.49	30.9069
1133.12	30.6241
1134.75	30.6286
1136.38	30.451
1138.01	29.7944
1139.64	28.6931
1141.27	26.6589
1142.9	25.6031
1144.53	23.5022
1146.16	21.9115
1147.78	20.3645
1149.41	19.2211
1151.04	17.1953
1152.67	16.0513
1154.29	14.3959
1155.92	11.9654
1157.54	10.167
1159.17	7.95645
1160.8	5.69881
1162.42	5.12659
1164.05	3.28078
1165.67	2.31226
1167.29	2.72407
1168.92	2.48259
1170.54	1.20198
1172.16	0.441905
1173.79	0.411733
1175.41	2.13127
1177.03	2.23134
1178.65	2.39118
1180.28	2.80935
1181.9	3.61613
1183.52	4.43413
1185.14	4.70256
1186.76	4.21232
1188.38	3.78615
1190	4.0419
1191.62	4.44793
1193.24	5.60547
1194.86	7.10247
1196.47	7.65726
1198.09	9.15945
1199.71	9.97656
1201.33	11.2252
1202.95	12.7891
1204.56	13.0786
1206.18	14.5197
1207.8	15.8171
1209.41	16.531
1211.03	18.0074
1212.64	18.2968
1214.26	20.8506
1215.87	23.1146
1217.49	24.6439
1219.1	25.5987
1220.71	27.0167
1222.33	29.1044
1223.94	30.6612
1225.55	31.5278
1227.16	33.2638
1228.78	34.2213
1230.39	34.6386
1232	35.7257
1233.61	36.7982
1235.22	37.9428
1236.83	39.7218
1238.44	41.5604
1240.05	43.0472
1241.66	44.5169
1243.27	45.8768
1244.88	47.0698
1246.49	48.5852
1248.1	50.8178
1249.71	52.6078
1251.32	54.6775
1252.92	56.0085
1254.53	58.0139
1256.14	59.3042
1257.74	59.2126
1259.35	60.316
1260.96	61.2834
1262.56	62.0378
1264.17	63.4293
1265.77	63.3905
1267.38	64.6236
1268.98	65.5115
1270.59	68.3867
1272.19	69.2002
1273.79	70.0574
1275.4	70.982
1277	72.7755
1278.6	73.4777
1280.21	74.1777
1281.81	75.563
1283.41	77.0153
1285.01	78.136
1286.61	80.7397
1288.21	82.1234
1289.81	82.7678
1291.41	83.5939
1293.01	84.2261
1294.61	86.5809
1296.21	87.2979
1297.81	88.861
1299.41	89.73
1301.01	90.4248
1302.6	90.411
1304.2	90.4025
1305.8	90.6926
1307.4	90.6762
1308.99	91.1409
1310.59	90.9481
1312.19	91.1819
1313.78	91.7626
1315.38	91.9887
1316.97	92.2632
1318.57	91.4877
1320.16	91.829
1321.76	91.3681
1323.35	90.4704
1324.94	90.1024
1326.54	89.8989
1328.13	89.8643
1329.72	88.6975
1331.32	87.3363
1332.91	85.3851
1334.5	84.0891
1336.09	81.4748
1337.68	79.3993
1339.27	78.3994
1340.87	77.1428
1342.45	75.1157
1344.04	75.0011
1345.64	73.2878
1347.22	73.0444
1348.81	71.2276
1350.4	70.8229
1351.99	68.0989
1353.58	67.0533
1355.17	66.847
1356.75	65.9497
1358.34	64.1442
1359.93	63.4717
1361.51	62.7665
1363.1	62.3866
1364.69	61.2849
1366.27	60.5645
1367.86	59.4492
1369.44	59.2203
1371.03	58.7927
1372.61	57.7089
1374.2	57.6211
1375.78	57.2347
1377.37	57.5723
1378.95	56.4677
1380.53	55.5683
1382.11	55.9105
1383.7	56.6101
1385.28	57.2121
1386.86	57.3144
1388.44	57.6918
1390.02	56.9862
1391.6	57.4269
1393.19	59.0816
1394.77	59.1677
1396.35	60.0651
1397.93	59.5439
1399.51	60.0475
1401.08	59.8486
1402.66	60.5969
1404.24	62.4129
1405.82	64.1308
1407.4	65.9254
1408.97	68.015
1410.55	70.4406
1412.13	72.4173
1413.71	74.7996
1415.28	77.286
1416.86	80.5508
1418.43	84.8269
1420.01	88.5886
1421.59	92.7371
1423.16	97.3968
1424.73	100.917
1426.31	105.019
1427.88	108.523
1429.46	112.722
1431.03	116.247
1432.6	120.44
1434.18	124.657
1435.75	126.54
1437.32	129.266
1438.89	132.228
1440.46	134.123
1442.04	135.782
1443.61	136.406
1445.18	137.048
1446.75	137.528
1448.32	137.559
1449.89	135.945
1451.46	135.016
1453.03	133.613
1454.6	132.454
1456.16	130.395
1457.73	128.214
1459.3	126.264
1460.87	124.127
1462.44	120.999
1464	117.501
1465.57	112.448
1467.14	107.959
1468.7	103.638
1470.27	99.885
1471.83	94.7317
1473.4	89.791
1474.96	85.9407
1476.53	81.247
1478.09	77.178
1479.66	73.2801
1481.22	70.82
1482.78	67.595
1484.35	63.7833
1485.91	61.0767
1487.47	57.8677
1489.04	54.759
1490.6	51.1822
1492.16	48.9786
1493.72	46.6631
1495.28	45.3174
1496.84	43.5129
1498.4	41.7859
1499.96	41.4981
1501.52	39.8594
1503.08	38.0883
1504.64	36.9709
1506.2	36.3823
1507.76	35.3441
1509.32	34.2214
1510.88	33.368
1512.44	32.0169
1513.99	30.4071
1515.55	29.6875
1517.11	28.7628
1518.66	27.9047
1520.22	26.9645
1521.78	26.5922
1523.33	27.2801
1524.89	26.4845
1526.44	26.0826
1528	25.7023
1529.55	25.7741
1531.11	25.9986
1532.66	27.2385
1534.21	27.856
1535.77	28.7813
1537.32	29.4787
1538.87	30.1054
1540.43	30.8973
1541.98	31.0618
1543.53	30.8801
1545.08	32.387
1546.63	33.9966
1548.18	34.8481
1549.74	35.9466
1551.29	37.924
1552.84	39.1957
1554.39	39.3362
1555.94	41.2336
1557.48	42.965
1559.03	44.5008
1560.58	44.8573
1562.13	45.8126
1563.68	46.538
1565.23	47.5784
1566.78	47.9763
1568.32	49.3894
1569.87	50.5272
1571.42	51.5374
1572.96	52.7128
1574.51	54.121
1576.05	55.4608
1577.6	55.9588
1579.14	55.8695
1580.69	56.6739
1582.24	58.6753
1583.78	59.9175
1585.32	60.2666
1586.87	60.756
1588.41	61.9034
1589.95	61.7196
1591.5	61.8334
1593.04	62.1611
1594.58	61.7234
1596.12	61.8336
1597.67	61.1593
1599.21	61.3857
1600.75	60.8174
1602.29	58.7921
1603.83	58.8915
1605.37	59.3018
1606.91	58.8813
1608.45	59.6393
1609.99	59.1441
1611.53	59.5139
1613.07	59.3627
1614.6	59.203
1616.14	59.002
1617.68	59.293
1619.22	58.8225
1620.75	59.0535
1622.29	60.2233
1623.83	60.6813
1625.37	61.4562
1626.9	63.0122
1628.44	64.3475
1629.97	66.2898
1631.51	67.6237
1633.04	69.5671
1634.58	70.7851
1636.11	71.376
1637.65	73.1302
1639.18	74.325
1640.72	76.4229
1642.25	78.3951
1643.78	78.7914
1645.31	81.0831
1646.85	82.7212
1648.38	83.4697
1649.91	83.2303
1651.44	84.6586
1652.97	84.8133
1654.5	85.9515
1656.03	86.3748
1657.56	86.6902
1659.1	87.6239
1660.62	86.9496
1662.15	86.7248
1663.68	85.1269
1665.21	83.6342
1666.74	82.0194
1668.27	79.7263
1669.8	77.1808
1671.32	74.2855
1672.85	71.2723
1674.38	67.4772
1675.91	64.95
1677.43	61.5785
1678.96	58.847
1680.49	57.2057
1682.01	55.5696
1683.54	52.9964
1685.06	50.3751
1686.59	47.3429
1688.11	45.8343
1689.64	43.1059
1691.16	41.1767
1692.68	39.908
1694.21	37.388
1695.73	35.3948
1697.25	34.6326
1698.78	33.286
1700.3	32.0096
1701.82	31.7021
1703.34	30.8354
1704.86	30.2309
1706.39	29.3347
1707.91	28.1822
1709.43	27.0803
1710.95	26.608
1712.47	25.5433
1713.99	25.6557
1715.51	24.8817
1717.02	25.1188
1718.54	23.8234
1720.06	22.9239
1721.58	23.3055
1723.1	22.2683
1724.62	21.7025
1726.13	21.1019
1727.65	22.0749
1729.17	21.4623
1730.68	21.4795
1732.2	21.2676
1733.72	21.4237
1735.23	21.6941
1736.75	21.0133
1738.26	20.4608
1739.78	19.377
1741.29	18.5645
1742.81	17.7287
1744.32	16.0395
1745.84	15.2289
1747.35	14.3795
1748.86	13.6159
1750.37	13.5616
1751.89	13.7084
1753.4	13.4512
1754.91	13.4618
1756.42	13.4125
1757.93	13.1077
1759.45	12.1034
1760.96	11.6189
1762.47	11.397
1763.98	11.6305
1765.49	11.1513
1767	11.3584
1768.51	10.9862
1770.02	9.94863
1771.53	10.3925
1773.03	9.96603
1774.54	8.98299
1776.05	9.05147
1777.56	9.25517
1779.07	8.66933
1780.57	8.56081
1782.08	8.08173
1783.59	7.67974
1785.09	7.1554
1786.6	7.00362
1788.11	6.8368
1789.61	6.7589
1791.12	6.4452
1792.62	5.76923
1794.13	5.05093
1795.63	4.34608
1797.13	4.537
1798.64	4.28664
1800.14	4.1129
1801.65	3.62944
1803.15	4.15683
1804.65	3.94914
1806.15	4.48383
1807.66	4.16417
1809.16	4.28891
1810.66	4.58004
1812.16	4.20647
1813.66	4.0928
1815.16	3.84789
1816.66	3.23017
1818.16	3.6197
1819.66	3.58615
1821.16	3.47235
1822.66	3.17131
1824.16	2.9447
1825.66	2.93747
1827.16	3.30433
1828.66	3.36582
1830.16	3.0652
1831.65	3.19462
1833.15	3.92767
1834.65	3.38168
1836.14	3.46684
1837.64	4.06146
1839.14	5.00517
1840.63	5.54155
1842.13	5.71883
1843.62	5.42894
1845.12	5.17789
1846.61	4.9302
1848.11	4.84995
1849.6	4.47338
1851.1	4.26821
1852.59	4.47379
1854.08	3.81452
1855.58	4.02144
1857.07	3.95832
1858.56	3.425
1860.05	3.54786
1861.55	3.01122
1863.04	3.06927
1864.53	3.2644
1866.02	3.61833
1867.51	3.71002
1869	3.824
1870.49	3.93433
1871.98	4.62589
1873.47	4.79869
1874.96	4.70283
1876.45	4.15703
1877.94	4.17532
1879.43	3.65971
1880.92	3.70252
1882.41	3.28246
1882.51	3.7362
1884	4.10092
1885.5	3.73546
1886.99	4.40692
1888.48	4.63754
1889.98	4.73583
1891.47	5.32522
1892.96	5.04777
1894.46	5.37628
1895.95	5.76164
1897.44	5.72397
1898.93	6.14861
1900.42	6.72048
1901.91	6.59131
1903.41	6.99485
1904.9	7.05196
1906.39	7.24227
1907.88	6.33071
1909.37	7.11025
1910.86	7.12299
1912.35	7.03954
1913.83	6.614
1915.32	5.72403
1916.81	5.12159
1918.3	4.6367
1919.79	4.00244
1921.27	3.95791
1922.76	4.00633
1924.25	3.93341
1925.74	3.66333
1927.22	3.20588
1928.71	3.55864
1930.19	3.02448
1931.68	2.39479
1933.17	2.90635
1934.65	3.05599
1936.14	3.64356
1937.62	4.04947
1939.11	3.60431
1940.59	2.53136
1942.07	2.65293
1943.56	3.50476
1945.04	3.18711
1946.52	3.49115
1948.01	3.14276
1949.49	2.83733
1950.97	3.66301
1952.45	2.82146
1953.93	3.46849
1955.42	3.42563
1956.9	4.40112
1958.38	4.87392
1959.86	4.6591
1961.34	4.71443
1962.82	4.60319
1964.3	4.97359
1965.78	5.78831
1967.26	6.20856
1968.74	5.85145
1970.21	5.46521
1971.69	4.49325
1973.17	4.64785
1974.65	4.12176
1976.13	3.42571
1977.6	3.13416
1979.08	2.355
1980.56	2.05246
1982.03	1.69636
1983.51	2.02973
1984.99	1.45808
1986.46	1.60492
1987.94	0.849197
1989.41	0.28743
1990.89	-0.0115074
1992.36	-0.0928495
1993.84	0.0542834
1995.31	0.307588
1996.78	0.157507
1998.26	-1.05221
1999.73	-1.32444
2001.2	-1.50579
2002.68	-1.69235
2004.15	-1.39261
2005.62	-1.83805
2007.09	-0.37683
2008.56	0.260949
2010.04	0.0544374
2011.51	-0.0926381
2012.98	0.350986
2014.45	0.591116
2015.92	1.79176
2017.39	1.89414
2018.86	1.42459
2020.33	1.73668
2021.8	1.35544
2023.26	1.51001
2024.73	2.09222
2026.2	1.99387
2027.67	3.23249
2029.14	3.73884
2030.61	4.26439
2032.07	3.97201
2033.54	3.8295
2035.01	4.00159
2036.47	5.32822
2037.94	5.99971
2039.4	5.84402
2040.87	5.27222
2042.33	4.62168
2043.8	4.97577
2045.27	5.17235
2046.73	4.95571
2048.19	4.79635
2049.66	5.77295
2051.12	5.86082
2052.59	5.41668
2054.05	5.52633
2055.51	5.47662
2056.97	5.67194
2058.44	5.72276
2059.9	5.37096
2061.36	4.39697
2062.82	4.58222
2064.28	4.64471
2065.74	4.42193
2067.21	3.64872
2068.67	3.2922
2070.13	3.05854
2071.59	2.57856
2073.05	3.36713
2074.51	3.86133
2075.96	4.62652
2077.42	4.28687
2078.88	3.98081
2080.34	4.88082
2081.8	3.96266
2083.26	4.4747
2084.72	5.14432
2086.17	5.58936
2087.63	6.23531
2089.09	6.42969
2090.54	6.06608
2092	6.45842
2093.45	6.62885
2094.91	7.32379
2096.37	7.61079
2097.82	8.00923
2099.28	8.92357
2100.73	9.90227
2102.19	10.2726
2103.64	10.5773
2105.09	10.8818
2106.55	12.0601
2108	12.7591
2109.45	13.8418
2110.91	13.8038
2112.36	14.0674
2113.81	15.061
2115.26	16.1782
2116.72	17.3445
2118.17	18.1916
2119.62	18.1851
2121.07	19.6988
2122.52	20.6228
2123.97	21.0477
2125.42	21.9426
2126.87	22.7043
2128.32	23.7656
2129.77	25.0392
2131.22	25.4691
2132.67	26.1
2134.11	27.3548
2135.56	28.5294
2137.01	29.1488
2138.46	29.7335
2139.91	30.1951
2141.35	31.2907
2142.8	32.5185
2144.25	33.9872
2145.7	35.585
2147.14	36.8125
2148.59	37.393
2150.03	38.9074
2151.48	40.6441
2152.92	41.9938
2154.37	43.6309
2155.81	46.0074
2157.26	46.5876
2158.7	46.9255
2160.15	47.9974
2161.59	48.1833
2163.03	48.6191
2164.47	49.7939
2165.92	50.7764
2167.36	51.7583
2168.8	52.4214
2170.24	53.3471
2171.69	54.2537
2173.13	54.2657
2174.57	53.9801
2176.01	53.6646
2177.45	53.3222
2178.89	53.9225
2180.33	53.5458
2181.77	53.8053
2183.21	53.0691
2184.65	53.4494
2186.09	52.8909
2187.53	52.0459
2188.97	50.9151
2190.4	50.1082
2191.84	48.9973
2193.28	48.4697
2194.72	47.5195
2196.16	46.1169
2197.59	44.2308
2199.03	42.1509
2200.47	41.1088
2201.9	39.5094
2203.34	37.9172
2204.77	36.8789
2206.21	35.5503
2207.64	33.5469
2209.08	31.9571
2210.51	30.7703
2211.95	29.0776
2213.38	28.4573
2214.82	27.8497
2216.25	27.2345
2217.68	26.0578
2219.12	24.7201
2220.55	23.618
2221.98	23.487
2223.41	22.5151
2224.85	21.3863
2226.28	20.5857
2227.71	19.7066
2229.14	18.8059
2230.57	18.7533
2232	18.2215
2233.43	18.0082
2234.86	17.2548
2236.29	17.5343
2237.72	16.8861
2239.15	16.2105
2240.58	16.3415
2242.01	16.0833
2243.44	15.148
2244.87	14.111
2246.29	14.0548
2247.72	13.8081
2249.15	13.8776
2250.58	14.023
2252.01	13.8638
2253.43	14.2541
2254.86	13.9619
2256.29	13.9941
2257.71	12.8913
2259.14	12.8453
2260.56	12.9444
2261.99	13.1569
2263.41	12.1654
2264.84	11.4732
2266.26	10.8093
2267.69	10.5145
2269.11	10.2225
2270.53	10.0323
2271.96	9.95899
2273.38	10.4714
2274.8	10.4191
2276.23	10.8609
2277.65	11.0094
2279.07	10.8107
2280.49	10.6102
2281.91	10.7391
2283.34	10.0653
2284.76	10.2098
2286.18	9.89859
2287.6	9.94902
2289.02	9.15114
2290.44	9.0158
2291.86	8.90166
2293.28	8.57091
2294.7	8.07949
2296.12	7.93099
2297.54	7.9523
2298.96	8.42588
2300.37	8.5477
2301.79	8.18956
2303.21	7.71171
2304.63	8.20959
2306.04	7.81499
2307.46	7.44596
2308.88	7.48178
2310.3	7.82397
2311.71	8.04288
2313.13	7.58155
2314.54	7.51482
2315.96	7.2977
2317.37	7.42476
2318.79	7.14734
2320.2	7.68107
2321.62	7.79601
2323.03	7.95048
2324.45	7.73406
2325.86	6.91653
2327.27	6.5718
2328.69	5.99967
2330.1	5.97084
2331.51	5.49398
2332.92	4.98748
2334.34	4.82718
2335.75	4.93748
2337.16	5.17882
2338.57	5.57038
2339.98	4.80112
2341.39	4.20021
2342.8	4.22448
2344.21	4.29903
2345.63	3.9248
2347.04	3.9559
2348.45	3.16731
2349.85	2.75571
2351.26	2.21931
2352.67	1.90268
2354.08	1.2509
2355.49	0.697164
2356.9	1.66214
2358.3	1.77339
2359.71	1.79192
2361.12	1.72089
2362.53	1.40126
2363.93	1.42777
2365.34	2.27084
2366.75	2.89034
2368.15	3.39205
2369.56	4.12593
2370.97	3.96682
2372.37	4.63087
2373.77	5.19042
2375.18	4.98348
2376.59	5.0545
2377.99	5.38526
2379.39	6.01273
2380.8	5.90989
2382.2	5.68798
2383.6	6.09384
2385.01	5.61969
2386.41	5.12941
2387.81	5.9843
2389.21	6.27288
2390.62	5.85152
2392.02	5.56688
2393.42	5.39976
2394.82	5.07635
2396.22	5.16556
2397.62	5.00169
2399.02	4.26404
2400.42	4.49755
2401.82	4.21126
2403.22	4.17202
2404.62	3.78957
2406.02	3.88157
2407.42	4.18942
2408.82	3.93668
2410.22	3.48786
2411.62	3.66566
2413.01	3.42375
2414.41	3.37225
2415.81	3.6509
2417.21	3.18942
2418.6	3.03741
2420	3.25992
2421.4	2.98165
2422.79	3.25397
2424.19	3.35813
2425.59	3.61724
2426.98	4.76211
2428.38	4.0297
2429.77	3.74665
2431.17	3.45471
2432.56	4.18931
2433.95	4.74586
2435.35	5.27037
2436.74	5.40741
2438.14	5.90452
2439.53	5.21906
2440.92	5.27284
2442.31	5.42035
2443.71	5.48113
2445.1	5.57902
2446.49	5.70448
2447.88	5.46665
2449.27	5.89564
2450.67	5.97127
2452.06	6.01306
2453.45	6.18883
2454.84	5.61548
2456.23	5.96341
2457.62	6.17913
2459.01	6.50252
2460.4	6.66888
2461.79	7.03097
2463.18	6.93721
2464.57	7.51687
2465.95	7.60932
2467.34	7.23533
2468.73	7.55216
2470.12	7.63884
2471.5	7.02778
2472.89	6.74787
2474.28	7.23619
2475.67	7.91929
2477.05	8.08316
2478.44	7.53354
2479.82	6.82244
2481.21	6.64781
2482.6	5.7206
2483.98	5.51597
2485.37	4.73626
2486.75	3.89806
2488.13	3.32037
2489.52	2.73803
2490.9	2.58304
2492.29	3.16575
2493.67	2.65408
2495.05	2.57095
2496.44	2.34238
2497.82	1.92793
2499.2	1.48035
2500.58	1.16765
2501.97	1.14661
2503.35	0.777158
2504.73	0.363528
2506.11	0.228384
2507.49	0.664093
2508.87	-0.235875
2510.25	0.32946
2511.63	0.0459383
2513.01	-0.214309
2514.39	-0.0515992
2515.77	-0.114187
2517.15	0.261583
2518.53	0.410247
2519.91	0.337553
2521.29	0.979773
2522.67	1.49619
2524.05	2.05987
2525.42	2.88418
2526.8	3.80112
2528.18	4.51277
2529.55	4.84946
2530.93	5.0609
2532.31	5.25689
2533.69	5.99752
2535.06	6.18954
2536.44	6.08197
2537.81	6.47139
2539.19	6.51505
2540.56	6.81134
2541.94	7.74451
2543.31	8.09596
2544.69	8.38968
2546.06	8.43096
2547.44	8.16138
2548.81	8.37043
2550.18	9.34932
2551.56	9.04436
2552.93	9.43259
2554.3	9.23337
2555.67	9.39897
2557.04	9.76663
2558.42	10.1834
2559.79	10.7128
2561.16	10.9827
2562.53	10.7108
2563.9	10.0573
2565.27	9.51028
2566.64	9.50002
2568.01	9.57641
2569.38	9.5192
2570.75	9.86331
2572.12	9.18078
2573.49	9.26525
2574.86	8.92795
2576.23	8.54747
2577.6	8.05146
2578.97	8.03488
2580.33	8.03906
2581.7	7.65888
2583.07	8.29414
2584.44	7.55428
2585.8	7.07213
2587.17	6.83712
2588.54	7.38002
2589.9	7.437
2591.27	7.09185
2592.64	6.48576
2594	6.53925
2595.37	6.09037
2596.73	5.75642
2598.1	5.9013
2599.46	5.59266
2600.83	5.97381
2602.19	6.76981
2603.55	7.17269
2604.92	6.64774
2606.28	7.08887
2607.64	7.51366
2609.01	7.57388
2610.37	7.66064
2611.73	7.58759
2613.09	8.08687
2614.46	8.062
2615.82	8.57328
2617.18	8.7587
2618.54	8.49855
2619.9	7.93526
2621.26	8.31024
2622.62	7.73783
2623.98	8.44834
2625.34	8.68148
2626.7	8.44767
2628.06	8.83834
2629.42	8.4953
2630.78	8.83303
2632.14	7.99435
2633.5	8.51543
2634.86	9.07938
2636.21	9.13953
2637.57	8.59189
2638.93	9.40872
2640.29	9.17519
2641.64	9.45713
2643	8.5762
2644.36	8.91147
2645.71	9.6321
2647.07	9.35303
2648.43	9.46337
2649.78	8.95055
2651.14	8.62712
2652.49	8.30261
2653.85	8.01645
2655.2	7.77263
2656.56	7.62293
2657.91	7.64122
2659.26	7.78202
2660.62	8.78865
2661.97	9.71218
2663.32	9.57545
2664.68	9.9908
2666.03	10.8879
2667.38	11.1342
2668.74	11.2964
2670.09	10.959
2671.44	10.3806
2672.79	9.91645
2674.14	9.91803
2675.49	9.99627
2676.84	9.8282
2678.19	10.1555
2679.54	10.1296
2680.89	9.70246
2682.24	9.55706
2683.59	9.49281
2684.94	9.3747
2686.29	8.81233
2687.64	9.08587
2688.99	9.2139
2690.34	9.22018
2691.69	9.63439
2693.03	9.81017
2694.38	9.8328
2695.73	10.2185
2697.08	10.6325
2698.42	10.8127
2699.77	11.116
2701.12	11.8731
2702.46	12.2665
2703.81	11.9938
2705.15	12.3748
2706.5	13.0504
2707.85	12.7298
2709.19	12.6321
2710.54	12.7608
2711.88	13.4657
2713.22	14.0147
2714.57	14.1998
2715.91	14.2009
2717.26	14.0881
2718.6	14.5868
2719.94	15.1577
2721.29	15.1551
2722.63	15.8174
2723.97	16.306
2725.31	16.4224
2726.66	16.3971
2728	16.4318
2729.34	15.7337
2730.68	14.9881
2732.02	14.4242
2733.36	13.6525
2734.7	12.537
2736.04	11.8568
2737.38	11.2546
2738.72	10.9885
2740.06	10.3739
2741.4	9.9987
2742.74	9.51828
2744.08	9.23799
2745.42	8.98997
2746.76	7.95751
2748.09	7.39496
2749.43	7.08856
2750.77	6.70109
2752.11	6.10964
2753.45	5.07353
2754.78	4.93884
2756.12	4.10955
2757.46	3.62933
2758.79	3.4842
2760.13	3.12479
2761.46	2.47236
2762.8	2.15849
2764.14	1.86057
2765.47	1.16177
2766.8	1.74293
2768.14	1.1125
2769.47	0.57007
2770.81	-0.187389
2772.14	0.206696
2773.48	-0.13322
2774.81	-0.413819
2776.14	-0.671946
2777.48	-0.166822
2778.81	0.221116
2780.14	0.392421
2781.47	0.165261
2782.8	0.554173
2784.14	0.856894
2785.47	1.46788
2786.8	1.39074
2788.13	1.20588
2789.46	1.32329
2790.79	0.690484
2792.12	0.670448
2793.45	0.97281
2794.78	0.89849
2796.11	1.44727
2797.44	1.20777
2798.77	1.12473
2800.1	1.60382
2801.43	2.07276
2802.76	2.45859
2804.09	3.01796
2805.41	3.22085
2806.74	3.20204
2808.07	2.89322
2809.4	2.80012
2810.72	2.86044
2812.05	2.39242
2813.38	1.8081
2814.71	1.87155
2816.03	2.3044
2817.36	2.66155
2818.68	3.67088
2820.01	4.79937
2821.33	7.07298
2822.66	9.48499
2823.98	12.453
2825.31	15.3372
2826.63	18.6725
2827.96	22.535
2829.28	26.6711
2830.6	30.4143
2831.93	34.8679
2833.25	39.4157
2834.57	43.379
2835.9	48.302
2837.22	53.992
2838.54	59.3684
2839.86	64.6842
2841.18	70.4686
2842.5	75.8528
2843.83	82.0158
2845.15	88.0199
2846.47	94.4121
2847.79	101.338
2849.11	108.161
2850.43	114.707
2851.75	121.689
2853.07	127.925
2854.39	133.871
2855.71	139.446
2857.03	145.849
2858.35	152.368
2859.66	158.487
2860.98	163.878
2862.3	169.84
2863.62	174.613
2864.94	179.785
2866.25	184.285
2867.57	188.149
2868.89	192.4
2870.2	196.21
2871.52	199.447
2872.84	201.876
2874.15	204.829
2875.47	208.217
2876.78	210.661
2878.1	213.82
2879.41	216.742
2880.73	219.531
2882.04	222.937
2883.36	226.269
2884.67	229.586
2885.99	232.94
2887.3	236.943
2888.61	239.177
2889.93	242.054
2891.24	245.65
2892.55	249.336
2893.86	252.56
2895.18	255.764
2896.49	258.74
2897.8	262.625
2899.11	266.463
2900.42	269.532
2901.73	273.656
2903.05	277.854
2904.36	280.976
2905.67	285.777
2906.98	290.209
2908.29	294.475
2909.6	299.974
2910.91	305.388
2912.21	311.022
2913.52	316.467
2914.83	321.026
2916.14	325.864
2917.45	329.986
2918.76	333.544
2920.07	336.896
2921.37	339.99
2922.68	343.416
2923.99	345.512
2925.29	347.136
2926.6	348.347
2927.91	349.698
2929.22	350.105
2930.52	350.277
2931.83	349.471
2933.13	348.589
2934.44	347.546
2935.74	344.899
2937.05	342.067
2938.35	337.959
2939.66	334.234
2940.96	329.742
2942.26	324.209
2943.57	319.218
2944.87	313.696
2946.18	307.972
2947.48	302.272
2948.78	296.292
2950.08	290.055
2951.39	284.163
2952.69	277.06
2953.99	270.102
2955.29	263.981
2956.59	257.428
2957.9	250.562
2959.2	244.019
2960.5	237.039
2961.8	230.507
2963.1	223.785
2964.4	217.036
2965.7	210.138
2967	204.347
2968.3	198.642
2969.6	192.903
2970.9	187.685
2972.19	181.594
2973.49	175.894
2974.79	170.779
2976.09	164.882
2977.39	158.804
2978.68	153.05
2979.98	146.739
2981.28	140.92
2982.58	134.954
2983.87	128.76
2985.17	122.938
2986.47	117.564
2987.76	112.494
2989.06	106.705
2990.35	100.924
2991.65	95.0454
2992.94	89.1373
2994.24	82.8867
2995.53	77.1439
2996.83	71.4476
2998.12	66.395
2999.42	60.5073
3000.71	54.7714
3002	50.0671
3003.3	45.0496
3004.59	40.843
3005.88	36.5607
3007.18	32.3341
3008.47	29.3892
3009.76	26.4952
3011.05	23.4941
3012.34	20.7933
3013.64	18.7048
3014.93	16.143
3016.22	13.8451
3017.51	11.2781
3018.8	9.69565
3020.09	8.11606
3021.38	7.01315
3022.67	5.60807
3023.96	4.51909
3025.25	3.00672
3026.54	2.35095
3027.83	1.58515
3029.12	1.55044
3030.41	1.49378
3031.69	1.19789
3032.98	1.37556
3034.27	1.47604
3035.56	0.707106
3036.84	0.334643
3038.13	0.655627
3039.42	0.597151
3040.71	0.871414
3041.99	1.50771
3043.28	2.02807
3044.57	2.38351
3045.85	3.16887
3047.14	4.03506
3048.42	5.27653
3049.71	6.84412
3050.99	7.22326
3052.28	7.36172
3053.56	6.65745
3054.85	6.52243
3056.13	6.14237
3057.41	6.52606
3058.7	6.62868
3059.98	7.09929
3061.26	7.2754
3062.55	6.94564
3063.83	6.67073
3065.11	6.95073
3066.39	6.88189
3067.68	6.77897
3068.96	6.63937
3070.24	6.48725
3071.52	6.72303
3072.8	7.14697
3074.08	7.3116
3075.36	7.22372
3076.65	6.78984
3077.93	6.76711
3079.21	6.64086
3080.49	6.59402
3081.77	6.12289
3083.04	6.19553
3084.32	5.95266
3085.6	5.81806
3086.88	5.93892
3088.16	5.99602
3089.44	5.94632
3090.72	6.81318
3091.99	7.16314
3093.27	7.22334
3094.55	7.39523
3095.83	7.62276
3097.1	8.5788
3098.38	9.49379
3099.66	10.1658
3100.93	11.3589
3102.21	12.3325
3103.49	13.2253
3104.76	14.1296
3106.04	15.0725
3107.31	16.377
3108.59	17.892
3109.86	19.1192
3111.14	20.5448
3112.41	21.5922
3113.69	22.3378
3114.96	22.7295
3116.23	23.7385
3117.51	24.6776
3118.78	25.7103
3120.05	27.0623
3121.33	28.5102
3122.6	29.3767
3123.87	30.5149
3125.14	31.8395
3126.41	32.8253
3127.69	34.5464
3128.96	35.7618
3130.23	37.2846
3131.5	39.0342
3132.77	40.3867
3134.04	42.102
3135.31	43.7879
3136.58	45.2859
3137.85	46.4517
3139.12	47.7909
3140.39	48.9681
3141.66	50.3941
3142.93	51.8002
3144.2	53.4141
3145.47	55.3092
3146.74	56.9704
3148	59.1349
3149.27	60.5475
