#Acq. time (s)=	45
#Accumulations=	2
#Range (cm-¹)=	200...3150
#Windows=	2
#Auto scanning=	Off
#Autofocus=	Off
#Macrospot=	Off
#AutoExposure=	Off
#Spike filter=	Multiple accum.
#Delay time (s)=	0
#Binning=	1
#Readout mode=	Signal
#DeNoise=	Off
#ICS correction=	On
#Dark correction=	Off
#Inst. Process=	Off
#Detector Gain=	Best Dynamic Range
#Detector ADC=	20 kHz       
#Detector temperature (°C)=	-69.85
#Instrument=	LabRAM HR Evol
#Detector=	Synapse
#Objective=	x100
#Grating=	600 gr/mm
#ND Filter=	100%
#Laser (nm)=	532 
#Hole=	100.021
#Range=	Auto
#Laser Pol.=	No
#Raman. Pol.=	No
#Laser Pol. (°)=	-0.0007625
#Raman Pol. (°)=	89.9995
#Collection=	Microscope
#StageXY=	Marzhauser
#StageZ=	Marzhauser
#X (µm)=	-6958.5
#Y (µm)=	2179.2
#Z (µm)=	-74.45
#Full time(mm:ss)=	3:18
#Project=	
#Sample=	
#Site=	
#Title=	Mb_20_23_06_2x_45s_532 nm_x100_100%_600 gr_mm
#Remark=	
#Date=	13.07.2022 13:23
#Acquired=	13.07.2022 13:23:54
#Base:Fit=	10.08.2022 10:29:19
#Base:Fit=	10.08.2022 10:29:37
#Base:Sub=	10.08.2022 10:31:46
#Filter:Polynom=	16.08.2022 10:13:29
#AxisType[0]=Intens
#AxisUnit[0]=Cnt
#AxisType[1]=Spectr
#AxisUnit[1]=1/cm
200.563	27.7015
202.377	26.9564
204.194	28.458
206.008	27.9263
207.821	27.8894
209.634	27.5071
211.449	27.3808
213.262	27.3133
215.074	26.9964
216.885	26.6332
218.699	26.0331
220.51	25.6309
222.321	25.6756
224.131	25.7005
225.941	24.8108
227.751	24.9849
229.562	24.7104
231.371	23.6922
233.18	22.234
234.988	20.9438
236.796	19.5148
238.603	19.5543
240.411	18.7636
242.219	17.6087
244.026	16.6512
245.832	16.3094
247.638	16.0236
249.443	14.8043
251.248	13.3386
253.053	11.9298
254.857	11.3361
256.661	10.9312
258.465	9.34631
260.268	9.80687
262.071	9.2893
263.874	7.71936
265.678	7.88233
267.48	7.95061
269.282	7.76817
271.083	6.76032
272.884	5.51333
274.684	6.24947
276.484	4.7496
278.284	4.3889
280.084	4.31408
281.883	3.8937
283.682	1.63329
285.48	1.00293
287.276	0.454638
289.074	-0.965728
290.871	0.272406
292.668	1.54002
294.465	1.00644
296.261	2.51743
298.057	2.61445
299.853	3.87326
301.648	4.45698
303.443	4.02989
305.237	4.96096
307.032	5.73873
308.823	5.6514
310.617	6.41395
312.41	6.95957
314.203	7.20012
315.995	7.75982
317.788	8.48804
319.579	8.32312
321.369	8.44875
323.16	8.5866
324.951	8.46929
326.741	8.60276
328.531	9.679
330.321	9.47713
332.108	10.13
333.897	9.73579
335.686	10.0622
337.474	9.41541
339.26	9.00356
341.048	8.90496
342.835	8.67459
344.622	8.90877
346.406	8.61813
348.192	9.31241
349.978	8.63259
351.764	7.86293
353.547	7.61644
355.332	6.90287
357.116	7.0838
358.901	5.89908
360.682	4.86319
362.466	3.73483
364.249	3.01329
366.03	3.05373
367.812	4.23772
369.594	3.9184
371.374	4.91647
373.155	4.61669
374.936	6.33785
376.715	6.12587
378.495	6.62378
380.273	8.14315
382.053	7.82361
383.832	8.15356
385.609	8.32069
387.388	9.10753
389.164	8.87182
390.942	9.18949
392.72	10.1663
394.495	10.1164
396.272	9.72269
398.047	8.99072
399.823	9.59328
401.597	9.46085
403.372	9.05398
405.145	9.54816
406.92	9.24732
408.693	9.4551
410.467	9.20352
412.239	8.51818
414.012	7.5038
415.783	6.77067
417.556	6.94624
419.327	6.21047
421.099	5.48739
422.869	4.44635
424.64	4.91191
426.409	5.16337
428.18	4.99088
429.948	3.80439
431.718	2.86883
433.486	2.27587
435.253	0.933894
437.022	0.794635
438.789	0.590855
440.558	1.03926
442.324	0.390607
444.089	-0.034323
445.857	1.06134
447.622	1.00749
449.386	0.82134
451.153	1.00981
452.917	2.19189
454.682	3.59076
456.446	3.57445
458.208	3.81527
459.973	4.19274
461.735	4.2749
463.497	4.87225
465.259	5.35933
467.022	6.39055
468.783	7.47545
470.544	7.22709
472.306	9.17611
474.066	10.4662
475.825	12.4611
477.585	12.753
479.346	14.6411
481.104	15.2201
482.862	15.1545
484.62	15.765
486.38	16.6373
488.137	17.5683
489.894	19.496
491.65	21.0443
493.407	22.4672
495.164	23.4224
496.92	22.6741
498.675	22.8284
500.43	23.0648
502.184	24.5092
503.939	25.0972
505.694	26.8413
507.448	27.3532
509.201	28.0435
510.954	27.7701
512.706	28.4005
514.459	28.6932
516.21	28.5475
517.962	27.9373
519.715	27.9098
521.466	28.2005
523.216	28.1712
524.966	29.6543
526.716	30.3653
528.466	29.4432
530.215	29.9875
531.964	30.2093
533.712	30.2853
535.46	29.218
537.208	27.8411
538.955	27.2642
540.703	26.3724
542.449	25.5591
544.196	24.1985
545.942	24.7953
547.688	24.9864
549.433	25.1354
551.178	23.6896
552.923	22.7095
554.667	21.4422
556.412	21.6471
558.155	20.3033
559.899	20.1738
561.642	18.4391
563.385	17.6091
565.127	16.2609
566.867	14.9948
568.609	14.6202
570.35	13.5486
572.092	13.1505
573.832	12.4729
575.573	11.7441
577.313	12.0606
579.053	10.2294
580.79	8.65577
582.529	8.43541
584.268	7.35181
586.006	8.45746
587.745	8.50913
589.482	8.28709
591.218	6.36699
592.955	6.41131
594.692	5.75845
596.428	5.61493
598.164	5.54096
599.898	7.82425
601.634	8.39182
603.369	8.85639
605.104	9.27319
606.836	10.304
608.57	11.4126
610.304	12.248
612.037	14.0164
613.769	14.425
615.501	13.891
617.234	14.067
618.966	13.8044
620.696	13.9342
622.427	11.8835
624.159	11.5241
625.887	12.1969
627.618	13.5941
629.348	14.0648
631.076	13.6546
632.806	14.0267
634.535	14.0533
636.262	13.3432
637.99	11.612
639.716	11.4547
641.444	12.3913
643.172	11.8993
644.897	11.3187
646.624	10.387
648.348	10.6383
650.075	11.1484
651.801	10.438
653.524	10.8618
655.249	12.0597
656.972	11.069
658.697	11.3291
660.419	10.1921
662.143	10.6827
663.865	10.3582
665.588	9.73588
667.309	10.0343
669.032	11.1696
670.752	10.4423
672.474	10.5993
674.194	10.1976
675.915	9.89614
677.634	9.86483
679.355	10.9893
681.073	11.6232
682.793	13.4799
684.511	14.6553
686.23	15.9142
687.947	15.984
689.664	15.932
691.382	16.1601
693.098	17.0205
694.816	18.746
696.531	19.873
698.247	21.2092
699.963	21.7178
701.678	22.052
703.392	22.989
705.108	23.2185
706.821	23.5977
708.534	23.7913
710.249	26.8041
711.962	29.9276
713.674	31.8353
715.388	32.0315
717.099	33.4147
718.81	35.6194
720.523	37.1777
722.234	36.5876
723.944	36.9746
725.654	38.2462
727.365	39.9641
729.075	40.5676
730.784	42.5847
732.492	42.9508
734.202	44.3519
735.91	45.4805
737.618	46.147
739.325	47.5545
741.034	48.483
742.741	47.6721
744.447	48.877
746.153	49.8199
747.859	51.1406
749.564	51.3429
751.271	52.7467
752.976	54.2254
754.681	54.8778
756.385	54.9611
758.088	55.7567
759.792	55.7839
761.495	56.4235
763.2	56.6
764.902	57.2871
766.604	57.9976
768.306	58.6512
770.008	58.9814
771.709	60.0299
773.41	61.1755
775.11	62.3658
776.811	63.9392
778.51	65.8588
780.21	66.4275
781.909	67.5941
783.608	68.3028
785.307	68.6351
787.005	70.1961
788.703	71.6242
790.401	72.9978
792.098	75.4149
793.795	75.9124
795.492	78.2566
797.188	79.0695
798.884	79.3388
800.58	80.7921
802.276	81.1255
803.971	81.8928
805.665	82.5147
807.36	83.7491
809.054	85.5104
810.748	87.4369
812.441	88.3502
814.135	89.4799
815.826	89.3142
817.518	89.4222
819.21	90.6898
820.902	92.557
822.594	92.2482
824.285	93.1081
825.976	93.4144
827.665	94.1633
829.355	95.4349
831.045	95.4836
832.735	95.9186
834.424	96.3065
836.111	96.4735
837.8	95.7351
839.488	95.0022
841.177	94.315
842.864	93.2786
844.55	92.7077
846.237	92.1609
847.924	91.3785
849.61	90.0707
851.295	89.6942
852.98	89.3935
854.666	88.5282
856.349	87.0777
858.034	85.5436
859.719	83.9244
861.403	81.9064
863.085	81.7895
864.769	81.7104
866.452	80.7834
868.133	79.4432
869.816	78.5421
871.498	77.7959
873.179	76.5916
874.86	74.8623
876.54	73.5571
878.221	72.6045
879.902	73.3288
881.58	72.1254
883.26	72.175
884.938	72.4834
886.618	71.0063
888.297	71.3397
889.974	71.0017
891.653	70.2868
893.329	68.4461
895.007	67.5537
896.683	67.1745
898.36	65.972
900.035	66.2356
901.712	67.818
903.387	68.1201
905.063	67.7831
906.737	66.6404
908.412	67.0268
910.085	66.6191
911.76	67.0368
913.433	66.402
915.107	66.102
916.779	65.9231
918.452	64.1968
920.124	61.6681
921.797	61.1579
923.467	60.436
925.138	59.4248
926.81	59.1958
928.48	57.5462
930.151	55.491
931.82	54.644
933.489	53.6526
935.16	53.2013
936.828	53.7305
938.496	53.0428
940.165	52.6366
941.833	51.8076
943.5	50.5938
945.168	49.6876
946.834	49.4487
948.5	47.3719
950.168	45.4428
951.834	46.0583
953.499	44.8797
955.163	44.6442
956.83	43.8374
958.494	42.8517
960.158	42.2665
961.821	42.9508
963.487	42.4995
965.15	42.3195
966.812	42.3315
968.474	42.3088
970.138	42.7722
971.8	43.4309
973.461	43.7658
975.123	44.8838
976.783	46.0903
978.446	48.0345
980.106	49.3689
981.766	49.4415
983.425	52.0847
985.084	52.1054
986.743	51.7634
988.402	52.2382
990.06	52.6905
991.72	53.4245
993.378	54.5504
995.035	54.0056
996.692	54.1425
998.349	54.2174
1000.01	54.5328
1001.66	54.7997
1003.32	54.8363
1004.97	55.9977
1006.63	56.0951
1008.28	57.2764
1009.94	58.4245
1011.59	59.0221
1013.25	60.4582
1014.9	61.4162
1016.55	62.2329
1018.21	62.3664
1019.86	62.9767
1021.51	62.4601
1023.16	61.0487
1024.81	60.235
1026.47	60.3685
1028.12	61.8404
1029.77	61.2408
1031.42	61.2035
1033.07	61.9721
1034.72	62.7018
1036.37	61.75
1038.02	61.7653
1039.67	61.0611
1041.31	62.0487
1042.96	63.3376
1044.61	64.3183
1046.26	65.2865
1047.91	66.1724
1049.55	65.8768
1051.2	67.1759
1052.84	67.5717
1054.49	67.0073
1056.14	67.0218
1057.78	66.9667
1059.43	66.5686
1061.07	66.0399
1062.72	65.0489
1064.36	64.789
1066	64.177
1067.65	62.9815
1069.29	63.2646
1070.93	63.6098
1072.58	62.1997
1074.22	61.2302
1075.86	60.5597
1077.5	58.7015
1079.14	57.7899
1080.78	56.3207
1082.42	55.1681
1084.06	54.7422
1085.7	52.3947
1087.34	52.3888
1088.98	51.5587
1090.62	51.3353
1092.26	52.1073
1093.9	50.3786
1095.54	48.4427
1097.17	48.0766
1098.81	48.0653
1100.45	47.0984
1102.09	46.9028
1103.72	47.0215
1105.36	45.6157
1106.99	46.4444
1108.63	47.2906
1110.27	46.9447
1111.9	45.0184
1113.53	44.3612
1115.17	43.8022
1116.8	42.69
1118.43	41.8658
1120.07	41.4307
1121.7	40.8308
1123.33	40.7615
1124.97	40.1547
1126.6	38.3333
1128.23	38.0955
1129.86	36.0088
1131.49	34.3704
1133.12	33.8793
1134.75	32.351
1136.38	32.0725
1138.01	32.0264
1139.64	31.4161
1141.27	31.1532
1142.9	30.8523
1144.53	29.3875
1146.16	29.0475
1147.78	27.2503
1149.41	27.3587
1151.04	26.9455
1152.67	25.6534
1154.29	23.781
1155.92	22.3643
1157.54	21.8106
1159.17	20.283
1160.8	17.7633
1162.42	16.9141
1164.05	16.047
1165.67	14.8058
1167.29	13.116
1168.92	13.9707
1170.54	13.6383
1172.16	14.0596
1173.79	15.1532
1175.41	13.2692
1177.03	12.9725
1178.65	13.2606
1180.28	12.8027
1181.9	12.844
1183.52	12.5455
1185.14	12.3587
1186.76	11.3447
1188.38	12.4697
1190	11.873
1191.62	10.412
1193.24	10.6548
1194.86	10.1314
1196.47	11.0243
1198.09	11.2789
1199.71	11.8216
1201.33	12.1308
1202.95	13.2489
1204.56	14.3878
1206.18	14.8511
1207.8	16.1891
1209.41	17.7289
1211.03	19.9742
1212.64	23.0011
1214.26	25.9726
1215.87	28.369
1217.49	31.3121
1219.1	34.0809
1220.71	36.5183
1222.33	37.9565
1223.94	40.2898
1225.55	41.5657
1227.16	45.1272
1228.78	47.3703
1230.39	50.9114
1232	52.4839
1233.61	54.7456
1235.22	56.5716
1236.83	58.5215
1238.44	60.8486
1240.05	62.1835
1241.66	64.0286
1243.27	66.2764
1244.88	68.283
1246.49	70.7824
1248.1	73.0995
1249.71	75.4813
1251.32	76.2192
1252.92	76.5579
1254.53	76.625
1256.14	76.4707
1257.74	76.2683
1259.35	79.1251
1260.96	80.5158
1262.56	81.7267
1264.17	82.8284
1265.77	84.983
1267.38	87.1698
1268.98	90.1788
1270.59	92.2774
1272.19	95.5239
1273.79	98.4884
1275.4	100.537
1277	103.879
1278.6	106.718
1280.21	109.593
1281.81	113.103
1283.41	116.537
1285.01	118.769
1286.61	121.27
1288.21	125.356
1289.81	127.691
1291.41	130.16
1293.01	132.064
1294.61	132.564
1296.21	133.379
1297.81	134.86
1299.41	135.643
1301.01	136.362
1302.6	136.753
1304.2	138.343
1305.8	139.488
1307.4	141.238
1308.99	141.952
1310.59	141.453
1312.19	140.788
1313.78	140.284
1315.38	139.7
1316.97	138.27
1318.57	137.342
1320.16	135.302
1321.76	133.458
1323.35	130.42
1324.94	128.197
1326.54	125.651
1328.13	121.346
1329.72	118.091
1331.32	114.495
1332.91	110.639
1334.5	107.993
1336.09	106.25
1337.68	103.125
1339.27	102.154
1340.87	98.6879
1342.45	96.9199
1344.04	94.8995
1345.64	94.3553
1347.22	92.9273
1348.81	90.8699
1350.4	88.7332
1351.99	87.2299
1353.58	85.1777
1355.17	84.2859
1356.75	82.0507
1358.34	80.239
1359.93	78.9357
1361.51	78.6195
1363.1	77.7885
1364.69	77.3113
1366.27	75.9277
1367.86	75.8577
1369.44	74.0482
1371.03	72.9068
1372.61	72.3915
1374.2	71.8676
1375.78	72.3757
1377.37	73.4883
1378.95	73.9859
1380.53	74.7756
1382.11	75.6908
1383.7	76.4624
1385.28	77.7834
1386.86	77.6703
1388.44	78.0301
1390.02	77.4909
1391.6	77.0807
1393.19	77.1573
1394.77	77.4356
1396.35	76.4916
1397.93	76.8666
1399.51	77.3078
1401.08	78.7578
1402.66	81.0715
1404.24	83.3797
1405.82	86.5992
1407.4	89.6436
1408.97	93.6201
1410.55	97.5319
1412.13	101.891
1413.71	106.488
1415.28	111.852
1416.86	116.452
1418.43	123.003
1420.01	128.477
1421.59	135.921
1423.16	142.267
1424.73	149.354
1426.31	155.946
1427.88	162.681
1429.46	169.407
1431.03	176.936
1432.6	182.381
1434.18	188.268
1435.75	193.683
1437.32	200.136
1438.89	205
1440.46	209.196
1442.04	212.103
1443.61	215.687
1445.18	217.407
1446.75	219.1
1448.32	219.573
1449.89	220.241
1451.46	219.455
1453.03	217.34
1454.6	215.129
1456.16	211.95
1457.73	208.294
1459.3	202.94
1460.87	196.308
1462.44	189.614
1464	181.928
1465.57	173.32
1467.14	164.873
1468.7	156.053
1470.27	146.53
1471.83	138.174
1473.4	128.962
1474.96	119.945
1476.53	111.908
1478.09	104.625
1479.66	97.4088
1481.22	90.7606
1482.78	83.6577
1484.35	77.3048
1485.91	69.6852
1487.47	63.3701
1489.04	56.9356
1490.6	51.2909
1492.16	46.0192
1493.72	42.3842
1495.28	38.7031
1496.84	35.7903
1498.4	32.4634
1499.96	30.7038
1501.52	27.8297
1503.08	26.3319
1504.64	24.5741
1506.2	22.8736
1507.76	21.1626
1509.32	20.1394
1510.88	18.8756
1512.44	18.6347
1513.99	18.2053
1515.55	17.6912
1517.11	17.1833
1518.66	17.7315
1520.22	19.303
1521.78	20.3216
1523.33	20.1834
1524.89	20.723
1526.44	21.5563
1528	21.738
1529.55	21.3763
1531.11	22.0867
1532.66	23.5079
1534.21	23.309
1535.77	23.5511
1537.32	23.7955
1538.87	24.8084
1540.43	27.0252
1541.98	28.1408
1543.53	29.4614
1545.08	30.5942
1546.63	31.9514
1548.18	32.8149
1549.74	34.157
1551.29	35.4623
1552.84	36.8609
1554.39	37.8475
1555.94	39.8791
1557.48	41.5369
1559.03	42.6057
1560.58	43.052
1562.13	43.9943
1563.68	44.829
1565.23	46.6288
1566.78	48.3011
1568.32	50.5082
1569.87	52.5923
1571.42	53.6735
1572.96	55.506
1574.51	56.6506
1576.05	58.5537
1577.6	60.4913
1579.14	61.0958
1580.69	62.4283
1582.24	63.5235
1583.78	64.7946
1585.32	65.6426
1586.87	66.7136
1588.41	66.8996
1589.95	67.2622
1591.5	69.2791
1593.04	70.4162
1594.58	70.9721
1596.12	71.6631
1597.67	72.2699
1599.21	71.7098
1600.75	71.6841
1602.29	71.4572
1603.83	71.0385
1605.37	71.0965
1606.91	71.3986
1608.45	71.2342
1609.99	70.6267
1611.53	70.2274
1613.07	70.6732
1614.6	70.8651
1616.14	70.953
1617.68	71.4656
1619.22	70.9168
1620.75	70.4563
1622.29	70.805
1623.83	71.1628
1625.37	70.5875
1626.9	71.4793
1628.44	71.6115
1629.97	72.9405
1631.51	74.3249
1633.04	76.1859
1634.58	77.8445
1636.11	78.2202
1637.65	80.0691
1639.18	82.5091
1640.72	83.3746
1642.25	85.4799
1643.78	86.8178
1645.31	88.3565
1646.85	90.0386
1648.38	91.2305
1649.91	93.3012
1651.44	93.6306
1652.97	95.5303
1654.5	96.0644
1656.03	96.2051
1657.56	97.3505
1659.1	97.6431
1660.62	97.2397
1662.15	97.6035
1663.68	96.6838
1665.21	96.6602
1666.74	97.5869
1668.27	97.5063
1669.8	96.1371
1671.32	94.5782
1672.85	92.8791
1674.38	90.6322
1675.91	88.3393
1677.43	85.1752
1678.96	82.6007
1680.49	80.2669
1682.01	77.646
1683.54	73.2058
1685.06	69.1911
1686.59	65.291
1688.11	62.56
1689.64	59.8622
1691.16	57.6722
1692.68	55.1705
1694.21	52.0655
1695.73	49.5614
1697.25	47.9289
1698.78	45.306
1700.3	42.6135
1701.82	39.8461
1703.34	39.5067
1704.86	37.522
1706.39	37.4381
1707.91	35.1878
1709.43	33.6998
1710.95	32.5527
1712.47	30.7434
1713.99	31.0006
1715.51	29.7352
1717.02	28.3248
1718.54	28.6243
1720.06	28.5378
1721.58	29.2338
1723.1	29.464
1724.62	29.0567
1726.13	29.062
1727.65	28.5948
1729.17	29.5641
1730.68	28.8679
1732.2	28.2081
1733.72	27.199
1735.23	26.8586
1736.75	26.9757
1738.26	27.0933
1739.78	26.7639
1741.29	27.7682
1742.81	26.999
1744.32	25.9258
1745.84	25.1288
1747.35	23.2335
1748.86	22.2681
1750.37	21.345
1751.89	20.4467
1753.4	18.7652
1754.91	18.0743
1756.42	17.1501
1757.93	15.7355
1759.45	14.1044
1760.96	14.0034
1762.47	13.2173
1763.98	13.3116
1765.49	12.6757
1767	11.5663
1768.51	10.3129
1770.02	9.73729
1771.53	8.8623
1773.03	7.89741
1774.54	6.76361
1776.05	6.05401
1777.56	5.20822
1779.07	5.5506
1780.57	4.91085
1782.08	4.91559
1783.59	4.01324
1785.09	4.20026
1786.6	4.26157
1788.11	3.4531
1789.61	3.41681
1791.12	3.27599
1792.62	3.49058
1794.13	3.96672
1795.63	4.12056
1797.13	4.29922
1798.64	3.9971
1800.14	3.39058
1801.65	3.90388
1803.15	3.6897
1804.65	4.0799
1806.15	3.53481
1807.66	3.53989
1809.16	3.49613
1810.66	4.25985
1812.16	4.42432
1813.66	4.42386
1815.16	4.81419
1816.66	4.73608
1818.16	4.49716
1819.66	4.34056
1821.16	4.17713
1822.66	3.76486
1824.16	4.13431
1825.66	3.6802
1827.16	3.29556
1828.66	2.8515
1830.16	3.30387
1831.65	3.07804
1833.15	2.5625
1834.65	2.52965
1836.14	2.84577
1837.64	2.81545
1839.14	3.32566
1840.63	2.84658
1842.13	3.11729
1843.62	3.65293
1845.12	3.39671
1846.61	3.04662
1848.11	3.41653
1849.6	3.01181
1851.1	2.55598
1852.59	2.91034
1854.08	3.79789
1855.58	4.01585
1857.07	3.85004
1858.56	3.9505
1860.05	4.04974
1861.55	4.39906
1863.04	4.99939
1864.53	6.07527
1866.02	7.69252
1867.51	7.42314
1869	7.19206
1870.49	8.54523
1871.98	8.45868
1873.47	8.83267
1874.96	9.47943
1876.45	9.81273
1877.94	10.116
1879.43	10.7489
1880.92	10.7369
1882.41	11.015
1882.51	11.1243
1884	11.0557
1885.5	11.3217
1886.99	11.3381
1888.48	11.1204
1889.98	11.1932
1891.47	11.2015
1892.96	10.8681
1894.46	11.0637
1895.95	11.0287
1897.44	11.0699
1898.93	11.606
1900.42	11.5305
1901.91	11.0303
1903.41	10.7942
1904.9	9.96461
1906.39	9.59866
1907.88	8.75891
1909.37	8.60557
1910.86	8.70382
1912.35	9.03489
1913.83	8.54581
1915.32	8.68789
1916.81	7.33827
1918.3	6.62999
1919.79	6.23313
1921.27	5.46971
1922.76	4.21461
1924.25	3.7524
1925.74	3.36206
1927.22	2.75411
1928.71	2.3771
1930.19	1.65156
1931.68	2.35983
1933.17	2.48544
1934.65	4.0109
1936.14	4.28361
1937.62	3.83787
1939.11	3.06921
1940.59	1.85456
1942.07	2.24314
1943.56	3.37921
1945.04	2.83129
1946.52	3.46222
1948.01	3.83068
1949.49	3.88873
1950.97	4.37108
1952.45	4.70079
1953.93	4.84573
1955.42	5.42921
1956.9	5.56067
1958.38	5.05524
1959.86	4.85593
1961.34	4.91764
1962.82	4.39631
1964.3	4.14889
1965.78	4.03207
1967.26	3.87569
1968.74	4.34907
1970.21	4.1211
1971.69	4.89699
1973.17	5.06236
1974.65	4.83449
1976.13	4.83284
1977.6	5.0663
1979.08	5.88511
1980.56	6.30156
1982.03	6.81297
1983.51	7.97466
1984.99	7.84253
1986.46	7.53045
1987.94	7.28575
1989.41	7.29603
1990.89	6.87335
1992.36	7.41552
1993.84	7.17581
1995.31	7.07061
1996.78	7.89299
1998.26	8.79846
1999.73	9.93252
2001.2	10.5032
2002.68	10.9396
2004.15	11.0929
2005.62	11.8586
2007.09	11.3406
2008.56	11.2706
2010.04	9.5413
2011.51	9.0926
2012.98	8.79709
2014.45	9.13525
2015.92	9.13596
2017.39	9.12565
2018.86	8.64952
2020.33	8.54806
2021.8	9.48769
2023.26	9.1309
2024.73	8.95997
2026.2	8.79287
2027.67	8.11224
2029.14	6.79774
2030.61	5.34569
2032.07	4.51253
2033.54	3.9799
2035.01	3.84303
2036.47	3.49961
2037.94	3.11371
2039.4	3.49798
2040.87	3.0249
2042.33	3.50083
2043.8	3.89878
2045.27	4.74486
2046.73	4.36287
2048.19	4.31206
2049.66	3.89204
2051.12	4.51426
2052.59	5.5971
2054.05	5.4726
2055.51	6.08952
2056.97	6.17191
2058.44	6.25148
2059.9	6.56291
2061.36	7.29233
2062.82	7.74998
2064.28	8.39455
2065.74	9.41238
2067.21	9.81827
2068.67	10.3277
2070.13	11.5029
2071.59	11.3215
2073.05	11.6854
2074.51	11.7947
2075.96	12.488
2077.42	13.2517
2078.88	12.8671
2080.34	12.7858
2081.8	13.2966
2083.26	12.8863
2084.72	13.4908
2086.17	14.2588
2087.63	15.218
2089.09	15.4725
2090.54	16.2578
2092	16.8694
2093.45	17.7126
2094.91	18.3061
2096.37	18.3873
2097.82	18.5828
2099.28	18.9281
2100.73	19.2803
2102.19	19.2999
2103.64	20.1168
2105.09	20.6038
2106.55	20.6802
2108	20.3555
2109.45	20.8794
2110.91	21.1722
2112.36	21.9219
2113.81	22.0441
2115.26	23.3219
2116.72	24.8703
2118.17	25.6805
2119.62	26.2206
2121.07	27.1369
2122.52	28.5804
2123.97	30.2847
2125.42	31.7308
2126.87	33.0155
2128.32	34.6427
2129.77	35.2839
2131.22	36.5381
2132.67	37.6542
2134.11	39.2297
2135.56	40.7334
2137.01	42.2922
2138.46	44.6622
2139.91	46.2483
2141.35	48.4373
2142.8	50.2161
2144.25	50.7752
2145.7	52.8237
2147.14	54.7759
2148.59	55.6295
2150.03	56.1548
2151.48	56.8246
2152.92	57.6692
2154.37	58.7844
2155.81	60.2553
2157.26	62.0644
2158.7	63.3422
2160.15	64.035
2161.59	65.3145
2163.03	66.4843
2164.47	67.3138
2165.92	68.5602
2167.36	69.7298
2168.8	70.3503
2170.24	70.3498
2171.69	71.077
2173.13	71.3871
2174.57	71.072
2176.01	70.5923
2177.45	70.0631
2178.89	69.3364
2180.33	68.4782
2181.77	69.0343
2183.21	68.6004
2184.65	67.2824
2186.09	67.1287
2187.53	67.0024
2188.97	66.5336
2190.4	64.7798
2191.84	63.4625
2193.28	62.7119
2194.72	61.4437
2196.16	60.8344
2197.59	59.6192
2199.03	57.5308
2200.47	56.2811
2201.9	54.799
2203.34	53.4921
2204.77	52.3016
2206.21	51.1122
2207.64	50.392
2209.08	49.135
2210.51	47.7344
2211.95	45.5583
2213.38	44.1858
2214.82	42.3841
2216.25	40.9246
2217.68	40.4114
2219.12	38.4207
2220.55	37.3868
2221.98	36.389
2223.41	35.0154
2224.85	33.8896
2226.28	33.1633
2227.71	33.0051
2229.14	31.3723
2230.57	30.2779
2232	29.7857
2233.43	29.2467
2234.86	27.8997
2236.29	27.7259
2237.72	26.9952
2239.15	26.0101
2240.58	24.6807
2242.01	23.8451
2243.44	22.8782
2244.87	22.3031
2246.29	21.5669
2247.72	20.4089
2249.15	19.5555
2250.58	19.2971
2252.01	18.3934
2253.43	18.543
2254.86	18.4284
2256.29	17.68
2257.71	17.7054
2259.14	17.3913
2260.56	16.7747
2261.99	16.0594
2263.41	16.2749
2264.84	16.3429
2266.26	15.6594
2267.69	15.6924
2269.11	14.9482
2270.53	15.2435
2271.96	15.826
2273.38	15.6051
2274.8	15.2565
2276.23	15.2946
2277.65	15.3104
2279.07	15.5767
2280.49	15.4462
2281.91	15.5716
2283.34	15.9156
2284.76	15.4864
2286.18	15.1943
2287.6	14.6525
2289.02	14.5909
2290.44	13.8184
2291.86	13.8325
2293.28	12.3717
2294.7	11.9523
2296.12	12.2972
2297.54	12.5714
2298.96	12.7803
2300.37	12.2837
2301.79	12.6487
2303.21	12.3611
2304.63	12.459
2306.04	12.3755
2307.46	12.4514
2308.88	12.0974
2310.3	12.4239
2311.71	12.582
2313.13	12.705
2314.54	13.135
2315.96	13.734
2317.37	13.2203
2318.79	13.0028
2320.2	13.0702
2321.62	12.755
2323.03	12.5825
2324.45	13.3744
2325.86	13.184
2327.27	12.7406
2328.69	12.4634
2330.1	12.2349
2331.51	11.8118
2332.92	11.4824
2334.34	11.436
2335.75	11.221
2337.16	10.0354
2338.57	10.0864
2339.98	10.0935
2341.39	9.75303
2342.8	9.22354
2344.21	8.84528
2345.63	8.0206
2347.04	7.68275
2348.45	6.77459
2349.85	6.20038
2351.26	5.39791
2352.67	4.66161
2354.08	3.61736
2355.49	2.81854
2356.9	2.57014
2358.3	2.69607
2359.71	2.20126
2361.12	1.26065
2362.53	1.10073
2363.93	0.603204
2365.34	1.08404
2366.75	1.58141
2368.15	1.82378
2369.56	1.67328
2370.97	1.51026
2372.37	1.34541
2373.77	0.95172
2375.18	1.58528
2376.59	1.95244
2377.99	2.41469
2379.39	2.34746
2380.8	2.7901
2382.2	2.82889
2383.6	2.97472
2385.01	2.71762
2386.41	2.74355
2387.81	3.01354
2389.21	3.9711
2390.62	4.01648
2392.02	4.75843
2393.42	5.6566
2394.82	5.85055
2396.22	5.48682
2397.62	5.06947
2399.02	4.4009
2400.42	4.74405
2401.82	5.38768
2403.22	6.0124
2404.62	6.66554
2406.02	6.91899
2407.42	6.58075
2408.82	7.28554
2410.22	7.45728
2411.62	7.77954
2413.01	7.77529
2414.41	8.07988
2415.81	8.25907
2417.21	8.10547
2418.6	7.99726
2420	8.34906
2421.4	8.46156
2422.79	8.08328
2424.19	7.57238
2425.59	7.76254
2426.98	7.80464
2428.38	7.62028
2429.77	7.01555
2431.17	6.92127
2432.56	7.06417
2433.95	6.78617
2435.35	6.7991
2436.74	6.75458
2438.14	6.41113
2439.53	5.56287
2440.92	5.63719
2442.31	5.74488
2443.71	5.68516
2445.1	6.27733
2446.49	5.71505
2447.88	4.79428
2449.27	4.09687
2450.67	3.82691
2452.06	3.1568
2453.45	3.02041
2454.84	2.29818
2456.23	2.74393
2457.62	2.70315
2459.01	3.38403
2460.4	3.69059
2461.79	3.60043
2463.18	3.02411
2464.57	3.19593
2465.95	3.27143
2467.34	3.25175
2468.73	4.1213
2470.12	5.3031
2471.5	5.72629
2472.89	5.48973
2474.28	5.41167
2475.67	5.66036
2477.05	5.85133
2478.44	5.88643
2479.82	5.84187
2481.21	5.60965
2482.6	5.36095
2483.98	4.7533
2485.37	3.72741
2486.75	2.90033
2488.13	3.11979
2489.52	2.67968
2490.9	2.60254
2492.29	1.72139
2493.67	1.72245
2495.05	1.96217
2496.44	2.56002
2497.82	2.59702
2499.2	2.52324
2500.58	2.4166
2501.97	1.95904
2503.35	1.85637
2504.73	1.36322
2506.11	1.42208
2507.49	1.47115
2508.87	1.25215
2510.25	1.77404
2511.63	1.66132
2513.01	2.13964
2514.39	1.71763
2515.77	0.44798
2517.15	0.798035
2518.53	0.625251
2519.91	0.35253
2521.29	0.641902
2522.67	1.26906
2524.05	2.21705
2525.42	3.75888
2526.8	4.80179
2528.18	5.9225
2529.55	6.65269
2530.93	6.3278
2532.31	7.01664
2533.69	7.40912
2535.06	7.00073
2536.44	7.19988
2537.81	7.97213
2539.19	7.78422
2540.56	7.82602
2541.94	8.56189
2543.31	9.45361
2544.69	8.64196
2546.06	8.01031
2547.44	7.36978
2548.81	7.37673
2550.18	7.49635
2551.56	6.91583
2552.93	5.88182
2554.3	6.86459
2555.67	7.16262
2557.04	8.0671
2558.42	7.92577
2559.79	7.80366
2561.16	8.17146
2562.53	8.66625
2563.9	8.63739
2565.27	8.62604
2566.64	7.72545
2568.01	7.39194
2569.38	7.5782
2570.75	7.65407
2572.12	7.69215
2573.49	7.25975
2574.86	7.42138
2576.23	7.56385
2577.6	7.64577
2578.97	8.10851
2580.33	8.36924
2581.7	8.31038
2583.07	7.22248
2584.44	7.61468
2585.8	8.42072
2587.17	8.0891
2588.54	8.41512
2589.9	8.8533
2591.27	9.29485
2592.64	10.2233
2594	10.3566
2595.37	10.1567
2596.73	9.9729
2598.1	10.1609
2599.46	10.0424
2600.83	10.6448
2602.19	11.2532
2603.55	11.9801
2604.92	13.5083
2606.28	13.9268
2607.64	13.9277
2609.01	14.0719
2610.37	13.9164
2611.73	13.6884
2613.09	12.7246
2614.46	13.7028
2615.82	13.4564
2617.18	13.9542
2618.54	13.9068
2619.9	14.1483
2621.26	14.5629
2622.62	14.3437
2623.98	13.1083
2625.34	12.3423
2626.7	11.2953
2628.06	10.9788
2629.42	10.3131
2630.78	9.20656
2632.14	8.68927
2633.5	8.23088
2634.86	8.10693
2636.21	8.5077
2637.57	8.54103
2638.93	7.99238
2640.29	7.80631
2641.64	8.17217
2643	8.50875
2644.36	8.37725
2645.71	8.00876
2647.07	7.77303
2648.43	8.02169
2649.78	7.87604
2651.14	6.95455
2652.49	7.15642
2653.85	7.31742
2655.2	6.8159
2656.56	6.73417
2657.91	7.44561
2659.26	8.40307
2660.62	9.2427
2661.97	9.31585
2663.32	8.94457
2664.68	10.0244
2666.03	10.7502
2667.38	11.3119
2668.74	12.1437
2670.09	12.9006
2671.44	12.7327
2672.79	12.7496
2674.14	12.8887
2675.49	12.8276
2676.84	12.659
2678.19	13.2136
2679.54	13.2864
2680.89	13.2356
2682.24	13.8691
2683.59	13.5077
2684.94	14.6415
2686.29	14.3811
2687.64	14.594
2688.99	13.4302
2690.34	12.8635
2691.69	13.5485
2693.03	13.7544
2694.38	14.8052
2695.73	15.2237
2697.08	15.9039
2698.42	16.6823
2699.77	17.3637
2701.12	17.3776
2702.46	18.419
2703.81	19.6882
2705.15	20.1162
2706.5	20.4636
2707.85	21.0461
2709.19	21.048
2710.54	21.1962
2711.88	21.1331
2713.22	21.2407
2714.57	22.335
2715.91	22.7629
2717.26	22.0188
2718.6	21.8991
2719.94	22.9846
2721.29	23.8777
2722.63	23.775
2723.97	23.6859
2725.31	24.3487
2726.66	24.1184
2728	23.4992
2729.34	23.3029
2730.68	22.7312
2732.02	22.6261
2733.36	22.0503
2734.7	22.2057
2736.04	21.7604
2737.38	20.7827
2738.72	19.5607
2740.06	18.8365
2741.4	17.7362
2742.74	15.9153
2744.08	15.3416
2745.42	14.0646
2746.76	13.462
2748.09	13.3389
2749.43	12.8787
2750.77	11.906
2752.11	11.2883
2753.45	10.1539
2754.78	9.21319
2756.12	7.8993
2757.46	7.78747
2758.79	8.42512
2760.13	7.2328
2761.46	7.18787
2762.8	6.39208
2764.14	5.74099
2765.47	4.51214
2766.8	4.89426
2768.14	4.07688
2769.47	3.90493
2770.81	3.49426
2772.14	2.00764
2773.48	1.18114
2774.81	0.678662
2776.14	0.724093
2777.48	0.832187
2778.81	0.906368
2780.14	1.08764
2781.47	1.65477
2782.8	0.347035
2784.14	-0.067372
2785.47	0.744923
2786.8	0.923127
2788.13	1.03641
2789.46	0.647889
2790.79	1.11385
2792.12	0.952488
2793.45	0.445422
2794.78	-0.0458348
2796.11	0.0961446
2797.44	-0.578867
2798.77	-0.943658
2800.1	-0.93481
2801.43	-1.14644
2802.76	-2.54104
2804.09	-2.65151
2805.41	-3.01854
2806.74	-3.00086
2808.07	-4.06221
2809.4	-4.80565
2810.72	-5.0769
2812.05	-6.12458
2813.38	-5.23874
2814.71	-5.08507
2816.03	-4.16856
2817.36	-3.55223
2818.68	-1.33511
2820.01	2.31899
2821.33	7.05695
2822.66	13.3684
2823.98	21.2942
2825.31	28.9682
2826.63	37.4468
2827.96	47.5223
2829.28	56.8837
2830.6	67.0485
2831.93	77.5208
2833.25	89.0415
2834.57	99.1374
2835.9	110.536
2837.22	121.874
2838.54	133.563
2839.86	146.666
2841.18	159.593
2842.5	172.428
2843.83	185.56
2845.15	198.069
2846.47	211.065
2847.79	224.183
2849.11	236.798
2850.43	250.155
2851.75	263.646
2853.07	275.89
2854.39	288.644
2855.71	300.323
2857.03	311.709
2858.35	321.088
2859.66	331.155
2860.98	340.442
2862.3	349.255
2863.62	357.299
2864.94	364.781
2866.25	372.375
2867.57	378.711
2868.89	383.511
2870.2	388.7
2871.52	392.024
2872.84	394.454
2874.15	396.548
2875.47	399.236
2876.78	401.869
2878.1	405.138
2879.41	409.019
2880.73	412.169
2882.04	416.106
2883.36	419.795
2884.67	425.569
2885.99	430.523
2887.3	435.845
2888.61	440.666
2889.93	444.872
2891.24	448.789
2892.55	453.311
2893.86	456.069
2895.18	460.304
2896.49	464.437
2897.8	469.548
2899.11	473.77
2900.42	478.268
2901.73	483.378
2903.05	488.376
2904.36	493.546
2905.67	499.759
2906.98	506.024
2908.29	513.197
2909.6	520.872
2910.91	529.608
2912.21	537.145
2913.52	543.993
2914.83	550.102
2916.14	557.227
2917.45	562.772
2918.76	568.244
2920.07	572.615
2921.37	575.199
2922.68	577.868
2923.99	579.176
2925.29	581.007
2926.6	581.377
2927.91	581.317
2929.22	580.311
2930.52	577.547
2931.83	574.562
2933.13	570.37
2934.44	564.935
2935.74	558.685
2937.05	551.485
2938.35	544.405
2939.66	536.506
2940.96	528.193
2942.26	519.402
2943.57	510.251
2944.87	499.792
2946.18	488.004
2947.48	476.865
2948.78	465.683
2950.08	454.239
2951.39	440.7
2952.69	428.946
2953.99	416.455
2955.29	404.041
2956.59	391.968
2957.9	379.691
2959.2	367.542
2960.5	356.85
2961.8	345.183
2963.1	333.844
2964.4	322.294
2965.7	312.241
2967	301.623
2968.3	291.871
2969.6	282.571
2970.9	274.851
2972.19	266.082
2973.49	257.76
2974.79	248.843
2976.09	239.995
2977.39	229.57
2978.68	220.566
2979.98	211.915
2981.28	203.219
2982.58	193.09
2983.87	184.834
2985.17	175.113
2986.47	165.944
2987.76	156.917
2989.06	147.814
2990.35	139.023
2991.65	130.032
2992.94	121.932
2994.24	113.001
2995.53	104.347
2996.83	96.99
2998.12	89.6656
2999.42	81.4589
3000.71	74.5508
3002	68.3155
3003.3	61.9409
3004.59	55.6784
3005.88	50.1367
3007.18	44.7487
3008.47	39.4479
3009.76	34.2634
3011.05	30.2784
3012.34	27.2497
3013.64	23.7858
3014.93	20.1304
3016.22	16.6295
3017.51	14.47
3018.8	11.3774
3020.09	8.6285
3021.38	6.88848
3022.67	4.76202
3023.96	3.36977
3025.25	2.25188
3026.54	1.23704
3027.83	0.352846
3029.12	0.681915
3030.41	0.196928
3031.69	-0.357192
3032.98	-0.506271
3034.27	-1.15591
3035.56	-0.618051
3036.84	-0.114369
3038.13	0.975483
3039.42	1.63187
3040.71	1.68644
3041.99	2.64301
3043.28	3.50216
3044.57	5.00096
3045.85	5.46744
3047.14	6.31509
3048.42	7.41414
3049.71	7.84756
3050.99	8.09679
3052.28	8.38353
3053.56	8.81742
3054.85	8.91514
3056.13	9.22231
3057.41	9.18188
3058.7	8.97517
3059.98	9.05873
3061.26	9.59546
3062.55	9.56504
3063.83	9.62849
3065.11	9.63326
3066.39	8.20988
3067.68	7.82587
3068.96	7.84433
3070.24	7.86363
3071.52	7.66694
3072.8	7.37533
3074.08	7.28831
3075.36	7.22982
3076.65	6.22854
3077.93	5.88834
3079.21	5.42434
3080.49	4.25498
3081.77	4.04276
3083.04	3.5237
3084.32	3.80487
3085.6	4.61025
3086.88	4.11294
3088.16	4.54531
3089.44	4.72775
3090.72	5.37289
3091.99	5.85592
3093.27	6.24865
3094.55	6.47599
3095.83	7.6617
3097.1	8.51447
3098.38	10.2179
3099.66	11.5744
3100.93	12.8339
3102.21	13.7583
3103.49	14.7774
3104.76	15.2314
3106.04	17.3745
3107.31	18.8245
3108.59	20.415
3109.86	21.1788
3111.14	22.5555
3112.41	24.1138
3113.69	25.6314
3114.96	26.4312
3116.23	27.8505
3117.51	28.5716
3118.78	30.1369
3120.05	31.6639
3121.33	33.1588
3122.6	34.6896
3123.87	36.1248
3125.14	37.9551
3126.41	39.1696
3127.69	40.699
3128.96	41.6025
3130.23	43.0429
3131.5	46.0506
3132.77	47.8725
3134.04	49.5629
3135.31	50.8987
3136.58	52.8137
3137.85	54.4381
3139.12	55.9162
3140.39	57.7182
3141.66	59.7865
3142.93	61.5711
3144.2	63.5914
3145.47	65.6059
3146.74	67.9784
3148	69.5213
3149.27	71.847
