#Acq. time (s)=	45
#Accumulations=	2
#Range (cm-¹)=	200...3150
#Windows=	2
#Auto scanning=	Off
#Autofocus=	Off
#Macrospot=	Off
#AutoExposure=	Off
#Spike filter=	Multiple accum.
#Delay time (s)=	0
#Binning=	1
#Readout mode=	Signal
#DeNoise=	Off
#ICS correction=	On
#Dark correction=	Off
#Inst. Process=	Off
#Detector Gain=	Best Dynamic Range
#Detector ADC=	20 kHz       
#Detector temperature (°C)=	-70.08
#Instrument=	LabRAM HR Evol
#Detector=	Synapse
#Objective=	x100
#Grating=	600 gr/mm
#ND Filter=	100%
#Laser (nm)=	532 
#Hole=	100.021
#Range=	Auto
#Laser Pol.=	No
#Raman. Pol.=	No
#Laser Pol. (°)=	-0.0007625
#Raman Pol. (°)=	89.9995
#Collection=	Microscope
#StageXY=	Marzhauser
#StageZ=	Marzhauser
#X (µm)=	496.4
#Y (µm)=	2960.3
#Z (µm)=	-9.25
#Full time(mm:ss)=	3:19
#Project=	
#Sample=	
#Site=	
#Title=	Mb_20_23_49_2x_45s_532 nm_x100_100%_600 gr_mm
#Remark=	
#Date=	14.07.2022 10:04
#Acquired=	14.07.2022 10:04:26
#Base:Fit=	10.08.2022 10:29:37
#Base:Sub=	10.08.2022 10:35:48
#Filter:Polynom=	16.08.2022 10:13:29
#AxisType[0]=Intens
#AxisUnit[0]=Cnt
#AxisType[1]=Spectr
#AxisUnit[1]=1/cm
200.554	110.561
202.369	103.09
204.183	97.6943
205.999	92.2851
207.813	86.9111
209.626	81.7648
211.439	77.0301
213.253	73.3127
215.065	69.0255
216.877	65.6565
218.688	62.0209
220.5	58.4597
222.312	54.2462
224.123	52.2121
225.933	49.1004
227.742	46.4542
229.552	43.0582
231.361	40.4944
233.171	39.2805
234.98	38.5976
236.787	36.1278
238.595	32.9728
240.402	29.6613
242.209	27.9981
244.015	25.1993
245.822	23.1451
247.627	22.5338
249.435	21.6674
251.24	20.4955
253.045	20.7334
254.849	18.2725
256.653	16.6129
258.457	15.0177
260.26	12.9197
262.063	12.2774
263.866	12.1656
265.668	11.0989
267.47	11.2342
269.271	9.71529
271.073	8.8363
272.873	8.13696
274.674	7.77167
276.474	7.65827
278.274	7.78078
280.073	7.61458
281.872	6.29576
283.671	5.97075
285.47	5.69445
287.268	4.6935
289.065	4.12629
290.863	4.0557
292.66	3.74162
294.456	4.14189
296.253	4.18454
298.049	3.76741
299.844	4.64583
301.637	3.82464
303.432	3.70569
305.227	3.12835
307.021	4.00568
308.815	3.83931
310.609	4.55604
312.402	4.71765
314.195	5.45594
315.987	5.50174
317.777	6.55735
319.569	6.04312
321.36	7.1326
323.151	6.82493
324.942	5.91073
326.733	4.65422
328.521	4.84344
330.31	5.2906
332.1	5.26703
333.889	5.25488
335.677	6.29563
337.464	5.78679
339.252	5.17144
341.039	4.44528
342.826	5.45307
344.611	5.42836
346.398	5.82558
348.184	5.89435
349.97	6.55485
351.754	6.97534
353.539	7.05838
355.324	6.78184
357.106	7.02859
358.89	6.91741
360.674	6.732
362.455	7.09836
364.239	6.46359
366.021	6.3026
367.804	5.10021
369.584	4.10875
371.366	3.44154
373.145	4.1491
374.926	3.46847
376.707	4.04868
378.485	4.01414
380.265	3.4412
382.045	4.38814
383.822	4.84939
385.601	3.58601
387.378	3.30966
389.156	3.6127
390.934	3.70029
392.71	5.2441
394.487	5.58798
396.262	5.6914
398.038	5.59691
399.813	5.48488
401.588	5.60567
403.362	5.40812
405.137	5.0847
406.912	4.33723
408.685	4.17019
410.459	4.70029
412.23	4.9123
414.004	5.61337
415.775	6.28494
417.548	6.20519
419.318	5.63818
421.089	5.73497
422.86	6.02172
424.63	5.56377
426.401	4.7804
428.17	5.77293
429.94	6.39892
431.708	7.30334
433.478	7.80728
435.245	8.14174
437.012	8.48499
438.781	9.22466
440.547	9.77287
442.315	9.51108
444.081	10.3138
445.846	10.8956
447.613	11.2045
449.378	10.3769
451.142	11.8656
452.908	11.2203
454.672	11.1774
456.435	11.6621
458.2	12.7401
459.963	14.1878
461.725	15.3854
463.489	16.9049
465.251	18.7367
467.012	19.0257
468.775	19.4227
470.536	22.0455
472.296	22.0016
474.056	22.3824
475.817	22.8611
477.576	24.5275
479.335	24.8221
481.094	25.6931
482.854	24.4206
484.612	24.8931
486.37	25.5688
488.127	25.2566
489.886	26.4654
491.642	26.4494
493.398	27.0831
495.154	28.6734
496.91	29.2316
498.667	29.2789
500.422	29.9625
502.176	29.5246
503.93	29.0693
505.684	28.8883
507.438	29.2416
509.191	28.8088
510.946	28.3777
512.698	28.4106
514.45	27.7582
516.202	29.0774
517.954	29.691
519.705	29.4579
521.456	29.4198
523.206	29.042
524.956	29.0101
526.706	28.9635
528.456	28.7395
530.207	29.0075
531.956	29.6896
533.704	29.1232
535.452	28.5004
537.2	27.2951
538.947	27.2656
540.694	25.6096
542.441	26.1193
544.188	26.4406
545.934	26.3014
547.68	26.4375
549.425	26.2044
551.17	26.0971
552.915	25.2904
554.659	24.5421
556.403	24.1196
558.145	23.9823
559.889	21.1377
561.632	20.934
563.375	19.7867
565.117	20.2857
566.859	18.4077
568.601	17.4761
570.342	15.9187
572.083	15.2508
573.824	14.2248
575.565	13.887
577.303	13.8405
579.043	12.5533
580.782	12.113
582.521	12.116
584.26	10.5987
585.998	9.57705
587.734	8.34712
589.472	7.18611
591.21	5.91635
592.947	5.92818
594.684	4.84171
596.418	4.21554
598.154	4.59632
599.89	4.83738
601.626	5.01222
603.361	5.65038
605.094	5.20337
606.828	4.95881
608.562	5.35536
610.296	6.34741
612.027	7.13363
613.761	7.87769
615.493	9.01504
617.224	9.23451
618.956	8.78483
620.688	8.02704
622.419	8.08214
624.149	7.7224
625.879	7.92944
627.61	8.3295
629.338	9.21898
631.068	9.82266
632.797	10.8464
634.525	11.2093
636.254	11.4489
637.98	11.2752
639.708	10.4145
641.436	10.0439
643.162	9.94556
644.889	8.84809
646.614	8.12984
648.34	8.3651
650.067	7.67483
651.791	8.61781
653.516	8.04437
655.239	8.024
656.964	8.08765
658.687	7.66153
660.411	7.40363
662.133	7.24513
663.857	7.14461
665.58	7.17354
667.301	8.2256
669.024	7.576
670.744	6.09665
672.464	5.73932
674.186	6.75153
675.905	7.24624
677.626	8.35665
679.345	9.70245
681.065	10.6764
682.783	12.4333
684.503	13.6294
686.22	14.7962
687.939	15.6698
689.656	17.2735
691.372	19.1019
693.09	20.4179
694.806	21.867
696.523	24.0722
698.239	25.0023
699.953	26.2083
701.67	25.6616
703.384	25.9104
705.098	26.122
706.813	26.2442
708.526	27.2699
710.239	27.6711
711.954	29.1145
713.666	29.8029
715.378	30.9351
717.091	31.5075
718.802	31.9234
720.513	31.7696
722.226	31.5216
723.936	31.5568
725.646	31.8082
727.355	32.3869
729.067	32.7259
730.776	32.7558
732.484	32.5467
734.192	32.9523
735.902	33.8292
737.61	35.2225
739.317	35.201
741.024	34.9283
742.731	35.9792
744.439	36.5535
746.145	37.9741
747.851	39.946
749.556	41.7669
751.262	43.2415
752.966	44.6865
754.673	45.2721
756.377	46.6404
758.081	48.4798
759.784	50.3532
761.487	50.9565
763.19	51.66
764.892	53.5082
766.594	55.3526
768.296	56.7618
770	57.7663
771.701	58.818
773.402	59.2782
775.102	59.4724
776.803	60.4601
778.503	61.0315
780.202	62.2724
781.901	63.4608
783.6	63.9349
785.299	64.475
786.997	63.8152
788.695	65.4623
790.393	67.4134
792.09	66.1712
793.787	67.7423
795.484	68.7439
797.18	69.6239
798.877	69.7655
800.572	70.8118
802.268	71.7196
803.963	72.8757
805.658	73.6169
807.35	74.1241
809.044	74.2145
810.738	74.8489
812.432	74.8171
814.125	75.3771
815.818	76.3239
817.51	75.7646
819.202	78.1568
820.894	78.609
822.584	79.1474
824.275	80.0565
825.966	81.5115
827.657	82.972
829.347	83.3471
831.037	84.3874
832.725	84.826
834.414	84.8258
836.103	86.1066
837.792	86.1917
839.481	84.9299
841.167	84.3778
842.854	83.6053
844.542	83.0513
846.229	81.9574
847.914	81.8708
849.6	82.7951
851.287	81.5329
852.973	80.5707
854.656	79.2024
856.341	79.3696
858.026	78.3697
859.711	77.4482
861.393	78.3951
863.077	78.3653
864.761	78.2261
866.442	78.112
868.125	78.3139
869.808	77.6405
871.489	76.6587
873.171	77.7672
874.85	78.4651
876.532	76.158
878.213	77.702
879.892	76.8229
881.572	75.989
883.251	75.5749
884.931	74.4539
886.61	73.815
888.287	72.3343
889.966	70.6153
891.643	70.5999
893.321	70.9499
894.997	71.0958
896.675	70.6762
898.352	70.8373
900.028	70.6966
901.704	70.5987
903.379	70.8686
905.055	70.0947
906.729	70.47
908.404	70.4713
910.077	69.2789
911.75	67.9922
913.425	66.5238
915.097	64.7788
916.771	64.3916
918.443	63.4695
920.116	61.6018
921.787	59.6011
923.46	56.5561
925.13	55.8749
926.8	54.2263
928.472	53.7379
930.141	52.2412
931.813	52.6838
933.481	52.7639
935.15	51.17
936.82	49.6253
938.488	48.2963
940.156	47.9301
941.825	46.231
943.492	45.2353
945.158	45.5884
946.827	44.1636
948.493	42.5475
950.158	41.4164
951.824	41.2184
953.491	39.4315
955.156	37.1628
956.82	35.7319
958.486	33.5561
960.15	31.2299
961.814	29.5231
963.477	28.5302
965.142	27.7767
966.804	26.9627
968.467	25.6803
970.129	24.5949
971.79	24.7624
973.454	25.0162
975.115	25.9845
976.776	26.1339
978.436	25.2558
980.096	25.6884
981.756	25.3703
983.417	25.2596
985.077	25.5572
986.736	24.362
988.394	23.8236
990.052	23.3842
991.71	22.3832
993.368	22.6439
995.025	23.29
996.682	23.2162
998.341	22.8451
999.998	23.2896
1001.65	22.4395
1003.31	21.3805
1004.97	21.8477
1006.62	22.226
1008.28	24.6521
1009.93	25.9797
1011.58	28.4579
1013.24	29.7535
1014.89	32.854
1016.54	32.8868
1018.2	32.3509
1019.85	33.9856
1021.5	37.1238
1023.16	40.5429
1024.81	44.6316
1026.46	48.7594
1028.11	52.8038
1029.76	56.2212
1031.41	59.4834
1033.06	63.981
1034.71	67.1433
1036.36	69.9224
1038.01	72.0283
1039.66	76.2052
1041.31	79.7359
1042.95	83.2933
1044.6	85.6796
1046.25	88.3058
1047.9	90.1928
1049.54	91.0315
1051.19	92.3377
1052.84	93.592
1054.48	94.8971
1056.13	94.8082
1057.77	94.5696
1059.42	95.61
1061.06	95.1726
1062.71	94.676
1064.35	93.6774
1066	92.6242
1067.64	91.5704
1069.28	89.6962
1070.93	87.498
1072.57	85.7968
1074.21	83.013
1075.85	80.2274
1077.49	76.1259
1079.13	72.1532
1080.78	68.1866
1082.42	64.0833
1084.06	58.9159
1085.7	54.4522
1087.34	51.3957
1088.97	49.8874
1090.61	47.7632
1092.25	45.9664
1093.89	45.4689
1095.53	44.8298
1097.17	44.8784
1098.8	43.3138
1100.44	45.6999
1102.08	48.6522
1103.71	51.4829
1105.35	53.0965
1106.99	55.0481
1108.62	55.657
1110.26	55.6638
1111.89	56.7585
1113.52	56.8245
1115.16	57.7027
1116.79	56.6907
1118.43	57.4427
1120.06	56.4763
1121.69	57.2082
1123.32	55.642
1124.96	54.0301
1126.59	52.7023
1128.22	51.8253
1129.85	51.3416
1131.48	49.5533
1133.11	48.758
1134.75	46.1114
1136.37	44.2314
1138	42.0695
1139.63	39.2438
1141.26	37.2194
1142.89	35.6361
1144.52	32.6198
1146.15	30.3852
1147.78	27.3152
1149.4	25.248
1151.03	22.258
1152.66	19.0122
1154.28	16.9282
1155.91	13.7106
1157.54	11.2104
1159.16	8.6604
1160.79	6.71678
1162.41	2.12456
1164.04	-0.735247
1165.66	-2.0783
1167.29	-1.91834
1168.91	-1.02684
1170.53	0.675217
1172.16	1.62855
1173.78	1.39348
1175.4	2.06316
1177.02	2.30711
1178.65	2.23075
1180.27	2.5877
1181.89	2.91111
1183.51	1.92717
1185.13	1.52921
1186.75	1.96072
1188.37	3.21879
1189.99	3.03648
1191.61	3.1229
1193.23	3.6998
1194.85	3.61151
1196.47	4.40302
1198.08	5.79535
1199.7	6.42299
1201.32	7.32552
1202.94	8.20981
1204.55	8.24764
1206.17	9.44988
1207.79	12.0062
1209.4	12.8666
1211.02	13.3419
1212.63	13.8368
1214.25	16.1446
1215.86	16.2919
1217.48	17.7226
1219.09	18.8922
1220.71	20.2598
1222.32	22.3445
1223.93	25.3611
1225.54	25.3982
1227.16	28.1484
1228.77	29.6956
1230.38	31.8154
1231.99	32.3315
1233.6	33.6529
1235.22	35.4208
1236.83	35.4773
1238.44	36.5832
1240.05	37.4
1241.66	39.3308
1243.26	39.929
1244.87	42.5771
1246.48	42.9819
1248.09	43.6253
1249.7	43.7501
1251.31	42.7169
1252.92	41.4281
1254.52	39.0409
1256.13	41.1137
1257.74	43.9272
1259.34	46.4598
1260.95	50.6032
1262.55	55.2157
1264.16	61.0677
1265.76	67.1102
1267.37	72.0119
1268.97	77.1208
1270.58	81.3752
1272.18	86.4519
1273.78	92.7949
1275.39	98.1072
1276.99	103.413
1278.59	110.265
1280.2	114.183
1281.8	118.799
1283.4	123.167
1285	126.86
1286.6	130.914
1288.2	133.635
1289.8	135.287
1291.4	138.799
1293	140.475
1294.6	142.481
1296.2	143.339
1297.8	144.493
1299.4	145.178
1301	145.285
1302.6	145.251
1304.19	145.108
1305.79	143.223
1307.39	141.458
1308.99	138.307
1310.58	135.836
1312.18	131.452
1313.77	128.722
1315.37	125.076
1316.96	120.646
1318.56	116.915
1320.15	112.621
1321.75	107.235
1323.34	100.997
1324.94	94.0534
1326.53	88.5369
1328.12	84.1726
1329.72	79.0295
1331.31	75.731
1332.9	73.9588
1334.49	72.432
1336.08	72.1911
1337.67	71.6402
1339.27	70.1307
1340.86	70.1468
1342.45	69.2021
1344.04	67.4021
1345.63	65.5398
1347.22	63.8171
1348.8	63.8044
1350.39	63.3531
1351.98	62.877
1353.57	62.9512
1355.16	61.653
1356.75	61.2918
1358.33	60.782
1359.92	59.0451
1361.51	58.731
1363.09	59.3097
1364.68	57.9418
1366.27	57.9234
1367.85	57.7367
1369.44	58.1426
1371.02	58.5073
1372.61	57.82
1374.19	58.1865
1375.77	58.2309
1377.36	57.7552
1378.94	59.0075
1380.52	59.4162
1382.11	60.1012
1383.69	61.5725
1385.27	61.5516
1386.85	63.1359
1388.43	63.2675
1390.02	62.3788
1391.6	61.258
1393.18	62.2934
1394.76	62.2202
1396.34	62.4734
1397.92	63.6352
1399.5	66.1895
1401.08	69.4592
1402.65	74.8977
1404.23	81.3689
1405.81	89.5638
1407.39	96.8787
1408.97	105.937
1410.54	114.698
1412.12	122.918
1413.7	130.927
1415.27	139.96
1416.85	149.961
1418.43	159.696
1420	170.331
1421.58	179.863
1423.15	189.835
1424.73	200.923
1426.3	212.604
1427.87	223.754
1429.45	233.372
1431.02	243.477
1432.6	252.886
1434.17	261.142
1435.74	268.019
1437.31	274.655
1438.89	281.689
1440.46	286.188
1442.03	289.465
1443.6	291.058
1445.17	293.319
1446.74	293.42
1448.31	291.809
1449.88	289.297
1451.45	285.471
1453.02	281.471
1454.59	276.393
1456.16	269.897
1457.72	263.369
1459.29	254.488
1460.86	245.628
1462.43	235.365
1463.99	223.109
1465.56	211.229
1467.13	196.959
1468.69	184.503
1470.26	172.574
1471.83	161.535
1473.39	149.991
1474.95	139.59
1476.52	130.222
1478.08	122.155
1479.65	114.572
1481.21	106.933
1482.78	98.8427
1484.34	91.7463
1485.9	84.4038
1487.47	77.3039
1489.03	69.6339
1490.59	62.9736
1492.15	57.4485
1493.71	53.2395
1495.27	48.369
1496.84	44.1643
1498.39	40.9395
1499.96	37.999
1501.52	36.5959
1503.07	35.6526
1504.64	33.9013
1506.19	31.9751
1507.75	29.9451
1509.31	28.7283
1510.87	26.248
1512.43	24.4292
1513.98	23.4558
1515.54	23.7174
1517.1	23.7215
1518.65	22.4873
1520.21	21.9286
1521.77	22.1817
1523.32	22.9685
1524.88	22.9418
1526.44	22.1308
1527.99	22.23
1529.54	22.0026
1531.1	22.6124
1532.65	22.4934
1534.21	23.2165
1535.76	23.981
1537.31	24.4233
1538.87	25.1904
1540.42	26.1746
1541.97	27.0594
1543.52	27.5012
1545.07	28.9661
1546.63	30.0576
1548.18	31.2238
1549.73	31.7882
1551.28	32.5027
1552.83	34.2311
1554.38	35.7144
1555.93	37.2294
1557.48	38.0559
1559.03	38.3498
1560.57	39.313
1562.12	40.9396
1563.67	41.2657
1565.22	42.0844
1566.77	44.1431
1568.31	44.4691
1569.86	46.5599
1571.41	47.606
1572.95	48.1469
1574.5	49.9992
1576.05	52.5382
1577.59	54.3297
1579.14	55.937
1580.68	58.3111
1582.23	59.5552
1583.77	61.2966
1585.31	62.6158
1586.86	63.8984
1588.4	65.5028
1589.95	66.424
1591.49	67.3191
1593.03	68.2958
1594.57	68.9773
1596.11	70.0963
1597.66	70.7284
1599.2	71.3766
1600.74	70.7151
1602.28	70.3314
1603.82	68.9476
1605.36	68.3652
1606.9	67.7883
1608.44	67.4593
1609.98	67.7572
1611.52	67.8625
1613.06	67.3213
1614.6	67.5694
1616.13	67.277
1617.67	67.575
1619.21	67.4809
1620.75	67.4238
1622.28	66.8062
1623.82	65.8038
1625.36	65.7728
1626.89	65.2204
1628.43	65.9726
1629.96	65.8526
1631.5	65.6211
1633.04	65.2719
1634.57	64.6286
1636.11	65.0316
1637.64	64.5742
1639.17	65.8445
1640.71	66.8317
1642.24	67.9976
1643.77	68.3912
1645.31	68.7004
1646.84	69.9267
1648.37	70.5815
1649.9	71.157
1651.43	71.5489
1652.96	71.9499
1654.5	72.4745
1656.03	72.962
1657.56	73.4311
1659.09	72.629
1660.62	71.285
1662.15	69.8625
1663.67	69.3056
1665.2	67.4176
1666.73	65.1452
1668.26	63.8511
1669.79	63.1648
1671.32	61.6034
1672.84	58.9966
1674.37	55.9202
1675.9	54.3185
1677.43	52.3909
1678.95	50.8384
1680.48	48.0839
1682	45.9828
1683.53	44.4487
1685.05	43.2988
1686.58	42.1385
1688.1	40.1023
1689.63	38.3382
1691.15	37.1776
1692.68	36.0452
1694.2	35.5853
1695.72	34.2208
1697.25	32.4616
1698.77	30.5386
1700.29	31.1332
1701.81	30.529
1703.33	30.654
1704.86	29.9695
1706.38	29.4496
1707.9	28.9967
1709.42	28.1147
1710.94	28.3879
1712.46	28.959
1713.98	28.4899
1715.5	29.5508
1717.02	29.4841
1718.54	29.2489
1720.06	29.7884
1721.57	30.958
1723.09	31.7785
1724.61	31.9905
1726.13	31.8128
1727.64	31.8844
1729.16	31.9083
1730.68	31.9853
1732.19	31.9661
1733.71	31.4437
1735.23	30.5452
1736.74	29.7367
1738.26	29.6117
1739.77	29.5566
1741.29	28.3123
1742.8	27.6274
1744.31	27.2654
1745.83	27.05
1747.34	25.4804
1748.85	24.7756
1750.37	24.3107
1751.88	23.9256
1753.39	22.3169
1754.91	21.0863
1756.42	19.5854
1757.93	18.2761
1759.44	17.192
1760.95	16.2137
1762.46	15.1537
1763.97	13.6906
1765.48	12.8989
1766.99	12.7571
1768.5	12.1296
1770.01	11.6331
1771.52	11.0752
1773.03	10.7043
1774.54	10.1633
1776.04	10.6526
1777.55	9.57916
1779.06	9.41497
1780.57	8.13499
1782.07	8.62593
1783.58	8.72178
1785.09	8.92561
1786.59	8.88921
1788.1	8.47213
1789.6	8.28746
1791.11	9.10203
1792.61	8.83108
1794.12	8.66986
1795.62	9.28249
1797.13	8.68783
1798.63	8.95776
1800.13	8.24959
1801.64	7.9003
1803.14	7.88994
1804.64	7.44644
1806.15	7.75059
1807.65	7.95731
1809.15	7.30918
1810.65	7.30322
1812.15	7.46856
1813.65	7.3056
1815.16	7.41526
1816.66	7.03231
1818.15	6.97865
1819.66	6.79642
1821.16	7.27743
1822.65	6.37037
1824.15	6.3926
1825.65	5.47701
1827.15	5.03194
1828.65	4.33507
1830.15	3.51541
1831.64	3.68969
1833.14	3.90205
1834.64	3.91049
1836.14	3.69374
1837.63	4.04009
1839.13	3.48115
1840.62	3.54125
1842.12	4.07244
1843.62	3.99209
1845.11	4.72662
1846.61	5.38551
1848.1	5.53838
1849.6	4.65489
1851.09	5.13549
1852.58	5.09072
1854.08	5.04282
1855.57	4.72099
1857.06	4.9514
1858.55	4.2544
1860.05	3.60715
1861.54	2.73605
1863.03	2.98352
1864.52	3.14528
1866.01	3.28049
1867.5	2.66553
1869	3.03117
1870.49	2.90925
1871.98	2.87485
1873.47	3.95828
1874.96	2.97324
1876.44	2.64591
1877.93	2.92168
1879.42	2.24864
1880.91	2.53394
1882.4	2.66758
1882.47	2.06321
1883.96	1.7316
1885.46	2.08637
1886.95	1.65022
1888.44	1.12347
1889.94	1.37736
1891.43	1.15506
1892.93	0.51286
1894.42	1.52098
1895.91	0.487886
1897.4	0.655017
1898.89	1.18149
1900.39	2.30695
1901.88	3.01602
1903.37	3.52399
1904.86	4.6708
1906.35	4.124
1907.84	4.3149
1909.33	4.93784
1910.82	6.37602
1912.31	6.24228
1913.8	6.50036
1915.29	6.66614
1916.77	7.12015
1918.26	7.76684
1919.75	7.98382
1921.24	8.22273
1922.73	8.462
1924.21	9.04196
1925.7	8.35068
1927.19	7.67236
1928.67	7.56903
1930.16	8.03865
1931.64	7.93981
1933.13	7.83283
1934.61	7.68759
1936.1	8.1713
1937.58	7.39153
1939.07	7.50593
1940.55	7.18749
1942.04	6.77353
1943.52	6.17384
1945	6.34192
1946.49	6.55043
1947.97	5.0193
1949.45	4.63874
1950.93	3.98403
1952.42	2.78556
1953.9	2.50967
1955.38	1.45636
1956.86	0.468949
1958.34	0.435256
1959.82	-0.566342
1961.3	-1.40226
1962.78	-0.835503
1964.26	0.0266382
1965.74	0.0573505
1967.22	0.333476
1968.7	1.17476
1970.18	0.821512
1971.65	2.11896
1973.13	3.06726
1974.61	3.18554
1976.09	3.15705
1977.57	3.26236
1979.04	3.97523
1980.52	4.54539
1982	5.8446
1983.47	6.18555
1984.95	6.80645
1986.42	6.5965
1987.9	7.13806
1989.37	7.96442
1990.85	8.91114
1992.32	8.68632
1993.8	9.23184
1995.27	9.69325
1996.75	9.44949
1998.22	8.49483
1999.69	8.3722
2001.17	8.55077
2002.64	9.33284
2004.11	9.58565
2005.58	9.69131
2007.05	9.49254
2008.53	9.2261
2010	8.9389
2011.47	8.57079
2012.94	9.25236
2014.41	8.10105
2015.88	6.99091
2017.35	6.42509
2018.82	6.54987
2020.29	6.11142
2021.76	5.35789
2023.23	4.79571
2024.7	4.91152
2026.16	5.29181
2027.63	5.69829
2029.1	5.02363
2030.57	5.78485
2032.03	6.08494
2033.5	5.35184
2034.97	5.49515
2036.44	6.32727
2037.9	6.2016
2039.37	5.71558
2040.83	5.91596
2042.3	6.35216
2043.76	7.9758
2045.23	8.48532
2046.69	8.98868
2048.16	9.30989
2049.62	9.85932
2051.08	9.60529
2052.55	9.58556
2054.01	9.07754
2055.47	9.53215
2056.94	9.0743
2058.4	9.69622
2059.86	9.26668
2061.32	8.77411
2062.79	8.54656
2064.25	8.26061
2065.71	8.08973
2067.17	8.00837
2068.63	8.49283
2070.09	7.66065
2071.55	7.14749
2073.01	7.37304
2074.47	7.81408
2075.93	8.02291
2077.39	7.64526
2078.85	7.51661
2080.31	7.26529
2081.76	6.89521
2083.22	6.39776
2084.68	6.09274
2086.13	5.84027
2087.59	5.12736
2089.05	4.92965
2090.51	5.19106
2091.96	5.80822
2093.42	6.22095
2094.87	6.80826
2096.33	6.96777
2097.78	7.21156
2099.24	7.67855
2100.69	8.12369
2102.15	7.99788
2103.6	8.12309
2105.06	8.39301
2106.51	8.32467
2107.96	9.20819
2109.42	10.0846
2110.87	10.4473
2112.32	10.714
2113.77	11.8831
2115.23	12.8805
2116.68	14.3372
2118.13	14.1943
2119.58	15.4788
2121.03	16.0497
2122.48	16.6882
2123.93	16.9067
2125.38	17.3966
2126.83	18.3924
2128.28	19.4796
2129.73	20.1047
2131.18	21.3513
2132.63	21.1793
2134.08	22.0315
2135.53	22.6886
2136.97	23.4752
2138.42	24.0533
2139.87	24.7741
2141.32	26.1417
2142.76	25.328
2144.21	25.9752
2145.66	27.0487
2147.1	28.5356
2148.55	29.3988
2150	30.0495
2151.44	30.1079
2152.89	30.4576
2154.33	30.9368
2155.78	31.9361
2157.22	33.1004
2158.66	33.7606
2160.11	34.1912
2161.55	33.9931
2163	34.5068
2164.44	34.9167
2165.88	34.8296
2167.32	35.2099
2168.77	35.7267
2170.21	36.089
2171.65	37.551
2173.09	37.2683
2174.53	36.9931
2175.97	36.9481
2177.41	37.2173
2178.85	36.4782
2180.29	36.9595
2181.73	36.4802
2183.17	36.5085
2184.61	37.0482
2186.05	37.294
2187.49	37.3725
2188.93	37.2866
2190.37	36.5734
2191.81	36.2755
2193.24	35.4579
2194.68	34.8059
2196.12	33.5757
2197.56	32.9952
2198.99	32.5104
2200.43	31.4127
2201.87	29.9975
2203.3	28.7233
2204.74	27.9648
2206.17	27.2107
2207.61	25.932
2209.04	25.0699
2210.48	24.0959
2211.91	23.1592
2213.35	22.5427
2214.78	21.5724
2216.21	21.6742
2217.65	21.6917
2219.08	20.4792
2220.51	19.1564
2221.95	17.518
2223.38	16.6732
2224.81	16.2447
2226.24	15.1939
2227.67	14.371
2229.1	12.7523
2230.54	11.9535
2231.97	11.0849
2233.4	10.2333
2234.83	10.5415
2236.26	10.0271
2237.69	10.5495
2239.11	9.99316
2240.54	9.15145
2241.97	8.76282
2243.4	8.58747
2244.83	7.79626
2246.26	8.29381
2247.69	8.03834
2249.11	7.64627
2250.54	8.45129
2251.97	8.74537
2253.4	8.26266
2254.82	8.15531
2256.25	8.79508
2257.67	7.9721
2259.1	7.65714
2260.53	8.46161
2261.95	8.2149
2263.38	9.05235
2264.8	8.94179
2266.23	8.40413
2267.65	8.00686
2269.07	7.94345
2270.5	7.97381
2271.92	7.50267
2273.34	7.44535
2274.77	8.19288
2276.19	8.49634
2277.61	7.94637
2279.03	7.55745
2280.46	7.73888
2281.88	7.84738
2283.3	7.59171
2284.72	7.31304
2286.14	6.17179
2287.56	5.62431
2288.98	5.10597
2290.4	3.46397
2291.82	3.4909
2293.24	2.6703
2294.66	2.66344
2296.08	2.53763
2297.5	2.68453
2298.92	2.8956
2300.34	3.00991
2301.76	4.12818
2303.17	4.37727
2304.59	4.2933
2306.01	4.30634
2307.43	4.22759
2308.84	4.66575
2310.26	4.40635
2311.68	4.9738
2313.09	5.22972
2314.51	5.57907
2315.92	5.36016
2317.34	5.06263
2318.75	4.7484
2320.17	5.10788
2321.58	5.66685
2323	4.56182
2324.41	4.85664
2325.82	5.20401
2327.24	6.14142
2328.65	6.39584
2330.06	6.44046
2331.48	7.12984
2332.89	5.91401
2334.3	6.07856
2335.71	5.30049
2337.12	5.02581
2338.54	5.18974
2339.95	5.76303
2341.36	5.64427
2342.77	5.80467
2344.18	6.19046
2345.59	6.0892
2347	5.65397
2348.41	4.88556
2349.82	4.74881
2351.23	5.13605
2352.64	4.84047
2354.04	4.13224
2355.45	3.94496
2356.86	2.93842
2358.27	2.81763
2359.68	2.41798
2361.08	1.90967
2362.49	2.65789
2363.9	2.55922
2365.3	3.24286
2366.71	3.34908
2368.12	3.66809
2369.52	3.30437
2370.93	3.43864
2372.33	3.58591
2373.74	2.91782
2375.14	2.55556
2376.55	3.018
2377.95	3.38042
2379.36	3.5656
2380.76	2.99562
2382.16	2.77607
2383.57	3.0401
2384.97	3.06975
2386.37	3.27482
2387.78	3.70935
2389.18	3.98827
2390.58	3.98726
2391.98	3.48622
2393.38	2.89717
2394.79	3.43463
2396.19	3.41733
2397.59	3.68675
2398.99	3.22448
2400.39	3.03978
2401.79	3.57588
2403.19	2.88189
2404.59	2.68272
2405.99	2.99348
2407.39	3.54461
2408.78	4.17963
2410.18	5.07125
2411.58	4.80562
2412.98	5.8249
2414.38	5.63564
2415.77	5.0916
2417.17	4.54986
2418.57	4.48121
2419.97	4.72263
2421.36	4.60796
2422.76	4.97092
2424.15	4.56522
2425.55	4.50966
2426.95	4.27289
2428.34	5.04055
2429.74	5.31623
2431.13	5.38275
2432.52	5.52803
2433.92	4.62558
2435.31	4.46282
2436.71	4.01327
2438.1	3.81007
2439.49	2.71637
2440.89	3.12584
2442.28	3.62776
2443.67	3.47231
2445.06	3.92465
2446.46	4.16695
2447.85	4.0013
2449.24	3.76104
2450.63	3.05681
2452.02	3.34288
2453.41	3.47417
2454.8	3.30364
2456.19	3.79379
2457.58	3.00625
2458.97	1.97826
2460.36	1.69338
2461.75	1.8015
2463.14	1.0887
2464.53	1.46701
2465.92	2.12685
2467.31	2.4766
2468.69	1.90955
2470.08	1.8379
2471.47	1.25099
2472.86	0.161777
2474.24	0.387578
2475.63	0.734739
2477.02	0.657988
2478.4	0.829629
2479.79	0.845196
2481.17	0.749807
2482.56	1.62352
2483.94	0.846238
2485.33	0.770526
2486.72	0.815849
2488.1	1.00618
2489.48	1.15135
2490.87	1.44261
2492.25	1.93169
2493.64	1.38039
2495.02	1.63652
2496.4	2.30071
2497.79	1.94557
2499.17	1.37618
2500.55	0.549685
2501.93	0.638935
2503.31	0.0467363
2504.69	0.45526
2506.08	0.19555
2507.46	0.228972
2508.84	0.63865
2510.22	1.45267
2511.6	2.2328
2512.98	2.93148
2514.36	3.02732
2515.74	2.50976
2517.12	2.1322
2518.5	2.22822
2519.88	2.05484
2521.25	2.99722
2522.63	3.31069
2524.01	3.1808
2525.39	2.73955
2526.77	2.20225
2528.14	2.03427
2529.52	3.17137
2530.9	3.72555
2532.27	3.33963
2533.65	3.82568
2535.03	3.85189
2536.4	2.85803
2537.78	2.59896
2539.15	2.59762
2540.53	2.41537
2541.9	2.93787
2543.28	3.62337
2544.65	3.62985
2546.03	4.42663
2547.4	4.7294
2548.77	4.39552
2550.15	4.79293
2551.52	4.79649
2552.89	4.96336
2554.27	5.32446
2555.64	5.66025
2557.01	6.43216
2558.38	6.84489
2559.75	7.39657
2561.12	8.00363
2562.5	8.67312
2563.87	9.27517
2565.24	9.96777
2566.61	9.52329
2567.98	10.1936
2569.35	10.3436
2570.72	11.3031
2572.09	11.4244
2573.46	11.8908
2574.83	12.5417
2576.19	12.8635
2577.56	13.3972
2578.93	14.241
2580.3	15.2825
2581.67	14.698
2583.04	14.5084
2584.4	14.2867
2585.77	14.8934
2587.14	14.8897
2588.5	14.5669
2589.87	14.8657
2591.23	14.1781
2592.6	14.0835
2593.97	14.3393
2595.33	15.3458
2596.7	15.4113
2598.06	15.3681
2599.43	15.5405
2600.79	14.7941
2602.15	14.5751
2603.52	14.1312
2604.88	13.6006
2606.25	14.1931
2607.61	14.0796
2608.97	14.2079
2610.33	14.7157
2611.7	14.4323
2613.06	14.0612
2614.42	14.3317
2615.78	14.1235
2617.15	15.1302
2618.51	15.5441
2619.87	16.1016
2621.23	16.46
2622.59	16.7072
2623.95	17.2952
2625.31	17.3321
2626.67	17.4899
2628.03	18.3579
2629.39	18.5594
2630.75	19.4142
2632.1	19.6639
2633.46	19.9462
2634.82	19.4435
2636.18	19.9566
2637.54	20.1747
2638.89	20.322
2640.25	20.2502
2641.61	20.1234
2642.97	20.9251
2644.32	21.4003
2645.68	22.2683
2647.03	22.5289
2648.39	22.544
2649.75	21.6589
2651.1	21.3859
2652.46	21.1288
2653.81	21.1814
2655.17	21.1778
2656.52	20.9962
2657.88	21.5142
2659.23	22.5386
2660.58	22.9766
2661.94	22.9011
2663.29	22.963
2664.64	21.8429
2666	21.714
2667.35	21.9675
2668.7	21.3622
2670.05	20.9671
2671.4	21.1595
2672.76	21.1598
2674.11	22.1126
2675.46	21.505
2676.81	21.3342
2678.16	21.879
2679.51	22.1322
2680.86	22.691
2682.21	23.1541
2683.56	23.5583
2684.91	23.791
2686.26	23.6973
2687.61	24.248
2688.96	24.7271
2690.3	25.9309
2691.65	27.1493
2693	28.8439
2694.35	30.5371
2695.7	32.356
2697.04	34.0084
2698.39	36.9231
2699.74	38.1566
2701.08	39.6103
2702.43	41.2925
2703.77	43.0851
2705.12	44.6955
2706.47	46.9519
2707.81	48.9651
2709.16	50.9232
2710.5	53.5871
2711.85	54.3557
2713.19	54.4368
2714.53	55.0586
2715.88	56.0764
2717.22	55.8701
2718.57	56.9237
2719.91	57.9042
2721.25	57.8301
2722.59	58.1735
2723.94	58.5712
2725.28	59.0577
2726.62	58.8155
2727.96	57.6125
2729.3	56.9977
2730.65	55.8691
2731.99	53.9715
2733.33	52.889
2734.67	51.7682
2736.01	50.2211
2737.35	48.3722
2738.69	46.3363
2740.03	43.9785
2741.37	42.0235
2742.71	38.8176
2744.05	36.6578
2745.38	34.7338
2746.72	32.3395
2748.06	30.4876
2749.4	27.4726
2750.74	24.8068
2752.07	23.0559
2753.41	21.2749
2754.75	19.9221
2756.09	18.998
2757.42	18.0333
2758.76	17.4148
2760.09	16.4588
2761.43	15.4676
2762.77	15.5429
2764.1	14.9821
2765.44	14.2396
2766.77	13.4813
2768.11	13.779
2769.44	13.8292
2770.77	13.9363
2772.11	14.4883
2773.44	14.7687
2774.77	14.1238
2776.11	13.5207
2777.44	13.1763
2778.77	12.0097
2780.11	11.994
2781.44	12.8681
2782.77	13.0801
2784.1	12.6192
2785.43	12.8134
2786.77	13.2967
2788.1	14.0426
2789.43	15.106
2790.76	15.7649
2792.09	16.201
2793.42	16.6147
2794.75	16.6426
2796.08	16.2313
2797.41	15.0691
2798.74	15.2652
2800.07	14.97
2801.4	14.3848
2802.72	12.6669
2804.05	10.8403
2805.38	9.06757
2806.71	6.86196
2808.04	4.79024
2809.36	2.26186
2810.69	0.65671
2812.02	1.11497
2813.34	2.73793
2814.67	5.90183
2816	10.9768
2817.32	20.2068
2818.65	31.8793
2819.97	45.3403
2821.3	61.5704
2822.62	79.5403
2823.95	99.1342
2825.27	119.16
2826.6	141.107
2827.92	164.074
2829.25	188.605
2830.57	213.302
2831.89	238.86
2833.22	265.621
2834.54	290.452
2835.86	316.028
2837.18	340.935
2838.51	365.142
2839.83	389.09
2841.15	412.427
2842.47	434.126
2843.79	455.31
2845.11	475.728
2846.43	495.781
2847.76	517.29
2849.08	539.547
2850.4	562.312
2851.72	586.5
2853.04	611.469
2854.36	634.879
2855.67	656.607
2856.99	678.004
2858.31	697.498
2859.63	715.539
2860.95	731.059
2862.27	743.877
2863.58	755.594
2864.9	764.635
2866.22	770.579
2867.54	775.629
2868.85	779.075
2870.17	782.029
2871.49	783.631
2872.8	784.991
2874.12	786.195
2875.43	786.861
2876.75	788.892
2878.07	791.721
2879.38	794.077
2880.7	796.996
2882.01	801.977
2883.32	806.365
2884.64	808.877
2885.95	811.273
2887.27	812.398
2888.58	813.21
2889.89	811.585
2891.21	809.809
2892.52	807.463
2893.83	804.61
2895.14	800.465
2896.46	795.356
2897.77	789.158
2899.08	783.071
2900.39	776.759
2901.7	770.885
2903.01	763.815
2904.32	757.432
2905.63	752.076
2906.94	746.727
2908.25	743.021
2909.56	740.84
2910.87	741.434
2912.18	743.074
2913.49	747.894
2914.8	752.295
2916.11	755.573
2917.42	758.709
2918.72	759.971
2920.03	759.662
2921.34	759.117
2922.65	757.159
2923.95	752.794
2925.26	747.683
2926.57	741.414
2927.88	734.435
2929.18	727.424
2930.49	718.662
2931.79	710.542
2933.1	702.001
2934.4	692.726
2935.71	682.063
2937.01	671.08
2938.32	660.007
2939.62	647.504
2940.93	633.956
2942.23	621.049
2943.54	606.886
2944.84	591.937
2946.14	577.363
2947.45	562.041
2948.75	545.996
2950.05	529.004
2951.35	511.944
2952.66	494.837
2953.96	478.445
2955.26	460.37
2956.56	443.081
2957.86	426.162
2959.16	410.349
2960.46	394.169
2961.77	379.02
2963.07	364.042
2964.37	350.29
2965.66	337.312
2966.96	323.818
2968.26	311.585
2969.56	300.178
2970.86	289.073
2972.16	278.177
2973.46	268.259
2974.76	257.754
2976.06	248.04
2977.35	237.018
2978.65	227.003
2979.95	216.613
2981.25	205.694
2982.54	194.607
2983.84	183.689
2985.14	172.913
2986.43	163.015
2987.73	152.482
2989.02	142.214
2990.32	132.665
2991.62	123.984
2992.91	115.459
2994.21	107.183
2995.5	99.1292
2996.8	92.4119
2998.09	85.6969
2999.38	79.0463
3000.68	72.7721
3001.97	67.724
3003.26	62.6403
3004.56	57.477
3005.85	52.2363
3007.14	47.8833
3008.43	43.3887
3009.73	39.4358
3011.02	35.9938
3012.31	32.6076
3013.6	30.3413
3014.89	26.0632
3016.19	22.7912
3017.48	20.2969
3018.77	17.6857
3020.06	14.4854
3021.35	12.4757
3022.64	10.9317
3023.93	9.3636
3025.22	7.5833
3026.5	5.35181
3027.79	4.23258
3029.08	3.67805
3030.37	3.53709
3031.66	3.06044
3032.95	2.42939
3034.24	1.48307
3035.52	1.04877
3036.81	1.25352
3038.1	1.72815
3039.39	1.43922
3040.67	1.29753
3041.96	1.25765
3043.25	1.90861
3044.53	2.65221
3045.82	2.37318
3047.1	2.24211
3048.39	3.16115
3049.67	3.28608
3050.96	4.14415
3052.24	4.03398
3053.53	4.1041
3054.81	4.45328
3056.1	4.89067
3057.38	5.47774
3058.67	5.25627
3059.95	5.22461
3061.23	6.10076
3062.52	5.77539
3063.8	5.53418
3065.08	6.07835
3066.36	6.25873
3067.65	6.20308
3068.93	5.99674
3070.21	6.10774
3071.49	5.92771
3072.77	6.09561
3074.05	5.66846
3075.33	4.71831
3076.61	4.40877
3077.89	3.75662
3079.17	2.6995
3080.45	2.38812
3081.73	1.73754
3083.01	1.52546
3084.29	1.61993
3085.57	1.63848
3086.85	1.4746
3088.13	1.91556
3089.41	0.788102
3090.68	0.979173
3091.96	1.5897
3093.24	1.43645
3094.52	2.12539
3095.79	2.43931
3097.07	2.15467
3098.35	2.33595
3099.62	3.63401
3100.9	4.99863
3102.18	5.56846
3103.45	5.7681
3104.73	6.59967
3106	7.50498
3107.28	8.35618
3108.55	9.15711
3109.83	9.92086
3111.1	11.6639
3112.38	13.2738
3113.65	14.6233
3114.93	16.3356
3116.2	17.6702
3117.47	19.3901
3118.75	20.462
3120.02	21.9984
3121.29	23.5108
3122.57	24.8684
3123.84	26.8154
3125.11	28.8925
3126.38	30.1695
3127.65	31.9103
3128.92	33.4954
3130.2	34.8751
3131.47	36.5901
3132.74	38.4504
3134.01	40.2056
3135.28	41.2983
3136.55	43.2135
3137.82	44.9854
3139.09	46.6474
3140.36	49.1187
3141.63	51.2142
3142.9	53.4377
3144.17	55.6078
3145.43	57.5545
3146.7	58.7428
3147.97	59.5005
3149.24	60.6209
