#Acq. time (s)=	45
#Accumulations=	2
#Range (cm-¹)=	200...3150
#Windows=	2
#Auto scanning=	Off
#Autofocus=	Off
#Macrospot=	Off
#AutoExposure=	Off
#Spike filter=	Multiple accum.
#Delay time (s)=	0
#Binning=	1
#Readout mode=	Signal
#DeNoise=	Off
#ICS correction=	On
#Dark correction=	Off
#Inst. Process=	Off
#Detector Gain=	Best Dynamic Range
#Detector ADC=	20 kHz       
#Detector temperature (°C)=	-69.85
#Instrument=	LabRAM HR Evol
#Detector=	Synapse
#Objective=	x100
#Grating=	600 gr/mm
#ND Filter=	100%
#Laser (nm)=	532 
#Hole=	100.021
#Range=	Auto
#Laser Pol.=	No
#Raman. Pol.=	No
#Laser Pol. (°)=	-0.0007625
#Raman Pol. (°)=	89.9995
#Collection=	Microscope
#StageXY=	Marzhauser
#StageZ=	Marzhauser
#X (µm)=	-6893.9
#Y (µm)=	2173.9
#Z (µm)=	-74.85
#Full time(mm:ss)=	3:19
#Project=	
#Sample=	
#Site=	
#Title=	Mb_20_23_08_2x_45s_532 nm_x100_100%_600 gr_mm
#Remark=	
#Date=	13.07.2022 13:31
#Acquired=	13.07.2022 13:31:58
#Edit:Spike=	13.07.2022 13:34:48
#Edit:Spike=	13.07.2022 13:34:49
#Base:Fit=	10.08.2022 10:29:19
#Base:Fit=	10.08.2022 10:29:37
#Base:Sub=	10.08.2022 10:31:46
#Filter:Polynom=	16.08.2022 10:13:29
#AxisType[0]=Intens
#AxisUnit[0]=Cnt
#AxisType[1]=Spectr
#AxisUnit[1]=1/cm
200.563	106.404
202.377	104.349
204.194	101.352
206.008	97.3464
207.821	93.4876
209.634	89.4484
211.449	85.526
213.262	82.7459
215.074	79.5805
216.885	74.5719
218.699	73.2218
220.51	71.6761
222.321	71.5345
224.131	68.7202
225.941	65.9189
227.751	63.4479
229.562	60.6522
231.371	58.5752
233.18	55.9161
234.988	52.2516
236.796	49.8383
238.603	46.6881
240.411	43.565
242.219	40.1675
244.026	37.3668
245.832	35.505
247.638	33.6103
249.443	34.072
251.248	32.4149
253.053	30.5523
254.857	28.6548
256.661	24.8268
258.465	22.8591
260.268	21.7529
262.071	20.0406
263.874	17.5311
265.678	15.9797
267.48	15.2458
269.282	14.9597
271.083	13.8693
272.884	12.5746
274.684	11.305
276.484	9.90758
278.284	8.99941
280.084	7.29855
281.883	6.24892
283.682	6.54717
285.48	6.30943
287.276	5.4914
289.074	5.23358
290.871	4.71444
292.668	3.60114
294.465	4.13622
296.261	4.53521
298.057	6.11687
299.853	8.07223
301.648	9.40351
303.443	11.3834
305.237	11.583
307.032	13.7055
308.823	17.7935
310.617	19.2345
312.41	20.5343
314.203	19.9813
315.995	20.8126
317.788	21.8643
319.579	22.1053
321.369	22.9375
323.16	23.421
324.951	22.5855
326.741	23.2532
328.531	23.8904
330.321	23.6163
332.108	24.0137
333.897	25.4269
335.686	25.9525
337.474	25.9629
339.26	26.0731
341.048	24.0811
342.835	25.3027
344.622	24.7309
346.406	23.5083
348.192	23.2391
349.978	22.3119
351.764	19.4064
353.547	18.7466
355.332	18.9706
357.116	18.2895
358.901	16.3552
360.682	13.836
362.466	11.7289
364.249	8.77727
366.03	6.94504
367.812	6.15841
369.594	5.96171
371.374	5.49709
373.155	5.24237
374.936	4.0096
376.715	4.16456
378.495	4.56017
380.273	4.79142
382.053	4.05066
383.832	3.52486
385.609	4.34779
387.388	5.49675
389.164	5.21247
390.942	5.40779
392.72	5.08354
394.495	5.11728
396.272	6.00092
398.047	6.2286
399.823	5.42014
401.597	5.9393
403.372	6.7287
405.145	6.99152
406.92	6.25596
408.693	6.64943
410.467	6.61679
412.239	7.20729
414.012	6.63623
415.783	7.54115
417.556	8.76613
419.327	7.41641
421.099	8.33755
422.869	7.6661
424.64	7.487
426.409	7.6221
428.18	7.10114
429.948	7.54669
431.718	6.79731
433.486	4.5106
435.253	3.90042
437.022	3.02497
438.789	2.57031
440.558	1.95048
442.324	3.2381
444.089	3.01865
445.857	2.79409
447.622	1.11635
449.386	1.82157
451.153	2.89696
452.917	3.31634
454.682	4.91512
456.446	5.76234
458.208	4.91146
459.973	5.61842
461.735	7.03561
463.497	7.85508
465.259	8.34177
467.022	7.49343
468.783	6.82729
470.544	7.01118
472.306	6.78876
474.066	8.88303
475.825	8.82775
477.585	10.1473
479.346	10.3861
481.104	11.6273
482.862	12.19
484.62	13.8328
486.38	15.4663
488.137	17.4582
489.894	19.9474
491.65	21.4322
493.407	22.0691
495.164	23.5662
496.92	26.0044
498.675	28.2197
500.43	29.9733
502.184	30.3666
503.939	31.6777
505.694	32.9117
507.448	32.9263
509.201	34.4432
510.954	34.6602
512.706	34.7815
514.459	35.3269
516.21	34.6735
517.962	34.6262
519.715	35.2932
521.466	34.7342
523.216	34.627
524.966	34.0695
526.716	32.6515
528.466	33.758
530.215	35.0159
531.964	34.7064
533.712	34.5835
535.46	33.8061
537.208	34.0732
538.955	31.8258
540.703	30.4513
542.449	28.128
544.196	26.6474
545.942	24.8759
547.688	24.0754
549.433	23.0137
551.178	21.9098
552.923	20.4878
554.667	19.4784
556.412	20.4189
558.155	20.733
559.899	20.1077
561.642	20.8108
563.385	19.6403
565.127	19.2807
566.867	18.0009
568.609	17.673
570.35	16.5805
572.092	17.492
573.832	17.0978
575.573	16.2629
577.313	15.647
579.053	16.3078
580.79	16.6237
582.529	15.908
584.268	14.9443
586.006	14.2363
587.745	13.4904
589.482	13.1957
591.218	13.1103
592.955	12.9704
594.692	11.805
596.428	11.8139
598.164	10.2998
599.898	9.97875
601.634	11.0645
603.369	10.0576
605.104	10.944
606.836	11.1296
608.57	9.23756
610.304	10.291
612.037	10.7585
613.769	11.4678
615.501	13.2113
617.234	12.4847
618.966	10.2333
620.696	10.5178
622.427	10.4709
624.159	11.4992
625.887	10.1112
627.618	9.91487
629.348	8.4803
631.076	9.24372
632.806	7.17106
634.535	5.18713
636.262	4.60653
637.99	5.70925
639.716	7.0686
641.444	8.12521
643.172	10.0421
644.897	10.5164
646.624	10.4643
648.348	11.2671
650.075	12.3526
651.801	14.069
653.524	15.3509
655.249	15.7387
656.972	17.5819
658.697	17.6081
660.419	18.7947
662.143	19.7493
663.865	21.2169
665.588	22.6491
667.309	23.1297
669.032	22.185
670.752	21.7599
672.474	22.8239
674.194	22.7514
675.915	23.6851
677.634	24.5891
679.355	26.1662
681.073	27.3646
682.793	28.4509
684.511	28.5349
686.23	29.5162
687.947	30.463
689.664	31.7924
691.382	33.3306
693.098	33.0727
694.816	32.5727
696.531	32.7809
698.247	31.4614
699.963	31.2067
701.678	28.4035
703.392	25.5702
705.108	24.7871
706.821	26.1974
708.534	25.2715
710.249	24.1831
711.962	20.7679
713.674	18.7034
715.388	17.5034
717.099	16.2297
718.81	14.7659
720.523	15.3605
722.234	17.3583
723.944	20.3319
725.654	20.6528
727.365	21.0393
729.075	23.0442
730.784	22.3771
732.492	21.6977
734.202	23.1616
735.91	24.1268
737.618	24.1419
739.325	23.6704
741.034	24.501
742.741	26.2074
744.447	27.8399
746.153	30.8298
747.859	31.6883
749.564	33.662
751.271	35.1222
752.976	37.4184
754.681	39.302
756.385	42.6276
758.088	45.9985
759.792	48.7265
761.495	51.9455
763.2	53.8459
764.902	56.3399
766.604	57.0161
768.306	58.5541
770.008	60.3875
771.709	61.7232
773.41	62.8042
775.11	63.5568
776.811	62.7822
778.51	61.3935
780.21	61.1006
781.909	60.6105
783.608	59.9225
785.307	59.4575
787.005	58.0878
788.703	59.4938
790.401	61.8161
792.098	61.6839
793.795	61.4377
795.492	62.0359
797.188	61.3944
798.884	61.6506
800.58	62.2435
802.276	61.8205
803.971	62.6138
805.665	62.5982
807.36	62.4613
809.054	63.0854
810.748	62.5197
812.441	63.653
814.135	64.2417
815.826	63.5736
817.518	63.9427
819.21	65.6391
820.902	65.8083
822.594	66.9751
824.285	68.2022
825.976	69.8185
827.665	71.5102
829.355	73.8909
831.045	75.8078
832.735	75.3969
834.424	76.3952
836.111	75.9923
837.8	77.0651
839.488	76.4
841.177	75.9988
842.864	74.4153
844.55	73.9118
846.237	71.5753
847.924	70.5348
849.61	68.8157
851.295	67.3365
852.98	66.2902
854.666	63.6164
856.349	61.9798
858.034	59.5733
859.719	59.2367
861.403	56.3632
863.085	54.7501
864.769	53.5375
866.452	51.9128
868.133	51.1745
869.816	51.5923
871.498	52.0386
873.179	52.5174
874.86	50.7564
876.54	49.1223
878.221	50.7824
879.902	50.9696
881.58	50.2882
883.26	50.4355
884.938	50.8169
886.618	52.0009
888.297	52.5791
889.974	51.648
891.653	52.1687
893.329	53.209
895.007	53.2814
896.683	53.9462
898.36	53.8023
900.035	53.3993
901.712	51.5069
903.387	52.6063
905.063	52.991
906.737	52.4235
908.412	51.5226
910.085	51.7771
911.76	52.9589
913.433	52.4361
915.107	51.7543
916.779	50.3026
918.452	50.3115
920.124	50.1831
921.797	49.3647
923.467	49.2122
925.138	49.5618
926.81	49.5103
928.48	49.0981
930.151	48.0743
931.82	47.4921
933.489	46.5233
935.16	46.4432
936.828	45.7827
938.496	45.3501
940.165	44.9632
941.833	42.7837
943.5	41.3817
945.168	37.8732
946.834	36.8802
948.5	36.2589
950.168	35.1292
951.834	34.6936
953.499	34.0771
955.163	33.1777
956.83	31.6462
958.494	30.7579
960.158	31.2008
961.821	32.9965
963.487	33.3658
965.15	35.326
966.812	36.8265
968.474	38.4615
970.138	41.382
971.8	42.1467
973.461	44.2599
975.123	45.8148
976.783	47.5661
978.446	48.4812
980.106	48.555
981.766	50.1186
983.425	51.5568
985.084	51.7967
986.743	54.1511
988.402	53.5324
990.06	52.5207
991.72	53.8182
993.378	55.068
995.035	53.6668
996.692	52.5912
998.349	53.0639
1000.01	51.6158
1001.66	50.5368
1003.32	51.6489
1004.97	52.0217
1006.63	55.0324
1008.28	58.4945
1009.94	61.328
1011.59	65.0409
1013.25	69.637
1014.9	73.9471
1016.55	78.8431
1018.21	83.9866
1019.86	88.2431
1021.51	91.4333
1023.16	94.7137
1024.81	97.6171
1026.47	100.587
1028.12	105.444
1029.77	110.739
1031.42	116.195
1033.07	119.612
1034.72	123.225
1036.37	126.373
1038.02	129.498
1039.67	131.88
1041.31	134.672
1042.96	137.811
1044.61	140.172
1046.26	142.269
1047.91	143.557
1049.55	143.297
1051.2	143.02
1052.84	142.565
1054.49	139.218
1056.14	138.713
1057.78	135.191
1059.43	131.281
1061.07	127.095
1062.72	122.913
1064.36	119.461
1066	112.997
1067.65	106.475
1069.29	100.132
1070.93	94.3333
1072.58	89.6719
1074.22	84.353
1075.86	77.7898
1077.5	69.9327
1079.14	65.6051
1080.78	61.1696
1082.42	57.2937
1084.06	54.2503
1085.7	52.0754
1087.34	50.5369
1088.98	51.3184
1090.62	53.6259
1092.26	55.5588
1093.9	57.3539
1095.54	58.5345
1097.17	58.8808
1098.81	57.8152
1100.45	58.4647
1102.09	60.6326
1103.72	62.8757
1105.36	65.8919
1106.99	69.7449
1108.63	72.3901
1110.27	77.1186
1111.9	79.4089
1113.53	81.6808
1115.17	83.2661
1116.8	84.3849
1118.43	85.2014
1120.07	85.9388
1121.7	87.065
1123.33	88.3865
1124.97	89.1445
1126.6	87.193
1128.23	87.7929
1129.86	87.5759
1131.49	86.5564
1133.12	84.7442
1134.75	82.506
1136.38	80.0188
1138.01	78.7107
1139.64	74.5129
1141.27	71.9573
1142.9	68.7748
1144.53	66.0515
1146.16	63.342
1147.78	59.7019
1149.41	55.5484
1151.04	51.9872
1152.67	49.6059
1154.29	45.1234
1155.92	40.2357
1157.54	36.105
1159.17	30.6917
1160.8	27.2792
1162.42	23.5606
1164.05	19.8179
1165.67	15.3802
1167.29	14.5052
1168.92	14.9729
1170.54	14.2427
1172.16	13.0854
1173.79	11.7003
1175.41	10.5825
1177.03	8.98601
1178.65	8.39615
1180.28	9.54653
1181.9	12.8732
1183.52	15.3227
1185.14	16.3777
1186.76	18.5127
1188.38	21.4842
1190	21.4632
1191.62	23.9469
1193.24	25.5081
1194.86	27.8526
1196.47	29.2476
1198.09	30.1654
1199.71	31.5177
1201.33	34.7689
1202.95	35.8315
1204.56	37.4048
1206.18	38.8182
1207.8	41.0345
1209.41	43.5474
1211.03	44.7675
1212.64	44.9329
1214.26	48.012
1215.87	49.9005
1217.49	53.5174
1219.1	56.3178
1220.71	58.9279
1222.33	62.3508
1223.94	65.1937
1225.55	69.3613
1227.16	71.6733
1228.78	73.011
1230.39	75.7959
1232	80.1035
1233.61	82.8316
1235.22	85.7104
1236.83	88.6725
1238.44	91.7799
1240.05	92.7029
1241.66	96.1958
1243.27	98.9914
1244.88	102.967
1246.49	106.906
1248.1	110.653
1249.71	113.304
1251.32	114.403
1252.92	115.363
1254.53	118.44
1256.14	120.038
1257.74	122.309
1259.35	125.932
1260.96	128.625
1262.56	131.56
1264.17	135.911
1265.77	139.977
1267.38	145.138
1268.98	150.245
1270.59	153.412
1272.19	158.367
1273.79	162.369
1275.4	165.684
1277	168.619
1278.6	172.714
1280.21	176.528
1281.81	179.934
1283.41	183.366
1285.01	188.557
1286.61	192.555
1288.21	195.222
1289.81	197.937
1291.41	200.961
1293.01	202.762
1294.61	205.499
1296.21	205.118
1297.81	205.122
1299.41	204.066
1301.01	203.298
1302.6	202.94
1304.2	204.327
1305.8	206.828
1307.4	212.008
1308.99	217.904
1310.59	223.812
1312.19	228.912
1313.78	233.327
1315.38	238.137
1316.97	242.2
1318.57	246.871
1320.16	248.377
1321.76	252.336
1323.35	255.172
1324.94	257.18
1326.54	256.406
1328.13	255.507
1329.72	254.968
1331.32	253.81
1332.91	254.356
1334.5	255.264
1336.09	255.929
1337.68	254.65
1339.27	254.21
1340.87	252.94
1342.45	251.878
1344.04	250.895
1345.64	248.164
1347.22	245.507
1348.81	241.715
1350.4	236.855
1351.99	231.66
1353.58	227.244
1355.17	221.607
1356.75	217.669
1358.34	212.464
1359.93	207.072
1361.51	201.412
1363.1	196.641
1364.69	189.598
1366.27	181.656
1367.86	173.313
1369.44	166.281
1371.03	156.762
1372.61	149.178
1374.2	142.561
1375.78	136.424
1377.37	132.132
1378.95	130.524
1380.53	130.482
1382.11	131.12
1383.7	134.429
1385.28	137.97
1386.86	139.773
1388.44	140.119
1390.02	139.228
1391.6	139.803
1393.19	140.687
1394.77	141.824
1396.35	142.804
1397.93	142.6
1399.51	141.477
1401.08	144.211
1402.66	146.967
1404.24	148.351
1405.82	151.191
1407.4	154.851
1408.97	158.287
1410.55	161.615
1412.13	166.213
1413.71	171.982
1415.28	182.054
1416.86	189.934
1418.43	202.112
1420.01	213.097
1421.59	227
1423.16	241.467
1424.73	254.723
1426.31	268.231
1427.88	281.434
1429.46	293.864
1431.03	307.205
1432.6	320.546
1434.18	333.32
1435.75	346.837
1437.32	357.519
1438.89	367.405
1440.46	375.169
1442.04	381.236
1443.61	386.198
1445.18	389.399
1446.75	393.138
1448.32	396.82
1449.89	397.563
1451.46	397.792
1453.03	396.581
1454.6	394.141
1456.16	391.287
1457.73	386.313
1459.3	380.149
1460.87	372.489
1462.44	365.256
1464	354.376
1465.57	342.035
1467.14	329.682
1468.7	316.514
1470.27	303.971
1471.83	290.096
1473.4	275.863
1474.96	260.776
1476.53	244.914
1478.09	229.781
1479.66	215.217
1481.22	198.958
1482.78	180.538
1484.35	162.879
1485.91	142.535
1487.47	123.211
1489.04	106.957
1490.6	96.6552
1492.16	95.7276
1493.72	100.39
1495.28	106.202
1496.84	115.489
1498.4	125.389
1499.96	135.57
1501.52	145.051
1503.08	155.136
1504.64	164.965
1506.2	174.534
1507.76	183.1
1509.32	192.543
1510.88	200.422
1512.44	207.984
1513.99	213.793
1515.55	218.768
1517.11	222.958
1518.66	227.278
1520.22	231.168
1521.78	235.819
1523.33	238.567
1524.89	242.165
1526.44	243.216
1528	242.926
1529.55	241.582
1531.11	241.579
1532.66	239.967
1534.21	238.546
1535.77	236.047
1537.32	233.063
1538.87	228.803
1540.43	223.009
1541.98	216.128
1543.53	210.396
1545.08	202.848
1546.63	195.342
1548.18	186.449
1549.74	176.683
1551.29	166.66
1552.84	153.121
1554.39	139.545
1555.94	127.498
1557.48	114.478
1559.03	101.444
1560.58	89.7704
1562.13	79.8866
1563.68	72.3462
1565.23	72.0885
1566.78	77.1512
1568.32	86.112
1569.87	98.0426
1571.42	106.547
1572.96	112.551
1574.51	117.958
1576.05	122.2
1577.6	126.409
1579.14	130.379
1580.69	133.383
1582.24	135.33
1583.78	138.377
1585.32	140.339
1586.87	141.816
1588.41	143.457
1589.95	145.743
1591.5	147.967
1593.04	150.04
1594.58	151.314
1596.12	153.369
1597.67	154.607
1599.21	155.044
1600.75	154.244
1602.29	153.531
1603.83	152.915
1605.37	153.808
1606.91	152.919
1608.45	154.275
1609.99	154.489
1611.53	155.733
1613.07	156.751
1614.6	157.136
1616.14	157.675
1617.68	159.019
1619.22	159.721
1620.75	160.652
1622.29	161.215
1623.83	161.315
1625.37	162.885
1626.9	163.397
1628.44	165.517
1629.97	165.948
1631.51	169.55
1633.04	173.092
1634.58	175.272
1636.11	177.964
1637.65	180.653
1639.18	183.689
1640.72	186.762
1642.25	190.897
1643.78	194.144
1645.31	196.459
1646.85	199.438
1648.38	202.294
1649.91	204.501
1651.44	206.058
1652.97	205.878
1654.5	206.081
1656.03	205.203
1657.56	205.124
1659.1	203.874
1660.62	202.479
1662.15	200.257
1663.68	197.115
1665.21	194.834
1666.74	192.132
1668.27	187.978
1669.8	182.782
1671.32	177.752
1672.85	173.237
1674.38	166.701
1675.91	159.69
1677.43	153.467
1678.96	146.179
1680.49	141.274
1682.01	134.745
1683.54	126.692
1685.06	121.498
1686.59	114.611
1688.11	109.594
1689.64	103.401
1691.16	96.8424
1692.68	91.5159
1694.21	86.0611
1695.73	79.9049
1697.25	75.2687
1698.78	70.376
1700.3	65.5592
1701.82	63.0962
1703.34	59.1147
1704.86	57.5763
1706.39	54.8385
1707.91	52.6127
1709.43	49.5659
1710.95	47.0296
1712.47	45.1833
1713.99	43.2351
1715.51	41.7022
1717.02	39.2376
1718.54	37.7787
1720.06	36.3844
1721.58	34.596
1723.1	33.8803
1724.62	32.4418
1726.13	29.8326
1727.65	27.7195
1729.17	26.411
1730.68	25.4355
1732.2	24.5716
1733.72	23.9475
1735.23	22.217
1736.75	21.687
1738.26	21.7059
1739.78	20.8097
1741.29	20.5802
1742.81	19.6021
1744.32	18.5525
1745.84	17.5685
1747.35	17.2719
1748.86	16.5075
1750.37	15.0452
1751.89	14.5421
1753.4	14.2501
1754.91	13.2867
1756.42	13.507
1757.93	11.9133
1759.45	12.055
1760.96	12.1506
1762.47	10.8838
1763.98	10.6867
1765.49	9.1391
1767	8.26994
1768.51	7.48899
1770.02	6.63
1771.53	6.73806
1773.03	6.03278
1774.54	5.23212
1776.05	5.14093
1777.56	4.67715
1779.07	3.84588
1780.57	3.5898
1782.08	2.94902
1783.59	2.33087
1785.09	2.19307
1786.6	2.43839
1788.11	2.58668
1789.61	2.1298
1791.12	1.86416
1792.62	1.89849
1794.13	1.91249
1795.63	1.90846
1797.13	1.20871
1798.64	1.08586
1800.14	-0.100918
1801.65	-0.242452
1803.15	-0.121687
1804.65	0.809321
1806.15	0.218269
1807.66	0.645346
1809.16	0.338525
1810.66	0.412444
1812.16	0.934255
1813.66	1.23443
1815.16	0.807968
1816.66	-0.419885
1818.16	-0.545783
1819.66	-0.175309
1821.16	0.950439
1822.66	1.12666
1824.16	0.598853
1825.66	1.27061
1827.16	1.82085
1828.66	2.04438
1830.16	1.44312
1831.65	1.35355
1833.15	0.625763
1834.65	0.552925
1836.14	-0.691718
1837.64	-0.173747
1839.14	-0.335031
1840.63	-0.244107
1842.13	-0.0755358
1843.62	-0.0791993
1845.12	-0.0899467
1846.61	-0.892053
1848.11	-1.37308
1849.6	-1.48783
1851.1	-1.50798
1852.59	-1.85666
1854.08	-1.60977
1855.58	-1.37964
1857.07	-0.416661
1858.56	0.812731
1860.05	1.55941
1861.55	2.09432
1863.04	2.91582
1864.53	3.01531
1866.02	2.92175
1867.51	3.28321
1869	3.50787
1870.49	3.69743
1871.98	4.51343
1873.47	5.33895
1874.96	5.933
1876.45	6.28296
1877.94	6.66231
1879.43	6.50224
1880.92	5.78831
1882.41	6.59119
1882.51	6.52166
1884	6.62493
1885.5	6.49776
1886.99	6.99802
1888.48	6.94955
1889.98	6.84788
1891.47	7.76956
1892.96	7.98515
1894.46	8.23863
1895.95	7.22379
1897.44	6.80759
1898.93	7.29637
1900.42	7.73621
1901.91	7.1287
1903.41	7.21501
1904.9	6.9889
1906.39	6.70853
1907.88	6.89081
1909.37	6.8428
1910.86	7.42168
1912.35	6.71972
1913.83	7.0925
1915.32	7.09486
1916.81	6.59626
1918.3	6.06532
1919.79	5.36198
1921.27	6.02393
1922.76	5.70754
1924.25	6.19771
1925.74	6.01886
1927.22	6.02618
1928.71	6.27237
1930.19	5.934
1931.68	5.55882
1933.17	4.60516
1934.65	4.64589
1936.14	4.21817
1937.62	3.46732
1939.11	3.87364
1940.59	4.51116
1942.07	4.09512
1943.56	4.43821
1945.04	4.86931
1946.52	4.99702
1948.01	4.9372
1949.49	4.23477
1950.97	4.83969
1952.45	3.73795
1953.93	4.20742
1955.42	4.48123
1956.9	3.99352
1958.38	4.14247
1959.86	4.41509
1961.34	4.02335
1962.82	2.92196
1964.3	3.34015
1965.78	3.42143
1967.26	2.86638
1968.74	2.90596
1970.21	3.2535
1971.69	3.90426
1973.17	4.85458
1974.65	5.00129
1976.13	4.18868
1977.6	4.26944
1979.08	3.44211
1980.56	3.86858
1982.03	3.57206
1983.51	4.23946
1984.99	4.68831
1986.46	4.64582
1987.94	4.28843
1989.41	3.53238
1990.89	2.92061
1992.36	3.48144
1993.84	3.62253
1995.31	4.70148
1996.78	4.30967
1998.26	4.34006
1999.73	4.2556
2001.2	4.2108
2002.68	4.51626
2004.15	4.38687
2005.62	4.50027
2007.09	5.47507
2008.56	6.26815
2010.04	5.87812
2011.51	6.20472
2012.98	6.64366
2014.45	6.29954
2015.92	6.00342
2017.39	7.03482
2018.86	7.54249
2020.33	8.01544
2021.8	7.87132
2023.26	8.19742
2024.73	8.50234
2026.2	7.64189
2027.67	8.12466
2029.14	7.96844
2030.61	8.43068
2032.07	8.73958
2033.54	8.96972
2035.01	8.77489
2036.47	9.74491
2037.94	10.5149
2039.4	9.80513
2040.87	9.70486
2042.33	11.4601
2043.8	11.1317
2045.27	10.3523
2046.73	10.6686
2048.19	9.81047
2049.66	9.2727
2051.12	9.41055
2052.59	10.1839
2054.05	10.8377
2055.51	10.2814
2056.97	10.4291
2058.44	10.025
2059.9	9.24219
2061.36	8.23265
2062.82	8.41981
2064.28	9.3429
2065.74	8.8248
2067.21	9.07649
2068.67	8.82752
2070.13	8.65045
2071.59	8.99023
2073.05	9.02477
2074.51	8.15268
2075.96	7.98669
2077.42	7.87849
2078.88	7.84357
2080.34	8.99867
2081.8	8.40181
2083.26	9.0033
2084.72	10.4072
2086.17	11.4137
2087.63	11.9626
2089.09	12.2939
2090.54	13.4919
2092	14.175
2093.45	14.838
2094.91	15.5442
2096.37	17.1468
2097.82	17.5704
2099.28	18.4549
2100.73	20.1261
2102.19	21.337
2103.64	23.1109
2105.09	23.5614
2106.55	25.0305
2108	25.5315
2109.45	27.3785
2110.91	28.6961
2112.36	29.8383
2113.81	31.9982
2115.26	33.8236
2116.72	34.5619
2118.17	36.9011
2119.62	38.6678
2121.07	39.9834
2122.52	40.9819
2123.97	42.9561
2125.42	45.4313
2126.87	45.8488
2128.32	47.5674
2129.77	50.0809
2131.22	52.5838
2132.67	53.617
2134.11	55.4188
2135.56	58.2125
2137.01	60.0915
2138.46	61.6452
2139.91	66.1045
2141.35	67.5943
2142.8	70.9427
2144.25	74.2198
2145.7	77.1973
2147.14	80.2456
2148.59	83.8442
2150.03	87.4524
2151.48	90.7924
2152.92	94.4773
2154.37	97.8528
2155.81	101.992
2157.26	104.913
2158.7	106.866
2160.15	109.45
2161.59	112.595
2163.03	116.593
2164.47	118.77
2165.92	120.557
2167.36	122.703
2168.8	124.122
2170.24	125.033
2171.69	125.585
2173.13	125.882
2174.57	126.432
2176.01	127.254
2177.45	126.193
2178.89	126.578
2180.33	126.792
2181.77	126.297
2183.21	125.799
2184.65	124.197
2186.09	123.48
2187.53	122.103
2188.97	120.536
2190.4	119.133
2191.84	116.4
2193.28	114.414
2194.72	111.663
2196.16	110.485
2197.59	107.72
2199.03	105.004
2200.47	103.022
2201.9	100.116
2203.34	96.9553
2204.77	92.7381
2206.21	90.1296
2207.64	87.2936
2209.08	83.41
2210.51	80.9949
2211.95	78.8372
2213.38	74.993
2214.82	71.7249
2216.25	69.1317
2217.68	65.6142
2219.12	62.5528
2220.55	59.9383
2221.98	58.0922
2223.41	55.9683
2224.85	53.9705
2226.28	52.2435
2227.71	49.4823
2229.14	47.389
2230.57	44.8663
2232	43.2591
2233.43	41.9834
2234.86	40.2231
2236.29	38.0481
2237.72	35.9808
2239.15	34.6069
2240.58	32.585
2242.01	31.4095
2243.44	29.1793
2244.87	27.6346
2246.29	27.1948
2247.72	25.648
2249.15	24.8679
2250.58	25.489
2252.01	24.6518
2253.43	23.6127
2254.86	23.5027
2256.29	22.3883
2257.71	23.1871
2259.14	22.6052
2260.56	22.2927
2261.99	22.759
2263.41	21.647
2264.84	21.1682
2266.26	21.0826
2267.69	20.6142
2269.11	20.2203
2270.53	20.9421
2271.96	19.9629
2273.38	19.4664
2274.8	18.8687
2276.23	17.8221
2277.65	17.2427
2279.07	16.5652
2280.49	15.8561
2281.91	16.2657
2283.34	16.139
2284.76	15.7175
2286.18	15.7059
2287.6	16.822
2289.02	15.6573
2290.44	15.249
2291.86	13.9031
2293.28	13.357
2294.7	12.0771
2296.12	11.7944
2297.54	11.7489
2298.96	10.7726
2300.37	11.5986
2301.79	10.5048
2303.21	10.2522
2304.63	10.5443
2306.04	9.56313
2307.46	8.89002
2308.88	8.02899
2310.3	7.64091
2311.71	6.08871
2313.13	5.23697
2314.54	4.0108
2315.96	3.84736
2317.37	4.78877
2318.79	4.28603
2320.2	4.67348
2321.62	4.41684
2323.03	3.52984
2324.45	2.9829
2325.86	2.59111
2327.27	2.86241
2328.69	3.47597
2330.1	2.56268
2331.51	2.12334
2332.92	2.08333
2334.34	0.906627
2335.75	1.19249
2337.16	1.02254
2338.57	0.796545
2339.98	1.52012
2341.39	0.663819
2342.8	-0.200488
2344.21	-0.642191
2345.63	-1.11659
2347.04	-1.06043
2348.45	-1.59785
2349.85	-1.29832
2351.26	-1.11189
2352.67	-0.663915
2354.08	0.370652
2355.49	0.162412
2356.9	-0.391373
2358.3	-1.03778
2359.71	-1.78802
2361.12	-1.2297
2362.53	-1.14651
2363.93	-0.29991
2365.34	-0.103439
2366.75	0.982253
2368.15	1.31588
2369.56	1.59636
2370.97	1.44217
2372.37	0.257278
2373.77	0.513902
2375.18	1.38235
2376.59	0.966259
2377.99	1.29131
2379.39	1.13598
2380.8	1.23774
2382.2	1.65278
2383.6	2.7699
2385.01	3.3365
2386.41	3.83427
2387.81	4.12755
2389.21	4.10253
2390.62	4.8417
2392.02	5.27822
2393.42	4.88852
2394.82	4.88412
2396.22	5.17082
2397.62	5.81913
2399.02	6.01617
2400.42	5.23189
2401.82	5.05658
2403.22	6.00223
2404.62	5.68111
2406.02	6.27486
2407.42	6.135
2408.82	6.21386
2410.22	6.85951
2411.62	5.99292
2413.01	5.5849
2414.41	5.69598
2415.81	5.21557
2417.21	6.29625
2418.6	6.51323
2420	7.57658
2421.4	7.53008
2422.79	7.73377
2424.19	7.60019
2425.59	7.07317
2426.98	6.40801
2428.38	7.04272
2429.77	6.68798
2431.17	7.13782
2432.56	5.65874
2433.95	6.47931
2435.35	6.33195
2436.74	6.63572
2438.14	5.63803
2439.53	5.21597
2440.92	4.65068
2442.31	5.11644
2443.71	5.3353
2445.1	5.6998
2446.49	5.41351
2447.88	5.7658
2449.27	5.6442
2450.67	6.40766
2452.06	5.96088
2453.45	4.80524
2454.84	4.4941
2456.23	4.27967
2457.62	4.28962
2459.01	4.82853
2460.4	4.26967
2461.79	3.50883
2463.18	3.85113
2464.57	4.35562
2465.95	4.14355
2467.34	4.59842
2468.73	4.55418
2470.12	4.60795
2471.5	5.15794
2472.89	5.70878
2474.28	5.39459
2475.67	5.91911
2477.05	5.56027
2478.44	5.17226
2479.82	4.74444
2481.21	4.37098
2482.6	4.50245
2483.98	4.63524
2485.37	4.08791
2486.75	4.59258
2488.13	4.11743
2489.52	3.75727
2490.9	2.97638
2492.29	2.89144
2493.67	3.20251
2495.05	3.26536
2496.44	2.97383
2497.82	3.61825
2499.2	3.42532
2500.58	4.28012
2501.97	3.31089
2503.35	4.04652
2504.73	3.57593
2506.11	3.39852
2507.49	3.84362
2508.87	3.50456
2510.25	3.34811
2511.63	3.91736
2513.01	3.44566
2514.39	3.45578
2515.77	3.69245
2517.15	4.24027
2518.53	4.16777
2519.91	4.58748
2521.29	4.30623
2522.67	5.14331
2524.05	5.62009
2525.42	5.70243
2526.8	5.42838
2528.18	5.77103
2529.55	5.87952
2530.93	7.33692
2532.31	7.54969
2533.69	6.74092
2535.06	6.17069
2536.44	7.40292
2537.81	7.93475
2539.19	8.77588
2540.56	8.71068
2541.94	9.27249
2543.31	9.71936
2544.69	10.7506
2546.06	10.28
2547.44	11.1811
2548.81	12.29
2550.18	13.8331
2551.56	13.6995
2552.93	14.9045
2554.3	15.7526
2555.67	16.6822
2557.04	17.676
2558.42	17.8964
2559.79	18.2468
2561.16	18.1451
2562.53	18.9235
2563.9	19.0762
2565.27	19.4756
2566.64	19.1488
2568.01	19.7679
2569.38	19.9429
2570.75	19.8048
2572.12	20.4018
2573.49	20.753
2574.86	19.8202
2576.23	19.7245
2577.6	18.7034
2578.97	19.7578
2580.33	19.6401
2581.7	18.953
2583.07	19.2614
2584.44	19.1479
2585.8	19.1589
2587.17	17.6938
2588.54	17.7739
2589.9	17.1768
2591.27	17.0357
2592.64	15.8719
2594	14.708
2595.37	14.1309
2596.73	14.3673
2598.1	14.0187
2599.46	13.0573
2600.83	11.4794
2602.19	11.5559
2603.55	11.7827
2604.92	12.1766
2606.28	11.85
2607.64	12.3867
2609.01	12.6802
2610.37	13.1861
2611.73	13.7589
2613.09	14.3422
2614.46	14.5224
2615.82	15.3505
2617.18	15.3446
2618.54	15.8639
2619.9	16.4879
2621.26	17.7612
2622.62	18.2759
2623.98	18.4439
2625.34	17.8922
2626.7	17.3716
2628.06	17.3927
2629.42	17.4812
2630.78	17.7677
2632.14	18.1708
2633.5	18.6467
2634.86	19.1265
2636.21	20.5481
2637.57	20.2093
2638.93	19.835
2640.29	19.5439
2641.64	20.134
2643	19.6864
2644.36	19.8059
2645.71	20.3786
2647.07	20.1558
2648.43	20.538
2649.78	20.8977
2651.14	20.6309
2652.49	21.1279
2653.85	21.5455
2655.2	21.3143
2656.56	21.7389
2657.91	20.9445
2659.26	21.2909
2660.62	21.1726
2661.97	20.7666
2663.32	21.5144
2664.68	22.0199
2666.03	21.3562
2667.38	21.1115
2668.74	22.6006
2670.09	22.9377
2671.44	23.4358
2672.79	23.4453
2674.14	24.5764
2675.49	24.6281
2676.84	24.5053
2678.19	24.0758
2679.54	24.1665
2680.89	24.1879
2682.24	23.8807
2683.59	23.0016
2684.94	24.0181
2686.29	24.8659
2687.64	24.7629
2688.99	24.7045
2690.34	24.6328
2691.69	23.4655
2693.03	23.5961
2694.38	24.9809
2695.73	25.9683
2697.08	27.258
2698.42	28.0909
2699.77	29.6757
2701.12	30.6732
2702.46	30.9761
2703.81	31.7578
2705.15	31.5216
2706.5	32.1299
2707.85	34.2898
2709.19	36.0826
2710.54	36.9961
2711.88	38.4979
2713.22	39.5832
2714.57	40.3132
2715.91	41.878
2717.26	41.3584
2718.6	41.9996
2719.94	43.2875
2721.29	42.9675
2722.63	43.2545
2723.97	42.7802
2725.31	42.6734
2726.66	42.6182
2728	42.1919
2729.34	40.7701
2730.68	40.7623
2732.02	40.245
2733.36	38.9378
2734.7	38.1185
2736.04	36.707
2737.38	34.5067
2738.72	33.6389
2740.06	31.7519
2741.4	30.2917
2742.74	27.5257
2744.08	26.5757
2745.42	25.2918
2746.76	24.452
2748.09	22.8617
2749.43	20.6057
2750.77	18.9014
2752.11	18.661
2753.45	16.4884
2754.78	15.507
2756.12	14.7396
2757.46	13.5757
2758.79	12.725
2760.13	12.2232
2761.46	11.9506
2762.8	10.388
2764.14	9.81007
2765.47	8.64845
2766.8	7.09075
2768.14	5.73233
2769.47	5.03261
2770.81	4.37929
2772.14	3.6003
2773.48	3.924
2774.81	4.33801
2776.14	3.31732
2777.48	2.88677
2778.81	2.38177
2780.14	2.40465
2781.47	2.46077
2782.8	2.06901
2784.14	1.50629
2785.47	2.18873
2786.8	2.0698
2788.13	1.51335
2789.46	1.06815
2790.79	0.842889
2792.12	0.794571
2793.45	0.724865
2794.78	1.39162
2796.11	1.54417
2797.44	2.37181
2798.77	1.71394
2800.1	1.31794
2801.43	0.746632
2802.76	0.356782
2804.09	0.503581
2805.41	0.911876
2806.74	-0.145481
2808.07	-1.37689
2809.4	-1.8371
2810.72	-1.38886
2812.05	-1.39389
2813.38	-0.53338
2814.71	1.0692
2816.03	4.71114
2817.36	9.10257
2818.68	16.2002
2820.01	23.3828
2821.33	32.149
2822.66	40.8662
2823.98	51.2343
2825.31	61.9252
2826.63	73.7978
2827.96	85.844
2829.28	97.741
2830.6	110.441
2831.93	123.253
2833.25	136.911
2834.57	151.247
2835.9	166.322
2837.22	181.071
2838.54	196.398
2839.86	212.486
2841.18	227.484
2842.5	244.3
2843.83	260.489
2845.15	275.906
2846.47	291.225
2847.79	306.32
2849.11	323.016
2850.43	342.276
2851.75	362.187
2853.07	381.944
2854.39	402.161
2855.71	421.685
2857.03	441.198
2858.35	459.337
2859.66	476.956
2860.98	494.392
2862.3	509.81
2863.62	523.505
2864.94	536.895
2866.25	549.59
2867.57	560.723
2868.89	571.705
2870.2	580.672
2871.52	588.939
2872.84	596.062
2874.15	604.328
2875.47	612.446
2876.78	619.138
2878.1	626.504
2879.41	634.151
2880.73	640.703
2882.04	647.818
2883.36	654.516
2884.67	661.819
2885.99	667.86
2887.3	674.718
2888.61	680.093
2889.93	686.005
2891.24	689.967
2892.55	694.692
2893.86	698.171
2895.18	702.808
2896.49	707.327
2897.8	711.493
2899.11	714.644
2900.42	718.739
2901.73	724.831
2903.05	730.518
2904.36	736.114
2905.67	743.784
2906.98	751.316
2908.29	760.525
2909.6	769.891
2910.91	780.253
2912.21	792.46
2913.52	805.511
2914.83	820.557
2916.14	834.36
2917.45	846.269
2918.76	856.991
2920.07	867.838
2921.37	876.116
2922.68	883.646
2923.99	890.653
2925.29	895.992
2926.6	899.709
2927.91	901.968
2929.22	902.837
2930.52	902.483
2931.83	899.47
2933.13	895.676
2934.44	890.475
2935.74	882.632
2937.05	875.69
2938.35	867.786
2939.66	856.727
2940.96	843.597
2942.26	830.903
2943.57	817.006
2944.87	802.477
2946.18	787.088
2947.48	771.876
2948.78	755.6
2950.08	739.054
2951.39	723.117
2952.69	704.901
2953.99	685.257
2955.29	667.585
2956.59	648.339
2957.9	629.984
2959.2	611.472
2960.5	594.022
2961.8	575.887
2963.1	557.796
2964.4	540.838
2965.7	525.577
2967	510.165
2968.3	493.632
2969.6	478.676
2970.9	464.948
2972.19	450.768
2973.49	436.585
2974.79	422.83
2976.09	408.006
2977.39	394.223
2978.68	379.702
2979.98	366.037
2981.28	350.917
2982.58	336.633
2983.87	322.512
2985.17	308.234
2986.47	293.045
2987.76	279.328
2989.06	265.336
2990.35	250.486
2991.65	236.471
2992.94	223.081
2994.24	209.33
2995.53	195.497
2996.83	183.176
2998.12	171.029
2999.42	158.239
3000.71	146.688
3002	135.68
3003.3	123.831
3004.59	112.549
3005.88	103.013
3007.18	94.0995
3008.47	85.0432
3009.76	77.369
3011.05	69.6781
3012.34	61.4254
3013.64	54.726
3014.93	49.1102
3016.22	43.7353
3017.51	36.5352
3018.8	31.7318
3020.09	26.9078
3021.38	22.1533
3022.67	19.2888
3023.96	15.6884
3025.25	13.4742
3026.54	10.5889
3027.83	8.07245
3029.12	6.68747
3030.41	5.56774
3031.69	4.91287
3032.98	3.78471
3034.27	4.03751
3035.56	4.67002
3036.84	4.55235
3038.13	4.72232
3039.42	5.98802
3040.71	7.36943
3041.99	8.60256
3043.28	9.26247
3044.57	10.6782
3045.85	11.779
3047.14	13.4047
3048.42	14.9058
3049.71	15.6022
3050.99	16.4459
3052.28	17.3949
3053.56	17.5202
3054.85	18.5533
3056.13	19.1786
3057.41	19.6547
3058.7	19.8229
3059.98	19.2344
3061.26	19.1597
3062.55	18.4748
3063.83	17.9921
3065.11	18.3137
3066.39	18.0342
3067.68	17.6553
3068.96	17.6987
3070.24	17.0373
3071.52	15.96
3072.8	14.9573
3074.08	13.5542
3075.36	11.9332
3076.65	10.4447
3077.93	10.9372
3079.21	10.4738
3080.49	8.43771
3081.77	6.37818
3083.04	5.82335
3084.32	4.94374
3085.6	4.90309
3086.88	4.9335
3088.16	4.28577
3089.44	4.95055
3090.72	4.42128
3091.99	4.79968
3093.27	6.17396
3094.55	6.73291
3095.83	7.48434
3097.1	7.7543
3098.38	10.1557
3099.66	11.6892
3100.93	13.2101
3102.21	15.159
3103.49	17.5181
3104.76	19.1735
3106.04	21.3481
3107.31	23.2312
3108.59	26.1288
3109.86	27.99
3111.14	30.6383
3112.41	32.7357
3113.69	34.3407
3114.96	36.1254
3116.23	38.9113
3117.51	41.785
3118.78	44.2469
3120.05	46.3999
3121.33	48.8973
3122.6	51.3603
3123.87	53.8498
3125.14	56.9174
3126.41	59.7827
3127.69	62.6835
3128.96	65.8038
3130.23	68.3794
3131.5	70.4459
3132.77	73.4404
3134.04	75.9246
3135.31	78.3036
3136.58	81.5333
3137.85	84.6423
3139.12	87.4222
3140.39	90.4765
3141.66	92.9771
3142.93	94.7718
3144.2	97.0174
3145.47	99.4319
3146.74	101.652
3148	103.744
3149.27	105.631
