#Acq. time (s)=	45
#Accumulations=	2
#Range (cm-¹)=	200...3150
#Windows=	2
#Auto scanning=	Off
#Autofocus=	Off
#Macrospot=	Off
#AutoExposure=	Off
#Spike filter=	Multiple accum.
#Delay time (s)=	0
#Binning=	1
#Readout mode=	Signal
#DeNoise=	Off
#ICS correction=	On
#Dark correction=	Off
#Inst. Process=	Off
#Detector Gain=	Best Dynamic Range
#Detector ADC=	20 kHz       
#Detector temperature (°C)=	-69.85
#Instrument=	LabRAM HR Evol
#Detector=	Synapse
#Objective=	x100
#Grating=	600 gr/mm
#ND Filter=	100%
#Laser (nm)=	532 
#Hole=	100.021
#Range=	Auto
#Laser Pol.=	No
#Raman. Pol.=	No
#Laser Pol. (°)=	-0.0007625
#Raman Pol. (°)=	89.9995
#Collection=	Microscope
#StageXY=	Marzhauser
#StageZ=	Marzhauser
#X (µm)=	-7071.6
#Y (µm)=	2195.3
#Z (µm)=	-74.4
#Full time(mm:ss)=	2:51
#Project=	
#Sample=	
#Site=	
#Title=	Mb_20_23_41_2x_45s_532 nm_x100_100%_600 gr_mm
#Remark=	
#Date=	13.07.2022 16:48
#Acquired=	13.07.2022 16:48:43
#Base:Fit=	10.08.2022 10:29:37
#Base:Sub=	10.08.2022 10:35:48
#Filter:Polynom=	16.08.2022 10:13:29
#AxisType[0]=Intens
#AxisUnit[0]=Cnt
#AxisType[1]=Spectr
#AxisUnit[1]=1/cm
200.563	344.216
202.377	327.241
204.194	309.096
206.008	295.416
207.821	282.385
209.634	270.008
211.449	257.958
213.262	248.99
215.074	238.257
216.885	230.764
218.699	217.399
220.51	207.718
222.321	195.528
224.131	188.207
225.941	179.191
227.751	169.711
229.562	159.514
231.371	152.419
233.18	140.597
234.988	133.455
236.796	128.077
238.603	120.976
240.411	114.57
242.219	108.248
244.026	99.3311
245.832	92.6541
247.638	84.2115
249.443	78.4603
251.248	71.9041
253.053	67.0501
254.857	59.0074
256.661	55.2913
258.465	53.5157
260.268	49.5324
262.071	43.9413
263.874	40.1625
265.678	39.0794
267.48	32.7534
269.282	29.9707
271.083	25.8155
272.884	23.9136
274.684	18.3841
276.484	15.582
278.284	13.6829
280.084	10.5991
281.883	7.05521
283.682	3.56523
285.48	6.91369
287.276	8.36024
289.074	9.13822
290.871	7.66019
292.668	7.66557
294.465	9.58557
296.261	9.20269
298.057	10.6382
299.853	11.9661
301.648	11.7193
303.443	13.8469
305.237	13.1812
307.032	15.2547
308.823	14.9797
310.617	15.845
312.41	15.992
314.203	17.7638
315.995	17.8807
317.788	20.1098
319.579	21.7595
321.369	20.6554
323.16	20.6995
324.951	22.1057
326.741	22.4458
328.531	18.1248
330.321	18.2905
332.108	16.8952
333.897	14.638
335.686	14.9039
337.474	13.9963
339.26	13.2491
341.048	11.1322
342.835	10.8296
344.622	9.88075
346.406	11.2657
348.192	10.1828
349.978	8.43418
351.764	6.36532
353.547	6.48068
355.332	4.85204
357.116	3.30234
358.901	8.02734
360.682	6.52892
362.466	6.24143
364.249	3.2281
366.03	2.46314
367.812	0.347703
369.594	-1.74401
371.374	1.06627
373.155	3.48856
374.936	5.22355
376.715	7.09976
378.495	6.05531
380.273	7.19498
382.053	10.2338
383.832	10.6011
385.609	11.6847
387.388	12.1963
389.164	12.4954
390.942	14.21
392.72	16.6059
394.495	17.3936
396.272	19.5569
398.047	18.7049
399.823	20.9034
401.597	25.0758
403.372	26.987
405.145	30.886
406.92	31.8853
408.693	32.3704
410.467	30.7389
412.239	33.5767
414.012	33.2514
415.783	32.2907
417.556	30.1529
419.327	34.2687
421.099	32.7157
422.869	31.5583
424.64	32.3304
426.409	32.0109
428.18	31.6224
429.948	32.7815
431.718	33.9284
433.486	34.7283
435.253	35.9331
437.022	36.315
438.789	36.5854
440.558	37.0589
442.324	38.5884
444.089	39.0509
445.857	40.2152
447.622	42.0874
449.386	39.0799
451.153	38.2787
452.917	37.5723
454.682	39.0365
456.446	37.8213
458.208	39.1907
459.973	41.4465
461.735	40.0206
463.497	38.9006
465.259	42.406
467.022	38.5522
468.783	39.6358
470.544	39.2189
472.306	38.3697
474.066	38.7175
475.825	37.8433
477.585	38.828
479.346	39.1427
481.104	38.3311
482.862	39.1264
484.62	39.9441
486.38	39.5242
488.137	39.9784
489.894	38.1336
491.65	34.7458
493.407	33.5223
495.164	31.7845
496.92	31.0069
498.675	28.6185
500.43	29.5624
502.184	30.3036
503.939	31.0584
505.694	34.2735
507.448	36.0833
509.201	34.0813
510.954	35.4323
512.706	36.9295
514.459	39.3174
516.21	40.4948
517.962	39.1715
519.715	35.9707
521.466	36.1661
523.216	34.985
524.966	37.6865
526.716	36.1977
528.466	36.8807
530.215	35.3125
531.964	35.0873
533.712	35.2205
535.46	36.1097
537.208	35.8938
538.955	34.9574
540.703	32.1401
542.449	31.0258
544.196	27.7841
545.942	27.0731
547.688	23.9599
549.433	22.0147
551.178	20.018
552.923	20.7479
554.667	18.024
556.412	16.7599
558.155	12.6288
559.899	10.8037
561.642	8.77532
563.385	7.54911
565.127	5.70504
566.867	2.84131
568.609	1.82497
570.35	-2.2285
572.092	-3.19632
573.832	-3.72247
575.573	-4.61639
577.313	-2.81122
579.053	-4.0769
580.79	-1.54526
582.529	2.56153
584.268	5.23201
586.006	8.01358
587.745	12.1385
589.482	10.8162
591.218	10.8538
592.955	10.9611
594.692	10.8905
596.428	12.0638
598.164	14.6797
599.898	17.1537
601.634	21.5882
603.369	22.943
605.104	25.5226
606.836	29.1831
608.57	37.6025
610.304	41.9819
612.037	47.7065
613.769	47.5888
615.501	51.6353
617.234	55.5247
618.966	61.6305
620.696	63.2164
622.427	67.3551
624.159	68.4667
625.887	69.6451
627.618	71.5509
629.348	73.6237
631.076	74.3386
632.806	76.6984
634.535	77.9686
636.262	78.8741
637.99	81.2823
639.716	80.7901
641.444	81.5844
643.172	82.9183
644.897	80.7761
646.624	83.7657
648.348	83.9699
650.075	83.4377
651.801	85.6125
653.524	83.7924
655.249	84.2642
656.972	83.9165
658.697	84.9322
660.419	85.6346
662.143	85.1845
663.865	81.4106
665.588	78.3793
667.309	76.862
669.032	74.7982
670.752	71.854
672.474	67.555
674.194	64.5234
675.915	60.1288
677.634	60.4409
679.355	59.6308
681.073	57.018
682.793	54.706
684.511	54.5657
686.23	53.1237
687.947	51.4859
689.664	49.483
691.382	48.3749
693.098	45.8004
694.816	46.6744
696.531	46.5815
698.247	45.989
699.963	45.2241
701.678	43.5893
703.392	44.0159
705.108	45.066
706.821	42.2446
708.534	42.3609
710.249	40.0751
711.962	39.1184
713.674	36.2832
715.388	35.0642
717.099	36.2623
718.81	34.8991
720.523	32.3991
722.234	31.7346
723.944	34.2034
725.654	33.1129
727.365	38.225
729.075	37.9267
730.784	38.7515
732.492	40.9333
734.202	40.7832
735.91	41.6664
737.618	44.0648
739.325	41.2372
741.034	44.0768
742.741	45.7419
744.447	45.3387
746.153	46.5115
747.859	45.3013
749.564	44.1269
751.271	45.6581
752.976	47.5319
754.681	47.4964
756.385	50.1016
758.088	50.1994
759.792	51.3649
761.495	53.9378
763.2	56.7388
764.902	58.1407
766.604	59.1807
768.306	60.891
770.008	60.8192
771.709	60.3633
773.41	63.9104
775.11	64.4387
776.811	66.368
778.51	70.3437
780.21	73.8287
781.909	76.1296
783.608	76.8254
785.307	77.4902
787.005	75.0706
788.703	78.9027
790.401	76.3372
792.098	73.795
793.795	74.6139
795.492	70.2686
797.188	69.8873
798.884	70.0295
800.58	71.1632
802.276	70.5824
803.971	66.1874
805.665	64.7968
807.36	64.0216
809.054	63.5146
810.748	60.2876
812.441	60.1545
814.135	53.4913
815.826	50.6349
817.518	48.7512
819.21	45.4913
820.902	41.9899
822.594	37.5744
824.285	35.0161
825.976	35.6706
827.665	31.2997
829.355	27.1894
831.045	24.2864
832.735	22.3615
834.424	18.396
836.111	19.3317
837.8	20.0967
839.488	16.7428
841.177	17.8461
842.864	15.986
844.55	15.6509
846.237	16.3419
847.924	14.8952
849.61	11.5636
851.295	7.37309
852.98	6.61032
854.666	5.31892
856.349	7.19034
858.034	6.55762
859.719	4.67158
861.403	7.18974
863.085	8.39327
864.769	6.62069
866.452	8.45018
868.133	9.03249
869.816	7.89084
871.498	7.24578
873.179	10.7243
874.86	7.7222
876.54	9.03419
878.221	8.08791
879.902	8.78759
881.58	12.5983
883.26	11.2173
884.938	10.7524
886.618	5.31002
888.297	2.96493
889.974	3.26223
891.653	4.63634
893.329	3.8574
895.007	3.98932
896.683	3.91806
898.36	3.86313
900.035	3.07483
901.712	3.34922
903.387	2.3836
905.063	5.02378
906.737	5.94786
908.412	10.3001
910.085	12.0886
911.76	11.6733
913.433	15.0082
915.107	15.2387
916.779	18.2646
918.452	19.6097
920.124	23.8944
921.797	22.5915
923.467	21.53
925.138	22.701
926.81	23.7677
928.48	24.0823
930.151	25.9314
931.82	24.3223
933.489	24.1768
935.16	23.3422
936.828	28.316
938.496	29.773
940.165	31.6958
941.833	30.9262
943.5	33.1469
945.168	34.9353
946.834	36.6115
948.5	37.3712
950.168	41.6665
951.834	44.7457
953.499	48.6622
955.163	54.3119
956.83	55.9062
958.494	58.4339
960.158	62.745
961.821	67.7714
963.487	74.3772
965.15	76.3661
966.812	79.8763
968.474	86.9122
970.138	90.7097
971.8	100.591
973.461	107.77
975.123	115.737
976.783	123.237
978.446	132.817
980.106	142.161
981.766	146.725
983.425	151.954
985.084	162.123
986.743	170.465
988.402	176.38
990.06	180.947
991.72	188.329
993.378	193.989
995.035	199.567
996.692	204.831
998.349	207.48
1000.01	213.547
1001.66	218.432
1003.32	223.254
1004.97	227.981
1006.63	232.731
1008.28	239.298
1009.94	249.021
1011.59	255.421
1013.25	260.799
1014.9	264.746
1016.55	273.023
1018.21	280.535
1019.86	289.56
1021.51	294.208
1023.16	299.252
1024.81	303.602
1026.47	310.746
1028.12	318.418
1029.77	324.917
1031.42	333.571
1033.07	344.447
1034.72	352.77
1036.37	361.92
1038.02	372.802
1039.67	382.526
1041.31	394.016
1042.96	401.031
1044.61	413.741
1046.26	424.374
1047.91	434.562
1049.55	444.449
1051.2	453.581
1052.84	460.471
1054.49	471.126
1056.14	479.012
1057.78	487.031
1059.43	492.949
1061.07	499.619
1062.72	506.678
1064.36	511.773
1066	520.783
1067.65	526.537
1069.29	531.923
1070.93	537.203
1072.58	544.779
1074.22	554.043
1075.86	561.468
1077.5	567.625
1079.14	572.677
1080.78	578.134
1082.42	587.337
1084.06	595.262
1085.7	605.754
1087.34	615.736
1088.98	625.835
1090.62	638.22
1092.26	646.538
1093.9	650.881
1095.54	659.992
1097.17	669.356
1098.81	679.116
1100.45	685.625
1102.09	693.542
1103.72	699.294
1105.36	708.282
1106.99	719.709
1108.63	729.719
1110.27	737.749
1111.9	746.328
1113.53	757.954
1115.17	768.796
1116.8	779.092
1118.43	791.905
1120.07	804.432
1121.7	811.667
1123.33	821.415
1124.97	828.987
1126.6	837.688
1128.23	847.021
1129.86	857.004
1131.49	867.14
1133.12	876.861
1134.75	888.328
1136.38	902.355
1138.01	913.52
1139.64	926.981
1141.27	944.257
1142.9	960.303
1144.53	974.739
1146.16	985.708
1147.78	996.93
1149.41	1008.24
1151.04	1024.29
1152.67	1037.58
1154.29	1053.5
1155.92	1068.35
1157.54	1083.37
1159.17	1096.59
1160.8	1113.35
1162.42	1127.62
1164.05	1142.14
1165.67	1158.03
1167.29	1175.14
1168.92	1190.45
1170.54	1206.49
1172.16	1217.72
1173.79	1229.16
1175.41	1244.88
1177.03	1261.88
1178.65	1276.33
1180.28	1290.9
1181.9	1306.66
1183.52	1320.92
1185.14	1335.57
1186.76	1354.1
1188.38	1368.75
1190	1380.93
1191.62	1398.46
1193.24	1415.86
1194.86	1434.86
1196.47	1454.21
1198.09	1471.92
1199.71	1489.45
1201.33	1505.62
1202.95	1523.49
1204.56	1542.81
1206.18	1563
1207.8	1587.94
1209.41	1616.02
1211.03	1637.51
1212.64	1661.65
1214.26	1684.88
1215.87	1711.27
1217.49	1738
1219.1	1762.28
1220.71	1790.33
1222.33	1815.89
1223.94	1839.38
1225.55	1863.43
1227.16	1885.45
1228.78	1913.05
1230.39	1937.32
1232	1963.12
1233.61	1987.31
1235.22	2013.87
1236.83	2041.51
1238.44	2065.71
1240.05	2089.27
1241.66	2111.1
1243.27	2131.87
1244.88	2156.46
1246.49	2182.77
1248.1	2207.08
1249.71	2230.08
1251.32	2250.42
1252.92	2269.15
1254.53	2294.67
1256.14	2320.61
1257.74	2344.08
1259.35	2368.98
1260.96	2393.54
1262.56	2421.89
1264.17	2445.11
1265.77	2473.54
1267.38	2500.25
1268.98	2523.94
1270.59	2552.72
1272.19	2581.45
1273.79	2608.74
1275.4	2636.67
1277	2665.85
1278.6	2695.91
1280.21	2720.96
1281.81	2750.71
1283.41	2782.34
1285.01	2811.68
1286.61	2845.82
1288.21	2875.22
1289.81	2905.69
1291.41	2937.29
1293.01	2966.07
1294.61	2996.21
1296.21	3025.48
1297.81	3055.08
1299.41	3083.93
1301.01	3114.07
1302.6	3140.15
1304.2	3170.56
1305.8	3199.06
1307.4	3227.44
1308.99	3255.9
1310.59	3282.59
1312.19	3310.85
1313.78	3340.66
1315.38	3365.59
1316.97	3392.2
1318.57	3409.49
1320.16	3433.92
1321.76	3456.44
1323.35	3482.27
1324.94	3504.96
1326.54	3523.16
1328.13	3540.09
1329.72	3555.49
1331.32	3573.09
1332.91	3591.63
1334.5	3608.35
1336.09	3621.87
1337.68	3629.92
1339.27	3640.99
1340.87	3652.83
1342.45	3659.04
1344.04	3664.15
1345.64	3671.32
1347.22	3674.03
1348.81	3677.01
1350.4	3679.93
1351.99	3681.01
1353.58	3682.84
1355.17	3679.2
1356.75	3678.45
1358.34	3673.17
1359.93	3666.23
1361.51	3664.73
1363.1	3660.14
1364.69	3650.69
1366.27	3645.21
1367.86	3636.27
1369.44	3624.3
1371.03	3609.26
1372.61	3592.19
1374.2	3580.89
1375.78	3566.8
1377.37	3555.3
1378.95	3540.77
1380.53	3530.72
1382.11	3521.08
1383.7	3509.09
1385.28	3493.64
1386.86	3478.26
1388.44	3460.04
1390.02	3447.46
1391.6	3431.07
1393.19	3416.32
1394.77	3401.91
1396.35	3388.25
1397.93	3369.84
1399.51	3360.97
1401.08	3347.26
1402.66	3332.43
1404.24	3316.74
1405.82	3301.86
1407.4	3291.24
1408.97	3280.65
1410.55	3269.13
1412.13	3256.67
1413.71	3240.25
1415.28	3228.83
1416.86	3219.48
1418.43	3213.1
1420.01	3204.97
1421.59	3197.15
1423.16	3193.94
1424.73	3188.28
1426.31	3183.44
1427.88	3179.78
1429.46	3176.51
1431.03	3174.97
1432.6	3172.8
1434.18	3168.49
1435.75	3167.44
1437.32	3162.37
1438.89	3157.5
1440.46	3150.23
1442.04	3139.56
1443.61	3128.66
1445.18	3119.81
1446.75	3105.21
1448.32	3090.24
1449.89	3080.29
1451.46	3067.45
1453.03	3056.43
1454.6	3044.67
1456.16	3034.08
1457.73	3020
1459.3	3009.07
1460.87	2992.71
1462.44	2973.74
1464	2960.87
1465.57	2945.59
1467.14	2930.33
1468.7	2918.73
1470.27	2900.75
1471.83	2885.93
1473.4	2869.58
1474.96	2852.66
1476.53	2839.71
1478.09	2829.96
1479.66	2815.25
1481.22	2800.48
1482.78	2788.78
1484.35	2778.68
1485.91	2768.64
1487.47	2760.64
1489.04	2754.14
1490.6	2751.86
1492.16	2750.8
1493.72	2754.44
1495.28	2756.66
1496.84	2759.49
1498.4	2768.16
1499.96	2776.99
1501.52	2786.68
1503.08	2796.91
1504.64	2808.74
1506.2	2819.26
1507.76	2836.38
1509.32	2850.75
1510.88	2864.92
1512.44	2879.6
1513.99	2895.46
1515.55	2911.57
1517.11	2927.67
1518.66	2942.2
1520.22	2959.21
1521.78	2976.82
1523.33	2997.3
1524.89	3017.27
1526.44	3039.73
1528	3061.45
1529.55	3084.84
1531.11	3111.87
1532.66	3139.89
1534.21	3164.42
1535.77	3193.96
1537.32	3221.84
1538.87	3252.29
1540.43	3278.32
1541.98	3307.33
1543.53	3330.79
1545.08	3359.15
1546.63	3386.26
1548.18	3412.84
1549.74	3439.27
1551.29	3464.59
1552.84	3489.27
1554.39	3516.36
1555.94	3541.28
1557.48	3563.34
1559.03	3585.87
1560.58	3613.56
1562.13	3637.07
1563.68	3661.19
1565.23	3686.76
1566.78	3709.38
1568.32	3737.14
1569.87	3761.72
1571.42	3782.48
1572.96	3801.92
1574.51	3819.91
1576.05	3837.3
1577.6	3847.11
1579.14	3859.22
1580.69	3868.35
1582.24	3878.2
1583.78	3880.47
1585.32	3878.67
1586.87	3873.24
1588.41	3862.59
1589.95	3851.65
1591.5	3837.61
1593.04	3817.95
1594.58	3792.34
1596.12	3763.72
1597.67	3734.73
1599.21	3699.63
1600.75	3662.72
1602.29	3619.42
1603.83	3572.86
1605.37	3524.52
1606.91	3474.87
1608.45	3418.4
1609.99	3363.71
1611.53	3301.68
1613.07	3241.97
1614.6	3171.33
1616.14	3102.41
1617.68	3026.29
1619.22	2954.31
1620.75	2881.43
1622.29	2808.36
1623.83	2733.65
1625.37	2656.63
1626.9	2579.32
1628.44	2503.83
1629.97	2429.71
1631.51	2357.58
1633.04	2283.52
1634.58	2211.91
1636.11	2140.64
1637.65	2076.56
1639.18	2011
1640.72	1946.85
1642.25	1886.83
1643.78	1829.59
1645.31	1774.74
1646.85	1717.81
1648.38	1660.69
1649.91	1610.09
1651.44	1559.29
1652.97	1510.57
1654.5	1463.17
1656.03	1421.96
1657.56	1379.87
1659.1	1337.03
1660.62	1291.84
1662.15	1250.05
1663.68	1215.73
1665.21	1179.32
1666.74	1150.39
1668.27	1115.7
1669.8	1081.7
1671.32	1047.62
1672.85	1014.53
1674.38	985.33
1675.91	955.334
1677.43	923.804
1678.96	894.282
1680.49	866.593
1682.01	838.963
1683.54	813.777
1685.06	785.647
1686.59	761.876
1688.11	735.746
1689.64	711.923
1691.16	686.005
1692.68	662.348
1694.21	639.13
1695.73	619.674
1697.25	599.666
1698.78	578.974
1700.3	557.737
1701.82	535.816
1703.34	517.384
1704.86	499.477
1706.39	483.079
1707.91	465.352
1709.43	450.072
1710.95	433.218
1712.47	415.668
1713.99	401.916
1715.51	388.033
1717.02	372.062
1718.54	361.949
1720.06	348.352
1721.58	333.605
1723.1	322.667
1724.62	308.927
1726.13	298.857
1727.65	285.483
1729.17	276.417
1730.68	267.638
1732.2	257.641
1733.72	244.862
1735.23	236.519
1736.75	229.195
1738.26	220.373
1739.78	216.492
1741.29	209.839
1742.81	202.229
1744.32	192.261
1745.84	187.822
1747.35	180.716
1748.86	175.525
1750.37	172.694
1751.89	164.553
1753.4	157.452
1754.91	153.079
1756.42	149.465
1757.93	143.515
1759.45	139.341
1760.96	134.796
1762.47	132.758
1763.98	127.622
1765.49	120.993
1767	115.41
1768.51	112.94
1770.02	110.069
1771.53	106.308
1773.03	101.068
1774.54	97.3864
1776.05	93.5543
1777.56	90.4736
1779.07	87.5277
1780.57	82.8481
1782.08	80.853
1783.59	77.3829
1785.09	74.5715
1786.6	70.523
1788.11	69.3136
1789.61	70.8861
1791.12	69.6538
1792.62	66.722
1794.13	65.7508
1795.63	60.9562
1797.13	58.609
1798.64	56.793
1800.14	52.1675
1801.65	51.5206
1803.15	52.075
1804.65	51.5361
1806.15	47.5538
1807.66	44.2863
1809.16	43.5443
1810.66	45.5702
1812.16	42.7268
1813.66	40.0771
1815.16	41.8183
1816.66	41.2805
1818.16	40.9924
1819.66	40.975
1821.16	41.8546
1822.66	40.2027
1824.16	41.4144
1825.66	39.0577
1827.16	37.2944
1828.66	37.0269
1830.16	36.3815
1831.65	35.7057
1833.15	33.3065
1834.65	33.9487
1836.14	33.2067
1837.64	31.3509
1839.14	27.8901
1840.63	28.5026
1842.13	28.6537
1843.62	29.1126
1845.12	26.5266
1846.61	23.7174
1848.11	20.8628
1849.6	17.8521
1851.1	14.0449
1852.59	10.9451
1854.08	7.73468
1855.58	8.53119
1857.07	9.90778
1858.56	9.40585
1860.05	8.96622
1861.55	8.03467
1863.04	9.83443
1864.53	9.29963
1866.02	9.07747
1867.51	7.92029
1869	5.81259
1870.49	4.53373
1871.98	5.92159
1873.47	6.96486
1874.96	6.46842
1876.45	9.85996
1877.94	10.0524
1879.43	9.04482
1880.92	9.02397
1882.41	10.5677
1882.51	11.9624
1884	12.6705
1885.5	12.5194
1886.99	14.4814
1888.48	17.1751
1889.98	17.5689
1891.47	19.665
1892.96	19.0498
1894.46	22.3861
1895.95	22.8145
1897.44	24.3562
1898.93	24.9652
1900.42	28.5354
1901.91	28.6124
1903.41	29.6551
1904.9	31.0248
1906.39	32.5227
1907.88	35.0797
1909.37	34.45
1910.86	35.4922
1912.35	36.691
1913.83	38.073
1915.32	37.6211
1916.81	38.6642
1918.3	35.663
1919.79	33.0633
1921.27	32.0727
1922.76	32.5738
1924.25	32.5467
1925.74	33.5064
1927.22	33.1429
1928.71	36.7123
1930.19	36.9183
1931.68	38.2065
1933.17	37.4045
1934.65	36.4757
1936.14	37.5209
1937.62	38.3448
1939.11	39.8445
1940.59	38.8487
1942.07	41.6914
1943.56	43.9624
1945.04	43.7965
1946.52	44.7634
1948.01	43.9061
1949.49	46.0841
1950.97	44.3839
1952.45	45.3698
1953.93	44.3199
1955.42	44.8292
1956.9	44.9954
1958.38	44.3227
1959.86	45.8165
1961.34	45.5318
1962.82	45.8447
1964.3	44.9286
1965.78	45.2625
1967.26	44.2032
1968.74	46.4595
1970.21	46.1958
1971.69	46.2031
1973.17	45.9636
1974.65	44.5808
1976.13	43.7398
1977.6	45.2161
1979.08	46.1651
1980.56	45.4063
1982.03	44.9833
1983.51	43.7035
1984.99	43.9846
1986.46	45.6168
1987.94	43.9394
1989.41	44.408
1990.89	43.0636
1992.36	41.6376
1993.84	43.4998
1995.31	45.5355
1996.78	45.0804
1998.26	44.4955
1999.73	44.8213
2001.2	45.3117
2002.68	47.7088
2004.15	48.7486
2005.62	49.1977
2007.09	49.1304
2008.56	49.3542
2010.04	52.6769
2011.51	53.932
2012.98	54.0854
2014.45	56.7327
2015.92	58.9329
2017.39	58.1451
2018.86	57.6957
2020.33	58.6314
2021.8	58.9307
2023.26	59.9098
2024.73	58.3393
2026.2	60.0267
2027.67	61.4305
2029.14	61.2877
2030.61	60.4732
2032.07	59.4587
2033.54	59.5032
2035.01	56.6959
2036.47	55.3833
2037.94	54.673
2039.4	55.3763
2040.87	55.5824
2042.33	55.2699
2043.8	53.6637
2045.27	54.1788
2046.73	55.5695
2048.19	56.1004
2049.66	56.9227
2051.12	57.447
2052.59	58.3949
2054.05	58.3074
2055.51	59.9288
2056.97	62.0384
2058.44	62.1533
2059.9	63.3197
2061.36	63.4916
2062.82	67.4354
2064.28	68.8488
2065.74	71.8873
2067.21	72.2367
2068.67	73.5281
2070.13	73.2496
2071.59	74.0364
2073.05	74.3854
2074.51	75.398
2075.96	76.741
2077.42	78.3858
2078.88	77.2638
2080.34	79.0509
2081.8	80.4388
2083.26	83.1221
2084.72	83.034
2086.17	84.5299
2087.63	85.0319
2089.09	82.9182
2090.54	81.8787
2092	80.2838
2093.45	82.0721
2094.91	82.9929
2096.37	82.0584
2097.82	82.7781
2099.28	82.904
2100.73	83.5509
2102.19	80.9982
2103.64	80.3145
2105.09	81.4037
2106.55	81.3627
2108	80.0627
2109.45	79.6089
2110.91	80.5343
2112.36	78.4469
2113.81	78.6362
2115.26	80.4351
2116.72	81.3951
2118.17	83.6469
2119.62	84.1456
2121.07	83.7411
2122.52	84.8694
2123.97	87.6959
2125.42	91.1115
2126.87	91.2047
2128.32	92.3568
2129.77	94.5524
2131.22	94.2945
2132.67	98.5118
2134.11	101.009
2135.56	103.252
2137.01	102.943
2138.46	107.064
2139.91	107.152
2141.35	109.954
2142.8	111.091
2144.25	113.611
2145.7	115.792
2147.14	119.761
2148.59	122.74
2150.03	125.763
2151.48	126.42
2152.92	129.158
2154.37	130.462
2155.81	131.366
2157.26	133.678
2158.7	136.833
2160.15	138.183
2161.59	141.746
2163.03	144.814
2164.47	147.332
2165.92	150.869
2167.36	152.907
2168.8	154.455
2170.24	157.054
2171.69	156.803
2173.13	158.928
2174.57	158.609
2176.01	158.013
2177.45	158.857
2178.89	158.72
2180.33	158.084
2181.77	158.943
2183.21	159.934
2184.65	160.492
2186.09	161.961
2187.53	161.544
2188.97	160.779
2190.4	159.621
2191.84	159.641
2193.28	159.181
2194.72	160.778
2196.16	161.358
2197.59	158.05
2199.03	156.761
2200.47	154.172
2201.9	152.734
2203.34	151.051
2204.77	152.501
2206.21	150.39
2207.64	149.222
2209.08	147.381
2210.51	146.364
2211.95	142.94
2213.38	140.872
2214.82	138.042
2216.25	136.734
2217.68	134.112
2219.12	133.356
2220.55	130.647
2221.98	129.281
2223.41	126.657
2224.85	126.084
2226.28	125.584
2227.71	121.526
2229.14	121.316
2230.57	119.481
2232	116.648
2233.43	113.703
2234.86	110.293
2236.29	107.36
2237.72	102.725
2239.15	100.384
2240.58	96.872
2242.01	95.2468
2243.44	91.7621
2244.87	89.5123
2246.29	84.9764
2247.72	82.9337
2249.15	81.9758
2250.58	80.4048
2252.01	76.9447
2253.43	75.4848
2254.86	72.2513
2256.29	67.5391
2257.71	63.8774
2259.14	63.1096
2260.56	62.132
2261.99	61.5603
2263.41	60.7869
2264.84	59.3854
2266.26	57.107
2267.69	55.0736
2269.11	51.8975
2270.53	53.0937
2271.96	50.5198
2273.38	50.6656
2274.8	51.4187
2276.23	50.8713
2277.65	49.1692
2279.07	47.6145
2280.49	45.8066
2281.91	44.1543
2283.34	42.1363
2284.76	42.4013
2286.18	42.8417
2287.6	44.2529
2289.02	43.6591
2290.44	45.0836
2291.86	44.2689
2293.28	43.8469
2294.7	44.3276
2296.12	43.1892
2297.54	40.7819
2298.96	39.698
2300.37	41.507
2301.79	40.725
2303.21	39.1768
2304.63	39.1246
2306.04	39.6031
2307.46	39.8081
2308.88	40.9521
2310.3	44.652
2311.71	45.3949
2313.13	46.1882
2314.54	44.1185
2315.96	41.6471
2317.37	41.4433
2318.79	42.565
2320.2	40.046
2321.62	37.0978
2323.03	35.6895
2324.45	34.0362
2325.86	32.2798
2327.27	31.7693
2328.69	31.8479
2330.1	31.949
2331.51	32.2096
2332.92	32.9075
2334.34	31.3557
2335.75	31.8895
2337.16	31.2759
2338.57	31.9138
2339.98	30.3753
2341.39	30.062
2342.8	26.8231
2344.21	26.9374
2345.63	25.5646
2347.04	22.8016
2348.45	20.6701
2349.85	18.0309
2351.26	17.1338
2352.67	16.9157
2354.08	16.9121
2355.49	17.3468
2356.9	15.8016
2358.3	16.7566
2359.71	16.1217
2361.12	16.1854
2362.53	14.3013
2363.93	14.5038
2365.34	14.3302
2366.75	10.6791
2368.15	11.5763
2369.56	12.6233
2370.97	12.4407
2372.37	12.7481
2373.77	13.352
2375.18	13.502
2376.59	14.702
2377.99	16.8287
2379.39	17.7179
2380.8	18.3966
2382.2	16.0891
2383.6	14.3974
2385.01	13.9743
2386.41	13.8101
2387.81	15.0814
2389.21	13.353
2390.62	12.021
2392.02	10.8774
2393.42	12.4393
2394.82	12.3228
2396.22	13.132
2397.62	11.9619
2399.02	11.3714
2400.42	11.1096
2401.82	12.0919
2403.22	13.0221
2404.62	13.1387
2406.02	12.3326
2407.42	13.0483
2408.82	12.1683
2410.22	11.6653
2411.62	10.5344
2413.01	9.78432
2414.41	11.4574
2415.81	10.8589
2417.21	14.0777
2418.6	13.9279
2420	14.6574
2421.4	15.7388
2422.79	15.6617
2424.19	13.6001
2425.59	14.6339
2426.98	15.5728
2428.38	14.9633
2429.77	11.6518
2431.17	10.8274
2432.56	9.21553
2433.95	9.45988
2435.35	10.2394
2436.74	9.64965
2438.14	10.1518
2439.53	9.0935
2440.92	8.84416
2442.31	8.25414
2443.71	8.12103
2445.1	7.94201
2446.49	9.5661
2447.88	9.91635
2449.27	8.01649
2450.67	7.27036
2452.06	6.31304
2453.45	7.16726
2454.84	6.56936
2456.23	4.98676
2457.62	3.88794
2459.01	2.28521
2460.4	1.3226
2461.79	1.83393
2463.18	0.770373
2464.57	-0.393959
2465.95	-1.99511
2467.34	-2.57644
2468.73	-2.87643
2470.12	-3.07789
2471.5	-2.61176
2472.89	-2.13368
2474.28	-2.7727
2475.67	-2.03862
2477.05	0.740951
2478.44	-1.41758
2479.82	-1.17444
2481.21	-3.52201
2482.6	-1.67713
2483.98	-0.078074
2485.37	-0.0445175
2486.75	0.457128
2488.13	-2.47743
2489.52	-0.116316
2490.9	0.265313
2492.29	-0.630621
2493.67	-1.88604
2495.05	-1.64501
2496.44	-2.71381
2497.82	-3.95294
2499.2	-4.04183
2500.58	-1.79272
2501.97	-3.06796
2503.35	-3.33127
2504.73	-3.43918
2506.11	-3.4531
2507.49	-4.50468
2508.87	-3.80478
2510.25	-1.74057
2511.63	0.210636
2513.01	1.84295
2514.39	2.14743
2515.77	2.01416
2517.15	3.05747
2518.53	3.10409
2519.91	4.22703
2521.29	3.88525
2522.67	3.62773
2524.05	2.60027
2525.42	3.30886
2526.8	3.32874
2528.18	3.57997
2529.55	3.91288
2530.93	4.92383
2532.31	1.79894
2533.69	3.62104
2535.06	4.35424
2536.44	4.89845
2537.81	4.02555
2539.19	5.47641
2540.56	8.03769
2541.94	9.93849
2543.31	10.5241
2544.69	10.712
2546.06	11.9793
2547.44	9.51763
2548.81	11.3819
2550.18	12.5374
2551.56	15.3728
2552.93	15.9741
2554.3	15.4333
2555.67	16.9375
2557.04	18.4387
2558.42	19.2386
2559.79	17.4705
2561.16	19.2744
2562.53	19.5349
2563.9	21.3974
2565.27	22.0541
2566.64	21.0073
2568.01	21.2924
2569.38	22.9006
2570.75	21.1283
2572.12	22.0101
2573.49	24.2358
2574.86	25.5692
2576.23	24.169
2577.6	24.7137
2578.97	26.0291
2580.33	26.8442
2581.7	25.5885
2583.07	23.4438
2584.44	24.2854
2585.8	25.189
2587.17	23.8608
2588.54	21.5393
2589.9	19.7803
2591.27	19.5527
2592.64	19.672
2594	19.9334
2595.37	17.8008
2596.73	17.1487
2598.1	16.0508
2599.46	15.0712
2600.83	13.8649
2602.19	13.9783
2603.55	11.6458
2604.92	9.62058
2606.28	9.92555
2607.64	10.3154
2609.01	8.21101
2610.37	6.10631
2611.73	5.66151
2613.09	7.05903
2614.46	7.78115
2615.82	7.64711
2617.18	7.42451
2618.54	6.57258
2619.9	7.14467
2621.26	8.02196
2622.62	8.92162
2623.98	10.3972
2625.34	10.4216
2626.7	10.4073
2628.06	12.8727
2629.42	15.2285
2630.78	15.2772
2632.14	16.1624
2633.5	16.434
2634.86	19.0949
2636.21	21.6186
2637.57	24.7233
2638.93	23.7669
2640.29	27.7149
2641.64	29.6556
2643	30.0204
2644.36	30.6246
2645.71	33.3226
2647.07	35.9187
2648.43	38.1991
2649.78	39.1607
2651.14	39.2412
2652.49	40.9851
2653.85	40.7254
2655.2	40.2903
2656.56	41.0444
2657.91	42.8985
2659.26	43.0896
2660.62	45.6918
2661.97	44.7452
2663.32	43.7787
2664.68	46.3008
2666.03	45.7142
2667.38	43.9076
2668.74	44.0399
2670.09	43.5672
2671.44	43.8122
2672.79	45.259
2674.14	46.9419
2675.49	47.0133
2676.84	46.6838
2678.19	47.7041
2679.54	48.3643
2680.89	47.7852
2682.24	47.6696
2683.59	46.8837
2684.94	45.8764
2686.29	46.9911
2687.64	46.9765
2688.99	45.0713
2690.34	45.5405
2691.69	44.5647
2693.03	44.0092
2694.38	46.4172
2695.73	47.4052
2697.08	47.3372
2698.42	47.6087
2699.77	47.2648
2701.12	49.5084
2702.46	48.6727
2703.81	48.1852
2705.15	49.565
2706.5	47.9537
2707.85	49.4626
2709.19	48.0871
2710.54	48.3822
2711.88	49.441
2713.22	50.9852
2714.57	50.0079
2715.91	48.8437
2717.26	47.9165
2718.6	47.3741
2719.94	47.8274
2721.29	47.5783
2722.63	49.3604
2723.97	51.4509
2725.31	51.4863
2726.66	50.7924
2728	52.9385
2729.34	51.5021
2730.68	52.8522
2732.02	51.1486
2733.36	49.251
2734.7	47.1042
2736.04	46.2233
2737.38	45.2483
2738.72	44.0795
2740.06	43.888
2741.4	42.9254
2742.74	39.3059
2744.08	35.6036
2745.42	33.8625
2746.76	32.4802
2748.09	31.0531
2749.43	29.1303
2750.77	26.7987
2752.11	24.696
2753.45	20.9786
2754.78	18.8897
2756.12	19.3923
2757.46	19.5815
2758.79	19.4729
2760.13	19.1813
2761.46	19.6533
2762.8	17.6246
2764.14	16.3688
2765.47	14.1767
2766.8	13.2162
2768.14	13.0767
2769.47	9.64248
2770.81	10.2938
2772.14	9.52574
2773.48	8.11895
2774.81	8.62396
2776.14	9.41164
2777.48	9.18132
2778.81	8.93643
2780.14	9.77988
2781.47	7.71401
2782.8	9.58765
2784.14	9.47842
2785.47	9.66351
2786.8	9.42974
2788.13	11.1443
2789.46	12.3173
2790.79	12.3882
2792.12	10.3186
2793.45	9.86444
2794.78	10.1511
2796.11	8.80133
2797.44	6.8173
2798.77	3.67747
2800.1	3.38438
2801.43	1.34493
2802.76	0.0818018
2804.09	0.0822576
2805.41	-2.13367
2806.74	-2.83569
2808.07	-6.61291
2809.4	-11.0725
2810.72	-11.9164
2812.05	-10.2091
2813.38	-9.79988
2814.71	-9.94254
2816.03	-9.41426
2817.36	-5.7739
2818.68	-2.52223
2820.01	2.52783
2821.33	12.5688
2822.66	21.9119
2823.98	29.1116
2825.31	38.6939
2826.63	48.3929
2827.96	58.6581
2829.28	70.4456
2830.6	84.0706
2831.93	96.9805
2833.25	110.67
2834.57	125.661
2835.9	140.355
2837.22	154.602
2838.54	169.884
2839.86	185.186
2841.18	200.764
2842.5	215.51
2843.83	227.417
2845.15	241.925
2846.47	256.815
2847.79	270.982
2849.11	287.081
2850.43	301.525
2851.75	319.472
2853.07	336.516
2854.39	354.143
2855.71	369.094
2857.03	384.157
2858.35	395.757
2859.66	409.345
2860.98	420.388
2862.3	431.154
2863.62	440.258
2864.94	449.515
2866.25	460.321
2867.57	465.976
2868.89	473.477
2870.2	478.796
2871.52	483.379
2872.84	489.225
2874.15	491.844
2875.47	498.226
2876.78	503.575
2878.1	509.394
2879.41	513.075
2880.73	517.099
2882.04	523.453
2883.36	529.881
2884.67	536.029
2885.99	542.055
2887.3	548.901
2888.61	551.933
2889.93	558.356
2891.24	563.834
2892.55	570.423
2893.86	575.455
2895.18	579.479
2896.49	584.818
2897.8	586.788
2899.11	592.243
2900.42	595.528
2901.73	599.969
2903.05	601.721
2904.36	607.587
2905.67	611.63
2906.98	617.434
2908.29	623.313
2909.6	630.838
2910.91	642.575
2912.21	651.588
2913.52	660.843
2914.83	670.301
2916.14	681.257
2917.45	689.702
2918.76	695.731
2920.07	700.713
2921.37	704.993
2922.68	707.615
2923.99	707.646
2925.29	710.865
2926.6	710.07
2927.91	709.871
2929.22	708.657
2930.52	706.35
2931.83	704.428
2933.13	698.394
2934.44	693.881
2935.74	685.105
2937.05	677.31
2938.35	669.339
2939.66	659.611
2940.96	651.316
2942.26	639.72
2943.57	628.688
2944.87	615.516
2946.18	602.756
2947.48	588.674
2948.78	573.54
2950.08	559.284
2951.39	544.171
2952.69	528.707
2953.99	512.72
2955.29	498.255
2956.59	480.486
2957.9	465.66
2959.2	449.815
2960.5	431.755
2961.8	417.47
2963.1	401.604
2964.4	385.299
2965.7	367.935
2967	354.875
2968.3	340.472
2969.6	327.612
2970.9	315.947
2972.19	304.114
2973.49	292.301
2974.79	281.107
2976.09	270.28
2977.39	257.259
2978.68	246.112
2979.98	235.169
2981.28	222.399
2982.58	209.755
2983.87	198.647
2985.17	187.408
2986.47	175.969
2987.76	162.807
2989.06	152.064
2990.35	142.251
2991.65	130.775
2992.94	120.561
2994.24	110.926
2995.53	101.614
2996.83	91.262
2998.12	81.8845
2999.42	72.8781
3000.71	66.0556
3002	60.2677
3003.3	55.1326
3004.59	48.2465
3005.88	42.6872
3007.18	36.1642
3008.47	30.7349
3009.76	25.0441
3011.05	20.5662
3012.34	16.6422
3013.64	15.0856
3014.93	12.7586
3016.22	10.034
3017.51	6.82491
3018.8	3.77449
3020.09	1.26328
3021.38	1.28568
3022.67	-0.634501
3023.96	-3.59224
3025.25	-6.09761
3026.54	-6.85481
3027.83	-7.84563
3029.12	-8.29053
3030.41	-7.12532
3031.69	-5.89947
3032.98	-4.79463
3034.27	-5.23938
3035.56	-3.47363
3036.84	-2.53994
3038.13	-0.975398
3039.42	1.10554
3040.71	3.78033
3041.99	5.36159
3043.28	6.93071
3044.57	8.65914
3045.85	10.4189
3047.14	14.0874
3048.42	15.8755
3049.71	15.8479
3050.99	17.4963
3052.28	17.947
3053.56	20.718
3054.85	22.5905
3056.13	22.901
3057.41	22.9619
3058.7	24.9517
3059.98	26.3602
3061.26	27.3553
3062.55	31.3204
3063.83	34.316
3065.11	37.1432
3066.39	39.4758
3067.68	41.3973
3068.96	43.5502
3070.24	45.0338
3071.52	47.223
3072.8	49.3819
3074.08	49.5091
3075.36	52.0611
3076.65	55.0367
3077.93	57.9512
3079.21	58.4123
3080.49	60.9499
3081.77	61.8164
3083.04	63.8959
3084.32	67.3904
3085.6	70.583
3086.88	71.8824
3088.16	74.6955
3089.44	78.2232
3090.72	80.5279
3091.99	84.3864
3093.27	88.2762
3094.55	89.9102
3095.83	92.9591
3097.1	96.4891
3098.38	99.2533
3099.66	104.443
3100.93	107.848
3102.21	112.796
3103.49	116.659
3104.76	120.236
3106.04	124.485
3107.31	128.742
3108.59	134.746
3109.86	139.897
3111.14	145.92
3112.41	150.212
3113.69	155.776
3114.96	162.131
3116.23	167.069
3117.51	174.769
3118.78	179.89
3120.05	184.402
3121.33	191.416
3122.6	199.577
3123.87	206.084
3125.14	213.579
3126.41	221.149
3127.69	228.641
3128.96	235.039
3130.23	242.587
3131.5	248.624
3132.77	255.169
3134.04	261.51
3135.31	269.974
3136.58	276.022
3137.85	283.196
3139.12	291.775
3140.39	299.204
3141.66	305.49
3142.93	311.141
3144.2	316.981
3145.47	322.502
3146.74	326.771
3148	330.333
3149.27	334.245
