#Acq. time (s)=	45
#Accumulations=	2
#Range (cm-¹)=	200...3150
#Windows=	2
#Auto scanning=	Off
#Autofocus=	Off
#Macrospot=	Off
#AutoExposure=	Off
#Spike filter=	Multiple accum.
#Delay time (s)=	0
#Binning=	1
#Readout mode=	Signal
#DeNoise=	Off
#ICS correction=	On
#Dark correction=	Off
#Inst. Process=	Off
#Detector Gain=	Best Dynamic Range
#Detector ADC=	20 kHz       
#Detector temperature (°C)=	-69.85
#Instrument=	LabRAM HR Evol
#Detector=	Synapse
#Objective=	x100
#Grating=	600 gr/mm
#ND Filter=	100%
#Laser (nm)=	532 
#Hole=	100.021
#Range=	Auto
#Laser Pol.=	No
#Raman. Pol.=	No
#Laser Pol. (°)=	-0.0007625
#Raman Pol. (°)=	89.9995
#Collection=	Microscope
#StageXY=	Marzhauser
#StageZ=	Marzhauser
#X (µm)=	-6945.2
#Y (µm)=	1946.6
#Z (µm)=	-75
#Full time(mm:ss)=	3:18
#Project=	
#Sample=	
#Site=	
#Title=	Mb_20_23_36_2x_45s_532 nm_x100_100%_600 gr_mm
#Remark=	
#Date=	13.07.2022 15:55
#Acquired=	13.07.2022 15:55:32
#Base:Fit=	10.08.2022 10:29:37
#Base:Sub=	10.08.2022 10:34:43
#Filter:Polynom=	16.08.2022 10:13:29
#AxisType[0]=Intens
#AxisUnit[0]=Cnt
#AxisType[1]=Spectr
#AxisUnit[1]=1/cm
200.563	107.513
202.377	103.915
204.194	100.274
206.008	96.85
207.821	93.8684
209.634	90.8978
211.449	87.8461
213.262	85.1287
215.074	82.8138
216.885	81.1164
218.699	78.8619
220.51	76.3348
222.321	74.6747
224.131	73.1533
225.941	69.85
227.751	67.6245
229.562	65.2224
231.371	62.875
233.18	60.433
234.988	58.6101
236.796	57.5884
238.603	56.6898
240.411	55.114
242.219	52.4135
244.026	49.4437
245.832	47.8601
247.638	46.4464
249.443	44.1989
251.248	41.8908
253.053	38.5093
254.857	36.521
256.661	36.3661
258.465	34.104
260.268	30.8248
262.071	29.7271
263.874	27.4716
265.678	24.8699
267.48	22.5986
269.282	21.5091
271.083	20.881
272.884	18.9566
274.684	18.6472
276.484	16.745
278.284	14.0304
280.084	11.0236
281.883	9.06119
283.682	8.30118
285.48	7.62473
287.276	6.75714
289.074	5.89969
290.871	6.40173
292.668	6.1032
294.465	7.4346
296.261	7.40057
298.057	7.79549
299.853	8.71031
301.648	10.4947
303.443	12.6531
305.237	15.2161
307.032	16.4745
308.823	19.0324
310.617	21.6008
312.41	24.1008
314.203	25.6969
315.995	26.4528
317.788	28.2085
319.579	28.603
321.369	30.5658
323.16	32.8706
324.951	35.6947
326.741	38.4781
328.531	38.5265
330.321	38.3742
332.108	38.4405
333.897	39.2185
335.686	40.5869
337.474	40.8095
339.26	40.3187
341.048	39.3514
342.835	38.7849
344.622	38.7
346.406	38.1052
348.192	37.4118
349.978	37.559
351.764	36.8684
353.547	35.9858
355.332	34.3927
357.116	32.2222
358.901	31.5913
360.682	30.6005
362.466	28.551
364.249	27.6635
366.03	24.4351
367.812	23.6208
369.594	22.932
371.374	21.51
373.155	21.6662
374.936	20.8833
376.715	20.2036
378.495	19.4793
380.273	19.7711
382.053	20.4379
383.832	20.743
385.609	19.5454
387.388	22.2815
389.164	23.9234
390.942	25.2959
392.72	26.6913
394.495	27.4961
396.272	27.1423
398.047	27.7499
399.823	27.1843
401.597	26.1366
403.372	24.82
405.145	23.4156
406.92	22.4735
408.693	23.0185
410.467	24.5316
412.239	24.6381
414.012	24.0535
415.783	23.3748
417.556	21.8989
419.327	20.8408
421.099	18.9734
422.869	18.2328
424.64	19.0843
426.409	17.7671
428.18	16.2236
429.948	14.1903
431.718	14.0997
433.486	13.9869
435.253	13.1917
437.022	13.4023
438.789	12.6961
440.558	12.1177
442.324	11.7902
444.089	10.9862
445.857	11.8836
447.622	12.4337
449.386	13.2261
451.153	12.8982
452.917	14.5906
454.682	14.6461
456.446	16.9868
458.208	18.0694
459.973	19.4702
461.735	22.4853
463.497	24.1419
465.259	26.3533
467.022	27.5658
468.783	30.4112
470.544	32.6441
472.306	34.3395
474.066	36.8414
475.825	39.9703
477.585	40.8657
479.346	42.545
481.104	43.7505
482.862	44.0986
484.62	44.6222
486.38	45.881
488.137	47.5836
489.894	49.1881
491.65	50.8075
493.407	52.5724
495.164	54.5912
496.92	55.6497
498.675	56.3434
500.43	56.524
502.184	56.9242
503.939	57.6886
505.694	58.1214
507.448	58.1263
509.201	59.6117
510.954	61.6881
512.706	61.2279
514.459	59.5933
516.21	59.0052
517.962	58.8441
519.715	57.978
521.466	57.3858
523.216	57.5493
524.966	57.5762
526.716	58.907
528.466	57.7008
530.215	57.4516
531.964	55.8084
533.712	55.5124
535.46	54.4299
537.208	53.6622
538.955	52.728
540.703	52.085
542.449	49.7126
544.196	49.1217
545.942	47.7299
547.688	47.109
549.433	46.1431
551.178	44.9804
552.923	44.0575
554.667	43.4698
556.412	43.4647
558.155	41.0166
559.899	41.01
561.642	39.9993
563.385	38.3357
565.127	36.9198
566.867	35.2111
568.609	32.7635
570.35	30.9097
572.092	30.4235
573.832	29.1582
575.573	29.0443
577.313	28.0614
579.053	26.0874
580.79	24.9817
582.529	24.4439
584.268	24.209
586.006	24.0385
587.745	22.8609
589.482	22.7439
591.218	21.6416
592.955	21.2952
594.692	20.2215
596.428	19.7467
598.164	19.7591
599.898	19.805
601.634	20.6211
603.369	20.1147
605.104	20.6608
606.836	19.4644
608.57	20.3467
610.304	20.0781
612.037	19.7846
613.769	19.9348
615.501	18.4017
617.234	19.2077
618.966	18.2235
620.696	18.1258
622.427	17.6159
624.159	17.9113
625.887	17.4921
627.618	17.7434
629.348	18.6506
631.076	20.0163
632.806	20.7774
634.535	21.8041
636.262	21.5726
637.99	21.0931
639.716	20.2609
641.444	19.6129
643.172	19.0269
644.897	18.4796
646.624	16.9518
648.348	15.1714
650.075	13.7898
651.801	13.1334
653.524	10.9081
655.249	11.1324
656.972	10.4744
658.697	10.1659
660.419	9.9364
662.143	9.85943
663.865	9.05839
665.588	8.45817
667.309	9.12199
669.032	10.0245
670.752	9.21988
672.474	7.36369
674.194	7.19252
675.915	7.20789
677.634	7.62296
679.355	8.02203
681.073	9.47441
682.793	11.1025
684.511	12.6864
686.23	13.8314
687.947	14.2757
689.664	14.147
691.382	13.8682
693.098	13.3757
694.816	14.6802
696.531	15.8964
698.247	17.5909
699.963	18.304
701.678	20.2875
703.392	21.2454
705.108	22.5118
706.821	24.3263
708.534	26.3733
710.249	27.7638
711.962	29.2092
713.674	30.8069
715.388	31.8239
717.099	32.8142
718.81	33.2523
720.523	33.7227
722.234	32.5871
723.944	32.9137
725.654	33.3305
727.365	34.3431
729.075	35.5383
730.784	35.3705
732.492	36.0485
734.202	37.4483
735.91	37.9793
737.618	37.3714
739.325	38.2539
741.034	40.2203
742.741	40.5135
744.447	41.7486
746.153	43.1741
747.859	43.5995
749.564	44.1201
751.271	45.4525
752.976	47.7286
754.681	48.9283
756.385	49.6065
758.088	49.6412
759.792	51.8904
761.495	52.0549
763.2	55.3656
764.902	56.1498
766.604	58.245
768.306	58.8391
770.008	59.5256
771.709	60.1076
773.41	61.4358
775.11	61.3406
776.811	61.3406
778.51	63.762
780.21	64.7444
781.909	64.9647
783.608	65.9518
785.307	67.3548
787.005	70.6997
788.703	70.8575
790.401	72.5399
792.098	74.4055
793.795	76.3178
795.492	77.7652
797.188	79.2533
798.884	79.8918
800.58	81.1644
802.276	81.7291
803.971	82.3613
805.665	82.8677
807.36	83.2337
809.054	84.7538
810.748	86.0537
812.441	87.763
814.135	89.6084
815.826	90.0299
817.518	90.9805
819.21	91.144
820.902	91.8093
822.594	92.1408
824.285	92.9086
825.976	92.3201
827.665	92.6446
829.355	92.6695
831.045	92.7097
832.735	91.9187
834.424	91.6719
836.111	92.3492
837.8	91.8781
839.488	90.5608
841.177	89.5171
842.864	87.7784
844.55	87.8662
846.237	85.2801
847.924	86.7017
849.61	84.0935
851.295	83.2877
852.98	83.9291
854.666	84.3412
856.349	85.6434
858.034	86.4216
859.719	84.7034
861.403	85.2999
863.085	86.5199
864.769	84.6582
866.452	84.9765
868.133	87.8504
869.816	88.1108
871.498	88.0594
873.179	86.7725
874.86	87.8023
876.54	88.7496
878.221	88.8993
879.902	88.2034
881.58	88.6744
883.26	88.6807
884.938	89.2042
886.618	89.232
888.297	90.2959
889.974	90.1148
891.653	89.7573
893.329	89.916
895.007	89.9108
896.683	89.7097
898.36	88.6023
900.035	87.217
901.712	87.1251
903.387	87.0089
905.063	86.661
906.737	85.0738
908.412	85.3095
910.085	85.1709
911.76	84.6477
913.433	83.6518
915.107	81.7484
916.779	81.3045
918.452	81.0647
920.124	79.6963
921.797	78.7971
923.467	76.1856
925.138	75.7683
926.81	75.5656
928.48	74.2582
930.151	74.2278
931.82	75.6183
933.489	74.3858
935.16	74.3565
936.828	73.1949
938.496	71.0654
940.165	69.403
941.833	65.9134
943.5	63.1947
945.168	60.7221
946.834	56.086
948.5	52.6997
950.168	51.9832
951.834	50.5436
953.499	46.5713
955.163	45.1199
956.83	43.6251
958.494	41.5215
960.158	40.0132
961.821	38.972
963.487	38.5202
965.15	38.0015
966.812	37.4331
968.474	37.4555
970.138	36.9457
971.8	36.8377
973.461	35.8959
975.123	37.6305
976.783	38.83
978.446	38.8968
980.106	40.5576
981.766	40.8111
983.425	41.8753
985.084	42.7719
986.743	43.8812
988.402	45.5354
990.06	46.5151
991.72	48.4441
993.378	48.6696
995.035	48.4946
996.692	49.6462
998.349	50.4253
1000.01	53.1907
1001.66	52.4417
1003.32	52.8581
1004.97	53.5173
1006.63	54.2026
1008.28	57.8085
1009.94	60.1419
1011.59	62.3097
1013.25	64.5053
1014.9	66.0342
1016.55	67.6838
1018.21	67.925
1019.86	69.946
1021.51	74.5399
1023.16	79.4977
1024.81	83.598
1026.47	90.0917
1028.12	96.1708
1029.77	102.852
1031.42	109.131
1033.07	115.028
1034.72	119.78
1036.37	125.542
1038.02	130.619
1039.67	134.426
1041.31	137.853
1042.96	141.877
1044.61	144.92
1046.26	147.718
1047.91	150.332
1049.55	152.359
1051.2	153.764
1052.84	155.011
1054.49	155.795
1056.14	155.19
1057.78	155.66
1059.43	153.216
1061.07	151.403
1062.72	149.404
1064.36	147.037
1066	145.205
1067.65	144.105
1069.29	142.786
1070.93	139.519
1072.58	135.881
1074.22	131.343
1075.86	127.19
1077.5	121.255
1079.14	118.364
1080.78	112.946
1082.42	107.182
1084.06	99.3633
1085.7	93.5905
1087.34	89.3506
1088.98	87.7415
1090.62	86.2322
1092.26	86.4046
1093.9	87.6901
1095.54	88.4879
1097.17	92.6531
1098.81	95.9106
1100.45	99.0982
1102.09	105.692
1103.72	110.225
1105.36	113.689
1106.99	116.961
1108.63	119.481
1110.27	120.648
1111.9	121.119
1113.53	120.872
1115.17	120.967
1116.8	120.073
1118.43	119.048
1120.07	116.736
1121.7	114.318
1123.33	110.933
1124.97	108.99
1126.6	105.639
1128.23	103.548
1129.86	101.134
1131.49	97.7349
1133.12	94.5139
1134.75	90.3749
1136.38	85.7733
1138.01	82.0849
1139.64	80.6211
1141.27	77.1355
1142.9	73.6448
1144.53	70.3881
1146.16	67.2278
1147.78	62.6334
1149.41	58.4007
1151.04	52.2731
1152.67	45.5121
1154.29	40.6035
1155.92	34.1302
1157.54	29.0431
1159.17	22.3399
1160.8	17.8053
1162.42	10.6502
1164.05	8.02866
1165.67	5.21636
1167.29	5.18979
1168.92	8.41629
1170.54	10.5847
1172.16	11.9627
1173.79	14.5255
1175.41	17.5695
1177.03	17.4963
1178.65	19.9209
1180.28	19.1007
1181.9	19.7293
1183.52	20.8197
1185.14	20.0696
1186.76	21.3672
1188.38	22.8566
1190	22.5572
1191.62	23.9322
1193.24	25.2588
1194.86	25.4175
1196.47	25.4109
1198.09	27.0308
1199.71	28.9455
1201.33	30.5379
1202.95	32.2001
1204.56	34.7006
1206.18	37.2155
1207.8	38.863
1209.41	41.9932
1211.03	44.9883
1212.64	48.0363
1214.26	51.9915
1215.87	55.6565
1217.49	61.8057
1219.1	66.6358
1220.71	71.2207
1222.33	74.3274
1223.94	77.1584
1225.55	79.5032
1227.16	82.596
1228.78	84.71
1230.39	88.0393
1232	90.3568
1233.61	92.7542
1235.22	95.5942
1236.83	97.6875
1238.44	99.7006
1240.05	101.406
1241.66	104.541
1243.27	106.623
1244.88	111.023
1246.49	112.739
1248.1	114.527
1249.71	114.984
1251.32	113.527
1252.92	113.025
1254.53	113.069
1256.14	114.611
1257.74	117.991
1259.35	122.97
1260.96	126.82
1262.56	134.265
1264.17	141.331
1265.77	148.311
1267.38	156.3
1268.98	162.823
1270.59	169.004
1272.19	176.812
1273.79	182.746
1275.4	188.052
1277	193.494
1278.6	200.585
1280.21	206.537
1281.81	211.504
1283.41	216.951
1285.01	221.942
1286.61	224.905
1288.21	229.862
1289.81	234.394
1291.41	238.067
1293.01	241.752
1294.61	245.11
1296.21	246.277
1297.81	248.422
1299.41	248.393
1301.01	248.635
1302.6	247.777
1304.2	245.674
1305.8	245.086
1307.4	244.138
1308.99	242.378
1310.59	238.856
1312.19	234.688
1313.78	230.122
1315.38	225.617
1316.97	220.754
1318.57	215.129
1320.16	209.449
1321.76	202.383
1323.35	196.211
1324.94	190.863
1326.54	183.308
1328.13	174.901
1329.72	168.573
1331.32	164.087
1332.91	161.717
1334.5	159.677
1336.09	159.292
1337.68	160.242
1339.27	158.886
1340.87	159.216
1342.45	159.847
1344.04	159.219
1345.64	157.688
1347.22	156.028
1348.81	154.573
1350.4	153.766
1351.99	152.59
1353.58	150.395
1355.17	148.98
1356.75	148.223
1358.34	147.465
1359.93	146.658
1361.51	145
1363.1	145.136
1364.69	143.294
1366.27	141.633
1367.86	141.337
1369.44	140.021
1371.03	138.621
1372.61	137.4
1374.2	136.599
1375.78	135.928
1377.37	136.165
1378.95	134.908
1380.53	135.175
1382.11	134.763
1383.7	135.714
1385.28	136.218
1386.86	135.687
1388.44	135.532
1390.02	132.151
1391.6	132.376
1393.19	131.896
1394.77	130.638
1396.35	128.345
1397.93	126.305
1399.51	127.072
1401.08	129.41
1402.66	134.49
1404.24	141.127
1405.82	146.945
1407.4	155.538
1408.97	165.355
1410.55	176.235
1412.13	187.097
1413.71	198.618
1415.28	211.392
1416.86	224.384
1418.43	238.583
1420.01	253.033
1421.59	266.164
1423.16	279.917
1424.73	294.141
1426.31	309.526
1427.88	325.028
1429.46	340.39
1431.03	354.902
1432.6	368.81
1434.18	382.712
1435.75	394.333
1437.32	403.925
1438.89	414.626
1440.46	422.127
1442.04	428.721
1443.61	432.91
1445.18	437.132
1446.75	439.283
1448.32	439.162
1449.89	437.712
1451.46	434.81
1453.03	430.757
1454.6	424.598
1456.16	416.271
1457.73	406.319
1459.3	395.587
1460.87	382.793
1462.44	368.959
1464	352.31
1465.57	334.874
1467.14	316.496
1468.7	297.873
1470.27	279.973
1471.83	261.624
1473.4	243.064
1474.96	225.504
1476.53	210.926
1478.09	197.903
1479.66	185.326
1481.22	173.394
1482.78	161.519
1484.35	148.452
1485.91	138.096
1487.47	125.999
1489.04	114.768
1490.6	105.138
1492.16	97.1938
1493.72	89.463
1495.28	83.1263
1496.84	78.1739
1498.4	73.4001
1499.96	69.241
1501.52	67.5416
1503.08	65.2302
1504.64	62.383
1506.2	59.1378
1507.76	57.6267
1509.32	55.5324
1510.88	54.0133
1512.44	53.3265
1513.99	50.4063
1515.55	49.9046
1517.11	50.1381
1518.66	49.2556
1520.22	48.363
1521.78	47.5797
1523.33	48.4924
1524.89	48.4003
1526.44	47.7443
1528	47.3332
1529.55	47.6295
1531.11	48.3325
1532.66	49.418
1534.21	50.778
1535.77	51.8811
1537.32	53.7413
1538.87	56.3242
1540.43	57.3478
1541.98	59.0694
1543.53	61.398
1545.08	63.8669
1546.63	64.9976
1548.18	66.8016
1549.74	68.5835
1551.29	70.6131
1552.84	72.7458
1554.39	75.7118
1555.94	78.2435
1557.48	80.4027
1559.03	81.8937
1560.58	83.8332
1562.13	86.1569
1563.68	88.7337
1565.23	91.2446
1566.78	94.4209
1568.32	98.3033
1569.87	101.68
1571.42	105.388
1572.96	108.186
1574.51	111.413
1576.05	114.726
1577.6	117.281
1579.14	119.778
1580.69	120.883
1582.24	121.691
1583.78	124.309
1585.32	127.767
1586.87	129.856
1588.41	131.815
1589.95	132.892
1591.5	133.075
1593.04	134.996
1594.58	135.374
1596.12	135.615
1597.67	137.332
1599.21	138.032
1600.75	138.36
1602.29	136.844
1603.83	136.583
1605.37	136.611
1606.91	138.52
1608.45	138.586
1609.99	138.926
1611.53	139.508
1613.07	139.629
1614.6	139.334
1616.14	139.899
1617.68	139.014
1619.22	138.774
1620.75	138.36
1622.29	138.067
1623.83	137.051
1625.37	139.167
1626.9	140.25
1628.44	143.018
1629.97	143.736
1631.51	145.462
1633.04	147.415
1634.58	148.173
1636.11	150.165
1637.65	152.228
1639.18	156.205
1640.72	158.026
1642.25	160.235
1643.78	162.483
1645.31	166.113
1646.85	168.765
1648.38	171.493
1649.91	172.572
1651.44	175.108
1652.97	176.497
1654.5	177.708
1656.03	178.93
1657.56	178.453
1659.1	178.244
1660.62	178.556
1662.15	177.862
1663.68	175.995
1665.21	172.979
1666.74	170.932
1668.27	168.226
1669.8	164.609
1671.32	160.863
1672.85	157.576
1674.38	153.843
1675.91	147.827
1677.43	142.739
1678.96	138.58
1680.49	133.824
1682.01	128.7
1683.54	123.306
1685.06	117.006
1686.59	112.08
1688.11	106.748
1689.64	100.808
1691.16	94.9951
1692.68	90.2525
1694.21	84.1362
1695.73	80.7291
1697.25	77.0908
1698.78	73.5896
1700.3	69.7324
1701.82	68.1893
1703.34	63.9087
1704.86	60.2828
1706.39	56.7564
1707.91	54.9797
1709.43	51.3519
1710.95	48.0994
1712.47	45.8607
1713.99	43.7408
1715.51	41.939
1717.02	38.314
1718.54	37.3688
1720.06	36.4674
1721.58	35.8102
1723.1	34.3073
1724.62	34.2354
1726.13	34.1202
1727.65	34.0478
1729.17	32.7555
1730.68	32.0713
1732.2	31.2634
1733.72	30.0263
1735.23	28.7867
1736.75	27.9615
1738.26	27.9532
1739.78	26.4733
1741.29	26.3762
1742.81	26.402
1744.32	25.4574
1745.84	25.0518
1747.35	25.7941
1748.86	25.4372
1750.37	24.3976
1751.89	23.9215
1753.4	22.8897
1754.91	21.8218
1756.42	20.2894
1757.93	19.4817
1759.45	18.7441
1760.96	18.3523
1762.47	18.3919
1763.98	17.8114
1765.49	16.9694
1767	16.8186
1768.51	16.7692
1770.02	16.5367
1771.53	17.0254
1773.03	15.6756
1774.54	14.0218
1776.05	13.1101
1777.56	12.3643
1779.07	10.6233
1780.57	10.2712
1782.08	9.8863
1783.59	9.30014
1785.09	8.32929
1786.6	7.75633
1788.11	6.97636
1789.61	6.58756
1791.12	5.97314
1792.62	5.80214
1794.13	6.06157
1795.63	5.38679
1797.13	5.33146
1798.64	4.25919
1800.14	4.20055
1801.65	3.38957
1803.15	2.586
1804.65	1.76307
1806.15	2.22044
1807.66	1.90622
1809.16	1.64051
1810.66	0.816682
1812.16	1.09669
1813.66	1.2997
1815.16	0.276633
1816.66	0.924179
1818.16	0.622513
1819.66	0.951145
1821.16	0.878374
1822.66	1.51804
1824.16	1.24044
1825.66	1.03456
1827.16	0.86614
1828.66	0.4449
1830.16	1.19524
1831.65	1.37289
1833.15	1.9886
1834.65	2.87733
1836.14	3.3104
1837.64	3.03847
1839.14	2.79365
1840.63	2.29773
1842.13	2.59833
1843.62	2.71806
1845.12	2.28514
1846.61	2.02135
1848.11	1.77695
1849.6	2.24868
1851.1	3.11852
1852.59	3.28182
1854.08	3.3236
1855.58	3.74731
1857.07	3.91148
1858.56	4.19192
1860.05	4.82593
1861.55	3.62987
1863.04	3.6364
1864.53	4.0708
1866.02	3.64146
1867.51	3.68411
1869	4.19557
1870.49	3.91704
1871.98	4.41086
1873.47	4.60137
1874.96	4.35422
1876.45	3.96034
1877.94	3.73466
1879.43	3.50752
1880.92	3.23001
1882.41	2.7129
1882.51	2.22124
1884	1.6096
1885.5	1.96585
1886.99	1.38803
1888.48	0.982769
1889.98	0.98585
1891.47	0.408992
1892.96	0.795375
1894.46	0.367866
1895.95	0.751101
1897.44	0.377
1898.93	0.564728
1900.42	1.61027
1901.91	3.25306
1903.41	3.47725
1904.9	3.45287
1906.39	3.24747
1907.88	3.23709
1909.37	2.89284
1910.86	2.35816
1912.35	2.85044
1913.83	2.96723
1915.32	4.29075
1916.81	5.01618
1918.3	4.64381
1919.79	5.46735
1921.27	6.33831
1922.76	6.03257
1924.25	6.17853
1925.74	5.83829
1927.22	6.67854
1928.71	6.29538
1930.19	6.31179
1931.68	6.65255
1933.17	6.99615
1934.65	6.77377
1936.14	6.96902
1937.62	6.89941
1939.11	6.5702
1940.59	6.98592
1942.07	6.96496
1943.56	6.34234
1945.04	5.76916
1946.52	4.92424
1948.01	3.96965
1949.49	3.74199
1950.97	3.86187
1952.45	3.30673
1953.93	1.9348
1955.42	1.04709
1956.9	0.310329
1958.38	0.09227
1959.86	-0.104343
1961.34	-0.809016
1962.82	-1.05269
1964.3	-1.42275
1965.78	-1.04315
1967.26	0.0700035
1968.74	0.166721
1970.21	1.42109
1971.69	1.62442
1973.17	2.75345
1974.65	3.16115
1976.13	2.90724
1977.6	1.79874
1979.08	1.45623
1980.56	0.498595
1982.03	0.555885
1983.51	0.916002
1984.99	1.73091
1986.46	2.10601
1987.94	2.70504
1989.41	3.31289
1990.89	3.21873
1992.36	2.43351
1993.84	3.33771
1995.31	3.33432
1996.78	3.30219
1998.26	4.22211
1999.73	4.2333
2001.2	4.75883
2002.68	4.48025
2004.15	5.78477
2005.62	6.98665
2007.09	7.22101
2008.56	7.12985
2010.04	6.11605
2011.51	7.25476
2012.98	7.44489
2014.45	7.57107
2015.92	7.71416
2017.39	7.67035
2018.86	7.53838
2020.33	7.82205
2021.8	7.92823
2023.26	8.5312
2024.73	8.45951
2026.2	7.89201
2027.67	7.90628
2029.14	8.24896
2030.61	9.09227
2032.07	8.97109
2033.54	8.8459
2035.01	9.0293
2036.47	9.33725
2037.94	10.0267
2039.4	10.5912
2040.87	11.0787
2042.33	10.2868
2043.8	10.3595
2045.27	9.29307
2046.73	9.65986
2048.19	8.38854
2049.66	7.58177
2051.12	6.12655
2052.59	6.13284
2054.05	7.01674
2055.51	8.50528
2056.97	9.85454
2058.44	10.1804
2059.9	10.3042
2061.36	11.138
2062.82	12.0758
2064.28	13.1465
2065.74	13.3906
2067.21	14.4368
2068.67	14.6104
2070.13	15.4277
2071.59	16.0267
2073.05	16.5536
2074.51	16.4266
2075.96	16.8416
2077.42	16.9884
2078.88	17.1037
2080.34	16.5771
2081.8	16.8977
2083.26	16.9513
2084.72	18.5959
2086.17	19.2476
2087.63	19.4397
2089.09	19.088
2090.54	19.5598
2092	19.4697
2093.45	20.162
2094.91	20.1657
2096.37	20.6618
2097.82	20.9238
2099.28	21.1767
2100.73	21.1882
2102.19	21.3008
2103.64	22.1063
2105.09	22.4137
2106.55	23.283
2108	23.4369
2109.45	23.7727
2110.91	24.7252
2112.36	25.4412
2113.81	25.3471
2115.26	25.885
2116.72	26.876
2118.17	26.9204
2119.62	29.0447
2121.07	30.7737
2122.52	33.3669
2123.97	35.69
2125.42	39.0653
2126.87	41.6566
2128.32	43.7833
2129.77	45.6067
2131.22	47.1169
2132.67	49.3998
2134.11	51.7514
2135.56	54.1917
2137.01	55.5912
2138.46	56.6265
2139.91	58.4272
2141.35	60.8131
2142.8	63.2205
2144.25	65.6526
2145.7	67.3486
2147.14	69.8121
2148.59	72.6013
2150.03	75.4036
2151.48	78.0825
2152.92	80.9152
2154.37	84.6538
2155.81	87.1575
2157.26	90.2501
2158.7	92.0625
2160.15	93.742
2161.59	96.0843
2163.03	98.8308
2164.47	100.629
2165.92	103.352
2167.36	104.006
2168.8	105.778
2170.24	106.614
2171.69	107.269
2173.13	107.398
2174.57	108.785
2176.01	108.875
2177.45	108.971
2178.89	108.557
2180.33	106.774
2181.77	106.768
2183.21	105.538
2184.65	103.172
2186.09	100.387
2187.53	99.709
2188.97	97.7629
2190.4	95.9984
2191.84	95.1403
2193.28	92.8819
2194.72	89.5891
2196.16	86.804
2197.59	83.9943
2199.03	80.8862
2200.47	77.643
2201.9	74.3522
2203.34	70.6085
2204.77	67.8045
2206.21	65.34
2207.64	61.409
2209.08	58.3629
2210.51	55.5881
2211.95	53.2677
2213.38	51.9753
2214.82	49.578
2216.25	47.7223
2217.68	45.5771
2219.12	43.3194
2220.55	41.479
2221.98	40.5208
2223.41	38.7704
2224.85	37.9218
2226.28	36.7415
2227.71	35.1219
2229.14	34.6369
2230.57	34.1789
2232	33.9035
2233.43	33.27
2234.86	32.2833
2236.29	31.702
2237.72	31.2021
2239.15	30.0396
2240.58	29.2065
2242.01	28.206
2243.44	27.8009
2244.87	26.6274
2246.29	26.6281
2247.72	25.5117
2249.15	24.4062
2250.58	23.5466
2252.01	21.9003
2253.43	21.2847
2254.86	20.2235
2256.29	19.9364
2257.71	19.1453
2259.14	19.1081
2260.56	18.1217
2261.99	17.5172
2263.41	17.0252
2264.84	15.8379
2266.26	14.4832
2267.69	14.6648
2269.11	13.4339
2270.53	12.738
2271.96	11.4221
2273.38	10.2264
2274.8	9.36036
2276.23	9.23352
2277.65	8.67925
2279.07	8.06908
2280.49	8.07739
2281.91	7.9888
2283.34	8.28622
2284.76	7.95476
2286.18	6.77477
2287.6	6.57757
2289.02	5.61765
2290.44	5.22372
2291.86	5.40105
2293.28	4.55998
2294.7	3.93383
2296.12	4.69724
2297.54	5.08664
2298.96	5.84988
2300.37	6.70604
2301.79	7.28767
2303.21	7.6601
2304.63	8.43963
2306.04	7.944
2307.46	9.27708
2308.88	9.10178
2310.3	8.54389
2311.71	9.16551
2313.13	9.98977
2314.54	10.8172
2315.96	10.5267
2317.37	10.626
2318.79	10.3874
2320.2	9.46916
2321.62	9.6089
2323.03	8.74499
2324.45	8.26514
2325.86	7.96393
2327.27	7.19159
2328.69	6.98951
2330.1	6.88318
2331.51	6.84626
2332.92	6.48815
2334.34	6.00268
2335.75	5.3354
2337.16	5.63985
2338.57	5.91382
2339.98	4.78656
2341.39	4.80276
2342.8	4.08385
2344.21	3.99256
2345.63	4.33614
2347.04	4.44825
2348.45	4.19969
2349.85	3.95033
2351.26	3.29657
2352.67	3.29475
2354.08	3.28616
2355.49	3.43202
2356.9	2.93487
2358.3	2.53015
2359.71	1.78314
2361.12	1.71818
2362.53	1.48346
2363.93	2.53631
2365.34	3.14878
2366.75	3.88984
2368.15	4.56817
2369.56	5.09361
2370.97	5.54508
2372.37	5.41879
2373.77	5.46911
2375.18	5.29212
2376.59	4.65772
2377.99	4.68708
2379.39	4.25412
2380.8	4.55377
2382.2	5.69317
2383.6	4.36181
2385.01	3.92975
2386.41	2.62067
2387.81	2.22621
2389.21	1.76599
2390.62	1.82351
2392.02	2.08381
2393.42	1.80229
2394.82	0.98605
2396.22	1.21997
2397.62	1.67826
2399.02	2.3486
2400.42	2.10948
2401.82	2.59975
2403.22	3.44187
2404.62	4.04742
2406.02	4.2506
2407.42	5.06917
2408.82	4.94957
2410.22	4.95872
2411.62	5.20726
2413.01	4.93213
2414.41	5.69412
2415.81	6.16292
2417.21	6.69657
2418.6	6.91233
2420	8.12811
2421.4	8.45857
2422.79	8.8884
2424.19	9.20807
2425.59	9.16869
2426.98	8.68886
2428.38	9.55729
2429.77	10.4164
2431.17	11.902
2432.56	12.5021
2433.95	13.0917
2435.35	13.0581
2436.74	13.0416
2438.14	13.7408
2439.53	13.7441
2440.92	13.7273
2442.31	12.7648
2443.71	12.2971
2445.1	11.6851
2446.49	11.2981
2447.88	11.1251
2449.27	11.7982
2450.67	11.6757
2452.06	11.7215
2453.45	10.6258
2454.84	10.6695
2456.23	10.3932
2457.62	10.5299
2459.01	10.5211
2460.4	10.9114
2461.79	10.5094
2463.18	9.92945
2464.57	8.89971
2465.95	9.05273
2467.34	9.16067
2468.73	8.49937
2470.12	8.29326
2471.5	8.43262
2472.89	7.51037
2474.28	6.1538
2475.67	5.18761
2477.05	4.67362
2478.44	3.47494
2479.82	2.96305
2481.21	2.43225
2482.6	2.43146
2483.98	2.20375
2485.37	1.26406
2486.75	0.996721
2488.13	0.248989
2489.52	0.164914
2490.9	-0.111991
2492.29	9.0492e-005
2493.67	-0.13972
2495.05	0.611083
2496.44	1.18658
2497.82	1.58634
2499.2	2.18505
2500.58	2.12161
2501.97	1.14364
2503.35	1.64656
2504.73	1.15305
2506.11	1.01729
2507.49	1.69056
2508.87	1.87506
2510.25	1.44236
2511.63	1.31291
2513.01	2.55258
2514.39	3.66327
2515.77	4.70457
2517.15	5.59911
2518.53	5.78632
2519.91	5.7734
2521.29	6.36394
2522.67	7.14003
2524.05	7.78688
2525.42	8.2609
2526.8	8.54387
2528.18	8.84343
2529.55	9.65086
2530.93	9.68868
2532.31	9.3979
2533.69	8.40352
2535.06	9.38617
2536.44	10.0528
2537.81	10.0146
2539.19	10.4163
2540.56	9.97887
2541.94	9.16318
2543.31	9.08677
2544.69	8.99569
2546.06	8.28863
2547.44	7.83935
2548.81	7.87745
2550.18	8.04324
2551.56	8.06509
2552.93	7.27053
2554.3	7.58481
2555.67	7.70992
2557.04	8.50611
2558.42	9.42172
2559.79	10.1305
2561.16	9.61872
2562.53	10.0233
2563.9	10.8236
2565.27	10.623
2566.64	10.2104
2568.01	9.81312
2569.38	9.6206
2570.75	9.49438
2572.12	9.77303
2573.49	9.81116
2574.86	10.4197
2576.23	9.85253
2577.6	10.0383
2578.97	9.60941
2580.33	10.2852
2581.7	10.7305
2583.07	10.4745
2584.44	10.0737
2585.8	9.5181
2587.17	10.0199
2588.54	10.6898
2589.9	11.1772
2591.27	11.5515
2592.64	11.0948
2594	10.7791
2595.37	10.9747
2596.73	11.1882
2598.1	11.7541
2599.46	11.4011
2600.83	10.9249
2602.19	11.4525
2603.55	11.8289
2604.92	11.6171
2606.28	11.2508
2607.64	10.6929
2609.01	10.3954
2610.37	10.5128
2611.73	10.2906
2613.09	10.3167
2614.46	10.2209
2615.82	11.2947
2617.18	11.9305
2618.54	12.1627
2619.9	12.6039
2621.26	13.2082
2622.62	13.9484
2623.98	14.3152
2625.34	15.3069
2626.7	15.3791
2628.06	15.7527
2629.42	15.7691
2630.78	16.3374
2632.14	16.582
2633.5	16.399
2634.86	16.7343
2636.21	17.1024
2637.57	17.2332
2638.93	17.0063
2640.29	17.7491
2641.64	18.2914
2643	18.5299
2644.36	18.5366
2645.71	19.4448
2647.07	20.2
2648.43	20.0875
2649.78	20.0347
2651.14	20.0891
2652.49	19.1092
2653.85	19.2346
2655.2	19.7566
2656.56	18.7861
2657.91	18.4093
2659.26	18.6479
2660.62	17.9526
2661.97	17.056
2663.32	16.6569
2664.68	16.378
2666.03	16.5641
2667.38	15.9022
2668.74	15.9609
2670.09	15.7418
2671.44	14.3334
2672.79	13.9146
2674.14	13.692
2675.49	13.4675
2676.84	13.2886
2678.19	13.1577
2679.54	13.0475
2680.89	13.4531
2682.24	14.2367
2683.59	14.7759
2684.94	15.0063
2686.29	15.9907
2687.64	17.3605
2688.99	17.9112
2690.34	18.6661
2691.69	19.8497
2693.03	21.3294
2694.38	23.2716
2695.73	25.1234
2697.08	26.9255
2698.42	28.7472
2699.77	31.53
2701.12	33.2497
2702.46	35.7396
2703.81	38.0501
2705.15	40.3531
2706.5	43.1967
2707.85	46.122
2709.19	48.2707
2710.54	50.6613
2711.88	52.573
2713.22	53.9295
2714.57	54.7781
2715.91	55.3994
2717.26	56.8346
2718.6	57.4454
2719.94	57.316
2721.29	58.9657
2722.63	59.2895
2723.97	59.2457
2725.31	59.6056
2726.66	59.0633
2728	57.3646
2729.34	56.1193
2730.68	54.7073
2732.02	52.8295
2733.36	51.0748
2734.7	48.42
2736.04	45.8323
2737.38	42.6014
2738.72	39.7872
2740.06	37.1525
2741.4	34.9225
2742.74	32.2937
2744.08	29.8032
2745.42	27.2391
2746.76	25.047
2748.09	23.5374
2749.43	20.5749
2750.77	17.901
2752.11	16.0396
2753.45	13.5637
2754.78	11.6235
2756.12	9.36495
2757.46	8.13974
2758.79	6.36503
2760.13	5.33997
2761.46	4.49675
2762.8	3.09241
2764.14	2.5782
2765.47	1.763
2766.8	1.71259
2768.14	0.687738
2769.47	0.821275
2770.81	-0.0812164
2772.14	-0.186651
2773.48	0.0139159
2774.81	0.343868
2776.14	-0.0472223
2777.48	0.318378
2778.81	0.581504
2780.14	1.24879
2781.47	1.37392
2782.8	2.32218
2784.14	2.77463
2785.47	3.15888
2786.8	3.97665
2788.13	4.49135
2789.46	4.40459
2790.79	4.79263
2792.12	4.79404
2793.45	4.29636
2794.78	4.57005
2796.11	4.61652
2797.44	4.2996
2798.77	4.84506
2800.1	4.36655
2801.43	3.1339
2802.76	1.63607
2804.09	0.6876
2805.41	-0.426624
2806.74	-2.58386
2808.07	-5.0047
2809.4	-7.25655
2810.72	-8.07468
2812.05	-6.83019
2813.38	-3.97359
2814.71	0.466218
2816.03	6.89003
2817.36	16.8144
2818.68	28.0946
2820.01	42.4021
2821.33	59.3844
2822.66	76.5708
2823.98	96.8921
2825.31	117.963
2826.63	141.821
2827.96	165.465
2829.28	190.479
2830.6	217.424
2831.93	243.63
2833.25	271.07
2834.57	297.874
2835.9	325.404
2837.22	352.605
2838.54	380.175
2839.86	407.287
2841.18	434.604
2842.5	460.783
2843.83	486.957
2845.15	509.976
2846.47	531.35
2847.79	553.927
2849.11	578.868
2850.43	605.482
2851.75	634.548
2853.07	666.035
2854.39	697.398
2855.71	728.466
2857.03	758.545
2858.35	786.733
2859.66	813.107
2860.98	838.077
2862.3	858.672
2863.62	876.33
2864.94	891.859
2866.25	904.83
2867.57	915.886
2868.89	925.02
2870.2	932.288
2871.52	938.365
2872.84	943.588
2874.15	948.841
2875.47	954.982
2876.78	961.376
2878.1	966.769
2879.41	972.456
2880.73	976.862
2882.04	982.256
2883.36	986.738
2884.67	990.235
2885.99	993.563
2887.3	994.377
2888.61	993.86
2889.93	993.866
2891.24	992.385
2892.55	989.043
2893.86	984.224
2895.18	980.371
2896.49	975.435
2897.8	969.478
2899.11	963.457
2900.42	956.475
2901.73	950.503
2903.05	945.782
2904.36	941.417
2905.67	937.414
2906.98	935.687
2908.29	934.341
2909.6	934.748
2910.91	936.402
2912.21	943.597
2913.52	954.24
2914.83	966.203
2916.14	980.021
2917.45	993.365
2918.76	1004.15
2920.07	1011.32
2921.37	1015.67
2922.68	1019.66
2923.99	1020.47
2925.29	1020.81
2926.6	1019.04
2927.91	1014.8
2929.22	1009.76
2930.52	1005.04
2931.83	998.281
2933.13	989.844
2934.44	981.111
2935.74	972.26
2937.05	961.075
2938.35	948.834
2939.66	935.553
2940.96	920.485
2942.26	903.456
2943.57	886.018
2944.87	867.294
2946.18	847.222
2947.48	827.707
2948.78	806.508
2950.08	784.068
2951.39	761.513
2952.69	738.817
2953.99	715.86
2955.29	693.013
2956.59	669.527
2957.9	646.807
2959.2	625.998
2960.5	604.65
2961.8	583.663
2963.1	562.864
2964.4	542.958
2965.7	524.523
2967	507.627
2968.3	491.49
2969.6	474.631
2970.9	457.955
2972.19	443.025
2973.49	426.964
2974.79	411.206
2976.09	396.163
2977.39	381.725
2978.68	366.386
2979.98	351.398
2981.28	336.202
2982.58	319.647
2983.87	303.082
2985.17	286.679
2986.47	271.004
2987.76	256.852
2989.06	241.856
2990.35	228.113
2991.65	213.292
2992.94	199.456
2994.24	186.138
2995.53	173.637
2996.83	160.887
2998.12	149.715
2999.42	139.015
3000.71	128.23
3002	117.091
3003.3	107.868
3004.59	98.3189
3005.88	88.8138
3007.18	80.6088
3008.47	72.887
3009.76	65.1819
3011.05	58.8786
3012.34	52.501
3013.64	47.283
3014.93	41.3587
3016.22	36.5054
3017.51	31.9074
3018.8	27.3435
3020.09	23.6529
3021.38	20.4248
3022.67	17.6496
3023.96	14.0602
3025.25	10.6135
3026.54	8.47161
3027.83	6.05452
3029.12	5.01457
3030.41	4.06788
3031.69	2.60452
3032.98	1.60064
3034.27	0.714012
3035.56	0.48361
3036.84	0.772358
3038.13	2.26845
3039.42	3.45933
3040.71	4.0163
3041.99	4.29951
3043.28	5.05492
3044.57	6.4036
3045.85	7.10311
3047.14	8.22824
3048.42	9.15547
3049.71	9.44051
3050.99	10.0498
3052.28	10.5043
3053.56	9.82016
3054.85	9.55287
3056.13	10.0273
3057.41	10.119
3058.7	9.66856
3059.98	9.43662
3061.26	9.5127
3062.55	9.90643
3063.83	9.43349
3065.11	9.29232
3066.39	9.44204
3067.68	8.76433
3068.96	8.58294
3070.24	8.49918
3071.52	8.17005
3072.8	7.88364
3074.08	7.7436
3075.36	6.92364
3076.65	6.80319
3077.93	6.15544
3079.21	4.71984
3080.49	4.14528
3081.77	3.85632
3083.04	3.09993
3084.32	2.70424
3085.6	2.26262
3086.88	1.43333
3088.16	0.836219
3089.44	0.991132
3090.72	1.31918
3091.99	0.931219
3093.27	1.90598
3094.55	2.29852
3095.83	3.33128
3097.1	5.35006
3098.38	6.96984
3099.66	8.52845
3100.93	9.79644
3102.21	11.8898
3103.49	12.06
3104.76	13.3272
3106.04	15.0331
3107.31	17.7322
3108.59	19.7521
3109.86	21.3236
3111.14	23.4226
3112.41	24.9724
3113.69	26.9887
3114.96	28.6489
3116.23	30.9281
3117.51	33.0164
3118.78	35.732
3120.05	38.0551
3121.33	39.7143
3122.6	41.7787
3123.87	44.6471
3125.14	47.4823
3126.41	50.1927
3127.69	52.5647
3128.96	55.6649
3130.23	58.4025
3131.5	61.287
3132.77	64.7988
3134.04	67.6993
3135.31	71.0027
3136.58	74.174
3137.85	76.3912
3139.12	78.9993
3140.39	81.8669
3141.66	84.3393
3142.93	87.0634
3144.2	89.8999
3145.47	92.6442
3146.74	95.8249
3148	98.3775
3149.27	102.474
