#Acq. time (s)=	45
#Accumulations=	2
#Range (cm-¹)=	200...3150
#Windows=	2
#Auto scanning=	Off
#Autofocus=	Off
#Macrospot=	Off
#AutoExposure=	Off
#Spike filter=	Multiple accum.
#Delay time (s)=	0
#Binning=	1
#Readout mode=	Signal
#DeNoise=	Off
#ICS correction=	On
#Dark correction=	Off
#Inst. Process=	Off
#Detector Gain=	Best Dynamic Range
#Detector ADC=	20 kHz       
#Detector temperature (°C)=	-69.85
#Instrument=	LabRAM HR Evol
#Detector=	Synapse
#Objective=	x100
#Grating=	600 gr/mm
#ND Filter=	100%
#Laser (nm)=	532 
#Hole=	100.021
#Range=	Auto
#Laser Pol.=	No
#Raman. Pol.=	No
#Laser Pol. (°)=	-0.0007625
#Raman Pol. (°)=	89.9995
#Collection=	Microscope
#StageXY=	Marzhauser
#StageZ=	Marzhauser
#X (µm)=	-6995.3
#Y (µm)=	2104.4
#Z (µm)=	-74.65
#Full time(mm:ss)=	3:18
#Project=	
#Sample=	
#Site=	
#Title=	Mb_20_23_14_2x_45s_532 nm_x100_100%_600 gr_mm
#Remark=	
#Date=	13.07.2022 13:56
#Acquired=	13.07.2022 13:56:58
#Edit:Spike=	10.08.2022 10:28:56
#Base:Fit=	10.08.2022 10:29:19
#Base:Fit=	10.08.2022 10:29:37
#Base:Sub=	10.08.2022 10:32:28
#Filter:Polynom=	16.08.2022 10:13:29
#AxisType[0]=Intens
#AxisUnit[0]=Cnt
#AxisType[1]=Spectr
#AxisUnit[1]=1/cm
200.563	19.4066
202.377	15.5947
204.194	12.9107
206.008	11.5457
207.821	10.1158
209.634	8.91538
211.449	8.05395
213.262	6.85838
215.074	5.47169
216.885	5.01379
218.699	4.10214
220.51	3.01378
222.321	2.22063
224.131	2.62929
225.941	1.91097
227.751	3.25713
229.562	1.80946
231.371	2.73486
233.18	1.33395
234.988	0.726866
236.796	2.02775
238.603	3.37243
240.411	4.28448
242.219	3.91056
244.026	3.92634
245.832	3.93173
247.638	4.46116
249.443	5.00243
251.248	5.25963
253.053	3.87455
254.857	4.164
256.661	5.63851
258.465	6.97197
260.268	9.75354
262.071	8.36044
263.874	7.50806
265.678	7.81045
267.48	6.67418
269.282	5.85535
271.083	6.4821
272.884	7.09292
274.684	7.20808
276.484	6.28821
278.284	8.40665
280.084	7.65987
281.883	8.17135
283.682	7.40259
285.48	7.29428
287.276	6.00443
289.074	5.08489
290.871	4.40959
292.668	5.78717
294.465	5.49411
296.261	5.93437
298.057	7.29659
299.853	9.04087
301.648	9.47527
303.443	9.62425
305.237	10.1451
307.032	11.7888
308.823	13.7973
310.617	15.298
312.41	17.1594
314.203	19.4884
315.995	21.0237
317.788	23.3222
319.579	24.4523
321.369	25.6363
323.16	26.2634
324.951	28.15
326.741	29.5113
328.531	28.27
330.321	27.9957
332.108	28.4024
333.897	29.8599
335.686	30.8803
337.474	30.8511
339.26	31.496
341.048	30.4781
342.835	31.1415
344.622	30.0597
346.406	29.1355
348.192	26.7948
349.978	25.3449
351.764	22.7079
353.547	22.08
355.332	19.4094
357.116	20.1575
358.901	19.9457
360.682	18.6899
362.466	18.3391
364.249	16.706
366.03	16.0319
367.812	14.1753
369.594	12.7628
371.374	12.3636
373.155	9.05295
374.936	7.85654
376.715	6.12454
378.495	6.83222
380.273	6.98585
382.053	7.92501
383.832	8.90052
385.609	10.5277
387.388	12.4143
389.164	12.9822
390.942	14.3815
392.72	14.5382
394.495	16.4894
396.272	17.9862
398.047	20.5848
399.823	21.1041
401.597	22.6891
403.372	22.932
405.145	22.8035
406.92	22.717
408.693	23.7816
410.467	22.5988
412.239	24.3886
414.012	24.769
415.783	25.4339
417.556	26.5287
419.327	28.5231
421.099	30.024
422.869	30.9747
424.64	31.0819
426.409	30.4702
428.18	30.7752
429.948	30.8007
431.718	31.6524
433.486	30.4692
435.253	29.404
437.022	28.6916
438.789	28.9688
440.558	29.1269
442.324	30.0625
444.089	31.618
445.857	33.0247
447.622	34.0233
449.386	35.4219
451.153	36.165
452.917	35.3359
454.682	36.1737
456.446	36.6925
458.208	38.0718
459.973	38.1554
461.735	38.3288
463.497	39.6518
465.259	39.3146
467.022	40.9446
468.783	41.3618
470.544	43.7082
472.306	45.0659
474.066	46.0582
475.825	47.2756
477.585	47.5697
479.346	49.5251
481.104	49.1722
482.862	51.2215
484.62	51.3697
486.38	53.7455
488.137	53.59
489.894	54.2798
491.65	53.717
493.407	55.0531
495.164	56.8939
496.92	59.0813
498.675	58.831
500.43	60.2097
502.184	61.095
503.939	61.2375
505.694	61.8897
507.448	60.9244
509.201	61.9791
510.954	63.2731
512.706	62.9093
514.459	61.5645
516.21	61.4808
517.962	60.7374
519.715	59.4181
521.466	59.2524
523.216	59.7385
524.966	59.1153
526.716	58.8346
528.466	59.4331
530.215	60.3824
531.964	60.255
533.712	59.0184
535.46	56.741
537.208	55.1778
538.955	53.419
540.703	52.8263
542.449	51.9511
544.196	49.3564
545.942	48.1474
547.688	46.6263
549.433	45.8707
551.178	43.2548
552.923	41.5244
554.667	40.4578
556.412	38.9202
558.155	38.7461
559.899	37.842
561.642	37.3887
563.385	36.9231
565.127	36.8854
566.867	35.7203
568.609	33.7365
570.35	33.0298
572.092	31.9786
573.832	31.5959
575.573	29.9488
577.313	27.5576
579.053	25.9688
580.79	25.621
582.529	25.3727
584.268	23.4264
586.006	20.9371
587.745	18.9855
589.482	17.4374
591.218	14.271
592.955	13.2188
594.692	12.2662
596.428	13.3164
598.164	12.5534
599.898	10.0647
601.634	9.47066
603.369	9.90921
605.104	10.3232
606.836	12.2491
608.57	12.6998
610.304	11.7527
612.037	10.0985
613.769	9.35248
615.501	9.38615
617.234	9.20146
618.966	10.4888
620.696	11.0853
622.427	11.2555
624.159	13.6285
625.887	13.5243
627.618	13.7948
629.348	13.2521
631.076	14.4319
632.806	15.9164
634.535	16.6432
636.262	16.6332
637.99	17.8099
639.716	17.7992
641.444	18.8004
643.172	20.2528
644.897	22.5447
646.624	23.244
648.348	22.3706
650.075	21.522
651.801	21.8257
653.524	21.7896
655.249	21.5544
656.972	21.124
658.697	19.8822
660.419	18.8637
662.143	18.2406
663.865	17.7905
665.588	17.4639
667.309	15.5253
669.032	14.9964
670.752	13.6426
672.474	11.4653
674.194	10.3705
675.915	10.2428
677.634	10.9625
679.355	11.9941
681.073	12.3361
682.793	12.3473
684.511	13.071
686.23	13.5942
687.947	14.4958
689.664	15.4305
691.382	15.9762
693.098	15.8118
694.816	14.5295
696.531	14.802
698.247	15.1672
699.963	16.3281
701.678	19.2697
703.392	21.1939
705.108	21.3198
706.821	21.426
708.534	22.1607
710.249	22.6839
711.962	23.3751
713.674	23.894
715.388	24.4128
717.099	25.1053
718.81	24.485
720.523	24.4712
722.234	25.0938
723.944	25.4954
725.654	23.6078
727.365	24.9763
729.075	24.98
730.784	26.3109
732.492	25.3104
734.202	24.8195
735.91	25.4984
737.618	26.3495
739.325	25.5965
741.034	25.047
742.741	24.8309
744.447	25.822
746.153	28.3694
747.859	28.4109
749.564	29.2796
751.271	29.9475
752.976	31.2195
754.681	32.6832
756.385	33.3477
758.088	33.7655
759.792	36.5595
761.495	38.5969
763.2	39.6912
764.902	40.0106
766.604	42.2378
768.306	43.5108
770.008	45.2949
771.709	45.717
773.41	47.2659
775.11	47.9741
776.811	48.3336
778.51	50.0672
780.21	52.4747
781.909	53.8818
783.608	54.9457
785.307	57.0726
787.005	58.972
788.703	58.7166
790.401	59.1957
792.098	61.4048
793.795	64.0511
795.492	65.5762
797.188	66.3432
798.884	66.5837
800.58	66.9338
802.276	66.3621
803.971	66.0209
805.665	66.7899
807.36	67.1533
809.054	67.2163
810.748	68.7458
812.441	71.2018
814.135	72.2078
815.826	73.7402
817.518	72.328
819.21	73.4202
820.902	73.6352
822.594	74.5636
824.285	75.2927
825.976	76.2012
827.665	76.5503
829.355	77.8016
831.045	78.1122
832.735	76.8329
834.424	77.4845
836.111	77.5406
837.8	76.3495
839.488	74.3322
841.177	75.0311
842.864	73.9149
844.55	72.7963
846.237	70.6477
847.924	69.3581
849.61	68.0939
851.295	65.5242
852.98	64.0404
854.666	64.2314
856.349	63.5575
858.034	63.2179
859.719	61.6881
861.403	61.7462
863.085	62.0264
864.769	61.4898
866.452	59.6393
868.133	59.4072
869.816	58.4044
871.498	58.921
873.179	58.7629
874.86	58.9192
876.54	57.862
878.221	56.773
879.902	55.456
881.58	54.4051
883.26	53.5332
884.938	52.3604
886.618	52.0961
888.297	50.8602
889.974	51.8685
891.653	53.1574
893.329	55.0703
895.007	56.8199
896.683	57.4463
898.36	55.6893
900.035	55.1827
901.712	55.4654
903.387	56.1241
905.063	55.5702
906.737	54.5102
908.412	53.9361
910.085	51.8578
911.76	51.5549
913.433	52.708
915.107	51.7772
916.779	50.5306
918.452	50.054
920.124	49.8143
921.797	47.1319
923.467	46.2537
925.138	46.79
926.81	45.2359
928.48	45.29
930.151	44.2477
931.82	42.9816
933.489	41.2347
935.16	40.6438
936.828	42.3002
938.496	41.6997
940.165	39.915
941.833	38.2911
943.5	36.7523
945.168	36.0721
946.834	35.1823
948.5	33.726
950.168	32.5151
951.834	31.827
953.499	30.5957
955.163	29.9253
956.83	27.2797
958.494	24.9958
960.158	23.3022
961.821	23.9553
963.487	26.8472
965.15	28.6339
966.812	28.1065
968.474	28.7204
970.138	29.869
971.8	30.7769
973.461	33.4957
975.123	34.2239
976.783	35.4439
978.446	36.8509
980.106	37.0376
981.766	37.2542
983.425	37.5413
985.084	39.2257
986.743	39.5688
988.402	40.7302
990.06	41.6776
991.72	44.3178
993.378	44.9182
995.035	46.6587
996.692	47.2189
998.349	45.58
1000.01	47.3818
1001.66	47.4189
1003.32	48.9246
1004.97	50.3697
1006.63	53.9839
1008.28	55.7637
1009.94	57.3186
1011.59	59.7565
1013.25	60.4679
1014.9	61.7109
1016.55	64.8034
1018.21	67.925
1019.86	69.2943
1021.51	71.0755
1023.16	74.2961
1024.81	78.1042
1026.47	80.5517
1028.12	82.4688
1029.77	85.1494
1031.42	87.0057
1033.07	88.4876
1034.72	88.4216
1036.37	88.9309
1038.02	90.3202
1039.67	90.6704
1041.31	91.5388
1042.96	93.4449
1044.61	95.896
1046.26	98.2094
1047.91	98.173
1049.55	97.2556
1051.2	98.5589
1052.84	97.8985
1054.49	97.6589
1056.14	97.632
1057.78	96.795
1059.43	96.7371
1061.07	95.8833
1062.72	94.7137
1064.36	92.7796
1066	91.0794
1067.65	90.1906
1069.29	87.2508
1070.93	84.6224
1072.58	82.4102
1074.22	78.7793
1075.86	74.3869
1077.5	70.8987
1079.14	67.7684
1080.78	65.7141
1082.42	64.7138
1084.06	62.2324
1085.7	62.9755
1087.34	61.875
1088.98	61.6241
1090.62	60.8804
1092.26	60.3786
1093.9	61.7315
1095.54	61.7286
1097.17	62.8812
1098.81	63.6511
1100.45	63.4665
1102.09	62.7096
1103.72	64.4386
1105.36	65.3262
1106.99	64.7459
1108.63	63.6653
1110.27	63.267
1111.9	63.3198
1113.53	62.7162
1115.17	60.262
1116.8	57.7034
1118.43	56.6184
1120.07	53.3706
1121.7	50.1036
1123.33	49.5512
1124.97	50.0396
1126.6	47.9797
1128.23	46.8689
1129.86	45.5767
1131.49	44.333
1133.12	42.9969
1134.75	40.8586
1136.38	39.164
1138.01	39.3592
1139.64	36.0512
1141.27	35.0597
1142.9	33.2515
1144.53	31.6461
1146.16	27.895
1147.78	25.7648
1149.41	22.3843
1151.04	18.9575
1152.67	16.9126
1154.29	14.9076
1155.92	12.7732
1157.54	11.5916
1159.17	9.65059
1160.8	7.48948
1162.42	7.22818
1164.05	6.39317
1165.67	5.44826
1167.29	5.01725
1168.92	4.69729
1170.54	3.79962
1172.16	3.81204
1173.79	3.62144
1175.41	3.94498
1177.03	4.18627
1178.65	4.59448
1180.28	4.05433
1181.9	4.90438
1183.52	6.49138
1185.14	8.17749
1186.76	9.48234
1188.38	9.53482
1190	11.584
1191.62	11.8628
1193.24	12.8229
1194.86	14.2173
1196.47	14.0745
1198.09	15.3946
1199.71	17.9797
1201.33	19.6475
1202.95	22.9146
1204.56	27.8066
1206.18	30.7051
1207.8	32.4514
1209.41	36.1459
1211.03	40.1679
1212.64	43.6527
1214.26	47.4009
1215.87	51.7445
1217.49	56.468
1219.1	62.0249
1220.71	64.8129
1222.33	69.3487
1223.94	73.6785
1225.55	78.4906
1227.16	82.6775
1228.78	86.5023
1230.39	90.2796
1232	94.7873
1233.61	99.9192
1235.22	103.177
1236.83	105.671
1238.44	108.238
1240.05	109.397
1241.66	110.841
1243.27	114.395
1244.88	115.52
1246.49	116.998
1248.1	118.913
1249.71	120.292
1251.32	121.627
1252.92	123.223
1254.53	125.484
1256.14	127.612
1257.74	130.188
1259.35	132.287
1260.96	134.874
1262.56	138.519
1264.17	141.098
1265.77	141.257
1267.38	144.455
1268.98	146.921
1270.59	150.73
1272.19	152.168
1273.79	156.189
1275.4	160.16
1277	163.115
1278.6	165.835
1280.21	170.42
1281.81	174.337
1283.41	178.026
1285.01	182.842
1286.61	186.629
1288.21	190.992
1289.81	194.898
1291.41	200.054
1293.01	203.793
1294.61	207.751
1296.21	210.817
1297.81	212.895
1299.41	214.916
1301.01	216.807
1302.6	218.676
1304.2	220.837
1305.8	222.178
1307.4	222.854
1308.99	223.109
1310.59	223.159
1312.19	223.223
1313.78	221.749
1315.38	219.348
1316.97	217.975
1318.57	216.692
1320.16	213.613
1321.76	211.913
1323.35	209.858
1324.94	206.303
1326.54	204.766
1328.13	201.125
1329.72	197.823
1331.32	193.829
1332.91	190.283
1334.5	188.825
1336.09	184.21
1337.68	180.486
1339.27	178.424
1340.87	175.341
1342.45	171.758
1344.04	168.076
1345.64	164.708
1347.22	165.066
1348.81	161.649
1350.4	159.845
1351.99	158.531
1353.58	157.642
1355.17	156.399
1356.75	153.798
1358.34	153.863
1359.93	154.085
1361.51	154.117
1363.1	152.675
1364.69	151.298
1366.27	150.86
1367.86	149.048
1369.44	148.263
1371.03	147.957
1372.61	145.676
1374.2	144.568
1375.78	142.977
1377.37	142.4
1378.95	142.322
1380.53	142.077
1382.11	142.441
1383.7	141.103
1385.28	142.128
1386.86	141.495
1388.44	141.604
1390.02	140.307
1391.6	140.558
1393.19	139.614
1394.77	138.384
1396.35	139.369
1397.93	139.165
1399.51	139.52
1401.08	142.416
1402.66	144.337
1404.24	146.718
1405.82	150.836
1407.4	153.272
1408.97	156.849
1410.55	162.587
1412.13	170.192
1413.71	176.448
1415.28	182.075
1416.86	189.93
1418.43	199.533
1420.01	208.203
1421.59	217.635
1423.16	228.603
1424.73	238.497
1426.31	249.938
1427.88	259.456
1429.46	271.147
1431.03	281.486
1432.6	290.773
1434.18	300.289
1435.75	308.22
1437.32	317.182
1438.89	322.313
1440.46	327.716
1442.04	331.54
1443.61	334.677
1445.18	337.461
1446.75	336.663
1448.32	336.299
1449.89	334.821
1451.46	331.724
1453.03	328.66
1454.6	324.571
1456.16	319.365
1457.73	312.183
1459.3	304.01
1460.87	296.473
1462.44	286.511
1464	276.654
1465.57	264.659
1467.14	253.921
1468.7	241.431
1470.27	229.574
1471.83	217.682
1473.4	204.83
1474.96	194.531
1476.53	182.542
1478.09	172.746
1479.66	163.423
1481.22	152.85
1482.78	143.105
1484.35	134.054
1485.91	124.408
1487.47	115.458
1489.04	108.765
1490.6	100.637
1492.16	93.5799
1493.72	88.34
1495.28	84.169
1496.84	80.6522
1498.4	77.4549
1499.96	74.5051
1501.52	72.7482
1503.08	69.8958
1504.64	68.3312
1506.2	65.9565
1507.76	63.6447
1509.32	61.3527
1510.88	59.4903
1512.44	57.4437
1513.99	55.7753
1515.55	54.4543
1517.11	52.1093
1518.66	51.7264
1520.22	50.9715
1521.78	50.4309
1523.33	49.7379
1524.89	49.9402
1526.44	50.3786
1528	51.2136
1529.55	51.7668
1531.11	52.4621
1532.66	53.5376
1534.21	53.2419
1535.77	53.083
1537.32	55.6391
1538.87	57.8493
1540.43	58.7087
1541.98	59.9193
1543.53	61.1885
1545.08	64.9346
1546.63	66.2962
1548.18	68.32
1549.74	70.285
1551.29	72.2136
1552.84	75.2334
1554.39	77.2308
1555.94	79.4142
1557.48	81.286
1559.03	83.0592
1560.58	84.3681
1562.13	85.4492
1563.68	87.0729
1565.23	89.0622
1566.78	92.0445
1568.32	96.7638
1569.87	100.827
1571.42	105.05
1572.96	108.544
1574.51	113.097
1576.05	116.765
1577.6	119.799
1579.14	122.378
1580.69	124.753
1582.24	126.762
1583.78	128.079
1585.32	129.683
1586.87	131.968
1588.41	133.801
1589.95	135.594
1591.5	137.349
1593.04	137.619
1594.58	138.101
1596.12	139.18
1597.67	140.119
1599.21	140.1
1600.75	138.997
1602.29	138.169
1603.83	136.869
1605.37	137.531
1606.91	136.872
1608.45	136.381
1609.99	136.535
1611.53	135.343
1613.07	135.997
1614.6	137.667
1616.14	136.687
1617.68	134.969
1619.22	135.885
1620.75	135.758
1622.29	136.769
1623.83	136.736
1625.37	137.455
1626.9	139.083
1628.44	141.036
1629.97	142.652
1631.51	144.948
1633.04	146.875
1634.58	150.226
1636.11	152.989
1637.65	155.107
1639.18	158.386
1640.72	162.99
1642.25	168.271
1643.78	172.738
1645.31	177.412
1646.85	180.282
1648.38	183.763
1649.91	186.771
1651.44	187.365
1652.97	188.632
1654.5	190.526
1656.03	191.379
1657.56	190.74
1659.1	190.053
1660.62	188.311
1662.15	186.421
1663.68	185.121
1665.21	182.819
1666.74	180.538
1668.27	176.462
1669.8	172.195
1671.32	168.42
1672.85	163.702
1674.38	159.31
1675.91	153.686
1677.43	148.616
1678.96	142.523
1680.49	137.303
1682.01	132.075
1683.54	126.012
1685.06	119.544
1686.59	112.703
1688.11	105.912
1689.64	100.874
1691.16	94.6521
1692.68	87.6874
1694.21	81.4519
1695.73	76.9354
1697.25	71.8712
1698.78	68.2038
1700.3	64.8743
1701.82	61.2555
1703.34	59.0436
1704.86	55.2578
1706.39	52.135
1707.91	50.1499
1709.43	47.4281
1710.95	45.6644
1712.47	43.3843
1713.99	41.7341
1715.51	40.2571
1717.02	39.2328
1718.54	38.421
1720.06	37.112
1721.58	35.672
1723.1	35.3628
1724.62	34.0665
1726.13	33.5319
1727.65	32.3158
1729.17	33.662
1730.68	33.4189
1732.2	31.9971
1733.72	30.3436
1735.23	30.7447
1736.75	28.9941
1738.26	29.3925
1739.78	30.0252
1741.29	29.4092
1742.81	29.4903
1744.32	28.935
1745.84	29.0331
1747.35	28.9081
1748.86	27.3376
1750.37	26.853
1751.89	25.7965
1753.4	23.3549
1754.91	21.5433
1756.42	20.3807
1757.93	19.2341
1759.45	17.4244
1760.96	15.0998
1762.47	11.6489
1763.98	11.5306
1765.49	11.8679
1767	11.2147
1768.51	10.9555
1770.02	10.5669
1771.53	11.4969
1773.03	12.8333
1774.54	13.1088
1776.05	13.1491
1777.56	12.6368
1779.07	12.9882
1780.57	12.1609
1782.08	12.4333
1783.59	12.6606
1785.09	12.2117
1786.6	12.8495
1788.11	13.4444
1789.61	13.8336
1791.12	14.1522
1792.62	14.6223
1794.13	14.4411
1795.63	13.9892
1797.13	13.9366
1798.64	14.6007
1800.14	13.8853
1801.65	14.499
1803.15	14.7633
1804.65	14.2497
1806.15	13.7485
1807.66	12.7914
1809.16	11.6499
1810.66	11.1589
1812.16	10.6564
1813.66	11.486
1815.16	10.5109
1816.66	10.0847
1818.16	9.48029
1819.66	9.57367
1821.16	9.27532
1822.66	7.76953
1824.16	6.34638
1825.66	6.44811
1827.16	4.91613
1828.66	3.41049
1830.16	3.06575
1831.65	2.22508
1833.15	1.99172
1834.65	0.432788
1836.14	0.190488
1837.64	0.615053
1839.14	4.19928
1840.63	4.5501
1842.13	3.62722
1843.62	4.44121
1845.12	4.38599
1846.61	4.70136
1848.11	5.06105
1849.6	4.60013
1851.1	3.62132
1852.59	4.29776
1854.08	4.78891
1855.58	4.71305
1857.07	4.96212
1858.56	5.99936
1860.05	5.62372
1861.55	6.00042
1863.04	5.95024
1864.53	5.10167
1866.02	4.97533
1867.51	4.15625
1869	4.33884
1870.49	4.38815
1871.98	4.92832
1873.47	4.08698
1874.96	4.31456
1876.45	3.5698
1877.94	2.71254
1879.43	1.60428
1880.92	2.02599
1882.41	1.58135
1882.51	1.08343
1884	1.8005
1885.5	2.38702
1886.99	2.63445
1888.48	1.81943
1889.98	2.93477
1891.47	2.98068
1892.96	4.61953
1894.46	3.7917
1895.95	3.14495
1897.44	3.59013
1898.93	3.85434
1900.42	3.94819
1901.91	4.40302
1903.41	4.86567
1904.9	5.45793
1906.39	5.43693
1907.88	6.19789
1909.37	6.95506
1910.86	6.99388
1912.35	6.44108
1913.83	5.50846
1915.32	5.20987
1916.81	5.85522
1918.3	5.0321
1919.79	5.49623
1921.27	5.21323
1922.76	4.72762
1924.25	5.20008
1925.74	6.14121
1927.22	5.47375
1928.71	4.66262
1930.19	4.3269
1931.68	4.4231
1933.17	3.26343
1934.65	3.01715
1936.14	2.49552
1937.62	3.19683
1939.11	4.01388
1940.59	3.54284
1942.07	3.47329
1943.56	3.79758
1945.04	3.86381
1946.52	3.89618
1948.01	4.51927
1949.49	4.80007
1950.97	5.66084
1952.45	5.88559
1953.93	6.3741
1955.42	5.93804
1956.9	5.85331
1958.38	6.24008
1959.86	7.13177
1961.34	6.91079
1962.82	6.91635
1964.3	7.5403
1965.78	7.13058
1967.26	7.96419
1968.74	7.71978
1970.21	8.37711
1971.69	8.52811
1973.17	8.09977
1974.65	9.02787
1976.13	8.67559
1977.6	8.65101
1979.08	8.23835
1980.56	7.88586
1982.03	7.14208
1983.51	5.94548
1984.99	5.68127
1986.46	5.29994
1987.94	5.6048
1989.41	6.16622
1990.89	6.31469
1992.36	6.00681
1993.84	6.09388
1995.31	5.05638
1996.78	5.46392
1998.26	4.87855
1999.73	4.35285
2001.2	3.97182
2002.68	3.35188
2004.15	3.97306
2005.62	4.27628
2007.09	4.75382
2008.56	5.29961
2010.04	6.19649
2011.51	7.23858
2012.98	6.82489
2014.45	7.19205
2015.92	8.26368
2017.39	9.30815
2018.86	8.8533
2020.33	10.6275
2021.8	11.1198
2023.26	11.3925
2024.73	11.1924
2026.2	11.3766
2027.67	11.9508
2029.14	12.061
2030.61	12.695
2032.07	12.7542
2033.54	13.5252
2035.01	13.2288
2036.47	13.5575
2037.94	13.0153
2039.4	14.2597
2040.87	14.4457
2042.33	14.5177
2043.8	14.0953
2045.27	14.7004
2046.73	15.3951
2048.19	16.4344
2049.66	15.7711
2051.12	15.3327
2052.59	14.9593
2054.05	14.6254
2055.51	14.6982
2056.97	15.8446
2058.44	15.7165
2059.9	16.3124
2061.36	16.6787
2062.82	16.6375
2064.28	16.1383
2065.74	15.4773
2067.21	15.8448
2068.67	16.1079
2070.13	16.1877
2071.59	16.6823
2073.05	18.0506
2074.51	19.0891
2075.96	20.0347
2077.42	20.3667
2078.88	20.7883
2080.34	20.5528
2081.8	19.9591
2083.26	20.3549
2084.72	20.6087
2086.17	21.1371
2087.63	22.6578
2089.09	22.8023
2090.54	23.151
2092	24.1789
2093.45	25.4058
2094.91	24.8319
2096.37	24.6607
2097.82	24.6853
2099.28	24.9629
2100.73	25.0932
2102.19	25.1652
2103.64	25.5832
2105.09	25.9491
2106.55	26.5571
2108	27.5592
2109.45	27.8139
2110.91	29.3112
2112.36	31.6598
2113.81	31.6749
2115.26	32.7093
2116.72	34.1573
2118.17	35.7455
2119.62	35.6127
2121.07	37.026
2122.52	38.2497
2123.97	38.9149
2125.42	41.0177
2126.87	42.312
2128.32	45.1334
2129.77	46.9466
2131.22	48.22
2132.67	51.4041
2134.11	53.5634
2135.56	54.868
2137.01	56.2299
2138.46	58.2674
2139.91	61.999
2141.35	63.9198
2142.8	65.8908
2144.25	69.2269
2145.7	71.6711
2147.14	72.8942
2148.59	74.6672
2150.03	76.9222
2151.48	79.9796
2152.92	82.6255
2154.37	86.3835
2155.81	89.106
2157.26	92.0207
2158.7	93.8144
2160.15	96.4512
2161.59	98.2423
2163.03	99.5564
2164.47	100.79
2165.92	102.038
2167.36	103.02
2168.8	104.966
2170.24	105.344
2171.69	106.923
2173.13	107.08
2174.57	107.554
2176.01	107.885
2177.45	107.897
2178.89	108.125
2180.33	108.13
2181.77	108.267
2183.21	108.329
2184.65	106.729
2186.09	104.976
2187.53	103.204
2188.97	102.287
2190.4	99.7186
2191.84	97.3046
2193.28	95.5898
2194.72	93.665
2196.16	90.7515
2197.59	89.3991
2199.03	87.5199
2200.47	85.684
2201.9	83.0622
2203.34	80.5935
2204.77	77.8708
2206.21	74.2912
2207.64	71.3012
2209.08	68.3471
2210.51	66.3942
2211.95	63.7794
2213.38	59.5029
2214.82	56.91
2216.25	54.6559
2217.68	52.705
2219.12	49.8062
2220.55	48.7238
2221.98	47.0723
2223.41	44.5049
2224.85	42.4278
2226.28	40.3933
2227.71	37.9974
2229.14	36.8182
2230.57	34.2542
2232	32.8969
2233.43	31.4919
2234.86	29.7848
2236.29	28.9232
2237.72	27.9744
2239.15	26.9681
2240.58	25.9926
2242.01	24.0737
2243.44	23.1424
2244.87	22.1724
2246.29	21.6027
2247.72	21.0023
2249.15	20.1593
2250.58	20.2025
2252.01	19.9407
2253.43	20.2
2254.86	19.7181
2256.29	19.3862
2257.71	18.432
2259.14	17.7528
2260.56	18.6546
2261.99	17.9281
2263.41	18.5725
2264.84	18.114
2266.26	19.1944
2267.69	18.3946
2269.11	19.5323
2270.53	19.3129
2271.96	18.8686
2273.38	18.6598
2274.8	17.3099
2276.23	17.1415
2277.65	17.0841
2279.07	17.0022
2280.49	15.8975
2281.91	15.3328
2283.34	14.3382
2284.76	13.8324
2286.18	13.5031
2287.6	13.9263
2289.02	13.2574
2290.44	12.1486
2291.86	11.3261
2293.28	11.2729
2294.7	10.2432
2296.12	9.69678
2297.54	8.93305
2298.96	8.59285
2300.37	7.74463
2301.79	7.15498
2303.21	7.44618
2304.63	7.78738
2306.04	8.12888
2307.46	7.73297
2308.88	6.58869
2310.3	6.38373
2311.71	6.47303
2313.13	5.99886
2314.54	6.29595
2315.96	6.57759
2317.37	6.7423
2318.79	6.45388
2320.2	6.10785
2321.62	6.10649
2323.03	5.87064
2324.45	5.33787
2325.86	5.36908
2327.27	4.74886
2328.69	3.59244
2330.1	2.88849
2331.51	3.15736
2332.92	2.20457
2334.34	1.39338
2335.75	0.347403
2337.16	0.851263
2338.57	0.32534
2339.98	0.123139
2341.39	-0.927311
2342.8	-0.946029
2344.21	-0.994065
2345.63	-0.680082
2347.04	-0.524326
2348.45	-0.544196
2349.85	-0.671517
2351.26	-1.35399
2352.67	-2.15684
2354.08	-1.39736
2355.49	-0.700749
2356.9	-0.693874
2358.3	-0.181706
2359.71	-0.865391
2361.12	-1.00183
2362.53	-1.08268
2363.93	-0.37668
2365.34	-0.878151
2366.75	-0.162527
2368.15	0.264511
2369.56	0.938265
2370.97	1.79658
2372.37	2.56818
2373.77	3.62142
2375.18	3.23119
2376.59	4.24289
2377.99	3.79614
2379.39	4.46159
2380.8	5.5333
2382.2	5.87412
2383.6	5.2448
2385.01	5.78906
2386.41	5.05292
2387.81	4.90375
2389.21	4.52522
2390.62	4.37745
2392.02	4.62581
2393.42	4.5657
2394.82	4.30726
2396.22	4.73466
2397.62	4.57767
2399.02	3.99849
2400.42	4.34938
2401.82	5.80941
2403.22	5.45238
2404.62	5.44927
2406.02	5.62521
2407.42	5.42752
2408.82	5.04334
2410.22	5.72775
2411.62	5.79501
2413.01	5.8108
2414.41	5.29182
2415.81	4.39807
2417.21	4.16431
2418.6	5.09591
2420	4.23315
2421.4	3.46463
2422.79	3.72562
2424.19	5.4616
2425.59	6.13091
2426.98	5.26604
2428.38	5.41829
2429.77	5.85338
2431.17	6.49633
2432.56	6.721
2433.95	6.49202
2435.35	6.97246
2436.74	6.84998
2438.14	6.60779
2439.53	6.33753
2440.92	5.95789
2442.31	5.24132
2443.71	5.9955
2445.1	6.12571
2446.49	6.90383
2447.88	6.91485
2449.27	6.46586
2450.67	5.71658
2452.06	5.85394
2453.45	5.90113
2454.84	5.11257
2456.23	5.4455
2457.62	5.80048
2459.01	7.00358
2460.4	7.05168
2461.79	7.11878
2463.18	6.97794
2464.57	6.6818
2465.95	7.52554
2467.34	7.96878
2468.73	7.96671
2470.12	8.5021
2471.5	8.10545
2472.89	7.02187
2474.28	6.77923
2475.67	6.72899
2477.05	6.4328
2478.44	6.06194
2479.82	5.72241
2481.21	4.16561
2482.6	3.60163
2483.98	3.00003
2485.37	3.36451
2486.75	3.61992
2488.13	3.1767
2489.52	2.68465
2490.9	3.93148
2492.29	5.10507
2493.67	5.20503
2495.05	5.32346
2496.44	4.73863
2497.82	5.10337
2499.2	5.43619
2500.58	4.70766
2501.97	4.03945
2503.35	3.81137
2504.73	3.43886
2506.11	3.08914
2507.49	2.94161
2508.87	2.79615
2510.25	3.35823
2511.63	3.95617
2513.01	4.458
2514.39	4.55384
2515.77	4.56833
2517.15	3.81922
2518.53	3.53078
2519.91	4.34994
2521.29	4.29822
2522.67	3.54685
2524.05	3.37165
2525.42	4.07857
2526.8	3.71986
2528.18	3.75917
2529.55	2.95449
2530.93	2.3709
2532.31	3.46521
2533.69	3.60263
2535.06	4.73851
2536.44	4.90322
2537.81	4.79965
2539.19	4.44086
2540.56	4.23212
2541.94	5.06526
2543.31	6.28509
2544.69	6.28771
2546.06	5.8058
2547.44	6.20517
2548.81	6.51878
2550.18	7.22874
2551.56	8.7082
2552.93	9.4184
2554.3	11.0864
2555.67	11.4915
2557.04	12.9222
2558.42	13.4644
2559.79	13.7927
2561.16	13.6767
2562.53	13.7011
2563.9	15.115
2565.27	14.3836
2566.64	14.003
2568.01	14.4142
2569.38	13.7084
2570.75	14.4275
2572.12	14.0307
2573.49	13.4345
2574.86	13.7758
2576.23	13.8185
2577.6	13.6765
2578.97	13.0741
2580.33	12.9978
2581.7	12.6232
2583.07	12.1015
2584.44	11.0593
2585.8	10.3168
2587.17	10.1011
2588.54	8.86303
2589.9	6.98524
2591.27	5.68943
2592.64	5.05404
2594	4.57413
2595.37	4.08678
2596.73	3.68387
2598.1	3.18243
2599.46	3.55314
2600.83	4.36948
2602.19	3.36116
2603.55	3.46078
2604.92	3.45831
2606.28	3.58756
2607.64	3.55531
2609.01	5.18936
2610.37	5.66135
2611.73	5.58295
2613.09	5.82979
2614.46	6.47947
2615.82	7.51254
2617.18	8.49612
2618.54	9.44732
2619.9	10.6898
2621.26	10.8474
2622.62	12.0827
2623.98	12.1563
2625.34	12.7729
2626.7	12.3376
2628.06	12.8164
2629.42	13.444
2630.78	14.0662
2632.14	14.8686
2633.5	15.0834
2634.86	16.1199
2636.21	16.8884
2637.57	17.5865
2638.93	18.1227
2640.29	18.0213
2641.64	18.6057
2643	19.8673
2644.36	20.6372
2645.71	20.8604
2647.07	20.3783
2648.43	21.0124
2649.78	20.6045
2651.14	19.6515
2652.49	19.0842
2653.85	18.8374
2655.2	17.7461
2656.56	16.8814
2657.91	17.6351
2659.26	18.4151
2660.62	18.8049
2661.97	19.0285
2663.32	19.5016
2664.68	19.6066
2666.03	19.9208
2667.38	20.2484
2668.74	19.6648
2670.09	19.281
2671.44	20.369
2672.79	20.1311
2674.14	20.3112
2675.49	20.483
2676.84	21.3334
2678.19	20.2394
2679.54	20.786
2680.89	21.2013
2682.24	21.5217
2683.59	22.395
2684.94	22.9171
2686.29	22.8715
2687.64	23.342
2688.99	22.9142
2690.34	23.1445
2691.69	23.1583
2693.03	23.2513
2694.38	24.0648
2695.73	25.808
2697.08	26.988
2698.42	28.4579
2699.77	29.6671
2701.12	31.0617
2702.46	31.4424
2703.81	31.8462
2705.15	33.2658
2706.5	34.0358
2707.85	35.1225
2709.19	35.5177
2710.54	35.1281
2711.88	34.6412
2713.22	34.6913
2714.57	34.5024
2715.91	34.7499
2717.26	33.989
2718.6	33.8573
2719.94	34.3328
2721.29	35.5545
2722.63	36.2362
2723.97	36.342
2725.31	36.9254
2726.66	35.5948
2728	35.1472
2729.34	34.6873
2730.68	34.2678
2732.02	33.0877
2733.36	32.3152
2734.7	31.3392
2736.04	30.706
2737.38	30.9463
2738.72	30.1098
2740.06	28.2985
2741.4	27.2638
2742.74	26.1057
2744.08	25.5814
2745.42	24.3028
2746.76	23.5104
2748.09	22.4319
2749.43	22.641
2750.77	21.6897
2752.11	20.9516
2753.45	20.383
2754.78	19.3292
2756.12	18.4825
2757.46	17.989
2758.79	16.5316
2760.13	15.6023
2761.46	15.1661
2762.8	14.3138
2764.14	13.0326
2765.47	12.3889
2766.8	11.5469
2768.14	10.9352
2769.47	10.3533
2770.81	10.3149
2772.14	10.8034
2773.48	9.77554
2774.81	8.35569
2776.14	8.2463
2777.48	7.45498
2778.81	7.47481
2780.14	8.29689
2781.47	7.66654
2782.8	7.29534
2784.14	7.7264
2785.47	8.61052
2786.8	9.22718
2788.13	9.5872
2789.46	8.45189
2790.79	7.27296
2792.12	6.87351
2793.45	7.36048
2794.78	7.96205
2796.11	7.6514
2797.44	8.21914
2798.77	8.52571
2800.1	8.83232
2801.43	9.66225
2802.76	10.0375
2804.09	10.8334
2805.41	10.138
2806.74	9.31458
2808.07	9.86678
2809.4	10.2365
2810.72	11.0591
2812.05	10.1372
2813.38	11.297
2814.71	12.7846
2816.03	15.7582
2817.36	17.9527
2818.68	22.4238
2820.01	28.2903
2821.33	34.3318
2822.66	41.7918
2823.98	49.684
2825.31	58.9447
2826.63	69.9941
2827.96	80.8051
2829.28	93.7622
2830.6	106.424
2831.93	119.038
2833.25	132.609
2834.57	146.228
2835.9	161.096
2837.22	174.423
2838.54	188.465
2839.86	203.549
2841.18	218.896
2842.5	235.806
2843.83	252.389
2845.15	268.737
2846.47	285.852
2847.79	303.021
2849.11	321.203
2850.43	337.798
2851.75	354.517
2853.07	372.359
2854.39	388.312
2855.71	405.013
2857.03	422.214
2858.35	438.38
2859.66	454.646
2860.98	468.782
2862.3	483.867
2863.62	498.514
2864.94	509.079
2866.25	520.14
2867.57	529.322
2868.89	538.748
2870.2	547.377
2871.52	553.715
2872.84	560.349
2874.15	567.617
2875.47	573.951
2876.78	581.078
2878.1	587.21
2879.41	594.825
2880.73	601.569
2882.04	609.79
2883.36	616.739
2884.67	623.952
2885.99	631.522
2887.3	638.292
2888.61	645.273
2889.93	652.893
2891.24	660.556
2892.55	668.778
2893.86	675.515
2895.18	683.047
2896.49	688.499
2897.8	695.621
2899.11	703.282
2900.42	710.893
2901.73	720.267
2903.05	729.25
2904.36	740.367
2905.67	752.385
2906.98	763.864
2908.29	777.791
2909.6	790.002
2910.91	802.141
2912.21	816.56
2913.52	829.902
2914.83	842.375
2916.14	854.117
2917.45	865.877
2918.76	876.716
2920.07	886.199
2921.37	894.556
2922.68	901.337
2923.99	905.98
2925.29	910.617
2926.6	911.793
2927.91	913.199
2929.22	911.233
2930.52	906.397
2931.83	903.801
2933.13	898.664
2934.44	892.804
2935.74	885.143
2937.05	876.161
2938.35	866.994
2939.66	857.051
2940.96	845.654
2942.26	832.308
2943.57	818.41
2944.87	804.311
2946.18	789.24
2947.48	773.589
2948.78	755.122
2950.08	737.359
2951.39	720.949
2952.69	702.979
2953.99	685.081
2955.29	668.455
2956.59	649.705
2957.9	631.851
2959.2	612.545
2960.5	594.734
2961.8	576.893
2963.1	560.698
2964.4	543.956
2965.7	527.596
2967	512.669
2968.3	498.577
2969.6	484.431
2970.9	470.63
2972.19	455.512
2973.49	441.389
2974.79	426.95
2976.09	413.673
2977.39	399.116
2978.68	383.471
2979.98	368.697
2981.28	353.579
2982.58	338.12
2983.87	323.148
2985.17	307.624
2986.47	291.255
2987.76	276.1
2989.06	260.279
2990.35	245.37
2991.65	229.755
2992.94	215.937
2994.24	201.337
2995.53	187.803
2996.83	174.839
2998.12	162.831
2999.42	150.782
3000.71	139.59
3002	128.448
3003.3	118.039
3004.59	108.113
3005.88	97.7614
3007.18	88.7612
3008.47	80.6287
3009.76	72.1094
3011.05	63.76
3012.34	55.9783
3013.64	48.1572
3014.93	43.331
3016.22	38.2763
3017.51	33.4576
3018.8	29.6007
3020.09	25.3591
3021.38	20.9331
3022.67	18.0156
3023.96	15.5711
3025.25	12.3447
3026.54	10.0274
3027.83	8.64272
3029.12	6.65599
3030.41	5.07776
3031.69	4.93538
3032.98	4.93831
3034.27	4.35859
3035.56	3.61198
3036.84	3.58014
3038.13	5.22139
3039.42	6.98829
3040.71	7.60963
3041.99	7.9514
3043.28	8.78823
3044.57	9.32263
3045.85	9.82438
3047.14	11.3781
3048.42	12.2974
3049.71	12.2431
3050.99	13.2464
3052.28	14.3575
3053.56	15.1655
3054.85	16.2305
3056.13	16.015
3057.41	16.0064
3058.7	15.7484
3059.98	15.5363
3061.26	15.3054
3062.55	15.8491
3063.83	15.2088
3065.11	15.0107
3066.39	14.5574
3067.68	13.7919
3068.96	12.4897
3070.24	11.9625
3071.52	11.0625
3072.8	10.2708
3074.08	9.49397
3075.36	9.036
3076.65	8.09353
3077.93	6.82176
3079.21	6.24845
3080.49	5.11529
3081.77	4.50484
3083.04	3.15959
3084.32	1.6196
3085.6	1.68831
3086.88	1.07587
3088.16	0.352419
3089.44	-0.974142
3090.72	-0.86826
3091.99	-1.64209
3093.27	-2.50752
3094.55	-2.12544
3095.83	-1.19686
3097.1	-0.036192
3098.38	0.272186
3099.66	0.984771
3100.93	2.50056
3102.21	2.96358
3103.49	3.91802
3104.76	3.78227
3106.04	4.688
3107.31	5.26991
3108.59	6.09431
3109.86	7.05666
3111.14	9.17969
3112.41	9.82637
3113.69	11.6221
3114.96	13.2432
3116.23	14.7951
3117.51	15.6858
3118.78	16.9734
3120.05	17.733
3121.33	19.7366
3122.6	21.4787
3123.87	23.8135
3125.14	26.111
3126.41	28.2772
3127.69	30.4332
3128.96	32.4659
3130.23	34.3555
3131.5	37.1331
3132.77	39.8749
3134.04	43.1521
3135.31	45.5797
3136.58	48.8676
3137.85	51.5859
3139.12	54.4908
3140.39	57.1901
3141.66	60.6995
3142.93	64.5512
3144.2	68.3775
3145.47	72.4993
3146.74	76.8311
3148	81.045
3149.27	84.5875
