#Acq. time (s)=	45
#Accumulations=	2
#Range (cm-¹)=	200...3150
#Windows=	2
#Auto scanning=	Off
#Autofocus=	Off
#Macrospot=	Off
#AutoExposure=	Off
#Spike filter=	Multiple accum.
#Delay time (s)=	0
#Binning=	1
#Readout mode=	Signal
#DeNoise=	Off
#ICS correction=	On
#Dark correction=	Off
#Inst. Process=	Off
#Detector Gain=	Best Dynamic Range
#Detector ADC=	20 kHz       
#Detector temperature (°C)=	-70.08
#Instrument=	LabRAM HR Evol
#Detector=	Synapse
#Objective=	x100
#Grating=	600 gr/mm
#ND Filter=	100%
#Laser (nm)=	532 
#Hole=	100.021
#Range=	Auto
#Laser Pol.=	No
#Raman. Pol.=	No
#Laser Pol. (°)=	-0.0007625
#Raman Pol. (°)=	89.9995
#Collection=	Microscope
#StageXY=	Marzhauser
#StageZ=	Marzhauser
#X (µm)=	504.6
#Y (µm)=	2978.9
#Z (µm)=	-8.9
#Full time(mm:ss)=	3:19
#Project=	
#Sample=	
#Site=	
#Title=	Mb_20_23_47_2x_45s_532 nm_x100_100%_600 gr_mm
#Remark=	
#Date=	14.07.2022 09:56
#Acquired=	14.07.2022 09:56:10
#Base:Fit=	10.08.2022 10:29:37
#Base:Sub=	10.08.2022 10:35:48
#Filter:Polynom=	16.08.2022 10:13:29
#AxisType[0]=Intens
#AxisUnit[0]=Cnt
#AxisType[1]=Spectr
#AxisUnit[1]=1/cm
200.554	1.2282
202.369	1.03618
204.183	2.51729
205.999	3.91876
207.813	5.7322
209.626	6.79325
211.439	7.52345
213.253	7.80484
215.065	8.79251
216.877	8.55591
218.688	9.49952
220.5	8.54126
222.312	9.28546
224.123	9.66762
225.933	9.07321
227.742	8.73621
229.552	9.38998
231.361	8.73446
233.171	8.78656
234.98	9.7259
236.787	10.3173
238.595	10.1931
240.402	10.3283
242.209	10.0235
244.015	10.1736
245.822	10.1048
247.627	8.82234
249.435	8.74322
251.24	7.39666
253.045	6.67961
254.849	7.26071
256.653	6.69879
258.457	6.97363
260.26	5.84804
262.063	4.70166
263.866	5.30002
265.668	6.04459
267.47	5.46377
269.271	6.59682
271.073	5.91842
272.873	7.02629
274.674	6.75882
276.474	6.65738
278.274	6.99604
280.073	7.4434
281.872	6.6929
283.671	7.50121
285.47	8.98264
287.268	9.43211
289.065	10.6049
290.863	11.1358
292.66	11.5256
294.456	12.1348
296.253	12.9584
298.049	13.2553
299.844	14.7155
301.637	15.0584
303.432	15.3445
305.227	16.5635
307.021	16.5653
308.815	17.1034
310.609	17.1799
312.402	17.9839
314.195	18.3073
315.987	17.6148
317.777	18.5301
319.569	19.2216
321.36	19.2536
323.151	19.2147
324.942	19.6095
326.733	19.3446
328.521	18.1675
330.31	19.0304
332.1	18.3852
333.889	18.723
335.677	18.1644
337.464	17.3391
339.252	16.8766
341.039	16.8609
342.826	17.2178
344.611	17.4622
346.398	17.0461
348.184	17.4896
349.97	17.0862
351.754	18.3855
353.539	18.6731
355.324	17.8828
357.106	17.1922
358.89	16.7725
360.674	15.7332
362.455	15.4143
364.239	14.366
366.021	13.8034
367.804	13.5906
369.584	13.3945
371.366	13.8194
373.145	14.3762
374.926	14.7439
376.707	14.0544
378.485	14.5588
380.265	14.0971
382.045	13.8444
383.822	14.3195
385.601	13.9695
387.378	14.1485
389.156	13.7216
390.934	13.7162
392.71	13.4724
394.487	13.3858
396.262	12.2124
398.038	11.8922
399.813	12.0081
401.588	11.1685
403.362	11.9774
405.137	11.9137
406.912	12.7343
408.685	13.3071
410.459	12.6832
412.23	11.8298
414.004	13.2625
415.775	12.8143
417.548	12.3671
419.318	13.6698
421.089	12.0695
422.86	11.5641
424.63	10.84
426.401	10.9129
428.17	11.5925
429.94	12.9037
431.708	12.6825
433.478	12.7986
435.245	13.4052
437.012	13.3996
438.781	13.0384
440.547	13.5011
442.315	13.2992
444.081	14.0065
445.846	14.2897
447.613	15.3435
449.378	15.8637
451.142	16.2093
452.908	17.2625
454.672	17.4314
456.435	17.6492
458.2	18.4919
459.963	19.1421
461.725	19.146
463.489	19.4569
465.251	19.8758
467.012	19.5996
468.775	19.54
470.536	20.8118
472.296	21.9558
474.056	21.7147
475.817	22.6121
477.576	22.8796
479.335	22.8162
481.094	23.5524
482.854	22.8833
484.612	22.9666
486.37	23.8763
488.127	23.6323
489.886	23.7868
491.642	23.967
493.398	23.7419
495.154	22.9512
496.91	22.7055
498.667	21.2118
500.422	21.2968
502.176	22.2344
503.93	21.0309
505.684	21.4449
507.438	20.8593
509.191	20.004
510.946	20.2357
512.698	21.8366
514.45	22.5445
516.202	23.2739
517.954	24.3556
519.705	25.0149
521.456	24.7366
523.206	26.0998
524.956	27.0154
526.706	27.643
528.456	28.1624
530.207	28.4448
531.956	28.5035
533.704	28.8263
535.452	28.8134
537.2	27.7528
538.947	27.7614
540.694	27.4986
542.441	27.2064
544.188	27.3906
545.934	27.2952
547.68	26.6082
549.425	26.3052
551.17	26.2362
552.915	26.8794
554.659	26.4563
556.403	26.6933
558.145	26.2189
559.889	24.6711
561.632	23.9244
563.375	23.5572
565.117	22.0599
566.859	20.9045
568.601	19.7032
570.342	18.256
572.083	17.1297
573.824	15.455
575.565	13.7805
577.303	13.142
579.043	12.3522
580.782	11.1904
582.521	10.5572
584.26	10.5117
585.998	10.1988
587.734	9.6362
589.472	9.48202
591.21	9.11745
592.947	8.99091
594.684	8.04767
596.418	8.77167
598.154	9.70101
599.89	9.86656
601.626	9.42353
603.361	10.9165
605.094	11.1543
606.828	10.8354
608.562	10.5761
610.296	12.2492
612.027	12.2251
613.761	12.1145
615.493	12.3943
617.224	13.6353
618.956	14.5733
620.688	15.9915
622.419	16.6221
624.149	17.6291
625.879	18.8336
627.61	20.3892
629.338	21.7804
631.068	22.4641
632.797	23.8872
634.525	24.943
636.254	26.6141
637.98	28.1624
639.708	29.1097
641.436	29.2546
643.162	29.7104
644.889	30.5598
646.614	31.8724
648.34	32.7616
650.067	32.6055
651.791	32.7756
653.516	33.8086
655.239	34.4796
656.964	35.547
658.687	35.4732
660.411	35.5184
662.133	37.2577
663.857	37.6647
665.58	38.0812
667.301	38.1365
669.024	39.3846
670.744	39.5781
672.464	39.9469
674.186	39.9479
675.905	40.4823
677.626	40.8062
679.345	39.6336
681.065	39.3044
682.783	39.1719
684.503	39.0007
686.22	38.9906
687.939	40.6928
689.656	41.7796
691.372	41.4906
693.09	41.7042
694.806	42.8442
696.523	44.1031
698.239	44.6799
699.953	45.6488
701.67	46.3029
703.384	46.9915
705.098	47.1175
706.813	46.8656
708.526	46.6869
710.239	46.494
711.954	47.1494
713.666	47.2213
715.378	47.0626
717.091	46.7028
718.802	46.833
720.513	47.396
722.226	48.4086
723.936	48.1541
725.646	47.9587
727.355	48.665
729.067	48.9241
730.776	50.574
732.484	51.0953
734.192	51.5314
735.902	52.2294
737.61	53.0062
739.317	54.8234
741.024	55.5451
742.731	56.6568
744.439	57.0993
746.145	57.0535
747.851	59.1265
749.556	59.4394
751.262	60.0535
752.966	61.1643
754.673	62.0841
756.377	62.3495
758.081	63.0796
759.784	64.8985
761.487	66.4249
763.19	67.5747
764.892	68.6545
766.594	69.71
768.296	70.966
770	72.587
771.701	74.1483
773.402	76.4052
775.102	77.9378
776.803	79.044
778.503	80.8377
780.202	82.5883
781.901	83.1837
783.6	83.5809
785.299	84.3028
786.997	84.0779
788.695	84.6311
790.393	84.138
792.09	84.5113
793.787	85.7199
795.484	85.7159
797.18	85.6089
798.877	84.7135
800.572	84.5173
802.268	84.6454
803.963	84.0083
805.658	84.8242
807.35	83.6531
809.044	82.5235
810.738	82.5574
812.432	83.2104
814.125	83.4415
815.818	84.1842
817.51	84.5264
819.202	85.0073
820.894	84.6891
822.584	84.2168
824.275	84.1553
825.966	83.4924
827.657	84.011
829.347	83.1436
831.037	83.1074
832.725	84.156
834.414	83.8508
836.103	82.8739
837.792	82.094
839.481	81.1975
841.167	80.9204
842.854	81.0764
844.542	80.8684
846.229	79.0167
847.914	76.7158
849.6	75.7759
851.287	74.5841
852.973	74.5942
854.656	74.8614
856.341	74.6574
858.026	74.5165
859.711	73.1347
861.393	72.3775
863.077	71.8588
864.761	69.3622
866.442	67.839
868.125	66.379
869.808	65.597
871.489	64.4289
873.171	64.4297
874.85	63.9331
876.532	63.4845
878.213	62.7559
879.892	61.2458
881.572	60.2883
883.251	59.8891
884.931	58.9612
886.61	58.7179
888.287	58.1665
889.966	58.1062
891.643	57.0793
893.321	57.3471
894.997	58.0389
896.675	58.5099
898.352	59.369
900.028	59.5172
901.704	59.6755
903.379	59.3655
905.055	59.4243
906.729	59.5069
908.404	59.9132
910.077	60.1209
911.75	60.0107
913.425	59.5218
915.097	59.4972
916.771	59.3904
918.443	58.3632
920.116	57.114
921.787	57.0646
923.46	57.206
925.13	57.3531
926.8	57.0666
928.472	56.4656
930.141	56.0493
931.813	55.8727
933.481	56.7845
935.15	56.8077
936.82	55.544
938.488	54.7929
940.156	54.0921
941.825	53.5193
943.492	53.3714
945.158	52.9574
946.827	51.7058
948.493	50.4402
950.158	50.9052
951.824	50.8622
953.491	51.0972
955.156	51.1279
956.82	50.0429
958.486	49.2285
960.15	47.92
961.814	46.7133
963.477	45.5986
965.142	44.5461
966.804	44.2571
968.467	43.3175
970.129	43.3325
971.79	42.4763
973.454	41.3694
975.115	41.2571
976.776	41.3716
978.436	41.5237
980.096	40.6358
981.756	39.648
983.417	37.6664
985.077	36.8056
986.736	36.0893
988.394	35.3066
990.052	34.2354
991.71	33.1918
993.368	32.6082
995.025	31.8755
996.682	31.6486
998.341	31.5011
999.998	30.8928
1001.65	30.6459
1003.31	30.097
1004.97	30.4857
1006.62	30.2463
1008.28	30.651
1009.93	31.1697
1011.58	31.6336
1013.24	31.9706
1014.89	32.9168
1016.54	32.7184
1018.2	33.3064
1019.85	33.7042
1021.5	34.9163
1023.16	35.6885
1024.81	35.7894
1026.46	37.0773
1028.11	37.8941
1029.76	38.079
1031.41	38.0344
1033.06	39.7853
1034.71	39.9946
1036.36	41.1145
1038.01	41.5738
1039.66	41.4294
1041.31	42.5792
1042.95	42.8084
1044.6	42.8117
1046.25	43.526
1047.9	44.4764
1049.54	44.8318
1051.19	44.9205
1052.84	45.4603
1054.48	45.3683
1056.13	45.2031
1057.77	44.8406
1059.42	44.1755
1061.06	42.9995
1062.71	41.2726
1064.35	41.0025
1066	39.6094
1067.64	38.3168
1069.28	37.2119
1070.93	36.0717
1072.57	35.5175
1074.21	34.9185
1075.85	34.026
1077.49	33.1712
1079.13	31.6507
1080.78	30.7062
1082.42	29.2458
1084.06	28.6276
1085.7	27.68
1087.34	27.8256
1088.97	27.9243
1090.61	28.0122
1092.25	27.901
1093.89	27.3368
1095.53	26.3773
1097.17	26.1386
1098.8	25.9042
1100.44	26.6839
1102.08	25.8978
1103.71	24.3104
1105.35	23.783
1106.99	22.5597
1108.62	22.7598
1110.26	21.6773
1111.89	21.2299
1113.52	21.8313
1115.16	22.5897
1116.79	22.443
1118.43	22.9371
1120.06	22.7122
1121.69	22.2746
1123.32	23.0429
1124.96	23.4165
1126.59	23.1431
1128.22	23.4248
1129.85	23.822
1131.48	23.034
1133.11	22.7701
1134.75	22.6368
1136.37	22.4282
1138	21.0215
1139.63	20.3624
1141.26	20.2176
1142.89	19.9706
1144.52	19.4618
1146.15	19.3735
1147.78	18.3097
1149.4	18.3651
1151.03	18.7128
1152.66	19.0613
1154.28	19.1734
1155.91	18.1259
1157.54	17.3053
1159.16	16.5081
1160.79	15.1437
1162.41	15.4083
1164.04	15.1347
1165.66	15.6525
1167.29	14.9026
1168.91	14.3368
1170.53	14.6622
1172.16	14.176
1173.78	12.4385
1175.4	11.377
1177.02	10.2591
1178.65	8.85556
1180.27	7.94374
1181.89	7.49493
1183.51	6.60495
1185.13	6.21626
1186.75	6.91829
1188.37	7.30752
1189.99	7.80407
1191.61	7.36699
1193.23	8.22192
1194.85	9.19767
1196.47	9.20209
1198.08	10.1032
1199.7	10.7962
1201.32	11.6008
1202.94	11.5076
1204.55	12.1302
1206.17	12.3264
1207.79	11.7023
1209.4	11.8991
1211.02	12.1727
1212.63	11.8028
1214.25	11.3939
1215.86	12.508
1217.48	13.1107
1219.09	13.6175
1220.71	15.1147
1222.32	15.6772
1223.93	16.7247
1225.54	17.2732
1227.16	17.5836
1228.77	17.3533
1230.38	17.5918
1231.99	17.1679
1233.6	17.6381
1235.22	17.8575
1236.83	18.0959
1238.44	18.2807
1240.05	18.6749
1241.66	19.1929
1243.26	20.1381
1244.87	19.5772
1246.48	19.6646
1248.09	18.8299
1249.7	19.5577
1251.31	19.4469
1252.92	19.405
1254.52	18.3744
1256.13	18.7374
1257.74	19.3722
1259.34	19.8197
1260.95	21.4189
1262.55	22.6381
1264.16	22.2055
1265.76	23.1057
1267.37	23.3608
1268.97	23.4957
1270.58	22.9945
1272.18	23.9244
1273.78	25.1159
1275.39	26.1446
1276.99	26.3332
1278.59	28.0779
1280.2	29.45
1281.8	29.3739
1283.4	29.8118
1285	31.0299
1286.6	32.0907
1288.2	32.9933
1289.8	33.9205
1291.4	34.8411
1293	35.4536
1294.6	36.3084
1296.2	37.4793
1297.8	37.9799
1299.4	38.9253
1301	37.9355
1302.6	38.2704
1304.19	38.7263
1305.79	38.7175
1307.39	39.0183
1308.99	39.5981
1310.58	40.1148
1312.18	39.6572
1313.77	40.5525
1315.37	40.8282
1316.96	40.6926
1318.56	40.7085
1320.15	40.3454
1321.75	39.9591
1323.34	39.516
1324.94	37.6374
1326.53	37.1635
1328.12	35.9778
1329.72	36.2962
1331.31	35.2777
1332.9	35.416
1334.49	34.0791
1336.08	33.7994
1337.67	33.9514
1339.27	33.2497
1340.86	32.1173
1342.45	30.6435
1344.04	29.6772
1345.63	29.8148
1347.22	29.7449
1348.8	29.7127
1350.39	28.9123
1351.98	29.129
1353.57	29.4428
1355.16	29.4861
1356.75	29.458
1358.33	29.4457
1359.92	28.8469
1361.51	28.8056
1363.09	29.063
1364.68	28.7822
1366.27	28.9058
1367.85	29.0723
1369.44	29.1741
1371.02	28.0693
1372.61	27.6167
1374.19	26.5491
1375.77	26.65
1377.36	26.8632
1378.94	26.5854
1380.52	26.6414
1382.11	28.3825
1383.69	28.3494
1385.27	28.1994
1386.85	28.4196
1388.43	28.5239
1390.02	28.5335
1391.6	28.283
1393.18	29.3232
1394.76	29.532
1396.34	30.0649
1397.92	30.6604
1399.5	29.6024
1401.08	29.566
1402.65	30.0013
1404.23	30.2008
1405.81	31.0842
1407.39	31.9017
1408.97	33.3257
1410.54	33.3368
1412.12	34.4037
1413.7	34.9884
1415.27	36.2886
1416.85	37.0399
1418.43	37.2569
1420	37.6895
1421.58	39.2509
1423.15	40.893
1424.73	43.0125
1426.3	44.9271
1427.87	45.283
1429.45	45.2857
1431.02	46.4572
1432.6	47.3425
1434.17	47.1925
1435.74	47.3836
1437.31	47.656
1438.89	48.5866
1440.46	49.5004
1442.03	48.8313
1443.6	48.8304
1445.17	48.6937
1446.74	49.0802
1448.31	48.179
1449.88	47.2028
1451.45	46.74
1453.02	46.3153
1454.59	46.6068
1456.16	45.7314
1457.72	44.3624
1459.29	43.2484
1460.86	42.3403
1462.43	40.0851
1463.99	39.0423
1465.56	38.1989
1467.13	36.7349
1468.69	34.0483
1470.26	32.3963
1471.83	31.2383
1473.39	30.4074
1474.95	28.8239
1476.52	26.3907
1478.08	23.2313
1479.65	22.3861
1481.21	21.2767
1482.78	19.5648
1484.34	18.6211
1485.9	17.7709
1487.47	16.9943
1489.03	15.5427
1490.59	14.589
1492.15	14.6382
1493.71	13.6307
1495.27	13.047
1496.84	12.6597
1498.39	12.909
1499.96	12.1589
1501.52	12.1852
1503.07	12.0193
1504.64	10.5803
1506.19	9.23795
1507.75	9.0195
1509.31	8.79098
1510.87	8.60266
1512.43	8.45811
1513.98	8.70114
1515.54	8.69075
1517.1	8.75139
1518.65	8.84393
1520.21	8.32181
1521.77	9.06682
1523.32	9.85581
1524.88	11.3489
1526.44	11.1279
1527.99	11.6981
1529.54	11.7723
1531.1	12.1734
1532.65	12.1799
1534.21	11.6703
1535.76	11.4368
1537.31	11.5188
1538.87	12.2823
1540.42	11.9178
1541.97	12.2573
1543.52	12.4425
1545.07	12.6957
1546.63	12.9369
1548.18	14.3311
1549.73	14.7128
1551.28	14.7303
1552.83	13.7802
1554.38	13.4226
1555.93	14.3253
1557.48	15.3472
1559.03	15.4583
1560.57	15.5127
1562.12	15.5247
1563.67	15.8916
1565.22	16.431
1566.77	16.4338
1568.31	17.09
1569.86	17.2727
1571.41	16.8911
1572.95	18.1233
1574.5	18.2533
1576.05	18.37
1577.59	18.2829
1579.14	19.0676
1580.68	18.5598
1582.23	19.1715
1583.77	20.1635
1585.31	20.0503
1586.86	20.6487
1588.4	21.0388
1589.95	21.4659
1591.49	20.7823
1593.03	20.8035
1594.57	21.219
1596.11	22.1379
1597.66	22.1853
1599.2	23.0165
1600.74	22.8485
1602.28	22.0285
1603.82	21.4863
1605.36	21.1958
1606.9	20.8004
1608.44	20.368
1609.98	19.9058
1611.52	20.1141
1613.06	20.2408
1614.6	20.1939
1616.13	20.7329
1617.67	20.596
1619.21	20.9337
1620.75	21.3189
1622.28	21.1857
1623.82	21.3612
1625.36	21.2373
1626.89	21.8881
1628.43	21.7623
1629.96	22.5343
1631.5	23.5734
1633.04	24.7725
1634.57	24.2049
1636.11	24.6713
1637.64	24.8936
1639.17	25.3882
1640.71	25.8359
1642.24	26.2684
1643.77	26.1262
1645.31	26.3813
1646.84	26.8003
1648.37	27.1505
1649.9	26.862
1651.43	26.4208
1652.96	25.6514
1654.5	25.5452
1656.03	24.8377
1657.56	24.6765
1659.09	24.8774
1660.62	24.4484
1662.15	23.5194
1663.67	23.6832
1665.2	21.559
1666.73	20.4828
1668.26	19.1002
1669.79	18.8912
1671.32	18.9514
1672.84	18.7676
1674.37	17.7648
1675.9	17.0432
1677.43	16.2181
1678.95	14.8755
1680.48	13.5243
1682	13.4603
1683.53	12.5132
1685.05	12.2246
1686.58	12.2614
1688.1	12.6716
1689.63	11.2937
1691.15	11.0406
1692.68	10.1531
1694.2	9.8215
1695.72	10.1643
1697.25	9.99781
1698.77	9.6028
1700.29	9.88407
1701.81	9.64689
1703.33	9.85859
1704.86	9.49031
1706.38	9.7173
1707.9	9.16093
1709.42	8.35513
1710.94	7.74364
1712.46	7.72928
1713.98	7.58916
1715.5	7.81855
1717.02	8.12884
1718.54	8.14756
1720.06	7.30742
1721.57	6.99997
1723.09	6.95426
1724.61	6.58272
1726.13	6.58943
1727.64	6.25899
1729.16	5.90515
1730.68	6.54455
1732.19	7.19132
1733.71	7.51304
1735.23	7.08422
1736.74	6.69228
1738.26	5.98088
1739.77	5.32119
1741.29	4.67533
1742.8	5.2199
1744.31	5.69399
1745.83	5.95453
1747.34	6.10103
1748.85	5.32528
1750.37	4.79101
1751.88	4.0869
1753.39	3.39841
1754.91	2.62416
1756.42	3.03988
1757.93	4.03818
1759.44	3.09147
1760.95	3.52367
1762.46	3.63501
1763.97	3.01568
1765.48	2.47539
1766.99	2.77075
1768.5	2.51331
1770.01	3.20319
1771.52	3.16204
1773.03	3.05177
1774.54	3.23329
1776.04	3.8083
1777.55	3.82044
1779.06	4.0469
1780.57	4.0933
1782.07	3.94139
1783.58	3.87669
1785.09	4.19198
1786.59	4.62038
1788.1	4.61966
1789.6	5.05083
1791.11	5.27989
1792.61	4.77984
1794.12	4.37728
1795.62	4.56601
1797.13	5.01557
1798.63	5.08527
1800.13	5.08684
1801.64	4.81579
1803.14	5.11073
1804.64	5.53989
1806.15	5.49766
1807.65	5.70718
1809.15	4.71829
1810.65	4.10032
1812.15	3.68883
1813.65	3.06329
1815.16	2.64384
1816.66	2.33543
1818.15	2.09674
1819.66	2.03055
1821.16	1.13511
1822.65	0.475134
1824.15	-0.167936
1825.65	-0.403129
1827.15	-0.794192
1828.65	-1.10374
1830.15	-1.04589
1831.64	-0.720981
1833.14	-0.559325
1834.64	-0.510426
1836.14	0.378823
1837.63	0.378145
1839.13	0.321749
1840.62	0.757673
1842.12	0.646619
1843.62	1.04462
1845.11	1.57014
1846.61	1.84192
1848.1	1.85017
1849.6	2.35076
1851.09	2.55358
1852.58	2.23733
1854.08	1.73615
1855.57	2.00364
1857.06	1.9936
1858.55	2.24342
1860.05	2.90583
1861.54	3.01352
1863.03	2.70362
1864.52	2.83261
1866.01	2.97558
1867.5	2.96298
1869	2.64837
1870.49	2.51988
1871.98	3.01786
1873.47	3.1604
1874.96	3.44296
1876.44	3.65174
1877.93	4.27438
1879.42	3.95387
1880.91	3.98722
1882.4	3.90287
1882.47	3.60659
1883.96	3.91975
1885.46	3.75688
1886.95	3.97336
1888.44	3.62681
1889.94	3.53745
1891.43	3.45906
1892.93	3.33855
1894.42	3.05779
1895.91	3.35536
1897.4	4.08547
1898.89	4.31727
1900.39	4.71442
1901.88	5.17467
1903.37	6.02284
1904.86	6.02714
1906.35	6.14034
1907.84	5.90176
1909.33	6.29262
1910.82	6.52587
1912.31	6.51972
1913.8	6.3864
1915.29	6.20208
1916.77	6.47152
1918.26	6.88919
1919.75	6.83341
1921.24	7.03053
1922.73	7.61228
1924.21	7.24924
1925.7	6.99611
1927.19	7.10748
1928.67	7.37538
1930.16	7.11428
1931.64	6.74784
1933.13	6.15205
1934.61	5.06884
1936.1	4.90963
1937.58	4.41037
1939.07	3.95387
1940.55	3.52111
1942.04	3.3773
1943.52	3.92492
1945	3.31535
1946.49	2.35676
1947.97	2.52493
1949.45	2.32459
1950.93	2.55456
1952.42	1.75804
1953.9	1.44717
1955.38	1.37984
1956.86	1.39494
1958.34	0.890432
1959.82	0.629147
1961.3	0.985907
1962.78	0.62908
1964.26	0.965964
1965.74	0.974207
1967.22	1.56824
1968.7	1.81089
1970.18	2.33953
1971.65	2.30955
1973.13	2.22131
1974.61	2.59651
1976.09	2.61182
1977.57	3.26243
1979.04	2.86622
1980.52	3.42435
1982	3.51723
1983.47	3.35011
1984.95	3.2493
1986.42	2.6594
1987.9	2.98019
1989.37	3.65201
1990.85	3.78527
1992.32	4.20281
1993.8	4.32652
1995.27	4.93188
1996.75	4.94671
1998.22	4.60446
1999.69	4.73361
2001.17	4.54883
2002.64	4.28063
2004.11	3.96771
2005.58	3.30124
2007.05	2.99942
2008.53	2.7565
2010	2.94698
2011.47	2.91603
2012.94	3.54246
2014.41	4.11726
2015.88	3.76361
2017.35	2.92332
2018.82	2.14621
2020.29	3.15703
2021.76	4.0284
2023.23	3.91231
2024.7	4.62996
2026.16	3.90378
2027.63	4.12372
2029.1	4.50289
2030.57	4.6447
2032.03	5.20665
2033.5	5.17174
2034.97	6.05838
2036.44	5.58943
2037.9	5.62572
2039.37	5.31545
2040.83	5.33012
2042.3	5.27562
2043.76	5.59688
2045.23	5.43109
2046.69	5.83401
2048.16	5.92407
2049.62	5.7397
2051.08	6.3611
2052.55	6.04862
2054.01	5.67947
2055.47	5.21854
2056.94	4.73864
2058.4	5.4549
2059.86	5.54475
2061.32	5.87249
2062.79	5.95649
2064.25	6.04797
2065.71	6.73504
2067.17	7.36857
2068.63	7.60879
2070.09	7.68816
2071.55	7.2149
2073.01	7.04536
2074.47	6.80092
2075.93	6.25391
2077.39	5.75294
2078.85	5.75225
2080.31	6.47714
2081.76	7.06438
2083.22	8.07181
2084.68	8.32549
2086.13	8.49434
2087.59	8.1504
2089.05	7.58681
2090.51	7.8312
2091.96	7.84361
2093.42	8.03176
2094.87	8.40008
2096.33	8.46251
2097.78	8.81845
2099.24	8.88205
2100.69	9.67759
2102.15	10.3324
2103.6	10.3835
2105.06	10.4265
2106.51	10.4678
2107.96	10.971
2109.42	10.3739
2110.87	10.7216
2112.32	11.2736
2113.77	11.4694
2115.23	11.9102
2116.68	11.9509
2118.13	11.9394
2119.58	11.7761
2121.03	12.0345
2122.48	12.1139
2123.93	12.305
2125.38	12.0602
2126.83	11.4829
2128.28	12.5016
2129.73	12.5963
2131.18	13.008
2132.63	12.5202
2134.08	13.8327
2135.53	13.9892
2136.97	14.0847
2138.42	14.0352
2139.87	14.1785
2141.32	14.0776
2142.76	14.2798
2144.21	14.3451
2145.66	14.1566
2147.1	14.3927
2148.55	14.2116
2150	14.2411
2151.44	14.9075
2152.89	15.1608
2154.33	15.3425
2155.78	15.3528
2157.22	14.7923
2158.66	14.6078
2160.11	14.3043
2161.55	14.8198
2163	14.7874
2164.44	15.5174
2165.88	16.1904
2167.32	17.8184
2168.77	18.0215
2170.21	17.9496
2171.65	18.2697
2173.09	18.5213
2174.53	18.7489
2175.97	18.239
2177.41	18.8031
2178.85	18.9023
2180.29	18.3409
2181.73	18.2013
2183.17	18.4815
2184.61	18.0901
2186.05	17.5125
2187.49	17.9684
2188.93	17.4008
2190.37	16.7961
2191.81	16.5252
2193.24	16.7129
2194.68	16.0462
2196.12	15.8234
2197.56	16.7059
2198.99	16.3372
2200.43	16.8104
2201.87	15.8314
2203.3	15.8423
2204.74	16.0884
2206.17	15.9133
2207.61	14.7112
2209.04	14.3467
2210.48	13.9624
2211.91	13.6211
2213.35	13.4273
2214.78	13.1494
2216.21	12.1964
2217.65	11.4973
2219.08	11.5498
2220.51	10.689
2221.95	10.0945
2223.38	10.0751
2224.81	9.91272
2226.24	9.7769
2227.67	9.09114
2229.1	9.01176
2230.54	8.87108
2231.97	8.85831
2233.4	8.62551
2234.83	8.37873
2236.26	9.49939
2237.69	9.02279
2239.11	9.0505
2240.54	8.14572
2241.97	7.29258
2243.4	7.83252
2244.83	8.17662
2246.26	7.64331
2247.69	7.14336
2249.11	6.74988
2250.54	6.26214
2251.97	5.97828
2253.4	5.56693
2254.82	6.25292
2256.25	5.57027
2257.67	5.4854
2259.1	5.52899
2260.53	5.36528
2261.95	5.43407
2263.38	6.35776
2264.8	6.4668
2266.23	6.71267
2267.65	7.2235
2269.07	7.05229
2270.5	5.95099
2271.92	6.08948
2273.34	6.08264
2274.77	6.44605
2276.19	6.58179
2277.61	5.96681
2279.03	6.461
2280.46	6.50438
2281.88	6.05291
2283.3	6.1255
2284.72	6.36545
2286.14	6.17374
2287.56	5.82162
2288.98	5.88351
2290.4	4.85753
2291.82	4.05526
2293.24	3.96621
2294.66	3.89933
2296.08	3.43553
2297.5	4.16795
2298.92	4.51734
2300.34	5.20178
2301.76	4.85186
2303.17	5.14652
2304.59	5.68295
2306.01	6.26409
2307.43	6.62991
2308.84	6.08156
2310.26	6.08046
2311.68	6.02178
2313.09	5.92071
2314.51	6.6487
2315.92	6.38916
2317.34	6.40728
2318.75	6.60182
2320.17	6.4105
2321.58	6.86584
2323	6.782
2324.41	6.8342
2325.82	7.41158
2327.24	7.08245
2328.65	7.41219
2330.06	7.70546
2331.48	7.36644
2332.89	7.6231
2334.3	7.51887
2335.71	7.10199
2337.12	7.2023
2338.54	6.89978
2339.95	6.53179
2341.36	6.87013
2342.77	7.06728
2344.18	8.08406
2345.59	7.04129
2347	6.67953
2348.41	6.22371
2349.82	5.81071
2351.23	5.09277
2352.64	4.45205
2354.04	4.44602
2355.45	3.6506
2356.86	3.16309
2358.27	3.05734
2359.68	2.58745
2361.08	2.06903
2362.49	1.9895
2363.9	2.29898
2365.3	2.5119
2366.71	2.66224
2368.12	3.28302
2369.52	3.06389
2370.93	2.72152
2372.33	2.24001
2373.74	2.37911
2375.14	1.95722
2376.55	1.18555
2377.95	0.814459
2379.36	0.821883
2380.76	1.02285
2382.16	1.31939
2383.57	1.39536
2384.97	1.3237
2386.37	0.802224
2387.78	0.76523
2389.18	-0.17366
2390.58	-0.488878
2391.98	0.323075
2393.38	0.265186
2394.79	0.0129567
2396.19	-0.0326577
2397.59	-0.0597961
2398.99	0.0091166
2400.39	-0.12925
2401.79	0.0260719
2403.19	0.566829
2404.59	0.469207
2405.99	0.458854
2407.39	0.794941
2408.78	0.910637
2410.18	1.628
2411.58	2.43697
2412.98	3.17075
2414.38	3.95274
2415.77	3.351
2417.17	4.4474
2418.57	4.449
2419.97	4.371
2421.36	4.64199
2422.76	5.12974
2424.15	6.2325
2425.55	6.59253
2426.95	6.74478
2428.34	7.26508
2429.74	7.35089
2431.13	7.46956
2432.52	7.65134
2433.92	8.10193
2435.31	7.62407
2436.71	8.01097
2438.1	8.10318
2439.49	8.01117
2440.89	7.32621
2442.28	6.79284
2443.67	6.10114
2445.06	5.89887
2446.46	5.90396
2447.85	5.8927
2449.24	6.08492
2450.63	5.67959
2452.02	5.49643
2453.41	5.58988
2454.8	4.54546
2456.19	4.05814
2457.58	3.48499
2458.97	3.26652
2460.36	3.55381
2461.75	2.86943
2463.14	2.07766
2464.53	1.60169
2465.92	1.19353
2467.31	1.09417
2468.69	0.949873
2470.08	0.847617
2471.47	0.834732
2472.86	0.480914
2474.24	-0.359121
2475.63	-0.315206
2477.02	-0.308073
2478.4	-0.136949
2479.79	0.562257
2481.17	0.0385331
2482.56	-0.413979
2483.94	-0.998647
2485.33	-1.08525
2486.72	-0.835007
2488.1	-1.28411
2489.48	-1.20226
2490.87	-1.0407
2492.25	-0.255387
2493.64	0.0283965
2495.02	-0.453758
2496.4	-0.543606
2497.79	0.707992
2499.17	0.452184
2500.55	0.574318
2501.93	0.969943
2503.31	0.783302
2504.69	0.843696
2506.08	1.17483
2507.46	0.429547
2508.84	0.594928
2510.22	1.07041
2511.6	1.55426
2512.98	1.91527
2514.36	2.41131
2515.74	2.50554
2517.12	2.94146
2518.5	2.79895
2519.88	3.21751
2521.25	3.5746
2522.63	3.33148
2524.01	2.50681
2525.39	2.87009
2526.77	2.77581
2528.14	3.36736
2529.52	3.41774
2530.9	2.95802
2532.27	4.04627
2533.65	3.96611
2535.03	3.9329
2536.4	4.64083
2537.78	4.71563
2539.15	4.52896
2540.53	4.56668
2541.9	4.79089
2543.28	4.8851
2544.65	4.93333
2546.03	4.6162
2547.4	4.87708
2548.77	4.67752
2550.15	3.88071
2551.52	3.92932
2552.89	4.26941
2554.27	4.81813
2555.64	4.76878
2557.01	4.42022
2558.38	4.54263
2559.75	4.48246
2561.12	4.93451
2562.5	4.62425
2563.87	4.66924
2565.24	4.85095
2566.61	5.09934
2567.98	4.77918
2569.35	5.12469
2570.72	4.93773
2572.09	4.42994
2573.46	4.35502
2574.83	3.86905
2576.19	3.85254
2577.56	4.24428
2578.93	4.00842
2580.3	3.58483
2581.67	3.46704
2583.04	3.28376
2584.4	3.60368
2585.77	3.5443
2587.14	3.1145
2588.5	3.83133
2589.87	3.27758
2591.23	3.53338
2592.6	3.81456
2593.97	3.86557
2595.33	3.98895
2596.7	4.03087
2598.06	3.6795
2599.43	3.07728
2600.79	3.44992
2602.15	3.20145
2603.52	3.19751
2604.88	3.88727
2606.25	3.91792
2607.61	4.01899
2608.97	4.48277
2610.33	4.37574
2611.7	3.7423
2613.06	3.03851
2614.42	2.91919
2615.78	3.30359
2617.15	3.60094
2618.51	3.80101
2619.87	3.87277
2621.23	4.342
2622.59	4.00035
2623.95	3.8396
2625.31	3.75891
2626.67	3.66219
2628.03	3.72542
2629.39	3.98082
2630.75	4.37033
2632.1	4.73246
2633.46	5.05009
2634.82	5.74723
2636.18	5.44043
2637.54	5.01245
2638.89	4.63558
2640.25	4.4115
2641.61	4.26517
2642.97	4.30043
2644.32	4.34875
2645.68	4.49476
2647.03	5.18509
2648.39	5.79415
2649.75	6.17087
2651.1	6.02592
2652.46	6.42209
2653.81	6.27789
2655.17	6.31485
2656.52	6.74022
2657.88	6.48518
2659.23	7.01409
2660.58	6.90428
2661.94	6.78065
2663.29	6.39048
2664.64	6.10415
2666	6.07049
2667.35	5.94256
2668.7	6.50344
2670.05	6.48375
2671.4	6.79328
2672.76	6.67507
2674.11	6.4123
2675.46	6.31786
2676.81	6.2631
2678.16	5.78528
2679.51	5.90689
2680.86	6.19221
2682.21	6.08374
2683.56	6.17936
2684.91	6.05441
2686.26	5.5115
2687.61	5.38123
2688.96	6.04176
2690.3	6.13726
2691.65	6.72567
2693	6.7884
2694.35	7.1727
2695.7	7.50968
2697.04	7.66476
2698.39	8.09311
2699.74	7.93126
2701.08	7.94814
2702.43	8.0583
2703.77	7.54532
2705.12	7.71252
2706.47	8.07044
2707.81	8.18826
2709.16	8.95623
2710.5	9.31195
2711.85	9.79022
2713.19	10.3725
2714.53	10.6187
2715.88	10.5239
2717.22	10.7396
2718.57	10.7637
2719.91	10.6301
2721.25	10.6619
2722.59	10.7773
2723.94	10.7534
2725.28	10.5172
2726.62	10.6288
2727.96	10.2794
2729.3	9.77289
2730.65	9.98349
2731.99	9.87407
2733.33	8.86188
2734.67	8.17048
2736.01	8.26295
2737.35	8.26147
2738.69	8.23228
2740.03	7.32494
2741.37	7.17471
2742.71	6.9415
2744.05	6.2878
2745.38	5.9434
2746.72	5.92495
2748.06	5.34142
2749.4	4.99803
2750.74	4.46532
2752.07	4.06375
2753.41	3.58853
2754.75	3.85353
2756.09	3.82093
2757.42	3.38863
2758.76	3.26786
2760.09	2.98587
2761.43	2.46526
2762.77	2.18681
2764.1	2.02256
2765.44	1.75832
2766.77	1.13143
2768.11	1.46531
2769.44	1.07706
2770.77	0.519829
2772.11	0.211091
2773.44	0.0499742
2774.77	0.232746
2776.11	0.348278
2777.44	-0.121114
2778.77	0.0869666
2780.11	-0.0560395
2781.44	0.0244475
2782.77	0.627188
2784.1	0.714255
2785.43	-0.0104437
2786.77	-0.120387
2788.1	1.15814
2789.43	1.05714
2790.76	1.02529
2792.09	1.54276
2793.42	1.54945
2794.75	1.74868
2796.08	2.01559
2797.41	2.47697
2798.74	2.01799
2800.07	1.98382
2801.4	2.44325
2802.72	2.83482
2804.05	2.37139
2805.38	2.17651
2806.71	2.24332
2808.04	2.11379
2809.36	1.7225
2810.69	1.7075
2812.02	1.91583
2813.34	1.86052
2814.67	2.02908
2816	1.82491
2817.32	1.92118
2818.65	3.23958
2819.97	4.96902
2821.3	6.16761
2822.62	7.86856
2823.95	9.49265
2825.27	11.4285
2826.6	12.5112
2827.92	13.9321
2829.25	15.7089
2830.57	17.4594
2831.89	19.1664
2833.22	21.5661
2834.54	23.9893
2835.86	26.1268
2837.18	28.9278
2838.51	31.6001
2839.83	34.4866
2841.15	37.3576
2842.47	39.3905
2843.79	41.9523
2845.11	45.1286
2846.43	47.6412
2847.76	50.5344
2849.08	53.5782
2850.4	56.4169
2851.72	59.2813
2853.04	63.2492
2854.36	66.6751
2855.67	68.9397
2856.99	71.5232
2858.31	74.2745
2859.63	75.9251
2860.95	78.5273
2862.27	80.5907
2863.58	82.4714
2864.9	84.5586
2866.22	86.4589
2867.54	86.9295
2868.85	88.0602
2870.17	88.8224
2871.49	89.7438
2872.8	90.6765
2874.12	91.0916
2875.43	92.5422
2876.75	93.5388
2878.07	94.1217
2879.38	95.0078
2880.7	96.0748
2882.01	96.8068
2883.32	98.4458
2884.64	100.162
2885.95	100.969
2887.27	101.539
2888.58	102.284
2889.89	103.271
2891.21	103.437
2892.52	103.68
2893.83	104.129
2895.14	105.138
2896.46	106.264
2897.77	106.811
2899.08	108.009
2900.39	108.496
2901.7	109.722
2903.01	110.951
2904.32	111.856
2905.63	112.732
2906.94	113.784
2908.25	114.515
2909.56	116.111
2910.87	118.282
2912.18	119.96
2913.49	122.346
2914.8	123.829
2916.11	125.58
2917.42	126.749
2918.72	128.479
2920.03	129.406
2921.34	130.014
2922.65	130.767
2923.95	132.037
2925.26	132.054
2926.57	132.407
2927.88	132.969
2929.18	132.905
2930.49	132.601
2931.79	131.355
2933.1	129.759
2934.4	129.016
2935.71	127.78
2937.01	126.186
2938.32	125.199
2939.62	123.666
2940.93	121.712
2942.23	119.449
2943.54	117.802
2944.84	115.778
2946.14	113.384
2947.45	110.836
2948.75	108.068
2950.05	105.298
2951.35	101.636
2952.66	98.7168
2953.96	96.2814
2955.26	93.5277
2956.56	89.6129
2957.86	86.6014
2959.16	83.3462
2960.46	80.7765
2961.77	77.5712
2963.07	74.4247
2964.37	72.0877
2965.66	69.3346
2966.96	67.0049
2968.26	64.6293
2969.56	61.3797
2970.86	58.5874
2972.16	56.3595
2973.46	54.3964
2974.76	52.9149
2976.06	51.1342
2977.35	49.0723
2978.65	47.3932
2979.95	45.0962
2981.25	43.6819
2982.54	41.8392
2983.84	40.3497
2985.14	37.9688
2986.43	35.9931
2987.73	34.707
2989.02	32.8078
2990.32	30.7559
2991.62	29.2492
2992.91	28.419
2994.21	26.2085
2995.5	24.3819
2996.8	22.5827
2998.09	21.4855
2999.38	20.0137
3000.68	19.1561
3001.97	18.1557
3003.26	17.5467
3004.56	16.7459
3005.85	16.1244
3007.14	15.5877
3008.43	14.2419
3009.73	13.1628
3011.02	11.9056
3012.31	11.448
3013.6	10.5561
3014.89	9.74904
3016.19	9.24112
3017.48	9.31276
3018.77	8.70271
3020.06	7.68328
3021.35	7.13642
3022.64	7.09424
3023.93	6.51917
3025.22	6.51368
3026.5	5.64284
3027.79	4.98127
3029.08	4.40641
3030.37	3.8088
3031.66	3.22771
3032.95	3.19523
3034.24	2.85444
3035.52	2.65654
3036.81	2.59419
3038.1	2.77866
3039.39	2.65216
3040.67	2.59313
3041.96	2.55547
3043.25	3.00806
3044.53	2.707
3045.82	2.42903
3047.1	1.96162
3048.39	1.61775
3049.67	1.18942
3050.96	1.15968
3052.24	1.33092
3053.53	1.34069
3054.81	1.45378
3056.1	1.39276
3057.38	1.68932
3058.67	2.09167
3059.95	2.18794
3061.23	2.36362
3062.52	2.81444
3063.8	2.48457
3065.08	2.63591
3066.36	2.83871
3067.65	2.86029
3068.93	3.2027
3070.21	2.91768
3071.49	2.74813
3072.77	2.8186
3074.05	3.52368
3075.33	3.82604
3076.61	4.37614
3077.89	3.89655
3079.17	3.93273
3080.45	4.57846
3081.73	4.77784
3083.01	4.93205
3084.29	4.98167
3085.57	4.94786
3086.85	4.79194
3088.13	4.83882
3089.41	4.96362
3090.68	4.31642
3091.96	4.82256
3093.24	5.21457
3094.52	6.05039
3095.79	6.90618
3097.07	7.56141
3098.35	7.72585
3099.62	7.98945
3100.9	8.70158
3102.18	9.14701
3103.45	9.59411
3104.73	10.1659
3106	10.528
3107.28	10.845
3108.55	10.7598
3109.83	10.803
3111.1	11.4067
3112.38	11.9666
3113.65	12.3789
3114.93	12.7858
3116.2	13.3226
3117.47	13.9426
3118.75	14.3722
3120.02	14.8901
3121.29	15.5531
3122.57	16.0164
3123.84	15.7733
3125.11	16.196
3126.38	16.5654
3127.65	16.7001
3128.92	17.4053
3130.2	17.8954
3131.47	18.0795
3132.74	18.756
3134.01	19.0805
3135.28	20.0252
3136.55	20.5205
3137.82	21.0305
3139.09	21.344
3140.36	21.6349
3141.63	22.2842
3142.9	23.3553
3144.17	24.4884
3145.43	25.7977
3146.7	27.3899
3147.97	29.8454
3149.24	32.0569
