#Acq. time (s)=	45
#Accumulations=	2
#Range (cm-¹)=	200...3150
#Windows=	2
#Auto scanning=	Off
#Autofocus=	Off
#Macrospot=	Off
#AutoExposure=	Off
#Spike filter=	Multiple accum.
#Delay time (s)=	0
#Binning=	1
#Readout mode=	Signal
#DeNoise=	Off
#ICS correction=	On
#Dark correction=	Off
#Inst. Process=	Off
#Detector Gain=	Best Dynamic Range
#Detector ADC=	20 kHz       
#Detector temperature (°C)=	-69.85
#Instrument=	LabRAM HR Evol
#Detector=	Synapse
#Objective=	x100
#Grating=	600 gr/mm
#ND Filter=	100%
#Laser (nm)=	532 
#Hole=	100.021
#Range=	Auto
#Laser Pol.=	No
#Raman. Pol.=	No
#Laser Pol. (°)=	-0.0007625
#Raman Pol. (°)=	89.9995
#Collection=	Microscope
#StageXY=	Marzhauser
#StageZ=	Marzhauser
#X (µm)=	-6926.9
#Y (µm)=	2037.5
#Z (µm)=	-74.5
#Full time(mm:ss)=	3:18
#Project=	
#Sample=	
#Site=	
#Title=	Mb_20_23_25_2x_45s_532 nm_x100_100%_600 gr_mm
#Remark=	
#Date=	13.07.2022 15:07
#Acquired=	13.07.2022 15:07:40
#Base:Fit=	10.08.2022 10:29:37
#Base:Sub=	10.08.2022 10:33:46
#Filter:Polynom=	16.08.2022 10:13:29
#AxisType[0]=Intens
#AxisUnit[0]=Cnt
#AxisType[1]=Spectr
#AxisUnit[1]=1/cm
200.563	120.995
202.377	114.59
204.194	108.936
206.008	103.656
207.821	97.9716
209.634	92.3584
211.449	87.1171
213.262	82.081
215.074	78.031
216.885	74.0977
218.699	70.1751
220.51	67.3833
222.321	65.1015
224.131	63.0604
225.941	61.5022
227.751	60.0089
229.562	58.706
231.371	56.2062
233.18	53.8917
234.988	51.3202
236.796	49.5685
238.603	47.1855
240.411	45.2697
242.219	44.6092
244.026	43.5749
245.832	41.7241
247.638	40.5319
249.443	39.902
251.248	39.006
253.053	38.2657
254.857	35.409
256.661	35.4205
258.465	33.149
260.268	31.5093
262.071	30.4234
263.874	26.8179
265.678	25.3601
267.48	24.6722
269.282	23.2791
271.083	23.2821
272.884	22.367
274.684	21.9408
276.484	21.0928
278.284	18.4393
280.084	15.8951
281.883	14.1184
283.682	11.5665
285.48	10.0203
287.276	8.79734
289.074	7.20976
290.871	6.64336
292.668	4.76001
294.465	4.26047
296.261	3.3111
298.057	2.55856
299.853	2.79525
301.648	2.34267
303.443	2.68283
305.237	3.84139
307.032	4.53455
308.823	5.71491
310.617	7.13275
312.41	7.44737
314.203	7.84172
315.995	8.33196
317.788	8.01329
319.579	8.20411
321.369	8.5508
323.16	9.34426
324.951	11.354
326.741	13.0087
328.531	13.7882
330.321	14.4271
332.108	16.1047
333.897	16.6474
335.686	16.2896
337.474	16.6191
339.26	16.0758
341.048	15.5145
342.835	14.8736
344.622	14.6048
346.406	16.0911
348.192	15.5094
349.978	16.2414
351.764	15.0055
353.547	14.7319
355.332	15.1995
357.116	14.6233
358.901	13.8589
360.682	12.6781
362.466	11.6845
364.249	10.9589
366.03	11.1032
367.812	9.80104
369.594	9.40516
371.374	7.3486
373.155	5.88191
374.936	5.44078
376.715	3.86554
378.495	3.74788
380.273	4.18137
382.053	3.54881
383.832	4.31886
385.609	3.45005
387.388	2.71588
389.164	3.45522
390.942	2.98643
392.72	3.57811
394.495	3.46053
396.272	2.54964
398.047	2.17208
399.823	1.74478
401.597	1.63949
403.372	2.06864
405.145	2.51472
406.92	2.47384
408.693	3.01551
410.467	3.8609
412.239	4.74785
414.012	5.61843
415.783	5.32369
417.556	4.49261
419.327	5.27586
421.099	5.69269
422.869	4.82984
424.64	3.8003
426.409	4.55966
428.18	3.73469
429.948	3.63547
431.718	3.3013
433.486	4.6794
435.253	5.07016
437.022	4.32494
438.789	4.59783
440.558	3.80075
442.324	4.69973
444.089	3.34969
445.857	4.33931
447.622	5.24523
449.386	6.48031
451.153	6.04369
452.917	6.46118
454.682	7.57563
456.446	7.6009
458.208	7.71699
459.973	6.60225
461.735	6.90259
463.497	7.24944
465.259	8.06882
467.022	9.96357
468.783	10.0493
470.544	10.1588
472.306	10.011
474.066	9.7926
475.825	10.4527
477.585	11.3263
479.346	10.8056
481.104	11.3978
482.862	11.6799
484.62	11.5612
486.38	13.8852
488.137	15.0874
489.894	16.3269
491.65	17.1847
493.407	18.3829
495.164	19.4384
496.92	21.9791
498.675	24.729
500.43	25.3702
502.184	25.3486
503.939	26.4691
505.694	26.2941
507.448	26.9605
509.201	27.4743
510.954	28.4126
512.706	29.1856
514.459	29.917
516.21	29.6512
517.962	30.2991
519.715	31.9246
521.466	33.6898
523.216	33.6647
524.966	34.9331
526.716	35.2038
528.466	36.1485
530.215	35.3619
531.964	35.1594
533.712	36.0062
535.46	35.2842
537.208	35.316
538.955	34.4986
540.703	34.104
542.449	33.5555
544.196	32.0718
545.942	29.6877
547.688	27.7584
549.433	27.4202
551.178	26.4085
552.923	25.6274
554.667	24.1225
556.412	22.2948
558.155	21.1635
559.899	21.0426
561.642	19.3741
563.385	18.4542
565.127	18.0882
566.867	16.1429
568.609	15.8028
570.35	14.9726
572.092	14.1548
573.832	14.0158
575.573	13.2095
577.313	12.6045
579.053	11.3784
580.79	10.7334
582.529	10.221
584.268	9.89909
586.006	7.60311
587.745	6.18238
589.482	5.58425
591.218	6.11954
592.955	5.85286
594.692	5.66817
596.428	6.77715
598.164	6.67142
599.898	6.72227
601.634	6.31796
603.369	6.29548
605.104	7.34533
606.836	9.61499
608.57	10.3254
610.304	9.81791
612.037	9.56136
613.769	9.83376
615.501	10.022
617.234	8.30266
618.966	8.83778
620.696	8.56295
622.427	9.21505
624.159	10.3068
625.887	9.7469
627.618	9.50282
629.348	9.93958
631.076	9.732
632.806	10.3934
634.535	10.2672
636.262	11.1767
637.99	11.344
639.716	12.9885
641.444	14.0721
643.172	14.6164
644.897	14.9223
646.624	16.3225
648.348	15.2396
650.075	15.8787
651.801	14.8964
653.524	13.3078
655.249	14.1469
656.972	14.2726
658.697	14.2557
660.419	14.3382
662.143	15.0377
663.865	14.6051
665.588	13.7565
667.309	14.5308
669.032	15.2008
670.752	15.634
672.474	15.2361
674.194	16.8495
675.915	17.239
677.634	17.7242
679.355	17.7313
681.073	18.2452
682.793	19.6943
684.511	19.9888
686.23	20.1649
687.947	20.6805
689.664	21.8537
691.382	24.2314
693.098	25.0819
694.816	25.056
696.531	25.3241
698.247	26.0027
699.963	25.6994
701.678	25.259
703.392	25.3774
705.108	26.778
706.821	28.7317
708.534	29.3702
710.249	28.8864
711.962	28.9497
713.674	29.0678
715.388	29.8697
717.099	30.8697
718.81	31.4996
720.523	32.1548
722.234	33.7869
723.944	34.6695
725.654	35.1277
727.365	35.0694
729.075	35.3106
730.784	35.2801
732.492	35.479
734.202	35.3747
735.91	34.2925
737.618	35.7439
739.325	39.3717
741.034	41.206
742.741	42.2373
744.447	44.2836
746.153	46.4958
747.859	48.2317
749.564	49.4101
751.271	50.2649
752.976	53.0734
754.681	55.4785
756.385	56.9528
758.088	58.0498
759.792	59.213
761.495	60.4611
763.2	61.632
764.902	62.4102
766.604	65.0498
768.306	66.3581
770.008	67.5283
771.709	68.521
773.41	70.0635
775.11	70.3174
776.811	71.7796
778.51	72.4436
780.21	73.7637
781.909	75.8197
783.608	77.1761
785.307	78.2155
787.005	79.924
788.703	81.3508
790.401	82.4179
792.098	81.8491
793.795	81.3899
795.492	81.8579
797.188	82.6913
798.884	82.9833
800.58	85.305
802.276	84.9152
803.971	85.6496
805.665	85.5682
807.36	84.5186
809.054	84.9432
810.748	86.3796
812.441	86.9657
814.135	87.6591
815.826	88.9335
817.518	88.673
819.21	89.6837
820.902	90.5135
822.594	92.8291
824.285	94.2653
825.976	92.7192
827.665	94.0493
829.355	95.5255
831.045	95.3253
832.735	95.013
834.424	94.8956
836.111	94.6669
837.8	95.6759
839.488	94.5278
841.177	93.0757
842.864	90.5599
844.55	89.051
846.237	88.496
847.924	86.8013
849.61	85.6774
851.295	85.3054
852.98	83.8579
854.666	83.0725
856.349	82.3798
858.034	82.6352
859.719	81.5916
861.403	81.2511
863.085	81.5136
864.769	82.1781
866.452	82.5798
868.133	81.4761
869.816	80.5052
871.498	78.9225
873.179	78.246
874.86	76.6783
876.54	76.0432
878.221	75.5192
879.902	73.6792
881.58	72.9381
883.26	72.2112
884.938	71.2461
886.618	70.0069
888.297	71.0369
889.974	69.7847
891.653	70.428
893.329	70.5156
895.007	70.8371
896.683	70.14
898.36	69.7419
900.035	68.7034
901.712	66.6046
903.387	66.0275
905.063	65.896
906.737	65.2631
908.412	66.0562
910.085	65.6371
911.76	66.73
913.433	66.3441
915.107	65.7258
916.779	64.0744
918.452	64.3091
920.124	63.8057
921.797	64.2319
923.467	62.4273
925.138	60.9378
926.81	60.079
928.48	60.0201
930.151	59.9923
931.82	58.6
933.489	58.0145
935.16	55.9192
936.828	55.9313
938.496	55.5744
940.165	55.3178
941.833	53.2505
943.5	51.1404
945.168	50.1655
946.834	50.5873
948.5	49.94
950.168	48.8984
951.834	48.9946
953.499	47.5314
955.163	46.378
956.83	46.2098
958.494	43.5737
960.158	41.8901
961.821	40.2198
963.487	38.9052
965.15	38.6962
966.812	39.5624
968.474	42.0811
970.138	44.451
971.8	46.0411
973.461	46.6333
975.123	47.2531
976.783	48.1871
978.446	49.2026
980.106	50.4594
981.766	49.7772
983.425	49.3319
985.084	51.5131
986.743	52.1361
988.402	53.6116
990.06	54.3673
991.72	55.024
993.378	54.4801
995.035	54.6361
996.692	54.9596
998.349	55.0666
1000.01	54.9094
1001.66	56.1107
1003.32	56.025
1004.97	55.6645
1006.63	55.4169
1008.28	55.7485
1009.94	56.986
1011.59	56.2569
1013.25	56.9699
1014.9	57.1252
1016.55	58.8737
1018.21	59.2942
1019.86	60.2678
1021.51	59.8553
1023.16	60.342
1024.81	60.7053
1026.47	61.6734
1028.12	63.0101
1029.77	64.1203
1031.42	64.9056
1033.07	66.4689
1034.72	67.217
1036.37	66.9682
1038.02	69.0758
1039.67	68.828
1041.31	68.2608
1042.96	70.5261
1044.61	72.483
1046.26	74.7303
1047.91	78.7865
1049.55	82.0665
1051.2	83.7585
1052.84	83.7953
1054.49	84.2034
1056.14	84.4555
1057.78	83.4033
1059.43	83.8667
1061.07	83.3559
1062.72	83.286
1064.36	80.9257
1066	80.1496
1067.65	79.9265
1069.29	76.9695
1070.93	76.0564
1072.58	75.0992
1074.22	73.6056
1075.86	72.7348
1077.5	72.3751
1079.14	70.9968
1080.78	69.8727
1082.42	68.6039
1084.06	66.9869
1085.7	65.8394
1087.34	64.9186
1088.98	64.6728
1090.62	62.7805
1092.26	62.4994
1093.9	62.0563
1095.54	62.4195
1097.17	61.9918
1098.81	60.8541
1100.45	60.0892
1102.09	60.0784
1103.72	59.4142
1105.36	61.0743
1106.99	60.4228
1108.63	60.0353
1110.27	60.6997
1111.9	60.1879
1113.53	59.9136
1115.17	59.3936
1116.8	58.4597
1118.43	58.6886
1120.07	57.9829
1121.7	55.725
1123.33	55.9198
1124.97	55.8271
1126.6	53.7918
1128.23	53.5284
1129.86	52.4433
1131.49	49.527
1133.12	47.6291
1134.75	45.2467
1136.38	44.6595
1138.01	43.1367
1139.64	39.9132
1141.27	37.9498
1142.9	35.8188
1144.53	33.4445
1146.16	30.877
1147.78	30.1082
1149.41	28.1693
1151.04	25.3293
1152.67	23.4069
1154.29	20.6619
1155.92	17.7881
1157.54	16.0216
1159.17	12.8135
1160.8	9.83575
1162.42	7.79097
1164.05	6.20865
1165.67	4.47201
1167.29	3.53452
1168.92	3.89105
1170.54	2.94938
1172.16	3.15814
1173.79	4.51185
1175.41	4.53625
1177.03	4.15529
1178.65	4.15025
1180.28	4.52816
1181.9	5.86877
1183.52	5.87201
1185.14	4.84437
1186.76	6.65706
1188.38	6.55308
1190	8.14616
1191.62	9.28975
1193.24	10.1622
1194.86	12.4834
1196.47	13.3525
1198.09	14.631
1199.71	16.0243
1201.33	17.9861
1202.95	19.8886
1204.56	22.9957
1206.18	23.8297
1207.8	25.0209
1209.41	28.9273
1211.03	31.6812
1212.64	34.1909
1214.26	37.7056
1215.87	40.1734
1217.49	43.4786
1219.1	45.3142
1220.71	47.168
1222.33	50.2313
1223.94	52.4192
1225.55	54.454
1227.16	56.7928
1228.78	59.7258
1230.39	62.107
1232	63.9399
1233.61	65.9259
1235.22	68.3845
1236.83	70.78
1238.44	73.9574
1240.05	76.7228
1241.66	79.4423
1243.27	81.7876
1244.88	83.5288
1246.49	84.8914
1248.1	86.5539
1249.71	88.909
1251.32	89.4945
1252.92	89.9384
1254.53	90.1665
1256.14	89.5553
1257.74	90.7052
1259.35	92.8611
1260.96	95.2523
1262.56	97.5614
1264.17	99.1729
1265.77	102.074
1267.38	106.473
1268.98	109.505
1270.59	113.217
1272.19	116.608
1273.79	119.652
1275.4	123.773
1277	126.268
1278.6	129.158
1280.21	132.074
1281.81	135.832
1283.41	139.565
1285.01	142.554
1286.61	145.201
1288.21	148.984
1289.81	152.462
1291.41	154.381
1293.01	155.908
1294.61	157.751
1296.21	159.686
1297.81	161.606
1299.41	161.608
1301.01	162.895
1302.6	163.969
1304.2	164.877
1305.8	166.585
1307.4	168.656
1308.99	169.968
1310.59	170.19
1312.19	169.481
1313.78	169.114
1315.38	169.19
1316.97	169.014
1318.57	169.074
1320.16	166.368
1321.76	163.239
1323.35	160.235
1324.94	157.743
1326.54	155.912
1328.13	152.965
1329.72	148.656
1331.32	144.78
1332.91	142.318
1334.5	140.7
1336.09	138.625
1337.68	136.792
1339.27	133.921
1340.87	132.506
1342.45	129.909
1344.04	128.518
1345.64	128.092
1347.22	126.428
1348.81	124.819
1350.4	123.183
1351.99	121.297
1353.58	119.575
1355.17	118.346
1356.75	115.882
1358.34	113.789
1359.93	112.278
1361.51	110.937
1363.1	110.06
1364.69	108.879
1366.27	108.115
1367.86	106.631
1369.44	105.228
1371.03	105.031
1372.61	103.394
1374.2	103.032
1375.78	101.845
1377.37	100.264
1378.95	99.2012
1380.53	100.269
1382.11	99.9885
1383.7	100.944
1385.28	100.448
1386.86	101.21
1388.44	101.663
1390.02	101.141
1391.6	101.793
1393.19	100.668
1394.77	100.164
1396.35	100.124
1397.93	99.6637
1399.51	99.5304
1401.08	100.331
1402.66	101.831
1404.24	104.597
1405.82	106.669
1407.4	109.751
1408.97	113.553
1410.55	119.472
1412.13	125.074
1413.71	130.413
1415.28	137.589
1416.86	143.973
1418.43	151.933
1420.01	160.976
1421.59	168.889
1423.16	178.817
1424.73	188.578
1426.31	197.376
1427.88	206.171
1429.46	216.058
1431.03	223.768
1432.6	233.048
1434.18	241.299
1435.75	249.159
1437.32	255.944
1438.89	262.794
1440.46	268.809
1442.04	273.795
1443.61	278.49
1445.18	281.818
1446.75	283.287
1448.32	284.592
1449.89	284.033
1451.46	281.542
1453.03	280.193
1454.6	277.546
1456.16	274.672
1457.73	270.877
1459.3	267.27
1460.87	261.834
1462.44	256.442
1464	248.316
1465.57	241.554
1467.14	233.61
1468.7	225.037
1470.27	216.258
1471.83	205.782
1473.4	197.694
1474.96	187.902
1476.53	178.659
1478.09	169.468
1479.66	159.748
1481.22	151.712
1482.78	143.415
1484.35	134.957
1485.91	127.352
1487.47	120.117
1489.04	113.963
1490.6	108.197
1492.16	101.728
1493.72	96.7429
1495.28	89.7657
1496.84	85.039
1498.4	80.6266
1499.96	76.6613
1501.52	72.7148
1503.08	68.6976
1504.64	64.4323
1506.2	61.1719
1507.76	58.4106
1509.32	54.6598
1510.88	52.7696
1512.44	49.0409
1513.99	46.3673
1515.55	44.3451
1517.11	41.447
1518.66	39.5183
1520.22	37.5173
1521.78	36.4495
1523.33	34.2667
1524.89	31.881
1526.44	31.5393
1528	30.4138
1529.55	30.6845
1531.11	31.4277
1532.66	32.3816
1534.21	33.6251
1535.77	34.6416
1537.32	37.2986
1538.87	38.1918
1540.43	40.1201
1541.98	41.5325
1543.53	44.2677
1545.08	45.8072
1546.63	46.8522
1548.18	48.158
1549.74	48.7195
1551.29	50.7349
1552.84	51.5307
1554.39	53.2256
1555.94	54.9861
1557.48	55.6775
1559.03	56.9465
1560.58	57.9947
1562.13	59.5846
1563.68	60.6608
1565.23	63.348
1566.78	65.54
1568.32	67.1732
1569.87	68.4881
1571.42	70.7256
1572.96	71.8918
1574.51	74.2256
1576.05	75.6889
1577.6	78.2023
1579.14	80.2307
1580.69	82.2346
1582.24	84.7302
1583.78	87.6384
1585.32	89.2789
1586.87	91.3084
1588.41	92.2675
1589.95	93.8084
1591.5	95.9549
1593.04	97.6777
1594.58	98.8781
1596.12	100.165
1597.67	100.272
1599.21	101.25
1600.75	102.016
1602.29	102.388
1603.83	102.308
1605.37	103.08
1606.91	104.385
1608.45	105.601
1609.99	106.846
1611.53	108.452
1613.07	108.771
1614.6	109.393
1616.14	109.399
1617.68	111.376
1619.22	111.153
1620.75	112.549
1622.29	113.51
1623.83	114.095
1625.37	115.193
1626.9	116.648
1628.44	118.898
1629.97	119.862
1631.51	120.952
1633.04	122.848
1634.58	123.775
1636.11	126.407
1637.65	128.159
1639.18	130.019
1640.72	132.194
1642.25	135.229
1643.78	137.651
1645.31	139.313
1646.85	140.952
1648.38	141.656
1649.91	143.507
1651.44	144.772
1652.97	145.844
1654.5	147.683
1656.03	147.434
1657.56	147.39
1659.1	147.471
1660.62	146.588
1662.15	145.118
1663.68	143.559
1665.21	141.469
1666.74	139.294
1668.27	136.788
1669.8	134.336
1671.32	131.157
1672.85	125.277
1674.38	121.4
1675.91	117.57
1677.43	112.421
1678.96	107.591
1680.49	103.486
1682.01	99.4952
1683.54	94.2028
1685.06	88.7952
1686.59	83.5851
1688.11	78.2722
1689.64	73.2169
1691.16	68.0324
1692.68	64.2477
1694.21	60.0565
1695.73	55.0148
1697.25	51.87
1698.78	47.6045
1700.3	44.1965
1701.82	41.2322
1703.34	39.8915
1704.86	37.6647
1706.39	34.7382
1707.91	32.8529
1709.43	30.4712
1710.95	28.7042
1712.47	26.772
1713.99	25.3085
1715.51	24.5791
1717.02	24.0485
1718.54	23.4641
1720.06	22.8132
1721.58	21.9001
1723.1	21.4802
1724.62	21.4994
1726.13	21.9559
1727.65	22.0764
1729.17	22.0989
1730.68	21.4826
1732.2	20.4296
1733.72	20.469
1735.23	19.7497
1736.75	19.3591
1738.26	19.3015
1739.78	18.5771
1741.29	18.4345
1742.81	18.1373
1744.32	17.1216
1745.84	16.2464
1747.35	15.0731
1748.86	13.7537
1750.37	14.0811
1751.89	13.2588
1753.4	12.36
1754.91	11.5017
1756.42	10.5601
1757.93	9.07002
1759.45	7.72633
1760.96	7.10024
1762.47	6.25494
1763.98	5.28938
1765.49	4.97632
1767	3.64462
1768.51	3.06909
1770.02	1.89573
1771.53	1.04558
1773.03	0.299929
1774.54	0.0502869
1776.05	-0.701294
1777.56	-1.03742
1779.07	-0.571319
1780.57	-1.27543
1782.08	-2.15467
1783.59	-1.84768
1785.09	-2.36704
1786.6	-1.78394
1788.11	-2.48798
1789.61	-1.81836
1791.12	-1.70973
1792.62	-1.40159
1794.13	-1.21327
1795.63	-1.24584
1797.13	-1.19847
1798.64	-0.84765
1800.14	-0.931148
1801.65	-1.18436
1803.15	-1.18951
1804.65	-0.992
1806.15	-0.673077
1807.66	-0.28668
1809.16	0.388299
1810.66	0.416216
1812.16	1.48666
1813.66	2.25155
1815.16	3.03725
1816.66	2.86968
1818.16	2.60844
1819.66	2.39206
1821.16	2.69591
1822.66	3.10581
1824.16	3.23078
1825.66	4.04184
1827.16	4.1738
1828.66	4.43303
1830.16	4.24783
1831.65	4.24221
1833.15	4.48154
1834.65	4.39747
1836.14	4.94045
1837.64	4.74066
1839.14	5.23797
1840.63	5.34225
1842.13	4.12291
1843.62	3.91472
1845.12	3.61367
1846.61	3.10655
1848.11	2.38932
1849.6	2.79704
1851.1	3.03734
1852.59	2.91137
1854.08	1.7938
1855.58	2.08346
1857.07	1.87809
1858.56	1.99962
1860.05	2.13419
1861.55	1.97586
1863.04	1.20566
1864.53	1.08041
1866.02	1.36212
1867.51	2.23937
1869	2.42401
1870.49	1.9766
1871.98	1.94146
1873.47	2.10954
1874.96	2.56688
1876.45	3.40351
1877.94	2.5809
1879.43	2.96924
1880.92	3.02533
1882.41	2.95645
1882.51	3.4417
1884	3.83371
1885.5	4.26866
1886.99	4.17184
1888.48	3.61089
1889.98	2.96167
1891.47	3.12984
1892.96	3.62988
1894.46	4.2266
1895.95	4.45837
1897.44	4.51494
1898.93	4.9169
1900.42	4.07341
1901.91	3.72628
1903.41	3.57433
1904.9	2.92062
1906.39	3.18759
1907.88	2.96497
1909.37	2.96943
1910.86	3.08498
1912.35	3.2434
1913.83	3.27874
1915.32	2.85959
1916.81	3.64308
1918.3	3.81318
1919.79	3.55531
1921.27	3.94512
1922.76	5.26717
1924.25	4.68988
1925.74	4.49144
1927.22	3.5136
1928.71	4.21956
1930.19	4.38333
1931.68	4.99359
1933.17	4.87594
1934.65	5.12206
1936.14	4.80426
1937.62	5.37395
1939.11	5.87088
1940.59	6.85516
1942.07	6.95172
1943.56	6.13142
1945.04	6.80833
1946.52	6.53333
1948.01	6.68188
1949.49	6.82301
1950.97	6.7628
1952.45	8.21271
1953.93	8.40633
1955.42	8.55504
1956.9	9.11216
1958.38	8.48759
1959.86	7.24766
1961.34	7.03336
1962.82	6.31511
1964.3	5.92561
1965.78	6.46806
1967.26	5.99311
1968.74	5.56039
1970.21	5.02982
1971.69	5.26047
1973.17	5.07362
1974.65	4.63083
1976.13	5.24699
1977.6	5.83271
1979.08	6.16235
1980.56	6.50046
1982.03	7.22257
1983.51	7.46398
1984.99	7.9981
1986.46	8.19705
1987.94	8.18011
1989.41	8.36174
1990.89	8.51085
1992.36	8.27529
1993.84	8.02483
1995.31	8.30336
1996.78	8.11619
1998.26	7.82597
1999.73	7.67464
2001.2	6.54689
2002.68	7.95827
2004.15	8.77911
2005.62	9.0457
2007.09	8.74491
2008.56	9.16273
2010.04	8.80751
2011.51	9.33898
2012.98	9.27145
2014.45	10.0682
2015.92	9.72449
2017.39	9.01726
2018.86	9.12867
2020.33	8.41479
2021.8	9.51408
2023.26	9.79408
2024.73	9.80995
2026.2	9.48343
2027.67	9.48758
2029.14	10.1263
2030.61	9.52922
2032.07	8.66826
2033.54	8.97397
2035.01	10.0487
2036.47	9.84264
2037.94	10.2384
2039.4	10.4496
2040.87	9.48304
2042.33	10.4344
2043.8	9.99982
2045.27	9.51373
2046.73	9.70301
2048.19	9.6526
2049.66	10.0433
2051.12	9.31603
2052.59	9.02708
2054.05	8.3296
2055.51	8.42428
2056.97	7.64132
2058.44	9.01129
2059.9	9.23211
2061.36	8.93575
2062.82	9.15321
2064.28	8.65401
2065.74	8.76376
2067.21	8.75108
2068.67	8.14482
2070.13	8.38751
2071.59	8.53496
2073.05	8.23862
2074.51	8.58979
2075.96	9.05553
2077.42	9.80987
2078.88	10.0585
2080.34	10.6518
2081.8	10.8482
2083.26	10.8185
2084.72	11.4686
2086.17	11.4315
2087.63	11.4751
2089.09	11.4423
2090.54	12.3631
2092	12.3107
2093.45	13.168
2094.91	14.6556
2096.37	15.4017
2097.82	16.04
2099.28	17.1787
2100.73	18.3164
2102.19	18.4973
2103.64	19.0466
2105.09	20.1977
2106.55	20.8167
2108	21.7899
2109.45	22.1681
2110.91	22.6558
2112.36	23.1573
2113.81	24.1596
2115.26	25.6353
2116.72	26.3508
2118.17	27.5574
2119.62	29.8716
2121.07	30.8884
2122.52	33.3609
2123.97	34.6478
2125.42	36.6248
2126.87	38.1299
2128.32	40.7037
2129.77	42.3582
2131.22	44.8051
2132.67	45.8715
2134.11	47.7434
2135.56	49.3438
2137.01	51.2154
2138.46	53.282
2139.91	55.0101
2141.35	57.0386
2142.8	59.3668
2144.25	61.567
2145.7	64.3687
2147.14	66.4764
2148.59	69.3955
2150.03	72.6511
2151.48	74.4967
2152.92	75.9789
2154.37	77.6936
2155.81	79.7732
2157.26	81.6535
2158.7	81.9722
2160.15	83.6452
2161.59	85.1025
2163.03	86.5129
2164.47	87.3187
2165.92	88.9896
2167.36	89.7893
2168.8	91.4375
2170.24	92.7894
2171.69	94.3248
2173.13	94.494
2174.57	93.5948
2176.01	94.2592
2177.45	93.4722
2178.89	92.6945
2180.33	92.3091
2181.77	91.6661
2183.21	91.0349
2184.65	90.6268
2186.09	89.57
2187.53	88.5468
2188.97	87.1418
2190.4	85.1107
2191.84	84.0726
2193.28	82.7255
2194.72	80.9074
2196.16	79.0151
2197.59	76.9248
2199.03	75.3286
2200.47	73.1786
2201.9	70.8461
2203.34	69.12
2204.77	67.2225
2206.21	64.3896
2207.64	62.1454
2209.08	60.547
2210.51	58.6105
2211.95	55.8547
2213.38	54.5363
2214.82	52.7112
2216.25	51.8558
2217.68	50.1796
2219.12	47.544
2220.55	46.2682
2221.98	44.4839
2223.41	42.7007
2224.85	41.2513
2226.28	39.942
2227.71	38.1945
2229.14	36.9418
2230.57	35.0132
2232	34.5619
2233.43	33.2178
2234.86	32.3815
2236.29	31.7402
2237.72	30.5946
2239.15	30.3445
2240.58	29.9447
2242.01	28.7766
2243.44	27.681
2244.87	26.0616
2246.29	25.4918
2247.72	25.3857
2249.15	24.8534
2250.58	24.4337
2252.01	24.1811
2253.43	24.3261
2254.86	23.5285
2256.29	22.4485
2257.71	21.375
2259.14	21.0449
2260.56	20.3519
2261.99	20.3185
2263.41	20.2232
2264.84	19.7145
2266.26	19.2194
2267.69	19.5541
2269.11	18.5517
2270.53	18.2258
2271.96	17.7291
2273.38	16.9723
2274.8	15.8412
2276.23	15.3309
2277.65	14.6075
2279.07	14.0502
2280.49	13.4818
2281.91	12.0977
2283.34	11.4253
2284.76	11.9383
2286.18	11.7256
2287.6	11.1739
2289.02	9.93719
2290.44	9.31355
2291.86	9.12853
2293.28	9.09663
2294.7	8.57362
2296.12	7.4938
2297.54	7.30825
2298.96	7.40354
2300.37	8.34213
2301.79	7.78838
2303.21	7.94526
2304.63	7.65806
2306.04	8.26949
2307.46	8.86222
2308.88	9.01354
2310.3	9.04606
2311.71	9.39305
2313.13	10.4362
2314.54	10.6412
2315.96	10.8355
2317.37	11.1884
2318.79	11.0783
2320.2	10.6457
2321.62	10.3077
2323.03	10.7543
2324.45	11.0785
2325.86	11.5426
2327.27	10.6523
2328.69	10.7216
2330.1	10.7744
2331.51	10.5798
2332.92	10.8022
2334.34	9.66918
2335.75	9.09082
2337.16	9.1994
2338.57	8.38513
2339.98	6.30853
2341.39	5.6209
2342.8	4.65017
2344.21	3.28392
2345.63	2.53859
2347.04	2.16433
2348.45	1.03923
2349.85	0.480974
2351.26	0.228766
2352.67	-0.840609
2354.08	-0.860343
2355.49	-1.11445
2356.9	-1.55882
2358.3	-2.7595
2359.71	-2.69256
2361.12	-3.5088
2362.53	-3.27592
2363.93	-2.7781
2365.34	-3.05746
2366.75	-2.78785
2368.15	-2.79496
2369.56	-2.96047
2370.97	-2.48936
2372.37	-3.58272
2373.77	-2.71905
2375.18	-2.3019
2376.59	-1.88781
2377.99	-1.1351
2379.39	-0.0389503
2380.8	0.979007
2382.2	2.25107
2383.6	2.32748
2385.01	3.08029
2386.41	3.75745
2387.81	3.78973
2389.21	4.12617
2390.62	4.14898
2392.02	5.85631
2393.42	6.46159
2394.82	6.40621
2396.22	6.44971
2397.62	5.32951
2399.02	5.78541
2400.42	6.76119
2401.82	7.57923
2403.22	7.38199
2404.62	7.65892
2406.02	8.11898
2407.42	8.16554
2408.82	7.01951
2410.22	7.19439
2411.62	8.31126
2413.01	8.69161
2414.41	9.29017
2415.81	9.42583
2417.21	9.06681
2418.6	8.77535
2420	9.07525
2421.4	9.05548
2422.79	9.09025
2424.19	10.2409
2425.59	10.9126
2426.98	10.6534
2428.38	10.752
2429.77	10.7805
2431.17	10.1353
2432.56	10.7893
2433.95	11.1473
2435.35	10.8887
2436.74	10.141
2438.14	9.833
2439.53	10.6883
2440.92	11.1327
2442.31	10.6828
2443.71	10.9114
2445.1	10.72
2446.49	10.798
2447.88	11.5444
2449.27	11.7657
2450.67	11.4826
2452.06	11.156
2453.45	11.5371
2454.84	11.9503
2456.23	11.1619
2457.62	10.7613
2459.01	10.5648
2460.4	10.6549
2461.79	11.1784
2463.18	10.3545
2464.57	9.95971
2465.95	9.87152
2467.34	9.93075
2468.73	10.6433
2470.12	10.9359
2471.5	10.0444
2472.89	9.53069
2474.28	9.57177
2475.67	8.89949
2477.05	8.83467
2478.44	8.36894
2479.82	8.78246
2481.21	8.75576
2482.6	8.59761
2483.98	8.75333
2485.37	7.96541
2486.75	7.5666
2488.13	7.16916
2489.52	7.43282
2490.9	7.42329
2492.29	7.95804
2493.67	8.13701
2495.05	7.34676
2496.44	7.26508
2497.82	7.47066
2499.2	6.57606
2500.58	6.89862
2501.97	7.46075
2503.35	6.59191
2504.73	5.501
2506.11	4.5169
2507.49	4.62706
2508.87	4.38803
2510.25	3.71886
2511.63	3.47629
2513.01	3.72505
2514.39	4.23763
2515.77	4.35812
2517.15	4.61103
2518.53	5.02199
2519.91	4.81599
2521.29	5.35557
2522.67	5.70602
2524.05	6.07309
2525.42	5.85429
2526.8	6.41868
2528.18	6.74805
2529.55	7.15752
2530.93	6.91808
2532.31	6.27546
2533.69	5.84888
2535.06	5.94754
2536.44	5.69769
2537.81	5.78992
2539.19	5.26124
2540.56	5.37226
2541.94	6.16254
2543.31	6.31457
2544.69	5.81736
2546.06	5.884
2547.44	5.52951
2548.81	5.78042
2550.18	6.24728
2551.56	5.77985
2552.93	5.71158
2554.3	4.8344
2555.67	4.68431
2557.04	5.26211
2558.42	6.36315
2559.79	6.15573
2561.16	6.55262
2562.53	6.23967
2563.9	5.78737
2565.27	6.24337
2566.64	5.78164
2568.01	5.57791
2569.38	5.7632
2570.75	5.12979
2572.12	4.86099
2573.49	5.90604
2574.86	6.42172
2576.23	6.3708
2577.6	7.14992
2578.97	7.12547
2580.33	7.75097
2581.7	8.14124
2583.07	8.40029
2584.44	9.63603
2585.8	9.42948
2587.17	10.2866
2588.54	10.3309
2589.9	11.2745
2591.27	10.9698
2592.64	10.637
2594	9.87894
2595.37	9.64993
2596.73	8.75054
2598.1	7.84791
2599.46	7.021
2600.83	6.69991
2602.19	6.30904
2603.55	5.45555
2604.92	5.32896
2606.28	5.13713
2607.64	4.3893
2609.01	4.17667
2610.37	4.05455
2611.73	3.54762
2613.09	3.46493
2614.46	4.00823
2615.82	4.07559
2617.18	3.68358
2618.54	4.01135
2619.9	4.1542
2621.26	5.06714
2622.62	5.40656
2623.98	6.18504
2625.34	6.78362
2626.7	6.65692
2628.06	6.83474
2629.42	7.34003
2630.78	7.95027
2632.14	7.92983
2633.5	9.00673
2634.86	9.37609
2636.21	10.0996
2637.57	10.8963
2638.93	12.3128
2640.29	13.852
2641.64	14.0926
2643	14.4142
2644.36	14.1815
2645.71	15.1098
2647.07	15.4962
2648.43	16.9771
2649.78	17.3324
2651.14	17.6562
2652.49	18.3328
2653.85	17.3161
2655.2	17.4491
2656.56	16.3496
2657.91	15.9381
2659.26	15.3419
2660.62	15.2419
2661.97	15.1328
2663.32	14.6624
2664.68	14.8653
2666.03	14.8409
2667.38	14.5339
2668.74	13.9957
2670.09	13.5856
2671.44	13.056
2672.79	13.5344
2674.14	13.2185
2675.49	12.8881
2676.84	13.0655
2678.19	13.2382
2679.54	13.3668
2680.89	13.6305
2682.24	13.8385
2683.59	14.5637
2684.94	14.6514
2686.29	15.2415
2687.64	14.9717
2688.99	15.4796
2690.34	15.0804
2691.69	15.672
2693.03	16.3821
2694.38	16.8129
2695.73	17.5927
2697.08	18.1533
2698.42	19.0828
2699.77	19.5287
2701.12	21.2651
2702.46	22.3153
2703.81	23.0975
2705.15	24.0058
2706.5	24.7486
2707.85	25.4632
2709.19	26.2399
2710.54	27.3798
2711.88	28.2869
2713.22	29.6925
2714.57	30.2549
2715.91	30.8878
2717.26	30.6281
2718.6	30.9666
2719.94	31.42
2721.29	31.6518
2722.63	31.4375
2723.97	31.7262
2725.31	32.1773
2726.66	32.1516
2728	32.2695
2729.34	31.9995
2730.68	31.6633
2732.02	31.6487
2733.36	31.0642
2734.7	30.5085
2736.04	29.9817
2737.38	29.804
2738.72	29.079
2740.06	28.2671
2741.4	27.3763
2742.74	26.2843
2744.08	25.3074
2745.42	24.087
2746.76	22.8577
2748.09	21.8377
2749.43	21.0273
2750.77	19.7261
2752.11	17.9846
2753.45	17.1429
2754.78	16.5631
2756.12	16.4645
2757.46	15.4528
2758.79	15.4268
2760.13	14.4904
2761.46	13.5102
2762.8	13.5219
2764.14	12.9571
2765.47	12.5069
2766.8	11.8618
2768.14	11.7709
2769.47	10.6373
2770.81	10.3382
2772.14	8.86736
2773.48	8.47041
2774.81	8.37763
2776.14	7.96945
2777.48	6.85931
2778.81	6.25205
2780.14	5.78643
2781.47	5.39827
2782.8	5.59474
2784.14	5.38684
2785.47	6.33311
2786.8	6.34641
2788.13	5.70561
2789.46	5.32499
2790.79	5.06351
2792.12	5.01058
2793.45	4.7018
2794.78	4.23536
2796.11	4.15099
2797.44	3.57104
2798.77	3.36039
2800.1	2.8148
2801.43	2.08535
2802.76	1.37087
2804.09	0.599089
2805.41	-0.0768497
2806.74	-1.0824
2808.07	-2.54965
2809.4	-3.87346
2810.72	-4.92137
2812.05	-5.10695
2813.38	-4.79675
2814.71	-3.42798
2816.03	-0.308703
2817.36	2.79972
2818.68	7.41435
2820.01	13.1978
2821.33	20.2993
2822.66	28.3032
2823.98	36.5006
2825.31	47.0253
2826.63	57.7038
2827.96	70.0085
2829.28	82.1494
2830.6	93.9984
2831.93	107.292
2833.25	121.077
2834.57	134.869
2835.9	149.134
2837.22	162.958
2838.54	176.692
2839.86	192.946
2841.18	207.598
2842.5	221.887
2843.83	236.843
2845.15	253.004
2846.47	268.594
2847.79	283.82
2849.11	299.959
2850.43	315.834
2851.75	332.133
2853.07	347.722
2854.39	363.742
2855.71	379.545
2857.03	394.593
2858.35	409.621
2859.66	422.522
2860.98	435.492
2862.3	447.458
2863.62	458.326
2864.94	468.847
2866.25	477.414
2867.57	485.282
2868.89	492.874
2870.2	498.628
2871.52	503.736
2872.84	508.982
2874.15	514.672
2875.47	520.225
2876.78	525.004
2878.1	528.937
2879.41	533.171
2880.73	539.028
2882.04	543.446
2883.36	548.469
2884.67	554.576
2885.99	559.718
2887.3	565.037
2888.61	569.56
2889.93	574.306
2891.24	579.732
2892.55	583.847
2893.86	587.876
2895.18	591.381
2896.49	595.502
2897.8	599.219
2899.11	603.268
2900.42	605.959
2901.73	610.852
2903.05	615.007
2904.36	620.804
2905.67	626.805
2906.98	632.152
2908.29	639.667
2909.6	648.757
2910.91	658.047
2912.21	667.33
2913.52	676.994
2914.83	687.887
2916.14	697.22
2917.45	706.819
2918.76	715.244
2920.07	722.684
2921.37	728.385
2922.68	734.074
2923.99	737.524
2925.29	740.172
2926.6	742.066
2927.91	742.101
2929.22	741.027
2930.52	738.246
2931.83	734.639
2933.13	731.044
2934.44	726.047
2935.74	719.5
2937.05	713.324
2938.35	706.655
2939.66	696.759
2940.96	685.328
2942.26	672.913
2943.57	660.282
2944.87	647.766
2946.18	634.908
2947.48	620.557
2948.78	607.037
2950.08	591.761
2951.39	575.765
2952.69	559.823
2953.99	543.444
2955.29	528.084
2956.59	511.699
2957.9	495.135
2959.2	479.526
2960.5	462.772
2961.8	446.735
2963.1	431.045
2964.4	417.195
2965.7	402.48
2967	390.121
2968.3	375.885
2969.6	363.314
2970.9	351.208
2972.19	339.258
2973.49	328.617
2974.79	317.536
2976.09	306.629
2977.39	295.409
2978.68	284.091
2979.98	272.466
2981.28	260.444
2982.58	249.058
2983.87	236.756
2985.17	225.177
2986.47	212.921
2987.76	201.647
2989.06	189.882
2990.35	178.64
2991.65	167.526
2992.94	156.656
2994.24	146.539
2995.53	136.963
2996.83	128.302
2998.12	119.373
2999.42	110.385
3000.71	102.126
3002	94.4109
3003.3	86.4132
3004.59	78.301
3005.88	71.5114
3007.18	65.2978
3008.47	59.5849
3009.76	53.5937
3011.05	48.6806
3012.34	43.5514
3013.64	38.5767
3014.93	34.1992
3016.22	29.9417
3017.51	25.6578
3018.8	22.5332
3020.09	20.117
3021.38	16.9099
3022.67	14.0168
3023.96	11.8016
3025.25	8.51991
3026.54	7.38877
3027.83	6.2526
3029.12	5.20135
3030.41	3.1633
3031.69	2.07683
3032.98	0.525139
3034.27	0.504978
3035.56	0.244228
3036.84	-0.132814
3038.13	0.66754
3039.42	1.08235
3040.71	1.23874
3041.99	0.96121
3043.28	1.40976
3044.57	0.960604
3045.85	1.46351
3047.14	1.54479
3048.42	1.46423
3049.71	2.03906
3050.99	1.87915
3052.28	2.54668
3053.56	3.39757
3054.85	3.42359
3056.13	3.62446
3057.41	3.98373
3058.7	4.31332
3059.98	4.02435
3061.26	4.17989
3062.55	4.17908
3063.83	4.62867
3065.11	5.29986
3066.39	5.91717
3067.68	6.25031
3068.96	6.59216
3070.24	7.10704
3071.52	6.73446
3072.8	6.12267
3074.08	5.27571
3075.36	5.18171
3076.65	4.81785
3077.93	4.07222
3079.21	3.9323
3080.49	3.34566
3081.77	2.98447
3083.04	2.69224
3084.32	2.19953
3085.6	1.76874
3086.88	1.92322
3088.16	2.12548
3089.44	2.07682
3090.72	2.43925
3091.99	2.57623
3093.27	2.14362
3094.55	2.88046
3095.83	3.87843
3097.1	5.32612
3098.38	6.68774
3099.66	7.68141
3100.93	8.78245
3102.21	9.98953
3103.49	11.0919
3104.76	12.417
3106.04	13.8814
3107.31	15.8928
3108.59	17.0855
3109.86	18.4658
3111.14	19.2588
3112.41	21.1113
3113.69	22.7519
3114.96	24.7748
3116.23	26.1247
3117.51	27.7086
3118.78	28.9909
3120.05	30.8765
3121.33	33.3259
3122.6	35.1773
3123.87	37.2942
3125.14	39.881
3126.41	42.6072
3127.69	45.0418
3128.96	47.2346
3130.23	49.2757
3131.5	51.3029
3132.77	53.0436
3134.04	54.7741
3135.31	55.9417
3136.58	58.1123
3137.85	60.0598
3139.12	62.1815
3140.39	64.3351
3141.66	66.0532
3142.93	68.2605
3144.2	70.3826
3145.47	72.8494
3146.74	75.5282
3148	77.817
3149.27	79.8418
