#Acq. time (s)=	45
#Accumulations=	2
#Range (cm-¹)=	200...3150
#Windows=	2
#Auto scanning=	Off
#Autofocus=	Off
#Macrospot=	Off
#AutoExposure=	Off
#Spike filter=	Multiple accum.
#Delay time (s)=	0
#Binning=	1
#Readout mode=	Signal
#DeNoise=	Off
#ICS correction=	On
#Dark correction=	Off
#Inst. Process=	Off
#Detector Gain=	Best Dynamic Range
#Detector ADC=	20 kHz       
#Detector temperature (°C)=	-69.85
#Instrument=	LabRAM HR Evol
#Detector=	Synapse
#Objective=	x50
#Grating=	600 gr/mm
#ND Filter=	100%
#Laser (nm)=	532 
#Hole=	100.021
#Range=	Auto
#Laser Pol.=	No
#Raman. Pol.=	No
#Laser Pol. (°)=	-0.0007625
#Raman Pol. (°)=	89.9995
#Collection=	Microscope
#StageXY=	Marzhauser
#StageZ=	Marzhauser
#X (µm)=	-6973.2
#Y (µm)=	2174.5
#Z (µm)=	-74.35
#Full time(mm:ss)=	3:19
#Project=	
#Sample=	
#Site=	
#Title=	Mb_20_23_05_2x_45s_532 nm_x50_100%_600 gr_mm
#Remark=	
#Date=	13.07.2022 13:17
#Acquired=	13.07.2022 13:17:21
#Base:Fit=	10.08.2022 10:29:19
#Base:Fit=	10.08.2022 10:29:37
#Base:Sub=	10.08.2022 10:31:46
#Filter:Polynom=	16.08.2022 10:13:29
#AxisType[0]=Intens
#AxisUnit[0]=Cnt
#AxisType[1]=Spectr
#AxisUnit[1]=1/cm
200.563	16.9629
202.377	17.509
204.194	16.5255
206.008	15.8289
207.821	16.0676
209.634	15.966
211.449	15.6649
213.262	15.5385
215.074	15.8809
216.885	16.8096
218.699	17.3386
220.51	16.6329
222.321	15.7798
224.131	16.229
225.941	15.9385
227.751	15.2906
229.562	15.4253
231.371	15.0785
233.18	14.1548
234.988	12.9333
236.796	11.643
238.603	10.7798
240.411	10.7342
242.219	10.0766
244.026	9.52759
245.832	9.73443
247.638	8.98712
249.443	8.40412
251.248	7.63317
253.053	7.8091
254.857	7.36958
256.661	7.66833
258.465	6.86559
260.268	7.4183
262.071	6.16402
263.874	6.49431
265.678	5.26234
267.48	6.25185
269.282	6.60197
271.083	6.04237
272.884	6.59924
274.684	7.65226
276.484	6.5221
278.284	6.32189
280.084	6.24835
281.883	6.86937
283.682	6.32093
285.48	6.5122
287.276	7.07512
289.074	7.58531
290.871	7.93592
292.668	7.27441
294.465	7.86329
296.261	9.00831
298.057	8.58768
299.853	10.7673
301.648	11.7676
303.443	13.1588
305.237	13.3968
307.032	13.9432
308.823	14.1414
310.617	14.3717
312.41	16.2381
314.203	17.3798
315.995	17.5168
317.788	18.4263
319.579	19.5035
321.369	19.0348
323.16	19.2788
324.951	20.2204
326.741	20.1273
328.531	20.7544
330.321	21.7733
332.108	22.3449
333.897	22.9303
335.686	23.7013
337.474	22.2266
339.26	22.2172
341.048	21.5041
342.835	21.0385
344.622	20.1298
346.406	19.5356
348.192	18.2584
349.978	17.9412
351.764	16.3686
353.547	16.0936
355.332	14.6183
357.116	15.1625
358.901	14.2597
360.682	12.7273
362.466	13.6025
364.249	13.3228
366.03	12.1476
367.812	11.9586
369.594	11.505
371.374	10.8996
373.155	9.92239
374.936	9.075
376.715	8.68544
378.495	7.8452
380.273	7.81382
382.053	7.06687
383.832	7.02772
385.609	6.50734
387.388	6.61738
389.164	7.66212
390.942	6.68341
392.72	7.01965
394.495	7.03288
396.272	7.90593
398.047	8.29728
399.823	8.45823
401.597	7.79188
403.372	7.50224
405.145	8.21268
406.92	8.96115
408.693	9.4315
410.467	9.01875
412.239	9.11891
414.012	9.50404
415.783	7.96359
417.556	8.58005
419.327	8.77161
421.099	8.57276
422.869	7.64751
424.64	7.34061
426.409	7.49906
428.18	7.96809
429.948	7.03104
431.718	7.11371
433.486	6.37132
435.253	5.24504
437.022	4.61552
438.789	4.66705
440.558	4.29186
442.324	4.47757
444.089	4.70517
445.857	5.49199
447.622	6.20245
449.386	6.72006
451.153	7.25162
452.917	7.28851
454.682	7.81222
456.446	7.85179
458.208	8.21769
459.973	8.14907
461.735	7.93557
463.497	8.25295
465.259	8.8981
467.022	8.73666
468.783	9.45036
470.544	9.62781
472.306	9.19353
474.066	11.0495
475.825	12.37
477.585	12.1619
479.346	13.434
481.104	14.891
482.862	15.4037
484.62	16.0856
486.38	16.7393
488.137	17.5704
489.894	18.5344
491.65	21.1619
493.407	22.6243
495.164	23.5121
496.92	24.2421
498.675	24.4895
500.43	25.0181
502.184	25.8843
503.939	26.0124
505.694	27.0319
507.448	28.3881
509.201	29.0375
510.954	28.8472
512.706	29.3939
514.459	28.8172
516.21	28.438
517.962	27.7561
519.715	28.4027
521.466	27.5094
523.216	26.5856
524.966	27.2543
526.716	27.2287
528.466	27.6378
530.215	27.4177
531.964	26.8432
533.712	26.646
535.46	25.1605
537.208	24.0779
538.955	23.005
540.703	22.5188
542.449	21.7209
544.196	20.1082
545.942	18.6479
547.688	17.7923
549.433	17.341
551.178	16.2214
552.923	15.6569
554.667	14.5851
556.412	14.5551
558.155	13.4295
559.899	12.4657
561.642	13.0527
563.385	12.3517
565.127	12.8348
566.867	13.0109
568.609	12.152
570.35	11.594
572.092	11.7694
573.832	11.6608
575.573	11.8571
577.313	12.0443
579.053	11.821
580.79	11.7408
582.529	10.6784
584.268	9.9643
586.006	8.66504
587.745	7.38865
589.482	7.0202
591.218	6.72197
592.955	6.37324
594.692	5.9881
596.428	4.98292
598.164	5.05748
599.898	5.25104
601.634	5.90089
603.369	7.05288
605.104	6.9046
606.836	8.07787
608.57	7.90903
610.304	8.68243
612.037	10.876
613.769	11.1129
615.501	11.9518
617.234	10.8864
618.966	11.9925
620.696	13.3144
622.427	12.8083
624.159	13.8004
625.887	14.384
627.618	16.3797
629.348	16.2161
631.076	16.7279
632.806	17.8208
634.535	18.7383
636.262	18.6131
637.99	19.036
639.716	20.607
641.444	21.446
643.172	22.074
644.897	21.7903
646.624	23.0455
648.348	23.6933
650.075	24.9642
651.801	25.5998
653.524	26.092
655.249	26.577
656.972	27.0174
658.697	28.2378
660.419	27.7288
662.143	28.0798
663.865	28.1841
665.588	27.8228
667.309	27.6753
669.032	26.7371
670.752	26.7908
672.474	25.7574
674.194	25.6125
675.915	25.3968
677.634	25.1518
679.355	24.7987
681.073	24.4437
682.793	24.5015
684.511	25.5442
686.23	25.9331
687.947	26.8635
689.664	26.3925
691.382	26.9452
693.098	27.4099
694.816	27.6113
696.531	28.3434
698.247	29.1068
699.963	29.3152
701.678	30.7454
703.392	30.9073
705.108	32.1015
706.821	31.6577
708.534	32.1803
710.249	33.1624
711.962	33.8354
713.674	33.9768
715.388	31.6667
717.099	32.3523
718.81	33.5266
720.523	33.7537
722.234	35.2936
723.944	35.7378
725.654	36.4427
727.365	36.2027
729.075	36.5343
730.784	37.1
732.492	38.4561
734.202	38.6796
735.91	38.6796
737.618	38.4029
739.325	39.2988
741.034	41.0728
742.741	43.2059
744.447	44.2445
746.153	44.8341
747.859	47.1071
749.564	48.5493
751.271	50.0272
752.976	50.5079
754.681	51.033
756.385	52.5302
758.088	52.8692
759.792	54.5614
761.495	56.8658
763.2	58.1715
764.902	59.4185
766.604	61.69
768.306	63.2668
770.008	65.5034
771.709	66.4452
773.41	68.0696
775.11	68.5822
776.811	70.027
778.51	71.4642
780.21	72.8544
781.909	75.7866
783.608	77.724
785.307	80.0853
787.005	80.4301
788.703	81.0006
790.401	81.8194
792.098	82.242
793.795	83.8469
795.492	84.0441
797.188	84.7127
798.884	84.9539
800.58	85.5328
802.276	87.3934
803.971	88.6895
805.665	88.5365
807.36	88.7801
809.054	87.4624
810.748	87.5891
812.441	85.8108
814.135	85.646
815.826	84.048
817.518	83.8745
819.21	83.3678
820.902	83.2895
822.594	83.7386
824.285	84.281
825.976	84.5905
827.665	82.8693
829.355	81.9403
831.045	82.9512
832.735	81.7402
834.424	81.2859
836.111	80.0146
837.8	78.2223
839.488	77.3482
841.177	77.0785
842.864	76.4158
844.55	76.6153
846.237	75.3169
847.924	73.3943
849.61	72.9834
851.295	72.5191
852.98	71.1202
854.666	69.6663
856.349	68.036
858.034	67.6785
859.719	66.7296
861.403	66.8484
863.085	67.3668
864.769	66.686
866.452	66.4894
868.133	65.4756
869.816	64.7748
871.498	63.5285
873.179	62.8194
874.86	61.7809
876.54	61.113
878.221	60.9886
879.902	60.4935
881.58	59.4132
883.26	58.9017
884.938	58.6623
886.618	57.8157
888.297	57.7347
889.974	57.0519
891.653	56.495
893.329	55.0416
895.007	54.2103
896.683	52.9488
898.36	53.8256
900.035	53.4268
901.712	54.145
903.387	53.3934
905.063	53.9762
906.737	53.8956
908.412	53.0965
910.085	52.9825
911.76	51.5559
913.433	52.2235
915.107	51.1238
916.779	49.4567
918.452	50.4048
920.124	49.2558
921.797	48.9901
923.467	49.4252
925.138	48.891
926.81	48.4827
928.48	46.8382
930.151	45.8936
931.82	45.4847
933.489	45.4605
935.16	45.7726
936.828	45.2441
938.496	44.5408
940.165	44.4302
941.833	44.3912
943.5	42.8917
945.168	41.5714
946.834	40.8599
948.5	39.0775
950.168	39.294
951.834	38.7462
953.499	38.3539
955.163	38.4915
956.83	37.6171
958.494	37.9288
960.158	37.1871
961.821	36.9419
963.487	36.8178
965.15	38.1523
966.812	38.8702
968.474	38.3591
970.138	38.5894
971.8	39.5335
973.461	39.2058
975.123	38.6941
976.783	38.3371
978.446	37.9887
980.106	38.2839
981.766	38.0941
983.425	38.2435
985.084	37.6529
986.743	37.1401
988.402	36.9777
990.06	35.3788
991.72	34.4125
993.378	34.1206
995.035	33.3173
996.692	33.5841
998.349	32.6528
1000.01	32.7166
1001.66	31.9422
1003.32	30.729
1004.97	31.1149
1006.63	30.4501
1008.28	29.9126
1009.94	29.7833
1011.59	29.6871
1013.25	30.7164
1014.9	30.7442
1016.55	31.5118
1018.21	30.8466
1019.86	30.615
1021.51	29.9569
1023.16	30.482
1024.81	31.0883
1026.47	31.5276
1028.12	32.2605
1029.77	33.8639
1031.42	34.8908
1033.07	37.0836
1034.72	37.1494
1036.37	38.8799
1038.02	40.0593
1039.67	40.3684
1041.31	40.8614
1042.96	40.5636
1044.61	41.3544
1046.26	42.8355
1047.91	43.4301
1049.55	42.5038
1051.2	42.0493
1052.84	42.0111
1054.49	41.9472
1056.14	40.8074
1057.78	40.3459
1059.43	39.8222
1061.07	39.2891
1062.72	38.9271
1064.36	38.7511
1066	39.4996
1067.65	38.123
1069.29	38.091
1070.93	37.062
1072.58	36.3155
1074.22	36.2918
1075.86	35.8673
1077.5	34.5881
1079.14	33.8563
1080.78	32.8848
1082.42	32.2867
1084.06	31.5751
1085.7	30.8005
1087.34	30.896
1088.98	29.9793
1090.62	30.2154
1092.26	29.3399
1093.9	29.8019
1095.54	30.1556
1097.17	29.5284
1098.81	30.1002
1100.45	29.2192
1102.09	29.8313
1103.72	29.2942
1105.36	29.2283
1106.99	29.0028
1108.63	28.7099
1110.27	29.0178
1111.9	29.3624
1113.53	28.58
1115.17	27.672
1116.8	26.1402
1118.43	25.5996
1120.07	24.8658
1121.7	23.8906
1123.33	23.0679
1124.97	22.3195
1126.6	22.5493
1128.23	21.6075
1129.86	19.6691
1131.49	19.2426
1133.12	18.3679
1134.75	18.0672
1136.38	17.3775
1138.01	15.0552
1139.64	15.0414
1141.27	14.4008
1142.9	14.1141
1144.53	14.3197
1146.16	14.1753
1147.78	12.9555
1149.41	11.4889
1151.04	10.8998
1152.67	9.27455
1154.29	8.4435
1155.92	8.42762
1157.54	7.27464
1159.17	6.13425
1160.8	6.65773
1162.42	6.3787
1164.05	6.22758
1165.67	5.79203
1167.29	5.81307
1168.92	6.99131
1170.54	7.62924
1172.16	8.24582
1173.79	7.72431
1175.41	8.14285
1177.03	7.56716
1178.65	6.56451
1180.28	6.71316
1181.9	5.69141
1183.52	5.76913
1185.14	5.16823
1186.76	5.09695
1188.38	4.84062
1190	4.4146
1191.62	4.52554
1193.24	4.0091
1194.86	3.99333
1196.47	4.87281
1198.09	5.04532
1199.71	5.77869
1201.33	6.74583
1202.95	7.23299
1204.56	7.89448
1206.18	8.50358
1207.8	8.89956
1209.41	8.73179
1211.03	9.34647
1212.64	10.5059
1214.26	10.8928
1215.87	11.7338
1217.49	11.2043
1219.1	12.2337
1220.71	14.4691
1222.33	14.5652
1223.94	15.0839
1225.55	16.1657
1227.16	16.3296
1228.78	16.9777
1230.39	18.2897
1232	19.3708
1233.61	20.2104
1235.22	21.0566
1236.83	23.603
1238.44	24.6219
1240.05	25.7302
1241.66	27.271
1243.27	27.4786
1244.88	28.2242
1246.49	27.9079
1248.1	27.9164
1249.71	27.4654
1251.32	27.4727
1252.92	27.256
1254.53	26.981
1256.14	27.3914
1257.74	26.9019
1259.35	27.0485
1260.96	28.0541
1262.56	28.2917
1264.17	29.1753
1265.77	30.2668
1267.38	31.6407
1268.98	32.7638
1270.59	34.2848
1272.19	35.779
1273.79	36.9825
1275.4	38.4853
1277	39.9665
1278.6	40.3145
1280.21	42.601
1281.81	44.2695
1283.41	45.5708
1285.01	46.6887
1286.61	48.147
1288.21	48.9516
1289.81	50.4898
1291.41	52.2782
1293.01	53.3934
1294.61	54.6113
1296.21	55.8424
1297.81	56.3613
1299.41	58.3857
1301.01	58.9515
1302.6	60.6303
1304.2	61.5042
1305.8	61.9142
1307.4	61.8238
1308.99	61.9848
1310.59	62.3013
1312.19	61.7842
1313.78	61.9767
1315.38	62.0871
1316.97	62.5128
1318.57	61.3325
1320.16	59.9858
1321.76	59.2776
1323.35	57.6962
1324.94	56.3765
1326.54	55.2909
1328.13	54.4198
1329.72	53.5655
1331.32	54.0836
1332.91	53.5448
1334.5	52.227
1336.09	50.9199
1337.68	49.4643
1339.27	49.5455
1340.87	48.6993
1342.45	48.0714
1344.04	47.9619
1345.64	47.4275
1347.22	46.6727
1348.81	45.4925
1350.4	44.1646
1351.99	43.6607
1353.58	42.5401
1355.17	41.7351
1356.75	41.9435
1358.34	41.458
1359.93	41.269
1361.51	40.4099
1363.1	39.0102
1364.69	38.8735
1366.27	39.0506
1367.86	38.5841
1369.44	39.194
1371.03	38.9509
1372.61	38.212
1374.2	38.3242
1375.78	37.2843
1377.37	36.6054
1378.95	36.7991
1380.53	35.9584
1382.11	36.2035
1383.7	34.972
1385.28	34.772
1386.86	35.3088
1388.44	35.7053
1390.02	35.2315
1391.6	35.2893
1393.19	35.121
1394.77	35.2346
1396.35	34.8444
1397.93	35.4814
1399.51	35.3634
1401.08	35.2082
1402.66	35.1806
1404.24	36.3878
1405.82	38.1481
1407.4	38.8774
1408.97	40.808
1410.55	42.8391
1412.13	43.3186
1413.71	45.1176
1415.28	47.599
1416.86	50.7396
1418.43	53.5461
1420.01	56.4339
1421.59	60.0774
1423.16	63.0225
1424.73	66.2435
1426.31	68.4138
1427.88	71.826
1429.46	75.6384
1431.03	79.5664
1432.6	82.22
1434.18	85.5677
1435.75	88.4459
1437.32	90.0878
1438.89	91.7287
1440.46	93.6787
1442.04	94.4832
1443.61	95.938
1445.18	96.3981
1446.75	97.0963
1448.32	97.3579
1449.89	96.5785
1451.46	96.0219
1453.03	94.7195
1454.6	93.7368
1456.16	93.7679
1457.73	92.4441
1459.3	90.3548
1460.87	88.9465
1462.44	86.1588
1464	83.2185
1465.57	80.2929
1467.14	76.1779
1468.7	72.443
1470.27	68.8019
1471.83	64.2875
1473.4	61.9026
1474.96	57.9606
1476.53	54.7364
1478.09	50.5606
1479.66	47.208
1481.22	44.7495
1482.78	42.6502
1484.35	39.6576
1485.91	36.8185
1487.47	34.6433
1489.04	31.9547
1490.6	29.8296
1492.16	28.3713
1493.72	26.0706
1495.28	24.722
1496.84	23.0259
1498.4	21.7177
1499.96	20.2518
1501.52	19.2323
1503.08	17.8129
1504.64	16.5516
1506.2	17.0813
1507.76	16.0298
1509.32	14.2744
1510.88	12.6166
1512.44	12.1385
1513.99	11.3497
1515.55	10.5062
1517.11	9.15851
1518.66	8.6424
1520.22	8.05166
1521.78	6.87317
1523.33	7.55646
1524.89	8.9076
1526.44	9.43652
1528	9.33664
1529.55	10.1854
1531.11	11.0632
1532.66	11.9064
1534.21	12.558
1535.77	12.6865
1537.32	13.147
1538.87	13.9128
1540.43	14.2237
1541.98	14.9595
1543.53	16.126
1545.08	16.4876
1546.63	17.3559
1548.18	18.4269
1549.74	20.1637
1551.29	21.3543
1552.84	21.8434
1554.39	22.1543
1555.94	23.1552
1557.48	24.6325
1559.03	25.7826
1560.58	26.5549
1562.13	27.7266
1563.68	28.9001
1565.23	29.2524
1566.78	29.4858
1568.32	30.6841
1569.87	31.3097
1571.42	31.4796
1572.96	32.5268
1574.51	32.987
1576.05	31.9011
1577.6	33.0155
1579.14	33.4344
1580.69	34.4377
1582.24	35.0538
1583.78	35.8214
1585.32	35.5866
1586.87	36.2594
1588.41	36.6077
1589.95	37.1987
1591.5	37.1765
1593.04	37.8785
1594.58	38.7895
1596.12	39.3633
1597.67	39.6099
1599.21	40.2201
1600.75	42.4056
1602.29	42.3014
1603.83	42.2612
1605.37	42.216
1606.91	42.6428
1608.45	42.7584
1609.99	41.8044
1611.53	41.9788
1613.07	41.0409
1614.6	40.7623
1616.14	41.113
1617.68	42.2626
1619.22	43.7586
1620.75	44.3467
1622.29	44.9897
1623.83	45.9926
1625.37	47.3456
1626.9	48.2986
1628.44	47.3976
1629.97	47.8596
1631.51	48.469
1633.04	50.0219
1634.58	50.8626
1636.11	52.2212
1637.65	52.8748
1639.18	53.475
1640.72	54.5489
1642.25	55.0896
1643.78	55.738
1645.31	57.246
1646.85	57.8674
1648.38	58.0315
1649.91	58.7451
1651.44	58.8227
1652.97	58.6718
1654.5	59.6749
1656.03	59.6772
1657.56	59.9803
1659.1	59.1077
1660.62	59.5001
1662.15	59.0044
1663.68	58.7028
1665.21	57.2709
1666.74	56.7713
1668.27	55.7287
1669.8	55.0275
1671.32	53.9072
1672.85	52.2108
1674.38	51.2169
1675.91	50.3058
1677.43	48.0318
1678.96	46.0069
1680.49	44.2357
1682.01	41.3261
1683.54	38.8816
1685.06	36.5539
1686.59	33.6381
1688.11	32.7303
1689.64	31.0534
1691.16	30.5143
1692.68	29.1331
1694.21	28.5457
1695.73	26.2389
1697.25	23.6103
1698.78	22.0552
1700.3	20.6338
1701.82	18.787
1703.34	16.6682
1704.86	14.7632
1706.39	14.5504
1707.91	13.843
1709.43	12.9691
1710.95	11.9676
1712.47	11.1925
1713.99	9.86429
1715.51	8.8412
1717.02	8.78778
1718.54	7.78629
1720.06	7.04505
1721.58	7.05975
1723.1	6.2752
1724.62	5.38805
1726.13	5.14163
1727.65	4.56405
1729.17	3.85111
1730.68	3.33971
1732.2	3.98836
1733.72	4.29997
1735.23	4.14824
1736.75	4.17976
1738.26	3.30605
1739.78	3.25904
1741.29	2.7928
1742.81	3.01822
1744.32	3.04019
1745.84	3.05217
1747.35	3.3879
1748.86	3.3073
1750.37	2.99564
1751.89	2.46833
1753.4	1.90489
1754.91	1.94283
1756.42	1.29195
1757.93	1.21614
1759.45	1.94474
1760.96	2.22875
1762.47	2.33006
1763.98	2.82862
1765.49	2.65614
1767	2.37457
1768.51	2.07663
1770.02	2.13366
1771.53	1.77708
1773.03	2.10708
1774.54	2.38749
1776.05	2.5932
1777.56	2.61058
1779.07	2.66648
1780.57	2.88129
1782.08	2.76522
1783.59	2.83395
1785.09	2.82543
1786.6	2.09419
1788.11	2.32625
1789.61	2.33802
1791.12	2.08065
1792.62	3.11586
1794.13	3.27913
1795.63	3.40193
1797.13	3.68645
1798.64	3.18482
1800.14	3.17789
1801.65	3.35537
1803.15	2.72957
1804.65	2.86175
1806.15	3.16362
1807.66	3.0304
1809.16	2.46262
1810.66	1.83877
1812.16	1.39635
1813.66	0.651349
1815.16	0.40768
1816.66	0.554489
1818.16	0.412877
1819.66	0.280471
1821.16	0.294
1822.66	0.450575
1824.16	0.224793
1825.66	-0.239557
1827.16	0.372327
1828.66	0.679076
1830.16	0.970674
1831.65	1.42458
1833.15	1.78533
1834.65	2.27552
1836.14	1.88228
1837.64	1.84185
1839.14	2.12483
1840.63	2.43597
1842.13	2.18111
1843.62	2.09288
1845.12	2.23115
1846.61	2.65776
1848.11	2.45009
1849.6	2.61834
1851.1	3.0894
1852.59	3.58681
1854.08	3.56224
1855.58	3.81679
1857.07	4.13479
1858.56	4.39769
1860.05	3.91873
1861.55	3.80623
1863.04	4.97416
1864.53	5.33761
1866.02	5.9004
1867.51	6.24698
1869	5.6551
1870.49	5.88059
1871.98	5.26974
1873.47	4.80003
1874.96	4.80656
1876.45	4.44916
1877.94	3.81203
1879.43	3.51306
1880.92	3.05245
1882.41	2.62036
1882.51	3.02918
1884	2.99267
1885.5	3.07939
1886.99	3.16704
1888.48	3.14469
1889.98	3.89971
1891.47	3.5045
1892.96	3.08642
1894.46	3.18245
1895.95	3.30274
1897.44	2.79905
1898.93	3.14011
1900.42	3.81473
1901.91	3.24948
1903.41	3.44403
1904.9	3.13763
1906.39	2.82407
1907.88	2.74267
1909.37	2.051
1910.86	1.69807
1912.35	1.56291
1913.83	1.17535
1915.32	1.33199
1916.81	1.47453
1918.3	1.66121
1919.79	1.44036
1921.27	1.27963
1922.76	1.73548
1924.25	1.95988
1925.74	2.0166
1927.22	1.62436
1928.71	1.79952
1930.19	1.61418
1931.68	1.52212
1933.17	1.12173
1934.65	1.70736
1936.14	2.50799
1937.62	2.73123
1939.11	2.94766
1940.59	2.44512
1942.07	2.54297
1943.56	2.71074
1945.04	2.23993
1946.52	2.71547
1948.01	3.28094
1949.49	3.32719
1950.97	3.32902
1952.45	3.9654
1953.93	4.37763
1955.42	4.85041
1956.9	5.31055
1958.38	4.70075
1959.86	4.7477
1961.34	4.76245
1962.82	4.51444
1964.3	4.68694
1965.78	4.16864
1967.26	4.34735
1968.74	4.73727
1970.21	4.54435
1971.69	4.66484
1973.17	4.91349
1974.65	4.3569
1976.13	3.8422
1977.6	3.94032
1979.08	3.5126
1980.56	4.27294
1982.03	4.61806
1983.51	4.64229
1984.99	5.11471
1986.46	5.96089
1987.94	5.92079
1989.41	5.99901
1990.89	5.44126
1992.36	5.04346
1993.84	5.43609
1995.31	4.82903
1996.78	4.84487
1998.26	4.50426
1999.73	4.20256
2001.2	3.87151
2002.68	3.66027
2004.15	3.77565
2005.62	3.81213
2007.09	3.87294
2008.56	4.75238
2010.04	4.85548
2011.51	4.76114
2012.98	4.7732
2014.45	4.51775
2015.92	5.47823
2017.39	6.06566
2018.86	6.04511
2020.33	5.95985
2021.8	5.27064
2023.26	5.45807
2024.73	5.71606
2026.2	6.12425
2027.67	5.86179
2029.14	5.39836
2030.61	5.15888
2032.07	5.03195
2033.54	5.13311
2035.01	5.47867
2036.47	5.1493
2037.94	4.99881
2039.4	4.78958
2040.87	4.6809
2042.33	4.06106
2043.8	4.21469
2045.27	4.32974
2046.73	4.22006
2048.19	4.69753
2049.66	4.7819
2051.12	5.37023
2052.59	5.65498
2054.05	6.19624
2055.51	5.87156
2056.97	5.59519
2058.44	5.88728
2059.9	5.40697
2061.36	4.25309
2062.82	4.19416
2064.28	4.18335
2065.74	4.09421
2067.21	4.05279
2068.67	3.10046
2070.13	3.91437
2071.59	4.26175
2073.05	4.71145
2074.51	4.87351
2075.96	5.37294
2077.42	5.46257
2078.88	5.82587
2080.34	6.62004
2081.8	7.65228
2083.26	7.64985
2084.72	7.74176
2086.17	8.09629
2087.63	8.98559
2089.09	9.30263
2090.54	9.34199
2092	9.44363
2093.45	9.61812
2094.91	10.2979
2096.37	11.7489
2097.82	12.3637
2099.28	12.5175
2100.73	12.8285
2102.19	13.0709
2103.64	14.0772
2105.09	14.6281
2106.55	14.4231
2108	14.9599
2109.45	15.0129
2110.91	15.2007
2112.36	15.4346
2113.81	16.2567
2115.26	17.7048
2116.72	18.5393
2118.17	18.2287
2119.62	17.8193
2121.07	18.3426
2122.52	18.3059
2123.97	18.4166
2125.42	18.5028
2126.87	18.4877
2128.32	18.6568
2129.77	19.2473
2131.22	19.8635
2132.67	19.8703
2134.11	19.5683
2135.56	20.1599
2137.01	20.804
2138.46	21.159
2139.91	21.9722
2141.35	22.4964
2142.8	24.0024
2144.25	23.8947
2145.7	24.0085
2147.14	24.4313
2148.59	24.8537
2150.03	25.6188
2151.48	27.0764
2152.92	26.9994
2154.37	27.4776
2155.81	27.6705
2157.26	28.125
2158.7	28.7308
2160.15	29.5916
2161.59	30.0783
2163.03	31.1049
2164.47	32.1912
2165.92	32.577
2167.36	33.2886
2168.8	34.0172
2170.24	34.4887
2171.69	34.4499
2173.13	35.7472
2174.57	35.7624
2176.01	36.2619
2177.45	36.5224
2178.89	36.9363
2180.33	37.3191
2181.77	37.3371
2183.21	36.9026
2184.65	37.095
2186.09	37.5094
2187.53	37.1589
2188.97	35.9965
2190.4	35.0489
2191.84	34.839
2193.28	34.7135
2194.72	33.3863
2196.16	32.5792
2197.59	31.9047
2199.03	31.2964
2200.47	29.9375
2201.9	29.4987
2203.34	28.0629
2204.77	26.8716
2206.21	24.925
2207.64	24.6776
2209.08	24.3261
2210.51	23.5092
2211.95	22.7955
2213.38	21.351
2214.82	20.4172
2216.25	18.7082
2217.68	17.9531
2219.12	16.8317
2220.55	16.2091
2221.98	15.4651
2223.41	14.5252
2224.85	13.7364
2226.28	13.2637
2227.71	12.5236
2229.14	11.9653
2230.57	11.247
2232	10.819
2233.43	10.1945
2234.86	9.52124
2236.29	9.16453
2237.72	8.41468
2239.15	8.28726
2240.58	7.97141
2242.01	7.54483
2243.44	7.24228
2244.87	7.12245
2246.29	6.36829
2247.72	6.1394
2249.15	6.26438
2250.58	5.86963
2252.01	5.38276
2253.43	5.23763
2254.86	5.20495
2256.29	5.34083
2257.71	5.24425
2259.14	4.82829
2260.56	4.98905
2261.99	4.63334
2263.41	4.62416
2264.84	4.60675
2266.26	4.98785
2267.69	5.16604
2269.11	4.96621
2270.53	5.10527
2271.96	4.88925
2273.38	5.15834
2274.8	4.72859
2276.23	4.34189
2277.65	3.93861
2279.07	5.04945
2280.49	5.66015
2281.91	5.57093
2283.34	5.49245
2284.76	5.25273
2286.18	5.69097
2287.6	5.50382
2289.02	5.18681
2290.44	5.58782
2291.86	5.64487
2293.28	5.02738
2294.7	4.99052
2296.12	4.91169
2297.54	4.43244
2298.96	4.79834
2300.37	4.66017
2301.79	4.63903
2303.21	5.02657
2304.63	5.06325
2306.04	5.28971
2307.46	4.92878
2308.88	4.5648
2310.3	4.31143
2311.71	3.85969
2313.13	3.50293
2314.54	3.49331
2315.96	4.10819
2317.37	4.3491
2318.79	4.36891
2320.2	4.58225
2321.62	4.28235
2323.03	4.32785
2324.45	4.74368
2325.86	4.94999
2327.27	4.69097
2328.69	4.94823
2330.1	5.11809
2331.51	5.28339
2332.92	4.7668
2334.34	4.60892
2335.75	4.71976
2337.16	4.73502
2338.57	3.78929
2339.98	4.04931
2341.39	3.77661
2342.8	2.82064
2344.21	1.80758
2345.63	1.95182
2347.04	1.92112
2348.45	2.37094
2349.85	2.6184
2351.26	2.39422
2352.67	1.80482
2354.08	1.61625
2355.49	0.978834
2356.9	0.770879
2358.3	0.359085
2359.71	0.262219
2361.12	0.083752
2362.53	-0.389126
2363.93	-0.358853
2365.34	-0.318231
2366.75	-0.0153221
2368.15	-0.470144
2369.56	0.132935
2370.97	0.711844
2372.37	0.887292
2373.77	0.453716
2375.18	0.369054
2376.59	0.229714
2377.99	0.160871
2379.39	0.26782
2380.8	0.0771187
2382.2	0.773958
2383.6	0.918872
2385.01	1.68359
2386.41	1.97664
2387.81	1.71654
2389.21	2.02598
2390.62	2.27037
2392.02	2.61085
2393.42	2.90958
2394.82	2.87365
2396.22	2.88915
2397.62	2.52588
2399.02	2.47015
2400.42	2.62146
2401.82	2.83117
2403.22	3.08592
2404.62	3.27476
2406.02	3.68378
2407.42	3.53795
2408.82	3.63447
2410.22	4.33651
2411.62	3.70916
2413.01	3.42211
2414.41	3.81134
2415.81	4.58606
2417.21	4.92292
2418.6	4.85957
2420	4.75143
2421.4	5.00053
2422.79	5.09107
2424.19	4.684
2425.59	4.58796
2426.98	5.04495
2428.38	5.14479
2429.77	5.06352
2431.17	4.78608
2432.56	4.88175
2433.95	4.64804
2435.35	4.37777
2436.74	4.72545
2438.14	3.94776
2439.53	4.70987
2440.92	4.06592
2442.31	3.20873
2443.71	2.65341
2445.1	2.36729
2446.49	2.20435
2447.88	2.3011
2449.27	2.19597
2450.67	2.65677
2452.06	3.1954
2453.45	2.98083
2454.84	3.15636
2456.23	2.44523
2457.62	2.64172
2459.01	2.0453
2460.4	1.89505
2461.79	2.32583
2463.18	2.04473
2464.57	2.40631
2465.95	2.67004
2467.34	2.44283
2468.73	1.91783
2470.12	2.62563
2471.5	2.33334
2472.89	1.82453
2474.28	1.55236
2475.67	1.59558
2477.05	1.9381
2478.44	1.82857
2479.82	1.42571
2481.21	1.14688
2482.6	1.45184
2483.98	1.57101
2485.37	1.32429
2486.75	1.2603
2488.13	0.740261
2489.52	0.560446
2490.9	1.09071
2492.29	1.18818
2493.67	1.40572
2495.05	2.19172
2496.44	2.91114
2497.82	2.56561
2499.2	2.18553
2500.58	1.95146
2501.97	2.03989
2503.35	1.55554
2504.73	1.65738
2506.11	1.86248
2507.49	1.58295
2508.87	2.30048
2510.25	2.28088
2511.63	3.07284
2513.01	3.05683
2514.39	3.61777
2515.77	3.86606
2517.15	4.03489
2518.53	3.57761
2519.91	4.01152
2521.29	3.78407
2522.67	4.02568
2524.05	3.72699
2525.42	3.33053
2526.8	4.05269
2528.18	4.30779
2529.55	4.77265
2530.93	4.68115
2532.31	3.68509
2533.69	3.63092
2535.06	3.19295
2536.44	3.36016
2537.81	3.73674
2539.19	3.86625
2540.56	3.68834
2541.94	3.54367
2543.31	3.58518
2544.69	3.47155
2546.06	3.60874
2547.44	2.93387
2548.81	2.84483
2550.18	3.15765
2551.56	2.98109
2552.93	3.09649
2554.3	3.46932
2555.67	4.0397
2557.04	4.6626
2558.42	5.54403
2559.79	5.99021
2561.16	6.18588
2562.53	5.8998
2563.9	6.09796
2565.27	5.66671
2566.64	5.04931
2568.01	5.66812
2569.38	6.30757
2570.75	6.3244
2572.12	6.49805
2573.49	6.61231
2574.86	6.67289
2576.23	6.90108
2577.6	7.11672
2578.97	7.0062
2580.33	6.57666
2581.7	6.44848
2583.07	6.75866
2584.44	5.88534
2585.8	5.78457
2587.17	5.41543
2588.54	6.13113
2589.9	5.64136
2591.27	5.48657
2592.64	5.6801
2594	5.81119
2595.37	6.12578
2596.73	6.00096
2598.1	5.44626
2599.46	5.71774
2600.83	5.90689
2602.19	6.20872
2603.55	6.85544
2604.92	7.18019
2606.28	7.6827
2607.64	7.24459
2609.01	7.50568
2610.37	7.47389
2611.73	7.69218
2613.09	7.74195
2614.46	8.03368
2615.82	7.78651
2617.18	8.52289
2618.54	9.14153
2619.9	8.98667
2621.26	9.32347
2622.62	9.4683
2623.98	9.04508
2625.34	9.47486
2626.7	9.25633
2628.06	8.90765
2629.42	8.75394
2630.78	8.72635
2632.14	8.91701
2633.5	8.54671
2634.86	8.5868
2636.21	8.9454
2637.57	8.60694
2638.93	8.32536
2640.29	8.62109
2641.64	8.5695
2643	8.82241
2644.36	9.54486
2645.71	9.81826
2647.07	9.97156
2648.43	9.57153
2649.78	9.50296
2651.14	9.34563
2652.49	8.9243
2653.85	9.05229
2655.2	9.47849
2656.56	9.74411
2657.91	9.83305
2659.26	10.1045
2660.62	10.3109
2661.97	10.1066
2663.32	10.3812
2664.68	10.4537
2666.03	9.97186
2667.38	10.3014
2668.74	10.5507
2670.09	10.7852
2671.44	11.4621
2672.79	11.6309
2674.14	12.2333
2675.49	12.3656
2676.84	12.3135
2678.19	12.0446
2679.54	12.0059
2680.89	11.4892
2682.24	11.3033
2683.59	11.0095
2684.94	11.4066
2686.29	11.7342
2687.64	11.429
2688.99	11.2471
2690.34	11.464
2691.69	11.42
2693.03	11.5967
2694.38	11.0265
2695.73	10.7944
2697.08	10.7643
2698.42	11.0178
2699.77	10.938
2701.12	11.4287
2702.46	12.0382
2703.81	12.3046
2705.15	13.2016
2706.5	14.3662
2707.85	14.9739
2709.19	15.5016
2710.54	15.6522
2711.88	16.3787
2713.22	16.5795
2714.57	16.3038
2715.91	16.3186
2717.26	16.5287
2718.6	16.7333
2719.94	16.8717
2721.29	17.358
2722.63	17.9326
2723.97	18.1248
2725.31	18.0847
2726.66	17.7985
2728	18.2058
2729.34	18.4942
2730.68	18.3718
2732.02	18.0525
2733.36	17.773
2734.7	18.3098
2736.04	18.2629
2737.38	17.9805
2738.72	17.3872
2740.06	16.6577
2741.4	16.1615
2742.74	15.4354
2744.08	14.4476
2745.42	14.2299
2746.76	14.2224
2748.09	13.7576
2749.43	13.6049
2750.77	13.4195
2752.11	13.31
2753.45	13.3564
2754.78	12.6949
2756.12	12.3173
2757.46	12.3296
2758.79	12.1186
2760.13	12.213
2761.46	11.8159
2762.8	11.9757
2764.14	11.7357
2765.47	11.219
2766.8	10.8871
2768.14	10.9858
2769.47	10.2105
2770.81	9.85091
2772.14	9.84675
2773.48	9.79512
2774.81	9.23969
2776.14	9.11936
2777.48	8.70337
2778.81	9.10819
2780.14	8.95586
2781.47	8.40651
2782.8	8.74281
2784.14	8.20825
2785.47	9.02854
2786.8	9.25468
2788.13	8.92253
2789.46	9.15095
2790.79	8.74426
2792.12	8.54639
2793.45	8.1119
2794.78	8.04169
2796.11	7.30381
2797.44	7.82455
2798.77	7.6311
2800.1	7.44325
2801.43	7.81194
2802.76	7.6741
2804.09	7.01752
2805.41	6.28408
2806.74	5.69879
2808.07	5.65744
2809.4	5.67369
2810.72	5.99865
2812.05	5.79029
2813.38	5.00517
2814.71	5.39024
2816.03	6.2197
2817.36	7.27465
2818.68	8.53976
2820.01	10.1948
2821.33	11.9299
2822.66	14.0039
2823.98	16.0543
2825.31	18.2823
2826.63	21.0542
2827.96	22.703
2829.28	25.1314
2830.6	27.4213
2831.93	30.6359
2833.25	34.9396
2834.57	38.8479
2835.9	42.1992
2837.22	46.3186
2838.54	51.0289
2839.86	55.1884
2841.18	60.166
2842.5	64.6511
2843.83	69.0621
2845.15	73.9757
2846.47	77.8164
2847.79	82.6159
2849.11	88.0915
2850.43	92.5378
2851.75	97.8971
2853.07	102.19
2854.39	106.463
2855.71	111.48
2857.03	115.792
2858.35	120.266
2859.66	124.032
2860.98	128.197
2862.3	131.981
2863.62	136.14
2864.94	138.659
2866.25	141.992
2867.57	145.23
2868.89	147.023
2870.2	148.529
2871.52	150.91
2872.84	153.168
2874.15	154.979
2875.47	156.381
2876.78	158.373
2878.1	159.64
2879.41	161.79
2880.73	164.468
2882.04	166.102
2883.36	168.078
2884.67	170.427
2885.99	171.837
2887.3	173.397
2888.61	174.954
2889.93	176.234
2891.24	178.173
2892.55	179.883
2893.86	181.053
2895.18	183.061
2896.49	185.534
2897.8	187.712
2899.11	189.363
2900.42	191.483
2901.73	194.182
2903.05	196.721
2904.36	199.938
2905.67	202.285
2906.98	206.671
2908.29	209.364
2909.6	211.949
2910.91	215.585
2912.21	218.928
2913.52	223.446
2914.83	226.931
2916.14	229.603
2917.45	232.939
2918.76	235.303
2920.07	237.854
2921.37	240.217
2922.68	242.324
2923.99	243.599
2925.29	245.105
2926.6	246.447
2927.91	247.35
2929.22	248.413
2930.52	247.711
2931.83	247.854
2933.13	247.469
2934.44	246.231
2935.74	245.375
2937.05	244.192
2938.35	241.895
2939.66	238.758
2940.96	236.144
2942.26	234.084
2943.57	230.581
2944.87	226.735
2946.18	222.807
2947.48	218.339
2948.78	214.232
2950.08	209.401
2951.39	203.692
2952.69	199.326
2953.99	194.819
2955.29	190.262
2956.59	186.024
2957.9	180.358
2959.2	175.194
2960.5	170.399
2961.8	165.963
2963.1	161.477
2964.4	157.199
2965.7	154.136
2967	150.238
2968.3	145.852
2969.6	142.532
2970.9	138.779
2972.19	134.869
2973.49	130.377
2974.79	126.487
2976.09	123.407
2977.39	119.509
2978.68	115.741
2979.98	111.246
2981.28	106.741
2982.58	102.721
2983.87	98.4794
2985.17	94.9427
2986.47	90.6178
2987.76	86.5438
2989.06	82.0881
2990.35	77.9244
2991.65	74.0225
2992.94	70.2738
2994.24	66.3883
2995.53	62.0265
2996.83	59.0957
2998.12	55.4677
2999.42	51.736
3000.71	47.8727
3002	44.6466
3003.3	40.8201
3004.59	37.6283
3005.88	34.7062
3007.18	31.8922
3008.47	28.4877
3009.76	25.2064
3011.05	22.8519
3012.34	20.2837
3013.64	18.4458
3014.93	16.0191
3016.22	14.4149
3017.51	13.2174
3018.8	11.6056
3020.09	10.5684
3021.38	9.42061
3022.67	8.10659
3023.96	7.89987
3025.25	7.52077
3026.54	7.0051
3027.83	6.39406
3029.12	5.61303
3030.41	5.76994
3031.69	5.03484
3032.98	3.93259
3034.27	4.28077
3035.56	3.43063
3036.84	3.288
3038.13	3.60125
3039.42	3.45202
3040.71	3.23209
3041.99	3.37076
3043.28	3.41739
3044.57	2.95984
3045.85	2.91061
3047.14	3.38208
3048.42	3.31875
3049.71	3.59871
3050.99	2.97855
3052.28	2.62218
3053.56	2.52766
3054.85	2.78405
3056.13	3.06142
3057.41	3.06286
3058.7	2.46406
3059.98	2.23824
3061.26	2.50692
3062.55	2.62267
3063.83	2.16009
3065.11	2.06552
3066.39	1.87517
3067.68	1.44431
3068.96	1.63787
3070.24	1.19855
3071.52	0.696761
3072.8	0.666058
3074.08	0.0508372
3075.36	0.304923
3076.65	0.348671
3077.93	0.472573
3079.21	0.552094
3080.49	1.2333
3081.77	1.39609
3083.04	1.52635
3084.32	2.04344
3085.6	2.2528
3086.88	2.156
3088.16	2.24093
3089.44	1.61083
3090.72	1.4781
3091.99	1.44612
3093.27	1.51768
3094.55	1.39057
3095.83	1.47486
3097.1	1.68944
3098.38	1.94404
3099.66	1.97836
3100.93	2.43308
3102.21	2.69091
3103.49	2.84793
3104.76	3.63462
3106.04	3.89152
3107.31	4.14696
3108.59	4.4016
3109.86	4.62185
3111.14	5.1068
3112.41	5.89125
3113.69	6.67364
3114.96	6.92564
3116.23	7.37276
3117.51	7.74252
3118.78	8.38236
3120.05	8.86587
3121.33	9.4215
3122.6	9.70126
3123.87	10.3695
3125.14	11.2114
3126.41	11.3067
3127.69	11.2162
3128.96	11.8344
3130.23	12.0121
3131.5	12.8255
3132.77	13.224
3134.04	13.3019
3135.31	13.7401
3136.58	14.636
3137.85	14.9528
3139.12	15.964
3140.39	16.6198
3141.66	17.2609
3142.93	17.6521
3144.2	17.6954
3145.47	17.5683
3146.74	17.3247
3148	16.7529
3149.27	16.2332
