#Acq. time (s)=	45
#Accumulations=	2
#Range (cm-¹)=	200...3150
#Windows=	2
#Auto scanning=	Off
#Autofocus=	Off
#Macrospot=	Off
#AutoExposure=	Off
#Spike filter=	Multiple accum.
#Delay time (s)=	0
#Binning=	1
#Readout mode=	Signal
#DeNoise=	Off
#ICS correction=	On
#Dark correction=	Off
#Inst. Process=	Off
#Detector Gain=	Best Dynamic Range
#Detector ADC=	20 kHz       
#Detector temperature (°C)=	-69.85
#Instrument=	LabRAM HR Evol
#Detector=	Synapse
#Objective=	x100
#Grating=	600 gr/mm
#ND Filter=	100%
#Laser (nm)=	532 
#Hole=	100.021
#Range=	Auto
#Laser Pol.=	No
#Raman. Pol.=	No
#Laser Pol. (°)=	-0.0007625
#Raman Pol. (°)=	89.9995
#Collection=	Microscope
#StageXY=	Marzhauser
#StageZ=	Marzhauser
#X (µm)=	-6915.9
#Y (µm)=	2007
#Z (µm)=	-75.4
#Full time(mm:ss)=	3:19
#Project=	
#Sample=	
#Site=	
#Title=	Mb_20_23_30_2x_45s_532 nm_x100_100%_600 gr_mm
#Remark=	
#Date=	13.07.2022 15:30
#Acquired=	13.07.2022 15:30:31
#Edit:Spike=	13.07.2022 15:32:26
#Base:Fit=	10.08.2022 10:29:37
#Base:Sub=	10.08.2022 10:33:46
#Filter:Polynom=	16.08.2022 10:13:29
#AxisType[0]=Intens
#AxisUnit[0]=Cnt
#AxisType[1]=Spectr
#AxisUnit[1]=1/cm
200.563	36.2734
202.377	37.2289
204.194	34.5636
206.008	30.4794
207.821	27.039
209.634	24.1771
211.449	21.8129
213.262	20.1397
215.074	19.863
216.885	17.8312
218.699	16.6944
220.51	16.308
222.321	15.3334
224.131	14.6984
225.941	14.8712
227.751	13.9974
229.562	13.9009
231.371	13.904
233.18	11.9181
234.988	10.5119
236.796	10.9697
238.603	10.0628
240.411	8.70776
242.219	8.54251
244.026	8.91921
245.832	9.06833
247.638	8.58568
249.443	8.90575
251.248	8.93192
253.053	9.33238
254.857	9.86923
256.661	8.78172
258.465	7.47905
260.268	7.7117
262.071	8.13879
263.874	8.32427
265.678	9.75433
267.48	8.60262
269.282	9.30321
271.083	8.44066
272.884	8.81843
274.684	8.76242
276.484	8.20375
278.284	9.11859
280.084	8.83888
281.883	7.55597
283.682	5.83578
285.48	5.36302
287.276	4.32938
289.074	5.81284
290.871	5.52316
292.668	4.91483
294.465	6.05192
296.261	6.66467
298.057	7.97137
299.853	8.83357
301.648	9.9504
303.443	11.1887
305.237	11.6757
307.032	10.6314
308.823	12.4114
310.617	12.5332
312.41	12.4699
314.203	13.5087
315.995	14.0011
317.788	14.0103
319.579	16.2997
321.369	15.9654
323.16	15.8381
324.951	16.3081
326.741	17.1606
328.531	17.0012
330.321	17.4145
332.108	18.7681
333.897	19.5899
335.686	19.5692
337.474	19.7681
339.26	19.9614
341.048	18.431
342.835	17.5456
344.622	17.287
346.406	17.5042
348.192	17.2596
349.978	16.5482
351.764	16.0288
353.547	15.8169
355.332	13.7205
357.116	11.8613
358.901	11.2832
360.682	9.9656
362.466	10.2008
364.249	8.86172
366.03	8.4968
367.812	7.64366
369.594	7.24024
371.374	5.94513
373.155	6.04986
374.936	6.10643
376.715	5.57314
378.495	7.29893
380.273	6.82178
382.053	6.90273
383.832	6.78295
385.609	7.21894
387.388	9.41215
389.164	9.76617
390.942	11.0053
392.72	10.7187
394.495	9.8783
396.272	11.2044
398.047	12.5901
399.823	12.0014
401.597	11.9414
403.372	13.5615
405.145	13.8934
406.92	15.8167
408.693	16.962
410.467	16.5645
412.239	17.1695
414.012	16.7367
415.783	18.1262
417.556	19.2728
419.327	19.3294
421.099	20.0467
422.869	20.3614
424.64	20.361
426.409	19.7203
428.18	18.1222
429.948	17.0195
431.718	16.7311
433.486	16.2777
435.253	14.5595
437.022	13.1533
438.789	10.6178
440.558	10.181
442.324	9.32954
444.089	7.92728
445.857	7.95419
447.622	7.8744
449.386	8.14658
451.153	8.51261
452.917	7.90186
454.682	8.10996
456.446	7.74048
458.208	8.64516
459.973	8.76264
461.735	9.08432
463.497	9.17877
465.259	9.9726
467.022	12.4917
468.783	12.7786
470.544	12.9019
472.306	13.758
474.066	15.0553
475.825	16.5223
477.585	17.8908
479.346	18.6782
481.104	18.0739
482.862	18.5165
484.62	20.4447
486.38	21.1779
488.137	21.843
489.894	22.7421
491.65	24.5003
493.407	25.7256
495.164	27.7426
496.92	28.887
498.675	30.0684
500.43	31.2705
502.184	32.7065
503.939	34.0466
505.694	34.5723
507.448	35.3221
509.201	36.5629
510.954	36.9376
512.706	37.0245
514.459	36.938
516.21	38.0383
517.962	38.7502
519.715	37.385
521.466	36.4126
523.216	36.2249
524.966	36.6304
526.716	35.7709
528.466	35.7137
530.215	35.8047
531.964	36.6641
533.712	36.4863
535.46	36.0505
537.208	35.0237
538.955	33.899
540.703	32.6641
542.449	32.3518
544.196	32.4885
545.942	31.1613
547.688	29.3553
549.433	27.8681
551.178	28.1333
552.923	27.5282
554.667	26.7478
556.412	25.0518
558.155	24.5661
559.899	23.4969
561.642	22.6189
563.385	21.899
565.127	20.4862
566.867	17.0933
568.609	15.1538
570.35	14.8388
572.092	14.1215
573.832	12.9456
575.573	11.2207
577.313	9.34636
579.053	8.64077
580.79	8.93009
582.529	9.10931
584.268	8.76495
586.006	8.604
587.745	7.90117
589.482	7.18956
591.218	6.64779
592.955	7.44486
594.692	8.59683
596.428	8.46851
598.164	8.54306
599.898	8.30875
601.634	8.47227
603.369	9.04503
605.104	7.83789
606.836	7.42968
608.57	8.86236
610.304	9.52758
612.037	8.51011
613.769	8.87232
615.501	8.92748
617.234	9.41293
618.966	9.58514
620.696	9.02481
622.427	8.48585
624.159	8.66463
625.887	10.6472
627.618	10.8102
629.348	11.9256
631.076	11.5254
632.806	11.8052
634.535	12.9395
636.262	14.1005
637.99	15.3339
639.716	14.3118
641.444	14.7434
643.172	14.1867
644.897	13.5152
646.624	13.2507
648.348	13.9064
650.075	13.9288
651.801	13.1191
653.524	13.5401
655.249	13.8255
656.972	14.1874
658.697	13.2382
660.419	12.7024
662.143	12.3664
663.865	12.0539
665.588	12.1607
667.309	13.2562
669.032	13.2598
670.752	12.712
672.474	12.4534
674.194	12.3447
675.915	12.8366
677.634	13.8895
679.355	15.2272
681.073	15.5186
682.793	15.3321
684.511	16.4324
686.23	17.5667
687.947	18.6291
689.664	19.823
691.382	19.9183
693.098	20.5917
694.816	21.3216
696.531	22.3645
698.247	23.085
699.963	24.653
701.678	25.0521
703.392	26.5986
705.108	27.8302
706.821	28.4581
708.534	30.024
710.249	31.7618
711.962	33.624
713.674	33.9382
715.388	34.672
717.099	34.4497
718.81	35.4286
720.523	35.5489
722.234	35.0452
723.944	34.9213
725.654	34.8275
727.365	35.8244
729.075	37.036
730.784	38.119
732.492	39.2904
734.202	39.9854
735.91	38.9166
737.618	38.8795
739.325	39.439
741.034	38.5412
742.741	39.2808
744.447	38.5097
746.153	39.3173
747.859	39.9367
749.564	41.2961
751.271	42.1875
752.976	44.098
754.681	45.1367
756.385	47.2136
758.088	49.4716
759.792	50.6682
761.495	52.148
763.2	53.9074
764.902	55.1138
766.604	55.481
768.306	57.4516
770.008	58.9289
771.709	60.7928
773.41	62.0158
775.11	64.366
776.811	66.2
778.51	68.6553
780.21	69.9979
781.909	71.3362
783.608	72.1297
785.307	74.2032
787.005	75.1909
788.703	77.0303
790.401	78.1096
792.098	79.7326
793.795	80.4256
795.492	80.6305
797.188	81.9442
798.884	82.084
800.58	81.9162
802.276	82.0259
803.971	82.5275
805.665	83.0427
807.36	83.2408
809.054	84.1316
810.748	84.6891
812.441	84.9917
814.135	85.5157
815.826	84.9876
817.518	84.6805
819.21	83.8781
820.902	83.8853
822.594	85.8793
824.285	86.9327
825.976	86.982
827.665	86.9053
829.355	86.4217
831.045	87.1839
832.735	87.8597
834.424	88.5231
836.111	88.1013
837.8	88.8525
839.488	88.7664
841.177	88.5449
842.864	87.3955
844.55	84.5774
846.237	83.4617
847.924	82.3094
849.61	81.8311
851.295	80.8944
852.98	80.2996
854.666	79.7264
856.349	79.7553
858.034	79.0954
859.719	78.3386
861.403	76.3596
863.085	75.1473
864.769	73.1162
866.452	71.7352
868.133	70.1045
869.816	69.4795
871.498	67.6776
873.179	67.01
874.86	64.9596
876.54	62.4249
878.221	60.9256
879.902	60.7664
881.58	60.2205
883.26	59.33
884.938	58.9661
886.618	58.0541
888.297	57.3923
889.974	57.3635
891.653	55.936
893.329	55.5838
895.007	55.4199
896.683	55.7334
898.36	56.3119
900.035	56.48
901.712	56.3368
903.387	56.6229
905.063	57.3329
906.737	58.4279
908.412	56.8049
910.085	55.5581
911.76	55.3704
913.433	56.293
915.107	56.6725
916.779	56.3265
918.452	55.6938
920.124	55.1043
921.797	55.2769
923.467	53.7984
925.138	53.0086
926.81	51.7587
928.48	49.6566
930.151	49.0717
931.82	48.7348
933.489	46.8051
935.16	46.1502
936.828	45.3231
938.496	44.1604
940.165	41.2441
941.833	39.2273
943.5	36.9424
945.168	33.8378
946.834	32.2067
948.5	30.7686
950.168	29.7501
951.834	29.3596
953.499	29.7144
955.163	28.3297
956.83	27.2269
958.494	25.9819
960.158	25.2666
961.821	26.4999
963.487	26.2664
965.15	27.5161
966.812	28.0038
968.474	28.4152
970.138	28.394
971.8	28.4874
973.461	29.703
975.123	29.8162
976.783	31.6757
978.446	32.7336
980.106	34.3777
981.766	35.2492
983.425	35.4327
985.084	35.208
986.743	35.142
988.402	36.6505
990.06	36.9082
991.72	36.3897
993.378	37.2825
995.035	38.4969
996.692	38.7809
998.349	37.9089
1000.01	37.7616
1001.66	38.5438
1003.32	38.0449
1004.97	37.1481
1006.63	36.3553
1008.28	36.2385
1009.94	35.6328
1011.59	33.9967
1013.25	34.3025
1014.9	34.7871
1016.55	35.0525
1018.21	36.1758
1019.86	35.7171
1021.51	35.4399
1023.16	36.4153
1024.81	37.4761
1026.47	38.5313
1028.12	39.8906
1029.77	41.9574
1031.42	42.9285
1033.07	42.8856
1034.72	42.8654
1036.37	43.536
1038.02	43.197
1039.67	42.8176
1041.31	43.3181
1042.96	44.8724
1044.61	46.5579
1046.26	48.1099
1047.91	48.9562
1049.55	49.2439
1051.2	50.1527
1052.84	50.2131
1054.49	51.2535
1056.14	51.7479
1057.78	52.1224
1059.43	53.1918
1061.07	52.4044
1062.72	52.4316
1064.36	52.1085
1066	51.2499
1067.65	50.2091
1069.29	49.3384
1070.93	49.2362
1072.58	47.7943
1074.22	48.5533
1075.86	47.7956
1077.5	47.313
1079.14	45.5564
1080.78	42.8722
1082.42	42.2308
1084.06	39.9902
1085.7	37.829
1087.34	36.5793
1088.98	36.218
1090.62	35.3919
1092.26	34.5434
1093.9	34.2495
1095.54	34.7075
1097.17	34.4483
1098.81	35.0137
1100.45	35.7046
1102.09	35.4427
1103.72	35.6399
1105.36	35.6057
1106.99	34.7675
1108.63	33.8974
1110.27	32.6773
1111.9	31.5291
1113.53	29.9291
1115.17	28.7652
1116.8	27.4159
1118.43	27.7261
1120.07	26.6544
1121.7	25.6648
1123.33	26.7339
1124.97	25.024
1126.6	24.2055
1128.23	24.4962
1129.86	23.3561
1131.49	23.1225
1133.12	22.1113
1134.75	20.6726
1136.38	19.443
1138.01	17.4984
1139.64	17.3028
1141.27	17.0176
1142.9	14.9983
1144.53	14.7941
1146.16	14.0216
1147.78	12.9625
1149.41	13.0434
1151.04	12.5086
1152.67	12.0934
1154.29	12.0567
1155.92	10.873
1157.54	8.94626
1159.17	7.7583
1160.8	5.57428
1162.42	5.02242
1164.05	5.44392
1165.67	3.81898
1167.29	3.20269
1168.92	2.95681
1170.54	3.2918
1172.16	4.05226
1173.79	3.78496
1175.41	4.33357
1177.03	3.95381
1178.65	4.98568
1180.28	5.42882
1181.9	4.59334
1183.52	4.06189
1185.14	4.01529
1186.76	3.69825
1188.38	3.54243
1190	4.00858
1191.62	4.65079
1193.24	4.58995
1194.86	4.70354
1196.47	5.29178
1198.09	5.42388
1199.71	6.97602
1201.33	6.20891
1202.95	7.29724
1204.56	8.05362
1206.18	7.34827
1207.8	9.51168
1209.41	10.8023
1211.03	11.6646
1212.64	13.5079
1214.26	15.4424
1215.87	17.9897
1217.49	21.0802
1219.1	24.0489
1220.71	26.8685
1222.33	28.898
1223.94	31.3975
1225.55	35.2458
1227.16	38.386
1228.78	40.9754
1230.39	43.7584
1232	45.2643
1233.61	47.4601
1235.22	49.5568
1236.83	51.3704
1238.44	55.0388
1240.05	57.9319
1241.66	58.8174
1243.27	61.314
1244.88	62.7781
1246.49	63.9252
1248.1	65.9948
1249.71	67.833
1251.32	69.5704
1252.92	69.9617
1254.53	70.2535
1256.14	71.8134
1257.74	72.4229
1259.35	73.876
1260.96	73.4711
1262.56	75.4711
1264.17	77.7712
1265.77	79.4631
1267.38	82.7411
1268.98	84.0536
1270.59	86.0067
1272.19	87.1751
1273.79	89.4027
1275.4	91.532
1277	92.8356
1278.6	94.5392
1280.21	97.2325
1281.81	99.5157
1283.41	101.867
1285.01	103.903
1286.61	105.682
1288.21	108.86
1289.81	111.859
1291.41	113.234
1293.01	115.351
1294.61	117.481
1296.21	118.242
1297.81	118.684
1299.41	118.638
1301.01	118.995
1302.6	120.807
1304.2	123.149
1305.8	123.556
1307.4	124.238
1308.99	123.122
1310.59	123.881
1312.19	123.854
1313.78	124.807
1315.38	125.256
1316.97	125.122
1318.57	125.145
1320.16	124.348
1321.76	123.053
1323.35	122.632
1324.94	121.134
1326.54	119.244
1328.13	117.493
1329.72	115.272
1331.32	114.205
1332.91	112.017
1334.5	111.423
1336.09	109.311
1337.68	107.073
1339.27	106.416
1340.87	106.044
1342.45	106.416
1344.04	104.934
1345.64	104.182
1347.22	103.76
1348.81	101.329
1350.4	100.496
1351.99	99.0669
1353.58	97.7516
1355.17	94.73
1356.75	93.1046
1358.34	92.2391
1359.93	90.8101
1361.51	89.0552
1363.1	87.7486
1364.69	86.5211
1366.27	84.8156
1367.86	83.2008
1369.44	81.6522
1371.03	79.0965
1372.61	77.2442
1374.2	75.9427
1375.78	75.1925
1377.37	74.7554
1378.95	74.2742
1380.53	74.4038
1382.11	75.1005
1383.7	74.7181
1385.28	73.1661
1386.86	72.6238
1388.44	71.8644
1390.02	72.7754
1391.6	71.9493
1393.19	72.0805
1394.77	71.8095
1396.35	71.0062
1397.93	71.8427
1399.51	71.979
1401.08	71.8063
1402.66	72.8701
1404.24	73.4695
1405.82	74.7384
1407.4	77.1017
1408.97	80.7189
1410.55	83.9815
1412.13	88.0294
1413.71	92.4355
1415.28	96.2037
1416.86	101.41
1418.43	106.798
1420.01	111.875
1421.59	116.398
1423.16	122.167
1424.73	128.49
1426.31	134.881
1427.88	140.703
1429.46	146.194
1431.03	152.143
1432.6	157.61
1434.18	163.131
1435.75	168.913
1437.32	174.528
1438.89	179.469
1440.46	182.999
1442.04	186.406
1443.61	188.515
1445.18	189.776
1446.75	190.219
1448.32	191.428
1449.89	191.405
1451.46	192.107
1453.03	192.991
1454.6	191.911
1456.16	189.146
1457.73	186.406
1459.3	183.33
1460.87	179.976
1462.44	175.54
1464	170.549
1465.57	166.045
1467.14	161.138
1468.7	155.137
1470.27	148.421
1471.83	142.306
1473.4	136.32
1474.96	129.624
1476.53	123.901
1478.09	116.9
1479.66	111.204
1481.22	106.205
1482.78	99.3993
1484.35	94.1003
1485.91	89.6836
1487.47	84.0858
1489.04	78.6499
1490.6	73.7561
1492.16	69.2914
1493.72	64.8599
1495.28	61.2706
1496.84	57.1531
1498.4	54.4735
1499.96	52.077
1501.52	49.9967
1503.08	47.5185
1504.64	44.724
1506.2	41.4988
1507.76	38.816
1509.32	36.9059
1510.88	34.2459
1512.44	31.5396
1513.99	29.3647
1515.55	27.8009
1517.11	25.8242
1518.66	23.2865
1520.22	22.8268
1521.78	21.2502
1523.33	19.6458
1524.89	19.511
1526.44	20.2926
1528	20.3686
1529.55	20.3783
1531.11	19.9355
1532.66	20.2603
1534.21	20.4563
1535.77	21.0228
1537.32	22.7351
1538.87	23.939
1540.43	25.452
1541.98	25.926
1543.53	27.9547
1545.08	28.8171
1546.63	29.6776
1548.18	31.0278
1549.74	32.2073
1551.29	33.918
1552.84	34.375
1554.39	36.0739
1555.94	37.4939
1557.48	38.4281
1559.03	39.5817
1560.58	40.5213
1562.13	42.0842
1563.68	43.789
1565.23	44.7218
1566.78	47.8798
1568.32	49.7801
1569.87	51.2372
1571.42	52.4221
1572.96	53.8818
1574.51	55.1513
1576.05	57.569
1577.6	58.4094
1579.14	59.5441
1580.69	60.1448
1582.24	61.2352
1583.78	63.1843
1585.32	65.4042
1586.87	66.5059
1588.41	67.6927
1589.95	69.2023
1591.5	71.3487
1593.04	71.9424
1594.58	72.7941
1596.12	73.7607
1597.67	73.8973
1599.21	73.4694
1600.75	73.4159
1602.29	74.1874
1603.83	74.4202
1605.37	73.7607
1606.91	74.2323
1608.45	73.8138
1609.99	74.3533
1611.53	74.449
1613.07	75.8314
1614.6	76.0562
1616.14	75.851
1617.68	76.3319
1619.22	76.0922
1620.75	77.5347
1622.29	76.8842
1623.83	77.6477
1625.37	78.4935
1626.9	78.8442
1628.44	80.6981
1629.97	81.8703
1631.51	84.3351
1633.04	85.5206
1634.58	86.4116
1636.11	89.8169
1637.65	91.2891
1639.18	93.0184
1640.72	95.7804
1642.25	98.7605
1643.78	101.261
1645.31	101.595
1646.85	102.887
1648.38	104.557
1649.91	104.772
1651.44	106.101
1652.97	106.872
1654.5	106.999
1656.03	107.415
1657.56	107.863
1659.1	108.013
1660.62	108.262
1662.15	107.883
1663.68	106.832
1665.21	105.863
1666.74	104.299
1668.27	102.428
1669.8	100.102
1671.32	97.4773
1672.85	94.2643
1674.38	91.4724
1675.91	88.8835
1677.43	84.901
1678.96	82.2232
1680.49	79.3937
1682.01	75.5237
1683.54	72.2179
1685.06	68.4948
1686.59	66.0179
1688.11	62.3329
1689.64	58.6593
1691.16	54.9457
1692.68	52.0204
1694.21	48.8603
1695.73	45.9314
1697.25	43.4498
1698.78	40.638
1700.3	39.0264
1701.82	37.2035
1703.34	36.2938
1704.86	35.7226
1706.39	34.408
1707.91	33.3721
1709.43	31.6538
1710.95	30.7758
1712.47	30.6039
1713.99	29.4549
1715.51	29.6412
1717.02	29.211
1718.54	27.6705
1720.06	25.5793
1721.58	24.4755
1723.1	24.8554
1724.62	23.4862
1726.13	22.5988
1727.65	23.0327
1729.17	22.4373
1730.68	21.7658
1732.2	21.5961
1733.72	21.3128
1735.23	20.0192
1736.75	20.1131
1738.26	19.5627
1739.78	19.0579
1741.29	18.2496
1742.81	17.4465
1744.32	16.5708
1745.84	15.6475
1747.35	14.5903
1748.86	13.913
1750.37	13.8042
1751.89	12.0458
1753.4	10.7334
1754.91	10.9263
1756.42	10.2302
1757.93	9.03801
1759.45	8.52422
1760.96	7.58906
1762.47	6.90532
1763.98	5.45145
1765.49	4.38889
1767	3.56493
1768.51	2.45897
1770.02	1.26376
1771.53	1.10175
1773.03	1.20195
1774.54	1.12837
1776.05	1.57281
1777.56	1.89935
1779.07	1.72818
1780.57	1.16053
1782.08	0.168563
1783.59	-0.0394349
1785.09	-0.643376
1786.6	-0.00760012
1788.11	0.2157
1789.61	0.222352
1791.12	-0.483529
1792.62	-0.582717
1794.13	-0.751748
1795.63	-0.463819
1797.13	0.119364
1798.64	0.25245
1800.14	-0.240086
1801.65	-0.300834
1803.15	0.210459
1804.65	0.0479411
1806.15	0.190826
1807.66	0.503588
1809.16	0.272614
1810.66	0.248415
1812.16	0.54679
1813.66	0.588657
1815.16	0.667454
1816.66	0.512048
1818.16	0.922165
1819.66	1.13196
1821.16	1.3675
1822.66	1.49774
1824.16	1.37451
1825.66	1.50386
1827.16	1.67814
1828.66	1.89166
1830.16	1.89554
1831.65	1.95029
1833.15	1.52636
1834.65	0.766373
1836.14	0.702791
1837.64	1.19002
1839.14	0.569624
1840.63	-0.00641846
1842.13	-0.0296279
1843.62	-0.0171821
1845.12	-0.34011
1846.61	-0.261976
1848.11	-0.0118263
1849.6	-0.515378
1851.1	-0.584342
1852.59	-0.463489
1854.08	-0.59758
1855.58	0.629551
1857.07	1.09422
1858.56	1.23984
1860.05	1.35585
1861.55	2.19953
1863.04	1.88248
1864.53	1.91707
1866.02	1.86127
1867.51	1.90533
1869	1.77995
1870.49	2.06701
1871.98	2.7051
1873.47	3.14593
1874.96	3.64785
1876.45	3.63284
1877.94	4.31343
1879.43	4.33595
1880.92	4.46749
1882.41	4.26408
1882.51	4.34507
1884	4.85284
1885.5	5.28893
1886.99	5.73772
1888.48	5.79603
1889.98	5.74103
1891.47	5.44948
1892.96	5.62274
1894.46	5.52128
1895.95	5.45465
1897.44	5.74442
1898.93	5.55988
1900.42	5.71061
1901.91	5.31019
1903.41	4.8773
1904.9	4.7433
1906.39	4.20012
1907.88	4.43394
1909.37	4.83452
1910.86	4.21007
1912.35	3.64288
1913.83	4.0568
1915.32	4.80416
1916.81	4.63315
1918.3	4.38439
1919.79	4.44823
1921.27	4.62939
1922.76	4.97131
1924.25	5.68895
1925.74	6.11431
1927.22	5.93609
1928.71	6.6925
1930.19	6.34865
1931.68	5.74622
1933.17	5.65923
1934.65	5.83834
1936.14	5.03126
1937.62	5.4193
1939.11	5.01848
1940.59	4.84242
1942.07	5.41109
1943.56	5.88087
1945.04	6.64459
1946.52	6.49847
1948.01	6.14677
1949.49	5.81595
1950.97	6.16052
1952.45	5.40546
1953.93	5.73467
1955.42	5.56882
1956.9	5.83928
1958.38	6.05107
1959.86	5.67728
1961.34	4.59093
1962.82	4.16584
1964.3	4.27483
1965.78	4.17935
1967.26	4.99551
1968.74	4.74
1970.21	4.868
1971.69	5.10721
1973.17	4.88144
1974.65	3.68497
1976.13	3.11318
1977.6	2.54574
1979.08	2.62989
1980.56	2.85528
1982.03	2.44769
1983.51	2.5032
1984.99	2.60313
1986.46	3.13858
1987.94	2.91006
1989.41	2.2096
1990.89	1.61737
1992.36	1.72032
1993.84	1.2758
1995.31	1.52314
1996.78	2.22607
1998.26	2.30609
1999.73	1.79725
2001.2	1.86477
2002.68	2.69813
2004.15	2.69013
2005.62	2.04629
2007.09	2.5106
2008.56	3.20652
2010.04	2.59654
2011.51	3.76605
2012.98	3.98993
2014.45	4.67105
2015.92	5.06481
2017.39	5.31621
2018.86	5.33741
2020.33	5.57902
2021.8	5.85103
2023.26	6.22486
2024.73	7.17791
2026.2	7.52995
2027.67	8.67597
2029.14	8.52572
2030.61	8.8936
2032.07	9.32453
2033.54	9.33624
2035.01	9.72569
2036.47	10.7187
2037.94	11.6196
2039.4	12.208
2040.87	12.3569
2042.33	11.5359
2043.8	11.1244
2045.27	10.7873
2046.73	10.0382
2048.19	9.22914
2049.66	10.6654
2051.12	10.2176
2052.59	10.6001
2054.05	10.0705
2055.51	10.1486
2056.97	10.6278
2058.44	10.3824
2059.9	9.13935
2061.36	8.57816
2062.82	8.14661
2064.28	8.30684
2065.74	8.30381
2067.21	8.22671
2068.67	8.217
2070.13	7.87221
2071.59	8.37583
2073.05	8.22121
2074.51	8.80997
2075.96	9.45019
2077.42	9.44871
2078.88	9.1477
2080.34	9.80084
2081.8	9.97175
2083.26	10.3128
2084.72	11.2292
2086.17	11.4255
2087.63	12.3552
2089.09	12.6787
2090.54	12.9854
2092	14.0629
2093.45	15.1361
2094.91	15.7495
2096.37	16.1658
2097.82	17.2439
2099.28	17.2626
2100.73	18.4302
2102.19	18.8843
2103.64	19.7742
2105.09	20.8338
2106.55	21.4797
2108	22.6329
2109.45	23.3734
2110.91	23.3584
2112.36	22.965
2113.81	23.3741
2115.26	23.3513
2116.72	24.2984
2118.17	25.0379
2119.62	25.4824
2121.07	26.1417
2122.52	26.8423
2123.97	27.0355
2125.42	28.274
2126.87	28.8612
2128.32	30.2276
2129.77	30.9312
2131.22	31.2953
2132.67	32.3503
2134.11	33.2645
2135.56	34.246
2137.01	36.4852
2138.46	38.0082
2139.91	39.6213
2141.35	40.5872
2142.8	42.3811
2144.25	45.1647
2145.7	47.0357
2147.14	49.2044
2148.59	51.651
2150.03	53.4698
2151.48	55.2516
2152.92	57.2806
2154.37	58.8915
2155.81	61.4758
2157.26	63.4649
2158.7	64.9191
2160.15	66.5898
2161.59	67.9287
2163.03	69.4878
2164.47	71.3642
2165.92	72.719
2167.36	73.3698
2168.8	74.1203
2170.24	75.053
2171.69	75.3669
2173.13	76.7761
2174.57	76.5665
2176.01	76.6248
2177.45	76.3748
2178.89	76.4857
2180.33	75.7554
2181.77	74.2268
2183.21	72.9876
2184.65	71.6011
2186.09	71.2755
2187.53	69.9445
2188.97	68.9648
2190.4	67.2064
2191.84	65.7685
2193.28	64.192
2194.72	62.6882
2196.16	61.4206
2197.59	60.1551
2199.03	58.251
2200.47	56.7756
2201.9	55.2841
2203.34	53.9463
2204.77	52.7078
2206.21	50.3343
2207.64	49.3786
2209.08	48.9437
2210.51	47.0956
2211.95	45.5341
2213.38	43.8774
2214.82	43.2149
2216.25	42.2018
2217.68	40.9714
2219.12	38.8133
2220.55	36.7202
2221.98	34.4746
2223.41	33.1675
2224.85	31.9901
2226.28	30.9617
2227.71	30.0561
2229.14	28.2091
2230.57	26.4821
2232	25.3275
2233.43	24.1894
2234.86	23.7512
2236.29	22.6876
2237.72	22.5375
2239.15	21.1437
2240.58	20.1761
2242.01	19.6194
2243.44	19.5309
2244.87	18.8758
2246.29	17.6104
2247.72	16.6847
2249.15	15.0055
2250.58	14.4246
2252.01	12.9395
2253.43	12.5267
2254.86	12.1406
2256.29	11.2858
2257.71	12.0871
2259.14	11.4167
2260.56	10.9778
2261.99	11.1411
2263.41	11.8917
2264.84	12.4518
2266.26	13.5531
2267.69	13.5463
2269.11	13.4648
2270.53	13.065
2271.96	13.6846
2273.38	13.2396
2274.8	13.3169
2276.23	12.4829
2277.65	11.992
2279.07	11.8673
2280.49	11.8618
2281.91	10.9424
2283.34	10.2047
2284.76	9.79436
2286.18	9.265
2287.6	8.2355
2289.02	8.03238
2290.44	6.10285
2291.86	5.29599
2293.28	4.93106
2294.7	5.27009
2296.12	4.39993
2297.54	5.04688
2298.96	5.54495
2300.37	5.67511
2301.79	6.14199
2303.21	6.68547
2304.63	7.85786
2306.04	8.27395
2307.46	7.87249
2308.88	8.14732
2310.3	7.45007
2311.71	7.62056
2313.13	8.1146
2314.54	7.86967
2315.96	6.9782
2317.37	7.39083
2318.79	7.3069
2320.2	7.33878
2321.62	8.51794
2323.03	8.99552
2324.45	9.96012
2325.86	9.85465
2327.27	10.256
2328.69	11.2205
2330.1	12.0155
2331.51	12.6686
2332.92	13.2812
2334.34	13.3331
2335.75	13.1125
2337.16	12.9595
2338.57	11.8189
2339.98	11.2504
2341.39	10.7573
2342.8	10.1276
2344.21	9.17742
2345.63	9.32469
2347.04	8.39917
2348.45	8.08523
2349.85	8.18184
2351.26	8.0182
2352.67	7.05355
2354.08	5.95909
2355.49	4.83482
2356.9	4.08974
2358.3	3.37495
2359.71	2.62465
2361.12	1.46722
2362.53	1.66581
2363.93	2.35398
2365.34	2.79815
2366.75	3.07924
2368.15	4.40019
2369.56	3.82201
2370.97	3.21171
2372.37	3.59423
2373.77	3.69498
2375.18	4.06383
2376.59	3.56579
2377.99	3.59574
2379.39	3.76985
2380.8	4.31869
2382.2	4.54203
2383.6	4.30332
2385.01	4.79178
2386.41	5.1219
2387.81	5.97813
2389.21	6.53087
2390.62	7.19463
2392.02	7.72391
2393.42	7.53222
2394.82	7.94801
2396.22	8.1802
2397.62	8.55189
2399.02	8.9501
2400.42	9.30804
2401.82	9.22661
2403.22	9.4288
2404.62	9.55488
2406.02	9.71951
2407.42	10.0792
2408.82	10.0113
2410.22	9.63875
2411.62	9.55723
2413.01	9.51373
2414.41	9.53397
2415.81	9.69868
2417.21	9.34453
2418.6	8.48847
2420	8.07921
2421.4	6.89257
2422.79	6.12813
2424.19	6.17512
2425.59	5.86502
2426.98	5.92118
2428.38	4.97992
2429.77	4.9274
2431.17	5.00769
2432.56	4.92285
2433.95	5.1912
2435.35	4.9127
2436.74	5.04565
2438.14	4.29092
2439.53	4.07766
2440.92	4.16025
2442.31	4.15644
2443.71	3.36315
2445.1	3.27608
2446.49	2.63741
2447.88	2.96604
2449.27	3.28104
2450.67	3.62223
2452.06	3.50978
2453.45	3.31106
2454.84	3.40077
2456.23	3.17266
2457.62	2.9585
2459.01	3.16682
2460.4	2.75581
2461.79	3.44135
2463.18	3.36355
2464.57	3.78919
2465.95	3.93117
2467.34	3.52778
2468.73	3.67593
2470.12	3.96636
2471.5	3.79215
2472.89	3.69995
2474.28	4.23678
2475.67	3.75827
2477.05	3.64189
2478.44	2.99684
2479.82	2.06567
2481.21	1.70125
2482.6	1.85137
2483.98	1.59801
2485.37	1.92044
2486.75	1.97331
2488.13	1.3537
2489.52	1.69072
2490.9	1.65536
2492.29	1.87647
2493.67	2.5492
2495.05	1.80433
2496.44	1.86274
2497.82	2.06435
2499.2	3.33834
2500.58	3.34506
2501.97	3.13994
2503.35	3.15067
2504.73	2.65528
2506.11	2.94102
2507.49	3.03543
2508.87	3.54568
2510.25	3.46449
2511.63	3.74159
2513.01	3.8562
2514.39	4.43137
2515.77	4.49286
2517.15	4.75393
2518.53	4.84687
2519.91	5.32501
2521.29	4.75351
2522.67	4.34163
2524.05	4.16425
2525.42	5.04195
2526.8	5.28937
2528.18	5.80291
2529.55	5.49572
2530.93	4.94698
2532.31	4.74113
2533.69	4.90767
2535.06	5.55426
2536.44	5.08201
2537.81	4.71104
2539.19	4.86786
2540.56	4.65324
2541.94	5.44136
2543.31	4.96268
2544.69	4.59844
2546.06	4.11692
2547.44	3.96831
2548.81	3.1474
2550.18	2.7677
2551.56	3.34558
2552.93	3.03777
2554.3	2.9778
2555.67	1.9332
2557.04	1.41947
2558.42	1.44531
2559.79	1.22831
2561.16	1.50887
2562.53	1.87264
2563.9	1.14602
2565.27	1.84699
2566.64	1.301
2568.01	1.10335
2569.38	0.429505
2570.75	0.833265
2572.12	1.0142
2573.49	1.35816
2574.86	2.21706
2576.23	1.98635
2577.6	2.71748
2578.97	3.03508
2580.33	3.6606
2581.7	3.30322
2583.07	3.63556
2584.44	3.78543
2585.8	4.22812
2587.17	5.12915
2588.54	5.0463
2589.9	5.10201
2591.27	4.97436
2592.64	5.75638
2594	6.269
2595.37	6.00858
2596.73	6.06684
2598.1	6.46125
2599.46	6.95569
2600.83	8.08811
2602.19	8.09182
2603.55	8.54027
2604.92	7.96744
2606.28	7.78696
2607.64	8.06931
2609.01	8.01407
2610.37	7.977
2611.73	7.22329
2613.09	7.29585
2614.46	7.05206
2615.82	7.40448
2617.18	7.37102
2618.54	7.46352
2619.9	7.38915
2621.26	6.45924
2622.62	6.16653
2623.98	5.79321
2625.34	5.64464
2626.7	5.47683
2628.06	5.18332
2629.42	5.4702
2630.78	5.5938
2632.14	5.34754
2633.5	5.81834
2634.86	5.37012
2636.21	6.07007
2637.57	7.49949
2638.93	7.93057
2640.29	7.60177
2641.64	7.37408
2643	7.5866
2644.36	8.0047
2645.71	8.69145
2647.07	8.73754
2648.43	8.50777
2649.78	8.62039
2651.14	9.41795
2652.49	9.3116
2653.85	9.75029
2655.2	9.97857
2656.56	9.60015
2657.91	9.95666
2659.26	9.38739
2660.62	10.2306
2661.97	9.56638
2663.32	10.3395
2664.68	10.4237
2666.03	10.1821
2667.38	10.3404
2668.74	10.0098
2670.09	9.75058
2671.44	9.60128
2672.79	9.23064
2674.14	9.24489
2675.49	9.53296
2676.84	9.93043
2678.19	10.4538
2679.54	10.584
2680.89	10.7855
2682.24	10.4221
2683.59	10.4941
2684.94	10.4155
2686.29	9.392
2687.64	9.0695
2688.99	9.1102
2690.34	9.73545
2691.69	9.85909
2693.03	10.4263
2694.38	10.8953
2695.73	11.1911
2697.08	11.6402
2698.42	12.0723
2699.77	12.6429
2701.12	13.018
2702.46	12.9754
2703.81	13.3706
2705.15	14.1668
2706.5	13.689
2707.85	14.2599
2709.19	15.1584
2710.54	16.7472
2711.88	17.785
2713.22	18.0918
2714.57	18.3423
2715.91	18.4969
2717.26	19.0688
2718.6	19.5028
2719.94	19.5574
2721.29	19.8904
2722.63	20.3848
2723.97	20.6953
2725.31	20.3558
2726.66	20.4901
2728	20.2307
2729.34	20.3939
2730.68	20.9056
2732.02	20.13
2733.36	19.9285
2734.7	19.9939
2736.04	18.5749
2737.38	18.0544
2738.72	17.5896
2740.06	17.6036
2741.4	17.0024
2742.74	16.8552
2744.08	16.1327
2745.42	15.4345
2746.76	14.927
2748.09	13.9635
2749.43	12.7739
2750.77	12.7464
2752.11	11.6568
2753.45	10.9384
2754.78	10.4037
2756.12	9.90536
2757.46	9.62853
2758.79	8.5584
2760.13	7.98082
2761.46	6.84532
2762.8	6.1974
2764.14	5.30233
2765.47	5.36863
2766.8	4.935
2768.14	4.13887
2769.47	4.0104
2770.81	3.89933
2772.14	3.89578
2773.48	3.10946
2774.81	3.19999
2776.14	3.00666
2777.48	2.23594
2778.81	1.38068
2780.14	0.613099
2781.47	0.425412
2782.8	0.920072
2784.14	0.882719
2785.47	0.923279
2786.8	0.70933
2788.13	0.638614
2789.46	1.02895
2790.79	0.655283
2792.12	-0.023254
2793.45	0.51394
2794.78	0.302333
2796.11	1.38359
2797.44	0.823858
2798.77	1.04176
2800.1	1.229
2801.43	0.545968
2802.76	0.698025
2804.09	0.755535
2805.41	0.736918
2806.74	1.33553
2808.07	0.969813
2809.4	0.637346
2810.72	0.790713
2812.05	0.984318
2813.38	0.181056
2814.71	-0.06593
2816.03	1.42825
2817.36	2.93012
2818.68	4.74438
2820.01	8.26727
2821.33	11.3478
2822.66	15.6786
2823.98	20.707
2825.31	25.8129
2826.63	31.874
2827.96	37.5107
2829.28	44.7163
2830.6	51.3786
2831.93	58.8422
2833.25	66.0033
2834.57	73.5344
2835.9	81.0871
2837.22	89.4711
2838.54	97.759
2839.86	106.801
2841.18	117.416
2842.5	126.33
2843.83	136.496
2845.15	146.81
2846.47	157.436
2847.79	168.259
2849.11	178.954
2850.43	188.656
2851.75	198.796
2853.07	209.487
2854.39	219.167
2855.71	229.508
2857.03	238.62
2858.35	248.253
2859.66	257.554
2860.98	266.278
2862.3	274.41
2863.62	281.477
2864.94	288.435
2866.25	295.021
2867.57	301.383
2868.89	306.991
2870.2	310.886
2871.52	316.092
2872.84	320.588
2874.15	324.48
2875.47	328.821
2876.78	332.625
2878.1	335.419
2879.41	338.937
2880.73	344.362
2882.04	348.633
2883.36	352.869
2884.67	357.82
2885.99	362.154
2887.3	366.192
2888.61	371.127
2889.93	375.817
2891.24	380.016
2892.55	384.478
2893.86	389.741
2895.18	394.832
2896.49	400.163
2897.8	405.351
2899.11	410.596
2900.42	417.052
2901.73	423.387
2903.05	430.757
2904.36	436.723
2905.67	444.748
2906.98	452.56
2908.29	460.301
2909.6	468.813
2910.91	476.605
2912.21	484.958
2913.52	493.155
2914.83	501.184
2916.14	509.14
2917.45	516.684
2918.76	523.7
2920.07	529.279
2921.37	535.017
2922.68	538.217
2923.99	541.913
2925.29	543.797
2926.6	545.476
2927.91	546.775
2929.22	546.882
2930.52	545.925
2931.83	544.932
2933.13	542.709
2934.44	538.858
2935.74	535.541
2937.05	531.529
2938.35	525.652
2939.66	519.765
2940.96	512.468
2942.26	503.566
2943.57	494.497
2944.87	485.088
2946.18	475.609
2947.48	465.423
2948.78	455.283
2950.08	445.181
2951.39	434.871
2952.69	423.952
2953.99	412.587
2955.29	401.222
2956.59	389.671
2957.9	378.36
2959.2	367.319
2960.5	354.965
2961.8	344.131
2963.1	332.467
2964.4	322.495
2965.7	312.509
2967	302.135
2968.3	292.332
2969.6	282.246
2970.9	274.137
2972.19	265.931
2973.49	257.795
2974.79	248.308
2976.09	239.713
2977.39	232.093
2978.68	224.227
2979.98	215.128
2981.28	206.212
2982.58	197.155
2983.87	187.984
2985.17	178.553
2986.47	170.093
2987.76	160.387
2989.06	152.511
2990.35	144.649
2991.65	136.655
2992.94	128.705
2994.24	120.944
2995.53	114.036
2996.83	107.325
2998.12	101.132
2999.42	93.5116
3000.71	87.1427
3002	80.6558
3003.3	74.3166
3004.59	68.0294
3005.88	62.2195
3007.18	56.2538
3008.47	51.1509
3009.76	46.7596
3011.05	43.0735
3012.34	39.4926
3013.64	35.4329
3014.93	31.7898
3016.22	27.3462
3017.51	23.1471
3018.8	20.0246
3020.09	17.0005
3021.38	14.0817
3022.67	11.7623
3023.96	9.70924
3025.25	8.22093
3026.54	7.12169
3027.83	5.95366
3029.12	4.93561
3030.41	4.28043
3031.69	3.41252
3032.98	2.68407
3034.27	2.63331
3035.56	2.86132
3036.84	3.28097
3038.13	2.85711
3039.42	2.65607
3040.71	3.81221
3041.99	4.8376
3043.28	5.02036
3044.57	4.85677
3045.85	6.0471
3047.14	6.59531
3048.42	6.9473
3049.71	7.96537
3050.99	9.20439
3052.28	9.43848
3053.56	10.3998
3054.85	10.8208
3056.13	10.4481
3057.41	11.6965
3058.7	12.4618
3059.98	12.3221
3061.26	12.192
3062.55	11.9739
3063.83	11.5373
3065.11	12.0383
3066.39	11.564
3067.68	11.3333
3068.96	10.9387
3070.24	10.9565
3071.52	10.2523
3072.8	9.904
3074.08	9.24482
3075.36	8.67331
3076.65	8.11529
3077.93	7.20438
3079.21	6.62982
3080.49	6.16745
3081.77	6.0279
3083.04	5.57507
3084.32	5.69487
3085.6	5.69849
3086.88	5.2498
3088.16	5.1288
3089.44	4.87801
3090.72	4.10163
3091.99	4.72579
3093.27	5.35199
3094.55	6.0416
3095.83	6.0688
3097.1	6.90337
3098.38	7.78872
3099.66	8.54371
3100.93	10.078
3102.21	10.5939
3103.49	12.0753
3104.76	13.3544
3106.04	14.004
3107.31	14.9366
3108.59	15.4966
3109.86	16.707
3111.14	17.6142
3112.41	18.9333
3113.69	19.6318
3114.96	20.4204
3116.23	20.9427
3117.51	21.355
3118.78	22.388
3120.05	23.4421
3121.33	24.9817
3122.6	25.551
3123.87	26.709
3125.14	28.272
3126.41	29.4732
3127.69	31.2808
3128.96	32.5243
3130.23	33.7961
3131.5	35.697
3132.77	36.8107
3134.04	38.5094
3135.31	40.1675
3136.58	41.679
3137.85	43.5386
3139.12	45.6331
3140.39	47.8118
3141.66	49.8853
3142.93	52.21
3144.2	54.5989
3145.47	57.3297
3146.74	60.3823
3148	63.9179
3149.27	69.3948
