#Acq. time (s)=	45
#Accumulations=	2
#Range (cm-¹)=	200...3150
#Windows=	2
#Auto scanning=	Off
#Autofocus=	Off
#Macrospot=	Off
#AutoExposure=	Off
#Spike filter=	Multiple accum.
#Delay time (s)=	0
#Binning=	1
#Readout mode=	Signal
#DeNoise=	Off
#ICS correction=	On
#Dark correction=	Off
#Inst. Process=	Off
#Detector Gain=	Best Dynamic Range
#Detector ADC=	20 kHz       
#Detector temperature (°C)=	-69.85
#Instrument=	LabRAM HR Evol
#Detector=	Synapse
#Objective=	x100
#Grating=	600 gr/mm
#ND Filter=	100%
#Laser (nm)=	532 
#Hole=	100.021
#Range=	Auto
#Laser Pol.=	No
#Raman. Pol.=	No
#Laser Pol. (°)=	-0.0007625
#Raman Pol. (°)=	89.9995
#Collection=	Microscope
#StageXY=	Marzhauser
#StageZ=	Marzhauser
#X (µm)=	-7079.8
#Y (µm)=	2175.6
#Z (µm)=	-74.85
#Full time(mm:ss)=	3:18
#Project=	
#Sample=	
#Site=	
#Title=	Mb_20_23_41_2x_45s_532 nm_x100_100%_600 gr_mm
#Remark=	
#Date=	13.07.2022 16:51
#Acquired=	13.07.2022 16:51:59
#Base:Fit=	10.08.2022 10:29:37
#Base:Sub=	10.08.2022 10:35:48
#Filter:Polynom=	16.08.2022 10:13:29
#AxisType[0]=Intens
#AxisUnit[0]=Cnt
#AxisType[1]=Spectr
#AxisUnit[1]=1/cm
200.563	56.7447
202.377	51.3755
204.194	47.8787
206.008	44.7943
207.821	42.4708
209.634	40.9508
211.449	40.05
213.262	38.7138
215.074	37.577
216.885	36.6079
218.699	34.7986
220.51	33.6368
222.321	32.0652
224.131	31.6671
225.941	30.9791
227.751	28.8657
229.562	26.7078
231.371	25.6046
233.18	24.242
234.988	23.865
236.796	22.5264
238.603	20.7511
240.411	21.2788
242.219	19.8419
244.026	18.8309
245.832	17.7165
247.638	16.6091
249.443	15.6098
251.248	14.9791
253.053	13.091
254.857	12.1576
256.661	11.0928
258.465	10.4275
260.268	10.3257
262.071	8.48217
263.874	7.39396
265.678	5.91518
267.48	5.06642
269.282	4.29852
271.083	3.69755
272.884	4.24657
274.684	2.94132
276.484	2.97043
278.284	1.63824
280.084	1.67703
281.883	1.39462
283.682	-0.286175
285.48	-0.53804
287.276	-0.715076
289.074	-1.07144
290.871	1.52765
292.668	2.14584
294.465	3.26817
296.261	4.49167
298.057	5.28322
299.853	5.58255
301.648	7.08579
303.443	7.62683
305.237	8.96396
307.032	11.1504
308.823	12.7614
310.617	14.7494
312.41	16.0078
314.203	16.9819
315.995	16.6519
317.788	17.0641
319.579	18.3819
321.369	19.9014
323.16	20.8189
324.951	21.0307
326.741	21.2965
328.531	20.7557
330.321	21.9343
332.108	21.3063
333.897	21.3951
335.686	21.4889
337.474	22.3907
339.26	21.7616
341.048	21.1397
342.835	20.2887
344.622	19.6654
346.406	18.4462
348.192	17.8016
349.978	16.1069
351.764	14.9126
353.547	14.361
355.332	14.1772
357.116	12.7494
358.901	11.5854
360.682	10.7819
362.466	10.3126
364.249	8.9653
366.03	9.15004
367.812	8.07255
369.594	8.30622
371.374	7.38022
373.155	6.68161
374.936	6.04334
376.715	6.51345
378.495	6.13797
380.273	6.68557
382.053	6.30272
383.832	6.19654
385.609	5.72726
387.388	6.03175
389.164	6.43574
390.942	7.40579
392.72	8.52814
394.495	9.59269
396.272	11.0515
398.047	10.7915
399.823	10.4457
401.597	10.2819
403.372	10.4314
405.145	10.8075
406.92	11.7379
408.693	12.2515
410.467	12.8396
412.239	11.2978
414.012	10.359
415.783	10.9294
417.556	10.3205
419.327	10.9834
421.099	10.9118
422.869	11.346
424.64	11.8088
426.409	10.9331
428.18	9.94538
429.948	8.42196
431.718	7.58858
433.486	7.36098
435.253	7.88585
437.022	7.17156
438.789	8.18113
440.558	8.59354
442.324	8.29692
444.089	8.62303
445.857	8.2825
447.622	8.71576
449.386	9.09233
451.153	10.3728
452.917	11.0374
454.682	10.8314
456.446	11.327
458.208	12.2421
459.973	12.0621
461.735	12.2081
463.497	12.3728
465.259	13.1404
467.022	13.1979
468.783	13.9991
470.544	13.464
472.306	13.9036
474.066	15.7521
475.825	17.6524
477.585	18.5983
479.346	20.6578
481.104	23.1551
482.862	23.1614
484.62	24.6989
486.38	25.9624
488.137	26.9134
489.894	28.924
491.65	30.1992
493.407	31.2895
495.164	33.0511
496.92	33.5793
498.675	33.3942
500.43	33.0684
502.184	34.108
503.939	34.8234
505.694	35.1241
507.448	35.4282
509.201	36.1816
510.954	37.6931
512.706	37.3109
514.459	36.9901
516.21	37.0056
517.962	36.724
519.715	37.5621
521.466	38.1017
523.216	39.4095
524.966	38.6536
526.716	40.3385
528.466	39.8752
530.215	39.6271
531.964	39.8168
533.712	38.4453
535.46	37.2996
537.208	35.7267
538.955	35.4625
540.703	34.4443
542.449	33.3447
544.196	33.4083
545.942	33.0065
547.688	30.8625
549.433	31.0678
551.178	31.5723
552.923	29.5491
554.667	29.6346
556.412	28.4539
558.155	28.4759
559.899	28.4961
561.642	27.5158
563.385	26.2483
565.127	25.2545
566.867	24.8325
568.609	24.0111
570.35	21.315
572.092	21.7192
573.832	19.6362
575.573	18.9384
577.313	18.6072
579.053	17.093
580.79	16.6054
582.529	16.6954
584.268	15.8403
586.006	14.7392
587.745	13.7244
589.482	12.5457
591.218	12.1199
592.955	11.5859
594.692	10.9953
596.428	10.4807
598.164	10.7583
599.898	9.10208
601.634	9.40912
603.369	8.29144
605.104	9.03925
606.836	9.95855
608.57	11.5958
610.304	13.0552
612.037	12.5937
613.769	13.5405
615.501	13.2654
617.234	12.0296
618.966	11.333
620.696	10.5136
622.427	11.489
624.159	11.8486
625.887	13.7523
627.618	14.9521
629.348	15.2223
631.076	16.8909
632.806	16.4866
634.535	16.1474
636.262	17.4281
637.99	17.7556
639.716	16.2348
641.444	16.935
643.172	16.1583
644.897	16.3069
646.624	15.4371
648.348	15.6106
650.075	15.2541
651.801	14.9344
653.524	14.189
655.249	13.3097
656.972	13.0109
658.697	13.6838
660.419	13.4131
662.143	15.7391
663.865	15.2854
665.588	14.8614
667.309	14.9619
669.032	14.4023
670.752	12.7487
672.474	11.239
674.194	11.3314
675.915	11.4118
677.634	11.2098
679.355	11.4923
681.073	11.6194
682.793	12.7104
684.511	14.0996
686.23	15.0429
687.947	17.0245
689.664	17.6681
691.382	21.4311
693.098	22.1603
694.816	22.8084
696.531	23.5894
698.247	24.1875
699.963	25.1451
701.678	25.894
703.392	26.8779
705.108	29.1368
706.821	30.7474
708.534	32.733
710.249	33.8905
711.962	36.3209
713.674	36.9741
715.388	36.5693
717.099	38.2393
718.81	36.9926
720.523	38.6178
722.234	39.8563
723.944	40.5982
725.654	40.591
727.365	42.7509
729.075	42.3937
730.784	42.8413
732.492	43.3977
734.202	43.2787
735.91	43.3227
737.618	45.1397
739.325	45.7988
741.034	46.98
742.741	47.3021
744.447	47.4142
746.153	47.4506
747.859	48.2027
749.564	47.1723
751.271	47.555
752.976	50.153
754.681	50.9
756.385	52.9376
758.088	55.424
759.792	57.92
761.495	59.0156
763.2	60.1087
764.902	62.2337
766.604	63.2876
768.306	66.0776
770.008	68.1843
771.709	69.3499
773.41	70.3843
775.11	72.1227
776.811	74.1625
778.51	74.5028
780.21	77.1961
781.909	78.7524
783.608	79.8655
785.307	81.4373
787.005	82.4707
788.703	83.7276
790.401	83.3475
792.098	83.8382
793.795	85.9909
795.492	86.5231
797.188	86.7992
798.884	86.8521
800.58	86.9865
802.276	86.8598
803.971	86.4538
805.665	87.6932
807.36	87.4561
809.054	86.935
810.748	87.0221
812.441	86.9025
814.135	85.7374
815.826	87.7586
817.518	89.21
819.21	89.7574
820.902	90.2764
822.594	89.8606
824.285	88.7956
825.976	89.4558
827.665	89.2471
829.355	90.9087
831.045	92.3384
832.735	93.1969
834.424	94.1528
836.111	95.0004
837.8	95.892
839.488	95.372
841.177	96.6696
842.864	96.7255
844.55	96.5726
846.237	95.3734
847.924	95.0871
849.61	95.0872
851.295	95.1287
852.98	95.1077
854.666	94.3276
856.349	93.2212
858.034	92.6186
859.719	91.8757
861.403	91.6949
863.085	90.0456
864.769	89.1938
866.452	88.6418
868.133	87.9607
869.816	86.3248
871.498	84.2845
873.179	83.1982
874.86	81.8612
876.54	81.7331
878.221	80.9956
879.902	79.0136
881.58	77.8708
883.26	77.4723
884.938	76.1926
886.618	75.7581
888.297	75.7884
889.974	76.0332
891.653	75.0245
893.329	73.5413
895.007	74.1937
896.683	73.6132
898.36	74.515
900.035	75.2355
901.712	74.0754
903.387	72.0505
905.063	71.6116
906.737	72.2091
908.412	73.1654
910.085	74.6466
911.76	74.8804
913.433	75.4836
915.107	76.0986
916.779	75.0662
918.452	74.8055
920.124	74.2313
921.797	74.2791
923.467	75.019
925.138	74.8794
926.81	74.0571
928.48	73.3581
930.151	72.6708
931.82	72.0608
933.489	71.7407
935.16	71.6643
936.828	71.1572
938.496	70.653
940.165	68.9
941.833	66.4052
943.5	64.2167
945.168	62.8103
946.834	59.9858
948.5	59.4756
950.168	58.8408
951.834	56.6375
953.499	53.3932
955.163	51.8437
956.83	49.9143
958.494	47.1647
960.158	44.4851
961.821	43.3998
963.487	42.2713
965.15	41.7383
966.812	41.9548
968.474	42.225
970.138	42.1344
971.8	43.0967
973.461	43.278
975.123	42.5334
976.783	42.9855
978.446	43.688
980.106	43.6152
981.766	44.189
983.425	44.5059
985.084	44.8951
986.743	45.7798
988.402	47.4178
990.06	48.1439
991.72	49.2508
993.378	50.3652
995.035	51.5549
996.692	52.033
998.349	52.0832
1000.01	51.7334
1001.66	53.503
1003.32	53.9294
1004.97	55.9338
1006.63	57.9925
1008.28	58.4577
1009.94	59.6474
1011.59	61.1533
1013.25	62.8538
1014.9	64.5437
1016.55	65.2201
1018.21	64.9777
1019.86	65.2106
1021.51	65.2146
1023.16	65.3406
1024.81	67.0379
1026.47	69.0151
1028.12	70.5095
1029.77	71.6258
1031.42	74.3851
1033.07	74.0927
1034.72	74.3473
1036.37	74.8301
1038.02	76.6176
1039.67	77.731
1041.31	79.6415
1042.96	83.0857
1044.61	85.925
1046.26	88.7898
1047.91	90.611
1049.55	92.6743
1051.2	93.2074
1052.84	95.3634
1054.49	96.7808
1056.14	95.1301
1057.78	94.8339
1059.43	94.8758
1061.07	93.7952
1062.72	93.8148
1064.36	92.9995
1066	93.1771
1067.65	93.4188
1069.29	91.2903
1070.93	90.5862
1072.58	89.3372
1074.22	89.2305
1075.86	87.672
1077.5	86.8053
1079.14	85.0044
1080.78	83.4908
1082.42	81.5609
1084.06	79.6768
1085.7	77.2846
1087.34	76.0171
1088.98	74.7347
1090.62	72.9377
1092.26	73.4293
1093.9	72.8264
1095.54	73.3409
1097.17	73.6259
1098.81	73.2412
1100.45	73.235
1102.09	75.4196
1103.72	76.0075
1105.36	76.5417
1106.99	78.3828
1108.63	77.6948
1110.27	76.7133
1111.9	76.5648
1113.53	76.6951
1115.17	75.1192
1116.8	75.2605
1118.43	75.6682
1120.07	75.3736
1121.7	74.6296
1123.33	73.2971
1124.97	72.1162
1126.6	68.9788
1128.23	67.4085
1129.86	64.8418
1131.49	63.4579
1133.12	61.1691
1134.75	59.922
1136.38	55.9703
1138.01	52.9724
1139.64	50.8818
1141.27	48.4529
1142.9	46.4238
1144.53	45.0394
1146.16	44.137
1147.78	41.7652
1149.41	39.2837
1151.04	35.0458
1152.67	33.5622
1154.29	30.7771
1155.92	27.5616
1157.54	24.4833
1159.17	20.9701
1160.8	17.6772
1162.42	15.0951
1164.05	12.1431
1165.67	11.1996
1167.29	10.1092
1168.92	9.71207
1170.54	9.81088
1172.16	10.0824
1173.79	10.4965
1175.41	11.2391
1177.03	11.5563
1178.65	11.951
1180.28	11.9437
1181.9	11.5676
1183.52	12.6322
1185.14	11.8147
1186.76	13.3449
1188.38	13.0643
1190	12.4093
1191.62	13.534
1193.24	14.2651
1194.86	14.3926
1196.47	14.5644
1198.09	15.5419
1199.71	16.7267
1201.33	17.9009
1202.95	19.523
1204.56	21.47
1206.18	23.0425
1207.8	25.1965
1209.41	27.4074
1211.03	30.5072
1212.64	32.4504
1214.26	34.2587
1215.87	37.6944
1217.49	40.2961
1219.1	43.0766
1220.71	45.3767
1222.33	48.4289
1223.94	51.3499
1225.55	54.3179
1227.16	56.1929
1228.78	57.4943
1230.39	59.2604
1232	61.3142
1233.61	63.6251
1235.22	65.1982
1236.83	66.3569
1238.44	69.3007
1240.05	71.8364
1241.66	74.8062
1243.27	77.5157
1244.88	80.1716
1246.49	83.2154
1248.1	85.1138
1249.71	86.635
1251.32	87.486
1252.92	88.8005
1254.53	89.8324
1256.14	92.6921
1257.74	94.2927
1259.35	98.0299
1260.96	100.981
1262.56	104.661
1264.17	108.843
1265.77	112.147
1267.38	117.356
1268.98	120.243
1270.59	125.023
1272.19	129.25
1273.79	133.616
1275.4	138.367
1277	142.358
1278.6	146.944
1280.21	150.637
1281.81	154.913
1283.41	158.658
1285.01	161.169
1286.61	163.708
1288.21	167.287
1289.81	168.754
1291.41	171.43
1293.01	173.112
1294.61	173.886
1296.21	174.759
1297.81	175.709
1299.41	176.672
1301.01	176.541
1302.6	176.519
1304.2	176.227
1305.8	175.352
1307.4	173.69
1308.99	172.427
1310.59	171.487
1312.19	169.337
1313.78	167.664
1315.38	164.354
1316.97	161.983
1318.57	160.54
1320.16	156.928
1321.76	153.899
1323.35	150.756
1324.94	146.816
1326.54	141.748
1328.13	137.436
1329.72	132.632
1331.32	128.8
1332.91	126.179
1334.5	124.105
1336.09	122.704
1337.68	120.431
1339.27	119.601
1340.87	117.808
1342.45	115.508
1344.04	113.395
1345.64	111.388
1347.22	110.35
1348.81	107.87
1350.4	106.582
1351.99	104.658
1353.58	102.962
1355.17	100.04
1356.75	97.1152
1358.34	95.765
1359.93	94.1058
1361.51	93.5076
1363.1	93.0385
1364.69	90.808
1366.27	89.936
1367.86	89.2084
1369.44	87.5177
1371.03	86.6658
1372.61	85.6234
1374.2	84.5986
1375.78	84.8489
1377.37	85.9418
1378.95	84.9389
1380.53	83.7167
1382.11	83.5375
1383.7	83.7208
1385.28	83.8758
1386.86	84.5821
1388.44	85.1949
1390.02	85.3542
1391.6	84.0331
1393.19	84.1138
1394.77	82.4682
1396.35	84.6004
1397.93	85.1532
1399.51	85.994
1401.08	88.1534
1402.66	90.545
1404.24	95.0639
1405.82	100.831
1407.4	107.008
1408.97	113.657
1410.55	121.605
1412.13	129.935
1413.71	138.284
1415.28	147.659
1416.86	157.516
1418.43	166.639
1420.01	175.936
1421.59	185.771
1423.16	195.714
1424.73	206.226
1426.31	216.544
1427.88	226.179
1429.46	235.817
1431.03	245.256
1432.6	255.219
1434.18	264.31
1435.75	272.575
1437.32	280.845
1438.89	286.957
1440.46	292.8
1442.04	297.412
1443.61	300.335
1445.18	303.296
1446.75	305.153
1448.32	305.2
1449.89	304.48
1451.46	302.037
1453.03	298.767
1454.6	293.98
1456.16	288.604
1457.73	280.673
1459.3	272.715
1460.87	264.176
1462.44	254.15
1464	243.44
1465.57	231.18
1467.14	218.142
1468.7	204.538
1470.27	192.974
1471.83	180.301
1473.4	169.093
1474.96	158.423
1476.53	147.211
1478.09	137.542
1479.66	128.572
1481.22	119.658
1482.78	111.341
1484.35	102.517
1485.91	94.4362
1487.47	88.199
1489.04	80.433
1490.6	73.2245
1492.16	66.7377
1493.72	61.0971
1495.28	56.4955
1496.84	51.7337
1498.4	48.83
1499.96	45.2416
1501.52	41.7005
1503.08	39.9093
1504.64	37.5383
1506.2	36.2319
1507.76	34.9798
1509.32	34.1865
1510.88	33.3321
1512.44	32.8057
1513.99	31.2248
1515.55	30.6029
1517.11	29.4972
1518.66	29.337
1520.22	29.584
1521.78	28.6431
1523.33	28.4989
1524.89	27.5832
1526.44	27.1801
1528	27.3971
1529.55	27.7557
1531.11	28.7656
1532.66	29.6569
1534.21	29.3502
1535.77	29.3912
1537.32	30.9562
1538.87	31.9379
1540.43	32.3777
1541.98	33.9262
1543.53	35.7149
1545.08	37.4565
1546.63	39.5472
1548.18	42.0838
1549.74	42.492
1551.29	44.1194
1552.84	45.2431
1554.39	46.5683
1555.94	48.3659
1557.48	49.9566
1559.03	50.7712
1560.58	52.5085
1562.13	53.9182
1563.68	56.0675
1565.23	57.9244
1566.78	59.1739
1568.32	62.339
1569.87	64.7774
1571.42	67.5312
1572.96	69.9618
1574.51	71.8259
1576.05	73.2764
1577.6	74.7828
1579.14	77.5119
1580.69	79.6624
1582.24	81.3461
1583.78	83.8597
1585.32	84.2496
1586.87	85.6672
1588.41	86.667
1589.95	88.3966
1591.5	88.2748
1593.04	88.9014
1594.58	89.8788
1596.12	90.6975
1597.67	91.1028
1599.21	90.1359
1600.75	91.0283
1602.29	91.2218
1603.83	92.1113
1605.37	93.2811
1606.91	94.1762
1608.45	94.1213
1609.99	94.3868
1611.53	92.784
1613.07	94.2139
1614.6	94.9143
1616.14	95.7259
1617.68	96.3886
1619.22	97.7625
1620.75	99.1959
1622.29	100.113
1623.83	101.088
1625.37	102.026
1626.9	103.24
1628.44	104.017
1629.97	105.457
1631.51	107.923
1633.04	109.896
1634.58	111.14
1636.11	113.107
1637.65	115.567
1639.18	117.922
1640.72	121.03
1642.25	123.612
1643.78	125.753
1645.31	128.104
1646.85	129.381
1648.38	131.115
1649.91	133.186
1651.44	135.149
1652.97	136.896
1654.5	138.314
1656.03	138.613
1657.56	137.874
1659.1	138.48
1660.62	137.727
1662.15	136.475
1663.68	136.058
1665.21	134.369
1666.74	131.956
1668.27	128.834
1669.8	126.082
1671.32	123.093
1672.85	119.415
1674.38	115.722
1675.91	112.229
1677.43	109.326
1678.96	105.759
1680.49	100.709
1682.01	96.3115
1683.54	92.126
1685.06	86.8872
1686.59	82.1213
1688.11	78.1304
1689.64	75.427
1691.16	71.0117
1692.68	67.4595
1694.21	62.8794
1695.73	58.7896
1697.25	54.5987
1698.78	51.4934
1700.3	48.4905
1701.82	45.379
1703.34	42.7121
1704.86	40.4551
1706.39	38.8485
1707.91	36.7401
1709.43	34.4133
1710.95	33.3287
1712.47	33.0216
1713.99	32.5738
1715.51	31.5618
1717.02	30.7426
1718.54	30.0328
1720.06	29.2944
1721.58	29.4815
1723.1	29.2072
1724.62	29.4289
1726.13	30.3154
1727.65	30.0365
1729.17	29.8602
1730.68	29.3288
1732.2	28.8211
1733.72	29.6045
1735.23	29.8683
1736.75	29.668
1738.26	29.7946
1739.78	29.4868
1741.29	28.7691
1742.81	28.1678
1744.32	27.7603
1745.84	26.6423
1747.35	25.5307
1748.86	24.8198
1750.37	23.8563
1751.89	22.3756
1753.4	20.9908
1754.91	19.4856
1756.42	17.0922
1757.93	16.7701
1759.45	16.3143
1760.96	14.9407
1762.47	13.8828
1763.98	13.193
1765.49	11.5893
1767	10.1599
1768.51	9.42188
1770.02	8.35321
1771.53	7.63398
1773.03	7.76084
1774.54	7.9556
1776.05	7.36227
1777.56	6.60412
1779.07	6.06909
1780.57	5.50406
1782.08	5.07031
1783.59	4.76434
1785.09	5.50899
1786.6	5.80893
1788.11	5.74706
1789.61	5.53855
1791.12	4.97749
1792.62	3.98601
1794.13	3.99339
1795.63	3.82803
1797.13	4.02631
1798.64	4.85167
1800.14	5.07725
1801.65	5.66238
1803.15	5.68044
1804.65	5.713
1806.15	5.47273
1807.66	5.36369
1809.16	5.25521
1810.66	5.2738
1812.16	5.55715
1813.66	4.67843
1815.16	4.32283
1816.66	3.38855
1818.16	3.00935
1819.66	2.4794
1821.16	2.25592
1822.66	2.19696
1824.16	1.63738
1825.66	1.47239
1827.16	1.21829
1828.66	0.884875
1830.16	0.793333
1831.65	0.569877
1833.15	1.08019
1834.65	1.34286
1836.14	1.16456
1837.64	0.99761
1839.14	1.13514
1840.63	1.77851
1842.13	1.67271
1843.62	2.06206
1845.12	1.98496
1846.61	2.07882
1848.11	2.34126
1849.6	1.63015
1851.1	2.24267
1852.59	1.6139
1854.08	0.829729
1855.58	1.22414
1857.07	1.71955
1858.56	2.08237
1860.05	2.24852
1861.55	1.96733
1863.04	2.12728
1864.53	2.61956
1866.02	2.11827
1867.51	2.111
1869	2.94361
1870.49	3.63504
1871.98	3.87425
1873.47	3.78702
1874.96	3.43396
1876.45	2.94809
1877.94	1.99944
1879.43	1.71615
1880.92	1.56822
1882.41	2.18175
1882.51	2.32597
1884	3.49674
1885.5	3.57957
1886.99	3.4375
1888.48	3.54716
1889.98	3.52656
1891.47	4.08922
1892.96	4.65985
1894.46	5.02028
1895.95	5.04965
1897.44	4.97022
1898.93	5.13241
1900.42	4.77701
1901.91	5.23821
1903.41	6.3504
1904.9	6.76881
1906.39	7.75324
1907.88	7.34617
1909.37	7.31337
1910.86	7.0055
1912.35	7.49095
1913.83	7.48906
1915.32	7.06841
1916.81	8.35614
1918.3	8.30806
1919.79	8.45366
1921.27	8.53922
1922.76	8.95167
1924.25	9.51049
1925.74	8.75712
1927.22	9.04359
1928.71	9.18873
1930.19	9.33032
1931.68	8.61575
1933.17	8.04892
1934.65	7.946
1936.14	7.78946
1937.62	7.09231
1939.11	6.12806
1940.59	6.27169
1942.07	6.47621
1943.56	5.77083
1945.04	4.12587
1946.52	3.87765
1948.01	3.5185
1949.49	2.34096
1950.97	2.45301
1952.45	2.6649
1953.93	2.45737
1955.42	2.31262
1956.9	1.86326
1958.38	1.76394
1959.86	1.16866
1961.34	0.956301
1962.82	0.321599
1964.3	0.0398115
1965.78	-0.267396
1967.26	0.0217138
1968.74	-0.73993
1970.21	-0.744874
1971.69	-0.65614
1973.17	-1.02437
1974.65	-0.437757
1976.13	0.464974
1977.6	0.850826
1979.08	0.747504
1980.56	0.703164
1982.03	0.290258
1983.51	0.0233379
1984.99	0.158561
1986.46	0.928264
1987.94	1.26796
1989.41	2.50464
1990.89	3.40949
1992.36	3.21136
1993.84	3.61404
1995.31	3.5446
1996.78	3.06246
1998.26	2.79979
1999.73	2.83801
2001.2	2.92448
2002.68	2.3389
2004.15	2.78918
2005.62	2.74287
2007.09	3.38746
2008.56	3.51013
2010.04	3.13228
2011.51	3.66041
2012.98	4.36725
2014.45	4.45739
2015.92	4.55539
2017.39	3.39842
2018.86	3.11819
2020.33	3.24375
2021.8	2.49731
2023.26	3.19266
2024.73	3.54804
2026.2	3.54466
2027.67	3.70993
2029.14	3.93968
2030.61	3.68361
2032.07	4.81766
2033.54	5.31785
2035.01	5.07287
2036.47	5.1517
2037.94	5.58247
2039.4	5.62232
2040.87	6.55349
2042.33	6.314
2043.8	7.11081
2045.27	6.81267
2046.73	6.87423
2048.19	6.95141
2049.66	6.35896
2051.12	5.65441
2052.59	6.10577
2054.05	5.32266
2055.51	5.11203
2056.97	4.79243
2058.44	5.90304
2059.9	5.98337
2061.36	6.46916
2062.82	6.92528
2064.28	6.42907
2065.74	6.51296
2067.21	6.71712
2068.67	6.13973
2070.13	5.72725
2071.59	6.38164
2073.05	6.06523
2074.51	5.79493
2075.96	5.51253
2077.42	6.63974
2078.88	6.92261
2080.34	6.9421
2081.8	7.02116
2083.26	7.47371
2084.72	8.23018
2086.17	7.95777
2087.63	7.46047
2089.09	8.00538
2090.54	8.41365
2092	9.59881
2093.45	10.7451
2094.91	11.5995
2096.37	12.7754
2097.82	13.2745
2099.28	14.0275
2100.73	14.296
2102.19	14.8139
2103.64	14.7335
2105.09	15.4864
2106.55	15.3414
2108	15.6592
2109.45	16.9028
2110.91	17.6884
2112.36	18.1754
2113.81	18.5485
2115.26	19.2099
2116.72	20.2599
2118.17	20.8948
2119.62	21.7622
2121.07	21.8887
2122.52	22.7817
2123.97	24.6689
2125.42	26.3942
2126.87	27.102
2128.32	28.9411
2129.77	31.1065
2131.22	32.7943
2132.67	33.8505
2134.11	36.2589
2135.56	38.2735
2137.01	39.8964
2138.46	41.6708
2139.91	43.6383
2141.35	44.8787
2142.8	47.1787
2144.25	49.7296
2145.7	51.2965
2147.14	53.4858
2148.59	56.2071
2150.03	58.081
2151.48	59.04
2152.92	60.9004
2154.37	63.5818
2155.81	65.9573
2157.26	67.5643
2158.7	69.613
2160.15	72.0486
2161.59	73.7665
2163.03	75.8187
2164.47	76.8218
2165.92	77.465
2167.36	78.2575
2168.8	79.7652
2170.24	80.1541
2171.69	79.791
2173.13	80.3235
2174.57	81.1492
2176.01	81.4378
2177.45	81.5171
2178.89	81.9016
2180.33	81.6689
2181.77	81.232
2183.21	79.8828
2184.65	78.676
2186.09	77.0073
2187.53	75.8717
2188.97	74.2789
2190.4	72.9292
2191.84	71.7905
2193.28	70.1903
2194.72	69.448
2196.16	67.9576
2197.59	66.0022
2199.03	64.4163
2200.47	62.6964
2201.9	61.3414
2203.34	59.5958
2204.77	58.0565
2206.21	56.6178
2207.64	53.7539
2209.08	51.6504
2210.51	50.1371
2211.95	48.917
2213.38	46.4919
2214.82	44.1673
2216.25	42.2962
2217.68	40.5401
2219.12	38.6301
2220.55	37.1686
2221.98	35.2038
2223.41	34.1845
2224.85	33.6051
2226.28	32.9373
2227.71	31.4917
2229.14	30.7147
2230.57	29.8586
2232	28.1253
2233.43	25.61
2234.86	24.9932
2236.29	23.2714
2237.72	22.8168
2239.15	22.6348
2240.58	21.579
2242.01	19.9455
2243.44	19.3675
2244.87	19.3455
2246.29	18.6481
2247.72	17.4473
2249.15	16.1376
2250.58	15.2155
2252.01	13.5939
2253.43	12.7294
2254.86	11.9353
2256.29	11.4999
2257.71	10.8187
2259.14	10.13
2260.56	10.3416
2261.99	10.2183
2263.41	9.54916
2264.84	8.74378
2266.26	8.32111
2267.69	7.76878
2269.11	7.86538
2270.53	7.3153
2271.96	7.25077
2273.38	7.04894
2274.8	6.57003
2276.23	6.14923
2277.65	5.3546
2279.07	4.53828
2280.49	4.30487
2281.91	4.33282
2283.34	3.92107
2284.76	3.84265
2286.18	4.56389
2287.6	5.67428
2289.02	5.78272
2290.44	6.07782
2291.86	6.04976
2293.28	5.2692
2294.7	5.78084
2296.12	5.94356
2297.54	6.61006
2298.96	6.58537
2300.37	6.88939
2301.79	5.75228
2303.21	5.89176
2304.63	6.36472
2306.04	7.5565
2307.46	7.65454
2308.88	7.78961
2310.3	7.48089
2311.71	7.43674
2313.13	7.56791
2314.54	7.39142
2315.96	7.24806
2317.37	7.39776
2318.79	7.41778
2320.2	6.6231
2321.62	6.59449
2323.03	6.51731
2324.45	6.51711
2325.86	5.66387
2327.27	5.69939
2328.69	5.02119
2330.1	4.66067
2331.51	4.80577
2332.92	4.78388
2334.34	4.88636
2335.75	5.14104
2337.16	4.62288
2338.57	4.20907
2339.98	3.47923
2341.39	3.40226
2342.8	3.39229
2344.21	2.50678
2345.63	2.48323
2347.04	1.81944
2348.45	0.984394
2349.85	1.14201
2351.26	1.64701
2352.67	2.78961
2354.08	2.54457
2355.49	2.45336
2356.9	1.89094
2358.3	1.26872
2359.71	1.17824
2361.12	1.16452
2362.53	1.27941
2363.93	1.28382
2365.34	2.40457
2366.75	2.11018
2368.15	1.67554
2369.56	1.65887
2370.97	1.87896
2372.37	1.4208
2373.77	2.38949
2375.18	2.18351
2376.59	1.98154
2377.99	1.39867
2379.39	1.22053
2380.8	1.58115
2382.2	1.31995
2383.6	1.20731
2385.01	1.08906
2386.41	1.92622
2387.81	1.94433
2389.21	1.35739
2390.62	0.944662
2392.02	0.853522
2393.42	0.0765196
2394.82	0.224899
2396.22	0.456201
2397.62	2.06634
2399.02	1.95672
2400.42	2.08084
2401.82	2.73806
2403.22	2.99849
2404.62	3.56269
2406.02	4.2885
2407.42	4.59345
2408.82	5.1397
2410.22	5.95487
2411.62	6.37716
2413.01	6.70004
2414.41	6.92678
2415.81	8.1888
2417.21	8.96327
2418.6	9.66862
2420	10.3768
2421.4	10.4973
2422.79	10.492
2424.19	10.3217
2425.59	11.2624
2426.98	12.1527
2428.38	13.0447
2429.77	13.7155
2431.17	13.835
2432.56	14.7393
2433.95	14.4492
2435.35	14.4982
2436.74	14.4722
2438.14	13.9356
2439.53	14.3117
2440.92	13.9031
2442.31	13.3293
2443.71	13.1686
2445.1	12.4832
2446.49	12.3372
2447.88	12.2332
2449.27	12.2803
2450.67	11.6442
2452.06	10.4604
2453.45	10.1063
2454.84	8.95216
2456.23	8.07281
2457.62	6.9266
2459.01	6.40372
2460.4	5.83607
2461.79	4.99783
2463.18	5.15569
2464.57	5.3809
2465.95	4.7765
2467.34	5.02667
2468.73	3.9997
2470.12	4.24002
2471.5	4.26082
2472.89	4.26758
2474.28	5.04023
2475.67	5.14347
2477.05	4.16746
2478.44	3.44081
2479.82	3.42671
2481.21	3.39927
2482.6	3.70913
2483.98	3.86117
2485.37	3.98391
2486.75	3.32906
2488.13	2.76701
2489.52	2.44932
2490.9	2.16608
2492.29	2.37952
2493.67	2.57556
2495.05	2.65749
2496.44	2.54095
2497.82	2.15084
2499.2	2.15287
2500.58	2.17759
2501.97	1.82952
2503.35	0.860593
2504.73	0.659704
2506.11	0.279382
2507.49	-0.13038
2508.87	-0.545869
2510.25	-0.770329
2511.63	-0.962875
2513.01	-0.732767
2514.39	-0.892032
2515.77	-1.25417
2517.15	-0.758546
2518.53	-1.09849
2519.91	-1.0164
2521.29	-1.24662
2522.67	-0.757138
2524.05	-0.544237
2525.42	-0.114779
2526.8	0.406723
2528.18	0.567861
2529.55	1.26542
2530.93	1.82123
2532.31	2.1854
2533.69	2.76523
2535.06	2.85105
2536.44	3.68402
2537.81	4.11661
2539.19	5.13029
2540.56	4.79666
2541.94	5.6321
2543.31	5.6319
2544.69	5.51941
2546.06	5.03801
2547.44	5.54654
2548.81	6.38127
2550.18	6.25918
2551.56	6.49237
2552.93	6.60814
2554.3	6.41433
2555.67	6.19384
2557.04	6.60141
2558.42	6.29133
2559.79	6.57842
2561.16	6.97735
2562.53	7.04769
2563.9	6.91435
2565.27	7.20683
2566.64	7.31911
2568.01	7.70641
2569.38	7.44489
2570.75	6.87349
2572.12	7.32247
2573.49	7.68733
2574.86	7.07688
2576.23	7.18931
2577.6	7.03435
2578.97	7.58255
2580.33	7.57009
2581.7	7.75114
2583.07	8.22544
2584.44	8.9324
2585.8	9.4841
2587.17	9.35093
2588.54	9.56671
2589.9	9.39049
2591.27	9.81259
2592.64	9.94338
2594	10.4133
2595.37	10.8034
2596.73	10.7782
2598.1	11.4763
2599.46	10.8425
2600.83	10.6737
2602.19	11.2557
2603.55	10.8131
2604.92	11.6999
2606.28	12.2543
2607.64	12.7819
2609.01	12.0754
2610.37	12.2628
2611.73	12.418
2613.09	12.5487
2614.46	13.1119
2615.82	13.1734
2617.18	13.1544
2618.54	13.0297
2619.9	13.5664
2621.26	13.3848
2622.62	13.104
2623.98	13.1228
2625.34	13.231
2626.7	13.3678
2628.06	13.7981
2629.42	13.961
2630.78	13.6042
2632.14	13.2519
2633.5	13.0778
2634.86	12.9581
2636.21	12.6536
2637.57	12.6024
2638.93	12.9278
2640.29	13.6704
2641.64	13.502
2643	13.6989
2644.36	13.8002
2645.71	13.6633
2647.07	14.0402
2648.43	13.9229
2649.78	14.0673
2651.14	13.8578
2652.49	13.7149
2653.85	13.7154
2655.2	14.342
2656.56	14.2074
2657.91	14.4723
2659.26	14.3327
2660.62	14.0353
2661.97	14.563
2663.32	14.3156
2664.68	14.2245
2666.03	14.0437
2667.38	13.3515
2668.74	13.7961
2670.09	14.0746
2671.44	14.6522
2672.79	15.3088
2674.14	15.6961
2675.49	15.5249
2676.84	15.4253
2678.19	16.2269
2679.54	16.7675
2680.89	16.9129
2682.24	16.9586
2683.59	17.3274
2684.94	17.8618
2686.29	18.6057
2687.64	18.9211
2688.99	19.0641
2690.34	19.2647
2691.69	20.5119
2693.03	20.5027
2694.38	21.5924
2695.73	22.8096
2697.08	23.2249
2698.42	24.2759
2699.77	25.3122
2701.12	26.7862
2702.46	28.5727
2703.81	30.3479
2705.15	32.474
2706.5	33.9405
2707.85	34.7229
2709.19	35.5001
2710.54	36.9713
2711.88	37.6539
2713.22	38.3427
2714.57	39.693
2715.91	40.5222
2717.26	41.2082
2718.6	41.7758
2719.94	42.8036
2721.29	43.4224
2722.63	43.1978
2723.97	42.788
2725.31	42.5557
2726.66	42.1496
2728	42.1093
2729.34	42.0065
2730.68	41.1686
2732.02	40.5097
2733.36	39.5352
2734.7	38.2664
2736.04	37.461
2737.38	35.8422
2738.72	34.4355
2740.06	32.4611
2741.4	30.8104
2742.74	29.3809
2744.08	27.6438
2745.42	25.1253
2746.76	23.3518
2748.09	21.5614
2749.43	19.8427
2750.77	18.2122
2752.11	15.9523
2753.45	14.3547
2754.78	12.4886
2756.12	11.2194
2757.46	9.77654
2758.79	8.69699
2760.13	7.7711
2761.46	7.27436
2762.8	6.2723
2764.14	4.94592
2765.47	4.30487
2766.8	3.8698
2768.14	3.68569
2769.47	3.70045
2770.81	3.9955
2772.14	3.82556
2773.48	2.92019
2774.81	2.6709
2776.14	2.07489
2777.48	2.31848
2778.81	2.31453
2780.14	2.22403
2781.47	2.29021
2782.8	3.08194
2784.14	3.34281
2785.47	4.22439
2786.8	4.66847
2788.13	5.69618
2789.46	5.69595
2790.79	6.32317
2792.12	7.26386
2793.45	7.939
2794.78	7.63869
2796.11	7.3943
2797.44	8.0891
2798.77	7.43923
2800.1	6.87005
2801.43	6.06186
2802.76	5.69961
2804.09	4.26294
2805.41	2.90522
2806.74	1.08935
2808.07	-0.422424
2809.4	-2.17166
2810.72	-3.89788
2812.05	-4.90723
2813.38	-4.01322
2814.71	-2.82976
2816.03	0.848888
2817.36	6.19387
2818.68	14.0066
2820.01	24.542
2821.33	36.8816
2822.66	50.2134
2823.98	66.3984
2825.31	83.0959
2826.63	100.699
2827.96	118.907
2829.28	139.212
2830.6	160.238
2831.93	182.115
2833.25	204.152
2834.57	225.809
2835.9	247.884
2837.22	269.618
2838.54	291.367
2839.86	312.645
2841.18	333.866
2842.5	355.33
2843.83	376.793
2845.15	397.499
2846.47	417.81
2847.79	438.086
2849.11	460.688
2850.43	482.943
2851.75	505.705
2853.07	528.667
2854.39	551.199
2855.71	572.279
2857.03	592.375
2858.35	610.788
2859.66	627.8
2860.98	642.996
2862.3	657.8
2863.62	670.063
2864.94	679.63
2866.25	687.812
2867.57	694.53
2868.89	699.641
2870.2	703.128
2871.52	705.551
2872.84	708.806
2874.15	710.878
2875.47	712.441
2876.78	714.711
2878.1	718.393
2879.41	721.637
2880.73	725.109
2882.04	729.678
2883.36	733.75
2884.67	738.494
2885.99	742.768
2887.3	745.308
2888.61	747.71
2889.93	751.302
2891.24	751.712
2892.55	753.139
2893.86	754.493
2895.18	755.534
2896.49	755.099
2897.8	754.961
2899.11	753.432
2900.42	752.591
2901.73	751.029
2903.05	751.78
2904.36	751.536
2905.67	752.467
2906.98	754.351
2908.29	757.511
2909.6	761.181
2910.91	766.913
2912.21	773.782
2913.52	781.537
2914.83	790.749
2916.14	798.626
2917.45	806.299
2918.76	812.873
2920.07	816.476
2921.37	819.578
2922.68	820.76
2923.99	821.634
2925.29	821.311
2926.6	818.701
2927.91	814.802
2929.22	809.334
2930.52	804.171
2931.83	797.991
2933.13	791.246
2934.44	782.523
2935.74	773.892
2937.05	763.905
2938.35	752.792
2939.66	739.126
2940.96	725.751
2942.26	711.936
2943.57	696.918
2944.87	680.54
2946.18	664.47
2947.48	648.576
2948.78	631.289
2950.08	613.131
2951.39	594.738
2952.69	575.249
2953.99	557.616
2955.29	539.246
2956.59	520.516
2957.9	502.838
2959.2	484.667
2960.5	466.899
2961.8	449.139
2963.1	432.367
2964.4	414.925
2965.7	399.745
2967	384.978
2968.3	371.482
2969.6	356.898
2970.9	344.302
2972.19	331.233
2973.49	318.769
2974.79	306.622
2976.09	294.431
2977.39	282.418
2978.68	270.235
2979.98	258.428
2981.28	246.761
2982.58	235.487
2983.87	223.185
2985.17	210.551
2986.47	199.289
2987.76	187.451
2989.06	176.217
2990.35	164.741
2991.65	153.668
2992.94	143.557
2994.24	134.286
2995.53	125.916
2996.83	116.385
2998.12	107.423
2999.42	98.3308
3000.71	90.9855
3002	82.5994
3003.3	74.6485
3004.59	67.9128
3005.88	61.8208
3007.18	56.5421
3008.47	50.6641
3009.76	45.6339
3011.05	40.2494
3012.34	35.7107
3013.64	30.8391
3014.93	26.1755
3016.22	22.9444
3017.51	19.2563
3018.8	17.1624
3020.09	14.1507
3021.38	11.7243
3022.67	9.38223
3023.96	7.35578
3025.25	5.66512
3026.54	3.94735
3027.83	1.93971
3029.12	0.562455
3030.41	-0.189032
3031.69	-0.95333
3032.98	-1.46997
3034.27	-1.82992
3035.56	-2.17476
3036.84	-2.08328
3038.13	-1.73001
3039.42	-0.764265
3040.71	0.111137
3041.99	1.46017
3043.28	2.57111
3044.57	3.42241
3045.85	4.13971
3047.14	4.65628
3048.42	4.65062
3049.71	4.97451
3050.99	5.83052
3052.28	5.71847
3053.56	6.28729
3054.85	6.84253
3056.13	6.97941
3057.41	6.76586
3058.7	7.14052
3059.98	7.47836
3061.26	6.88753
3062.55	6.85247
3063.83	6.7269
3065.11	7.43469
3066.39	7.27759
3067.68	7.29913
3068.96	7.50545
3070.24	7.65747
3071.52	6.8581
3072.8	6.40928
3074.08	6.20317
3075.36	5.85464
3076.65	5.5835
3077.93	4.93505
3079.21	3.83552
3080.49	3.99484
3081.77	3.58338
3083.04	2.58705
3084.32	1.80472
3085.6	1.55002
3086.88	1.72114
3088.16	1.32606
3089.44	1.52657
3090.72	1.79719
3091.99	1.8463
3093.27	2.41377
3094.55	3.43103
3095.83	4.77507
3097.1	5.30179
3098.38	5.98513
3099.66	7.08736
3100.93	8.38336
3102.21	9.65127
3103.49	11.4529
3104.76	12.1522
3106.04	13.2583
3107.31	14.8117
3108.59	15.512
3109.86	16.5652
3111.14	17.7983
3112.41	18.9776
3113.69	20.0179
3114.96	21.1833
3116.23	21.7298
3117.51	23.4606
3118.78	24.9204
3120.05	26.2191
3121.33	28.0059
3122.6	30.4392
3123.87	32.0621
3125.14	33.6507
3126.41	35.5952
3127.69	37.9347
3128.96	40.3477
3130.23	42.3153
3131.5	44.243
3132.77	46.1147
3134.04	47.9203
3135.31	49.5443
3136.58	52.4016
3137.85	53.954
3139.12	55.8553
3140.39	58.2501
3141.66	60.6029
3142.93	63.1389
3144.2	66.0094
3145.47	69.3138
3146.74	73.7161
3148	77.6045
3149.27	81.4703
