#Acq. time (s)=	45
#Accumulations=	2
#Range (cm-¹)=	200...3150
#Windows=	2
#Auto scanning=	Off
#Autofocus=	Off
#Macrospot=	Off
#AutoExposure=	Off
#Spike filter=	Multiple accum.
#Delay time (s)=	0
#Binning=	1
#Readout mode=	Signal
#DeNoise=	Off
#ICS correction=	On
#Dark correction=	Off
#Inst. Process=	Off
#Detector Gain=	Best Dynamic Range
#Detector ADC=	20 kHz       
#Detector temperature (°C)=	-69.85
#Instrument=	LabRAM HR Evol
#Detector=	Synapse
#Objective=	x100
#Grating=	600 gr/mm
#ND Filter=	100%
#Laser (nm)=	532 
#Hole=	100.021
#Range=	Auto
#Laser Pol.=	No
#Raman. Pol.=	No
#Laser Pol. (°)=	-0.0007625
#Raman Pol. (°)=	89.9995
#Collection=	Microscope
#StageXY=	Marzhauser
#StageZ=	Marzhauser
#X (µm)=	-807.5
#Y (µm)=	2699.5
#Z (µm)=	584.6
#Full time(mm:ss)=	3:19
#Project=	
#Sample=	
#Site=	
#Title=	Mb_20_x_04_2x_45s_532 nm_x100_100%_600 gr_mm
#Remark=	
#Date=	18.07.2022 14:43
#Acquired=	18.07.2022 14:43:11
#Edit:Spike=	18.07.2022 14:47:47
#Base:Fit=	16.08.2022 10:28:40
#Base:Fit=	16.08.2022 10:28:53
#Base:Fit=	16.08.2022 10:29:09
#Base:Fit=	16.08.2022 10:29:17
#Base:Fit=	16.08.2022 10:29:25
#Base:Fit=	16.08.2022 10:29:33
#Base:Sub=	16.08.2022 10:29:38
#Filter:Polynom=	16.08.2022 10:30:49
#AxisType[0]=Intens
#AxisUnit[0]=Cnt
#AxisType[1]=Spectr
#AxisUnit[1]=1/cm
200.419	-2.52239
202.234	-1.19131
204.048	0.0544184
205.862	0.580431
207.678	0.448236
209.491	-0.194286
211.304	-0.529129
213.116	-1.30948
214.928	-0.434506
216.742	0.0964279
218.554	0.323216
220.365	0.180873
222.176	-0.0608203
223.986	1.4381
225.798	1.48625
227.608	2.04834
229.417	3.30346
231.226	4.6869
233.035	7.16047
234.843	8.07593
236.653	8.95235
238.46	10.3075
240.268	10.9816
242.074	12.3459
243.881	13.1795
245.687	14.5696
247.493	16.1323
249.298	17.4181
251.103	18.2301
252.908	19.6221
254.715	20.1838
256.519	22.0733
258.322	23.9848
260.126	23.9181
261.929	25.8154
263.731	26.6624
265.534	26.9396
267.336	27.0435
269.137	29.423
270.938	30.0739
272.739	30.9539
274.54	32.982
276.34	33.9601
278.14	35.4215
279.939	36.888
281.739	37.3495
283.537	38.1444
285.336	39.5607
287.134	40.1091
288.932	41.1689
290.729	41.7381
292.526	42.18
294.323	41.3452
296.117	41.1089
297.913	41.6973
299.709	42.9536
301.504	43.9759
303.299	44.9103
305.093	46.3529
306.888	45.7539
308.682	46.3561
310.475	46.2109
312.268	46.6979
314.059	47.2808
315.852	47.0578
317.644	47.3852
319.436	48.6721
321.227	48.8137
323.018	49.5569
324.807	49.0938
326.597	49.8085
328.387	50.9737
330.177	50.5656
331.967	50.7506
333.753	50.362
335.542	49.983
337.331	49.258
339.119	47.6719
340.906	46.417
342.691	45.4959
344.478	45.4265
346.265	45.5709
348.051	43.8097
349.835	42.5262
351.621	42.1202
353.406	40.5357
355.189	40.2646
356.973	40.4828
358.757	41.1269
360.541	40.0019
362.323	40.6354
364.106	40.1454
365.889	38.9915
367.669	37.7051
369.451	37.1527
371.233	36.6534
373.012	36.1167
374.793	37.3058
376.574	36.6669
378.353	36.398
380.133	35.289
381.91	34.9937
383.69	34.4934
385.469	34.675
387.245	35.6248
389.024	35.6031
390.8	36.1383
392.577	35.948
394.353	35.5918
396.129	34.51
397.906	35.1819
399.68	34.6287
401.456	35.4425
403.23	35.4677
405.005	35.7243
406.778	35.978
408.552	37.1381
410.325	37.347
412.099	38.6938
413.87	39.0777
415.643	39.0133
417.414	38.4219
419.187	37.4723
420.957	36.8659
422.728	36.8781
424.498	35.7874
426.269	35.1379
428.038	35.7598
429.806	35.9596
431.576	35.7712
433.344	35.3832
435.114	35.0419
436.881	35.1648
438.649	34.9806
440.416	35.1566
442.182	35.4259
443.949	35.1991
445.715	34.8433
447.48	35.0573
449.247	33.3662
451.011	32.8312
452.777	32.3441
454.541	32.1221
456.304	31.6614
458.069	31.7937
459.832	31.625
461.594	32.0203
463.358	33.4243
465.119	32.3848
466.881	32.2613
468.642	32.2224
470.404	32.5786
472.165	32.32
473.925	31.688
475.684	31.7066
477.445	31.7367
479.204	32.3172
480.963	31.8778
482.721	31.7399
484.481	31.3602
486.239	31.975
487.996	31.9418
489.753	32.5285
491.511	32.4605
493.268	32.9932
495.023	33.5969
496.779	34.1048
498.534	35.0084
500.289	35.0019
502.046	34.4768
503.8	34.1669
505.554	34.8068
507.307	34.9341
509.06	35.3071
510.813	36.0023
512.566	35.378
514.32	36.287
516.072	37.3293
517.823	36.9801
519.574	37.6996
521.325	38.0197
523.076	38.8547
524.826	39.2653
526.576	37.5135
528.325	37.2069
530.074	37.5063
531.823	36.9054
533.572	36.6739
535.32	35.7047
537.068	35.2683
538.815	35.3652
540.562	36.1443
542.309	35.3719
544.056	34.5217
545.802	33.9552
547.547	33.7375
549.293	33.5937
551.038	31.9051
552.783	30.7228
554.527	30.7829
556.271	30.1657
558.015	28.8155
559.759	28.1006
561.502	26.8574
563.245	26.4045
564.987	25.8287
566.729	24.0582
568.471	22.8184
570.213	20.2628
571.954	19.0114
573.693	18.3404
575.433	18.071
577.173	16.9366
578.913	14.3694
580.652	13.407
582.392	12.1029
584.13	10.8662
585.867	10.0883
587.605	8.26334
589.343	7.36991
591.08	5.74865
592.817	5.84806
594.552	5.68949
596.289	5.97395
598.025	6.2632
599.761	6.21247
601.496	8.04475
603.229	8.93179
604.964	9.54044
606.699	9.64523
608.433	9.74422
610.165	10.5591
611.898	10.4503
613.631	10.2573
615.364	11.1166
617.095	11.3016
618.827	12.2552
620.559	12.6288
622.288	12.7949
624.02	14.4501
625.75	14.5865
627.479	15.7794
629.209	15.7016
630.939	17.2463
632.667	17.9104
634.396	17.9634
636.125	17.9088
637.851	17.5893
639.58	17.8803
641.305	17.03
643.033	16.2176
644.76	15.8719
646.485	15.5406
648.212	14.8781
649.936	14.0467
651.662	13.4202
653.388	12.3665
655.111	12.6221
656.836	11.8038
658.558	11.4964
660.283	11.4438
662.005	11.1033
663.728	10.307
665.45	9.86606
667.173	10.4682
668.893	9.73909
670.616	9.29875
672.336	9.33056
674.057	9.29316
675.777	10.4711
677.498	10.864
679.216	13.6707
680.937	14.998
682.655	15.9105
684.375	17.7581
686.092	17.7669
687.809	19.1192
689.528	19.4386
691.244	19.981
692.962	20.8364
694.678	22.4112
696.393	23.4211
698.111	24.2087
699.825	25.6106
701.54	26.6004
703.256	28.2269
704.97	29.8143
706.685	29.8958
708.398	31.5029
710.111	32.3398
711.826	33.0794
713.538	34.5429
715.25	35.2574
716.961	35.255
718.675	33.6235
720.386	32.7774
722.096	32.4958
723.808	32.6498
725.518	32.9386
727.228	34.1707
728.937	35.5868
730.648	36.5648
732.357	36.0796
734.065	35.5696
735.773	34.9819
737.483	34.4238
739.19	34.1697
740.897	33.4939
742.604	33.2634
744.31	33.6834
746.018	33.4901
747.724	34.2853
749.429	34.3392
751.134	33.8559
752.839	34.2132
754.544	33.7068
756.248	34.8588
757.953	35.8046
759.657	36.9569
761.36	37.8829
763.063	38.0083
764.765	39.636
766.468	40.2529
768.169	40.4022
769.871	42.106
771.572	42.1892
773.273	44.3904
774.976	45.6883
776.676	47.9144
778.376	49.8397
780.075	51.8275
781.775	53.3728
783.474	55.5702
785.172	56.783
786.871	57.7054
788.569	58.8232
790.266	59.3752
791.964	59.6249
793.661	61.4967
795.358	62.0192
797.054	63.0455
798.75	63.3034
800.446	63.5841
802.141	63.3615
803.834	62.6098
805.529	63.9209
807.224	65.7724
808.918	66.8571
810.612	66.2579
812.305	65.9142
813.998	65.1151
815.691	63.8271
817.384	62.4216
819.076	62.092
820.766	62.1841
822.458	61.4724
824.149	61.3311
825.84	61.175
827.531	61.6201
829.221	60.7792
830.909	59.617
832.599	59.3646
834.288	57.955
835.977	55.5676
837.666	55.7091
839.353	55.0341
841.041	55.0155
842.729	53.5106
844.416	52.8012
846.103	52.2837
847.788	51.6115
849.475	51.3681
851.161	50.6654
852.845	50.3984
854.53	50.5734
856.216	49.0562
857.901	48.2265
859.583	47.6123
861.268	46.8883
862.952	45.9541
864.633	45.1566
866.317	44.4718
868	44.012
869.681	42.762
871.363	42.056
873.045	41.4804
874.725	40.8038
876.406	39.7731
878.088	39.631
879.767	38.1862
881.447	37.66
883.125	36.709
884.805	35.7835
886.483	34.3347
888.162	33.8967
889.841	34.1856
891.518	32.7767
893.196	31.1435
894.872	29.9879
896.55	29.8584
898.225	30.0011
899.902	29.5184
901.577	29.5182
903.254	28.8712
904.928	27.5517
906.604	27.3462
908.277	27.478
909.952	26.8671
911.625	24.4606
913.3	23.574
914.972	22.6724
916.646	22.0061
918.318	21.2098
919.991	20.7355
921.662	22.019
923.333	21.2345
925.005	19.8431
926.675	20.2066
928.347	20.9573
930.017	20.4891
931.686	20.4567
933.357	20.8318
935.025	20.5689
936.693	20.606
938.363	19.9242
940.031	19.151
941.698	19.1162
943.367	19.5745
945.034	19.1327
946.7	20.1221
948.368	19.7046
950.034	19.2106
951.699	19.3356
953.367	19.3542
955.031	18.8425
956.696	18.2594
958.36	17.737
960.026	16.9742
961.689	17.0873
963.353	16.9205
965.016	16.786
966.68	17.1287
968.343	16.6911
970.005	16.5201
971.666	16.2243
973.328	15.7904
974.991	15.7762
976.652	17.2651
978.312	17.8132
979.972	18.3456
981.632	17.585
983.292	17.5514
984.953	17.2636
986.612	16.7399
988.27	16.0007
989.929	15.5495
991.587	12.6964
993.244	11
994.902	9.82255
996.559	8.79015
998.216	6.93911
999.872	5.61641
1001.53	3.86218
1003.19	2.70549
1004.84	1.5131
1006.5	1.01961
1008.15	3.5529
1009.81	7.36686
1011.46	11.0513
1013.11	15.5809
1014.77	20.9376
1016.42	25.3477
1018.07	30.5414
1019.73	35.9803
1021.38	41.3055
1023.03	45.9765
1024.68	51.1548
1026.34	55.9639
1027.99	60.0551
1029.64	64.1694
1031.29	67.581
1032.94	71.1466
1034.59	74.7897
1036.24	77.6172
1037.89	79.5481
1039.53	81.6376
1041.18	83.0035
1042.83	83.9661
1044.48	85.1625
1046.13	85.3664
1047.77	85.5416
1049.42	85.4902
1051.07	83.5777
1052.71	82.7263
1054.36	80.6928
1056	79.5753
1057.65	77.7321
1059.3	74.9777
1060.94	69.8426
1062.59	64.9947
1064.23	58.7385
1065.87	54.56
1067.52	48.626
1069.16	42.0591
1070.8	35.9636
1072.44	29.6365
1074.09	23.9955
1075.73	18.6105
1077.37	12.6266
1079.01	6.94504
1080.65	3.02753
1082.29	-0.542264
1083.93	-3.04913
1085.57	-4.70648
1087.21	-4.97821
1088.85	-3.18339
1090.49	-0.753809
1092.13	-0.135644
1093.77	1.66026
1095.41	3.64948
1097.04	4.82069
1098.68	6.86341
1100.32	9.19681
1101.95	11.4021
1103.59	12.8005
1105.23	13.7813
1106.86	15.8135
1108.5	16.8569
1110.13	16.9669
1111.77	18.8203
1113.4	19.8167
1115.04	19.9392
1116.67	19.959
1118.31	20.5334
1119.94	19.9314
1121.57	19.9259
1123.2	20.6298
1124.84	20.342
1126.47	20.6348
1128.1	19.9061
1129.73	18.7489
1131.36	18.2591
1132.99	18.0104
1134.62	17.4555
1136.25	15.8426
1137.88	15.2402
1139.51	14.6923
1141.14	12.689
1142.77	10.6169
1144.4	9.99121
1146.03	8.9657
1147.66	7.75485
1149.28	6.56681
1150.91	5.61164
1152.54	4.44577
1154.16	3.85705
1155.79	2.60875
1157.42	1.48146
1159.04	0.907113
1160.67	0.535485
1162.29	0.56217
1163.92	0.0389092
1165.54	0.0769974
1167.17	-0.0484256
1168.79	0.00284974
1170.41	-0.110386
1172.04	-0.61314
1173.66	-0.781473
1175.28	0.302022
1176.9	1.37296
1178.53	1.50905
1180.15	2.47553
1181.77	3.41174
1183.39	3.58322
1185.01	3.27384
1186.63	4.8267
1188.25	5.31036
1189.87	5.32096
1191.49	6.02532
1193.11	7.20705
1194.73	7.25875
1196.35	7.51356
1197.96	7.78108
1199.58	8.17203
1201.2	8.53487
1202.82	10.4135
1204.43	11.2127
1206.05	10.9198
1207.66	13.0333
1209.28	12.9845
1210.9	13.7577
1212.51	15.7258
1214.13	16.7021
1215.74	17.0144
1217.36	17.7176
1218.97	19.5058
1220.58	20.8068
1222.2	21.7124
1223.81	22.9757
1225.42	23.5981
1227.04	23.2961
1228.65	23.0337
1230.26	24.5186
1231.87	24.2204
1233.48	25.1077
1235.1	26.6728
1236.71	26.5873
1238.32	27.9978
1239.93	28.7901
1241.53	30.166
1243.14	30.8841
1244.75	32.0141
1246.36	32.4864
1247.97	32.3691
1249.58	32.752
1251.19	32.8001
1252.8	33.2486
1254.4	34.198
1256.01	34.4107
1257.62	35.1936
1259.22	35.8988
1260.83	37.9484
1262.43	39.6863
1264.04	39.9227
1265.64	41.854
1267.25	43.1195
1268.85	42.7584
1270.46	44.1645
1272.06	45.4486
1273.66	46.4916
1275.27	47.8969
1276.87	48.004
1278.48	48.5893
1280.08	50.3472
1281.68	52.0461
1283.28	53.2245
1284.88	53.8828
1286.48	55.2859
1288.08	56.7311
1289.68	56.4767
1291.28	58.7513
1292.88	60.1471
1294.48	60.5754
1296.08	61.9288
1297.68	62.9056
1299.28	63.2021
1300.88	62.7218
1302.48	63.1204
1304.07	62.1057
1305.67	61.799
1307.27	62.0269
1308.87	62.2045
1310.46	62.4629
1312.06	61.1616
1313.65	60.9956
1315.25	60.7461
1316.85	60.7249
1318.44	60.8353
1320.03	60.6759
1321.63	60.591
1323.22	60.0562
1324.82	59.6756
1326.41	57.741
1328	56.7942
1329.6	57.5338
1331.19	56.3763
1332.78	55.746
1334.37	55.5691
1335.96	55.1245
1337.56	55.5869
1339.15	55.9817
1340.74	55.5527
1342.33	55.2457
1343.92	53.7539
1345.51	53.6969
1347.1	52.4067
1348.69	51.7347
1350.28	51.8442
1351.86	51.4711
1353.45	51.2927
1355.04	50.7699
1356.63	49.7535
1358.21	49.4001
1359.8	50.2601
1361.39	49.6395
1362.97	49.033
1364.56	49.0256
1366.15	48.1216
1367.73	47.7764
1369.32	47.8058
1370.9	47.3541
1372.49	45.5539
1374.07	44.399
1375.65	44.4055
1377.24	42.5641
1378.82	42.0587
1380.41	42.6653
1381.99	43.5292
1383.57	43.0415
1385.15	44.0375
1386.73	43.4829
1388.32	42.9249
1389.9	42.3599
1391.48	42.1505
1393.06	43.1842
1394.64	43.5567
1396.22	43.7988
1397.8	43.2856
1399.38	43.4242
1400.96	43.5947
1402.54	44.1321
1404.11	43.8225
1405.69	44.7412
1407.27	46.9326
1408.85	48.3039
1410.43	48.3342
1412	49.3374
1413.58	50.4737
1415.16	50.9181
1416.73	52.3342
1418.31	54.3241
1419.88	55.9114
1421.46	57.7005
1423.03	59.1798
1424.61	61.156
1426.18	62.783
1427.76	65.6872
1429.33	69.0815
1430.9	71.8058
1432.48	74.0149
1434.05	75.9009
1435.62	78.3043
1437.2	80.1887
1438.77	82.385
1440.34	83.0871
1441.91	84.0201
1443.48	85.1756
1445.05	85.9992
1446.62	87.0053
1448.19	86.9983
1449.76	86.3282
1451.33	85.9897
1452.9	86.4846
1454.47	86.9394
1456.04	85.84
1457.61	86.0622
1459.17	85.7762
1460.74	84.5169
1462.31	83.0933
1463.88	82.1891
1465.44	80.2014
1467.01	78.8685
1468.58	77.3221
1470.14	75.7319
1471.71	73.307
1473.27	71.643
1474.84	69.7787
1476.4	67.1103
1477.97	64.8001
1479.53	62.7654
1481.1	60.3197
1482.66	58.0217
1484.22	56.4998
1485.78	54.0413
1487.35	51.9725
1488.91	49.7135
1490.47	47.1092
1492.03	45.7248
1493.59	44.3609
1495.16	43.6905
1496.72	41.8808
1498.28	40.7789
1499.84	40.0144
1501.4	39.9274
1502.96	39.5695
1504.52	38.3867
1506.08	37.9144
1507.64	37.4494
1509.19	36.497
1510.75	35.5617
1512.31	34.6348
1513.87	33.5578
1515.42	31.8377
1516.98	31.5039
1518.54	30.3868
1520.1	30.3869
1521.65	30.0579
1523.21	30.0356
1524.76	29.7374
1526.32	29.1267
1527.87	29.0688
1529.43	28.955
1530.98	29.0073
1532.54	27.8323
1534.09	26.5944
1535.64	27.1993
1537.2	27.9878
1538.75	28.0285
1540.3	28.208
1541.85	29.2014
1543.41	29.9375
1544.96	30.4065
1546.51	31.5002
1548.06	32.14
1549.61	32.9289
1551.16	34.163
1552.71	34.074
1554.26	34.3474
1555.81	34.4524
1557.36	35.0876
1558.91	35.0296
1560.46	35.5995
1562.01	35.7504
1563.56	35.3341
1565.1	36.2888
1566.65	36.2494
1568.2	36.7338
1569.75	38.837
1571.29	39.8492
1572.84	40.1175
1574.38	41.3925
1575.93	42.5132
1577.48	43.1557
1579.02	43.6598
1580.57	44.1584
1582.11	44.5266
1583.65	46.0154
1585.2	47.1273
1586.74	47.8283
1588.29	48.6024
1589.83	49.6802
1591.37	50.525
1592.92	52.13
1594.46	53.5484
1596	55.2365
1597.54	57.6082
1599.08	57.6761
1600.62	57.9122
1602.16	57.7185
1603.7	57.168
1605.24	57.3417
1606.78	57.1185
1608.32	57.1475
1609.86	57.0969
1611.4	57.4318
1612.94	58.511
1614.48	58.4015
1616.02	58.0107
1617.56	57.898
1619.09	58.6512
1620.63	59.2914
1622.17	59.4827
1623.71	60.1821
1625.24	59.8925
1626.78	59.2159
1628.31	59.2277
1629.85	59.1236
1631.39	59.1447
1632.92	58.8273
1634.46	59.396
1635.99	59.9222
1637.52	59.6404
1639.06	59.5745
1640.59	59.102
1642.12	60.2654
1643.66	60.8871
1645.19	61.2364
1646.72	62.2641
1648.25	62.7135
1649.79	63.5617
1651.32	64.4617
1652.85	64.4553
1654.38	65.7069
1655.91	65.7309
1657.44	65.5912
1658.97	65.1723
1660.5	64.9019
1662.03	65.2229
1663.56	65.0061
1665.09	64.1083
1666.62	63.367
1668.15	62.1547
1669.67	61.9285
1671.2	60.9716
1672.73	60.0016
1674.26	58.3923
1675.79	55.6422
1677.31	53.623
1678.84	52.0732
1680.36	51.3301
1681.89	49.9686
1683.42	48.3812
1684.94	46.8231
1686.47	44.0983
1687.99	42.2206
1689.51	39.8835
1691.04	37.3733
1692.56	35.7429
1694.08	33.9347
1695.61	32.7968
1697.13	31.7699
1698.65	29.7483
1700.18	28.7
1701.7	27.6988
1703.22	26.1655
1704.74	25.5385
1706.26	24.8352
1707.78	23.0655
1709.3	21.049
1710.82	20.1485
1712.35	18.4513
1713.86	16.366
1715.39	15.1388
1716.9	14.3243
1718.42	14.0684
1719.94	13.6028
1721.46	13.1692
1722.98	13.9324
1724.5	14.2356
1726.01	13.5908
1727.53	12.1762
1729.05	11.2735
1730.56	10.5553
1732.08	8.99743
1733.6	8.4452
1735.11	8.25086
1736.63	8.13711
1738.14	7.53412
1739.66	6.44167
1741.17	5.78348
1742.69	5.87594
1744.2	5.78254
1745.71	5.70497
1747.23	5.37388
1748.74	5.66036
1750.25	5.52287
1751.77	4.6483
1753.28	5.11665
1754.79	5.39343
1756.3	6.47272
1757.81	6.55657
1759.33	7.09873
1760.84	6.42787
1762.35	6.0942
1763.86	6.19822
1765.37	5.59348
1766.88	5.77836
1768.39	5.93834
1769.9	5.85692
1771.41	6.89712
1772.91	7.2463
1774.42	6.68857
1775.93	6.85815
1777.44	6.99647
1778.95	6.66558
1780.45	6.71443
1781.96	6.8788
1783.47	6.38809
1784.97	6.6083
1786.48	7.10802
1787.99	6.90194
1789.49	7.53892
1791	7.39968
1792.5	6.94116
1794.01	7.20542
1795.51	7.5704
1797.01	8.35001
1798.52	8.95149
1800.02	8.40875
1801.52	7.61574
1803.03	7.18157
1804.53	6.94132
1806.03	6.3111
1807.54	5.72324
1809.04	5.87879
1810.54	5.96625
1812.04	5.93996
1813.54	5.87284
1815.04	5.69336
1816.54	5.17865
1818.04	4.74838
1819.54	4.2195
1821.04	3.50242
1822.54	3.22762
1824.04	3.11659
1825.54	2.39351
1827.04	2.1914
1828.54	2.39698
1830.03	2.47642
1831.53	3.25994
1833.03	2.40467
1834.53	2.14911
1836.02	1.3665
1837.52	1.55395
1839.02	0.942476
1840.51	1.13867
1842.01	0.762267
1843.5	0.978395
1845	1.1776
1846.49	1.03889
1847.99	1.2166
1849.48	1.62245
1850.98	1.90844
1852.47	2.35866
1853.96	3.09385
1855.46	3.61474
1856.95	3.64952
1858.44	3.89627
1859.94	4.39094
1861.43	4.93866
1862.92	5.6892
1864.41	6.516
1865.9	6.42727
1867.39	7.28106
1868.88	8.61474
1870.37	8.9126
1871.86	9.34001
1873.35	9.18744
1874.84	9.15664
1876.33	9.17945
1877.82	9.23087
1879.31	9.39973
1880.8	9.15301
1882.29	9.85816
1882.58	9.95987
1884.08	9.87101
1885.57	9.84222
1887.06	9.55866
1888.56	9.20633
1890.05	8.89858
1891.54	9.20464
1893.04	9.1896
1894.53	8.27532
1896.02	8.15825
1897.51	8.41144
1899	7.92293
1900.5	7.33183
1901.99	7.36639
1903.48	7.54435
1904.97	7.04471
1906.46	6.46149
1907.95	6.64054
1909.44	5.9054
1910.93	6.20288
1912.42	6.41825
1913.91	6.18219
1915.4	5.25903
1916.88	5.78213
1918.37	5.82795
1919.86	6.1818
1921.35	5.73352
1922.84	4.91652
1924.32	4.77495
1925.81	4.87696
1927.3	4.65374
1928.78	3.65736
1930.27	3.00093
1931.75	3.36769
1933.24	3.04192
1934.72	3.61746
1936.21	3.60786
1937.69	3.64513
1939.18	3.26559
1940.66	3.18512
1942.15	3.19148
1943.63	3.45509
1945.11	3.3451
1946.6	3.05965
1948.08	3.35682
1949.56	3.03387
1951.04	3.42592
1952.53	3.22079
1954.01	2.97399
1955.49	3.24387
1956.97	4.06923
1958.45	4.22059
1959.93	4.72526
1961.41	5.4462
1962.89	4.86967
1964.37	5.0025
1965.85	4.94096
1967.33	4.9053
1968.81	4.76913
1970.29	5.26806
1971.77	5.02792
1973.24	5.01505
1974.72	5.34591
1976.2	5.86086
1977.68	6.20365
1979.15	6.30491
1980.63	7.17765
1982.11	7.81407
1983.58	7.74817
1985.06	8.74338
1986.53	9.13052
1988.01	8.93463
1989.48	8.7913
1990.96	8.8509
1992.43	8.62274
1993.91	8.00134
1995.38	7.5215
1996.86	8.66662
1998.33	9.17921
1999.8	8.73038
2001.27	8.87569
2002.75	9.19673
2004.22	9.59866
2005.69	9.9312
2007.16	9.4863
2008.64	9.64088
2010.11	9.216
2011.58	9.24753
2013.05	9.33892
2014.52	9.25839
2015.99	9.45794
2017.46	9.41948
2018.93	8.85166
2020.4	8.46527
2021.87	8.45998
2023.34	8.16649
2024.8	8.64635
2026.27	8.31671
2027.74	8.63207
2029.21	8.81676
2030.68	9.57502
2032.14	8.12184
2033.61	8.63907
2035.08	8.33153
2036.54	6.99494
2038.01	7.52844
2039.48	7.48692
2040.94	7.60417
2042.41	7.22952
2043.87	6.69667
2045.34	6.98318
2046.8	7.936
2048.27	8.05597
2049.73	8.27568
2051.19	8.77946
2052.66	8.74689
2054.12	9.21136
2055.58	8.64197
2057.05	8.49234
2058.51	8.83066
2059.97	9.5966
2061.43	9.60474
2062.9	9.35185
2064.36	9.43736
2065.82	10.0693
2067.28	10.6101
2068.74	11.845
2070.2	12.5453
2071.66	12.7352
2073.12	12.7647
2074.58	12.7979
2076.04	12.4783
2077.5	12.6751
2078.95	12.391
2080.41	12.1557
2081.87	12.3858
2083.33	13.4069
2084.79	13.8275
2086.24	14.1001
2087.7	14.3109
2089.16	14.8889
2090.61	15.0027
2092.07	15.5104
2093.53	16.2519
2094.98	17.1043
2096.44	17.9963
2097.89	18.7705
2099.35	18.539
2100.8	18.509
2102.26	18.714
2103.71	18.9621
2105.16	19.0774
2106.62	20.2789
2108.07	20.3277
2109.53	20.7954
2110.98	21.857
2112.43	22.0104
2113.88	22.5532
2115.33	23.0069
2116.79	22.713
2118.24	23.0705
2119.69	22.8171
2121.14	22.7695
2122.59	23.5406
2124.04	23.5754
2125.49	23.6605
2126.94	24.0429
2128.39	23.9984
2129.84	24.7554
2131.29	25.2624
2132.74	26.3157
2134.19	26.2843
2135.63	25.7936
2137.08	26.783
2138.53	27.9488
2139.98	28.8526
2141.43	29.1713
2142.87	29.6404
2144.32	29.8641
2145.77	30.4165
2147.21	31.1774
2148.66	31.6137
2150.1	32.3054
2151.55	32.4739
2152.99	33.1978
2154.44	34.135
2155.88	35.0479
2157.33	35.3066
2158.77	35.8274
2160.21	36.2715
2161.66	36.7443
2163.1	37.7629
2164.55	38.7446
2165.99	39.7813
2167.43	39.9399
2168.87	41.1702
2170.31	41.7225
2171.76	42.2702
2173.2	43.2483
2174.64	44.5108
2176.08	45.5416
2177.52	46.4286
2178.96	46.994
2180.4	46.5598
2181.84	46.592
2183.28	45.8729
2184.72	45.1766
2186.16	44.5572
2187.6	43.3382
2189.04	42.6583
2190.47	42.1454
2191.91	41.6013
2193.35	41.4821
2194.79	40.883
2196.23	40.2317
2197.66	39.3236
2199.1	38.0297
2200.54	37.4315
2201.97	36.7565
2203.41	36.5136
2204.84	36.0575
2206.28	34.9458
2207.71	34.0792
2209.15	34.0137
2210.58	32.6499
2212.02	31.5946
2213.45	30.3213
2214.89	29.9504
2216.32	28.3602
2217.75	27.522
2219.19	26.0798
2220.62	24.3908
2222.05	23.5308
2223.48	22.5095
2224.92	21.8269
2226.35	21.7344
2227.78	20.6733
2229.21	19.5557
2230.64	18.4593
2232.07	17.8666
2233.5	17.6928
2234.93	17.703
2236.36	17.0486
2237.79	16.7539
2239.22	16.1079
2240.65	15.9835
2242.08	15.7532
2243.51	15.6031
2244.94	15.2885
2246.37	15.1229
2247.79	14.5727
2249.22	13.7064
2250.65	13.4244
2252.08	12.7255
2253.5	12.5216
2254.93	12.0852
2256.36	11.8262
2257.78	12.0403
2259.21	12.4742
2260.63	12.3497
2262.06	12.2997
2263.48	12.9712
2264.91	13.0231
2266.33	12.402
2267.76	12.134
2269.18	12.0068
2270.6	11.7354
2272.03	11.7507
2273.45	11.6408
2274.87	12.1724
2276.3	12.0746
2277.72	11.7456
2279.14	12.1296
2280.56	11.4256
2281.98	11.0913
2283.41	10.874
2284.83	10.0723
2286.25	9.69578
2287.67	9.53
2289.09	9.24176
2290.51	9.02569
2291.93	8.68612
2293.35	7.74983
2294.77	6.88471
2296.19	6.42267
2297.61	6.60539
2299.02	5.82211
2300.44	5.54919
2301.86	5.63132
2303.28	5.33268
2304.7	4.97326
2306.11	4.54162
2307.53	5.16614
2308.95	5.54538
2310.36	6.08477
2311.78	6.39225
2313.2	8.05112
2314.61	8.25305
2316.03	8.88562
2317.44	9.07742
2318.86	8.85113
2320.27	9.25571
2321.69	9.43708
2323.1	10.127
2324.51	10.2309
2325.93	10.8168
2327.34	11.6208
2328.76	12.3316
2330.17	12.5805
2331.58	12.9559
2332.99	13.3459
2334.41	13.3479
2335.82	12.9563
2337.23	12.2701
2338.64	12.4763
2340.05	12.4704
2341.46	12.3433
2342.87	12.8817
2344.28	12.6644
2345.69	12.4148
2347.1	11.3995
2348.51	10.6989
2349.92	9.42659
2351.33	7.96147
2352.74	7.33329
2354.15	6.80235
2355.56	6.55189
2356.97	6.47026
2358.37	5.7968
2359.78	4.47522
2361.19	4.3536
2362.6	3.19727
2364	2.79476
2365.41	2.79831
2366.82	3.13767
2368.22	3.87591
2369.63	3.2456
2371.03	3.08922
2372.44	2.85435
2373.84	2.99656
2375.25	3.46345
2376.65	4.24687
2378.06	5.10907
2379.46	4.91953
2380.86	5.00363
2382.27	4.75531
2383.67	4.87495
2385.07	4.371
2386.48	4.26577
2387.88	4.08703
2389.28	4.6877
2390.69	5.87887
2392.09	6.01557
2393.49	6.78703
2394.89	6.74256
2396.29	7.57822
2397.69	7.94911
2399.09	7.99522
2400.49	7.90556
2401.89	8.02043
2403.29	7.74311
2404.69	8.04708
2406.09	7.54811
2407.49	6.63283
2408.89	7.01667
2410.29	6.88885
2411.69	6.70074
2413.08	6.25334
2414.48	5.37326
2415.88	5.00392
2417.28	4.10128
2418.67	4.40232
2420.07	3.91204
2421.47	3.70535
2422.86	3.90087
2424.26	4.28105
2425.65	3.66539
2427.05	3.07636
2428.45	2.65158
2429.84	2.41688
2431.23	1.99499
2432.63	1.89622
2434.02	2.22356
2435.42	1.50488
2436.81	1.44099
2438.2	1.36612
2439.6	0.815059
2440.99	0.595854
2442.38	0.851328
2443.78	1.31847
2445.17	1.33119
2446.56	1.04617
2447.95	0.837513
2449.34	0.433412
2450.73	0.0788139
2452.13	-0.254417
2453.52	0.366189
2454.91	0.519708
2456.3	0.795664
2457.69	0.762383
2459.08	1.46839
2460.47	1.46584
2461.85	1.32724
2463.24	1.61886
2464.63	2.15285
2466.02	3.06752
2467.41	2.8318
2468.8	3.1084
2470.19	3.12645
2471.57	3.56201
2472.96	3.55689
2474.35	3.85797
2475.73	3.28529
2477.12	2.99884
2478.51	3.35083
2479.89	2.95095
2481.28	3.24779
2482.66	3.47746
2484.05	3.0946
2485.43	3.18504
2486.82	2.99089
2488.2	3.70594
2489.59	2.89526
2490.97	3.18719
2492.35	3.69278
2493.74	3.74571
2495.12	3.99241
2496.5	3.88859
2497.89	3.61182
2499.27	3.54206
2500.65	3.4425
2502.03	4.12427
2503.42	4.0357
2504.8	3.55606
2506.18	4.15264
2507.56	3.67887
2508.94	3.15149
2510.32	3.25925
2511.7	3.27915
2513.08	3.48485
2514.46	2.96436
2515.84	2.69359
2517.22	3.00374
2518.6	2.95841
2519.98	3.04929
2521.36	3.03473
2522.73	3.47755
2524.11	3.28078
2525.49	4.22909
2526.87	4.06113
2528.25	4.34811
2529.62	3.97783
2531	3.77262
2532.38	3.43068
2533.75	3.37465
2535.13	3.6531
2536.5	2.69094
2537.88	2.78149
2539.25	2.10768
2540.63	2.41153
2542.01	2.60665
2543.38	2.52036
2544.75	2.28
2546.13	2.26178
2547.5	2.58684
2548.88	3.15401
2550.25	3.01804
2551.62	2.73326
2553	2.41486
2554.37	2.50993
2555.74	2.65776
2557.11	2.96386
2558.49	2.63761
2559.86	3.28181
2561.23	2.97987
2562.6	3.29826
2563.97	4.13822
2565.34	3.43652
2566.71	3.7362
2568.08	4.45893
2569.45	4.11693
2570.82	4.90611
2572.19	4.4323
2573.56	4.71319
2574.93	5.39034
2576.3	4.94774
2577.67	5.84654
2579.03	6.97097
2580.4	7.1766
2581.77	8.32071
2583.14	8.6607
2584.5	8.80299
2585.87	8.82209
2587.24	8.91817
2588.6	8.42877
2589.97	8.43616
2591.34	8.3993
2592.7	8.43312
2594.07	8.29557
2595.43	7.25478
2596.8	7.17396
2598.16	6.41896
2599.53	5.8264
2600.89	6.23097
2602.26	6.03845
2603.62	5.63914
2604.98	5.13725
2606.35	5.33124
2607.71	5.41545
2609.07	6.08465
2610.44	5.35423
2611.8	4.68882
2613.16	3.86114
2614.52	2.69619
2615.88	2.16014
2617.25	1.62105
2618.61	0.529578
2619.97	-0.314684
2621.33	0.253655
2622.69	0.0846526
2624.05	0.153022
2625.41	0.0922107
2626.77	0.166537
2628.13	0.741988
2629.49	0.809177
2630.85	1.27541
2632.21	1.29143
2633.56	0.753199
2634.92	0.440515
2636.28	0.393061
2637.64	0.218166
2639	1.00256
2640.35	1.25314
2641.71	2.22606
2643.07	1.96875
2644.42	2.03799
2645.78	2.35568
2647.14	2.92419
2648.49	2.61109
2649.85	2.92181
2651.2	2.99791
2652.56	2.88716
2653.91	2.72995
2655.27	3.21029
2656.62	3.0052
2657.98	3.40608
2659.33	3.69277
2660.68	3.80852
2662.04	3.33775
2663.39	3.81735
2664.74	4.24536
2666.1	4.36619
2667.45	4.98709
2668.8	4.97963
2670.15	4.47847
2671.5	4.2246
2672.86	4.73032
2674.21	4.50804
2675.56	4.18171
2676.91	3.42539
2678.26	2.56825
2679.61	2.19599
2680.96	1.97227
2682.31	2.13248
2683.66	2.27468
2685.01	2.71226
2686.36	2.91936
2687.71	2.8577
2689.06	4.01861
2690.4	3.33692
2691.75	4.41699
2693.1	4.46995
2694.45	3.85497
2695.8	3.78652
2697.14	3.0682
2698.49	3.30201
2699.84	3.40774
2701.18	3.55161
2702.53	3.4853
2703.88	3.76365
2705.22	4.6337
2706.57	5.41181
2707.91	5.55963
2709.26	6.32372
2710.6	6.4478
2711.95	6.90902
2713.29	7.31411
2714.64	8.064
2715.98	7.89549
2717.32	8.22259
2718.67	8.72716
2720.01	8.85287
2721.35	9.13809
2722.7	9.76366
2724.04	9.65524
2725.38	10.766
2726.72	11.005
2728.06	11.5273
2729.4	12.3673
2730.75	12.6518
2732.09	12.1897
2733.43	11.7978
2734.77	11.2648
2736.11	11.1926
2737.45	11.4562
2738.79	11.2819
2740.13	11.1853
2741.47	10.6551
2742.81	9.93666
2744.15	9.18918
2745.48	9.30641
2746.82	9.37323
2748.16	8.82321
2749.5	8.55748
2750.84	7.96124
2752.17	7.70089
2753.51	6.64586
2754.85	6.29446
2756.19	5.9384
2757.52	5.13662
2758.86	4.58288
2760.19	3.51603
2761.53	3.05322
2762.86	3.27358
2764.2	3.0751
2765.54	3.35095
2766.87	3.5591
2768.2	3.1435
2769.54	3.30524
2770.87	2.87954
2772.21	3.42192
2773.54	3.27786
2774.88	2.46722
2776.21	2.08047
2777.54	1.32523
2778.87	1.33896
2780.21	1.8509
2781.54	2.11367
2782.87	2.61971
2784.2	2.69173
2785.53	3.39667
2786.87	3.3866
2788.2	3.90277
2789.53	3.83285
2790.86	4.24881
2792.19	4.19349
2793.52	3.8235
2794.85	3.79906
2796.18	4.03658
2797.51	3.65752
2798.84	3.96525
2800.17	4.79345
2801.49	5.04202
2802.82	5.41305
2804.15	5.29668
2805.48	4.68791
2806.81	4.54935
2808.13	3.73794
2809.46	3.00578
2810.79	3.29813
2812.12	3.69495
2813.44	3.56067
2814.77	3.61157
2816.09	4.90409
2817.42	6.55139
2818.75	7.78619
2820.07	8.97223
2821.4	11.3087
2822.72	13.1152
2824.05	15.4388
2825.37	18.3309
2826.7	21.5326
2828.02	24.4952
2829.35	27.4861
2830.67	30.2729
2831.99	33.4885
2833.31	36.5799
2834.64	39.0328
2835.96	42.2867
2837.28	45.8025
2838.61	49.3832
2839.93	52.4364
2841.25	55.42
2842.57	59.8893
2843.89	64.2986
2845.21	68.2232
2846.53	72.0018
2847.85	76.1281
2849.17	81.1422
2850.49	85.3468
2851.81	89.9253
2853.13	93.6478
2854.45	98.3626
2855.77	103.171
2857.09	107.694
2858.41	111.643
2859.73	116.29
2861.05	120.46
2862.36	124.501
2863.68	128.342
2865	131.85
2866.32	134.761
2867.64	136.767
2868.95	138.904
2870.27	141.134
2871.59	142.047
2872.9	144.26
2874.22	145.67
2875.53	148.386
2876.85	150.157
2878.16	151.923
2879.48	153.691
2880.79	155.977
2882.11	157.755
2883.42	159.412
2884.74	159.571
2886.05	160.481
2887.36	161.624
2888.68	162.282
2889.99	163.819
2891.3	165.266
2892.62	165.966
2893.93	167.736
2895.24	169.43
2896.55	170.761
2897.86	172.722
2899.18	173.654
2900.49	175.169
2901.8	177.642
2903.11	179.345
2904.42	180.702
2905.73	182.682
2907.04	186.386
2908.35	189.839
2909.66	192.702
2910.97	196.732
2912.28	201.375
2913.59	205.602
2914.9	209.994
2916.21	213.616
2917.51	217.501
2918.82	221.164
2920.13	225.238
2921.44	228.459
2922.74	231.126
2924.05	233.787
2925.36	236.052
2926.67	237.621
2927.97	238.358
2929.28	239.382
2930.59	239.532
2931.89	239.794
2933.2	239.066
2934.5	238.686
2935.81	237.467
2937.11	235.601
2938.42	234.371
2939.72	231.768
2941.02	229.773
2942.33	226.478
2943.63	224.116
2944.94	220.413
2946.24	217.222
2947.54	213.157
2948.85	208.709
2950.15	203.999
2951.45	199.628
2952.75	195.151
2954.05	190.912
2955.36	186.855
2956.66	181.983
2957.96	177.254
2959.26	173.654
2960.56	168.01
2961.86	162.744
2963.16	157.279
2964.46	151.918
2965.76	146.69
2967.06	141.726
2968.36	136.526
2969.66	132.691
2970.96	128.513
2972.26	124.78
2973.56	120.304
2974.85	116.703
2976.15	113.339
2977.45	109.807
2978.75	105.513
2980.05	102.805
2981.34	98.6495
2982.64	94.7537
2983.94	90.2161
2985.23	86.636
2986.53	82.0119
2987.83	78.5284
2989.12	74.9706
2990.42	70.9818
2991.71	67.0732
2993.01	63.1974
2994.3	60.4349
2995.6	57.4106
2996.89	54.1174
2998.19	50.9353
2999.48	48.0853
3000.77	44.8867
3002.07	42.736
3003.36	39.9656
3004.65	37.7285
3005.95	36.0524
3007.24	33.5465
3008.53	31.5593
3009.82	29.0861
3011.12	27.0133
3012.41	25.465
3013.7	23.3305
3014.99	21.3745
3016.28	19.5299
3017.57	17.9473
3018.86	16.8315
3020.15	15.0521
3021.44	13.7812
3022.73	12.4395
3024.02	11.3873
3025.31	8.92272
3026.6	7.86904
3027.89	6.59612
3029.18	5.68732
3030.47	4.62372
3031.76	4.09831
3033.04	3.44555
3034.33	3.25886
3035.62	2.70573
3036.91	2.59278
3038.19	2.46058
3039.48	3.09376
3040.77	3.28056
3042.05	3.19677
3043.34	2.44488
3044.63	2.6696
3045.91	1.80584
3047.2	1.71762
3048.48	1.65802
3049.77	1.93907
3051.05	2.04701
3052.34	3.00209
3053.62	3.72284
3054.91	3.53619
3056.19	3.70936
3057.48	3.34934
3058.76	4.22376
3060.04	4.49669
3061.33	4.245
3062.61	4.5284
3063.89	3.78804
3065.17	4.04404
3066.46	3.92408
3067.74	4.32379
3069.02	4.69584
3070.3	4.69773
3071.59	4.68039
3072.87	4.2609
3074.15	4.34945
3075.43	4.11586
3076.71	4.72529
3077.99	3.8487
3079.27	3.05141
3080.55	3.36071
3081.83	3.32409
3083.11	3.65848
3084.39	3.02398
3085.67	2.8144
3086.94	2.2498
3088.22	1.84212
3089.5	1.33606
3090.78	1.47344
3092.06	0.939051
3093.34	0.688801
3094.61	1.15833
3095.89	0.981519
3097.17	0.517528
3098.44	0.456552
3099.72	0.180011
3101	0.135513
3102.27	0.379257
3103.55	0.510579
3104.82	0.0525499
3106.1	0.323711
3107.38	0.416926
3108.65	0.768795
3109.93	0.443732
3111.2	0.189447
3112.47	1.02543
3113.75	1.68221
3115.02	1.91097
3116.3	2.35825
3117.57	2.32713
3118.84	2.03937
3120.12	2.01504
3121.39	2.00388
3122.66	2.87167
3123.93	2.76862
3125.2	2.56624
3126.48	2.98965
3127.75	2.82617
3129.02	3.72004
3130.29	3.92047
3131.56	4.53777
3132.83	3.90958
3134.1	3.81338
3135.37	4.12908
3136.64	4.35751
3137.91	5.27332
3139.18	5.39892
3140.45	5.96542
3141.72	6.0839
3142.99	6.43834
3144.26	6.60588
3145.53	6.51703
3146.8	6.48308
3148.07	7.88305
3149.33	8.93385
