#Acq. time (s)=	45
#Accumulations=	2
#Range (cm-¹)=	200...3150
#Windows=	2
#Auto scanning=	Off
#Autofocus=	Off
#Macrospot=	Off
#AutoExposure=	Off
#Spike filter=	Multiple accum.
#Delay time (s)=	0
#Binning=	1
#Readout mode=	Signal
#DeNoise=	Off
#ICS correction=	On
#Dark correction=	Off
#Inst. Process=	Off
#Detector Gain=	Best Dynamic Range
#Detector ADC=	20 kHz       
#Detector temperature (°C)=	-70.08
#Instrument=	LabRAM HR Evol
#Detector=	Synapse
#Objective=	x100
#Grating=	600 gr/mm
#ND Filter=	100%
#Laser (nm)=	532 
#Hole=	100.021
#Range=	Auto
#Laser Pol.=	No
#Raman. Pol.=	No
#Laser Pol. (°)=	-0.0007625
#Raman Pol. (°)=	89.9995
#Collection=	Microscope
#StageXY=	Marzhauser
#StageZ=	Marzhauser
#X (µm)=	491.8
#Y (µm)=	2978.9
#Z (µm)=	-8.9
#Full time(mm:ss)=	3:14
#Project=	
#Sample=	
#Site=	
#Title=	Mb_20_23_46_2x_45s_532 nm_x100_100%_600 gr_mm
#Remark=	
#Date=	14.07.2022 09:50
#Acquired=	14.07.2022 09:50:19
#Base:Fit=	10.08.2022 10:29:37
#Base:Sub=	10.08.2022 10:35:48
#Filter:Polynom=	16.08.2022 10:13:29
#AxisType[0]=Intens
#AxisUnit[0]=Cnt
#AxisType[1]=Spectr
#AxisUnit[1]=1/cm
200.554	-0.570233
202.369	4.00161
204.183	6.60779
205.999	7.766
207.813	9.24302
209.626	10.3403
211.439	11.0864
213.253	11.4034
215.065	12.8405
216.877	14.4092
218.688	16.6521
220.5	16.0136
222.312	17.1243
224.123	17.6036
225.933	16.1391
227.742	15.1231
229.552	14.1482
231.361	14.4191
233.171	15.1301
234.98	15.5309
236.787	15.427
238.595	15.1406
240.402	15.7913
242.209	15.9557
244.015	16.4312
245.822	16.4867
247.627	15.9838
249.435	15.7252
251.24	14.8206
253.045	14.9853
254.849	14.4789
256.653	13.8432
258.457	14.3158
260.26	14.3533
262.063	12.9521
263.866	13.2024
265.668	12.0365
267.47	13.4772
269.271	13.5691
271.073	14.1829
272.873	13.8789
274.674	12.7706
276.474	11.5887
278.274	10.3855
280.073	10.7082
281.872	10.4006
283.671	8.63527
285.47	9.30925
287.268	8.8537
289.065	8.59335
290.863	8.68539
292.66	7.65859
294.456	6.9848
296.253	5.25954
298.049	5.69909
299.844	5.86075
301.637	5.3276
303.432	5.68192
305.227	6.7417
307.021	6.97474
308.815	6.96485
310.609	6.29363
312.402	7.85646
314.195	7.6004
315.987	6.48792
317.777	7.58805
319.569	8.34017
321.36	9.95929
323.151	9.96207
324.942	9.44159
326.733	10.5007
328.521	11.4751
330.31	12.8295
332.1	14.5094
333.889	16.0657
335.677	16.3626
337.464	16.2962
339.252	17.9951
341.039	19.642
342.826	21.8972
344.611	22.252
346.398	23.5943
348.184	24.9967
349.97	24.18
351.754	25.815
353.539	25.8402
355.324	25.6485
357.106	25.9246
358.89	25.4531
360.674	24.886
362.455	24.6394
364.239	25.979
366.021	27.2518
367.804	27.5282
369.584	27.8609
371.366	26.913
373.145	26.9063
374.926	26.773
376.707	25.1744
378.485	25.0421
380.265	24.2946
382.045	24.0011
383.822	23.8219
385.601	24.451
387.378	25.6533
389.156	24.8798
390.934	25.161
392.71	25.3953
394.487	26.3901
396.262	25.453
398.038	25.0553
399.813	24.2329
401.588	23.5759
403.362	20.9598
405.137	20.178
406.912	20.2069
408.685	19.2733
410.459	19.748
412.23	18.9821
414.004	20.2173
415.775	21.0057
417.548	21.2388
419.318	22.3143
421.089	22.1696
422.86	21.2344
424.63	20.742
426.401	20.8351
428.17	21.7004
429.94	22.3163
431.708	21.5979
433.478	21.8403
435.245	20.9177
437.012	20.1423
438.781	18.7597
440.547	19.0343
442.315	18.3731
444.081	20.3777
445.846	20.3327
447.613	20.0668
449.378	20.0312
451.142	22.0093
452.908	22.9221
454.672	23.664
456.435	22.2149
458.2	22.4428
459.963	22.2181
461.725	22.9017
463.489	22.3054
465.251	22.9173
467.012	24.4244
468.775	25.8501
470.536	25.6662
472.296	26.1992
474.056	27.5305
475.817	27.806
477.576	29.4872
479.335	29.8808
481.094	30.1127
482.854	31.2208
484.612	30.6475
486.37	32.6881
488.127	33.1038
489.886	34.8347
491.642	35.0812
493.398	37.3901
495.154	38.4456
496.91	39.8053
498.667	41.4409
500.422	42.4607
502.176	43.6187
503.93	43.9024
505.684	44.1741
507.438	44.592
509.191	43.2994
510.946	44.8334
512.698	45.3661
514.45	45.0596
516.202	45.8099
517.954	45.5523
519.705	43.8035
521.456	43.8994
523.206	43.4119
524.956	42.1627
526.706	41.1588
528.456	41.451
530.207	41.8702
531.956	41.1939
533.704	39.6273
535.452	38.4728
537.2	38.6463
538.947	39.4321
540.694	37.5471
542.441	35.4442
544.188	33.7174
545.934	32.4783
547.68	30.915
549.425	29.5319
551.17	28.9865
552.915	28.5253
554.659	27.4455
556.403	26.4773
558.145	25.31
559.889	24.921
561.632	23.8326
563.375	22.0073
565.117	21.3868
566.859	19.7611
568.601	19.0222
570.342	17.2362
572.083	15.8421
573.824	14.649
575.565	13.9487
577.303	13.0643
579.043	11.9046
580.782	11.2043
582.521	12.0276
584.26	12.0319
585.998	10.9948
587.734	9.60982
589.472	8.63033
591.21	7.89416
592.947	7.54312
594.684	6.91311
596.418	5.89379
598.154	7.39953
599.89	6.78457
601.626	6.15428
603.361	7.39957
605.094	6.48726
606.828	7.07245
608.562	8.28158
610.296	7.65633
612.027	6.89364
613.761	8.16432
615.493	9.70055
617.224	9.81007
618.956	9.08048
620.688	9.21125
622.419	9.07416
624.149	9.62454
625.879	10.473
627.61	9.82986
629.338	9.47575
631.068	10.2773
632.797	9.28387
634.525	9.35953
636.254	9.66317
637.98	8.83973
639.708	7.08383
641.436	7.0749
643.162	7.07582
644.889	7.15736
646.614	6.514
648.34	6.86211
650.067	6.68786
651.791	6.65371
653.516	5.45326
655.239	4.43241
656.964	4.60047
658.687	4.81475
660.411	4.75187
662.133	4.61061
663.857	4.14551
665.58	4.85267
667.301	4.88642
669.024	5.99038
670.744	4.48032
672.464	3.8193
674.186	2.99752
675.905	3.39195
677.626	2.91166
679.345	2.96564
681.065	2.90111
682.783	3.98147
684.503	5.61303
686.22	5.72168
687.939	6.72042
689.656	8.5591
691.372	7.33186
693.09	7.87466
694.806	7.71326
696.523	7.55809
698.239	8.70416
699.953	8.57427
701.67	9.1386
703.384	9.51945
705.098	11.1093
706.813	11.1334
708.526	12.2617
710.239	12.8022
711.954	12.8593
713.666	13.285
715.378	13.5377
717.091	14.0685
718.802	13.8868
720.513	14.1465
722.226	14.4388
723.936	14.015
725.646	15.6144
727.355	17.4122
729.067	18.5067
730.776	19.3821
732.484	20.5598
734.192	21.5174
735.902	21.3005
737.61	21.6123
739.317	21.9922
741.024	22.6968
742.731	24.7431
744.439	24.8579
746.145	25.5521
747.851	27.5752
749.556	29.8863
751.262	31.1117
752.966	32.0576
754.673	33.0003
756.377	34.0861
758.081	34.7502
759.784	34.6631
761.487	36.386
763.19	37.3009
764.892	38.4816
766.594	40.6628
768.296	41.5291
770	42.9361
771.701	43.8847
773.402	45.1435
775.102	46.0468
776.803	45.5331
778.503	45.8035
780.202	46.5904
781.901	47.5596
783.6	48.3247
785.299	48.2342
786.997	49.673
788.695	50.6742
790.393	51.7548
792.09	50.887
793.787	52.0132
795.484	51.595
797.18	51.9149
798.877	53.1547
800.572	52.2176
802.268	52.5373
803.963	54.1151
805.658	54.3786
807.35	55.9103
809.044	57.3363
810.738	58.7506
812.432	59.1165
814.125	59.925
815.818	59.1632
817.51	60.0442
819.202	60.3026
820.894	60.41
822.584	60.716
824.275	61.2156
825.966	61.9086
827.657	62.3924
829.347	61.9147
831.037	62.4889
832.725	63.659
834.414	63.7101
836.103	64.207
837.792	64.3764
839.481	65.2209
841.167	66.1262
842.854	65.885
844.542	65.7411
846.229	65.4348
847.914	65.1973
849.6	65.0984
851.287	65.1869
852.973	63.8514
854.656	63.0948
856.341	62.3408
858.026	61.4299
859.711	60.3986
861.393	58.6001
863.077	57.6232
864.761	57.2218
866.442	55.8707
868.125	54.4814
869.808	53.947
871.489	53.8689
873.171	54.1047
874.85	53.6503
876.532	51.3133
878.213	50.5166
879.892	49.7418
881.572	48.7717
883.251	48.2968
884.931	47.993
886.61	47.9267
888.287	46.9218
889.966	45.4749
891.643	46.4559
893.321	47.161
894.997	45.5039
896.675	44.5101
898.352	44.3615
900.028	43.4468
901.704	44.1719
903.379	43.841
905.055	42.696
906.729	41.5669
908.404	39.9764
910.077	39.6985
911.75	38.4107
913.425	38.265
915.097	37.895
916.771	37.6029
918.443	37.6213
920.116	37.2396
921.787	35.9239
923.46	36.1202
925.13	35.1
926.8	34.5417
928.472	33.2169
930.141	31.6726
931.813	30.9475
933.481	30.0404
935.15	29.1667
936.82	27.2323
938.488	25.5159
940.156	24.0182
941.825	23.5099
943.492	21.0888
945.158	18.7544
946.827	15.8505
948.493	14.4742
950.158	13.5523
951.824	12.5896
953.491	12.756
955.156	10.5997
956.82	9.22506
958.486	6.97202
960.15	5.41627
961.814	5.22248
963.477	6.48139
965.142	6.96312
966.804	8.19452
968.467	8.50238
970.129	8.16723
971.79	9.27343
973.454	11.1176
975.115	12.6867
976.776	13.1511
978.436	13.3992
980.096	14.6394
981.756	15.3998
983.417	16.4791
985.077	17.8114
986.736	17.9357
988.394	17.7419
990.052	18.1924
991.71	17.8387
993.368	19.0409
995.025	19.397
996.682	19.901
998.341	21.113
999.998	22.0104
1001.65	23.0249
1003.31	23.0616
1004.97	23.8606
1006.62	25.1979
1008.28	26.3332
1009.93	27.9635
1011.58	28.1208
1013.24	28.8218
1014.89	30.8596
1016.54	32.1416
1018.2	32.2913
1019.85	33.3778
1021.5	36.0679
1023.16	36.8499
1024.81	39.4268
1026.46	40.4691
1028.11	43.6681
1029.76	47.0012
1031.41	52.1345
1033.06	54.859
1034.71	57.382
1036.36	58.8563
1038.01	61.3025
1039.66	64.8436
1041.31	68.6627
1042.95	72.191
1044.6	75.1386
1046.25	79.2658
1047.9	80.0513
1049.54	83.1104
1051.19	84.6159
1052.84	87.1238
1054.48	90.0535
1056.13	91.8921
1057.77	92.7954
1059.42	93.1349
1061.06	93.557
1062.71	92.9262
1064.35	93.4438
1066	94.4948
1067.64	93.1977
1069.28	90.3262
1070.93	88.4266
1072.57	86.7371
1074.21	83.521
1075.85	81.4529
1077.49	78.7167
1079.13	74.5344
1080.78	71.2265
1082.42	65.8013
1084.06	61.0594
1085.7	57.4062
1087.34	55.1788
1088.97	53.8341
1090.61	52.6161
1092.25	51.3105
1093.89	50.5935
1095.53	49.79
1097.17	49.3935
1098.8	49.0835
1100.44	48.9667
1102.08	49.9153
1103.71	50.0465
1105.35	48.734
1106.99	50.0404
1108.62	50.1023
1110.26	50.5853
1111.89	50.4063
1113.52	49.3111
1115.16	48.4274
1116.79	47.6066
1118.43	48.3277
1120.06	49.2692
1121.69	47.6274
1123.32	47.3047
1124.96	46.3305
1126.59	45.6089
1128.22	45.8655
1129.85	44.5947
1131.48	44.8221
1133.11	42.7778
1134.75	42.1672
1136.37	40.7002
1138	38.5357
1139.63	36.3529
1141.26	35.0963
1142.89	33.5166
1144.52	31.3205
1146.15	28.4867
1147.78	25.9373
1149.4	22.2951
1151.03	19.7323
1152.66	18.0147
1154.28	15.5879
1155.91	11.4912
1157.54	8.34372
1159.16	5.32164
1160.79	1.69297
1162.41	0.23377
1164.04	-1.67341
1165.66	-2.1188
1167.29	-1.04151
1168.91	0.524323
1170.53	1.53175
1172.16	1.66672
1173.78	3.1917
1175.4	3.89923
1177.02	4.57037
1178.65	5.77557
1180.27	6.49759
1181.89	7.34517
1183.51	8.22114
1185.13	8.09696
1186.75	8.45042
1188.37	9.06254
1189.99	9.15198
1191.61	9.62967
1193.23	10.2532
1194.85	11.3813
1196.47	13.27
1198.08	14.2945
1199.7	14.659
1201.32	14.1639
1202.94	15.064
1204.55	16.3002
1206.17	17.4678
1207.79	19.0487
1209.4	21.0341
1211.02	21.8789
1212.63	23.1181
1214.25	24.6633
1215.86	26.6198
1217.48	28.0328
1219.09	29.2814
1220.71	30.6932
1222.32	32.7357
1223.93	33.6987
1225.54	36.1571
1227.16	38.0659
1228.77	41.5372
1230.38	42.8728
1231.99	44.2818
1233.6	45.7703
1235.22	47.4222
1236.83	49.4166
1238.44	51.312
1240.05	53.4727
1241.66	55.0714
1243.26	57.6004
1244.87	58.7593
1246.48	60.7065
1248.09	64.0576
1249.7	66.5257
1251.31	67.8948
1252.92	67.9928
1254.52	69.2398
1256.13	70.5565
1257.74	73.8219
1259.34	76.2506
1260.95	78.1742
1262.55	82.6048
1264.16	85.1708
1265.76	87.2073
1267.37	91.5121
1268.97	95.8417
1270.58	100.283
1272.18	105.47
1273.78	110.393
1275.39	115.046
1276.99	118.627
1278.59	122.56
1280.2	126.538
1281.8	131.101
1283.4	135.712
1285	139.543
1286.6	143.198
1288.2	146.802
1289.8	150.432
1291.4	152.604
1293	156.202
1294.6	159.518
1296.2	162.397
1297.8	163.987
1299.4	165.763
1301	167.401
1302.6	169.127
1304.19	168.86
1305.79	169.015
1307.39	167.581
1308.99	167.111
1310.58	165.118
1312.18	163.779
1313.77	162.297
1315.37	160.265
1316.96	157.696
1318.56	154.164
1320.15	150.299
1321.75	147.06
1323.34	143.844
1324.94	138.577
1326.53	134.81
1328.12	130.82
1329.72	126.58
1331.31	122.244
1332.9	117.953
1334.49	116.059
1336.08	114.162
1337.67	111.699
1339.27	108.51
1340.86	106.424
1342.45	105.504
1344.04	102.303
1345.63	101.078
1347.22	100.226
1348.8	98.9702
1350.39	98.1783
1351.98	96.9123
1353.57	95.323
1355.16	94.1719
1356.75	92.5905
1358.33	92.7003
1359.92	91.914
1361.51	91.1131
1363.09	90.9667
1364.68	89.9523
1366.27	88.5793
1367.85	88.4566
1369.44	89.1089
1371.02	89.2167
1372.61	89.8223
1374.19	89.3251
1375.77	89.4462
1377.36	89.3135
1378.94	90.1656
1380.52	89.9466
1382.11	90.0278
1383.69	89.16
1385.27	89.804
1386.85	91.3195
1388.43	92.4932
1390.02	93.2462
1391.6	93.1323
1393.18	93.5827
1394.76	94.1602
1396.34	93.5426
1397.92	93.5319
1399.5	94.8243
1401.08	97.2114
1402.65	101.414
1404.23	106.172
1405.81	112.703
1407.39	119.662
1408.97	127.533
1410.54	133.902
1412.12	141.237
1413.7	149.079
1415.27	156.999
1416.85	164.836
1418.43	174.15
1420	183.803
1421.58	193.094
1423.15	203.504
1424.73	213.919
1426.3	223.713
1427.87	234.701
1429.45	244.343
1431.02	252.536
1432.6	261.921
1434.17	270.209
1435.74	278.182
1437.31	285.839
1438.89	291.144
1440.46	296.964
1442.03	300.56
1443.6	302.988
1445.17	304.92
1446.74	306.169
1448.31	307.275
1449.88	306.307
1451.45	302.967
1453.02	299.929
1454.59	295.622
1456.16	288.97
1457.72	281.697
1459.29	272.625
1460.86	264.397
1462.43	254.023
1463.99	243.434
1465.56	232.228
1467.13	219.508
1468.69	206.059
1470.26	191.519
1471.83	178.82
1473.39	165.754
1474.95	153.813
1476.52	143.097
1478.08	133.701
1479.65	123.919
1481.21	115.793
1482.78	107.492
1484.34	98.3257
1485.9	91.0174
1487.47	83.4528
1489.03	76.078
1490.59	70.2065
1492.15	63.7952
1493.71	58.8497
1495.27	54.8796
1496.84	51.5298
1498.39	49.3691
1499.96	47.1394
1501.52	45.7362
1503.07	43.025
1504.64	42.5663
1506.19	41.191
1507.75	39.2641
1509.31	39.1266
1510.87	38.3139
1512.43	37.8109
1513.98	37.1247
1515.54	37.0564
1517.1	35.4469
1518.65	35.1429
1520.21	34.5549
1521.77	34.5476
1523.32	34.6411
1524.88	34.6137
1526.44	35.4129
1527.99	35.0129
1529.54	34.8645
1531.1	35.36
1532.65	35.7443
1534.21	35.5403
1535.76	36.2721
1537.31	37.7722
1538.87	38.0249
1540.42	37.8823
1541.97	38.5544
1543.52	39.0245
1545.07	39.1993
1546.63	39.4317
1548.18	40.1791
1549.73	41.6003
1551.28	41.8075
1552.83	42.2762
1554.38	43.4851
1555.93	44.9203
1557.48	46.0256
1559.03	48.0378
1560.57	50.7465
1562.12	52.0531
1563.67	54.8219
1565.22	56.8633
1566.77	59.2709
1568.31	61.2327
1569.86	63.579
1571.41	66.7173
1572.95	69.3741
1574.5	71.7306
1576.05	75.2707
1577.59	77.5541
1579.14	79.6345
1580.68	81.6831
1582.23	84.7368
1583.77	85.3579
1585.31	87.9095
1586.86	89.9761
1588.4	90.607
1589.95	92.5846
1591.49	92.9432
1593.03	94.5453
1594.57	94.5895
1596.11	96.283
1597.66	97.3155
1599.2	97.5702
1600.74	98.0783
1602.28	98.4905
1603.82	99.4954
1605.36	98.988
1606.9	98.9955
1608.44	98.0527
1609.98	97.293
1611.52	96.2176
1613.06	95.909
1614.6	95.1114
1616.13	93.3106
1617.67	92.3895
1619.21	91.1418
1620.75	89.5164
1622.28	88.644
1623.82	87.3681
1625.36	85.7284
1626.89	84.9463
1628.43	84.1797
1629.96	83.0976
1631.5	84.4564
1633.04	83.8026
1634.57	84.5472
1636.11	86.0451
1637.64	87.7202
1639.17	88.9915
1640.71	90.129
1642.24	90.7354
1643.77	91.6803
1645.31	93.1856
1646.84	94.9917
1648.37	95.8845
1649.9	96.0342
1651.43	97.2686
1652.96	97.7965
1654.5	97.3293
1656.03	96.8894
1657.56	97.2852
1659.09	96.7208
1660.62	96.3921
1662.15	96.1407
1663.67	94.7192
1665.2	93.055
1666.73	91.5862
1668.26	89.6377
1669.79	87.619
1671.32	85.3979
1672.84	83.3381
1674.37	81.4138
1675.9	78.606
1677.43	76.2395
1678.95	73.5014
1680.48	70.2777
1682	66.5747
1683.53	63.68
1685.05	60.7701
1686.58	58.7143
1688.1	56.8581
1689.63	54.0007
1691.15	51.9126
1692.68	49.7897
1694.2	47.9017
1695.72	46.7245
1697.25	44.7584
1698.77	43.6211
1700.29	42.3475
1701.81	41.1859
1703.33	40.6048
1704.86	39.6992
1706.38	39.2446
1707.9	40.5346
1709.42	40.1268
1710.94	40.6873
1712.46	40.0665
1713.98	39.2166
1715.5	38.2469
1717.02	37.2723
1718.54	36.0146
1720.06	36.035
1721.57	36.145
1723.09	35.6412
1724.61	35.6132
1726.13	34.6839
1727.64	34.2311
1729.16	33.4301
1730.68	32.9564
1732.19	32.0181
1733.71	32.1563
1735.23	30.8451
1736.74	30.4443
1738.26	29.0052
1739.77	27.861
1741.29	26.7318
1742.8	26.479
1744.31	25.4241
1745.83	24.8955
1747.34	24.7388
1748.85	24.0023
1750.37	23.0712
1751.88	21.5317
1753.39	20.4458
1754.91	19.2639
1756.42	18.1595
1757.93	17.8569
1759.44	16.9839
1760.95	16.1292
1762.46	15.0259
1763.97	13.7634
1765.48	13.2395
1766.99	13.5307
1768.5	12.2069
1770.01	11.6355
1771.52	10.6168
1773.03	9.60385
1774.54	9.02975
1776.04	8.31248
1777.55	7.32323
1779.06	6.82676
1780.57	6.65773
1782.07	6.78324
1783.58	6.26186
1785.09	5.28076
1786.59	4.16165
1788.1	2.73914
1789.6	2.13349
1791.11	1.80323
1792.61	1.38459
1794.12	0.731012
1795.62	1.2013
1797.13	1.34159
1798.63	0.764184
1800.13	1.06071
1801.64	0.903305
1803.14	0.699068
1804.64	1.13019
1806.15	1.53376
1807.65	1.68647
1809.15	2.67689
1810.65	1.98583
1812.15	2.61463
1813.65	2.69608
1815.16	2.86856
1816.66	3.33658
1818.15	3.09633
1819.66	2.35536
1821.16	3.03742
1822.65	3.49844
1824.15	3.27841
1825.65	3.28318
1827.15	3.65135
1828.65	3.56774
1830.15	3.52584
1831.64	3.665
1833.14	3.7092
1834.64	3.18441
1836.14	3.41418
1837.63	2.84155
1839.13	3.29529
1840.62	3.36147
1842.12	2.71708
1843.62	2.39433
1845.11	2.97816
1846.61	3.03272
1848.1	3.12099
1849.6	2.96328
1851.09	2.46982
1852.58	2.94313
1854.08	3.22713
1855.57	3.42311
1857.06	3.48555
1858.55	3.64178
1860.05	3.86011
1861.54	3.40978
1863.03	3.59563
1864.52	3.23028
1866.01	3.75009
1867.5	3.6132
1869	3.99717
1870.49	4.59767
1871.98	4.70486
1873.47	5.42361
1874.96	6.31993
1876.44	6.15835
1877.93	5.1345
1879.42	5.05134
1880.91	5.24245
1882.4	4.8051
1882.47	4.2378
1883.96	4.1483
1885.46	4.28328
1886.95	3.74123
1888.44	3.19059
1889.94	2.55117
1891.43	2.33241
1892.93	3.02214
1894.42	4.1728
1895.91	4.53836
1897.4	4.26173
1898.89	4.72536
1900.39	5.1788
1901.88	4.56349
1903.37	4.23193
1904.86	4.46135
1906.35	4.71566
1907.84	4.91486
1909.33	4.94385
1910.82	4.08484
1912.31	5.01764
1913.8	4.57989
1915.29	4.57053
1916.77	5.33783
1918.26	5.78992
1919.75	5.30319
1921.24	5.25965
1922.73	5.26724
1924.21	5.09886
1925.7	5.69552
1927.19	5.30764
1928.67	5.3069
1930.16	5.3485
1931.64	5.75698
1933.13	5.98952
1934.61	5.48688
1936.1	4.85978
1937.58	4.37677
1939.07	5.22971
1940.55	4.72324
1942.04	4.74956
1943.52	4.92783
1945	4.63673
1946.49	4.36292
1947.97	3.73349
1949.45	2.36119
1950.93	2.83265
1952.42	3.76214
1953.9	3.71971
1955.38	3.45433
1956.86	3.51583
1958.34	4.26929
1959.82	3.70631
1961.3	3.65497
1962.78	3.99806
1964.26	4.62876
1965.74	5.54029
1967.22	5.97262
1968.7	5.91271
1970.18	5.75816
1971.65	5.4668
1973.13	5.23602
1974.61	4.77992
1976.09	4.8954
1977.57	5.17298
1979.04	4.92401
1980.52	5.00464
1982	4.81997
1983.47	4.19366
1984.95	4.00241
1986.42	3.88991
1987.9	3.5206
1989.37	3.39244
1990.85	3.9921
1992.32	3.4592
1993.8	2.48472
1995.27	2.85145
1996.75	2.67393
1998.22	2.49899
1999.69	2.9249
2001.17	3.20394
2002.64	3.18658
2004.11	3.0198
2005.58	2.52293
2007.05	2.58101
2008.53	1.46697
2010	1.02971
2011.47	1.42171
2012.94	1.55707
2014.41	1.4086
2015.88	2.2148
2017.35	1.93202
2018.82	1.32199
2020.29	1.85944
2021.76	3.16269
2023.23	3.69107
2024.7	5.67051
2026.16	6.02864
2027.63	5.92797
2029.1	6.59256
2030.57	7.8712
2032.03	8.55396
2033.5	8.9318
2034.97	9.99513
2036.44	10.5762
2037.9	10.0613
2039.37	10.0319
2040.83	10.302
2042.3	10.3137
2043.76	10.4148
2045.23	10.8881
2046.69	11.1561
2048.16	11.5072
2049.62	12.6422
2051.08	12.2137
2052.55	11.586
2054.01	12.0562
2055.47	12.1106
2056.94	12.283
2058.4	11.69
2059.86	12.3874
2061.32	12.7533
2062.79	12.9656
2064.25	13.2786
2065.71	12.5072
2067.17	12.3147
2068.63	13.385
2070.09	13.2485
2071.55	12.7376
2073.01	11.6779
2074.47	10.788
2075.93	8.89415
2077.39	8.19509
2078.85	8.20176
2080.31	8.97813
2081.76	8.93974
2083.22	8.67591
2084.68	8.58447
2086.13	8.60273
2087.59	8.77055
2089.05	9.64591
2090.51	9.44986
2091.96	10.5544
2093.42	11.3164
2094.87	12.91
2096.33	12.9719
2097.78	13.6074
2099.24	13.981
2100.69	14.5564
2102.15	15.5812
2103.6	16.2274
2105.06	16.7348
2106.51	17.6102
2107.96	17.2834
2109.42	17.0251
2110.87	16.6484
2112.32	18.2063
2113.77	18.6428
2115.23	18.9319
2116.68	19.6314
2118.13	20.5611
2119.58	20.5513
2121.03	21.6476
2122.48	22.7096
2123.93	22.8222
2125.38	24.1391
2126.83	25.7693
2128.28	26.7297
2129.73	27.3772
2131.18	28.4684
2132.63	30.7948
2134.08	31.1828
2135.53	32.3259
2136.97	33.4553
2138.42	34.4947
2139.87	35.4349
2141.32	36.9619
2142.76	36.4249
2144.21	36.4574
2145.66	36.7173
2147.1	37.6219
2148.55	38.4356
2150	40.7916
2151.44	42.4339
2152.89	43.573
2154.33	43.9222
2155.78	44.5315
2157.22	45.5596
2158.66	46.7261
2160.11	48.0047
2161.55	49.6404
2163	50.4288
2164.44	51.5149
2165.88	51.9626
2167.32	52.6894
2168.77	51.6724
2170.21	52.7429
2171.65	53.6163
2173.09	53.9637
2174.53	54.6437
2175.97	54.0948
2177.41	54.6933
2178.85	53.6813
2180.29	52.5136
2181.73	52.1815
2183.17	51.5232
2184.61	51.992
2186.05	51.0606
2187.49	50.0449
2188.93	50.2666
2190.37	49.6493
2191.81	49.2244
2193.24	48.4935
2194.68	47.2806
2196.12	47.0286
2197.56	46.7987
2198.99	45.7368
2200.43	44.4949
2201.87	43.4794
2203.3	44.3496
2204.74	43.0448
2206.17	42.0227
2207.61	41.232
2209.04	40.4744
2210.48	39.0278
2211.91	37.6275
2213.35	37.358
2214.78	35.7081
2216.21	34.2664
2217.65	33.0499
2219.08	31.4013
2220.51	30.7447
2221.95	30.5235
2223.38	29.4349
2224.81	28.6495
2226.24	27.602
2227.67	26.5469
2229.1	26.3743
2230.54	25.6116
2231.97	24.8017
2233.4	24.1933
2234.83	23.7109
2236.26	22.2272
2237.69	21.2728
2239.11	20.4027
2240.54	19.9139
2241.97	20.3871
2243.4	19.185
2244.83	19.021
2246.26	18.1609
2247.69	16.1346
2249.11	16.1906
2250.54	14.8729
2251.97	14.4209
2253.4	14.0753
2254.82	14.1389
2256.25	14.4228
2257.67	13.9559
2259.1	13.6862
2260.53	14.2144
2261.95	13.5491
2263.38	13.1356
2264.8	12.2455
2266.23	11.9149
2267.65	12.4788
2269.07	12.2279
2270.5	11.2614
2271.92	10.7596
2273.34	10.7155
2274.77	10.6482
2276.19	9.61601
2277.61	10.0652
2279.03	9.8992
2280.46	10.0392
2281.88	9.44221
2283.3	9.49915
2284.72	9.15666
2286.14	8.13061
2287.56	7.71963
2288.98	8.23633
2290.4	8.17614
2291.82	8.22736
2293.24	7.30906
2294.66	6.6826
2296.08	6.83767
2297.5	6.61565
2298.92	6.12062
2300.34	7.51793
2301.76	7.22765
2303.17	7.71549
2304.59	8.08239
2306.01	8.56626
2307.43	8.48009
2308.84	8.34069
2310.26	8.08421
2311.68	8.58854
2313.09	9.36327
2314.51	9.02908
2315.92	9.10122
2317.34	8.75451
2318.75	9.50289
2320.17	10.3958
2321.58	10.0541
2323	10.1959
2324.41	10.4858
2325.82	10.0475
2327.24	9.66354
2328.65	9.44273
2330.06	8.94911
2331.48	8.43854
2332.89	8.10607
2334.3	7.56901
2335.71	7.46857
2337.12	7.39603
2338.54	7.13114
2339.95	6.92398
2341.36	6.15924
2342.77	6.18334
2344.18	5.54146
2345.59	5.69922
2347	6.39577
2348.41	6.52814
2349.82	5.60524
2351.23	4.89783
2352.64	4.4688
2354.04	4.38451
2355.45	3.33621
2356.86	3.04859
2358.27	2.97343
2359.68	2.19631
2361.08	1.44731
2362.49	1.01571
2363.9	1.23856
2365.3	1.76035
2366.71	2.16611
2368.12	2.36772
2369.52	2.64074
2370.93	3.52149
2372.33	2.11298
2373.74	1.93951
2375.14	2.56278
2376.55	2.57603
2377.95	2.66165
2379.36	3.06234
2380.76	3.81862
2382.16	4.59476
2383.57	4.60559
2384.97	4.30851
2386.37	4.19001
2387.78	4.53096
2389.18	4.32381
2390.58	3.97842
2391.98	3.18887
2393.38	2.58562
2394.79	2.34211
2396.19	1.90992
2397.59	2.46235
2398.99	2.96414
2400.39	3.42543
2401.79	3.78067
2403.19	4.1374
2404.59	4.82782
2405.99	5.27646
2407.39	5.51518
2408.78	5.68044
2410.18	6.12297
2411.58	6.34338
2412.98	7.25326
2414.38	7.45408
2415.77	7.95789
2417.17	7.46043
2418.57	6.99755
2419.97	7.14764
2421.36	7.59428
2422.76	8.04711
2424.15	7.5556
2425.55	7.5204
2426.95	8.10833
2428.34	8.11234
2429.74	7.23795
2431.13	7.71604
2432.52	7.7595
2433.92	7.07537
2435.31	6.31639
2436.71	6.25588
2438.1	5.84805
2439.49	5.77417
2440.89	5.84874
2442.28	5.97683
2443.67	7.44974
2445.06	7.34353
2446.46	7.27043
2447.85	7.62284
2449.24	7.87569
2450.63	6.9785
2452.02	6.7696
2453.41	6.28728
2454.8	5.83764
2456.19	5.53417
2457.58	5.15389
2458.97	4.61674
2460.36	3.86886
2461.75	3.03243
2463.14	3.60998
2464.53	3.64827
2465.92	4.02428
2467.31	4.23588
2468.69	4.45734
2470.08	4.58795
2471.47	4.03949
2472.86	4.27805
2474.24	4.41613
2475.63	4.63124
2477.02	4.40199
2478.4	4.54109
2479.79	4.50278
2481.17	4.08475
2482.56	4.08126
2483.94	3.59591
2485.33	3.71952
2486.72	3.82104
2488.1	4.24476
2489.48	4.95887
2490.87	5.08903
2492.25	4.56311
2493.64	3.80843
2495.02	3.97139
2496.4	3.12445
2497.79	2.83352
2499.17	2.50071
2500.55	2.06675
2501.93	1.55018
2503.31	0.869694
2504.69	0.767419
2506.08	1.52612
2507.46	1.33611
2508.84	1.94384
2510.22	1.39823
2511.6	1.30902
2512.98	1.44503
2514.36	1.12812
2515.74	1.46885
2517.12	1.05013
2518.5	0.760624
2519.88	0.202785
2521.25	0.0551309
2522.63	-0.3529
2524.01	-0.91655
2525.39	-0.974803
2526.77	-1.04215
2528.14	-0.917202
2529.52	-0.591037
2530.9	-0.012298
2532.27	0.306954
2533.65	0.335781
2535.03	1.11518
2536.4	1.61974
2537.78	0.999384
2539.15	0.922207
2540.53	0.73229
2541.9	1.30293
2543.28	1.47569
2544.65	1.58667
2546.03	1.40463
2547.4	1.76143
2548.77	2.62148
2550.15	2.54942
2551.52	3.76097
2552.89	3.59831
2554.27	3.39351
2555.64	3.84459
2557.01	4.022
2558.38	3.92997
2559.75	3.80976
2561.12	3.41431
2562.5	3.85457
2563.87	4.36225
2565.24	4.02682
2566.61	4.95837
2567.98	4.22055
2569.35	4.33775
2570.72	5.19105
2572.09	5.76995
2573.46	6.31473
2574.83	6.81084
2576.19	6.44807
2577.56	6.9964
2578.93	7.31135
2580.3	7.46978
2581.67	7.91199
2583.04	7.6597
2584.4	7.19573
2585.77	7.52583
2587.14	7.57608
2588.5	7.68469
2589.87	8.01194
2591.23	8.36351
2592.6	9.55839
2593.97	11.134
2595.33	11.4373
2596.7	11.6227
2598.06	11.2297
2599.43	11.006
2600.79	10.3821
2602.15	11.2384
2603.52	10.5918
2604.88	9.7497
2606.25	8.61918
2607.61	9.15901
2608.97	8.66128
2610.33	8.67761
2611.7	8.85959
2613.06	8.1706
2614.42	8.09872
2615.78	8.07726
2617.15	7.62467
2618.51	7.15686
2619.87	7.1861
2621.23	6.84561
2622.59	7.54286
2623.95	8.02827
2625.31	7.38282
2626.67	7.71572
2628.03	8.44379
2629.39	8.36029
2630.75	8.18774
2632.1	8.3275
2633.46	7.71784
2634.82	8.47377
2636.18	7.99652
2637.54	8.78983
2638.89	9.97581
2640.25	10.3056
2641.61	10.9517
2642.97	11.3497
2644.32	11.6349
2645.68	12.1914
2647.03	12.4934
2648.39	12.8829
2649.75	13.2372
2651.1	13.0922
2652.46	13.4947
2653.81	13.2423
2655.17	13.4952
2656.52	14.0876
2657.88	14.9956
2659.23	14.8849
2660.58	15.2027
2661.94	14.8047
2663.29	13.8047
2664.64	13.7147
2666	13.8161
2667.35	13.8142
2668.7	13.7833
2670.05	14.3541
2671.4	13.2905
2672.76	13.1762
2674.11	13.1176
2675.46	13.0704
2676.81	12.5645
2678.16	13.817
2679.51	14.0123
2680.86	14.106
2682.21	15.0228
2683.56	16.0126
2684.91	16.8415
2686.26	17.855
2687.61	18.2706
2688.96	18.6709
2690.3	19.4823
2691.65	19.7604
2693	20.9189
2694.35	22.1088
2695.7	23.5249
2697.04	24.9494
2698.39	26.6697
2699.74	28.2462
2701.08	29.7237
2702.43	31.5212
2703.77	32.8153
2705.12	35.4067
2706.47	36.9988
2707.81	38.4485
2709.16	40.7916
2710.5	41.467
2711.85	42.4307
2713.19	43.2383
2714.53	44.2226
2715.88	45.1992
2717.22	44.9481
2718.57	45.6143
2719.91	46.3166
2721.25	46.803
2722.59	47.3637
2723.94	47.4955
2725.28	46.8749
2726.62	45.5691
2727.96	45.2183
2729.3	44.9989
2730.65	44.4545
2731.99	43.4263
2733.33	41.6079
2734.67	39.5522
2736.01	37.2698
2737.35	35.1578
2738.69	32.5924
2740.03	30.554
2741.37	28.9439
2742.71	27.5011
2744.05	26.0376
2745.38	25.8055
2746.72	23.1481
2748.06	21.3124
2749.4	19.3994
2750.74	17.1763
2752.07	14.9531
2753.41	12.8629
2754.75	11.5387
2756.09	10.0193
2757.42	9.08434
2758.76	8.32105
2760.09	7.4985
2761.43	6.63713
2762.77	6.30561
2764.1	5.27546
2765.44	4.48503
2766.77	3.12198
2768.11	2.28359
2769.44	1.54848
2770.77	1.72507
2772.11	1.74324
2773.44	1.1471
2774.77	0.916287
2776.11	0.917129
2777.44	0.366947
2778.77	0.767278
2780.11	1.09587
2781.44	1.65857
2782.77	1.84423
2784.1	2.07142
2785.43	2.65854
2786.77	3.36959
2788.1	3.37442
2789.43	3.17401
2790.76	3.33971
2792.09	3.86348
2793.42	4.10604
2794.75	3.59252
2796.08	3.90012
2797.41	4.05767
2798.74	3.9659
2800.07	3.87739
2801.4	3.68214
2802.72	2.61757
2804.05	3.29494
2805.38	2.37722
2806.71	1.70566
2808.04	1.01736
2809.36	-0.251088
2810.69	-0.912615
2812.02	-2.10344
2813.34	-1.77965
2814.67	0.276496
2816	3.46616
2817.32	9.26591
2818.65	16.6449
2819.97	26.9867
2821.3	39.4475
2822.62	52.714
2823.95	66.4566
2825.27	81.3539
2826.6	97.1714
2827.92	114.663
2829.25	133.575
2830.57	152.325
2831.89	171.338
2833.22	191.369
2834.54	211.178
2835.86	231.784
2837.18	251.802
2838.51	272.227
2839.83	291.612
2841.15	310.39
2842.47	329.191
2843.79	346.987
2845.11	365.929
2846.43	383.379
2847.76	402.212
2849.08	421.463
2850.4	441.476
2851.72	460.476
2853.04	479.772
2854.36	498.586
2855.67	516.789
2856.99	533.167
2858.31	548.999
2859.63	561.844
2860.95	575.171
2862.27	587.442
2863.58	597.417
2864.9	606.134
2866.22	613.115
2867.54	617.679
2868.85	622.814
2870.17	627.726
2871.49	628.98
2872.8	631.398
2874.12	633.163
2875.43	635.072
2876.75	637.692
2878.07	640.961
2879.38	644.99
2880.7	648.085
2882.01	652.393
2883.32	657.975
2884.64	662.025
2885.95	667.249
2887.27	671.641
2888.58	672.741
2889.89	674.263
2891.21	676.041
2892.52	677.284
2893.83	679.038
2895.14	680.122
2896.46	679.897
2897.77	679.295
2899.08	679.413
2900.39	678.063
2901.7	677.258
2903.01	676.397
2904.32	677.165
2905.63	675.87
2906.94	677.223
2908.25	679.234
2909.56	682.127
2910.87	686.796
2912.18	690.345
2913.49	696.967
2914.8	701.733
2916.11	706.836
2917.42	709.749
2918.72	713.453
2920.03	714.901
2921.34	714.924
2922.65	714.515
2923.95	712.947
2925.26	710.378
2926.57	707.944
2927.88	703.031
2929.18	698.193
2930.49	692.693
2931.79	686.071
2933.1	678.596
2934.4	671.38
2935.71	662.448
2937.01	652.113
2938.32	642.425
2939.62	630.974
2940.93	619.444
2942.23	606.638
2943.54	593.599
2944.84	578.917
2946.14	565.027
2947.45	551.286
2948.75	537.019
2950.05	521.447
2951.35	506.979
2952.66	491.069
2953.96	474.079
2955.26	459.319
2956.56	443.987
2957.86	429.461
2959.16	415.409
2960.46	400.678
2961.77	386.972
2963.07	373.393
2964.37	359.975
2965.66	347.292
2966.96	334.978
2968.26	324.707
2969.56	313.803
2970.86	302.173
2972.16	291.99
2973.46	281.591
2974.76	271.508
2976.06	262.46
2977.35	252.35
2978.65	242.889
2979.95	231.869
2981.25	221.853
2982.54	211.27
2983.84	201.257
2985.14	190.523
2986.43	180.557
2987.73	170.066
2989.02	159.547
2990.32	150.146
2991.62	140.643
2992.91	131.679
2994.21	123.102
2995.5	114.567
2996.8	106.259
2998.09	98.5413
2999.38	90.8044
3000.68	84.0016
3001.97	77.3243
3003.26	70.4389
3004.56	63.5191
3005.85	58.095
3007.14	52.1379
3008.43	47.514
3009.73	41.8329
3011.02	37.6911
3012.31	33.73
3013.6	29.4097
3014.89	26.3459
3016.19	23.1947
3017.48	19.6756
3018.77	17.1795
3020.06	14.9434
3021.35	11.8524
3022.64	9.76058
3023.93	7.5749
3025.22	6.02093
3026.5	5.26495
3027.79	3.16482
3029.08	1.23718
3030.37	1.07363
3031.66	-0.161785
3032.95	-0.341594
3034.24	-1.55202
3035.52	-2.05045
3036.81	-1.83755
3038.1	-1.28883
3039.39	-1.3989
3040.67	-1.33627
3041.96	-0.955296
3043.25	-0.387501
3044.53	-0.401647
3045.82	0.651815
3047.1	1.17645
3048.39	1.6001
3049.67	1.87001
3050.96	2.70229
3052.24	3.55307
3053.53	4.20696
3054.81	4.55123
3056.1	4.24946
3057.38	4.49096
3058.67	4.05817
3059.95	5.01374
3061.23	5.5247
3062.52	5.64898
3063.8	5.39702
3065.08	5.49025
3066.36	5.10184
3067.65	4.69063
3068.93	4.61086
3070.21	4.69788
3071.49	4.22885
3072.77	4.41425
3074.05	3.99205
3075.33	4.72446
3076.61	4.88731
3077.89	4.47977
3079.17	5.19287
3080.45	4.03497
3081.73	3.71819
3083.01	3.20978
3084.29	2.80431
3085.57	2.06024
3086.85	2.7181
3088.13	3.22914
3089.41	3.55921
3090.68	3.36199
3091.96	3.18853
3093.24	3.44958
3094.52	4.27577
3095.79	4.41622
3097.07	4.82497
3098.35	4.8021
3099.62	6.00563
3100.9	6.97346
3102.18	8.14656
3103.45	9.62914
3104.73	11.2233
3106	12.7117
3107.28	13.4138
3108.55	14.0469
3109.83	15.1427
3111.1	16.4572
3112.38	17.8988
3113.65	18.9677
3114.93	20.3564
3116.2	21.1814
3117.47	21.2294
3118.75	22.3689
3120.02	23.5746
3121.29	25.2734
3122.57	26.858
3123.84	28.68
3125.11	29.1748
3126.38	30.2673
3127.65	31.8603
3128.92	33.339
3130.2	34.7443
3131.47	36.4305
3132.74	38.1526
3134.01	39.7201
3135.28	41.6352
3136.55	43.1979
3137.82	44.4378
3139.09	45.7713
3140.36	46.9336
3141.63	48.2273
3142.9	50.0237
3144.17	52.0083
3145.43	54.3386
3146.7	56.8642
3147.97	59.1185
3149.24	62.0304
