#Acq. time (s)=	45
#Accumulations=	2
#Range (cm-¹)=	200...3150
#Windows=	2
#Auto scanning=	Off
#Autofocus=	Off
#Macrospot=	Off
#AutoExposure=	Off
#Spike filter=	Multiple accum.
#Delay time (s)=	0
#Binning=	1
#Readout mode=	Signal
#DeNoise=	Off
#ICS correction=	On
#Dark correction=	Off
#Inst. Process=	Off
#Detector Gain=	Best Dynamic Range
#Detector ADC=	20 kHz       
#Detector temperature (°C)=	-69.85
#Instrument=	LabRAM HR Evol
#Detector=	Synapse
#Objective=	x100
#Grating=	600 gr/mm
#ND Filter=	100%
#Laser (nm)=	532 
#Hole=	100.021
#Range=	Auto
#Laser Pol.=	No
#Raman. Pol.=	No
#Laser Pol. (°)=	-0.0007625
#Raman Pol. (°)=	89.9995
#Collection=	Microscope
#StageXY=	Marzhauser
#StageZ=	Marzhauser
#X (µm)=	-6929.7
#Y (µm)=	2032.7
#Z (µm)=	-74.5
#Full time(mm:ss)=	3:20
#Project=	
#Sample=	
#Site=	
#Title=	Mb_20_23_24_2x_45s_532 nm_x100_100%_600 gr_mm
#Remark=	
#Date=	13.07.2022 15:02
#Acquired=	13.07.2022 15:02:40
#Base:Fit=	10.08.2022 10:29:37
#Edit:Spike=	10.08.2022 10:33:12
#Base:Sub=	10.08.2022 10:33:46
#Filter:Polynom=	16.08.2022 10:13:29
#AxisType[0]=Intens
#AxisUnit[0]=Cnt
#AxisType[1]=Spectr
#AxisUnit[1]=1/cm
200.563	130.849
202.377	129.748
204.194	129.535
206.008	127.575
207.821	125.777
209.634	123.531
211.449	120.083
213.262	117.69
215.074	114.884
216.885	113.167
218.699	111.249
220.51	108.495
222.321	105.119
224.131	100.884
225.941	96.6997
227.751	94.668
229.562	92.9176
231.371	91.613
233.18	89.2362
234.988	86.3526
236.796	82.6318
238.603	80.7812
240.411	76.4058
242.219	73.9323
244.026	71.766
245.832	69.7266
247.638	66.6223
249.443	65.5107
251.248	62.3948
253.053	61.1704
254.857	57.3019
256.661	54.3527
258.465	53.1743
260.268	50.8213
262.071	46.9481
263.874	45.9773
265.678	45.073
267.48	42.5378
269.282	41.2634
271.083	39.2994
272.884	36.0785
274.684	34.2271
276.484	31.9755
278.284	29.5167
280.084	27.4136
281.883	24.099
283.682	20.2655
285.48	18.5563
287.276	16.6521
289.074	16.2755
290.871	14.5764
292.668	12.3719
294.465	11.7375
296.261	10.608
298.057	10.9269
299.853	11.5374
301.648	13.041
303.443	14.7577
305.237	14.8252
307.032	15.8763
308.823	16.367
310.617	16.6714
312.41	18.7129
314.203	19.4251
315.995	22.6427
317.788	26.5614
319.579	27.6462
321.369	28.5032
323.16	29.2988
324.951	30.0572
326.741	31.918
328.531	34.8422
330.321	36.8139
332.108	40.8016
333.897	42.3179
335.686	44.1873
337.474	45.1072
339.26	46.3066
341.048	44.4121
342.835	45.4331
344.622	43.9127
346.406	43.1626
348.192	41.9723
349.978	41.1813
351.764	39.8443
353.547	39.8033
355.332	38.3033
357.116	35.2213
358.901	32.6827
360.682	31.2386
362.466	26.7236
364.249	24.2509
366.03	20.6906
367.812	17.4968
369.594	14.8641
371.374	13.1179
373.155	13.3845
374.936	11.4499
376.715	8.39002
378.495	5.61194
380.273	3.67903
382.053	4.2097
383.832	4.51664
385.609	3.93641
387.388	5.04864
389.164	3.97608
390.942	4.45273
392.72	4.753
394.495	6.24438
396.272	6.93018
398.047	8.74062
399.823	9.44087
401.597	11.3832
403.372	12.6474
405.145	14.1534
406.92	14.5585
408.693	15.7812
410.467	17.7727
412.239	19.0023
414.012	20.4737
415.783	22.6933
417.556	23.3043
419.327	24.5979
421.099	24.5122
422.869	23.766
424.64	24.6551
426.409	24.3525
428.18	23.6261
429.948	22.4045
431.718	21.0243
433.486	19.4761
435.253	19.2604
437.022	17.9428
438.789	17.7652
440.558	18.1173
442.324	18.1607
444.089	16.7707
445.857	16.785
447.622	16.3374
449.386	17.7987
451.153	16.2523
452.917	17.44
454.682	17.1135
456.446	18.4615
458.208	18.8183
459.973	19.9814
461.735	19.7305
463.497	19.2709
465.259	19.0591
467.022	20.6211
468.783	20.9581
470.544	22.8549
472.306	22.7939
474.066	23.9528
475.825	25.4965
477.585	29.1452
479.346	32.8594
481.104	35.3864
482.862	36.4579
484.62	38.2362
486.38	40.1349
488.137	41.6448
489.894	44.4957
491.65	46.0437
493.407	47.039
495.164	49.346
496.92	51.5264
498.675	51.1186
500.43	51.7699
502.184	53.8248
503.939	55.4452
505.694	55.4263
507.448	56.1658
509.201	56.482
510.954	56.3541
512.706	57.0156
514.459	56.7829
516.21	56.0062
517.962	54.0136
519.715	54.9116
521.466	56.3737
523.216	56.67
524.966	56.5339
526.716	57.0166
528.466	59.1005
530.215	58.3508
531.964	57.1536
533.712	56.8122
535.46	56.1689
537.208	55.2328
538.955	53.5639
540.703	54.1258
542.449	53.2713
544.196	51.9822
545.942	50.7841
547.688	48.4135
549.433	45.8558
551.178	43.2307
552.923	41.1119
554.667	40.4911
556.412	38.8234
558.155	37.8924
559.899	37.0842
561.642	38.0671
563.385	37.9457
565.127	37.7341
566.867	36.0985
568.609	34.3981
570.35	31.7099
572.092	31.0447
573.832	28.2855
575.573	27.5485
577.313	25.5633
579.053	23.8256
580.79	22.7545
582.529	21.937
584.268	20.7354
586.006	19.3064
587.745	19.8875
589.482	18.3155
591.218	16.6856
592.955	15.222
594.692	14.6654
596.428	14.0874
598.164	12.8055
599.898	13.3735
601.634	13.6362
603.369	13.5321
605.104	14.0812
606.836	17.3368
608.57	17.2936
610.304	18.0195
612.037	17.954
613.769	18.672
615.501	21.0893
617.234	20.8469
618.966	21.3469
620.696	21.9354
622.427	21.9301
624.159	23.0724
625.887	24.9896
627.618	26.3482
629.348	26.0938
631.076	26.4661
632.806	27.4822
634.535	27.9889
636.262	30.5541
637.99	31.0158
639.716	32.8374
641.444	33.5709
643.172	33.2159
644.897	32.5709
646.624	33.0584
648.348	32.3641
650.075	29.8844
651.801	28.5342
653.524	27.8198
655.249	25.6583
656.972	23.5639
658.697	22.8615
660.419	21.2258
662.143	19.393
663.865	18.3403
665.588	18.0954
667.309	15.8662
669.032	14.5358
670.752	13.1178
672.474	12.8673
674.194	11.8872
675.915	10.1578
677.634	10.6897
679.355	11.7459
681.073	12.1698
682.793	12.6867
684.511	13.3373
686.23	15.0653
687.947	15.9788
689.664	17.4725
691.382	18.944
693.098	18.9543
694.816	18.747
696.531	18.7367
698.247	19.7237
699.963	22.3168
701.678	22.4629
703.392	21.5297
705.108	22.1657
706.821	23.0191
708.534	23.9451
710.249	26.8615
711.962	28.4161
713.674	29.7687
715.388	30.1187
717.099	30.6163
718.81	30.4584
720.523	31.7629
722.234	32.4041
723.944	31.7858
725.654	31.9429
727.365	31.9654
729.075	31.5965
730.784	31.4572
732.492	30.5996
734.202	29.2462
735.91	29.257
737.618	31.4397
739.325	32.3889
741.034	32.435
742.741	33.106
744.447	34.3578
746.153	35.1053
747.859	35.8659
749.564	38.956
751.271	39.9184
752.976	41.6957
754.681	44.8615
756.385	46.4728
758.088	47.8466
759.792	47.0657
761.495	48.9043
763.2	51.7436
764.902	54.6193
766.604	54.4356
768.306	55.6062
770.008	57.5727
771.709	59.4766
773.41	60.1958
775.11	61.1171
776.811	60.8329
778.51	59.5411
780.21	60.4484
781.909	59.3053
783.608	60.8731
785.307	60.6339
787.005	60.9701
788.703	62.0422
790.401	61.1176
792.098	62.1127
793.795	63.6671
795.492	63.059
797.188	61.9105
798.884	61.3767
800.58	61.8138
802.276	62.3859
803.971	63.223
805.665	64.34
807.36	64.3118
809.054	64.5602
810.748	64.8838
812.441	65.8197
814.135	65.982
815.826	66.987
817.518	67.3504
819.21	68.6489
820.902	72.7934
822.594	74.4579
824.285	74.3022
825.976	75.048
827.665	75.6225
829.355	77.8563
831.045	79.2988
832.735	80.9386
834.424	82.4562
836.111	81.4096
837.8	80.4811
839.488	79.3717
841.177	80.0706
842.864	79.5292
844.55	78.9168
846.237	80.2733
847.924	80.536
849.61	78.4243
851.295	75.8745
852.98	76.6318
854.666	76.2395
856.349	74.4475
858.034	74.098
859.719	73.3592
861.403	72.1706
863.085	71.4689
864.769	72.3401
866.452	69.8946
868.133	71.3199
869.816	70.6419
871.498	69.5368
873.179	67.6621
874.86	66.9252
876.54	67.6096
878.221	65.5773
879.902	64.2538
881.58	64.0581
883.26	65.5392
884.938	64.7064
886.618	63.5665
888.297	62.9603
889.974	61.4619
891.653	59.2053
893.329	57.8129
895.007	57.8376
896.683	57.4704
898.36	58.5452
900.035	59.3686
901.712	58.5058
903.387	58.3587
905.063	58.5063
906.737	58.1418
908.412	56.9872
910.085	57.518
911.76	57.0974
913.433	58.5421
915.107	57.5465
916.779	56.8232
918.452	56.4308
920.124	54.4346
921.797	54.4587
923.467	55.5145
925.138	55.5812
926.81	53.172
928.48	53.5499
930.151	53.1379
931.82	52.863
933.489	52.2364
935.16	52.5895
936.828	52.8887
938.496	51.9409
940.165	50.481
941.833	48.925
943.5	45.8221
945.168	43.6653
946.834	42.2807
948.5	42.1474
950.168	40.6764
951.834	41.4065
953.499	40.5632
955.163	39.234
956.83	39.6183
958.494	36.8803
960.158	34.3071
961.821	34.4677
963.487	35.7076
965.15	35.5483
966.812	37.1539
968.474	37.6718
970.138	38.9379
971.8	40.4413
973.461	41.9133
975.123	42.8972
976.783	47.8849
978.446	52.4157
980.106	54.0365
981.766	56.3544
983.425	57.4869
985.084	58.0845
986.743	58.8532
988.402	59.8117
990.06	61.8842
991.72	61.3553
993.378	62.7924
995.035	62.5872
996.692	61.963
998.349	60.8848
1000.01	61.7398
1001.66	62.3548
1003.32	62.5535
1004.97	62.838
1006.63	64.0528
1008.28	65.4393
1009.94	66.9237
1011.59	69.8387
1013.25	70.557
1014.9	71.7592
1016.55	71.9317
1018.21	71.8344
1019.86	73.9689
1021.51	74.7048
1023.16	75.5074
1024.81	78.01
1026.47	81.3801
1028.12	84.6666
1029.77	89.1974
1031.42	93.3789
1033.07	95.3704
1034.72	97.2792
1036.37	98.8181
1038.02	100.817
1039.67	103.577
1041.31	105.055
1042.96	108.659
1044.61	112.804
1046.26	114.424
1047.91	116.633
1049.55	118.527
1051.2	119.222
1052.84	119.601
1054.49	119.594
1056.14	118.748
1057.78	116.961
1059.43	115.678
1061.07	112.423
1062.72	109.022
1064.36	106.781
1066	104.134
1067.65	99.9228
1069.29	97.4174
1070.93	95.6165
1072.58	93.4588
1074.22	90.4337
1075.86	87.1875
1077.5	84.3505
1079.14	81.4791
1080.78	80.6733
1082.42	79.1244
1084.06	76.7689
1085.7	74.624
1087.34	72.5065
1088.98	72.2433
1090.62	71.9845
1092.26	72.7567
1093.9	74.2564
1095.54	75.9728
1097.17	78.3481
1098.81	80.2373
1100.45	82.5565
1102.09	85.4974
1103.72	86.7057
1105.36	89.2252
1106.99	91.9661
1108.63	93.624
1110.27	93.3811
1111.9	94.1502
1113.53	93.9616
1115.17	93.138
1116.8	92.9021
1118.43	92.0687
1120.07	91.9039
1121.7	90.9942
1123.33	90.0776
1124.97	89.3089
1126.6	87.1379
1128.23	86.0375
1129.86	84.56
1131.49	81.7623
1133.12	79.0339
1134.75	77.0072
1136.38	74.0918
1138.01	69.8999
1139.64	67.1737
1141.27	63.4864
1142.9	61.9287
1144.53	58.8744
1146.16	55.6545
1147.78	52.5373
1149.41	49.2437
1151.04	46.1608
1152.67	42.0698
1154.29	38.5366
1155.92	33.441
1157.54	30.4155
1159.17	26.7979
1160.8	21.8274
1162.42	18.2855
1164.05	14.9354
1165.67	12.0855
1167.29	10.1815
1168.92	9.675
1170.54	9.29639
1172.16	8.61133
1173.79	8.00443
1175.41	7.3182
1177.03	7.36916
1178.65	6.36682
1180.28	5.43801
1181.9	5.07655
1183.52	3.6309
1185.14	3.6363
1186.76	3.97025
1188.38	3.95425
1190	5.57979
1191.62	5.5685
1193.24	7.80816
1194.86	9.5023
1196.47	12.2419
1198.09	15.3739
1199.71	18.9346
1201.33	23.1056
1202.95	27.0974
1204.56	31.838
1206.18	35.6473
1207.8	38.8175
1209.41	43.8958
1211.03	46.807
1212.64	50.8417
1214.26	57.0026
1215.87	61.5425
1217.49	66.5954
1219.1	70.097
1220.71	75.2437
1222.33	80.2943
1223.94	86.2356
1225.55	89.1802
1227.16	93.2835
1228.78	97.4505
1230.39	102.892
1232	107.407
1233.61	112.736
1235.22	117.233
1236.83	121.581
1238.44	126.702
1240.05	128.416
1241.66	131.698
1243.27	134.88
1244.88	138.513
1246.49	140.725
1248.1	143.367
1249.71	144.168
1251.32	143.822
1252.92	143.574
1254.53	143.924
1256.14	146.995
1257.74	150.465
1259.35	153.47
1260.96	157.542
1262.56	161.447
1264.17	164.683
1265.77	169.528
1267.38	174.352
1268.98	178.216
1270.59	182.84
1272.19	186.437
1273.79	191
1275.4	195.903
1277	201.357
1278.6	205.064
1280.21	210.986
1281.81	215.262
1283.41	219.935
1285.01	225.561
1286.61	228.758
1288.21	232.707
1289.81	235.418
1291.41	237.568
1293.01	240.442
1294.61	243.619
1296.21	244.247
1297.81	247.201
1299.41	248.114
1301.01	250.736
1302.6	253.056
1304.2	254.41
1305.8	254.964
1307.4	256.092
1308.99	257.358
1310.59	258.763
1312.19	256.736
1313.78	256.103
1315.38	253.234
1316.97	251.843
1318.57	249.896
1320.16	246.837
1321.76	244.394
1323.35	240.799
1324.94	237.966
1326.54	232.907
1328.13	228.423
1329.72	223.066
1331.32	219.017
1332.91	217.635
1334.5	216.761
1336.09	218.007
1337.68	218.293
1339.27	217.393
1340.87	214.953
1342.45	212.461
1344.04	209.281
1345.64	207.217
1347.22	204.756
1348.81	202.844
1350.4	201.013
1351.99	198.731
1353.58	197.444
1355.17	196.419
1356.75	194.879
1358.34	193.127
1359.93	192.433
1361.51	189.577
1363.1	187.945
1364.69	186.593
1366.27	182.907
1367.86	181.947
1369.44	179.284
1371.03	177.498
1372.61	176.187
1374.2	174.912
1375.78	174.099
1377.37	173.038
1378.95	171.122
1380.53	170.836
1382.11	170.322
1383.7	170.937
1385.28	168.82
1386.86	167.178
1388.44	166.794
1390.02	165.874
1391.6	164.683
1393.19	165.421
1394.77	164.517
1396.35	164.819
1397.93	164.009
1399.51	163.278
1401.08	163.864
1402.66	165.387
1404.24	168.802
1405.82	172.052
1407.4	178.685
1408.97	185.194
1410.55	193.807
1412.13	201.766
1413.71	210.527
1415.28	219.616
1416.86	227.994
1418.43	237.928
1420.01	248.514
1421.59	261.213
1423.16	272.929
1424.73	286.474
1426.31	299.694
1427.88	314.265
1429.46	327.208
1431.03	339.965
1432.6	353.503
1434.18	366.258
1435.75	377.714
1437.32	389.458
1438.89	399.506
1440.46	409.212
1442.04	417.09
1443.61	424.645
1445.18	429.335
1446.75	433.578
1448.32	436.521
1449.89	436.789
1451.46	436.308
1453.03	435.272
1454.6	432.389
1456.16	428.262
1457.73	424.288
1459.3	418.927
1460.87	413.255
1462.44	405.013
1464	394.684
1465.57	384.767
1467.14	373.981
1468.7	361.793
1470.27	350.285
1471.83	338.852
1473.4	325.566
1474.96	313.074
1476.53	299.921
1478.09	288.173
1479.66	275.445
1481.22	265.516
1482.78	254.444
1484.35	243.108
1485.91	233.111
1487.47	221.619
1489.04	210.184
1490.6	199.029
1492.16	189.369
1493.72	180.69
1495.28	172.937
1496.84	166.067
1498.4	158.249
1499.96	151.404
1501.52	143.883
1503.08	138.235
1504.64	133.284
1506.2	127.107
1507.76	120.45
1509.32	113.573
1510.88	108.224
1512.44	103.389
1513.99	99.592
1515.55	95.5467
1517.11	90.3616
1518.66	85.9605
1520.22	82.5908
1521.78	80.1785
1523.33	74.7576
1524.89	72.3466
1526.44	71.3867
1528	68.604
1529.55	67.8772
1531.11	67.0835
1532.66	67.3186
1534.21	68.5205
1535.77	69.1908
1537.32	71.5709
1538.87	74.5152
1540.43	76.696
1541.98	78.6244
1543.53	80.9651
1545.08	84.3664
1546.63	87.1125
1548.18	90.9505
1549.74	93.9047
1551.29	96.4047
1552.84	98.6863
1554.39	101.248
1555.94	104.115
1557.48	107.201
1559.03	110.591
1560.58	111.943
1562.13	114.19
1563.68	116.178
1565.23	118.127
1566.78	121.165
1568.32	124.654
1569.87	128.614
1571.42	133.735
1572.96	136.351
1574.51	139.059
1576.05	143.127
1577.6	147.087
1579.14	149.02
1580.69	152.27
1582.24	154.73
1583.78	155.749
1585.32	158.085
1586.87	160.738
1588.41	165.245
1589.95	169.408
1591.5	171.532
1593.04	171.23
1594.58	173.267
1596.12	175.164
1597.67	177.217
1599.21	178.319
1600.75	179.2
1602.29	181.195
1603.83	181.698
1605.37	181.424
1606.91	181.779
1608.45	181.619
1609.99	182.634
1611.53	182.509
1613.07	183.217
1614.6	184.785
1616.14	183.721
1617.68	183.516
1619.22	183.638
1620.75	184.995
1622.29	186.336
1623.83	187.686
1625.37	190.184
1626.9	191.597
1628.44	193.415
1629.97	195.943
1631.51	197.756
1633.04	199.786
1634.58	202.75
1636.11	205.625
1637.65	207.463
1639.18	209.687
1640.72	213.215
1642.25	217.063
1643.78	220.772
1645.31	222.86
1646.85	226.248
1648.38	227.257
1649.91	228.588
1651.44	230.12
1652.97	230.68
1654.5	230.348
1656.03	229.327
1657.56	228.572
1659.1	227.342
1660.62	224.709
1662.15	223.175
1663.68	220.632
1665.21	217.107
1666.74	211.745
1668.27	205.557
1669.8	200.482
1671.32	195.803
1672.85	190.202
1674.38	182.814
1675.91	175.442
1677.43	168.865
1678.96	159.922
1680.49	152.57
1682.01	144.795
1683.54	136.719
1685.06	128.544
1686.59	122.081
1688.11	115.86
1689.64	109.321
1691.16	101.364
1692.68	94.3295
1694.21	89.1808
1695.73	83.9956
1697.25	78.8724
1698.78	73.3369
1700.3	68.0229
1701.82	62.8638
1703.34	58.8726
1704.86	56.5466
1706.39	53.7599
1707.91	49.7575
1709.43	48.3096
1710.95	45.5221
1712.47	43.4399
1713.99	40.0626
1715.51	39.5796
1717.02	39.6234
1718.54	38.9332
1720.06	37.3757
1721.58	36.7943
1723.1	35.7187
1724.62	34.2447
1726.13	34.4379
1727.65	34.4544
1729.17	33.5453
1730.68	32.5329
1732.2	31.5895
1733.72	29.798
1735.23	28.2886
1736.75	26.8049
1738.26	26.9891
1739.78	25.7646
1741.29	24.3963
1742.81	23.7129
1744.32	22.9438
1745.84	22.8877
1747.35	21.8059
1748.86	21.7383
1750.37	19.7362
1751.89	19.5661
1753.4	19.3069
1754.91	17.5977
1756.42	16.3317
1757.93	14.5876
1759.45	13.1444
1760.96	11.9221
1762.47	11.2766
1763.98	9.65629
1765.49	7.58481
1767	6.14697
1768.51	5.55821
1770.02	4.35549
1771.53	3.18633
1773.03	2.54202
1774.54	1.09894
1776.05	0.683697
1777.56	1.124
1779.07	1.64435
1780.57	0.309176
1782.08	-0.736863
1783.59	-0.673887
1785.09	-0.827937
1786.6	-0.96532
1788.11	-0.0307709
1789.61	-0.189914
1791.12	1.18001
1792.62	0.581426
1794.13	0.548515
1795.63	0.498121
1797.13	0.861994
1798.64	0.606963
1800.14	1.18336
1801.65	1.18309
1803.15	0.741453
1804.65	-0.490969
1806.15	-0.848559
1807.66	-0.457113
1809.16	-0.425237
1810.66	-0.079723
1812.16	-0.0818265
1813.66	0.686447
1815.16	1.08042
1816.66	1.54445
1818.16	1.98726
1819.66	2.17147
1821.16	1.91002
1822.66	1.47193
1824.16	2.25169
1825.66	1.9297
1827.16	1.5815
1828.66	1.07658
1830.16	1.3297
1831.65	0.86969
1833.15	1.77062
1834.65	2.00744
1836.14	2.98052
1837.64	3.92806
1839.14	4.35378
1840.63	4.12032
1842.13	4.5067
1843.62	3.86338
1845.12	3.65745
1846.61	3.71569
1848.11	3.33174
1849.6	2.57469
1851.1	2.8939
1852.59	3.37927
1854.08	2.71802
1855.58	1.99187
1857.07	3.70598
1858.56	3.91319
1860.05	4.37859
1861.55	4.57674
1863.04	4.04104
1864.53	3.75018
1866.02	3.99381
1867.51	3.1029
1869	2.59429
1870.49	1.76464
1871.98	0.95991
1873.47	1.48964
1874.96	0.682753
1876.45	1.55435
1877.94	2.61282
1879.43	3.58032
1880.92	4.77395
1882.41	4.89187
1882.51	5.49283
1884	5.97649
1885.5	5.63118
1886.99	6.16068
1888.48	6.12945
1889.98	5.94898
1891.47	5.69223
1892.96	6.18011
1894.46	6.6114
1895.95	7.37595
1897.44	7.85222
1898.93	8.62336
1900.42	8.53075
1901.91	8.66271
1903.41	9.44562
1904.9	10.4949
1906.39	11.1193
1907.88	11.2733
1909.37	10.6946
1910.86	10.013
1912.35	10.1542
1913.83	10.4666
1915.32	10.3818
1916.81	10.9914
1918.3	10.8893
1919.79	12.028
1921.27	12.2338
1922.76	12.7795
1924.25	13.0049
1925.74	12.934
1927.22	12.8324
1928.71	13.3543
1930.19	13.3357
1931.68	12.4248
1933.17	12.294
1934.65	11.7961
1936.14	11.4629
1937.62	10.9659
1939.11	10.6362
1940.59	10.3518
1942.07	9.70075
1943.56	10.5636
1945.04	11.0555
1946.52	12.057
1948.01	12.129
1949.49	12.6034
1950.97	12.1902
1952.45	12.162
1953.93	13.0941
1955.42	12.4226
1956.9	12.5327
1958.38	12.4042
1959.86	12.0281
1961.34	12.2977
1962.82	12.2966
1964.3	12.0618
1965.78	11.5497
1967.26	12.0494
1968.74	12.0124
1970.21	12.0955
1971.69	12.1516
1973.17	12.2129
1974.65	12.3477
1976.13	10.8308
1977.6	11.3527
1979.08	11.308
1980.56	11.3969
1982.03	10.5617
1983.51	9.91714
1984.99	10.0388
1986.46	9.78391
1987.94	9.51849
1989.41	8.58679
1990.89	8.61584
1992.36	7.85513
1993.84	7.74472
1995.31	7.2253
1996.78	6.8883
1998.26	6.70765
1999.73	7.0576
2001.2	6.53827
2002.68	5.68343
2004.15	4.83925
2005.62	5.44985
2007.09	5.77359
2008.56	5.95951
2010.04	4.94098
2011.51	4.84104
2012.98	5.34544
2014.45	5.20453
2015.92	3.95402
2017.39	3.37651
2018.86	4.22523
2020.33	4.09251
2021.8	3.33698
2023.26	3.55138
2024.73	4.55989
2026.2	4.21161
2027.67	4.9985
2029.14	4.60239
2030.61	4.54151
2032.07	6.47019
2033.54	6.0866
2035.01	6.54866
2036.47	6.94988
2037.94	6.70617
2039.4	7.65107
2040.87	9.11728
2042.33	9.21431
2043.8	9.95032
2045.27	10.5414
2046.73	11.8659
2048.19	12.6792
2049.66	12.3212
2051.12	14.1942
2052.59	15.7979
2054.05	17.1126
2055.51	16.7177
2056.97	17.7997
2058.44	18.6721
2059.9	19.0635
2061.36	20.1487
2062.82	21.2438
2064.28	21.7699
2065.74	23.9307
2067.21	24.2194
2068.67	25.6149
2070.13	25.1972
2071.59	25.8502
2073.05	25.6504
2074.51	26.3172
2075.96	27.3129
2077.42	28.9577
2078.88	29.998
2080.34	30.7541
2081.8	31.1371
2083.26	32.1619
2084.72	32.7029
2086.17	33.2046
2087.63	33.4539
2089.09	33.3446
2090.54	33.919
2092	35.0878
2093.45	34.3864
2094.91	34.5746
2096.37	35.5309
2097.82	36.1039
2099.28	37.4003
2100.73	38.8937
2102.19	39.6403
2103.64	39.8331
2105.09	41.1751
2106.55	41.0148
2108	42.5358
2109.45	43.403
2110.91	44.3063
2112.36	45.9854
2113.81	47.6803
2115.26	48.6586
2116.72	50.669
2118.17	53.1524
2119.62	55.7219
2121.07	58.1652
2122.52	60.53
2123.97	63.2013
2125.42	65.8473
2126.87	67.0371
2128.32	68.827
2129.77	72.0568
2131.22	73.8196
2132.67	76.8252
2134.11	80.081
2135.56	82.72
2137.01	85.393
2138.46	89.6522
2139.91	92.3222
2141.35	96.3719
2142.8	99.2984
2144.25	103.232
2145.7	107.079
2147.14	112.451
2148.59	116.881
2150.03	119.88
2151.48	123.163
2152.92	127.491
2154.37	130.472
2155.81	134.161
2157.26	137.406
2158.7	141.452
2160.15	144.664
2161.59	148.313
2163.03	152.127
2164.47	155.384
2165.92	157.356
2167.36	159.251
2168.8	161.593
2170.24	163.917
2171.69	165.73
2173.13	165.835
2174.57	167.378
2176.01	167.046
2177.45	166.656
2178.89	165.871
2180.33	165.46
2181.77	163.39
2183.21	162.005
2184.65	159.715
2186.09	158.538
2187.53	155.937
2188.97	154.397
2190.4	152.081
2191.84	148.918
2193.28	145.478
2194.72	142.05
2196.16	138.627
2197.59	134.308
2199.03	129.99
2200.47	126.162
2201.9	122.86
2203.34	118.949
2204.77	115.013
2206.21	110.558
2207.64	106.451
2209.08	102.133
2210.51	98.5121
2211.95	94.4144
2213.38	90.415
2214.82	85.0994
2216.25	81.7111
2217.68	78.3625
2219.12	75.0528
2220.55	71.5065
2221.98	68.22
2223.41	65.6269
2224.85	63.878
2226.28	61.5507
2227.71	59.9566
2229.14	58.1442
2230.57	56.1318
2232	53.6349
2233.43	51.8189
2234.86	49.6907
2236.29	47.2372
2237.72	45.5775
2239.15	45.5077
2240.58	45.3721
2242.01	43.8927
2243.44	42.0368
2244.87	40.9222
2246.29	40.0608
2247.72	38.2542
2249.15	36.619
2250.58	36.7584
2252.01	37.115
2253.43	35.7658
2254.86	35.5771
2256.29	36.1522
2257.71	35.4007
2259.14	34.32
2260.56	33.9626
2261.99	34.0604
2263.41	33.6861
2264.84	32.5735
2266.26	32.0951
2267.69	31.3166
2269.11	30.2046
2270.53	29.7206
2271.96	28.9276
2273.38	28.7775
2274.8	27.6658
2276.23	26.2456
2277.65	25.3815
2279.07	23.562
2280.49	21.8421
2281.91	21.3322
2283.34	19.8022
2284.76	18.7488
2286.18	17.9841
2287.6	18.9286
2289.02	17.7088
2290.44	17.0567
2291.86	16.3249
2293.28	14.6709
2294.7	14.0376
2296.12	13.2049
2297.54	12.5483
2298.96	12.1795
2300.37	11.9099
2301.79	12.3144
2303.21	11.1667
2304.63	11.2066
2306.04	11.0767
2307.46	10.5671
2308.88	10.4682
2310.3	10.0205
2311.71	9.20369
2313.13	8.99558
2314.54	9.75047
2315.96	10.3
2317.37	10.57
2318.79	10.8649
2320.2	10.2676
2321.62	11.1439
2323.03	10.5237
2324.45	9.66666
2325.86	9.81257
2327.27	10.8689
2328.69	9.46437
2330.1	9.49996
2331.51	10.0712
2332.92	9.46869
2334.34	9.08837
2335.75	8.05889
2337.16	8.31052
2338.57	7.75889
2339.98	6.62221
2341.39	6.9114
2342.8	6.99868
2344.21	6.01087
2345.63	5.55243
2347.04	4.65496
2348.45	4.41284
2349.85	3.88736
2351.26	3.59058
2352.67	3.5746
2354.08	2.8481
2355.49	3.09936
2356.9	2.95613
2358.3	2.89355
2359.71	1.66198
2361.12	1.77005
2362.53	0.721747
2363.93	0.810986
2365.34	0.671802
2366.75	-0.466391
2368.15	-0.00497754
2369.56	-0.704729
2370.97	-0.888505
2372.37	-1.86669
2373.77	-2.83036
2375.18	-2.84417
2376.59	-3.46825
2377.99	-2.65767
2379.39	-2.22557
2380.8	-1.658
2382.2	-1.31423
2383.6	-0.77602
2385.01	-0.64993
2386.41	-1.58516
2387.81	-1.23189
2389.21	-1.77195
2390.62	-2.02249
2392.02	-1.35825
2393.42	-1.54268
2394.82	-1.21841
2396.22	-1.01207
2397.62	-1.17352
2399.02	-2.22383
2400.42	-2.09038
2401.82	-1.01243
2403.22	-1.84093
2404.62	-0.631047
2406.02	-1.30017
2407.42	0.00753632
2408.82	0.0363342
2410.22	0.779866
2411.62	2.52945
2413.01	2.58268
2414.41	1.87933
2415.81	2.81547
2417.21	2.96735
2418.6	3.67822
2420	2.86731
2421.4	3.33379
2422.79	3.19121
2424.19	4.00629
2425.59	5.04439
2426.98	5.20764
2428.38	5.71038
2429.77	4.84001
2431.17	4.99869
2432.56	4.48017
2433.95	4.57024
2435.35	3.64913
2436.74	4.03547
2438.14	4.16333
2439.53	3.30492
2440.92	4.36084
2442.31	5.22877
2443.71	5.6624
2445.1	5.34118
2446.49	5.83164
2447.88	5.93682
2449.27	5.44591
2450.67	4.98689
2452.06	4.57708
2453.45	4.47272
2454.84	4.52723
2456.23	4.48682
2457.62	5.2818
2459.01	6.06696
2460.4	5.51846
2461.79	5.98367
2463.18	5.15339
2464.57	4.63295
2465.95	4.71437
2467.34	3.98022
2468.73	4.7308
2470.12	5.3003
2471.5	5.42426
2472.89	5.58129
2474.28	5.98487
2475.67	5.23526
2477.05	4.90483
2478.44	3.64891
2479.82	4.23717
2481.21	3.90686
2482.6	3.17157
2483.98	1.83959
2485.37	1.48402
2486.75	1.12826
2488.13	0.540263
2489.52	0.640918
2490.9	1.07499
2492.29	0.942452
2493.67	1.80257
2495.05	2.43958
2496.44	2.13731
2497.82	2.77426
2499.2	2.099
2500.58	2.06372
2501.97	1.97704
2503.35	1.68506
2504.73	1.56101
2506.11	1.83828
2507.49	2.55906
2508.87	2.52566
2510.25	4.09554
2511.63	3.65885
2513.01	3.37288
2514.39	4.11738
2515.77	4.51443
2517.15	4.09471
2518.53	5.13085
2519.91	5.58549
2521.29	6.50627
2522.67	8.37251
2524.05	9.00888
2525.42	8.56688
2526.8	9.13435
2528.18	10.0409
2529.55	8.91449
2530.93	9.78004
2532.31	9.95049
2533.69	10.6755
2535.06	11.3256
2536.44	10.4599
2537.81	11.8314
2539.19	11.2857
2540.56	11.2851
2541.94	11.843
2543.31	11.4932
2544.69	11.7763
2546.06	11.6939
2547.44	12.1841
2548.81	12.8982
2550.18	11.8024
2551.56	12.1442
2552.93	11.7132
2554.3	11.7604
2555.67	12.2707
2557.04	13.2209
2558.42	14.0528
2559.79	14.4515
2561.16	15.4485
2562.53	16.4007
2563.9	16.4076
2565.27	15.5544
2566.64	15.5613
2568.01	14.4542
2569.38	14.2302
2570.75	13.9614
2572.12	13.6778
2573.49	13.9377
2574.86	14.5849
2576.23	14.2222
2577.6	14.0325
2578.97	14.3686
2580.33	14.591
2581.7	15.0547
2583.07	15.2793
2584.44	14.8883
2585.8	15.2283
2587.17	15.687
2588.54	15.1044
2589.9	14.9741
2591.27	15.2752
2592.64	14.6197
2594	14.2468
2595.37	15.3388
2596.73	14.7905
2598.1	13.556
2599.46	13.349
2600.83	13.6889
2602.19	13.1208
2603.55	13.4979
2604.92	13.0312
2606.28	13.8723
2607.64	13.4288
2609.01	13.848
2610.37	13.875
2611.73	12.9625
2613.09	12.7426
2614.46	13.0494
2615.82	12.7146
2617.18	11.7608
2618.54	11.4708
2619.9	12.3078
2621.26	11.1082
2622.62	11.8769
2623.98	12.5323
2625.34	12.9748
2626.7	12.8509
2628.06	12.5917
2629.42	12.871
2630.78	12.3043
2632.14	12.0215
2633.5	12.5934
2634.86	12.6079
2636.21	12.6111
2637.57	12.9114
2638.93	13.0856
2640.29	14.0926
2641.64	13.9237
2643	14.8807
2644.36	15.0536
2645.71	16.7576
2647.07	16.8347
2648.43	17.4877
2649.78	18.3077
2651.14	18.6517
2652.49	18.6742
2653.85	18.5255
2655.2	18.7341
2656.56	19.0809
2657.91	19.3044
2659.26	19.7276
2660.62	18.5108
2661.97	18.1022
2663.32	18.2111
2664.68	18.4264
2666.03	18.9348
2667.38	19.3745
2668.74	19.5957
2670.09	19.4298
2671.44	20.105
2672.79	19.0886
2674.14	19.0297
2675.49	19.4796
2676.84	19.9574
2678.19	19.7921
2679.54	20.3756
2680.89	19.6377
2682.24	20.0912
2683.59	19.5005
2684.94	19.6906
2686.29	20.4138
2687.64	20.8439
2688.99	20.9937
2690.34	22.4792
2691.69	22.537
2693.03	23.0819
2694.38	24.7585
2695.73	25.3734
2697.08	27.1315
2698.42	28.7452
2699.77	30.5727
2701.12	31.8495
2702.46	32.7949
2703.81	35.333
2705.15	37.1811
2706.5	39.6417
2707.85	41.9176
2709.19	44.0256
2710.54	46.3887
2711.88	47.3979
2713.22	49.1248
2714.57	49.7823
2715.91	51.6437
2717.26	52.8998
2718.6	52.9301
2719.94	53.847
2721.29	54.6041
2722.63	55.3848
2723.97	55.2942
2725.31	55.2158
2726.66	55.1965
2728	54.9205
2729.34	55.7194
2730.68	55.2768
2732.02	55.0857
2733.36	54.3028
2734.7	52.9623
2736.04	50.7469
2737.38	49.5733
2738.72	48.403
2740.06	46.6893
2741.4	45.437
2742.74	43.0021
2744.08	40.6202
2745.42	38.2181
2746.76	36.3402
2748.09	33.0067
2749.43	32.0138
2750.77	29.2602
2752.11	27.8716
2753.45	26.222
2754.78	24.7202
2756.12	22.8638
2757.46	20.9738
2758.79	19.3225
2760.13	17.926
2761.46	16.7224
2762.8	13.9851
2764.14	12.7614
2765.47	11.6087
2766.8	9.68087
2768.14	9.77414
2769.47	9.9871
2770.81	9.40927
2772.14	8.65156
2773.48	7.73007
2774.81	6.21238
2776.14	5.30832
2777.48	3.74775
2778.81	2.73103
2780.14	2.91139
2781.47	2.44818
2782.8	2.10214
2784.14	0.124291
2785.47	-0.80766
2786.8	-0.554256
2788.13	-1.21368
2789.46	-1.22552
2790.79	-1.0497
2792.12	-0.680653
2793.45	-0.215517
2794.78	0.0359616
2796.11	0.0928545
2797.44	-0.461422
2798.77	0.340461
2800.1	1.49434
2801.43	1.8345
2802.76	1.38277
2804.09	1.14893
2805.41	0.187939
2806.74	-1.07969
2808.07	-2.73493
2809.4	-5.00971
2810.72	-5.91365
2812.05	-5.7057
2813.38	-3.92096
2814.71	-0.780026
2816.03	5.17403
2817.36	12.3741
2818.68	22.933
2820.01	33.9071
2821.33	46.1588
2822.66	60.5987
2823.98	74.9774
2825.31	91.3126
2826.63	109.509
2827.96	127.565
2829.28	147.771
2830.6	168.395
2831.93	190.115
2833.25	212.161
2834.57	234.748
2835.9	255.683
2837.22	277.223
2838.54	300.605
2839.86	322.448
2841.18	344.92
2842.5	368.889
2843.83	389.877
2845.15	412.754
2846.47	435.072
2847.79	457.415
2849.11	481.343
2850.43	507.938
2851.75	536.891
2853.07	565.83
2854.39	594.704
2855.71	623.738
2857.03	652.047
2858.35	679.676
2859.66	706.117
2860.98	730.082
2862.3	752.146
2863.62	774.514
2864.94	795.182
2866.25	812.72
2867.57	828.312
2868.89	842.656
2870.2	854.862
2871.52	868.005
2872.84	878.904
2874.15	889.366
2875.47	900.921
2876.78	912.613
2878.1	924.309
2879.41	935.828
2880.73	948.387
2882.04	959.959
2883.36	970.343
2884.67	981.146
2885.99	989.991
2887.3	997.553
2888.61	1005.36
2889.93	1010.79
2891.24	1016.89
2892.55	1023.27
2893.86	1027.09
2895.18	1032.5
2896.49	1036.45
2897.8	1040.25
2899.11	1044.35
2900.42	1048.99
2901.73	1054.47
2903.05	1061.63
2904.36	1067.45
2905.67	1074.45
2906.98	1083.86
2908.29	1094.49
2909.6	1104.84
2910.91	1119.09
2912.21	1134.96
2913.52	1152.68
2914.83	1170.99
2916.14	1189.23
2917.45	1204.68
2918.76	1220.08
2920.07	1233.66
2921.37	1245.24
2922.68	1255.17
2923.99	1260.94
2925.29	1267.3
2926.6	1269.93
2927.91	1271.9
2929.22	1273.02
2930.52	1270.14
2931.83	1266.82
2933.13	1261.76
2934.44	1253.54
2935.74	1243.97
2937.05	1232.6
2938.35	1218.86
2939.66	1205.49
2940.96	1190.49
2942.26	1172.91
2943.57	1153
2944.87	1134.4
2946.18	1112.94
2947.48	1089.74
2948.78	1065.15
2950.08	1039.53
2951.39	1012.79
2952.69	986.845
2953.99	961.051
2955.29	934.757
2956.59	908.209
2957.9	882.055
2959.2	855.832
2960.5	831.254
2961.8	805.959
2963.1	781.994
2964.4	759.273
2965.7	736.54
2967	714.412
2968.3	692.393
2969.6	670.661
2970.9	651.779
2972.19	632.901
2973.49	612.148
2974.79	593.258
2976.09	574.217
2977.39	555.822
2978.68	535.094
2979.98	514.683
2981.28	494.175
2982.58	474.026
2983.87	454.068
2985.17	433.956
2986.47	413.13
2987.76	391.529
2989.06	371.699
2990.35	352.676
2991.65	331.111
2992.94	311.629
2994.24	292.898
2995.53	273.664
2996.83	255.802
2998.12	237.987
2999.42	220.749
3000.71	205.401
3002	189.549
3003.3	175.51
3004.59	161.901
3005.88	148.237
3007.18	134.46
3008.47	120.787
3009.76	109.906
3011.05	96.9053
3012.34	86.5436
3013.64	76.9105
3014.93	68.0347
3016.22	59.4729
3017.51	53.2103
3018.8	46.2007
3020.09	39.0177
3021.38	31.723
3022.67	26.7728
3023.96	22.3321
3025.25	17.1078
3026.54	12.9093
3027.83	9.92556
3029.12	7.38883
3030.41	4.81761
3031.69	3.83096
3032.98	1.72716
3034.27	1.57191
3035.56	1.57674
3036.84	1.42764
3038.13	0.792609
3039.42	2.31158
3040.71	2.90511
3041.99	3.19339
3043.28	3.77119
3044.57	4.35385
3045.85	5.48446
3047.14	6.29532
3048.42	7.61877
3049.71	9.46144
3050.99	8.9194
3052.28	10.0082
3053.56	11.2211
3054.85	10.6177
3056.13	11.7918
3057.41	13.0105
3058.7	13.3781
3059.98	12.6032
3061.26	13.8113
3062.55	14.4618
3063.83	14.8696
3065.11	15.2588
3066.39	14.222
3067.68	14.2423
3068.96	13.7458
3070.24	12.6794
3071.52	12.4626
3072.8	12.5278
3074.08	12.1573
3075.36	10.6609
3076.65	9.76253
3077.93	8.56189
3079.21	6.95427
3080.49	5.43191
3081.77	5.59786
3083.04	3.63928
3084.32	2.49626
3085.6	1.55448
3086.88	1.97426
3088.16	0.849198
3089.44	1.15028
3090.72	3.05965
3091.99	3.7931
3093.27	4.48125
3094.55	4.79493
3095.83	6.8373
3097.1	7.77698
3098.38	9.66688
3099.66	11.177
3100.93	12.6811
3102.21	14.2728
3103.49	16.8097
3104.76	18.6813
3106.04	20.7728
3107.31	23.3077
3108.59	25.336
3109.86	27.8108
3111.14	30.3638
3112.41	33.9951
3113.69	37.137
3114.96	39.3096
3116.23	42.6447
3117.51	45.2109
3118.78	48.2539
3120.05	51.8856
3121.33	54.5973
3122.6	57.6272
3123.87	61.3552
3125.14	65.8316
3126.41	69.2251
3127.69	72.5345
3128.96	75.7299
3130.23	79.043
3131.5	83.841
3132.77	87.4181
3134.04	91.651
3135.31	96.1554
3136.58	99.4728
3137.85	102.698
3139.12	106.657
3140.39	111.208
3141.66	116.216
3142.93	121.281
3144.2	126.387
3145.47	131.837
3146.74	137.772
3148	142.781
3149.27	148.888
