#Acq. time (s)=	45
#Accumulations=	2
#Range (cm-¹)=	200...3150
#Windows=	2
#Auto scanning=	Off
#Autofocus=	Off
#Macrospot=	Off
#AutoExposure=	Off
#Spike filter=	Multiple accum.
#Delay time (s)=	0
#Binning=	1
#Readout mode=	Signal
#DeNoise=	Off
#ICS correction=	On
#Dark correction=	Off
#Inst. Process=	Off
#Detector Gain=	Best Dynamic Range
#Detector ADC=	20 kHz       
#Detector temperature (°C)=	-69.85
#Instrument=	LabRAM HR Evol
#Detector=	Synapse
#Objective=	x100
#Grating=	600 gr/mm
#ND Filter=	100%
#Laser (nm)=	532 
#Hole=	100.021
#Range=	Auto
#Laser Pol.=	No
#Raman. Pol.=	No
#Laser Pol. (°)=	-0.0007625
#Raman Pol. (°)=	89.9995
#Collection=	Microscope
#StageXY=	Marzhauser
#StageZ=	Marzhauser
#X (µm)=	-6957.3
#Y (µm)=	1960.4
#Z (µm)=	-75.15
#Full time(mm:ss)=	3:18
#Project=	
#Sample=	
#Site=	
#Title=	Mb_20_23_33_2x_45s_532 nm_x100_100%_600 gr_mm
#Remark=	
#Date=	13.07.2022 15:42
#Acquired=	13.07.2022 15:42:40
#Base:Fit=	10.08.2022 10:29:37
#Base:Sub=	10.08.2022 10:34:43
#Filter:Polynom=	16.08.2022 10:13:29
#AxisType[0]=Intens
#AxisUnit[0]=Cnt
#AxisType[1]=Spectr
#AxisUnit[1]=1/cm
200.563	64.4539
202.377	60.1363
204.194	56.0616
206.008	52.3624
207.821	50.1446
209.634	48.9832
211.449	47.4918
213.262	45.4902
215.074	44.8997
216.885	44.1463
218.699	42.6725
220.51	40.966
222.321	40.3152
224.131	39.1476
225.941	37.7058
227.751	35.2334
229.562	34.2358
231.371	34.565
233.18	34.6053
234.988	32.2376
236.796	30.3926
238.603	29.7815
240.411	27.1552
242.219	24.8633
244.026	23.7292
245.832	22.3225
247.638	22.0774
249.443	20.5156
251.248	19.4473
253.053	19.1891
254.857	17.3678
256.661	13.7827
258.465	14.2914
260.268	14.009
262.071	12.2082
263.874	11.3887
265.678	11.623
267.48	11.6564
269.282	11.9347
271.083	11.3314
272.884	10.6848
274.684	7.13477
276.484	6.38549
278.284	5.31868
280.084	5.55318
281.883	3.81651
283.682	3.60578
285.48	2.58269
287.276	1.55597
289.074	1.07795
290.871	3.15055
292.668	4.16307
294.465	4.84709
296.261	6.07758
298.057	6.1265
299.853	5.15034
301.648	5.80932
303.443	6.27614
305.237	6.66436
307.032	7.57224
308.823	6.96555
310.617	8.18165
312.41	9.07701
314.203	7.85631
315.995	8.51782
317.788	8.69757
319.579	10.9344
321.369	12.1758
323.16	12.2767
324.951	10.7567
326.741	11.5362
328.531	13.2298
330.321	13.4617
332.108	14.3776
333.897	16.2832
335.686	15.9689
337.474	16.1172
339.26	17.4351
341.048	19.2761
342.835	19.56
344.622	20.7207
346.406	20.3173
348.192	21.293
349.978	21.3641
351.764	20.7951
353.547	21.6933
355.332	21.9465
357.116	22.5959
358.901	21.7217
360.682	20.0326
362.466	19.1556
364.249	18.5052
366.03	19.7471
367.812	19.4157
369.594	18.6757
371.374	16.8701
373.155	18.1371
374.936	18.8882
376.715	18.3134
378.495	18.5797
380.273	19.0319
382.053	16.851
383.832	17.5002
385.609	17.8999
387.388	16.5885
389.164	15.7196
390.942	16.0738
392.72	15.768
394.495	15.962
396.272	17.0965
398.047	16.549
399.823	17.061
401.597	16.7913
403.372	16.8666
405.145	19.3415
406.92	20.174
408.693	19.8108
410.467	20.7864
412.239	21.0503
414.012	21.7076
415.783	23.6105
417.556	25.6759
419.327	25.5105
421.099	25.7284
422.869	27.3057
424.64	26.9166
426.409	28.2152
428.18	28.8918
429.948	25.7792
431.718	24.5546
433.486	25.5177
435.253	26.0341
437.022	26.6864
438.789	26.355
440.558	26.5408
442.324	24.9245
444.089	24.4419
445.857	24.2082
447.622	23.0432
449.386	23.865
451.153	23.1508
452.917	23.2443
454.682	24.1222
456.446	23.4236
458.208	23.7505
459.973	22.6929
461.735	22.4363
463.497	23.175
465.259	21.0512
467.022	21.8375
468.783	22.6701
470.544	22.4559
472.306	23.6844
474.066	23.9824
475.825	24.5923
477.585	26.0834
479.346	28.8972
481.104	29.9134
482.862	29.981
484.62	30.0943
486.38	30.591
488.137	31.0734
489.894	33.4404
491.65	34.475
493.407	35.0482
495.164	35.3521
496.92	36.123
498.675	38.5756
500.43	38.8945
502.184	40.6516
503.939	42.0632
505.694	42.526
507.448	41.0877
509.201	42.3645
510.954	42.4875
512.706	40.5596
514.459	41.2886
516.21	40.4713
517.962	40.4584
519.715	42.1239
521.466	42.5071
523.216	41.4957
524.966	39.7424
526.716	39.0384
528.466	39.591
530.215	39.526
531.964	40.8295
533.712	41.2911
535.46	40.0704
537.208	39.3137
538.955	36.7894
540.703	36.7929
542.449	36.5985
544.196	35.2329
545.942	33.31
547.688	30.4302
549.433	30.0948
551.178	29.0564
552.923	26.618
554.667	26.0831
556.412	24.7741
558.155	22.8303
559.899	21.6499
561.642	20.1216
563.385	19.4206
565.127	19.3376
566.867	18.4764
568.609	17.2361
570.35	15.3166
572.092	14.4005
573.832	14.0105
575.573	12.1601
577.313	11.0421
579.053	8.99185
580.79	9.0662
582.529	8.12273
584.268	7.73348
586.006	6.3772
587.745	5.69265
589.482	5.87275
591.218	4.34801
592.955	2.65694
594.692	1.86964
596.428	3.32639
598.164	2.82411
599.898	2.49534
601.634	3.90208
603.369	2.31749
605.104	3.31968
606.836	3.55919
608.57	3.64593
610.304	3.12445
612.037	3.69301
613.769	5.20625
615.501	5.96674
617.234	6.99363
618.966	7.89195
620.696	7.30999
622.427	5.39034
624.159	5.68743
625.887	6.40508
627.618	7.41028
629.348	7.91749
631.076	7.54228
632.806	6.29393
634.535	5.81399
636.262	7.20469
637.99	5.86672
639.716	5.33706
641.444	4.25795
643.172	4.15038
644.897	5.02368
646.624	5.45265
648.348	7.32103
650.075	8.91706
651.801	8.94202
653.524	7.03829
655.249	7.14896
656.972	6.52598
658.697	6.28632
660.419	6.53778
662.143	6.71954
663.865	7.60923
665.588	8.45944
667.309	8.19074
669.032	7.39106
670.752	7.53166
672.474	6.26058
674.194	6.68929
675.915	6.7928
677.634	6.35681
679.355	7.95157
681.073	8.06431
682.793	8.03266
684.511	7.50077
686.23	6.66382
687.947	6.73184
689.664	6.20921
691.382	7.66111
693.098	6.95411
694.816	6.95015
696.531	7.62848
698.247	9.82393
699.963	11.2432
701.678	11.6479
703.392	12.5646
705.108	13.855
706.821	12.9183
708.534	12.6021
710.249	13.4139
711.962	12.9499
713.674	11.8058
715.388	11.1018
717.099	10.0806
718.81	10.1059
720.523	8.76521
722.234	8.03899
723.944	6.93475
725.654	8.35038
727.365	9.2673
729.075	10.7807
730.784	11.6414
732.492	13.0415
734.202	14.0065
735.91	14.3723
737.618	14.3429
739.325	16.3803
741.034	18.5054
742.741	20.7952
744.447	23.5548
746.153	25.5769
747.859	28.0072
749.564	29.2608
751.271	30.8067
752.976	33.2335
754.681	36.2013
756.385	38.1389
758.088	40.3497
759.792	43.9395
761.495	45.8012
763.2	48.0296
764.902	50.2004
766.604	51.0181
768.306	51.4306
770.008	54.2803
771.709	55.4322
773.41	58.455
775.11	60.6479
776.811	63.3083
778.51	64.9897
780.21	66.062
781.909	68.2173
783.608	69.2328
785.307	70.0493
787.005	70.8977
788.703	70.9037
790.401	71.5853
792.098	70.749
793.795	71.1341
795.492	71.2071
797.188	70.8962
798.884	70.8731
800.58	70.9895
802.276	71.2886
803.971	71.8564
805.665	72.1319
807.36	72.5329
809.054	74.382
810.748	76.6113
812.441	77.4899
814.135	78.9456
815.826	78.2117
817.518	79.734
819.21	79.2692
820.902	79.8712
822.594	80.0158
824.285	81.4404
825.976	80.9223
827.665	81.9587
829.355	82.8414
831.045	83.1108
832.735	83.1866
834.424	84.4279
836.111	84.8592
837.8	85.9344
839.488	85.7676
841.177	85.9979
842.864	85.5488
844.55	84.6021
846.237	84.04
847.924	83.5241
849.61	83.7025
851.295	83.4196
852.98	83.9325
854.666	85.2017
856.349	85.4778
858.034	87.2962
859.719	88.6835
861.403	89.9333
863.085	89.9149
864.769	90.3679
866.452	91.0278
868.133	90.9303
869.816	91.8172
871.498	92.7121
873.179	93.1713
874.86	93.8153
876.54	92.587
878.221	91.4271
879.902	90.513
881.58	88.8992
883.26	86.7151
884.938	85.91
886.618	85.9831
888.297	84.8587
889.974	84.5753
891.653	82.7751
893.329	81.8557
895.007	80.3609
896.683	78.4272
898.36	76.9783
900.035	74.7546
901.712	74.4168
903.387	73.2455
905.063	71.3338
906.737	70.1455
908.412	67.9059
910.085	65.6643
911.76	64.9524
913.433	64.1064
915.107	61.5104
916.779	60.482
918.452	59.2718
920.124	56.9266
921.797	55.7975
923.467	55.2975
925.138	54.033
926.81	52.6973
928.48	52.4582
930.151	52.4387
931.82	51.9948
933.489	51.5706
935.16	50.9122
936.828	50.2152
938.496	48.7132
940.165	48.3644
941.833	46.9067
943.5	45.2404
945.168	43.4032
946.834	41.454
948.5	40.2678
950.168	39.3153
951.834	38.9211
953.499	37.3115
955.163	35.0491
956.83	30.8049
958.494	28.4459
960.158	25.2602
961.821	23.9876
963.487	22.2399
965.15	20.6088
966.812	20.5488
968.474	22.0341
970.138	21.1991
971.8	20.4273
973.461	20.9528
975.123	21.2525
976.783	21.7526
978.446	22.8568
980.106	24.0286
981.766	23.3039
983.425	21.9053
985.084	21.6233
986.743	21.1191
988.402	20.1077
990.06	20.8555
991.72	19.9962
993.378	19.8465
995.035	20.4621
996.692	20.803
998.349	19.7013
1000.01	22.0651
1001.66	23.1704
1003.32	25.544
1004.97	26.939
1006.63	27.7525
1008.28	28.4117
1009.94	29.8325
1011.59	31.098
1013.25	31.1451
1014.9	30.9992
1016.55	28.7891
1018.21	28.083
1019.86	26.7542
1021.51	27.9264
1023.16	33.2722
1024.81	38.3596
1026.47	45.8848
1028.12	54.5645
1029.77	62.6895
1031.42	70.0705
1033.07	78.8259
1034.72	85.0167
1036.37	91.4816
1038.02	99.0506
1039.67	106.571
1041.31	114.857
1042.96	121.687
1044.61	128.633
1046.26	134.344
1047.91	140.263
1049.55	144.278
1051.2	148.394
1052.84	150.483
1054.49	153.669
1056.14	155.663
1057.78	157.402
1059.43	158.26
1061.07	158.468
1062.72	158.261
1064.36	157.278
1066	156.89
1067.65	157.601
1069.29	155.701
1070.93	153.844
1072.58	150.802
1074.22	146.867
1075.86	143.764
1077.5	139.24
1079.14	134.433
1080.78	128.944
1082.42	123.724
1084.06	116.571
1085.7	107.613
1087.34	98.765
1088.98	93.2938
1090.62	90.7352
1092.26	87.4544
1093.9	86.0112
1095.54	84.5727
1097.17	83.7835
1098.81	84.3451
1100.45	87.0821
1102.09	91.6176
1103.72	97.7607
1105.36	102.708
1106.99	105.097
1108.63	109.483
1110.27	111.983
1111.9	113.222
1113.53	113.91
1115.17	114.747
1116.8	114.441
1118.43	113.833
1120.07	113.712
1121.7	112.35
1123.33	110.468
1124.97	107.183
1126.6	103.897
1128.23	100.719
1129.86	97.6789
1131.49	93.5132
1133.12	90.3348
1134.75	85.9865
1136.38	82.1612
1138.01	78.0658
1139.64	74.3957
1141.27	70.1091
1142.9	66.1216
1144.53	61.381
1146.16	56.7921
1147.78	51.5385
1149.41	46.4454
1151.04	38.8372
1152.67	32.9727
1154.29	26.8088
1155.92	21.3585
1157.54	15.4744
1159.17	8.09491
1160.8	3.15559
1162.42	-2.64397
1164.05	-7.55299
1165.67	-9.55131
1167.29	-10.2169
1168.92	-8.18139
1170.54	-4.44554
1172.16	-2.84362
1173.79	-1.98186
1175.41	0.27419
1177.03	0.642281
1178.65	0.152297
1180.28	0.223009
1181.9	0.0897642
1183.52	-0.331611
1185.14	-2.58506
1186.76	-3.96629
1188.38	-2.08324
1190	-1.61496
1191.62	-2.21787
1193.24	-2.42288
1194.86	-2.85967
1196.47	-3.26449
1198.09	-2.76411
1199.71	-2.1252
1201.33	-0.39796
1202.95	-0.338372
1204.56	0.523116
1206.18	1.61979
1207.8	4.06482
1209.41	5.11724
1211.03	6.61575
1212.64	6.91762
1214.26	7.6686
1215.87	9.29385
1217.49	11.7257
1219.1	14.6475
1220.71	17.7229
1222.33	21.9943
1223.94	25.1063
1225.55	26.9994
1227.16	30.2602
1228.78	31.6409
1230.39	34.7046
1232	37.4027
1233.61	40.5763
1235.22	43.079
1236.83	46.7944
1238.44	49.9257
1240.05	51.8357
1241.66	55.7427
1243.27	59.0661
1244.88	62.6713
1246.49	66.006
1248.1	67.2871
1249.71	66.2211
1251.32	65.2829
1252.92	62.7635
1254.53	62.9775
1256.14	65.4561
1257.74	68.4279
1259.35	74.6079
1260.96	83.6093
1262.56	92.6917
1264.17	102.276
1265.77	112.089
1267.38	124.274
1268.98	136.124
1270.59	146.338
1272.19	158.013
1273.79	170.173
1275.4	180.855
1277	191.713
1278.6	202.595
1280.21	212.029
1281.81	219.398
1283.41	227.645
1285.01	235.157
1286.61	242.104
1288.21	248.48
1289.81	253.003
1291.41	258.273
1293.01	262.017
1294.61	267.031
1296.21	270.367
1297.81	271.487
1299.41	272.519
1301.01	272.663
1302.6	270.842
1304.2	267.974
1305.8	264.773
1307.4	261.182
1308.99	257.153
1310.59	252.954
1312.19	246.225
1313.78	239.196
1315.38	232.652
1316.97	224.502
1318.57	215.26
1320.16	205.301
1321.76	195.498
1323.35	184.461
1324.94	172.353
1326.54	160.737
1328.13	148.508
1329.72	137.646
1331.32	129.103
1332.91	124.033
1334.5	122.752
1336.09	122.528
1337.68	122.873
1339.27	123.354
1340.87	122.917
1342.45	122.039
1344.04	120.877
1345.64	120.197
1347.22	120.371
1348.81	120.007
1350.4	119.643
1351.99	117.942
1353.58	116.664
1355.17	113.781
1356.75	112.251
1358.34	111.796
1359.93	111.032
1361.51	110.029
1363.1	110.09
1364.69	107.943
1366.27	106.648
1367.86	105.565
1369.44	103.419
1371.03	103.226
1372.61	101.58
1374.2	99.9036
1375.78	96.089
1377.37	94.7193
1378.95	94.2552
1380.53	94.2049
1382.11	94.5212
1383.7	95.9582
1385.28	97.3001
1386.86	97.9661
1388.44	98.9773
1390.02	100.252
1391.6	100.116
1393.19	99.6113
1394.77	99.6395
1396.35	99.1746
1397.93	102.155
1399.51	105.432
1401.08	111.629
1402.66	120.353
1404.24	130.912
1405.82	143.603
1407.4	158.648
1408.97	174.565
1410.55	191.202
1412.13	209.207
1413.71	228.396
1415.28	245.91
1416.86	265.109
1418.43	284.691
1420.01	304.685
1421.59	324.367
1423.16	344.727
1424.73	365.363
1426.31	385.027
1427.88	405.244
1429.46	423.83
1431.03	442.134
1432.6	461.294
1434.18	478.066
1435.75	493.194
1437.32	507.228
1438.89	517.823
1440.46	525.652
1442.04	532.774
1443.61	537.426
1445.18	540.681
1446.75	542.534
1448.32	541.436
1449.89	538.832
1451.46	533.331
1453.03	526.366
1454.6	516.661
1456.16	506.999
1457.73	494.099
1459.3	479.776
1460.87	463.336
1462.44	444.702
1464	424.883
1465.57	401.608
1467.14	379.832
1468.7	356.033
1470.27	331.138
1471.83	307.98
1473.4	287.297
1474.96	266.348
1476.53	247.755
1478.09	230.297
1479.66	213.811
1481.22	198.539
1482.78	183.453
1484.35	169.318
1485.91	155.466
1487.47	141.14
1489.04	127.963
1490.6	116.219
1492.16	105.417
1493.72	93.2962
1495.28	84.55
1496.84	76.499
1498.4	68.8474
1499.96	62.9857
1501.52	59.1446
1503.08	55.478
1504.64	52.5616
1506.2	49.8801
1507.76	48.4577
1509.32	47.1832
1510.88	45.2556
1512.44	43.7134
1513.99	42.6809
1515.55	42.6692
1517.11	41.4363
1518.66	41.476
1520.22	43.0881
1521.78	43.0463
1523.33	44.0985
1524.89	44.9627
1526.44	44.8082
1528	45.1651
1529.55	45.3175
1531.11	46.7438
1532.66	46.9228
1534.21	48.5598
1535.77	50.2053
1537.32	50.8005
1538.87	51.9862
1540.43	53.3255
1541.98	54.1872
1543.53	56.159
1545.08	57.4417
1546.63	58.2726
1548.18	60.5828
1549.74	61.6622
1551.29	62.972
1552.84	63.3852
1554.39	64.0787
1555.94	65.1058
1557.48	65.3341
1559.03	67.2415
1560.58	67.1053
1562.13	68.2689
1563.68	68.6509
1565.23	69.7438
1566.78	72.045
1568.32	73.7031
1569.87	75.16
1571.42	76.5664
1572.96	78.8773
1574.51	81.9165
1576.05	84.7125
1577.6	87.6283
1579.14	91.367
1580.69	94.8719
1582.24	97.7096
1583.78	99.4399
1585.32	102.413
1586.87	104.528
1588.41	106.224
1589.95	108.962
1591.5	111.593
1593.04	111.877
1594.58	111.908
1596.12	112.843
1597.67	114.034
1599.21	112.916
1600.75	113.576
1602.29	112.967
1603.83	111.55
1605.37	112.471
1606.91	112.691
1608.45	112.82
1609.99	111.967
1611.53	110.704
1613.07	109.887
1614.6	107.708
1616.14	107.315
1617.68	107.061
1619.22	106.328
1620.75	105.784
1622.29	104.757
1623.83	104.696
1625.37	104.165
1626.9	103.054
1628.44	100.844
1629.97	99.3012
1631.51	97.479
1633.04	98.1528
1634.58	98.3833
1636.11	99.0775
1637.65	98.5113
1639.18	100.199
1640.72	100.81
1642.25	102.257
1643.78	103.999
1645.31	104.897
1646.85	106.372
1648.38	107.01
1649.91	109.365
1651.44	110.814
1652.97	111.54
1654.5	111.907
1656.03	112.442
1657.56	111.56
1659.1	111.924
1660.62	110.911
1662.15	110.833
1663.68	109.937
1665.21	108.456
1666.74	106.817
1668.27	104.258
1669.8	100.544
1671.32	98.4294
1672.85	97.1069
1674.38	94.6197
1675.91	92.0539
1677.43	89.0322
1678.96	86.0365
1680.49	81.641
1682.01	79.2012
1683.54	75.4605
1685.06	72.2763
1686.59	69.7745
1688.11	67.8459
1689.64	65.4052
1691.16	63.3124
1692.68	61.7151
1694.21	59.306
1695.73	58.2009
1697.25	56.9488
1698.78	55.9531
1700.3	53.6777
1701.82	52.7449
1703.34	51.0752
1704.86	49.968
1706.39	50.3175
1707.91	49.5624
1709.43	49.608
1710.95	48.3402
1712.47	48.0936
1713.99	46.4173
1715.51	46.3395
1717.02	45.6133
1718.54	45.5608
1720.06	46.3865
1721.58	47.0303
1723.1	47.2468
1724.62	47.8029
1726.13	47.7653
1727.65	47.4249
1729.17	46.6942
1730.68	45.8262
1732.2	45.9881
1733.72	45.4922
1735.23	45.5193
1736.75	44.1347
1738.26	43.3278
1739.78	41.4563
1741.29	39.728
1742.81	37.1654
1744.32	34.9655
1745.84	33.458
1747.35	32.6297
1748.86	31.4486
1750.37	29.42
1751.89	27.7884
1753.4	25.0975
1754.91	23.7253
1756.42	21.4729
1757.93	20.3414
1759.45	19.6369
1760.96	18.2594
1762.47	16.3432
1763.98	14.9338
1765.49	12.6081
1767	12.2897
1768.51	11.0039
1770.02	9.81508
1771.53	9.89494
1773.03	8.62701
1774.54	6.95617
1776.05	6.09985
1777.56	6.22778
1779.07	5.29186
1780.57	4.79599
1782.08	4.25885
1783.59	3.56109
1785.09	3.14218
1786.6	3.41783
1788.11	2.80321
1789.61	1.73493
1791.12	2.36242
1792.62	2.85927
1794.13	3.18274
1795.63	3.77064
1797.13	3.91331
1798.64	4.23397
1800.14	4.49752
1801.65	3.63221
1803.15	3.76944
1804.65	3.04293
1806.15	2.89327
1807.66	2.95144
1809.16	2.66809
1810.66	2.29007
1812.16	2.36142
1813.66	1.06287
1815.16	0.184653
1816.66	-0.301617
1818.16	-0.391349
1819.66	0.0195116
1821.16	0.431692
1822.66	0.66872
1824.16	-0.597991
1825.66	-0.601194
1827.16	-0.983755
1828.66	-0.965433
1830.16	-1.78547
1831.65	-2.07025
1833.15	-1.93332
1834.65	-0.978163
1836.14	-1.4976
1837.64	-1.30827
1839.14	-0.903407
1840.63	-0.712931
1842.13	-0.718207
1843.62	-0.884562
1845.12	-0.913387
1846.61	-0.77698
1848.11	-0.755639
1849.6	-0.692421
1851.1	-0.103237
1852.59	1.11121
1854.08	0.788745
1855.58	0.830406
1857.07	1.23345
1858.56	1.85829
1860.05	2.90866
1861.55	2.60263
1863.04	2.20519
1864.53	2.64627
1866.02	3.68631
1867.51	4.07221
1869	4.63011
1870.49	4.98104
1871.98	6.39362
1873.47	7.34183
1874.96	7.43289
1876.45	7.91728
1877.94	8.34128
1879.43	8.75332
1880.92	8.19376
1882.41	7.84978
1882.51	8.27347
1884	7.60085
1885.5	7.77785
1886.99	6.79543
1888.48	6.71252
1889.98	7.40469
1891.47	8.53219
1892.96	8.36937
1894.46	7.9374
1895.95	7.76453
1897.44	7.5247
1898.93	7.5633
1900.42	6.50408
1901.91	5.63523
1903.41	5.12217
1904.9	5.98383
1906.39	5.36668
1907.88	4.86317
1909.37	3.99039
1910.86	3.72023
1912.35	3.36094
1913.83	3.73804
1915.32	3.4263
1916.81	3.35721
1918.3	3.1713
1919.79	3.41416
1921.27	3.86322
1922.76	4.58082
1924.25	5.4032
1925.74	6.55362
1927.22	6.82233
1928.71	7.44651
1930.19	8.34944
1931.68	9.31812
1933.17	9.40812
1934.65	8.44196
1936.14	10.4729
1937.62	11.2541
1939.11	12.0017
1940.59	12.4727
1942.07	12.9127
1943.56	13.9174
1945.04	15.3177
1946.52	15.1683
1948.01	15.4286
1949.49	16.1214
1950.97	16.2603
1952.45	16.8317
1953.93	17.0723
1955.42	17.5027
1956.9	17.8974
1958.38	18.1807
1959.86	19.6055
1961.34	20.0591
1962.82	20.8378
1964.3	21.2295
1965.78	20.9947
1967.26	20.1628
1968.74	20.832
1970.21	20.7392
1971.69	20.3115
1973.17	20.2698
1974.65	20.0621
1976.13	19.9629
1977.6	19.1505
1979.08	18.8444
1980.56	17.8207
1982.03	17.7137
1983.51	17.5979
1984.99	16.638
1986.46	16.9608
1987.94	16.9679
1989.41	16.8494
1990.89	16.7803
1992.36	17.202
1993.84	17.6967
1995.31	17.9849
1996.78	18.8479
1998.26	18.1681
1999.73	17.659
2001.2	17.2655
2002.68	16.0012
2004.15	15.075
2005.62	15.7811
2007.09	15.1911
2008.56	15.4851
2010.04	16.2842
2011.51	15.6801
2012.98	16.2609
2014.45	16.7839
2015.92	16.3692
2017.39	17.0145
2018.86	17.1896
2020.33	17.3556
2021.8	18.3257
2023.26	18.6187
2024.73	18.9758
2026.2	18.8282
2027.67	18.8493
2029.14	18.8718
2030.61	19.0293
2032.07	18.9535
2033.54	19.0647
2035.01	18.7081
2036.47	18.6715
2037.94	19.3043
2039.4	20.2232
2040.87	20.8217
2042.33	21.1793
2043.8	20.4938
2045.27	20.417
2046.73	19.7325
2048.19	19.4034
2049.66	18.7522
2051.12	18.6326
2052.59	19.32
2054.05	19.4906
2055.51	19.18
2056.97	19.611
2058.44	19.6997
2059.9	21.3027
2061.36	21.0875
2062.82	21.537
2064.28	20.7722
2065.74	20.756
2067.21	21.0639
2068.67	20.8061
2070.13	21.5289
2071.59	21.0529
2073.05	21.7146
2074.51	22.3003
2075.96	22.2121
2077.42	22.8064
2078.88	24.0765
2080.34	23.9419
2081.8	24.6928
2083.26	23.7923
2084.72	23.5291
2086.17	24.1361
2087.63	23.5895
2089.09	23.8257
2090.54	25.0381
2092	25.8367
2093.45	25.3075
2094.91	24.3433
2096.37	24.2692
2097.82	24.4296
2099.28	24.1077
2100.73	24.8655
2102.19	24.7179
2103.64	24.4577
2105.09	24.6643
2106.55	26.0787
2108	26.3676
2109.45	27.1839
2110.91	27.6658
2112.36	28.2587
2113.81	28.2349
2115.26	27.8391
2116.72	28.7305
2118.17	29.4774
2119.62	29.4381
2121.07	30.0679
2122.52	31.2144
2123.97	32.3717
2125.42	32.609
2126.87	32.9464
2128.32	33.8488
2129.77	35.3881
2131.22	35.9625
2132.67	37.2678
2134.11	37.5508
2135.56	39.5833
2137.01	40.816
2138.46	42.9976
2139.91	44.5625
2141.35	46.1681
2142.8	47.865
2144.25	48.7489
2145.7	50.2153
2147.14	50.9277
2148.59	52.0825
2150.03	53.273
2151.48	54.1935
2152.92	55.2626
2154.37	55.7676
2155.81	56.6313
2157.26	58.9173
2158.7	60.9373
2160.15	62.0978
2161.59	63.8059
2163.03	63.7186
2164.47	65.209
2165.92	65.5301
2167.36	66.831
2168.8	69.3125
2170.24	70.6096
2171.69	71.134
2173.13	71.7103
2174.57	71.7438
2176.01	72.1187
2177.45	72.5735
2178.89	72.558
2180.33	72.0211
2181.77	71.2824
2183.21	70.8863
2184.65	69.902
2186.09	69.3069
2187.53	69.1362
2188.97	68.4672
2190.4	66.5167
2191.84	65.2765
2193.28	64.7221
2194.72	64.7485
2196.16	62.9177
2197.59	60.4967
2199.03	59.8931
2200.47	59.0853
2201.9	57.1047
2203.34	55.9369
2204.77	54.629
2206.21	53.2781
2207.64	52.3595
2209.08	51.1194
2210.51	49.6594
2211.95	48.757
2213.38	47.7945
2214.82	46.2535
2216.25	44.9623
2217.68	43.0289
2219.12	41.1968
2220.55	39.3181
2221.98	37.7256
2223.41	35.8229
2224.85	34.891
2226.28	34.0683
2227.71	33.5137
2229.14	32.5557
2230.57	31.2455
2232	30.6162
2233.43	28.9603
2234.86	28.7563
2236.29	29.2972
2237.72	28.1078
2239.15	27.9918
2240.58	27.3969
2242.01	26.8612
2243.44	25.1233
2244.87	24.8186
2246.29	25.2952
2247.72	24.9867
2249.15	24.8815
2250.58	24.8672
2252.01	24.9329
2253.43	24.4407
2254.86	24.5261
2256.29	24.8686
2257.71	25.7023
2259.14	25.2902
2260.56	24.7302
2261.99	24.6791
2263.41	25.5082
2264.84	25.851
2266.26	26.2914
2267.69	25.3056
2269.11	24.8445
2270.53	26.5452
2271.96	25.6092
2273.38	26.0562
2274.8	25.9169
2276.23	25.0698
2277.65	25.582
2279.07	25.1579
2280.49	25.7552
2281.91	25.3506
2283.34	25.3941
2284.76	24.9612
2286.18	24.813
2287.6	23.6967
2289.02	22.5173
2290.44	21.5074
2291.86	19.5806
2293.28	18.6155
2294.7	18.0644
2296.12	18.5914
2297.54	17.6375
2298.96	17.3279
2300.37	17.2921
2301.79	16.9028
2303.21	16.6322
2304.63	16.2212
2306.04	16.3155
2307.46	15.7495
2308.88	15.441
2310.3	16.2074
2311.71	16.2206
2313.13	16.3246
2314.54	15.5726
2315.96	16.4643
2317.37	16.5286
2318.79	15.2606
2320.2	14.8463
2321.62	14.3749
2323.03	13.3886
2324.45	13.5589
2325.86	13.6244
2327.27	13.795
2328.69	13.2974
2330.1	12.8262
2331.51	13.4151
2332.92	13.167
2334.34	13.0242
2335.75	12.4678
2337.16	11.5926
2338.57	10.364
2339.98	10.9303
2341.39	11.3223
2342.8	10.8765
2344.21	10.4919
2345.63	9.25202
2347.04	8.89446
2348.45	8.72919
2349.85	8.66739
2351.26	9.52338
2352.67	9.6882
2354.08	9.60439
2355.49	9.12162
2356.9	8.28659
2358.3	6.85726
2359.71	5.60103
2361.12	4.31632
2362.53	3.98405
2363.93	4.35243
2365.34	4.49161
2366.75	4.67495
2368.15	3.51973
2369.56	3.74376
2370.97	3.44944
2372.37	2.7632
2373.77	2.4193
2375.18	1.51531
2376.59	1.38168
2377.99	1.33214
2379.39	1.58259
2380.8	2.1801
2382.2	1.18302
2383.6	0.687235
2385.01	0.216897
2386.41	0.808973
2387.81	0.750073
2389.21	1.13374
2390.62	2.09516
2392.02	2.56021
2393.42	2.66547
2394.82	3.15342
2396.22	3.18553
2397.62	3.40399
2399.02	4.24531
2400.42	4.40417
2401.82	5.00749
2403.22	5.41757
2404.62	6.01319
2406.02	6.31943
2407.42	6.98095
2408.82	8.44119
2410.22	9.64476
2411.62	9.63418
2413.01	9.65524
2414.41	9.9527
2415.81	10.385
2417.21	10.8402
2418.6	11.2732
2420	12.3519
2421.4	12.7374
2422.79	12.6574
2424.19	12.2615
2425.59	11.8755
2426.98	11.6553
2428.38	10.6893
2429.77	10.4312
2431.17	10.7233
2432.56	11.2532
2433.95	10.8379
2435.35	10.5788
2436.74	9.60036
2438.14	9.11142
2439.53	9.03626
2440.92	8.89848
2442.31	8.01101
2443.71	7.1736
2445.1	6.75302
2446.49	6.69469
2447.88	6.51954
2449.27	7.96266
2450.67	7.84205
2452.06	7.40675
2453.45	7.73137
2454.84	7.52708
2456.23	8.59164
2457.62	7.75809
2459.01	7.99134
2460.4	6.60794
2461.79	5.80353
2463.18	5.47623
2464.57	5.27868
2465.95	5.27803
2467.34	4.68546
2468.73	5.11738
2470.12	4.03556
2471.5	3.65815
2472.89	3.09567
2474.28	2.21428
2475.67	2.15885
2477.05	2.82303
2478.44	2.6482
2479.82	1.37488
2481.21	0.291034
2482.6	0.220404
2483.98	0.996413
2485.37	-0.0554866
2486.75	0.180256
2488.13	-0.245506
2489.52	-0.664848
2490.9	-0.74778
2492.29	-0.891999
2493.67	-0.52167
2495.05	-1.02703
2496.44	-0.981124
2497.82	-1.4172
2499.2	-1.70929
2500.58	-1.22783
2501.97	-1.74968
2503.35	-2.68989
2504.73	-2.32438
2506.11	-1.87513
2507.49	-0.807211
2508.87	-1.02226
2510.25	-0.190045
2511.63	-0.00981173
2513.01	1.16776
2514.39	1.75029
2515.77	1.99381
2517.15	2.83352
2518.53	3.40503
2519.91	3.83634
2521.29	4.16106
2522.67	5.01225
2524.05	5.24267
2525.42	5.90303
2526.8	4.6397
2528.18	5.88009
2529.55	4.89211
2530.93	5.53119
2532.31	5.83174
2533.69	5.9822
2535.06	6.35121
2536.44	6.01696
2537.81	6.42627
2539.19	5.50726
2540.56	5.17522
2541.94	5.26473
2543.31	5.66567
2544.69	6.05164
2546.06	5.9625
2547.44	5.20385
2548.81	4.66357
2550.18	4.99562
2551.56	5.82512
2552.93	6.30696
2554.3	6.07114
2555.67	7.11737
2557.04	6.67001
2558.42	7.26539
2559.79	7.61947
2561.16	7.40128
2562.53	7.35948
2563.9	6.9054
2565.27	7.80735
2566.64	7.80585
2568.01	7.7218
2569.38	8.48434
2570.75	7.88958
2572.12	7.83651
2573.49	8.9624
2574.86	9.52194
2576.23	10.0582
2577.6	10.2788
2578.97	10.681
2580.33	10.6765
2581.7	11.4411
2583.07	11.0066
2584.44	11.7671
2585.8	12.4031
2587.17	13.5896
2588.54	14.7164
2589.9	15.082
2591.27	15.4773
2592.64	15.9757
2594	16.0431
2595.37	16.2299
2596.73	16.8402
2598.1	16.1278
2599.46	16.4599
2600.83	16.4824
2602.19	16.0339
2603.55	15.9124
2604.92	15.0967
2606.28	15.3684
2607.64	14.8715
2609.01	13.6526
2610.37	13.7455
2611.73	13.7199
2613.09	13.9305
2614.46	13.7872
2615.82	13.4635
2617.18	13.9898
2618.54	14.2815
2619.9	15.2522
2621.26	16.1418
2622.62	16.7376
2623.98	16.5548
2625.34	16.4306
2626.7	16.3165
2628.06	16.3532
2629.42	16.7554
2630.78	17.4264
2632.14	17.2651
2633.5	18.3347
2634.86	18.3605
2636.21	17.9309
2637.57	17.8502
2638.93	17.999
2640.29	18.8023
2641.64	20.4064
2643	20.7004
2644.36	21.5221
2645.71	21.8408
2647.07	23.0918
2648.43	24.2376
2649.78	26.1468
2651.14	26.1867
2652.49	28.1124
2653.85	28.5695
2655.2	29.6399
2656.56	31.0787
2657.91	31.4436
2659.26	31.6306
2660.62	31.9069
2661.97	31.7024
2663.32	31.5022
2664.68	30.9366
2666.03	30.7751
2667.38	30.2929
2668.74	30.2785
2670.09	29.8652
2671.44	29.9524
2672.79	29.1309
2674.14	29.4405
2675.49	28.2965
2676.84	27.4133
2678.19	27.8906
2679.54	28.5307
2680.89	27.9591
2682.24	28.0499
2683.59	28.8127
2684.94	29.4323
2686.29	30.3732
2687.64	31.6412
2688.99	32.662
2690.34	33.2058
2691.69	34.4134
2693.03	36.6123
2694.38	39.1193
2695.73	41.71
2697.08	43.7957
2698.42	46.7362
2699.77	50.1221
2701.12	54.254
2702.46	57.3774
2703.81	60.2097
2705.15	63.5018
2706.5	67.1926
2707.85	70.7021
2709.19	73.7803
2710.54	76.6137
2711.88	79.5615
2713.22	82.0978
2714.57	85.3203
2715.91	87.4583
2717.26	89.5545
2718.6	90.4565
2719.94	92.8089
2721.29	93.2013
2722.63	93.9747
2723.97	93.5743
2725.31	92.2727
2726.66	90.8757
2728	89.2476
2729.34	86.9097
2730.68	84.5215
2732.02	82.5967
2733.36	80.223
2734.7	77.646
2736.04	75.3275
2737.38	71.5211
2738.72	68.0684
2740.06	64.145
2741.4	59.9953
2742.74	54.7402
2744.08	50.5081
2745.42	46.4856
2746.76	42.413
2748.09	37.4422
2749.43	34.3041
2750.77	30.4159
2752.11	26.2342
2753.45	23.0175
2754.78	19.3835
2756.12	16.4048
2757.46	14.2022
2758.79	12.9778
2760.13	11.4207
2761.46	10.5718
2762.8	8.41739
2764.14	7.50162
2765.47	6.93035
2766.8	6.06422
2768.14	5.5395
2769.47	4.20749
2770.81	3.06106
2772.14	1.97094
2773.48	1.1574
2774.81	1.0232
2776.14	0.848958
2777.48	1.48556
2778.81	1.10087
2780.14	1.87626
2781.47	1.86436
2782.8	1.31303
2784.14	1.38189
2785.47	1.37362
2786.8	1.67681
2788.13	2.22443
2789.46	2.12981
2790.79	2.304
2792.12	3.14629
2793.45	3.10775
2794.78	3.35052
2796.11	4.03692
2797.44	5.31244
2798.77	5.82076
2800.1	5.95539
2801.43	4.85539
2802.76	3.14809
2804.09	0.600544
2805.41	-1.72398
2806.74	-6.06383
2808.07	-11.5258
2809.4	-16.1131
2810.72	-18.4565
2812.05	-19.0968
2813.38	-14.6804
2814.71	-7.87163
2816.03	3.06333
2817.36	19.2459
2818.68	39.1503
2820.01	64.4674
2821.33	92.7984
2822.66	126.225
2823.98	162.105
2825.31	199.251
2826.63	239.124
2827.96	281.074
2829.28	324.318
2830.6	368.893
2831.93	414.098
2833.25	459.927
2834.57	506.76
2835.9	551.836
2837.22	597.606
2838.54	641.273
2839.86	686.229
2841.18	728.544
2842.5	767.991
2843.83	805.102
2845.15	840.113
2846.47	875.615
2847.79	912.008
2849.11	952.047
2850.43	995.09
2851.75	1039.6
2853.07	1083.79
2854.39	1127.29
2855.71	1168.73
2857.03	1208.64
2858.35	1245.21
2859.66	1278.37
2860.98	1308.81
2862.3	1335.52
2863.62	1357.63
2864.94	1375.25
2866.25	1388.55
2867.57	1397.08
2868.89	1404.13
2870.2	1408.46
2871.52	1410.93
2872.84	1413.2
2874.15	1414.77
2875.47	1418.61
2876.78	1422.84
2878.1	1427.81
2879.41	1434.25
2880.73	1438.68
2882.04	1443.3
2883.36	1448.56
2884.67	1450.28
2885.99	1453.3
2887.3	1452.6
2888.61	1450.38
2889.93	1445.83
2891.24	1440.47
2892.55	1432.68
2893.86	1423.08
2895.18	1412.16
2896.49	1399.62
2897.8	1385.87
2899.11	1370.43
2900.42	1354.66
2901.73	1336.97
2903.05	1319.68
2904.36	1302.9
2905.67	1287.84
2906.98	1271.63
2908.29	1259.88
2909.6	1251.35
2910.91	1247.26
2912.21	1247.71
2913.52	1251.83
2914.83	1257.65
2916.14	1263.03
2917.45	1265.09
2918.76	1264.94
2920.07	1264.02
2921.37	1260.17
2922.68	1254.27
2923.99	1246.22
2925.29	1237.06
2926.6	1226.19
2927.91	1214.65
2929.22	1202.11
2930.52	1187.81
2931.83	1172.31
2933.13	1156.83
2934.44	1140.98
2935.74	1124.65
2937.05	1106.86
2938.35	1087.35
2939.66	1065.13
2940.96	1043.39
2942.26	1020.69
2943.57	996.018
2944.87	970.603
2946.18	943.128
2947.48	916.534
2948.78	889.322
2950.08	861.902
2951.39	834.299
2952.69	804.763
2953.99	776.259
2955.29	748.401
2956.59	720.106
2957.9	691.735
2959.2	665.167
2960.5	639.02
2961.8	613.409
2963.1	588.372
2964.4	564.511
2965.7	542.431
2967	521.163
2968.3	501.591
2969.6	483.466
2970.9	465.001
2972.19	447.936
2973.49	430.771
2974.79	414.268
2976.09	397.056
2977.39	379.733
2978.68	362.021
2979.98	344.796
2981.28	327.706
2982.58	309.153
2983.87	291.434
2985.17	275.083
2986.47	257.98
2987.76	242.032
2989.06	226.792
2990.35	211.844
2991.65	198.061
2992.94	184.831
2994.24	171.527
2995.53	158.75
2996.83	147.284
2998.12	135.996
2999.42	124.957
3000.71	114.946
3002	104.468
3003.3	94.4148
3004.59	86.2857
3005.88	78.7089
3007.18	71.0674
3008.47	62.7356
3009.76	55.9856
3011.05	49.6904
3012.34	44.2922
3013.64	38.9145
3014.93	33.6174
3016.22	28.1003
3017.51	24.119
3018.8	19.9829
3020.09	15.8377
3021.38	12.2897
3022.67	8.67548
3023.96	6.02361
3025.25	3.94998
3026.54	1.36448
3027.83	-0.28092
3029.12	-1.15851
3030.41	-1.14493
3031.69	-1.5512
3032.98	-1.83669
3034.27	-1.53334
3035.56	-2.36476
3036.84	-1.9001
3038.13	-1.49125
3039.42	-0.844587
3040.71	-0.619481
3041.99	-0.0482346
3043.28	0.721766
3044.57	2.38057
3045.85	3.41952
3047.14	3.94919
3048.42	5.64582
3049.71	6.95922
3050.99	7.3846
3052.28	8.31649
3053.56	9.39097
3054.85	10.2389
3056.13	11.752
3057.41	11.8988
3058.7	13.0886
3059.98	13.5587
3061.26	13.3377
3062.55	13.6587
3063.83	13.9942
3065.11	13.91
3066.39	14.6781
3067.68	14.889
3068.96	15.0813
3070.24	14.4497
3071.52	14.4304
3072.8	14.4245
3074.08	14.1157
3075.36	13.6053
3076.65	12.712
3077.93	13.2865
3079.21	11.9268
3080.49	12.1139
3081.77	12.0158
3083.04	12.0376
3084.32	11.4902
3085.6	11.3808
3086.88	11.1745
3088.16	11.5836
3089.44	11.8638
3090.72	12.3421
3091.99	14.1442
3093.27	16.1454
3094.55	16.6854
3095.83	17.5646
3097.1	18.901
3098.38	19.8006
3099.66	20.6664
3100.93	22.5982
3102.21	24.6905
3103.49	26.2776
3104.76	29.0131
3106.04	30.7402
3107.31	33.4389
3108.59	36.1315
3109.86	38.4294
3111.14	40.4957
3112.41	43.3009
3113.69	45.4285
3114.96	48.5656
3116.23	51.4653
3117.51	54.1418
3118.78	57.0294
3120.05	59.7187
3121.33	62.4124
3122.6	65.928
3123.87	68.5296
3125.14	71.6607
3126.41	75.5584
3127.69	77.9396
3128.96	81.1468
3130.23	85.0221
3131.5	87.8424
3132.77	90.814
3134.04	94.619
3135.31	98.3631
3136.58	101.676
3137.85	104.937
3139.12	108.498
3140.39	112.547
3141.66	116.85
3142.93	120.727
3144.2	124.779
3145.47	128.459
3146.74	132.469
3148	138.406
3149.27	143.57
