#Acq. time (s)=	45
#Accumulations=	2
#Range (cm-¹)=	200...3150
#Windows=	2
#Auto scanning=	Off
#Autofocus=	Off
#Macrospot=	Off
#AutoExposure=	Off
#Spike filter=	Multiple accum.
#Delay time (s)=	0
#Binning=	1
#Readout mode=	Signal
#DeNoise=	Off
#ICS correction=	On
#Dark correction=	Off
#Inst. Process=	Off
#Detector Gain=	Best Dynamic Range
#Detector ADC=	20 kHz       
#Detector temperature (°C)=	-69.85
#Instrument=	LabRAM HR Evol
#Detector=	Synapse
#Objective=	x100
#Grating=	600 gr/mm
#ND Filter=	100%
#Laser (nm)=	532 
#Hole=	100.021
#Range=	Auto
#Laser Pol.=	No
#Raman. Pol.=	No
#Laser Pol. (°)=	-0.0007625
#Raman Pol. (°)=	89.9995
#Collection=	Microscope
#StageXY=	Marzhauser
#StageZ=	Marzhauser
#X (µm)=	-6978.8
#Y (µm)=	1939.5
#Z (µm)=	-75.2
#Full time(mm:ss)=	3:18
#Project=	
#Sample=	
#Site=	
#Title=	Mb_20_23_37_2x_45s_532 nm_x100_100%_600 gr_mm
#Remark=	
#Date=	13.07.2022 16:03
#Acquired=	13.07.2022 16:03:10
#Base:Fit=	10.08.2022 10:29:37
#Base:Sub=	10.08.2022 10:34:43
#Filter:Polynom=	16.08.2022 10:13:29
#AxisType[0]=Intens
#AxisUnit[0]=Cnt
#AxisType[1]=Spectr
#AxisUnit[1]=1/cm
200.563	16.9538
202.377	14.3338
204.194	12.8521
206.008	11.9682
207.821	11.7649
209.634	11.6994
211.449	11.7116
213.262	10.9615
215.074	10.9105
216.885	10.9726
218.699	10.6747
220.51	8.38487
222.321	9.1995
224.131	10.1992
225.941	9.86754
227.751	9.86834
229.562	9.93157
231.371	9.75946
233.18	9.86344
234.988	10.7614
236.796	11.2866
238.603	11.1235
240.411	12.1964
242.219	12.261
244.026	12.4165
245.832	12.0393
247.638	13.029
249.443	12.7045
251.248	12.3898
253.053	12.2491
254.857	11.6924
256.661	11.5552
258.465	11.4663
260.268	11.1801
262.071	10.556
263.874	9.74028
265.678	9.39277
267.48	8.11593
269.282	9.07175
271.083	8.78331
272.884	7.65781
274.684	7.6316
276.484	7.22126
278.284	6.67641
280.084	6.54606
281.883	8.18717
283.682	8.92354
285.48	11.096
287.276	9.79795
289.074	10.044
290.871	9.96921
292.668	11.0524
294.465	11.5116
296.261	12.1607
298.057	12.842
299.853	12.7268
301.648	13.9861
303.443	13.793
305.237	14.8759
307.032	15.6938
308.823	15.9839
310.617	16.4403
312.41	19.1344
314.203	20.3006
315.995	20.8981
317.788	22.3519
319.579	23.4865
321.369	24.8892
323.16	26.6501
324.951	27.6924
326.741	28.3134
328.531	28.7436
330.321	29.1711
332.108	28.2586
333.897	28.898
335.686	28.7655
337.474	28.8185
339.26	27.5458
341.048	27.8009
342.835	28.7058
344.622	27.493
346.406	27.2112
348.192	25.792
349.978	26.2091
351.764	25.2643
353.547	24.9734
355.332	24.7095
357.116	23.1811
358.901	23.0207
360.682	22.3627
362.466	21.8825
364.249	22.2107
366.03	21.1946
367.812	22.1134
369.594	21.247
371.374	21.2328
373.155	21.0631
374.936	19.9225
376.715	18.3696
378.495	19.0595
380.273	19.0088
382.053	18.8619
383.832	18.5083
385.609	18.4618
387.388	17.5135
389.164	17.3599
390.942	17.403
392.72	17.1878
394.495	16.9575
396.272	17.1836
398.047	17.088
399.823	17.9957
401.597	19.0595
403.372	19.6904
405.145	19.4062
406.92	19.1275
408.693	18.8207
410.467	19.1263
412.239	19.4262
414.012	17.4487
415.783	16.5805
417.556	14.9133
419.327	13.8719
421.099	14.7788
422.869	14.4836
424.64	13.8188
426.409	14.1065
428.18	13.8856
429.948	15.1093
431.718	14.4415
433.486	13.1141
435.253	13.2601
437.022	13.3969
438.789	14.439
440.558	13.7742
442.324	13.8582
444.089	13.3516
445.857	13.2396
447.622	13.7747
449.386	14.077
451.153	14.3327
452.917	14.4025
454.682	14.8992
456.446	15.6679
458.208	15.1399
459.973	14.3564
461.735	14.1924
463.497	13.7807
465.259	14.9053
467.022	14.3706
468.783	14.4245
470.544	14.495
472.306	15.4775
474.066	15.8944
475.825	16.2631
477.585	17.5239
479.346	16.9026
481.104	17.4202
482.862	17.1002
484.62	17.3911
486.38	18.0213
488.137	17.6814
489.894	17.5158
491.65	17.0028
493.407	16.3852
495.164	16.7995
496.92	17.3631
498.675	17.8433
500.43	17.7179
502.184	16.8278
503.939	17.6203
505.694	18.3404
507.448	19.3703
509.201	19.9543
510.954	18.5652
512.706	19.4125
514.459	19.6173
516.21	19.8175
517.962	19.9346
519.715	18.6744
521.466	19.0973
523.216	19.4212
524.966	19.1387
526.716	19.3765
528.466	19.4271
530.215	18.0844
531.964	17.8812
533.712	17.9072
535.46	17.7982
537.208	18.0888
538.955	17.9478
540.703	17.6917
542.449	17.4051
544.196	17.4074
545.942	17.8501
547.688	17.7367
549.433	18.9773
551.178	18.853
552.923	19.0023
554.667	18.5819
556.412	18.9943
558.155	18.3621
559.899	18.3612
561.642	17.3001
563.385	17.4902
565.127	16.3975
566.867	15.2951
568.609	15.2974
570.35	15.2781
572.092	14.7964
573.832	14.6715
575.573	14.079
577.313	14.2732
579.053	14.4263
580.79	14.6766
582.529	15.9047
584.268	14.5394
586.006	13.1122
587.745	12.0554
589.482	10.4579
591.218	9.50536
592.955	8.50245
594.692	7.07224
596.428	6.71794
598.164	5.98451
599.898	6.61964
601.634	6.14821
603.369	5.96206
605.104	4.55913
606.836	4.72414
608.57	4.73804
610.304	3.80773
612.037	3.31777
613.769	3.22646
615.501	2.29972
617.234	0.908379
618.966	1.28303
620.696	1.66336
622.427	2.50716
624.159	2.20346
625.887	1.70801
627.618	1.73204
629.348	1.31956
631.076	2.47738
632.806	2.45657
634.535	1.94722
636.262	2.67316
637.99	2.355
639.716	2.36824
641.444	2.04608
643.172	1.83942
644.897	1.83365
646.624	2.04803
648.348	2.71241
650.075	3.55555
651.801	3.78476
653.524	4.06773
655.249	4.91758
656.972	5.18294
658.697	5.06887
660.419	5.4643
662.143	6.30569
663.865	7.26695
665.588	7.26744
667.309	6.19881
669.032	6.13078
670.752	4.39229
672.474	4.38982
674.194	4.36052
675.915	3.78642
677.634	5.44587
679.355	6.05946
681.073	6.30394
682.793	6.34653
684.511	6.48862
686.23	7.00489
687.947	7.1194
689.664	7.58394
691.382	8.38457
693.098	10.082
694.816	8.80523
696.531	8.00368
698.247	8.56689
699.963	9.74566
701.678	10.4581
703.392	10.5563
705.108	12.0358
706.821	13.2899
708.534	12.799
710.249	13.0148
711.962	13.4226
713.674	14.108
715.388	14.8446
717.099	15.6747
718.81	17.0484
720.523	18.0158
722.234	18.7377
723.944	18.4801
725.654	18.8265
727.365	19.5666
729.075	20.1911
730.784	21.5256
732.492	22.6096
734.202	24.2072
735.91	25.3356
737.618	26.7167
739.325	26.2132
741.034	27.9456
742.741	28.5485
744.447	29.5169
746.153	30.5357
747.859	31.6834
749.564	31.7658
751.271	31.6234
752.976	34.1579
754.681	36.2054
756.385	35.9932
758.088	36.5296
759.792	38.4533
761.495	39.4277
763.2	43.1043
764.902	44.1194
766.604	44.7235
768.306	46.3107
770.008	47.4679
771.709	48.3314
773.41	48.5419
775.11	50.1588
776.811	51.5718
778.51	52.3681
780.21	53.671
781.909	56.406
783.608	57.8159
785.307	59.5651
787.005	60.0648
788.703	60.9049
790.401	62.099
792.098	63.5205
793.795	64.2607
795.492	65.3862
797.188	66.4257
798.884	68.0816
800.58	69.0526
802.276	70.229
803.971	72.357
805.665	72.0646
807.36	72.7911
809.054	74.8985
810.748	75.7487
812.441	76.1939
814.135	77.2507
815.826	77.9606
817.518	78.6554
819.21	78.8601
820.902	79.0607
822.594	80.0105
824.285	80.1317
825.976	80.9638
827.665	80.2573
829.355	80.7089
831.045	81.5077
832.735	81.2288
834.424	80.7134
836.111	80.9628
837.8	81.4221
839.488	80.6016
841.177	79.2455
842.864	79.3455
844.55	80.1185
846.237	79.7687
847.924	80.0423
849.61	77.411
851.295	75.8975
852.98	75.2783
854.666	74.5338
856.349	74.5623
858.034	73.6121
859.719	74.4518
861.403	74.1401
863.085	74.2837
864.769	73.7588
866.452	72.5784
868.133	71.0148
869.816	71.0696
871.498	70.6009
873.179	71.3163
874.86	70.4836
876.54	70.255
878.221	68.9204
879.902	68.6984
881.58	68.7986
883.26	68.4432
884.938	66.7581
886.618	66.3543
888.297	64.8591
889.974	63.2869
891.653	62.8589
893.329	62.0127
895.007	59.5837
896.683	58.3865
898.36	57.4059
900.035	55.0463
901.712	54.1603
903.387	52.6072
905.063	51.7687
906.737	50.8051
908.412	49.1359
910.085	47.5379
911.76	46.6042
913.433	46.2773
915.107	44.4212
916.779	43.4084
918.452	42.8474
920.124	42.7701
921.797	43.6581
923.467	43.4865
925.138	41.7606
926.81	40.6213
928.48	40.4108
930.151	39.4524
931.82	38.7659
933.489	38.4458
935.16	38.0047
936.828	38.0113
938.496	37.7729
940.165	37.1674
941.833	36.4091
943.5	37.1428
945.168	35.8778
946.834	33.9504
948.5	33.0836
950.168	32.963
951.834	32.2559
953.499	32.3227
955.163	31.5346
956.83	29.6938
958.494	27.4503
960.158	25.6728
961.821	24.9825
963.487	24.2919
965.15	23.2146
966.812	21.5669
968.474	20.4626
970.138	19.7529
971.8	19.0191
973.461	19.4461
975.123	19.4684
976.783	18.3074
978.446	17.3538
980.106	17.1833
981.766	15.9957
983.425	14.9776
985.084	14.9988
986.743	14.8115
988.402	14.939
990.06	15.8161
991.72	16.1001
993.378	15.7997
995.035	16.4268
996.692	16.1615
998.349	17.0345
1000.01	19.5776
1001.66	21.4967
1003.32	23.3217
1004.97	25.3429
1006.63	26.34
1008.28	27.6838
1009.94	28.8635
1011.59	31.9907
1013.25	32.1677
1014.9	32.6753
1016.55	33.3672
1018.21	33.8537
1019.86	35.6336
1021.51	37.5797
1023.16	39.0253
1024.81	40.7404
1026.47	42.2717
1028.12	42.6146
1029.77	43.7034
1031.42	46.0049
1033.07	46.8545
1034.72	47.64
1036.37	48.9634
1038.02	49.3988
1039.67	50.4451
1041.31	52.7506
1042.96	54.0272
1044.61	56.3849
1046.26	57.5669
1047.91	58.7756
1049.55	59.0272
1051.2	60.1925
1052.84	61.1251
1054.49	61.8405
1056.14	62.0192
1057.78	61.4892
1059.43	61.352
1061.07	61.6871
1062.72	61.5593
1064.36	61.6287
1066	61.6
1067.65	61.3935
1069.29	60.9236
1070.93	59.7793
1072.58	59.1851
1074.22	57.8345
1075.86	56.0842
1077.5	55.2585
1079.14	54.9539
1080.78	55.3638
1082.42	54.1502
1084.06	53.2032
1085.7	51.4852
1087.34	49.7865
1088.98	47.9388
1090.62	47.1165
1092.26	45.0922
1093.9	43.5922
1095.54	41.187
1097.17	41.1679
1098.81	40.6879
1100.45	40.7417
1102.09	41.2824
1103.72	39.8564
1105.36	38.7179
1106.99	37.1453
1108.63	35.7769
1110.27	34.446
1111.9	33.8251
1113.53	32.8961
1115.17	31.8421
1116.8	32.1097
1118.43	31.3061
1120.07	31.217
1121.7	31.1227
1123.33	30.0181
1124.97	28.5109
1126.6	28.424
1128.23	28.4147
1129.86	28.3182
1131.49	28.5587
1133.12	27.5503
1134.75	27.0388
1136.38	26.1024
1138.01	25.4641
1139.64	25.0894
1141.27	24.1747
1142.9	23.5233
1144.53	22.2792
1146.16	21.6834
1147.78	20.0201
1149.41	18.4167
1151.04	17.2475
1152.67	16.0027
1154.29	15.0613
1155.92	13.1292
1157.54	11.0811
1159.17	10.0923
1160.8	9.53807
1162.42	8.67048
1164.05	7.31692
1165.67	7.92745
1167.29	7.79021
1168.92	8.43628
1170.54	9.0662
1172.16	10.126
1173.79	9.51975
1175.41	9.35591
1177.03	9.70779
1178.65	9.18092
1180.28	9.27982
1181.9	10.343
1183.52	10.0905
1185.14	8.47513
1186.76	9.0698
1188.38	9.30692
1190	9.53105
1191.62	10.4288
1193.24	11.0411
1194.86	10.8798
1196.47	11.8092
1198.09	13.3145
1199.71	12.9854
1201.33	14.5915
1202.95	15.2905
1204.56	16.5127
1206.18	17.7426
1207.8	19.6282
1209.41	20.5404
1211.03	21.1848
1212.64	21.3178
1214.26	21.6133
1215.87	24.1301
1217.49	25.9112
1219.1	27.2552
1220.71	29.1957
1222.33	31.6663
1223.94	32.915
1225.55	33.6699
1227.16	36.0331
1228.78	37.4955
1230.39	38.8506
1232	41.2852
1233.61	41.8723
1235.22	43.0719
1236.83	45.3516
1238.44	46.5019
1240.05	49.1029
1241.66	50.7097
1243.27	53.2078
1244.88	55.6096
1246.49	58.5777
1248.1	60.1713
1249.71	61.0783
1251.32	61.0736
1252.92	62.6852
1254.53	62.9316
1256.14	64.2352
1257.74	65.5939
1259.35	66.852
1260.96	70.2837
1262.56	73.0092
1264.17	74.6075
1265.77	76.7589
1267.38	80.1031
1268.98	83.5142
1270.59	86.3592
1272.19	90.6175
1273.79	94.0904
1275.4	96.9497
1277	101.113
1278.6	104.792
1280.21	107.914
1281.81	111.066
1283.41	114.899
1285.01	118.044
1286.61	120.131
1288.21	123.904
1289.81	126.141
1291.41	128.171
1293.01	129.856
1294.61	132.497
1296.21	134.176
1297.81	136.02
1299.41	137.947
1301.01	138.416
1302.6	138.97
1304.2	138.071
1305.8	138.287
1307.4	138.678
1308.99	138.06
1310.59	136.957
1312.19	135.377
1313.78	133.301
1315.38	132.386
1316.97	130.932
1318.57	128.177
1320.16	125.987
1321.76	123.082
1323.35	121.574
1324.94	119.195
1326.54	115.992
1328.13	111.387
1329.72	107.677
1331.32	104.048
1332.91	101.478
1334.5	98.3516
1336.09	95.2556
1337.68	92.8418
1339.27	91.2891
1340.87	89.8265
1342.45	88.5186
1344.04	86.5701
1345.64	86.7146
1347.22	85.0506
1348.81	84.3141
1350.4	83.9621
1351.99	83.8863
1353.58	83.0882
1355.17	82.0416
1356.75	82.3068
1358.34	80.7852
1359.93	78.9283
1361.51	78.8278
1363.1	78.3558
1364.69	78.5136
1366.27	77.0354
1367.86	77.3477
1369.44	76.3266
1371.03	75.663
1372.61	74.9921
1374.2	74.7622
1375.78	75.3396
1377.37	75.6167
1378.95	74.3967
1380.53	72.0943
1382.11	72.7312
1383.7	72.5514
1385.28	71.7014
1386.86	71.4653
1388.44	70.6317
1390.02	70.2748
1391.6	70.7679
1393.19	70.432
1394.77	69.4192
1396.35	68.8497
1397.93	68.5739
1399.51	68.7363
1401.08	70.9274
1402.66	73.5462
1404.24	76.8129
1405.82	80.8912
1407.4	83.9491
1408.97	88.2318
1410.55	93.2969
1412.13	99.5279
1413.71	105.502
1415.28	111.515
1416.86	120.807
1418.43	128.536
1420.01	136.181
1421.59	144.784
1423.16	152.034
1424.73	160.663
1426.31	167.558
1427.88	176.241
1429.46	183.882
1431.03	191.498
1432.6	198.774
1434.18	205.534
1435.75	212.009
1437.32	216.814
1438.89	222.201
1440.46	228.721
1442.04	232.245
1443.61	235.813
1445.18	236.08
1446.75	237.386
1448.32	235.536
1449.89	234.035
1451.46	232.103
1453.03	229.713
1454.6	225.371
1456.16	219.706
1457.73	214.364
1459.3	208.109
1460.87	202.881
1462.44	194.837
1464	185.868
1465.57	178.214
1467.14	168.959
1468.7	159.916
1470.27	150.38
1471.83	140.453
1473.4	131.935
1474.96	124.307
1476.53	117.405
1478.09	110.56
1479.66	104.633
1481.22	99.0798
1482.78	91.7452
1484.35	85.4754
1485.91	78.6195
1487.47	73.7889
1489.04	69.5313
1490.6	65.2329
1492.16	61.1815
1493.72	57.8923
1495.28	55.7643
1496.84	51.5569
1498.4	48.6168
1499.96	46.403
1501.52	45.2434
1503.08	43.8517
1504.64	42.4514
1506.2	41.6871
1507.76	40.7233
1509.32	41.0397
1510.88	40.2125
1512.44	39.6309
1513.99	38.9214
1515.55	37.7324
1517.11	37.5506
1518.66	37.2466
1520.22	35.714
1521.78	34.5401
1523.33	34.2442
1524.89	33.6078
1526.44	32.6068
1528	33.782
1529.55	33.9081
1531.11	33.9093
1532.66	33.8361
1534.21	34.3192
1535.77	34.4571
1537.32	35.1876
1538.87	37.5042
1540.43	37.4347
1541.98	37.8287
1543.53	39.479
1545.08	39.6764
1546.63	40.7951
1548.18	42.2536
1549.74	43.0994
1551.29	44.0318
1552.84	44.0968
1554.39	44.2429
1555.94	44.1116
1557.48	44.93
1559.03	45.2435
1560.58	45.0678
1562.13	46.8053
1563.68	48.5946
1565.23	50.0041
1566.78	51.7007
1568.32	53.0871
1569.87	55.6246
1571.42	57.561
1572.96	59.4636
1574.51	61.2939
1576.05	63.7401
1577.6	66.182
1579.14	68.3003
1580.69	69.5196
1582.24	70.9878
1583.78	72.2265
1585.32	74.4684
1586.87	76.4103
1588.41	76.9225
1589.95	78.7461
1591.5	80.3249
1593.04	81.6304
1594.58	83.066
1596.12	84.547
1597.67	85.665
1599.21	86.3025
1600.75	86.9368
1602.29	86.567
1603.83	87.6706
1605.37	88.1812
1606.91	87.5487
1608.45	88.0451
1609.99	87.2992
1611.53	87.5545
1613.07	87.7941
1614.6	88.2299
1616.14	87.1934
1617.68	85.2967
1619.22	85.2537
1620.75	84.9273
1622.29	84.0663
1623.83	83.9547
1625.37	83.8613
1626.9	82.9604
1628.44	82.4105
1629.97	81.231
1631.51	80.8024
1633.04	81.0567
1634.58	80.499
1636.11	80.0467
1637.65	80.5524
1639.18	81.3642
1640.72	81.8217
1642.25	81.8982
1643.78	82.3662
1645.31	82.6044
1646.85	83.9945
1648.38	82.7627
1649.91	82.8129
1651.44	83.2419
1652.97	83.18
1654.5	82.6119
1656.03	82.1079
1657.56	81.7082
1659.1	80.9863
1660.62	80.3947
1662.15	80.1283
1663.68	77.8876
1665.21	76.3682
1666.74	75.7084
1668.27	74.803
1669.8	72.3886
1671.32	70.8689
1672.85	69.4715
1674.38	66.9805
1675.91	64.7096
1677.43	63.0752
1678.96	61.9334
1680.49	60.1495
1682.01	57.851
1683.54	56.5332
1685.06	55.1921
1686.59	53.246
1688.11	51.327
1689.64	49.6321
1691.16	48.0082
1692.68	46.9924
1694.21	46.5153
1695.73	45.9319
1697.25	45.2647
1698.78	44.6208
1700.3	44.2882
1701.82	43.7034
1703.34	42.4766
1704.86	42.3799
1706.39	41.097
1707.91	40.447
1709.43	40.7621
1710.95	40.0733
1712.47	39.8652
1713.99	40.2885
1715.51	40.6117
1717.02	40.1439
1718.54	39.9976
1720.06	39.8196
1721.58	40.1266
1723.1	40.1997
1724.62	39.9764
1726.13	41.1982
1727.65	40.8903
1729.17	39.9177
1730.68	39.3961
1732.2	39.6099
1733.72	38.912
1735.23	38.3442
1736.75	37.3406
1738.26	36.827
1739.78	35.4757
1741.29	35.2042
1742.81	34.414
1744.32	33.3141
1745.84	31.5193
1747.35	30.2711
1748.86	29.3272
1750.37	27.9179
1751.89	27.795
1753.4	27.0722
1754.91	26.5188
1756.42	25.032
1757.93	24.4032
1759.45	23.9408
1760.96	22.2087
1762.47	21.7886
1763.98	20.9469
1765.49	20.5887
1767	19.2812
1768.51	18.7897
1770.02	18.5067
1771.53	18.0674
1773.03	17.6644
1774.54	17.058
1776.05	17.1961
1777.56	16.9521
1779.07	16.3951
1780.57	16.6815
1782.08	15.7232
1783.59	15.6097
1785.09	15.5714
1786.6	15.1566
1788.11	14.8617
1789.61	15.3901
1791.12	15.4008
1792.62	15.3671
1794.13	15.8393
1795.63	16.0449
1797.13	16.3164
1798.64	16.2135
1800.14	15.887
1801.65	15.9953
1803.15	15.6833
1804.65	15.3396
1806.15	15.6836
1807.66	15.7742
1809.16	14.8592
1810.66	14.8592
1812.16	14.4282
1813.66	13.9428
1815.16	13.3594
1816.66	12.6997
1818.16	12.1575
1819.66	11.4789
1821.16	11.7576
1822.66	12.3474
1824.16	12.757
1825.66	12.3475
1827.16	12.4467
1828.66	12.3362
1830.16	11.7501
1831.65	11.326
1833.15	11.7951
1834.65	12.059
1836.14	11.749
1837.64	12.1588
1839.14	11.4868
1840.63	11.5342
1842.13	11.9685
1843.62	12.1206
1845.12	11.3775
1846.61	10.5043
1848.11	10.0963
1849.6	9.90243
1851.1	9.71196
1852.59	8.29137
1854.08	7.87464
1855.58	7.1048
1857.07	6.47808
1858.56	5.83053
1860.05	5.23826
1861.55	5.06898
1863.04	4.25965
1864.53	4.03372
1866.02	3.62779
1867.51	2.87127
1869	2.28519
1870.49	2.09758
1871.98	2.05314
1873.47	2.90178
1874.96	2.8366
1876.45	2.97013
1877.94	2.53652
1879.43	1.92268
1880.92	1.99768
1882.41	1.97041
1882.51	2.01319
1884	2.8428
1885.5	3.74923
1886.99	3.83124
1888.48	4.10288
1889.98	4.28902
1891.47	5.06628
1892.96	5.08782
1894.46	6.25195
1895.95	6.73893
1897.44	6.55758
1898.93	6.74742
1900.42	7.1439
1901.91	7.64681
1903.41	7.79466
1904.9	8.39558
1906.39	8.72204
1907.88	8.69584
1909.37	9.72508
1910.86	9.76479
1912.35	9.47757
1913.83	10.337
1915.32	10.1939
1916.81	9.87088
1918.3	9.73619
1919.79	10.1257
1921.27	9.79051
1922.76	10.05
1924.25	10.3934
1925.74	10.9837
1927.22	11.0026
1928.71	10.9485
1930.19	11.1196
1931.68	10.6563
1933.17	10.1681
1934.65	10.1588
1936.14	9.8622
1937.62	9.85978
1939.11	9.53529
1940.59	9.72782
1942.07	10.3133
1943.56	10.4396
1945.04	10.5304
1946.52	11.0638
1948.01	9.93577
1949.49	9.79666
1950.97	9.38341
1952.45	8.6042
1953.93	8.23738
1955.42	8.18775
1956.9	8.38147
1958.38	8.1681
1959.86	7.7801
1961.34	6.73095
1962.82	6.27591
1964.3	6.19853
1965.78	5.57202
1967.26	5.09862
1968.74	5.43211
1970.21	5.69265
1971.69	5.27007
1973.17	4.76845
1974.65	4.01832
1976.13	3.6916
1977.6	4.30888
1979.08	4.07384
1980.56	3.79044
1982.03	4.12098
1983.51	4.6727
1984.99	4.16148
1986.46	4.18095
1987.94	4.08975
1989.41	4.05307
1990.89	4.04153
1992.36	4.30191
1993.84	4.02086
1995.31	4.5574
1996.78	5.37769
1998.26	5.42995
1999.73	4.70848
2001.2	3.17548
2002.68	4.11916
2004.15	4.28111
2005.62	4.79492
2007.09	5.0056
2008.56	5.02404
2010.04	5.0919
2011.51	5.17449
2012.98	5.17219
2014.45	5.86342
2015.92	5.48572
2017.39	5.80488
2018.86	5.74445
2020.33	5.90157
2021.8	5.72435
2023.26	5.37092
2024.73	5.60281
2026.2	5.30994
2027.67	6.06134
2029.14	6.47008
2030.61	7.11086
2032.07	6.91689
2033.54	7.18092
2035.01	8.09394
2036.47	8.61121
2037.94	7.86424
2039.4	7.71556
2040.87	8.14612
2042.33	8.37537
2043.8	9.19177
2045.27	8.85947
2046.73	8.57621
2048.19	8.13399
2049.66	8.60799
2051.12	8.67712
2052.59	7.79543
2054.05	8.39102
2055.51	9.0742
2056.97	9.32452
2058.44	8.72597
2059.9	8.89727
2061.36	9.11859
2062.82	9.64562
2064.28	9.63847
2065.74	10.0936
2067.21	9.42764
2068.67	9.65814
2070.13	8.96283
2071.59	9.27767
2073.05	9.27591
2074.51	9.83693
2075.96	10.3855
2077.42	10.2471
2078.88	10.0794
2080.34	9.39554
2081.8	9.0295
2083.26	9.39334
2084.72	9.69016
2086.17	9.68062
2087.63	9.53572
2089.09	9.17358
2090.54	9.04819
2092	9.06163
2093.45	10.38
2094.91	10.1652
2096.37	10.4465
2097.82	10.3683
2099.28	10.5521
2100.73	10.6756
2102.19	10.5582
2103.64	10.3114
2105.09	10.591
2106.55	10.2829
2108	10.9741
2109.45	10.206
2110.91	9.9092
2112.36	11.0066
2113.81	11.3464
2115.26	11.8391
2116.72	12.2749
2118.17	12.164
2119.62	12.371
2121.07	13.3148
2122.52	15.2445
2123.97	15.3869
2125.42	16.5097
2126.87	17.2207
2128.32	17.0786
2129.77	17.8134
2131.22	18.7554
2132.67	20.2271
2134.11	20.8513
2135.56	22.0667
2137.01	22.8814
2138.46	23.7875
2139.91	24.4551
2141.35	25.6964
2142.8	26.6374
2144.25	27.7265
2145.7	28.0941
2147.14	29.0764
2148.59	29.4386
2150.03	29.9526
2151.48	30.67
2152.92	31.4521
2154.37	32.3882
2155.81	33.4458
2157.26	34.2503
2158.7	34.7732
2160.15	35.4565
2161.59	36.6581
2163.03	37.0654
2164.47	37.9256
2165.92	38.8448
2167.36	38.9994
2168.8	39.7703
2170.24	39.1335
2171.69	39.2012
2173.13	38.6829
2174.57	39.6454
2176.01	39.306
2177.45	39.3693
2178.89	39.1439
2180.33	39.2697
2181.77	38.5888
2183.21	39.2287
2184.65	38.8993
2186.09	38.1
2187.53	38.1128
2188.97	37.471
2190.4	37.3574
2191.84	37.2423
2193.28	36.6916
2194.72	35.3053
2196.16	32.7672
2197.59	32.2978
2199.03	30.8085
2200.47	30.24
2201.9	30.0612
2203.34	29.3701
2204.77	29.0364
2206.21	28.1625
2207.64	27.3248
2209.08	25.4983
2210.51	24.6877
2211.95	23.7189
2213.38	23.2381
2214.82	21.8134
2216.25	21.0422
2217.68	20.1619
2219.12	19.7856
2220.55	19.0907
2221.98	18.828
2223.41	18.7549
2224.85	18.2272
2226.28	18.2077
2227.71	18.0977
2229.14	18.1987
2230.57	17.8503
2232	17.5591
2233.43	17.4316
2234.86	16.1648
2236.29	16.3025
2237.72	16.343
2239.15	16.14
2240.58	16.1761
2242.01	16.1231
2243.44	16.5142
2244.87	17.0839
2246.29	17.2908
2247.72	16.4171
2249.15	16.8227
2250.58	17.3164
2252.01	17.3842
2253.43	17.2916
2254.86	17.219
2256.29	16.3219
2257.71	16.0456
2259.14	16.2178
2260.56	15.7233
2261.99	15.4403
2263.41	14.9156
2264.84	13.6122
2266.26	12.552
2267.69	11.9739
2269.11	11.5843
2270.53	11.3417
2271.96	11.2719
2273.38	10.4818
2274.8	9.95685
2276.23	9.53174
2277.65	8.46658
2279.07	8.29768
2280.49	7.6089
2281.91	7.77717
2283.34	7.23909
2284.76	6.8571
2286.18	6.18167
2287.6	6.88659
2289.02	6.43852
2290.44	5.88375
2291.86	4.66286
2293.28	3.83682
2294.7	3.45029
2296.12	3.87915
2297.54	3.75306
2298.96	3.28377
2300.37	3.58986
2301.79	2.95266
2303.21	2.8577
2304.63	3.6166
2306.04	3.64645
2307.46	4.25511
2308.88	5.01244
2310.3	6.26047
2311.71	6.4695
2313.13	6.41132
2314.54	6.02283
2315.96	6.00223
2317.37	5.63208
2318.79	6.32749
2320.2	7.05445
2321.62	7.05657
2323.03	6.92208
2324.45	5.78885
2325.86	6.197
2327.27	6.44151
2328.69	5.77317
2330.1	5.39704
2331.51	4.96824
2332.92	4.52127
2334.34	3.81568
2335.75	3.49523
2337.16	3.50212
2338.57	4.05374
2339.98	4.13083
2341.39	4.76177
2342.8	3.64206
2344.21	3.33738
2345.63	3.68696
2347.04	3.60703
2348.45	3.4244
2349.85	3.42316
2351.26	3.35761
2352.67	4.15609
2354.08	3.28278
2355.49	3.11246
2356.9	3.09069
2358.3	3.04443
2359.71	1.86086
2361.12	1.76052
2362.53	1.9892
2363.93	2.64217
2365.34	3.17275
2366.75	3.79726
2368.15	3.65009
2369.56	3.85452
2370.97	4.14785
2372.37	4.47964
2373.77	5.16072
2375.18	5.92105
2376.59	5.50586
2377.99	5.59703
2379.39	6.63373
2380.8	6.38388
2382.2	5.54577
2383.6	5.56273
2385.01	5.73382
2386.41	6.15964
2387.81	5.79954
2389.21	6.1595
2390.62	5.77217
2392.02	5.18864
2393.42	4.92662
2394.82	4.31783
2396.22	4.09144
2397.62	3.71595
2399.02	2.50609
2400.42	2.21424
2401.82	1.7664
2403.22	1.4305
2404.62	1.11918
2406.02	1.65614
2407.42	1.40299
2408.82	1.45979
2410.22	0.235172
2411.62	-0.0553411
2413.01	-0.874438
2414.41	-0.378181
2415.81	-0.0603147
2417.21	-0.270811
2418.6	-0.0217303
2420	0.435745
2421.4	0.492389
2422.79	0.233351
2424.19	-0.469768
2425.59	-0.196024
2426.98	-0.382298
2428.38	-0.441097
2429.77	-0.246931
2431.17	-0.198543
2432.56	0.139642
2433.95	0.022423
2435.35	0.175429
2436.74	0.534405
2438.14	0.256006
2439.53	0.25
2440.92	0.699907
2442.31	0.538938
2443.71	0.33964
2445.1	0.233016
2446.49	1.02041
2447.88	1.3082
2449.27	1.781
2450.67	1.43204
2452.06	1.85669
2453.45	1.95816
2454.84	2.80357
2456.23	2.30679
2457.62	1.72919
2459.01	1.3728
2460.4	1.30035
2461.79	1.17662
2463.18	1.08807
2464.57	1.07782
2465.95	1.11986
2467.34	1.36234
2468.73	0.94796
2470.12	1.05512
2471.5	1.20513
2472.89	1.69228
2474.28	2.26169
2475.67	2.61332
2477.05	2.41799
2478.44	2.29206
2479.82	2.34642
2481.21	2.98049
2482.6	3.32986
2483.98	3.27667
2485.37	3.55238
2486.75	3.28223
2488.13	3.94731
2489.52	3.93471
2490.9	3.82693
2492.29	3.56202
2493.67	3.71433
2495.05	3.15844
2496.44	3.47155
2497.82	3.78004
2499.2	3.81526
2500.58	3.05067
2501.97	3.04311
2503.35	2.1411
2504.73	1.92221
2506.11	2.63069
2507.49	2.28991
2508.87	2.18983
2510.25	2.28333
2511.63	2.47947
2513.01	2.96526
2514.39	3.33669
2515.77	3.37991
2517.15	3.17505
2518.53	2.95184
2519.91	3.07471
2521.29	2.74192
2522.67	2.53547
2524.05	2.56545
2525.42	1.33862
2526.8	0.973325
2528.18	1.1659
2529.55	1.77089
2530.93	1.66905
2532.31	1.68945
2533.69	1.51177
2535.06	1.16126
2536.44	1.56
2537.81	1.37985
2539.19	2.13032
2540.56	2.29146
2541.94	2.90029
2543.31	3.19152
2544.69	3.74235
2546.06	3.04763
2547.44	3.71669
2548.81	4.19969
2550.18	3.76808
2551.56	3.87545
2552.93	4.17882
2554.3	4.65078
2555.67	4.95167
2557.04	5.41522
2558.42	4.6767
2559.79	4.58824
2561.16	4.45875
2562.53	4.9514
2563.9	4.30937
2565.27	4.47226
2566.64	3.86837
2568.01	3.75571
2569.38	3.98195
2570.75	4.07223
2572.12	4.38725
2573.49	5.46561
2574.86	5.89286
2576.23	5.62937
2577.6	6.07215
2578.97	6.78456
2580.33	6.62228
2581.7	5.72993
2583.07	5.93932
2584.44	5.47234
2585.8	5.77683
2587.17	5.3994
2588.54	5.15074
2589.9	4.46797
2591.27	4.50904
2592.64	4.55367
2594	3.8712
2595.37	3.63836
2596.73	3.9044
2598.1	3.31485
2599.46	3.11726
2600.83	3.74933
2602.19	4.10615
2603.55	4.38119
2604.92	5.22801
2606.28	5.3657
2607.64	5.92851
2609.01	5.49531
2610.37	6.24291
2611.73	5.91664
2613.09	6.10156
2614.46	5.17795
2615.82	6.14577
2617.18	5.98094
2618.54	5.90261
2619.9	6.10228
2621.26	6.73825
2622.62	6.43082
2623.98	7.0168
2625.34	6.98654
2626.7	7.44415
2628.06	8.82625
2629.42	9.80535
2630.78	10.0163
2632.14	9.63683
2633.5	10.7001
2634.86	11.4534
2636.21	12.1688
2637.57	12.6748
2638.93	12.5622
2640.29	13.3813
2641.64	14.2228
2643	14.4058
2644.36	14.9699
2645.71	15.2533
2647.07	15.4635
2648.43	15.7242
2649.78	15.7757
2651.14	16.0558
2652.49	15.915
2653.85	16.7062
2655.2	16.5114
2656.56	15.8344
2657.91	16.3171
2659.26	16.3696
2660.62	16.5086
2661.97	16.0988
2663.32	15.911
2664.68	16.3792
2666.03	16.32
2667.38	16.5005
2668.74	16.2109
2670.09	15.36
2671.44	14.1839
2672.79	14.5027
2674.14	14.1415
2675.49	13.4363
2676.84	12.9202
2678.19	12.9023
2679.54	12.474
2680.89	12.7218
2682.24	12.6502
2683.59	13.1338
2684.94	13.0397
2686.29	13.2476
2687.64	13.0062
2688.99	13.2393
2690.34	13.09
2691.69	13.9451
2693.03	14.3968
2694.38	15.6009
2695.73	16.119
2697.08	16.3868
2698.42	16.2654
2699.77	16.2627
2701.12	16.6042
2702.46	16.7441
2703.81	17.0299
2705.15	17.6283
2706.5	18.7844
2707.85	20.0183
2709.19	20.8844
2710.54	21.7071
2711.88	22.496
2713.22	23.2853
2714.57	24.1552
2715.91	24.7367
2717.26	24.3981
2718.6	24.3416
2719.94	24.8559
2721.29	25.3108
2722.63	25.1789
2723.97	24.9757
2725.31	24.8246
2726.66	24.7975
2728	24.842
2729.34	24.28
2730.68	23.6424
2732.02	23.1059
2733.36	22.0574
2734.7	21.1284
2736.04	20.0863
2737.38	19.5696
2738.72	19.3229
2740.06	19.4609
2741.4	18.3134
2742.74	17.625
2744.08	17.4789
2745.42	16.5932
2746.76	16.0439
2748.09	14.8443
2749.43	14.2377
2750.77	14.0547
2752.11	12.7461
2753.45	10.8985
2754.78	10.0244
2756.12	9.40388
2757.46	8.96801
2758.79	8.80999
2760.13	7.80554
2761.46	7.35111
2762.8	6.33023
2764.14	5.52306
2765.47	4.26114
2766.8	3.20425
2768.14	2.7942
2769.47	3.24122
2770.81	3.58588
2772.14	3.31233
2773.48	3.21553
2774.81	2.6131
2776.14	3.05578
2777.48	3.64435
2778.81	3.33517
2780.14	3.17313
2781.47	2.8417
2782.8	2.69369
2784.14	2.38604
2785.47	2.41872
2786.8	3.47499
2788.13	4.06581
2789.46	4.12921
2790.79	3.51639
2792.12	3.69029
2793.45	4.25994
2794.78	4.47093
2796.11	4.71642
2797.44	4.63761
2798.77	4.66387
2800.1	4.49443
2801.43	4.68225
2802.76	4.36217
2804.09	4.42594
2805.41	3.52927
2806.74	2.98523
2808.07	2.87553
2809.4	2.09273
2810.72	1.12841
2812.05	-0.0710111
2813.38	0.337751
2814.71	0.102372
2816.03	1.17681
2817.36	2.49021
2818.68	4.61428
2820.01	8.51979
2821.33	14.7453
2822.66	21.3917
2823.98	28.5957
2825.31	36.4266
2826.63	45.4775
2827.96	55.68
2829.28	65.6056
2830.6	77.0054
2831.93	88.0783
2833.25	100.516
2834.57	112.642
2835.9	124.957
2837.22	137.572
2838.54	149.866
2839.86	162.857
2841.18	176.599
2842.5	190.508
2843.83	203.069
2845.15	215.891
2846.47	228.955
2847.79	241.563
2849.11	255.086
2850.43	267.319
2851.75	280.152
2853.07	292.821
2854.39	304.127
2855.71	314.491
2857.03	325.017
2858.35	334.988
2859.66	343.725
2860.98	352.222
2862.3	359.207
2863.62	364.918
2864.94	371.436
2866.25	376.481
2867.57	381.427
2868.89	385.078
2870.2	388.025
2871.52	391.211
2872.84	394.286
2874.15	396.253
2875.47	397.494
2876.78	399.127
2878.1	402.024
2879.41	404.908
2880.73	407.687
2882.04	412.207
2883.36	417.022
2884.67	422.654
2885.99	426.758
2887.3	431.885
2888.61	436.682
2889.93	440.754
2891.24	444.847
2892.55	449.003
2893.86	452.748
2895.18	456.034
2896.49	460.655
2897.8	464.138
2899.11	468.339
2900.42	470.705
2901.73	474.607
2903.05	477.667
2904.36	481.179
2905.67	485.243
2906.98	490.674
2908.29	495.088
2909.6	499.232
2910.91	503.624
2912.21	507.751
2913.52	511.04
2914.83	515.424
2916.14	518.132
2917.45	521.976
2918.76	524.144
2920.07	525.433
2921.37	525.369
2922.68	525.001
2923.99	522.635
2925.29	520.404
2926.6	518.378
2927.91	515.383
2929.22	511.512
2930.52	507.044
2931.83	501.466
2933.13	495.696
2934.44	489.83
2935.74	483.456
2937.05	476.797
2938.35	468.914
2939.66	461.01
2940.96	452.932
2942.26	444.764
2943.57	436.326
2944.87	426.107
2946.18	415.85
2947.48	406.143
2948.78	395.732
2950.08	384.372
2951.39	372.617
2952.69	362.47
2953.99	351.012
2955.29	339.137
2956.59	327.669
2957.9	316.942
2959.2	306.214
2960.5	296.068
2961.8	286.755
2963.1	276.746
2964.4	266.431
2965.7	256.876
2967	248.133
2968.3	239.249
2969.6	232.343
2970.9	225.168
2972.19	218.432
2973.49	210.067
2974.79	202.418
2976.09	194.786
2977.39	187.611
2978.68	178.848
2979.98	171.897
2981.28	163.982
2982.58	155.769
2983.87	146.832
2985.17	138.652
2986.47	130.636
2987.76	123.065
2989.06	114.813
2990.35	107.767
2991.65	100.996
2992.94	93.4847
2994.24	86.6909
2995.53	80.4775
2996.83	74.553
2998.12	68.9355
2999.42	63.9602
3000.71	58.1502
3002	53.2332
3003.3	48.4955
3004.59	44.4441
3005.88	39.7249
3007.18	35.0968
3008.47	30.6613
3009.76	26.4524
3011.05	23.3899
3012.34	20.3536
3013.64	17.4942
3014.93	13.9571
3016.22	12.0927
3017.51	10.1153
3018.8	7.22591
3020.09	5.35247
3021.38	4.49779
3022.67	2.78959
3023.96	1.55468
3025.25	1.40242
3026.54	0.435639
3027.83	-0.50753
3029.12	-0.783721
3030.41	-0.548344
3031.69	-1.21395
3032.98	-0.816575
3034.27	-0.897054
3035.56	-0.596705
3036.84	-0.427518
3038.13	-0.759586
3039.42	-0.67581
3040.71	-0.631837
3041.99	-0.383372
3043.28	-0.325397
3044.57	0.310701
3045.85	0.868328
3047.14	1.48049
3048.42	2.01039
3049.71	2.41209
3050.99	2.85926
3052.28	2.59255
3053.56	2.19126
3054.85	2.64202
3056.13	3.38934
3057.41	3.39007
3058.7	4.11398
3059.98	3.57877
3061.26	3.47851
3062.55	3.71058
3063.83	3.87867
3065.11	3.65939
3066.39	3.56582
3067.68	3.3174
3068.96	3.27773
3070.24	2.60134
3071.52	2.35163
3072.8	1.92958
3074.08	1.95975
3075.36	2.25259
3076.65	2.31001
3077.93	2.44484
3079.21	2.10589
3080.49	2.14485
3081.77	1.14242
3083.04	0.404398
3084.32	0.492802
3085.6	0.516908
3086.88	0.789462
3088.16	1.36166
3089.44	1.7888
3090.72	1.80683
3091.99	2.28295
3093.27	2.76632
3094.55	3.11734
3095.83	3.48038
3097.1	4.24714
3098.38	4.61305
3099.66	5.47982
3100.93	4.9711
3102.21	5.91778
3103.49	6.45687
3104.76	7.74367
3106.04	8.87543
3107.31	9.7223
3108.59	10.299
3109.86	11.2862
3111.14	11.6855
3112.41	11.8617
3113.69	13.2459
3114.96	14.1651
3116.23	14.9508
3117.51	15.9678
3118.78	17.2656
3120.05	18.4678
3121.33	19.2748
3122.6	20.4611
3123.87	21.1627
3125.14	22.4075
3126.41	23.1388
3127.69	24.1553
3128.96	24.8266
3130.23	25.7124
3131.5	27.3207
3132.77	28.4034
3134.04	29.6698
3135.31	31.1416
3136.58	32.6928
3137.85	34.7991
3139.12	36.0531
3140.39	37.1174
3141.66	38.0809
3142.93	39.5133
3144.2	41.2581
3145.47	43.2934
3146.74	45.2497
3148	46.9726
3149.27	48.281
