#Acq. time (s)=	45
#Accumulations=	2
#Range (cm-¹)=	200...3150
#Windows=	2
#Auto scanning=	Off
#Autofocus=	Off
#Macrospot=	Off
#AutoExposure=	Off
#Spike filter=	Multiple accum.
#Delay time (s)=	0
#Binning=	1
#Readout mode=	Signal
#DeNoise=	Off
#ICS correction=	On
#Dark correction=	Off
#Inst. Process=	Off
#Detector Gain=	Best Dynamic Range
#Detector ADC=	20 kHz       
#Detector temperature (°C)=	-69.85
#Instrument=	LabRAM HR Evol
#Detector=	Synapse
#Objective=	x100
#Grating=	600 gr/mm
#ND Filter=	100%
#Laser (nm)=	532 
#Hole=	100.021
#Range=	Auto
#Laser Pol.=	No
#Raman. Pol.=	No
#Laser Pol. (°)=	-0.0007625
#Raman Pol. (°)=	89.9995
#Collection=	Microscope
#StageXY=	Marzhauser
#StageZ=	Marzhauser
#X (µm)=	-6910.5
#Y (µm)=	2149.4
#Z (µm)=	-74.85
#Full time(mm:ss)=	3:18
#Project=	
#Sample=	
#Site=	
#Title=	Mb_20_23_09_2x_45s_532 nm_x100_100%_600 gr_mm
#Remark=	
#Date=	13.07.2022 13:36
#Acquired=	13.07.2022 13:36:18
#Base:Fit=	10.08.2022 10:29:19
#Base:Fit=	10.08.2022 10:29:37
#Base:Sub=	10.08.2022 10:31:46
#Filter:Polynom=	16.08.2022 10:13:29
#AxisType[0]=Intens
#AxisUnit[0]=Cnt
#AxisType[1]=Spectr
#AxisUnit[1]=1/cm
200.563	82.3681
202.377	78.9569
204.194	75.5031
206.008	72.0063
207.821	68.8953
209.634	65.5722
211.449	62.0705
213.262	58.7553
215.074	56.1909
216.885	54.0797
218.699	50.9849
220.51	47.9038
222.321	45.7405
224.131	44.3577
225.941	42.3101
227.751	39.6798
229.562	37.9794
231.371	36.6145
233.18	35.1051
234.988	34.229
236.796	32.466
238.603	31.28
240.411	30.234
242.219	28.1755
244.026	26.4447
245.832	26.0237
247.638	23.5151
249.443	20.8099
251.248	19.3982
253.053	18.5105
254.857	17.9368
256.661	16.8413
258.465	16.0492
260.268	15.7314
262.071	14.5188
263.874	15.2225
265.678	14.6231
267.48	13.7931
269.282	12.0947
271.083	11.077
272.884	10.0075
274.684	9.79313
276.484	8.93469
278.284	8.44741
280.084	8.45201
281.883	7.11073
283.682	6.71378
285.48	7.16915
287.276	5.46737
289.074	4.57133
290.871	3.76835
292.668	3.58305
294.465	2.79248
296.261	2.69542
298.057	2.3134
299.853	2.31027
301.648	2.91124
303.443	2.92517
305.237	3.9562
307.032	4.2199
308.823	5.47223
310.617	7.09347
312.41	8.55724
314.203	9.39688
315.995	10.4324
317.788	10.8882
319.579	12.8126
321.369	14.7112
323.16	15.5586
324.951	16.2772
326.741	16.3818
328.531	17.0884
330.321	17.6422
332.108	17.7496
333.897	18.1956
335.686	19.0808
337.474	17.419
339.26	17.4545
341.048	18.2197
342.835	19.0011
344.622	19.712
346.406	19.241
348.192	18.9801
349.978	18.2264
351.764	17.4016
353.547	16.7786
355.332	15.4467
357.116	14.6378
358.901	13.9286
360.682	12.8724
362.466	12.0333
364.249	10.7868
366.03	9.85363
367.812	9.32393
369.594	8.17346
371.374	7.28381
373.155	7.67103
374.936	7.7501
376.715	6.91858
378.495	7.47562
380.273	6.1662
382.053	4.88249
383.832	5.37526
385.609	5.06429
387.388	4.85042
389.164	4.85937
390.942	4.39736
392.72	4.45145
394.495	5.78045
396.272	5.65743
398.047	6.16053
399.823	6.42242
401.597	7.15006
403.372	7.33736
405.145	7.85459
406.92	7.82238
408.693	7.91755
410.467	7.68523
412.239	7.15141
414.012	7.21475
415.783	6.58631
417.556	6.7391
419.327	7.02315
421.099	6.80472
422.869	6.53249
424.64	5.83717
426.409	5.40575
428.18	5.42992
429.948	4.50092
431.718	4.3931
433.486	2.75638
435.253	1.52095
437.022	1.72476
438.789	1.40784
440.558	1.60999
442.324	1.99259
444.089	2.64272
445.857	3.09622
447.622	2.91215
449.386	2.7084
451.153	4.38164
452.917	4.7157
454.682	6.40333
456.446	5.80886
458.208	5.95279
459.973	7.01262
461.735	7.9503
463.497	6.98674
465.259	6.92643
467.022	6.49898
468.783	7.16958
470.544	8.29842
472.306	10.0059
474.066	10.2098
475.825	11.5264
477.585	11.8783
479.346	12.8267
481.104	14.9631
482.862	15.8768
484.62	15.8353
486.38	16.7198
488.137	19.5118
489.894	19.7549
491.65	19.1686
493.407	20.4873
495.164	21.1698
496.92	21.0589
498.675	22.8424
500.43	23.2096
502.184	23.4955
503.939	23.3871
505.694	25.2086
507.448	25.8698
509.201	27.0761
510.954	27.7699
512.706	27.6039
514.459	28.3332
516.21	28.5737
517.962	28.0197
519.715	29.1739
521.466	28.4863
523.216	29.1288
524.966	29.9886
526.716	28.5573
528.466	28.6734
530.215	27.9831
531.964	26.7208
533.712	25.8012
535.46	24.9626
537.208	23.7708
538.955	23.0859
540.703	20.889
542.449	19.8715
544.196	18.9749
545.942	17.5314
547.688	16.0942
549.433	15.8901
551.178	13.9287
552.923	13.9309
554.667	13.238
556.412	12.8508
558.155	11.6305
559.899	11.4262
561.642	10.5936
563.385	8.49991
565.127	6.82349
566.867	7.16622
568.609	5.91426
570.35	4.29731
572.092	3.96879
573.832	3.50474
575.573	3.96546
577.313	1.74346
579.053	1.62752
580.79	1.63789
582.529	1.02365
584.268	0.697598
586.006	0.925839
587.745	0.217302
589.482	0.355607
591.218	0.871844
592.955	1.24459
594.692	1.35769
596.428	2.68053
598.164	1.93936
599.898	1.26153
601.634	1.04321
603.369	0.959203
605.104	0.927974
606.836	1.69468
608.57	1.27566
610.304	2.28881
612.037	2.04229
613.769	2.0339
615.501	2.92931
617.234	2.53968
618.966	2.35814
620.696	2.95102
622.427	3.27658
624.159	2.37817
625.887	2.97562
627.618	3.29942
629.348	4.50037
631.076	5.05032
632.806	5.41433
634.535	7.00151
636.262	7.98252
637.99	6.55127
639.716	7.62861
641.444	7.81534
643.172	7.66738
644.897	7.51479
646.624	7.55675
648.348	6.57319
650.075	5.33041
651.801	6.02797
653.524	6.43602
655.249	5.90479
656.972	5.99066
658.697	6.06818
660.419	5.38209
662.143	5.15707
663.865	3.8894
665.588	4.31329
667.309	3.81547
669.032	3.97408
670.752	5.00313
672.474	4.81807
674.194	5.0741
675.915	5.1785
677.634	4.67226
679.355	4.58483
681.073	5.46723
682.793	6.50753
684.511	6.01275
686.23	7.19545
687.947	8.31394
689.664	9.75873
691.382	11.2329
693.098	11.2032
694.816	12.2764
696.531	13.7512
698.247	14.7737
699.963	14.6081
701.678	15.1109
703.392	15.6131
705.108	16.5469
706.821	17.7819
708.534	19.0379
710.249	19.6872
711.962	20.6972
713.674	21.674
715.388	23.317
717.099	24.3949
718.81	24.3585
720.523	23.5986
722.234	23.3367
723.944	22.5837
725.654	23.6191
727.365	23.2175
729.075	23.837
730.784	23.9603
732.492	24.7015
734.202	24.039
735.91	24.3723
737.618	25.9156
739.325	26.2854
741.034	27.0948
742.741	27.446
744.447	28.1963
746.153	29.6573
747.859	30.8917
749.564	33.163
751.271	34.687
752.976	36.0609
754.681	38.9114
756.385	41.3498
758.088	41.7332
759.792	43.5554
761.495	45.1054
763.2	46.2635
764.902	49.2101
766.604	51.4745
768.306	53.8253
770.008	55.9004
771.709	57.3218
773.41	58.4373
775.11	60.2277
776.811	62.3921
778.51	62.6492
780.21	64.0725
781.909	65.7754
783.608	66.0589
785.307	67.6854
787.005	69.821
788.703	70.3231
790.401	70.9417
792.098	72.5392
793.795	74.4089
795.492	75.8513
797.188	76.0444
798.884	77.4135
800.58	78.5228
802.276	78.5715
803.971	77.1007
805.665	77.7557
807.36	79.4492
809.054	79.9991
810.748	80.7536
812.441	80.5333
814.135	82.4984
815.826	83.5451
817.518	84.2237
819.21	85.374
820.902	86.9769
822.594	87.994
824.285	87.7755
825.976	88.6441
827.665	90.1701
829.355	92.3897
831.045	94.1011
832.735	94.6333
834.424	94.5303
836.111	94.0908
837.8	94.6587
839.488	94.2686
841.177	92.0524
842.864	90.6107
844.55	89.2899
846.237	87.7336
847.924	87.7529
849.61	88.4549
851.295	87.7183
852.98	87.1883
854.666	86.7939
856.349	86.0797
858.034	86.2835
859.719	85.9765
861.403	86.2874
863.085	84.3164
864.769	84.8692
866.452	85.3496
868.133	84.3591
869.816	84.3844
871.498	82.6785
873.179	82.6399
874.86	82.8781
876.54	83.579
878.221	82.7581
879.902	81.1
881.58	78.8299
883.26	78.1105
884.938	77.1594
886.618	75.1306
888.297	74.2072
889.974	73.6059
891.653	72.8098
893.329	70.5975
895.007	70.6113
896.683	70.4317
898.36	70.2884
900.035	70.5542
901.712	69.0943
903.387	69.0604
905.063	67.3155
906.737	66.5227
908.412	65.6874
910.085	65.2949
911.76	64.6697
913.433	62.6876
915.107	61.4667
916.779	58.7827
918.452	56.7792
920.124	55.3336
921.797	53.1051
923.467	50.7272
925.138	49.5029
926.81	49.2779
928.48	48.7032
930.151	48.8963
931.82	49.112
933.489	48.3143
935.16	47.0281
936.828	45.9391
938.496	44.8924
940.165	43.6505
941.833	42.7217
943.5	41.6264
945.168	40.8993
946.834	39.4508
948.5	39.1867
950.168	38.2354
951.834	36.8652
953.499	36.5551
955.163	35.8915
956.83	35.3924
958.494	32.6839
960.158	31.2837
961.821	29.7621
963.487	28.86
965.15	27.9307
966.812	27.8951
968.474	28.5458
970.138	28.4279
971.8	28.5518
973.461	28.931
975.123	30.2948
976.783	29.2961
978.446	30.4389
980.106	29.0335
981.766	27.8321
983.425	28.2899
985.084	25.8194
986.743	25.4099
988.402	25.6097
990.06	25.388
991.72	25.117
993.378	24.4221
995.035	23.3994
996.692	22.0429
998.349	21.7309
1000.01	21.5135
1001.66	22.2475
1003.32	22.2315
1004.97	22.8298
1006.63	24.6257
1008.28	28.2344
1009.94	32.9523
1011.59	39.1964
1013.25	44.4455
1014.9	49.609
1016.55	54.3605
1018.21	59.1005
1019.86	65.5333
1021.51	71.6436
1023.16	78.3588
1024.81	86.375
1026.47	94.1139
1028.12	103.502
1029.77	112.173
1031.42	118.902
1033.07	125.782
1034.72	131.394
1036.37	137.856
1038.02	142.051
1039.67	147.065
1041.31	150.905
1042.96	156.723
1044.61	161.43
1046.26	164.638
1047.91	166.796
1049.55	170.796
1051.2	172.677
1052.84	173.312
1054.49	172.848
1056.14	171.551
1057.78	169.477
1059.43	164.612
1061.07	162.702
1062.72	158.248
1064.36	154.351
1066	149.662
1067.65	145.022
1069.29	139.389
1070.93	132.775
1072.58	125.587
1074.22	119.115
1075.86	112.57
1077.5	106.547
1079.14	99.5338
1080.78	94.6188
1082.42	89.2473
1084.06	82.3599
1085.7	76.4027
1087.34	73.4832
1088.98	71.9152
1090.62	71.9634
1092.26	72.9586
1093.9	73.3146
1095.54	72.7406
1097.17	73.4015
1098.81	73.5849
1100.45	75.4041
1102.09	76.9508
1103.72	78.4051
1105.36	81.1835
1106.99	83.6264
1108.63	84.7856
1110.27	85.4475
1111.9	83.3343
1113.53	82.6833
1115.17	82.3859
1116.8	81.0715
1118.43	81.1689
1120.07	80.0852
1121.7	79.4648
1123.33	77.5199
1124.97	75.9293
1126.6	73.4359
1128.23	70.2985
1129.86	68.1477
1131.49	66.2025
1133.12	63.1475
1134.75	60.1839
1136.38	57.4855
1138.01	55.2004
1139.64	50.6183
1141.27	47.3931
1142.9	45.1649
1144.53	41.6646
1146.16	37.7349
1147.78	34.1157
1149.41	31.1479
1151.04	27.0472
1152.67	24.2483
1154.29	21.3403
1155.92	18.6723
1157.54	15.1488
1159.17	13.2128
1160.8	9.26822
1162.42	7.17301
1164.05	4.56701
1165.67	3.87873
1167.29	5.05195
1168.92	7.75809
1170.54	8.97263
1172.16	10.3864
1173.79	11.3919
1175.41	12.4986
1177.03	12.9556
1178.65	12.4306
1180.28	12.1287
1181.9	12.4203
1183.52	12.6076
1185.14	13.5935
1186.76	12.6956
1188.38	12.9732
1190	12.714
1191.62	12.4326
1193.24	12.2566
1194.86	14.3032
1196.47	14.1574
1198.09	14.1577
1199.71	14.0667
1201.33	14.8951
1202.95	15.3529
1204.56	16.1193
1206.18	17.7536
1207.8	19.6816
1209.41	22.0697
1211.03	24.2398
1212.64	26.66
1214.26	29.2864
1215.87	31.3821
1217.49	34.6987
1219.1	35.8897
1220.71	37.6924
1222.33	41.1402
1223.94	43.8988
1225.55	46.2539
1227.16	48.7379
1228.78	52.382
1230.39	55.2064
1232	58.057
1233.61	60.548
1235.22	63.9647
1236.83	68.4751
1238.44	71.9108
1240.05	75.6813
1241.66	76.088
1243.27	79.1814
1244.88	81.7958
1246.49	84.2965
1248.1	85.7867
1249.71	85.835
1251.32	85.0569
1252.92	84.926
1254.53	84.8905
1256.14	87.2237
1257.74	89.0126
1259.35	93.6071
1260.96	97.8592
1262.56	102.904
1264.17	108.857
1265.77	115.095
1267.38	121.71
1268.98	129.333
1270.59	135.203
1272.19	141.9
1273.79	150.266
1275.4	157.427
1277	162.482
1278.6	169.241
1280.21	175.517
1281.81	183.381
1283.41	188.277
1285.01	194.263
1286.61	198.324
1288.21	201.792
1289.81	206.708
1291.41	209.735
1293.01	212.059
1294.61	214.305
1296.21	217.148
1297.81	218.86
1299.41	218.212
1301.01	219.721
1302.6	219.237
1304.2	219.738
1305.8	219.084
1307.4	217.508
1308.99	214.71
1310.59	212.454
1312.19	209.417
1313.78	206.553
1315.38	203.49
1316.97	199.453
1318.57	193.308
1320.16	187.104
1321.76	180.46
1323.35	175.566
1324.94	168.398
1326.54	161.353
1328.13	154.26
1329.72	147.397
1331.32	141.57
1332.91	138.775
1334.5	136.853
1336.09	137.093
1337.68	135.757
1339.27	134.568
1340.87	132.784
1342.45	132.667
1344.04	131.737
1345.64	129.452
1347.22	128.498
1348.81	127.438
1350.4	125.567
1351.99	126.424
1353.58	126.191
1355.17	123.845
1356.75	122.31
1358.34	123.089
1359.93	121.131
1361.51	120.774
1363.1	118.945
1364.69	118.541
1366.27	117.615
1367.86	117.934
1369.44	118.382
1371.03	117.032
1372.61	116.994
1374.2	117.273
1375.78	116.464
1377.37	115.607
1378.95	115.149
1380.53	115.079
1382.11	114.587
1383.7	116.124
1385.28	117.164
1386.86	117.005
1388.44	118.215
1390.02	118.809
1391.6	119.741
1393.19	119.954
1394.77	120.529
1396.35	119.736
1397.93	119.632
1399.51	121.718
1401.08	123.592
1402.66	128.623
1404.24	134.123
1405.82	140.66
1407.4	148.435
1408.97	158.104
1410.55	167.768
1412.13	178.2
1413.71	188.641
1415.28	201.603
1416.86	213.117
1418.43	225.232
1420.01	239.496
1421.59	252.416
1423.16	263.735
1424.73	276.674
1426.31	290.778
1427.88	303.998
1429.46	316.872
1431.03	330.377
1432.6	341.135
1434.18	351.845
1435.75	363.049
1437.32	372.635
1438.89	380.679
1440.46	388.007
1442.04	393.945
1443.61	398.708
1445.18	402.045
1446.75	402.475
1448.32	403.274
1449.89	401.826
1451.46	399.11
1453.03	394.205
1454.6	388.111
1456.16	380.952
1457.73	372.126
1459.3	361.544
1460.87	351.615
1462.44	339.358
1464	325.693
1465.57	311.464
1467.14	294.986
1468.7	278.655
1470.27	262.422
1471.83	245.818
1473.4	229.774
1474.96	213.27
1476.53	199.218
1478.09	185.162
1479.66	172.718
1481.22	161.763
1482.78	149.816
1484.35	138.092
1485.91	127.509
1487.47	117.296
1489.04	106.585
1490.6	97.408
1492.16	89.3267
1493.72	82.0254
1495.28	73.7654
1496.84	68.1922
1498.4	62.7917
1499.96	56.7909
1501.52	51.7033
1503.08	49.5727
1504.64	46.842
1506.2	44.9718
1507.76	42.9279
1509.32	41.7084
1510.88	41.254
1512.44	40.2562
1513.99	39.5496
1515.55	38.6005
1517.11	39.0206
1518.66	38.9045
1520.22	40.3479
1521.78	39.8637
1523.33	40.8521
1524.89	40.7552
1526.44	42.9143
1528	42.9396
1529.55	44.1163
1531.11	44.6661
1532.66	45.6639
1534.21	47.2125
1535.77	48.502
1537.32	50.6129
1538.87	53.0358
1540.43	54.7519
1541.98	56.5532
1543.53	57.6788
1545.08	58.8
1546.63	60.1644
1548.18	61.2044
1549.74	63.5492
1551.29	64.0992
1552.84	64.5706
1554.39	65.1046
1555.94	65.8151
1557.48	67.6311
1559.03	67.7241
1560.58	68.0288
1562.13	68.3949
1563.68	69.2498
1565.23	70.1182
1566.78	71.5756
1568.32	72.8576
1569.87	74.8608
1571.42	78.0358
1572.96	80.4487
1574.51	82.1414
1576.05	83.2982
1577.6	84.8016
1579.14	86.478
1580.69	88.983
1582.24	90.0209
1583.78	91.6587
1585.32	92.8992
1586.87	95.2302
1588.41	96.2646
1589.95	97.262
1591.5	98.6349
1593.04	99.4832
1594.58	100.833
1596.12	101.51
1597.67	101.614
1599.21	101.174
1600.75	102.022
1602.29	101.702
1603.83	103.837
1605.37	103.866
1606.91	104.015
1608.45	104.288
1609.99	105.178
1611.53	106.033
1613.07	106.029
1614.6	106.564
1616.14	105.774
1617.68	105.197
1619.22	105.181
1620.75	105.803
1622.29	105.997
1623.83	107.205
1625.37	108.88
1626.9	110.125
1628.44	109.706
1629.97	110.101
1631.51	110.828
1633.04	111.975
1634.58	114
1636.11	114.177
1637.65	115.203
1639.18	116.903
1640.72	119.283
1642.25	120.877
1643.78	121.995
1645.31	124.052
1646.85	125.651
1648.38	127.259
1649.91	127.684
1651.44	127.284
1652.97	128.211
1654.5	128.432
1656.03	128.118
1657.56	127.536
1659.1	126.462
1660.62	125.569
1662.15	124.982
1663.68	123.918
1665.21	122.119
1666.74	120.061
1668.27	117.821
1669.8	115.302
1671.32	113.498
1672.85	110.745
1674.38	108.471
1675.91	105.971
1677.43	103.64
1678.96	100.171
1680.49	97.4343
1682.01	92.9497
1683.54	89.763
1685.06	87.9143
1686.59	84.4641
1688.11	81.7362
1689.64	78.3012
1691.16	75.5507
1692.68	73.6157
1694.21	73.3686
1695.73	71.5947
1697.25	69.7941
1698.78	68.6625
1700.3	67.7887
1701.82	66.166
1703.34	65.0166
1704.86	63.1955
1706.39	62.1778
1707.91	59.7709
1709.43	58.1833
1710.95	57.1878
1712.47	55.3006
1713.99	54.8498
1715.51	53.9624
1717.02	52.7439
1718.54	52.0789
1720.06	51.2606
1721.58	50.7559
1723.1	49.4259
1724.62	48.4592
1726.13	47.19
1727.65	45.9859
1729.17	45.7598
1730.68	45.0622
1732.2	43.6722
1733.72	43.2337
1735.23	42.5021
1736.75	41.8823
1738.26	41.6792
1739.78	40.3576
1741.29	39.3407
1742.81	37.5283
1744.32	36.8687
1745.84	35.3483
1747.35	34.27
1748.86	33.0562
1750.37	31.3557
1751.89	29.5558
1753.4	27.7693
1754.91	26.0009
1756.42	25.2356
1757.93	23.7635
1759.45	23.3015
1760.96	22.2297
1762.47	20.5973
1763.98	20.4486
1765.49	19.7099
1767	19.5119
1768.51	19.2194
1770.02	18.4377
1771.53	16.5895
1773.03	16.2579
1774.54	15.4054
1776.05	14.3838
1777.56	14.0053
1779.07	12.696
1780.57	11.1778
1782.08	10.2537
1783.59	8.84619
1785.09	8.63901
1786.6	8.58421
1788.11	7.9678
1789.61	7.85977
1791.12	7.34832
1792.62	7.40956
1794.13	7.34662
1795.63	6.62323
1797.13	6.63488
1798.64	6.83103
1800.14	6.88156
1801.65	6.72781
1803.15	6.87474
1804.65	7.20181
1806.15	7.52133
1807.66	7.33774
1809.16	7.79324
1810.66	7.16201
1812.16	8.11899
1813.66	8.42489
1815.16	8.88117
1816.66	9.01277
1818.16	8.49556
1819.66	8.762
1821.16	8.39494
1822.66	8.06979
1824.16	7.99415
1825.66	8.08947
1827.16	7.4764
1828.66	7.48086
1830.16	7.42233
1831.65	6.72602
1833.15	6.82502
1834.65	7.26282
1836.14	6.98422
1837.64	7.26056
1839.14	7.33906
1840.63	7.03691
1842.13	7.22588
1843.62	6.62527
1845.12	5.74547
1846.61	5.22693
1848.11	4.67829
1849.6	3.81194
1851.1	3.29844
1852.59	3.36311
1854.08	2.97605
1855.58	2.90825
1857.07	3.53386
1858.56	3.48246
1860.05	3.54
1861.55	4.17844
1863.04	5.28223
1864.53	5.33448
1866.02	5.14035
1867.51	4.99734
1869	4.41993
1870.49	4.67068
1871.98	4.39857
1873.47	4.68695
1874.96	4.52183
1876.45	5.11601
1877.94	6.08323
1879.43	6.93848
1880.92	7.28391
1882.41	7.52574
1882.51	7.91727
1884	7.56793
1885.5	8.10553
1886.99	8.13925
1888.48	8.924
1889.98	8.56672
1891.47	8.21226
1892.96	8.02851
1894.46	6.59982
1895.95	5.75054
1897.44	6.02229
1898.93	5.80955
1900.42	5.2397
1901.91	6.22885
1903.41	5.52906
1904.9	5.24183
1906.39	6.52986
1907.88	5.8095
1909.37	5.99558
1910.86	5.33564
1912.35	4.96655
1913.83	5.34888
1915.32	4.59732
1916.81	3.5376
1918.3	3.51646
1919.79	3.47721
1921.27	3.22756
1922.76	3.12401
1924.25	3.69493
1925.74	4.66862
1927.22	4.47089
1928.71	4.38812
1930.19	4.19299
1931.68	3.50946
1933.17	4.37337
1934.65	4.11257
1936.14	4.09198
1937.62	2.58503
1939.11	1.91961
1940.59	0.911978
1942.07	0.942185
1943.56	1.51312
1945.04	1.35716
1946.52	1.86722
1948.01	2.15649
1949.49	2.23896
1950.97	1.94179
1952.45	1.35788
1953.93	1.45214
1955.42	1.74807
1956.9	1.02024
1958.38	0.345237
1959.86	0.766093
1961.34	1.39133
1962.82	1.80937
1964.3	1.39762
1965.78	0.689936
1967.26	0.411653
1968.74	0.117601
1970.21	1.03135
1971.69	1.99037
1973.17	1.90759
1974.65	1.75438
1976.13	1.6533
1977.6	1.68165
1979.08	1.99593
1980.56	2.11756
1982.03	1.72319
1983.51	2.50744
1984.99	1.80306
1986.46	2.59657
1987.94	2.83892
1989.41	2.73046
1990.89	3.73896
1992.36	3.83047
1993.84	3.59229
1995.31	4.0695
1996.78	4.32647
1998.26	4.83608
1999.73	4.27407
2001.2	4.55249
2002.68	4.85813
2004.15	5.40771
2005.62	6.14844
2007.09	6.4876
2008.56	5.35619
2010.04	5.04674
2011.51	3.9633
2012.98	3.50893
2014.45	4.22643
2015.92	5.29611
2017.39	5.00951
2018.86	4.79527
2020.33	4.99716
2021.8	5.23577
2023.26	5.08035
2024.73	5.72988
2026.2	6.03643
2027.67	7.27193
2029.14	7.02365
2030.61	6.51066
2032.07	6.7294
2033.54	7.72372
2035.01	7.54544
2036.47	8.24556
2037.94	7.8906
2039.4	7.40708
2040.87	7.56466
2042.33	7.36776
2043.8	7.33187
2045.27	7.5818
2046.73	6.97954
2048.19	7.13141
2049.66	7.42316
2051.12	7.9074
2052.59	7.34896
2054.05	7.57317
2055.51	7.85989
2056.97	8.07794
2058.44	8.5014
2059.9	8.91086
2061.36	9.01555
2062.82	9.30514
2064.28	9.54076
2065.74	9.65663
2067.21	10.4701
2068.67	10.8741
2070.13	10.8319
2071.59	10.7373
2073.05	10.2754
2074.51	10.9177
2075.96	10.8157
2077.42	10.6296
2078.88	10.4766
2080.34	10.2027
2081.8	10.3012
2083.26	9.8573
2084.72	9.79196
2086.17	10.4225
2087.63	11.3015
2089.09	11.228
2090.54	11.387
2092	11.7088
2093.45	11.6689
2094.91	12.0673
2096.37	12.3112
2097.82	12.7382
2099.28	12.6781
2100.73	13.1252
2102.19	13.0086
2103.64	13.3939
2105.09	13.5782
2106.55	14.3111
2108	14.7273
2109.45	15.4861
2110.91	15.6377
2112.36	16.11
2113.81	16.8191
2115.26	17.3799
2116.72	18.2682
2118.17	19.8978
2119.62	20.2461
2121.07	21.9018
2122.52	23.1914
2123.97	24.2662
2125.42	25.0866
2126.87	26.6943
2128.32	28.2418
2129.77	30.2369
2131.22	31.3797
2132.67	32.1877
2134.11	34.0185
2135.56	35.3342
2137.01	37.043
2138.46	38.2088
2139.91	38.9787
2141.35	39.6849
2142.8	41.0468
2144.25	42.3162
2145.7	43.7799
2147.14	46.5877
2148.59	47.8235
2150.03	48.9628
2151.48	50.3548
2152.92	52.2851
2154.37	54.0269
2155.81	55.2076
2157.26	56.3191
2158.7	58.4637
2160.15	59.8374
2161.59	61.3029
2163.03	62.4265
2164.47	63.4251
2165.92	64.9214
2167.36	66.5034
2168.8	67.2447
2170.24	68.7065
2171.69	69.5659
2173.13	70.4812
2174.57	71.0227
2176.01	71.8032
2177.45	71.907
2178.89	72.1879
2180.33	71.9073
2181.77	71.1007
2183.21	70.1108
2184.65	69.1026
2186.09	68.5092
2187.53	67.5717
2188.97	66.9904
2190.4	65.5693
2191.84	63.6514
2193.28	62.1367
2194.72	60.6749
2196.16	59.0707
2197.59	57.0933
2199.03	55.1113
2200.47	54.1772
2201.9	52.6838
2203.34	50.5555
2204.77	49.0403
2206.21	47.5724
2207.64	44.8583
2209.08	43.273
2210.51	41.0645
2211.95	39.4006
2213.38	36.8417
2214.82	34.6748
2216.25	34.0956
2217.68	32.6102
2219.12	31.5226
2220.55	29.4799
2221.98	29.3081
2223.41	28.709
2224.85	28.2894
2226.28	27.0183
2227.71	25.7452
2229.14	24.7284
2230.57	24.5758
2232	23.7098
2233.43	23.0329
2234.86	22.392
2236.29	22.1443
2237.72	20.737
2239.15	20.1261
2240.58	19.8027
2242.01	19.7987
2243.44	19.2663
2244.87	18.0361
2246.29	16.3785
2247.72	15.8828
2249.15	14.1826
2250.58	13.744
2252.01	12.6347
2253.43	12.0463
2254.86	11.1812
2256.29	10.433
2257.71	10.2089
2259.14	9.89524
2260.56	8.87898
2261.99	8.10624
2263.41	8.94152
2264.84	9.22399
2266.26	10.0737
2267.69	9.42717
2269.11	9.04818
2270.53	9.51689
2271.96	9.67006
2273.38	9.45087
2274.8	8.38449
2276.23	8.32117
2277.65	7.87362
2279.07	7.17703
2280.49	6.97115
2281.91	5.87211
2283.34	5.81289
2284.76	6.19562
2286.18	6.73535
2287.6	7.16561
2289.02	5.96521
2290.44	5.44084
2291.86	5.57884
2293.28	5.41571
2294.7	4.86026
2296.12	4.98142
2297.54	4.9566
2298.96	4.84403
2300.37	6.06554
2301.79	6.45927
2303.21	6.14578
2304.63	6.02886
2306.04	6.48705
2307.46	6.77136
2308.88	6.47949
2310.3	7.52075
2311.71	7.95339
2313.13	7.93627
2314.54	7.73362
2315.96	7.32272
2317.37	7.0817
2318.79	7.76412
2320.2	7.41996
2321.62	8.0494
2323.03	7.83863
2324.45	8.67234
2325.86	8.10624
2327.27	7.94679
2328.69	9.0585
2330.1	9.52286
2331.51	9.61448
2332.92	10.6208
2334.34	11.4089
2335.75	10.8696
2337.16	10.2292
2338.57	9.44854
2339.98	8.97918
2341.39	8.31466
2342.8	7.54256
2344.21	7.52745
2345.63	7.06143
2347.04	6.98808
2348.45	6.21068
2349.85	5.42134
2351.26	4.95205
2352.67	5.00517
2354.08	5.65502
2355.49	5.48418
2356.9	3.93869
2358.3	3.2196
2359.71	2.94211
2361.12	3.02106
2362.53	3.66298
2363.93	3.72062
2365.34	3.72705
2366.75	3.90824
2368.15	3.98158
2369.56	4.15588
2370.97	4.64362
2372.37	3.69062
2373.77	4.02106
2375.18	4.18231
2376.59	5.03607
2377.99	5.35867
2379.39	4.81808
2380.8	5.6293
2382.2	6.0879
2383.6	6.32614
2385.01	6.69215
2386.41	6.23603
2387.81	6.28005
2389.21	6.43789
2390.62	6.74492
2392.02	6.87315
2393.42	7.17224
2394.82	6.86691
2396.22	6.1583
2397.62	6.25686
2399.02	6.38327
2400.42	6.33751
2401.82	5.42405
2403.22	4.26861
2404.62	3.8315
2406.02	2.35376
2407.42	1.85926
2408.82	1.66696
2410.22	2.05277
2411.62	2.28577
2413.01	2.81413
2414.41	3.50491
2415.81	3.0582
2417.21	2.338
2418.6	2.29694
2420	2.3036
2421.4	2.97367
2422.79	4.00371
2424.19	3.65933
2425.59	3.51785
2426.98	3.2963
2428.38	2.91692
2429.77	2.79501
2431.17	3.46123
2432.56	2.79717
2433.95	1.99451
2435.35	1.8793
2436.74	1.96052
2438.14	2.25457
2439.53	2.40856
2440.92	2.70576
2442.31	3.21065
2443.71	3.73457
2445.1	3.11039
2446.49	3.60952
2447.88	3.88873
2449.27	4.15847
2450.67	5.45203
2452.06	5.52127
2453.45	5.31415
2454.84	5.03474
2456.23	4.86881
2457.62	5.40287
2459.01	5.35774
2460.4	4.9623
2461.79	4.6985
2463.18	4.97542
2464.57	4.39841
2465.95	4.60652
2467.34	4.59342
2468.73	5.23161
2470.12	5.44868
2471.5	5.46255
2472.89	6.22
2474.28	7.13856
2475.67	7.10019
2477.05	8.2992
2478.44	8.59515
2479.82	9.48204
2481.21	9.27555
2482.6	9.91863
2483.98	10.001
2485.37	9.66343
2486.75	10.4775
2488.13	10.8998
2489.52	11.7217
2490.9	11.8275
2492.29	12.2806
2493.67	11.2825
2495.05	11.3522
2496.44	10.2414
2497.82	9.53321
2499.2	9.99008
2500.58	9.90225
2501.97	9.44124
2503.35	9.66247
2504.73	9.91413
2506.11	9.86771
2507.49	10.1029
2508.87	10.3748
2510.25	9.87009
2511.63	9.20842
2513.01	8.57211
2514.39	7.96874
2515.77	8.71743
2517.15	9.07238
2518.53	8.73654
2519.91	8.55968
2521.29	7.50593
2522.67	7.64241
2524.05	8.28997
2525.42	8.07062
2526.8	8.19928
2528.18	8.11082
2529.55	8.32404
2530.93	9.29169
2532.31	10.6499
2533.69	10.5821
2535.06	10.5082
2536.44	10.6143
2537.81	10.3643
2539.19	10.0501
2540.56	10.1373
2541.94	10.7387
2543.31	10.0431
2544.69	9.81054
2546.06	10.3822
2547.44	10.6054
2548.81	10.9676
2550.18	11.3638
2551.56	12.3878
2552.93	12.3768
2554.3	13.3669
2555.67	13.4974
2557.04	13.9238
2558.42	14.2627
2559.79	13.3542
2561.16	14.4709
2562.53	13.6683
2563.9	13.5989
2565.27	13.6385
2566.64	15.2331
2568.01	16.3125
2569.38	16.2273
2570.75	16.0555
2572.12	15.8687
2573.49	15.814
2574.86	15.7792
2576.23	15.9589
2577.6	16.5049
2578.97	16.0632
2580.33	16.3466
2581.7	16.7966
2583.07	17.1241
2584.44	17.0033
2585.8	16.917
2587.17	17.3392
2588.54	18.0234
2589.9	18.2746
2591.27	18.5656
2592.64	19.446
2594	18.7465
2595.37	19.6498
2596.73	20.1531
2598.1	20.8239
2599.46	20.7982
2600.83	19.7795
2602.19	18.6812
2603.55	18.0727
2604.92	18.0614
2606.28	17.9631
2607.64	17.8394
2609.01	17.4649
2610.37	17.1178
2611.73	16.7329
2613.09	17.4127
2614.46	17.0387
2615.82	16.8499
2617.18	16.7058
2618.54	17.2114
2619.9	16.9622
2621.26	15.9377
2622.62	16.8963
2623.98	16.1243
2625.34	16.383
2626.7	16.0173
2628.06	16.1098
2629.42	16.4889
2630.78	16.1526
2632.14	16.4482
2633.5	17.119
2634.86	17.4906
2636.21	17.0516
2637.57	17.0913
2638.93	17.5558
2640.29	18.7367
2641.64	19.4797
2643	20.6243
2644.36	21.3514
2645.71	21.7334
2647.07	22.0424
2648.43	21.9872
2649.78	22.3153
2651.14	21.9929
2652.49	22.0336
2653.85	22.82
2655.2	23.4135
2656.56	23.6149
2657.91	23.7348
2659.26	24.7842
2660.62	24.925
2661.97	24.6125
2663.32	25.5938
2664.68	26.5418
2666.03	26.2459
2667.38	25.4553
2668.74	25.0323
2670.09	25.1043
2671.44	24.5504
2672.79	25.0643
2674.14	25.3626
2675.49	25.1204
2676.84	24.983
2678.19	25.2678
2679.54	25.8226
2680.89	25.5714
2682.24	24.9472
2683.59	25.1182
2684.94	25.3541
2686.29	25.9223
2687.64	26.5069
2688.99	27.1987
2690.34	28.1413
2691.69	28.3736
2693.03	29.3259
2694.38	30.7564
2695.73	31.931
2697.08	32.5482
2698.42	34.2349
2699.77	35.1149
2701.12	36.9754
2702.46	38.7578
2703.81	40.7289
2705.15	42.6096
2706.5	44.8654
2707.85	47.0117
2709.19	48.8677
2710.54	49.9982
2711.88	50.8813
2713.22	52.262
2714.57	53.6503
2715.91	53.9042
2717.26	55.5283
2718.6	55.7756
2719.94	56.6867
2721.29	57.9017
2722.63	58.6933
2723.97	58.8051
2725.31	58.2767
2726.66	58.021
2728	56.9817
2729.34	57.0485
2730.68	56.4785
2732.02	55.5573
2733.36	53.105
2734.7	51.4041
2736.04	49.7452
2737.38	47.4513
2738.72	46.3391
2740.06	44.2793
2741.4	41.6197
2742.74	39.1053
2744.08	36.4019
2745.42	33.5788
2746.76	30.8626
2748.09	28.3633
2749.43	24.9519
2750.77	22.4199
2752.11	20.0316
2753.45	17.6852
2754.78	15.0381
2756.12	12.9225
2757.46	10.7648
2758.79	8.91567
2760.13	7.60601
2761.46	6.63192
2762.8	5.02178
2764.14	3.67304
2765.47	2.87649
2766.8	2.7568
2768.14	2.58608
2769.47	2.43058
2770.81	1.92541
2772.14	1.60626
2773.48	1.71803
2774.81	0.807469
2776.14	0.452363
2777.48	0.246834
2778.81	0.209531
2780.14	0.433339
2781.47	0.384625
2782.8	0.394266
2784.14	0.135674
2785.47	-0.226619
2786.8	0.443023
2788.13	0.530462
2789.46	0.122933
2790.79	0.0864671
2792.12	0.828532
2793.45	1.54569
2794.78	1.97398
2796.11	2.37147
2797.44	2.36416
2798.77	2.25178
2800.1	1.93648
2801.43	1.67422
2802.76	1.17973
2804.09	-0.486344
2805.41	-1.39862
2806.74	-3.95375
2808.07	-5.39329
2809.4	-7.72625
2810.72	-9.48454
2812.05	-9.83146
2813.38	-8.04022
2814.71	-3.65603
2816.03	2.04082
2817.36	10.9813
2818.68	22.0444
2820.01	36.2309
2821.33	51.7029
2822.66	68.8249
2823.98	88.5962
2825.31	110.306
2826.63	133.187
2827.96	156.404
2829.28	181.332
2830.6	206.098
2831.93	232.096
2833.25	257.946
2834.57	282.846
2835.9	309.89
2837.22	336.022
2838.54	361.676
2839.86	387.239
2841.18	412.354
2842.5	435.941
2843.83	460.04
2845.15	481.699
2846.47	503.601
2847.79	526.27
2849.11	550.704
2850.43	576.762
2851.75	603.711
2853.07	631.19
2854.39	658.563
2855.71	685.28
2857.03	710.768
2858.35	734.864
2859.66	755.699
2860.98	776.201
2862.3	792.898
2863.62	806.788
2864.94	819.328
2866.25	829.369
2867.57	838.693
2868.89	845.787
2870.2	852.072
2871.52	856.786
2872.84	860.671
2874.15	865.19
2875.47	867.993
2876.78	874.122
2878.1	879.361
2879.41	884.918
2880.73	890.464
2882.04	894.677
2883.36	900.726
2884.67	905.281
2885.99	908.932
2887.3	911.908
2888.61	913.861
2889.93	916.605
2891.24	916.703
2892.55	916.127
2893.86	914.836
2895.18	913.114
2896.49	908.575
2897.8	905.963
2899.11	902.543
2900.42	899.167
2901.73	895.529
2903.05	891.959
2904.36	888.876
2905.67	887.643
2906.98	886.479
2908.29	886.276
2909.6	888.655
2910.91	892.222
2912.21	898.619
2913.52	907.695
2914.83	917.888
2916.14	926.785
2917.45	934.819
2918.76	941.69
2920.07	946.362
2921.37	948.577
2922.68	948.972
2923.99	948.229
2925.29	946.498
2926.6	943.975
2927.91	938.511
2929.22	932.743
2930.52	927.116
2931.83	920.969
2933.13	913.4
2934.44	903.649
2935.74	893.747
2937.05	881.733
2938.35	869.603
2939.66	855.815
2940.96	841.138
2942.26	826.739
2943.57	808.723
2944.87	791.4
2946.18	773.653
2947.48	754.835
2948.78	735.877
2950.08	715.174
2951.39	695.037
2952.69	674.629
2953.99	653.469
2955.29	632.532
2956.59	612.35
2957.9	591.274
2959.2	571.323
2960.5	551.464
2961.8	531.731
2963.1	514.098
2964.4	496.329
2965.7	479.438
2967	463.54
2968.3	449.644
2969.6	435.234
2970.9	421.152
2972.19	406.464
2973.49	393.016
2974.79	379.722
2976.09	366.944
2977.39	352.042
2978.68	338.767
2979.98	324.579
2981.28	310.507
2982.58	296.424
2983.87	281.049
2985.17	265.778
2986.47	250.544
2987.76	236.241
2989.06	223.707
2990.35	210.935
2991.65	197.355
2992.94	184.47
2994.24	171.491
2995.53	160.037
2996.83	149.033
2998.12	137.878
2999.42	127.728
3000.71	117.649
3002	107.499
3003.3	97.7369
3004.59	88.6103
3005.88	80.8091
3007.18	72.5247
3008.47	64.926
3009.76	58.5629
3011.05	51.4899
3012.34	44.0797
3013.64	38.1862
3014.93	32.7602
3016.22	27.7526
3017.51	22.8473
3018.8	18.8715
3020.09	15.7854
3021.38	13.0303
3022.67	8.88314
3023.96	7.19431
3025.25	4.59991
3026.54	2.70796
3027.83	1.46601
3029.12	0.763496
3030.41	0.200319
3031.69	-0.576938
3032.98	-1.37951
3034.27	-2.00367
3035.56	-2.32481
3036.84	-2.9147
3038.13	-2.87154
3039.42	-3.34553
3040.71	-3.49427
3041.99	-3.34836
3043.28	-1.6401
3044.57	-0.925398
3045.85	0.488367
3047.14	1.61164
3048.42	2.05506
3049.71	3.11603
3050.99	4.69327
3052.28	6.0781
3053.56	6.8874
3054.85	6.91321
3056.13	6.98274
3057.41	7.53008
3058.7	7.30917
3059.98	8.40033
3061.26	8.85091
3062.55	9.10938
3063.83	9.03056
3065.11	8.92445
3066.39	9.05815
3067.68	9.35447
3068.96	9.85006
3070.24	9.95294
3071.52	9.85103
3072.8	9.9052
3074.08	9.74562
3075.36	8.45705
3076.65	8.15656
3077.93	8.08215
3079.21	7.93754
3080.49	7.45092
3081.77	6.82314
3083.04	6.68113
3084.32	6.59423
3085.6	5.85441
3086.88	5.81815
3088.16	5.90026
3089.44	5.58583
3090.72	5.30401
3091.99	5.04895
3093.27	5.48496
3094.55	5.76933
3095.83	6.27605
3097.1	7.2373
3098.38	8.1644
3099.66	9.50986
3100.93	10.0928
3102.21	11.771
3103.49	13.6626
3104.76	15.8893
3106.04	18.7265
3107.31	21.1513
3108.59	23.2609
3109.86	25.5036
3111.14	28.0621
3112.41	30.2101
3113.69	32.8842
3114.96	35.6387
3116.23	37.6908
3117.51	40.5828
3118.78	43.3436
3120.05	46.192
3121.33	49.2229
3122.6	52.0109
3123.87	55.3651
3125.14	58.2263
3126.41	61.8406
3127.69	65.19
3128.96	68.3255
3130.23	71.7163
3131.5	74.9614
3132.77	78.295
3134.04	80.8922
3135.31	84.1183
3136.58	86.9363
3137.85	89.5411
3139.12	91.7694
3140.39	94.6881
3141.66	97.1224
3142.93	99.4729
3144.2	101.747
3145.47	103.876
3146.74	105.493
3148	106.699
3149.27	108.68
