#Acq. time (s)=	45
#Accumulations=	2
#Range (cm-¹)=	200...3150
#Windows=	2
#Auto scanning=	Off
#Autofocus=	Off
#Macrospot=	Off
#AutoExposure=	Off
#Spike filter=	Multiple accum.
#Delay time (s)=	0
#Binning=	1
#Readout mode=	Signal
#DeNoise=	Off
#ICS correction=	On
#Dark correction=	Off
#Inst. Process=	Off
#Detector Gain=	Best Dynamic Range
#Detector ADC=	20 kHz       
#Detector temperature (°C)=	-70.08
#Instrument=	LabRAM HR Evol
#Detector=	Synapse
#Objective=	x100
#Grating=	600 gr/mm
#ND Filter=	100%
#Laser (nm)=	532 
#Hole=	100.021
#Range=	Auto
#Laser Pol.=	No
#Raman. Pol.=	No
#Laser Pol. (°)=	-0.0007625
#Raman Pol. (°)=	89.9995
#Collection=	Microscope
#StageXY=	Marzhauser
#StageZ=	Marzhauser
#X (µm)=	479.6
#Y (µm)=	2970.9
#Z (µm)=	-8.95
#Full time(mm:ss)=	3:09
#Project=	
#Sample=	
#Site=	
#Title=	Mb_20_23_45_2c_45s_532 nm_x100_100%_600 gr_mm
#Remark=	
#Date=	14.07.2022 09:46
#Acquired=	14.07.2022 09:46:10
#Base:Fit=	10.08.2022 10:29:37
#Base:Sub=	10.08.2022 10:35:48
#Filter:Polynom=	16.08.2022 10:13:29
#AxisType[0]=Intens
#AxisUnit[0]=Cnt
#AxisType[1]=Spectr
#AxisUnit[1]=1/cm
200.554	84.1478
202.369	78.5046
204.183	70.5472
205.999	62.7857
207.813	55.4492
209.626	49.453
211.439	43.9396
213.253	39.7455
215.065	37.228
216.877	33.6272
218.688	31.8797
220.5	28.2554
222.312	26.2666
224.123	25.6926
225.933	22.87
227.742	19.7889
229.552	17.8143
231.361	17.6248
233.171	16.9372
234.98	15.4444
236.787	13.1294
238.595	11.7226
240.402	10.9631
242.209	11.3666
244.015	10.5151
245.822	10.1871
247.627	11.414
249.435	12.9721
251.24	14.0087
253.045	12.9648
254.849	13.2014
256.653	13.654
258.457	13.6581
260.26	14.2222
262.063	13.4378
263.866	13.0432
265.668	13.2561
267.47	13.968
269.271	13.4677
271.073	12.3973
272.873	10.9212
274.674	10.3614
276.474	11.0446
278.274	11.0207
280.073	8.70462
281.872	8.31102
283.671	8.12569
285.47	7.33307
287.268	6.07381
289.065	6.43652
290.863	4.04662
292.66	4.28031
294.456	4.02841
296.253	4.02454
298.049	6.08233
299.844	6.17736
301.637	6.91178
303.432	6.53045
305.227	6.94196
307.021	6.71222
308.815	7.08052
310.609	6.70277
312.402	9.38206
314.195	9.81815
315.987	9.40576
317.777	9.98779
319.569	11.415
321.36	12.6412
323.151	12.1348
324.942	12.5101
326.733	11.8015
328.521	12.9998
330.31	13.3546
332.1	14.5899
333.889	14.9797
335.677	15.8565
337.464	15.5203
339.252	15.6754
341.039	16.1426
342.826	17.5218
344.611	17.9176
346.398	18.9562
348.184	18.6508
349.97	17.566
351.754	17.6321
353.539	18.2811
355.324	19.4106
357.106	20.4825
358.89	19.1215
360.674	17.9168
362.455	18.3937
364.239	19.0673
366.021	19.1835
367.804	18.8638
369.584	19.7794
371.366	20.305
373.145	18.8334
374.926	19.1291
376.707	20.0435
378.485	20.312
380.265	19.7897
382.045	21.2608
383.822	21.7229
385.601	23.1146
387.378	24.112
389.156	24.0489
390.934	24.0772
392.71	23.7396
394.487	26.0728
396.262	27.3956
398.038	27.7667
399.813	29.3767
401.588	30.4433
403.362	30.1169
405.137	30.3743
406.912	30.1382
408.685	30.6881
410.459	30.8964
412.23	30.0087
414.004	30.6706
415.775	30.0256
417.548	30.3378
419.318	29.9235
421.089	30.9852
422.86	30.0834
424.63	29.8716
426.401	29.9562
428.17	30.4084
429.94	30.0251
431.708	28.643
433.478	27.7847
435.245	28.4309
437.012	26.6819
438.781	26.8449
440.547	27.8001
442.315	27.8457
444.081	27.8238
445.846	27.1965
447.613	25.7426
449.378	26.021
451.142	27.6682
452.908	26.7381
454.672	27.3886
456.435	27.9308
458.2	26.9907
459.963	27.0219
461.725	27.6344
463.489	29.7245
465.251	29.7672
467.012	30.8358
468.775	31.6513
470.536	32.6064
472.296	33.2054
474.056	31.5006
475.817	31.4795
477.576	32.6201
479.335	33.1806
481.094	35.1604
482.854	36.142
484.612	37.3906
486.37	37.2183
488.127	38.206
489.886	39.0651
491.642	40.5831
493.398	41.8606
495.154	43.6634
496.91	44.3034
498.667	44.6513
500.422	44.7436
502.176	46.1586
503.93	44.8811
505.684	44.5693
507.438	43.9168
509.191	44.2382
510.946	44.2574
512.698	44.5491
514.45	44.24
516.202	43.2706
517.954	43.5931
519.705	42.8799
521.456	43.2778
523.206	42.8448
524.956	43.0787
526.706	43.8242
528.456	43.4284
530.207	42.4495
531.956	41.8701
533.704	40.9929
535.452	39.7376
537.2	40.2231
538.947	39.475
540.694	37.5723
542.441	38.8462
544.188	38.9828
545.934	38.229
547.68	38.999
549.425	39.0265
551.17	37.4705
552.915	36.1158
554.659	35.5662
556.403	33.4021
558.145	31.7702
559.889	31.3847
561.632	29.8115
563.375	29.848
565.117	30.687
566.859	29.801
568.601	29.5617
570.342	28.5926
572.083	28.4955
573.824	28.1182
575.565	28.1972
577.303	27.6919
579.043	27.8694
580.782	26.4225
582.521	24.8419
584.26	23.2828
585.998	20.3361
587.734	19.3106
589.472	17.7835
591.21	15.7222
592.947	15.5574
594.684	14.8898
596.418	14.4114
598.154	13.9022
599.89	13.2845
601.626	14.0204
603.361	14.0554
605.094	14.0352
606.828	12.615
608.562	12.65
610.296	12.445
612.027	11.9502
613.761	9.7829
615.493	8.7675
617.224	8.4576
618.956	8.77434
620.688	9.07423
622.419	8.14688
624.149	8.25595
625.879	6.46649
627.61	8.13457
629.338	8.64765
631.068	9.16339
632.797	8.89249
634.525	9.90321
636.254	9.55382
637.98	8.84012
639.708	8.97026
641.436	9.14757
643.162	8.32884
644.889	9.42112
646.614	9.37391
648.34	8.39508
650.067	8.70988
651.791	10.6526
653.516	10.781
655.239	11.0732
656.964	10.5268
658.687	9.70608
660.411	9.48882
662.133	8.11953
663.857	8.10922
665.58	7.39924
667.301	5.97484
669.024	5.41525
670.744	4.60723
672.464	4.15035
674.186	5.71963
675.905	4.78814
677.626	4.37465
679.345	4.09662
681.065	4.24538
682.783	3.57336
684.503	3.81326
686.22	4.59537
687.939	5.12338
689.656	4.49982
691.372	3.71262
693.09	3.67235
694.806	5.08998
696.523	5.36032
698.239	5.05258
699.953	3.28166
701.67	4.56595
703.384	5.73247
705.098	5.25531
706.813	5.36275
708.526	4.45471
710.239	5.9985
711.954	6.97405
713.666	9.01803
715.378	8.71675
717.091	11.3184
718.802	11.091
720.513	10.0938
722.226	9.71802
723.936	8.59087
725.646	9.10039
727.355	9.98344
729.067	9.8856
730.776	11.6426
732.484	12.4428
734.192	14.3423
735.902	15.5757
737.61	16.3071
739.317	17.5885
741.024	16.5662
742.731	16.9331
744.439	17.7691
746.145	18.6811
747.851	19.0724
749.556	20.7946
751.262	21.221
752.966	23.0992
754.673	24.3867
756.377	25.7396
758.081	27.4288
759.784	27.9133
761.487	27.3847
763.19	28.124
764.892	29.6109
766.594	31.3152
768.296	32.4942
770	34.9964
771.701	38.4819
773.402	39.009
775.102	40.5716
776.803	43.0058
778.503	45.3717
780.202	45.9729
781.901	46.9182
783.6	47.7137
785.299	48.3811
786.997	50.6362
788.695	51.1186
790.393	51.1834
792.09	53.2835
793.787	53.8482
795.484	54.1754
797.18	54.8911
798.877	55.5573
800.572	56.4442
802.268	57.1975
803.963	55.5889
805.658	55.5182
807.35	56.769
809.044	45.4884
810.738	46.1016
812.432	49.5379
814.125	52.6095
815.818	56.6613
817.51	59.6697
819.202	61.1193
820.894	62.6611
822.584	65.3833
824.275	68.1572
825.966	68.426
827.657	71.5467
829.347	74.4078
831.037	77.0196
832.725	78.4978
834.414	82.3071
836.103	83.3024
837.792	84.0412
839.481	84.6956
841.167	84.1122
842.854	83.9926
844.542	84.3074
846.229	83.4044
847.914	83.6415
849.6	84.8354
851.287	84.8927
852.973	85.3244
854.656	84.9036
856.341	84.4278
858.026	82.393
859.711	82.0476
861.393	81.4726
863.077	79.7116
864.761	77.6533
866.442	76.9224
868.125	74.2048
869.808	72.2539
871.489	70.0273
873.171	68.4465
874.85	66.636
876.532	63.9396
878.213	60.7854
879.892	57.5888
881.572	55.9321
883.251	52.6609
884.931	50.6349
886.61	47.7238
888.287	44.713
889.966	40.772
891.643	37.9966
893.321	35.3014
894.997	46.189
896.675	50.4965
898.352	50.7248
900.028	49.9676
901.704	49.3299
903.379	49.9995
905.055	50.27
906.729	51.3785
908.404	50.8578
910.077	51.8137
911.75	51.7609
913.425	50.9781
915.097	50.8435
916.771	49.9035
918.443	50.2678
920.116	48.0871
921.787	48.2715
923.46	48.4215
925.13	47.2719
926.8	47.3256
928.472	47.3625
930.141	46.1134
931.813	45.0912
933.481	44.6773
935.15	42.367
936.82	41.2572
938.488	39.1089
940.156	37.1853
941.825	34.0152
943.492	32.466
945.158	33.1726
946.827	30.9686
948.493	29.9353
950.158	28.2164
951.824	27.0831
953.491	25.7973
955.156	24.9411
956.82	24.3118
958.486	21.631
960.15	19.4077
961.814	20.3439
963.477	20.6059
965.142	22.1461
966.804	23.6071
968.467	26.3983
970.129	27.123
971.79	28.189
973.454	29.2495
975.115	33.6941
976.776	36.4575
978.436	37.1576
980.096	38.0756
981.756	37.731
983.417	38.4179
985.077	39.0413
986.736	39.919
988.394	39.717
990.052	40.6529
991.71	40.2519
993.368	40.9749
995.025	41.3491
996.682	42.6259
998.341	43.3372
999.998	43.0199
1001.65	43.9464
1003.31	44.6276
1004.97	45.9376
1006.62	45.2605
1008.28	46.4796
1009.93	48.2127
1011.58	50.6669
1013.24	51.2828
1014.89	52.6417
1016.54	53.771
1018.2	54.6156
1019.85	56.3055
1021.5	57.9546
1023.16	60.7431
1024.81	64.7188
1026.46	69.1271
1028.11	73.2097
1029.76	73.8906
1031.41	77.5407
1033.06	79.9849
1034.71	83.5251
1036.36	85.0679
1038.01	88.6772
1039.66	90.9528
1041.31	93.8465
1042.95	98.82
1044.6	103.116
1046.25	107.212
1047.9	110.377
1049.54	112.649
1051.19	115.275
1052.84	115.966
1054.48	116.804
1056.13	117.229
1057.77	117.325
1059.42	115.026
1061.06	111.28
1062.71	110.781
1064.35	107.885
1066	107.046
1067.64	104.601
1069.28	103.116
1070.93	100.438
1072.57	96.5245
1074.21	93.2158
1075.85	91.7221
1077.49	88.3952
1079.13	84.9893
1080.78	80.6632
1082.42	76.8786
1084.06	74.3527
1085.7	71.53
1087.34	69.6985
1088.97	68.4529
1090.61	69.5627
1092.25	70.0891
1093.89	70.4605
1095.53	70.4547
1097.17	70.5634
1098.8	70.3245
1100.44	70.8598
1102.08	71.1344
1103.71	71.922
1105.35	72.5677
1106.99	73.37
1108.62	73.2677
1110.26	73.6142
1111.89	72.9989
1113.52	72.0601
1115.16	71.7663
1116.79	70.473
1118.43	68.7281
1120.06	67.9547
1121.69	66.9296
1123.32	66.3007
1124.96	65.2493
1126.59	63.7668
1128.22	63.2536
1129.85	60.4286
1131.48	59.1204
1133.11	57.4187
1134.75	54.1103
1136.37	51.9062
1138	49.7673
1139.63	47.4999
1141.26	45.2793
1142.89	43.1606
1144.52	42.9929
1146.15	39.3252
1147.78	38.0249
1149.4	34.4517
1151.03	32.0809
1152.66	29.1499
1154.28	26.0141
1155.91	23.4723
1157.54	20.6146
1159.16	16.3243
1160.79	14.2067
1162.41	11.6575
1164.04	9.58315
1165.66	8.95267
1167.29	8.10009
1168.91	8.14272
1170.53	8.82477
1172.16	10.3001
1173.78	10.3775
1175.4	9.684
1177.02	8.55949
1178.65	7.98884
1180.27	7.8894
1181.89	6.66036
1183.51	5.85092
1185.13	6.5657
1186.75	6.11895
1188.37	6.20447
1189.99	6.60999
1191.61	6.84342
1193.23	6.37342
1194.85	5.46502
1196.47	6.80368
1198.08	7.43177
1199.7	9.62953
1201.32	10.7215
1202.94	13.5266
1204.55	16.1463
1206.17	18.3127
1207.79	20.5004
1209.4	23.7071
1211.02	27.2078
1212.63	29.7788
1214.25	31.6847
1215.86	34.6294
1217.48	37.6536
1219.09	39.894
1220.71	43.1081
1222.32	46.4769
1223.93	49.7648
1225.54	53.2318
1227.16	56.0681
1228.77	59.1511
1230.38	61.5572
1231.99	64.543
1233.6	66.8124
1235.22	68.473
1236.83	70.7397
1238.44	73.3342
1240.05	76.5469
1241.66	78.7287
1243.26	80.6227
1244.87	83.0397
1246.48	84.8741
1248.09	85.6556
1249.7	87.4804
1251.31	88.7252
1252.92	88.2464
1254.52	88.4675
1256.13	89.1378
1257.74	91.3486
1259.34	94.5391
1260.95	97.333
1262.55	100.379
1264.16	104.468
1265.76	108.929
1267.37	113.435
1268.97	118.569
1270.58	123.602
1272.18	127.366
1273.78	131.917
1275.39	136.713
1276.99	141.482
1278.59	148.101
1280.2	153.164
1281.8	157.934
1283.4	162.85
1285	166.972
1286.6	171.673
1288.2	176.962
1289.8	180.638
1291.4	183.252
1293	185.075
1294.6	186.768
1296.2	190.496
1297.8	190.737
1299.4	191.944
1301	194.009
1302.6	194.844
1304.19	195.413
1305.79	195.381
1307.39	195.161
1308.99	193.692
1310.58	193.438
1312.18	192.049
1313.77	190.864
1315.37	189.178
1316.96	186.873
1318.56	185.061
1320.15	181.589
1321.75	176.324
1323.34	173.209
1324.94	169.632
1326.53	164.761
1328.12	159.915
1329.72	156.474
1331.31	152.437
1332.9	149.198
1334.49	148.857
1336.08	146.919
1337.67	147.251
1339.27	147.843
1340.86	147.188
1342.45	145.148
1344.04	143.541
1345.63	142.774
1347.22	141.462
1348.8	140.424
1350.39	139.768
1351.98	139.84
1353.57	140.199
1355.16	139.038
1356.75	139.095
1358.33	139.926
1359.92	138.876
1361.51	138.353
1363.09	136.396
1364.68	136.328
1366.27	136.245
1367.85	134.634
1369.44	132.768
1371.02	132.71
1372.61	131.232
1374.19	129.621
1375.77	128.303
1377.36	125.744
1378.94	126.471
1380.52	126.501
1382.11	125.486
1383.69	125.386
1385.27	125.537
1386.85	125.706
1388.43	125.757
1390.02	126.667
1391.6	125.694
1393.18	126.299
1394.76	125.288
1396.34	124.196
1397.92	124.845
1399.5	126.355
1401.08	128.286
1402.65	132.989
1404.23	138.497
1405.81	145.165
1407.39	151.86
1408.97	160.13
1410.54	168.76
1412.12	176.788
1413.7	186.688
1415.27	195.657
1416.85	205.314
1418.43	215.798
1420	225.745
1421.58	237.412
1423.15	249.154
1424.73	260.898
1426.3	272.701
1427.87	284.944
1429.45	297.123
1431.02	308.953
1432.6	319.308
1434.17	329.112
1435.74	338.202
1437.31	346.969
1438.89	354.298
1440.46	360.542
1442.03	366.286
1443.6	370.726
1445.17	372.745
1446.74	372.948
1448.31	372.299
1449.88	371.639
1451.45	367.516
1453.02	362.825
1454.59	356.84
1456.16	351.017
1457.72	344.488
1459.29	334.262
1460.86	323.764
1462.43	313.701
1463.99	302.939
1465.56	288.76
1467.13	275.283
1468.69	262.102
1470.26	248.24
1471.83	235.33
1473.39	220.998
1474.95	208.11
1476.52	196.889
1478.08	185.519
1479.65	174.005
1481.21	164.214
1482.78	154.084
1484.34	143.734
1485.9	133.475
1487.47	123.21
1489.03	113.994
1490.59	105.968
1492.15	99.6243
1493.71	91.8636
1495.27	85.883
1496.84	82.2188
1498.39	77.1448
1499.96	72.6774
1501.52	67.8985
1503.07	64.894
1504.64	61.7168
1506.19	59.8115
1507.75	57.5901
1509.31	54.2562
1510.87	54.268
1512.43	53.1683
1513.98	51.9679
1515.54	52.053
1517.1	50.6929
1518.65	51.2079
1520.21	51.0343
1521.77	50.5015
1523.32	49.462
1524.88	48.7269
1526.44	49.4099
1527.99	50.6928
1529.54	50.2617
1531.1	50.7044
1532.65	51.8498
1534.21	54.0234
1535.76	55.2746
1537.31	55.6118
1538.87	57.2433
1540.42	59.1559
1541.97	60.7954
1543.52	61.9674
1545.07	64.7671
1546.63	67.4717
1548.18	69.1499
1549.73	70.3563
1551.28	72.0156
1552.83	74.0749
1554.38	75.613
1555.93	77.1812
1557.48	78.7216
1559.03	80.2799
1560.57	81.7788
1562.12	83.2256
1563.67	84.8132
1565.22	87.0936
1566.77	89.7575
1568.31	91.7926
1569.86	93.3285
1571.41	95.5195
1572.95	97.8452
1574.5	99.8682
1576.05	101.43
1577.59	103.52
1579.14	106.184
1580.68	108.035
1582.23	109.666
1583.77	113.53
1585.31	115.026
1586.86	117.6
1588.4	121.538
1589.95	121.825
1591.49	124.227
1593.03	126.173
1594.57	126.939
1596.11	128.499
1597.66	128.274
1599.2	128.971
1600.74	128.476
1602.28	129.136
1603.82	129.336
1605.36	129.542
1606.9	128.874
1608.44	128.054
1609.98	128.237
1611.52	128.171
1613.06	127.436
1614.6	127.956
1616.13	128.607
1617.67	128.821
1619.21	129.091
1620.75	127.641
1622.28	125.861
1623.82	125.459
1625.36	125.021
1626.89	125.461
1628.43	126.61
1629.96	126.089
1631.5	124.933
1633.04	124.871
1634.57	124.958
1636.11	125.492
1637.64	125.531
1639.17	124.67
1640.71	125.938
1642.24	127.516
1643.77	128.085
1645.31	129.106
1646.84	130.492
1648.37	131.112
1649.9	131.065
1651.43	131.91
1652.96	132.731
1654.5	132.379
1656.03	132.462
1657.56	131.259
1659.09	130.394
1660.62	129.749
1662.15	127.289
1663.67	126.683
1665.2	125.297
1666.73	122.744
1668.26	120.854
1669.79	117.162
1671.32	113.204
1672.84	110.705
1674.37	108.232
1675.9	105.285
1677.43	101.735
1678.95	97.2841
1680.48	94.2636
1682	90.6953
1683.53	87.713
1685.05	84.9269
1686.58	81.8117
1688.1	79.0793
1689.63	75.397
1691.15	72.7539
1692.68	69.3978
1694.2	66.0667
1695.72	63.549
1697.25	59.9117
1698.77	58.2743
1700.29	56.6566
1701.81	54.2787
1703.33	53.1099
1704.86	51.4367
1706.38	49.339
1707.9	46.8353
1709.42	46.4374
1710.94	45.695
1712.46	44.047
1713.98	42.7873
1715.5	42.6057
1717.02	43.4803
1718.54	43.9231
1720.06	43.9281
1721.57	43.2636
1723.09	43.0445
1724.61	42.6044
1726.13	42.7201
1727.64	43.0069
1729.16	42.3042
1730.68	40.9824
1732.19	40.5963
1733.71	40.6128
1735.23	40.2682
1736.74	40.0859
1738.26	39.0306
1739.77	38.9527
1741.29	37.8307
1742.8	36.9136
1744.31	35.7981
1745.83	33.9516
1747.34	32.83
1748.85	31.6768
1750.37	30.5522
1751.88	29.1884
1753.39	28.0972
1754.91	26.42
1756.42	25.9229
1757.93	23.8797
1759.44	23.2784
1760.95	21.4969
1762.46	19.94
1763.97	18.8934
1765.48	16.6842
1766.99	15.8784
1768.5	14.5677
1770.01	12.9096
1771.52	11.6828
1773.03	9.90856
1774.54	9.46633
1776.04	8.09955
1777.55	7.29897
1779.06	7.53793
1780.57	6.96274
1782.07	6.03983
1783.58	5.41646
1785.09	6.1433
1786.59	5.72944
1788.1	5.48715
1789.6	6.2211
1791.11	6.79121
1792.61	6.35332
1794.12	6.59022
1795.62	6.03333
1797.13	5.02844
1798.63	5.35095
1800.13	5.44897
1801.64	6.17436
1803.14	6.68211
1804.64	5.84122
1806.15	5.63369
1807.65	5.74009
1809.15	5.85692
1810.65	5.54658
1812.15	5.08111
1813.65	4.34895
1815.16	4.22556
1816.66	3.49798
1818.15	2.93029
1819.66	2.74848
1821.16	2.82411
1822.65	3.11056
1824.15	3.26363
1825.65	3.81643
1827.15	4.81974
1828.65	4.94084
1830.15	4.74978
1831.64	4.24061
1833.14	3.48508
1834.64	3.01897
1836.14	2.36623
1837.63	1.36976
1839.13	0.362846
1840.62	0.04123
1842.12	0.394042
1843.62	-0.18752
1845.11	-0.167599
1846.61	0.225963
1848.1	-0.301799
1849.6	0.107203
1851.09	-0.787185
1852.58	0.287979
1854.08	1.28783
1855.57	1.68522
1857.06	1.75272
1858.55	2.30671
1860.05	1.95931
1861.54	2.27737
1863.03	1.78723
1864.52	2.54817
1866.01	1.91856
1867.5	2.21882
1869	1.65931
1870.49	2.06843
1871.98	2.00986
1873.47	3.07113
1874.96	3.87605
1876.44	3.48815
1877.93	3.40353
1879.42	3.26019
1880.91	2.55624
1882.4	2.76154
1882.47	2.28749
1883.96	1.97713
1885.46	1.72037
1886.95	2.27628
1888.44	2.89445
1889.94	2.77011
1891.43	3.55117
1892.93	4.52258
1894.42	4.43676
1895.91	4.3358
1897.4	4.6935
1898.89	4.83281
1900.39	5.25402
1901.88	4.92715
1903.37	4.21948
1904.86	2.65052
1906.35	2.08866
1907.84	2.44115
1909.33	2.60283
1910.82	2.40825
1912.31	2.52155
1913.8	2.95093
1915.29	3.02275
1916.77	2.96578
1918.26	3.11488
1919.75	2.90598
1921.24	3.00492
1922.73	3.85152
1924.21	3.71043
1925.7	4.21724
1927.19	3.14865
1928.67	2.22037
1930.16	1.41809
1931.64	1.49549
1933.13	1.7315
1934.61	1.52605
1936.1	0.826964
1937.58	1.72991
1939.07	1.12103
1940.55	1.69382
1942.04	1.16015
1943.52	2.30804
1945	1.41136
1946.49	2.07418
1947.97	1.00707
1949.45	0.55643
1950.93	1.12336
1952.42	0.701596
1953.9	1.00763
1955.38	2.59462
1956.86	2.34153
1958.34	2.95551
1959.82	3.2547
1961.3	3.01188
1962.78	2.41132
1964.26	2.25833
1965.74	3.50579
1967.22	4.03788
1968.7	3.33321
1970.18	3.84649
1971.65	4.9178
1973.13	5.39995
1974.61	5.20784
1976.09	4.80759
1977.57	4.39279
1979.04	3.69529
1980.52	4.96558
1982	5.62847
1983.47	5.23638
1984.95	5.29963
1986.42	4.89925
1987.9	5.30979
1989.37	5.50112
1990.85	5.85719
1992.32	5.41406
1993.8	5.7675
1995.27	6.09934
1996.75	5.70053
1998.22	4.72236
1999.69	3.8839
2001.17	4.24768
2002.64	5.28153
2004.11	5.55079
2005.58	5.76674
2007.05	5.28984
2008.53	5.10958
2010	4.8241
2011.47	4.45824
2012.94	3.90015
2014.41	3.25317
2015.88	2.99212
2017.35	2.11061
2018.82	1.94873
2020.29	2.87942
2021.76	2.80485
2023.23	3.07894
2024.7	3.58138
2026.16	3.88796
2027.63	5.14171
2029.1	5.05608
2030.57	4.71027
2032.03	4.86957
2033.5	4.09776
2034.97	4.04125
2036.44	5.08728
2037.9	5.48835
2039.37	5.96181
2040.83	6.75433
2042.3	7.64327
2043.76	8.07809
2045.23	7.82466
2046.69	7.77015
2048.16	8.38302
2049.62	8.27353
2051.08	8.39324
2052.55	9.14857
2054.01	9.32447
2055.47	8.58915
2056.94	7.86422
2058.4	8.99449
2059.86	8.91327
2061.32	9.86785
2062.79	10.5417
2064.25	10.5133
2065.71	10.3138
2067.17	10.2454
2068.63	10.1941
2070.09	9.47898
2071.55	9.90963
2073.01	11.142
2074.47	11.8995
2075.93	11.6357
2077.39	10.7924
2078.85	11.2312
2080.31	10.639
2081.76	10.7662
2083.22	10.2513
2084.68	11.2151
2086.13	11.4184
2087.59	11.7226
2089.05	12.2656
2090.51	13.5362
2091.96	15.7231
2093.42	16.2264
2094.87	16.5271
2096.33	16.5988
2097.78	17.188
2099.24	17.2067
2100.69	18.1133
2102.15	18.1311
2103.6	19.3932
2105.06	20.0971
2106.51	21.0864
2107.96	23.6165
2109.42	24.6632
2110.87	25.2531
2112.32	26.7055
2113.77	28.5026
2115.23	29.2729
2116.68	28.6317
2118.13	30.3232
2119.58	31.4608
2121.03	31.792
2122.48	31.7897
2123.93	33.3678
2125.38	34.6351
2126.83	34.6446
2128.28	35.8182
2129.73	37.0256
2131.18	39.2571
2132.63	40.0208
2134.08	41.0575
2135.53	41.9778
2136.97	43.6461
2138.42	45.7665
2139.87	47.0357
2141.32	48.5335
2142.76	50.0537
2144.21	52.3495
2145.66	54.1029
2147.1	54.7258
2148.55	55.7774
2150	57.4808
2151.44	59.0877
2152.89	59.8173
2154.33	61.3207
2155.78	62.9744
2157.22	63.8749
2158.66	64.0886
2160.11	66.3126
2161.55	67.6237
2163	68.5512
2164.44	69.023
2165.88	70.1176
2167.32	70.2705
2168.77	71.3148
2170.21	71.8093
2171.65	72.594
2173.09	73.6607
2174.53	73.6185
2175.97	74.2459
2177.41	73.5771
2178.85	73.9524
2180.29	73.8991
2181.73	72.9813
2183.17	72.8125
2184.61	72.0303
2186.05	71.2575
2187.49	70.2356
2188.93	68.5691
2190.37	68.1746
2191.81	67.0553
2193.24	66.038
2194.68	65.4522
2196.12	64.1988
2197.56	63.4778
2198.99	61.64
2200.43	60.8466
2201.87	58.9956
2203.3	58.4388
2204.74	56.9734
2206.17	55.2106
2207.61	53.8169
2209.04	53.507
2210.48	51.8472
2211.91	49.6799
2213.35	48.4504
2214.78	46.8462
2216.21	44.6314
2217.65	42.915
2219.08	41.146
2220.51	39.5652
2221.95	38.3365
2223.38	37.0084
2224.81	34.5446
2226.24	33.4894
2227.67	32.7255
2229.1	31.3077
2230.54	30.6375
2231.97	30.4631
2233.4	28.8002
2234.83	27.6452
2236.26	27.5906
2237.69	26.5483
2239.11	24.6057
2240.54	24.8562
2241.97	23.8418
2243.4	23.1552
2244.83	22.6644
2246.26	22.367
2247.69	21.6046
2249.11	21.5589
2250.54	21.8141
2251.97	21.2308
2253.4	20.5896
2254.82	19.8737
2256.25	19.0877
2257.67	19.0103
2259.1	18.3732
2260.53	18.5666
2261.95	18.3459
2263.38	18.3042
2264.8	17.6221
2266.23	17.3204
2267.65	18.1141
2269.07	18.1698
2270.5	17.649
2271.92	17.9027
2273.34	17.9073
2274.77	18.9155
2276.19	18.4209
2277.61	17.5765
2279.03	17.6346
2280.46	18.3045
2281.88	17.801
2283.3	16.6047
2284.72	16.7548
2286.14	15.3747
2287.56	14.7914
2288.98	14.9044
2290.4	13.7994
2291.82	12.9136
2293.24	11.3464
2294.66	10.7754
2296.08	9.76997
2297.5	9.50384
2298.92	9.36311
2300.34	9.71939
2301.76	9.63703
2303.17	9.61345
2304.59	10.5722
2306.01	10.4872
2307.43	10.5763
2308.84	10.0293
2310.26	10.4294
2311.68	10.7632
2313.09	10.7811
2314.51	11.2197
2315.92	11.6456
2317.34	11.9007
2318.75	10.8082
2320.17	11.4519
2321.58	10.7339
2323	9.54255
2324.41	9.36433
2325.82	8.24295
2327.24	7.79084
2328.65	8.04455
2330.06	7.54074
2331.48	7.23581
2332.89	6.37228
2334.3	6.68265
2335.71	6.7131
2337.12	7.06478
2338.54	7.53249
2339.95	6.78428
2341.36	7.07797
2342.77	6.92232
2344.18	7.13108
2345.59	6.8881
2347	6.49757
2348.41	5.6545
2349.82	5.76578
2351.23	5.29774
2352.64	4.30456
2354.04	3.20271
2355.45	3.08995
2356.86	1.84974
2358.27	2.03375
2359.68	2.17442
2361.08	1.79287
2362.49	1.13737
2363.9	0.549315
2365.3	0.280791
2366.71	0.948863
2368.12	1.22144
2369.52	2.30047
2370.93	3.46269
2372.33	3.38593
2373.74	3.56392
2375.14	4.21782
2376.55	2.88262
2377.95	3.1947
2379.36	3.97431
2380.76	4.34436
2382.16	4.33965
2383.57	4.96451
2384.97	5.43366
2386.37	4.68103
2387.78	4.4483
2389.18	3.40759
2390.58	3.88877
2391.98	3.0271
2393.38	2.99211
2394.79	3.95742
2396.19	4.03752
2397.59	4.77973
2398.99	5.02907
2400.39	3.62194
2401.79	3.21562
2403.19	3.74366
2404.59	4.40999
2405.99	4.48723
2407.39	4.20051
2408.78	4.09237
2410.18	4.93987
2411.58	5.98069
2412.98	6.58692
2414.38	6.73136
2415.77	6.32153
2417.17	6.09645
2418.57	5.71547
2419.97	5.80261
2421.36	5.5179
2422.76	5.34736
2424.15	5.25688
2425.55	5.37106
2426.95	5.2492
2428.34	5.57517
2429.74	5.10958
2431.13	4.84943
2432.52	3.49037
2433.92	4.04557
2435.31	3.39874
2436.71	4.1512
2438.1	4.18244
2439.49	5.00972
2440.89	5.763
2442.28	4.46378
2443.67	4.18163
2445.06	5.4248
2446.46	5.5099
2447.85	5.63187
2449.24	5.33108
2450.63	4.71085
2452.02	4.53093
2453.41	4.9514
2454.8	5.81327
2456.19	5.03185
2457.58	5.49955
2458.97	5.61835
2460.36	5.3792
2461.75	4.80293
2463.14	5.25465
2464.53	5.00702
2465.92	3.95542
2467.31	3.97432
2468.69	3.3301
2470.08	2.77889
2471.47	2.51488
2472.86	3.15082
2474.24	3.45649
2475.63	2.90034
2477.02	2.22535
2478.4	2.16816
2479.79	1.99253
2481.17	1.93094
2482.56	1.54358
2483.94	1.31033
2485.33	0.992407
2486.72	1.12965
2488.1	0.942776
2489.48	-0.0891442
2490.87	-1.34494
2492.25	-2.11282
2493.64	-2.29438
2495.02	-2.76607
2496.4	-2.99437
2497.79	-1.96556
2499.17	-1.59184
2500.55	-1.51123
2501.93	-1.312
2503.31	-0.481746
2504.69	-0.764226
2506.08	1.05283
2507.46	1.6426
2508.84	2.19637
2510.22	2.47819
2511.6	2.8398
2512.98	3.78749
2514.36	4.73361
2515.74	4.27593
2517.12	3.51828
2518.5	4.13826
2519.88	5.05436
2521.25	6.39483
2522.63	6.84561
2524.01	7.42968
2525.39	7.43422
2526.77	8.00616
2528.14	7.48712
2529.52	7.31315
2530.9	8.40411
2532.27	8.77015
2533.65	9.29526
2535.03	9.80956
2536.4	10.8697
2537.78	10.9977
2539.15	11.0135
2540.53	11.3897
2541.9	12.0739
2543.28	12.7645
2544.65	12.4315
2546.03	12.126
2547.4	13.1806
2548.77	13.055
2550.15	13.6369
2551.52	13.3564
2552.89	12.6798
2554.27	12.0076
2555.64	11.4808
2557.01	10.5704
2558.38	9.90265
2559.75	10.5337
2561.12	10.3672
2562.5	10.9981
2563.87	10.9868
2565.24	11.6171
2566.61	12.642
2567.98	12.618
2569.35	11.8095
2570.72	11.3975
2572.09	10.5918
2573.46	9.8034
2574.83	10.8112
2576.19	10.4969
2577.56	11.2386
2578.93	11.0925
2580.3	11.0242
2581.67	10.5762
2583.04	11.186
2584.4	11.013
2585.77	11.4891
2587.14	12.0835
2588.5	12.4987
2589.87	12.7087
2591.23	11.5462
2592.6	12.1127
2593.97	12.2984
2595.33	12.0723
2596.7	12.7471
2598.06	13.2242
2599.43	14.0083
2600.79	13.4855
2602.15	13.4937
2603.52	13.6182
2604.88	14.135
2606.25	13.9636
2607.61	13.6913
2608.97	14.5985
2610.33	15.0636
2611.7	15.0597
2613.06	14.0862
2614.42	14.0476
2615.78	13.026
2617.15	12.0597
2618.51	12.2592
2619.87	11.3553
2621.23	10.5976
2622.59	10.6335
2623.95	9.83688
2625.31	9.22988
2626.67	9.73166
2628.03	8.92221
2629.39	8.21592
2630.75	8.29139
2632.1	7.8626
2633.46	7.10102
2634.82	7.23248
2636.18	6.65601
2637.54	5.7157
2638.89	6.23174
2640.25	6.22086
2641.61	6.41823
2642.97	7.34642
2644.32	7.21953
2645.68	7.66437
2647.03	8.79959
2648.39	8.85415
2649.75	10.1328
2651.1	10.477
2652.46	11.0891
2653.81	11.6862
2655.17	11.3637
2656.52	11.8495
2657.88	11.6608
2659.23	11.5985
2660.58	12.6406
2661.94	12.9788
2663.29	13.4265
2664.64	13.9851
2666	14.2546
2667.35	14.9667
2668.7	14.9539
2670.05	15.5576
2671.4	16.5431
2672.76	16.6752
2674.11	16.9178
2675.46	17.6424
2676.81	18.8789
2678.16	19.1083
2679.51	18.3035
2680.86	19.0455
2682.21	19.5417
2683.56	19.8829
2684.91	21.2076
2686.26	21.5276
2687.61	21.7742
2688.96	22.766
2690.3	23.8951
2691.65	25.1113
2693	26.3296
2694.35	27.7767
2695.7	28.3134
2697.04	30.0461
2698.39	31.0709
2699.74	32.9128
2701.08	34.9566
2702.43	36.8029
2703.77	37.9304
2705.12	40.384
2706.47	42.2102
2707.81	43.843
2709.16	46.187
2710.5	48.3777
2711.85	50.6897
2713.19	52.6907
2714.53	53.9029
2715.88	54.1189
2717.22	54.6473
2718.57	54.6146
2719.91	55.6667
2721.25	55.1671
2722.59	55.35
2723.94	54.6466
2725.28	53.723
2726.62	53.5383
2727.96	52.8346
2729.3	52.0808
2730.65	50.9343
2731.99	49.7922
2733.33	48.0294
2734.67	46.4472
2736.01	44.7977
2737.35	42.5451
2738.69	40.3901
2740.03	38.2042
2741.37	36.4038
2742.71	34.2459
2744.05	31.5705
2745.38	29.0177
2746.72	26.8392
2748.06	24.7758
2749.4	22.7793
2750.74	20.7386
2752.07	18.195
2753.41	16.3404
2754.75	14.507
2756.09	12.5904
2757.42	11.4915
2758.76	9.70334
2760.09	8.37095
2761.43	6.83595
2762.77	6.47313
2764.1	6.00156
2765.44	5.48065
2766.77	5.20993
2768.11	4.50647
2769.44	4.25569
2770.77	4.13071
2772.11	4.02064
2773.44	2.64632
2774.77	2.5576
2776.11	2.03854
2777.44	1.4579
2778.77	1.53388
2780.11	0.190335
2781.44	-0.240536
2782.77	-0.179338
2784.1	-0.4531
2785.43	-0.640856
2786.77	-0.789716
2788.1	-1.55331
2789.43	-1.19399
2790.76	-2.35242
2792.09	-2.43336
2793.42	-1.63717
2794.75	-1.30407
2796.08	-0.293256
2797.41	-0.656786
2798.74	-0.862133
2800.07	-1.74933
2801.4	-1.58717
2802.72	-2.56936
2804.05	-4.11879
2805.38	-5.42171
2806.71	-6.90075
2808.04	-8.81516
2809.36	-10.4148
2810.69	-10.8878
2812.02	-9.72106
2813.34	-7.50915
2814.67	-5.17106
2816	0.166398
2817.32	7.39531
2818.65	16.9091
2819.97	27.9383
2821.3	42.1979
2822.62	58.6985
2823.95	76.8047
2825.27	96.503
2826.6	117.489
2827.92	138.07
2829.25	160.583
2830.57	182.477
2831.89	204.687
2833.22	227.937
2834.54	251.075
2835.86	273.819
2837.18	296.09
2838.51	318.986
2839.83	342.037
2841.15	365.618
2842.47	388.295
2843.79	410.663
2845.11	431.529
2846.43	451.727
2847.76	472.723
2849.08	494.377
2850.4	518.123
2851.72	541.969
2853.04	566.477
2854.36	590.965
2855.67	615.613
2856.99	638.677
2858.31	661.485
2859.63	682.085
2860.95	700.198
2862.27	716.463
2863.58	730.664
2864.9	744.198
2866.22	755.687
2867.54	765.402
2868.85	773.631
2870.17	780.913
2871.49	787.776
2872.8	793.797
2874.12	799.024
2875.43	804.807
2876.75	811.217
2878.07	818.562
2879.38	824.838
2880.7	831.556
2882.01	837.571
2883.32	843.962
2884.64	849.836
2885.95	856.162
2887.27	863.357
2888.58	867.236
2889.89	871.367
2891.21	873.3
2892.52	874.211
2893.83	875.147
2895.14	875.751
2896.46	874.694
2897.77	874.225
2899.08	873.479
2900.39	872.688
2901.7	871.488
2903.01	871.834
2904.32	871.908
2905.63	873.33
2906.94	874.429
2908.25	876.68
2909.56	880.261
2910.87	884.133
2912.18	891.185
2913.49	898.616
2914.8	908.913
2916.11	918.793
2917.42	925.959
2918.72	933.094
2920.03	938.895
2921.34	944.496
2922.65	946.456
2923.95	945.856
2925.26	944.598
2926.57	943.303
2927.88	941.357
2929.18	937.354
2930.49	933.165
2931.79	927.196
2933.1	920.984
2934.4	913.596
2935.71	905.044
2937.01	894.106
2938.32	882.686
2939.62	870.025
2940.93	856.999
2942.23	842.31
2943.54	826.397
2944.84	808.666
2946.14	790.833
2947.45	771.569
2948.75	754.132
2950.05	735.477
2951.35	716.499
2952.66	696.248
2953.96	675.643
2955.26	656.131
2956.56	635.215
2957.86	615.476
2959.16	596.291
2960.46	577.331
2961.77	558.186
2963.07	540.53
2964.37	521.96
2965.66	504.03
2966.96	487.473
2968.26	471.389
2969.56	455.432
2970.86	440.442
2972.16	424.328
2973.46	410.405
2974.76	395.797
2976.06	380.908
2977.35	365.913
2978.65	351.565
2979.95	338.192
2981.25	323.747
2982.54	308.321
2983.84	293.479
2985.14	278.151
2986.43	264.376
2987.73	248.468
2989.02	234.598
2990.32	221.619
2991.62	208.265
2992.91	194.885
2994.21	182.255
2995.5	171.406
2996.8	159.542
2998.09	147.668
2999.38	136.446
3000.68	125.596
3001.97	115.084
3003.26	106.486
3004.56	97.0877
3005.85	87.6767
3007.14	79.1823
3008.43	71.8662
3009.73	65.5109
3011.02	57.626
3012.31	52.0306
3013.6	46.3915
3014.89	41.2813
3016.19	35.8096
3017.48	30.9704
3018.77	26.8466
3020.06	22.8464
3021.35	19.1036
3022.64	15.6294
3023.93	13.3674
3025.22	10.3561
3026.5	7.20529
3027.79	3.96392
3029.08	2.1321
3030.37	0.816827
3031.66	-0.373085
3032.95	-1.41797
3034.24	-2.12904
3035.52	-2.08797
3036.81	-2.55781
3038.1	-1.25456
3039.39	-1.50315
3040.67	-0.832062
3041.96	0.0807996
3043.25	2.12482
3044.53	2.98302
3045.82	3.78852
3047.1	5.03651
3048.39	6.48713
3049.67	7.45372
3050.96	8.88985
3052.24	9.51494
3053.53	10.4311
3054.81	10.8554
3056.1	12.28
3057.38	14.1463
3058.67	15.7653
3059.95	16.9924
3061.23	17.0116
3062.52	17.2225
3063.8	18.4428
3065.08	18.5616
3066.36	19.2608
3067.65	19.7939
3068.93	19.1897
3070.21	19.2707
3071.49	19.8062
3072.77	19.5499
3074.05	18.9772
3075.33	18.0826
3076.61	18.5384
3077.89	18.5079
3079.17	18.1772
3080.45	17.037
3081.73	16.8645
3083.01	16.8313
3084.29	16.6272
3085.57	16.4092
3086.85	15.9274
3088.13	16.2507
3089.41	16.256
3090.68	16.9248
3091.96	16.6896
3093.24	17.9316
3094.52	18.8214
3095.79	20.0655
3097.07	21.6502
3098.35	22.85
3099.62	24.6302
3100.9	25.6087
3102.18	27.4136
3103.45	28.471
3104.73	31.8152
3106	33.6026
3107.28	36.3346
3108.55	39.2869
3109.83	41.8233
3111.1	44.0721
3112.38	46.3019
3113.65	48.9542
3114.93	51.5572
3116.2	54.1227
3117.47	57.1586
3118.75	60.3397
3120.02	63.6698
3121.29	66.4404
3122.57	69.0205
3123.84	71.7705
3125.11	73.772
3126.38	76.765
3127.65	80.0289
3128.92	82.6331
3130.2	85.4756
3131.47	88.5241
3132.74	90.9715
3134.01	94.5523
3135.28	97.631
3136.55	100.456
3137.82	104.093
3139.09	108.034
3140.36	111.408
3141.63	115.31
3142.9	118.665
3144.17	122.409
3145.43	126.064
3146.7	129.784
3147.97	133.876
3149.24	137.918
