#Acq. time (s)=	45
#Accumulations=	2
#Range (cm-¹)=	200...3150
#Windows=	2
#Auto scanning=	Off
#Autofocus=	Off
#Macrospot=	Off
#AutoExposure=	Off
#Spike filter=	Multiple accum.
#Delay time (s)=	0
#Binning=	1
#Readout mode=	Signal
#DeNoise=	Off
#ICS correction=	On
#Dark correction=	Off
#Inst. Process=	Off
#Detector Gain=	Best Dynamic Range
#Detector ADC=	20 kHz       
#Detector temperature (°C)=	-69.85
#Instrument=	LabRAM HR Evol
#Detector=	Synapse
#Objective=	x100
#Grating=	600 gr/mm
#ND Filter=	100%
#Laser (nm)=	532 
#Hole=	100.021
#Range=	Auto
#Laser Pol.=	No
#Raman. Pol.=	No
#Laser Pol. (°)=	-0.0007625
#Raman Pol. (°)=	89.9995
#Collection=	Microscope
#StageXY=	Marzhauser
#StageZ=	Marzhauser
#X (µm)=	-7094.3
#Y (µm)=	2190
#Z (µm)=	-74.8
#Full time(mm:ss)=	3:18
#Project=	
#Sample=	
#Site=	
#Title=	Mb_20_23_40_2x_45s_532 nm_x100_100%_600 gr_mm
#Remark=	
#Date=	13.07.2022 16:36
#Acquired=	13.07.2022 16:36:29
#Base:Fit=	10.08.2022 10:29:37
#Base:Sub=	10.08.2022 10:34:43
#Filter:Polynom=	16.08.2022 10:13:29
#AxisType[0]=Intens
#AxisUnit[0]=Cnt
#AxisType[1]=Spectr
#AxisUnit[1]=1/cm
200.563	55.1388
202.377	51.6312
204.194	47.6784
206.008	43.4789
207.821	39.7413
209.634	35.879
211.449	32.4684
213.262	29.5103
215.074	25.2048
216.885	20.6831
218.699	18.7565
220.51	16.6833
222.321	13.9949
224.131	13.3125
225.941	12.0536
227.751	9.54591
229.562	8.52012
231.371	8.15061
233.18	8.44342
234.988	7.00314
236.796	5.40482
238.603	5.32983
240.411	5.44861
242.219	4.60317
244.026	4.76177
245.832	5.89504
247.638	5.61802
249.443	5.12395
251.248	4.97201
253.053	4.32392
254.857	4.13296
256.661	9.25501
258.465	9.59464
260.268	9.29128
262.071	8.94248
263.874	8.19034
265.678	8.16418
267.48	7.87435
269.282	7.44301
271.083	8.05485
272.884	7.70942
274.684	9.91156
276.484	9.44267
278.284	10.0251
280.084	10.2148
281.883	9.96163
283.682	9.67028
285.48	9.41816
287.276	10.0412
289.074	8.84577
290.871	9.67528
292.668	8.7727
294.465	9.76709
296.261	10.0223
298.057	10.275
299.853	10.3682
301.648	12.3606
303.443	12.5676
305.237	12.1494
307.032	14.5779
308.823	17.8886
310.617	19.2985
312.41	20.2101
314.203	21.5278
315.995	23.0193
317.788	25.1212
319.579	26.5453
321.369	27.4794
323.16	28.1287
324.951	27.9035
326.741	29.1458
328.531	30.8478
330.321	31.957
332.108	33.6624
333.897	34.4492
335.686	35.85
337.474	35.5404
339.26	34.2177
341.048	34.3653
342.835	33.0364
344.622	32.4727
346.406	31.2933
348.192	30.4235
349.978	30.6011
351.764	30.1282
353.547	29.7361
355.332	29.6752
357.116	29.2683
358.901	27.4659
360.682	26.765
362.466	25.9045
364.249	25.0134
366.03	24.132
367.812	23.7791
369.594	22.8442
371.374	21.4412
373.155	20.29
374.936	19.2577
376.715	18.4663
378.495	17.0996
380.273	17.1686
382.053	16.2248
383.832	17.132
385.609	16.4926
387.388	16.5928
389.164	15.6552
390.942	15.5989
392.72	15.7883
394.495	15.1567
396.272	16.7769
398.047	17.6921
399.823	16.9833
401.597	17.7247
403.372	18.2303
405.145	20.9155
406.92	20.443
408.693	19.5482
410.467	20.0554
412.239	20.2419
414.012	20.3704
415.783	19.8818
417.556	19.8602
419.327	20.4112
421.099	20.3153
422.869	17.6974
424.64	17.8003
426.409	16.4495
428.18	14.5289
429.948	15.4296
431.718	15.7573
433.486	16.0738
435.253	17.222
437.022	19.069
438.789	19.1435
440.558	19.7915
442.324	20.4653
444.089	20.7732
445.857	21.3718
447.622	20.0965
449.386	20.2993
451.153	21.3124
452.917	21.3071
454.682	21.5713
456.446	20.1898
458.208	19.8803
459.973	19.7931
461.735	20.7064
463.497	20.7653
465.259	21.7318
467.022	22.1113
468.783	22.7173
470.544	23.4678
472.306	24.0227
474.066	22.8553
475.825	22.8794
477.585	24.4324
479.346	26.6531
481.104	28.1183
482.862	29.2871
484.62	31.9454
486.38	33.632
488.137	34.3671
489.894	37.0106
491.65	37.5712
493.407	38.6216
495.164	37.2271
496.92	37.6504
498.675	37.789
500.43	37.3513
502.184	36.7705
503.939	36.4822
505.694	37.2083
507.448	37.6883
509.201	37.0847
510.954	35.7328
512.706	36.9898
514.459	37.0068
516.21	37.4925
517.962	38.7416
519.715	39.072
521.466	37.5204
523.216	38.8982
524.966	37.4643
526.716	36.3868
528.466	35.6106
530.215	34.8128
531.964	34.7783
533.712	34.6299
535.46	35.8295
537.208	35.9219
538.955	34.9081
540.703	34.509
542.449	33.0126
544.196	31.3502
545.942	31.1797
547.688	30.8564
549.433	30.7656
551.178	29.7731
552.923	30.5535
554.667	29.4108
556.412	29.7572
558.155	29.5737
559.899	29.0124
561.642	28.8391
563.385	30.1091
565.127	31.4732
566.867	30.5369
568.609	29.9905
570.35	29.2704
572.092	28.202
573.832	27.4064
575.573	26.8327
577.313	25.9175
579.053	25.2023
580.79	24.5592
582.529	24.005
584.268	22.9668
586.006	21.2563
587.745	18.707
589.482	17.3038
591.218	16.2429
592.955	15.2275
594.692	13.0509
596.428	11.8035
598.164	11.0341
599.898	10.1066
601.634	10.201
603.369	9.69987
605.104	9.79764
606.836	8.33853
608.57	7.88749
610.304	8.40062
612.037	7.20022
613.769	8.03693
615.501	7.55159
617.234	8.07899
618.966	7.70114
620.696	6.09146
622.427	5.8915
624.159	3.73283
625.887	2.59818
627.618	2.83328
629.348	2.19318
631.076	2.7046
632.806	3.636
634.535	4.48185
636.262	5.35417
637.99	5.20628
639.716	5.71963
641.444	4.75737
643.172	5.87628
644.897	5.41719
646.624	5.47402
648.348	5.89176
650.075	5.7767
651.801	6.30639
653.524	5.92517
655.249	6.18512
656.972	6.31008
658.697	5.7985
660.419	6.57322
662.143	7.95969
663.865	8.3203
665.588	9.85028
667.309	8.42123
669.032	8.29023
670.752	6.18839
672.474	6.3769
674.194	7.32911
675.915	8.85025
677.634	8.76227
679.355	9.20543
681.073	8.91745
682.793	9.77481
684.511	10.4266
686.23	11.2471
687.947	11.6249
689.664	11.2632
691.382	12.1062
693.098	11.4154
694.816	12.2035
696.531	12.8873
698.247	11.7871
699.963	11.1863
701.678	10.3679
703.392	10.1664
705.108	10.8937
706.821	10.5151
708.534	12.1011
710.249	11.5066
711.962	11.8238
713.674	13.2016
715.388	14.023
717.099	12.8809
718.81	13.3775
720.523	12.8411
722.234	12.5058
723.944	11.0754
725.654	11.2994
727.365	10.6238
729.075	11.7927
730.784	12.8275
732.492	14.2727
734.202	14.507
735.91	14.3487
737.618	17.0442
739.325	18.0583
741.034	19.823
742.741	20.0043
744.447	20.48
746.153	21.9937
747.859	24.0641
749.564	24.6268
751.271	26.4583
752.976	26.1769
754.681	27.2208
756.385	28.7751
758.088	32.0987
759.792	32.7612
761.495	33.0924
763.2	34.2173
764.902	35.3413
766.604	36.2102
768.306	36.5342
770.008	38.1411
771.709	39.0114
773.41	38.8058
775.11	40.2995
776.811	41.4973
778.51	41.9637
780.21	40.9261
781.909	41.2859
783.608	40.6529
785.307	42.4476
787.005	43.1012
788.703	43.4351
790.401	43.7859
792.098	43.7642
793.795	45.2812
795.492	44.4571
797.188	45.3329
798.884	46.1202
800.58	46.3695
802.276	47.9353
803.971	49.8559
805.665	50.4982
807.36	51.9126
809.054	52.2087
810.748	54.8483
812.441	57.1787
814.135	59.4846
815.826	61.0539
817.518	62.6549
819.21	63.2768
820.902	64.1746
822.594	66.192
824.285	65.9063
825.976	66.3797
827.665	66.2943
829.355	66.9847
831.045	67.639
832.735	68.6664
834.424	68.5731
836.111	68.4321
837.8	67.3992
839.488	66.9641
841.177	68.1012
842.864	67.3319
844.55	66.1206
846.237	65.7054
847.924	63.8172
849.61	60.5615
851.295	58.7601
852.98	56.5869
854.666	54.7914
856.349	51.6328
858.034	50.4058
859.719	48.2497
861.403	46.6533
863.085	44.6622
864.769	41.5838
866.452	41.608
868.133	41.4125
869.816	41.3099
871.498	40.4913
873.179	40.9122
874.86	41.3068
876.54	40.4498
878.221	39.5737
879.902	39.8414
881.58	41.2751
883.26	42.4452
884.938	43.16
886.618	45.0211
888.297	44.8603
889.974	45.1917
891.653	44.1709
893.329	44.617
895.007	46.3007
896.683	45.8651
898.36	45.7541
900.035	45.4246
901.712	45.5038
903.387	44.6765
905.063	43.6436
906.737	44.5735
908.412	43.4235
910.085	42.6392
911.76	42.2465
913.433	41.0126
915.107	40.5973
916.779	39.6679
918.452	40.2233
920.124	39.7521
921.797	39.4536
923.467	38.0853
925.138	37.7394
926.81	36.4379
928.48	34.6821
930.151	32.2434
931.82	30.3377
933.489	28.9156
935.16	29.0989
936.828	27.7459
938.496	26.1259
940.165	24.9961
941.833	24.5124
943.5	23.9507
945.168	24.8419
946.834	24.327
948.5	22.761
950.168	23.2692
951.834	24.2539
953.499	23.7264
955.163	23.2452
956.83	23.2865
958.494	22.423
960.158	21.3119
961.821	23.041
963.487	24.2893
965.15	25.5437
966.812	25.644
968.474	27.3662
970.138	27.8732
971.8	27.5371
973.461	28.115
975.123	28.8221
976.783	31.1705
978.446	31.6975
980.106	31.6374
981.766	31.9117
983.425	31.9536
985.084	32.4825
986.743	31.5141
988.402	32.5674
990.06	32.4457
991.72	31.0534
993.378	30.978
995.035	31.612
996.692	32.1837
998.349	32.1828
1000.01	32.6417
1001.66	32.9113
1003.32	31.9336
1004.97	31.8031
1006.63	32.1355
1008.28	33.1313
1009.94	34.4207
1011.59	35.7575
1013.25	36.6075
1014.9	38.1598
1016.55	38.6322
1018.21	38.7548
1019.86	38.4632
1021.51	38.1926
1023.16	38.6807
1024.81	40.6381
1026.47	42.7029
1028.12	43.565
1029.77	44.8497
1031.42	46.3832
1033.07	48.0124
1034.72	49.8345
1036.37	50.561
1038.02	51.2532
1039.67	52.9687
1041.31	52.9488
1042.96	54.5835
1044.61	56.7876
1046.26	58.8217
1047.91	60.7995
1049.55	62.6734
1051.2	64.1581
1052.84	64.7779
1054.49	66.2861
1056.14	67.4103
1057.78	66.9127
1059.43	66.8687
1061.07	66.0915
1062.72	65.1661
1064.36	63.8077
1066	62.4747
1067.65	60.5316
1069.29	58.2757
1070.93	57.2918
1072.58	54.9112
1074.22	53.0203
1075.86	52.8639
1077.5	52.1033
1079.14	50.7809
1080.78	49.7858
1082.42	48.5389
1084.06	46.8921
1085.7	46.6024
1087.34	46.0312
1088.98	45.1484
1090.62	45.2225
1092.26	45.1958
1093.9	45.2394
1095.54	45.8032
1097.17	45.3222
1098.81	44.5341
1100.45	44.4215
1102.09	44.9018
1103.72	45.4105
1105.36	46.6118
1106.99	46.3978
1108.63	46.3557
1110.27	47.7309
1111.9	48.1799
1113.53	46.6431
1115.17	45.9237
1116.8	46.0787
1118.43	46.6254
1120.07	46.4552
1121.7	46.8442
1123.33	46.8752
1124.97	48.1182
1126.6	48.4569
1128.23	48.0746
1129.86	46.7309
1131.49	46.1597
1133.12	43.8912
1134.75	42.8514
1136.38	41.6182
1138.01	39.9658
1139.64	38.3211
1141.27	37.4926
1142.9	34.5549
1144.53	31.9277
1146.16	29.1499
1147.78	27.2661
1149.41	24.9156
1151.04	22.2872
1152.67	20.9994
1154.29	19.6241
1155.92	16.8096
1157.54	14.9324
1159.17	12.1643
1160.8	10.0944
1162.42	8.26633
1164.05	6.8032
1165.67	6.14046
1167.29	6.26363
1168.92	5.61735
1170.54	5.94149
1172.16	8.12531
1173.79	8.61813
1175.41	8.79067
1177.03	8.05449
1178.65	7.02873
1180.28	6.90601
1181.9	8.26226
1183.52	7.56706
1185.14	8.93302
1186.76	8.50775
1188.38	7.91011
1190	9.30523
1191.62	11.1102
1193.24	12.0317
1194.86	11.048
1196.47	11.4962
1198.09	12.4785
1199.71	13.5202
1201.33	13.7965
1202.95	14.941
1204.56	16.94
1206.18	17.5494
1207.8	18.8909
1209.41	19.661
1211.03	21.8062
1212.64	23.7941
1214.26	26.1663
1215.87	29.3254
1217.49	31.7526
1219.1	33.8799
1220.71	35.1272
1222.33	36.9975
1223.94	39.2633
1225.55	43.7511
1227.16	46.1919
1228.78	48.0621
1230.39	50.2621
1232	51.5203
1233.61	54.7135
1235.22	57.1269
1236.83	60.2343
1238.44	63.8167
1240.05	67.6827
1241.66	70.9931
1243.27	75.7031
1244.88	80.2267
1246.49	82.2702
1248.1	84.6065
1249.71	85.3403
1251.32	87.3001
1252.92	87.9771
1254.53	88.4458
1256.14	87.6888
1257.74	87.8669
1259.35	90.4013
1260.96	91.3576
1262.56	93.4693
1264.17	94.0571
1265.77	96.3734
1267.38	97.5449
1268.98	99.9428
1270.59	103.022
1272.19	104.397
1273.79	106.305
1275.4	107.46
1277	109.762
1278.6	112.445
1280.21	113.903
1281.81	117.522
1283.41	120.89
1285.01	123.855
1286.61	125.725
1288.21	128.19
1289.81	130.021
1291.41	132.978
1293.01	136.108
1294.61	138.783
1296.21	142.703
1297.81	144.459
1299.41	147.485
1301.01	150.538
1302.6	153.287
1304.2	156.104
1305.8	157.071
1307.4	156.052
1308.99	157.096
1310.59	158.777
1312.19	160.564
1313.78	162.859
1315.38	163.036
1316.97	163.748
1318.57	164.321
1320.16	164.545
1321.76	162.671
1323.35	161.423
1324.94	157.741
1326.54	155.906
1328.13	153.77
1329.72	150.646
1331.32	148.692
1332.91	144.86
1334.5	143.45
1336.09	140.513
1337.68	139.74
1339.27	138.294
1340.87	135.945
1342.45	134.352
1344.04	132.368
1345.64	129.837
1347.22	128.095
1348.81	126.806
1350.4	124.126
1351.99	122.494
1353.58	121.148
1355.17	117.41
1356.75	114.46
1358.34	113.253
1359.93	110.932
1361.51	110.489
1363.1	108.247
1364.69	106.719
1366.27	104.633
1367.86	104.239
1369.44	103.958
1371.03	104.804
1372.61	104.126
1374.2	104.467
1375.78	104.863
1377.37	104.267
1378.95	104.5
1380.53	103.32
1382.11	102
1383.7	102.541
1385.28	102.669
1386.86	103.147
1388.44	104.024
1390.02	104.041
1391.6	104.727
1393.19	104.118
1394.77	104.829
1396.35	107.04
1397.93	108.775
1399.51	109.764
1401.08	109.772
1402.66	113.181
1404.24	115.869
1405.82	120.313
1407.4	123.264
1408.97	126.021
1410.55	130.147
1412.13	135.022
1413.71	142.612
1415.28	147.34
1416.86	154.146
1418.43	160.078
1420.01	168.014
1421.59	174.756
1423.16	182.391
1424.73	188.969
1426.31	196.843
1427.88	205.057
1429.46	212.345
1431.03	220.863
1432.6	225.017
1434.18	230.662
1435.75	237.217
1437.32	242.891
1438.89	247.044
1440.46	251.606
1442.04	256.23
1443.61	259.257
1445.18	261.277
1446.75	262.12
1448.32	262.748
1449.89	262.501
1451.46	260.29
1453.03	258.583
1454.6	255.195
1456.16	251.535
1457.73	245.894
1459.3	239.333
1460.87	233.931
1462.44	228.344
1464	221.41
1465.57	213.246
1467.14	204.176
1468.7	196.054
1470.27	187.122
1471.83	179.332
1473.4	170.353
1474.96	161.697
1476.53	151.324
1478.09	142.818
1479.66	133.678
1481.22	125.553
1482.78	117.25
1484.35	109.269
1485.91	101.235
1487.47	92.3227
1489.04	86.5578
1490.6	80.9333
1492.16	76.0578
1493.72	70.7776
1495.28	68.2922
1496.84	64.8527
1498.4	62.9158
1499.96	59.6703
1501.52	58.2069
1503.08	55.5875
1504.64	55.1449
1506.2	53.8256
1507.76	52.2069
1509.32	50.3351
1510.88	47.1821
1512.44	46.1338
1513.99	44.7239
1515.55	44.0676
1517.11	42.9895
1518.66	42.7423
1520.22	42.4398
1521.78	41.5892
1523.33	42.0386
1524.89	41.9227
1526.44	42.6578
1528	43.1667
1529.55	43.4038
1531.11	43.6849
1532.66	45.4467
1534.21	46.3914
1535.77	47.6733
1537.32	49.2286
1538.87	50.8714
1540.43	52.4218
1541.98	52.4752
1543.53	53.8496
1545.08	54.3425
1546.63	56.0156
1548.18	56.3423
1549.74	57.6306
1551.29	57.4714
1552.84	59.0351
1554.39	58.4321
1555.94	60.6867
1557.48	60.4944
1559.03	61.6339
1560.58	61.9777
1562.13	62.4151
1563.68	64.0062
1565.23	66.0076
1566.78	69.298
1568.32	72.0842
1569.87	74.9989
1571.42	77.8209
1572.96	80.5019
1574.51	82.071
1576.05	84.2413
1577.6	86.0049
1579.14	88.8236
1580.69	90.4172
1582.24	92.3192
1583.78	93.7304
1585.32	95.8793
1586.87	96.9072
1588.41	98.3797
1589.95	100.545
1591.5	102.638
1593.04	104.707
1594.58	104.929
1596.12	106.437
1597.67	108.083
1599.21	109.84
1600.75	111.39
1602.29	112.173
1603.83	113.104
1605.37	113.744
1606.91	112.785
1608.45	112.836
1609.99	113.831
1611.53	114.158
1613.07	113.783
1614.6	114.216
1616.14	115.198
1617.68	115.862
1619.22	116.207
1620.75	116.797
1622.29	115.991
1623.83	115.598
1625.37	115.552
1626.9	116.458
1628.44	116.741
1629.97	116.757
1631.51	117.059
1633.04	118.563
1634.58	118.99
1636.11	120.664
1637.65	120.134
1639.18	121.119
1640.72	122.452
1642.25	122.597
1643.78	124.187
1645.31	124.424
1646.85	124.777
1648.38	125.214
1649.91	124.493
1651.44	123.979
1652.97	124.39
1654.5	124.996
1656.03	124.585
1657.56	123.509
1659.1	121.461
1660.62	120.973
1662.15	119.484
1663.68	117.979
1665.21	117.059
1666.74	114.486
1668.27	111.145
1669.8	108.171
1671.32	103.982
1672.85	100.867
1674.38	97.1903
1675.91	92.606
1677.43	89.3177
1678.96	85.4396
1680.49	81.0402
1682.01	77.5628
1683.54	73.8496
1685.06	70.8235
1686.59	67.2319
1688.11	64.6989
1689.64	60.952
1691.16	57.9119
1692.68	54.2657
1694.21	51.1936
1695.73	48.6046
1697.25	45.4975
1698.78	42.8971
1700.3	40.8006
1701.82	39.7814
1703.34	37.6237
1704.86	36.6603
1706.39	35.9266
1707.91	35.9784
1709.43	34.8986
1710.95	33.2695
1712.47	32.4791
1713.99	30.8281
1715.51	30.963
1717.02	31.015
1718.54	30.9866
1720.06	31.2262
1721.58	30.5357
1723.1	30.1451
1724.62	29.4343
1726.13	28.5375
1727.65	28.4961
1729.17	28.7692
1730.68	28.9112
1732.2	27.2817
1733.72	26.1327
1735.23	24.9024
1736.75	25.4194
1738.26	24.6325
1739.78	23.8405
1741.29	22.7251
1742.81	20.8594
1744.32	19.6592
1745.84	18.4451
1747.35	16.8375
1748.86	16.3911
1750.37	15.8456
1751.89	15.0353
1753.4	14.5835
1754.91	13.0923
1756.42	10.9279
1757.93	10.2592
1759.45	7.78129
1760.96	6.79318
1762.47	5.67539
1763.98	5.52229
1765.49	4.14055
1767	3.54335
1768.51	4.05402
1770.02	4.00691
1771.53	2.9695
1773.03	2.39176
1774.54	2.85297
1776.05	2.67991
1777.56	3.0351
1779.07	3.22852
1780.57	4.15829
1782.08	3.4634
1783.59	3.44905
1785.09	3.30896
1786.6	3.23142
1788.11	3.62465
1789.61	3.72738
1791.12	3.89549
1792.62	3.97759
1794.13	4.36089
1795.63	3.85739
1797.13	4.21226
1798.64	3.47169
1800.14	3.59913
1801.65	3.27419
1803.15	3.6112
1804.65	3.76106
1806.15	3.16793
1807.66	3.33953
1809.16	3.06733
1810.66	3.25701
1812.16	3.64731
1813.66	4.00406
1815.16	4.02661
1816.66	4.31557
1818.16	4.31263
1819.66	4.16032
1821.16	4.10714
1822.66	3.9144
1824.16	3.64491
1825.66	4.04397
1827.16	3.69137
1828.66	3.44578
1830.16	3.37434
1831.65	2.57989
1833.15	3.64027
1834.65	3.04075
1836.14	2.65541
1837.64	2.81977
1839.14	2.93791
1840.63	2.83195
1842.13	3.09283
1843.62	2.79683
1845.12	1.72556
1846.61	1.61158
1848.11	2.04139
1849.6	2.43285
1851.1	1.79959
1852.59	1.84135
1854.08	1.63519
1855.58	1.03734
1857.07	1.18604
1858.56	1.14013
1860.05	1.11727
1861.55	0.757394
1863.04	0.718174
1864.53	0.770335
1866.02	0.188804
1867.51	0.97495
1869	0.246048
1870.49	0.625749
1871.98	0.911919
1873.47	1.00878
1874.96	1.57919
1876.45	2.62171
1877.94	2.80646
1879.43	3.46388
1880.92	4.01705
1882.41	4.92031
1882.51	4.47304
1884	5.41343
1885.5	6.39723
1886.99	6.88109
1888.48	7.08254
1889.98	7.93105
1891.47	8.09235
1892.96	7.67613
1894.46	7.44394
1895.95	7.47973
1897.44	7.77997
1898.93	7.91983
1900.42	6.8347
1901.91	6.57506
1903.41	6.44307
1904.9	5.58218
1906.39	6.61487
1907.88	5.54345
1909.37	5.60328
1910.86	6.50865
1912.35	6.18683
1913.83	5.94249
1915.32	5.10856
1916.81	4.40806
1918.3	4.45685
1919.79	4.82723
1921.27	4.44882
1922.76	4.07629
1924.25	4.25056
1925.74	3.9886
1927.22	4.07559
1928.71	3.55301
1930.19	3.39951
1931.68	3.04944
1933.17	3.25773
1934.65	2.60399
1936.14	2.36435
1937.62	1.43648
1939.11	1.8245
1940.59	2.70378
1942.07	2.3865
1943.56	3.71497
1945.04	4.13234
1946.52	4.69858
1948.01	5.33332
1949.49	5.05971
1950.97	4.80197
1952.45	5.01447
1953.93	4.72139
1955.42	3.97548
1956.9	2.951
1958.38	3.76918
1959.86	3.82354
1961.34	3.12073
1962.82	2.665
1964.3	1.85313
1965.78	1.3194
1967.26	1.24371
1968.74	1.20389
1970.21	1.32702
1971.69	0.891669
1973.17	1.56071
1974.65	1.53404
1976.13	2.11264
1977.6	2.65777
1979.08	2.56575
1980.56	3.39874
1982.03	3.6439
1983.51	3.77935
1984.99	3.43323
1986.46	3.46776
1987.94	3.92398
1989.41	3.53218
1990.89	4.16445
1992.36	4.62343
1993.84	5.36072
1995.31	5.15525
1996.78	5.99252
1998.26	5.71278
1999.73	4.78864
2001.2	5.16571
2002.68	5.72482
2004.15	6.1801
2005.62	6.76832
2007.09	6.80344
2008.56	7.18706
2010.04	7.39235
2011.51	8.05701
2012.98	8.45085
2014.45	9.68202
2015.92	9.64663
2017.39	9.08922
2018.86	8.78245
2020.33	9.3109
2021.8	9.34453
2023.26	9.6715
2024.73	10.4237
2026.2	10.675
2027.67	11.0403
2029.14	11.1191
2030.61	11.9852
2032.07	13.3962
2033.54	13.1188
2035.01	13.2877
2036.47	13.7985
2037.94	15.0556
2039.4	15.7431
2040.87	16.2078
2042.33	15.7946
2043.8	16.1261
2045.27	17.2184
2046.73	17.8483
2048.19	17.7736
2049.66	18.4783
2051.12	18.6983
2052.59	17.7882
2054.05	17.5252
2055.51	17.2414
2056.97	16.6655
2058.44	17.22
2059.9	18.0874
2061.36	18.1333
2062.82	17.4437
2064.28	17.937
2065.74	17.6576
2067.21	17.386
2068.67	16.7162
2070.13	17.6447
2071.59	17.858
2073.05	17.348
2074.51	18.2507
2075.96	18.6803
2077.42	18.2616
2078.88	18.0392
2080.34	18.417
2081.8	19.2941
2083.26	19.4573
2084.72	19.437
2086.17	18.9009
2087.63	18.4381
2089.09	16.8354
2090.54	17.5566
2092	18.2736
2093.45	19.5057
2094.91	19.4057
2096.37	19.4904
2097.82	19.4904
2099.28	19.906
2100.73	20.0959
2102.19	21.5585
2103.64	22.2986
2105.09	22.7754
2106.55	23.5887
2108	24.5033
2109.45	25.1376
2110.91	25.8017
2112.36	26.0114
2113.81	27.1014
2115.26	27.3004
2116.72	28.8269
2118.17	29.7358
2119.62	30.7498
2121.07	31.9768
2122.52	33.0844
2123.97	34.1252
2125.42	34.7439
2126.87	37.1948
2128.32	38.411
2129.77	39.541
2131.22	40.5863
2132.67	42.1994
2134.11	43.6619
2135.56	45.4544
2137.01	46.829
2138.46	47.7595
2139.91	48.93
2141.35	50.2702
2142.8	51.5869
2144.25	52.2167
2145.7	53.4866
2147.14	55.6513
2148.59	57.3307
2150.03	59.0847
2151.48	60.7139
2152.92	63.0522
2154.37	63.7937
2155.81	64.2973
2157.26	65.2676
2158.7	67.0715
2160.15	67.9586
2161.59	70.7062
2163.03	72.7565
2164.47	73.0296
2165.92	73.7837
2167.36	73.5378
2168.8	74.3168
2170.24	74.7783
2171.69	75.5583
2173.13	76.0054
2174.57	76.7849
2176.01	76.0504
2177.45	76.093
2178.89	75.769
2180.33	75.6355
2181.77	74.1596
2183.21	73.6408
2184.65	73.2433
2186.09	72.0923
2187.53	70.6915
2188.97	69.5602
2190.4	68.6111
2191.84	67.7389
2193.28	66.6393
2194.72	65.5538
2196.16	63.9331
2197.59	61.1753
2199.03	59.2365
2200.47	55.9739
2201.9	53.9091
2203.34	52.3459
2204.77	51.581
2206.21	49.1271
2207.64	46.973
2209.08	44.1919
2210.51	42.7931
2211.95	41.0032
2213.38	40.3535
2214.82	38.6446
2216.25	37.9554
2217.68	36.5405
2219.12	35.0515
2220.55	34.0148
2221.98	33.5048
2223.41	33.126
2224.85	32.1598
2226.28	31.8515
2227.71	31.5176
2229.14	31.171
2230.57	30.5611
2232	28.9485
2233.43	28.2869
2234.86	27.4337
2236.29	26.3307
2237.72	25.062
2239.15	24.7833
2240.58	24.0851
2242.01	22.8028
2243.44	22.8412
2244.87	22.1162
2246.29	22.0167
2247.72	20.8707
2249.15	20.013
2250.58	19.2802
2252.01	19.3191
2253.43	18.6221
2254.86	19.2073
2256.29	18.8633
2257.71	18.3335
2259.14	17.4396
2260.56	17.4064
2261.99	17.2202
2263.41	17.0387
2264.84	16.701
2266.26	16.0735
2267.69	16.5813
2269.11	16.4318
2270.53	16.6077
2271.96	16.612
2273.38	16.0945
2274.8	16.8057
2276.23	17.0761
2277.65	16.1224
2279.07	16.8686
2280.49	17.1016
2281.91	17.181
2283.34	16.4766
2284.76	17.0297
2286.18	16.5162
2287.6	17.4823
2289.02	16.7047
2290.44	15.8987
2291.86	15.6669
2293.28	15.4813
2294.7	15.0192
2296.12	14.9634
2297.54	16.4218
2298.96	16.6288
2300.37	16.8031
2301.79	16.6433
2303.21	16.7157
2304.63	17.3983
2306.04	17.3282
2307.46	16.0838
2308.88	15.3575
2310.3	14.8929
2311.71	13.7
2313.13	13.7181
2314.54	13.8811
2315.96	12.8334
2317.37	12.2477
2318.79	11.2182
2320.2	11.1616
2321.62	11.2263
2323.03	11.4061
2324.45	11.6126
2325.86	11.3609
2327.27	11.1765
2328.69	11.3268
2330.1	10.813
2331.51	10.4943
2332.92	10.2776
2334.34	10.7891
2335.75	10.8176
2337.16	10.7736
2338.57	10.5572
2339.98	10.442
2341.39	10.079
2342.8	9.68129
2344.21	9.73091
2345.63	10.0162
2347.04	9.10767
2348.45	7.82409
2349.85	8.07369
2351.26	7.41421
2352.67	6.53335
2354.08	6.26389
2355.49	6.15828
2356.9	5.93145
2358.3	4.93706
2359.71	3.78045
2361.12	4.08903
2362.53	4.92127
2363.93	5.49262
2365.34	5.92814
2366.75	6.45748
2368.15	6.65589
2369.56	5.76681
2370.97	4.87514
2372.37	3.9254
2373.77	3.71351
2375.18	4.01472
2376.59	3.0215
2377.99	2.53463
2379.39	2.24845
2380.8	1.98003
2382.2	1.10641
2383.6	1.83679
2385.01	1.88312
2386.41	1.90243
2387.81	3.0171
2389.21	3.53144
2390.62	3.80475
2392.02	4.96519
2393.42	5.77013
2394.82	6.69753
2396.22	6.44423
2397.62	6.761
2399.02	6.95012
2400.42	6.6977
2401.82	6.34139
2403.22	6.90639
2404.62	7.15724
2406.02	7.23072
2407.42	7.07685
2408.82	8.19653
2410.22	9.47484
2411.62	9.59588
2413.01	10.0813
2414.41	11.1288
2415.81	10.9344
2417.21	10.8186
2418.6	11.6327
2420	12.7485
2421.4	12.9113
2422.79	12.9171
2424.19	12.7481
2425.59	13.7055
2426.98	13.8605
2428.38	12.8653
2429.77	13.1852
2431.17	13.0289
2432.56	13.0529
2433.95	13.0317
2435.35	12.2272
2436.74	12.319
2438.14	11.83
2439.53	11.0592
2440.92	10.5246
2442.31	9.37009
2443.71	8.94705
2445.1	8.48403
2446.49	6.60751
2447.88	6.2288
2449.27	6.34291
2450.67	5.77768
2452.06	6.25895
2453.45	6.69096
2454.84	6.63042
2456.23	6.74045
2457.62	6.63823
2459.01	5.73555
2460.4	5.75974
2461.79	5.51488
2463.18	3.98211
2464.57	4.49326
2465.95	4.13985
2467.34	4.73046
2468.73	4.76267
2470.12	4.32116
2471.5	3.7508
2472.89	3.83014
2474.28	4.28098
2475.67	4.80793
2477.05	5.58319
2478.44	6.60163
2479.82	6.76683
2481.21	7.58041
2482.6	7.688
2483.98	7.50195
2485.37	6.65925
2486.75	6.04687
2488.13	6.38992
2489.52	5.38276
2490.9	5.19019
2492.29	4.9977
2493.67	4.21122
2495.05	4.33906
2496.44	3.27805
2497.82	2.7952
2499.2	3.1903
2500.58	2.71637
2501.97	2.79206
2503.35	3.08093
2504.73	3.13805
2506.11	2.78817
2507.49	1.72772
2508.87	1.8719
2510.25	1.28494
2511.63	1.04608
2513.01	1.2284
2514.39	1.7784
2515.77	2.2811
2517.15	2.6007
2518.53	3.20365
2519.91	2.94108
2521.29	4.05939
2522.67	3.48071
2524.05	3.99074
2525.42	4.05686
2526.8	3.22739
2528.18	2.05833
2529.55	2.37203
2530.93	2.2363
2532.31	3.31784
2533.69	4.56863
2535.06	4.88487
2536.44	4.961
2537.81	4.95729
2539.19	4.91641
2540.56	6.30477
2541.94	7.28935
2543.31	8.03528
2544.69	8.60058
2546.06	8.84026
2547.44	8.45399
2548.81	7.88477
2550.18	8.10588
2551.56	7.30938
2552.93	8.01632
2554.3	7.85103
2555.67	8.27473
2557.04	8.86233
2558.42	8.57474
2559.79	8.95102
2561.16	9.16821
2562.53	8.6567
2563.9	9.81638
2565.27	11.1418
2566.64	12.0053
2568.01	12.1307
2569.38	12.2209
2570.75	12.9755
2572.12	13.838
2573.49	12.755
2574.86	11.9901
2576.23	12.3963
2577.6	12.7128
2578.97	11.7888
2580.33	12.4261
2581.7	12.0245
2583.07	12.5491
2584.44	12.0126
2585.8	11.3817
2587.17	11.4575
2588.54	10.6583
2589.9	10.2777
2591.27	9.50207
2592.64	9.02639
2594	9.13543
2595.37	8.87207
2596.73	9.83304
2598.1	10.9996
2599.46	10.9289
2600.83	11.3146
2602.19	11.4265
2603.55	11.7282
2604.92	11.466
2606.28	12.5383
2607.64	11.8639
2609.01	12.7824
2610.37	11.468
2611.73	10.9153
2613.09	10.4657
2614.46	10.09
2615.82	10.036
2617.18	11.4573
2618.54	11.8389
2619.9	12.1507
2621.26	12.5476
2622.62	12.1135
2623.98	11.1217
2625.34	10.4379
2626.7	11.0014
2628.06	10.9876
2629.42	10.3956
2630.78	10.3062
2632.14	9.9378
2633.5	9.29246
2634.86	8.46138
2636.21	8.34028
2637.57	7.875
2638.93	7.7707
2640.29	7.63741
2641.64	6.74232
2643	6.67804
2644.36	6.8998
2645.71	6.11185
2647.07	5.34683
2648.43	5.07807
2649.78	4.71588
2651.14	4.78107
2652.49	3.79901
2653.85	4.01598
2655.2	4.10892
2656.56	4.58656
2657.91	5.44518
2659.26	6.11722
2660.62	6.56525
2661.97	6.7965
2663.32	6.48193
2664.68	6.48745
2666.03	5.85803
2667.38	6.19151
2668.74	6.85574
2670.09	7.2127
2671.44	7.19939
2672.79	7.28764
2674.14	7.90824
2675.49	7.93787
2676.84	9.24427
2678.19	8.90063
2679.54	9.73141
2680.89	10.2571
2682.24	10.8286
2683.59	11.0323
2684.94	11.2137
2686.29	10.1599
2687.64	10.5717
2688.99	10.6682
2690.34	11.5558
2691.69	11.8473
2693.03	12.9375
2694.38	13.792
2695.73	13.6007
2697.08	13.8842
2698.42	14.6525
2699.77	15.5834
2701.12	17.3987
2702.46	18.902
2703.81	20.3472
2705.15	20.1462
2706.5	21.1714
2707.85	22.5753
2709.19	23.2098
2710.54	23.4325
2711.88	24.4629
2713.22	24.8519
2714.57	25.1275
2715.91	25.9022
2717.26	27.2856
2718.6	27.2521
2719.94	27.7545
2721.29	27.4658
2722.63	28.1526
2723.97	28.0174
2725.31	27.7638
2726.66	27.1532
2728	26.3775
2729.34	24.984
2730.68	24.6389
2732.02	23.6425
2733.36	23.8094
2734.7	23.6569
2736.04	22.3162
2737.38	21.1298
2738.72	20.2
2740.06	19.9519
2741.4	19.3043
2742.74	17.9499
2744.08	16.1884
2745.42	15.4147
2746.76	14.214
2748.09	12.675
2749.43	11.1239
2750.77	10.1829
2752.11	9.54399
2753.45	8.4871
2754.78	7.83793
2756.12	7.1759
2757.46	6.29864
2758.79	4.96686
2760.13	3.90516
2761.46	3.78877
2762.8	3.83078
2764.14	3.34527
2765.47	3.09166
2766.8	3.31385
2768.14	3.23465
2769.47	2.51059
2770.81	2.36032
2772.14	1.75505
2773.48	2.65988
2774.81	2.23846
2776.14	1.47427
2777.48	1.20948
2778.81	1.89328
2780.14	1.75509
2781.47	1.20002
2782.8	1.14866
2784.14	0.318873
2785.47	-0.951265
2786.8	-1.32398
2788.13	-1.86861
2789.46	-1.26009
2790.79	-2.7363
2792.12	-2.75941
2793.45	-2.81924
2794.78	-2.35565
2796.11	-2.40941
2797.44	-1.87171
2798.77	-1.65267
2800.1	-0.60179
2801.43	-1.16068
2802.76	-0.852564
2804.09	0.0547145
2805.41	1.01607
2806.74	1.41793
2808.07	1.42834
2809.4	0.631121
2810.72	0.0841825
2812.05	0.398063
2813.38	-0.85604
2814.71	-0.449564
2816.03	0.791322
2817.36	3.25869
2818.68	5.98954
2820.01	9.87926
2821.33	14.8997
2822.66	20.4184
2823.98	26.3135
2825.31	33.422
2826.63	41.2101
2827.96	49.8909
2829.28	57.7805
2830.6	67.1607
2831.93	75.9561
2833.25	86.2038
2834.57	95.685
2835.9	104.954
2837.22	116.325
2838.54	127.402
2839.86	139.301
2841.18	149.793
2842.5	162.246
2843.83	174.479
2845.15	187.029
2846.47	198.769
2847.79	210.903
2849.11	223.55
2850.43	235.355
2851.75	247.834
2853.07	261.259
2854.39	274.568
2855.71	287.568
2857.03	301.526
2858.35	314.139
2859.66	326.385
2860.98	336.456
2862.3	346.421
2863.62	356.594
2864.94	366.447
2866.25	375.829
2867.57	383.939
2868.89	391.923
2870.2	398.584
2871.52	403.945
2872.84	409.426
2874.15	414.793
2875.47	418.797
2876.78	424.484
2878.1	429.822
2879.41	435.157
2880.73	442.576
2882.04	448.901
2883.36	454.782
2884.67	460.985
2885.99	467.812
2887.3	474.414
2888.61	479.744
2889.93	485.206
2891.24	491.871
2892.55	498.869
2893.86	504.662
2895.18	509.783
2896.49	516.234
2897.8	520.991
2899.11	527.404
2900.42	532.928
2901.73	540.004
2903.05	548.128
2904.36	554.639
2905.67	562.008
2906.98	570.802
2908.29	579.071
2909.6	587.507
2910.91	596.181
2912.21	604.879
2913.52	613.561
2914.83	622.324
2916.14	630.492
2917.45	638.331
2918.76	646.638
2920.07	653.373
2921.37	659.105
2922.68	663.951
2923.99	665.449
2925.29	668.93
2926.6	669.486
2927.91	672.109
2929.22	672.203
2930.52	670.71
2931.83	668.539
2933.13	664.621
2934.44	660.029
2935.74	654.916
2937.05	648.911
2938.35	641.186
2939.66	633.298
2940.96	624.49
2942.26	616.288
2943.57	606.644
2944.87	596.899
2946.18	586.041
2947.48	574.402
2948.78	561.843
2950.08	549.689
2951.39	537.682
2952.69	526.272
2953.99	513.424
2955.29	502.069
2956.59	489.49
2957.9	475.735
2959.2	461.92
2960.5	447.756
2961.8	434.662
2963.1	422.076
2964.4	409.333
2965.7	396.599
2967	385.02
2968.3	373.395
2969.6	361.001
2970.9	350.018
2972.19	339.075
2973.49	327.502
2974.79	317.461
2976.09	307.204
2977.39	296.523
2978.68	285.353
2979.98	275.523
2981.28	264.238
2982.58	253.253
2983.87	242.55
2985.17	231.272
2986.47	219.609
2987.76	208.627
2989.06	197.163
2990.35	187.155
2991.65	176.708
2992.94	168.038
2994.24	156.844
2995.53	146.79
2996.83	137.806
2998.12	128.046
2999.42	119.056
3000.71	110.269
3002	101.886
3003.3	93.7941
3004.59	88.1671
3005.88	81.7699
3007.18	75.7139
3008.47	68.663
3009.76	62.741
3011.05	57.7571
3012.34	53.2636
3013.64	48.3896
3014.93	44.4131
3016.22	41.1169
3017.51	37.4299
3018.8	33.3541
3020.09	29.4214
3021.38	25.5405
3022.67	22.3228
3023.96	19.5534
3025.25	16.3225
3026.54	15.0787
3027.83	13.6827
3029.12	11.8325
3030.41	9.94035
3031.69	8.47138
3032.98	6.6697
3034.27	5.61001
3035.56	5.38511
3036.84	5.22911
3038.13	5.30991
3039.42	4.79939
3040.71	4.25849
3041.99	3.69102
3043.28	3.70235
3044.57	3.82637
3045.85	3.51431
3047.14	3.38777
3048.42	3.62771
3049.71	4.61197
3050.99	4.59862
3052.28	5.69561
3053.56	5.65834
3054.85	6.30609
3056.13	6.69383
3057.41	7.12793
3058.7	6.03504
3059.98	6.36172
3061.26	6.5836
3062.55	6.32286
3063.83	6.28228
3065.11	5.36272
3066.39	5.97662
3067.68	5.99891
3068.96	5.69851
3070.24	5.58784
3071.52	5.5092
3072.8	5.43088
3074.08	5.6072
3075.36	5.36462
3076.65	5.08675
3077.93	4.30348
3079.21	4.28613
3080.49	4.30331
3081.77	4.00466
3083.04	4.28524
3084.32	3.30654
3085.6	3.05399
3086.88	2.8566
3088.16	2.71423
3089.44	2.52958
3090.72	3.60941
3091.99	4.33564
3093.27	4.51651
3094.55	4.18766
3095.83	5.53618
3097.1	6.52936
3098.38	7.4589
3099.66	7.4975
3100.93	8.3833
3102.21	8.84989
3103.49	10.0531
3104.76	10.9098
3106.04	12.1567
3107.31	13.5152
3108.59	14.3444
3109.86	14.9625
3111.14	16.5183
3112.41	18.5428
3113.69	19.6017
3114.96	19.9601
3116.23	21.5181
3117.51	22.4226
3118.78	23.9876
3120.05	25.4026
3121.33	27.1856
3122.6	27.4412
3123.87	29.2777
3125.14	30.6292
3126.41	31.5329
3127.69	32.9583
3128.96	34.2283
3130.23	37.1387
3131.5	38.858
3132.77	40.7388
3134.04	43.1161
3135.31	44.8634
3136.58	46.5139
3137.85	48.0574
3139.12	50.3882
3140.39	52.557
3141.66	54.4291
3142.93	56.5682
3144.2	58.5084
3145.47	61.0059
3146.74	63.489
3148	66.5071
3149.27	69.0888
