#Acq. time (s)=	45
#Accumulations=	2
#Range (cm-¹)=	200...3150
#Windows=	2
#Auto scanning=	Off
#Autofocus=	Off
#Macrospot=	Off
#AutoExposure=	Off
#Spike filter=	Multiple accum.
#Delay time (s)=	0
#Binning=	1
#Readout mode=	Signal
#DeNoise=	Off
#ICS correction=	On
#Dark correction=	Off
#Inst. Process=	Off
#Detector Gain=	Best Dynamic Range
#Detector ADC=	20 kHz       
#Detector temperature (°C)=	-69.85
#Instrument=	LabRAM HR Evol
#Detector=	Synapse
#Objective=	x100
#Grating=	600 gr/mm
#ND Filter=	100%
#Laser (nm)=	532 
#Hole=	100.021
#Range=	Auto
#Laser Pol.=	No
#Raman. Pol.=	No
#Laser Pol. (°)=	-0.0007625
#Raman Pol. (°)=	89.9995
#Collection=	Microscope
#StageXY=	Marzhauser
#StageZ=	Marzhauser
#X (µm)=	-6947
#Y (µm)=	1949.8
#Z (µm)=	-75.35
#Full time(mm:ss)=	3:13
#Project=	
#Sample=	
#Site=	
#Title=	Mb_20_23_35_2x_45s_532 nm_x100_100%_600 gr_mm
#Remark=	
#Date=	13.07.2022 16:13
#Acquired=	13.07.2022 16:13:28
#Base:Fit=	10.08.2022 10:29:37
#Base:Sub=	10.08.2022 10:34:43
#Filter:Polynom=	16.08.2022 10:13:29
#AxisType[0]=Intens
#AxisUnit[0]=Cnt
#AxisType[1]=Spectr
#AxisUnit[1]=1/cm
200.563	88.347
202.377	90.3362
204.194	90.4034
206.008	90.4606
207.821	89.4725
209.634	88.1032
211.449	86.9321
213.262	84.9812
215.074	82.7099
216.885	81.7444
218.699	79.4056
220.51	75.1235
222.321	70.903
224.131	67.8609
225.941	65.0476
227.751	62.6641
229.562	58.8969
231.371	56.7623
233.18	56.3271
234.988	52.4577
236.796	49.0447
238.603	46.2895
240.411	44.9702
242.219	42.8118
244.026	39.7083
245.832	37.3291
247.638	34.5185
249.443	30.9975
251.248	28.5667
253.053	26.7939
254.857	24.723
256.661	23.6135
258.465	21.4905
260.268	19.7759
262.071	17.454
263.874	15.8202
265.678	14.8638
267.48	13.1282
269.282	11.4578
271.083	9.18264
272.884	9.47645
274.684	8.6455
276.484	8.17992
278.284	9.12406
280.084	9.5948
281.883	9.73736
283.682	7.78325
285.48	5.33992
287.276	4.12435
289.074	3.38722
290.871	3.27523
292.668	4.87573
294.465	5.11829
296.261	5.64137
298.057	6.45305
299.853	7.96515
301.648	8.74605
303.443	9.43359
305.237	11.035
307.032	13.2828
308.823	12.8025
310.617	13.3217
312.41	14.6139
314.203	17.1633
315.995	17.888
317.788	17.9166
319.579	17.327
321.369	18.9929
323.16	19.6052
324.951	18.2455
326.741	20.6682
328.531	22.6117
330.321	23.1471
332.108	22.009
333.897	21.0499
335.686	21.7614
337.474	21.9739
339.26	21.1648
341.048	21.7051
342.835	20.6172
344.622	18.2796
346.406	17.4909
348.192	16.3051
349.978	16.8512
351.764	13.8725
353.547	13.8986
355.332	12.7031
357.116	11.2734
358.901	8.84976
360.682	8.39227
362.466	8.40584
364.249	8.64294
366.03	7.22478
367.812	7.14321
369.594	4.84803
371.374	4.46652
373.155	2.94414
374.936	3.40865
376.715	5.10938
378.495	4.71322
380.273	5.79697
382.053	5.79001
383.832	5.77328
385.609	7.48789
387.388	8.85154
389.164	10.4813
390.942	11.9491
392.72	12.7587
394.495	13.5213
396.272	13.7643
398.047	12.6299
399.823	12.0633
401.597	12.2109
403.372	14.708
405.145	13.6465
406.92	13.9074
408.693	15.6427
410.467	16.4016
412.239	16.25
414.012	16.5932
415.783	16.3266
417.556	16.2526
419.327	16.2384
421.099	16.3454
422.869	16.3706
424.64	16.0542
426.409	15.2749
428.18	15.3602
429.948	15.2395
431.718	15.2552
433.486	15.2351
435.253	15.7336
437.022	15.5012
438.789	14.5741
440.558	13.2252
442.324	16.2927
444.089	16.1408
445.857	16.3942
447.622	17.5738
449.386	18.3301
451.153	18.6774
452.917	19.325
454.682	20.2865
456.446	21.7131
458.208	21.9717
459.973	24.4234
461.735	23.34
463.497	25.2578
465.259	25.5118
467.022	24.3565
468.783	23.9694
470.544	24.5747
472.306	26.437
474.066	28.1307
475.825	28.5142
477.585	28.9635
479.346	29.7285
481.104	30.7104
482.862	32.1686
484.62	33.6831
486.38	34.1971
488.137	36.2148
489.894	38.9189
491.65	39.8808
493.407	39.4029
495.164	40.5027
496.92	41.6643
498.675	42.4162
500.43	44.1806
502.184	46.2973
503.939	48.0248
505.694	51.0392
507.448	52.4351
509.201	52.5052
510.954	54.1237
512.706	54.7351
514.459	56.5272
516.21	57.2285
517.962	57.8844
519.715	58.3282
521.466	57.7203
523.216	58.4568
524.966	60.2284
526.716	60.4079
528.466	61.0002
530.215	61.175
531.964	59.692
533.712	60.1273
535.46	60.4683
537.208	59.6897
538.955	60.4442
540.703	60.1528
542.449	59.2294
544.196	56.1559
545.942	53.533
547.688	50.732
549.433	47.3279
551.178	44.7588
552.923	43.4924
554.667	41.6641
556.412	40.2351
558.155	39.6718
559.899	37.915
561.642	35.6888
563.385	31.6959
565.127	30.4756
566.867	29.3045
568.609	27.454
570.35	26.6926
572.092	24.8704
573.832	21.7168
575.573	20.6469
577.313	19.43
579.053	18.0496
580.79	18.3094
582.529	17.9477
584.268	17.4667
586.006	17.3992
587.745	16.7337
589.482	15.6628
591.218	16.6042
592.955	15.8389
594.692	15.8681
596.428	15.0856
598.164	14.639
599.898	13.4016
601.634	13.9008
603.369	13.4407
605.104	13.4246
606.836	13.1422
608.57	13.2446
610.304	14.2351
612.037	14.9413
613.769	12.7122
615.501	13.022
617.234	13.7543
618.966	13.8966
620.696	15.3378
622.427	14.9284
624.159	15.8925
625.887	16.0268
627.618	15.3022
629.348	15.3238
631.076	14.1259
632.806	13.7757
634.535	15.2433
636.262	15.0365
637.99	15.457
639.716	17.02
641.444	15.1587
643.172	13.9442
644.897	13.399
646.624	12.5628
648.348	11.3537
650.075	10.0684
651.801	11.469
653.524	11.4883
655.249	11.0341
656.972	10.3522
658.697	8.43346
660.419	7.08365
662.143	7.64716
663.865	7.66286
665.588	6.1515
667.309	5.87605
669.032	4.33624
670.752	2.84176
672.474	3.28778
674.194	2.58652
675.915	1.85998
677.634	3.3407
679.355	3.32016
681.073	2.6649
682.793	1.80865
684.511	1.42518
686.23	3.02773
687.947	3.77841
689.664	3.7115
691.382	2.88642
693.098	3.15525
694.816	3.75839
696.531	3.55465
698.247	4.60761
699.963	5.48912
701.678	7.83561
703.392	9.32951
705.108	10.4607
706.821	12.1145
708.534	13.0898
710.249	14.1484
711.962	14.2384
713.674	15.8446
715.388	17.695
717.099	18.0469
718.81	19.0642
720.523	19.8963
722.234	20.1663
723.944	21.5335
725.654	21.0167
727.365	20.6363
729.075	21.3185
730.784	21.8868
732.492	21.2225
734.202	21.2957
735.91	21.3144
737.618	21.9905
739.325	23.4129
741.034	23.8214
742.741	25.0054
744.447	26.7467
746.153	28.3105
747.859	31.5644
749.564	32.9113
751.271	34.67
752.976	38.0672
754.681	39.7535
756.385	42.2214
758.088	44.3535
759.792	45.7033
761.495	48.871
763.2	50.5296
764.902	50.7331
766.604	51.6701
768.306	54.2763
770.008	55.2287
771.709	57.5855
773.41	56.9291
775.11	57.6964
776.811	57.382
778.51	58.5974
780.21	60.1506
781.909	60.4615
783.608	61.4029
785.307	60.2299
787.005	60.6923
788.703	60.7372
790.401	60.3788
792.098	61.2065
793.795	62.6523
795.492	62.1362
797.188	63.7043
798.884	65.0664
800.58	65.0295
802.276	65.5559
803.971	64.5562
805.665	64.5629
807.36	64.7306
809.054	63.942
810.748	62.5419
812.441	62.5009
814.135	62.0404
815.826	62.7461
817.518	60.8959
819.21	60.7386
820.902	62.0213
822.594	63.4858
824.285	64.9831
825.976	65.4807
827.665	67.0024
829.355	65.7309
831.045	65.7673
832.735	66.2731
834.424	65.3421
836.111	64.6345
837.8	64.5605
839.488	62.9131
841.177	62.724
842.864	62.461
844.55	61.9883
846.237	59.6703
847.924	57.0893
849.61	56.4179
851.295	56.2949
852.98	54.4865
854.666	52.7576
856.349	52.0093
858.034	51.1309
859.719	51.1889
861.403	50.6153
863.085	50.9635
864.769	50.1157
866.452	48.4143
868.133	49.8167
869.816	49.8345
871.498	52.2658
873.179	52.0657
874.86	53.3926
876.54	54.552
878.221	53.8898
879.902	53.7142
881.58	54.1761
883.26	53.2924
884.938	51.6218
886.618	51.3949
888.297	51.1152
889.974	50.8371
891.653	50.4006
893.329	49.792
895.007	50.2528
896.683	50.9847
898.36	50.5277
900.035	49.9182
901.712	46.9015
903.387	46.9474
905.063	47.4659
906.737	47.0113
908.412	46.5713
910.085	46.0196
911.76	45.1707
913.433	43.4409
915.107	42.8524
916.779	41.5412
918.452	42.1218
920.124	40.8063
921.797	40.4482
923.467	39.0148
925.138	38.4416
926.81	36.8958
928.48	33.8556
930.151	31.509
931.82	32.2294
933.489	31.1729
935.16	29.9129
936.828	29.323
938.496	28.2852
940.165	27.1821
941.833	26.4711
943.5	23.9657
945.168	21.8153
946.834	19.4539
948.5	17.4789
950.168	16.8679
951.834	16.6364
953.499	13.0848
955.163	13.5146
956.83	11.4851
958.494	10.4039
960.158	9.07811
961.821	6.40743
963.487	7.56612
965.15	6.30289
966.812	8.03721
968.474	10.6711
970.138	13.9347
971.8	16.5695
973.461	17.2133
975.123	20.7208
976.783	23.5694
978.446	25.553
980.106	26.973
981.766	26.6635
983.425	28.3829
985.084	29.9076
986.743	31.4993
988.402	34.6522
990.06	36.0341
991.72	37.3407
993.378	37.5147
995.035	36.1896
996.692	37.0157
998.349	37.1975
1000.01	37.5808
1001.66	38.0957
1003.32	38.9065
1004.97	38.9408
1006.63	40.3645
1008.28	42.5642
1009.94	43.7127
1011.59	45.4627
1013.25	48.5965
1014.9	52.7172
1016.55	54.4866
1018.21	58.4669
1019.86	61.5742
1021.51	64.0101
1023.16	65.99
1024.81	68.4668
1026.47	70.9691
1028.12	74.9112
1029.77	79.224
1031.42	83.1149
1033.07	86.1126
1034.72	88.8331
1036.37	91.9631
1038.02	95.3477
1039.67	96.7844
1041.31	100.032
1042.96	103.695
1044.61	106.917
1046.26	110.632
1047.91	112.05
1049.55	114.631
1051.2	114.898
1052.84	114.43
1054.49	112.515
1056.14	112.375
1057.78	112.948
1059.43	111.047
1061.07	108.083
1062.72	105.992
1064.36	103.323
1066	100.221
1067.65	96.4608
1069.29	92.6398
1070.93	89.8155
1072.58	83.9431
1074.22	81.0247
1075.86	75.4004
1077.5	71.9646
1079.14	70.4015
1080.78	66.8797
1082.42	64.1413
1084.06	61.2296
1085.7	58.0268
1087.34	54.7449
1088.98	54.391
1090.62	54.2475
1092.26	54.8896
1093.9	57.2357
1095.54	58.8926
1097.17	59.276
1098.81	59.8109
1100.45	61.7329
1102.09	61.9789
1103.72	62.361
1105.36	63.2142
1106.99	63.9384
1108.63	65.6277
1110.27	66.2796
1111.9	66.2096
1113.53	65.8714
1115.17	63.8705
1116.8	64.1001
1118.43	62.8223
1120.07	60.9531
1121.7	60.0663
1123.33	58.6576
1124.97	56.1419
1126.6	52.6821
1128.23	49.5304
1129.86	46.1595
1131.49	43.8935
1133.12	40.9555
1134.75	39.4186
1136.38	38.7325
1138.01	38.1684
1139.64	36.0642
1141.27	32.9448
1142.9	30.2321
1144.53	28.3229
1146.16	24.999
1147.78	21.0925
1149.41	19.4889
1151.04	15.8967
1152.67	13.25
1154.29	11.0622
1155.92	10.2743
1157.54	6.31427
1159.17	4.83411
1160.8	2.59346
1162.42	0.0613723
1164.05	-2.41028
1165.67	-4.73936
1167.29	-3.85063
1168.92	-1.16898
1170.54	0.857203
1172.16	2.45731
1173.79	4.0765
1175.41	5.38397
1177.03	5.71462
1178.65	6.26716
1180.28	8.44061
1181.9	10.7712
1183.52	12.1336
1185.14	14.6568
1186.76	17.6448
1188.38	20.1817
1190	22.8378
1191.62	24.6453
1193.24	28.409
1194.86	31.0398
1196.47	33.3402
1198.09	35.9109
1199.71	37.4929
1201.33	40.5867
1202.95	44.3642
1204.56	47.2307
1206.18	51.3942
1207.8	54.6227
1209.41	59.1583
1211.03	64.019
1212.64	70.8342
1214.26	74.3583
1215.87	80.3756
1217.49	85.4162
1219.1	89.5701
1220.71	94.9959
1222.33	100.077
1223.94	103.172
1225.55	108.603
1227.16	112.677
1228.78	118.349
1230.39	122.651
1232	126.333
1233.61	132.126
1235.22	136.763
1236.83	139.877
1238.44	141.452
1240.05	146.75
1241.66	151.26
1243.27	154.158
1244.88	158.248
1246.49	161.938
1248.1	166.559
1249.71	170.639
1251.32	172.75
1252.92	174.065
1254.53	177.65
1256.14	180.056
1257.74	183.711
1259.35	187.689
1260.96	191.355
1262.56	195.48
1264.17	200.141
1265.77	205.691
1267.38	208.987
1268.98	214.175
1270.59	219.19
1272.19	224.258
1273.79	229.722
1275.4	233.482
1277	237.637
1278.6	241.557
1280.21	248.078
1281.81	252.85
1283.41	257.486
1285.01	261.509
1286.61	267.52
1288.21	271.69
1289.81	277.194
1291.41	282.164
1293.01	285.017
1294.61	287.786
1296.21	292.172
1297.81	293.922
1299.41	296.136
1301.01	298.545
1302.6	300.904
1304.2	301.834
1305.8	303.847
1307.4	304.147
1308.99	305.397
1310.59	304.98
1312.19	304.977
1313.78	305.084
1315.38	304.814
1316.97	303.502
1318.57	303.692
1320.16	302.758
1321.76	300.708
1323.35	296.878
1324.94	295.432
1326.54	293.542
1328.13	290.787
1329.72	289.184
1331.32	286.305
1332.91	284.048
1334.5	282.873
1336.09	281.394
1337.68	281.407
1339.27	280.628
1340.87	280.493
1342.45	279.545
1344.04	279.993
1345.64	277.744
1347.22	277.095
1348.81	277.26
1350.4	276.399
1351.99	276.097
1353.58	275.798
1355.17	274.028
1356.75	272.559
1358.34	271.845
1359.93	271.319
1361.51	268.386
1363.1	265.999
1364.69	265.045
1366.27	265.216
1367.86	261.792
1369.44	260.006
1371.03	257.007
1372.61	255.148
1374.2	252.517
1375.78	249.813
1377.37	246.537
1378.95	245.752
1380.53	244.275
1382.11	242.108
1383.7	240.181
1385.28	240.046
1386.86	238.752
1388.44	237.638
1390.02	235.205
1391.6	234.312
1393.19	234.312
1394.77	233.462
1396.35	233.051
1397.93	230.649
1399.51	227.948
1401.08	229.365
1402.66	232.33
1404.24	238.785
1405.82	243.729
1407.4	248.164
1408.97	256.068
1410.55	263.269
1412.13	270.936
1413.71	279.611
1415.28	290.665
1416.86	300.515
1418.43	311.42
1420.01	321.025
1421.59	331.533
1423.16	343.009
1424.73	354.882
1426.31	369.709
1427.88	383.207
1429.46	396.01
1431.03	408.629
1432.6	420.063
1434.18	430.48
1435.75	441.771
1437.32	452.065
1438.89	458.685
1440.46	464.701
1442.04	469.793
1443.61	475.735
1445.18	478.349
1446.75	478.985
1448.32	478.004
1449.89	475.784
1451.46	473.531
1453.03	470.069
1454.6	465.057
1456.16	457.497
1457.73	450.129
1459.3	441.1
1460.87	430.971
1462.44	420.065
1464	406.031
1465.57	390.521
1467.14	376.665
1468.7	362.137
1470.27	348.073
1471.83	331.319
1473.4	315.207
1474.96	300.004
1476.53	283.807
1478.09	271.323
1479.66	260.844
1481.22	249.035
1482.78	236.099
1484.35	222.431
1485.91	211.527
1487.47	202.495
1489.04	193.035
1490.6	184.213
1492.16	176.071
1493.72	168.489
1495.28	161.907
1496.84	155.937
1498.4	150.957
1499.96	148.371
1501.52	144.429
1503.08	143.193
1504.64	142.099
1506.2	140.019
1507.76	137.981
1509.32	138.394
1510.88	136.276
1512.44	135.176
1513.99	135.042
1515.55	133.989
1517.11	133.609
1518.66	134.89
1520.22	135.093
1521.78	136.649
1523.33	135.62
1524.89	136.396
1526.44	136.945
1528	138.638
1529.55	141.501
1531.11	144.04
1532.66	143.378
1534.21	145.584
1535.77	149.297
1537.32	152.008
1538.87	154.091
1540.43	156.796
1541.98	160.066
1543.53	165.641
1545.08	168.867
1546.63	173.039
1548.18	176.4
1549.74	179.079
1551.29	183.208
1552.84	187.121
1554.39	190.532
1555.94	194.429
1557.48	196.924
1559.03	199.382
1560.58	202.417
1562.13	205.167
1563.68	208.928
1565.23	212.357
1566.78	215.996
1568.32	219.154
1569.87	220.988
1571.42	223.714
1572.96	228.532
1574.51	231.951
1576.05	235.321
1577.6	237.817
1579.14	241.248
1580.69	246.286
1582.24	249.951
1583.78	252.692
1585.32	256.919
1586.87	260.633
1588.41	263.037
1589.95	266.124
1591.5	269.196
1593.04	271.593
1594.58	273.437
1596.12	274.301
1597.67	274.522
1599.21	273.627
1600.75	272.107
1602.29	272.693
1603.83	272.839
1605.37	272.763
1606.91	272.592
1608.45	270.729
1609.99	269.402
1611.53	269.823
1613.07	269.195
1614.6	268.328
1616.14	269.524
1617.68	269.294
1619.22	269.006
1620.75	268.975
1622.29	267.054
1623.83	268.889
1625.37	267.596
1626.9	266.621
1628.44	267.401
1629.97	268.028
1631.51	268.447
1633.04	269.554
1634.58	269.349
1636.11	270.717
1637.65	271.457
1639.18	272.023
1640.72	273.365
1642.25	275.062
1643.78	275.577
1645.31	275.914
1646.85	275.931
1648.38	276.537
1649.91	277.946
1651.44	277.522
1652.97	276.212
1654.5	275.449
1656.03	275.929
1657.56	275.232
1659.1	271.851
1660.62	269.497
1662.15	266.361
1663.68	262.199
1665.21	258.067
1666.74	251.785
1668.27	245.957
1669.8	239.019
1671.32	232.91
1672.85	225.781
1674.38	217.079
1675.91	208.694
1677.43	201.037
1678.96	192.72
1680.49	184.428
1682.01	174.296
1683.54	165.795
1685.06	158.643
1686.59	151.6
1688.11	143.932
1689.64	136.604
1691.16	130.336
1692.68	123.445
1694.21	115.153
1695.73	109.787
1697.25	104.527
1698.78	99.172
1700.3	94.5448
1701.82	88.3822
1703.34	84.9304
1704.86	81.6482
1706.39	76.9664
1707.91	74.0886
1709.43	72.1161
1710.95	69.3032
1712.47	66.4903
1713.99	64.3901
1715.51	62.2632
1717.02	60.9198
1718.54	59.374
1720.06	56.9628
1721.58	54.8009
1723.1	52.6431
1724.62	51.9135
1726.13	51.755
1727.65	49.323
1729.17	47.4584
1730.68	46.5108
1732.2	45.3707
1733.72	43.4405
1735.23	41.1468
1736.75	40.6281
1738.26	39.0691
1739.78	38.6359
1741.29	37.3413
1742.81	34.7894
1744.32	34.044
1745.84	33.2228
1747.35	31.6776
1748.86	29.1272
1750.37	26.9989
1751.89	25.9183
1753.4	23.8779
1754.91	22.5208
1756.42	21.605
1757.93	19.565
1759.45	19.0278
1760.96	17.3853
1762.47	15.4111
1763.98	13.6673
1765.49	12.8555
1767	12.2694
1768.51	11.2102
1770.02	10.4241
1771.53	10.0011
1773.03	9.2203
1774.54	8.2334
1776.05	7.09871
1777.56	7.38299
1779.07	7.61732
1780.57	7.07113
1782.08	7.61925
1783.59	8.4475
1785.09	8.38609
1786.6	7.6047
1788.11	7.00625
1789.61	7.23523
1791.12	6.7498
1792.62	5.15113
1794.13	3.22228
1795.63	3.41189
1797.13	3.0462
1798.64	3.34211
1800.14	2.96139
1801.65	1.74338
1803.15	0.871979
1804.65	0.942665
1806.15	1.25004
1807.66	1.06777
1809.16	1.19856
1810.66	2.12811
1812.16	1.94316
1813.66	1.3115
1815.16	1.15394
1816.66	1.14483
1818.16	0.854148
1819.66	0.937632
1821.16	1.24496
1822.66	0.988839
1824.16	1.18924
1825.66	1.17355
1827.16	1.52092
1828.66	1.10783
1830.16	1.05029
1831.65	0.379854
1833.15	0.56891
1834.65	1.32594
1836.14	0.756832
1837.64	0.149936
1839.14	1.25048
1840.63	1.72978
1842.13	2.11977
1843.62	2.9976
1845.12	2.05564
1846.61	1.56589
1848.11	1.79363
1849.6	2.11695
1851.1	2.24098
1852.59	3.20492
1854.08	2.68585
1855.58	2.46809
1857.07	2.24182
1858.56	2.28856
1860.05	2.15604
1861.55	1.23069
1863.04	0.650374
1864.53	0.721077
1866.02	1.05339
1867.51	0.866208
1869	2.14838
1870.49	2.88542
1871.98	3.19425
1873.47	3.55907
1874.96	3.40984
1876.45	3.95895
1877.94	3.72977
1879.43	4.23741
1880.92	4.74739
1882.41	6.19088
1882.51	6.19983
1884	6.59819
1885.5	6.21569
1886.99	6.4176
1888.48	7.0039
1889.98	6.93769
1891.47	6.20025
1892.96	6.9082
1894.46	7.09069
1895.95	6.52836
1897.44	6.32123
1898.93	5.50081
1900.42	4.73668
1901.91	5.06061
1903.41	6.6609
1904.9	6.48884
1906.39	6.9129
1907.88	6.79917
1909.37	6.07388
1910.86	5.76696
1912.35	5.79893
1913.83	5.54969
1915.32	5.63191
1916.81	4.94478
1918.3	3.67141
1919.79	3.84772
1921.27	4.90717
1922.76	5.06372
1924.25	6.09962
1925.74	6.4514
1927.22	6.53279
1928.71	5.54364
1930.19	5.78394
1931.68	5.75607
1933.17	5.44138
1934.65	5.47965
1936.14	6.86873
1937.62	7.87015
1939.11	8.76591
1940.59	9.0493
1942.07	10.0971
1943.56	10.7945
1945.04	11.2207
1946.52	11.0287
1948.01	11.4768
1949.49	12.3778
1950.97	12.2574
1952.45	13.1275
1953.93	13.0761
1955.42	13.1795
1956.9	11.6792
1958.38	10.6876
1959.86	10.3649
1961.34	9.2455
1962.82	8.16398
1964.3	7.61299
1965.78	7.48057
1967.26	7.80025
1968.74	7.12166
1970.21	7.32854
1971.69	7.09657
1973.17	6.77713
1974.65	8.06636
1976.13	8.8082
1977.6	8.4124
1979.08	6.74451
1980.56	6.59602
1982.03	5.45923
1983.51	4.48932
1984.99	4.36648
1986.46	4.97751
1987.94	5.68188
1989.41	5.71083
1990.89	6.2729
1992.36	6.92758
1993.84	8.3416
1995.31	9.26414
1996.78	9.55599
1998.26	10.9167
1999.73	11.1387
2001.2	9.83622
2002.68	9.52877
2004.15	11.1411
2005.62	11.9824
2007.09	12.5315
2008.56	12.4989
2010.04	12.9964
2011.51	12.8689
2012.98	13.3067
2014.45	13.5307
2015.92	14.5134
2017.39	13.8931
2018.86	11.8254
2020.33	12.5593
2021.8	12.3458
2023.26	11.8499
2024.73	11.4685
2026.2	11.7438
2027.67	11.3549
2029.14	11.1886
2030.61	11.4213
2032.07	11.5013
2033.54	11.9978
2035.01	11.4961
2036.47	12.0406
2037.94	12.344
2039.4	11.5441
2040.87	11.9545
2042.33	12.5827
2043.8	12.1796
2045.27	12.528
2046.73	11.8044
2048.19	12.4987
2049.66	12.7873
2051.12	13.3539
2052.59	13.864
2054.05	14.2562
2055.51	16.1137
2056.97	16.2373
2058.44	17.3531
2059.9	17.9846
2061.36	19.0626
2062.82	19.4961
2064.28	19.9742
2065.74	20.1945
2067.21	21.1847
2068.67	21.2492
2070.13	21.0155
2071.59	21.8678
2073.05	22.1675
2074.51	21.7964
2075.96	22.9404
2077.42	23.1011
2078.88	23.2332
2080.34	22.7866
2081.8	22.5724
2083.26	23.2653
2084.72	23.0895
2086.17	23.9248
2087.63	24.1471
2089.09	24.9395
2090.54	24.4028
2092	25.5644
2093.45	27.187
2094.91	27.6182
2096.37	29.7923
2097.82	31.2873
2099.28	31.8358
2100.73	32.5446
2102.19	33.1361
2103.64	34.0012
2105.09	33.886
2106.55	34.4245
2108	34.5802
2109.45	34.5577
2110.91	35.327
2112.36	36.428
2113.81	38.6637
2115.26	39.5497
2116.72	40.555
2118.17	43.0836
2119.62	43.138
2121.07	46.3632
2122.52	48.3601
2123.97	49.3733
2125.42	50.8128
2126.87	51.9906
2128.32	54.4002
2129.77	55.6507
2131.22	58.8235
2132.67	60.8372
2134.11	63.0918
2135.56	64.888
2137.01	68.3979
2138.46	72.0478
2139.91	73.8783
2141.35	76.4025
2142.8	79.6822
2144.25	83.1026
2145.7	86.3269
2147.14	90.1284
2148.59	93.0739
2150.03	96.0655
2151.48	100.003
2152.92	103.695
2154.37	106.995
2155.81	111.222
2157.26	114.818
2158.7	119.063
2160.15	122.299
2161.59	125.487
2163.03	127.384
2164.47	130.716
2165.92	133.501
2167.36	136.465
2168.8	139.147
2170.24	140.281
2171.69	141.728
2173.13	143.082
2174.57	143.794
2176.01	144.714
2177.45	145.106
2178.89	145.252
2180.33	144.507
2181.77	143.882
2183.21	143.383
2184.65	142.633
2186.09	141.735
2187.53	139.351
2188.97	137.941
2190.4	136.081
2191.84	134.149
2193.28	132.676
2194.72	128.871
2196.16	125.759
2197.59	122.915
2199.03	120.424
2200.47	118.675
2201.9	115.644
2203.34	111.068
2204.77	107.3
2206.21	103.853
2207.64	101.449
2209.08	98.3088
2210.51	93.8258
2211.95	89.583
2213.38	87.6331
2214.82	84.444
2216.25	81.4178
2217.68	80.0854
2219.12	77.854
2220.55	75.4568
2221.98	72.6589
2223.41	70.4927
2224.85	68.0741
2226.28	66.1596
2227.71	64.088
2229.14	61.379
2230.57	58.2088
2232	54.9167
2233.43	53.1493
2234.86	50.9835
2236.29	49.7041
2237.72	47.6777
2239.15	45.8884
2240.58	44.5542
2242.01	42.5611
2243.44	42.0247
2244.87	40.854
2246.29	40.3077
2247.72	39.4134
2249.15	38.2518
2250.58	36.8622
2252.01	35.2382
2253.43	33.3501
2254.86	32.2392
2256.29	32.5985
2257.71	32.07
2259.14	31.0704
2260.56	31.1854
2261.99	30.3303
2263.41	29.3802
2264.84	28.2111
2266.26	27.7249
2267.69	27.529
2269.11	27.3143
2270.53	26.0369
2271.96	25.0053
2273.38	23.528
2274.8	22.701
2276.23	23.0779
2277.65	22.6584
2279.07	21.958
2280.49	20.6423
2281.91	19.8696
2283.34	20.7344
2284.76	21.7041
2286.18	21.5266
2287.6	22.3718
2289.02	21.7481
2290.44	19.9075
2291.86	19.1016
2293.28	18.3755
2294.7	17.8204
2296.12	18.551
2297.54	18.2689
2298.96	16.8943
2300.37	16.2813
2301.79	15.3744
2303.21	15.1273
2304.63	16.2368
2306.04	15.1089
2307.46	15.2198
2308.88	15.208
2310.3	15.4533
2311.71	15.3346
2313.13	14.741
2314.54	15.9156
2315.96	15.5887
2317.37	15.4837
2318.79	15.0583
2320.2	13.849
2321.62	13.642
2323.03	12.7318
2324.45	12.6195
2325.86	13.317
2327.27	14.3683
2328.69	13.0114
2330.1	12.6365
2331.51	13.125
2332.92	13.0695
2334.34	13.8157
2335.75	13.5823
2337.16	12.94
2338.57	12.4546
2339.98	11.5629
2341.39	10.3407
2342.8	10.3468
2344.21	10.2818
2345.63	9.82221
2347.04	9.47512
2348.45	8.68322
2349.85	8.2604
2351.26	8.39044
2352.67	8.07048
2354.08	8.36969
2355.49	7.71847
2356.9	6.58963
2358.3	6.36177
2359.71	5.92514
2361.12	6.46907
2362.53	7.27489
2363.93	7.66928
2365.34	7.25743
2366.75	8.37574
2368.15	8.01313
2369.56	7.81622
2370.97	7.45444
2372.37	7.53216
2373.77	8.08464
2375.18	9.14134
2376.59	8.47934
2377.99	9.40073
2379.39	9.7567
2380.8	11.1403
2382.2	11.7258
2383.6	12.7278
2385.01	13.6407
2386.41	13.8721
2387.81	13.9874
2389.21	14.0395
2390.62	14.5379
2392.02	14.5298
2393.42	13.3807
2394.82	14.1285
2396.22	14.4397
2397.62	14.356
2399.02	13.3132
2400.42	14.4342
2401.82	14.8079
2403.22	14.3357
2404.62	14.4569
2406.02	12.7897
2407.42	12.6658
2408.82	12.4309
2410.22	12.4217
2411.62	11.9608
2413.01	11.8013
2414.41	11.828
2415.81	11.7535
2417.21	11.7598
2418.6	11.445
2420	11.3745
2421.4	10.5261
2422.79	10.6218
2424.19	10.0573
2425.59	10.1013
2426.98	10.5165
2428.38	10.5655
2429.77	9.70107
2431.17	9.56355
2432.56	8.98688
2433.95	9.27012
2435.35	8.64572
2436.74	8.60617
2438.14	7.75198
2439.53	6.83028
2440.92	6.78004
2442.31	7.15801
2443.71	6.31353
2445.1	6.13112
2446.49	5.58237
2447.88	5.92999
2449.27	5.06925
2450.67	5.47449
2452.06	5.00902
2453.45	4.50608
2454.84	4.16765
2456.23	3.97017
2457.62	2.7195
2459.01	2.72165
2460.4	2.08413
2461.79	0.967209
2463.18	0.529173
2464.57	0.830016
2465.95	0.760406
2467.34	0.462602
2468.73	1.02366
2470.12	2.4075
2471.5	2.86723
2472.89	2.88783
2474.28	3.26426
2475.67	3.38332
2477.05	4.76537
2478.44	5.76779
2479.82	6.27948
2481.21	6.03942
2482.6	6.08831
2483.98	6.89565
2485.37	6.04456
2486.75	5.61244
2488.13	5.20176
2489.52	5.14325
2490.9	5.50358
2492.29	6.9708
2493.67	6.79571
2495.05	7.60571
2496.44	7.67262
2497.82	7.04112
2499.2	6.1959
2500.58	7.20097
2501.97	7.37497
2503.35	6.79557
2504.73	6.62736
2506.11	6.97822
2507.49	7.26538
2508.87	6.65348
2510.25	5.9631
2511.63	5.86958
2513.01	5.05872
2514.39	5.93018
2515.77	5.5918
2517.15	5.62108
2518.53	5.58598
2519.91	6.37364
2521.29	6.4327
2522.67	6.8212
2524.05	7.31666
2525.42	7.22871
2526.8	6.8835
2528.18	7.93008
2529.55	8.13477
2530.93	8.98617
2532.31	9.19754
2533.69	9.78946
2535.06	10.7639
2536.44	10.5666
2537.81	10.6675
2539.19	12.1398
2540.56	11.6096
2541.94	11.0492
2543.31	11.5867
2544.69	11.0287
2546.06	11.4854
2547.44	11.8281
2548.81	10.9562
2550.18	10.9472
2551.56	11.3555
2552.93	12.1798
2554.3	12.8304
2555.67	13.2496
2557.04	13.9786
2558.42	15.0137
2559.79	15.5038
2561.16	15.7353
2562.53	16.6384
2563.9	17.2694
2565.27	16.8697
2566.64	17.1076
2568.01	17.6363
2569.38	17.8188
2570.75	17.39
2572.12	16.1967
2573.49	16.7919
2574.86	16.7526
2576.23	16.5543
2577.6	15.7888
2578.97	15.1275
2580.33	16.3426
2581.7	16.1776
2583.07	16.4278
2584.44	15.9398
2585.8	16.7137
2587.17	18.1809
2588.54	18.9582
2589.9	19.6171
2591.27	19.2989
2592.64	19.3447
2594	19.4981
2595.37	20.0522
2596.73	19.4255
2598.1	19.4251
2599.46	18.4635
2600.83	17.2291
2602.19	17.5616
2603.55	17.8266
2604.92	16.9558
2606.28	16.9081
2607.64	16.8294
2609.01	14.8882
2610.37	14.6437
2611.73	14.6294
2613.09	14.636
2614.46	15.7146
2615.82	15.0416
2617.18	14.8289
2618.54	15.5788
2619.9	15.7816
2621.26	15.3513
2622.62	15.9151
2623.98	15.1092
2625.34	15.6146
2626.7	16.5181
2628.06	17.5281
2629.42	18.4919
2630.78	19.6114
2632.14	18.5906
2633.5	18.2513
2634.86	18.3704
2636.21	18.5339
2637.57	18.7266
2638.93	19.5191
2640.29	20.0219
2641.64	20.7728
2643	22.3526
2644.36	22.8184
2645.71	23.2461
2647.07	24.2398
2648.43	25.5372
2649.78	25.6621
2651.14	26.2107
2652.49	26.2029
2653.85	26.8294
2655.2	27.2641
2656.56	26.5886
2657.91	25.6866
2659.26	24.6054
2660.62	24.4283
2661.97	24.4893
2663.32	24.1259
2664.68	22.8249
2666.03	22.5158
2667.38	21.1556
2668.74	20.8886
2670.09	21.4058
2671.44	19.9069
2672.79	18.8794
2674.14	18.2196
2675.49	17.8868
2676.84	17.864
2678.19	17.8923
2679.54	18.4364
2680.89	19.4985
2682.24	19.577
2683.59	19.8213
2684.94	21.6669
2686.29	22.9665
2687.64	25.2346
2688.99	25.5048
2690.34	27.1188
2691.69	27.8911
2693.03	29.6723
2694.38	31.183
2695.73	32.0538
2697.08	32.6872
2698.42	34.6272
2699.77	36.7099
2701.12	40.1219
2702.46	43.7952
2703.81	46.0676
2705.15	47.9721
2706.5	49.5258
2707.85	51.9588
2709.19	53.7514
2710.54	57.0801
2711.88	57.8082
2713.22	58.8755
2714.57	60.2022
2715.91	60.3422
2717.26	60.8923
2718.6	60.5807
2719.94	60.9553
2721.29	60.9696
2722.63	60.8832
2723.97	60.407
2725.31	59.8697
2726.66	59.3988
2728	58.1296
2729.34	57.9989
2730.68	56.8261
2732.02	54.9946
2733.36	53.2629
2734.7	52.0974
2736.04	50.9339
2737.38	49.0016
2738.72	46.3688
2740.06	45.0825
2741.4	42.9715
2742.74	41.3872
2744.08	39.4906
2745.42	37.9257
2746.76	36.9887
2748.09	35.4325
2749.43	33.5944
2750.77	31.985
2752.11	31.304
2753.45	29.6172
2754.78	28.0785
2756.12	25.1915
2757.46	24.7623
2758.79	23.1119
2760.13	22.4475
2761.46	20.9424
2762.8	20.6763
2764.14	19.9343
2765.47	19.9295
2766.8	18.9039
2768.14	18.0382
2769.47	16.5745
2770.81	14.0697
2772.14	12.9233
2773.48	12.2558
2774.81	11.7786
2776.14	10.1577
2777.48	9.74015
2778.81	7.72856
2780.14	7.84451
2781.47	6.95612
2782.8	5.97671
2784.14	5.55459
2785.47	4.58834
2786.8	5.77569
2788.13	5.24024
2789.46	5.34516
2790.79	5.0266
2792.12	4.77089
2793.45	4.34328
2794.78	4.61516
2796.11	4.8421
2797.44	4.56159
2798.77	4.46219
2800.1	4.61129
2801.43	4.60955
2802.76	4.59571
2804.09	4.10601
2805.41	3.9273
2806.74	3.27512
2808.07	2.29275
2809.4	2.39699
2810.72	2.8068
2812.05	3.34704
2813.38	5.25983
2814.71	8.37878
2816.03	13.8609
2817.36	20.5019
2818.68	29.7386
2820.01	40.578
2821.33	52.6926
2822.66	65.1639
2823.98	80.1445
2825.31	96.2258
2826.63	112.777
2827.96	130.563
2829.28	148.166
2830.6	166.466
2831.93	186.557
2833.25	206.39
2834.57	227.554
2835.9	248.346
2837.22	268.992
2838.54	290.109
2839.86	312.077
2841.18	333.458
2842.5	354.788
2843.83	375.262
2845.15	395.133
2846.47	414.699
2847.79	433.327
2849.11	454.493
2850.43	477.746
2851.75	501.851
2853.07	528.505
2854.39	554.447
2855.71	580.57
2857.03	606.379
2858.35	631.785
2859.66	654.401
2860.98	677.141
2862.3	696.564
2863.62	715.191
2864.94	731.192
2866.25	745.4
2867.57	758.512
2868.89	769.915
2870.2	778.794
2871.52	787.002
2872.84	794.643
2874.15	801.391
2875.47	807.78
2876.78	813.939
2878.1	820.171
2879.41	827.454
2880.73	834.38
2882.04	840.93
2883.36	845.349
2884.67	851.548
2885.99	857.263
2887.3	860.966
2888.61	863.84
2889.93	867.252
2891.24	869.961
2892.55	871.273
2893.86	873.343
2895.18	874.604
2896.49	877.84
2897.8	879.391
2899.11	880.316
2900.42	883.065
2901.73	882.856
2903.05	885.206
2904.36	888.005
2905.67	891.883
2906.98	896.617
2908.29	902.083
2909.6	908.21
2910.91	918.67
2912.21	930.008
2913.52	944.444
2914.83	961.118
2916.14	978.484
2917.45	994.513
2918.76	1010.83
2920.07	1023.23
2921.37	1033.73
2922.68	1041.28
2923.99	1047.38
2925.29	1051.82
2926.6	1055.39
2927.91	1055.35
2929.22	1055.09
2930.52	1053.23
2931.83	1050.86
2933.13	1046
2934.44	1039.54
2935.74	1030.47
2937.05	1020.62
2938.35	1009.19
2939.66	995.971
2940.96	981.693
2942.26	965.943
2943.57	949.327
2944.87	930.65
2946.18	911.783
2947.48	890.871
2948.78	869.413
2950.08	849.079
2951.39	826.809
2952.69	803.118
2953.99	780.997
2955.29	758.839
2956.59	737.126
2957.9	715.056
2959.2	693.047
2960.5	670.872
2961.8	648.448
2963.1	626.734
2964.4	606.411
2965.7	586.021
2967	565.679
2968.3	548.286
2969.6	530.005
2970.9	512.605
2972.19	495.91
2973.49	479.083
2974.79	463.45
2976.09	449.18
2977.39	432.941
2978.68	417.985
2979.98	402.489
2981.28	386.444
2982.58	369.593
2983.87	352.886
2985.17	335.748
2986.47	319.149
2987.76	301.782
2989.06	286.984
2990.35	271.781
2991.65	256.145
2992.94	241.133
2994.24	227.322
2995.53	213.618
2996.83	200.112
2998.12	186.121
2999.42	172.866
3000.71	159.486
3002	148.028
3003.3	136.524
3004.59	125.08
3005.88	113.782
3007.18	103.433
3008.47	93.9499
3009.76	84.5769
3011.05	75.9127
3012.34	66.5208
3013.64	59.5425
3014.93	52.7569
3016.22	45.5378
3017.51	40.121
3018.8	34.9587
3020.09	29.4654
3021.38	25.5102
3022.67	20.7044
3023.96	16.0408
3025.25	12.718
3026.54	10.1152
3027.83	8.53346
3029.12	6.01499
3030.41	3.98766
3031.69	2.37152
3032.98	1.01752
3034.27	1.02942
3035.56	1.13682
3036.84	2.02514
3038.13	2.59632
3039.42	3.24661
3040.71	4.38645
3041.99	5.07416
3043.28	5.44723
3044.57	6.45946
3045.85	7.18668
3047.14	8.21363
3048.42	9.16081
3049.71	9.59291
3050.99	9.57785
3052.28	10.8528
3053.56	12.7337
3054.85	12.9842
3056.13	14.1783
3057.41	14.2716
3058.7	15.0295
3059.98	14.7856
3061.26	14.8868
3062.55	14.66
3063.83	14.7099
3065.11	15.0274
3066.39	14.8421
3067.68	13.4815
3068.96	13.0239
3070.24	12.9509
3071.52	12.0487
3072.8	10.3574
3074.08	9.2107
3075.36	7.44329
3076.65	5.9334
3077.93	5.2217
3079.21	3.733
3080.49	2.39012
3081.77	1.47337
3083.04	0.542028
3084.32	0.136938
3085.6	-0.117284
3086.88	-1.20664
3088.16	-0.868673
3089.44	-0.579911
3090.72	-0.545171
3091.99	-0.084358
3093.27	0.249224
3094.55	1.29446
3095.83	2.38553
3097.1	4.90699
3098.38	6.30751
3099.66	7.96337
3100.93	9.89662
3102.21	11.098
3103.49	13.4044
3104.76	15.236
3106.04	16.6266
3107.31	18.3816
3108.59	20.7698
3109.86	22.0178
3111.14	24.2267
3112.41	26.4191
3113.69	28.4381
3114.96	30.8565
3116.23	33.1785
3117.51	35.2324
3118.78	37.5059
3120.05	40.3587
3121.33	42.5632
3122.6	45.763
3123.87	48.6241
3125.14	51.9758
3126.41	54.7317
3127.69	57.7521
3128.96	60.7853
3130.23	63.3492
3131.5	66.3449
3132.77	70.251
3134.04	73.2241
3135.31	75.672
3136.58	79.1386
3137.85	83.4939
3139.12	87.3485
3140.39	91.578
3141.66	96.5457
3142.93	101.322
3144.2	106.799
3145.47	112.826
3146.74	118.657
3148	126.154
3149.27	133.747
