#Acq. time (s)=	45
#Accumulations=	2
#Range (cm-¹)=	200...3150
#Windows=	2
#Auto scanning=	Off
#Autofocus=	Off
#Macrospot=	Off
#AutoExposure=	Off
#Spike filter=	Multiple accum.
#Delay time (s)=	0
#Binning=	1
#Readout mode=	Signal
#DeNoise=	Off
#ICS correction=	On
#Dark correction=	Off
#Inst. Process=	Off
#Detector Gain=	Best Dynamic Range
#Detector ADC=	20 kHz       
#Detector temperature (°C)=	-69.85
#Instrument=	LabRAM HR Evol
#Detector=	Synapse
#Objective=	x100
#Grating=	600 gr/mm
#ND Filter=	100%
#Laser (nm)=	532 
#Hole=	100.021
#Range=	Auto
#Laser Pol.=	No
#Raman. Pol.=	No
#Laser Pol. (°)=	-0.0007625
#Raman Pol. (°)=	89.9995
#Collection=	Microscope
#StageXY=	Marzhauser
#StageZ=	Marzhauser
#X (µm)=	28058.5
#Y (µm)=	-563.4
#Z (µm)=	1083.7
#Full time(mm:ss)=	3:19
#Project=	
#Sample=	
#Site=	
#Title=	Mb_30_27_02_2x_45s_532 nm_x100_100%_600 gr_mm
#Remark=	
#Date=	12.07.2022 15:34
#Acquired=	12.07.2022 15:34:39
#Base:Fit=	10.08.2022 10:39:47
#Base:Sub=	10.08.2022 10:39:55
#Base:Fit=	10.08.2022 10:40:03
#Base:Sub=	10.08.2022 10:40:17
#Filter:Polynom=	16.08.2022 10:16:15
#AxisType[0]=Intens
#AxisUnit[0]=Cnt
#AxisType[1]=Spectr
#AxisUnit[1]=1/cm
200.388	10.2627
202.204	12.4722
204.019	12.4239
205.832	12.3612
207.646	11.8685
209.459	11.7792
211.274	11.805
213.087	11.915
214.899	11.7002
216.711	10.705
218.524	10.261
220.335	10.8126
222.146	12.0129
223.956	13.7206
225.766	13.4714
227.576	13.5885
229.388	14.4188
231.197	14.4062
233.005	13.2176
234.813	11.3474
236.621	10.9237
238.429	10.7804
240.236	10.8963
242.045	11.1427
243.852	11.1491
245.658	11.491
247.464	10.7691
249.269	10.8732
251.074	11.0267
252.879	11.7253
254.683	12.7681
256.487	13.7218
258.291	13.5777
260.094	14.019
261.897	14.401
263.702	13.5844
265.504	15.4267
267.306	15.8074
269.108	16.5691
270.909	17.6702
272.71	18.348
274.511	17.3899
276.311	18.0208
278.111	18.176
279.91	18.1034
281.709	19.3113
283.508	19.9751
285.306	19.7069
287.105	19.6862
288.9	19.3148
290.698	19.8434
292.495	21.0219
294.291	22.5589
296.088	23.5294
297.884	25.4205
299.679	25.7105
301.475	25.9223
303.27	25.9441
305.064	25.9588
306.858	26.513
308.652	27.644
310.444	29.1206
312.237	29.8227
314.03	28.5729
315.822	27.1186
317.615	27.1412
319.406	26.6585
321.198	25.714
322.987	24.0704
324.778	23.2892
326.568	23.8993
328.358	23.8361
330.148	23.7668
331.935	23.0579
333.724	22.6433
335.513	23.3059
337.301	23.3019
339.089	23.4561
340.875	22.6987
342.662	22.0632
344.449	22.7947
346.236	22.1816
348.02	21.647
349.806	21.4527
351.592	21.8455
353.375	22.8004
355.16	23.7816
356.944	23.9852
358.728	24.9163
360.51	24.6831
362.294	24.1615
364.077	25.0935
365.858	25.6007
367.64	25.141
369.422	25.2245
371.202	25.1172
372.983	25.4306
374.764	24.904
376.543	25.715
378.324	26.4824
380.102	27.1541
381.881	27.3202
383.661	26.5938
385.438	26.4125
387.216	26.4898
388.993	26.2044
390.771	26.1466
392.548	26.0185
394.324	25.1863
396.101	24.6712
397.875	24.4544
399.651	23.9645
401.425	22.6389
403.201	21.1612
404.974	20.404
406.749	19.3903
408.524	18.6198
410.296	18.6485
412.07	17.885
413.841	17.8685
415.614	17.862
417.385	17.8883
419.156	17.6763
420.928	16.8895
422.698	16.6177
424.469	17.0705
426.238	15.8468
428.009	15.2428
429.777	14.7541
431.548	15.1201
433.315	15.3413
435.083	15.7301
436.852	17.2314
438.618	18.6236
440.387	19.9555
442.153	20.2941
443.919	20.3126
445.686	21.2841
447.451	21.6162
449.218	21.2205
450.982	21.8606
452.746	22.8444
454.512	22.8118
456.275	22.3675
458.038	22.1421
459.803	22.6763
461.565	23.708
463.327	22.9681
465.091	23.969
466.852	23.8953
468.613	24.546
470.374	25.1623
472.136	26.0071
473.896	28.2702
475.655	29.7382
477.415	30.773
479.176	31.5149
480.934	31.0754
482.692	31.6188
484.45	32.5983
486.21	33.9405
487.967	34.7341
489.724	34.7176
491.481	35.1092
493.237	35.3011
494.995	35.9066
496.75	37.3273
498.506	37.8364
500.26	37.9522
502.015	38.0809
503.771	38.4077
505.525	38.9061
507.279	39.0659
509.032	38.5348
510.785	38.5445
512.537	38.8985
514.289	37.5806
516.041	38.0451
517.793	37.4016
519.546	37.7792
521.297	37.6349
523.047	37.7169
524.797	36.4875
526.547	35.9586
528.297	34.1642
530.046	32.7752
531.795	31.6887
533.543	30.6741
535.291	29.1979
537.039	28.2209
538.787	27.1874
540.534	26.4079
542.281	25.7868
544.027	23.742
545.773	22.8218
547.519	22.1004
549.264	21.1213
551.01	20.5576
552.754	21.4364
554.499	20.7108
556.243	20.3508
557.987	19.8503
559.73	20.8543
561.474	21.6003
563.216	20.9593
564.959	20.5532
566.701	20.7398
568.441	20.4742
570.182	20.4371
571.923	19.8233
573.664	18.8442
575.405	17.8139
577.145	16.7979
578.885	16.4021
580.624	16.4
582.361	16.197
584.1	17.0696
585.839	16.3248
587.577	16.4404
589.315	16.0536
591.052	15.4012
592.787	15.2928
594.524	14.7355
596.26	14.8635
597.997	14.982
599.732	15.0014
601.466	14.7197
603.201	15.1696
604.936	13.7915
606.67	13.6433
608.403	12.4431
610.136	11.8463
611.87	11.8132
613.603	12.3125
615.334	12.2167
617.067	11.7169
618.799	11.7246
620.529	12.9661
622.26	13.6924
623.991	13.8202
625.72	14.3118
627.451	14.7521
629.181	14.6642
630.909	14.8631
632.638	15.9747
634.368	17.1696
636.095	17.8136
637.823	18.1025
639.551	18.6942
641.277	19.1921
643.005	21.1245
644.73	22.3017
646.457	23.8447
648.184	23.694
649.908	24.0118
651.634	23.9986
653.357	24.0693
655.083	23.8895
656.806	23.3614
658.53	22.8567
660.253	22.6005
661.977	23.8196
663.7	24.6542
665.422	24.8584
667.145	25.1638
668.865	24.722
670.588	25.1743
672.308	24.6042
674.027	25.4291
675.749	25.6844
677.468	26.1017
679.188	27.4851
680.907	28.0479
682.627	28.7572
684.345	28.1723
686.064	28.425
687.781	28.429
689.498	28.8602
691.216	29.3086
692.932	31.1827
694.65	31.6823
696.366	33.9202
698.081	34.5859
699.797	35.4403
701.512	36.2717
703.228	36.8044
704.942	38.1508
706.655	38.7395
708.371	38.5228
710.083	38.8895
711.796	40.2612
713.51	40.7357
715.222	41.4083
716.934	42.4897
718.645	44.0902
720.358	45.3528
722.068	45.801
723.779	46.941
725.49	48.8716
727.2	50.1979
728.909	51.3562
730.618	50.7049
732.329	51.4205
734.037	52.1023
735.745	52.0072
737.453	52.3822
739.16	53.6836
740.869	54.3147
742.576	54.7955
744.282	56.1492
745.988	57.6471
747.694	59.1712
749.401	59.9741
751.107	60.6799
752.811	62.2014
754.516	62.9476
756.22	63.6642
757.924	63.3747
759.627	64.0574
761.332	65.0829
763.035	67.0615
764.738	68.236
766.44	68.4464
768.142	69.788
769.843	71.092
771.544	72.5002
773.245	73.1329
774.946	74.1314
776.646	75.0025
778.346	76.1416
780.046	76.3807
781.745	77.0124
783.444	76.8128
785.143	77.5336
786.841	78.2856
788.539	78.287
790.237	78.5607
791.934	79.93
793.631	81.1081
795.328	81.5314
797.024	81.6479
798.72	82.4429
800.416	82.6312
802.112	83.3225
803.807	84.3188
805.502	84.7461
807.196	85.241
808.89	85.031
810.584	86.2677
812.278	86.5296
813.971	86.781
815.664	86.5073
817.354	86.7521
819.047	86.8285
820.739	86.1124
822.43	86.7877
824.122	87.4564
825.813	86.5734
827.503	86.0061
829.192	86.2747
830.882	84.9376
832.571	84.9259
834.261	84.0747
835.95	82.9969
837.637	81.2539
839.325	78.9651
841.013	77.1573
842.701	77.0119
844.389	77.0555
846.074	75.8444
847.761	74.9788
849.447	73.1365
851.131	71.9862
852.817	70.248
854.503	68.0503
856.188	66.747
857.871	65.507
859.556	64.568
861.24	63.066
862.922	62.0402
864.606	60.8025
866.289	59.837
867.97	59.3568
869.653	58.8837
871.336	57.8743
873.016	56.3872
874.698	55.5428
876.379	54.6549
878.058	52.3087
879.739	51.4285
881.418	50.2584
883.098	49.5171
884.778	48.4238
886.456	48.7192
888.135	48.9656
889.812	48.708
891.49	48.639
893.167	47.7852
894.845	48.121
896.523	47.6906
898.198	46.7292
899.875	45.8012
901.55	45.3644
903.226	45.9874
904.901	45.3781
906.576	45.7865
908.25	45.9719
909.925	44.4598
911.598	43.6574
913.271	43.9046
914.945	43.2359
916.617	42.312
918.291	40.9509
919.962	40.2296
921.635	39.9475
923.306	40.3877
924.978	40.3939
926.648	41.6356
928.318	41.1562
929.989	41.0326
931.659	41.0537
933.328	40.1233
934.998	40.2692
936.666	39.1369
938.336	39.774
940.004	40.6161
941.671	40.1781
943.34	39.689
945.007	39.7498
946.673	40.2752
948.339	39.9084
950.007	40.9046
951.672	40.7366
953.337	40.4584
955.004	39.1368
956.669	39.2339
958.333	38.9533
959.997	39.82
961.662	39.0721
963.326	39.5008
964.989	38.5636
966.651	38.6084
968.315	39.9275
969.977	39.9784
971.639	38.9392
973.301	38.8831
974.962	39.3638
976.624	39.107
978.285	38.9736
979.945	39.1444
981.605	38.4127
983.264	39.6726
984.924	39.7186
986.583	39.4898
988.243	39.3978
989.901	39.3567
991.56	38.3569
993.217	37.383
994.875	36.4489
996.532	35.9581
998.188	34.6538
999.845	32.6932
1001.5	32.4251
1003.16	32.1963
1004.81	32.8959
1006.47	33.292
1008.12	34.0185
1009.78	35.1164
1011.43	35.6123
1013.09	36.4926
1014.74	37.5367
1016.39	38.2988
1018.05	39.5949
1019.7	40.0584
1021.35	41.8327
1023	41.9442
1024.65	41.7014
1026.31	42.8667
1027.96	43.2889
1029.61	43.6263
1031.26	44.5641
1032.91	45.9841
1034.56	45.7432
1036.21	45.9871
1037.86	45.3832
1039.51	45.3849
1041.16	45.1769
1042.8	44.822
1044.45	43.1351
1046.1	42.5359
1047.75	41.3999
1049.39	41.0955
1051.04	40.5463
1052.69	38.3742
1054.33	36.9041
1055.98	36.3187
1057.62	35.0982
1059.27	33.1453
1060.91	30.9024
1062.56	29.3702
1064.2	28.177
1065.85	26.5461
1067.49	23.5212
1069.13	21.3797
1070.77	20.1047
1072.42	17.3247
1074.06	15.281
1075.7	13.3433
1077.34	10.9632
1078.98	9.12802
1080.62	7.43807
1082.27	6.57994
1083.91	7.22777
1085.55	7.48375
1087.18	7.62198
1088.82	7.45656
1090.46	8.39825
1092.1	8.76536
1093.74	9.3432
1095.38	9.10824
1097.02	9.05784
1098.65	8.11711
1100.29	8.76718
1101.93	8.93618
1103.56	9.28718
1105.2	9.02827
1106.84	10.0618
1108.47	10.766
1110.11	10.5514
1111.74	11.0611
1113.38	11.8381
1115.01	11.68
1116.64	12.1375
1118.28	12.4429
1119.91	12.1134
1121.54	11.2406
1123.18	11.0328
1124.81	10.1812
1126.44	10.111
1128.07	10.101
1129.7	9.52993
1131.33	8.57687
1132.97	8.17839
1134.6	7.50653
1136.23	7.77136
1137.86	7.90773
1139.49	7.18275
1141.11	6.02002
1142.74	5.60543
1144.37	5.48098
1146	5.16122
1147.63	3.92536
1149.26	3.46597
1150.88	4.00789
1152.51	3.98639
1154.14	3.79671
1155.76	4.66798
1157.39	4.8029
1159.01	4.24122
1160.64	3.71334
1162.27	4.06851
1163.89	3.88994
1165.51	3.43838
1167.14	3.59631
1168.76	3.86219
1170.39	4.20737
1172.01	4.84335
1173.63	5.08194
1175.25	5.4232
1176.88	5.53123
1178.5	6.18695
1180.12	6.21869
1181.74	6.40347
1183.36	6.65863
1184.98	6.89748
1186.6	6.65347
1188.22	5.89767
1189.84	6.04416
1191.46	6.34633
1193.08	6.96689
1194.7	7.48217
1196.32	7.11878
1197.94	7.11586
1199.55	6.27764
1201.17	6.06763
1202.79	6.36674
1204.41	8.29158
1206.02	9.16178
1207.64	9.63892
1209.25	9.25776
1210.87	10.1881
1212.48	10.6389
1214.1	12.4275
1215.71	12.9683
1217.33	13.9738
1218.94	15.0064
1220.56	16.2676
1222.17	17.7485
1223.79	19.8696
1225.4	21.0393
1227.01	22.7913
1228.62	24.9401
1230.23	27.1024
1231.85	29.7384
1233.46	30.7737
1235.07	32.4934
1236.68	34.1699
1238.29	34.6041
1239.9	34.8011
1241.51	35.4733
1243.12	36.6722
1244.73	37.6695
1246.34	38.7101
1247.94	40.301
1249.55	40.3367
1251.16	40.4601
1252.77	41.8929
1254.37	42.3672
1255.98	42.379
1257.59	41.9064
1259.2	41.683
1260.8	41.6696
1262.41	40.9394
1264.01	40.5453
1265.62	40.4944
1267.22	40.1637
1268.83	40.4138
1270.43	40.7917
1272.03	41.0675
1273.64	41.7202
1275.24	41.0988
1276.85	41.2897
1278.45	40.9112
1280.05	41.8121
1281.65	42.8036
1283.25	42.6828
1284.85	42.3129
1286.46	41.7412
1288.06	41.103
1289.66	40.8764
1291.26	41.7481
1292.86	41.5329
1294.46	42.7849
1296.06	43.7362
1297.66	44.8532
1299.25	45.376
1300.85	47.297
1302.45	47.9482
1304.05	49.3369
1305.65	49.7974
1307.24	50.9051
1308.84	51.9839
1310.43	51.6396
1312.03	52.7049
1313.63	52.332
1315.22	53.1288
1316.82	52.699
1318.41	51.7282
1320.01	51.5907
1321.6	51.445
1323.2	51.8099
1324.79	52.0558
1326.38	51.6282
1327.98	51.4025
1329.57	50.7637
1331.16	51.0155
1332.76	51.0949
1334.35	49.8155
1335.94	49.3991
1337.53	49.699
1339.12	49.6168
1340.71	49.5476
1342.3	49.1975
1343.89	49.3916
1345.48	49.7132
1347.07	49.3175
1348.66	49.7778
1350.25	49.7097
1351.84	50.2553
1353.43	49.679
1355.01	48.4153
1356.6	48.3095
1358.19	47.2195
1359.77	47.8486
1361.36	46.6905
1362.95	45.7942
1364.53	45.3911
1366.12	44.7397
1367.71	43.9718
1369.29	43.7349
1370.88	43.1836
1372.46	42.8655
1374.04	42.4377
1375.63	41.8041
1377.21	40.9555
1378.8	40.4167
1380.38	40.0892
1381.96	38.8731
1383.54	37.966
1385.13	36.6226
1386.71	36.4045
1388.29	36.339
1389.87	35.1267
1391.45	35.1328
1393.03	33.5724
1394.61	32.5828
1396.19	30.4484
1397.77	30.4299
1399.35	29.8613
1400.93	29.1922
1402.51	28.6457
1404.09	27.699
1405.67	27.6417
1407.24	26.9018
1408.82	26.9301
1410.4	27.2793
1411.98	26.8732
1413.55	27.2712
1415.13	28.4636
1416.71	28.9331
1418.28	29.1857
1419.86	30.2062
1421.43	31.5701
1423.01	32.6328
1424.58	34.0503
1426.16	35.4867
1427.73	37.1898
1429.31	39.0233
1430.88	40.2858
1432.45	41.3183
1434.02	42.4721
1435.6	43.8344
1437.17	44.7426
1438.74	46.3878
1440.31	47.227
1441.88	47.9322
1443.45	49.003
1445.03	49.4193
1446.6	50.0001
1448.17	50.2441
1449.74	50.8321
1451.3	51.8789
1452.87	51.9768
1454.44	52.2374
1456.01	52.9751
1457.58	53.1563
1459.15	53.6076
1460.72	54.4387
1462.28	55.1374
1463.85	55.3366
1465.42	54.9854
1466.98	53.7972
1468.55	52.4904
1470.12	52.5296
1471.68	51.9874
1473.25	51.522
1474.81	50.4737
1476.38	50.1715
1477.94	48.5088
1479.51	47.7142
1481.07	46.5504
1482.63	45.5189
1484.2	44.2718
1485.76	42.0974
1487.32	40.7555
1488.88	39.4009
1490.45	38.4386
1492.01	37.57
1493.57	36.2358
1495.13	35.5745
1496.69	34.9131
1498.25	33.4543
1499.81	33.5245
1501.37	31.9227
1502.93	30.9912
1504.49	30.085
1506.05	29.946
1507.61	28.6685
1509.17	27.0732
1510.73	25.5587
1512.28	24.1643
1513.84	23.0005
1515.4	21.8664
1516.96	21.0292
1518.51	19.7991
1520.07	18.2541
1521.63	18.278
1523.18	17.5509
1524.74	16.1117
1526.29	15.7026
1527.85	15.3677
1529.4	14.6916
1530.96	14.0628
1532.51	14.5206
1534.06	15.3207
1535.62	15.6356
1537.17	15.8892
1538.72	15.2934
1540.28	15.9112
1541.83	15.9019
1543.38	16.425
1544.93	18.3365
1546.48	18.8042
1548.03	20.263
1549.59	21.1508
1551.14	21.6506
1552.69	22.2652
1554.24	23.4865
1555.79	23.5242
1557.34	24.2711
1558.88	24.3944
1560.43	24.9996
1561.98	24.8097
1563.53	25.3972
1565.08	26.3326
1566.62	28.2183
1568.17	29.0003
1569.72	29.9132
1571.27	30.9034
1572.81	31.7774
1574.36	31.9277
1575.9	33.3047
1577.45	34.963
1579	34.8706
1580.54	35.6103
1582.09	36.9201
1583.63	36.9749
1585.17	36.6683
1586.72	37.1402
1588.26	37.8123
1589.8	38.3449
1591.35	38.1305
1592.89	38.0304
1594.43	37.5689
1595.97	37.7174
1597.52	37.6086
1599.06	38.5235
1600.6	37.6089
1602.14	37.0528
1603.68	37.0989
1605.22	36.9928
1606.76	37.3728
1608.3	37.5567
1609.84	37.8101
1611.38	37.5346
1612.92	38.2509
1614.46	37.9619
1615.99	38.3704
1617.53	39.84
1619.07	40.3042
1620.61	40.7986
1622.14	41.8738
1623.68	41.9612
1625.22	43.4888
1626.75	43.9424
1628.29	44.4175
1629.82	44.9507
1631.36	45.5063
1632.9	45.8606
1634.43	46.9797
1635.96	47.0665
1637.5	47.8329
1639.03	47.9852
1640.57	49.7586
1642.1	50.7818
1643.63	52.5182
1645.16	52.884
1646.7	53.7812
1648.23	53.9345
1649.76	53.9973
1651.29	55.2553
1652.82	56.0435
1654.36	56.3123
1655.89	56.6881
1657.42	57.3911
1658.95	57.9115
1660.48	57.2653
1662.01	57.8411
1663.53	57.502
1665.06	56.9266
1666.59	55.3715
1668.12	54.598
1669.65	53.8142
1671.18	52.1313
1672.7	51.6308
1674.23	49.9741
1675.76	48.0928
1677.29	45.3292
1678.81	43.5599
1680.34	41.042
1681.86	39.2285
1683.39	36.8435
1684.91	34.1992
1686.44	32.2385
1687.96	30.7085
1689.49	29.4961
1691.01	27.5906
1692.54	26.3122
1694.06	25.1853
1695.58	22.4445
1697.11	20.9142
1698.63	19.9713
1700.15	18.1032
1701.67	16.2926
1703.2	14.9921
1704.72	14.3737
1706.24	13.0038
1707.76	12.2445
1709.28	10.9553
1710.8	9.96853
1712.32	9.25509
1713.84	9.13507
1715.36	8.52759
1716.88	7.90511
1718.4	6.73631
1719.91	6.7382
1721.43	5.85626
1722.95	5.31474
1724.47	5.49431
1725.99	6.16139
1727.5	7.02998
1729.02	6.53545
1730.54	6.75106
1732.05	6.77726
1733.57	6.74361
1735.09	6.5743
1736.6	6.75627
1738.12	6.77642
1739.63	6.7407
1741.15	7.13423
1742.66	7.19169
1744.18	6.77127
1745.69	5.70935
1747.2	5.12922
1748.72	5.28117
1750.23	4.65632
1751.74	3.92896
1753.25	4.28899
1754.77	4.37304
1756.28	3.97657
1757.79	3.79149
1759.3	3.79478
1760.81	4.03419
1762.32	4.43893
1763.83	4.4433
1765.34	4.4335
1766.85	4.28785
1768.36	3.9308
1769.87	3.6787
1771.38	2.6062
1772.89	3.02793
1774.4	3.17564
1775.91	2.89738
1777.41	2.79409
1778.92	3.06688
1780.43	3.02823
1781.94	2.58744
1783.44	2.81401
1784.95	2.71967
1786.45	2.85218
1787.96	3.00035
1789.47	2.57712
1790.97	2.06478
1792.48	1.98469
1793.98	2.09888
1795.48	2.47413
1796.99	2.44116
1798.49	2.84906
1800	3.14378
1801.5	2.50103
1803	2.15148
1804.51	1.91999
1806.01	2.04914
1807.51	1.9382
1809.01	1.47742
1810.51	1.41531
1812.02	1.65368
1813.52	1.55586
1815.02	2.05917
1816.52	1.87863
1818.02	1.17635
1819.52	0.848168
1821.02	1.44035
1822.52	1.98704
1824.02	2.31925
1825.51	2.33719
1827.01	2.047
1828.51	2.83797
1830.01	2.60454
1831.51	2.50509
1833	2.56849
1834.5	2.2834
1836	2.02127
1837.5	2.19464
1838.99	1.70911
1840.49	1.70081
1841.98	1.44846
1843.48	1.102
1844.97	0.926026
1846.47	0.667832
1847.96	0.600208
1849.46	1.15277
1850.95	1.18479
1852.45	0.960541
1853.94	0.75312
1855.43	0.480184
1856.92	0.58291
1858.42	0.967655
1859.91	0.863389
1861.4	0.578638
1862.89	0.320007
1864.39	0.0825814
1865.88	-0.00965232
1867.37	0.313688
1868.86	0.424299
1870.35	0.284221
1871.84	0.724528
1873.33	0.648855
1874.82	0.362272
1876.31	0.21121
1877.8	0.38437
1879.29	0.32416
1880.77	0.0832799
1882.26	-0.203544
1882.51	-0.086467
1884	0.0488725
1885.5	-0.0488331
1886.99	0.446735
1888.48	0.909603
1889.98	0.207109
1891.47	0.280167
1892.97	0.80165
1894.46	1.34911
1895.95	1.32378
1897.44	0.488381
1898.93	0.695166
1900.42	0.729057
1901.92	1.14086
1903.41	0.502708
1904.9	0.269606
1906.39	0.212834
1907.88	0.0499166
1909.37	0.779124
1910.86	1.13024
1912.35	1.0954
1913.84	1.61995
1915.32	1.3352
1916.81	1.31724
1918.3	1.85679
1919.79	2.4726
1921.28	2.37191
1922.76	2.53191
1924.25	2.52519
1925.74	2.9937
1927.22	3.28199
1928.71	4.10616
1930.2	3.85009
1931.68	3.94217
1933.17	3.78238
1934.65	3.91406
1936.14	3.7785
1937.62	4.09971
1939.11	5.07833
1940.59	5.06158
1942.08	4.8204
1943.56	4.52864
1945.04	4.72368
1946.53	4.59584
1948.01	4.50721
1949.49	3.88857
1950.97	3.91944
1952.45	4.62218
1953.94	4.30605
1955.42	4.03272
1956.9	3.71965
1958.38	3.42254
1959.86	3.87557
1961.34	4.14608
1962.82	3.77845
1964.3	3.55695
1965.78	3.73963
1967.26	3.41502
1968.74	3.11092
1970.22	2.6102
1971.69	2.55642
1973.17	2.72475
1974.65	2.04638
1976.13	1.84006
1977.61	1.10677
1979.08	1.29526
1980.56	1.21328
1982.03	1.69941
1983.51	1.53597
1984.99	1.14892
1986.46	1.12914
1987.94	1.01921
1989.41	1.16912
1990.89	1.75727
1992.36	2.17034
1993.84	2.27851
1995.31	2.08428
1996.78	2.47771
1998.26	2.51969
1999.73	2.50912
2001.2	2.06731
2002.68	1.79382
2004.15	1.51059
2005.62	1.80164
2007.09	2.3912
2008.56	1.8073
2010.04	1.51712
2011.51	2.26319
2012.98	2.94051
2014.45	2.6462
2015.92	2.54288
2017.39	2.82464
2018.86	3.00965
2020.33	3.4189
2021.8	3.33707
2023.27	3.55306
2024.74	4.23228
2026.2	4.1727
2027.67	3.90304
2029.14	3.82874
2030.61	4.1081
2032.07	4.74722
2033.54	5.35891
2035.01	5.35808
2036.47	5.52571
2037.94	5.47622
2039.41	5.16884
2040.87	5.67331
2042.34	6.29691
2043.8	6.493
2045.27	6.43142
2046.73	6.339
2048.2	6.65588
2049.66	6.67179
2051.12	6.77326
2052.59	7.07771
2054.05	7.16471
2055.51	8.13733
2056.98	7.83313
2058.44	8.6342
2059.9	9.2161
2061.36	9.88114
2062.82	9.94297
2064.29	10.183
2065.75	10.377
2067.21	11.2614
2068.67	11.8536
2070.13	11.998
2071.59	12.3012
2073.05	12.5559
2074.51	12.4022
2075.97	12.9675
2077.43	13.3944
2078.88	13.7822
2080.34	14.4531
2081.8	14.1184
2083.26	14.2452
2084.72	14.7599
2086.17	14.9993
2087.63	15.056
2089.09	14.2617
2090.54	14.0718
2092	14.2207
2093.46	14.3889
2094.91	14.2735
2096.37	14.1868
2097.82	14.2465
2099.28	14.6148
2100.73	14.8791
2102.19	15.6537
2103.64	16.3694
2105.09	17.7424
2106.55	18.5568
2108	18.7234
2109.46	19.2489
2110.91	20.1295
2112.36	21.2159
2113.81	22.2943
2115.27	22.4797
2116.72	22.7009
2118.17	23.5536
2119.62	24.9172
2121.07	26.0438
2122.52	27.0692
2123.97	28.1407
2125.42	29.285
2126.87	30.1435
2128.32	32.0425
2129.77	32.7881
2131.22	34.9031
2132.67	36.4079
2134.12	38.1029
2135.57	39.5597
2137.01	41.7183
2138.46	43.039
2139.91	44.7538
2141.36	46.2699
2142.8	47.8932
2144.25	49.766
2145.7	51.5482
2147.14	53.0559
2148.59	54.6621
2150.03	55.6651
2151.48	57.1488
2152.92	57.9822
2154.37	59.1746
2155.81	60.2532
2157.26	61.8049
2158.7	63.1682
2160.15	63.8463
2161.59	64.5819
2163.03	66.2081
2164.48	67.8346
2165.92	68.3538
2167.36	68.833
2168.8	69.663
2170.25	70.5496
2171.69	71.5145
2173.13	71.974
2174.57	72.7329
2176.01	72.6473
2177.45	73.3665
2178.89	72.6549
2180.33	72.8223
2181.77	73.0886
2183.21	73.0721
2184.65	72.2042
2186.09	71.3754
2187.53	69.9712
2188.97	69.4144
2190.41	68.5929
2191.84	67.2653
2193.28	65.6907
2194.72	64.0643
2196.16	62.6277
2197.59	61.6802
2199.03	60.1228
2200.47	59.1413
2201.9	57.0665
2203.34	55.8762
2204.78	53.5667
2206.21	52.2292
2207.65	51.1838
2209.08	50.1107
2210.51	48.4358
2211.95	47.5481
2213.38	46.4605
2214.82	45.0397
2216.25	43.7397
2217.68	41.8657
2219.12	39.7986
2220.55	38.3896
2221.98	37.016
2223.42	35.7613
2224.85	34.7474
2226.28	33.5876
2227.71	31.9761
2229.14	30.7976
2230.57	29.4238
2232	28.0441
2233.43	27.2496
2234.86	26.1677
2236.29	24.5552
2237.72	23.248
2239.15	22.2953
2240.58	22.0219
2242.01	21.4081
2243.44	20.2204
2244.87	19.6651
2246.3	19.1983
2247.73	18.7904
2249.15	18.88
2250.58	18.3052
2252.01	17.738
2253.43	17.0337
2254.86	16.1084
2256.29	14.9452
2257.71	14.5819
2259.14	13.9112
2260.56	13.521
2261.99	12.7871
2263.41	12.867
2264.84	12.9504
2266.26	13.2023
2267.69	13.2138
2269.11	13.0466
2270.54	12.1919
2271.96	12.2057
2273.38	11.8693
2274.81	11.8389
2276.23	11.8175
2277.65	12.5006
2279.07	12.5781
2280.49	12.2864
2281.92	11.9321
2283.34	11.9176
2284.76	11.5382
2286.18	10.8002
2287.6	9.55564
2289.02	9.25706
2290.44	8.82359
2291.86	8.58734
2293.28	7.84627
2294.7	8.05581
2296.12	8.52157
2297.54	8.15172
2298.96	8.23719
2300.38	8.58415
2301.79	9.0828
2303.21	9.89329
2304.63	10.2008
2306.05	9.97966
2307.46	10.5711
2308.88	11.2302
2310.3	11.7987
2311.71	11.8339
2313.13	11.776
2314.55	11.7646
2315.96	12.8472
2317.38	12.6579
2318.79	12.4069
2320.21	12.0035
2321.62	12.0429
2323.03	12.0124
2324.45	11.6838
2325.86	11.3044
2327.27	11.4513
2328.69	11.1394
2330.1	10.7259
2331.51	10.2753
2332.93	10.4024
2334.34	10.5381
2335.75	10.0657
2337.16	9.93945
2338.57	9.08572
2339.99	8.39333
2341.4	7.52038
2342.81	7.71168
2344.22	6.43144
2345.63	6.08009
2347.04	5.47241
2348.45	4.71256
2349.86	3.59008
2351.26	2.65663
2352.67	1.94547
2354.08	1.02809
2355.49	0.350717
2356.9	-0.759296
2358.31	-0.525248
2359.71	-0.0521026
2361.12	-0.600764
2362.53	-0.493492
2363.94	-0.294245
2365.34	0.461006
2366.75	0.432641
2368.15	0.291614
2369.56	1.06403
2370.97	1.72168
2372.37	2.36445
2373.78	2.26644
2375.18	1.77566
2376.59	2.51518
2377.99	2.86157
2379.39	2.55629
2380.8	2.67551
2382.2	2.81496
2383.61	3.0047
2385.01	2.85179
2386.41	2.88492
2387.81	1.84824
2389.22	1.54901
2390.62	1.82042
2392.02	1.982
2393.42	1.48739
2394.82	1.42762
2396.22	1.7219
2397.63	2.14466
2399.02	2.18045
2400.43	2.28892
2401.82	2.91492
2403.23	2.95124
2404.62	2.84083
2406.02	2.6032
2407.42	2.82981
2408.82	2.87139
2410.22	2.76885
2411.62	2.67744
2413.02	3.07716
2414.41	2.71823
2415.81	3.42984
2417.21	3.29537
2418.61	3.8844
2420	3.9906
2421.4	4.27943
2422.79	4.44137
2424.19	4.56179
2425.59	4.87952
2426.98	4.60793
2428.38	4.79701
2429.77	4.33116
2431.17	4.52613
2432.56	4.51717
2433.96	4.58199
2435.35	4.63365
2436.74	4.50626
2438.14	4.99941
2439.53	4.94484
2440.92	4.46092
2442.32	4.16927
2443.71	3.79575
2445.1	3.54222
2446.49	3.26616
2447.88	2.47266
2449.28	2.89451
2450.67	2.99162
2452.06	2.72446
2453.45	1.66263
2454.84	1.1591
2456.23	0.679758
2457.62	0.0915501
2459.01	-0.18113
2460.4	0.296744
2461.79	0.426084
2463.18	0.643761
2464.57	1.33954
2465.96	1.33478
2467.34	2.02038
2468.73	1.47328
2470.12	0.778622
2471.51	1.35553
2472.89	1.10693
2474.28	1.46059
2475.67	1.60129
2477.05	1.99805
2478.44	1.83816
2479.83	2.1168
2481.21	2.34654
2482.6	2.69474
2483.98	3.16999
2485.37	3.47497
2486.75	3.38903
2488.14	3.69779
2489.52	3.42028
2490.9	3.38338
2492.29	3.40025
2493.67	3.48094
2495.06	3.39869
2496.44	3.07271
2497.82	3.05553
2499.2	3.36216
2500.59	3.28071
2501.97	2.85807
2503.35	3.0599
2504.73	3.36345
2506.11	3.17727
2507.49	2.97056
2508.88	2.98067
2510.26	3.21654
2511.63	3.49335
2513.01	3.31556
2514.39	2.67112
2515.77	2.9085
2517.15	3.59225
2518.53	3.48249
2519.91	3.0142
2521.29	2.44325
2522.67	2.08609
2524.05	2.4924
2525.42	2.59931
2526.8	2.65584
2528.18	2.78309
2529.56	4.00673
2530.93	3.8857
2532.31	3.8638
2533.69	3.84534
2535.06	3.46158
2536.44	3.67598
2537.81	3.40774
2539.19	3.69522
2540.56	3.78273
2541.94	4.03827
2543.31	3.94354
2544.69	3.9743
2546.06	4.57623
2547.44	5.03056
2548.81	5.58879
2550.18	5.53028
2551.56	5.10654
2552.93	5.41146
2554.3	4.94865
2555.68	4.75148
2557.05	4.87819
2558.42	4.7635
2559.79	3.88275
2561.16	3.54813
2562.53	3.72168
2563.9	3.53748
2565.28	3.69991
2566.64	3.89124
2568.02	4.25527
2569.38	4.04906
2570.76	4.39243
2572.12	4.44668
2573.49	4.68907
2574.86	4.70458
2576.23	4.71037
2577.6	5.10476
2578.97	4.39528
2580.34	4.48046
2581.7	4.01152
2583.07	4.1219
2584.44	4.5046
2585.81	4.02448
2587.17	3.91826
2588.54	4.06197
2589.91	3.97961
2591.27	4.47535
2592.64	4.82207
2594	4.524
2595.37	4.08265
2596.73	4.26895
2598.1	4.48746
2599.46	3.81044
2600.83	3.67913
2602.19	3.77782
2603.55	4.13152
2604.92	4.37639
2606.28	4.68991
2607.64	4.28563
2609.01	4.38842
2610.37	5.1158
2611.73	5.0151
2613.09	4.77026
2614.46	4.6869
2615.82	4.06485
2617.18	3.30753
2618.54	2.86298
2619.9	2.43615
2621.26	2.56553
2622.62	2.02758
2623.98	2.0301
2625.34	2.33926
2626.7	1.65653
2628.06	0.750447
2629.42	0.77803
2630.78	0.802182
2632.14	1.02323
2633.5	0.826914
2634.86	0.577023
2636.22	0.272132
2637.57	0.105832
2638.93	-0.278585
2640.29	-0.0121351
2641.64	0.167756
2643	0.057173
2644.36	0.294639
2645.72	0.341965
2647.07	0.293524
2648.43	1.21699
2649.78	0.862781
2651.14	1.69111
2652.49	1.71407
2653.85	2.28131
2655.2	2.62358
2656.56	2.68096
2657.91	2.96239
2659.27	3.15303
2660.62	3.31562
2661.97	3.69846
2663.33	4.16463
2664.68	5.09311
2666.03	5.50709
2667.38	5.76495
2668.74	6.1238
2670.09	6.27784
2671.44	6.22409
2672.79	6.50984
2674.14	6.60996
2675.49	6.45498
2676.84	6.62176
2678.2	6.90189
2679.55	6.59873
2680.89	6.18075
2682.24	6.26769
2683.59	6.01851
2684.94	5.59021
2686.29	5.59123
2687.64	5.02774
2688.99	4.90289
2690.34	5.45398
2691.69	5.47036
2693.04	5.12138
2694.38	4.4047
2695.73	3.9245
2697.08	4.45885
2698.43	4.80602
2699.77	4.53114
2701.12	3.73353
2702.46	3.85274
2703.81	3.95355
2705.16	4.15343
2706.5	4.0268
2707.85	4.77106
2709.19	4.1948
2710.54	4.28373
2711.88	4.29051
2713.23	4.33996
2714.57	4.70787
2715.92	5.41809
2717.26	5.29226
2718.6	5.65969
2719.95	5.34195
2721.29	5.81107
2722.63	5.42667
2723.97	5.59142
2725.32	5.77144
2726.66	6.30372
2728	6.93695
2729.34	7.32011
2730.68	7.56104
2732.02	7.20652
2733.36	7.5206
2734.7	7.37081
2736.04	7.24472
2737.39	7.4327
2738.72	7.51947
2740.06	7.84329
2741.4	7.28693
2742.74	7.31011
2744.08	7.0634
2745.42	7.05114
2746.76	6.88873
2748.1	6.1205
2749.44	5.69663
2750.77	5.50533
2752.11	5.51849
2753.45	5.27564
2754.78	5.08124
2756.12	5.48919
2757.46	5.4985
2758.79	4.64328
2760.13	4.55207
2761.47	4.59436
2762.8	4.40533
2764.14	4.66317
2765.47	4.00307
2766.81	3.65398
2768.14	3.64668
2769.48	3.86767
2770.81	3.32643
2772.14	3.15295
2773.48	2.94628
2774.81	3.24667
2776.14	2.2615
2777.48	2.47579
2778.81	2.68944
2780.14	3.06394
2781.47	2.98734
2782.81	2.99408
2784.14	2.43113
2785.47	2.34445
2786.8	2.07314
2788.13	1.87967
2789.46	1.37948
2790.79	1.9023
2792.12	2.2052
2793.46	2.34478
2794.79	2.10665
2796.11	2.19564
2797.44	1.86987
2798.77	1.28619
2800.1	1.41518
2801.43	1.08117
2802.76	0.681156
2804.09	0.577739
2805.42	0.302688
2806.74	0.312294
2808.07	-0.0470492
2809.4	-0.115932
2810.73	-0.165247
2812.05	-0.0555113
2813.38	-0.279479
2814.71	-0.633595
2816.03	0.120011
2817.36	0.471199
2818.68	0.93959
2820.01	1.49516
2821.33	2.50853
2822.66	3.51376
2823.98	4.34047
2825.31	5.05361
2826.63	6.35258
2827.96	7.68614
2829.28	8.97535
2830.61	10.1103
2831.93	11.1672
2833.25	12.4004
2834.57	13.54
2835.9	14.9563
2837.22	16.3186
2838.54	18.3754
2839.86	20.3536
2841.18	22.6534
2842.51	24.072
2843.83	26.8464
2845.15	29.1138
2846.47	31.6115
2847.79	34.6615
2849.11	37.404
2850.43	39.8647
2851.75	42.0712
2853.07	44.352
2854.39	47.1764
2855.71	50.2483
2857.03	53.3695
2858.35	55.735
2859.67	58.4325
2860.98	61.5005
2862.3	63.9031
2863.62	66.381
2864.94	68.9255
2866.25	71.0117
2867.57	73.4628
2868.89	75.5031
2870.21	77.416
2871.52	79.3055
2872.84	80.8771
2874.15	82.604
2875.47	84.5149
2876.78	86.7427
2878.1	88.598
2879.42	90.4985
2880.73	92.2883
2882.04	93.9376
2883.36	94.9312
2884.67	96.2445
2885.99	97.8756
2887.3	99.4337
2888.61	101.438
2889.93	103.122
2891.24	105.231
2892.55	107.311
2893.87	109.604
2895.18	111.601
2896.49	114.294
2897.8	116.834
2899.11	120.183
2900.42	124.094
2901.74	127.725
2903.05	132.232
2904.36	135.893
2905.67	140.4
2906.98	144.697
2908.29	149.196
2909.6	154.268
2910.91	159.667
2912.22	165.05
2913.53	170.009
2914.83	174.637
2916.14	178.879
2917.45	183.448
2918.76	188.274
2920.07	192.801
2921.37	197.39
2922.68	200.811
2923.99	204.198
2925.3	207.178
2926.6	209.558
2927.91	210.787
2929.22	212.677
2930.52	213.697
2931.83	214.346
2933.13	214.895
2934.44	214.577
2935.74	214.091
2937.05	213.392
2938.35	211.555
2939.66	210.225
2940.96	208.531
2942.27	206.132
2943.57	202.718
2944.87	200.034
2946.18	196.278
2947.48	192.57
2948.78	188.763
2950.09	185.16
2951.39	182.235
2952.69	178.452
2953.99	174.775
2955.29	170.175
2956.6	166.136
2957.9	162.177
2959.2	158.115
2960.5	153.923
2961.8	149.758
2963.1	145.145
2964.4	141.813
2965.7	137.914
2967	133.54
2968.3	129.773
2969.6	125.413
2970.9	121.883
2972.2	118.066
2973.49	114.908
2974.79	111.232
2976.09	107.39
2977.39	103.025
2978.69	99.1745
2979.98	95.5079
2981.28	91.0267
2982.58	87.3619
2983.88	83.4851
2985.17	80.2383
2986.47	76.5161
2987.76	72.7959
2989.06	68.9185
2990.36	65.375
2991.65	61.5955
2992.95	57.9944
2994.24	54.4759
2995.54	51.4359
2996.83	47.5632
2998.12	44.3097
2999.42	41.754
3000.71	39.2783
3002	36.2945
3003.3	33.9618
3004.59	31.8881
3005.88	29.6147
3007.18	27.3149
3008.47	25.1275
3009.76	23.9094
3011.05	21.3841
3012.35	19.6731
3013.64	18.7735
3014.93	18.1821
3016.22	17.5342
3017.51	15.963
3018.8	14.6529
3020.09	12.9137
3021.38	11.9249
3022.67	11.2702
3023.96	10.0194
3025.25	9.26281
3026.54	8.60727
3027.83	8.59398
3029.12	8.81474
3030.41	7.91028
3031.69	7.69345
3032.98	7.89288
3034.27	7.48351
3035.56	7.24922
3036.85	6.95449
3038.13	6.36862
3039.42	5.60491
3040.71	5.27416
3041.99	5.2677
3043.28	5.84925
3044.57	6.05131
3045.85	6.00407
3047.14	6.63212
3048.42	7.12103
3049.71	7.52111
3050.99	7.41967
3052.28	7.58277
3053.56	7.28354
3054.85	7.76026
3056.13	7.89386
3057.42	8.12443
3058.7	7.92562
3059.98	8.38913
3061.27	8.28154
3062.55	8.8604
3063.83	9.09641
3065.11	8.62064
3066.4	8.4482
3067.68	7.97674
3068.96	7.66557
3070.24	7.29126
3071.52	7.05027
3072.8	6.71303
3074.09	6.48978
3075.37	5.90548
3076.65	6.06702
3077.93	6.27057
3079.21	5.81766
3080.49	4.67867
3081.77	3.81926
3083.05	3.21313
3084.32	2.94535
3085.61	2.47839
3086.88	2.1751
3088.16	1.7204
3089.44	1.94797
3090.72	1.81319
3092	1.52126
3093.27	1.28966
3094.55	0.873853
3095.83	0.968507
3097.11	0.367824
3098.38	-0.455625
3099.66	-0.507156
3100.94	-0.882412
3102.21	-0.914743
3103.49	-1.20482
3104.76	-0.739793
3106.04	-0.0902765
3107.31	0.0798625
3108.59	-0.071871
3109.86	-0.0562504
3111.14	0.138076
3112.41	0.249931
3113.69	0.109693
3114.96	0.700179
3116.23	1.11555
3117.51	1.46794
3118.78	1.91163
3120.05	2.18812
3121.33	2.17604
3122.6	2.43507
3123.87	2.99038
3125.14	3.40269
3126.42	3.72045
3127.69	4.05119
3128.96	4.39799
3130.23	5.056
3131.5	5.23669
3132.77	6.1343
3134.04	6.17939
3135.31	7.10198
3136.58	7.43544
3137.85	8.03256
3139.12	8.74052
3140.39	9.77758
3141.66	10.4926
3142.93	11.3644
3144.2	12.3265
3145.47	13.2627
3146.74	14.3026
3148	15.3108
3149.27	16.8822
