#Acq. time (s)=	45
#Accumulations=	2
#Range (cm-¹)=	200...3150
#Windows=	2
#Auto scanning=	Off
#Autofocus=	Off
#Macrospot=	Off
#AutoExposure=	Off
#Spike filter=	Multiple accum.
#Delay time (s)=	0
#Binning=	1
#Readout mode=	Signal
#DeNoise=	Off
#ICS correction=	On
#Dark correction=	Off
#Inst. Process=	Off
#Detector Gain=	Best Dynamic Range
#Detector ADC=	20 kHz       
#Detector temperature (°C)=	-69.85
#Instrument=	LabRAM HR Evol
#Detector=	Synapse
#Objective=	x100
#Grating=	600 gr/mm
#ND Filter=	100%
#Laser (nm)=	532 
#Hole=	100.021
#Range=	Auto
#Laser Pol.=	No
#Raman. Pol.=	No
#Laser Pol. (°)=	-0.0007625
#Raman Pol. (°)=	89.9995
#Collection=	Microscope
#StageXY=	Marzhauser
#StageZ=	Marzhauser
#X (µm)=	-6363.7
#Y (µm)=	843.8
#Z (µm)=	-64.95
#Full time(mm:ss)=	3:18
#Project=	
#Sample=	
#Site=	
#Title=	Mb_30_27_28_2x_45s_532 nm_x100_100%_600 gr_mm
#Remark=	
#Date=	13.07.2022 10:47
#Acquired=	13.07.2022 10:47:36
#Base:Fit=	10.08.2022 10:40:03
#Base:Sub=	10.08.2022 10:40:17
#Filter:Polynom=	16.08.2022 10:16:15
#AxisType[0]=Intens
#AxisUnit[0]=Cnt
#AxisType[1]=Spectr
#AxisUnit[1]=1/cm
200.563	6.47975
202.377	5.9477
204.194	5.9393
206.008	6.1845
207.821	6.5305
209.634	6.84903
211.449	7.05359
213.262	6.87449
215.074	6.68333
216.885	6.8802
218.699	6.79375
220.51	6.29375
222.321	6.12403
224.131	5.96205
225.941	6.94761
227.751	7.89286
229.562	7.99913
231.371	9.25265
233.18	9.04279
234.988	7.29908
236.796	6.42325
238.603	6.33768
240.411	5.61426
242.219	5.7302
244.026	5.4682
245.832	5.27964
247.638	5.74141
249.443	5.88519
251.248	6.3414
253.053	6.65517
254.857	6.20099
256.661	6.03497
258.465	5.77602
260.268	6.35974
262.071	5.77052
263.874	5.97344
265.678	6.04828
267.48	6.1514
269.282	6.91498
271.083	7.46366
272.884	7.68436
274.684	7.6717
276.484	9.04329
278.284	10.322
280.084	10.8383
281.883	11.3543
283.682	12.4822
285.48	13.1448
287.276	14.605
289.074	15.5262
290.871	15.9857
292.668	17.4115
294.465	18.2005
296.261	19.1617
298.057	19.2874
299.853	18.9364
301.648	18.7553
303.443	18.9634
305.237	19.7024
307.032	19.9958
308.823	19.9254
310.617	20.6275
312.41	20.9115
314.203	21.6132
315.995	22.2315
317.788	22.0099
319.579	21.1196
321.369	20.3282
323.16	19.1279
324.951	17.8111
326.741	18.8708
328.531	18.6311
330.321	18.4318
332.108	18.3053
333.897	17.7506
335.686	18.0115
337.474	18.1796
339.26	17.075
341.048	16.8313
342.835	16.1122
344.622	15.7355
346.406	15.411
348.192	15.5019
349.978	16.0144
351.764	15.0773
353.547	15.1385
355.332	15.1245
357.116	14.4865
358.901	14.7949
360.682	15.4789
362.466	14.993
364.249	15.8978
366.03	14.9591
367.812	15.2548
369.594	15.6261
371.374	16.7121
373.155	16.8665
374.936	17.4
376.715	17.1727
378.495	16.3669
380.273	15.9333
382.053	15.3463
383.832	14.1245
385.609	13.302
387.388	12.3898
389.164	11.7083
390.942	11.9555
392.72	12.148
394.495	11.6762
396.272	11.898
398.047	12.421
399.823	12.827
401.597	12.7281
403.372	12.9104
405.145	12.8634
406.92	12.4056
408.693	11.3748
410.467	11.0674
412.239	11.653
414.012	11.9748
415.783	12.6063
417.556	11.6143
419.327	11.3653
421.099	10.855
422.869	10.9043
424.64	10.8494
426.409	10.2479
428.18	9.51742
429.948	10.1606
431.718	9.60665
433.486	9.42866
435.253	9.03531
437.022	10.2018
438.789	10.8751
440.558	10.3326
442.324	10.626
444.089	10.7953
445.857	11.2176
447.622	12.9072
449.386	12.8015
451.153	12.8034
452.917	13.4326
454.682	12.6775
456.446	12.5793
458.208	12.2042
459.973	13.0116
461.735	12.734
463.497	13.1169
465.259	12.2962
467.022	12.6845
468.783	13.1728
470.544	13.9549
472.306	14.1735
474.066	15.3764
475.825	16.6498
477.585	17.1597
479.346	17.8423
481.104	18.7954
482.862	20.1868
484.62	22.3159
486.38	22.9434
488.137	24.0498
489.894	24.6141
491.65	25.4732
493.407	25.9749
495.164	25.5757
496.92	26.8752
498.675	27.7064
500.43	27.9699
502.184	27.8531
503.939	27.5505
505.694	27.1698
507.448	27.0589
509.201	27.8615
510.954	28.0529
512.706	27.9626
514.459	28.0944
516.21	27.6776
517.962	27.7783
519.715	27.7773
521.466	27.5998
523.216	27.996
524.966	27.8311
526.716	26.9265
528.466	26.2387
530.215	25.9198
531.964	24.7785
533.712	23.8311
535.46	22.9306
537.208	21.7981
538.955	20.9602
540.703	18.5155
542.449	17.0113
544.196	15.9464
545.942	15.4462
547.688	15.5359
549.433	14.1978
551.178	13.282
552.923	13.0151
554.667	13.0424
556.412	12.4068
558.155	12.1374
559.899	11.3919
561.642	11.7336
563.385	11.2993
565.127	11.1601
566.867	11.3696
568.609	12.0044
570.35	12.1016
572.092	12.1738
573.832	12.3476
575.573	12.0779
577.313	11.2839
579.053	10.7923
580.79	9.66712
582.529	9.01933
584.268	8.94829
586.006	8.04941
587.745	7.70579
589.482	8.55745
591.218	9.17244
592.955	9.03817
594.692	9.41308
596.428	9.94456
598.164	9.47392
599.898	9.10143
601.634	8.81262
603.369	7.91433
605.104	8.48988
606.836	8.26249
608.57	6.8221
610.304	7.04289
612.037	6.67405
613.769	6.07731
615.501	5.47597
617.234	5.7459
618.966	4.84326
620.696	4.96416
622.427	5.67613
624.159	6.25716
625.887	5.78138
627.618	5.16854
629.348	5.05919
631.076	5.56362
632.806	5.73483
634.535	7.43582
636.262	8.59325
637.99	8.95101
639.716	9.31119
641.444	10.2162
643.172	9.6438
644.897	10.1702
646.624	10.701
648.348	11.3172
650.075	11.2196
651.801	12.4268
653.524	12.208
655.249	11.9485
656.972	11.7489
658.697	12.3242
660.419	11.4831
662.143	10.4797
663.865	10.4288
665.588	10.4187
667.309	10.5032
669.032	10.1168
670.752	10.8908
672.474	11.161
674.194	11.753
675.915	12.6234
677.634	13.171
679.355	13.3638
681.073	13.9422
682.793	13.7186
684.511	13.6551
686.23	13.7229
687.947	14.5965
689.664	15.3547
691.382	16.7939
693.098	17.9883
694.816	19.8919
696.531	22.2499
698.247	23.0867
699.963	23.6065
701.678	25.9691
703.392	27.7489
705.108	27.8272
706.821	29.3661
708.534	30.3945
710.249	31.8033
711.962	32.3179
713.674	33.1116
715.388	34.0902
717.099	36.1102
718.81	37.1125
720.523	38.6343
722.234	38.6991
723.944	38.8308
725.654	40.1466
727.365	41.5132
729.075	41.8227
730.784	43.2335
732.492	45.0544
734.202	46.5205
735.91	47.1405
737.618	47.7578
739.325	47.1294
741.034	48.1268
742.741	48.7464
744.447	49.0965
746.153	49.5035
747.859	50.9996
749.564	52.1231
751.271	52.7895
752.976	53.5959
754.681	55.4833
756.385	57.0292
758.088	57.966
759.792	59.7975
761.495	61.1813
763.2	62.5104
764.902	63.4355
766.604	64.3166
768.306	64.3696
770.008	65.606
771.709	67.6387
773.41	69.4409
775.11	70.6174
776.811	71.6941
778.51	73.207
780.21	74.6224
781.909	74.9354
783.608	75.1221
785.307	76.0949
787.005	76.7269
788.703	77.1426
790.401	77.7888
792.098	78.0383
793.795	78.5117
795.492	79.0146
797.188	77.4077
798.884	77.7431
800.58	78.0888
802.276	78.037
803.971	78.4612
805.665	78.7178
807.36	79.1154
809.054	80.3744
810.748	80.2342
812.441	80.5227
814.135	80.3042
815.826	81.063
817.518	81.4088
819.21	80.8945
820.902	79.7382
822.594	79.4641
824.285	79.3302
825.976	79.2386
827.665	79.4361
829.355	79.9663
831.045	80.034
832.735	79.6515
834.424	78.9657
836.111	78.8082
837.8	78.9924
839.488	79.3254
841.177	77.8165
842.864	78.0753
844.55	78.0717
846.237	77.3202
847.924	75.8098
849.61	74.3587
851.295	72.7377
852.98	72.0199
854.666	71.3555
856.349	69.9513
858.034	68.8747
859.719	67.6373
861.403	66.8188
863.085	66.6608
864.769	65.8558
866.452	65.2275
868.133	64.9976
869.816	64.8684
871.498	63.7879
873.179	63.5553
874.86	62.4567
876.54	60.4029
878.221	60.0102
879.902	58.5094
881.58	56.8936
883.26	56.4435
884.938	55.2676
886.618	54.7699
888.297	55.519
889.974	55.0191
891.653	54.3977
893.329	54.6719
895.007	54.167
896.683	54.0039
898.36	53.9788
900.035	54.4466
901.712	53.8847
903.387	54.3823
905.063	54.3096
906.737	54.4223
908.412	54.3973
910.085	54.0159
911.76	54.368
913.433	53.6579
915.107	53.3259
916.779	53.6233
918.452	52.2517
920.124	52.1736
921.797	51.1278
923.467	49.8771
925.138	47.8779
926.81	48.0903
928.48	46.7272
930.151	45.1139
931.82	43.2784
933.489	42.5251
935.16	42.4271
936.828	41.7448
938.496	41.0309
940.165	41.5157
941.833	42.0274
943.5	40.8325
945.168	39.9979
946.834	40.1427
948.5	39.9223
950.168	41.1389
951.834	39.9577
953.499	39.1136
955.163	38.7153
956.83	38.4448
958.494	36.7753
960.158	36.2836
961.821	36.3557
963.487	35.9878
965.15	35.438
966.812	36.405
968.474	37.253
970.138	37.1915
971.8	36.9596
973.461	37.4143
975.123	37.7767
976.783	39.0893
978.446	38.7395
980.106	38.8692
981.766	39.7714
983.425	41.0895
985.084	41.1918
986.743	42.192
988.402	41.8437
990.06	41.1543
991.72	41.3181
993.378	40.2592
995.035	39.5753
996.692	39.0692
998.349	38.1829
1000.01	36.8371
1001.66	34.4927
1003.32	34.5008
1004.97	33.005
1006.63	32.48
1008.28	33.0206
1009.94	35.1495
1011.59	36.0543
1013.25	37.0905
1014.9	38.4609
1016.55	40.552
1018.21	42.381
1019.86	43.1286
1021.51	44.9443
1023.16	45.5937
1024.81	45.7613
1026.47	46.7553
1028.12	47.8527
1029.77	49.704
1031.42	50.3425
1033.07	51.2666
1034.72	51.5653
1036.37	52.4275
1038.02	52.4169
1039.67	51.0036
1041.31	50.2175
1042.96	50.2805
1044.61	49.0773
1046.26	48.5414
1047.91	47.7466
1049.55	47.8291
1051.2	47.0149
1052.84	46.4918
1054.49	46.5198
1056.14	45.297
1057.78	43.4955
1059.43	42.6603
1061.07	40.7257
1062.72	39.6893
1064.36	38.0309
1066	36.9627
1067.65	34.3257
1069.29	32.3644
1070.93	29.5607
1072.58	27.0381
1074.22	25.0518
1075.86	22.0609
1077.5	20.4512
1079.14	19.5268
1080.78	18.1179
1082.42	15.9527
1084.06	14.2183
1085.7	14.2901
1087.34	14.2277
1088.98	15.7979
1090.62	16.5398
1092.26	17.7558
1093.9	18.3033
1095.54	18.5551
1097.17	18.0554
1098.81	17.8441
1100.45	18.3901
1102.09	18.3819
1103.72	18.1663
1105.36	18.2049
1106.99	18.6353
1108.63	19.4848
1110.27	19.4261
1111.9	19.9377
1113.53	19.8216
1115.17	20.0814
1116.8	20.146
1118.43	18.8813
1120.07	17.9658
1121.7	17.7898
1123.33	17.3592
1124.97	16.4902
1126.6	15.986
1128.23	16.2226
1129.86	16.1474
1131.49	16.1763
1133.12	15.7872
1134.75	14.491
1136.38	12.5371
1138.01	11.9806
1139.64	11.9219
1141.27	11.7921
1142.9	10.9124
1144.53	10.6951
1146.16	10.0644
1147.78	10.1586
1149.41	8.77435
1151.04	7.81572
1152.67	7.48189
1154.29	7.35596
1155.92	7.25439
1157.54	7.14138
1159.17	7.91019
1160.8	7.75937
1162.42	7.34354
1164.05	6.46808
1165.67	7.1041
1167.29	7.6094
1168.92	8.39038
1170.54	8.57323
1172.16	8.28275
1173.79	8.81754
1175.41	9.03214
1177.03	9.6639
1178.65	9.58232
1180.28	11.1875
1181.9	11.5091
1183.52	12.0705
1185.14	12.7444
1186.76	13.8356
1188.38	14.5261
1190	15.2159
1191.62	15.9596
1193.24	16.9034
1194.86	17.0651
1196.47	18.2536
1198.09	18.3253
1199.71	17.8836
1201.33	18.2606
1202.95	20.0653
1204.56	20.3854
1206.18	21.1746
1207.8	22.438
1209.41	23.2965
1211.03	24.6436
1212.64	25.2672
1214.26	26.0099
1215.87	26.1087
1217.49	26.6691
1219.1	27.7726
1220.71	28.5847
1222.33	28.8219
1223.94	29.6182
1225.55	30.3267
1227.16	30.7427
1228.78	30.7361
1230.39	30.4723
1232	30.7941
1233.61	31.9171
1235.22	33.1569
1236.83	34.1481
1238.44	35.9469
1240.05	36.9202
1241.66	37.6211
1243.27	38.1957
1244.88	39.0382
1246.49	40.1311
1248.1	41.1106
1249.71	42.1296
1251.32	43.6014
1252.92	44.7115
1254.53	45.4946
1256.14	47.0346
1257.74	48.2377
1259.35	47.9013
1260.96	48.9103
1262.56	49.7586
1264.17	51.3718
1265.77	51.5433
1267.38	51.7117
1268.98	52.3841
1270.59	53.1106
1272.19	54.5664
1273.79	54.8539
1275.4	55.3923
1277	55.7467
1278.6	56.834
1280.21	57.823
1281.81	59.6501
1283.41	61.2251
1285.01	60.4699
1286.61	61.781
1288.21	62.4708
1289.81	63.1531
1291.41	64.1027
1293.01	63.6979
1294.61	63.6898
1296.21	63.9889
1297.81	63.5828
1299.41	63.765
1301.01	64.5932
1302.6	64.0425
1304.2	65.0304
1305.8	64.8621
1307.4	65.4361
1308.99	65.6899
1310.59	66.3048
1312.19	66.4332
1313.78	67.0284
1315.38	67.7993
1316.97	67.9091
1318.57	67.1556
1320.16	66.7125
1321.76	66.9593
1323.35	66.3113
1324.94	66.5006
1326.54	66.3072
1328.13	66.2746
1329.72	66.4288
1331.32	66.2703
1332.91	64.9291
1334.5	64.2528
1336.09	63.9486
1337.68	62.5837
1339.27	60.8727
1340.87	60.2178
1342.45	59.127
1344.04	56.567
1345.64	55.2457
1347.22	53.756
1348.81	52.7759
1350.4	52.2276
1351.99	51.6379
1353.58	49.8687
1355.17	48.828
1356.75	47.7655
1358.34	47.8105
1359.93	46.5186
1361.51	45.2778
1363.1	43.6955
1364.69	41.732
1366.27	41.1958
1367.86	39.0729
1369.44	38.8993
1371.03	37.4319
1372.61	36.0673
1374.2	35.1787
1375.78	34.8479
1377.37	33.4532
1378.95	33.4259
1380.53	33.4548
1382.11	33.2592
1383.7	33.791
1385.28	32.7739
1386.86	32.9188
1388.44	32.9971
1390.02	32.6352
1391.6	32.5001
1393.19	32.824
1394.77	33.4392
1396.35	33.7262
1397.93	33.8169
1399.51	34.8748
1401.08	34.575
1402.66	34.4202
1404.24	35.148
1405.82	36.5374
1407.4	36.133
1408.97	36.3032
1410.55	36.4453
1412.13	37.382
1413.71	37.7412
1415.28	38.495
1416.86	39.7208
1418.43	41.3454
1420.01	42.7815
1421.59	43.7858
1423.16	45.0631
1424.73	47.7034
1426.31	49.7032
1427.88	51.9413
1429.46	54.1978
1431.03	55.6256
1432.6	56.6474
1434.18	58.7529
1435.75	60.2147
1437.32	61.9066
1438.89	62.6387
1440.46	62.5422
1442.04	63.6416
1443.61	64.4451
1445.18	65.6801
1446.75	66.1454
1448.32	67.0362
1449.89	65.3539
1451.46	64.9305
1453.03	63.877
1454.6	63.2684
1456.16	62.0934
1457.73	61.9246
1459.3	61.1645
1460.87	60.5692
1462.44	59.7954
1464	58.0778
1465.57	56.9593
1467.14	55.1059
1468.7	52.8467
1470.27	50.9978
1471.83	49.3167
1473.4	47.388
1474.96	44.9465
1476.53	42.0744
1478.09	39.5241
1479.66	37.3451
1481.22	36.0168
1482.78	34.013
1484.35	32.1349
1485.91	29.0468
1487.47	28.3807
1489.04	26.8748
1490.6	25.3925
1492.16	24.0245
1493.72	23.4582
1495.28	22.782
1496.84	21.4045
1498.4	20.3272
1499.96	19.8754
1501.52	20.2843
1503.08	20.0604
1504.64	20.2399
1506.2	19.2897
1507.76	19.0956
1509.32	18.508
1510.88	18.5647
1512.44	17.5214
1513.99	17.2027
1515.55	16.7864
1517.11	16.3455
1518.66	16.7547
1520.22	17.1835
1521.78	16.7762
1523.33	16.1553
1524.89	15.2961
1526.44	14.7658
1528	13.8907
1529.55	14.0822
1531.11	13.2918
1532.66	14.0515
1534.21	14.4377
1535.77	15.3195
1537.32	15.1964
1538.87	15.9541
1540.43	16.2599
1541.98	16.2671
1543.53	16.8906
1545.08	18.1341
1546.63	19.3323
1548.18	19.6834
1549.74	19.7929
1551.29	20.7351
1552.84	20.8027
1554.39	21.5299
1555.94	22.7931
1557.48	23.0068
1559.03	23.7844
1560.58	24.0965
1562.13	24.9137
1563.68	25.6078
1565.23	27.0621
1566.78	27.6586
1568.32	29.0366
1569.87	30.1342
1571.42	31.3242
1572.96	32.1912
1574.51	33.223
1576.05	34.8215
1577.6	35.9996
1579.14	37.6659
1580.69	38.756
1582.24	40.6389
1583.78	41.4649
1585.32	42.3077
1586.87	42.7646
1588.41	43.4604
1589.95	43.3898
1591.5	44.8533
1593.04	44.9198
1594.58	45.3057
1596.12	44.8489
1597.67	44.9559
1599.21	44.8509
1600.75	44.4785
1602.29	44.8186
1603.83	44.2916
1605.37	44.0029
1606.91	43.118
1608.45	43.238
1609.99	43.2197
1611.53	42.798
1613.07	42.4028
1614.6	41.7829
1616.14	41.7731
1617.68	41.6775
1619.22	42.0726
1620.75	42.7493
1622.29	42.1376
1623.83	42.5631
1625.37	42.5712
1626.9	43.4258
1628.44	44.4082
1629.97	44.3765
1631.51	45.3864
1633.04	46.3342
1634.58	46.5191
1636.11	48.1775
1637.65	49.2021
1639.18	50.4688
1640.72	51.9807
1642.25	54.1009
1643.78	55.243
1645.31	56.5021
1646.85	58.0049
1648.38	59.5063
1649.91	60.9994
1651.44	62.8309
1652.97	64.1361
1654.5	65.023
1656.03	66.0631
1657.56	66.2998
1659.1	67.1057
1660.62	67.1158
1662.15	66.357
1663.68	66.5567
1665.21	66.519
1666.74	65.2863
1668.27	63.6757
1669.8	62.291
1671.32	61.303
1672.85	60.6491
1674.38	59.8902
1675.91	58.4492
1677.43	55.9221
1678.96	53.3715
1680.49	50.849
1682.01	48.4823
1683.54	45.5873
1685.06	43.2428
1686.59	40.4075
1688.11	38.7603
1689.64	36.6287
1691.16	34.6489
1692.68	32.8443
1694.21	31.4452
1695.73	29.4959
1697.25	27.7012
1698.78	25.5057
1700.3	25.2448
1701.82	23.4576
1703.34	21.7465
1704.86	19.8969
1706.39	18.4787
1707.91	17.5706
1709.43	16.0504
1710.95	14.309
1712.47	13.2774
1713.99	12.7424
1715.51	11.8117
1717.02	10.5706
1718.54	10.3223
1720.06	9.39885
1721.58	8.60442
1723.1	8.1723
1724.62	7.42931
1726.13	7.6069
1727.65	6.93443
1729.17	6.62595
1730.68	6.49952
1732.2	6.31076
1733.72	6.64075
1735.23	7.03933
1736.75	6.89278
1738.26	5.87445
1739.78	6.33913
1741.29	5.86651
1742.81	5.68184
1744.32	5.72228
1745.84	6.49024
1747.35	6.45808
1748.86	6.23312
1750.37	5.42611
1751.89	5.03246
1753.4	3.66639
1754.91	3.82009
1756.42	3.82876
1757.93	3.63649
1759.45	3.93475
1760.96	4.14354
1762.47	4.27763
1763.98	3.86653
1765.49	3.03852
1767	3.34841
1768.51	4.19958
1770.02	5.11586
1771.53	4.79737
1773.03	5.46634
1774.54	5.50308
1776.05	5.95761
1777.56	5.64389
1779.07	5.60306
1780.57	6.18539
1782.08	5.91645
1783.59	6.11087
1785.09	5.9716
1786.6	6.08908
1788.11	6.56291
1789.61	6.78379
1791.12	6.01414
1792.62	5.62395
1794.13	6.21751
1795.63	5.97278
1797.13	5.6784
1798.64	5.83262
1800.14	5.8804
1801.65	5.9067
1803.15	5.76733
1804.65	5.7732
1806.15	5.78476
1807.66	5.8549
1809.16	5.83209
1810.66	5.32218
1812.16	4.91563
1813.66	4.2486
1815.16	4.69346
1816.66	4.51203
1818.16	4.40482
1819.66	3.48082
1821.16	2.83205
1822.66	2.36487
1824.16	2.4112
1825.66	2.30298
1827.16	2.37986
1828.66	1.92218
1830.16	1.61107
1831.65	1.71764
1833.15	2.0159
1834.65	2.2934
1836.14	2.04297
1837.64	1.93424
1839.14	2.20339
1840.63	3.37479
1842.13	4.3113
1843.62	4.19933
1845.12	4.08642
1846.61	3.67776
1848.11	4.18
1849.6	4.38753
1851.1	4.93899
1852.59	5.48095
1854.08	5.8199
1855.58	6.09597
1857.07	5.65958
1858.56	5.95124
1860.05	5.78518
1861.55	5.12432
1863.04	5.2984
1864.53	4.57755
1866.02	4.14112
1867.51	3.88952
1869	3.90072
1870.49	3.5478
1871.98	3.11306
1873.47	3.18287
1874.96	3.46713
1876.45	3.13751
1877.94	3.3167
1879.43	2.9478
1880.92	2.85947
1882.41	2.74468
1882.51	2.62222
1884	2.89712
1885.5	3.52812
1886.99	3.31299
1888.48	3.43033
1889.98	4.12417
1891.47	3.84517
1892.96	3.63245
1894.46	4.16233
1895.95	4.8235
1897.44	4.33325
1898.93	4.71645
1900.42	4.85701
1901.91	4.72013
1903.41	4.78121
1904.9	5.40136
1906.39	5.79851
1907.88	6.10666
1909.37	5.4012
1910.86	5.47626
1912.35	5.07577
1913.83	5.75366
1915.32	5.59202
1916.81	5.45631
1918.3	5.8346
1919.79	5.85633
1921.27	6.18536
1922.76	6.06348
1924.25	5.83109
1925.74	6.12064
1927.22	5.81369
1928.71	5.72122
1930.19	5.24659
1931.68	4.78372
1933.17	4.4888
1934.65	4.44788
1936.14	4.54057
1937.62	3.87919
1939.11	3.84655
1940.59	3.70007
1942.07	3.95576
1943.56	4.53058
1945.04	4.87996
1946.52	5.01722
1948.01	4.90569
1949.49	4.86568
1950.97	4.72895
1952.45	4.80435
1953.93	4.94047
1955.42	4.86423
1956.9	4.39992
1958.38	4.88655
1959.86	5.48826
1961.34	5.26222
1962.82	5.41085
1964.3	5.04663
1965.78	4.33452
1967.26	3.99855
1968.74	3.85912
1970.21	3.31479
1971.69	3.04392
1973.17	3.66078
1974.65	2.60339
1976.13	2.42297
1977.6	2.53347
1979.08	2.69677
1980.56	2.64958
1982.03	1.85454
1983.51	1.05539
1984.99	1.41015
1986.46	1.5242
1987.94	2.1265
1989.41	1.26458
1990.89	1.02988
1992.36	1.2082
1993.84	1.05949
1995.31	1.38006
1996.78	1.12588
1998.26	1.62928
1999.73	1.94857
2001.2	1.73177
2002.68	1.82325
2004.15	1.37661
2005.62	2.02241
2007.09	2.07182
2008.56	2.73052
2010.04	3.52378
2011.51	3.39209
2012.98	3.33145
2014.45	3.80098
2015.92	4.27298
2017.39	4.49387
2018.86	3.76468
2020.33	4.01483
2021.8	4.21424
2023.26	4.52978
2024.73	4.19928
2026.2	4.84145
2027.67	5.03803
2029.14	5.29037
2030.61	5.59729
2032.07	6.67617
2033.54	6.3045
2035.01	6.06866
2036.47	5.93529
2037.94	6.18717
2039.4	6.77503
2040.87	6.70057
2042.33	7.24574
2043.8	8.03729
2045.27	8.98753
2046.73	9.17683
2048.19	8.9554
2049.66	9.84982
2051.12	9.63773
2052.59	9.99548
2054.05	10.478
2055.51	10.9381
2056.97	11.4026
2058.44	12.2458
2059.9	12.0497
2061.36	12.0185
2062.82	12.3014
2064.28	12.6119
2065.74	13.3853
2067.21	13.7554
2068.67	14.442
2070.13	14.9423
2071.59	15.8053
2073.05	15.9886
2074.51	16.4132
2075.96	16.7401
2077.42	17.176
2078.88	17.9907
2080.34	17.8208
2081.8	18.4601
2083.26	18.1194
2084.72	17.7468
2086.17	18.48
2087.63	19.0291
2089.09	18.8661
2090.54	18.78
2092	18.9052
2093.45	19.9693
2094.91	20.2313
2096.37	20.8545
2097.82	21.4604
2099.28	22.0804
2100.73	22.6992
2102.19	23.1006
2103.64	23.5575
2105.09	23.9433
2106.55	23.7015
2108	24.6689
2109.45	25.1757
2110.91	25.6802
2112.36	26.1503
2113.81	27.867
2115.26	28.9684
2116.72	29.6099
2118.17	30.376
2119.62	30.628
2121.07	30.8823
2122.52	31.5243
2123.97	32.2777
2125.42	33.8123
2126.87	34.832
2128.32	35.7436
2129.77	36.504
2131.22	37.7383
2132.67	38.6453
2134.11	40.2199
2135.56	41.8032
2137.01	43.5413
2138.46	45.3801
2139.91	46.6559
2141.35	48.3735
2142.8	49.9956
2144.25	52.2015
2145.7	53.6857
2147.14	55.4557
2148.59	57.0428
2150.03	59.1688
2151.48	61.0054
2152.92	62.8834
2154.37	64.7533
2155.81	66.6157
2157.26	68.7857
2158.7	70.5105
2160.15	71.2188
2161.59	72.704
2163.03	74.2485
2164.47	75.4904
2165.92	77.0525
2167.36	77.5236
2168.8	78.481
2170.24	78.6281
2171.69	78.4431
2173.13	78.603
2174.57	78.6083
2176.01	78.347
2177.45	78.0797
2178.89	78.3115
2180.33	78.5174
2181.77	77.4998
2183.21	77.5174
2184.65	76.742
2186.09	75.9184
2187.53	73.9233
2188.97	72.3951
2190.4	71.278
2191.84	69.7636
2193.28	68.0873
2194.72	67.1787
2196.16	66.7681
2197.59	65.4804
2199.03	64.4205
2200.47	62.9831
2201.9	60.9252
2203.34	59.1433
2204.77	58.0024
2206.21	55.9665
2207.64	54.7176
2209.08	53.0711
2210.51	51.1466
2211.95	50.1847
2213.38	49.5806
2214.82	48.7713
2216.25	47.993
2217.68	45.8943
2219.12	44.6347
2220.55	43.3606
2221.98	42.2742
2223.41	41.4777
2224.85	40.643
2226.28	39.7108
2227.71	38.2945
2229.14	36.8635
2230.57	35.4805
2232	33.927
2233.43	33.3795
2234.86	32.2815
2236.29	30.7101
2237.72	29.3917
2239.15	28.148
2240.58	27.7964
2242.01	26.6362
2243.44	25.518
2244.87	25.1738
2246.29	24.3592
2247.72	23.4488
2249.15	22.6582
2250.58	21.9549
2252.01	21.1402
2253.43	20.2807
2254.86	20.9099
2256.29	19.9713
2257.71	19.3726
2259.14	18.9086
2260.56	18.2011
2261.99	18.0296
2263.41	17.8788
2264.84	17.4779
2266.26	17.991
2267.69	17.7473
2269.11	17.0769
2270.53	16.5554
2271.96	15.9574
2273.38	15.0674
2274.8	14.7745
2276.23	14.0888
2277.65	12.8303
2279.07	12.6283
2280.49	12.7832
2281.91	12.4305
2283.34	12.3381
2284.76	11.8787
2286.18	11.1342
2287.6	10.9432
2289.02	10.0199
2290.44	9.75695
2291.86	8.87286
2293.28	8.10939
2294.7	7.98176
2296.12	7.55832
2297.54	7.64277
2298.96	7.21618
2300.37	7.88984
2301.79	8.49344
2303.21	8.79852
2304.63	8.83863
2306.04	8.57997
2307.46	8.44073
2308.88	9.01237
2310.3	9.52547
2311.71	9.96049
2313.13	9.28982
2314.54	8.93935
2315.96	9.00733
2317.37	8.93796
2318.79	8.80408
2320.2	8.89818
2321.62	9.64588
2323.03	9.78695
2324.45	9.50955
2325.86	9.54197
2327.27	8.72032
2328.69	8.21385
2330.1	8.11875
2331.51	8.12893
2332.92	8.8714
2334.34	8.52346
2335.75	8.84326
2337.16	8.64168
2338.57	8.1864
2339.98	7.55137
2341.39	6.96525
2342.8	6.67786
2344.21	5.62683
2345.63	5.21642
2347.04	5.07128
2348.45	4.69384
2349.85	4.71479
2351.26	4.83665
2352.67	3.89459
2354.08	3.79542
2355.49	3.33963
2356.9	2.52042
2358.3	1.53854
2359.71	0.596132
2361.12	0.453779
2362.53	0.178547
2363.93	0.547611
2365.34	1.48655
2366.75	1.95321
2368.15	2.40126
2369.56	2.55511
2370.97	3.04329
2372.37	2.7331
2373.77	2.59406
2375.18	2.39655
2376.59	2.51136
2377.99	2.57251
2379.39	2.79735
2380.8	2.22065
2382.2	1.73411
2383.6	1.11765
2385.01	1.38578
2386.41	1.75347
2387.81	2.31322
2389.21	2.47513
2390.62	2.72452
2392.02	3.47463
2393.42	3.3597
2394.82	4.01123
2396.22	3.68002
2397.62	3.82422
2399.02	4.1043
2400.42	4.71465
2401.82	5.35395
2403.22	5.7467
2404.62	5.65567
2406.02	6.19108
2407.42	5.54383
2408.82	6.10291
2410.22	5.81574
2411.62	6.05305
2413.01	5.87426
2414.41	5.9351
2415.81	6.27162
2417.21	6.60972
2418.6	5.90811
2420	5.97347
2421.4	5.21024
2422.79	4.88897
2424.19	4.20127
2425.59	3.81949
2426.98	3.214
2428.38	3.15714
2429.77	3.13378
2431.17	3.10688
2432.56	2.56493
2433.95	2.11604
2435.35	2.50716
2436.74	1.70972
2438.14	1.91041
2439.53	1.68655
2440.92	1.84806
2442.31	1.01522
2443.71	1.08761
2445.1	0.749199
2446.49	0.882849
2447.88	0.759639
2449.27	0.893456
2450.67	0.496347
2452.06	0.791716
2453.45	1.83104
2454.84	2.42107
2456.23	2.4256
2457.62	2.7334
2459.01	3.01567
2460.4	3.13562
2461.79	3.7736
2463.18	3.66521
2464.57	4.03865
2465.95	3.20642
2467.34	3.63389
2468.73	3.59708
2470.12	4.08844
2471.5	3.99831
2472.89	4.26672
2474.28	4.44943
2475.67	4.63227
2477.05	4.60574
2478.44	5.24145
2479.82	4.9676
2481.21	4.76266
2482.6	4.72064
2483.98	4.53249
2485.37	4.36699
2486.75	3.89374
2488.13	3.28127
2489.52	2.92511
2490.9	3.01354
2492.29	3.38963
2493.67	2.62393
2495.05	2.8073
2496.44	2.66482
2497.82	2.18445
2499.2	2.05061
2500.58	2.6668
2501.97	2.76069
2503.35	3.00154
2504.73	3.31931
2506.11	2.28711
2507.49	2.51436
2508.87	2.87905
2510.25	3.10909
2511.63	2.46369
2513.01	3.2601
2514.39	3.48768
2515.77	3.45172
2517.15	3.91642
2518.53	3.57597
2519.91	4.02761
2521.29	4.02559
2522.67	4.70269
2524.05	4.4245
2525.42	4.16011
2526.8	4.80572
2528.18	4.65777
2529.55	4.2616
2530.93	4.30357
2532.31	4.29253
2533.69	4.32697
2535.06	3.69661
2536.44	3.29776
2537.81	3.49356
2539.19	3.65765
2540.56	3.71302
2541.94	3.89958
2543.31	3.96388
2544.69	3.79809
2546.06	3.35317
2547.44	3.75695
2548.81	3.5265
2550.18	3.15149
2551.56	3.18251
2552.93	3.03371
2554.3	3.16109
2555.67	2.8258
2557.04	3.04617
2558.42	3.42223
2559.79	3.93077
2561.16	3.64898
2562.53	3.9212
2563.9	4.253
2565.27	4.09647
2566.64	4.50461
2568.01	4.80995
2569.38	5.00342
2570.75	4.52479
2572.12	4.38211
2573.49	4.15755
2574.86	4.15458
2576.23	4.66552
2577.6	5.21478
2578.97	5.16626
2580.33	5.34891
2581.7	5.74695
2583.07	5.41832
2584.44	5.45385
2585.8	5.88968
2587.17	5.57619
2588.54	6.17859
2589.9	6.11701
2591.27	6.113
2592.64	5.81517
2594	5.82107
2595.37	5.51114
2596.73	4.62735
2598.1	4.67449
2599.46	4.30154
2600.83	4.25274
2602.19	4.13901
2603.55	3.9766
2604.92	3.74524
2606.28	3.92083
2607.64	3.63928
2609.01	3.80219
2610.37	3.34351
2611.73	3.04152
2613.09	2.26575
2614.46	1.97905
2615.82	2.28872
2617.18	1.58349
2618.54	1.52564
2619.9	1.3261
2621.26	1.52504
2622.62	1.60172
2623.98	1.85304
2625.34	2.68167
2626.7	2.8277
2628.06	2.8403
2629.42	3.10279
2630.78	3.12978
2632.14	2.43988
2633.5	2.24983
2634.86	2.78467
2636.21	2.46174
2637.57	2.83894
2638.93	3.12773
2640.29	3.33103
2641.64	3.46021
2643	3.94439
2644.36	4.03243
2645.71	4.46159
2647.07	4.74947
2648.43	5.30356
2649.78	5.53822
2651.14	5.63864
2652.49	6.11445
2653.85	5.8109
2655.2	5.49997
2656.56	5.22372
2657.91	5.07018
2659.26	4.66781
2660.62	5.0854
2661.97	4.64305
2663.32	4.1879
2664.68	3.92063
2666.03	4.03719
2667.38	3.85642
2668.74	4.46328
2670.09	4.22373
2671.44	3.90756
2672.79	3.65707
2674.14	3.49147
2675.49	3.71044
2676.84	3.38702
2678.19	3.01722
2679.54	2.30271
2680.89	2.5837
2682.24	2.18834
2683.59	2.07126
2684.94	1.61908
2686.29	1.6559
2687.64	1.54821
2688.99	1.91501
2690.34	2.30745
2691.69	2.31793
2693.03	2.0135
2694.38	1.65448
2695.73	2.24241
2697.08	2.31174
2698.42	2.17671
2699.77	2.94349
2701.12	3.26559
2702.46	3.96469
2703.81	4.2207
2705.15	3.67354
2706.5	3.54156
2707.85	3.66843
2709.19	4.24635
2710.54	4.72849
2711.88	4.85238
2713.22	5.75999
2714.57	5.67508
2715.91	6.32002
2717.26	6.27941
2718.6	6.28961
2719.94	6.22142
2721.29	6.31792
2722.63	6.53065
2723.97	6.4446
2725.31	6.50235
2726.66	6.59782
2728	6.3316
2729.34	5.79837
2730.68	5.88046
2732.02	5.65435
2733.36	6.28277
2734.7	6.40047
2736.04	6.7613
2737.38	6.79174
2738.72	6.57001
2740.06	6.83102
2741.4	6.62877
2742.74	6.51923
2744.08	5.62539
2745.42	5.25082
2746.76	4.74208
2748.09	4.26147
2749.43	3.1484
2750.77	3.09564
2752.11	3.08919
2753.45	2.81947
2754.78	2.77164
2756.12	2.26925
2757.46	2.17074
2758.79	2.17111
2760.13	1.91943
2761.46	1.87009
2762.8	1.95136
2764.14	1.93316
2765.47	1.62724
2766.8	1.51051
2768.14	0.916684
2769.47	0.818478
2770.81	0.471002
2772.14	0.20624
2773.48	1.03998
2774.81	1.78249
2776.14	1.97047
2777.48	1.99193
2778.81	1.94114
2780.14	2.08306
2781.47	1.86935
2782.8	2.84499
2784.14	2.9781
2785.47	2.94421
2786.8	2.63591
2788.13	2.86091
2789.46	2.86727
2790.79	2.77607
2792.12	3.59386
2793.45	3.50685
2794.78	3.33475
2796.11	3.85343
2797.44	4.08814
2798.77	4.31269
2800.1	4.89174
2801.43	4.6535
2802.76	4.73677
2804.09	4.19119
2805.41	3.3268
2806.74	2.99644
2808.07	2.2551
2809.4	1.66655
2810.72	1.45136
2812.05	1.43135
2813.38	1.22771
2814.71	0.526499
2816.03	1.00488
2817.36	1.63771
2818.68	2.1431
2820.01	2.31766
2821.33	3.57303
2822.66	4.18474
2823.98	5.76485
2825.31	7.13374
2826.63	7.9582
2827.96	9.21456
2829.28	10.8917
2830.6	12.6813
2831.93	13.8094
2833.25	15.1416
2834.57	17.1022
2835.9	18.5675
2837.22	20.8268
2838.54	22.9358
2839.86	25.1423
2841.18	27.0736
2842.5	29.7084
2843.83	31.9841
2845.15	34.3366
2846.47	36.9004
2847.79	40.1893
2849.11	43.5298
2850.43	46.5725
2851.75	49.95
2853.07	53.4911
2854.39	57.5119
2855.71	60.9313
2857.03	63.6858
2858.35	67.0228
2859.66	70.0607
2860.98	73.1218
2862.3	76.1303
2863.62	78.3829
2864.94	80.8666
2866.25	83.2734
2867.57	85.8879
2868.89	87.5743
2870.2	89.4861
2871.52	91.6182
2872.84	93.5685
2874.15	95.557
2875.47	97.8859
2876.78	100.55
2878.1	101.966
2879.41	103.714
2880.73	105.554
2882.04	107.634
2883.36	110.122
2884.67	111.639
2885.99	113.026
2887.3	115.404
2888.61	116.965
2889.93	119.342
2891.24	122.034
2892.55	123.717
2893.86	125.754
2895.18	127.947
2896.49	130.243
2897.8	132.274
2899.11	134.681
2900.42	137.928
2901.73	140.526
2903.05	144.677
2904.36	148.085
2905.67	152.901
2906.98	156.912
2908.29	161.219
2909.6	164.743
2910.91	168.818
2912.21	173.269
2913.52	178.285
2914.83	182.581
2916.14	186.753
2917.45	191.042
2918.76	194.441
2920.07	198.122
2921.37	201.581
2922.68	204.774
2923.99	208.218
2925.29	210.956
2926.6	212.561
2927.91	214.426
2929.22	215.631
2930.52	216.846
2931.83	217.709
2933.13	218.13
2934.44	217.507
2935.74	216.994
2937.05	216.227
2938.35	214.44
2939.66	213.266
2940.96	211.612
2942.26	209.428
2943.57	206.091
2944.87	203.133
2946.18	199.935
2947.48	196.762
2948.78	193.192
2950.08	189.282
2951.39	185.296
2952.69	181.71
2953.99	178.261
2955.29	174.515
2956.59	170.695
2957.9	165.608
2959.2	161.863
2960.5	157.966
2961.8	153.583
2963.1	149.368
2964.4	145.705
2965.7	142.084
2967	137.873
2968.3	134.771
2969.6	130.616
2970.9	126.607
2972.19	122.021
2973.49	117.83
2974.79	113.68
2976.09	110.027
2977.39	106.815
2978.68	103.899
2979.98	99.9934
2981.28	95.8708
2982.58	92.1375
2983.87	88.0151
2985.17	84.8233
2986.47	80.6788
2987.76	76.7317
2989.06	72.7737
2990.35	69.1328
2991.65	65.1513
2992.94	61.5255
2994.24	57.7901
2995.53	54.2444
2996.83	51.0129
2998.12	47.6931
2999.42	44.1745
3000.71	40.8242
3002	38.0304
3003.3	34.9955
3004.59	32.5163
3005.88	29.9557
3007.18	27.952
3008.47	25.7254
3009.76	23.6137
3011.05	21.9287
3012.34	20.0171
3013.64	18.2162
3014.93	17.3822
3016.22	15.4843
3017.51	14.2532
3018.8	13.359
3020.09	11.3556
3021.38	10.3124
3022.67	9.48547
3023.96	9.02953
3025.25	7.97967
3026.54	6.6987
3027.83	6.14461
3029.12	4.99848
3030.41	4.17931
3031.69	4.21979
3032.98	3.97993
3034.27	3.65271
3035.56	3.87993
3036.84	4.07217
3038.13	3.76353
3039.42	4.05876
3040.71	4.73415
3041.99	4.83721
3043.28	5.08711
3044.57	4.4654
3045.85	4.64322
3047.14	4.9729
3048.42	5.06824
3049.71	5.07505
3050.99	4.92491
3052.28	5.31247
3053.56	5.24213
3054.85	5.29974
3056.13	5.2407
3057.41	5.51736
3058.7	5.5511
3059.98	5.09082
3061.26	5.48339
3062.55	5.3137
3063.83	5.70869
3065.11	5.94653
3066.39	6.58779
3067.68	6.89115
3068.96	7.18365
3070.24	7.45016
3071.52	7.53888
3072.8	6.90631
3074.08	6.06309
3075.36	5.47829
3076.65	5.33069
3077.93	5.70021
3079.21	5.57026
3080.49	4.73889
3081.77	4.3144
3083.04	4.01293
3084.32	3.61377
3085.6	3.57178
3086.88	3.46669
3088.16	2.7665
3089.44	2.0483
3090.72	1.81944
3091.99	1.67159
3093.27	1.25754
3094.55	1.88464
3095.83	1.65702
3097.1	1.16373
3098.38	1.48889
3099.66	1.47455
3100.93	0.931051
3102.21	1.14306
3103.49	1.45098
3104.76	1.49863
3106.04	1.24273
3107.31	1.00339
3108.59	0.753108
3109.86	0.580837
3111.14	0.355343
3112.41	-0.0484883
3113.69	-0.462091
3114.96	-0.153749
3116.23	-0.172179
3117.51	0.127294
3118.78	0.322937
3120.05	0.576846
3121.33	0.682863
3122.6	0.526058
3123.87	0.602628
3125.14	1.47144
3126.41	1.53057
3127.69	2.1979
3128.96	2.11057
3130.23	2.52451
3131.5	2.11657
3132.77	2.22903
3134.04	2.18739
3135.31	2.29627
3136.58	2.29211
3137.85	2.7815
3139.12	3.63152
3140.39	4.63448
3141.66	5.13872
3142.93	5.46288
3144.2	6.05523
3145.47	6.82519
3146.74	7.72724
3148	8.70565
3149.27	9.71427
