#Acq. time (s)=	45
#Accumulations=	2
#Range (cm-¹)=	200...3150
#Windows=	2
#Auto scanning=	Off
#Autofocus=	Off
#Macrospot=	Off
#AutoExposure=	Off
#Spike filter=	Multiple accum.
#Delay time (s)=	0
#Binning=	1
#Readout mode=	Signal
#DeNoise=	Off
#ICS correction=	On
#Dark correction=	Off
#Inst. Process=	Off
#Detector Gain=	Best Dynamic Range
#Detector ADC=	20 kHz       
#Detector temperature (°C)=	-69.85
#Instrument=	LabRAM HR Evol
#Detector=	Synapse
#Objective=	x100
#Grating=	600 gr/mm
#ND Filter=	100%
#Laser (nm)=	532 
#Hole=	100.021
#Range=	Auto
#Laser Pol.=	No
#Raman. Pol.=	No
#Laser Pol. (°)=	-0.0007625
#Raman Pol. (°)=	89.9995
#Collection=	Microscope
#StageXY=	Marzhauser
#StageZ=	Marzhauser
#X (µm)=	-6351.9
#Y (µm)=	809.6
#Z (µm)=	-64.95
#Full time(mm:ss)=	3:18
#Project=	
#Sample=	
#Site=	
#Title=	Mb_30_27_35_2x_45s_532 nm_x100_100%_600 gr_mm
#Remark=	
#Date=	13.07.2022 11:20
#Acquired=	13.07.2022 11:20:55
#Base:Fit=	10.08.2022 10:40:03
#Base:Sub=	10.08.2022 10:40:17
#Filter:Polynom=	16.08.2022 10:16:15
#AxisType[0]=Intens
#AxisUnit[0]=Cnt
#AxisType[1]=Spectr
#AxisUnit[1]=1/cm
200.563	37.517
202.377	34.0311
204.194	29.9268
206.008	25.9009
207.821	22.2848
209.634	19.4042
211.449	17.2853
213.262	15.5293
215.074	14.767
216.885	12.3964
218.699	10.9932
220.51	10.9371
222.321	10.5759
224.131	10.1145
225.941	9.76495
227.751	8.50299
229.562	7.17268
231.371	6.41151
233.18	6.43022
234.988	5.86593
236.796	5.43868
238.603	5.26456
240.411	4.56126
242.219	4.1488
244.026	3.41234
245.832	3.17486
247.638	2.96162
249.443	3.3586
251.248	4.05349
253.053	3.20338
254.857	3.29908
256.661	3.64537
258.465	4.41734
260.268	4.30986
262.071	5.32577
263.874	6.82939
265.678	7.40592
267.48	7.79996
269.282	6.94457
271.083	7.10605
272.884	6.34234
274.684	6.70956
276.484	6.95863
278.284	8.0014
280.084	7.84593
281.883	7.78206
283.682	7.84706
285.48	7.50485
287.276	7.27667
289.074	7.62668
290.871	8.61388
292.668	9.15966
294.465	9.82956
296.261	10.813
298.057	11.8347
299.853	12.3151
301.648	12.6983
303.443	12.0795
305.237	12.4871
307.032	12.2222
308.823	14.0348
310.617	14.0816
312.41	13.2728
314.203	12.9488
315.995	12.9713
317.788	12.9615
319.579	12.4527
321.369	12.083
323.16	12.3632
324.951	11.5487
326.741	12.1352
328.531	12.9643
330.321	12.6382
332.108	12.5504
333.897	12.2442
335.686	12.9261
337.474	13.0829
339.26	13.8367
341.048	13.8158
342.835	12.8833
344.622	12.8185
346.406	13.2984
348.192	12.4285
349.978	13.3141
351.764	13.4642
353.547	13.3055
355.332	13.319
357.116	13.5685
358.901	13.2561
360.682	13.2948
362.466	12.2283
364.249	12.3232
366.03	12.503
367.812	12.7137
369.594	11.3947
371.374	10.9164
373.155	11.1175
374.936	10.4933
376.715	10.0146
378.495	10.4389
380.273	9.29083
382.053	8.45794
383.832	8.34797
385.609	7.86763
387.388	7.28052
389.164	6.57113
390.942	6.45382
392.72	6.0552
394.495	7.2609
396.272	7.00298
398.047	7.281
399.823	6.51968
401.597	6.34269
403.372	6.08415
405.145	6.58826
406.92	6.16258
408.693	5.50544
410.467	5.52957
412.239	6.33191
414.012	7.44149
415.783	8.2985
417.556	7.98857
419.327	6.87798
421.099	6.63934
422.869	6.28351
424.64	6.32351
426.409	5.94124
428.18	6.22495
429.948	6.03199
431.718	5.95347
433.486	5.94131
435.253	6.28121
437.022	6.25287
438.789	6.98077
440.558	6.78462
442.324	7.79825
444.089	6.79089
445.857	5.41913
447.622	4.72472
449.386	3.86527
451.153	2.62303
452.917	3.42243
454.682	4.09051
456.446	3.7667
458.208	3.32852
459.973	3.58575
461.735	4.36947
463.497	4.22251
465.259	4.99429
467.022	5.09788
468.783	4.82732
470.544	5.6358
472.306	6.6102
474.066	6.84269
475.825	7.8247
477.585	8.51919
479.346	9.31553
481.104	10.4327
482.862	11.1332
484.62	11.2236
486.38	11.5437
488.137	11.3917
489.894	11.7435
491.65	12.671
493.407	12.9499
495.164	12.4129
496.92	12.5273
498.675	13.0953
500.43	13.5851
502.184	13.5901
503.939	13.2516
505.694	13.3666
507.448	13.1736
509.201	13.2852
510.954	13.4102
512.706	13.7764
514.459	13.0629
516.21	13.2486
517.962	12.4651
519.715	11.775
521.466	10.8736
523.216	10.7925
524.966	10.5447
526.716	10.0457
528.466	9.97256
530.215	9.30427
531.964	7.69624
533.712	7.58632
535.46	7.57452
537.208	6.95909
538.955	6.50651
540.703	7.3127
542.449	7.91192
544.196	7.4112
545.942	7.53234
547.688	7.05366
549.433	7.50056
551.178	7.21383
552.923	7.19015
554.667	6.19686
556.412	5.82296
558.155	6.27942
559.899	6.16865
561.642	5.36386
563.385	5.49624
565.127	5.79907
566.867	5.43744
568.609	5.04801
570.35	4.26118
572.092	4.81546
573.832	3.85998
575.573	4.08857
577.313	3.78972
579.053	3.92819
580.79	2.93802
582.529	3.18223
584.268	3.57924
586.006	3.91827
587.745	3.81364
589.482	4.05337
591.218	4.13872
592.955	3.46385
594.692	2.8652
596.428	2.60067
598.164	2.23085
599.898	1.09426
601.634	1.7364
603.369	3.07724
605.104	3.20778
606.836	3.37431
608.57	4.34654
610.304	4.44288
612.037	4.13561
613.769	4.62459
615.501	4.92981
617.234	5.43823
618.966	5.84387
620.696	6.53896
622.427	6.92585
624.159	7.43113
625.887	8.29449
627.618	9.31902
629.348	9.61023
631.076	9.98438
632.806	10.1689
634.535	10.6601
636.262	11.2534
637.99	11.4555
639.716	11.2616
641.444	11.1672
643.172	11.8469
644.897	12.8199
646.624	12.9741
648.348	13.0132
650.075	13.653
651.801	13.7759
653.524	12.7861
655.249	12.9988
656.972	13.4017
658.697	14.0205
660.419	13.5569
662.143	14.6804
663.865	15.5494
665.588	16.3181
667.309	15.7906
669.032	17.0639
670.752	18.1248
672.474	18.9133
674.194	19.0697
675.915	19.1786
677.634	18.9246
679.355	19.4148
681.073	20.6216
682.793	21.5638
684.511	23.3027
686.23	24.6362
687.947	26.4255
689.664	27.3442
691.382	27.6037
693.098	28.1221
694.816	28.851
696.531	29.5383
698.247	30.6018
699.963	31.5409
701.678	32.3027
703.392	33.0896
705.108	33.7422
706.821	34.2038
708.534	33.8067
710.249	34.75
711.962	36.147
713.674	36.9267
715.388	37.599
717.099	38.2244
718.81	38.2655
720.523	39.0763
722.234	39.5527
723.944	41.0802
725.654	40.4368
727.365	40.5062
729.075	41.1299
730.784	41.404
732.492	41.3498
734.202	41.5536
735.91	42.1005
737.618	42.58
739.325	43.5905
741.034	45.4041
742.741	46.4693
744.447	47.6587
746.153	48.0394
747.859	49.4102
749.564	50.4549
751.271	51.5516
752.976	53.1065
754.681	54.8102
756.385	56.1031
758.088	57.1564
759.792	58.0765
761.495	58.8028
763.2	60.2429
764.902	62.2403
766.604	64.7526
768.306	65.9374
770.008	67.5109
771.709	68.3644
773.41	69.683
775.11	70.4311
776.811	70.2458
778.51	71.0842
780.21	71.9607
781.909	73.1529
783.608	73.2183
785.307	73.337
787.005	74.4478
788.703	75.3434
790.401	75.8912
792.098	76.0606
793.795	76.9563
795.492	78.0261
797.188	78.3355
798.884	77.7146
800.58	77.6927
802.276	77.8572
803.971	78.5382
805.665	79.0581
807.36	78.4504
809.054	78.8365
810.748	77.2309
812.441	77.4818
814.135	77.1316
815.826	77.5327
817.518	77.7292
819.21	77.0259
820.902	76.0695
822.594	76.1555
824.285	76.3336
825.976	75.87
827.665	75.0507
829.355	74.922
831.045	74.5409
832.735	74.4578
834.424	73.8807
836.111	73.4616
837.8	72.5802
839.488	71.7939
841.177	71.537
842.864	70.8213
844.55	69.9933
846.237	69.2329
847.924	69.7426
849.61	68.1778
851.295	67.5393
852.98	66.2672
854.666	65.2016
856.349	64.5685
858.034	62.7541
859.719	61.3995
861.403	60.4208
863.085	59.0497
864.769	57.3753
866.452	56.719
868.133	55.8057
869.816	54.8875
871.498	54.2652
873.179	53.3336
874.86	52.5081
876.54	51.2374
878.221	50.5319
879.902	50.0774
881.58	48.7942
883.26	48.7407
884.938	49.1979
886.618	48.2952
888.297	48.0021
889.974	47.7865
891.653	46.6424
893.329	46.4411
895.007	45.7168
896.683	45.6476
898.36	45.3913
900.035	46.2416
901.712	45.0007
903.387	45.0614
905.063	45.0765
906.737	46.0194
908.412	46.6092
910.085	46.648
911.76	46.9599
913.433	46.4492
915.107	46.239
916.779	46.4432
918.452	46.8862
920.124	46.6581
921.797	47.3384
923.467	48.4329
925.138	48.3225
926.81	47.3705
928.48	47.2401
930.151	47.5372
931.82	46.5924
933.489	44.5902
935.16	44.4236
936.828	43.7819
938.496	42.8811
940.165	42.1193
941.833	40.8362
943.5	39.8783
945.168	38.6241
946.834	37.7692
948.5	37.6222
950.168	38.0121
951.834	36.62
953.499	34.9743
955.163	33.9736
956.83	33.1974
958.494	31.9305
960.158	30.2102
961.821	29.915
963.487	29.5152
965.15	27.8002
966.812	27.2955
968.474	26.859
970.138	26.2539
971.8	25.993
973.461	25.7444
975.123	23.9718
976.783	23.4226
978.446	23.6806
980.106	23.7148
981.766	23.3357
983.425	22.792
985.084	22.3888
986.743	22.5369
988.402	21.7501
990.06	22.1059
991.72	22.153
993.378	21.8107
995.035	21.868
996.692	21.6447
998.349	22.7187
1000.01	22.5168
1001.66	21.3717
1003.32	21.2114
1004.97	22.3172
1006.63	22.6905
1008.28	21.9297
1009.94	22.6668
1011.59	23.8969
1013.25	24.1303
1014.9	24.0914
1016.55	25.058
1018.21	26.082
1019.86	26.9576
1021.51	27.1274
1023.16	27.8634
1024.81	28.2206
1026.47	28.554
1028.12	30.1
1029.77	30.8162
1031.42	31.3846
1033.07	31.4884
1034.72	30.5334
1036.37	30.6218
1038.02	30.3461
1039.67	29.3935
1041.31	28.7924
1042.96	29.1474
1044.61	28.6104
1046.26	27.9281
1047.91	26.532
1049.55	25.5198
1051.2	25.3372
1052.84	24.5791
1054.49	23.8677
1056.14	22.9836
1057.78	22.0133
1059.43	22.0767
1061.07	21.6397
1062.72	20.5912
1064.36	19.2451
1066	18.2005
1067.65	17.6586
1069.29	16.9097
1070.93	16.8457
1072.58	15.8506
1074.22	14.1875
1075.86	12.3489
1077.5	11.3035
1079.14	10.7586
1080.78	10.5272
1082.42	9.2035
1084.06	9.33463
1085.7	10.8046
1087.34	11.2032
1088.98	11.1821
1090.62	11.4362
1092.26	12.2798
1093.9	11.9799
1095.54	12.5551
1097.17	11.8465
1098.81	11.1988
1100.45	10.6193
1102.09	11.2376
1103.72	11.2718
1105.36	11.9911
1106.99	12.068
1108.63	12.4158
1110.27	13.1837
1111.9	12.9573
1113.53	12.4662
1115.17	11.9968
1116.8	11.9006
1118.43	11.2366
1120.07	9.99102
1121.7	10.0537
1123.33	9.63165
1124.97	9.48243
1126.6	8.4375
1128.23	8.12042
1129.86	7.98634
1131.49	7.85341
1133.12	8.34167
1134.75	8.71886
1136.38	8.38765
1138.01	7.5419
1139.64	7.07341
1141.27	6.91371
1142.9	6.52904
1144.53	6.75726
1146.16	6.35586
1147.78	6.23577
1149.41	6.10674
1151.04	5.43242
1152.67	4.69134
1154.29	2.69064
1155.92	1.41372
1157.54	2.06694
1159.17	2.64792
1160.8	2.63263
1162.42	2.36751
1164.05	2.20504
1165.67	3.12361
1167.29	3.25807
1168.92	2.84051
1170.54	2.9332
1172.16	2.69209
1173.79	2.18138
1175.41	0.988758
1177.03	1.59338
1178.65	0.788391
1180.28	0.82909
1181.9	1.24935
1183.52	1.56649
1185.14	1.66576
1186.76	2.14417
1188.38	2.00992
1190	2.95306
1191.62	3.32062
1193.24	3.25138
1194.86	2.98724
1196.47	2.90997
1198.09	3.08974
1199.71	2.94066
1201.33	3.69425
1202.95	4.12437
1204.56	3.85594
1206.18	4.42933
1207.8	4.80069
1209.41	4.9717
1211.03	5.63796
1212.64	5.65604
1214.26	5.88092
1215.87	6.88564
1217.49	6.74392
1219.1	6.34643
1220.71	7.79823
1222.33	9.30309
1223.94	10.0708
1225.55	10.7366
1227.16	10.7981
1228.78	11.4714
1230.39	10.4731
1232	10.6687
1233.61	10.5768
1235.22	10.6965
1236.83	12.157
1238.44	13.1602
1240.05	13.455
1241.66	14.1453
1243.27	15.8255
1244.88	17.4097
1246.49	17.9152
1248.1	18.6412
1249.71	19.4949
1251.32	20.3615
1252.92	20.6509
1254.53	20.7974
1256.14	20.7836
1257.74	22.2863
1259.35	22.2729
1260.96	22.6474
1262.56	23.2331
1264.17	23.8819
1265.77	24.2402
1267.38	24.7177
1268.98	24.2417
1270.59	25.1556
1272.19	25.2261
1273.79	24.8459
1275.4	25.1979
1277	25.0301
1278.6	25.5033
1280.21	25.7041
1281.81	26.0268
1283.41	25.2083
1285.01	24.6383
1286.61	24.4804
1288.21	24.7833
1289.81	24.9802
1291.41	26.3711
1293.01	26.5754
1294.61	26.063
1296.21	26.8002
1297.81	26.8632
1299.41	26.2365
1301.01	27.4125
1302.6	27.0027
1304.2	26.2628
1305.8	26.0177
1307.4	25.8252
1308.99	25.4884
1310.59	24.7102
1312.19	26.2378
1313.78	26.7781
1315.38	27.4455
1316.97	28.5733
1318.57	28.7589
1320.16	29.4798
1321.76	28.9932
1323.35	30.0747
1324.94	30.3441
1326.54	30.7351
1328.13	31.8435
1329.72	31.8368
1331.32	31.2082
1332.91	31.2138
1334.5	30.7218
1336.09	31.2852
1337.68	31.8425
1339.27	31.2853
1340.87	30.8493
1342.45	30.5531
1344.04	30.6978
1345.64	29.9865
1347.22	30.3023
1348.81	29.5664
1350.4	29.8327
1351.99	28.8151
1353.58	27.6532
1355.17	27.1341
1356.75	25.7394
1358.34	24.9642
1359.93	24.2687
1361.51	23.549
1363.1	22.3311
1364.69	21.6795
1366.27	21.5775
1367.86	21.7772
1369.44	20.7644
1371.03	20.7713
1372.61	19.3735
1374.2	18.0864
1375.78	18.348
1377.37	17.3261
1378.95	16.204
1380.53	16.2065
1382.11	15.6636
1383.7	14.8472
1385.28	14.18
1386.86	13.6951
1388.44	13.7788
1390.02	13.6372
1391.6	14.4011
1393.19	13.6386
1394.77	13.7378
1396.35	14.5419
1397.93	13.83
1399.51	13.3207
1401.08	13.421
1402.66	15.3916
1404.24	15.6812
1405.82	15.694
1407.4	15.5305
1408.97	15.4657
1410.55	16.2627
1412.13	17.3732
1413.71	17.9964
1415.28	19.6677
1416.86	19.8749
1418.43	20.2385
1420.01	21.1399
1421.59	23.5199
1423.16	24.5895
1424.73	25.313
1426.31	26.5501
1427.88	27.362
1429.46	27.9243
1431.03	28.9422
1432.6	29.4132
1434.18	30.1635
1435.75	31.286
1437.32	31.7668
1438.89	33.0747
1440.46	34.1136
1442.04	34.6709
1443.61	34.9489
1445.18	35.9108
1446.75	35.9078
1448.32	36.4594
1449.89	37.6126
1451.46	37.0389
1453.03	36.6606
1454.6	36.4446
1456.16	36.2277
1457.73	36.3324
1459.3	36.4807
1460.87	35.9713
1462.44	35.0809
1464	34.779
1465.57	35.079
1467.14	34.863
1468.7	34.4379
1470.27	35.1227
1471.83	34.7163
1473.4	34.2343
1474.96	33.4564
1476.53	32.9713
1478.09	32.978
1479.66	33.1488
1481.22	32.5653
1482.78	31.4658
1484.35	30.3962
1485.91	29.3137
1487.47	29.7506
1489.04	29.6722
1490.6	28.8011
1492.16	28.1309
1493.72	27.2488
1495.28	26.6917
1496.84	26.8172
1498.4	27.056
1499.96	27.2851
1501.52	25.5687
1503.08	24.939
1504.64	25.0991
1506.2	24.8492
1507.76	23.5303
1509.32	22.9414
1510.88	21.6532
1512.44	21.4526
1513.99	20.6345
1515.55	20.0843
1517.11	20.3501
1518.66	19.9
1520.22	18.7802
1521.78	18.3329
1523.33	18.2564
1524.89	17.3766
1526.44	17.9552
1528	17.9441
1529.55	17.1553
1531.11	16.2848
1532.66	15.8166
1534.21	15.9902
1535.77	15.5435
1537.32	15.0545
1538.87	14.3182
1540.43	14.0328
1541.98	14.5389
1543.53	14.9971
1545.08	14.7098
1546.63	14.7588
1548.18	15.7367
1549.74	15.2606
1551.29	15.2073
1552.84	15.8584
1554.39	15.9938
1555.94	15.0037
1557.48	14.96
1559.03	14.6925
1560.58	15.2175
1562.13	14.6873
1563.68	15.4051
1565.23	15.8502
1566.78	15.098
1568.32	15.9269
1569.87	16.5133
1571.42	17.3149
1572.96	18.1513
1574.51	17.9186
1576.05	18.6358
1577.6	18.9084
1579.14	19.5516
1580.69	20.3589
1582.24	21.0457
1583.78	20.9467
1585.32	21.9836
1586.87	23.0154
1588.41	24.1441
1589.95	24.6728
1591.5	25.0856
1593.04	26.3592
1594.58	26.3703
1596.12	27.1265
1597.67	27.9381
1599.21	28.7833
1600.75	29.3869
1602.29	29.0575
1603.83	29.3695
1605.37	29.1039
1606.91	27.5331
1608.45	27.5736
1609.99	28.0024
1611.53	28.8398
1613.07	28.8528
1614.6	29.1075
1616.14	28.9529
1617.68	29.4034
1619.22	30.6061
1620.75	30.372
1622.29	30.2014
1623.83	31.3637
1625.37	31.9203
1626.9	31.6702
1628.44	32.004
1629.97	32.2877
1631.51	32.0683
1633.04	32.2315
1634.58	32.4212
1636.11	32.3939
1637.65	31.8673
1639.18	31.8988
1640.72	32.9584
1642.25	32.1863
1643.78	33.1198
1645.31	35.2476
1646.85	35.2743
1648.38	35.2166
1649.91	35.3348
1651.44	35.6838
1652.97	36.3479
1654.5	37.083
1656.03	37.5169
1657.56	37.696
1659.1	38.4072
1660.62	38.2196
1662.15	38.4005
1663.68	37.4748
1665.21	36.935
1666.74	35.6231
1668.27	35.7051
1669.8	35.1253
1671.32	34.5198
1672.85	34.2766
1674.38	33.0535
1675.91	32.2367
1677.43	31.3288
1678.96	30.5752
1680.49	29.62
1682.01	28.3638
1683.54	27.5736
1685.06	27.2687
1686.59	26.4529
1688.11	25.9036
1689.64	24.3263
1691.16	23.5207
1692.68	22.1931
1694.21	22.2542
1695.73	21.4042
1697.25	20.4163
1698.78	19.8832
1700.3	18.8908
1701.82	17.3459
1703.34	16.6241
1704.86	15.9594
1706.39	14.9476
1707.91	14.027
1709.43	13.159
1710.95	11.7684
1712.47	11.5162
1713.99	10.8187
1715.51	11.1332
1717.02	10.4533
1718.54	9.43851
1720.06	10.2542
1721.58	10.41
1723.1	8.83898
1724.62	8.06695
1726.13	8.03113
1727.65	8.05315
1729.17	7.71208
1730.68	7.53468
1732.2	6.38402
1733.72	5.81063
1735.23	5.4165
1736.75	4.36662
1738.26	4.09472
1739.78	4.01522
1741.29	3.33751
1742.81	3.47928
1744.32	3.83652
1745.84	3.13712
1747.35	3.67246
1748.86	3.97997
1750.37	4.27158
1751.89	4.33313
1753.4	3.64976
1754.91	3.17996
1756.42	2.6932
1757.93	3.0169
1759.45	3.55236
1760.96	3.51019
1762.47	3.87206
1763.98	3.58166
1765.49	3.61805
1767	4.23936
1768.51	4.73276
1770.02	5.14345
1771.53	5.06334
1773.03	4.83476
1774.54	4.61006
1776.05	4.90195
1777.56	5.02511
1779.07	5.15519
1780.57	5.17005
1782.08	5.26481
1783.59	4.94578
1785.09	4.6833
1786.6	4.60297
1788.11	4.98145
1789.61	5.21973
1791.12	5.33838
1792.62	5.27391
1794.13	5.35039
1795.63	5.37937
1797.13	4.67715
1798.64	4.08998
1800.14	4.37084
1801.65	4.1387
1803.15	3.69952
1804.65	2.9399
1806.15	2.86865
1807.66	2.19459
1809.16	2.00219
1810.66	2.34799
1812.16	2.08621
1813.66	1.86179
1815.16	1.64907
1816.66	1.5159
1818.16	1.63068
1819.66	1.3087
1821.16	1.51636
1822.66	2.14504
1824.16	1.96496
1825.66	1.12814
1827.16	0.770234
1828.66	0.963834
1830.16	1.04874
1831.65	1.51769
1833.15	1.7096
1834.65	1.84992
1836.14	1.76685
1837.64	1.61788
1839.14	1.6325
1840.63	1.74513
1842.13	1.83793
1843.62	1.63402
1845.12	1.39771
1846.61	1.31569
1848.11	1.18484
1849.6	1.38035
1851.1	1.4499
1852.59	0.648896
1854.08	0.373833
1855.58	0.809742
1857.07	1.16171
1858.56	1.44017
1860.05	2.17479
1861.55	2.20664
1863.04	2.26146
1864.53	2.37609
1866.02	2.02257
1867.51	2.20452
1869	2.16897
1870.49	2.22378
1871.98	2.53649
1873.47	2.97701
1874.96	3.10284
1876.45	2.70566
1877.94	2.93448
1879.43	3.93121
1880.92	4.67407
1882.41	4.04031
1882.51	4.18114
1884	4.32907
1885.5	4.37351
1886.99	4.64685
1888.48	4.91598
1889.98	4.90584
1891.47	5.34336
1892.96	5.8312
1894.46	6.24829
1895.95	6.1841
1897.44	6.29079
1898.93	6.19807
1900.42	6.16666
1901.91	6.40597
1903.41	6.83443
1904.9	6.68438
1906.39	6.83549
1907.88	6.70507
1909.37	6.65286
1910.86	6.51747
1912.35	6.67641
1913.83	6.58621
1915.32	7.25114
1916.81	7.3045
1918.3	6.99802
1919.79	6.3944
1921.27	5.71339
1922.76	5.08907
1924.25	4.7971
1925.74	4.30504
1927.22	4.74795
1928.71	5.26663
1930.19	4.939
1931.68	5.10426
1933.17	4.48776
1934.65	4.42181
1936.14	4.05662
1937.62	3.78886
1939.11	4.1576
1940.59	4.38274
1942.07	4.34416
1943.56	4.39253
1945.04	4.69712
1946.52	4.93422
1948.01	4.91949
1949.49	4.84837
1950.97	5.49292
1952.45	5.81361
1953.93	5.52984
1955.42	4.67506
1956.9	4.69678
1958.38	5.03096
1959.86	4.95915
1961.34	4.9216
1962.82	4.8528
1964.3	4.65264
1965.78	5.23336
1967.26	5.19476
1968.74	5.36253
1970.21	5.03826
1971.69	4.60852
1973.17	4.27811
1974.65	4.5075
1976.13	4.99281
1977.6	5.39483
1979.08	5.12673
1980.56	5.15124
1982.03	5.30314
1983.51	5.58292
1984.99	5.83706
1986.46	5.91368
1987.94	6.52534
1989.41	6.61508
1990.89	6.4341
1992.36	5.94204
1993.84	6.06602
1995.31	6.27308
1996.78	6.32582
1998.26	6.15136
1999.73	6.14946
2001.2	5.88199
2002.68	5.409
2004.15	4.75977
2005.62	4.8171
2007.09	4.51753
2008.56	4.61715
2010.04	4.29768
2011.51	4.63524
2012.98	4.64025
2014.45	4.09753
2015.92	4.31306
2017.39	4.31317
2018.86	4.43497
2020.33	4.57212
2021.8	4.36469
2023.26	4.33452
2024.73	4.617
2026.2	5.32035
2027.67	5.31986
2029.14	4.81272
2030.61	4.85194
2032.07	5.19327
2033.54	5.48074
2035.01	5.22259
2036.47	5.03898
2037.94	5.15108
2039.4	5.34047
2040.87	5.66583
2042.33	5.70889
2043.8	5.36392
2045.27	5.91052
2046.73	6.16711
2048.19	6.631
2049.66	6.53244
2051.12	6.34516
2052.59	6.5426
2054.05	6.65185
2055.51	7.45709
2056.97	8.18854
2058.44	8.80449
2059.9	9.40708
2061.36	10.4586
2062.82	10.8864
2064.28	11.1093
2065.74	10.4098
2067.21	10.4566
2068.67	10.6023
2070.13	10.5816
2071.59	10.5643
2073.05	11.0461
2074.51	10.8599
2075.96	10.7889
2077.42	11.3234
2078.88	11.7173
2080.34	11.708
2081.8	11.7806
2083.26	12.032
2084.72	12.2936
2086.17	12.1579
2087.63	12.8771
2089.09	13.6258
2090.54	14.0184
2092	14.4992
2093.45	15.3835
2094.91	15.4851
2096.37	16.236
2097.82	17.2827
2099.28	17.9979
2100.73	17.4169
2102.19	17.2513
2103.64	17.4082
2105.09	17.7384
2106.55	17.8902
2108	17.9104
2109.45	18.7686
2110.91	19.3572
2112.36	19.48
2113.81	19.5812
2115.26	19.2996
2116.72	19.3498
2118.17	20.0869
2119.62	20.6983
2121.07	21.7962
2122.52	22.1243
2123.97	23.212
2125.42	23.9354
2126.87	24.6829
2128.32	26.0391
2129.77	26.8521
2131.22	27.885
2132.67	28.5241
2134.11	28.9993
2135.56	29.5516
2137.01	29.9428
2138.46	30.7409
2139.91	32.1213
2141.35	33.6419
2142.8	34.6753
2144.25	35.5392
2145.7	36.1447
2147.14	37.0863
2148.59	37.5391
2150.03	38.622
2151.48	38.9074
2152.92	39.7315
2154.37	40.8163
2155.81	41.8361
2157.26	42.7797
2158.7	43.4417
2160.15	44.4519
2161.59	45.2147
2163.03	46.0263
2164.47	47.047
2165.92	47.1015
2167.36	47.8833
2168.8	49.0146
2170.24	49.0235
2171.69	48.9499
2173.13	48.7683
2174.57	49.4406
2176.01	50.0553
2177.45	49.9083
2178.89	49.4956
2180.33	49.1408
2181.77	48.5239
2183.21	48.0873
2184.65	47.4461
2186.09	47.1244
2187.53	46.4653
2188.97	46.2566
2190.4	45.9305
2191.84	45.2359
2193.28	44.1859
2194.72	42.6583
2196.16	41.9369
2197.59	41.26
2199.03	40.8996
2200.47	39.8288
2201.9	38.665
2203.34	37.7507
2204.77	36.1095
2206.21	35.288
2207.64	34.4072
2209.08	34.0533
2210.51	33.1753
2211.95	32.1345
2213.38	31.4422
2214.82	30.3557
2216.25	29.3364
2217.68	28.2534
2219.12	27.1201
2220.55	25.6707
2221.98	24.3445
2223.41	23.6981
2224.85	23.0128
2226.28	22.4
2227.71	21.7103
2229.14	21.441
2230.57	20.9732
2232	20.3899
2233.43	20.4999
2234.86	20.1257
2236.29	19.9127
2237.72	19.1929
2239.15	19.9514
2240.58	19.3382
2242.01	18.9919
2243.44	18.5691
2244.87	18.427
2246.29	18.5582
2247.72	17.8911
2249.15	16.8999
2250.58	16.4863
2252.01	16.1971
2253.43	16.0646
2254.86	15.9126
2256.29	15.1778
2257.71	14.9852
2259.14	14.2915
2260.56	14.5513
2261.99	14.489
2263.41	14.5803
2264.84	14.4069
2266.26	13.8828
2267.69	14.0259
2269.11	13.7918
2270.53	13.144
2271.96	13.3819
2273.38	13.2078
2274.8	13.1664
2276.23	12.8861
2277.65	13.3748
2279.07	13.2793
2280.49	13.3366
2281.91	12.737
2283.34	12.7032
2284.76	13.0204
2286.18	12.8804
2287.6	12.5814
2289.02	12.2864
2290.44	10.7115
2291.86	10.7859
2293.28	10.039
2294.7	10.5109
2296.12	10.6857
2297.54	10.9389
2298.96	10.9533
2300.37	11.7718
2301.79	11.4648
2303.21	11.8549
2304.63	12.007
2306.04	11.7112
2307.46	12.133
2308.88	12.0877
2310.3	12.624
2311.71	12.3558
2313.13	12.3485
2314.54	12.5429
2315.96	12.7897
2317.37	12.1284
2318.79	11.489
2320.2	10.9701
2321.62	11.0492
2323.03	11.1396
2324.45	10.7613
2325.86	10.4424
2327.27	10.5222
2328.69	10.3623
2330.1	10.1305
2331.51	10.209
2332.92	9.88632
2334.34	9.48544
2335.75	8.83982
2337.16	8.82978
2338.57	9.02993
2339.98	8.89558
2341.39	8.79399
2342.8	8.48968
2344.21	7.33293
2345.63	7.27842
2347.04	6.86843
2348.45	7.14249
2349.85	6.65629
2351.26	6.34625
2352.67	6.19838
2354.08	6.68827
2355.49	6.70411
2356.9	6.39401
2358.3	6.1893
2359.71	5.9493
2361.12	5.39407
2362.53	6.051
2363.93	6.37266
2365.34	7.47544
2366.75	7.96085
2368.15	8.08807
2369.56	8.08498
2370.97	8.48242
2372.37	7.80031
2373.77	8.00296
2375.18	7.73355
2376.59	8.21612
2377.99	8.50929
2379.39	8.11556
2380.8	7.90897
2382.2	7.67043
2383.6	7.63429
2385.01	7.49992
2386.41	6.85239
2387.81	6.71322
2389.21	7.32039
2390.62	7.76488
2392.02	7.97918
2393.42	7.82802
2394.82	7.25263
2396.22	7.40985
2397.62	7.36447
2399.02	6.5801
2400.42	6.71165
2401.82	6.19593
2403.22	6.11073
2404.62	5.94099
2406.02	5.85681
2407.42	6.31618
2408.82	5.5836
2410.22	5.66406
2411.62	5.57296
2413.01	4.94328
2414.41	5.12598
2415.81	5.93585
2417.21	6.81071
2418.6	7.05782
2420	6.84117
2421.4	7.01864
2422.79	7.44141
2424.19	7.45851
2425.59	7.22035
2426.98	7.44571
2428.38	7.59115
2429.77	7.63496
2431.17	7.67925
2432.56	7.72746
2433.95	8.08832
2435.35	8.2797
2436.74	7.51208
2438.14	7.64536
2439.53	7.44446
2440.92	7.55306
2442.31	7.30742
2443.71	7.28939
2445.1	6.96772
2446.49	6.77485
2447.88	6.43822
2449.27	6.24092
2450.67	6.04913
2452.06	6.12039
2453.45	5.80349
2454.84	5.54268
2456.23	5.65543
2457.62	5.42089
2459.01	5.62357
2460.4	5.3339
2461.79	4.79591
2463.18	4.6662
2464.57	3.99057
2465.95	3.98899
2467.34	3.36202
2468.73	3.03981
2470.12	2.74081
2471.5	2.75901
2472.89	2.95524
2474.28	2.54625
2475.67	2.77211
2477.05	2.15782
2478.44	1.27712
2479.82	1.21193
2481.21	0.651805
2482.6	0.491027
2483.98	1.09418
2485.37	1.56087
2486.75	1.38824
2488.13	0.655693
2489.52	0.131732
2490.9	0.338776
2492.29	-0.0343577
2493.67	-0.279855
2495.05	-0.256148
2496.44	-0.356023
2497.82	-0.776005
2499.2	-0.967375
2500.58	-0.60837
2501.97	-0.480158
2503.35	-0.514035
2504.73	0.212611
2506.11	-0.125342
2507.49	0.182394
2508.87	0.0758734
2510.25	0.0811637
2511.63	0.240181
2513.01	0.443164
2514.39	0.746321
2515.77	1.24782
2517.15	1.68
2518.53	2.053
2519.91	2.47567
2521.29	2.83967
2522.67	3.49543
2524.05	4.18906
2525.42	4.69439
2526.8	4.68417
2528.18	5.15682
2529.55	5.18396
2530.93	5.33027
2532.31	5.72323
2533.69	6.15682
2535.06	6.27872
2536.44	6.13514
2537.81	6.61862
2539.19	6.48007
2540.56	7.02192
2541.94	6.88243
2543.31	6.68328
2544.69	6.59448
2546.06	5.98798
2547.44	5.97436
2548.81	6.34883
2550.18	6.55617
2551.56	6.26662
2552.93	6.1114
2554.3	5.71739
2555.67	5.58908
2557.04	5.33584
2558.42	5.0555
2559.79	4.72614
2561.16	4.30479
2562.53	4.00953
2563.9	3.68998
2565.27	3.67816
2566.64	3.54453
2568.01	3.42514
2569.38	3.60807
2570.75	3.29918
2572.12	2.9928
2573.49	3.08104
2574.86	2.63159
2576.23	2.32361
2577.6	2.04709
2578.97	2.27698
2580.33	2.26694
2581.7	2.1293
2583.07	2.24879
2584.44	1.94257
2585.8	1.93518
2587.17	2.01407
2588.54	2.25857
2589.9	2.3073
2591.27	2.72647
2592.64	2.20802
2594	2.05553
2595.37	2.2976
2596.73	2.29622
2598.1	2.39598
2599.46	2.29868
2600.83	2.70775
2602.19	3.11253
2603.55	2.61655
2604.92	3.25848
2606.28	3.74979
2607.64	3.90273
2609.01	4.32204
2610.37	4.05191
2611.73	3.58297
2613.09	3.41155
2614.46	2.93394
2615.82	3.09626
2617.18	3.70363
2618.54	3.67381
2619.9	3.9728
2621.26	4.14122
2622.62	4.22283
2623.98	4.61467
2625.34	4.13781
2626.7	3.7648
2628.06	3.6978
2629.42	3.82501
2630.78	3.97455
2632.14	4.61091
2633.5	4.32317
2634.86	4.07481
2636.21	3.99992
2637.57	4.02328
2638.93	3.42853
2640.29	3.21316
2641.64	3.70493
2643	3.83739
2644.36	3.2819
2645.71	2.94186
2647.07	2.92353
2648.43	2.62372
2649.78	2.76712
2651.14	2.84637
2652.49	2.54057
2653.85	2.97746
2655.2	3.27784
2656.56	3.42744
2657.91	3.27688
2659.26	2.9138
2660.62	2.50296
2661.97	2.63394
2663.32	2.76978
2664.68	2.09218
2666.03	2.40019
2667.38	2.55487
2668.74	3.02577
2670.09	2.82134
2671.44	2.99243
2672.79	3.12285
2674.14	2.71204
2675.49	2.90393
2676.84	2.63443
2678.19	2.47086
2679.54	2.32039
2680.89	2.83415
2682.24	3.14798
2683.59	3.90501
2684.94	4.29254
2686.29	4.03051
2687.64	3.46997
2688.99	3.21808
2690.34	3.31887
2691.69	3.10849
2693.03	2.81409
2694.38	2.9337
2695.73	3.43027
2697.08	3.64273
2698.42	3.76655
2699.77	3.72766
2701.12	2.90139
2702.46	3.53132
2703.81	3.65696
2705.15	3.95346
2706.5	4.07597
2707.85	4.7549
2709.19	4.93221
2710.54	4.52735
2711.88	4.00724
2713.22	4.01869
2714.57	4.52768
2715.91	4.50933
2717.26	4.7545
2718.6	5.15617
2719.94	5.06662
2721.29	5.17942
2722.63	5.03482
2723.97	5.13897
2725.31	4.74653
2726.66	4.47713
2728	4.75726
2729.34	4.49084
2730.68	4.58289
2732.02	4.41086
2733.36	4.49491
2734.7	4.54708
2736.04	4.95558
2737.38	4.57102
2738.72	4.65363
2740.06	4.43989
2741.4	4.77156
2742.74	5.31705
2744.08	5.22753
2745.42	5.18872
2746.76	4.98351
2748.09	4.68558
2749.43	4.61681
2750.77	4.55721
2752.11	4.2741
2753.45	3.55247
2754.78	3.36154
2756.12	2.99579
2757.46	3.25981
2758.79	2.9493
2760.13	2.68569
2761.46	2.57053
2762.8	2.47081
2764.14	2.14888
2765.47	1.59637
2766.8	1.76546
2768.14	1.52975
2769.47	1.88598
2770.81	1.69992
2772.14	1.22348
2773.48	0.854903
2774.81	0.32188
2776.14	-0.00820232
2777.48	0.247608
2778.81	0.366731
2780.14	0.397947
2781.47	0.393041
2782.8	0.234671
2784.14	0.44991
2785.47	0.180541
2786.8	-0.0280939
2788.13	-0.260479
2789.46	-0.226648
2790.79	-0.586227
2792.12	-1.04991
2793.45	-0.787988
2794.78	-0.271284
2796.11	-0.270216
2797.44	0.0949724
2798.77	-0.247958
2800.1	-0.546246
2801.43	-0.210945
2802.76	-0.433302
2804.09	-0.990696
2805.41	-0.692113
2806.74	-0.35214
2808.07	-0.712432
2809.4	-0.425003
2810.72	-0.503379
2812.05	-0.570087
2813.38	-0.25893
2814.71	-0.112422
2816.03	0.173289
2817.36	0.463594
2818.68	0.561279
2820.01	0.903783
2821.33	1.53795
2822.66	2.13337
2823.98	3.40221
2825.31	3.47724
2826.63	3.82643
2827.96	4.85345
2829.28	6.14733
2830.6	7.03206
2831.93	8.32944
2833.25	9.682
2834.57	10.9119
2835.9	12.5773
2837.22	13.8976
2838.54	15.1512
2839.86	17.2243
2841.18	18.946
2842.5	20.9576
2843.83	22.7186
2845.15	23.6984
2846.47	25.0234
2847.79	26.7143
2849.11	28.174
2850.43	30.3367
2851.75	31.8204
2853.07	33.7821
2854.39	35.4451
2855.71	37.8472
2857.03	39.7738
2858.35	41.8042
2859.66	43.7547
2860.98	45.589
2862.3	47.1567
2863.62	48.2348
2864.94	49.4301
2866.25	51.4394
2867.57	52.6458
2868.89	53.6686
2870.2	54.7756
2871.52	56.4531
2872.84	57.4451
2874.15	58.4725
2875.47	60.1259
2876.78	60.6158
2878.1	61.228
2879.41	62.2349
2880.73	62.5176
2882.04	63.2846
2883.36	64.7477
2884.67	65.8874
2885.99	67.244
2887.3	68.2992
2888.61	69.8168
2889.93	70.6056
2891.24	71.6887
2892.55	72.6733
2893.86	73.8998
2895.18	75.365
2896.49	76.5271
2897.8	78.4892
2899.11	80.0798
2900.42	82.237
2901.73	83.9502
2903.05	85.6395
2904.36	87.4879
2905.67	89.5072
2906.98	91.3211
2908.29	93.2628
2909.6	95.1894
2910.91	97.4587
2912.21	100.419
2913.52	103.621
2914.83	106.711
2916.14	110.014
2917.45	112.112
2918.76	115.179
2920.07	118.173
2921.37	120.729
2922.68	122.372
2923.99	124.017
2925.29	125.828
2926.6	127.676
2927.91	129.12
2929.22	129.878
2930.52	130.927
2931.83	132.432
2933.13	132.522
2934.44	133.152
2935.74	133.216
2937.05	132.98
2938.35	131.865
2939.66	131.113
2940.96	129.938
2942.26	128.581
2943.57	126.75
2944.87	125.07
2946.18	122.828
2947.48	121.157
2948.78	118.848
2950.08	116.423
2951.39	113.811
2952.69	110.853
2953.99	108.417
2955.29	105.291
2956.59	102.703
2957.9	99.5505
2959.2	96.6727
2960.5	94.3763
2961.8	91.6734
2963.1	88.7147
2964.4	85.8038
2965.7	83.0707
2967	80.25
2968.3	78.024
2969.6	75.645
2970.9	72.938
2972.19	70.5032
2973.49	68.3243
2974.79	65.6786
2976.09	63.6175
2977.39	62.1797
2978.68	59.7407
2979.98	57.3596
2981.28	54.7389
2982.58	52.2304
2983.87	50.0397
2985.17	47.8206
2986.47	45.0754
2987.76	42.731
2989.06	40.7931
2990.35	39.0543
2991.65	36.9929
2992.94	34.7863
2994.24	32.7002
2995.53	31.2334
2996.83	29.5198
2998.12	26.963
2999.42	25.0081
3000.71	22.7115
3002	20.586
3003.3	19.1348
3004.59	17.6548
3005.88	15.9498
3007.18	14.82
3008.47	13.2138
3009.76	11.901
3011.05	10.8817
3012.34	9.88109
3013.64	9.05426
3014.93	8.44623
3016.22	7.70153
3017.51	6.57484
3018.8	6.08892
3020.09	5.50982
3021.38	5.05602
3022.67	4.83002
3023.96	4.3005
3025.25	4.25299
3026.54	3.77144
3027.83	3.23748
3029.12	3.36713
3030.41	3.69537
3031.69	3.62331
3032.98	3.37724
3034.27	3.14842
3035.56	3.10171
3036.84	3.42769
3038.13	3.3379
3039.42	3.49571
3040.71	4.1959
3041.99	4.6464
3043.28	4.24136
3044.57	4.69549
3045.85	5.02303
3047.14	5.2751
3048.42	5.67988
3049.71	6.14998
3050.99	6.31835
3052.28	6.19868
3053.56	6.05216
3054.85	5.65434
3056.13	5.31417
3057.41	5.41418
3058.7	5.42368
3059.98	5.37023
3061.26	4.93627
3062.55	4.98945
3063.83	5.14817
3065.11	5.40388
3066.39	5.38729
3067.68	5.64326
3068.96	5.75956
3070.24	5.71708
3071.52	6.23593
3072.8	5.81626
3074.08	5.54701
3075.36	5.57288
3076.65	5.34182
3077.93	5.2891
3079.21	4.56598
3080.49	4.41582
3081.77	4.08488
3083.04	4.08791
3084.32	3.73027
3085.6	3.52809
3086.88	2.99462
3088.16	2.41371
3089.44	2.19324
3090.72	1.96027
3091.99	1.89937
3093.27	1.97131
3094.55	1.62907
3095.83	0.918816
3097.1	1.26837
3098.38	1.62929
3099.66	1.7827
3100.93	2.06364
3102.21	2.00513
3103.49	2.30641
3104.76	2.61585
3106.04	2.92885
3107.31	3.58147
3108.59	3.89807
3109.86	3.84808
3111.14	3.75858
3112.41	4.12244
3113.69	4.22753
3114.96	4.22601
3116.23	4.07182
3117.51	4.67237
3118.78	4.92634
3120.05	5.49888
3121.33	5.88276
3122.6	6.35091
3123.87	6.81513
3125.14	7.44473
3126.41	8.35662
3127.69	8.93461
3128.96	9.34906
3130.23	9.60954
3131.5	10.3908
3132.77	11.1736
3134.04	11.4976
3135.31	12.1679
3136.58	12.2527
3137.85	12.5165
3139.12	12.7169
3140.39	12.9173
3141.66	12.9126
3142.93	12.805
3144.2	12.7314
3145.47	12.7132
3146.74	12.7148
3148	12.6261
3149.27	11.9833
