#Acq. time (s)=	45
#Accumulations=	2
#Range (cm-¹)=	200...3150
#Windows=	2
#Auto scanning=	Off
#Autofocus=	Off
#Macrospot=	Off
#AutoExposure=	Off
#Spike filter=	Multiple accum.
#Delay time (s)=	0
#Binning=	1
#Readout mode=	Signal
#DeNoise=	Off
#ICS correction=	On
#Dark correction=	Off
#Inst. Process=	Off
#Detector Gain=	Best Dynamic Range
#Detector ADC=	20 kHz       
#Detector temperature (°C)=	-69.85
#Instrument=	LabRAM HR Evol
#Detector=	Synapse
#Objective=	x100
#Grating=	600 gr/mm
#ND Filter=	100%
#Laser (nm)=	532 
#Hole=	100.021
#Range=	Auto
#Laser Pol.=	No
#Raman. Pol.=	No
#Laser Pol. (°)=	-0.0007625
#Raman Pol. (°)=	89.9995
#Collection=	Microscope
#StageXY=	Marzhauser
#StageZ=	Marzhauser
#X (µm)=	-1280.8
#Y (µm)=	1616.1
#Z (µm)=	-6.35
#Full time(mm:ss)=	3:18
#Project=	
#Sample=	
#Site=	
#Title=	Mb_30_27_09_2x_45s_532 nm_x100_100%_600 gr_mm
#Remark=	
#Date=	12.07.2022 16:38
#Acquired=	12.07.2022 16:38:50
#Base:Fit=	10.08.2022 10:39:47
#Base:Sub=	10.08.2022 10:39:55
#Base:Fit=	10.08.2022 10:40:03
#Base:Sub=	10.08.2022 10:40:17
#Filter:Polynom=	16.08.2022 10:16:15
#AxisType[0]=Intens
#AxisUnit[0]=Cnt
#AxisType[1]=Spectr
#AxisUnit[1]=1/cm
200.413	51.3871
202.227	44.8547
204.042	41.1181
205.856	36.0519
207.671	31.6009
209.485	27.667
211.297	24.2067
213.11	21.3225
214.924	18.4208
216.736	15.0368
218.547	12.8181
220.358	9.60686
222.169	7.87527
223.982	6.56196
225.792	4.34975
227.601	4.15883
229.411	3.24715
231.22	2.77454
233.028	2.48291
234.837	1.4372
236.647	1.20437
238.454	0.117925
240.261	0.0197802
242.068	-0.716276
243.875	-0.738653
245.681	-0.888142
247.487	-0.381964
249.292	0.4946
251.099	1.45632
252.904	2.0373
254.708	1.86438
256.512	2.21158
258.316	4.46609
260.12	4.37136
261.922	4.28907
263.725	4.89158
265.527	5.19363
267.329	6.72313
269.131	6.7007
270.932	6.56919
272.733	6.92718
274.534	7.19458
276.334	5.97336
278.134	6.18035
279.933	6.54064
281.732	6.24915
283.531	4.80472
285.329	5.46316
287.128	6.433
288.925	7.45251
290.723	7.49858
292.52	7.16083
294.316	7.25703
296.113	8.04554
297.909	8.78831
299.702	10.3803
301.498	10.0129
303.293	9.69871
305.087	8.84031
306.881	9.60707
308.675	10.2182
310.469	9.86745
312.262	10.8518
314.055	11.0823
315.845	11.2312
317.638	12.3379
319.429	11.8834
321.221	11.5715
323.012	11.2956
324.803	11.3795
326.591	11.5687
328.381	11.4551
330.171	11.7638
331.96	11.8872
333.749	11.1555
335.536	10.6148
337.324	11.1092
339.112	12.0149
340.9	12.1794
342.685	12.026
344.472	12.0784
346.259	12.2946
348.045	12.7787
349.829	11.5665
351.614	12.7774
353.4	12.7394
355.185	13.7935
356.967	13.7342
358.751	12.9837
360.535	11.856
362.317	11.6901
364.1	11.3731
365.883	10.6985
367.663	10.9495
369.445	11.1937
371.227	10.8763
373.006	11.6474
374.787	12.6816
376.568	12.5083
378.346	13.1875
380.126	12.7613
381.904	13.5435
383.683	14.0515
385.462	15.0625
387.239	16.1281
389.017	16.5692
390.793	16.552
392.571	16.7068
394.348	18.0445
396.123	18.9483
397.9	18.2598
399.674	19.3043
401.45	19.1855
403.224	18.9288
404.999	18.7291
406.772	18.0679
408.546	17.2203
410.318	16.8918
412.092	16.8815
413.864	16.6335
415.637	15.44
417.408	14.1422
419.18	13.3591
420.95	12.2499
422.722	11.6291
424.492	12.9922
426.263	13.4648
428.032	12.6196
429.802	11.16
431.57	9.67837
433.338	9.37219
435.107	8.67036
436.874	8.49328
438.643	8.02587
440.41	7.54613
442.176	6.22951
443.943	5.26051
445.709	4.15283
447.476	4.44725
449.24	4.97228
451.005	5.29195
452.771	5.42684
454.534	5.25823
456.298	6.7931
458.063	7.12291
459.825	6.99738
461.588	8.26475
463.352	9.72172
465.113	11.5958
466.875	13.3712
468.638	14.2344
470.398	15.5485
472.158	16.3826
473.918	17.8063
475.68	18.4623
477.439	18.7976
479.198	19.897
480.957	21.3357
482.717	21.887
484.475	21.9393
486.233	22.7777
487.99	23.0811
489.747	22.0425
491.505	23.6002
493.261	23.6282
495.017	24.1259
496.773	24.4692
498.528	24.4146
500.285	24.4449
502.039	25.1227
503.794	25.2046
505.548	25.8435
507.301	26.3543
509.054	25.9765
510.807	26.0705
512.562	24.9392
514.314	24.2686
516.066	23.6313
517.817	23.1992
519.568	22.6862
521.319	22.6597
523.07	21.396
524.82	21.6497
526.57	20.6649
528.319	20.0186
530.068	20.0414
531.817	20.2721
533.568	20.2317
535.316	20.7317
537.064	19.6865
538.811	18.9388
540.558	18.6888
542.305	18.9921
544.051	19.5107
545.798	18.8386
547.543	18.2065
549.289	18.3271
551.034	16.8564
552.777	14.6682
554.521	13.524
556.265	13.0682
558.009	12.2054
559.753	11.6217
561.496	11.0817
563.239	10.6161
564.981	9.93146
566.723	10.0717
568.465	8.92505
570.207	7.89023
571.948	7.74192
573.688	7.96036
575.427	7.66419
577.167	7.46401
578.907	6.5271
580.646	5.49974
582.385	5.88226
584.124	5.30662
585.863	4.48848
587.599	4.87165
589.337	5.21159
591.074	4.6834
592.811	4.24943
594.548	3.67025
596.283	4.07427
598.019	4.01073
599.755	4.73996
601.49	4.80097
603.223	4.68867
604.958	4.64813
606.693	4.02134
608.427	4.15624
610.159	4.07849
611.892	5.03308
613.625	4.67734
615.358	6.04773
617.089	6.79078
618.821	7.46505
620.553	8.51218
622.282	9.40257
624.014	9.31627
625.744	10.2554
627.473	10.6148
629.203	10.9869
630.933	10.5162
632.661	9.4776
634.39	8.73891
636.119	8.91199
637.845	8.72965
639.574	9.6598
641.301	11.3255
643.027	12.0683
644.754	12.5625
646.479	11.9152
648.206	12.7071
649.932	12.9696
651.656	12.645
653.382	12.7278
655.105	12.597
656.83	12.2953
658.552	13.2602
660.277	13.1175
661.999	12.3752
663.722	11.7305
665.444	11.4656
667.167	13.6213
668.887	14.0171
670.61	14.8658
672.33	15.7684
674.051	18.0035
675.771	17.9566
677.492	17.6484
679.21	18.5811
680.931	19.5483
682.649	20.3781
684.369	20.7549
686.086	21.8964
687.803	22.909
689.522	24.3008
691.238	25.0274
692.956	25.3731
694.672	27.0331
696.388	28.3217
698.105	29.01
699.819	30.1983
701.536	31.4788
703.25	31.7132
704.964	32.2035
706.679	33.2903
708.393	33.8396
710.105	33.7929
711.82	34.8306
713.532	35.1528
715.244	34.6753
716.957	34.6739
718.669	34.8639
720.38	35.8686
722.09	36.1142
723.802	35.9567
725.512	36.3138
727.222	36.5636
728.933	37.3225
730.642	37.9429
732.351	37.9442
734.059	38.6734
735.767	38.6196
737.477	38.1876
739.184	39.178
740.891	38.4023
742.598	38.0376
744.304	38.5552
746.012	38.957
747.718	40.7267
749.423	42.1949
751.128	43.9812
752.833	45.3035
754.538	46.5777
756.244	47.9783
757.947	48.8335
759.651	48.5165
761.354	48.6475
763.057	49.9452
764.759	51.8836
766.462	52.7641
768.163	53.834
769.865	55.2726
771.568	56.091
773.269	57.4463
774.97	57.8117
776.67	59.2377
778.37	60.3489
780.069	61.469
781.769	62.6234
783.468	64.4487
785.166	66.1919
786.865	67.3859
788.563	67.9919
790.26	69.1781
791.958	69.5459
793.655	69.525
795.352	69.5115
797.048	70.2442
798.744	69.8913
800.44	69.6128
802.135	71.0579
803.83	72.3423
805.525	73.5778
807.218	72.6159
808.912	72.9165
810.606	73.5597
812.299	74.4372
813.993	74.8133
815.685	74.284
817.378	73.5723
819.07	73.4723
820.762	73.223
822.452	72.0998
824.143	71.347
825.834	69.1581
827.525	68.6866
829.215	68.4914
830.905	69.1176
832.593	69.1304
834.282	67.899
835.971	66.8717
837.66	65.2245
839.349	65.074
841.035	63.0972
842.723	61.8294
844.41	59.5023
846.097	58.521
847.782	57.5081
849.469	56.9371
851.155	55.2644
852.841	53.7827
854.525	52.9421
856.21	51.9712
857.895	51.2395
859.577	48.2588
861.262	47.2158
862.946	46.3128
864.628	45.7807
866.311	45.829
867.994	46.2276
869.675	44.0636
871.357	43.5098
873.039	41.9421
874.719	40.0123
876.401	38.4772
878.082	38.8105
879.761	39.3904
881.441	40.1259
883.12	40.7211
884.799	41.3992
886.479	42.6708
888.156	42.2595
889.835	41.961
891.512	41.2624
893.19	41.6257
894.866	41.872
896.544	42.5738
898.22	43.1917
899.897	43.3987
901.573	43.7096
903.248	44.5314
904.924	44.5546
906.598	43.6173
908.271	43.1281
909.947	43.139
911.62	43.4578
913.294	44.0908
914.966	44.7682
916.64	43.9636
918.312	43.7968
919.985	42.7845
921.656	42.579
923.329	42.492
925	41.5555
926.67	41.3009
928.341	39.5057
930.011	39.4845
931.68	39.5634
933.351	37.6696
935.019	37.0158
936.69	36.2212
938.358	35.452
940.025	34.2264
941.694	31.7407
943.361	30.067
945.028	29.5145
946.696	28.8264
948.362	27.1321
950.028	26.3613
951.694	24.668
953.361	22.6562
955.026	22.3723
956.69	20.0393
958.356	19.1968
960.02	19.1255
961.684	19.4179
963.347	19.1994
965.012	19.4145
966.674	19.8474
968.337	19.4148
969.999	19.6248
971.661	19.3656
973.324	19.9144
974.985	20.8306
976.646	21.2014
978.306	21.3866
979.966	22.2472
981.626	22.2059
983.288	22.195
984.947	21.9787
986.606	21.7089
988.264	21.9398
989.923	21.5563
991.581	21.2783
993.238	21.2496
994.896	21.3023
996.553	21.4695
998.212	19.3641
999.868	17.615
1001.52	16.7219
1003.18	15.6065
1004.84	14.8127
1006.49	14.6154
1008.15	15.8072
1009.8	18.9868
1011.45	23.7547
1013.11	30.6745
1014.76	37.8335
1016.42	45.5585
1018.07	53.2515
1019.72	59.9518
1021.37	67.2882
1023.03	73.8047
1024.68	80.3795
1026.33	86.8096
1027.98	93.2306
1029.63	99.486
1031.28	105.252
1032.93	111.117
1034.58	115.346
1036.23	119.015
1037.88	122.111
1039.53	124.489
1041.18	126.817
1042.83	127.733
1044.47	128.19
1046.12	129.432
1047.77	129.224
1049.42	128.405
1051.06	126.024
1052.71	123.899
1054.35	121.324
1056	118.812
1057.64	115.107
1059.29	109.938
1060.94	103.785
1062.58	98.0987
1064.22	91.3924
1065.87	85.2612
1067.51	78.6829
1069.15	72.1675
1070.8	64.7376
1072.44	56.4533
1074.08	48.8711
1075.72	42.0338
1077.36	34.8179
1079.01	26.9385
1080.65	19.5181
1082.29	14.614
1083.93	9.68773
1085.57	7.16067
1087.21	5.53528
1088.85	6.09375
1090.49	7.0275
1092.12	9.57773
1093.76	12.1729
1095.4	14.3235
1097.04	15.4731
1098.68	16.8707
1100.31	18.0841
1101.95	19.2677
1103.59	19.9491
1105.22	20.8458
1106.86	22.9775
1108.49	23.8063
1110.13	24.7586
1111.76	25.4249
1113.4	25.9188
1115.03	26.0025
1116.66	24.7358
1118.3	23.9851
1119.93	24.9651
1121.57	24.5144
1123.2	23.38
1124.83	23.1783
1126.46	22.8383
1128.09	23.0823
1129.72	22.383
1131.36	20.6131
1132.99	20.4387
1134.62	20.0137
1136.25	19.8074
1137.88	18.7016
1139.51	17.1355
1141.14	15.8209
1142.77	14.4891
1144.39	13.5994
1146.02	12.8973
1147.65	13.3134
1149.28	12.9019
1150.9	11.2742
1152.53	9.82122
1154.16	9.09513
1155.78	8.58917
1157.41	7.55057
1159.04	5.78379
1160.66	5.05487
1162.29	4.91688
1163.91	4.74076
1165.54	3.61912
1167.16	4.29706
1168.78	3.53804
1170.41	3.2451
1172.03	2.87943
1173.65	3.7321
1175.27	3.55972
1176.9	3.01261
1178.52	3.3713
1180.14	4.31666
1181.76	4.84322
1183.38	4.95803
1185	6.01327
1186.62	7.17396
1188.24	7.44085
1189.86	7.48154
1191.48	8.36929
1193.1	9.63495
1194.72	10.655
1196.34	11.2226
1197.96	12.0661
1199.58	13.4818
1201.19	14.3213
1202.81	14.0362
1204.43	15.7944
1206.04	17.6827
1207.66	18.2517
1209.28	19.2889
1210.89	20.4912
1212.51	21.5651
1214.12	22.7446
1215.74	24.5388
1217.35	26.1856
1218.97	26.9542
1220.58	28.9813
1222.19	30.8351
1223.81	31.7219
1225.42	33.8801
1227.03	35.6895
1228.64	36.7293
1230.26	37.9646
1231.87	38.9381
1233.48	40.7945
1235.09	43.3621
1236.7	45.1686
1238.31	46.3007
1239.92	47.4009
1241.53	49.8856
1243.14	51.6603
1244.75	52.3555
1246.36	53.8947
1247.97	55.4994
1249.57	55.8911
1251.18	56.6719
1252.79	57.5624
1254.4	58.5328
1256	58.6256
1257.61	60.0038
1259.22	61.4236
1260.82	62.5496
1262.43	63.4149
1264.03	64.1625
1265.64	65.1684
1267.24	66.3974
1268.85	67.2904
1270.45	68.6338
1272.06	69.3442
1273.66	70.4935
1275.26	71.8105
1276.87	73.2932
1278.47	75.2042
1280.07	75.7205
1281.67	77.3084
1283.28	78.8748
1284.88	80.1315
1286.48	80.4025
1288.08	80.6498
1289.68	81.221
1291.28	82.314
1292.88	83.1419
1294.48	82.7168
1296.08	83.9275
1297.68	84.4549
1299.28	84.587
1300.87	86.0055
1302.47	86.1304
1304.07	85.653
1305.67	86.4602
1307.26	85.5968
1308.86	86.7774
1310.46	88.3603
1312.05	88.4017
1313.65	88.7986
1315.24	89.126
1316.84	88.8532
1318.44	88.5455
1320.03	88.9374
1321.62	90.2005
1323.22	89.6113
1324.81	88.9271
1326.4	89.5521
1328	88.8077
1329.59	87.7648
1331.18	87.0536
1332.78	86.7567
1334.37	85.6408
1335.96	85.4995
1337.55	85.6426
1339.14	85.7954
1340.73	84.4303
1342.32	82.8613
1343.91	82.9318
1345.5	83.7868
1347.09	83.277
1348.68	82.0584
1350.27	82.5427
1351.86	83.2495
1353.45	83.0655
1355.03	83.0527
1356.62	83.4799
1358.21	81.2118
1359.8	79.7461
1361.38	78.615
1362.97	76.9342
1364.56	75.1069
1366.14	74.1257
1367.73	73.3605
1369.31	71.8846
1370.9	70.7201
1372.48	69.4674
1374.07	67.9623
1375.65	66.9551
1377.23	67.2635
1378.82	66.7069
1380.4	66.5804
1381.98	65.1871
1383.57	64.6189
1385.15	63.6685
1386.73	63.5391
1388.31	63.3686
1389.89	63.2429
1391.47	62.6116
1393.05	61.1237
1394.63	60.7077
1396.21	59.7566
1397.79	58.3971
1399.37	57.9915
1400.95	57.6484
1402.53	56.3093
1404.11	56.9209
1405.69	56.378
1407.27	55.7296
1408.84	55.7425
1410.42	57.1228
1412	58.0773
1413.57	58.9544
1415.15	60.2447
1416.73	62.3491
1418.3	64.2301
1419.88	65.1503
1421.45	69.1154
1423.03	73.0037
1424.6	76.2037
1426.18	78.4842
1427.75	82.1785
1429.33	85.5213
1430.9	87.9967
1432.47	90.8572
1434.04	94.3716
1435.62	96.5219
1437.19	98.3935
1438.76	101.544
1440.33	104.095
1441.91	107.161
1443.47	109.918
1445.05	112.331
1446.62	113.411
1448.19	114.448
1449.76	115.649
1451.33	116.975
1452.9	117.017
1454.46	117.93
1456.03	119.419
1457.6	119.832
1459.17	119.233
1460.74	118.515
1462.3	117.535
1463.87	116.892
1465.44	116.392
1467.01	114.526
1468.57	113.499
1470.14	111.18
1471.7	109.491
1473.27	108.418
1474.83	105.626
1476.4	103.275
1477.96	100.763
1479.53	98.2628
1481.09	95.8441
1482.65	92.6772
1484.22	88.8574
1485.78	87.2766
1487.34	84.7228
1488.91	82.7409
1490.47	79.543
1492.03	77.0082
1493.59	75.4802
1495.15	74.2707
1496.71	71.5856
1498.27	68.9899
1499.83	67.4732
1501.39	65.8593
1502.95	64.0368
1504.51	62.5114
1506.07	61.0904
1507.63	58.137
1509.19	56.9893
1510.75	55.2255
1512.3	54.0712
1513.86	53.0622
1515.42	52.2118
1516.98	49.9441
1518.53	48.7952
1520.09	47.5903
1521.65	46.0348
1523.2	45.0559
1524.76	45.0601
1526.31	43.7341
1527.87	43.34
1529.42	43.1915
1530.98	42.8078
1532.53	43.5477
1534.08	42.5111
1535.64	42.2845
1537.19	41.7934
1538.74	41.886
1540.3	42.9153
1541.85	44.404
1543.4	45.2613
1544.95	46.9046
1546.5	48.6293
1548.05	49.2429
1549.61	49.6623
1551.16	49.8219
1552.71	49.3292
1554.26	49.833
1555.81	50.8683
1557.36	51.9737
1558.9	52.2811
1560.45	52.1037
1562	52.9609
1563.55	54.6005
1565.1	54.9648
1566.64	56.2854
1568.19	56.2006
1569.74	57.5957
1571.29	60.1811
1572.83	60.7688
1574.38	62.529
1575.93	64.0291
1577.47	66.1594
1579.02	67.3845
1580.56	68.3997
1582.1	69.0651
1583.65	69.7755
1585.19	70.6572
1586.74	73.6118
1588.28	75.3477
1589.82	77.5115
1591.37	78.0239
1592.91	78.3509
1594.45	78.8469
1595.99	80.4188
1597.54	81.2668
1599.08	80.7543
1600.62	81.6336
1602.16	82.4392
1603.7	81.0893
1605.24	82.258
1606.78	81.8289
1608.32	81.576
1609.86	81.206
1611.4	81.2009
1612.94	81.8819
1614.48	81.5265
1616.01	81.3812
1617.55	81.8892
1619.09	81.5017
1620.63	81.4155
1622.16	81.2535
1623.7	80.5442
1625.24	80.075
1626.77	80.6482
1628.31	81.174
1629.84	81.3035
1631.38	82.4384
1632.92	82.7562
1634.45	82.9999
1635.98	83.5172
1637.52	84.3727
1639.05	84.9632
1640.59	86.7505
1642.12	87.4874
1643.65	87.7343
1645.19	88.8085
1646.72	90.1147
1648.25	91.2076
1649.78	91.2764
1651.31	92.3609
1652.85	92.5458
1654.38	93.348
1655.91	93.8057
1657.44	93.8615
1658.97	94.3722
1660.5	95.1269
1662.03	95.5396
1663.56	95.2704
1665.08	92.9731
1666.61	91.469
1668.14	89.2654
1669.67	86.1935
1671.2	84.0807
1672.72	81.3799
1674.25	79.1116
1675.78	76.6788
1677.31	75.3079
1678.83	73.4776
1680.36	70.4353
1681.88	68.0564
1683.41	64.7776
1684.93	62.3852
1686.46	59.5996
1687.98	57.34
1689.51	53.6694
1691.03	50.9125
1692.56	47.8218
1694.08	46.7997
1695.6	44.8099
1697.13	42.7342
1698.65	40.9039
1700.17	39.7631
1701.69	37.3488
1703.21	34.6379
1704.74	32.7131
1706.26	29.6192
1707.78	27.9378
1709.3	25.7427
1710.82	25.0211
1712.34	23.4005
1713.86	21.7111
1715.38	19.7974
1716.9	18.2544
1718.42	16.0549
1719.94	14.1711
1721.45	14.1003
1722.97	13.4936
1724.49	13.3995
1726.01	13.1544
1727.52	12.1563
1729.04	12.0968
1730.56	11.5161
1732.07	10.2636
1733.59	8.85015
1735.11	8.49493
1736.62	7.66362
1738.14	7.58862
1739.65	6.67727
1741.17	6.06214
1742.68	6.05527
1744.19	5.0099
1745.71	4.68682
1747.22	5.41187
1748.74	4.74449
1750.25	5.48619
1751.76	5.58721
1753.27	5.72821
1754.79	6.60677
1756.3	6.23843
1757.81	6.35322
1759.32	6.75143
1760.83	7.41769
1762.34	7.86795
1763.85	7.66465
1765.36	7.52136
1766.87	7.68118
1768.38	8.11739
1769.89	8.85987
1771.4	8.05213
1772.91	7.54638
1774.42	7.22737
1775.93	7.18902
1777.43	5.56269
1778.94	5.49661
1780.45	5.99037
1781.95	4.9163
1783.46	5.6626
1784.97	5.59762
1786.47	5.60579
1787.98	4.7964
1789.49	4.55486
1790.99	3.72423
1792.5	3.22894
1794	3.03835
1795.51	2.96035
1797.01	2.79466
1798.51	2.57528
1800.02	2.19353
1801.52	1.90622
1803.02	1.4198
1804.53	1.71701
1806.03	1.34296
1807.53	1.13991
1809.03	2.00838
1810.53	2.70019
1812.03	3.36457
1813.54	3.57163
1815.04	2.91726
1816.54	3.33252
1818.04	2.97054
1819.54	2.14819
1821.04	2.65456
1822.54	2.6126
1824.04	2.30757
1825.53	2.4568
1827.03	2.71924
1828.53	2.64678
1830.03	2.39759
1831.53	2.4689
1833.02	3.04153
1834.52	3.83808
1836.02	4.22431
1837.52	4.5864
1839.01	4.21623
1840.51	4.42927
1842	4.70618
1843.5	4.85282
1844.99	3.95597
1846.49	3.56675
1847.98	3.67645
1849.48	4.03823
1850.97	4.1237
1852.47	4.70138
1853.96	5.03925
1855.45	4.92463
1856.95	4.89603
1858.44	5.60794
1859.93	5.73144
1861.42	5.71346
1862.91	5.01541
1864.4	4.71145
1865.9	4.26479
1867.39	3.71173
1868.88	3.66855
1870.37	3.29502
1871.86	3.07561
1873.35	3.90562
1874.84	4.52792
1876.33	4.64629
1877.82	4.4525
1879.31	5.01377
1880.79	4.83463
1882.28	5.05683
1882.53	4.93564
1884.02	4.99975
1885.52	4.9551
1887.01	5.45742
1888.51	5.70861
1890	6.13811
1891.49	5.35494
1892.99	5.69732
1894.48	6.4898
1895.97	6.0195
1897.46	6.23478
1898.96	6.13854
1900.45	6.33548
1901.94	6.85883
1903.43	7.16009
1904.92	7.93172
1906.41	8.40277
1907.9	8.7791
1909.39	8.68993
1910.88	8.55834
1912.37	8.44088
1913.86	8.57689
1915.35	8.54716
1916.84	8.14945
1918.32	7.66458
1919.81	8.47092
1921.3	9.12598
1922.79	9.1403
1924.27	9.06938
1925.76	9.39396
1927.25	9.06288
1928.73	8.53275
1930.22	9.10312
1931.7	8.69246
1933.19	8.41992
1934.68	7.50006
1936.16	6.85631
1937.65	6.70719
1939.13	6.17938
1940.61	5.27495
1942.1	5.77693
1943.58	5.67025
1945.06	6.30851
1946.55	6.56659
1948.03	5.83292
1949.51	4.9458
1950.99	5.1578
1952.48	6.03691
1953.96	5.75624
1955.44	5.85791
1956.92	5.55005
1958.4	5.92865
1959.88	5.61085
1961.36	5.90198
1962.84	6.01894
1964.32	5.98768
1965.8	5.87278
1967.28	6.19915
1968.76	6.56683
1970.24	6.12936
1971.72	7.21829
1973.19	6.96164
1974.67	7.72182
1976.15	8.81433
1977.63	9.16245
1979.1	9.55589
1980.58	9.80913
1982.06	9.90913
1983.53	9.23606
1985.01	9.28305
1986.48	9.04808
1987.96	8.76633
1989.43	8.81575
1990.91	8.694
1992.39	8.58456
1993.86	9.44621
1995.33	8.96429
1996.81	8.51956
1998.28	8.94941
1999.75	8.70826
2001.23	9.01713
2002.7	9.22036
2004.17	10.0943
2005.64	10.1846
2007.11	10.8878
2008.59	10.6705
2010.06	10.3978
2011.53	9.89741
2013	9.90741
2014.47	9.34917
2015.94	9.91926
2017.41	9.96959
2018.88	9.39114
2020.35	8.93242
2021.82	8.8926
2023.29	9.50514
2024.76	10.8784
2026.22	11.3177
2027.69	10.5538
2029.16	10.255
2030.63	10.243
2032.09	10.6348
2033.56	10.9032
2035.03	10.5904
2036.5	11.2226
2037.96	12.2525
2039.43	12.9811
2040.89	12.7337
2042.36	13.4696
2043.82	13.2897
2045.29	14.0634
2046.75	14.0603
2048.22	14.7918
2049.68	15.0246
2051.14	14.27
2052.61	13.5469
2054.07	14.3028
2055.53	14.4303
2057	14.1794
2058.46	14.8448
2059.92	14.8357
2061.38	15.8116
2062.85	16.3912
2064.31	16.542
2065.77	16.6183
2067.23	17.3891
2068.69	17.2342
2070.15	17.6704
2071.61	18.6152
2073.07	18.2515
2074.53	19.0341
2075.99	19.8013
2077.45	19.571
2078.91	19.9539
2080.36	19.2194
2081.82	18.4955
2083.28	18.1201
2084.74	19.2782
2086.19	19.6781
2087.65	19.5011
2089.11	21.0315
2090.57	22.0477
2092.02	23.0043
2093.48	23.7139
2094.93	24.9926
2096.39	25.8703
2097.84	27.0777
2099.3	27.5025
2100.75	28.5885
2102.21	29.2355
2103.66	30.4699
2105.12	31.7747
2106.57	33.0217
2108.02	34.8288
2109.48	37.1232
2110.93	38.0196
2112.38	37.9701
2113.83	39.0614
2115.29	40.6029
2116.74	42.6993
2118.19	44.3358
2119.64	45.8979
2121.09	46.9056
2122.54	48.2764
2123.99	49.4816
2125.44	51.4341
2126.89	53.1096
2128.34	53.8746
2129.79	54.9606
2131.24	56.5533
2132.69	58.279
2134.14	60.255
2135.59	60.765
2137.04	62.2004
2138.48	63.3076
2139.93	65.0719
2141.38	66.0156
2142.82	66.6566
2144.27	66.2295
2145.72	67.2292
2147.16	68.7424
2148.61	69.8559
2150.06	71.113
2151.5	72.605
2152.95	73.7723
2154.39	76.0595
2155.83	77.8889
2157.28	79.1132
2158.72	80.3154
2160.17	81.5075
2161.61	83.3724
2163.05	84.7372
2164.5	84.9973
2165.94	84.7369
2167.38	85.9825
2168.83	86.1843
2170.27	86.2572
2171.71	86.9525
2173.15	87.6755
2174.59	87.8331
2176.03	88.0128
2177.47	87.3437
2178.91	87.0859
2180.35	87.115
2181.79	86.0928
2183.23	85.2827
2184.67	84.7997
2186.11	84.5112
2187.55	83.1649
2188.99	82.3675
2190.43	80.9891
2191.86	79.4169
2193.3	78.0587
2194.74	76.9993
2196.18	74.9245
2197.61	73.6985
2199.05	72.3485
2200.49	71.6401
2201.92	69.6549
2203.36	67.9454
2204.8	65.8912
2206.23	64.121
2207.67	61.8757
2209.1	60.2229
2210.54	58.236
2211.97	56.4572
2213.4	54.0297
2214.84	52.2434
2216.27	50.5998
2217.7	50.2492
2219.14	48.9702
2220.57	48.3599
2222	47.3592
2223.44	46.2761
2224.87	45.8865
2226.3	45.4433
2227.73	44.4508
2229.16	43.5484
2230.59	42.5665
2232.02	41.6226
2233.46	40.4659
2234.88	38.9922
2236.32	37.6563
2237.74	36.714
2239.18	36.6287
2240.6	35.3212
2242.03	34.5033
2243.46	34.5323
2244.89	33.578
2246.32	32.289
2247.75	31.6343
2249.17	31.1915
2250.6	30.809
2252.03	29.3723
2253.45	27.8496
2254.88	26.7308
2256.31	25.6613
2257.73	24.6389
2259.16	23.0793
2260.58	22.3415
2262.01	21.9094
2263.44	20.4296
2264.86	19.8648
2266.28	19.7768
2267.71	19.2379
2269.13	19.2968
2270.56	18.5027
2271.98	18.0838
2273.4	16.3393
2274.83	16.0617
2276.25	14.9995
2277.67	14.2341
2279.09	13.5057
2280.51	13.3827
2281.94	12.7303
2283.36	11.8169
2284.78	11.4919
2286.2	11.2704
2287.62	10.9815
2289.04	10.6326
2290.46	10.3289
2291.88	9.47823
2293.3	9.09502
2294.72	9.05681
2296.14	10.004
2297.56	9.75629
2298.98	9.60738
2300.39	9.30883
2301.81	10.2467
2303.23	10.9499
2304.65	11.0838
2306.07	10.9283
2307.48	11.6781
2308.9	11.8105
2310.32	12.2915
2311.73	11.9441
2313.15	12.3049
2314.56	12.6557
2315.98	13.0652
2317.4	12.9268
2318.81	12.124
2320.23	10.9357
2321.64	10.1106
2323.05	8.27473
2324.47	8.61614
2325.88	7.97344
2327.3	7.97445
2328.71	8.00392
2330.12	7.55435
2331.54	7.5997
2332.95	8.05621
2334.36	7.98703
2335.77	8.19779
2337.18	8.07155
2338.59	7.75306
2340.01	7.43569
2341.42	6.89563
2342.83	6.05847
2344.24	5.85158
2345.65	5.08421
2347.06	4.17344
2348.47	3.79396
2349.88	3.7643
2351.29	3.50364
2352.69	2.80936
2354.1	3.10945
2355.51	3.93226
2356.92	3.6435
2358.33	3.72956
2359.73	3.66398
2361.14	4.14532
2362.55	4.90424
2363.96	5.73082
2365.36	6.04866
2366.77	7.30072
2368.18	6.52983
2369.58	7.00673
2370.99	7.6395
2372.39	7.55727
2373.8	6.47949
2375.2	6.01464
2376.61	6.47311
2378.01	6.66182
2379.41	6.78549
2380.82	6.91734
2382.22	6.31713
2383.63	6.1151
2385.03	5.85886
2386.43	5.00214
2387.83	3.84032
2389.24	3.45032
2390.64	3.73482
2392.04	3.09755
2393.44	2.70746
2394.84	3.35175
2396.24	3.41528
2397.64	4.03347
2399.05	3.653
2400.45	3.18458
2401.85	3.3346
2403.25	4.19392
2404.65	3.87786
2406.04	4.38063
2407.44	4.37118
2408.84	4.81672
2410.24	4.70446
2411.64	5.43712
2413.04	5.74093
2414.43	6.46424
2415.83	6.1475
2417.23	6.90257
2418.63	7.43356
2420.02	8.16597
2421.42	8.66652
2422.82	9.68952
2424.21	10.8332
2425.61	11.8109
2427	12.0333
2428.4	12.408
2429.79	12.9856
2431.19	12.8025
2432.58	12.6164
2433.98	11.6525
2435.37	11.6298
2436.76	12.2659
2438.16	11.5373
2439.55	12.3539
2440.94	12.3455
2442.34	11.1134
2443.73	11.6093
2445.12	11.3323
2446.51	12.1281
2447.9	11.4558
2449.3	10.9817
2450.69	11.0521
2452.08	10.7426
2453.47	10.8463
2454.86	10.8051
2456.25	10.2645
2457.64	10.0182
2459.03	9.42773
2460.42	9.15015
2461.81	9.31399
2463.2	9.19421
2464.59	8.58773
2465.97	8.97116
2467.36	8.39511
2468.75	8.05393
2470.14	8.11422
2471.53	8.19218
2472.91	7.77204
2474.3	6.93231
2475.69	6.5397
2477.07	5.56084
2478.46	5.64456
2479.85	5.16488
2481.23	4.84749
2482.62	4.05166
2484	3.41196
2485.39	3.54013
2486.77	3.03925
2488.16	2.69805
2489.54	3.1721
2490.93	3.33067
2492.31	3.35726
2493.69	3.3407
2495.08	2.76214
2496.46	1.97754
2497.84	1.28255
2499.22	1.39394
2500.61	1.23975
2501.99	1.44192
2503.37	1.59592
2504.75	2.58523
2506.13	2.96987
2507.51	2.43354
2508.89	2.21117
2510.28	2.21225
2511.66	2.30416
2513.04	2.90784
2514.42	3.6275
2515.79	4.55892
2517.17	5.04491
2518.55	4.94656
2519.93	6.12825
2521.31	5.83446
2522.69	6.04067
2524.07	5.31826
2525.44	5.45022
2526.82	5.10562
2528.2	5.4944
2529.58	6.65645
2530.95	7.07523
2532.33	6.9125
2533.71	7.07724
2535.08	7.51627
2536.46	7.54585
2537.83	7.04392
2539.21	6.52488
2540.59	6.71539
2541.96	5.65542
2543.33	5.64975
2544.71	5.64038
2546.08	5.93321
2547.46	5.79607
2548.83	5.30221
2550.2	5.67556
2551.58	5.18511
2552.95	5.17704
2554.32	5.6807
2555.69	5.16323
2557.07	5.38025
2558.44	5.58775
2559.81	5.06084
2561.18	4.78533
2562.55	5.12177
2563.92	4.99323
2565.29	5.47777
2566.67	5.84705
2568.03	6.70418
2569.41	7.50662
2570.77	7.93055
2572.14	7.94075
2573.51	7.64607
2574.88	7.7503
2576.25	7.79358
2577.62	8.60736
2578.99	9.64971
2580.36	9.07847
2581.72	9.38527
2583.09	10.0858
2584.46	9.75508
2585.83	9.58656
2587.19	8.99496
2588.56	9.44832
2589.93	9.02049
2591.29	9.18395
2592.66	9.11412
2594.02	10.0755
2595.39	10.2987
2596.75	11.0494
2598.12	11.2478
2599.48	11.1003
2600.85	10.688
2602.21	10.0095
2603.58	10.2357
2604.94	9.62571
2606.3	8.76766
2607.67	8.32746
2609.03	8.34825
2610.39	7.82832
2611.75	7.69061
2613.12	7.69237
2614.48	8.21167
2615.84	8.20527
2617.2	8.05009
2618.56	8.26401
2619.92	7.74074
2621.28	8.04278
2622.64	8.14579
2624	7.97762
2625.36	7.8104
2626.72	7.66953
2628.08	7.31198
2629.44	7.60554
2630.8	7.64882
2632.16	7.18448
2633.52	7.41055
2634.88	8.12254
2636.23	8.34638
2637.59	8.65738
2638.95	8.51645
2640.31	8.65192
2641.67	8.1252
2643.02	8.41142
2644.38	8.56335
2645.73	8.77708
2647.09	7.98774
2648.45	7.95782
2649.8	8.83755
2651.16	8.50407
2652.51	8.32089
2653.87	8.3174
2655.22	7.7947
2656.58	8.19909
2657.93	7.83429
2659.28	7.66428
2660.64	7.49101
2661.99	7.03036
2663.34	6.38168
2664.7	5.18324
2666.05	4.9123
2667.4	4.95514
2668.76	4.12292
2670.11	3.98642
2671.46	3.52342
2672.81	2.7399
2674.16	2.92953
2675.51	2.76188
2676.86	2.47271
2678.21	2.87212
2679.57	2.95234
2680.92	3.76533
2682.27	3.89489
2683.62	3.29227
2684.96	3.43162
2686.31	3.85029
2687.66	3.80586
2689.01	4.09748
2690.36	4.76429
2691.71	4.596
2693.06	4.3192
2694.4	4.3345
2695.75	5.33787
2697.1	6.22919
2698.44	6.36126
2699.79	7.23639
2701.14	8.47319
2702.48	9.40357
2703.83	9.45271
2705.18	10.2393
2706.52	11.0177
2707.87	11.125
2709.21	11.3934
2710.56	11.9602
2711.9	13.1062
2713.25	13.6541
2714.59	13.1844
2715.93	13.9144
2717.28	13.7002
2718.62	13.3132
2719.96	13.5308
2721.31	12.853
2722.65	12.4346
2723.99	12.5889
2725.33	11.7989
2726.68	11.6962
2728.02	10.9459
2729.36	10.528
2730.7	9.9435
2732.04	9.56421
2733.38	9.17042
2734.72	8.18822
2736.06	7.5398
2737.4	7.29008
2738.74	6.29649
2740.08	6.14451
2741.42	5.43161
2742.76	5.2141
2744.1	4.86536
2745.44	5.71202
2746.78	4.96507
2748.12	4.53802
2749.45	3.96524
2750.79	4.16531
2752.13	4.49393
2753.47	4.16602
2754.8	3.59958
2756.14	3.25525
2757.48	2.9109
2758.81	2.31735
2760.15	2.42502
2761.48	3.14827
2762.82	3.62539
2764.16	3.13367
2765.49	2.98445
2766.83	3.47856
2768.16	3.19644
2769.49	2.94888
2770.83	2.50725
2772.16	2.75146
2773.5	3.09449
2774.83	2.04701
2776.16	2.2626
2777.5	1.55875
2778.83	1.56466
2780.16	0.735978
2781.49	0.281156
2782.83	0.884979
2784.16	0.594562
2785.49	0.493957
2786.82	0.0613221
2788.15	-0.266212
2789.48	-0.166228
2790.81	-0.446601
2792.14	-0.883541
2793.47	-1.44229
2794.8	-1.82119
2796.13	-1.69867
2797.46	-1.93141
2798.79	-1.79781
2800.12	-1.77903
2801.45	-1.99187
2802.78	-1.94976
2804.11	-2.40068
2805.44	-2.63778
2806.76	-2.9679
2808.09	-3.25749
2809.42	-2.32855
2810.75	-2.75563
2812.07	-2.05625
2813.4	-2.36688
2814.73	-1.36844
2816.05	-0.429339
2817.38	0.72155
2818.7	1.33226
2820.03	1.94594
2821.35	2.88257
2822.68	3.88496
2824	6.3527
2825.33	7.9171
2826.65	9.77424
2827.98	11.6392
2829.3	12.8245
2830.62	14.8638
2831.95	16.4043
2833.27	18.6546
2834.59	20.5046
2835.92	22.5818
2837.24	25.3804
2838.56	28.2745
2839.88	31.0263
2841.2	33.7006
2842.53	37.5311
2843.85	40.8257
2845.17	45.5112
2846.49	49.2677
2847.81	53.7387
2849.13	57.4029
2850.45	61.4438
2851.77	65.7964
2853.09	70.5727
2854.41	75.4401
2855.73	80.345
2857.05	84.9988
2858.37	89.1671
2859.68	93.2817
2861	97.4732
2862.32	101.563
2863.64	105.242
2864.96	109.376
2866.27	112.741
2867.59	115.279
2868.91	118.839
2870.22	121.564
2871.54	124.838
2872.86	127.702
2874.17	130.783
2875.49	133.891
2876.8	136.556
2878.12	139.577
2879.44	142.13
2880.75	144.218
2882.06	146.464
2883.38	148.417
2884.69	150.377
2886.01	152.932
2887.32	155.302
2888.63	157.922
2889.95	161.157
2891.26	163.086
2892.57	166.219
2893.88	168.613
2895.2	171.756
2896.51	175.085
2897.82	178.856
2899.13	182.775
2900.44	186.912
2901.76	191.316
2903.07	196.589
2904.38	201.5
2905.69	207.75
2907	213.747
2908.31	220.01
2909.62	225.614
2910.93	231.841
2912.24	237.599
2913.54	244.192
2914.85	250.317
2916.16	256.863
2917.47	263.041
2918.78	268.659
2920.09	273.14
2921.39	277.316
2922.7	281.982
2924.01	285.557
2925.31	289.432
2926.62	292.516
2927.93	295.639
2929.24	297.954
2930.54	299.459
2931.85	300.123
2933.15	300.662
2934.46	300.321
2935.76	299.28
2937.07	298.594
2938.37	296.696
2939.68	294.488
2940.98	291.443
2942.29	288.041
2943.59	284.803
2944.89	280.4
2946.2	275.428
2947.5	271.368
2948.8	265.711
2950.1	260.483
2951.41	254.898
2952.71	249.328
2954.01	243.874
2955.31	237.278
2956.62	230.73
2957.92	224.539
2959.22	218.265
2960.52	213.366
2961.82	207.462
2963.12	201.664
2964.42	195.809
2965.72	190.562
2967.02	185.029
2968.32	179.537
2969.62	174.426
2970.92	169.768
2972.21	164.165
2973.51	158.977
2974.81	153.312
2976.11	148.922
2977.41	143.479
2978.71	138.345
2980	132.765
2981.3	127.395
2982.6	122.569
2983.89	117.074
2985.19	112.086
2986.49	107.677
2987.78	103.741
2989.08	97.9559
2990.37	93.0977
2991.67	88.068
2992.96	83.6176
2994.26	79.5795
2995.55	74.3832
2996.85	70.4786
2998.14	65.5259
2999.44	60.2241
3000.73	56.5317
3002.02	52.2173
3003.32	48.0381
3004.61	43.8169
3005.9	39.7201
3007.2	36.7599
3008.49	33.4222
3009.78	29.2802
3011.07	26.1841
3012.36	23.2001
3013.66	20.2525
3014.95	18.3343
3016.24	15.5837
3017.53	13.8266
3018.82	11.1326
3020.11	9.06051
3021.4	7.47959
3022.69	6.50204
3023.98	5.9892
3025.27	5.08945
3026.56	3.709
3027.85	2.50165
3029.14	2.02496
3030.43	1.62114
3031.71	1.60499
3033	0.905511
3034.29	1.42632
3035.58	1.05089
3036.86	0.983098
3038.15	0.602852
3039.44	0.0937315
3040.73	0.190493
3042.01	-0.269282
3043.3	0.176852
3044.59	0.363412
3045.87	1.05658
3047.16	1.3549
3048.44	1.43874
3049.73	1.35667
3051.01	1.75178
3052.3	1.83177
3053.58	1.43152
3054.87	2.0726
3056.15	1.76568
3057.43	1.69364
3058.72	2.63849
3060	1.95355
3061.28	2.08092
3062.57	1.50697
3063.85	1.46998
3065.13	1.59935
3066.41	1.17119
3067.7	1.17419
3068.98	0.840428
3070.26	1.15951
3071.54	1.34665
3072.82	0.573706
3074.1	0.501409
3075.39	0.836147
3076.67	1.17082
3077.95	0.985094
3079.23	0.693746
3080.51	-0.0425031
3081.79	0.0670833
3083.07	-0.389649
3084.34	-0.291132
3085.62	-0.604468
3086.9	0.0439706
3088.18	0.781497
3089.46	0.827359
3090.74	1.3065
3092.01	1.15325
3093.29	1.41557
3094.57	1.78813
3095.85	2.36727
3097.12	1.86242
3098.4	2.38891
3099.68	2.68317
3100.95	3.0394
3102.23	2.89802
3103.51	3.70011
3104.78	3.84116
3106.06	4.24258
3107.33	4.99744
3108.61	5.6518
3109.88	6.26342
3111.16	6.89298
3112.43	7.30335
3113.71	7.91685
3114.98	8.71867
3116.25	8.87775
3117.53	8.96339
3118.8	9.86561
3120.07	10.3815
3121.34	11.8179
3122.62	13.0687
3123.89	13.0284
3125.16	13.8044
3126.43	14.4815
3127.71	15.168
3128.98	15.8687
3130.25	16.6482
3131.52	17.4665
3132.79	18.334
3134.06	19.6078
3135.33	20.2589
3136.6	21.1676
3137.87	22.9209
3139.14	24.5133
3140.41	25.5712
3141.68	26.7786
3142.95	28.488
3144.22	30.3162
3145.49	32.3035
3146.75	34.4505
3148.02	36.4547
3149.29	38.1476
