#Acq. time (s)=	45
#Accumulations=	2
#Range (cm-¹)=	200...3150
#Windows=	2
#Auto scanning=	Off
#Autofocus=	Off
#Macrospot=	Off
#AutoExposure=	Off
#Spike filter=	Multiple accum.
#Delay time (s)=	0
#Binning=	1
#Readout mode=	Signal
#DeNoise=	Off
#ICS correction=	On
#Dark correction=	Off
#Inst. Process=	Off
#Detector Gain=	Best Dynamic Range
#Detector ADC=	20 kHz       
#Detector temperature (°C)=	-69.85
#Instrument=	LabRAM HR Evol
#Detector=	Synapse
#Objective=	x100
#Grating=	600 gr/mm
#ND Filter=	100%
#Laser (nm)=	532 
#Hole=	100.021
#Range=	Auto
#Laser Pol.=	No
#Raman. Pol.=	No
#Laser Pol. (°)=	-0.0007625
#Raman Pol. (°)=	89.9995
#Collection=	Microscope
#StageXY=	Marzhauser
#StageZ=	Marzhauser
#X (µm)=	-6384
#Y (µm)=	833
#Z (µm)=	-64.35
#Full time(mm:ss)=	3:18
#Project=	
#Sample=	
#Site=	
#Title=	Mb_30_27_29_2x_45s_532 nm_x100_100%_600 gr_mm
#Remark=	
#Date=	13.07.2022 10:53
#Acquired=	13.07.2022 10:53:32
#Base:Fit=	10.08.2022 10:40:03
#Base:Sub=	10.08.2022 10:40:17
#Filter:Polynom=	16.08.2022 10:16:15
#AxisType[0]=Intens
#AxisUnit[0]=Cnt
#AxisType[1]=Spectr
#AxisUnit[1]=1/cm
200.563	7.12093
202.377	8.17226
204.194	7.13998
206.008	6.22779
207.821	5.15814
209.634	4.28695
211.449	4.0166
213.262	3.42503
215.074	3.06116
216.885	3.1596
218.699	4.16602
220.51	3.90468
222.321	5.61552
224.131	5.66116
225.941	5.49198
227.751	6.27972
229.562	7.3008
231.371	7.75785
233.18	7.477
234.988	7.15124
236.796	6.36192
238.603	5.73586
240.411	5.13241
242.219	5.07082
244.026	5.31816
245.832	5.0661
247.638	5.28106
249.443	5.14449
251.248	5.94847
253.053	6.06598
254.857	5.95381
256.661	6.66489
258.465	7.30967
260.268	7.45762
262.071	8.16922
263.874	8.52904
265.678	8.04224
267.48	8.16752
269.282	9.05865
271.083	10.2597
272.884	11.2786
274.684	11.376
276.484	12.1823
278.284	12.9778
280.084	13.1016
281.883	14.0171
283.682	14.6047
285.48	16.0593
287.276	17.2281
289.074	17.5422
290.871	18.5894
292.668	18.1422
294.465	18.5839
296.261	18.9413
298.057	20.4848
299.853	22.837
301.648	22.7614
303.443	23.0024
305.237	24.2735
307.032	25.3392
308.823	26.0734
310.617	26.3265
312.41	27.2569
314.203	26.5671
315.995	26.3995
317.788	26.9919
319.579	26.2625
321.369	25.8004
323.16	24.5288
324.951	24.3817
326.741	24.4514
328.531	24.8608
330.321	25.2382
332.108	25.9547
333.897	25.9602
335.686	24.8797
337.474	25.1346
339.26	24.8669
341.048	25.7678
342.835	24.4026
344.622	24.2907
346.406	24.2994
348.192	23.9002
349.978	23.7373
351.764	23.3939
353.547	23.3883
355.332	23.219
357.116	24.499
358.901	25.5399
360.682	25.9194
362.466	25.5555
364.249	25.4926
366.03	25.9029
367.812	24.8923
369.594	24.6544
371.374	24.2209
373.155	24.6487
374.936	24.0958
376.715	23.9218
378.495	24.1865
380.273	23.5699
382.053	23.5537
383.832	23.6603
385.609	24.5471
387.388	24.1705
389.164	23.4054
390.942	21.7258
392.72	21.4494
394.495	20.4642
396.272	19.9811
398.047	18.6272
399.823	18.5047
401.597	18.2166
403.372	17.553
405.145	16.9385
406.92	16.651
408.693	16.5924
410.467	16.6219
412.239	16.1165
414.012	16.7992
415.783	17.1152
417.556	15.763
419.327	14.7358
421.099	13.4264
422.869	12.7325
424.64	12.4215
426.409	12.3967
428.18	11.5852
429.948	10.9987
431.718	9.84469
433.486	10.0716
435.253	9.92617
437.022	9.18081
438.789	9.8821
440.558	9.80988
442.324	10.286
444.089	10.5763
445.857	10.9194
447.622	10.8129
449.386	10.8924
451.153	11.6804
452.917	11.8861
454.682	12.838
456.446	12.9602
458.208	13.3208
459.973	14.7173
461.735	16.7858
463.497	16.9937
465.259	18.5272
467.022	19.9351
468.783	20.2517
470.544	20.4279
472.306	20.5624
474.066	20.9527
475.825	20.6021
477.585	21.8639
479.346	22.5675
481.104	22.6322
482.862	23.2561
484.62	24.4045
486.38	24.3427
488.137	25.7252
489.894	25.9189
491.65	25.9893
493.407	26.6103
495.164	26.948
496.92	27.5189
498.675	27.455
500.43	27.2907
502.184	27.1977
503.939	27.2624
505.694	26.0514
507.448	27.0242
509.201	27.3955
510.954	28.407
512.706	27.6112
514.459	27.333
516.21	26.9759
517.962	27.0531
519.715	27.9743
521.466	27.5867
523.216	27.0989
524.966	26.0915
526.716	26.0826
528.466	24.7923
530.215	24.0337
531.964	23.5346
533.712	22.1781
535.46	21.9094
537.208	22.3076
538.955	22.166
540.703	21.4547
542.449	21.1903
544.196	20.7994
545.942	20.6686
547.688	20.821
549.433	20.5609
551.178	19.5302
552.923	19.7817
554.667	18.9955
556.412	18.1737
558.155	17.8448
559.899	17.7289
561.642	16.8267
563.385	16.1093
565.127	15.2796
566.867	14.4453
568.609	13.0184
570.35	12.5681
572.092	10.9996
573.832	10.4929
575.573	10.0837
577.313	9.75112
579.053	9.11043
580.79	9.00256
582.529	8.45066
584.268	8.23405
586.006	8.5872
587.745	8.1484
589.482	8.23647
591.218	7.57869
592.955	7.03089
594.692	6.84163
596.428	5.49563
598.164	4.74933
599.898	3.76971
601.634	4.29113
603.369	3.70061
605.104	3.66951
606.836	3.66692
608.57	2.46706
610.304	1.88754
612.037	1.90312
613.769	1.62325
615.501	2.24
617.234	2.96115
618.966	3.62264
620.696	3.30955
622.427	4.11521
624.159	5.21746
625.887	5.54874
627.618	6.8441
629.348	7.11265
631.076	8.60127
632.806	9.6204
634.535	10.068
636.262	11.0593
637.99	11.3158
639.716	12.251
641.444	12.665
643.172	14.1895
644.897	14.042
646.624	13.2076
648.348	13.4029
650.075	13.7285
651.801	14.4421
653.524	15.1475
655.249	14.7696
656.972	15.7221
658.697	16.1629
660.419	17.2941
662.143	17.716
663.865	18.0296
665.588	18.7088
667.309	18.8877
669.032	19.4349
670.752	19.2159
672.474	19.229
674.194	18.4631
675.915	18.5725
677.634	18.6072
679.355	19.778
681.073	19.4429
682.793	19.6953
684.511	20.97
686.23	21.8913
687.947	22.8422
689.664	22.8937
691.382	23.6211
693.098	25.3242
694.816	26.1235
696.531	26.8274
698.247	28.1502
699.963	28.7975
701.678	29.8262
703.392	30.0907
705.108	30.2245
706.821	30.5324
708.534	31.8545
710.249	33.7831
711.962	34.3428
713.674	34.4822
715.388	34.7768
717.099	36.1336
718.81	36.3704
720.523	36.877
722.234	37.4093
723.944	37.6644
725.654	37.8694
727.365	37.2206
729.075	37.4476
730.784	36.361
732.492	36.9984
734.202	37.9408
735.91	38.3297
737.618	38.421
739.325	38.1331
741.034	38.4784
742.741	38.609
744.447	38.7551
746.153	40.4391
747.859	41.5749
749.564	42.3458
751.271	43.6818
752.976	43.1503
754.681	45.0388
756.385	45.6383
758.088	47.0781
759.792	48.4071
761.495	50.0145
763.2	51.6092
764.902	53.3833
766.604	54.0222
768.306	56.0987
770.008	58.0957
771.709	59.6995
773.41	61.202
775.11	62.8117
776.811	65.3912
778.51	66.9085
780.21	67.176
781.909	67.8899
783.608	69.1437
785.307	70.5143
787.005	72.7647
788.703	74.2476
790.401	75.0539
792.098	76.2989
793.795	77.9543
795.492	79.6997
797.188	80.1778
798.884	81.2228
800.58	82.9083
802.276	82.7223
803.971	82.8731
805.665	83.5889
807.36	83.4142
809.054	83.0948
810.748	82.1203
812.441	81.6655
814.135	82.1817
815.826	82.4357
817.518	82.3486
819.21	82.0434
820.902	81.3677
822.594	80.6318
824.285	81.3532
825.976	81.1045
827.665	80.8355
829.355	80.8665
831.045	80.7782
832.735	78.9813
834.424	77.4316
836.111	76.4087
837.8	75.0531
839.488	74.6894
841.177	73.4977
842.864	72.1297
844.55	70.6926
846.237	69.5981
847.924	67.754
849.61	66.1926
851.295	64.1928
852.98	63.7673
854.666	62.5977
856.349	60.8652
858.034	59.6871
859.719	58.9689
861.403	57.1886
863.085	55.0431
864.769	53.8012
866.452	52.6249
868.133	52.0168
869.816	52.0512
871.498	51.5415
873.179	50.0579
874.86	49.5832
876.54	49.287
878.221	49.3754
879.902	49.1573
881.58	48.143
883.26	47.2699
884.938	46.3608
886.618	45.7025
888.297	44.9976
889.974	44.4684
891.653	43.5125
893.329	43.4587
895.007	43.3428
896.683	44.2427
898.36	44.7546
900.035	44.4893
901.712	44.057
903.387	44.7818
905.063	43.8787
906.737	44.6412
908.412	45.2956
910.085	45.0513
911.76	44.1476
913.433	44.0214
915.107	44.3825
916.779	43.8933
918.452	43.4513
920.124	43.7803
921.797	43.6324
923.467	43.2377
925.138	43.5071
926.81	43.0261
928.48	42.0883
930.151	41.9253
931.82	40.5663
933.489	40.1966
935.16	40.5544
936.828	40.4546
938.496	39.2547
940.165	38.0959
941.833	38.2042
943.5	37.3891
945.168	35.9276
946.834	35.0415
948.5	34.4136
950.168	34.0848
951.834	33.8792
953.499	32.7511
955.163	32.1952
956.83	31.4053
958.494	31.0113
960.158	29.9775
961.821	29.3191
963.487	28.832
965.15	28.2279
966.812	28.0578
968.474	28.3761
970.138	28.012
971.8	27.3089
973.461	28.1159
975.123	27.9507
976.783	27.1823
978.446	26.5442
980.106	26.3045
981.766	26.5764
983.425	26.7338
985.084	27.5036
986.743	27.7638
988.402	27.7363
990.06	28.6503
991.72	28.1863
993.378	27.1556
995.035	26.8607
996.692	27.2043
998.349	26.8601
1000.01	26.1776
1001.66	25.6461
1003.32	26.2374
1004.97	25.9398
1006.63	25.9871
1008.28	27.0417
1009.94	28.5542
1011.59	30.1024
1013.25	33.0791
1014.9	34.8579
1016.55	37.5729
1018.21	39.4099
1019.86	40.5674
1021.51	41.6957
1023.16	42.6455
1024.81	44.5752
1026.47	45.8224
1028.12	46.0275
1029.77	46.9272
1031.42	48.4466
1033.07	49.7327
1034.72	49.702
1036.37	49.7093
1038.02	50.6967
1039.67	51.0714
1041.31	51.3004
1042.96	50.6983
1044.61	50.3147
1046.26	50.5567
1047.91	49.2423
1049.55	48.635
1051.2	47.9168
1052.84	45.6244
1054.49	44.1658
1056.14	43.3248
1057.78	40.3492
1059.43	38.4094
1061.07	37.1248
1062.72	35.5205
1064.36	33.9597
1066	31.5761
1067.65	28.5094
1069.29	26.1101
1070.93	23.4952
1072.58	20.6495
1074.22	18.2173
1075.86	15.8101
1077.5	14.087
1079.14	11.825
1080.78	10.0676
1082.42	8.90954
1084.06	8.50745
1085.7	8.21323
1087.34	8.50706
1088.98	9.14034
1090.62	10.2209
1092.26	11.1733
1093.9	11.7863
1095.54	12.2024
1097.17	12.7064
1098.81	12.8524
1100.45	13.3826
1102.09	14.7011
1103.72	14.7764
1105.36	16.3283
1106.99	17.554
1108.63	17.9048
1110.27	17.935
1111.9	19.3409
1113.53	20.0309
1115.17	19.6614
1116.8	18.7978
1118.43	18.7381
1120.07	18.3093
1121.7	17.8274
1123.33	16.814
1124.97	16.8062
1126.6	16.9297
1128.23	16.7405
1129.86	16.3931
1131.49	16.9539
1133.12	16.1501
1134.75	15.5977
1136.38	15.5058
1138.01	15.0539
1139.64	13.6292
1141.27	13.2042
1142.9	12.5815
1144.53	12.1827
1146.16	11.69
1147.78	10.8589
1149.41	9.16489
1151.04	8.67859
1152.67	7.14568
1154.29	6.1947
1155.92	5.31507
1157.54	4.43784
1159.17	3.88129
1160.8	3.12227
1162.42	2.75595
1164.05	2.47618
1165.67	1.86992
1167.29	1.90697
1168.92	2.09341
1170.54	1.42672
1172.16	2.60253
1173.79	3.06961
1175.41	4.14451
1177.03	4.97764
1178.65	6.07091
1180.28	5.47252
1181.9	6.19248
1183.52	6.2229
1185.14	6.57272
1186.76	7.1506
1188.38	6.87963
1190	7.03593
1191.62	7.13192
1193.24	6.99516
1194.86	7.05478
1196.47	6.92756
1198.09	7.64437
1199.71	8.46395
1201.33	9.96734
1202.95	12.3421
1204.56	14.1866
1206.18	15.4688
1207.8	16.5174
1209.41	17.7543
1211.03	19.3934
1212.64	20.387
1214.26	21.7419
1215.87	23.184
1217.49	23.2187
1219.1	24.1542
1220.71	24.7422
1222.33	26.2435
1223.94	27.1369
1225.55	27.7177
1227.16	28.3946
1228.78	28.4894
1230.39	28.4329
1232	29.3747
1233.61	29.9025
1235.22	31.3699
1236.83	32.1091
1238.44	32.8633
1240.05	33.4612
1241.66	33.7755
1243.27	34.9277
1244.88	36.0906
1246.49	36.4441
1248.1	37.6331
1249.71	37.3744
1251.32	37.9803
1252.92	39.0161
1254.53	39.4547
1256.14	40.4567
1257.74	40.5369
1259.35	40.4688
1260.96	40.8546
1262.56	41.9005
1264.17	42.5958
1265.77	43.4793
1267.38	43.7243
1268.98	44.3624
1270.59	44.3843
1272.19	45.8115
1273.79	46.386
1275.4	47.2162
1277	47.5758
1278.6	49.28
1280.21	50.2917
1281.81	51.6536
1283.41	52.6554
1285.01	51.9502
1286.61	52.1041
1288.21	52.2718
1289.81	51.8954
1291.41	52.6596
1293.01	53.4588
1294.61	54.4734
1296.21	54.6428
1297.81	54.6595
1299.41	56.455
1301.01	57.14
1302.6	58.5423
1304.2	59.1705
1305.8	60.823
1307.4	61.7726
1308.99	62.1293
1310.59	63.2786
1312.19	63.2207
1313.78	64.1812
1315.38	64.4306
1316.97	64.8583
1318.57	65.8541
1320.16	66.4932
1321.76	66.2912
1323.35	66.7324
1324.94	66.9268
1326.54	66.2349
1328.13	66.5225
1329.72	66.362
1331.32	67.1785
1332.91	67.8143
1334.5	67.3609
1336.09	66.3539
1337.68	65.0162
1339.27	64.446
1340.87	63.7403
1342.45	62.7002
1344.04	61.2018
1345.64	59.9863
1347.22	58.5962
1348.81	57.7143
1350.4	56.5378
1351.99	54.7388
1353.58	52.6019
1355.17	51.1356
1356.75	49.9891
1358.34	48.4178
1359.93	46.1712
1361.51	44.5139
1363.1	42.4047
1364.69	40.0829
1366.27	38.7983
1367.86	37.968
1369.44	38.2949
1371.03	37.9739
1372.61	36.8029
1374.2	35.9877
1375.78	35.0321
1377.37	34.8615
1378.95	35.312
1380.53	34.6415
1382.11	33.9771
1383.7	34.2795
1385.28	33.9462
1386.86	33.0264
1388.44	32.7089
1390.02	32.5457
1391.6	31.8362
1393.19	33.0357
1394.77	32.6412
1396.35	33.2036
1397.93	32.7454
1399.51	31.9428
1401.08	32.4735
1402.66	33.416
1404.24	34.3285
1405.82	35.0825
1407.4	35.6885
1408.97	36.5161
1410.55	37.2726
1412.13	38.1038
1413.71	38.268
1415.28	38.9861
1416.86	39.926
1418.43	41.0813
1420.01	42.1048
1421.59	43.1961
1423.16	45.154
1424.73	47.3131
1426.31	48.6749
1427.88	49.7947
1429.46	50.6225
1431.03	51.3894
1432.6	53.5842
1434.18	55.3982
1435.75	56.7061
1437.32	58.4102
1438.89	59.2787
1440.46	60.193
1442.04	61.4965
1443.61	62.31
1445.18	62.4223
1446.75	63.1618
1448.32	64.0097
1449.89	63.2444
1451.46	63.5308
1453.03	63.4658
1454.6	62.8064
1456.16	62.6798
1457.73	62.8362
1459.3	62.0966
1460.87	61.828
1462.44	62.9048
1464	62.1054
1465.57	61.7654
1467.14	61.1826
1468.7	60.2511
1470.27	59.3954
1471.83	58.1087
1473.4	55.9909
1474.96	54.4596
1476.53	53.5551
1478.09	52.3383
1479.66	52.2963
1481.22	50.8889
1482.78	49.5522
1484.35	47.4374
1485.91	45.6727
1487.47	44.5378
1489.04	43.3349
1490.6	41.9922
1492.16	40.423
1493.72	37.4604
1495.28	36.3767
1496.84	34.6475
1498.4	32.9802
1499.96	31.8924
1501.52	31.1837
1503.08	29.1086
1504.64	27.8856
1506.2	26.1705
1507.76	25.2397
1509.32	24.3967
1510.88	24.3678
1512.44	23.228
1513.99	21.8557
1515.55	20.924
1517.11	18.8093
1518.66	18.44
1520.22	17.2755
1521.78	16.1248
1523.33	15.9451
1524.89	16.7697
1526.44	16.9209
1528	16.5415
1529.55	16.8674
1531.11	16.6107
1532.66	17.0135
1534.21	18.1188
1535.77	18.8985
1537.32	19.3268
1538.87	20.3161
1540.43	20.9828
1541.98	21.458
1543.53	21.9904
1545.08	22.3844
1546.63	22.9333
1548.18	23.6182
1549.74	24.3089
1551.29	24.6636
1552.84	25.5162
1554.39	27.0107
1555.94	26.8246
1557.48	28.0544
1559.03	28.0491
1560.58	27.5374
1562.13	27.8081
1563.68	29.3421
1565.23	30.4255
1566.78	30.9836
1568.32	31.661
1569.87	32.1006
1571.42	32.0167
1572.96	34.0334
1574.51	34.1232
1576.05	34.9671
1577.6	35.923
1579.14	36.4549
1580.69	37.0219
1582.24	38.0037
1583.78	38.239
1585.32	39.5619
1586.87	41.1138
1588.41	42.4071
1589.95	42.4479
1591.5	43.7475
1593.04	44.2083
1594.58	44.7546
1596.12	45.7956
1597.67	46.4934
1599.21	47.9742
1600.75	48.7805
1602.29	49.4017
1603.83	50.3649
1605.37	51.1013
1606.91	51.0019
1608.45	51.4465
1609.99	51.3874
1611.53	51.6458
1613.07	52.3109
1614.6	52.9661
1616.14	52.8301
1617.68	52.9262
1619.22	53.4029
1620.75	53.9678
1622.29	55.1321
1623.83	55.0444
1625.37	56.1155
1626.9	57.4277
1628.44	58.1839
1629.97	59.0342
1631.51	60.2424
1633.04	60.8189
1634.58	61.9275
1636.11	62.7635
1637.65	63.7235
1639.18	65.7196
1640.72	67.6455
1642.25	68.4593
1643.78	69.3471
1645.31	70.0232
1646.85	71.5307
1648.38	72.7471
1649.91	74.1874
1651.44	74.0031
1652.97	74.6406
1654.5	75.3725
1656.03	75.7456
1657.56	75.9296
1659.1	76.248
1660.62	75.6346
1662.15	74.7392
1663.68	74.2294
1665.21	73.1585
1666.74	72.3484
1668.27	70.5303
1669.8	68.7468
1671.32	66.8247
1672.85	65.6415
1674.38	63.9302
1675.91	62.483
1677.43	60.5066
1678.96	58.351
1680.49	56.2536
1682.01	53.0522
1683.54	50.4082
1685.06	47.6714
1686.59	44.5841
1688.11	42.9373
1689.64	41.0561
1691.16	38.3942
1692.68	35.6189
1694.21	33.4859
1695.73	31.5549
1697.25	29.9538
1698.78	28.1115
1700.3	25.4637
1701.82	24.303
1703.34	22.575
1704.86	20.3864
1706.39	18.5421
1707.91	16.9643
1709.43	15.6376
1710.95	14.6146
1712.47	13.5423
1713.99	13.1967
1715.51	12.3094
1717.02	12.0753
1718.54	11.4328
1720.06	10.8085
1721.58	10.1182
1723.1	9.98862
1724.62	9.65438
1726.13	9.12612
1727.65	8.46999
1729.17	8.52114
1730.68	8.2193
1732.2	7.70861
1733.72	7.55802
1735.23	7.32477
1736.75	6.62638
1738.26	6.46454
1739.78	6.82869
1741.29	6.66073
1742.81	6.04289
1744.32	5.10067
1745.84	5.07924
1747.35	5.12875
1748.86	5.72426
1750.37	5.64856
1751.89	5.97712
1753.4	5.98498
1754.91	6.07645
1756.42	6.03736
1757.93	6.1819
1759.45	5.89243
1760.96	5.19361
1762.47	5.27364
1763.98	5.32174
1765.49	4.60895
1767	3.69425
1768.51	2.82175
1770.02	2.96692
1771.53	2.77525
1773.03	2.86903
1774.54	2.77003
1776.05	2.60799
1777.56	2.30982
1779.07	2.29832
1780.57	1.99041
1782.08	1.61951
1783.59	1.54868
1785.09	1.81446
1786.6	1.82182
1788.11	1.63427
1789.61	1.7667
1791.12	1.10432
1792.62	1.33884
1794.13	1.01341
1795.63	0.711125
1797.13	0.655269
1798.64	0.960595
1800.14	1.16238
1801.65	0.84878
1803.15	1.08366
1804.65	1.1766
1806.15	1.33065
1807.66	1.44505
1809.16	1.37365
1810.66	1.46101
1812.16	1.35951
1813.66	1.24257
1815.16	0.849628
1816.66	0.604246
1818.16	0.287241
1819.66	0.268014
1821.16	0.507105
1822.66	1.07339
1824.16	1.69522
1825.66	1.58862
1827.16	1.24544
1828.66	1.37314
1830.16	1.07843
1831.65	0.781581
1833.15	0.729727
1834.65	-0.0234458
1836.14	-0.289815
1837.64	-0.366859
1839.14	-0.361713
1840.63	-0.712097
1842.13	-0.51851
1843.62	-0.0219918
1845.12	0.11932
1846.61	-0.502206
1848.11	-0.328023
1849.6	-0.479895
1851.1	-0.433142
1852.59	-0.749956
1854.08	0.148838
1855.58	0.400289
1857.07	0.967739
1858.56	0.744861
1860.05	0.624077
1861.55	0.564067
1863.04	0.649332
1864.53	0.647713
1866.02	0.496186
1867.51	0.693588
1869	1.39686
1870.49	1.37597
1871.98	1.39917
1873.47	1.77575
1874.96	1.75424
1876.45	1.9286
1877.94	2.0369
1879.43	2.20454
1880.92	2.54076
1882.41	2.32754
1882.51	2.5636
1884	2.48674
1885.5	2.49673
1886.99	2.82499
1888.48	2.66048
1889.98	2.8852
1891.47	2.69829
1892.96	3.12861
1894.46	3.54788
1895.95	3.33562
1897.44	3.31142
1898.93	3.12579
1900.42	3.65693
1901.91	4.02116
1903.41	4.00669
1904.9	4.49225
1906.39	4.35815
1907.88	4.0639
1909.37	4.51949
1910.86	4.88443
1912.35	5.30319
1913.83	5.38104
1915.32	6.07384
1916.81	6.02767
1918.3	5.70366
1919.79	5.74202
1921.27	6.50576
1922.76	6.63608
1924.25	7.02334
1925.74	7.28097
1927.22	7.68138
1928.71	6.83084
1930.19	6.11829
1931.68	6.21929
1933.17	6.51345
1934.65	6.09302
1936.14	6.27391
1937.62	6.08667
1939.11	6.61573
1940.59	7.2135
1942.07	7.1297
1943.56	6.26286
1945.04	6.13526
1946.52	6.38813
1948.01	6.221
1949.49	6.64055
1950.97	6.72321
1952.45	7.07397
1953.93	7.50731
1955.42	7.38457
1956.9	7.48481
1958.38	7.281
1959.86	7.34559
1961.34	6.82938
1962.82	6.58817
1964.3	6.33438
1965.78	6.68192
1967.26	6.96209
1968.74	6.49573
1970.21	5.89156
1971.69	6.11922
1973.17	6.15706
1974.65	6.25715
1976.13	6.23393
1977.6	6.24126
1979.08	6.63713
1980.56	5.54903
1982.03	5.16412
1983.51	5.20411
1984.99	4.9538
1986.46	4.85569
1987.94	5.37068
1989.41	5.18464
1990.89	4.60151
1992.36	4.48702
1993.84	4.05798
1995.31	4.75104
1996.78	4.50294
1998.26	4.60393
1999.73	4.88329
2001.2	4.80951
2002.68	4.97163
2004.15	5.85028
2005.62	6.9935
2007.09	6.44701
2008.56	6.93551
2010.04	7.35335
2011.51	7.50361
2012.98	8.04289
2014.45	7.95844
2015.92	7.85357
2017.39	8.78445
2018.86	9.88963
2020.33	10.2723
2021.8	10.2446
2023.26	10.5914
2024.73	10.6721
2026.2	10.4385
2027.67	10.4951
2029.14	10.0867
2030.61	10.0185
2032.07	10.0741
2033.54	10.5196
2035.01	10.658
2036.47	11.1617
2037.94	11.3063
2039.4	11.647
2040.87	11.0397
2042.33	10.6222
2043.8	10.9319
2045.27	11.7454
2046.73	11.9369
2048.19	12.4003
2049.66	11.938
2051.12	11.541
2052.59	11.8089
2054.05	11.2976
2055.51	11.4811
2056.97	11.758
2058.44	12.0692
2059.9	12.68
2061.36	13.2325
2062.82	12.9354
2064.28	13.4815
2065.74	14.076
2067.21	14.0131
2068.67	15.1722
2070.13	15.0168
2071.59	15.3064
2073.05	15.4317
2074.51	15.9283
2075.96	17.3417
2077.42	17.4704
2078.88	17.8765
2080.34	18.0938
2081.8	18.9725
2083.26	19.0795
2084.72	19.4578
2086.17	19.8846
2087.63	20.1463
2089.09	20.4323
2090.54	21.3226
2092	21.462
2093.45	21.5155
2094.91	21.6848
2096.37	22.486
2097.82	23.5488
2099.28	23.8683
2100.73	24.5999
2102.19	25.3343
2103.64	26.3456
2105.09	26.8436
2106.55	28.4498
2108	29.0504
2109.45	29.9784
2110.91	30.2847
2112.36	30.4053
2113.81	30.6939
2115.26	32.0198
2116.72	33.3346
2118.17	34.4701
2119.62	35.3207
2121.07	36.1856
2122.52	37.158
2123.97	38.3915
2125.42	39.7628
2126.87	40.6598
2128.32	41.8237
2129.77	43.5741
2131.22	45.6249
2132.67	47.3675
2134.11	48.995
2135.56	50.2284
2137.01	51.8806
2138.46	53.7108
2139.91	54.7936
2141.35	56.7025
2142.8	57.7123
2144.25	59.6042
2145.7	61.4103
2147.14	63.5903
2148.59	66.0889
2150.03	67.4609
2151.48	69.368
2152.92	71.4157
2154.37	73.0068
2155.81	74.5371
2157.26	76.137
2158.7	78.0694
2160.15	80.281
2161.59	82.1186
2163.03	83.9267
2164.47	84.682
2165.92	85.895
2167.36	87.0335
2168.8	88.3112
2170.24	88.6323
2171.69	88.8704
2173.13	89.068
2174.57	89.9246
2176.01	89.9531
2177.45	89.942
2178.89	89.7559
2180.33	88.6089
2181.77	87.6197
2183.21	86.4595
2184.65	85.6761
2186.09	85.2747
2187.53	84.6119
2188.97	83.9905
2190.4	82.5068
2191.84	80.9506
2193.28	79.4364
2194.72	78.0831
2196.16	76.0259
2197.59	74.2325
2199.03	72.2482
2200.47	70.9047
2201.9	69.2049
2203.34	67.6552
2204.77	65.3995
2206.21	63.495
2207.64	61.1837
2209.08	59.0109
2210.51	57
2211.95	54.1415
2213.38	52.4603
2214.82	50.3821
2216.25	48.5825
2217.68	46.5708
2219.12	45.3558
2220.55	43.8331
2221.98	42.292
2223.41	41.1423
2224.85	40.0947
2226.28	38.5557
2227.71	37.5148
2229.14	36.2759
2230.57	35.1029
2232	33.9264
2233.43	32.5998
2234.86	31.652
2236.29	30.9587
2237.72	30.0781
2239.15	29.0386
2240.58	27.7139
2242.01	26.5176
2243.44	26.1739
2244.87	24.5537
2246.29	24.3399
2247.72	23.4718
2249.15	22.8778
2250.58	21.9948
2252.01	21.9004
2253.43	21.7174
2254.86	21.2696
2256.29	21.0867
2257.71	21.0968
2259.14	21.1414
2260.56	21.1217
2261.99	20.0546
2263.41	19.4808
2264.84	19.2605
2266.26	18.9535
2267.69	18.0131
2269.11	17.8868
2270.53	17.8385
2271.96	17.432
2273.38	17.0678
2274.8	16.3911
2276.23	16.1816
2277.65	16.0283
2279.07	15.3989
2280.49	15.0667
2281.91	14.5617
2283.34	14.0263
2284.76	13.6607
2286.18	13.4607
2287.6	13.2944
2289.02	13.034
2290.44	12.5677
2291.86	12.0137
2293.28	11.7112
2294.7	11.3048
2296.12	10.8991
2297.54	10.331
2298.96	10.0211
2300.37	9.55895
2301.79	9.52243
2303.21	9.63389
2304.63	9.64764
2306.04	9.49029
2307.46	9.10388
2308.88	8.28715
2310.3	8.29183
2311.71	8.14788
2313.13	8.39712
2314.54	8.92666
2315.96	8.50135
2317.37	8.94167
2318.79	8.69285
2320.2	8.36507
2321.62	7.89644
2323.03	8.32184
2324.45	8.24221
2325.86	8.1226
2327.27	8.24146
2328.69	7.7324
2330.1	7.67992
2331.51	6.90114
2332.92	6.88269
2334.34	6.30803
2335.75	6.43652
2337.16	5.9995
2338.57	5.52337
2339.98	5.34546
2341.39	4.74929
2342.8	4.39428
2344.21	4.93292
2345.63	4.87041
2347.04	5.32834
2348.45	4.53298
2349.85	3.82139
2351.26	3.36934
2352.67	2.84027
2354.08	2.47146
2355.49	2.14384
2356.9	2.37458
2358.3	1.48996
2359.71	0.844473
2361.12	0.116805
2362.53	-0.141515
2363.93	-0.613931
2365.34	-0.745735
2366.75	-0.812511
2368.15	-1.09223
2369.56	-0.989271
2370.97	-0.762489
2372.37	-0.250595
2373.77	0.0675896
2375.18	-0.103019
2376.59	-0.345323
2377.99	-0.336641
2379.39	-0.435848
2380.8	-0.496445
2382.2	-1.05964
2383.6	-0.678796
2385.01	-0.872702
2386.41	-0.925962
2387.81	-0.967423
2389.21	-0.662758
2390.62	-0.740582
2392.02	-0.178188
2393.42	0.282422
2394.82	0.255013
2396.22	0.870854
2397.62	0.944162
2399.02	1.2093
2400.42	2.01844
2401.82	2.09496
2403.22	2.41235
2404.62	2.22471
2406.02	2.61658
2407.42	2.50958
2408.82	3.0307
2410.22	3.5813
2411.62	3.94937
2413.01	4.54493
2414.41	5.22952
2415.81	5.41776
2417.21	5.14412
2418.6	5.1575
2420	5.4436
2421.4	5.59524
2422.79	5.88566
2424.19	5.74271
2425.59	6.10063
2426.98	6.01869
2428.38	5.7092
2429.77	5.80887
2431.17	5.53324
2432.56	5.07809
2433.95	4.91805
2435.35	5.20302
2436.74	5.64198
2438.14	5.39057
2439.53	5.1446
2440.92	4.94793
2442.31	5.05037
2443.71	4.77272
2445.1	3.99335
2446.49	3.83727
2447.88	4.10668
2449.27	3.60891
2450.67	3.91379
2452.06	3.75848
2453.45	4.55702
2454.84	4.3783
2456.23	4.94154
2457.62	4.46315
2459.01	5.01298
2460.4	5.22499
2461.79	5.41876
2463.18	5.21308
2464.57	5.55472
2465.95	5.72162
2467.34	5.68074
2468.73	5.88591
2470.12	6.02122
2471.5	6.14322
2472.89	6.18807
2474.28	6.71376
2475.67	7.50822
2477.05	7.49901
2478.44	8.06243
2479.82	8.19403
2481.21	7.71725
2482.6	7.83947
2483.98	7.71868
2485.37	6.50104
2486.75	6.42305
2488.13	6.2918
2489.52	6.20296
2490.9	6.15783
2492.29	6.12486
2493.67	5.7946
2495.05	5.35997
2496.44	5.70566
2497.82	5.16228
2499.2	4.71708
2500.58	4.72249
2501.97	4.33341
2503.35	4.23607
2504.73	4.18509
2506.11	4.06841
2507.49	3.40011
2508.87	3.35968
2510.25	3.52375
2511.63	3.63651
2513.01	3.44971
2514.39	3.52242
2515.77	3.94978
2517.15	3.78082
2518.53	3.45563
2519.91	3.11866
2521.29	2.64211
2522.67	3.68913
2524.05	3.89108
2525.42	3.84096
2526.8	3.74884
2528.18	3.99169
2529.55	3.43869
2530.93	3.13369
2532.31	3.11053
2533.69	3.43818
2535.06	3.79431
2536.44	4.15217
2537.81	4.42924
2539.19	4.92725
2540.56	5.15306
2541.94	4.94739
2543.31	5.29161
2544.69	4.99083
2546.06	4.56477
2547.44	4.40067
2548.81	4.13589
2550.18	3.29138
2551.56	3.15608
2552.93	2.86343
2554.3	2.38455
2555.67	3.29833
2557.04	3.14175
2558.42	3.10901
2559.79	2.45425
2561.16	2.53993
2562.53	1.99072
2563.9	2.34394
2565.27	2.78936
2566.64	2.01216
2568.01	2.39574
2569.38	2.38983
2570.75	1.85381
2572.12	1.91717
2573.49	1.87714
2574.86	2.5254
2576.23	2.61549
2577.6	2.44331
2578.97	2.27997
2580.33	2.33209
2581.7	2.32375
2583.07	2.37494
2584.44	2.01546
2585.8	1.68174
2587.17	1.72647
2588.54	1.89463
2589.9	2.88625
2591.27	3.69603
2592.64	3.25492
2594	2.74314
2595.37	3.21778
2596.73	3.03513
2598.1	2.87126
2599.46	3.99997
2600.83	4.86925
2602.19	5.46223
2603.55	5.62471
2604.92	6.18751
2606.28	6.65236
2607.64	6.53198
2609.01	6.42735
2610.37	6.16503
2611.73	6.36286
2613.09	6.18578
2614.46	6.18253
2615.82	5.69441
2617.18	5.47728
2618.54	4.92108
2619.9	4.76482
2621.26	4.87782
2622.62	4.63686
2623.98	4.82119
2625.34	4.34804
2626.7	3.83796
2628.06	3.89664
2629.42	4.58162
2630.78	3.91411
2632.14	4.52786
2633.5	3.78978
2634.86	3.65961
2636.21	3.61124
2637.57	3.43361
2638.93	3.43897
2640.29	3.23428
2641.64	2.7595
2643	2.82404
2644.36	2.12455
2645.71	2.12852
2647.07	1.68806
2648.43	1.80592
2649.78	2.04436
2651.14	2.53131
2652.49	2.63974
2653.85	3.09503
2655.2	3.012
2656.56	3.29195
2657.91	3.38061
2659.26	3.4857
2660.62	3.80619
2661.97	4.02404
2663.32	5.04268
2664.68	5.31731
2666.03	6.04668
2667.38	6.70156
2668.74	6.72916
2670.09	6.52447
2671.44	6.95878
2672.79	6.80748
2674.14	6.51622
2675.49	6.25214
2676.84	6.21475
2678.19	6.00956
2679.54	5.79289
2680.89	5.21812
2682.24	4.88319
2683.59	4.67118
2684.94	4.43279
2686.29	4.52555
2687.64	4.54677
2688.99	4.81057
2690.34	4.4053
2691.69	3.46854
2693.03	3.14034
2694.38	2.75139
2695.73	2.81739
2697.08	2.76677
2698.42	2.72828
2699.77	2.92524
2701.12	2.98911
2702.46	3.3287
2703.81	3.24522
2705.15	2.97298
2706.5	2.90881
2707.85	2.85421
2709.19	3.14601
2710.54	3.51586
2711.88	4.03481
2713.22	4.43847
2714.57	4.41668
2715.91	5.4535
2717.26	6.21632
2718.6	6.03804
2719.94	6.20822
2721.29	6.09749
2722.63	6.40158
2723.97	6.86192
2725.31	7.15159
2726.66	7.46511
2728	7.54296
2729.34	7.32978
2730.68	7.91373
2732.02	7.81799
2733.36	7.83011
2734.7	7.60683
2736.04	8.09524
2737.38	7.87017
2738.72	7.94802
2740.06	7.58557
2741.4	7.70712
2742.74	7.83836
2744.08	7.59085
2745.42	7.36731
2746.76	7.41353
2748.09	7.23061
2749.43	7.34852
2750.77	7.35471
2752.11	7.25113
2753.45	6.79476
2754.78	6.34786
2756.12	6.07774
2757.46	5.77497
2758.79	5.28853
2760.13	5.80004
2761.46	5.5623
2762.8	5.44927
2764.14	5.67997
2765.47	5.6866
2766.8	5.39231
2768.14	5.68917
2769.47	5.4235
2770.81	5.2691
2772.14	5.29555
2773.48	6.04941
2774.81	5.91415
2776.14	6.23574
2777.48	6.23452
2778.81	6.26319
2780.14	6.37127
2781.47	6.49978
2782.8	6.35396
2784.14	6.08095
2785.47	5.15828
2786.8	4.94787
2788.13	4.00453
2789.46	3.5346
2790.79	2.97099
2792.12	2.70733
2793.45	2.27349
2794.78	2.14016
2796.11	1.92245
2797.44	1.85613
2798.77	1.11103
2800.1	1.1735
2801.43	1.28898
2802.76	1.24774
2804.09	0.650362
2805.41	0.811868
2806.74	0.768962
2808.07	1.07107
2809.4	1.44482
2810.72	1.5287
2812.05	1.95059
2813.38	2.95893
2814.71	3.12536
2816.03	3.8293
2817.36	4.19116
2818.68	4.59197
2820.01	5.31715
2821.33	6.42896
2822.66	7.64215
2823.98	8.8857
2825.31	10.2404
2826.63	11.7317
2827.96	13.1096
2829.28	14.6844
2830.6	16.3894
2831.93	17.865
2833.25	19.5982
2834.57	21.9878
2835.9	23.9331
2837.22	26.6719
2838.54	28.9651
2839.86	31.5202
2841.18	33.6113
2842.5	36.6974
2843.83	39.4022
2845.15	42.544
2846.47	45.3071
2847.79	48.4986
2849.11	51.4375
2850.43	54.5434
2851.75	57.684
2853.07	61.3669
2854.39	64.6744
2855.71	69.002
2857.03	73.1243
2858.35	76.1516
2859.66	79.3643
2860.98	82.0146
2862.3	85.0181
2863.62	88.4379
2864.94	91.3767
2866.25	94.3484
2867.57	96.7523
2868.89	98.7026
2870.2	101.006
2871.52	103.626
2872.84	106.552
2874.15	109.049
2875.47	111.383
2876.78	114.341
2878.1	116.775
2879.41	118.517
2880.73	119.962
2882.04	121.299
2883.36	123.02
2884.67	125.096
2885.99	127.534
2887.3	129.136
2888.61	130.804
2889.93	132.748
2891.24	134.877
2892.55	137.024
2893.86	139.62
2895.18	142.329
2896.49	145.022
2897.8	148.142
2899.11	152.252
2900.42	156.303
2901.73	159.918
2903.05	164.559
2904.36	169.344
2905.67	174.552
2906.98	179.871
2908.29	185.882
2909.6	191.833
2910.91	197.796
2912.21	204.211
2913.52	210.968
2914.83	216.555
2916.14	222.799
2917.45	228.508
2918.76	234.785
2920.07	240.094
2921.37	245.37
2922.68	249.394
2923.99	253.109
2925.29	256.919
2926.6	259.97
2927.91	263.087
2929.22	264.846
2930.52	265.967
2931.83	267.016
2933.13	267.185
2934.44	267.275
2935.74	267.591
2937.05	267.439
2938.35	266.614
2939.66	264.68
2940.96	262.933
2942.26	259.685
2943.57	256.213
2944.87	252.359
2946.18	249.065
2947.48	244.801
2948.78	240.749
2950.08	235.947
2951.39	231.142
2952.69	225.303
2953.99	220.589
2955.29	215.696
2956.59	210.678
2957.9	205.377
2959.2	199.959
2960.5	194.082
2961.8	187.691
2963.1	182.339
2964.4	177.399
2965.7	171.608
2967	167.116
2968.3	162.591
2969.6	158.123
2970.9	152.953
2972.19	148.712
2973.49	144.23
2974.79	139.757
2976.09	135.18
2977.39	130.813
2978.68	125.498
2979.98	120.631
2981.28	116.347
2982.58	112.366
2983.87	108.579
2985.17	104.044
2986.47	99.4061
2987.76	95.0337
2989.06	91.0845
2990.35	86.7173
2991.65	81.8974
2992.94	77.2718
2994.24	72.6096
2995.53	68.9012
2996.83	64.6818
2998.12	61.0678
2999.42	58.1495
3000.71	54.7805
3002	51.3659
3003.3	47.9125
3004.59	44.8437
3005.88	41.9704
3007.18	38.9613
3008.47	37.3823
3009.76	34.8285
3011.05	32.7183
3012.34	30.3735
3013.64	28.4998
3014.93	26.5644
3016.22	24.687
3017.51	23.1761
3018.8	21.7237
3020.09	20.0203
3021.38	19.234
3022.67	17.6058
3023.96	16.6379
3025.25	15.4744
3026.54	14.5925
3027.83	14.6805
3029.12	14.1073
3030.41	13.3569
3031.69	13.6992
3032.98	12.918
3034.27	12.6651
3035.56	12.1782
3036.84	12.7184
3038.13	12.4742
3039.42	12.5317
3040.71	12.6175
3041.99	12.7468
3043.28	12.9384
3044.57	13.7208
3045.85	14.6458
3047.14	15.725
3048.42	15.5252
3049.71	15.3764
3050.99	15.3851
3052.28	16.1985
3053.56	16.3197
3054.85	15.8117
3056.13	15.1832
3057.41	15.1621
3058.7	14.7344
3059.98	15.0177
3061.26	14.6935
3062.55	14.6694
3063.83	14.17
3065.11	13.6699
3066.39	13.4788
3067.68	13.4815
3068.96	13.3894
3070.24	13.4036
3071.52	12.6187
3072.8	12.1967
3074.08	11.113
3075.36	10.2897
3076.65	9.62448
3077.93	9.08578
3079.21	8.08426
3080.49	7.21912
3081.77	7.00392
3083.04	5.89839
3084.32	5.51963
3085.6	5.24886
3086.88	4.23278
3088.16	3.66205
3089.44	2.79319
3090.72	1.9676
3091.99	1.36976
3093.27	0.576453
3094.55	0.459156
3095.83	0.399534
3097.1	-0.266744
3098.38	0.0258694
3099.66	0.0615252
3100.93	0.328036
3102.21	-0.197094
3103.49	0.380826
3104.76	0.576365
3106.04	0.474084
3107.31	0.691396
3108.59	1.12535
3109.86	1.77994
3111.14	1.46408
3112.41	1.17335
3113.69	1.52546
3114.96	2.20533
3116.23	2.04091
3117.51	1.62007
3118.78	1.55143
3120.05	1.65345
3121.33	1.96908
3122.6	2.34428
3123.87	2.93225
3125.14	3.17329
3126.41	3.34916
3127.69	3.86026
3128.96	4.3619
3130.23	4.80499
3131.5	4.98536
3132.77	4.96194
3134.04	4.85445
3135.31	4.30406
3136.58	4.77568
3137.85	4.91859
3139.12	5.41057
3140.39	5.90256
3141.66	6.15077
3142.93	6.34492
3144.2	6.7525
3145.47	7.08127
3146.74	7.72184
3148	8.02923
3149.27	8.53408
