#Acq. time (s)=	45
#Accumulations=	2
#Range (cm-¹)=	200...3150
#Windows=	2
#Auto scanning=	Off
#Autofocus=	Off
#Macrospot=	Off
#AutoExposure=	Off
#Spike filter=	Multiple accum.
#Delay time (s)=	0
#Binning=	1
#Readout mode=	Signal
#DeNoise=	Off
#ICS correction=	On
#Dark correction=	Off
#Inst. Process=	Off
#Detector Gain=	Best Dynamic Range
#Detector ADC=	20 kHz       
#Detector temperature (°C)=	-69.85
#Instrument=	LabRAM HR Evol
#Detector=	Synapse
#Objective=	x100
#Grating=	600 gr/mm
#ND Filter=	100%
#Laser (nm)=	532 
#Hole=	100.021
#Range=	Auto
#Laser Pol.=	No
#Raman. Pol.=	No
#Laser Pol. (°)=	-0.0007625
#Raman Pol. (°)=	89.9995
#Collection=	Microscope
#StageXY=	Marzhauser
#StageZ=	Marzhauser
#X (µm)=	-1245.8
#Y (µm)=	1614.4
#Z (µm)=	-6.65
#Full time(mm:ss)=	3:05
#Project=	
#Sample=	
#Site=	
#Title=	Mb_30_27_11_2x_45s_532 nm_x100_100%_600 gr_mm
#Remark=	
#Date=	12.07.2022 16:47
#Acquired=	12.07.2022 16:47:36
#Base:Fit=	10.08.2022 10:40:03
#Base:Sub=	10.08.2022 10:40:17
#Filter:Polynom=	16.08.2022 10:16:15
#AxisType[0]=Intens
#AxisUnit[0]=Cnt
#AxisType[1]=Spectr
#AxisUnit[1]=1/cm
200.413	-1.01577
202.227	-0.182305
204.042	1.89904
205.856	3.24788
207.671	4.10561
209.485	4.85284
211.297	5.53643
213.11	5.48333
214.924	5.6746
216.736	5.62549
218.547	6.06178
220.358	5.72752
222.169	4.26014
223.982	4.60443
225.792	5.28001
227.601	5.21015
229.411	4.63031
231.22	4.63121
233.028	4.56729
234.837	4.89107
236.647	4.75428
238.454	5.7506
240.261	5.86404
242.068	5.43736
243.875	5.47673
245.681	5.15904
247.487	4.31933
249.292	4.32007
251.099	4.33358
252.904	4.76176
254.708	4.34836
256.512	4.83993
258.316	5.29003
260.12	5.20894
261.922	5.42001
263.725	6.54335
265.527	7.34977
267.329	7.89069
269.131	8.89873
270.932	8.83486
272.733	7.71395
274.534	7.8092
276.334	7.75483
278.134	8.57476
279.933	8.99869
281.732	8.75296
283.531	9.62183
285.329	9.82103
287.128	9.3382
288.925	9.58189
290.723	10.2972
292.52	9.79618
294.316	9.45812
296.113	9.6159
297.909	9.54862
299.702	8.97744
301.498	9.13778
303.293	8.87168
305.087	10.0109
306.881	9.6308
308.675	9.47308
310.469	9.28687
312.262	9.38436
314.055	10.0851
315.845	9.74314
317.638	8.85084
319.429	7.95192
321.221	7.44467
323.012	7.25099
324.803	7.37892
326.591	7.13389
328.381	7.6107
330.171	7.30979
331.96	6.81039
333.749	7.78109
335.536	7.50322
337.324	7.77037
339.112	8.57596
340.9	8.47179
342.685	8.29884
344.472	8.59232
346.259	8.69903
348.045	8.47456
349.829	8.55375
351.614	9.26614
353.4	10.2448
355.185	9.60863
356.967	9.28395
358.751	9.47473
360.535	9.41652
362.317	9.488
364.1	10.4534
365.883	10.8942
367.663	11.2943
369.445	10.7677
371.227	10.9271
373.006	11.181
374.787	10.9088
376.568	10.5185
378.346	10.4976
380.126	10.1922
381.904	9.65743
383.683	10.5467
385.462	10.2571
387.239	10.4048
389.017	10.1419
390.793	10.0084
392.571	9.80417
394.348	9.53461
396.123	8.10192
397.9	7.50264
399.674	6.84811
401.45	5.61175
403.224	5.43613
404.999	4.6455
406.772	3.29391
408.546	2.64464
410.318	2.97195
412.092	3.28194
413.864	3.35967
415.637	2.81169
417.408	2.37777
419.18	2.24921
420.95	0.95024
422.722	0.391634
424.492	-0.410858
426.263	0.707283
428.032	0.655888
429.802	0.409878
431.57	0.133699
433.338	-0.198299
435.107	-0.634272
436.874	-0.942054
438.643	-0.163499
440.41	0.333474
442.176	0.668632
443.943	0.280698
445.709	0.793424
447.476	1.7858
449.24	1.7447
451.005	1.33985
452.771	1.5803
454.534	1.75972
456.298	1.85193
458.063	2.52597
459.825	3.0065
461.588	2.83658
463.352	3.27638
465.113	3.62119
466.875	4.75491
468.638	5.48533
470.398	6.16841
472.158	7.78938
473.918	8.51257
475.68	9.36004
477.439	10.1615
479.198	11.0674
480.957	11.9787
482.717	13.3941
484.475	13.8667
486.233	14.6914
487.99	15.6944
489.747	16.7699
491.505	17.8272
493.261	16.5867
495.017	17.6534
496.773	19.0352
498.528	19.6619
500.285	20.1663
502.039	20.6613
503.794	20.6552
505.548	21.0256
507.301	21.3769
509.054	20.8517
510.807	21.444
512.562	22.128
514.314	21.9517
516.066	21.1305
517.817	20.5181
519.568	19.9772
521.319	19.346
523.07	18.0728
524.82	18.1647
526.57	17.5379
528.319	16.8479
530.068	16.2656
531.817	15.3297
533.568	15.0104
535.316	13.6839
537.064	12.0499
538.811	11.7072
540.558	11.7891
542.305	11.5175
544.051	11.1299
545.798	10.6272
547.543	9.69051
549.289	9.11652
551.034	8.57024
552.777	8.0873
554.521	8.02624
556.265	7.67498
558.009	7.30367
559.753	7.36847
561.496	7.05477
563.239	6.52961
564.981	6.61719
566.723	5.70442
568.465	5.47893
570.207	5.08576
571.948	4.53011
573.688	4.89518
575.427	5.06716
577.167	4.41757
578.907	4.03178
580.646	3.37635
582.385	4.48556
584.124	3.90543
585.863	3.60172
587.599	4.06082
589.337	3.52101
591.074	2.95624
592.811	3.04467
594.548	2.07418
596.283	1.68952
598.019	2.17802
599.755	1.58308
601.49	1.63387
603.223	1.55511
604.958	0.408855
606.693	0.182354
608.427	0.162428
610.159	0.436543
611.892	1.39114
613.625	1.00414
615.358	1.87955
617.089	1.91973
618.821	2.63594
620.553	2.57628
622.282	2.71592
624.014	3.79953
625.744	4.64638
627.473	4.78671
629.203	4.90286
630.933	5.31805
632.661	5.29771
634.39	5.7298
636.119	6.02385
637.845	6.22176
639.574	7.50982
641.301	8.45706
643.027	8.47224
644.754	9.26451
646.479	10.0864
648.206	10.6797
649.932	11.4731
651.656	11.5209
653.382	11.8107
655.105	12.8081
656.83	14.0638
658.552	14.9198
660.277	15.8753
661.999	15.7644
663.722	15.8965
665.444	16.2317
667.167	16.7322
668.887	17.6185
670.61	18.3089
672.33	19.8113
674.051	21.1924
675.771	21.6755
677.492	22.8297
679.21	23.4732
680.931	24.1218
682.649	25.5835
684.369	26.8008
686.086	26.5487
687.803	28.0968
689.522	28.3348
691.238	28.8769
692.956	29.1831
694.672	30.1031
696.388	31.1771
698.105	32.5941
699.819	32.481
701.536	33.168
703.25	34.3547
704.964	34.9351
706.679	35.2115
708.393	36.3474
710.105	37.3885
711.82	38.2208
713.532	39.0273
715.244	39.8528
716.957	40.6387
718.669	40.6029
720.38	40.9706
722.09	41.6908
723.802	42.5053
725.512	42.9729
727.222	42.8909
728.933	42.8182
730.642	42.5999
732.351	43.0276
734.059	42.836
735.767	43.3147
737.477	42.7452
739.184	43.4405
740.891	44.3421
742.598	44.8202
744.304	45.2382
746.012	46.4954
747.718	46.8261
749.423	47.4996
751.128	47.8974
752.833	48.9972
754.538	50.0519
756.244	51.6059
757.947	53.3434
759.651	54.9759
761.354	55.7324
763.057	56.9401
764.759	57.8787
766.462	59.802
768.163	61.0394
769.865	62.2638
771.568	62.9841
773.269	64.9174
774.97	66.1917
776.67	67.604
778.37	69.1729
780.069	71.2931
781.769	72.4994
783.468	72.902
785.166	72.925
786.865	74.387
788.563	76.7842
790.26	77.5172
791.958	78.5795
793.655	79.8597
795.352	82.1002
797.048	83.2901
798.744	84.423
800.44	84.9177
802.135	85.5894
803.83	86.0128
805.525	86.5047
807.218	87.2939
808.912	87.0754
810.606	86.3489
812.299	86.0896
813.993	86.413
815.685	86.2294
817.378	86.6199
819.07	85.896
820.762	86.6234
822.452	85.5326
824.143	85.6466
825.834	85.2703
827.525	84.0646
829.215	83.6108
830.905	83.3255
832.593	82.4338
834.282	80.5923
835.971	79.4307
837.66	78.8942
839.349	77.7908
841.035	76.8147
842.723	75.6593
844.41	74.413
846.097	72.7662
847.782	71.5285
849.469	70.6043
851.155	69.0884
852.841	67.7837
854.525	66.3505
856.21	64.4941
857.895	63.1577
859.577	61.7413
861.262	59.895
862.946	59.1194
864.628	57.2746
866.311	55.8635
867.994	54.8881
869.675	54.5523
871.357	54.8835
873.039	55.2508
874.719	54.3227
876.401	53.4882
878.082	53.8205
879.761	53.5957
881.441	52.749
883.12	53.0533
884.799	52.7596
886.479	52.8251
888.156	52.5522
889.835	52.4529
891.512	52.3395
893.19	51.4061
894.866	51.2062
896.544	51.7601
898.22	51.9496
899.897	52.2814
901.573	52.4199
903.248	52.6527
904.924	53.1288
906.598	52.399
908.271	53.3022
909.947	53.7509
911.62	53.7396
913.294	54.6637
914.966	55.0884
916.64	55.0333
918.312	54.6933
919.985	54.4244
921.656	53.6545
923.329	52.1321
925	51.6807
926.67	51.2302
928.341	50.2784
930.011	50.677
931.68	49.7616
933.351	48.6768
935.019	46.6285
936.69	45.8634
938.358	44.7555
940.025	44.2571
941.694	44.6744
943.361	44.7432
945.028	44.564
946.696	44.2795
948.362	43.4433
950.028	44.1389
951.694	44.206
953.361	44.2222
955.026	44.3064
956.69	43.4346
958.356	42.7554
960.02	42.5888
961.684	42.3128
963.347	42.1154
965.012	42.1373
966.674	42.0369
968.337	41.5552
969.999	39.9823
971.661	39.0235
973.324	38.3379
974.985	37.9151
976.646	38.1821
978.306	38.27
979.966	38.3104
981.626	37.4748
983.288	37.0736
984.947	35.9397
986.606	35.9014
988.264	35.0658
989.923	34.3135
991.581	34.4299
993.238	33.1173
994.896	32.3638
996.553	31.8289
998.212	29.5066
999.868	28.1794
1001.52	25.8566
1003.18	23.0734
1004.84	21.943
1006.49	21.692
1008.15	21.6294
1009.8	22.5258
1011.45	23.1981
1013.11	25.0487
1014.76	24.9403
1016.42	26.3606
1018.07	28.2634
1019.72	30.3464
1021.37	32.1686
1023.03	33.9525
1024.68	35.1737
1026.33	36.0594
1027.98	36.741
1029.63	37.8748
1031.28	39.0588
1032.93	40.709
1034.58	41.1624
1036.23	42.065
1037.88	43.0069
1039.53	42.4481
1041.18	43.1053
1042.83	43.7468
1044.47	44.6604
1046.12	45.1727
1047.77	45.182
1049.42	45.0225
1051.06	45.2798
1052.71	44.6913
1054.35	44.8332
1056	45.5325
1057.64	45.245
1059.29	44.8313
1060.94	43.4911
1062.58	41.9338
1064.22	40.251
1065.87	38.7968
1067.51	37.8544
1069.15	35.8378
1070.8	33.143
1072.44	31.3722
1074.08	29.3643
1075.72	26.9636
1077.36	25.1091
1079.01	22.0609
1080.65	19.6671
1082.29	19.311
1083.93	18.109
1085.57	18.4076
1087.21	19.0431
1088.85	19.4578
1090.49	19.7604
1092.12	20.09
1093.76	21.1898
1095.4	21.4012
1097.04	20.9054
1098.68	21.138
1100.31	20.2116
1101.95	19.1539
1103.59	18.9303
1105.22	17.6687
1106.86	16.9615
1108.49	16.3746
1110.13	16
1111.76	16.7149
1113.4	16.4685
1115.03	16.892
1116.66	17.1219
1118.3	16.9482
1119.93	16.6675
1121.57	16.1694
1123.2	17.9381
1124.83	18.2672
1126.46	18.2956
1128.09	17.4706
1129.72	17.2988
1131.36	17.6399
1132.99	18.4224
1134.62	18.8174
1136.25	19.283
1137.88	20.1545
1139.51	20.7063
1141.14	20.5909
1142.77	19.7846
1144.39	19.2517
1146.02	18.9562
1147.65	18.5012
1149.28	17.3104
1150.9	15.7105
1152.53	15.2352
1154.16	14.7174
1155.78	14.005
1157.41	13.633
1159.04	12.9636
1160.66	12.6254
1162.29	13.2091
1163.91	13.2041
1165.54	12.5813
1167.16	12.2285
1168.78	11.3101
1170.41	11.5022
1172.03	11.4232
1173.65	10.6894
1175.27	11.4736
1176.9	10.0591
1178.52	9.65622
1180.14	9.36893
1181.76	8.28629
1183.38	8.30654
1185	8.02723
1186.62	7.86023
1188.24	9.52415
1189.86	10.1821
1191.48	10.2333
1193.1	9.98684
1194.72	8.76566
1196.34	9.53456
1197.96	9.88081
1199.58	10.0312
1201.19	9.83606
1202.81	10.3849
1204.43	11.6028
1206.04	11.9034
1207.66	12.4598
1209.28	12.7102
1210.89	13.5413
1212.51	14.6458
1214.12	15.0807
1215.74	14.9739
1217.35	14.9616
1218.97	15.9748
1220.58	16.4806
1222.19	16.2825
1223.81	17.5108
1225.42	18.2038
1227.03	18.4844
1228.64	17.7633
1230.26	16.9856
1231.87	17.4517
1233.48	17.9277
1235.09	18.8288
1236.7	19.8165
1238.31	20.0181
1239.92	20.6713
1241.53	20.6473
1243.14	20.7826
1244.75	20.9297
1246.36	21.2562
1247.97	21.7583
1249.57	22.318
1251.18	23.4375
1252.79	23.3144
1254.4	23.5659
1256	25.7052
1257.61	26.4756
1259.22	27.5843
1260.82	28.7407
1262.43	29.7723
1264.03	31.899
1265.64	32.763
1267.24	33.8532
1268.85	34.501
1270.45	33.7625
1272.06	33.1004
1273.66	33.5606
1275.26	34.4548
1276.87	35.4436
1278.47	35.8229
1280.07	36.6859
1281.67	37.1181
1283.28	37.4498
1284.88	37.5669
1286.48	36.7351
1288.08	36.4133
1289.68	36.1135
1291.28	36.2568
1292.88	36.1341
1294.48	36.0887
1296.08	36.5166
1297.68	37.4458
1299.28	38.3172
1300.87	38.182
1302.47	39.0948
1304.07	39.5703
1305.67	38.9905
1307.26	38.7168
1308.86	38.3636
1310.46	38.7891
1312.05	39.1528
1313.65	40.1694
1315.24	41.1648
1316.84	41.2457
1318.44	41.5274
1320.03	42.1497
1321.62	41.9676
1323.22	42.1537
1324.81	42.4461
1326.4	42.5455
1328	42.1987
1329.59	42.6238
1331.18	43.6363
1332.78	43.7243
1334.37	44.2005
1335.96	44.7318
1337.55	43.9002
1339.14	43.2609
1340.73	42.3568
1342.32	41.6185
1343.91	41.5425
1345.5	40.3501
1347.09	39.1703
1348.68	38.8854
1350.27	38.1483
1351.86	38.121
1353.45	37.8874
1355.03	38.1184
1356.62	37.7915
1358.21	37.345
1359.8	37.0925
1361.38	35.8405
1362.97	33.9907
1364.56	33.606
1366.14	32.3736
1367.73	31.7246
1369.31	30.444
1370.9	29.208
1372.48	28.471
1374.07	27.8929
1375.65	27.194
1377.23	26.578
1378.82	26.5946
1380.4	26.511
1381.98	27.2283
1383.57	26.743
1385.15	26.2379
1386.73	26.5771
1388.31	26.5085
1389.89	26.5306
1391.47	26.6843
1393.05	27.2648
1394.63	27.2075
1396.21	27.1423
1397.79	27.3399
1399.37	26.7337
1400.95	26.7448
1402.53	27.2539
1404.11	27.6455
1405.69	27.9014
1407.27	28.2098
1408.84	29.3833
1410.42	29.4028
1412	28.8811
1413.57	29.2029
1415.15	29.4605
1416.73	29.7523
1418.3	29.9435
1419.88	30.8611
1421.45	31.8878
1423.03	33.3312
1424.6	34.6483
1426.18	35.6867
1427.75	38.2464
1429.33	39.6393
1430.9	40.6419
1432.47	41.7446
1434.04	43.1622
1435.62	44.0354
1437.19	44.232
1438.76	45.2449
1440.33	45.1631
1441.91	45.7261
1443.47	46.2489
1445.05	46.5439
1446.62	46.8305
1448.19	46.6668
1449.76	47.0743
1451.33	47.4536
1452.9	47.8356
1454.46	46.9201
1456.03	46.9257
1457.6	46.6266
1459.17	46.1744
1460.74	45.861
1462.3	44.7076
1463.87	44.2318
1465.44	43.674
1467.01	42.9206
1468.57	42.6524
1470.14	42.2808
1471.7	41.7549
1473.27	41.1518
1474.83	40.943
1476.4	39.8887
1477.96	39.4445
1479.53	38.5607
1481.09	38.2398
1482.65	36.8355
1484.22	36.2126
1485.78	35.7498
1487.34	34.2047
1488.91	33.3938
1490.47	32.84
1492.03	32.2388
1493.59	31.2888
1495.15	30.0273
1496.71	28.8272
1498.27	29.003
1499.83	28.331
1501.39	28.2813
1502.95	28.4584
1504.51	27.729
1506.07	27.8002
1507.63	26.6125
1509.19	26.057
1510.75	26.0936
1512.3	25.0605
1513.86	24.0811
1515.42	22.7029
1516.98	21.6631
1518.53	20.8487
1520.09	20.4784
1521.65	19.8828
1523.2	19.1139
1524.76	17.7401
1526.31	17.3795
1527.87	16.8144
1529.42	16.3143
1530.98	15.4045
1532.53	14.7241
1534.08	14.3817
1535.64	13.9885
1537.19	14.3476
1538.74	14.3686
1540.3	14.5093
1541.85	14.7231
1543.4	14.778
1544.95	15.7472
1546.5	15.9644
1548.05	16.9403
1549.61	17.3416
1551.16	17.8667
1552.71	18.8751
1554.26	19.2326
1555.81	20.7561
1557.36	21.2848
1558.9	22.288
1560.45	22.5033
1562	23.7767
1563.55	24.9038
1565.1	24.9197
1566.64	26.4446
1568.19	26.4048
1569.74	27.2116
1571.29	27.7995
1572.83	28.0029
1574.38	28.9803
1575.93	30.1307
1577.47	30.2924
1579.02	30.9108
1580.56	31.532
1582.1	31.1605
1583.65	31.3799
1585.19	31.1247
1586.74	30.9715
1588.28	30.0688
1589.82	29.7159
1591.37	29.8807
1592.91	30.3633
1594.45	30.7405
1595.99	31.2282
1597.54	31.4967
1599.08	31.9976
1600.62	32.0426
1602.16	32.8376
1603.7	33.4157
1605.24	33.2725
1606.78	33.1669
1608.32	32.5163
1609.86	32.6373
1611.4	32.3113
1612.94	32.4626
1614.48	32.9002
1616.01	33.5097
1617.55	34.0173
1619.09	34.5651
1620.63	35.8772
1622.16	37.3042
1623.7	38.3618
1625.24	39.4445
1626.77	39.2522
1628.31	39.043
1629.84	39.6289
1631.38	39.8224
1632.92	40.4061
1634.45	40.5893
1635.98	41.3551
1637.52	42.1617
1639.05	42.6939
1640.59	42.7299
1642.12	42.3119
1643.65	42.7693
1645.19	42.4381
1646.72	42.5258
1648.25	42.398
1649.78	41.6389
1651.31	41.642
1652.85	41.3384
1654.38	40.5068
1655.91	39.8494
1657.44	39.9596
1658.97	39.0674
1660.5	38.6801
1662.03	38.0762
1663.56	37.85
1665.08	37.6668
1666.61	37.8393
1668.14	37.5079
1669.67	36.0504
1671.2	35.4889
1672.72	33.9218
1674.25	33.0435
1675.78	32.4874
1677.31	31.4374
1678.83	30.2756
1680.36	29.1474
1681.88	28.0882
1683.41	26.6693
1684.93	25.6192
1686.46	24.8913
1687.98	23.7846
1689.51	23.3352
1691.03	22.9984
1692.56	23.3969
1694.08	22.2165
1695.6	21.8418
1697.13	21.5861
1698.65	20.8385
1700.17	20.0329
1701.69	19.0038
1703.21	17.9417
1704.74	17.7349
1706.26	18.3247
1707.78	17.8985
1709.3	17.9448
1710.82	17.4443
1712.34	16.8655
1713.86	15.4046
1715.38	14.5725
1716.9	13.3161
1718.42	13.0121
1719.94	12.7075
1721.45	12.0351
1722.97	11.5097
1724.49	10.988
1726.01	9.94768
1727.52	10.0968
1729.04	9.83168
1730.56	9.75282
1732.07	9.90501
1733.59	9.91816
1735.11	8.92658
1736.62	8.97937
1738.14	8.89385
1739.65	8.71904
1741.17	8.30687
1742.68	7.36151
1744.19	6.35536
1745.71	5.18886
1747.22	5.6705
1748.74	4.82454
1750.25	5.69354
1751.76	5.40092
1753.27	5.38765
1754.79	5.01837
1756.3	5.29524
1757.81	5.13291
1759.32	4.57141
1760.83	4.35728
1762.34	4.23206
1763.85	4.05429
1765.36	4.48848
1766.87	4.21122
1768.38	4.61978
1769.89	4.02616
1771.4	4.60701
1772.91	4.89545
1774.42	5.24797
1775.93	5.42701
1777.43	6.01818
1778.94	5.98976
1780.45	6.77536
1781.95	6.37745
1783.46	5.79079
1784.97	5.69848
1786.47	5.40689
1787.98	5.00865
1789.49	4.64556
1790.99	5.12831
1792.5	4.66343
1794	5.45851
1795.51	5.29543
1797.01	5.24071
1798.51	5.19236
1800.02	5.47005
1801.52	5.7075
1803.02	6.15077
1804.53	5.95604
1806.03	6.39251
1807.53	5.8528
1809.03	5.91943
1810.53	5.8129
1812.03	5.82585
1813.54	5.36754
1815.04	5.1463
1816.54	5.14399
1818.04	5.16669
1819.54	5.37847
1821.04	5.48504
1822.54	5.42589
1824.04	4.99059
1825.53	4.96533
1827.03	4.00867
1828.53	3.90556
1830.03	3.42866
1831.53	3.6792
1833.02	3.67934
1834.52	2.83258
1836.02	2.3988
1837.52	2.26443
1839.01	2.1961
1840.51	1.85461
1842	1.55657
1843.5	1.2013
1844.99	0.810724
1846.49	0.67522
1847.98	0.907064
1849.48	0.832575
1850.97	0.590515
1852.47	0.341657
1853.96	0.0879673
1855.45	-0.00395671
1856.95	-0.519824
1858.44	-0.214936
1859.93	0.0553349
1861.42	0.306718
1862.91	0.296907
1864.4	0.236338
1865.9	0.968536
1867.39	1.18531
1868.88	1.74336
1870.37	1.67767
1871.86	2.43568
1873.35	3.26254
1874.84	3.55931
1876.33	3.32702
1877.82	3.73672
1879.31	3.94119
1880.79	4.42246
1882.28	4.01572
1882.53	4.40578
1884.02	4.17829
1885.52	4.90528
1887.01	5.04375
1888.51	5.29414
1890	5.19805
1891.49	4.90078
1892.99	4.27244
1894.48	4.02885
1895.97	3.41082
1897.46	3.43142
1898.96	3.68516
1900.45	3.64816
1901.94	3.8054
1903.43	4.29432
1904.92	4.37342
1906.41	4.29691
1907.9	3.98637
1909.39	4.06946
1910.88	4.49037
1912.37	4.16675
1913.86	3.0241
1915.35	2.88458
1916.84	2.70142
1918.32	3.29141
1919.81	3.70308
1921.3	3.49264
1922.79	2.99578
1924.27	2.78144
1925.76	2.73993
1927.25	2.45481
1928.73	2.44615
1930.22	2.63924
1931.7	2.58268
1933.19	2.58674
1934.68	2.46952
1936.16	2.47464
1937.65	2.97666
1939.13	3.6498
1940.61	3.64008
1942.1	3.91461
1943.58	3.86251
1945.06	4.65479
1946.55	4.71641
1948.03	4.39324
1949.51	4.70958
1950.99	5.49911
1952.48	5.51957
1953.96	5.77608
1955.44	6.36782
1956.92	6.99872
1958.4	7.1223
1959.88	7.21067
1961.36	6.41879
1962.84	5.79917
1964.32	5.65394
1965.8	5.65291
1967.28	5.52662
1968.76	5.86932
1970.24	5.52335
1971.72	6.17002
1973.19	6.74599
1974.67	6.56396
1976.15	6.35812
1977.63	6.36228
1979.1	5.98414
1980.58	6.6203
1982.06	6.57945
1983.53	6.34717
1985.01	6.38033
1986.48	6.07931
1987.96	5.34282
1989.43	6.58995
1990.91	6.66011
1992.39	6.17552
1993.86	5.84067
1995.33	5.04975
1996.81	5.00017
1998.28	5.53159
1999.75	5.37743
2001.23	5.26549
2002.7	5.86207
2004.17	5.74062
2005.64	5.45063
2007.11	5.33862
2008.59	5.44522
2010.06	5.45385
2011.53	5.85316
2013	5.37895
2014.47	5.4639
2015.94	5.80405
2017.41	6.08757
2018.88	6.56063
2020.35	6.98501
2021.82	7.72262
2023.29	8.15594
2024.76	8.76357
2026.22	8.44071
2027.69	9.19715
2029.16	9.4061
2030.63	8.7879
2032.09	8.12562
2033.56	7.74354
2035.03	8.21362
2036.5	8.27402
2037.96	8.70614
2039.43	9.10713
2040.89	9.44826
2042.36	9.75631
2043.82	9.9574
2045.29	10.4143
2046.75	10.0631
2048.22	10.0999
2049.68	10.3649
2051.14	10.7113
2052.61	11.4528
2054.07	12.0736
2055.53	12.2351
2057	12.6915
2058.46	13.335
2059.92	13.5315
2061.38	13.7005
2062.85	14.874
2064.31	15.0556
2065.77	15.1856
2067.23	15.6224
2068.69	15.0297
2070.15	14.86
2071.61	15.3258
2073.07	14.81
2074.53	15.2628
2075.99	14.9248
2077.45	14.3725
2078.91	13.4052
2080.36	13.6598
2081.82	13.6894
2083.28	13.8273
2084.74	14.1046
2086.19	13.9358
2087.65	14.2467
2089.11	14.5959
2090.57	14.5065
2092.02	14.6076
2093.48	15.1034
2094.93	15.2516
2096.39	15.1393
2097.84	15.0362
2099.3	14.9217
2100.75	15.5729
2102.21	15.121
2103.66	15.039
2105.12	15.5779
2106.57	16.2919
2108.02	16.4335
2109.48	16.9081
2110.93	17.1994
2112.38	17.7538
2113.83	18.0628
2115.29	17.9225
2116.74	18.1386
2118.19	18.2426
2119.64	19.0727
2121.09	20.0221
2122.54	20.9744
2123.99	21.5389
2125.44	22.652
2126.89	23.2873
2128.34	23.9933
2129.79	24.394
2131.24	24.834
2132.69	25.2595
2134.14	25.5671
2135.59	26.3314
2137.04	27.1391
2138.48	27.5607
2139.93	28.0495
2141.38	28.6184
2142.82	29.5926
2144.27	30.8006
2145.72	31.1598
2147.16	31.9608
2148.61	32.4151
2150.06	32.9952
2151.5	33.527
2152.95	34.5681
2154.39	34.5971
2155.83	35.4685
2157.28	35.4967
2158.72	35.8727
2160.17	36.4168
2161.61	37.0301
2163.05	37.1312
2164.5	37.6311
2165.94	37.5704
2167.38	37.8995
2168.83	38.0903
2170.27	38.0772
2171.71	38.7657
2173.15	39.1868
2174.59	38.6349
2176.03	38.8436
2177.47	39.1687
2178.91	38.9977
2180.35	38.937
2181.79	39.323
2183.23	38.6283
2184.67	37.9661
2186.11	37.5306
2187.55	37.106
2188.99	36.7193
2190.43	36.5372
2191.86	36.0334
2193.3	35.0491
2194.74	34.5262
2196.18	33.0769
2197.61	32.3784
2199.05	31.2047
2200.49	30.3169
2201.92	29.357
2203.36	28.6129
2204.8	28.211
2206.23	28.0846
2207.67	28.1981
2209.1	28.4568
2210.54	28.0427
2211.97	27.7706
2213.4	27.0253
2214.84	26.2626
2216.27	25.8209
2217.7	25.0362
2219.14	24.4305
2220.57	24.0027
2222	22.958
2223.44	22.3999
2224.87	22.0833
2226.3	20.9241
2227.73	20.9625
2229.16	21.4025
2230.59	21.0691
2232.02	20.6765
2233.46	20.4703
2234.88	20.3023
2236.32	19.9655
2237.74	19.8532
2239.18	20.4857
2240.6	20.1577
2242.03	20.2887
2243.46	20.0604
2244.89	19.5184
2246.32	19.087
2247.75	18.9786
2249.17	18.6368
2250.6	18.3141
2252.03	17.9173
2253.45	17.5194
2254.88	17.4797
2256.31	17.1015
2257.73	17.1531
2259.16	16.2713
2260.58	15.733
2262.01	15.3073
2263.44	14.5553
2264.86	14.0512
2266.28	13.3172
2267.71	12.6801
2269.13	12.5494
2270.56	12.0196
2271.98	11.743
2273.4	11.2351
2274.83	11.323
2276.25	10.9453
2277.67	10.4054
2279.09	9.72791
2280.51	9.57557
2281.94	8.84401
2283.36	8.08428
2284.78	7.13459
2286.2	6.91279
2287.62	6.79797
2289.04	6.2669
2290.46	5.95424
2291.88	5.46979
2293.3	4.85346
2294.72	5.2779
2296.14	5.38997
2297.56	5.41954
2298.98	6.7749
2300.39	7.30974
2301.81	7.17459
2303.23	7.78819
2304.65	8.44645
2306.07	8.72769
2307.48	9.26724
2308.9	9.92221
2310.32	9.95385
2311.73	9.65183
2313.15	10.0829
2314.56	10.0596
2315.98	10.854
2317.4	11.2898
2318.81	11.0157
2320.23	11.49
2321.64	11.4363
2323.05	11.7778
2324.47	12.6037
2325.88	13.1565
2327.3	12.7882
2328.71	12.5842
2330.12	12.4451
2331.54	12.6447
2332.95	12.7043
2334.36	12.5355
2335.77	12.3337
2337.18	12.4286
2338.59	12.2614
2340.01	11.9987
2341.42	11.9557
2342.83	11.4935
2344.24	10.6393
2345.65	10.37
2347.06	9.58623
2348.47	9.45974
2349.88	9.63884
2351.29	9.1606
2352.69	8.05796
2354.1	6.88442
2355.51	6.14467
2356.92	5.28731
2358.33	4.64809
2359.73	4.25117
2361.14	3.89112
2362.55	3.51381
2363.96	4.14983
2365.36	4.59501
2366.77	4.23677
2368.18	4.48403
2369.58	4.60026
2370.99	4.71724
2372.39	4.92739
2373.8	4.84269
2375.2	5.26648
2376.61	5.403
2378.01	5.1845
2379.41	5.22458
2380.82	4.71751
2382.22	5.0763
2383.63	5.27107
2385.03	5.2406
2386.43	5.25551
2387.83	5.30424
2389.24	5.29973
2390.64	5.68103
2392.04	5.88906
2393.44	6.85116
2394.84	6.60532
2396.24	6.48978
2397.64	6.175
2399.05	6.16087
2400.45	6.6273
2401.85	7.4568
2403.25	7.46957
2404.65	7.27921
2406.04	7.43562
2407.44	7.09767
2408.84	6.69815
2410.24	6.7087
2411.64	7.14717
2413.04	6.93208
2414.43	7.06815
2415.83	7.56946
2417.23	8.08948
2418.63	8.56947
2420.02	8.71303
2421.42	8.18081
2422.82	8.26826
2424.21	7.797
2425.61	7.93697
2427	8.34372
2428.4	8.30832
2429.79	8.10489
2431.19	8.32112
2432.58	8.36339
2433.98	8.52978
2435.37	8.55828
2436.76	8.33428
2438.16	8.50436
2439.55	8.26697
2440.94	8.51687
2442.34	8.74262
2443.73	9.04801
2445.12	8.70852
2446.51	8.13941
2447.9	7.68802
2449.3	7.69329
2450.69	6.84889
2452.08	6.72828
2453.47	6.11
2454.86	6.19057
2456.25	6.10887
2457.64	6.1502
2459.03	5.28733
2460.42	5.24382
2461.81	4.45535
2463.2	3.45102
2464.59	2.47271
2465.97	2.41248
2467.36	1.93339
2468.75	1.70072
2470.14	1.99081
2471.53	1.61931
2472.91	0.808254
2474.3	0.294999
2475.69	-0.12899
2477.07	-0.710786
2478.46	-0.469245
2479.85	-0.393467
2481.23	0.118275
2482.62	-0.237562
2484	0.0976439
2485.39	0.355021
2486.77	0.81221
2488.16	0.390706
2489.54	0.131819
2490.93	0.441918
2492.31	0.469253
2493.69	0.522237
2495.08	0.92583
2496.46	1.04594
2497.84	0.528169
2499.22	0.892373
2500.61	1.36056
2501.99	1.24773
2503.37	1.28458
2504.75	1.38721
2506.13	0.838895
2507.51	1.00016
2508.89	0.981827
2510.28	1.33972
2511.66	1.3329
2513.04	1.04527
2514.42	0.574697
2515.79	0.727407
2517.17	0.881987
2518.55	0.976516
2519.93	1.22872
2521.31	1.86134
2522.69	2.42354
2524.07	2.74609
2525.44	2.94637
2526.82	2.73621
2528.2	2.80733
2529.58	3.2174
2530.95	2.92148
2532.33	3.15239
2533.71	3.77759
2535.08	4.19636
2536.46	4.6197
2537.83	5.06787
2539.21	5.23172
2540.59	4.83143
2541.96	4.97455
2543.33	4.63454
2544.71	4.84933
2546.08	5.08566
2547.46	5.39923
2548.83	5.83631
2550.2	5.64881
2551.58	5.59547
2552.95	6.43526
2554.32	6.39324
2555.69	6.43759
2557.07	6.84956
2558.44	7.19621
2559.81	7.30798
2561.18	7.08407
2562.55	6.59687
2563.92	5.43129
2565.29	5.19562
2566.67	4.93935
2568.03	5.18591
2569.41	5.26861
2570.77	5.21205
2572.14	4.86325
2573.51	4.37569
2574.88	4.1479
2576.25	4.36194
2577.62	4.19455
2578.99	3.99734
2580.36	3.69681
2581.72	3.5777
2583.09	3.69756
2584.46	3.47163
2585.83	3.36047
2587.19	3.2185
2588.56	3.34047
2589.93	3.20192
2591.29	2.7304
2592.66	2.58276
2594.02	2.56445
2595.39	1.78888
2596.75	2.37198
2598.12	1.95655
2599.48	1.88314
2600.85	1.98927
2602.21	1.91308
2603.58	1.77265
2604.94	1.30785
2606.3	1.50687
2607.67	1.24299
2609.03	1.08172
2610.39	1.232
2611.75	0.857915
2613.12	1.27759
2614.48	1.75164
2615.84	1.32552
2617.2	1.13814
2618.56	1.08123
2619.92	1.4055
2621.28	1.67349
2622.64	1.24657
2624	1.42362
2625.36	1.83967
2626.72	1.35613
2628.08	1.51135
2629.44	2.01718
2630.8	1.51244
2632.16	1.89003
2633.52	2.35666
2634.88	2.83356
2636.23	3.63384
2637.59	3.96629
2638.95	4.5
2640.31	4.61262
2641.67	4.8714
2643.02	4.99168
2644.38	5.19498
2645.73	4.79507
2647.09	4.7215
2648.45	4.48505
2649.8	4.35194
2651.16	3.86063
2652.51	3.90864
2653.87	4.57203
2655.22	4.51121
2656.58	4.48386
2657.93	4.12679
2659.28	3.79039
2660.64	4.31701
2661.99	4.13698
2663.34	4.20042
2664.7	4.48781
2666.05	3.98537
2667.4	4.0171
2668.76	3.95881
2670.11	3.34361
2671.46	3.40621
2672.81	3.63232
2674.16	4.37146
2675.51	3.72457
2676.86	3.65461
2678.21	3.62544
2679.57	3.68242
2680.92	4.04044
2682.27	3.96492
2683.62	3.53749
2684.96	3.57267
2686.31	3.82758
2687.66	3.44784
2689.01	3.21428
2690.36	2.59101
2691.71	2.67048
2693.06	3.12865
2694.4	2.72507
2695.75	3.12546
2697.1	2.75805
2698.44	2.49202
2699.79	2.76261
2701.14	3.11146
2702.48	3.42172
2703.83	3.73263
2705.18	3.61769
2706.52	3.61089
2707.87	3.11938
2709.21	3.29848
2710.56	3.28418
2711.9	3.61195
2713.25	3.62204
2714.59	3.99068
2715.93	4.12361
2717.28	4.85283
2718.62	5.12091
2719.96	6.0583
2721.31	6.43516
2722.65	6.26722
2723.99	6.63162
2725.33	7.03991
2726.68	7.10625
2728.02	7.73849
2729.36	7.59337
2730.7	7.46554
2732.04	7.43869
2733.38	7.05423
2734.72	7.49424
2736.06	7.94669
2737.4	7.82711
2738.74	8.4091
2740.08	8.48734
2741.42	8.12108
2742.76	7.54784
2744.1	7.69746
2745.44	7.39437
2746.78	7.73008
2748.12	7.19655
2749.45	6.49421
2750.79	5.94797
2752.13	5.89553
2753.47	5.58045
2754.8	4.67044
2756.14	4.00778
2757.48	4.11061
2758.81	4.45858
2760.15	4.65053
2761.48	4.09097
2762.82	4.40976
2764.16	4.23124
2765.49	4.21252
2766.83	4.31305
2768.16	4.08038
2769.49	3.39433
2770.83	3.65982
2772.16	3.50043
2773.5	3.30564
2774.83	3.3916
2776.16	3.98302
2777.5	3.75184
2778.83	3.90631
2780.16	4.0973
2781.49	4.65327
2782.83	4.52817
2784.16	4.34952
2785.49	3.74441
2786.82	3.56538
2788.15	3.41687
2789.48	2.95757
2790.81	2.68599
2792.14	2.45875
2793.47	2.04582
2794.8	2.09354
2796.13	1.82312
2797.46	1.56684
2798.79	1.41899
2800.12	0.824515
2801.45	1.25493
2802.78	1.11546
2804.11	0.742258
2805.44	1.25013
2806.76	0.868728
2808.09	0.772128
2809.42	0.621546
2810.75	0.0392751
2812.07	-0.299688
2813.4	0.493093
2814.73	0.0252731
2816.05	0.465066
2817.38	1.02866
2818.7	1.46333
2820.03	1.60031
2821.35	2.18434
2822.68	3.32625
2824	4.45793
2825.33	5.4
2826.65	6.17521
2827.98	6.81498
2829.3	8.06934
2830.62	8.66842
2831.95	9.25637
2833.27	9.76248
2834.59	9.80019
2835.92	10.5977
2837.24	11.6365
2838.56	12.5459
2839.88	13.6128
2841.2	15.0369
2842.53	16.6453
2843.85	17.7328
2845.17	19.5698
2846.49	20.2893
2847.81	22.0127
2849.13	23.0706
2850.45	24.7517
2851.77	26.326
2853.09	28.2163
2854.41	30.2327
2855.73	31.9397
2857.05	33.7777
2858.37	35.2026
2859.68	36.8172
2861	38.292
2862.32	39.6546
2863.64	41.0969
2864.96	42.4114
2866.27	44.0872
2867.59	46.0502
2868.91	47.8533
2870.22	48.8437
2871.54	50.2362
2872.86	50.8069
2874.17	51.9008
2875.49	52.7691
2876.8	54.1729
2878.12	55.7091
2879.44	57.7111
2880.75	58.449
2882.06	59.8682
2883.38	60.8975
2884.69	62.4416
2886.01	63.8374
2887.32	65.2733
2888.63	66.1672
2889.95	67.383
2891.26	68.5357
2892.57	69.8519
2893.88	71.6116
2895.2	73.4312
2896.51	74.274
2897.82	75.2771
2899.13	77.0151
2900.44	78.3179
2901.76	80.5767
2903.07	82.6453
2904.38	84.7824
2905.69	86.8813
2907	89.1445
2908.31	91.456
2909.62	93.4751
2910.93	96.0668
2912.24	99.035
2913.54	102.426
2914.85	104.627
2916.16	106.838
2917.47	108.954
2918.78	111.435
2920.09	113.309
2921.39	115.856
2922.7	117.555
2924.01	119.7
2925.31	121.865
2926.62	123.153
2927.93	124.008
2929.24	124.807
2930.54	125.358
2931.85	125.531
2933.15	125.84
2934.46	125.868
2935.76	125.306
2937.07	124.757
2938.37	123.728
2939.68	122.18
2940.98	120.555
2942.29	119.212
2943.59	117.475
2944.89	116.033
2946.2	113.542
2947.5	111.837
2948.8	109.988
2950.1	108.186
2951.41	106.126
2952.71	103.452
2954.01	100.504
2955.31	98.3429
2956.62	95.8084
2957.92	93.7521
2959.22	91.1285
2960.52	88.1516
2961.82	85.164
2963.12	82.6884
2964.42	80.4359
2965.72	77.8668
2967.02	75.9532
2968.32	74.0718
2969.62	71.8786
2970.92	70.1073
2972.21	68.4202
2973.51	66.7948
2974.81	65.3849
2976.11	63.7986
2977.41	62.5093
2978.71	60.5683
2980	58.3449
2981.3	56.5205
2982.6	54.9884
2983.89	53.4056
2985.19	51.0696
2986.49	49.4483
2987.78	47.4584
2989.08	45.7878
2990.37	43.3825
2991.67	40.9424
2992.96	38.601
2994.26	36.47
2995.55	34.3645
2996.85	32.4515
2998.14	30.8181
2999.44	28.6436
3000.73	26.3812
3002.02	24.3178
3003.32	22.135
3004.61	20.3854
3005.9	18.6736
3007.2	17.5647
3008.49	16.0058
3009.78	14.7385
3011.07	12.9834
3012.36	11.9938
3013.66	10.908
3014.95	9.80012
3016.24	8.32967
3017.53	6.33912
3018.82	5.40013
3020.11	4.90527
3021.4	4.25542
3022.69	3.85459
3023.98	2.92981
3025.27	2.49011
3026.56	2.27428
3027.85	2.4827
3029.14	2.78503
3030.43	3.4697
3031.71	3.32169
3033	3.85797
3034.29	3.50685
3035.58	3.81554
3036.86	3.69476
3038.15	3.72848
3039.44	3.84855
3040.73	3.1508
3042.01	3.48125
3043.3	3.41119
3044.59	2.93475
3045.87	3.09173
3047.16	2.80417
3048.44	2.88847
3049.73	3.16226
3051.01	3.55004
3052.3	3.65035
3053.58	3.12751
3054.87	3.07504
3056.15	2.76458
3057.43	2.5297
3058.72	2.61112
3060	2.60451
3061.28	2.43309
3062.57	2.34235
3063.85	1.98732
3065.13	2.06555
3066.41	1.90946
3067.7	1.42914
3068.98	1.83528
3070.26	1.17905
3071.54	1.24954
3072.82	1.11849
3074.1	0.930325
3075.39	0.706931
3076.67	1.05338
3077.95	1.35259
3079.23	1.26125
3080.51	0.586085
3081.79	-0.0195052
3083.07	0.46469
3084.34	0.361673
3085.62	0.570843
3086.9	0.682796
3088.18	0.780647
3089.46	1.25358
3090.74	1.36467
3092.01	1.89177
3093.29	1.62198
3094.57	1.49275
3095.85	1.32345
3097.12	1.34771
3098.4	1.07229
3099.68	0.993883
3100.95	0.737194
3102.23	1.12651
3103.51	1.47593
3104.78	1.49051
3106.06	2.02523
3107.33	2.3303
3108.61	1.88219
3109.88	1.84794
3111.16	1.14248
3112.43	1.14122
3113.71	0.744363
3114.98	0.0717748
3116.25	0.364878
3117.53	0.383566
3118.8	0.520514
3120.07	0.381956
3121.34	0.606728
3122.62	0.738828
3123.89	0.453889
3125.16	0.515827
3126.43	0.826717
3127.71	0.946838
3128.98	1.50282
3130.25	1.63122
3131.52	2.01495
3132.79	2.70442
3134.06	2.48531
3135.33	3.17185
3136.6	3.92336
3137.87	4.29829
3139.14	5.06892
3140.41	5.61206
3141.68	6.32643
3142.95	6.94651
3144.22	7.88283
3145.49	8.96021
3146.75	9.47794
3148.02	10.4471
3149.29	10.4809
