#Acq. time (s)=	45
#Accumulations=	2
#Range (cm-¹)=	200...3150
#Windows=	2
#Auto scanning=	Off
#Autofocus=	Off
#Macrospot=	Off
#AutoExposure=	Off
#Spike filter=	Multiple accum.
#Delay time (s)=	0
#Binning=	1
#Readout mode=	Signal
#DeNoise=	Off
#ICS correction=	On
#Dark correction=	Off
#Inst. Process=	Off
#Detector Gain=	Best Dynamic Range
#Detector ADC=	20 kHz       
#Detector temperature (°C)=	-69.85
#Instrument=	LabRAM HR Evol
#Detector=	Synapse
#Objective=	x100
#Grating=	600 gr/mm
#ND Filter=	100%
#Laser (nm)=	532 
#Hole=	100.021
#Range=	Auto
#Laser Pol.=	No
#Raman. Pol.=	No
#Laser Pol. (°)=	-0.0007625
#Raman Pol. (°)=	89.9995
#Collection=	Microscope
#StageXY=	Marzhauser
#StageZ=	Marzhauser
#X (µm)=	-6344.2
#Y (µm)=	808.6
#Z (µm)=	-64.95
#Full time(mm:ss)=	3:18
#Project=	
#Sample=	
#Site=	
#Title=	Mb_30_27_36_2x_45s_532 nm_x100_100%_600 gr_mm
#Remark=	
#Date=	13.07.2022 11:24
#Acquired=	13.07.2022 11:24:40
#Base:Fit=	10.08.2022 10:40:03
#Base:Sub=	10.08.2022 10:40:17
#Filter:Polynom=	16.08.2022 10:16:15
#AxisType[0]=Intens
#AxisUnit[0]=Cnt
#AxisType[1]=Spectr
#AxisUnit[1]=1/cm
200.563	28.3173
202.377	25.2678
204.194	20.239
206.008	16.7081
207.821	13.7688
209.634	11.2888
211.449	9.51185
213.262	7.9534
215.074	7.24441
216.885	6.01978
218.699	5.25066
220.51	4.84297
222.321	5.00629
224.131	5.20644
225.941	4.3249
227.751	4.30384
229.562	5.5695
231.371	4.61316
233.18	4.79435
234.988	5.29542
236.796	4.9405
238.603	5.65105
240.411	6.5616
242.219	5.7354
244.026	5.51953
245.832	5.97663
247.638	6.93212
249.443	7.39048
251.248	7.93423
253.053	9.01837
254.857	8.77195
256.661	9.05947
258.465	9.13261
260.268	10.0892
262.071	10.2192
263.874	9.97428
265.678	8.90006
267.48	10.0556
269.282	9.05691
271.083	9.31283
272.884	8.95354
274.684	8.42998
276.484	7.88408
278.284	7.04363
280.084	7.00097
281.883	6.67455
283.682	6.71908
285.48	6.02469
287.276	5.93891
289.074	5.79132
290.871	5.59748
292.668	6.31426
294.465	7.33255
296.261	7.6013
298.057	8.12906
299.853	8.47472
301.648	9.13096
303.443	8.34262
305.237	8.0384
307.032	7.8241
308.823	8.17864
310.617	8.26201
312.41	8.31897
314.203	8.25651
315.995	8.27649
317.788	9.64009
319.579	10.7667
321.369	10.1947
323.16	11.2022
324.951	12.5426
326.741	12.6384
328.531	12.8743
330.321	12.5592
332.108	11.5526
333.897	12.6223
335.686	13.6148
337.474	13.1577
339.26	12.7082
341.048	13.2881
342.835	13.1351
344.622	12.3539
346.406	12.5464
348.192	13.0858
349.978	12.3415
351.764	10.5407
353.547	9.41347
355.332	9.08544
357.116	9.24201
358.901	7.88312
360.682	7.64706
362.466	7.18175
364.249	6.79451
366.03	6.47137
367.812	6.72647
369.594	7.18204
371.374	6.24273
373.155	6.48087
374.936	5.78873
376.715	6.38542
378.495	5.58169
380.273	5.98237
382.053	5.7669
383.832	5.22616
385.609	5.18628
387.388	3.98772
389.164	2.83584
390.942	1.81012
392.72	1.54805
394.495	0.748957
396.272	1.08696
398.047	0.264277
399.823	0.636934
401.597	0.733914
403.372	1.34542
405.145	2.46299
406.92	2.90856
408.693	3.25583
410.467	3.41138
412.239	4.46471
414.012	4.32471
415.783	3.81257
417.556	4.12461
419.327	5.41522
421.099	5.274
422.869	6.04378
424.64	6.53502
426.409	5.53673
428.18	6.14142
429.948	5.76979
431.718	5.40097
433.486	5.65312
435.253	5.79917
437.022	5.1006
438.789	4.60737
440.558	5.1314
442.324	5.83296
444.089	6.16342
445.857	6.67183
447.622	7.28667
449.386	8.16005
451.153	8.20336
452.917	8.68615
454.682	8.93596
456.446	9.1332
458.208	7.83758
459.973	7.49694
461.735	7.87513
463.497	7.47076
465.259	7.95475
467.022	8.18879
468.783	9.13946
470.544	8.32237
472.306	8.32
474.066	9.00651
475.825	8.52953
477.585	9.1676
479.346	9.14228
481.104	9.06367
482.862	8.73037
484.62	9.7007
486.38	9.55486
488.137	11.4627
489.894	11.4763
491.65	12.2117
493.407	12.6433
495.164	12.7858
496.92	13.5063
498.675	14.2088
500.43	14.8194
502.184	14.3442
503.939	15.2
505.694	15.4779
507.448	15.0468
509.201	15.1488
510.954	15.7554
512.706	15.5252
514.459	14.8836
516.21	15.716
517.962	14.7546
519.715	15.6131
521.466	15.6116
523.216	15.6039
524.966	14.6505
526.716	15.1703
528.466	14.8645
530.215	14.3208
531.964	14.2845
533.712	13.4935
535.46	12.4291
537.208	11.9716
538.955	11.1545
540.703	10.9429
542.449	10.1195
544.196	9.81441
545.942	7.92522
547.688	8.02399
549.433	7.06238
551.178	7.46043
552.923	7.64692
554.667	7.29069
556.412	5.86854
558.155	4.76761
559.899	5.28246
561.642	5.85604
563.385	4.49818
565.127	3.86226
566.867	2.77459
568.609	3.1091
570.35	3.09613
572.092	3.10414
573.832	2.74523
575.573	3.17535
577.313	2.19101
579.053	2.89446
580.79	2.16084
582.529	2.69878
584.268	3.17811
586.006	3.88418
587.745	3.38989
589.482	3.28587
591.218	3.23454
592.955	3.13543
594.692	2.63193
596.428	2.97313
598.164	2.06194
599.898	1.44786
601.634	1.8811
603.369	2.31402
605.104	2.65627
606.836	3.78519
608.57	3.30356
610.304	3.10509
612.037	1.82687
613.769	2.04742
615.501	2.27067
617.234	2.57856
618.966	2.65252
620.696	2.33224
622.427	3.23485
624.159	4.10172
625.887	4.02013
627.618	4.60343
629.348	4.92242
631.076	4.777
632.806	4.54869
634.535	5.57082
636.262	5.10277
637.99	5.87065
639.716	6.29078
641.444	5.5634
643.172	6.59255
644.897	7.76489
646.624	9.05313
648.348	9.42892
650.075	9.32027
651.801	11.1018
653.524	11.3458
655.249	12.8524
656.972	12.9441
658.697	14.2102
660.419	14.1381
662.143	14.8021
663.865	15.3245
665.588	16.4551
667.309	16.0868
669.032	17.7693
670.752	18.7513
672.474	18.7644
674.194	18.4631
675.915	18.8884
677.634	18.5506
679.355	19.0265
681.073	18.5094
682.793	18.762
684.511	20.2577
686.23	21.7011
687.947	23.1415
689.664	23.3246
691.382	23.8001
693.098	23.4811
694.816	23.9064
696.531	24.483
698.247	24.6454
699.963	26.0277
701.678	27.1214
703.392	27.6497
705.108	28.5369
706.821	29.3821
708.534	31.1609
710.249	31.5597
711.962	32.3688
713.674	32.7371
715.388	33.1317
717.099	33.3202
718.81	33.7207
720.523	33.8832
722.234	33.8064
723.944	35.4961
725.654	36.2067
727.365	36.5376
729.075	38.016
730.784	37.8761
732.492	39.0887
734.202	39.2079
735.91	40.0894
737.618	40.4198
739.325	40.6124
741.034	41.7825
742.741	41.5147
744.447	43.4726
746.153	44.4037
747.859	45.1251
749.564	47.3788
751.271	48.9433
752.976	50.4439
754.681	52
756.385	53.2156
758.088	53.985
759.792	55.7876
761.495	56.6905
763.2	57.8203
764.902	60.0347
766.604	61.551
768.306	64.0888
770.008	66.0965
771.709	67.3173
773.41	68.5855
775.11	69.2042
776.811	70.6239
778.51	71.1024
780.21	72.5416
781.909	74.1125
783.608	75.5154
785.307	77.7511
787.005	79.0044
788.703	80.6785
790.401	81.8916
792.098	82.6976
793.795	83.1412
795.492	82.5829
797.188	82.8872
798.884	83.8508
800.58	84.7467
802.276	84.9244
803.971	85.0577
805.665	84.9455
807.36	85.0455
809.054	85.5374
810.748	84.0887
812.441	84.1118
814.135	83.8551
815.826	83.165
817.518	82.7632
819.21	82.1152
820.902	81.2121
822.594	79.9637
824.285	79.9604
825.976	78.467
827.665	78.3162
829.355	78.6891
831.045	78.2277
832.735	77.324
834.424	77.8906
836.111	76.7542
837.8	75.7496
839.488	73.6087
841.177	72.3388
842.864	71.1421
844.55	71.0201
846.237	69.1035
847.924	67.4615
849.61	67.1151
851.295	65.168
852.98	64.066
854.666	62.8309
856.349	60.8999
858.034	59.902
859.719	58.8165
861.403	58.1617
863.085	57.6383
864.769	57.475
866.452	57.4346
868.133	55.9496
869.816	55.4402
871.498	55.0596
873.179	55.0873
874.86	53.9236
876.54	53.101
878.221	53.5601
879.902	53.8039
881.58	54.8425
883.26	55.24
884.938	55.0498
886.618	54.1396
888.297	53.4787
889.974	53.2141
891.653	53.2982
893.329	53.5785
895.007	53.5743
896.683	54.6757
898.36	54.0653
900.035	53.1156
901.712	53.4136
903.387	53.5391
905.063	52.7988
906.737	53.5811
908.412	54.534
910.085	54.4926
911.76	55.2857
913.433	54.7225
915.107	54.8173
916.779	53.6147
918.452	52.1387
920.124	50.7192
921.797	49.5127
923.467	49.1415
925.138	48.8856
926.81	48.7288
928.48	48.8231
930.151	46.3374
931.82	45.0728
933.489	44.2017
935.16	43.4109
936.828	42.4742
938.496	40.9425
940.165	39.5624
941.833	40.2629
943.5	38.9784
945.168	37.4698
946.834	36.5012
948.5	36.0294
950.168	35.8619
951.834	35.5088
953.499	34.0339
955.163	33.2434
956.83	31.1281
958.494	30.8445
960.158	31.9598
961.821	33.0883
963.487	34.3706
965.15	35.726
966.812	37.2132
968.474	39.3382
970.138	40.4014
971.8	42.2103
973.461	44.5611
975.123	46.1058
976.783	47.2499
978.446	48.1133
980.106	48.418
981.766	49.3027
983.425	50.9898
985.084	51.876
986.743	51.9926
988.402	52.3365
990.06	52.9019
991.72	53.6587
993.378	53.4876
995.035	52.2821
996.692	51.0666
998.349	49.6905
1000.01	48.8723
1001.66	48.0215
1003.32	48.1057
1004.97	47.5386
1006.63	47.7318
1008.28	46.85
1009.94	46.2664
1011.59	45.5309
1013.25	45.1066
1014.9	45.5345
1016.55	44.9308
1018.21	45.4678
1019.86	44.3547
1021.51	44.5306
1023.16	45.0686
1024.81	45.723
1026.47	44.9647
1028.12	45.1514
1029.77	45.0975
1031.42	44.733
1033.07	44.2799
1034.72	43.6675
1036.37	42.3947
1038.02	43.972
1039.67	45.2578
1041.31	47.276
1042.96	47.4017
1044.61	47.6035
1046.26	47.4913
1047.91	47.0893
1049.55	46.3502
1051.2	45.4211
1052.84	44.3355
1054.49	43.3235
1056.14	42.8115
1057.78	42.2573
1059.43	40.8963
1061.07	39.6979
1062.72	38.0966
1064.36	36.8557
1066	35.5691
1067.65	34.0706
1069.29	32.6523
1070.93	31.5218
1072.58	30.4197
1074.22	29.6911
1075.86	27.2031
1077.5	24.9326
1079.14	24.3122
1080.78	24.0039
1082.42	23.5993
1084.06	22.2741
1085.7	23.2876
1087.34	23.054
1088.98	24.233
1090.62	24.3405
1092.26	24.5735
1093.9	25.4473
1095.54	25.9552
1097.17	26.7059
1098.81	27.3247
1100.45	28.0027
1102.09	28.0864
1103.72	29.1662
1105.36	28.7319
1106.99	28.649
1108.63	27.5589
1110.27	27.4867
1111.9	27.2287
1113.53	27.3563
1115.17	28.4476
1116.8	27.2297
1118.43	25.9481
1120.07	26.1078
1121.7	24.8706
1123.33	23.0738
1124.97	21.7502
1126.6	20.745
1128.23	20.0833
1129.86	20.0001
1131.49	19.0033
1133.12	19.302
1134.75	18.1171
1136.38	17.3253
1138.01	16.2192
1139.64	15.0169
1141.27	13.5711
1142.9	13.1083
1144.53	12.4825
1146.16	12.1149
1147.78	11.3981
1149.41	9.75476
1151.04	8.33433
1152.67	7.92308
1154.29	7.56568
1155.92	6.21083
1157.54	4.64052
1159.17	4.0941
1160.8	3.87947
1162.42	3.1292
1164.05	1.81013
1165.67	2.38739
1167.29	2.93848
1168.92	2.63887
1170.54	2.41991
1172.16	1.4207
1173.79	1.3047
1175.41	1.5994
1177.03	1.63096
1178.65	2.76754
1180.28	2.02399
1181.9	1.05011
1183.52	1.56579
1185.14	1.98502
1186.76	1.91483
1188.38	2.97736
1190	3.89218
1191.62	5.09812
1193.24	6.82369
1194.86	8.03024
1196.47	9.3403
1198.09	10.0803
1199.71	12.0299
1201.33	14.0595
1202.95	14.9711
1204.56	16.1982
1206.18	18.252
1207.8	19.8385
1209.41	22.0315
1211.03	23.5032
1212.64	25.2793
1214.26	26.5737
1215.87	27.3207
1217.49	29.4303
1219.1	30.5794
1220.71	31.9543
1222.33	34.4177
1223.94	36.212
1225.55	37.5388
1227.16	38.7866
1228.78	39.7708
1230.39	40.6784
1232	42.8263
1233.61	44.0433
1235.22	45.9547
1236.83	46.6959
1238.44	48.5703
1240.05	49.7062
1241.66	50.8196
1243.27	51.8074
1244.88	53.421
1246.49	55.1653
1248.1	55.3773
1249.71	55.5336
1251.32	56.0486
1252.92	56.9173
1254.53	57.8446
1256.14	58.3091
1257.74	59.3829
1259.35	60.1915
1260.96	59.5173
1262.56	60.7534
1264.17	61.225
1265.77	61.714
1267.38	62.7358
1268.98	63.0455
1270.59	63.6525
1272.19	64.3442
1273.79	64.8112
1275.4	64.9147
1277	66.2085
1278.6	66.6527
1280.21	67.2198
1281.81	67.785
1283.41	68.9284
1285.01	69.5821
1286.61	70.6315
1288.21	71.3101
1289.81	71.3906
1291.41	72.188
1293.01	72.5224
1294.61	72.7714
1296.21	73.5236
1297.81	73.7753
1299.41	74.1814
1301.01	76.0953
1302.6	77.8938
1304.2	77.5492
1305.8	78.0775
1307.4	78.8442
1308.99	79.2573
1310.59	79.7465
1312.19	79.9273
1313.78	80.529
1315.38	80.8284
1316.97	80.2538
1318.57	80.6998
1320.16	80.0434
1321.76	80.5429
1323.35	80.9905
1324.94	80.9533
1326.54	79.6841
1328.13	78.1232
1329.72	77.9162
1331.32	77.8485
1332.91	77.3036
1334.5	75.8526
1336.09	75.5446
1337.68	74.1674
1339.27	72.2896
1340.87	71.0017
1342.45	70.1474
1344.04	67.6509
1345.64	66.3977
1347.22	64.8344
1348.81	62.2759
1350.4	61.2189
1351.99	59.6773
1353.58	57.739
1355.17	57.1069
1356.75	56.1951
1358.34	55.0389
1359.93	54.266
1361.51	52.8352
1363.1	51.075
1364.69	48.7792
1366.27	46.9578
1367.86	45.3839
1369.44	43.9843
1371.03	43.9889
1372.61	43.1721
1374.2	42.3194
1375.78	41.3746
1377.37	40.1584
1378.95	39.4532
1380.53	38.7096
1382.11	37.1714
1383.7	36.5014
1385.28	36.9921
1386.86	37.1988
1388.44	36.4061
1390.02	36.2074
1391.6	35.541
1393.19	35.7613
1394.77	34.7242
1396.35	34.3871
1397.93	34.3036
1399.51	33.8025
1401.08	34.7699
1402.66	33.8465
1404.24	33.6781
1405.82	33.6879
1407.4	34.8721
1408.97	36.0155
1410.55	36.4181
1412.13	37.83
1413.71	37.8374
1415.28	38.9969
1416.86	39.5271
1418.43	41.0968
1420.01	42.4624
1421.59	43.4921
1423.16	44.9815
1424.73	47.0686
1426.31	49.2502
1427.88	51.4155
1429.46	54.0767
1431.03	55.9484
1432.6	58.0155
1434.18	60.1924
1435.75	62.3534
1437.32	64.0522
1438.89	65.2398
1440.46	66.4587
1442.04	68.1627
1443.61	69.3961
1445.18	71.2128
1446.75	72.5363
1448.32	73.7933
1449.89	74.5593
1451.46	75.2047
1453.03	74.8988
1454.6	74.4804
1456.16	73.8753
1457.73	74.3657
1459.3	74.6503
1460.87	74.3462
1462.44	74.1072
1464	73.8289
1465.57	72.8083
1467.14	71.0856
1468.7	69.3179
1470.27	67.7145
1471.83	65.8602
1473.4	64.9434
1474.96	63.4798
1476.53	62.3627
1478.09	61.3094
1479.66	59.9218
1481.22	58.0532
1482.78	57.4392
1484.35	55.8772
1485.91	54.6183
1487.47	52.34
1489.04	50.5
1490.6	49.3022
1492.16	47.5636
1493.72	46.3383
1495.28	45.3286
1496.84	44.4253
1498.4	43.4304
1499.96	42.661
1501.52	41.5376
1503.08	40.7731
1504.64	40.1834
1506.2	39.7716
1507.76	38.3356
1509.32	37.0462
1510.88	35.7099
1512.44	34.3379
1513.99	33.6029
1515.55	32.5899
1517.11	31.5419
1518.66	30.6997
1520.22	29.6726
1521.78	28.1841
1523.33	27.7318
1524.89	26.1054
1526.44	25.3328
1528	24.8672
1529.55	24.3822
1531.11	23.6581
1532.66	22.8413
1534.21	23.1675
1535.77	23.0688
1537.32	22.9841
1538.87	23.6434
1540.43	23.9506
1541.98	24.3334
1543.53	24.7923
1545.08	25.0428
1546.63	25.5035
1548.18	27.268
1549.74	27.8302
1551.29	28.7151
1552.84	28.7353
1554.39	29.8438
1555.94	30.8166
1557.48	30.8315
1559.03	31.4165
1560.58	31.9675
1562.13	31.7723
1563.68	32.3648
1565.23	32.7267
1566.78	32.9899
1568.32	34.6975
1569.87	36.5038
1571.42	38.0883
1572.96	39.4947
1574.51	40.6816
1576.05	41.803
1577.6	42.6833
1579.14	43.0364
1580.69	44.7218
1582.24	45.9279
1583.78	46.3838
1585.32	46.7378
1586.87	46.7945
1588.41	47.2808
1589.95	48.4686
1591.5	50.2061
1593.04	51.118
1594.58	51.7477
1596.12	52.3023
1597.67	52.7293
1599.21	53.4262
1600.75	53.9127
1602.29	53.2802
1603.83	54.6901
1605.37	55.5101
1606.91	56.1433
1608.45	56.5752
1609.99	57.2089
1611.53	58.4387
1613.07	58.2664
1614.6	58.7368
1616.14	59.8323
1617.68	60.0183
1619.22	61.8701
1620.75	63.331
1622.29	64.3639
1623.83	65.1861
1625.37	67.003
1626.9	68.8835
1628.44	70.6773
1629.97	72.7704
1631.51	75.0039
1633.04	76.3215
1634.58	78.1705
1636.11	80.2175
1637.65	82.1281
1639.18	83.9736
1640.72	86.6043
1642.25	88.0758
1643.78	90.0646
1645.31	93.4332
1646.85	95.6168
1648.38	96.6464
1649.91	97.3896
1651.44	98.524
1652.97	99.5427
1654.5	99.521
1656.03	99.1874
1657.56	99.5186
1659.1	99.1552
1660.62	98.3574
1662.15	97.3269
1663.68	96.7216
1665.21	96.1726
1666.74	95.0893
1668.27	93.6941
1669.8	91.2358
1671.32	88.2428
1672.85	85.5559
1674.38	83.3514
1675.91	80.0074
1677.43	77.01
1678.96	72.8678
1680.49	69.549
1682.01	65.336
1683.54	61.4927
1685.06	58.0938
1686.59	55.1646
1688.11	51.5731
1689.64	48.3533
1691.16	45.4595
1692.68	43.3245
1694.21	40.0991
1695.73	38.1508
1697.25	35.0679
1698.78	33.3307
1700.3	31.421
1701.82	30.3863
1703.34	28.8252
1704.86	27.4204
1706.39	25.6914
1707.91	24.5865
1709.43	22.9543
1710.95	22.1203
1712.47	20.5774
1713.99	19.8466
1715.51	18.9531
1717.02	17.7851
1718.54	16.5061
1720.06	16.9137
1721.58	16.4223
1723.1	15.3181
1724.62	14.5757
1726.13	14.5476
1727.65	14.3655
1729.17	13.3863
1730.68	12.5358
1732.2	12.2683
1733.72	12.5821
1735.23	12.296
1736.75	11.6343
1738.26	11.2213
1739.78	11.4355
1741.29	10.5548
1742.81	10.2596
1744.32	9.70917
1745.84	8.85443
1747.35	8.77881
1748.86	8.76596
1750.37	7.5197
1751.89	6.53227
1753.4	6.25201
1754.91	5.31178
1756.42	5.42105
1757.93	5.43234
1759.45	5.47298
1760.96	5.93938
1762.47	5.50373
1763.98	5.24408
1765.49	4.81113
1767	4.1785
1768.51	4.47628
1770.02	3.91437
1771.53	3.88179
1773.03	3.29796
1774.54	3.68431
1776.05	3.05583
1777.56	2.77135
1779.07	2.71487
1780.57	2.73241
1782.08	1.89474
1783.59	2.1903
1785.09	1.89971
1786.6	1.73661
1788.11	1.84439
1789.61	1.45523
1791.12	1.05599
1792.62	0.810567
1794.13	1.0037
1795.63	1.17293
1797.13	0.718476
1798.64	0.790397
1800.14	0.939555
1801.65	0.915684
1803.15	0.10667
1804.65	-0.333147
1806.15	0.0425466
1807.66	-0.0309345
1809.16	0.315288
1810.66	0.123885
1812.16	0.0537544
1813.66	-0.0110444
1815.16	0.165531
1816.66	-0.0630172
1818.16	-0.205461
1819.66	-0.301824
1821.16	0.0915205
1822.66	0.0446827
1824.16	0.0831309
1825.66	0.621785
1827.16	1.18534
1828.66	1.06871
1830.16	1.08649
1831.65	0.930713
1833.15	0.786548
1834.65	0.852776
1836.14	1.29701
1837.64	1.4901
1839.14	1.64711
1840.63	1.57845
1842.13	2.0157
1843.62	2.27463
1845.12	1.86564
1846.61	1.8692
1848.11	2.07875
1849.6	2.26917
1851.1	2.06334
1852.59	1.88494
1854.08	1.78756
1855.58	2.33124
1857.07	2.68609
1858.56	2.75333
1860.05	2.74041
1861.55	2.37313
1863.04	2.61706
1864.53	2.54509
1866.02	2.74694
1867.51	2.81957
1869	3.14235
1870.49	2.79669
1871.98	2.73724
1873.47	2.14617
1874.96	2.13657
1876.45	2.10146
1877.94	1.63875
1879.43	1.82642
1880.92	1.92017
1882.41	2.22573
1882.51	2.42184
1884	2.27806
1885.5	2.57644
1886.99	2.72191
1888.48	2.07926
1889.98	2.42884
1891.47	2.78446
1892.96	2.99712
1894.46	3.11402
1895.95	3.00745
1897.44	2.87354
1898.93	3.07442
1900.42	2.24022
1901.91	1.89931
1903.41	1.90989
1904.9	1.97873
1906.39	1.93874
1907.88	2.05582
1909.37	2.99175
1910.86	3.27193
1912.35	3.41675
1913.83	3.59476
1915.32	3.91594
1916.81	3.30666
1918.3	3.19552
1919.79	3.08631
1921.27	3.38498
1922.76	3.74601
1924.25	3.67122
1925.74	3.83212
1927.22	4.359
1928.71	4.28291
1930.19	3.79691
1931.68	3.637
1933.17	3.89297
1934.65	3.68417
1936.14	3.98874
1937.62	3.59114
1939.11	3.14043
1940.59	2.78645
1942.07	2.30339
1943.56	1.66788
1945.04	1.50672
1946.52	1.29466
1948.01	1.51578
1949.49	1.59123
1950.97	1.51633
1952.45	2.09569
1953.93	1.91637
1955.42	2.30922
1956.9	2.3469
1958.38	2.14924
1959.86	2.06093
1961.34	1.29698
1962.82	1.65381
1964.3	2.41951
1965.78	1.77084
1967.26	1.54442
1968.74	1.54361
1970.21	1.54955
1971.69	1.57886
1973.17	2.17406
1974.65	1.78182
1976.13	2.25095
1977.6	2.64323
1979.08	2.84152
1980.56	2.99871
1982.03	3.30974
1983.51	3.55537
1984.99	3.29056
1986.46	2.9449
1987.94	2.87963
1989.41	3.11085
1990.89	3.42158
1992.36	4.14382
1993.84	4.18891
1995.31	3.87173
1996.78	3.82872
1998.26	3.57399
1999.73	3.73452
2001.2	3.66646
2002.68	3.67285
2004.15	3.84582
2005.62	4.26402
2007.09	4.27636
2008.56	3.86694
2010.04	3.4838
2011.51	3.73684
2012.98	3.51353
2014.45	3.91645
2015.92	3.82418
2017.39	3.8398
2018.86	4.03983
2020.33	4.28542
2021.8	4.34169
2023.26	4.23605
2024.73	3.69744
2026.2	2.74201
2027.67	2.57399
2029.14	3.18174
2030.61	3.24559
2032.07	3.18317
2033.54	3.37906
2035.01	3.37561
2036.47	3.73278
2037.94	3.88815
2039.4	4.11048
2040.87	4.57334
2042.33	4.76938
2043.8	4.87205
2045.27	4.89513
2046.73	4.87036
2048.19	4.9149
2049.66	5.17516
2051.12	5.34975
2052.59	5.48698
2054.05	5.67707
2055.51	5.29492
2056.97	5.60123
2058.44	6.18792
2059.9	6.73613
2061.36	7.7671
2062.82	8.12813
2064.28	8.54195
2065.74	8.87519
2067.21	8.67574
2068.67	9.0933
2070.13	9.97662
2071.59	11.1839
2073.05	11.727
2074.51	11.7531
2075.96	12.5566
2077.42	12.6076
2078.88	13.5299
2080.34	14.1993
2081.8	14.9539
2083.26	15.5507
2084.72	17.0314
2086.17	17.1903
2087.63	17.8698
2089.09	18.002
2090.54	18.4911
2092	19.3296
2093.45	19.2356
2094.91	19.3438
2096.37	19.4189
2097.82	20.002
2099.28	20.5259
2100.73	21.8952
2102.19	22.8903
2103.64	24.2678
2105.09	24.9498
2106.55	25.4809
2108	26.0478
2109.45	26.8899
2110.91	28.0608
2112.36	28.5449
2113.81	29.474
2115.26	30.5097
2116.72	31.9528
2118.17	33.4114
2119.62	35.027
2121.07	36.5325
2122.52	37.9836
2123.97	39.3699
2125.42	41.0346
2126.87	42.4171
2128.32	44.3593
2129.77	46.8909
2131.22	49.2781
2132.67	50.5495
2134.11	52.3204
2135.56	53.8645
2137.01	55.8611
2138.46	57.6245
2139.91	59.8028
2141.35	62.0166
2142.8	63.6394
2144.25	65.7733
2145.7	67.0986
2147.14	69.0477
2148.59	71.5606
2150.03	73.5569
2151.48	75.6151
2152.92	77.5793
2154.37	79.2658
2155.81	80.6042
2157.26	82.6874
2158.7	83.9795
2160.15	84.8914
2161.59	86.1539
2163.03	87.2425
2164.47	88.3989
2165.92	89.1438
2167.36	90.2449
2168.8	91.0835
2170.24	92.4909
2171.69	93.1074
2173.13	93.8705
2174.57	94.6885
2176.01	94.6221
2177.45	93.7842
2178.89	93.538
2180.33	93.1453
2181.77	92.9354
2183.21	92.7567
2184.65	92.289
2186.09	91.7553
2187.53	91.3542
2188.97	90.5392
2190.4	89.2387
2191.84	88.3671
2193.28	86.878
2194.72	85.6885
2196.16	83.8193
2197.59	82.2292
2199.03	80.3855
2200.47	79.1406
2201.9	77.2595
2203.34	75.1031
2204.77	72.9484
2206.21	71.0465
2207.64	68.7938
2209.08	67.0488
2210.51	64.4868
2211.95	62.4363
2213.38	59.9323
2214.82	57.4226
2216.25	54.9838
2217.68	52.4127
2219.12	50.3314
2220.55	48.5352
2221.98	46.3754
2223.41	44.255
2224.85	42.2994
2226.28	40.4614
2227.71	39.0236
2229.14	37.1281
2230.57	35.1064
2232	33.1237
2233.43	32.3791
2234.86	31.0252
2236.29	29.6199
2237.72	27.9641
2239.15	26.7845
2240.58	25.8909
2242.01	25.2401
2243.44	24.0804
2244.87	23.4429
2246.29	22.4103
2247.72	21.8337
2249.15	21.243
2250.58	20.8002
2252.01	20.1139
2253.43	19.9496
2254.86	19.3384
2256.29	18.811
2257.71	18.5187
2259.14	19.0893
2260.56	18.6981
2261.99	18.2102
2263.41	17.9786
2264.84	17.3282
2266.26	17.1366
2267.69	16.8046
2269.11	16.8273
2270.53	17.0284
2271.96	17.4036
2273.38	16.9552
2274.8	16.5103
2276.23	16.411
2277.65	15.6927
2279.07	15.676
2280.49	15.7388
2281.91	15.3331
2283.34	14.933
2284.76	14.1722
2286.18	12.7659
2287.6	11.876
2289.02	11.1806
2290.44	10.7963
2291.86	9.74563
2293.28	8.71732
2294.7	8.11857
2296.12	7.66227
2297.54	7.59723
2298.96	8.10885
2300.37	7.93496
2301.79	8.34421
2303.21	8.29783
2304.63	8.60378
2306.04	8.33004
2307.46	8.37409
2308.88	8.74328
2310.3	9.46444
2311.71	9.47673
2313.13	9.48532
2314.54	9.33795
2315.96	9.86758
2317.37	9.84713
2318.79	10.1264
2320.2	10.0072
2321.62	10.2099
2323.03	10.3043
2324.45	10.6237
2325.86	10.4481
2327.27	10.7099
2328.69	10.9488
2330.1	11.1074
2331.51	10.2267
2332.92	10.1964
2334.34	10.3509
2335.75	10.7285
2337.16	10.714
2338.57	10.432
2339.98	9.80128
2341.39	9.65121
2342.8	9.41938
2344.21	8.80444
2345.63	8.66989
2347.04	8.58673
2348.45	8.00876
2349.85	7.93348
2351.26	7.30858
2352.67	6.17666
2354.08	4.69835
2355.49	3.90034
2356.9	2.56438
2358.3	1.90166
2359.71	1.39051
2361.12	0.875563
2362.53	0.603752
2363.93	1.09156
2365.34	1.13488
2366.75	1.72182
2368.15	1.89705
2369.56	2.30166
2370.97	2.09693
2372.37	1.85574
2373.77	1.19799
2375.18	1.29988
2376.59	0.993353
2377.99	0.900514
2379.39	1.1761
2380.8	1.0762
2382.2	0.988431
2383.6	1.32511
2385.01	1.60975
2386.41	1.76027
2387.81	1.6182
2389.21	1.50204
2390.62	1.85245
2392.02	1.44452
2393.42	1.19598
2394.82	0.962904
2396.22	0.860959
2397.62	0.481203
2399.02	0.69957
2400.42	0.820862
2401.82	0.641503
2403.22	0.523623
2404.62	0.285278
2406.02	0.249393
2407.42	0.424413
2408.82	0.556742
2410.22	0.808894
2411.62	1.56872
2413.01	2.21865
2414.41	2.762
2415.81	3.29586
2417.21	3.47313
2418.6	3.74796
2420	4.14047
2421.4	3.76901
2422.79	3.48923
2424.19	3.57833
2425.59	3.45166
2426.98	3.18024
2428.38	3.54516
2429.77	3.7163
2431.17	3.91327
2432.56	4.47577
2433.95	4.47903
2435.35	4.33329
2436.74	4.3899
2438.14	4.20686
2439.53	4.31888
2440.92	4.33948
2442.31	3.94732
2443.71	3.83272
2445.1	3.84089
2446.49	3.93737
2447.88	4.44519
2449.27	4.25777
2450.67	3.89864
2452.06	3.86698
2453.45	3.86011
2454.84	3.5861
2456.23	3.47667
2457.62	3.19186
2459.01	2.44138
2460.4	2.68241
2461.79	2.23685
2463.18	2.31593
2464.57	2.30613
2465.95	2.55591
2467.34	2.04482
2468.73	2.30995
2470.12	2.25324
2471.5	2.36125
2472.89	2.30122
2474.28	2.8935
2475.67	3.12638
2477.05	3.12869
2478.44	3.17112
2479.82	3.1456
2481.21	3.04346
2482.6	3.14277
2483.98	3.12374
2485.37	3.19773
2486.75	3.17002
2488.13	2.80627
2489.52	2.57801
2490.9	2.3973
2492.29	2.02254
2493.67	2.12205
2495.05	1.81687
2496.44	1.96995
2497.82	2.30019
2499.2	2.62562
2500.58	2.27499
2501.97	2.1602
2503.35	1.91682
2504.73	2.05018
2506.11	2.53745
2507.49	2.97191
2508.87	3.01235
2510.25	3.00372
2511.63	2.89088
2513.01	3.24414
2514.39	3.45702
2515.77	3.82181
2517.15	3.85215
2518.53	3.6325
2519.91	3.53674
2521.29	3.52674
2522.67	3.73939
2524.05	4.0102
2525.42	4.11215
2526.8	4.17425
2528.18	4.74697
2529.55	5.47016
2530.93	5.22446
2532.31	5.80928
2533.69	5.58863
2535.06	5.79789
2536.44	5.52267
2537.81	5.98113
2539.19	6.03659
2540.56	5.58445
2541.94	5.03315
2543.31	5.06853
2544.69	4.66251
2546.06	4.4445
2547.44	4.27194
2548.81	4.00459
2550.18	4.51589
2551.56	4.3265
2552.93	4.09942
2554.3	4.36864
2555.67	4.00018
2557.04	3.29529
2558.42	3.0754
2559.79	2.74136
2561.16	2.61185
2562.53	2.23267
2563.9	2.36639
2565.27	2.57288
2566.64	2.93942
2568.01	2.93369
2569.38	2.84085
2570.75	3.75724
2572.12	3.81829
2573.49	3.71238
2574.86	3.53571
2576.23	3.07677
2577.6	2.80841
2578.97	2.64601
2580.33	2.7751
2581.7	2.92057
2583.07	2.24962
2584.44	1.66304
2585.8	1.83643
2587.17	1.95217
2588.54	2.17291
2589.9	2.92815
2591.27	3.30248
2592.64	3.54086
2594	3.54103
2595.37	3.52024
2596.73	3.12944
2598.1	3.28174
2599.46	3.94172
2600.83	4.35416
2602.19	4.04136
2603.55	4.62751
2604.92	4.41864
2606.28	4.60273
2607.64	4.93355
2609.01	5.22652
2610.37	5.7821
2611.73	5.84017
2613.09	6.11368
2614.46	6.29187
2615.82	5.97908
2617.18	6.27729
2618.54	6.13813
2619.9	5.48956
2621.26	5.81137
2622.62	5.90651
2623.98	5.36868
2625.34	5.12531
2626.7	5.22905
2628.06	5.677
2629.42	5.63936
2630.78	5.54366
2632.14	6.2624
2633.5	6.28089
2634.86	6.70432
2636.21	6.82182
2637.57	6.53701
2638.93	5.90963
2640.29	5.73539
2641.64	6.02981
2643	5.69751
2644.36	5.90826
2645.71	5.85239
2647.07	5.73998
2648.43	5.96825
2649.78	5.66196
2651.14	5.26071
2652.49	5.5969
2653.85	5.87016
2655.2	5.59296
2656.56	5.24518
2657.91	5.02836
2659.26	4.71045
2660.62	4.6856
2661.97	4.33243
2663.32	4.16839
2664.68	4.65497
2666.03	4.80373
2667.38	4.79129
2668.74	4.21266
2670.09	4.00444
2671.44	3.59523
2672.79	3.93983
2674.14	4.43608
2675.49	4.56171
2676.84	4.13832
2678.19	3.35515
2679.54	3.05633
2680.89	2.80086
2682.24	2.04357
2683.59	1.34523
2684.94	1.61687
2686.29	1.77518
2687.64	2.0066
2688.99	2.23644
2690.34	2.23029
2691.69	2.47015
2693.03	2.55043
2694.38	3.54539
2695.73	4.23834
2697.08	4.9744
2698.42	5.68645
2699.77	6.22572
2701.12	6.48632
2702.46	6.8146
2703.81	7.18689
2705.15	7.10299
2706.5	7.98798
2707.85	8.92378
2709.19	9.05478
2710.54	8.92671
2711.88	9.67245
2713.22	9.92916
2714.57	10.2768
2715.91	10.4227
2717.26	10.6622
2718.6	11.1072
2719.94	11.8532
2721.29	11.8896
2722.63	12.0352
2723.97	12.1264
2725.31	12.3346
2726.66	12.4711
2728	12.6646
2729.34	12.5086
2730.68	12.4363
2732.02	12.6535
2733.36	11.8085
2734.7	11.9625
2736.04	12.0247
2737.38	12.027
2738.72	12.3267
2740.06	12.6146
2741.4	12.1283
2742.74	11.7318
2744.08	11.1374
2745.42	10.6381
2746.76	10.4654
2748.09	10.1408
2749.43	9.64479
2750.77	9.26262
2752.11	9.23234
2753.45	8.62517
2754.78	8.19168
2756.12	7.82822
2757.46	7.50525
2758.79	7.32741
2760.13	6.91744
2761.46	7.30009
2762.8	6.79217
2764.14	6.61138
2765.47	5.49116
2766.8	4.68463
2768.14	4.24568
2769.47	4.04159
2770.81	4.33386
2772.14	4.21543
2773.48	3.94657
2774.81	3.01002
2776.14	3.07897
2777.48	2.80434
2778.81	2.76458
2780.14	2.58067
2781.47	2.21904
2782.8	1.69122
2784.14	1.45465
2785.47	1.53198
2786.8	1.55323
2788.13	0.717122
2789.46	0.854828
2790.79	0.83765
2792.12	0.840968
2793.45	1.08921
2794.78	1.54494
2796.11	1.68276
2797.44	2.32644
2798.77	2.51779
2800.1	2.16214
2801.43	2.79451
2802.76	2.77066
2804.09	2.89436
2805.41	2.8632
2806.74	2.52979
2808.07	2.5192
2809.4	2.26664
2810.72	2.23476
2812.05	2.29019
2813.38	2.70581
2814.71	2.78986
2816.03	2.65973
2817.36	3.11188
2818.68	3.58698
2820.01	4.439
2821.33	5.64004
2822.66	6.92187
2823.98	8.29146
2825.31	9.59775
2826.63	11.3909
2827.96	13.3005
2829.28	14.7112
2830.6	16.891
2831.93	18.3819
2833.25	20.8142
2834.57	23.544
2835.9	26.2161
2837.22	28.5967
2838.54	30.1022
2839.86	32.2779
2841.18	35.4398
2842.5	38.739
2843.83	41.9611
2845.15	44.9247
2846.47	48.5747
2847.79	52.3513
2849.11	56.3024
2850.43	61.0775
2851.75	66.1044
2853.07	70.386
2854.39	74.3967
2855.71	79.5298
2857.03	84.0341
2858.35	88.0462
2859.66	91.8595
2860.98	96.0399
2862.3	99.6805
2863.62	103.387
2864.94	106.765
2866.25	110.223
2867.57	113.887
2868.89	116.57
2870.2	119.969
2871.52	122.606
2872.84	125.378
2874.15	128.264
2875.47	130.777
2876.78	133.69
2878.1	135.975
2879.41	138.01
2880.73	139.302
2882.04	141.767
2883.36	144.519
2884.67	147.124
2885.99	149.673
2887.3	152.216
2888.61	154.637
2889.93	156.557
2891.24	158.974
2892.55	161.372
2893.86	163.495
2895.18	166.538
2896.49	169.339
2897.8	172.256
2899.11	176.413
2900.42	180.44
2901.73	184.149
2903.05	187.903
2904.36	193.155
2905.67	198.982
2906.98	204.5
2908.29	209.926
2909.6	216.088
2910.91	221.857
2912.21	228.235
2913.52	234.866
2914.83	240.933
2916.14	247.18
2917.45	252.652
2918.76	257.505
2920.07	262.156
2921.37	267.733
2922.68	272.145
2923.99	275.824
2925.29	279.936
2926.6	283.298
2927.91	286.12
2929.22	288.508
2930.52	290.38
2931.83	291.25
2933.13	291.999
2934.44	291.875
2935.74	291.267
2937.05	289.585
2938.35	288.362
2939.66	285.678
2940.96	282.489
2942.26	278.992
2943.57	274.883
2944.87	270.331
2946.18	265.953
2947.48	262.025
2948.78	257.393
2950.08	251.381
2951.39	245.841
2952.69	239.985
2953.99	233.139
2955.29	226.363
2956.59	220.868
2957.9	214.732
2959.2	208.566
2960.5	202.99
2961.8	196.669
2963.1	191.328
2964.4	185.783
2965.7	179.806
2967	173.878
2968.3	168.84
2969.6	163.621
2970.9	157.979
2972.19	152.537
2973.49	147.667
2974.79	143.033
2976.09	138.344
2977.39	133.98
2978.68	129.341
2979.98	123.966
2981.28	118.848
2982.58	114.022
2983.87	109.55
2985.17	105.497
2986.47	101.432
2987.76	96.5869
2989.06	91.9692
2990.35	87.2604
2991.65	82.0828
2992.94	78.0591
2994.24	74.0542
2995.53	69.9661
2996.83	65.6588
2998.12	61.5494
2999.42	57.7932
3000.71	53.7735
3002	50.0507
3003.3	46.7564
3004.59	42.4282
3005.88	39.6643
3007.18	36.8547
3008.47	34.1246
3009.76	31.2488
3011.05	28.9075
3012.34	26.6748
3013.64	24.6016
3014.93	21.9052
3016.22	20.4338
3017.51	18.4252
3018.8	16.9701
3020.09	16.3242
3021.38	15.4239
3022.67	13.8676
3023.96	12.8083
3025.25	12.018
3026.54	11.0716
3027.83	10.7593
3029.12	10.2634
3030.41	9.84624
3031.69	9.61974
3032.98	9.74219
3034.27	9.43528
3035.56	9.71783
3036.84	9.88522
3038.13	10.0311
3039.42	10.3965
3040.71	10.5739
3041.99	10.4585
3043.28	10.1766
3044.57	10.3256
3045.85	10.406
3047.14	11.0686
3048.42	11.1212
3049.71	11.2061
3050.99	10.7882
3052.28	10.9744
3053.56	11.3485
3054.85	11.1628
3056.13	11.6849
3057.41	12.1795
3058.7	12.2327
3059.98	12.2155
3061.26	12.25
3062.55	12.3864
3063.83	12.1657
3065.11	11.1204
3066.39	10.8329
3067.68	10.7208
3068.96	10.248
3070.24	10.3053
3071.52	9.6401
3072.8	9.18331
3074.08	8.15977
3075.36	7.73274
3076.65	7.33167
3077.93	6.55192
3079.21	5.68311
3080.49	5.66444
3081.77	5.28978
3083.04	4.72267
3084.32	4.10318
3085.6	3.35617
3086.88	3.34144
3088.16	3.28608
3089.44	2.92978
3090.72	2.90049
3091.99	2.85097
3093.27	2.8407
3094.55	2.65305
3095.83	2.8494
3097.1	3.02765
3098.38	3.01018
3099.66	2.73113
3100.93	2.88412
3102.21	3.0751
3103.49	3.61573
3104.76	3.54422
3106.04	4.06454
3107.31	4.59327
3108.59	5.04538
3109.86	5.64003
3111.14	6.22482
3112.41	6.30261
3113.69	6.69701
3114.96	7.04813
3116.23	8.08105
3117.51	8.28428
3118.78	8.51349
3120.05	9.08629
3121.33	9.38749
3122.6	9.92329
3123.87	10.5197
3125.14	10.9501
3126.41	11.2645
3127.69	11.2073
3128.96	11.5815
3130.23	12.63
3131.5	12.8731
3132.77	12.8949
3134.04	13.0807
3135.31	13.0457
3136.58	13.2854
3137.85	13.332
3139.12	14.1378
3140.39	14.6558
3141.66	15.1656
3142.93	15.9779
3144.2	16.7406
3145.47	17.6488
3146.74	18.6553
3148	19.5069
3149.27	20.323
