#Acq. time (s)=	45
#Accumulations=	2
#Range (cm-¹)=	200...3150
#Windows=	2
#Auto scanning=	Off
#Autofocus=	Off
#Macrospot=	Off
#AutoExposure=	Off
#Spike filter=	Multiple accum.
#Delay time (s)=	0
#Binning=	1
#Readout mode=	Signal
#DeNoise=	Off
#ICS correction=	On
#Dark correction=	Off
#Inst. Process=	Off
#Detector Gain=	Best Dynamic Range
#Detector ADC=	20 kHz       
#Detector temperature (°C)=	-69.85
#Instrument=	LabRAM HR Evol
#Detector=	Synapse
#Objective=	x100
#Grating=	600 gr/mm
#ND Filter=	100%
#Laser (nm)=	532 
#Hole=	100.021
#Range=	Auto
#Laser Pol.=	No
#Raman. Pol.=	No
#Laser Pol. (°)=	-0.0007625
#Raman Pol. (°)=	89.9995
#Collection=	Microscope
#StageXY=	Marzhauser
#StageZ=	Marzhauser
#X (µm)=	-6351.7
#Y (µm)=	797.7
#Z (µm)=	-64.65
#Full time(mm:ss)=	3:18
#Project=	
#Sample=	
#Site=	
#Title=	Mb_30_27_41_2x_45s_532 nm_x100_100%_600 gr_mm
#Remark=	
#Date=	13.07.2022 11:53
#Acquired=	13.07.2022 11:53:25
#Base:Fit=	10.08.2022 10:40:03
#Base:Sub=	10.08.2022 10:40:17
#Filter:Polynom=	16.08.2022 10:16:15
#AxisType[0]=Intens
#AxisUnit[0]=Cnt
#AxisType[1]=Spectr
#AxisUnit[1]=1/cm
200.563	30.1286
202.377	26.9187
204.194	23.9581
206.008	21.2684
207.821	19.4194
209.634	17.4954
211.449	15.7332
213.262	14.6998
215.074	13.4451
216.885	12.6288
218.699	11.7282
220.51	10.1725
222.321	8.59428
224.131	7.70154
225.941	7.07199
227.751	7.31974
229.562	6.94078
231.371	7.31793
233.18	7.93393
234.988	6.45306
236.796	6.33724
238.603	6.77038
240.411	5.92019
242.219	5.73916
244.026	5.80385
245.832	5.66906
247.638	5.78266
249.443	5.74326
251.248	6.44125
253.053	7.80164
254.857	7.18313
256.661	6.98148
258.465	7.41216
260.268	8.75605
262.071	8.11879
263.874	9.37188
265.678	9.70729
267.48	10.0792
269.282	11.9914
271.083	12.0829
272.884	12.0866
274.684	12.194
276.484	12.3179
278.284	12.0163
280.084	12.5946
281.883	11.6945
283.682	10.2905
285.48	10.5474
287.276	10.7992
289.074	9.9072
290.871	9.17427
292.668	9.81701
294.465	9.18574
296.261	8.68266
298.057	8.32672
299.853	8.16436
301.648	8.60042
303.443	7.95944
305.237	7.91544
307.032	8.12268
308.823	7.51828
310.617	7.40204
312.41	7.64999
314.203	7.7337
315.995	8.2963
317.788	8.22877
319.579	7.89941
321.369	7.7561
323.16	7.09997
324.951	6.58633
326.741	7.33871
328.531	7.46872
330.321	6.99993
332.108	7.71595
333.897	7.45327
335.686	7.8551
337.474	8.09184
339.26	8.43147
341.048	9.57806
342.835	9.19178
344.622	8.13201
346.406	8.5788
348.192	9.53327
349.978	9.98956
351.764	9.61914
353.547	10.8706
355.332	10.6994
357.116	10.6633
358.901	10.7679
360.682	9.35795
362.466	9.41479
364.249	9.38123
366.03	8.89097
367.812	7.89317
369.594	8.5606
371.374	8.12751
373.155	8.26751
374.936	9.90144
376.715	9.86053
378.495	9.15826
380.273	9.32544
382.053	9.17597
383.832	8.569
385.609	8.53297
387.388	8.86477
389.164	9.02415
390.942	8.73892
392.72	8.88236
394.495	9.48304
396.272	9.32524
398.047	8.68743
399.823	9.00609
401.597	8.55486
403.372	8.96519
405.145	9.60799
406.92	9.34731
408.693	9.53447
410.467	9.11993
412.239	10.0221
414.012	10.2844
415.783	10.0265
417.556	9.5787
419.327	10.129
421.099	10.2707
422.869	10.219
424.64	10.6522
426.409	10.0057
428.18	10.1913
429.948	10.0782
431.718	8.40828
433.486	8.6669
435.253	8.56432
437.022	8.94782
438.789	8.66588
440.558	8.32845
442.324	7.54048
444.089	7.40318
445.857	8.22539
447.622	8.98467
449.386	8.77596
451.153	8.98216
452.917	9.10052
454.682	9.70797
456.446	10.926
458.208	12.7663
459.973	13.8896
461.735	14.7896
463.497	15.3441
465.259	15.07
467.022	15.044
468.783	15.9045
470.544	16.3096
472.306	16.961
474.066	17.112
475.825	17.6411
477.585	18.4935
479.346	18.7242
481.104	18.8195
482.862	18.9795
484.62	18.6664
486.38	18.9727
488.137	19.6788
489.894	20.068
491.65	21.1143
493.407	20.7934
495.164	20.9641
496.92	21.5499
498.675	21.5907
500.43	22.3728
502.184	22.5016
503.939	22.4893
505.694	22.3946
507.448	22.5628
509.201	22.3356
510.954	21.7476
512.706	21.6552
514.459	21.3253
516.21	21.1575
517.962	20.8593
519.715	19.5297
521.466	20.3934
523.216	20.2491
524.966	19.8888
526.716	19.2189
528.466	18.9534
530.215	18.9269
531.964	19.3994
533.712	20.2483
535.46	19.2259
537.208	18.9145
538.955	19.0458
540.703	19.037
542.449	19.725
544.196	20.3055
545.942	20.077
547.688	19.8381
549.433	18.8127
551.178	19.1641
552.923	18.2422
554.667	17.704
556.412	17.5513
558.155	17.2392
559.899	15.8186
561.642	14.1318
563.385	13.8635
565.127	13.7254
566.867	12.4464
568.609	11.2078
570.35	11.2727
572.092	10.4251
573.832	10.3557
575.573	9.0286
577.313	8.78571
579.053	8.2325
580.79	7.31877
582.529	7.04667
584.268	6.50295
586.006	5.06153
587.745	4.45057
589.482	4.10458
591.218	2.65071
592.955	1.96157
594.692	1.86523
596.428	2.14412
598.164	1.65129
599.898	1.26516
601.634	0.633511
603.369	1.06674
605.104	1.30097
606.836	0.85876
608.57	1.88804
610.304	2.30072
612.037	2.75512
613.769	3.7636
615.501	3.25386
617.234	3.61414
618.966	5.07372
620.696	5.93695
622.427	5.8948
624.159	6.72145
625.887	7.5945
627.618	9.04519
629.348	9.97732
631.076	11.0341
632.806	10.6451
634.535	10.9513
636.262	11.5597
637.99	12.6011
639.716	12.8084
641.444	12.9616
643.172	13.6555
644.897	13.3055
646.624	12.1432
648.348	13.4491
650.075	13.9739
651.801	13.532
653.524	13.2245
655.249	13.9572
656.972	14.3536
658.697	14.0478
660.419	13.4197
662.143	13.6043
663.865	15.0771
665.588	14.8661
667.309	15.4756
669.032	16.354
670.752	16.8748
672.474	17.1749
674.194	17.8637
675.915	18.8393
677.634	19.6574
679.355	20.6317
681.073	21.7881
682.793	23.211
684.511	24.6032
686.23	25.8667
687.947	27.1363
689.664	29.0874
691.382	30.5031
693.098	31.8424
694.816	34.2968
696.531	36.1221
698.247	36.3891
699.963	37.1399
701.678	37.7151
703.392	39.5721
705.108	41.3048
706.821	41.5713
708.534	42.5596
710.249	43.82
711.962	44.791
713.674	45.3482
715.388	45.4359
717.099	46.0529
718.81	44.8804
720.523	45.1974
722.234	45.8188
723.944	46.0595
725.654	45.8078
727.365	44.9948
729.075	45.2552
730.784	44.83
732.492	44.6374
734.202	45.2527
735.91	44.0343
737.618	44.5639
739.325	44.9126
741.034	44.9623
742.741	44.8195
744.447	44.7666
746.153	46.1656
747.859	47.6452
749.564	49.5889
751.271	50.0706
752.976	51.9236
754.681	53.3867
756.385	54.7329
758.088	56.1872
759.792	57.843
761.495	60.0798
763.2	62.2914
764.902	64.4131
766.604	66.4071
768.306	68.8055
770.008	70.5081
771.709	71.9462
773.41	73.9368
775.11	76.2015
776.811	77.4697
778.51	78.0687
780.21	80.3265
781.909	81.1487
783.608	81.1826
785.307	83.1192
787.005	83.6091
788.703	85.4431
790.401	86.1144
792.098	86.8881
793.795	88.4393
795.492	89.9053
797.188	90.1794
798.884	90.7911
800.58	90.4745
802.276	90.6427
803.971	90.9075
805.665	92.1835
807.36	92.3431
809.054	91.7764
810.748	91.3277
812.441	91.5165
814.135	91.2552
815.826	90.9628
817.518	89.8218
819.21	88.8078
820.902	88.5486
822.594	88.806
824.285	88.1953
825.976	88.3998
827.665	87.8234
829.355	88.1066
831.045	86.8521
832.735	85.6756
834.424	85.1326
836.111	83.9725
837.8	83.6093
839.488	82.5104
841.177	81.7097
842.864	80.6405
844.55	79.8458
846.237	78.2386
847.924	77.1874
849.61	76.3887
851.295	74.1937
852.98	72.9783
854.666	70.7543
856.349	68.895
858.034	67.6989
859.719	65.9838
861.403	64.3204
863.085	63.328
864.769	63.3099
866.452	61.6911
868.133	60.3616
869.816	59.4607
871.498	58.4721
873.179	57.6395
874.86	55.6491
876.54	54.5917
878.221	53.8436
879.902	53.0092
881.58	52.5383
883.26	53.1981
884.938	53.4702
886.618	54.1309
888.297	54.6708
889.974	55.2492
891.653	54.8237
893.329	54.9423
895.007	55.6343
896.683	55.7907
898.36	55.9187
900.035	55.9542
901.712	55.6735
903.387	56.004
905.063	56.6009
906.737	56.2104
908.412	55.3301
910.085	55.2817
911.76	54.9312
913.433	55.3316
915.107	54.1871
916.779	54.4738
918.452	54.1207
920.124	54.2767
921.797	53.8513
923.467	54.1017
925.138	54.9356
926.81	54.3619
928.48	52.7424
930.151	52.1684
931.82	51.4904
933.489	50.5178
935.16	48.5379
936.828	48.0216
938.496	47.0769
940.165	46.7772
941.833	46.8933
943.5	45.8084
945.168	45.0368
946.834	44.8879
948.5	45.3568
950.168	43.7653
951.834	42.8956
953.499	41.9689
955.163	41.1294
956.83	39.8762
958.494	39.8039
960.158	39.695
961.821	40.2162
963.487	41.7018
965.15	42.0938
966.812	42.9618
968.474	42.8389
970.138	42.1562
971.8	42.5043
973.461	42.5307
975.123	42.1818
976.783	42.2739
978.446	42.1458
980.106	41.5261
981.766	40.6366
983.425	39.3808
985.084	38.7115
986.743	37.4118
988.402	36.3667
990.06	36.2804
991.72	36.5222
993.378	36.1424
995.035	35.2275
996.692	33.6847
998.349	32.7183
1000.01	30.9624
1001.66	31.0057
1003.32	29.9725
1004.97	29.0677
1006.63	29.3704
1008.28	29.3508
1009.94	29.2695
1011.59	29.9539
1013.25	32.3604
1014.9	33.3027
1016.55	35.4307
1018.21	37.6367
1019.86	39.9011
1021.51	41.7914
1023.16	44.0885
1024.81	46.8966
1026.47	47.796
1028.12	50.4957
1029.77	52.0596
1031.42	53.4865
1033.07	53.1959
1034.72	54.6589
1036.37	56.1198
1038.02	56.3454
1039.67	57.2614
1041.31	57.3794
1042.96	57.3182
1044.61	57.7991
1046.26	58.6688
1047.91	57.3261
1049.55	56.7702
1051.2	54.7227
1052.84	53.4278
1054.49	52.9012
1056.14	51.9192
1057.78	49.5032
1059.43	47.2835
1061.07	44.4997
1062.72	42.223
1064.36	39.4164
1066	37.1976
1067.65	35.2373
1069.29	33.2924
1070.93	31.1377
1072.58	29.3876
1074.22	26.4771
1075.86	23.7148
1077.5	21.3377
1079.14	19.7163
1080.78	18.3894
1082.42	16.4685
1084.06	16.3701
1085.7	15.3436
1087.34	16.1731
1088.98	16.7573
1090.62	17.7459
1092.26	18.8327
1093.9	20.4314
1095.54	21.6053
1097.17	21.7234
1098.81	22.0689
1100.45	22.6605
1102.09	23.6223
1103.72	24.4403
1105.36	25.066
1106.99	24.8773
1108.63	24.7293
1110.27	25.2944
1111.9	25.2458
1113.53	25.7489
1115.17	25.2563
1116.8	25.1575
1118.43	25.0381
1120.07	24.6178
1121.7	24.2082
1123.33	23.7214
1124.97	22.8509
1126.6	22.7891
1128.23	21.7206
1129.86	20.2686
1131.49	19.2379
1133.12	18.0708
1134.75	17.5875
1136.38	16.8008
1138.01	16.1161
1139.64	15.3889
1141.27	14.4017
1142.9	12.9863
1144.53	12.5148
1146.16	11.6888
1147.78	11.105
1149.41	10.0726
1151.04	9.13743
1152.67	6.92322
1154.29	6.91925
1155.92	5.61592
1157.54	4.43918
1159.17	3.65978
1160.8	3.26495
1162.42	3.23708
1164.05	2.24478
1165.67	1.82191
1167.29	1.81029
1168.92	2.38275
1170.54	1.62623
1172.16	1.61887
1173.79	1.90254
1175.41	2.66972
1177.03	2.27436
1178.65	2.04386
1180.28	3.05692
1181.9	4.04682
1183.52	5.34664
1185.14	4.95447
1186.76	5.81084
1188.38	6.22252
1190	7.4526
1191.62	8.72421
1193.24	10.1232
1194.86	10.7048
1196.47	10.5986
1198.09	11.5905
1199.71	12.6162
1201.33	13.0623
1202.95	13.4515
1204.56	14.9979
1206.18	16.1584
1207.8	18.2335
1209.41	19.5729
1211.03	20.8477
1212.64	22.6425
1214.26	23.8498
1215.87	25.4198
1217.49	27.5215
1219.1	29.3735
1220.71	30.539
1222.33	30.7414
1223.94	33.0002
1225.55	34.9009
1227.16	35.8265
1228.78	36.7624
1230.39	37.8543
1232	38.2893
1233.61	39.8065
1235.22	40.7687
1236.83	40.7966
1238.44	42.0806
1240.05	43.2519
1241.66	43.8438
1243.27	45.3962
1244.88	45.7802
1246.49	46.5378
1248.1	47.9405
1249.71	48.313
1251.32	48.4986
1252.92	49.4778
1254.53	50.972
1256.14	52.2566
1257.74	52.6733
1259.35	52.8167
1260.96	53.7117
1262.56	53.2331
1264.17	53.6053
1265.77	54.0455
1267.38	54.1644
1268.98	53.8918
1270.59	54.315
1272.19	54.3785
1273.79	54.2124
1275.4	53.3544
1277	52.8387
1278.6	53.3876
1280.21	54.3459
1281.81	55.1641
1283.41	56.5229
1285.01	58.0087
1286.61	58.7912
1288.21	59.1807
1289.81	60.2211
1291.41	61.2603
1293.01	61.7887
1294.61	62.0642
1296.21	62.8454
1297.81	63.7213
1299.41	64.5707
1301.01	65.3056
1302.6	66.3671
1304.2	67.853
1305.8	68.3612
1307.4	68.301
1308.99	69.6184
1310.59	70.4183
1312.19	70.7626
1313.78	71.5233
1315.38	71.4101
1316.97	72.2788
1318.57	72.4315
1320.16	72.7649
1321.76	73.3217
1323.35	74.2033
1324.94	74.2226
1326.54	73.6528
1328.13	73.7568
1329.72	73.3422
1331.32	72.701
1332.91	71.6762
1334.5	70.9515
1336.09	69.3722
1337.68	67.3857
1339.27	65.7154
1340.87	64.3177
1342.45	62.2496
1344.04	62.075
1345.64	60.48
1347.22	57.7853
1348.81	56.5184
1350.4	54.9003
1351.99	53.3039
1353.58	52.117
1355.17	50.614
1356.75	49.8457
1358.34	49.7148
1359.93	48.1512
1361.51	46.9109
1363.1	46.1392
1364.69	45.3411
1366.27	44.5388
1367.86	43.8883
1369.44	43.2391
1371.03	42.2888
1372.61	40.9966
1374.2	40.5549
1375.78	39.4801
1377.37	39.8804
1378.95	39.8457
1380.53	39.2922
1382.11	39.3378
1383.7	39.2846
1385.28	39.1471
1386.86	39.0744
1388.44	39.6459
1390.02	38.2817
1391.6	37.9648
1393.19	37.9947
1394.77	37.4542
1396.35	36.9594
1397.93	36.8985
1399.51	37.0136
1401.08	36.623
1402.66	36.7154
1404.24	35.838
1405.82	35.4209
1407.4	35.747
1408.97	35.8529
1410.55	35.461
1412.13	35.1276
1413.71	35.7603
1415.28	35.9021
1416.86	37.0108
1418.43	38.2361
1420.01	39.3965
1421.59	41.0213
1423.16	42.8685
1424.73	43.3965
1426.31	44.9065
1427.88	46.9282
1429.46	49.075
1431.03	51.2912
1432.6	53.156
1434.18	55.234
1435.75	56.8971
1437.32	59.0073
1438.89	59.4147
1440.46	61.1761
1442.04	61.821
1443.61	62.7564
1445.18	64.4088
1446.75	64.7493
1448.32	65.4823
1449.89	65.565
1451.46	65.6517
1453.03	66.4586
1454.6	66.7952
1456.16	68.0357
1457.73	67.6115
1459.3	67.1654
1460.87	67.2232
1462.44	66.8554
1464	66.519
1465.57	65.3422
1467.14	64.3307
1468.7	62.7846
1470.27	61.9608
1471.83	60.0717
1473.4	59.3188
1474.96	58.7218
1476.53	56.8085
1478.09	55.1106
1479.66	53.6546
1481.22	52.212
1482.78	49.9995
1484.35	49.0215
1485.91	48.1293
1487.47	46.1575
1489.04	45.0659
1490.6	43.8737
1492.16	43.0625
1493.72	41.6135
1495.28	40.8354
1496.84	39.3587
1498.4	38.6702
1499.96	37.2075
1501.52	35.7325
1503.08	34.8356
1504.64	34.1835
1506.2	33.4195
1507.76	32.7971
1509.32	31.6302
1510.88	29.9783
1512.44	29.4492
1513.99	28.7277
1515.55	27.7684
1517.11	26.3166
1518.66	26.1204
1520.22	26.2438
1521.78	26.5073
1523.33	26.3955
1524.89	25.3554
1526.44	24.5769
1528	24.1843
1529.55	25.0469
1531.11	25.4814
1532.66	24.8768
1534.21	25.613
1535.77	25.0054
1537.32	25.837
1538.87	26.7308
1540.43	26.9486
1541.98	27.4021
1543.53	26.9054
1545.08	27.7238
1546.63	27.9684
1548.18	28.9118
1549.74	29.7994
1551.29	30.3837
1552.84	30.2069
1554.39	30.038
1555.94	30.712
1557.48	30.68
1559.03	31.1043
1560.58	31.689
1562.13	32.8838
1563.68	33.4216
1565.23	33.7251
1566.78	35.5343
1568.32	35.3381
1569.87	35.8227
1571.42	35.985
1572.96	35.8482
1574.51	35.7586
1576.05	36.7119
1577.6	36.5835
1579.14	36.5381
1580.69	36.9932
1582.24	37.0391
1583.78	37.9517
1585.32	38.388
1586.87	38.9502
1588.41	39.3241
1589.95	40.4627
1591.5	40.9438
1593.04	41.8321
1594.58	43.1501
1596.12	44.3326
1597.67	44.5349
1599.21	44.9746
1600.75	45.219
1602.29	44.9289
1603.83	44.8329
1605.37	46.2713
1606.91	47.1076
1608.45	47.6586
1609.99	48.1444
1611.53	49.4985
1613.07	50.2907
1614.6	51.9923
1616.14	52.6405
1617.68	53.3041
1619.22	53.5076
1620.75	54.8293
1622.29	56.4964
1623.83	57.377
1625.37	59.4407
1626.9	60.231
1628.44	61.3164
1629.97	63.6234
1631.51	64.9053
1633.04	65.5983
1634.58	67.3487
1636.11	69.5904
1637.65	71.5901
1639.18	72.4477
1640.72	73.2856
1642.25	74.7782
1643.78	75.8765
1645.31	75.3661
1646.85	76.2878
1648.38	76.9408
1649.91	77.1528
1651.44	76.9404
1652.97	76.8492
1654.5	76.1393
1656.03	75.8062
1657.56	75.5996
1659.1	75.3333
1660.62	74.8006
1662.15	74.0727
1663.68	73.5044
1665.21	72.2378
1666.74	70.9139
1668.27	70.0524
1669.8	68.2417
1671.32	66.9615
1672.85	64.7299
1674.38	61.7925
1675.91	58.8788
1677.43	55.9967
1678.96	52.964
1680.49	51.222
1682.01	49.6126
1683.54	47.1855
1685.06	44.4889
1686.59	42.4152
1688.11	40.2466
1689.64	37.7197
1691.16	35.4307
1692.68	33.1738
1694.21	30.8136
1695.73	28.9515
1697.25	27.9575
1698.78	25.9278
1700.3	24.799
1701.82	23.8262
1703.34	22.361
1704.86	21.0309
1706.39	20.3212
1707.91	18.8424
1709.43	17.5946
1710.95	17.5231
1712.47	16.3682
1713.99	15.7486
1715.51	14.9337
1717.02	14.6689
1718.54	14.1713
1720.06	12.9245
1721.58	12.0236
1723.1	12.0663
1724.62	11.6591
1726.13	10.4532
1727.65	9.99794
1729.17	10.0524
1730.68	10.6142
1732.2	10.4232
1733.72	9.90068
1735.23	9.75163
1736.75	9.56358
1738.26	9.26721
1739.78	8.93269
1741.29	8.14245
1742.81	8.16994
1744.32	8.33682
1745.84	7.81644
1747.35	8.1431
1748.86	6.91634
1750.37	6.37939
1751.89	6.16478
1753.4	6.65188
1754.91	6.24514
1756.42	5.75929
1757.93	5.1813
1759.45	4.74113
1760.96	5.0628
1762.47	4.98742
1763.98	4.40417
1765.49	4.54783
1767	4.20229
1768.51	3.89281
1770.02	3.54292
1771.53	3.15474
1773.03	2.90784
1774.54	2.84039
1776.05	3.41075
1777.56	2.84158
1779.07	2.90273
1780.57	1.84609
1782.08	2.16482
1783.59	1.52611
1785.09	1.40319
1786.6	1.70884
1788.11	1.73978
1789.61	2.2022
1791.12	1.62885
1792.62	0.793936
1794.13	0.843747
1795.63	0.788056
1797.13	1.08249
1798.64	1.24559
1800.14	0.94493
1801.65	0.775285
1803.15	0.924056
1804.65	0.7149
1806.15	0.657291
1807.66	-0.240111
1809.16	-0.673578
1810.66	-0.963454
1812.16	-0.839137
1813.66	-1.20823
1815.16	-0.594727
1816.66	-0.506972
1818.16	-0.371567
1819.66	-0.987505
1821.16	-0.833251
1822.66	-0.597908
1824.16	-0.424617
1825.66	-0.247571
1827.16	-0.566302
1828.66	-0.588268
1830.16	-0.800839
1831.65	-0.612258
1833.15	0.0535542
1834.65	0.0884966
1836.14	0.217283
1837.64	-0.0865998
1839.14	0.10282
1840.63	0.499536
1842.13	0.260981
1843.62	0.320682
1845.12	0.704639
1846.61	0.950484
1848.11	1.40671
1849.6	1.35053
1851.1	1.93694
1852.59	2.12514
1854.08	2.03136
1855.58	1.55072
1857.07	2.08196
1858.56	1.75509
1860.05	2.25175
1861.55	2.35792
1863.04	2.61374
1864.53	2.81563
1866.02	2.2737
1867.51	3.03355
1869	3.62732
1870.49	3.48643
1871.98	3.69907
1873.47	3.72867
1874.96	3.5495
1876.45	3.77326
1877.94	3.87384
1879.43	3.85799
1880.92	3.70364
1882.41	3.55088
1882.51	3.59087
1884	3.81251
1885.5	3.89019
1886.99	3.97732
1888.48	3.65256
1889.98	3.78811
1891.47	3.544
1892.96	3.18982
1894.46	3.67012
1895.95	3.33635
1897.44	2.73061
1898.93	2.26864
1900.42	2.89622
1901.91	3.31353
1903.41	3.53408
1904.9	3.44936
1906.39	3.21648
1907.88	3.24751
1909.37	2.89287
1910.86	3.40311
1912.35	3.52805
1913.83	4.09002
1915.32	3.73233
1916.81	3.41514
1918.3	3.34763
1919.79	3.49779
1921.27	2.92857
1922.76	2.79499
1924.25	3.16687
1925.74	2.37117
1927.22	1.9884
1928.71	2.00624
1930.19	2.27029
1931.68	2.43405
1933.17	2.85669
1934.65	2.84034
1936.14	3.28112
1937.62	3.44049
1939.11	3.56362
1940.59	3.96413
1942.07	4.43157
1943.56	4.54403
1945.04	4.90341
1946.52	4.60581
1948.01	4.64893
1949.49	4.85581
1950.97	4.8103
1952.45	4.69048
1953.93	4.9988
1955.42	4.97792
1956.9	5.26393
1958.38	4.7036
1959.86	4.95227
1961.34	5.38899
1962.82	5.38136
1964.3	5.16477
1965.78	4.54247
1967.26	4.1555
1968.74	4.50249
1970.21	4.24859
1971.69	4.58088
1973.17	4.92787
1974.65	5.63214
1976.13	4.76832
1977.6	4.01328
1979.08	3.54977
1980.56	3.29998
1982.03	3.26859
1983.51	3.27287
1984.99	3.69077
1986.46	3.03019
1987.94	2.13497
1989.41	1.13079
1990.89	0.571023
1992.36	0.531503
1993.84	1.02223
1995.31	0.70383
1996.78	1.10203
1998.26	1.05205
1999.73	0.79795
2001.2	0.906786
2002.68	0.160506
2004.15	0.181096
2005.62	0.153627
2007.09	0.643516
2008.56	0.61081
2010.04	0.91872
2011.51	0.88979
2012.98	1.11345
2014.45	1.15129
2015.92	1.93936
2017.39	1.83334
2018.86	2.03806
2020.33	1.51367
2021.8	1.98373
2023.26	1.54285
2024.73	1.84803
2026.2	2.19049
2027.67	2.54753
2029.14	1.95891
2030.61	2.27385
2032.07	2.3865
2033.54	3.763
2035.01	3.86674
2036.47	3.7283
2037.94	3.53046
2039.4	4.23867
2040.87	5.06769
2042.33	5.59075
2043.8	6.05405
2045.27	6.3745
2046.73	6.93279
2048.19	6.62332
2049.66	6.1362
2051.12	6.69224
2052.59	7.03507
2054.05	6.91093
2055.51	7.16794
2056.97	7.31606
2058.44	6.9222
2059.9	6.9849
2061.36	7.00276
2062.82	7.52146
2064.28	8.01322
2065.74	8.75273
2067.21	8.68512
2068.67	8.94446
2070.13	9.12524
2071.59	8.9757
2073.05	8.98815
2074.51	8.86127
2075.96	8.91492
2077.42	9.49694
2078.88	10.0809
2080.34	10.8499
2081.8	10.978
2083.26	11.0555
2084.72	11.1308
2086.17	11.6056
2087.63	12.4249
2089.09	13.7783
2090.54	13.883
2092	14.3512
2093.45	14.815
2094.91	15.4842
2096.37	15.8759
2097.82	17.0777
2099.28	17.7407
2100.73	18.3983
2102.19	18.6419
2103.64	20.1616
2105.09	21.5426
2106.55	22.7544
2108	23.3433
2109.45	24.3765
2110.91	25.5159
2112.36	26.76
2113.81	27.9493
2115.26	28.6656
2116.72	29.6139
2118.17	30.0401
2119.62	31.141
2121.07	31.0694
2122.52	32.6425
2123.97	33.8295
2125.42	34.781
2126.87	36.2545
2128.32	37.8604
2129.77	39.2978
2131.22	40.5329
2132.67	41.8855
2134.11	42.7721
2135.56	43.9782
2137.01	45.7332
2138.46	47.5246
2139.91	48.3565
2141.35	49.5247
2142.8	49.7971
2144.25	50.6997
2145.7	51.9617
2147.14	53.133
2148.59	55.0141
2150.03	56.6066
2151.48	57.6587
2152.92	58.8281
2154.37	59.9661
2155.81	60.8831
2157.26	62.3238
2158.7	64.1359
2160.15	65.2495
2161.59	66.2985
2163.03	66.4816
2164.47	66.9641
2165.92	67.0999
2167.36	67.5698
2168.8	67.6785
2170.24	68.3405
2171.69	68.6849
2173.13	69.0773
2174.57	68.64
2176.01	69.3559
2177.45	69.4758
2178.89	69.2284
2180.33	68.9057
2181.77	68.4788
2183.21	67.9711
2184.65	66.9997
2186.09	66.0846
2187.53	64.9501
2188.97	63.7815
2190.4	63.0919
2191.84	62.3574
2193.28	61.3495
2194.72	60.9042
2196.16	59.7819
2197.59	59.2676
2199.03	58.2397
2200.47	56.9751
2201.9	55.7764
2203.34	54.132
2204.77	52.713
2206.21	51.4398
2207.64	50.1001
2209.08	48.7743
2210.51	46.9224
2211.95	44.435
2213.38	43.1169
2214.82	41.8257
2216.25	41.4504
2217.68	40.5047
2219.12	39.3704
2220.55	38.2788
2221.98	36.8036
2223.41	36.325
2224.85	35.587
2226.28	34.5735
2227.71	33.7342
2229.14	32.6082
2230.57	31.9393
2232	30.389
2233.43	29.8383
2234.86	28.4134
2236.29	27.5155
2237.72	26.8667
2239.15	26.2891
2240.58	25.2574
2242.01	25.0971
2243.44	24.4584
2244.87	23.4422
2246.29	22.4353
2247.72	22.6183
2249.15	22.6828
2250.58	21.3966
2252.01	20.3341
2253.43	19.3544
2254.86	19.3133
2256.29	18.5114
2257.71	18.5654
2259.14	18.4383
2260.56	17.8034
2261.99	17.6559
2263.41	16.4481
2264.84	16.0749
2266.26	16.1664
2267.69	16.2216
2269.11	16.0264
2270.53	15.4098
2271.96	14.5948
2273.38	14.8824
2274.8	13.9577
2276.23	13.593
2277.65	13.098
2279.07	12.6456
2280.49	12.2754
2281.91	12.0038
2283.34	11.8014
2284.76	11.7153
2286.18	11.2834
2287.6	11.1872
2289.02	10.4265
2290.44	10.1223
2291.86	9.44605
2293.28	9.39146
2294.7	9.52539
2296.12	8.77792
2297.54	8.92996
2298.96	9.08349
2300.37	8.86328
2301.79	9.2173
2303.21	8.646
2304.63	8.77826
2306.04	8.49627
2307.46	8.80092
2308.88	8.28978
2310.3	8.67694
2311.71	8.95442
2313.13	8.92719
2314.54	9.3922
2315.96	8.98878
2317.37	9.30687
2318.79	9.04638
2320.2	8.39436
2321.62	7.38671
2323.03	7.96644
2324.45	8.16124
2325.86	8.58597
2327.27	8.00633
2328.69	7.94195
2330.1	7.3681
2331.51	6.25741
2332.92	5.85274
2334.34	5.83041
2335.75	6.19036
2337.16	6.15574
2338.57	5.38129
2339.98	4.92359
2341.39	4.68183
2342.8	4.21993
2344.21	4.09679
2345.63	2.79054
2347.04	2.23132
2348.45	1.89879
2349.85	1.90866
2351.26	1.7016
2352.67	1.43411
2354.08	0.98245
2355.49	0.813066
2356.9	0.553731
2358.3	0.181084
2359.71	-0.0684297
2361.12	-0.242438
2362.53	-0.229645
2363.93	0.297385
2365.34	0.545852
2366.75	0.202178
2368.15	0.324447
2369.56	-0.171265
2370.97	-0.132375
2372.37	-0.330232
2373.77	-0.527375
2375.18	-0.143934
2376.59	0.5538
2377.99	1.29911
2379.39	1.76391
2380.8	2.58645
2382.2	2.88022
2383.6	2.73934
2385.01	2.97321
2386.41	2.76727
2387.81	2.65395
2389.21	2.96523
2390.62	3.69387
2392.02	4.11607
2393.42	4.36908
2394.82	4.12464
2396.22	4.41786
2397.62	4.18445
2399.02	4.30959
2400.42	4.78382
2401.82	5.07905
2403.22	5.92294
2404.62	6.44566
2406.02	6.86822
2407.42	6.69771
2408.82	6.94926
2410.22	7.90337
2411.62	7.50425
2413.01	7.64531
2414.41	7.94607
2415.81	8.20356
2417.21	8.30295
2418.6	8.62117
2420	8.98311
2421.4	8.96087
2422.79	9.39777
2424.19	9.03286
2425.59	9.27158
2426.98	9.24274
2428.38	8.79118
2429.77	8.46561
2431.17	8.24823
2432.56	8.14057
2433.95	7.96641
2435.35	7.96171
2436.74	7.66904
2438.14	7.87285
2439.53	8.05467
2440.92	8.43531
2442.31	8.57752
2443.71	9.0566
2445.1	9.82922
2446.49	10.183
2447.88	10.2325
2449.27	10.3602
2450.67	10.1032
2452.06	9.81075
2453.45	9.41815
2454.84	9.45778
2456.23	9.61186
2457.62	9.42017
2459.01	9.50901
2460.4	8.44662
2461.79	7.91741
2463.18	8.44472
2464.57	8.39014
2465.95	8.08176
2467.34	7.77274
2468.73	7.45082
2470.12	7.27891
2471.5	7.57729
2472.89	7.41833
2474.28	7.25455
2475.67	6.86384
2477.05	6.64096
2478.44	6.88579
2479.82	7.02348
2481.21	6.13218
2482.6	6.92009
2483.98	6.84895
2485.37	7.16523
2486.75	7.27099
2488.13	7.10538
2489.52	7.18403
2490.9	6.75693
2492.29	6.27624
2493.67	5.8781
2495.05	5.44392
2496.44	5.37233
2497.82	5.00629
2499.2	4.69936
2500.58	4.64729
2501.97	4.93256
2503.35	5.05981
2504.73	5.2045
2506.11	4.82495
2507.49	4.92201
2508.87	4.92001
2510.25	4.99169
2511.63	5.51172
2513.01	5.81681
2514.39	5.96061
2515.77	5.60746
2517.15	5.84013
2518.53	5.69534
2519.91	5.44306
2521.29	5.11007
2522.67	4.85408
2524.05	4.73579
2525.42	4.23995
2526.8	3.34971
2528.18	2.86139
2529.55	2.83353
2530.93	3.16211
2532.31	3.2235
2533.69	2.23025
2535.06	2.14224
2536.44	2.61815
2537.81	2.40061
2539.19	3.62554
2540.56	4.0161
2541.94	4.41613
2543.31	4.72959
2544.69	4.60261
2546.06	5.19951
2547.44	5.03253
2548.81	5.61739
2550.18	5.70268
2551.56	6.50059
2552.93	6.99424
2554.3	6.96988
2555.67	6.41636
2557.04	6.52816
2558.42	6.65015
2559.79	6.88332
2561.16	7.15193
2562.53	7.92387
2563.9	7.79533
2565.27	8.43548
2566.64	8.51108
2568.01	8.39363
2569.38	8.88032
2570.75	9.34599
2572.12	9.38621
2573.49	9.57952
2574.86	9.29703
2576.23	10.026
2577.6	9.71053
2578.97	9.82138
2580.33	10.1709
2581.7	10.3268
2583.07	10.1819
2584.44	10.6226
2585.8	10.7124
2587.17	9.94257
2588.54	9.59169
2589.9	8.73373
2591.27	8.30784
2592.64	8.37719
2594	7.76649
2595.37	7.46215
2596.73	7.7923
2598.1	8.15991
2599.46	7.73264
2600.83	7.35889
2602.19	7.11541
2603.55	7.71584
2604.92	7.60528
2606.28	7.83086
2607.64	7.91686
2609.01	7.11336
2610.37	7.10028
2611.73	6.20332
2613.09	6.12268
2614.46	6.64691
2615.82	6.82386
2617.18	7.23654
2618.54	7.43122
2619.9	7.85386
2621.26	8.06754
2622.62	7.97555
2623.98	8.38911
2625.34	8.80651
2626.7	8.67739
2628.06	8.90289
2629.42	8.69539
2630.78	8.70977
2632.14	8.75273
2633.5	9.00545
2634.86	8.92031
2636.21	8.56871
2637.57	8.24434
2638.93	8.08666
2640.29	8.19707
2641.64	8.07622
2643	7.92032
2644.36	7.6666
2645.71	7.43486
2647.07	8.04999
2648.43	8.47861
2649.78	8.35116
2651.14	7.92265
2652.49	7.51313
2653.85	6.36945
2655.2	5.79806
2656.56	5.60094
2657.91	5.4014
2659.26	5.80684
2660.62	5.94668
2661.97	5.72366
2663.32	5.81858
2664.68	5.81263
2666.03	5.7212
2667.38	5.4271
2668.74	5.6422
2670.09	6.15231
2671.44	6.48498
2672.79	6.13028
2674.14	6.24558
2675.49	6.05905
2676.84	6.87833
2678.19	6.85547
2679.54	7.23658
2680.89	7.73598
2682.24	8.08577
2683.59	8.26763
2684.94	8.49291
2686.29	9.21058
2687.64	9.12696
2688.99	9.73795
2690.34	10.1253
2691.69	10.0243
2693.03	10.2161
2694.38	10.1489
2695.73	10.2427
2697.08	9.89864
2698.42	9.89363
2699.77	10.076
2701.12	10.154
2702.46	9.6332
2703.81	9.63727
2705.15	9.70495
2706.5	9.63168
2707.85	9.67128
2709.19	9.1242
2710.54	8.79906
2711.88	8.84421
2713.22	9.43051
2714.57	9.08617
2715.91	8.79818
2717.26	8.10256
2718.6	7.98859
2719.94	7.70874
2721.29	7.19101
2722.63	7.17592
2723.97	6.66019
2725.31	6.3805
2726.66	6.57038
2728	6.11614
2729.34	5.9178
2730.68	5.43808
2732.02	5.44377
2733.36	5.55994
2734.7	5.20675
2736.04	4.98592
2737.38	5.14437
2738.72	5.09355
2740.06	5.15738
2741.4	4.82938
2742.74	5.45441
2744.08	5.49565
2745.42	4.79431
2746.76	5.3337
2748.09	5.05715
2749.43	5.47183
2750.77	5.72097
2752.11	5.48067
2753.45	5.75104
2754.78	5.2791
2756.12	5.25508
2757.46	4.65683
2758.79	4.29343
2760.13	3.94074
2761.46	3.6023
2762.8	3.35289
2764.14	3.13823
2765.47	2.82837
2766.8	2.84312
2768.14	2.77733
2769.47	2.20849
2770.81	2.36384
2772.14	2.76932
2773.48	2.31236
2774.81	2.36451
2776.14	2.4285
2777.48	2.43657
2778.81	3.00428
2780.14	3.44799
2781.47	2.74514
2782.8	2.64171
2784.14	2.29056
2785.47	2.44004
2786.8	2.16935
2788.13	1.91869
2789.46	1.82088
2790.79	1.50648
2792.12	1.29668
2793.45	1.47986
2794.78	1.07826
2796.11	0.950329
2797.44	0.674716
2798.77	1.20384
2800.1	1.01129
2801.43	1.4252
2802.76	1.77023
2804.09	2.06945
2805.41	1.40173
2806.74	0.712361
2808.07	0.168173
2809.4	0.766961
2810.72	0.0114416
2812.05	-0.123705
2813.38	-0.376001
2814.71	-0.492411
2816.03	-0.123271
2817.36	0.009515
2818.68	0.414698
2820.01	0.817624
2821.33	0.889096
2822.66	1.2142
2823.98	1.78219
2825.31	2.79102
2826.63	3.30618
2827.96	4.25659
2829.28	5.16846
2830.6	6.29719
2831.93	7.48798
2833.25	9.41517
2834.57	11.0811
2835.9	12.6033
2837.22	14.9471
2838.54	17.4131
2839.86	18.6752
2841.18	21.6254
2842.5	24.089
2843.83	27.0206
2845.15	29.7008
2846.47	32.105
2847.79	33.9369
2849.11	37.5003
2850.43	41.2403
2851.75	44.5496
2853.07	47.1129
2854.39	49.8146
2855.71	53.0593
2857.03	55.5153
2858.35	58.4021
2859.66	61.1869
2860.98	63.7239
2862.3	66.4615
2863.62	69.3721
2864.94	72.0134
2866.25	73.8445
2867.57	75.8853
2868.89	77.2162
2870.2	78.6503
2871.52	79.8323
2872.84	81.7922
2874.15	84.1949
2875.47	86.1461
2876.78	87.2825
2878.1	88.8824
2879.41	90.7684
2880.73	91.9376
2882.04	93.2514
2883.36	95.0931
2884.67	96.3643
2885.99	96.9291
2887.3	98.4235
2888.61	100.264
2889.93	101.895
2891.24	103.788
2892.55	105.672
2893.86	108.179
2895.18	110.552
2896.49	113.062
2897.8	116.106
2899.11	119.603
2900.42	122.474
2901.73	126.279
2903.05	130.4
2904.36	133.831
2905.67	137.71
2906.98	142.464
2908.29	146.717
2909.6	151.603
2910.91	155.386
2912.21	159.949
2913.52	165.032
2914.83	170.386
2916.14	174.711
2917.45	178.493
2918.76	182.351
2920.07	185.961
2921.37	190.161
2922.68	192.783
2923.99	196.104
2925.29	198.952
2926.6	201.759
2927.91	203.673
2929.22	205.215
2930.52	205.885
2931.83	206.386
2933.13	207.033
2934.44	207.128
2935.74	206.641
2937.05	205.879
2938.35	204.377
2939.66	202.839
2940.96	200.677
2942.26	198.041
2943.57	194.991
2944.87	191.601
2946.18	187.429
2947.48	184.279
2948.78	181.509
2950.08	177.505
2951.39	173.556
2952.69	170.224
2953.99	166.502
2955.29	161.969
2956.59	158.371
2957.9	154.667
2959.2	150.734
2960.5	146.605
2961.8	142.538
2963.1	139.004
2964.4	135.334
2965.7	131.037
2967	127.471
2968.3	123.239
2969.6	119.254
2970.9	115.681
2972.19	112.043
2973.49	108.312
2974.79	104.603
2976.09	100.939
2977.39	97.8931
2978.68	94.9519
2979.98	91.6964
2981.28	87.8933
2982.58	84.1766
2983.87	80.3812
2985.17	76.4773
2986.47	73.0453
2987.76	69.0877
2989.06	65.6493
2990.35	62.4769
2991.65	59.0039
2992.94	55.2744
2994.24	51.8519
2995.53	48.7816
2996.83	45.7522
2998.12	43.0134
2999.42	39.8302
3000.71	36.8354
3002	33.8351
3003.3	30.9427
3004.59	28.9642
3005.88	26.338
3007.18	23.2635
3008.47	21.0178
3009.76	19.2775
3011.05	17.646
3012.34	16.1314
3013.64	14.7623
3014.93	12.5425
3016.22	10.6637
3017.51	9.80592
3018.8	9.02062
3020.09	7.86259
3021.38	7.45986
3022.67	7.0335
3023.96	6.49216
3025.25	6.0772
3026.54	5.59709
3027.83	5.5684
3029.12	5.41309
3030.41	4.98663
3031.69	4.97823
3032.98	4.9639
3034.27	5.26646
3035.56	5.00853
3036.84	6.12397
3038.13	6.71402
3039.42	6.8191
3040.71	7.02889
3041.99	7.79588
3043.28	8.1235
3044.57	8.13035
3045.85	7.80348
3047.14	8.0692
3048.42	8.35617
3049.71	8.50892
3050.99	8.99356
3052.28	9.86813
3053.56	9.81577
3054.85	10.0398
3056.13	10.1211
3057.41	10.336
3058.7	10.1378
3059.98	10.6173
3061.26	10.1794
3062.55	10.1334
3063.83	9.5616
3065.11	8.9357
3066.39	7.96146
3067.68	7.70749
3068.96	7.09669
3070.24	6.37432
3071.52	5.4083
3072.8	5.05093
3074.08	4.46426
3075.36	3.89884
3076.65	3.46275
3077.93	3.26853
3079.21	3.03097
3080.49	2.65643
3081.77	2.76488
3083.04	2.08588
3084.32	1.69365
3085.6	1.8836
3086.88	2.23316
3088.16	2.02253
3089.44	2.01273
3090.72	2.48595
3091.99	2.70011
3093.27	3.67831
3094.55	3.76629
3095.83	4.28771
3097.1	4.5199
3098.38	4.87977
3099.66	5.08434
3100.93	6.05382
3102.21	6.07485
3103.49	6.54843
3104.76	8.06877
3106.04	9.00535
3107.31	9.05611
3108.59	9.44577
3109.86	10.0355
3111.14	10.6327
3112.41	11.0613
3113.69	11.4802
3114.96	11.8706
3116.23	12.0417
3117.51	12.1257
3118.78	12.9768
3120.05	13.7117
3121.33	14.172
3122.6	14.2786
3123.87	14.9164
3125.14	15.0891
3126.41	15.5821
3127.69	15.7738
3128.96	16.135
3130.23	16.5477
3131.5	17.534
3132.77	17.9379
3134.04	18.7894
3135.31	19.4999
3136.58	20.7645
3137.85	21.8742
3139.12	22.7596
3140.39	23.6972
3141.66	24.7639
3142.93	26.0129
3144.2	27.689
3145.47	29.7455
3146.74	32.0957
3148	33.923
3149.27	35.5908
