#Acq. time (s)=	45
#Accumulations=	2
#Range (cm-¹)=	200...3150
#Windows=	2
#Auto scanning=	Off
#Autofocus=	Off
#Macrospot=	Off
#AutoExposure=	Off
#Spike filter=	Multiple accum.
#Delay time (s)=	0
#Binning=	1
#Readout mode=	Signal
#DeNoise=	Off
#ICS correction=	On
#Dark correction=	Off
#Inst. Process=	Off
#Detector Gain=	Best Dynamic Range
#Detector ADC=	20 kHz       
#Detector temperature (°C)=	-69.85
#Instrument=	LabRAM HR Evol
#Detector=	Synapse
#Objective=	x100
#Grating=	600 gr/mm
#ND Filter=	100%
#Laser (nm)=	532 
#Hole=	100.021
#Range=	Auto
#Laser Pol.=	No
#Raman. Pol.=	No
#Laser Pol. (°)=	-0.0007625
#Raman Pol. (°)=	89.9995
#Collection=	Microscope
#StageXY=	Marzhauser
#StageZ=	Marzhauser
#X (µm)=	28066.3
#Y (µm)=	-545.2
#Z (µm)=	1083.85
#Full time(mm:ss)=	3:08
#Project=	
#Sample=	
#Site=	
#Title=	Mb_30_27_06_2x_45s_532 nm_x100_100%_600 gr_mm
#Remark=	
#Date=	12.07.2022 15:52
#Acquired=	12.07.2022 15:52:47
#Base:Fit=	10.08.2022 10:39:47
#Base:Sub=	10.08.2022 10:39:55
#Base:Fit=	10.08.2022 10:40:03
#Base:Sub=	10.08.2022 10:40:17
#Filter:Polynom=	16.08.2022 10:16:15
#AxisType[0]=Intens
#AxisUnit[0]=Cnt
#AxisType[1]=Spectr
#AxisUnit[1]=1/cm
200.388	28.7365
202.204	29.7375
204.019	29.1512
205.832	27.6414
207.646	25.397
209.459	23.7379
211.274	22.6616
213.087	21.4296
214.899	20.3473
216.711	18.9886
218.524	16.7314
220.335	16.4564
222.146	16.5667
223.956	15.6997
225.766	14.7773
227.576	13.9515
229.388	13.1723
231.197	12.5674
233.005	12.7823
234.813	12.346
236.621	10.8979
238.429	10.1387
240.236	9.18444
242.045	7.9579
243.852	7.50005
245.658	6.47217
247.464	6.17846
249.269	5.97949
251.074	6.00938
252.879	5.16889
254.683	4.68423
256.487	3.76185
258.291	4.25923
260.094	4.14582
261.897	4.482
263.702	4.89927
265.504	4.61282
267.306	4.7217
269.108	4.97242
270.909	4.76028
272.71	4.69031
274.511	5.3725
276.311	6.90454
278.111	5.85812
279.91	6.8443
281.709	7.87763
283.508	8.01262
285.306	7.49601
287.105	7.16588
288.9	6.92729
290.698	7.05017
292.495	7.60566
294.291	7.94117
296.088	8.60261
297.884	10.1922
299.679	9.69783
301.475	10.2216
303.27	9.87303
305.064	9.40745
306.858	9.24231
308.652	10.7483
310.444	11.4277
312.237	12.4172
314.03	12.3946
315.822	12.1669
317.615	13.0739
319.406	13.3869
321.198	13.1937
322.987	12.6179
324.778	11.5458
326.568	10.8173
328.358	11.9645
330.148	12.1942
331.935	12.3683
333.724	13.4756
335.513	13.4109
337.301	14.3471
339.089	13.4423
340.875	12.9933
342.662	12.2895
344.449	12.605
346.236	11.7956
348.02	12.0179
349.806	12.4219
351.592	11.8327
353.375	11.983
355.16	10.6441
356.944	10.7173
358.728	10.755
360.51	10.1449
362.294	9.76692
364.077	10.4215
365.858	10.5107
367.64	10.0288
369.422	10.2608
371.202	10.2507
372.983	10.4344
374.764	10.7937
376.543	11.3163
378.324	12.0529
380.102	12.4296
381.881	11.4978
383.661	11.7048
385.438	12.1554
387.216	12.6451
388.993	12.5797
390.771	12.9037
392.548	11.9752
394.324	12.4868
396.101	13.2963
397.875	14.4904
399.651	13.4295
401.425	14.3996
403.201	14.4361
404.974	13.8817
406.749	14.3414
408.524	14.2959
410.296	14.4779
412.07	15.2599
413.841	16.5434
415.614	17.6818
417.385	18.7622
419.156	18.936
420.928	19.3231
422.698	20.5271
424.469	19.9502
426.238	19.8602
428.009	19.1352
429.777	18.1602
431.548	17.2378
433.315	16.6766
435.083	16.0716
436.852	16.3205
438.618	17.423
440.387	17.3082
442.153	17.1785
443.919	16.0398
445.686	15.9683
447.451	16.4858
449.218	16.0392
450.982	17.9346
452.746	19.5203
454.512	20.827
456.275	21.2707
458.038	20.463
459.803	21.6166
461.565	22.1459
463.327	22.9617
465.091	23.425
466.852	22.6609
468.613	23.2907
470.374	23.7943
472.136	24.0185
473.896	24.06
475.655	25.0529
477.415	25.14
479.176	24.5205
480.934	25.3687
482.692	27.1199
484.45	26.9902
486.21	28.9296
487.967	30.0072
489.724	32.0864
491.481	33.1953
493.237	33.446
494.995	35.4179
496.75	37.8266
498.506	38.4681
500.26	39.0074
502.015	40.5478
503.771	41.0383
505.525	41.3094
507.279	42.0541
509.032	42.8142
510.785	42.6922
512.537	42.0267
514.289	41.6022
516.041	40.7938
517.793	39.4663
519.546	41.01
521.297	40.8723
523.047	41.2331
524.797	41.8943
526.547	42.2381
528.297	40.0478
530.046	39.0025
531.795	38.5288
533.543	38.7533
535.291	38.725
537.039	38.7547
538.787	38.7341
540.534	35.7138
542.281	34.8725
544.027	32.216
545.773	29.1067
547.519	29.2758
549.264	28.0029
551.01	27.0926
552.754	25.7213
554.499	23.7848
556.243	22.3687
557.987	21.3092
559.73	19.2789
561.474	18.7318
563.216	17.3398
564.959	16.5881
566.701	16.0243
568.441	16.1495
570.182	15.4877
571.923	14.4698
573.664	15.5265
575.405	13.6202
577.145	12.6655
578.885	11.1861
580.624	10.5089
582.361	11.205
584.1	10.1143
585.839	9.43041
587.577	9.09152
589.315	9.20725
591.052	7.51389
592.787	7.02697
594.524	6.63885
596.26	5.64257
597.997	4.70499
599.732	4.53109
601.466	3.77473
603.201	3.79598
604.936	4.40059
606.67	5.94857
608.403	6.2597
610.136	7.29698
611.87	8.40896
613.603	7.58783
615.334	6.94505
617.067	8.41336
618.799	9.17984
620.529	10.5917
622.26	10.7241
623.991	11.268
625.72	10.8489
627.451	11.7804
629.181	13.4633
630.909	14.0401
632.638	15.7476
634.368	17.5871
636.095	18.8047
637.823	18.5552
639.551	18.3836
641.277	18.2632
643.005	17.6897
644.73	17.4889
646.457	17.8263
648.184	19.3024
649.908	18.6423
651.634	19.2549
653.357	18.0807
655.083	17.0582
656.806	16.4455
658.53	16.2418
660.253	16.0393
661.977	14.8866
663.7	14.5481
665.422	14.0685
667.145	13.9563
668.865	14.3904
670.588	13.8675
672.308	14.671
674.027	13.2661
675.749	12.9979
677.468	13.1247
679.188	13.3129
680.907	13.0288
682.627	13.7117
684.345	14.7285
686.064	16.2951
687.781	16.8451
689.498	19.638
691.216	21.6834
692.932	23.3636
694.65	24.0298
696.366	24.0791
698.081	25.3914
699.797	25.8605
701.512	28.0398
703.228	30.1645
704.942	32.5383
706.655	34.9334
708.371	35.8338
710.083	38.2603
711.796	40.6691
713.51	43.7797
715.222	44.9549
716.934	47.2005
718.645	47.0714
720.358	47.8308
722.068	49.0058
723.779	49.2821
725.49	50.1753
727.2	50.591
728.909	49.9858
730.618	50.5117
732.329	51.4161
734.037	51.4328
735.745	49.9987
737.453	49.8196
739.16	50.3502
740.869	50.6589
742.576	51.3532
744.282	52.8984
745.988	52.9413
747.694	53.6945
749.401	54.0696
751.107	55.9055
752.811	57.0219
754.516	57.9196
756.22	59.2823
757.924	59.9944
759.627	59.9158
761.332	61.396
763.035	62.7898
764.738	62.7052
766.44	64.3549
768.142	65.4073
769.843	65.2363
771.544	65.8215
773.245	65.1907
774.946	66.0848
776.646	65.8696
778.346	66.2731
780.046	66.63
781.745	67.7872
783.444	69.1162
785.143	70.4941
786.841	72.178
788.539	73.4415
790.237	74.9579
791.934	75.1074
793.631	75.9623
795.328	76.2058
797.024	76.6336
798.72	77.9359
800.416	77.6162
802.112	77.7593
803.807	77.9577
805.502	78.5545
807.196	78.3414
808.89	78.0213
810.584	78.3717
812.278	78.5456
813.971	79.3689
815.664	80.3253
817.354	81.3501
819.047	81.4011
820.739	80.7929
822.43	82.379
824.122	83.1064
825.813	83.1046
827.503	83.7333
829.192	83.5213
830.882	82.0064
832.571	81.7645
834.261	81.4538
835.95	81.0254
837.637	80.7828
839.325	80.7383
841.013	80.9083
842.701	79.1923
844.389	77.2768
846.074	75.9824
847.761	74.1786
849.447	72.4308
851.131	71.5972
852.817	69.1853
854.503	67.4848
856.188	67.0898
857.871	66.2359
859.556	64.9072
861.24	63.0557
862.922	61.8993
864.606	60.5165
866.289	59.1861
867.97	57.3972
869.653	57.2209
871.336	56.7087
873.016	55.0272
874.698	53.8531
876.379	51.7031
878.058	51.0818
879.739	50.5642
881.418	50.2867
883.098	50.309
884.778	49.0277
886.456	47.8572
888.135	46.9569
889.812	46.2492
891.49	46.5344
893.167	47.1381
894.845	47.2866
896.523	47.5107
898.198	46.7544
899.875	45.6843
901.55	45.54
903.226	44.5342
904.901	44.5518
906.576	45.139
908.25	44.1977
909.925	43.9719
911.598	43.9372
913.271	42.6598
914.945	43.1442
916.617	43.6868
918.291	44.0304
919.962	44.0414
921.635	44.9574
923.306	44.5666
924.978	43.7399
926.648	42.5568
928.318	42.4093
929.989	41.9446
931.659	41.5756
933.328	42.1667
934.998	41.9664
936.666	41.1469
938.336	40.2702
940.004	39.1776
941.671	37.9329
943.34	36.3156
945.007	36.5018
946.673	37.7725
948.339	37.218
950.007	37.8186
951.672	37.5044
953.337	37.9551
955.004	36.9816
956.669	35.5016
958.333	35.6178
959.997	33.72
961.662	34.0336
963.326	33.7155
964.989	32.886
966.651	32.7168
968.315	33.3593
969.977	33.7599
971.639	34.2244
973.301	35.6535
974.962	35.0132
976.624	34.242
978.285	34.5569
979.945	35.5547
981.605	35.714
983.264	38.1925
984.924	39.3421
986.583	39.5313
988.243	40.1486
989.901	39.6848
991.56	39.6947
993.217	38.8915
994.875	38.2339
996.532	37.3252
998.188	37.6019
999.845	36.2254
1001.5	35.4529
1003.16	34.8979
1004.81	35.9725
1006.47	37.5984
1008.12	40.849
1009.78	45.7317
1011.43	50.5607
1013.09	56.5765
1014.74	63.0283
1016.39	68.9926
1018.05	74.1394
1019.7	79.1176
1021.35	83.2832
1023	87.3805
1024.65	92.2546
1026.31	96.2725
1027.96	99.4673
1029.61	102.033
1031.26	104.214
1032.91	106.206
1034.56	106.535
1036.21	107.175
1037.86	107.289
1039.51	107.845
1041.16	108.457
1042.8	107.975
1044.45	108.802
1046.1	108.023
1047.75	107.525
1049.39	106.275
1051.04	105.03
1052.69	102.459
1054.33	99.1885
1055.98	95.7218
1057.62	90.9801
1059.27	87.9542
1060.91	84.4416
1062.56	80.0284
1064.2	75.2393
1065.85	69.7573
1067.49	62.748
1069.13	56.4663
1070.77	51.585
1072.42	46.1152
1074.06	41.5467
1075.7	36.5609
1077.34	31.9475
1078.98	28.4276
1080.62	26.0672
1082.27	24.0294
1083.91	23.6899
1085.55	24.4784
1087.18	26.2638
1088.82	28.2781
1090.46	30.2723
1092.1	31.738
1093.74	33.8476
1095.38	36.3298
1097.02	36.669
1098.65	37.4059
1100.29	37.8498
1101.93	38.8912
1103.56	39.3263
1105.2	39.7194
1106.84	40.7008
1108.47	40.0358
1110.11	39.6281
1111.74	39.8604
1113.38	39.974
1115.01	39.5786
1116.64	39.9751
1118.28	40.109
1119.91	39.6724
1121.54	39.887
1123.18	39.0648
1124.81	38.4347
1126.44	37.3953
1128.07	36.558
1129.7	35.5538
1131.33	34.6574
1132.97	33.6823
1134.6	32.1937
1136.23	29.8442
1137.86	28.0497
1139.49	26.4536
1141.11	24.9728
1142.74	22.5683
1144.37	21.6566
1146	19.7187
1147.63	18.9179
1149.26	17.9811
1150.88	17.0406
1152.51	15.0544
1154.14	12.5497
1155.76	11.419
1157.39	9.61794
1159.01	7.6238
1160.64	7.33007
1162.27	6.19921
1163.89	4.33571
1165.51	3.17622
1167.14	2.6001
1168.76	1.62268
1170.39	1.73936
1172.01	1.87971
1173.63	3.39317
1175.25	4.76992
1176.88	4.86528
1178.5	5.38393
1180.12	5.69389
1181.74	5.82308
1183.36	7.13655
1184.98	7.56587
1186.6	7.88885
1188.22	8.57232
1189.84	9.61771
1191.46	10.7944
1193.08	12.3888
1194.7	14.4102
1196.32	15.4324
1197.94	17.0777
1199.55	18.6168
1201.17	18.8922
1202.79	20.9877
1204.41	22.1876
1206.02	25.0935
1207.64	27.5147
1209.25	30.0289
1210.87	32.7943
1212.48	35.8895
1214.1	38.8313
1215.71	41.011
1217.33	43.8517
1218.94	46.7355
1220.56	49.3247
1222.17	51.6115
1223.79	53.6957
1225.4	55.7607
1227.01	57.6971
1228.62	60.2579
1230.23	62.3193
1231.85	64.7984
1233.46	67.5677
1235.07	71.2578
1236.68	74.7022
1238.29	77.0867
1239.9	79.0004
1241.51	81.643
1243.12	82.9018
1244.73	84.5469
1246.34	86.5299
1247.94	88.9074
1249.55	89.531
1251.16	90.4378
1252.77	91.406
1254.37	93.3315
1255.98	94.0629
1257.59	95.4242
1259.2	96.8482
1260.8	97.5391
1262.41	98.7515
1264.01	100.587
1265.62	101.86
1267.22	101.503
1268.83	102.182
1270.43	103.714
1272.03	104.233
1273.64	105.764
1275.24	107.147
1276.85	108.02
1278.45	108.576
1280.05	109.933
1281.65	109.943
1283.25	111.884
1284.85	112.54
1286.46	114.374
1288.06	115.144
1289.66	116.11
1291.26	117.406
1292.86	118.769
1294.46	120.296
1296.06	120.162
1297.66	120.628
1299.25	120.471
1300.85	122.042
1302.45	123.137
1304.05	123.698
1305.65	125.204
1307.24	127.328
1308.84	128.832
1310.43	130.764
1312.03	131.99
1313.63	133.62
1315.22	133.699
1316.82	134.271
1318.41	133.243
1320.01	132.65
1321.6	133.844
1323.2	132.801
1324.79	132.766
1326.38	132.203
1327.98	132.178
1329.57	130.116
1331.16	130.073
1332.76	129.668
1334.35	129.251
1335.94	128.157
1337.53	126.86
1339.12	125.194
1340.71	123.564
1342.3	122.22
1343.89	120.845
1345.48	118.571
1347.07	115.95
1348.66	115.185
1350.25	113.049
1351.84	111.21
1353.43	109.288
1355.01	106.771
1356.6	103.143
1358.19	100.349
1359.77	97.6063
1361.36	94.1203
1362.95	91.2814
1364.53	88.2206
1366.12	85.5937
1367.71	82.2896
1369.29	79.4904
1370.88	77.064
1372.46	74.5057
1374.04	71.7214
1375.63	68.7612
1377.21	68.1769
1378.8	67.1959
1380.38	66.9435
1381.96	64.9369
1383.54	64.0325
1385.13	63.9269
1386.71	62.8552
1388.29	62.0979
1389.87	61.3352
1391.45	60.6678
1393.03	59.3875
1394.61	58.2049
1396.19	57.7428
1397.77	57.1645
1399.35	57.9331
1400.93	58.5849
1402.51	57.1748
1404.09	57.9481
1405.67	57.3712
1407.24	58.1784
1408.82	58.2657
1410.4	59.4768
1411.98	60.5417
1413.55	61.7755
1415.13	63.7652
1416.71	66.7043
1418.28	69.6047
1419.86	72.1611
1421.43	75.1119
1423.01	78.4481
1424.58	82.1393
1426.16	86.895
1427.73	90.9285
1429.31	94.8325
1430.88	99.8801
1432.45	104.037
1434.02	106.986
1435.6	110.57
1437.17	114.625
1438.74	117.057
1440.31	119.467
1441.88	120.962
1443.45	122.398
1445.03	123.723
1446.6	125.791
1448.17	127.945
1449.74	129.18
1451.3	130.49
1452.87	131.374
1454.44	132.366
1456.01	132.604
1457.58	131.148
1459.15	130.292
1460.72	129.477
1462.28	128.386
1463.85	126.882
1465.42	125.133
1466.98	123.469
1468.55	121.068
1470.12	119.273
1471.68	116.148
1473.25	114.341
1474.81	111.522
1476.38	109.835
1477.94	107.631
1479.51	104.679
1481.07	100.981
1482.63	98.3467
1484.2	94.6523
1485.76	92.7507
1487.32	89.7378
1488.88	87.3267
1490.45	84.8201
1492.01	81.8518
1493.57	80.5601
1495.13	77.9579
1496.69	74.6166
1498.25	71.8959
1499.81	69.9126
1501.37	68.2965
1502.93	66.3949
1504.49	64.2152
1506.05	61.3545
1507.61	59.8937
1509.17	57.9054
1510.73	54.5715
1512.28	51.1926
1513.84	49.4416
1515.4	45.4732
1516.96	42.4084
1518.51	40.8137
1520.07	38.5661
1521.63	36.4386
1523.18	34.8154
1524.74	34.2194
1526.29	33.3211
1527.85	31.7188
1529.4	31.2189
1530.96	30.3665
1532.51	29.4318
1534.06	28.6002
1535.62	29.3887
1537.17	29.6012
1538.72	29.8736
1540.28	30.6116
1541.83	31.4061
1543.38	31.7369
1544.93	32.079
1546.48	33.7403
1548.03	35.7496
1549.59	37.1648
1551.14	38.7602
1552.69	40.5267
1554.24	43.3525
1555.79	44.5161
1557.34	45.9695
1558.88	47.603
1560.43	49.721
1561.98	51.4483
1563.53	53.5233
1565.08	54.6764
1566.62	56.5751
1568.17	58.8092
1569.72	60.8613
1571.27	62.8763
1572.81	64.1
1574.36	65.9204
1575.9	67.5434
1577.45	69.0338
1579	71.0833
1580.54	72.7062
1582.09	74.9862
1583.63	77.4913
1585.17	79.4468
1586.72	80.096
1588.26	80.9164
1589.8	82.3875
1591.35	83.6936
1592.89	84.6363
1594.43	86.6205
1595.97	88.2165
1597.52	88.0194
1599.06	89.2568
1600.6	90.6345
1602.14	91.4941
1603.68	91.7702
1605.22	90.943
1606.76	91.3513
1608.3	90.7337
1609.84	90.9834
1611.38	91.3355
1612.92	90.7879
1614.46	90.9724
1615.99	91.2676
1617.53	92.3011
1619.07	92.0172
1620.61	92.6084
1622.14	94.6674
1623.68	96.7366
1625.22	98.239
1626.75	100.004
1628.29	101.608
1629.82	105.225
1631.36	107.961
1632.9	109.69
1634.43	113.065
1635.96	115.564
1637.5	118.416
1639.03	121.299
1640.57	123.977
1642.1	127.259
1643.63	130.2
1645.16	132.629
1646.7	133.792
1648.23	134.896
1649.76	136.349
1651.29	137.85
1652.82	138.767
1654.36	139.949
1655.89	141.049
1657.42	141.316
1658.95	140.999
1660.48	140.103
1662.01	138.906
1663.53	136.44
1665.06	134.852
1666.59	133.247
1668.12	130.436
1669.65	127.316
1671.18	123.914
1672.7	120.014
1674.23	116.073
1675.76	112.106
1677.29	107.602
1678.81	102.601
1680.34	98.0756
1681.86	93.3329
1683.39	89.2436
1684.91	83.84
1686.44	79.4893
1687.96	74.877
1689.49	71.2583
1691.01	67.2607
1692.54	61.7788
1694.06	57.3916
1695.58	53.7305
1697.11	50.3944
1698.63	48.0378
1700.15	44.9282
1701.67	42.1115
1703.2	39.5969
1704.72	37.2657
1706.24	35.9094
1707.76	33.3891
1709.28	31.5251
1710.8	30.5069
1712.32	28.4067
1713.84	26.9384
1715.36	24.9162
1716.88	23.0899
1718.4	21.9002
1719.91	20.2022
1721.43	18.4815
1722.95	17.4732
1724.47	16.7044
1725.99	15.9129
1727.5	15.4087
1729.02	14.5399
1730.54	14.0682
1732.05	13.1124
1733.57	11.8083
1735.09	10.8925
1736.6	10.9361
1738.12	10.297
1739.63	8.97623
1741.15	8.71624
1742.66	8.64038
1744.18	7.38339
1745.69	7.18853
1747.2	6.81985
1748.72	6.05153
1750.23	6.26106
1751.74	5.27024
1753.25	4.79212
1754.77	4.43094
1756.28	4.41042
1757.79	4.18926
1759.3	3.67711
1760.81	2.58418
1762.32	2.32083
1763.83	2.20993
1765.34	1.52101
1766.85	0.44764
1768.36	0.463908
1769.87	0.916132
1771.38	1.09925
1772.89	0.477377
1774.4	0.778998
1775.91	0.400347
1777.41	1.05432
1778.92	1.30754
1780.43	1.86311
1781.94	1.70811
1783.44	2.23799
1784.95	1.96525
1786.45	2.02906
1787.96	1.98467
1789.47	2.41727
1790.97	2.90287
1792.48	2.95892
1793.98	2.83338
1795.48	2.4128
1796.99	2.07608
1798.49	2.05571
1800	1.53928
1801.5	1.64849
1803	1.58807
1804.51	1.09811
1806.01	0.973365
1807.51	0.675728
1809.01	0.921236
1810.51	0.975812
1812.02	1.24283
1813.52	0.731349
1815.02	0.31609
1816.52	0.0280721
1818.02	-0.0203086
1819.52	-0.412674
1821.02	-0.424816
1822.52	-1.10181
1824.02	-1.18008
1825.51	-1.21505
1827.01	-0.519994
1828.51	-0.163869
1830.01	0.246953
1831.51	-0.0152912
1833	0.0210325
1834.5	-0.0653831
1836	-0.502729
1837.5	-0.249372
1838.99	0.0568415
1840.49	-0.0813604
1841.98	0.611574
1843.48	0.674367
1844.97	1.40658
1846.47	1.74318
1847.96	1.48848
1849.46	1.68329
1850.95	2.10527
1852.45	2.63932
1853.94	2.52968
1855.43	2.62101
1856.92	2.49712
1858.42	2.91076
1859.91	2.48826
1861.4	3.05524
1862.89	2.95925
1864.39	3.01286
1865.88	3.23064
1867.37	2.04635
1868.86	1.93812
1870.35	2.3811
1871.84	2.41086
1873.33	2.37147
1874.82	3.30318
1876.31	4.12457
1877.8	4.06818
1879.29	4.36545
1880.77	4.68573
1882.26	4.82081
1882.51	4.90837
1884	4.90862
1885.5	5.16756
1886.99	5.07704
1888.48	5.16777
1889.98	5.17244
1891.47	5.43982
1892.97	5.78505
1894.46	6.23294
1895.95	6.20564
1897.44	6.85305
1898.93	7.14631
1900.42	7.41584
1901.92	6.72267
1903.41	7.16862
1904.9	7.50899
1906.39	7.08415
1907.88	6.86726
1909.37	6.38312
1910.86	6.38902
1912.35	6.18701
1913.84	5.71089
1915.32	5.82798
1916.81	5.38369
1918.3	4.89736
1919.79	4.30518
1921.28	3.47521
1922.76	4.15069
1924.25	4.24031
1925.74	3.65729
1927.22	3.28487
1928.71	2.90854
1930.2	3.37473
1931.68	3.10581
1933.17	3.2572
1934.65	2.59989
1936.14	2.94948
1937.62	3.04635
1939.11	3.35557
1940.59	2.97973
1942.08	3.87454
1943.56	4.47369
1945.04	4.80584
1946.53	4.98703
1948.01	5.56614
1949.49	5.22508
1950.97	4.96986
1952.45	5.08399
1953.94	5.2206
1955.42	5.3066
1956.9	5.06304
1958.38	5.33625
1959.86	5.00739
1961.34	5.25869
1962.82	5.40967
1964.3	5.58488
1965.78	5.80294
1967.26	5.72182
1968.74	5.92674
1970.22	5.60754
1971.69	5.67848
1973.17	5.72687
1974.65	5.55101
1976.13	5.74048
1977.61	6.0795
1979.08	6.70603
1980.56	6.48325
1982.03	6.52687
1983.51	6.34797
1984.99	6.83663
1986.46	7.02742
1987.94	7.55681
1989.41	7.96108
1990.89	8.0131
1992.36	7.90249
1993.84	7.95552
1995.31	8.72209
1996.78	8.59361
1998.26	8.35591
1999.73	7.29216
2001.2	7.62907
2002.68	8.04508
2004.15	8.49858
2005.62	8.10865
2007.09	8.6046
2008.56	8.88436
2010.04	10.0385
2011.51	10.2144
2012.98	11.336
2014.45	11.139
2015.92	11.3768
2017.39	11.9431
2018.86	12.1253
2020.33	11.1658
2021.8	11.9475
2023.27	12.9003
2024.74	13.1142
2026.2	12.8369
2027.67	13.2925
2029.14	12.488
2030.61	12.3272
2032.07	12.7975
2033.54	13.1599
2035.01	14.0994
2036.47	13.3887
2037.94	13.4042
2039.41	13.3602
2040.87	12.4759
2042.34	12.4489
2043.8	12.3417
2045.27	13.4006
2046.73	14.2352
2048.2	14.2119
2049.66	15.3826
2051.12	15.3888
2052.59	15.6369
2054.05	15.7861
2055.51	15.5729
2056.98	16.1911
2058.44	16.441
2059.9	16.699
2061.36	17.3664
2062.82	17.1446
2064.29	17.2493
2065.75	18.063
2067.21	18.8634
2068.67	19.928
2070.13	19.8234
2071.59	20.5496
2073.05	20.9132
2074.51	22.8714
2075.97	24.3161
2077.43	25.1896
2078.88	26.6884
2080.34	27.9142
2081.8	29.0491
2083.26	30.8941
2084.72	31.9577
2086.17	33.7529
2087.63	34.9524
2089.09	36.63
2090.54	37.7865
2092	38.3162
2093.46	39.7938
2094.91	41.8672
2096.37	43.2001
2097.82	43.7286
2099.28	44.9879
2100.73	46.8426
2102.19	48.2178
2103.64	49.8949
2105.09	51.9805
2106.55	52.848
2108	54.11
2109.46	54.6226
2110.91	56.4099
2112.36	57.7702
2113.81	59.0859
2115.27	60.8089
2116.72	62.9303
2118.17	65.7879
2119.62	67.9101
2121.07	69.5948
2122.52	72.1187
2123.97	74.3346
2125.42	76.653
2126.87	79.1936
2128.32	81.2848
2129.77	84.1596
2131.22	87.4722
2132.67	90.699
2134.12	93.3497
2135.57	95.9505
2137.01	98.4891
2138.46	101.804
2139.91	104.825
2141.36	108.357
2142.8	111.354
2144.25	114.078
2145.7	116.902
2147.14	120.351
2148.59	122.828
2150.03	125.891
2151.48	129.13
2152.92	131.438
2154.37	134.425
2155.81	137.515
2157.26	139.342
2158.7	142.235
2160.15	144.064
2161.59	145.376
2163.03	147.654
2164.48	149.6
2165.92	151.63
2167.36	152.819
2168.8	153.682
2170.25	155.251
2171.69	156.349
2173.13	156.752
2174.57	156.811
2176.01	155.744
2177.45	155.418
2178.89	154.484
2180.33	153.559
2181.77	151.738
2183.21	150.592
2184.65	149.27
2186.09	147.151
2187.53	145.295
2188.97	143.921
2190.41	142.562
2191.84	140.459
2193.28	137.289
2194.72	135.154
2196.16	132.586
2197.59	129.143
2199.03	126
2200.47	123.509
2201.9	121.006
2203.34	118.092
2204.78	114.272
2206.21	110.929
2207.65	108.122
2209.08	105.136
2210.51	102.156
2211.95	99.1144
2213.38	95.5267
2214.82	91.6548
2216.25	87.8721
2217.68	84.9327
2219.12	81.7491
2220.55	79.0303
2221.98	76.9962
2223.42	73.9405
2224.85	71.7067
2226.28	68.9411
2227.71	67.0712
2229.14	64.6582
2230.57	62.6186
2232	59.5123
2233.43	57.5549
2234.86	55.8019
2236.29	53.5853
2237.72	51.2331
2239.15	49.4069
2240.58	47.6408
2242.01	46.8833
2243.44	44.3799
2244.87	42.5109
2246.3	40.924
2247.73	39.041
2249.15	37.5425
2250.58	35.9485
2252.01	34.6377
2253.43	33.3442
2254.86	32.6002
2256.29	31.8381
2257.71	31.0175
2259.14	30.9365
2260.56	30.8384
2261.99	30.5915
2263.41	29.9686
2264.84	29.4062
2266.26	29.1168
2267.69	27.8879
2269.11	27.3054
2270.54	26.8179
2271.96	27.1367
2273.38	26.8575
2274.81	26.2105
2276.23	25.1995
2277.65	24.1089
2279.07	23.2603
2280.49	22.1679
2281.92	21.3753
2283.34	20.9785
2284.76	20.0743
2286.18	19.6531
2287.6	19.4032
2289.02	18.2688
2290.44	16.9302
2291.86	17.0087
2293.28	15.5359
2294.7	14.571
2296.12	14.0553
2297.54	13.9641
2298.96	14.061
2300.38	12.6564
2301.79	12.0947
2303.21	11.2653
2304.63	11.1254
2306.05	10.9032
2307.46	10.2565
2308.88	9.95924
2310.3	10.1399
2311.71	9.58609
2313.13	9.01026
2314.55	9.39391
2315.96	9.46945
2317.38	8.88399
2318.79	8.94434
2320.21	8.51474
2321.62	8.55728
2323.03	9.22044
2324.45	9.07747
2325.86	9.60327
2327.27	10.6003
2328.69	10.5426
2330.1	10.311
2331.51	10.5286
2332.93	10.0363
2334.34	9.83718
2335.75	9.58167
2337.16	9.14093
2338.57	8.94984
2339.99	8.78732
2341.4	8.00357
2342.81	7.75197
2344.22	7.2357
2345.63	6.42093
2347.04	5.78721
2348.45	5.13246
2349.86	5.40953
2351.26	4.98493
2352.67	4.2615
2354.08	3.12061
2355.49	3.03593
2356.9	2.50856
2358.31	1.76036
2359.71	0.713164
2361.12	1.2437
2362.53	1.5113
2363.94	0.916399
2365.34	1.55998
2366.75	1.68274
2368.15	1.91949
2369.56	1.07224
2370.97	1.22246
2372.37	2.39121
2373.78	2.26987
2375.18	2.91344
2376.59	3.83721
2377.99	3.32296
2379.39	3.67825
2380.8	3.13733
2382.2	3.15369
2383.61	3.71567
2385.01	4.52171
2386.41	3.31402
2387.81	3.16797
2389.22	3.32855
2390.62	3.26436
2392.02	4.03889
2393.42	3.63701
2394.82	3.31659
2396.22	3.08471
2397.63	3.12388
2399.02	2.81851
2400.43	2.99746
2401.82	3.58373
2403.23	3.32659
2404.62	3.35583
2406.02	3.71792
2407.42	3.97776
2408.82	3.91656
2410.22	4.0055
2411.62	4.28875
2413.02	4.69719
2414.41	4.85146
2415.81	4.83028
2417.21	4.70376
2418.61	4.79059
2420	4.5026
2421.4	4.05998
2422.79	3.76048
2424.19	3.96185
2425.59	4.50615
2426.98	4.67776
2428.38	4.75146
2429.77	4.76757
2431.17	5.51442
2432.56	4.97259
2433.96	4.6385
2435.35	4.62773
2436.74	4.30427
2438.14	4.2669
2439.53	4.18424
2440.92	4.89386
2442.32	5.23542
2443.71	4.38791
2445.1	4.11824
2446.49	3.37881
2447.88	2.7303
2449.28	2.85234
2450.67	3.2786
2452.06	4.01685
2453.45	3.98656
2454.84	4.3579
2456.23	3.61715
2457.62	3.7014
2459.01	3.68875
2460.4	3.56359
2461.79	3.10402
2463.18	3.09033
2464.57	3.60513
2465.96	3.71822
2467.34	4.37653
2468.73	4.77621
2470.12	5.05796
2471.51	5.26376
2472.89	5.51081
2474.28	6.36804
2475.67	6.60836
2477.05	6.75762
2478.44	6.41086
2479.83	6.62981
2481.21	6.33209
2482.6	6.03925
2483.98	6.12207
2485.37	5.76413
2486.75	5.44842
2488.14	5.49261
2489.52	5.07234
2490.9	5.33167
2492.29	5.12104
2493.67	5.24902
2495.06	5.60125
2496.44	6.20344
2497.82	5.95877
2499.2	6.07677
2500.59	5.6784
2501.97	4.45941
2503.35	4.2055
2504.73	3.88981
2506.11	3.58018
2507.49	3.29355
2508.88	4.09436
2510.26	3.7544
2511.63	3.61801
2513.01	3.62891
2514.39	4.18468
2515.77	4.64082
2517.15	5.49126
2518.53	5.79429
2519.91	6.22218
2521.29	5.7647
2522.67	5.61469
2524.05	5.86503
2525.42	5.3503
2526.8	5.25366
2528.18	5.57109
2529.56	5.55636
2530.93	6.31656
2532.31	6.4419
2533.69	6.66853
2535.06	6.68071
2536.44	6.54936
2537.81	6.33253
2539.19	6.0763
2540.56	5.63123
2541.94	5.78045
2543.31	5.67134
2544.69	4.99131
2546.06	5.40939
2547.44	5.0602
2548.81	5.49742
2550.18	5.72388
2551.56	5.82551
2552.93	6.31297
2554.3	6.58639
2555.68	7.32507
2557.05	7.26019
2558.42	7.28826
2559.79	7.435
2561.16	7.47231
2562.53	8.35108
2563.9	8.27874
2565.28	7.98077
2566.64	7.36212
2568.02	7.00787
2569.38	6.32026
2570.76	6.25701
2572.12	6.02379
2573.49	4.79247
2574.86	4.47453
2576.23	4.10993
2577.6	4.48248
2578.97	3.79765
2580.34	4.7699
2581.7	4.56461
2583.07	4.03297
2584.44	4.20856
2585.81	4.37251
2587.17	4.36381
2588.54	4.79537
2589.91	4.81447
2591.27	4.7628
2592.64	4.87823
2594	4.26344
2595.37	4.44801
2596.73	5.12225
2598.1	4.85407
2599.46	4.04978
2600.83	3.54057
2602.19	3.44901
2603.55	3.03366
2604.92	2.85504
2606.28	2.96629
2607.64	2.725
2609.01	2.77912
2610.37	3.06131
2611.73	3.52148
2613.09	3.31613
2614.46	3.64334
2615.82	3.37029
2617.18	3.48571
2618.54	3.69302
2619.9	3.64591
2621.26	3.62093
2622.62	3.88887
2623.98	4.5819
2625.34	4.42449
2626.7	4.41163
2628.06	4.263
2629.42	4.29404
2630.78	4.48186
2632.14	3.59708
2633.5	3.50325
2634.86	3.50346
2636.22	3.52523
2637.57	3.38461
2638.93	3.63726
2640.29	3.14381
2641.64	3.13282
2643	3.41928
2644.36	3.55195
2645.72	4.41056
2647.07	4.98138
2648.43	5.44825
2649.78	5.24052
2651.14	5.76495
2652.49	6.62761
2653.85	7.12091
2655.2	7.5096
2656.56	7.75915
2657.91	7.91463
2659.27	8.18292
2660.62	8.1553
2661.97	8.17723
2663.33	9.47291
2664.68	9.02248
2666.03	9.00333
2667.38	9.00572
2668.74	9.87164
2670.09	10.183
2671.44	10.5306
2672.79	10.0849
2674.14	10.0533
2675.49	9.25645
2676.84	9.48742
2678.2	9.5534
2679.55	9.16183
2680.89	8.95095
2682.24	9.54493
2683.59	9.38051
2684.94	9.58219
2686.29	9.38155
2687.64	9.53841
2688.99	9.79566
2690.34	10.1786
2691.69	10.3292
2693.04	9.52196
2694.38	9.08944
2695.73	9.00965
2697.08	9.12157
2698.43	8.54511
2699.77	8.3294
2701.12	8.96115
2702.46	9.32619
2703.81	9.58586
2705.16	9.64102
2706.5	9.72554
2707.85	9.74985
2709.19	10.4174
2710.54	10.0631
2711.88	9.9128
2713.23	10.7516
2714.57	11.0807
2715.92	11.1233
2717.26	11.3883
2718.6	11.5131
2719.95	12.264
2721.29	12.3582
2722.63	12.0608
2723.97	12.2303
2725.32	12.0222
2726.66	11.638
2728	11.8238
2729.34	12.262
2730.68	12.2616
2732.02	12.0281
2733.36	11.8556
2734.7	11.6911
2736.04	10.8126
2737.39	10.1333
2738.72	9.48932
2740.06	8.84116
2741.4	8.83552
2742.74	7.79643
2744.08	7.7611
2745.42	7.2436
2746.76	6.77412
2748.1	6.55745
2749.44	6.24487
2750.77	5.60069
2752.11	5.35621
2753.45	4.70824
2754.78	4.93671
2756.12	4.46348
2757.46	3.85196
2758.79	3.57375
2760.13	2.91707
2761.47	2.91059
2762.8	2.79259
2764.14	2.47784
2765.47	2.28098
2766.81	2.88495
2768.14	3.26912
2769.48	2.97836
2770.81	2.73224
2772.14	2.7438
2773.48	2.75769
2774.81	2.7144
2776.14	1.67822
2777.48	1.17153
2778.81	1.12823
2780.14	1.51391
2781.47	1.62414
2782.81	1.30458
2784.14	1.2475
2785.47	1.46528
2786.8	1.5688
2788.13	1.04152
2789.46	0.941562
2790.79	1.29965
2792.12	0.92826
2793.46	1.39279
2794.79	1.14524
2796.11	0.63763
2797.44	0.393619
2798.77	-0.24257
2800.1	-1.44993
2801.43	-1.93178
2802.76	-2.66882
2804.09	-2.21048
2805.42	-2.15412
2806.74	-1.85346
2808.07	-2.44541
2809.4	-2.89096
2810.73	-2.52524
2812.05	-2.11663
2813.38	-1.9232
2814.71	-1.23407
2816.03	-0.647243
2817.36	0.459346
2818.68	2.0167
2820.01	4.30483
2821.33	6.14952
2822.66	8.02643
2823.98	9.71821
2825.31	12.4293
2826.63	15.0957
2827.96	17.898
2829.28	20.2444
2830.61	23.2237
2831.93	27.2605
2833.25	31.2333
2834.57	35.2215
2835.9	38.7893
2837.22	42.5375
2838.54	47.4739
2839.86	52.0177
2841.18	57.4304
2842.51	62.1474
2843.83	68.9794
2845.15	74.7805
2846.47	81.5214
2847.79	88.2307
2849.11	95.1123
2850.43	101.746
2851.75	108.708
2853.07	114.779
2854.39	121.956
2855.71	128.46
2857.03	134.751
2858.35	140.518
2859.67	147.161
2860.98	152.022
2862.3	157.738
2863.62	163.316
2864.94	167.894
2866.25	173.265
2867.57	178.304
2868.89	183.777
2870.21	189.142
2871.52	192.73
2872.84	196.611
2874.15	200.107
2875.47	203.93
2876.78	208.098
2878.1	211.361
2879.42	215.48
2880.73	219.154
2882.04	222.711
2883.36	226.617
2884.67	230.555
2885.99	233.275
2887.3	236.291
2888.61	239.487
2889.93	243.086
2891.24	247.471
2892.55	252.654
2893.87	257.558
2895.18	263.277
2896.49	269.883
2897.8	276.83
2899.11	283.245
2900.42	290.31
2901.74	297.345
2903.05	305.501
2904.36	314.848
2905.67	323.755
2906.98	334.19
2908.29	344.565
2909.6	355.564
2910.91	365.346
2912.22	376.396
2913.53	386.497
2914.83	396.627
2916.14	406.108
2917.45	415.487
2918.76	424.076
2920.07	433.434
2921.37	440.009
2922.68	446.964
2923.99	453.205
2925.3	459.039
2926.6	462.954
2927.91	467.505
2929.22	470.177
2930.52	471.294
2931.83	472.779
2933.13	472.35
2934.44	471.998
2935.74	470.561
2937.05	466.927
2938.35	463.852
2939.66	459.526
2940.96	454.623
2942.27	449.17
2943.57	442.515
2944.87	435.853
2946.18	427.93
2947.48	419.576
2948.78	410.531
2950.09	401.617
2951.39	391.126
2952.69	382.297
2953.99	372.223
2955.29	363.625
2956.6	355.118
2957.9	346.489
2959.2	336.288
2960.5	326.404
2961.8	317.009
2963.1	307.974
2964.4	298.319
2965.7	289.238
2967	280.618
2968.3	272.418
2969.6	264.775
2970.9	256.478
2972.2	249.522
2973.49	241.305
2974.79	232.83
2976.09	225.033
2977.39	217.388
2978.69	208.767
2979.98	200.662
2981.28	193.119
2982.58	185.579
2983.88	178.706
2985.17	170.974
2986.47	162.666
2987.76	155.593
2989.06	148.362
2990.36	140.62
2991.65	133.332
2992.95	126.043
2994.24	118.667
2995.54	111.598
2996.83	105.442
2998.12	99.5451
2999.42	93.9206
3000.71	87.7633
3002	81.7128
3003.3	76.6955
3004.59	71.4868
3005.88	66.247
3007.18	61.259
3008.47	57.0678
3009.76	51.8725
3011.05	47.3909
3012.35	43.2693
3013.64	39.7508
3014.93	35.9974
3016.22	32.4954
3017.51	30.5516
3018.8	27.7559
3020.09	26.1693
3021.38	23.2543
3022.67	20.8774
3023.96	18.7194
3025.25	17.8442
3026.54	16.7942
3027.83	15.4881
3029.12	14.1107
3030.41	13.3701
3031.69	12.9371
3032.98	12.2164
3034.27	12.1652
3035.56	12.0701
3036.85	12.8688
3038.13	12.882
3039.42	12.9916
3040.71	13.6777
3041.99	13.5462
3043.28	14.0885
3044.57	14.8242
3045.85	15.9201
3047.14	16.5026
3048.42	16.7612
3049.71	16.6251
3050.99	17.0554
3052.28	16.967
3053.56	17.2426
3054.85	16.7042
3056.13	17.0397
3057.42	16.7025
3058.7	17.0453
3059.98	17.2028
3061.27	17.2221
3062.55	17.1728
3063.83	16.4946
3065.11	16.1075
3066.4	15.6657
3067.68	14.6935
3068.96	13.5452
3070.24	12.3595
3071.52	11.2643
3072.8	10.35
3074.09	9.20526
3075.37	8.96934
3076.65	8.18411
3077.93	7.03814
3079.21	6.13417
3080.49	5.40736
3081.77	4.94317
3083.05	4.05736
3084.32	3.65299
3085.61	2.79212
3086.88	3.24338
3088.16	2.7811
3089.44	2.35273
3090.72	1.58083
3092	0.940305
3093.27	0.549995
3094.55	0.82101
3095.83	0.19773
3097.11	0.245082
3098.38	0.442162
3099.66	0.957775
3100.94	0.971932
3102.21	1.18501
3103.49	0.907585
3104.76	1.30894
3106.04	1.54174
3107.31	1.65919
3108.59	1.57818
3109.86	1.9494
3111.14	2.09131
3112.41	2.22984
3113.69	2.43612
3114.96	2.70363
3116.23	3.16724
3117.51	3.76574
3118.78	4.02618
3120.05	4.83552
3121.33	5.47193
3122.6	6.25413
3123.87	6.59755
3125.14	6.53048
3126.42	7.24882
3127.69	7.36695
3128.96	7.54783
3130.23	7.88172
3131.5	8.32743
3132.77	8.94081
3134.04	9.54636
3135.31	10.3683
3136.58	12.0945
3137.85	13.1268
3139.12	13.8491
3140.39	14.5158
3141.66	15.5402
3142.93	16.3705
3144.2	17.0896
3145.47	17.5792
3146.74	17.8924
3148	18.1794
3149.27	17.8936
