#Acq. time (s)=	45
#Accumulations=	2
#Range (cm-¹)=	200...3150
#Windows=	2
#Auto scanning=	Off
#Autofocus=	Off
#Macrospot=	Off
#AutoExposure=	Off
#Spike filter=	Multiple accum.
#Delay time (s)=	0
#Binning=	1
#Readout mode=	Signal
#DeNoise=	Off
#ICS correction=	On
#Dark correction=	Off
#Inst. Process=	Off
#Detector Gain=	Best Dynamic Range
#Detector ADC=	20 kHz       
#Detector temperature (°C)=	-69.85
#Instrument=	LabRAM HR Evol
#Detector=	Synapse
#Objective=	x100
#Grating=	600 gr/mm
#ND Filter=	100%
#Laser (nm)=	532 
#Hole=	100.021
#Range=	Auto
#Laser Pol.=	No
#Raman. Pol.=	No
#Laser Pol. (°)=	-0.0007625
#Raman Pol. (°)=	89.9995
#Collection=	Microscope
#StageXY=	Marzhauser
#StageZ=	Marzhauser
#X (µm)=	-6375.1
#Y (µm)=	725.6
#Z (µm)=	-64.85
#Full time(mm:ss)=	3:19
#Project=	
#Sample=	
#Site=	
#Title=	Mb_30_27_48_2x_45s_532 nm_x100_100%_600 gr_mm
#Remark=	
#Date=	13.07.2022 12:24
#Acquired=	13.07.2022 12:24:10
#Base:Fit=	10.08.2022 10:40:03
#Base:Sub=	10.08.2022 10:40:17
#Filter:Polynom=	16.08.2022 10:16:15
#AxisType[0]=Intens
#AxisUnit[0]=Cnt
#AxisType[1]=Spectr
#AxisUnit[1]=1/cm
200.563	3.36453
202.377	6.29541
204.194	8.73216
206.008	9.61494
207.821	9.87246
209.634	10.3649
211.449	10.1319
213.262	9.67549
215.074	9.61162
216.885	9.90734
218.699	9.51907
220.51	9.02563
222.321	8.29013
224.131	7.76627
225.941	7.7961
227.751	8.28104
229.562	8.43007
231.371	8.55163
233.18	7.76156
234.988	7.82397
236.796	7.70158
238.603	6.34796
240.411	5.86918
242.219	6.79236
244.026	7.23582
245.832	6.74868
247.638	6.15306
249.443	6.01369
251.248	5.34163
253.053	4.48489
254.857	4.87096
256.661	4.69407
258.465	5.54258
260.268	6.05941
262.071	7.0984
263.874	7.21865
265.678	8.48094
267.48	10.0004
269.282	10.4189
271.083	10.8759
272.884	11.176
274.684	10.9036
276.484	12.2219
278.284	13.2266
280.084	12.7435
281.883	12.6919
283.682	12.9436
285.48	13.1221
287.276	12.1664
289.074	12.2126
290.871	11.539
292.668	10.7534
294.465	10.3703
296.261	10.7551
298.057	10.5852
299.853	10.3259
301.648	10.3914
303.443	10.5168
305.237	10.9323
307.032	10.4295
308.823	10.1469
310.617	11.0831
312.41	11.1218
314.203	10.99
315.995	10.9765
317.788	11.0715
319.579	10.5789
321.369	10.1054
323.16	9.16608
324.951	9.73487
326.741	9.21527
328.531	8.44251
330.321	8.82584
332.108	8.9589
333.897	8.04716
335.686	7.1899
337.474	8.09891
339.26	7.82686
341.048	7.6196
342.835	7.21929
344.622	8.25265
346.406	8.36529
348.192	8.62064
349.978	8.69199
351.764	8.38062
353.547	6.9351
355.332	7.23772
357.116	6.45529
358.901	5.67229
360.682	5.15805
362.466	4.07862
364.249	4.78829
366.03	5.41473
367.812	4.5786
369.594	4.98966
371.374	5.52386
373.155	5.25843
374.936	4.61233
376.715	3.90745
378.495	3.94333
380.273	3.74322
382.053	4.07968
383.832	4.66478
385.609	5.12198
387.388	5.35151
389.164	6.145
390.942	6.37904
392.72	6.1576
394.495	6.83277
396.272	7.09559
398.047	7.95705
399.823	7.35731
401.597	6.64109
403.372	6.63992
405.145	6.50812
406.92	6.99462
408.693	7.75938
410.467	7.89956
412.239	7.89706
414.012	8.29873
415.783	7.66876
417.556	7.24624
419.327	6.92431
421.099	6.98254
422.869	6.89428
424.64	6.51836
426.409	6.87192
428.18	5.83078
429.948	5.25102
431.718	5.08146
433.486	5.5529
435.253	4.73892
437.022	4.1425
438.789	3.59435
440.558	2.37783
442.324	1.75595
444.089	1.7183
445.857	1.56512
447.622	2.05316
449.386	1.77413
451.153	1.74911
452.917	2.29895
454.682	2.47251
456.446	2.28054
458.208	3.25518
459.973	2.50053
461.735	2.50367
463.497	2.27524
465.259	3.16883
467.022	4.2207
468.783	4.17598
470.544	4.19993
472.306	4.98729
474.066	4.88222
475.825	5.52841
477.585	5.87181
479.346	6.2049
481.104	6.64494
482.862	6.85028
484.62	6.81897
486.38	7.02167
488.137	6.96834
489.894	8.2486
491.65	8.67539
493.407	9.09042
495.164	9.76723
496.92	10.4039
498.675	10.4188
500.43	10.2783
502.184	10.3261
503.939	10.3757
505.694	10.187
507.448	9.76922
509.201	9.9256
510.954	9.88113
512.706	9.85498
514.459	10.4611
516.21	10.2307
517.962	9.89255
519.715	10.2065
521.466	9.26947
523.216	9.17161
524.966	8.7278
526.716	9.19322
528.466	8.99432
530.215	9.6837
531.964	9.42373
533.712	9.83977
535.46	9.17379
537.208	8.6367
538.955	8.25934
540.703	8.25751
542.449	8.37847
544.196	7.52381
545.942	7.59445
547.688	8.03414
549.433	8.74804
551.178	8.85057
552.923	8.71148
554.667	8.51246
556.412	7.72668
558.155	8.48193
559.899	9.12169
561.642	9.45059
563.385	10.4394
565.127	9.91846
566.867	11.2057
568.609	10.5549
570.35	10.3551
572.092	10.3491
573.832	10.9764
575.573	10.6064
577.313	11.0383
579.053	10.162
580.79	9.9756
582.529	9.09248
584.268	9.83561
586.006	9.98762
587.745	9.10096
589.482	9.41216
591.218	9.19633
592.955	9.28192
594.692	9.51292
596.428	9.60274
598.164	9.16599
599.898	8.95967
601.634	8.98892
603.369	8.39782
605.104	7.77981
606.836	7.61952
608.57	7.64721
610.304	8.53263
612.037	9.54095
613.769	9.85293
615.501	9.42123
617.234	9.79284
618.966	9.46241
620.696	9.9947
622.427	9.87031
624.159	10.5568
625.887	10.2919
627.618	10.9261
629.348	10.91
631.076	11.4469
632.806	12.6625
634.535	12.8398
636.262	13.0281
637.99	13.2674
639.716	13.6288
641.444	14.4478
643.172	15.2227
644.897	16.8258
646.624	18.2766
648.348	18.748
650.075	18.8924
651.801	18.9389
653.524	20.3236
655.249	19.4832
656.972	20.9276
658.697	20.9516
660.419	21.4138
662.143	20.8074
663.865	22.1251
665.588	21.8829
667.309	23.3505
669.032	23.9591
670.752	25.0881
672.474	25.9168
674.194	26.1369
675.915	27.5992
677.634	28.6359
679.355	29.3593
681.073	29.7773
682.793	29.6478
684.511	30.6925
686.23	31.8709
687.947	32.8232
689.664	33.8708
691.382	35.4741
693.098	35.7896
694.816	36.6886
696.531	37.9876
698.247	38.1129
699.963	37.6922
701.678	38.8975
703.392	39.1499
705.108	40.0215
706.821	41.0973
708.534	41.9279
710.249	42.3269
711.962	42.2167
713.674	42.6003
715.388	42.5932
717.099	43.725
718.81	44.1849
720.523	44.4121
722.234	45.7711
723.944	46.4976
725.654	46.3523
727.365	46.7325
729.075	47.5709
730.784	49.0683
732.492	49.2596
734.202	48.1845
735.91	49.1444
737.618	49.3331
739.325	50.0673
741.034	50.6946
742.741	51.5493
744.447	51.1903
746.153	52.6235
747.859	53.4741
749.564	54.352
751.271	54.5625
752.976	56.1391
754.681	57.0068
756.385	58.3771
758.088	60.9023
759.792	62.7901
761.495	64.7958
763.2	65.9678
764.902	67.5494
766.604	69.5986
768.306	71.7253
770.008	74.046
771.709	75.6873
773.41	77.3073
775.11	79.0273
776.811	80.3512
778.51	80.8636
780.21	81.7734
781.909	82.9091
783.608	83.8729
785.307	85.9967
787.005	86.7268
788.703	87.4545
790.401	88.0697
792.098	88.2443
793.795	89.3991
795.492	89.6377
797.188	90.4443
798.884	90.8481
800.58	91.0305
802.276	92.3406
803.971	91.5638
805.665	91.4696
807.36	91.7988
809.054	91.3649
810.748	90.8936
812.441	91.1758
814.135	91.1565
815.826	90.8356
817.518	89.961
819.21	89.39
820.902	90.245
822.594	89.4956
824.285	89.7908
825.976	89.1408
827.665	88.3933
829.355	86.7839
831.045	86.8053
832.735	85.6447
834.424	84.6636
836.111	83.9885
837.8	84.176
839.488	83.8115
841.177	83.2429
842.864	82.353
844.55	81.7111
846.237	80.3063
847.924	79.5583
849.61	79.1745
851.295	78.4467
852.98	77.8098
854.666	77.0448
856.349	75.651
858.034	74.3152
859.719	73.3041
861.403	72.5207
863.085	70.7001
864.769	69.4086
866.452	69.0323
868.133	68.8959
869.816	67.6492
871.498	66.0296
873.179	65.0472
874.86	64.1274
876.54	64.2082
878.221	64.6397
879.902	63.4257
881.58	63.2203
883.26	63.0471
884.938	62.391
886.618	62.0487
888.297	61.696
889.974	62.9215
891.653	62.7487
893.329	62.2158
895.007	61.9603
896.683	62.7318
898.36	62.7399
900.035	63.2247
901.712	63.3529
903.387	63.1173
905.063	63.3278
906.737	62.7398
908.412	62.5335
910.085	62.0939
911.76	61.8125
913.433	61.23
915.107	61.5116
916.779	60.8872
918.452	60.3131
920.124	59.5782
921.797	59.6165
923.467	58.3048
925.138	57.4616
926.81	56.9941
928.48	57.2902
930.151	56.3788
931.82	55.6778
933.489	54.8236
935.16	54.0965
936.828	53.5921
938.496	53.0383
940.165	52.1136
941.833	51.6294
943.5	51.5423
945.168	51.1383
946.834	50.6348
948.5	51.0732
950.168	50.9477
951.834	50.4441
953.499	49.0071
955.163	48.4166
956.83	47.6194
958.494	47.3287
960.158	46.3392
961.821	46.2458
963.487	45.825
965.15	45.6571
966.812	45.3404
968.474	44.2383
970.138	44.5049
971.8	44.6678
973.461	43.0537
975.123	42.5224
976.783	42.2881
978.446	42.5105
980.106	42.2941
981.766	41.4333
983.425	41.3341
985.084	40.8077
986.743	39.9275
988.402	39.2168
990.06	38.451
991.72	38.0394
993.378	37.4309
995.035	36.1626
996.692	35.2479
998.349	34.6326
1000.01	33.047
1001.66	32.6081
1003.32	31.964
1004.97	31.4319
1006.63	31.1964
1008.28	31.8853
1009.94	32.7995
1011.59	33.2058
1013.25	33.4622
1014.9	33.0467
1016.55	33.8835
1018.21	34.399
1019.86	35.2646
1021.51	35.673
1023.16	35.5477
1024.81	35.7162
1026.47	36.4612
1028.12	37.5764
1029.77	38.5241
1031.42	38.521
1033.07	37.7476
1034.72	37.0576
1036.37	37.1077
1038.02	36.9064
1039.67	36.9352
1041.31	37.4496
1042.96	37.5823
1044.61	37.9639
1046.26	37.3035
1047.91	36.2292
1049.55	36.3368
1051.2	35.3232
1052.84	35.3513
1054.49	35.1539
1056.14	34.7822
1057.78	35.5681
1059.43	35.4035
1061.07	34.8518
1062.72	33.9308
1064.36	33.1987
1066	31.9427
1067.65	31.034
1069.29	29.2954
1070.93	28.6164
1072.58	27.6764
1074.22	26.9399
1075.86	25.5501
1077.5	24.3017
1079.14	22.9766
1080.78	22.3013
1082.42	21.7602
1084.06	22.0179
1085.7	21.1698
1087.34	21.6756
1088.98	22.4546
1090.62	23.0002
1092.26	23.0951
1093.9	22.6083
1095.54	22.3285
1097.17	21.7014
1098.81	22.1509
1100.45	21.3687
1102.09	21.3371
1103.72	20.8698
1105.36	20.4791
1106.99	21.3214
1108.63	21.5295
1110.27	21.6385
1111.9	20.5343
1113.53	18.9595
1115.17	18.6657
1116.8	18.7331
1118.43	18.6679
1120.07	18.0121
1121.7	18.6395
1123.33	18.4467
1124.97	18.1916
1126.6	18.0261
1128.23	18.126
1129.86	18.4595
1131.49	19.304
1133.12	19.2372
1134.75	19.3616
1136.38	19.3855
1138.01	19.0953
1139.64	19.122
1141.27	18.7003
1142.9	17.7123
1144.53	17.3524
1146.16	17.1959
1147.78	16.8778
1149.41	16.2827
1151.04	15.4999
1152.67	15.9651
1154.29	15.9244
1155.92	15.5072
1157.54	14.9176
1159.17	15.0223
1160.8	14.6527
1162.42	14.6849
1164.05	14.6453
1165.67	13.2898
1167.29	12.9568
1168.92	13.2942
1170.54	12.6603
1172.16	11.8797
1173.79	11.6514
1175.41	11.2796
1177.03	9.79597
1178.65	9.70158
1180.28	9.29566
1181.9	9.05881
1183.52	9.18298
1185.14	9.59299
1186.76	10.4803
1188.38	10.7719
1190	10.2746
1191.62	9.36268
1193.24	8.82353
1194.86	9.33565
1196.47	10.1642
1198.09	9.93095
1199.71	10.4561
1201.33	10.4959
1202.95	11.8455
1204.56	12.0114
1206.18	13.422
1207.8	13.6934
1209.41	15.042
1211.03	15.5853
1212.64	15.7507
1214.26	15.7354
1215.87	16.1855
1217.49	17.4405
1219.1	17.7477
1220.71	18.2636
1222.33	18.8119
1223.94	19.9229
1225.55	20.9196
1227.16	22.2012
1228.78	22.0921
1230.39	23.8313
1232	25.8857
1233.61	27.7412
1235.22	29.2221
1236.83	29.5414
1238.44	30.1913
1240.05	30.6467
1241.66	30.1746
1243.27	30.009
1244.88	29.8274
1246.49	30.1939
1248.1	30.713
1249.71	30.493
1251.32	30.9971
1252.92	30.6552
1254.53	30.9256
1256.14	30.0355
1257.74	29.7321
1259.35	31.0086
1260.96	30.7964
1262.56	31.1785
1264.17	30.7057
1265.77	30.6358
1267.38	29.8437
1268.98	29.1397
1270.59	28.6222
1272.19	28.4358
1273.79	29.2459
1275.4	29.6204
1277	28.8722
1278.6	28.778
1280.21	29.7705
1281.81	29.8821
1283.41	30.8474
1285.01	31.5781
1286.61	32.7183
1288.21	32.8307
1289.81	33.1411
1291.41	32.3441
1293.01	32.3087
1294.61	32.9065
1296.21	33.5468
1297.81	33.6429
1299.41	33.7227
1301.01	34.1868
1302.6	35.4259
1304.2	35.8622
1305.8	36.3186
1307.4	37.6051
1308.99	37.9468
1310.59	39.9071
1312.19	40.7624
1313.78	40.7761
1315.38	40.4863
1316.97	40.0298
1318.57	40.4314
1320.16	40.5414
1321.76	39.7974
1323.35	39.905
1324.94	39.3895
1326.54	40.0719
1328.13	39.8735
1329.72	39.5277
1331.32	39.1698
1332.91	37.5804
1334.5	37.2787
1336.09	36.7308
1337.68	36.9639
1339.27	36.87
1340.87	36.6269
1342.45	36.0633
1344.04	35.3295
1345.64	35.6531
1347.22	35.021
1348.81	34.5749
1350.4	33.7509
1351.99	33.6069
1353.58	33.0498
1355.17	32.6194
1356.75	31.6857
1358.34	31.624
1359.93	31.3574
1361.51	30.5814
1363.1	30.6594
1364.69	29.6633
1366.27	28.9362
1367.86	27.9736
1369.44	26.8022
1371.03	26.219
1372.61	25.5987
1374.2	24.4639
1375.78	23.2327
1377.37	23.0075
1378.95	22.823
1380.53	21.8145
1382.11	22.0974
1383.7	21.5366
1385.28	21.4409
1386.86	22.2841
1388.44	21.4927
1390.02	22.1864
1391.6	22.1398
1393.19	21.2402
1394.77	20.9392
1396.35	21.2132
1397.93	20.9825
1399.51	20.9024
1401.08	20.1526
1402.66	19.7373
1404.24	20.3323
1405.82	21.5762
1407.4	20.9232
1408.97	20.4075
1410.55	19.869
1412.13	20.1331
1413.71	21.3188
1415.28	22.0254
1416.86	22.5864
1418.43	23.7267
1420.01	25.1139
1421.59	24.6314
1423.16	25.7455
1424.73	26.2705
1426.31	26.1027
1427.88	26.4238
1429.46	27.1949
1431.03	28.1414
1432.6	28.6686
1434.18	29.4448
1435.75	29.835
1437.32	31.3964
1438.89	32.2237
1440.46	33.4366
1442.04	33.8472
1443.61	33.528
1445.18	33.9501
1446.75	33.2374
1448.32	33.0397
1449.89	32.8772
1451.46	32.1802
1453.03	32.2916
1454.6	32.9134
1456.16	33.3854
1457.73	32.512
1459.3	32.43
1460.87	33.5572
1462.44	32.8991
1464	32.1605
1465.57	31.9478
1467.14	30.8864
1468.7	30.8682
1470.27	29.2279
1471.83	28.5821
1473.4	28.2533
1474.96	28.2997
1476.53	27.5603
1478.09	27.0952
1479.66	26.3318
1481.22	25.9259
1482.78	25.7792
1484.35	24.5355
1485.91	22.8527
1487.47	22.2615
1489.04	22.2676
1490.6	22.6596
1492.16	22.2013
1493.72	21.6243
1495.28	21.5767
1496.84	21.6457
1498.4	20.8607
1499.96	19.9139
1501.52	19.8787
1503.08	19.0104
1504.64	18.735
1506.2	18.53
1507.76	18.2104
1509.32	18.4216
1510.88	17.8205
1512.44	17.8037
1513.99	17.6868
1515.55	17.4058
1517.11	16.2275
1518.66	15.8573
1520.22	14.1668
1521.78	12.9785
1523.33	12.0231
1524.89	11.4956
1526.44	11.3237
1528	10.2309
1529.55	9.25976
1531.11	9.54373
1532.66	9.41388
1534.21	8.41836
1535.77	7.89883
1537.32	7.58618
1538.87	7.50786
1540.43	6.85155
1541.98	7.25467
1543.53	7.44596
1545.08	8.242
1546.63	8.65208
1548.18	8.53815
1549.74	9.14214
1551.29	9.887
1552.84	10.4834
1554.39	11.0608
1555.94	12.1939
1557.48	13.1453
1559.03	12.6949
1560.58	13.0304
1562.13	13.8445
1563.68	14.4078
1565.23	15.889
1566.78	17.2598
1568.32	17.0149
1569.87	17.6183
1571.42	19.3911
1572.96	20.8514
1574.51	21.7369
1576.05	22.4329
1577.6	23.9093
1579.14	24.4725
1580.69	25.5409
1582.24	26.2485
1583.78	26.4074
1585.32	27.3794
1586.87	28.7451
1588.41	28.948
1589.95	28.8393
1591.5	29.1881
1593.04	29.2307
1594.58	29.6125
1596.12	29.992
1597.67	29.7282
1599.21	29.6962
1600.75	28.8984
1602.29	28.3844
1603.83	27.3979
1605.37	27.0444
1606.91	27.1306
1608.45	26.9693
1609.99	26.9486
1611.53	26.3601
1613.07	26.5941
1614.6	27.0281
1616.14	27.7459
1617.68	27.8867
1619.22	27.6593
1620.75	27.3551
1622.29	27.6895
1623.83	27.2306
1625.37	27.488
1626.9	28.318
1628.44	28.5769
1629.97	28.031
1631.51	28.6214
1633.04	28.5489
1634.58	28.0028
1636.11	27.9679
1637.65	28.918
1639.18	30.0063
1640.72	29.6761
1642.25	29.992
1643.78	30.0203
1645.31	30.1875
1646.85	31.6012
1648.38	31.9249
1649.91	31.9982
1651.44	32.3012
1652.97	32.1071
1654.5	32.5103
1656.03	32.4576
1657.56	32.8736
1659.1	32.4043
1660.62	32.4663
1662.15	32.8736
1663.68	32.0329
1665.21	30.4703
1666.74	29.2527
1668.27	29.0846
1669.8	28.0636
1671.32	27.6585
1672.85	26.6291
1674.38	25.3552
1675.91	23.4475
1677.43	22.4945
1678.96	21.6774
1680.49	20.9122
1682.01	20.1069
1683.54	19.171
1685.06	18.2135
1686.59	18.2386
1688.11	16.3795
1689.64	15.9688
1691.16	15.3143
1692.68	14.4235
1694.21	13.7656
1695.73	12.8902
1697.25	12.4171
1698.78	11.8129
1700.3	11.2037
1701.82	10.7993
1703.34	10.4019
1704.86	9.71213
1706.39	9.69337
1707.91	9.78308
1709.43	9.07006
1710.95	8.33627
1712.47	8.27705
1713.99	7.46504
1715.51	7.11037
1717.02	6.18038
1718.54	6.9705
1720.06	7.92555
1721.58	8.20553
1723.1	8.42089
1724.62	8.42457
1726.13	8.72351
1727.65	8.95152
1729.17	8.56179
1730.68	8.71468
1732.2	8.43068
1733.72	8.01204
1735.23	7.6895
1736.75	7.92274
1738.26	7.18077
1739.78	6.71155
1741.29	5.99524
1742.81	6.02339
1744.32	6.03337
1745.84	5.75665
1747.35	5.41457
1748.86	4.77096
1750.37	4.22752
1751.89	3.99361
1753.4	3.93318
1754.91	3.04965
1756.42	2.45944
1757.93	2.06459
1759.45	2.53324
1760.96	2.48912
1762.47	2.70812
1763.98	2.16546
1765.49	2.94582
1767	2.47816
1768.51	2.33237
1770.02	2.53348
1771.53	2.37357
1773.03	2.49861
1774.54	2.4187
1776.05	2.97747
1777.56	3.08762
1779.07	3.36775
1780.57	3.4442
1782.08	3.08427
1783.59	3.05016
1785.09	3.39582
1786.6	3.69502
1788.11	4.20946
1789.61	4.53745
1791.12	4.92261
1792.62	5.37051
1794.13	5.83521
1795.63	5.79107
1797.13	5.52962
1798.64	6.03675
1800.14	6.40616
1801.65	6.27153
1803.15	6.34876
1804.65	6.00388
1806.15	5.66264
1807.66	5.49402
1809.16	5.89243
1810.66	5.92406
1812.16	5.20001
1813.66	4.90962
1815.16	5.21115
1816.66	5.07944
1818.16	4.90217
1819.66	4.8378
1821.16	4.5655
1822.66	4.95481
1824.16	5.39913
1825.66	5.09774
1827.16	5.21148
1828.66	4.94579
1830.16	4.71887
1831.65	5.14602
1833.15	5.49723
1834.65	5.55028
1836.14	5.61625
1837.64	5.57854
1839.14	5.18055
1840.63	4.68573
1842.13	4.69195
1843.62	4.86908
1845.12	5.03874
1846.61	4.94856
1848.11	4.8783
1849.6	4.37664
1851.1	4.86572
1852.59	4.20124
1854.08	4.13004
1855.58	4.27562
1857.07	4.26688
1858.56	4.68546
1860.05	4.85899
1861.55	4.47068
1863.04	4.2868
1864.53	4.05012
1866.02	3.28526
1867.51	3.2545
1869	2.67145
1870.49	2.34385
1871.98	2.67597
1873.47	2.72243
1874.96	2.27668
1876.45	1.38282
1877.94	1.10473
1879.43	0.691003
1880.92	0.0230018
1882.41	0.0660163
1882.51	0.225661
1884	-0.118307
1885.5	0.00316009
1886.99	0.189057
1888.48	0.274825
1889.98	0.155516
1891.47	-0.256922
1892.96	-0.109041
1894.46	0.337869
1895.95	0.498943
1897.44	0.457475
1898.93	0.126496
1900.42	0.852178
1901.91	0.784663
1903.41	0.846116
1904.9	1.59752
1906.39	1.32011
1907.88	1.29345
1909.37	1.63618
1910.86	1.98178
1912.35	2.22327
1913.83	2.62561
1915.32	2.5537
1916.81	2.75984
1918.3	2.8366
1919.79	3.43678
1921.27	3.47947
1922.76	3.68998
1924.25	4.44582
1925.74	4.45756
1927.22	4.92175
1928.71	4.90229
1930.19	4.93219
1931.68	4.81004
1933.17	4.47035
1934.65	3.962
1936.14	4.02362
1937.62	3.34546
1939.11	2.94866
1940.59	3.07362
1942.07	3.01716
1943.56	3.17634
1945.04	3.51903
1946.52	3.07805
1948.01	2.56256
1949.49	2.30167
1950.97	2.26662
1952.45	1.8225
1953.93	1.53767
1955.42	2.0268
1956.9	1.49365
1958.38	1.25208
1959.86	1.05368
1961.34	0.533332
1962.82	0.604287
1964.3	0.484042
1965.78	0.694578
1967.26	0.778741
1968.74	1.25227
1970.21	0.875456
1971.69	0.99645
1973.17	0.800601
1974.65	0.789126
1976.13	0.573918
1977.6	0.587598
1979.08	1.13993
1980.56	0.321773
1982.03	0.301361
1983.51	0.792984
1984.99	0.703373
1986.46	0.467718
1987.94	0.49223
1989.41	0.320125
1990.89	1.26234
1992.36	1.65545
1993.84	2.17522
1995.31	1.67016
1996.78	1.50845
1998.26	1.33907
1999.73	1.24747
2001.2	1.07629
2002.68	1.09174
2004.15	1.44484
2005.62	1.17187
2007.09	1.28521
2008.56	1.07524
2010.04	1.70281
2011.51	1.75094
2012.98	2.25871
2014.45	2.0785
2015.92	2.09204
2017.39	2.2202
2018.86	2.40656
2020.33	2.34693
2021.8	2.51953
2023.26	2.71833
2024.73	2.48171
2026.2	2.519
2027.67	2.64107
2029.14	2.90387
2030.61	2.83986
2032.07	2.98765
2033.54	3.37713
2035.01	3.98923
2036.47	4.43345
2037.94	4.46465
2039.4	4.81414
2040.87	4.68851
2042.33	4.94134
2043.8	4.89574
2045.27	4.91383
2046.73	5.00456
2048.19	5.11152
2049.66	5.76447
2051.12	5.69302
2052.59	5.84785
2054.05	5.93835
2055.51	6.70209
2056.97	7.14742
2058.44	7.51783
2059.9	7.78915
2061.36	8.30754
2062.82	8.62751
2064.28	9.00184
2065.74	9.70497
2067.21	9.87748
2068.67	10.2895
2070.13	10.6336
2071.59	11.2139
2073.05	11.3383
2074.51	11.3983
2075.96	11.2676
2077.42	11.5815
2078.88	11.4272
2080.34	11.9165
2081.8	11.8007
2083.26	12.2693
2084.72	12.223
2086.17	12.0048
2087.63	11.9045
2089.09	12.172
2090.54	12.4959
2092	12.5628
2093.45	12.5545
2094.91	12.125
2096.37	12.0583
2097.82	12.2773
2099.28	12.5578
2100.73	12.8954
2102.19	13.3127
2103.64	13.5562
2105.09	13.601
2106.55	14.1764
2108	13.9493
2109.45	14.4201
2110.91	14.3799
2112.36	14.6662
2113.81	14.6792
2115.26	14.7354
2116.72	14.9678
2118.17	15.7247
2119.62	16.2702
2121.07	16.8351
2122.52	17.3247
2123.97	17.5636
2125.42	18.2883
2126.87	19.1718
2128.32	19.4572
2129.77	19.9346
2131.22	20.8214
2132.67	21.5481
2134.11	22.874
2135.56	23.3201
2137.01	24.5703
2138.46	26.1447
2139.91	26.8258
2141.35	27.6675
2142.8	27.6313
2144.25	27.7816
2145.7	28.0788
2147.14	28.6806
2148.59	29.1011
2150.03	29.7025
2151.48	29.8366
2152.92	30.3
2154.37	30.5118
2155.81	31.3951
2157.26	32.0166
2158.7	32.6361
2160.15	32.931
2161.59	32.9131
2163.03	33.3101
2164.47	33.4409
2165.92	33.6635
2167.36	33.9316
2168.8	34.5833
2170.24	34.7485
2171.69	34.7367
2173.13	34.9864
2174.57	35.4577
2176.01	35.4977
2177.45	35.2604
2178.89	34.7303
2180.33	33.9382
2181.77	34.0293
2183.21	32.7401
2184.65	32.6359
2186.09	32.5645
2187.53	32.0572
2188.97	32.0031
2190.4	31.6576
2191.84	30.9995
2193.28	30.8258
2194.72	30.2898
2196.16	29.9877
2197.59	29.2498
2199.03	28.8137
2200.47	28.5715
2201.9	28.7904
2203.34	27.787
2204.77	27.3813
2206.21	26.5851
2207.64	25.7255
2209.08	25.2105
2210.51	24.3899
2211.95	22.8205
2213.38	21.4113
2214.82	20.1491
2216.25	19.6987
2217.68	19.5371
2219.12	18.6264
2220.55	17.4014
2221.98	16.6071
2223.41	15.857
2224.85	15.6532
2226.28	15.4151
2227.71	15.7003
2229.14	15.0724
2230.57	14.27
2232	13.4905
2233.43	13.2177
2234.86	12.9081
2236.29	12.3464
2237.72	12.0931
2239.15	11.8496
2240.58	11.355
2242.01	10.6995
2243.44	10.6783
2244.87	10.4063
2246.29	10.2117
2247.72	9.46642
2249.15	9.00615
2250.58	8.6291
2252.01	8.77617
2253.43	8.90504
2254.86	8.71673
2256.29	9.38691
2257.71	8.83283
2259.14	8.58805
2260.56	8.72359
2261.99	9.27232
2263.41	9.77436
2264.84	10.0699
2266.26	9.61584
2267.69	9.47626
2269.11	9.59072
2270.53	9.47404
2271.96	9.92509
2273.38	9.44904
2274.8	8.98001
2276.23	9.45741
2277.65	9.48172
2279.07	9.39664
2280.49	9.00231
2281.91	8.58855
2283.34	8.18708
2284.76	8.60011
2286.18	9.02292
2287.6	8.93068
2289.02	8.71606
2290.44	7.61577
2291.86	6.91783
2293.28	6.57083
2294.7	6.53533
2296.12	7.29309
2297.54	7.94223
2298.96	7.93467
2300.37	7.72789
2301.79	8.03305
2303.21	8.31015
2304.63	8.30052
2306.04	8.03552
2307.46	8.25637
2308.88	8.28077
2310.3	8.1764
2311.71	8.37024
2313.13	8.59553
2314.54	8.48736
2315.96	8.5119
2317.37	8.63793
2318.79	8.70647
2320.2	8.87294
2321.62	9.01558
2323.03	8.84033
2324.45	8.49334
2325.86	8.58265
2327.27	8.92328
2328.69	8.30045
2330.1	8.85124
2331.51	8.78214
2332.92	8.78731
2334.34	7.95597
2335.75	7.17789
2337.16	6.62148
2338.57	6.71484
2339.98	6.35285
2341.39	6.00551
2342.8	5.90573
2344.21	5.37869
2345.63	5.18796
2347.04	4.34628
2348.45	4.3304
2349.85	3.42919
2351.26	2.80091
2352.67	2.29707
2354.08	2.2358
2355.49	2.14152
2356.9	1.47215
2358.3	0.929438
2359.71	0.708594
2361.12	0.319605
2362.53	0.561099
2363.93	1.17211
2365.34	2.02085
2366.75	3.16188
2368.15	3.3497
2369.56	3.15579
2370.97	3.90884
2372.37	4.36211
2373.77	4.42445
2375.18	4.6134
2376.59	4.90712
2377.99	5.57585
2379.39	5.72063
2380.8	5.90282
2382.2	6.25839
2383.6	6.17794
2385.01	6.18498
2386.41	6.26767
2387.81	5.9645
2389.21	6.24115
2390.62	6.03922
2392.02	5.95465
2393.42	5.79389
2394.82	6.07952
2396.22	6.30179
2397.62	6.34512
2399.02	5.68005
2400.42	5.74714
2401.82	5.2864
2403.22	5.41466
2404.62	5.18082
2406.02	4.92621
2407.42	4.83956
2408.82	4.71656
2410.22	4.89694
2411.62	5.31655
2413.01	4.83977
2414.41	4.65214
2415.81	4.74129
2417.21	4.85977
2418.6	5.38001
2420	5.17816
2421.4	5.14552
2422.79	5.16216
2424.19	5.49872
2425.59	5.71264
2426.98	5.87732
2428.38	5.85607
2429.77	6.00102
2431.17	6.12027
2432.56	6.05713
2433.95	6.133
2435.35	6.37676
2436.74	6.48412
2438.14	6.21057
2439.53	6.15178
2440.92	6.09499
2442.31	5.70513
2443.71	5.72752
2445.1	5.46443
2446.49	5.16209
2447.88	4.39976
2449.27	3.90582
2450.67	3.22791
2452.06	3.01682
2453.45	2.69574
2454.84	2.52853
2456.23	1.72943
2457.62	1.69261
2459.01	1.42753
2460.4	1.2919
2461.79	1.14154
2463.18	1.3705
2464.57	1.44563
2465.95	1.37601
2467.34	1.31118
2468.73	0.655194
2470.12	0.69209
2471.5	0.704344
2472.89	0.88134
2474.28	0.996453
2475.67	1.24673
2477.05	1.4289
2478.44	1.8485
2479.82	2.28607
2481.21	1.92943
2482.6	2.05336
2483.98	2.48086
2485.37	2.8791
2486.75	3.18802
2488.13	3.61053
2489.52	3.87167
2490.9	3.53534
2492.29	3.77574
2493.67	4.29157
2495.05	4.21846
2496.44	4.2113
2497.82	4.16049
2499.2	4.23478
2500.58	3.48306
2501.97	3.04142
2503.35	3.28197
2504.73	2.95288
2506.11	2.6327
2507.49	2.89235
2508.87	2.92652
2510.25	2.85146
2511.63	2.56839
2513.01	2.42146
2514.39	1.88463
2515.77	1.30008
2517.15	1.16947
2518.53	1.55128
2519.91	0.996401
2521.29	1.26784
2522.67	0.861032
2524.05	0.62935
2525.42	0.276338
2526.8	0.473626
2528.18	0.745902
2529.55	0.824372
2530.93	1.0483
2532.31	1.46103
2533.69	1.51019
2535.06	1.41438
2536.44	1.42298
2537.81	1.61309
2539.19	2.58924
2540.56	3.10138
2541.94	3.65957
2543.31	4.01605
2544.69	4.02245
2546.06	4.35364
2547.44	4.70356
2548.81	5.05755
2550.18	4.82695
2551.56	5.40097
2552.93	5.22325
2554.3	4.97321
2555.67	4.97697
2557.04	4.99419
2558.42	4.94411
2559.79	4.64468
2561.16	4.95179
2562.53	5.1785
2563.9	4.99031
2565.27	5.07283
2566.64	4.68475
2568.01	4.1694
2569.38	4.01916
2570.75	4.28807
2572.12	4.88384
2573.49	4.53632
2574.86	5.09637
2576.23	5.0686
2577.6	4.39421
2578.97	4.68109
2580.33	4.2104
2581.7	3.93191
2583.07	3.69112
2584.44	3.44
2585.8	3.00837
2587.17	2.54714
2588.54	2.1288
2589.9	2.12132
2591.27	1.7981
2592.64	1.96254
2594	1.7989
2595.37	1.79482
2596.73	1.4845
2598.1	0.823615
2599.46	1.3807
2600.83	1.18509
2602.19	0.906848
2603.55	0.911321
2604.92	1.10169
2606.28	1.15186
2607.64	1.07982
2609.01	0.74178
2610.37	0.268102
2611.73	0.22621
2613.09	0.792064
2614.46	0.955897
2615.82	0.914808
2617.18	0.881949
2618.54	0.75733
2619.9	0.587003
2621.26	0.758283
2622.62	1.00907
2623.98	1.50372
2625.34	2.26147
2626.7	2.59901
2628.06	2.6383
2629.42	2.8664
2630.78	3.03022
2632.14	2.84874
2633.5	2.8539
2634.86	2.88021
2636.21	3.27176
2637.57	3.89793
2638.93	4.45507
2640.29	5.13224
2641.64	5.1764
2643	5.78148
2644.36	6.13843
2645.71	6.20859
2647.07	6.05392
2648.43	4.94947
2649.78	5.05888
2651.14	4.94194
2652.49	4.89463
2653.85	4.49496
2655.2	4.39142
2656.56	4.66499
2657.91	4.45729
2659.26	4.48598
2660.62	4.35027
2661.97	4.23622
2663.32	4.28097
2664.68	4.1885
2666.03	4.23781
2667.38	4.16927
2668.74	4.03101
2670.09	3.93956
2671.44	3.98313
2672.79	3.81951
2674.14	3.5915
2675.49	3.13342
2676.84	3.09427
2678.19	3.21378
2679.54	3.634
2680.89	3.85334
2682.24	3.58889
2683.59	4.00306
2684.94	3.7751
2686.29	3.80437
2687.64	3.62422
2688.99	4.26639
2690.34	4.24593
2691.69	4.10105
2693.03	4.31177
2694.38	3.92773
2695.73	3.63651
2697.08	3.96761
2698.42	4.08894
2699.77	4.48307
2701.12	4.74987
2702.46	5.38871
2703.81	5.75653
2705.15	5.96651
2706.5	6.13398
2707.85	6.02313
2709.19	6.0755
2710.54	6.21224
2711.88	5.76285
2713.22	5.13809
2714.57	5.32168
2715.91	5.97637
2717.26	6.99493
2718.6	7.46681
2719.94	7.96198
2721.29	8.1751
2722.63	8.6252
2723.97	8.61359
2725.31	8.33362
2726.66	8.3791
2728	8.31882
2729.34	8.33985
2730.68	7.97211
2732.02	8.05243
2733.36	8.1722
2734.7	7.94956
2736.04	7.64977
2737.38	6.90585
2738.72	6.52511
2740.06	6.25944
2741.4	6.14921
2742.74	5.85962
2744.08	6.35855
2745.42	5.87641
2746.76	5.69539
2748.09	5.75333
2749.43	5.7545
2750.77	5.59311
2752.11	4.90679
2753.45	4.83638
2754.78	4.59447
2756.12	5.06483
2757.46	5.022
2758.79	4.94824
2760.13	5.27342
2761.46	5.02642
2762.8	5.24415
2764.14	5.35608
2765.47	4.7759
2766.8	5.18691
2768.14	4.90653
2769.47	4.68556
2770.81	3.93983
2772.14	3.72875
2773.48	3.73245
2774.81	3.81299
2776.14	3.67407
2777.48	3.51327
2778.81	3.56616
2780.14	3.86323
2781.47	4.34164
2782.8	4.82708
2784.14	5.16652
2785.47	5.16513
2786.8	4.8443
2788.13	4.81442
2789.46	4.34044
2790.79	3.73109
2792.12	3.8645
2793.45	3.88225
2794.78	3.53244
2796.11	3.57704
2797.44	3.5303
2798.77	4.06855
2800.1	3.96267
2801.43	3.04125
2802.76	2.45042
2804.09	2.37046
2805.41	2.24753
2806.74	2.48743
2808.07	2.61209
2809.4	2.16692
2810.72	2.00101
2812.05	1.60875
2813.38	1.89654
2814.71	1.90559
2816.03	2.22071
2817.36	2.47692
2818.68	3.367
2820.01	4.01526
2821.33	4.48022
2822.66	5.64079
2823.98	5.64472
2825.31	6.27203
2826.63	6.73137
2827.96	7.02576
2829.28	7.27497
2830.6	7.95595
2831.93	7.88086
2833.25	8.74067
2834.57	8.97004
2835.9	9.69288
2837.22	10.4551
2838.54	11.958
2839.86	13.2543
2841.18	14.4359
2842.5	15.8452
2843.83	17.1913
2845.15	18.6869
2846.47	20.3116
2847.79	22.0824
2849.11	23.5406
2850.43	24.7166
2851.75	25.9285
2853.07	27.2259
2854.39	28.2069
2855.71	29.3111
2857.03	30.8405
2858.35	32.3236
2859.66	33.7468
2860.98	35.2873
2862.3	37.0333
2863.62	38.2794
2864.94	38.8865
2866.25	39.7554
2867.57	40.2233
2868.89	41.3107
2870.2	42.3209
2871.52	43.1862
2872.84	44.1272
2874.15	44.6335
2875.47	45.3734
2876.78	46.5055
2878.1	47.5602
2879.41	48.3951
2880.73	49.7249
2882.04	50.8083
2883.36	51.825
2884.67	52.5327
2885.99	53.0693
2887.3	53.7763
2888.61	54.3408
2889.93	54.5689
2891.24	55.7235
2892.55	56.3088
2893.86	57.5536
2895.18	58.8284
2896.49	60.2015
2897.8	61.0275
2899.11	63.0086
2900.42	64.5546
2901.73	66.088
2903.05	67.7876
2904.36	69.9747
2905.67	71.7411
2906.98	73.4986
2908.29	75.7733
2909.6	77.3918
2910.91	79.8958
2912.21	81.8983
2913.52	84.1186
2914.83	86.2581
2916.14	88.4111
2917.45	90.3962
2918.76	92.6013
2920.07	94.8315
2921.37	97.1007
2922.68	98.6603
2923.99	100.492
2925.29	102.135
2926.6	103.795
2927.91	104.604
2929.22	105.188
2930.52	105.834
2931.83	106.653
2933.13	106.937
2934.44	107.481
2935.74	107.208
2937.05	107.14
2938.35	106.673
2939.66	105.864
2940.96	104.543
2942.26	103.375
2943.57	102.297
2944.87	100.454
2946.18	98.8674
2947.48	96.6088
2948.78	94.7042
2950.08	92.5687
2951.39	90.5477
2952.69	88.4719
2953.99	86.5435
2955.29	85.3464
2956.59	83.3425
2957.9	81.2986
2959.2	79.6379
2960.5	77.4729
2961.8	74.8227
2963.1	72.5627
2964.4	70.086
2965.7	67.5638
2967	65.84
2968.3	64.0664
2969.6	62.2
2970.9	60.6453
2972.19	58.9755
2973.49	57.5162
2974.79	56.0949
2976.09	54.5744
2977.39	52.5573
2978.68	50.9465
2979.98	49.083
2981.28	46.8741
2982.58	45.062
2983.87	43.8686
2985.17	42.5398
2986.47	40.7595
2987.76	39.5555
2989.06	38.3032
2990.35	36.9571
2991.65	35.373
2992.94	33.7392
2994.24	32.1791
2995.53	30.9165
2996.83	29.6944
2998.12	28.6776
2999.42	27.3534
3000.71	25.75
3002	24.5322
3003.3	22.6885
3004.59	21.0918
3005.88	19.9506
3007.18	18.8865
3008.47	18.0754
3009.76	16.8385
3011.05	16.3444
3012.34	15.7008
3013.64	15.0118
3014.93	14.7272
3016.22	13.8362
3017.51	13.7291
3018.8	13.0008
3020.09	12.6851
3021.38	11.8355
3022.67	11.1865
3023.96	10.9957
3025.25	10.2834
3026.54	9.464
3027.83	9.33563
3029.12	8.83916
3030.41	8.88487
3031.69	8.82021
3032.98	8.63257
3034.27	8.79036
3035.56	9.03302
3036.84	8.71033
3038.13	8.59274
3039.42	8.47413
3040.71	8.05925
3041.99	7.66362
3043.28	7.30033
3044.57	7.15888
3045.85	6.92125
3047.14	6.92983
3048.42	7.11986
3049.71	6.91578
3050.99	6.44746
3052.28	5.784
3053.56	5.21706
3054.85	5.35248
3056.13	4.90693
3057.41	5.28606
3058.7	4.97565
3059.98	4.83134
3061.26	5.01826
3062.55	4.80951
3063.83	4.61928
3065.11	4.3732
3066.39	4.52045
3067.68	4.0798
3068.96	4.0371
3070.24	4.0227
3071.52	3.47585
3072.8	3.62318
3074.08	3.67567
3075.36	3.18295
3076.65	3.0975
3077.93	2.54446
3079.21	2.62316
3080.49	2.12846
3081.77	2.43828
3083.04	2.37654
3084.32	2.88276
3085.6	2.44331
3086.88	2.15483
3088.16	2.15278
3089.44	1.56074
3090.72	1.73471
3091.99	1.8517
3093.27	1.76181
3094.55	1.87689
3095.83	1.78182
3097.1	2.07678
3098.38	1.8229
3099.66	1.66385
3100.93	1.5041
3102.21	1.42432
3103.49	1.64097
3104.76	1.51788
3106.04	1.31065
3107.31	1.06732
3108.59	0.827566
3109.86	0.952203
3111.14	1.04479
3112.41	0.754667
3113.69	0.799194
3114.96	0.340497
3116.23	0.676083
3117.51	0.93244
3118.78	1.19816
3120.05	1.16674
3121.33	1.60307
3122.6	1.42417
3123.87	1.62903
3125.14	2.27236
3126.41	2.49044
3127.69	2.78236
3128.96	2.93425
3130.23	3.28666
3131.5	2.97092
3132.77	3.36099
3134.04	3.51312
3135.31	3.70701
3136.58	4.57443
3137.85	5.12036
3139.12	5.1197
3140.39	5.75829
3141.66	6.03608
3142.93	6.54462
3144.2	6.81073
3145.47	7.04695
3146.74	7.20827
3148	7.68077
3149.27	9.37181
