#Acq. time (s)=	45
#Accumulations=	2
#Range (cm-¹)=	200...3150
#Windows=	2
#Auto scanning=	Off
#Autofocus=	Off
#Macrospot=	Off
#AutoExposure=	Off
#Spike filter=	Multiple accum.
#Delay time (s)=	0
#Binning=	1
#Readout mode=	Signal
#DeNoise=	Off
#ICS correction=	On
#Dark correction=	Off
#Inst. Process=	Off
#Detector Gain=	Best Dynamic Range
#Detector ADC=	20 kHz       
#Detector temperature (°C)=	-69.85
#Instrument=	LabRAM HR Evol
#Detector=	Synapse
#Objective=	x100
#Grating=	600 gr/mm
#ND Filter=	100%
#Laser (nm)=	532 
#Hole=	100.021
#Range=	Auto
#Laser Pol.=	No
#Raman. Pol.=	No
#Laser Pol. (°)=	-0.0007625
#Raman Pol. (°)=	89.9995
#Collection=	Microscope
#StageXY=	Marzhauser
#StageZ=	Marzhauser
#X (µm)=	-6389
#Y (µm)=	849.3
#Z (µm)=	-64.55
#Full time(mm:ss)=	3:19
#Project=	
#Sample=	
#Site=	
#Title=	Mb_30_27_25_2x_45s_532 nm_x100_100%_600 gr_mm
#Remark=	
#Date=	13.07.2022 10:33
#Acquired=	13.07.2022 10:33:35
#Base:Fit=	10.08.2022 10:40:03
#Base:Sub=	10.08.2022 10:40:17
#Filter:Polynom=	16.08.2022 10:16:15
#AxisType[0]=Intens
#AxisUnit[0]=Cnt
#AxisType[1]=Spectr
#AxisUnit[1]=1/cm
200.563	11.18
202.377	10.6295
204.194	10.4333
206.008	9.35652
207.821	8.49115
209.634	7.53867
211.449	6.77385
213.262	6.18185
215.074	6.48716
216.885	5.84916
218.699	5.56945
220.51	5.69647
222.321	5.87591
224.131	5.81265
225.941	3.92566
227.751	3.40876
229.562	3.59767
231.371	4.704
233.18	3.69957
234.988	3.34478
236.796	3.939
238.603	4.16969
240.411	3.51078
242.219	2.79319
244.026	2.77415
245.832	2.98934
247.638	3.21774
249.443	2.54803
251.248	3.17364
253.053	3.46426
254.857	3.60788
256.661	3.76572
258.465	3.44091
260.268	3.91882
262.071	4.34829
263.874	3.42984
265.678	3.50082
267.48	3.87785
269.282	4.34785
271.083	3.81273
272.884	3.52001
274.684	3.7554
276.484	3.26413
278.284	4.37278
280.084	4.6623
281.883	5.67029
283.682	5.76215
285.48	5.77462
287.276	5.62081
289.074	4.99032
290.871	4.78594
292.668	5.95902
294.465	6.48134
296.261	7.18987
298.057	7.66518
299.853	8.75578
301.648	9.54773
303.443	10.1096
305.237	11.2109
307.032	10.9709
308.823	11.7459
310.617	11.8242
312.41	11.701
314.203	11.8406
315.995	12.4842
317.788	13.7081
319.579	14.1753
321.369	14.5208
323.16	14.1461
324.951	15.6271
326.741	17.0162
328.531	16.8934
330.321	17.6732
332.108	19.2038
333.897	20.7866
335.686	21.8767
337.474	21.9401
339.26	22.7829
341.048	24.7729
342.835	24.2865
344.622	24.9617
346.406	25.248
348.192	26.4577
349.978	28.266
351.764	27.233
353.547	26.9803
355.332	26.6825
357.116	25.8406
358.901	25.1606
360.682	24.3452
362.466	24.4351
364.249	24.6365
366.03	22.898
367.812	22.8049
369.594	22.0785
371.374	21.6796
373.155	20.7127
374.936	19.8143
376.715	19.6671
378.495	19.7171
380.273	19.8365
382.053	19.303
383.832	18.6034
385.609	19.0291
387.388	18.9182
389.164	18.6601
390.942	17.7464
392.72	17.7057
394.495	17.857
396.272	16.6211
398.047	16.2207
399.823	16.1193
401.597	16.3895
403.372	17.1112
405.145	17.1343
406.92	16.584
408.693	17.35
410.467	18.208
412.239	19.3822
414.012	20.0956
415.783	20.7494
417.556	19.9447
419.327	21.3691
421.099	21.5654
422.869	21.3561
424.64	22.2966
426.409	22.3303
428.18	23.2043
429.948	22.9666
431.718	22.4082
433.486	22.3259
435.253	22.2423
437.022	21.8329
438.789	21.0864
440.558	19.9346
442.324	20.8233
444.089	20.1416
445.857	19.9292
447.622	20.5685
449.386	21.4607
451.153	21.9439
452.917	21.7537
454.682	21.7384
456.446	23.0393
458.208	24.4314
459.973	24.4165
461.735	25.4453
463.497	26.031
465.259	27.9064
467.022	29.7081
468.783	30.4379
470.544	31.2444
472.306	33.1629
474.066	34.1464
475.825	34.846
477.585	34.9281
479.346	35.6136
481.104	36.5185
482.862	37.2596
484.62	37.7156
486.38	38.5789
488.137	38.6595
489.894	39.9455
491.65	39.8667
493.407	39.425
495.164	40.0587
496.92	41.2241
498.675	42.1075
500.43	42.3462
502.184	41.4148
503.939	40.9638
505.694	40.0168
507.448	40.8591
509.201	39.5917
510.954	39.1629
512.706	39.1775
514.459	37.3559
516.21	36.9604
517.962	35.6582
519.715	34.693
521.466	33.3142
523.216	32.8692
524.966	32.4709
526.716	31.951
528.466	31.1258
530.215	30.1961
531.964	28.796
533.712	28.5117
535.46	28.2908
537.208	26.6046
538.955	25.1988
540.703	24.1324
542.449	23.5819
544.196	23.2031
545.942	22.4833
547.688	21.3728
549.433	20.807
551.178	20.7466
552.923	20.5306
554.667	20.0654
556.412	18.5472
558.155	17.3893
559.899	16.8573
561.642	15.1915
563.385	14.4772
565.127	12.9019
566.867	12.0745
568.609	11.5745
570.35	10.2223
572.092	9.7193
573.832	8.6869
575.573	8.63571
577.313	8.12881
579.053	7.14189
580.79	7.37873
582.529	8.22972
584.268	8.17124
586.006	7.5375
587.745	6.05486
589.482	4.91237
591.218	4.62684
592.955	4.72339
594.692	5.43476
596.428	5.96879
598.164	7.13297
599.898	7.15896
601.634	7.65994
603.369	8.65904
605.104	8.04403
606.836	8.80649
608.57	8.76373
610.304	9.22429
612.037	9.44165
613.769	8.9206
615.501	8.45173
617.234	9.51826
618.966	8.93392
620.696	9.60874
622.427	9.94929
624.159	10.288
625.887	11.5677
627.618	13.0674
629.348	13.8097
631.076	14.2631
632.806	13.8359
634.535	13.8839
636.262	14.5643
637.99	15.7616
639.716	15.9394
641.444	16.4158
643.172	16.7298
644.897	16.812
646.624	16.7846
648.348	16.7432
650.075	16.68
651.801	16.408
653.524	16.3593
655.249	17.413
656.972	17.32
658.697	17.9196
660.419	17.294
662.143	17.5221
663.865	16.8122
665.588	17.7821
667.309	17.3984
669.032	17.1532
670.752	16.9266
672.474	17.3896
674.194	18.0104
675.915	18.3804
677.634	19.7602
679.355	20.7231
681.073	21.8902
682.793	22.3668
684.511	22.488
686.23	22.7198
687.947	23.7166
689.664	24.595
691.382	25.1374
693.098	26.3507
694.816	26.5788
696.531	27.643
698.247	27.9097
699.963	28.7839
701.678	29.4803
703.392	30.879
705.108	31.6376
706.821	33.5033
708.534	34.5206
710.249	36.019
711.962	36.3033
713.674	37.6618
715.388	37.6311
717.099	37.9304
718.81	38.6714
720.523	39.4574
722.234	40.3862
723.944	40.9104
725.654	41.8149
727.365	41.9637
729.075	41.5541
730.784	42.2956
732.492	42.2767
734.202	43.2289
735.91	43.3308
737.618	44.1915
739.325	44.7636
741.034	45.1686
742.741	45.1321
744.447	46.1243
746.153	46.2827
747.859	47.7684
749.564	47.8611
751.271	48.3675
752.976	49.1154
754.681	50.3771
756.385	51.7607
758.088	52.882
759.792	53.2314
761.495	54.1328
763.2	56.5718
764.902	56.7585
766.604	57.5818
768.306	58.6484
770.008	60.2
771.709	61.7254
773.41	63.1147
775.11	64.7244
776.811	65.4775
778.51	66.629
780.21	67.8515
781.909	68.8683
783.608	69.1429
785.307	70.4056
787.005	71.2734
788.703	72.7572
790.401	73.8624
792.098	75.6902
793.795	76.4611
795.492	76.9037
797.188	77.1317
798.884	78.0116
800.58	77.6783
802.276	77.6785
803.971	78.6415
805.665	78.3362
807.36	78.2099
809.054	78.4001
810.748	78.2172
812.441	78.0425
814.135	78.6167
815.826	79.0676
817.518	78.666
819.21	79.1986
820.902	79.4631
822.594	78.9369
824.285	79.1576
825.976	79.5731
827.665	79.3344
829.355	79.0854
831.045	77.8945
832.735	77.494
834.424	76.0201
836.111	75.0208
837.8	73.9573
839.488	72.7279
841.177	71.5447
842.864	70.5745
844.55	70.3201
846.237	69.851
847.924	68.8479
849.61	66.4638
851.295	65.81
852.98	65.4127
854.666	64.5998
856.349	63.6862
858.034	63.757
859.719	62.8881
861.403	63.104
863.085	62.0922
864.769	61.8669
866.452	61.8415
868.133	61.4085
869.816	61.6346
871.498	62.3098
873.179	62.9829
874.86	62.9637
876.54	63.0007
878.221	63.053
879.902	63.6115
881.58	64.6919
883.26	65.3002
884.938	66.2238
886.618	67.118
888.297	67.8748
889.974	67.5678
891.653	68.4255
893.329	68.4599
895.007	68.6435
896.683	69.3968
898.36	69.3848
900.035	70.0776
901.712	70.5851
903.387	70.215
905.063	69.7407
906.737	68.5603
908.412	68.018
910.085	66.937
911.76	64.7716
913.433	63.4695
915.107	62.3525
916.779	61.6039
918.452	60.3369
920.124	58.4818
921.797	57.1264
923.467	56.4685
925.138	55.8562
926.81	54.6128
928.48	54.0973
930.151	51.9287
931.82	50.8671
933.489	49.335
935.16	48.8074
936.828	48.3016
938.496	47.8897
940.165	47.649
941.833	47.183
943.5	46.0485
945.168	45.204
946.834	44.1987
948.5	45.2254
950.168	45.4199
951.834	45.1629
953.499	45.1404
955.163	45.3271
956.83	44.7099
958.494	43.2723
960.158	43.6581
961.821	44.733
963.487	45.2544
965.15	46.683
966.812	47.4346
968.474	47.5973
970.138	47.9635
971.8	48.4981
973.461	48.6511
975.123	48.9785
976.783	49.0738
978.446	49.4192
980.106	49.7274
981.766	50.1331
983.425	50.6368
985.084	49.2761
986.743	48.6959
988.402	48.6433
990.06	48.4336
991.72	48.764
993.378	48.7454
995.035	48.0371
996.692	48.895
998.349	48.9251
1000.01	49.6425
1001.66	48.8463
1003.32	48.6792
1004.97	49.8089
1006.63	50.8889
1008.28	52.6064
1009.94	53.6013
1011.59	56.1559
1013.25	58.277
1014.9	61.0066
1016.55	64.0766
1018.21	66.3022
1019.86	68.3878
1021.51	70.8018
1023.16	72.6133
1024.81	74.2688
1026.47	75.9918
1028.12	77.3483
1029.77	79.4103
1031.42	80.8935
1033.07	81.4751
1034.72	82.1268
1036.37	82.1186
1038.02	81.889
1039.67	81.1541
1041.31	80.837
1042.96	82.3342
1044.61	82.7648
1046.26	83.3199
1047.91	82.7695
1049.55	82.9534
1051.2	82.8505
1052.84	83.7922
1054.49	83.794
1056.14	84.2097
1057.78	84.3577
1059.43	84.6025
1061.07	84.0582
1062.72	84.4681
1064.36	83.8734
1066	82.9939
1067.65	83.1751
1069.29	83.9552
1070.93	84.2712
1072.58	83.9914
1074.22	82.8645
1075.86	81.7431
1077.5	81.4877
1079.14	81.5585
1080.78	81.0828
1082.42	81.5411
1084.06	81.7436
1085.7	83.6715
1087.34	85.0317
1088.98	86.6315
1090.62	88.1325
1092.26	88.6684
1093.9	90.4046
1095.54	90.7236
1097.17	90.3592
1098.81	90.7228
1100.45	90.0171
1102.09	91.1913
1103.72	91.2523
1105.36	89.8502
1106.99	89.5963
1108.63	88.5197
1110.27	87.6301
1111.9	85.9229
1113.53	85.1739
1115.17	82.5512
1116.8	80.4993
1118.43	77.5533
1120.07	74.6582
1121.7	72.8276
1123.33	70.6393
1124.97	69.011
1126.6	66.8066
1128.23	64.9336
1129.86	63.521
1131.49	63.0473
1133.12	62.0317
1134.75	60.2225
1136.38	58.4168
1138.01	56.6532
1139.64	54.1942
1141.27	52.3949
1142.9	49.5631
1144.53	46.8644
1146.16	43.9767
1147.78	41.8178
1149.41	39.863
1151.04	36.5475
1152.67	33.6458
1154.29	30.9532
1155.92	29.3956
1157.54	27.5662
1159.17	25.5471
1160.8	23.404
1162.42	21.7393
1164.05	20.2349
1165.67	18.7981
1167.29	17.0347
1168.92	14.8657
1170.54	13.5582
1172.16	11.6328
1173.79	10.4466
1175.41	9.44693
1177.03	7.71419
1178.65	7.43696
1180.28	8.36125
1181.9	8.40803
1183.52	8.74625
1185.14	8.80946
1186.76	8.95456
1188.38	9.36781
1190	9.14961
1191.62	10.0412
1193.24	9.68586
1194.86	10.3095
1196.47	10.0985
1198.09	11.5054
1199.71	12.1497
1201.33	14.27
1202.95	15.9472
1204.56	16.6564
1206.18	18.4871
1207.8	20.285
1209.41	22.9327
1211.03	24.5925
1212.64	26.6921
1214.26	28.7026
1215.87	28.9891
1217.49	30.7356
1219.1	31.7672
1220.71	33.6473
1222.33	34.9153
1223.94	36.56
1225.55	38.7282
1227.16	41.2418
1228.78	43.4868
1230.39	45.257
1232	46.5309
1233.61	48.9774
1235.22	50.7195
1236.83	53.3672
1238.44	53.937
1240.05	54.9947
1241.66	56.3861
1243.27	57.4949
1244.88	58.3641
1246.49	59.6669
1248.1	60.9961
1249.71	61.3895
1251.32	61.5487
1252.92	62.0964
1254.53	63.4099
1256.14	64.2403
1257.74	64.7209
1259.35	66.1038
1260.96	67.1356
1262.56	68.3051
1264.17	69.1322
1265.77	69.773
1267.38	69.8198
1268.98	70.3459
1270.59	71.4894
1272.19	73.2248
1273.79	73.7155
1275.4	75.4144
1277	77.0382
1278.6	78.3556
1280.21	79.1812
1281.81	80.7908
1283.41	80.6943
1285.01	80.8578
1286.61	82.6396
1288.21	84.6964
1289.81	85.4844
1291.41	85.4084
1293.01	86.734
1294.61	87.1074
1296.21	87.2673
1297.81	88.2767
1299.41	89.3863
1301.01	90.4134
1302.6	91.6005
1304.2	92.4245
1305.8	92.8898
1307.4	93.9091
1308.99	93.6381
1310.59	94.3087
1312.19	93.842
1313.78	94.4278
1315.38	94.7196
1316.97	95.043
1318.57	94.0363
1320.16	93.8382
1321.76	93.6485
1323.35	93.009
1324.94	92.9598
1326.54	92.4238
1328.13	91.4993
1329.72	90.3062
1331.32	89.8426
1332.91	89.789
1334.5	89.8859
1336.09	89.0034
1337.68	87.9287
1339.27	88.2364
1340.87	87.6629
1342.45	86.4085
1344.04	84.5258
1345.64	84.0529
1347.22	83.9327
1348.81	84.0633
1350.4	83.5468
1351.99	83.4716
1353.58	82.2826
1355.17	81.6155
1356.75	81.1594
1358.34	79.6497
1359.93	79.3598
1361.51	78.8055
1363.1	77.6918
1364.69	76.1329
1366.27	75.9558
1367.86	74.4133
1369.44	72.1294
1371.03	71.2591
1372.61	70.3774
1374.2	68.8464
1375.78	67.658
1377.37	67.5651
1378.95	67.9436
1380.53	67.6186
1382.11	66.4343
1383.7	65.0713
1385.28	64.9389
1386.86	65.2584
1388.44	63.3059
1390.02	61.8231
1391.6	60.3234
1393.19	60.8556
1394.77	60.8643
1396.35	59.712
1397.93	60.0318
1399.51	59.7646
1401.08	58.3995
1402.66	58.562
1404.24	59.0514
1405.82	58.7013
1407.4	59.5868
1408.97	60.0499
1410.55	60.358
1412.13	60.587
1413.71	61.9559
1415.28	62.0437
1416.86	63.0733
1418.43	64.642
1420.01	65.5229
1421.59	67.4768
1423.16	69.7913
1424.73	71.8651
1426.31	74.0505
1427.88	75.934
1429.46	78.1361
1431.03	80.5169
1432.6	82.5633
1434.18	85.4056
1435.75	87.9376
1437.32	89.2956
1438.89	91.0893
1440.46	92.1242
1442.04	93.0235
1443.61	93.6598
1445.18	95.1427
1446.75	95.5654
1448.32	95.7542
1449.89	96.8353
1451.46	96.7112
1453.03	95.9845
1454.6	95.7147
1456.16	95.3025
1457.73	93.6494
1459.3	91.2444
1460.87	89.1406
1462.44	87.4591
1464	85.6733
1465.57	83.0848
1467.14	79.1097
1468.7	76.4825
1470.27	74.7241
1471.83	72.3305
1473.4	68.9883
1474.96	64.8997
1476.53	62.5003
1478.09	58.1265
1479.66	54.6573
1481.22	52.6264
1482.78	49.6498
1484.35	46.9167
1485.91	43.5056
1487.47	39.8329
1489.04	36.5284
1490.6	34.2724
1492.16	32.0952
1493.72	30.0411
1495.28	29.045
1496.84	26.885
1498.4	25.7224
1499.96	24.0967
1501.52	22.2736
1503.08	21.4049
1504.64	20.7935
1506.2	20.021
1507.76	20.0904
1509.32	19.2217
1510.88	18.3467
1512.44	18.794
1513.99	18.0262
1515.55	17.4884
1517.11	17.1799
1518.66	17.8718
1520.22	18.1451
1521.78	18.5791
1523.33	18.8311
1524.89	19.4915
1526.44	19.3965
1528	19.5446
1529.55	19.0049
1531.11	18.2801
1532.66	18.5723
1534.21	18.885
1535.77	18.6498
1537.32	18.8136
1538.87	19.4764
1540.43	19.5896
1541.98	20.4238
1543.53	20.5888
1545.08	20.0077
1546.63	21.003
1548.18	21.6603
1549.74	22.6157
1551.29	23.0975
1552.84	22.9039
1554.39	23.3689
1555.94	23.3291
1557.48	24.6754
1559.03	25.0858
1560.58	25.6747
1562.13	26.5959
1563.68	26.5579
1565.23	28.0565
1566.78	29.2766
1568.32	30.8008
1569.87	31.7937
1571.42	34.2379
1572.96	35.4667
1574.51	36.5139
1576.05	38.1254
1577.6	38.4564
1579.14	40.2854
1580.69	42.0207
1582.24	43.1199
1583.78	45.1086
1585.32	46.6603
1586.87	48.104
1588.41	49.1826
1589.95	50.9177
1591.5	51.4701
1593.04	52.9436
1594.58	53.8573
1596.12	55.2246
1597.67	55.852
1599.21	56.1724
1600.75	56.4282
1602.29	56.2948
1603.83	55.4498
1605.37	55.3953
1606.91	55.0896
1608.45	55.2452
1609.99	55.8779
1611.53	55.6604
1613.07	55.6525
1614.6	55.9566
1616.14	55.4516
1617.68	55.0875
1619.22	54.9668
1620.75	54.2507
1622.29	53.8024
1623.83	55.2899
1625.37	55.7709
1626.9	56.8428
1628.44	57.7089
1629.97	58.2147
1631.51	59.5595
1633.04	62.1024
1634.58	64.1555
1636.11	65.829
1637.65	67.973
1639.18	69.4521
1640.72	70.9055
1642.25	72.5572
1643.78	74.7545
1645.31	77.3404
1646.85	78.8285
1648.38	81.0016
1649.91	81.9727
1651.44	83.1092
1652.97	84.3109
1654.5	86.242
1656.03	87.2949
1657.56	87.0971
1659.1	86.8969
1660.62	86.3524
1662.15	85.8555
1663.68	85.7692
1665.21	84.1751
1666.74	83.5236
1668.27	82.133
1669.8	80.4103
1671.32	78.1806
1672.85	76.378
1674.38	74.3901
1675.91	71.9398
1677.43	69.2383
1678.96	66.2621
1680.49	64.0241
1682.01	61.5657
1683.54	58.9309
1685.06	56.6544
1686.59	54.0158
1688.11	50.1752
1689.64	46.7208
1691.16	43.1827
1692.68	40.1247
1694.21	37.6745
1695.73	35.6774
1697.25	33.3734
1698.78	32.211
1700.3	30.9881
1701.82	29.065
1703.34	27.8886
1704.86	27.1457
1706.39	24.9017
1707.91	23.6729
1709.43	22.4797
1710.95	21.0512
1712.47	19.5754
1713.99	18.4441
1715.51	17.5404
1717.02	17.8479
1718.54	17.2857
1720.06	17.3077
1721.58	16.52
1723.1	15.9289
1724.62	15.7345
1726.13	15.0484
1727.65	14.9127
1729.17	14.5589
1730.68	14.1992
1732.2	12.7937
1733.72	12.6886
1735.23	12.6553
1736.75	11.888
1738.26	12.408
1739.78	11.9954
1741.29	11.0436
1742.81	10.8337
1744.32	9.91425
1745.84	9.13267
1747.35	8.78792
1748.86	8.64164
1750.37	8.62229
1751.89	8.25265
1753.4	8.12006
1754.91	7.9646
1756.42	8.07221
1757.93	7.73063
1759.45	7.61817
1760.96	6.64071
1762.47	5.98323
1763.98	4.7843
1765.49	4.85846
1767	5.37962
1768.51	5.57773
1770.02	5.07761
1771.53	4.98784
1773.03	4.41993
1774.54	4.146
1776.05	3.64932
1777.56	3.43223
1779.07	3.29115
1780.57	3.18628
1782.08	2.38704
1783.59	2.56688
1785.09	2.49685
1786.6	2.74063
1788.11	2.67829
1789.61	2.9373
1791.12	3.32096
1792.62	3.64196
1794.13	3.24259
1795.63	3.43805
1797.13	3.56386
1798.64	3.99563
1800.14	3.69524
1801.65	3.86233
1803.15	4.19656
1804.65	3.92012
1806.15	3.88192
1807.66	3.8408
1809.16	3.96311
1810.66	3.30403
1812.16	2.92955
1813.66	3.42881
1815.16	2.95027
1816.66	2.57963
1818.16	2.10327
1819.66	1.71667
1821.16	1.0737
1822.66	1.31407
1824.16	1.26607
1825.66	0.879867
1827.16	0.465825
1828.66	0.5941
1830.16	0.579489
1831.65	0.502868
1833.15	0.449287
1834.65	0.298559
1836.14	-0.0779627
1837.64	0.519595
1839.14	0.927553
1840.63	1.46886
1842.13	1.61742
1843.62	1.27057
1845.12	1.6921
1846.61	2.25968
1848.11	2.39212
1849.6	2.3333
1851.1	2.35003
1852.59	2.1892
1854.08	2.32862
1855.58	2.47927
1857.07	2.91425
1858.56	3.40236
1860.05	3.91138
1861.55	3.79635
1863.04	4.10535
1864.53	4.17594
1866.02	3.99093
1867.51	4.2523
1869	4.18786
1870.49	4.43668
1871.98	4.79715
1873.47	5.02104
1874.96	4.9744
1876.45	4.86777
1877.94	4.74698
1879.43	4.2418
1880.92	4.18233
1882.41	4.29764
1882.51	4.10542
1884	4.00448
1885.5	4.17046
1886.99	4.0903
1888.48	3.76858
1889.98	3.19949
1891.47	3.28387
1892.96	3.27328
1894.46	3.15181
1895.95	4.06723
1897.44	3.52382
1898.93	3.56234
1900.42	4.23273
1901.91	4.59042
1903.41	4.46845
1904.9	4.55004
1906.39	5.21754
1907.88	5.09227
1909.37	5.33869
1910.86	5.85929
1912.35	6.49508
1913.83	6.79739
1915.32	6.40899
1916.81	6.25763
1918.3	5.75442
1919.79	5.58952
1921.27	5.10058
1922.76	4.94723
1924.25	5.07588
1925.74	5.07307
1927.22	5.68423
1928.71	5.60035
1930.19	5.69548
1931.68	4.64098
1933.17	3.8189
1934.65	3.00214
1936.14	3.06374
1937.62	2.8735
1939.11	2.54854
1940.59	3.24554
1942.07	2.75193
1943.56	3.04982
1945.04	2.90142
1946.52	2.33836
1948.01	2.23369
1949.49	1.89286
1950.97	2.10454
1952.45	1.71099
1953.93	1.92702
1955.42	2.31861
1956.9	2.48433
1958.38	3.0107
1959.86	3.1756
1961.34	3.20162
1962.82	3.4714
1964.3	3.83564
1965.78	4.11122
1967.26	4.38414
1968.74	5.42097
1970.21	5.62035
1971.69	5.4243
1973.17	6.01277
1974.65	6.5547
1976.13	6.65872
1977.6	7.00606
1979.08	7.12467
1980.56	7.58545
1982.03	7.50985
1983.51	7.33966
1984.99	7.0796
1986.46	7.32857
1987.94	7.08291
1989.41	6.64499
1990.89	6.74182
1992.36	6.46601
1993.84	7.06087
1995.31	6.72002
1996.78	6.4387
1998.26	6.68831
1999.73	6.39417
2001.2	5.9558
2002.68	4.99144
2004.15	4.05562
2005.62	3.18949
2007.09	3.21054
2008.56	2.81422
2010.04	2.4417
2011.51	2.00643
2012.98	1.47689
2014.45	1.48187
2015.92	1.3873
2017.39	1.17926
2018.86	0.667499
2020.33	0.71306
2021.8	1.12994
2023.26	1.22224
2024.73	1.55245
2026.2	1.25932
2027.67	1.55604
2029.14	2.04442
2030.61	2.55029
2032.07	3.08987
2033.54	3.03407
2035.01	3.63199
2036.47	3.91932
2037.94	4.3742
2039.4	4.82493
2040.87	5.88136
2042.33	6.74649
2043.8	6.93492
2045.27	7.23121
2046.73	8.4382
2048.19	9.42276
2049.66	10.1381
2051.12	11.134
2052.59	11.7641
2054.05	12.5626
2055.51	12.438
2056.97	12.5783
2058.44	13.6392
2059.9	14.4382
2061.36	14.6999
2062.82	15.4711
2064.28	16.009
2065.74	15.7548
2067.21	15.7965
2068.67	15.6995
2070.13	15.6422
2071.59	15.5611
2073.05	14.474
2074.51	14.5911
2075.96	14.708
2077.42	14.0861
2078.88	14.3217
2080.34	14.6612
2081.8	13.8123
2083.26	14.3746
2084.72	14.8681
2086.17	15.7322
2087.63	15.9987
2089.09	16.201
2090.54	15.8984
2092	16.2562
2093.45	17.3854
2094.91	17.3766
2096.37	17.3816
2097.82	17.6696
2099.28	18.2389
2100.73	18.7895
2102.19	19.5609
2103.64	20.9488
2105.09	22.1252
2106.55	23.1949
2108	24.2002
2109.45	24.928
2110.91	26.2104
2112.36	27.1506
2113.81	27.9105
2115.26	29.0613
2116.72	30.3769
2118.17	31.7662
2119.62	33.6306
2121.07	34.4542
2122.52	35.3462
2123.97	36.6184
2125.42	37.3135
2126.87	38.3231
2128.32	39.9423
2129.77	41.3111
2131.22	42.5926
2132.67	43.5703
2134.11	45.0707
2135.56	46.1456
2137.01	47.0612
2138.46	47.6883
2139.91	49.2316
2141.35	50.8628
2142.8	52.4256
2144.25	53.8526
2145.7	55.4689
2147.14	57.923
2148.59	59.4297
2150.03	60.9217
2151.48	63.3671
2152.92	65.2098
2154.37	66.7557
2155.81	69.4532
2157.26	70.8423
2158.7	72.0674
2160.15	73.0291
2161.59	74.4112
2163.03	75.699
2164.47	76.8565
2165.92	78.1793
2167.36	78.7794
2168.8	80.0831
2170.24	80.6658
2171.69	81.6811
2173.13	81.9882
2174.57	82.5128
2176.01	83.4608
2177.45	83.2027
2178.89	82.6279
2180.33	82.113
2181.77	81.3586
2183.21	80.713
2184.65	79.9909
2186.09	79.2078
2187.53	78.5159
2188.97	77.3839
2190.4	76.2948
2191.84	74.7788
2193.28	73.0052
2194.72	71.0897
2196.16	69.4242
2197.59	67.3332
2199.03	65.597
2200.47	63.7945
2201.9	61.0977
2203.34	59.2469
2204.77	57.9295
2206.21	56.1244
2207.64	54.3125
2209.08	52.754
2210.51	50.8623
2211.95	49.4349
2213.38	47.8496
2214.82	46.1633
2216.25	44.4122
2217.68	42.9646
2219.12	41.8974
2220.55	40.3784
2221.98	39.3351
2223.41	38.2569
2224.85	36.5635
2226.28	35.2479
2227.71	33.5646
2229.14	32.2256
2230.57	30.864
2232	30.3703
2233.43	29.5849
2234.86	29.0863
2236.29	28.3798
2237.72	27.3534
2239.15	26.719
2240.58	26.0345
2242.01	25.035
2243.44	25.2846
2244.87	24.4775
2246.29	23.9125
2247.72	23.6114
2249.15	23.0346
2250.58	22.4186
2252.01	21.5196
2253.43	20.4699
2254.86	20.4733
2256.29	19.7371
2257.71	19.0847
2259.14	18.3915
2260.56	18.0361
2261.99	17.6197
2263.41	17.0259
2264.84	15.8233
2266.26	15.6793
2267.69	15.1771
2269.11	14.8176
2270.53	14.9247
2271.96	14.6852
2273.38	14.5784
2274.8	14.8136
2276.23	14.5755
2277.65	13.9181
2279.07	14.1431
2280.49	13.5375
2281.91	13.2899
2283.34	13.0618
2284.76	12.2882
2286.18	12.5165
2287.6	12.3383
2289.02	12.4873
2290.44	12.0092
2291.86	11.4318
2293.28	11.2234
2294.7	10.2419
2296.12	9.64417
2297.54	9.55006
2298.96	9.84667
2300.37	10.0774
2301.79	10.3125
2303.21	10.7699
2304.63	10.6675
2306.04	10.6266
2307.46	10.4713
2308.88	10.9501
2310.3	11.7028
2311.71	11.0322
2313.13	10.5116
2314.54	10.4547
2315.96	9.76995
2317.37	9.20514
2318.79	8.96727
2320.2	8.59421
2321.62	8.46893
2323.03	7.80484
2324.45	7.65533
2325.86	7.71675
2327.27	8.12016
2328.69	8.10621
2330.1	7.67247
2331.51	7.98375
2332.92	7.31558
2334.34	7.04577
2335.75	6.62887
2337.16	7.08802
2338.57	6.39647
2339.98	6.80485
2341.39	6.8482
2342.8	6.483
2344.21	6.24915
2345.63	6.15153
2347.04	5.80631
2348.45	5.88518
2349.85	5.57737
2351.26	4.73793
2352.67	4.61743
2354.08	4.53113
2355.49	4.36462
2356.9	4.69394
2358.3	4.07172
2359.71	3.48608
2361.12	2.69626
2362.53	2.55305
2363.93	2.65538
2365.34	2.48008
2366.75	2.57417
2368.15	2.7716
2369.56	2.50711
2370.97	1.94693
2372.37	2.36168
2373.77	2.20828
2375.18	2.38008
2376.59	2.38888
2377.99	2.83079
2379.39	3.1604
2380.8	2.24409
2382.2	1.57663
2383.6	1.38764
2385.01	1.25222
2386.41	0.682104
2387.81	0.672714
2389.21	1.07664
2390.62	1.49671
2392.02	1.37781
2393.42	1.39214
2394.82	1.76026
2396.22	1.90825
2397.62	2.12432
2399.02	1.43163
2400.42	1.10402
2401.82	1.66295
2403.22	1.84355
2404.62	1.96454
2406.02	2.04901
2407.42	2.65089
2408.82	2.71109
2410.22	3.49461
2411.62	3.63793
2413.01	4.01801
2414.41	4.40411
2415.81	4.52061
2417.21	4.85246
2418.6	4.3369
2420	4.08768
2421.4	4.4654
2422.79	4.63202
2424.19	5.21178
2425.59	5.13134
2426.98	4.95938
2428.38	4.83324
2429.77	4.43966
2431.17	4.55946
2432.56	4.6321
2433.95	4.73783
2435.35	4.27831
2436.74	3.59977
2438.14	3.65028
2439.53	3.2753
2440.92	3.49213
2442.31	3.80496
2443.71	3.33871
2445.1	3.48125
2446.49	2.85122
2447.88	3.14838
2449.27	2.56622
2450.67	2.01974
2452.06	2.06704
2453.45	1.90285
2454.84	1.95035
2456.23	1.7918
2457.62	2.64276
2459.01	2.85301
2460.4	2.94654
2461.79	2.72775
2463.18	2.69484
2464.57	2.17071
2465.95	2.58538
2467.34	3.05321
2468.73	2.83538
2470.12	2.67471
2471.5	3.37023
2472.89	3.3805
2474.28	3.3057
2475.67	4.25589
2477.05	4.99608
2478.44	4.87065
2479.82	5.31011
2481.21	5.3799
2482.6	5.4477
2483.98	5.45008
2485.37	5.66706
2486.75	6.22527
2488.13	5.6119
2489.52	6.18189
2490.9	6.55729
2492.29	6.52787
2493.67	6.81463
2495.05	6.3796
2496.44	6.43718
2497.82	6.36267
2499.2	6.87579
2500.58	6.57996
2501.97	6.53148
2503.35	5.87308
2504.73	4.86579
2506.11	4.49851
2507.49	4.49291
2508.87	4.19479
2510.25	3.88329
2511.63	3.58857
2513.01	2.764
2514.39	2.36557
2515.77	1.89851
2517.15	1.96053
2518.53	1.53864
2519.91	1.5549
2521.29	1.32705
2522.67	1.31895
2524.05	1.09108
2525.42	0.753233
2526.8	0.599931
2528.18	0.0478378
2529.55	-0.430538
2530.93	-0.763412
2532.31	-1.05453
2533.69	-0.770184
2535.06	-0.652692
2536.44	-0.299405
2537.81	-0.711762
2539.19	0.0432828
2540.56	0.753271
2541.94	1.01157
2543.31	1.57804
2544.69	2.09542
2546.06	1.99303
2547.44	2.27909
2548.81	2.77571
2550.18	3.17522
2551.56	3.70321
2552.93	4.18993
2554.3	4.62915
2555.67	4.48639
2557.04	4.68607
2558.42	5.24526
2559.79	5.14359
2561.16	5.75436
2562.53	5.83788
2563.9	6.0042
2565.27	6.34053
2566.64	6.19905
2568.01	6.01352
2569.38	5.41719
2570.75	5.04017
2572.12	4.62057
2573.49	4.65301
2574.86	4.72604
2576.23	4.05901
2577.6	3.60416
2578.97	3.36182
2580.33	3.47896
2581.7	3.37876
2583.07	2.70438
2584.44	2.95425
2585.8	2.57032
2587.17	2.38878
2588.54	1.86756
2589.9	1.57883
2591.27	1.35559
2592.64	0.795704
2594	0.172225
2595.37	0.0498283
2596.73	0.091459
2598.1	0.0615576
2599.46	0.558199
2600.83	0.56961
2602.19	1.09241
2603.55	1.31503
2604.92	2.08146
2606.28	1.75568
2607.64	2.44753
2609.01	2.34434
2610.37	2.31307
2611.73	2.56959
2613.09	2.60273
2614.46	2.51648
2615.82	2.65049
2617.18	2.55421
2618.54	2.71888
2619.9	2.60474
2621.26	2.61909
2622.62	2.5387
2623.98	3.16069
2625.34	3.90225
2626.7	4.10991
2628.06	4.30158
2629.42	5.09627
2630.78	5.24462
2632.14	5.30908
2633.5	5.65587
2634.86	5.32856
2636.21	5.3982
2637.57	5.46344
2638.93	5.4153
2640.29	5.5612
2641.64	5.69884
2643	5.35019
2644.36	5.21603
2645.71	5.64585
2647.07	5.69136
2648.43	5.43405
2649.78	4.45445
2651.14	3.91869
2652.49	4.59284
2653.85	4.33598
2655.2	3.97985
2656.56	3.45193
2657.91	3.6719
2659.26	3.17305
2660.62	3.08247
2661.97	2.88569
2663.32	3.15253
2664.68	2.87717
2666.03	2.79553
2667.38	2.45599
2668.74	1.80617
2670.09	1.87826
2671.44	1.70632
2672.79	1.68077
2674.14	1.50528
2675.49	1.47988
2676.84	0.820851
2678.19	0.850475
2679.54	0.702941
2680.89	0.145876
2682.24	0.146328
2683.59	-0.0874293
2684.94	0.148631
2686.29	0.189989
2687.64	0.601902
2688.99	1.27704
2690.34	1.57403
2691.69	2.09029
2693.03	2.19718
2694.38	1.87311
2695.73	2.08278
2697.08	2.35929
2698.42	2.87483
2699.77	3.15502
2701.12	3.98365
2702.46	4.10368
2703.81	4.68931
2705.15	5.30778
2706.5	6.2731
2707.85	6.73992
2709.19	7.53563
2710.54	8.4354
2711.88	8.8123
2713.22	9.22786
2714.57	9.53907
2715.91	10.1777
2717.26	10.6357
2718.6	12.0224
2719.94	12.6048
2721.29	12.5166
2722.63	12.3248
2723.97	12.2313
2725.31	12.6767
2726.66	12.5484
2728	13.2266
2729.34	12.6928
2730.68	12.4376
2732.02	12.1779
2733.36	12.0866
2734.7	11.5306
2736.04	11.156
2737.38	11.306
2738.72	11.38
2740.06	11.3861
2741.4	11.0478
2742.74	10.7014
2744.08	10.1135
2745.42	9.9045
2746.76	9.61628
2748.09	9.45596
2749.43	9.20372
2750.77	8.62486
2752.11	8.00593
2753.45	7.12849
2754.78	6.65001
2756.12	5.99117
2757.46	5.09264
2758.79	4.80735
2760.13	4.92695
2761.46	4.05275
2762.8	3.9518
2764.14	3.74645
2765.47	3.91189
2766.8	3.65881
2768.14	3.43918
2769.47	2.65602
2770.81	2.87323
2772.14	2.90876
2773.48	2.63301
2774.81	2.05181
2776.14	2.23606
2777.48	2.18808
2778.81	1.76052
2780.14	1.79289
2781.47	1.95089
2782.8	1.90114
2784.14	1.76001
2785.47	1.93387
2786.8	1.53682
2788.13	1.40241
2789.46	1.47703
2790.79	2.09222
2792.12	2.40012
2793.45	2.67708
2794.78	3.03003
2796.11	3.13062
2797.44	3.04926
2798.77	3.36794
2800.1	3.77918
2801.43	3.97524
2802.76	4.27925
2804.09	5.09194
2805.41	5.82382
2806.74	5.79736
2808.07	5.43905
2809.4	5.62321
2810.72	6.12062
2812.05	7.01007
2813.38	7.51188
2814.71	8.09212
2816.03	8.80139
2817.36	10.054
2818.68	11.5062
2820.01	13.176
2821.33	14.6854
2822.66	16.9532
2823.98	18.7049
2825.31	20.8566
2826.63	23.2413
2827.96	24.1933
2829.28	26.8017
2830.6	29.6788
2831.93	32.4095
2833.25	34.5013
2834.57	37.3821
2835.9	39.9657
2837.22	43.8208
2838.54	47.3556
2839.86	51.2816
2841.18	55.9079
2842.5	61.1406
2843.83	65.9656
2845.15	71.3663
2846.47	76.5251
2847.79	82.1312
2849.11	88.5042
2850.43	95.2848
2851.75	101.545
2853.07	108.019
2854.39	114.302
2855.71	120.675
2857.03	126.861
2858.35	132.86
2859.66	140.258
2860.98	146.883
2862.3	152.983
2863.62	159.146
2864.94	165.322
2866.25	171.36
2867.57	176.586
2868.89	182.205
2870.2	187.885
2871.52	193.559
2872.84	197.98
2874.15	203.684
2875.47	209.171
2876.78	214.48
2878.1	219.85
2879.41	225.021
2880.73	229.692
2882.04	234.267
2883.36	239.072
2884.67	243.353
2885.99	246.436
2887.3	249.919
2888.61	253.142
2889.93	256.251
2891.24	259.804
2892.55	262.747
2893.86	264.952
2895.18	268.303
2896.49	271.562
2897.8	273.824
2899.11	276.279
2900.42	279.962
2901.73	282.934
2903.05	285.97
2904.36	288.966
2905.67	292.288
2906.98	296.425
2908.29	299.657
2909.6	302.318
2910.91	305.743
2912.21	309.622
2913.52	313.079
2914.83	317.014
2916.14	318.989
2917.45	321.367
2918.76	323.71
2920.07	326.099
2921.37	328.362
2922.68	330.354
2923.99	332.078
2925.29	333.273
2926.6	332.863
2927.91	332.716
2929.22	332.358
2930.52	331.013
2931.83	330.074
2933.13	328.135
2934.44	326.259
2935.74	323.433
2937.05	320.496
2938.35	316.88
2939.66	314.023
2940.96	309.74
2942.26	305.885
2943.57	301.276
2944.87	295.922
2946.18	290.621
2947.48	285.138
2948.78	279.611
2950.08	273.406
2951.39	266.958
2952.69	260.858
2953.99	254.602
2955.29	249.01
2956.59	242.334
2957.9	236.083
2959.2	229.337
2960.5	222.951
2961.8	216.776
2963.1	209.841
2964.4	203.87
2965.7	197.631
2967	190.96
2968.3	184.582
2969.6	179.052
2970.9	173.069
2972.19	167.501
2973.49	161.058
2974.79	155.469
2976.09	150.658
2977.39	145.44
2978.68	139.71
2979.98	134.297
2981.28	128.467
2982.58	123.898
2983.87	118.429
2985.17	113.464
2986.47	108.362
2987.76	102.89
2989.06	96.9427
2990.35	92.0785
2991.65	87.1859
2992.94	82.6649
2994.24	77.361
2995.53	72.5597
2996.83	67.837
2998.12	63.0808
2999.42	58.4456
3000.71	54.0253
3002	50.1243
3003.3	45.9245
3004.59	42.048
3005.88	38.4984
3007.18	35.2256
3008.47	31.7736
3009.76	28.8592
3011.05	26.1649
3012.34	22.8301
3013.64	20.7885
3014.93	18.376
3016.22	16.1575
3017.51	13.8661
3018.8	12.2337
3020.09	10.5524
3021.38	8.64886
3022.67	7.52307
3023.96	6.08103
3025.25	5.11133
3026.54	4.15978
3027.83	2.81019
3029.12	1.79497
3030.41	0.379754
3031.69	-0.586569
3032.98	-1.50793
3034.27	-1.71968
3035.56	-2.2175
3036.84	-1.78877
3038.13	-2.02727
3039.42	-2.1978
3040.71	-1.96054
3041.99	-1.60001
3043.28	-1.22673
3044.57	-0.811347
3045.85	-0.187611
3047.14	0.199661
3048.42	0.564026
3049.71	1.26214
3050.99	1.72845
3052.28	1.85917
3053.56	2.15769
3054.85	3.30357
3056.13	3.25272
3057.41	3.39219
3058.7	3.45723
3059.98	4.08033
3061.26	4.03456
3062.55	3.77833
3063.83	3.70508
3065.11	3.98922
3066.39	3.98126
3067.68	4.03232
3068.96	4.55972
3070.24	4.59689
3071.52	4.25165
3072.8	4.08598
3074.08	3.74032
3075.36	3.27164
3076.65	2.81865
3077.93	3.01284
3079.21	2.81699
3080.49	2.59229
3081.77	2.08775
3083.04	2.09648
3084.32	1.79649
3085.6	1.6437
3086.88	1.47192
3088.16	1.36934
3089.44	0.536829
3090.72	0.758471
3091.99	0.0991248
3093.27	0.087134
3094.55	0.283972
3095.83	1.03429
3097.1	1.78346
3098.38	2.53989
3099.66	2.81031
3100.93	3.25755
3102.21	3.51778
3103.49	4.07863
3104.76	5.13798
3106.04	5.71427
3107.31	6.40602
3108.59	7.4055
3109.86	8.04549
3111.14	9.09506
3112.41	9.95832
3113.69	11.0448
3114.96	11.9081
3116.23	13.1465
3117.51	14.3817
3118.78	15.5342
3120.05	16.3403
3121.33	17.7046
3122.6	18.8891
3123.87	20.2092
3125.14	20.9548
3126.41	22.0019
3127.69	23.3359
3128.96	24.4808
3130.23	25.5483
3131.5	26.6361
3132.77	27.6565
3134.04	28.1899
3135.31	29.3775
3136.58	30.4719
3137.85	31.4641
3139.12	32.6308
3140.39	33.877
3141.66	34.9548
3142.93	35.7536
3144.2	36.5673
3145.47	37.446
3146.74	38.1668
3148	39.3864
3149.27	40.2312
