#Acq. time (s)=	45
#Accumulations=	2
#Range (cm-¹)=	200...3150
#Windows=	2
#Auto scanning=	Off
#Autofocus=	Off
#Macrospot=	Off
#AutoExposure=	Off
#Spike filter=	Multiple accum.
#Delay time (s)=	0
#Binning=	1
#Readout mode=	Signal
#DeNoise=	Off
#ICS correction=	On
#Dark correction=	Off
#Inst. Process=	Off
#Detector Gain=	Best Dynamic Range
#Detector ADC=	20 kHz       
#Detector temperature (°C)=	-69.85
#Instrument=	LabRAM HR Evol
#Detector=	Synapse
#Objective=	x100
#Grating=	600 gr/mm
#ND Filter=	100%
#Laser (nm)=	532 
#Hole=	100.021
#Range=	Auto
#Laser Pol.=	No
#Raman. Pol.=	No
#Laser Pol. (°)=	-0.0007625
#Raman Pol. (°)=	89.9995
#Collection=	Microscope
#StageXY=	Marzhauser
#StageZ=	Marzhauser
#X (µm)=	-6400
#Y (µm)=	874.6
#Z (µm)=	-64.4
#Full time(mm:ss)=	3:18
#Project=	
#Sample=	
#Site=	
#Title=	Mb_30_27_18_2x_45s_532 nm_x100_100%_600 gr_mm
#Remark=	
#Date=	13.07.2022 09:58
#Acquired=	13.07.2022 09:58:38
#Base:Fit=	10.08.2022 10:40:03
#Base:Sub=	10.08.2022 10:40:17
#Filter:Polynom=	16.08.2022 10:16:15
#AxisType[0]=Intens
#AxisUnit[0]=Cnt
#AxisType[1]=Spectr
#AxisUnit[1]=1/cm
200.563	21.4035
202.377	21.0206
204.194	22.7455
206.008	22.6843
207.821	23.0451
209.634	22.9396
211.449	22.8281
213.262	22.4656
215.074	21.2814
216.885	20.0842
218.699	19.3588
220.51	18.177
222.321	16.2051
224.131	14.7718
225.941	13.8009
227.751	12.8885
229.562	11.83
231.371	11.183
233.18	10.6669
234.988	10.5307
236.796	10.9669
238.603	10.0429
240.411	9.58279
242.219	10.1027
244.026	8.83538
245.832	7.7147
247.638	6.4617
249.443	5.83418
251.248	5.35526
253.053	5.6643
254.857	5.87677
256.661	4.7722
258.465	4.4264
260.268	4.57943
262.071	5.15549
263.874	5.20529
265.678	4.78689
267.48	5.46975
269.282	5.92151
271.083	6.55031
272.884	5.79471
274.684	5.72156
276.484	5.60572
278.284	6.00985
280.084	6.13888
281.883	6.12975
283.682	7.31435
285.48	7.63939
287.276	8.03719
289.074	8.43546
290.871	9.85116
292.668	9.94549
294.465	9.47374
296.261	10.3737
298.057	9.95928
299.853	9.79558
301.648	10.0035
303.443	9.91068
305.237	9.69952
307.032	9.78377
308.823	10.0124
310.617	10.1616
312.41	9.65094
314.203	10.6822
315.995	10.5124
317.788	10.708
319.579	10.8295
321.369	10.7317
323.16	10.9325
324.951	10.7973
326.741	10.3774
328.531	9.4732
330.321	9.24704
332.108	9.66264
333.897	8.35563
335.686	9.18041
337.474	9.27085
339.26	9.34338
341.048	9.12468
342.835	9.22921
344.622	8.16581
346.406	7.46887
348.192	7.31843
349.978	6.15802
351.764	5.46611
353.547	5.11764
355.332	4.5905
357.116	5.00289
358.901	4.34843
360.682	4.11478
362.466	3.44273
364.249	3.48224
366.03	3.9457
367.812	3.87136
369.594	3.44734
371.374	3.50635
373.155	3.02634
374.936	2.82567
376.715	3.48337
378.495	3.15009
380.273	3.18756
382.053	3.05595
383.832	3.4604
385.609	3.76088
387.388	3.08746
389.164	3.2385
390.942	5.12717
392.72	4.93961
394.495	4.44358
396.272	4.96582
398.047	5.41847
399.823	5.6092
401.597	5.97329
403.372	6.68345
405.145	6.03416
406.92	6.65075
408.693	7.2658
410.467	6.0903
412.239	6.66352
414.012	6.38622
415.783	6.24355
417.556	6.65613
419.327	7.07704
421.099	8.20937
422.869	7.44172
424.64	7.42794
426.409	6.31861
428.18	5.98381
429.948	6.1877
431.718	5.52492
433.486	4.76544
435.253	3.95585
437.022	3.61301
438.789	3.1175
440.558	3.35362
442.324	3.50153
444.089	3.04422
445.857	2.78894
447.622	3.02935
449.386	3.4169
451.153	3.64151
452.917	4.19842
454.682	3.74538
456.446	3.41423
458.208	3.63265
459.973	3.66944
461.735	3.73314
463.497	4.47217
465.259	4.89945
467.022	4.70411
468.783	6.28725
470.544	7.78268
472.306	8.18842
474.066	7.85487
475.825	9.04229
477.585	10.0576
479.346	10.6573
481.104	10.5594
482.862	11.1811
484.62	11.9748
486.38	13.3266
488.137	14.0618
489.894	15.4133
491.65	15.7347
493.407	16.1497
495.164	16.6888
496.92	16.9401
498.675	17.6858
500.43	19.776
502.184	20.4914
503.939	21.3358
505.694	23.1844
507.448	23.5796
509.201	23.5614
510.954	22.7802
512.706	22.978
514.459	22.7598
516.21	22.5043
517.962	22.3547
519.715	21.5375
521.466	21.4941
523.216	21.2545
524.966	21.4923
526.716	21.6331
528.466	21.906
530.215	21.6253
531.964	21.31
533.712	20.9317
535.46	21.0538
537.208	19.9207
538.955	19.8191
540.703	19.4691
542.449	19.824
544.196	20.4337
545.942	19.4074
547.688	18.4196
549.433	17.4745
551.178	17.1478
552.923	16.1752
554.667	15.8764
556.412	15.8614
558.155	14.6285
559.899	12.5596
561.642	11.3775
563.385	10.9247
565.127	9.41966
566.867	9.25859
568.609	8.98284
570.35	8.46946
572.092	8.85601
573.832	9.89052
575.573	9.12354
577.313	9.37471
579.053	9.02981
580.79	9.21684
582.529	9.33922
584.268	9.32757
586.006	10.4606
587.745	9.83305
589.482	9.13201
591.218	8.66382
592.955	8.80006
594.692	8.06358
596.428	7.68797
598.164	7.34549
599.898	7.09142
601.634	6.1237
603.369	4.90686
605.104	4.96401
606.836	5.73112
608.57	6.53217
610.304	6.71114
612.037	6.95086
613.769	7.39986
615.501	7.16624
617.234	7.5644
618.966	7.69527
620.696	7.62075
622.427	8.20938
624.159	9.3051
625.887	10.2211
627.618	10.4613
629.348	10.67
631.076	10.4986
632.806	9.95432
634.535	11.0147
636.262	11.5351
637.99	11.8417
639.716	11.3612
641.444	12.2301
643.172	12.6202
644.897	13.091
646.624	13.35
648.348	14.3486
650.075	15.5408
651.801	17.2349
653.524	18.4554
655.249	18.464
656.972	18.9668
658.697	20.2783
660.419	21.3179
662.143	21.1836
663.865	22.0581
665.588	22.9343
667.309	24.1287
669.032	24.0471
670.752	24.0833
672.474	25.51
674.194	25.6322
675.915	25.601
677.634	26.2704
679.355	26.7308
681.073	27.4742
682.793	28.0062
684.511	28.8147
686.23	28.879
687.947	30.2233
689.664	31.2195
691.382	33.8394
693.098	35.0397
694.816	35.3744
696.531	36.1315
698.247	37.3195
699.963	38.1862
701.678	39.2939
703.392	40.2265
705.108	40.7012
706.821	41.9167
708.534	42.7607
710.249	43.4716
711.962	44.4492
713.674	44.7219
715.388	45.3339
717.099	46.4466
718.81	47.0795
720.523	48.0102
722.234	47.8651
723.944	48.1955
725.654	48.3791
727.365	49.4648
729.075	50.3016
730.784	50.8101
732.492	50.7311
734.202	50.9652
735.91	51.7469
737.618	51.936
739.325	52.654
741.034	52.4615
742.741	54.0676
744.447	54.8935
746.153	55.8125
747.859	55.9942
749.564	57.0262
751.271	57.9314
752.976	58.542
754.681	58.9239
756.385	60.7808
758.088	62.0654
759.792	62.4684
761.495	63.0644
763.2	65.194
764.902	66.0947
766.604	67.9907
768.306	69.1312
770.008	70.1726
771.709	71.3703
773.41	73.3914
775.11	73.44
776.811	74.5649
778.51	75.546
780.21	76.4424
781.909	77.5465
783.608	78.2966
785.307	78.7961
787.005	79.7194
788.703	79.32
790.401	79.4988
792.098	80.0456
793.795	80.4554
795.492	81.1982
797.188	81.5487
798.884	80.8242
800.58	81.9865
802.276	82.0016
803.971	81.5614
805.665	81.771
807.36	81.5443
809.054	82.2759
810.748	81.6236
812.441	81.8199
814.135	81.0878
815.826	80.5532
817.518	80.127
819.21	80.5439
820.902	81.1416
822.594	80.9707
824.285	81.3682
825.976	80.2779
827.665	80.141
829.355	79.1134
831.045	79.1814
832.735	78.4044
834.424	77.6148
836.111	76.4092
837.8	75.5729
839.488	75.1591
841.177	74.2049
842.864	72.7448
844.55	71.6436
846.237	71.176
847.924	70.7306
849.61	69.9896
851.295	70.2496
852.98	69.3088
854.666	68.4494
856.349	67.6387
858.034	65.9743
859.719	64.5331
861.403	63.3934
863.085	62.9593
864.769	62.1313
866.452	61.3731
868.133	61.1735
869.816	60.8708
871.498	61.0516
873.179	60.2595
874.86	60.593
876.54	60.0827
878.221	59.4112
879.902	59.5487
881.58	58.9501
883.26	58.1007
884.938	58.1932
886.618	57.8257
888.297	57.6845
889.974	57.6344
891.653	56.9796
893.329	56.8584
895.007	55.7405
896.683	55.1957
898.36	54.9154
900.035	55.4818
901.712	55.2163
903.387	54.9863
905.063	54.0284
906.737	53.4279
908.412	53.2101
910.085	52.3849
911.76	51.761
913.433	51.7298
915.107	51.4277
916.779	50.8921
918.452	49.0151
920.124	47.9748
921.797	47.7366
923.467	46.9138
925.138	45.7257
926.81	45.2319
928.48	44.4703
930.151	44.0238
931.82	43.4911
933.489	43.2229
935.16	42.6239
936.828	41.6712
938.496	41.3243
940.165	41.0373
941.833	40.413
943.5	41.1216
945.168	39.9461
946.834	39.9118
948.5	40.6119
950.168	40.4323
951.834	40.5141
953.499	40.0254
955.163	39.7405
956.83	39.0544
958.494	38.7892
960.158	38.5576
961.821	38.253
963.487	38.8089
965.15	38.2204
966.812	38.6195
968.474	39.656
970.138	40.2262
971.8	39.3694
973.461	38.5576
975.123	39.1452
976.783	38.6837
978.446	37.8917
980.106	38.5362
981.766	38.411
983.425	38.7193
985.084	38.2725
986.743	38.2379
988.402	38.2517
990.06	38.5864
991.72	38.4724
993.378	38.1385
995.035	37.4606
996.692	37.2527
998.349	35.848
1000.01	34.3709
1001.66	32.6177
1003.32	32.1212
1004.97	31.2401
1006.63	31.3721
1008.28	31.7184
1009.94	32.6173
1011.59	32.9805
1013.25	34.2973
1014.9	35.3844
1016.55	37.0141
1018.21	37.8858
1019.86	38.5692
1021.51	39.7969
1023.16	40.4829
1024.81	41.3635
1026.47	42.5158
1028.12	42.3052
1029.77	43.6313
1031.42	44.7024
1033.07	45.2737
1034.72	45.6067
1036.37	46.1701
1038.02	46.967
1039.67	46.4161
1041.31	46.994
1042.96	46.2715
1044.61	46.0279
1046.26	46.1166
1047.91	45.2553
1049.55	45.02
1051.2	43.3293
1052.84	40.4015
1054.49	39.0103
1056.14	37.8556
1057.78	37.4426
1059.43	35.5531
1061.07	34.959
1062.72	33.7403
1064.36	31.8111
1066	30.7179
1067.65	28.9814
1069.29	27.9079
1070.93	26.1065
1072.58	24.5004
1074.22	22.6449
1075.86	20.0323
1077.5	18.4042
1079.14	17.0993
1080.78	15.2793
1082.42	13.8256
1084.06	13.6023
1085.7	12.8349
1087.34	12.775
1088.98	13.3917
1090.62	13.5982
1092.26	13.8366
1093.9	13.793
1095.54	14.553
1097.17	14.2765
1098.81	15.0374
1100.45	14.8459
1102.09	15.8219
1103.72	16.6037
1105.36	16.0131
1106.99	16.975
1108.63	17.5552
1110.27	17.0228
1111.9	17.2759
1113.53	16.985
1115.17	17.2242
1116.8	16.2344
1118.43	15.9949
1120.07	15.9701
1121.7	14.8892
1123.33	15.9319
1124.97	15.3579
1126.6	15.356
1128.23	15.2277
1129.86	15.1981
1131.49	15.1017
1133.12	14.1177
1134.75	13.5711
1136.38	15.1701
1138.01	14.5035
1139.64	14.0835
1141.27	13.5636
1142.9	12.4002
1144.53	12.1283
1146.16	12.4607
1147.78	12.0784
1149.41	10.9374
1151.04	10.2693
1152.67	9.01716
1154.29	7.99484
1155.92	7.57533
1157.54	6.54807
1159.17	6.77899
1160.8	6.26773
1162.42	6.17596
1164.05	5.46745
1165.67	5.98068
1167.29	4.98447
1168.92	5.00595
1170.54	4.70069
1172.16	4.1938
1173.79	3.78787
1175.41	2.57507
1177.03	2.87438
1178.65	3.56332
1180.28	4.13135
1181.9	3.72728
1183.52	4.06878
1185.14	3.81519
1186.76	3.54455
1188.38	4.49055
1190	4.61601
1191.62	4.64165
1193.24	5.41972
1194.86	6.01469
1196.47	6.13287
1198.09	6.18532
1199.71	6.82489
1201.33	7.73342
1202.95	8.45724
1204.56	9.9382
1206.18	10.1758
1207.8	10.1539
1209.41	11.88
1211.03	12.7533
1212.64	13.5259
1214.26	14.1963
1215.87	14.0585
1217.49	15.1135
1219.1	15.2677
1220.71	15.946
1222.33	16.4081
1223.94	17.0943
1225.55	19.1052
1227.16	19.4722
1228.78	19.673
1230.39	19.8593
1232	21.061
1233.61	21.8698
1235.22	22.4669
1236.83	23.4519
1238.44	23.4244
1240.05	24.4624
1241.66	24.7911
1243.27	25.7732
1244.88	26.4943
1246.49	27.8635
1248.1	27.8348
1249.71	28.8303
1251.32	29.6541
1252.92	30.3561
1254.53	30.9975
1256.14	31.1631
1257.74	32.3461
1259.35	33.2366
1260.96	32.6392
1262.56	32.5223
1264.17	33.4921
1265.77	33.6867
1267.38	33.5542
1268.98	34.3515
1270.59	35.6706
1272.19	36.365
1273.79	37.3927
1275.4	36.8612
1277	36.3568
1278.6	37.3963
1280.21	38.4719
1281.81	39.8316
1283.41	40.8341
1285.01	41.154
1286.61	41.6145
1288.21	42.4254
1289.81	44.4992
1291.41	44.4983
1293.01	44.694
1294.61	43.9486
1296.21	44.1686
1297.81	45.2743
1299.41	45.9499
1301.01	46.84
1302.6	47.7172
1304.2	49.0873
1305.8	50.1383
1307.4	50.0408
1308.99	50.8928
1310.59	51.1133
1312.19	51.0341
1313.78	51.8077
1315.38	52.2262
1316.97	52.9304
1318.57	53.198
1320.16	53.742
1321.76	53.9294
1323.35	54.0525
1324.94	53.7403
1326.54	53.1163
1328.13	51.9739
1329.72	50.6984
1331.32	49.6085
1332.91	47.8442
1334.5	46.5405
1336.09	45.016
1337.68	44.3177
1339.27	44.0558
1340.87	42.7094
1342.45	42.3079
1344.04	41.8881
1345.64	40.0467
1347.22	39.16
1348.81	38.2988
1350.4	37.162
1351.99	35.4661
1353.58	34.9803
1355.17	32.3124
1356.75	31.553
1358.34	31.0363
1359.93	30.5158
1361.51	29.7587
1363.1	28.5317
1364.69	28.0392
1366.27	27.5165
1367.86	26.932
1369.44	26.4897
1371.03	25.0694
1372.61	24.7566
1374.2	23.7067
1375.78	23.9384
1377.37	24.0768
1378.95	24.8995
1380.53	25.0409
1382.11	25.0796
1383.7	25.2963
1385.28	26.0179
1386.86	25.8998
1388.44	25.9625
1390.02	25.3164
1391.6	25.9923
1393.19	26.1325
1394.77	26.31
1396.35	26.2982
1397.93	25.6318
1399.51	26.0861
1401.08	25.1511
1402.66	25.1854
1404.24	24.7982
1405.82	24.5698
1407.4	24.1448
1408.97	24.2032
1410.55	24.9027
1412.13	24.6701
1413.71	25.2502
1415.28	25.2663
1416.86	25.9113
1418.43	26.8206
1420.01	27.9757
1421.59	28.2945
1423.16	29.2022
1424.73	29.8032
1426.31	31.1661
1427.88	31.3393
1429.46	33.4614
1431.03	35.1504
1432.6	36.5933
1434.18	36.6979
1435.75	38.5531
1437.32	40.334
1438.89	41.0822
1440.46	41.8333
1442.04	42.1986
1443.61	43.0292
1445.18	42.9076
1446.75	43.2446
1448.32	43.9334
1449.89	44.202
1451.46	44.7499
1453.03	44.8347
1454.6	44.8476
1456.16	45.1736
1457.73	44.7583
1459.3	45.0029
1460.87	45.1643
1462.44	45.2491
1464	44.2962
1465.57	42.6314
1467.14	41.8069
1468.7	41.4281
1470.27	41.169
1471.83	39.9401
1473.4	38.6722
1474.96	38.1008
1476.53	36.9941
1478.09	36.0417
1479.66	34.4113
1481.22	33.7134
1482.78	31.8531
1484.35	31.1767
1485.91	29.9195
1487.47	28.6312
1489.04	27.1928
1490.6	26.0808
1492.16	25.2303
1493.72	24.6507
1495.28	25.1522
1496.84	25.2564
1498.4	23.9435
1499.96	22.6151
1501.52	22.5696
1503.08	21.4593
1504.64	20.408
1506.2	19.5397
1507.76	20.0462
1509.32	18.8269
1510.88	18.2169
1512.44	17.6488
1513.99	17.001
1515.55	16.4421
1517.11	15.5964
1518.66	15.4618
1520.22	15.2505
1521.78	14.6801
1523.33	14.887
1524.89	14.7575
1526.44	14.881
1528	15.361
1529.55	15.308
1531.11	15.0413
1532.66	14.844
1534.21	15.0245
1535.77	15.4863
1537.32	15.1601
1538.87	14.6723
1540.43	14.682
1541.98	14.6784
1543.53	15.7273
1545.08	16.6568
1546.63	17.6503
1548.18	18.1413
1549.74	18.6927
1551.29	19.1438
1552.84	21.0389
1554.39	20.7387
1555.94	20.9816
1557.48	21.3671
1559.03	21.5293
1560.58	22.0159
1562.13	22.6023
1563.68	23.2355
1565.23	23.2311
1566.78	22.9507
1568.32	23.7124
1569.87	24.3194
1571.42	25.0809
1572.96	25.832
1574.51	25.9271
1576.05	26.4206
1577.6	27.5996
1579.14	28.6636
1580.69	29.8034
1582.24	30.7098
1583.78	31.7988
1585.32	33.006
1586.87	33.1828
1588.41	34.2948
1589.95	35.3296
1591.5	35.9161
1593.04	37.1483
1594.58	37.5059
1596.12	38.3372
1597.67	39.1237
1599.21	39.8086
1600.75	40.7127
1602.29	40.8781
1603.83	41.8344
1605.37	42.6366
1606.91	42.4345
1608.45	42.512
1609.99	42.4574
1611.53	42.3241
1613.07	42.8176
1614.6	42.6013
1616.14	44.186
1617.68	44.9859
1619.22	45.6827
1620.75	46.6067
1622.29	47.393
1623.83	47.8494
1625.37	47.989
1626.9	48.4586
1628.44	48.7658
1629.97	49.0985
1631.51	49.0758
1633.04	50.0831
1634.58	50.8227
1636.11	52.0711
1637.65	53.1152
1639.18	53.3354
1640.72	54.3794
1642.25	54.3538
1643.78	55.4049
1645.31	57.202
1646.85	58.6717
1648.38	59.9192
1649.91	60.7971
1651.44	60.7325
1652.97	60.6233
1654.5	59.6906
1656.03	59.5517
1657.56	59.6532
1659.1	58.1126
1660.62	57.8921
1662.15	56.7282
1663.68	55.9015
1665.21	55.1036
1666.74	54.2417
1668.27	53.0086
1669.8	51.2434
1671.32	49.634
1672.85	48.2373
1674.38	46.8906
1675.91	45.3798
1677.43	43.4726
1678.96	41.9951
1680.49	40.4846
1682.01	38.1519
1683.54	36.2894
1685.06	34.5708
1686.59	33.1336
1688.11	31.63
1689.64	30.6442
1691.16	29.0694
1692.68	27.6582
1694.21	26.2332
1695.73	24.6073
1697.25	23.2094
1698.78	21.7507
1700.3	20.7274
1701.82	20.1266
1703.34	18.8124
1704.86	18.1996
1706.39	17.3279
1707.91	17.0919
1709.43	16.3256
1710.95	15.7509
1712.47	16.1509
1713.99	15.6766
1715.51	15.0285
1717.02	14.7515
1718.54	14.1575
1720.06	13.9729
1721.58	13.3634
1723.1	12.2622
1724.62	11.1265
1726.13	9.24493
1727.65	8.16629
1729.17	7.41252
1730.68	7.25396
1732.2	7.07564
1733.72	6.91555
1735.23	5.69714
1736.75	5.84831
1738.26	4.93605
1739.78	4.8064
1741.29	4.54052
1742.81	4.33814
1744.32	4.16359
1745.84	2.94084
1747.35	3.25941
1748.86	3.1718
1750.37	3.49825
1751.89	3.26144
1753.4	3.32912
1754.91	3.10057
1756.42	3.07993
1757.93	3.10968
1759.45	3.77519
1760.96	4.32347
1762.47	4.51772
1763.98	4.27684
1765.49	4.25172
1767	3.54277
1768.51	3.5019
1770.02	3.71873
1771.53	3.4126
1773.03	3.56162
1774.54	3.85362
1776.05	3.74353
1777.56	3.18852
1779.07	3.02082
1780.57	3.65166
1782.08	3.44604
1783.59	3.57564
1785.09	3.52697
1786.6	3.7435
1788.11	3.57348
1789.61	3.1519
1791.12	3.02526
1792.62	2.59637
1794.13	2.69087
1795.63	2.73672
1797.13	2.33444
1798.64	2.37288
1800.14	2.35563
1801.65	2.08709
1803.15	2.01686
1804.65	1.59148
1806.15	1.63099
1807.66	1.22848
1809.16	1.4261
1810.66	1.10515
1812.16	1.15241
1813.66	1.11486
1815.16	1.64374
1816.66	1.92946
1818.16	2.05662
1819.66	2.4351
1821.16	2.34999
1822.66	3.20073
1824.16	2.8641
1825.66	2.54592
1827.16	2.65539
1828.66	3.23712
1830.16	3.40494
1831.65	3.8425
1833.15	3.83955
1834.65	4.55215
1836.14	4.5182
1837.64	4.35245
1839.14	3.55428
1840.63	3.1841
1842.13	3.24114
1843.62	3.37837
1845.12	3.42263
1846.61	3.60841
1848.11	3.48039
1849.6	3.54835
1851.1	3.46653
1852.59	3.89431
1854.08	4.29853
1855.58	4.41288
1857.07	4.47797
1858.56	4.88759
1860.05	4.93517
1861.55	4.11716
1863.04	4.19219
1864.53	4.50453
1866.02	3.8838
1867.51	3.69894
1869	3.49856
1870.49	3.90612
1871.98	3.25399
1873.47	3.60096
1874.96	2.93504
1876.45	2.95446
1877.94	2.91301
1879.43	3.35861
1880.92	3.81908
1882.41	3.93801
1882.51	3.9126
1884	4.17486
1885.5	4.66723
1886.99	4.7662
1888.48	5.61463
1889.98	6.19435
1891.47	6.06588
1892.96	5.90517
1894.46	5.88234
1895.95	5.65013
1897.44	5.44466
1898.93	5.86771
1900.42	6.62851
1901.91	6.65012
1903.41	6.13752
1904.9	6.00872
1906.39	5.89346
1907.88	6.15437
1909.37	5.48679
1910.86	5.4936
1912.35	5.0185
1913.83	4.64756
1915.32	4.48208
1916.81	4.51959
1918.3	4.25299
1919.79	4.54269
1921.27	3.93699
1922.76	3.83235
1924.25	3.73487
1925.74	3.31341
1927.22	3.94744
1928.71	3.58808
1930.19	4.03822
1931.68	3.50248
1933.17	3.44094
1934.65	2.8654
1936.14	2.85217
1937.62	2.87548
1939.11	2.42962
1940.59	2.68713
1942.07	2.38515
1943.56	2.54138
1945.04	2.06417
1946.52	1.78652
1948.01	1.4952
1949.49	1.3524
1950.97	1.4685
1952.45	1.65492
1953.93	2.14052
1955.42	2.53439
1956.9	3.31299
1958.38	3.17273
1959.86	2.86996
1961.34	2.83617
1962.82	3.2917
1964.3	2.79576
1965.78	1.77717
1967.26	1.72051
1968.74	2.09248
1970.21	2.11348
1971.69	2.57997
1973.17	2.92117
1974.65	2.67393
1976.13	2.31511
1977.6	2.29092
1979.08	2.07609
1980.56	2.08587
1982.03	2.13352
1983.51	1.29824
1984.99	1.15237
1986.46	1.05632
1987.94	0.238547
1989.41	0.561316
1990.89	0.894823
1992.36	1.08521
1993.84	1.07824
1995.31	0.620179
1996.78	0.905575
1998.26	1.15417
1999.73	1.3515
2001.2	2.19391
2002.68	1.66502
2004.15	2.10035
2005.62	2.10846
2007.09	2.80215
2008.56	2.26735
2010.04	2.4735
2011.51	2.8564
2012.98	3.05567
2014.45	3.34086
2015.92	3.95711
2017.39	4.17628
2018.86	4.65435
2020.33	5.0397
2021.8	5.45646
2023.26	5.70158
2024.73	6.59107
2026.2	7.47754
2027.67	7.59381
2029.14	7.51389
2030.61	7.52008
2032.07	7.20742
2033.54	7.5597
2035.01	8.13354
2036.47	7.87917
2037.94	7.65296
2039.4	7.76183
2040.87	7.88311
2042.33	8.41176
2043.8	7.90526
2045.27	8.16916
2046.73	7.96414
2048.19	7.12258
2049.66	6.86979
2051.12	5.97772
2052.59	5.77401
2054.05	6.15597
2055.51	5.9632
2056.97	5.34256
2058.44	5.56323
2059.9	5.31217
2061.36	4.89566
2062.82	5.49945
2064.28	5.51503
2065.74	5.83095
2067.21	5.60519
2068.67	6.174
2070.13	6.48903
2071.59	6.77556
2073.05	7.05168
2074.51	7.22279
2075.96	7.2421
2077.42	7.73351
2078.88	8.63181
2080.34	8.76151
2081.8	9.03521
2083.26	10.0355
2084.72	11.0874
2086.17	11.8472
2087.63	12.4839
2089.09	13.1607
2090.54	13.0004
2092	13.6113
2093.45	13.7656
2094.91	14.1794
2096.37	14.7761
2097.82	15.734
2099.28	16.3456
2100.73	16.8241
2102.19	17.3489
2103.64	18.0618
2105.09	18.8596
2106.55	19.4253
2108	20.2724
2109.45	20.9909
2110.91	22.2877
2112.36	23.0245
2113.81	23.8361
2115.26	24.5844
2116.72	25.3964
2118.17	26.5114
2119.62	27.3662
2121.07	27.9591
2122.52	28.6769
2123.97	29.2641
2125.42	30.4573
2126.87	30.7642
2128.32	31.7296
2129.77	33.0749
2131.22	33.9439
2132.67	35.2957
2134.11	36.1115
2135.56	37.0104
2137.01	38.2674
2138.46	39.4274
2139.91	40.2041
2141.35	40.8214
2142.8	41.3721
2144.25	42.4276
2145.7	43.3394
2147.14	44.1152
2148.59	45.5382
2150.03	47.2354
2151.48	47.8018
2152.92	48.6003
2154.37	49.4084
2155.81	51.0087
2157.26	51.7166
2158.7	51.7592
2160.15	52.4795
2161.59	52.7211
2163.03	53.3746
2164.47	54.0812
2165.92	53.9384
2167.36	54.3549
2168.8	54.9771
2170.24	55.6211
2171.69	56.03
2173.13	56.1011
2174.57	56.3275
2176.01	57.3221
2177.45	57.7462
2178.89	57.8024
2180.33	58.2853
2181.77	58.0285
2183.21	57.1688
2184.65	56.6186
2186.09	56.2466
2187.53	55.4439
2188.97	54.9228
2190.4	54.2316
2191.84	52.8731
2193.28	51.5466
2194.72	50.0431
2196.16	49.1091
2197.59	48.331
2199.03	47.2915
2200.47	46.4689
2201.9	45.4457
2203.34	44.4068
2204.77	43.5981
2206.21	42.1165
2207.64	41.401
2209.08	40.5994
2210.51	39.1737
2211.95	37.6509
2213.38	36.6103
2214.82	35.6142
2216.25	34.8649
2217.68	33.7177
2219.12	32.5851
2220.55	31.303
2221.98	29.517
2223.41	27.9245
2224.85	26.9431
2226.28	25.8642
2227.71	25.4379
2229.14	23.7458
2230.57	22.3338
2232	21.6655
2233.43	20.038
2234.86	18.8694
2236.29	17.6235
2237.72	17.5217
2239.15	17.4481
2240.58	17.2331
2242.01	16.6036
2243.44	16.2688
2244.87	15.3717
2246.29	15.3779
2247.72	15.0064
2249.15	14.6657
2250.58	14.1271
2252.01	13.6527
2253.43	12.7984
2254.86	12.2747
2256.29	12.5687
2257.71	12.4672
2259.14	11.9302
2260.56	11.6315
2261.99	11.6905
2263.41	11.1534
2264.84	11.608
2266.26	11.3699
2267.69	11.712
2269.11	12.0173
2270.53	12.1667
2271.96	12.2169
2273.38	12.455
2274.8	12.108
2276.23	11.6937
2277.65	11.7302
2279.07	11.6301
2280.49	11.1941
2281.91	10.5901
2283.34	10.2201
2284.76	10.4346
2286.18	9.7135
2287.6	9.49172
2289.02	8.95819
2290.44	8.78929
2291.86	7.74483
2293.28	7.57648
2294.7	7.46652
2296.12	7.59786
2297.54	7.88866
2298.96	7.85503
2300.37	7.71864
2301.79	8.095
2303.21	8.58395
2304.63	8.85892
2306.04	9.21881
2307.46	10.0212
2308.88	10.5379
2310.3	10.4741
2311.71	10.9962
2313.13	11.1734
2314.54	11.5134
2315.96	11.5052
2317.37	11.5488
2318.79	11.5945
2320.2	11.0357
2321.62	10.9355
2323.03	10.9682
2324.45	10.9665
2325.86	11.5759
2327.27	11.6718
2328.69	11.4877
2330.1	10.9034
2331.51	10.6989
2332.92	10.5119
2334.34	10.047
2335.75	9.54167
2337.16	9.07458
2338.57	8.59002
2339.98	7.98087
2341.39	7.30867
2342.8	6.84479
2344.21	6.26162
2345.63	5.86243
2347.04	5.40123
2348.45	4.92678
2349.85	4.83733
2351.26	4.42383
2352.67	3.80332
2354.08	3.30426
2355.49	2.7518
2356.9	2.07738
2358.3	1.43321
2359.71	1.23327
2361.12	1.62848
2362.53	1.03563
2363.93	1.63876
2365.34	1.77655
2366.75	1.97305
2368.15	1.51028
2369.56	1.23638
2370.97	1.36047
2372.37	1.81086
2373.77	1.80299
2375.18	1.57492
2376.59	1.20784
2377.99	1.72431
2379.39	2.2349
2380.8	2.52823
2382.2	2.36121
2383.6	2.31352
2385.01	2.43642
2386.41	1.90385
2387.81	1.76297
2389.21	2.0321
2390.62	1.75435
2392.02	2.62967
2393.42	2.6463
2394.82	2.66563
2396.22	3.07793
2397.62	2.80048
2399.02	3.33899
2400.42	3.53493
2401.82	3.25081
2403.22	3.40613
2404.62	3.49922
2406.02	3.89794
2407.42	3.92404
2408.82	4.40903
2410.22	4.79098
2411.62	5.74487
2413.01	6.03874
2414.41	5.96613
2415.81	6.40536
2417.21	6.63529
2418.6	7.39819
2420	7.35632
2421.4	6.92026
2422.79	6.72921
2424.19	6.62534
2425.59	6.43463
2426.98	6.31274
2428.38	6.42718
2429.77	6.49896
2431.17	6.69632
2432.56	6.19278
2433.95	5.92644
2435.35	5.7729
2436.74	5.07785
2438.14	5.21114
2439.53	5.16141
2440.92	5.29689
2442.31	5.18143
2443.71	4.17373
2445.1	3.82783
2446.49	3.49908
2447.88	3.91619
2449.27	4.02469
2450.67	3.58588
2452.06	3.42107
2453.45	3.61252
2454.84	3.12806
2456.23	2.57926
2457.62	2.50271
2459.01	2.17001
2460.4	1.70336
2461.79	1.60804
2463.18	1.68987
2464.57	1.93522
2465.95	2.76539
2467.34	2.83887
2468.73	3.07892
2470.12	2.29189
2471.5	2.88939
2472.89	3.27001
2474.28	3.30321
2475.67	3.65653
2477.05	3.66897
2478.44	3.96766
2479.82	4.41872
2481.21	4.42369
2482.6	3.86876
2483.98	3.47165
2485.37	3.68015
2486.75	3.24048
2488.13	3.45163
2489.52	3.35755
2490.9	3.31607
2492.29	3.02064
2493.67	2.86719
2495.05	2.50847
2496.44	2.74759
2497.82	2.82327
2499.2	2.23615
2500.58	2.18207
2501.97	2.03457
2503.35	1.77673
2504.73	1.94098
2506.11	1.17711
2507.49	1.10513
2508.87	0.824599
2510.25	0.808767
2511.63	1.05658
2513.01	0.978493
2514.39	1.1854
2515.77	1.30266
2517.15	2.02094
2518.53	1.81843
2519.91	1.97251
2521.29	1.95691
2522.67	2.06225
2524.05	1.89778
2525.42	1.75521
2526.8	1.87064
2528.18	1.87032
2529.55	2.26206
2530.93	2.71061
2532.31	3.24258
2533.69	3.60521
2535.06	3.78023
2536.44	3.74207
2537.81	3.65845
2539.19	4.1078
2540.56	5.13552
2541.94	4.5698
2543.31	4.35384
2544.69	4.89474
2546.06	4.71613
2547.44	4.25898
2548.81	4.05541
2550.18	3.68933
2551.56	4.01786
2552.93	4.33246
2554.3	4.71905
2555.67	4.72095
2557.04	5.14962
2558.42	4.47825
2559.79	3.82346
2561.16	3.78188
2562.53	3.74982
2563.9	3.0566
2565.27	2.89453
2566.64	2.57691
2568.01	2.57194
2569.38	2.7233
2570.75	3.27533
2572.12	3.27539
2573.49	3.44482
2574.86	3.34745
2576.23	3.91912
2577.6	4.50305
2578.97	4.28405
2580.33	4.27247
2581.7	3.89801
2583.07	4.55749
2584.44	4.84572
2585.8	4.92815
2587.17	4.65042
2588.54	4.82829
2589.9	4.05046
2591.27	3.71895
2592.64	2.95101
2594	2.66541
2595.37	2.50694
2596.73	2.14462
2598.1	2.23746
2599.46	2.21976
2600.83	2.18706
2602.19	2.33386
2603.55	2.50388
2604.92	2.4497
2606.28	2.07994
2607.64	2.67223
2609.01	2.00486
2610.37	1.54395
2611.73	1.34337
2613.09	1.93766
2614.46	1.81649
2615.82	1.97546
2617.18	1.95288
2618.54	2.88965
2619.9	3.14947
2621.26	3.10033
2622.62	3.20982
2623.98	3.62068
2625.34	3.50608
2626.7	3.53769
2628.06	3.93825
2629.42	4.38974
2630.78	4.6984
2632.14	4.91185
2633.5	5.7908
2634.86	6.52799
2636.21	7.46373
2637.57	7.50904
2638.93	8.00452
2640.29	7.9337
2641.64	7.88405
2643	8.06875
2644.36	8.23556
2645.71	7.71111
2647.07	7.52551
2648.43	8.12367
2649.78	8.56362
2651.14	8.46503
2652.49	7.40646
2653.85	7.20294
2655.2	6.57693
2656.56	6.29723
2657.91	5.60307
2659.26	5.31956
2660.62	5.24956
2661.97	5.66218
2663.32	5.4152
2664.68	5.17125
2666.03	5.27318
2667.38	5.22205
2668.74	5.06669
2670.09	5.2305
2671.44	5.47566
2672.79	4.94587
2674.14	5.18338
2675.49	4.94855
2676.84	4.47778
2678.19	4.82355
2679.54	5.34113
2680.89	5.46407
2682.24	5.21666
2683.59	5.35324
2684.94	5.44277
2686.29	6.26857
2687.64	6.30294
2688.99	6.35368
2690.34	6.73509
2691.69	7.04715
2693.03	7.04229
2694.38	7.34248
2695.73	6.89081
2697.08	6.82702
2698.42	7.31932
2699.77	7.61868
2701.12	7.93221
2702.46	8.04452
2703.81	8.12226
2705.15	7.73844
2706.5	7.83506
2707.85	7.88623
2709.19	7.92203
2710.54	7.89455
2711.88	8.00914
2713.22	7.98864
2714.57	8.16066
2715.91	8.07876
2717.26	8.17293
2718.6	7.89771
2719.94	7.85876
2721.29	8.42014
2722.63	8.77824
2723.97	9.17536
2725.31	9.04522
2726.66	8.92841
2728	8.99681
2729.34	9.20008
2730.68	9.0813
2732.02	8.90731
2733.36	8.83043
2734.7	8.92784
2736.04	8.78936
2737.38	8.93613
2738.72	8.57149
2740.06	7.5266
2741.4	7.35687
2742.74	6.82246
2744.08	6.95622
2745.42	7.08893
2746.76	6.78306
2748.09	6.12348
2749.43	6.40169
2750.77	6.21799
2752.11	5.55899
2753.45	4.88064
2754.78	4.2332
2756.12	3.78947
2757.46	3.18757
2758.79	2.37462
2760.13	1.79179
2761.46	1.20065
2762.8	0.689272
2764.14	0.652078
2765.47	0.61219
2766.8	0.482915
2768.14	0.0804434
2769.47	-0.210574
2770.81	-0.409454
2772.14	-0.379351
2773.48	-0.10039
2774.81	-0.0498849
2776.14	-0.0349236
2777.48	-0.183111
2778.81	0.232437
2780.14	0.411919
2781.47	0.225623
2782.8	0.83824
2784.14	1.65286
2785.47	1.73691
2786.8	2.01665
2788.13	2.38434
2789.46	1.93565
2790.79	1.62252
2792.12	1.47929
2793.45	1.22851
2794.78	1.51986
2796.11	2.23327
2797.44	2.32498
2798.77	2.27774
2800.1	2.67454
2801.43	2.87588
2802.76	2.89174
2804.09	3.22336
2805.41	2.75255
2806.74	3.06276
2808.07	2.90402
2809.4	2.89307
2810.72	3.09818
2812.05	3.11058
2813.38	3.13023
2814.71	3.16879
2816.03	3.57411
2817.36	3.36969
2818.68	3.79465
2820.01	4.14424
2821.33	4.84133
2822.66	5.7024
2823.98	6.12276
2825.31	7.1739
2826.63	8.59426
2827.96	9.1774
2829.28	10.2071
2830.6	11.2245
2831.93	12.153
2833.25	13.2468
2834.57	13.9584
2835.9	15.6158
2837.22	16.9285
2838.54	18.6151
2839.86	20.229
2841.18	22.1274
2842.5	24.332
2843.83	26.5037
2845.15	29.0199
2846.47	31.0182
2847.79	33.3917
2849.11	36.3367
2850.43	38.5795
2851.75	41.1312
2853.07	43.3884
2854.39	45.6526
2855.71	48.6549
2857.03	51.2798
2858.35	54.1499
2859.66	56.4523
2860.98	59.4241
2862.3	61.9933
2863.62	64.167
2864.94	66.7678
2866.25	68.835
2867.57	70.5089
2868.89	72.0515
2870.2	73.7513
2871.52	75.0753
2872.84	76.7344
2874.15	77.3207
2875.47	79.4081
2876.78	80.7947
2878.1	82.0821
2879.41	83.5562
2880.73	85.1461
2882.04	86.6317
2883.36	87.5881
2884.67	88.4957
2885.99	89.4421
2887.3	90.5957
2888.61	92.1636
2889.93	93.1542
2891.24	94.4171
2892.55	95.5474
2893.86	96.9077
2895.18	99.3047
2896.49	100.932
2897.8	102.123
2899.11	104.504
2900.42	107.194
2901.73	109.73
2903.05	112.143
2904.36	115.029
2905.67	118.078
2906.98	121.385
2908.29	124.615
2909.6	127.66
2910.91	130.765
2912.21	133.898
2913.52	137.624
2914.83	140.563
2916.14	143.877
2917.45	146.678
2918.76	149.618
2920.07	152.925
2921.37	155.744
2922.68	157.738
2923.99	160.165
2925.29	161.592
2926.6	163.056
2927.91	164.478
2929.22	165.902
2930.52	166.69
2931.83	166.119
2933.13	166.194
2934.44	165.978
2935.74	165.658
2937.05	164.72
2938.35	163.886
2939.66	162.586
2940.96	161.412
2942.26	159.426
2943.57	158.055
2944.87	156
2946.18	153.439
2947.48	150.669
2948.78	147.833
2950.08	145.423
2951.39	142.945
2952.69	140.41
2953.99	137.957
2955.29	135.102
2956.59	132.336
2957.9	129.55
2959.2	126.579
2960.5	123.536
2961.8	119.983
2963.1	116.961
2964.4	114.21
2965.7	111.3
2967	108.075
2968.3	105.285
2969.6	102.486
2970.9	99.6134
2972.19	96.585
2973.49	93.5221
2974.79	90.2155
2976.09	87.348
2977.39	84.3518
2978.68	81.2211
2979.98	78.2026
2981.28	76.0389
2982.58	73.1326
2983.87	70.5956
2985.17	67.8393
2986.47	64.5778
2987.76	61.5155
2989.06	58.3289
2990.35	55.6171
2991.65	52.993
2992.94	50.6029
2994.24	47.8089
2995.53	44.7114
2996.83	41.7076
2998.12	39.4198
2999.42	37.0842
3000.71	34.1121
3002	31.9162
3003.3	29.8571
3004.59	27.4073
3005.88	25.8281
3007.18	23.9875
3008.47	22.1467
3009.76	19.8504
3011.05	18.1972
3012.34	16.7529
3013.64	14.9489
3014.93	13.8178
3016.22	12.719
3017.51	11.6309
3018.8	10.6482
3020.09	9.71236
3021.38	9.13215
3022.67	8.61881
3023.96	8.40843
3025.25	8.3745
3026.54	7.85314
3027.83	7.19664
3029.12	7.06802
3030.41	6.98781
3031.69	6.96089
3032.98	6.90402
3034.27	6.81745
3035.56	6.6359
3036.84	6.95872
3038.13	6.84727
3039.42	7.22885
3040.71	7.93592
3041.99	8.39962
3043.28	8.76168
3044.57	9.54403
3045.85	10.1814
3047.14	10.6564
3048.42	10.4401
3049.71	10.513
3050.99	10.7073
3052.28	11.1308
3053.56	11.1091
3054.85	11.0884
3056.13	10.7849
3057.41	10.4619
3058.7	10.7307
3059.98	10.806
3061.26	10.5323
3062.55	11.113
3063.83	10.8283
3065.11	10.3648
3066.39	10.5912
3067.68	10.1548
3068.96	9.57023
3070.24	8.88092
3071.52	7.47011
3072.8	6.78496
3074.08	6.54242
3075.36	6.27389
3076.65	5.77633
3077.93	5.39654
3079.21	5.48964
3080.49	5.76584
3081.77	5.33724
3083.04	5.26705
3084.32	4.88253
3085.6	4.54468
3086.88	3.68933
3088.16	3.07828
3089.44	2.49313
3090.72	1.90437
3091.99	1.82528
3093.27	2.55122
3094.55	2.4004
3095.83	2.6378
3097.1	2.13234
3098.38	2.15368
3099.66	2.11963
3100.93	2.45273
3102.21	2.45284
3103.49	3.27427
3104.76	3.58996
3106.04	4.24506
3107.31	4.91235
3108.59	5.56114
3109.86	5.68232
3111.14	6.35974
3112.41	6.20945
3113.69	6.85349
3114.96	7.48986
3116.23	7.70236
3117.51	7.985
3118.78	8.47641
3120.05	9.27456
3121.33	9.93368
3122.6	10.8131
3123.87	11.0491
3125.14	11.2104
3126.41	11.9435
3127.69	11.5669
3128.96	11.8199
3130.23	11.8996
3131.5	11.6861
3132.77	11.9053
3134.04	12.2698
3135.31	13.0499
3136.58	13.9817
3137.85	14.4816
3139.12	14.4816
3140.39	14.581
3141.66	14.5925
3142.93	14.4554
3144.2	14.0088
3145.47	13.8153
3146.74	13.8334
3148	14.2863
3149.27	15.1352
