#Acq. time (s)=	45
#Accumulations=	2
#Range (cm-¹)=	200...3150
#Windows=	2
#Auto scanning=	Off
#Autofocus=	Off
#Macrospot=	Off
#AutoExposure=	Off
#Spike filter=	Multiple accum.
#Delay time (s)=	0
#Binning=	1
#Readout mode=	Signal
#DeNoise=	Off
#ICS correction=	On
#Dark correction=	Off
#Inst. Process=	Off
#Detector Gain=	Best Dynamic Range
#Detector ADC=	20 kHz       
#Detector temperature (°C)=	-70.08
#Instrument=	LabRAM HR Evol
#Detector=	Synapse
#Objective=	x100
#Grating=	600 gr/mm
#ND Filter=	100%
#Laser (nm)=	532 
#Hole=	100.021
#Range=	Auto
#Laser Pol.=	No
#Raman. Pol.=	No
#Laser Pol. (°)=	-0.0007625
#Raman Pol. (°)=	89.9995
#Collection=	Microscope
#StageXY=	Marzhauser
#StageZ=	Marzhauser
#X (µm)=	-6347.9
#Y (µm)=	802.2
#Z (µm)=	-64.3
#Full time(mm:ss)=	3:18
#Project=	
#Sample=	
#Site=	
#Title=	Mb_30_27_37_2x_45s_532 nm_x100_100%_600 gr_mm
#Remark=	
#Date=	13.07.2022 11:28
#Acquired=	13.07.2022 11:28:43
#Base:Fit=	10.08.2022 10:40:03
#Base:Sub=	10.08.2022 10:40:17
#Filter:Polynom=	16.08.2022 10:16:15
#AxisType[0]=Intens
#AxisUnit[0]=Cnt
#AxisType[1]=Spectr
#AxisUnit[1]=1/cm
200.563	18.3871
202.377	19.3628
204.194	18.9783
206.008	18.5035
207.821	17.934
209.634	16.8931
211.449	16.1939
213.262	16.093
215.074	15.6118
216.885	15.2386
218.699	14.4118
220.51	13.8156
222.321	14.1808
224.131	12.846
225.941	12.2712
227.751	11.6115
229.562	11.9599
231.371	11.7554
233.18	11.2431
234.988	11.2854
236.796	11.0611
238.603	10.2506
240.411	9.62378
242.219	9.28514
244.026	9.10506
245.832	9.12808
247.638	8.75408
249.443	8.15532
251.248	7.17687
253.053	6.90142
254.857	6.56805
256.661	6.39378
258.465	7.47889
260.268	6.72307
262.071	7.0516
263.874	8.22546
265.678	7.9699
267.48	9.14895
269.282	9.61897
271.083	10.5465
272.884	10.1955
274.684	11.6346
276.484	13.4046
278.284	12.8687
280.084	12.7093
281.883	12.8595
283.682	13.774
285.48	13.9393
287.276	13.2556
289.074	13.0481
290.871	13.984
292.668	14.9459
294.465	15.5524
296.261	16.0389
298.057	16.528
299.853	18.45
301.648	19.9097
303.443	20.3568
305.237	20.4313
307.032	20.6192
308.823	20.8984
310.617	21.3027
312.41	21.2653
314.203	20.4738
315.995	21.3803
317.788	22.0853
319.579	22.2006
321.369	21.587
323.16	21.5717
324.951	21.8954
326.741	21.4312
328.531	20.8072
330.321	20.425
332.108	20.7109
333.897	19.9784
335.686	19.3328
337.474	19.0423
339.26	18.8133
341.048	18.4748
342.835	18.9836
344.622	19.3002
346.406	19.6349
348.192	19.3698
349.978	18.0052
351.764	18.3674
353.547	19.1255
355.332	17.9209
357.116	18.0998
358.901	17.7142
360.682	17.9522
362.466	17.2176
364.249	16.657
366.03	16.2445
367.812	15.1263
369.594	15.3502
371.374	16.238
373.155	16.0088
374.936	15.2956
376.715	15.4977
378.495	16.0388
380.273	16.6975
382.053	16.3395
383.832	15.457
385.609	15.4865
387.388	16.0656
389.164	16.4275
390.942	15.7716
392.72	14.5457
394.495	13.8921
396.272	13.0133
398.047	11.6555
399.823	11.2669
401.597	10.4151
403.372	10.7181
405.145	10.5759
406.92	9.85682
408.693	9.05514
410.467	8.74997
412.239	8.68031
414.012	8.00796
415.783	7.63179
417.556	7.44462
419.327	7.14894
421.099	6.69203
422.869	5.90928
424.64	6.22379
426.409	6.51007
428.18	6.0977
429.948	5.37
431.718	4.81841
433.486	4.38205
435.253	2.73977
437.022	2.713
438.789	2.15049
440.558	2.88641
442.324	2.7528
444.089	2.4461
445.857	2.74144
447.622	2.93954
449.386	1.80548
451.153	1.57378
452.917	1.21
454.682	1.78124
456.446	2.292
458.208	2.49197
459.973	2.92166
461.735	3.06337
463.497	3.73198
465.259	4.66662
467.022	5.11957
468.783	5.08203
470.544	5.39717
472.306	5.82457
474.066	7.36115
475.825	8.30766
477.585	8.96631
479.346	9.32579
481.104	9.63463
482.862	10.8466
484.62	11.6369
486.38	12.6466
488.137	13.9733
489.894	15.0673
491.65	15.694
493.407	15.6383
495.164	15.5229
496.92	16.5572
498.675	17.1269
500.43	18.2152
502.184	19.4188
503.939	19.374
505.694	19.6147
507.448	19.3976
509.201	19.5924
510.954	19.3918
512.706	19.5573
514.459	19.5668
516.21	19.1477
517.962	18.9961
519.715	17.8799
521.466	18.1706
523.216	17.6005
524.966	18.0903
526.716	17.1634
528.466	17.0233
530.215	16.4462
531.964	16.3582
533.712	15.3912
535.46	14.1279
537.208	13.1446
538.955	13.6685
540.703	13.2037
542.449	12.5749
544.196	12.6811
545.942	12.2949
547.688	12.5499
549.433	12.3212
551.178	12.375
552.923	13.1217
554.667	12.6012
556.412	12.1654
558.155	11.8946
559.899	12.1739
561.642	13.1773
563.385	13.2104
565.127	13.3455
566.867	13.2814
568.609	13.1465
570.35	13.8693
572.092	13.9963
573.832	13.9576
575.573	14.1661
577.313	14.4807
579.053	13.2196
580.79	13.2665
582.529	13.9214
584.268	14.1354
586.006	13.7818
587.745	13.2711
589.482	12.2465
591.218	10.8295
592.955	11.5572
594.692	10.7695
596.428	10.1266
598.164	9.06037
599.898	9.21389
601.634	8.88412
603.369	8.65306
605.104	8.34133
606.836	7.88338
608.57	8.69915
610.304	8.89875
612.037	9.44317
613.769	9.41272
615.501	9.86184
617.234	11.1615
618.966	11.0863
620.696	11.1728
622.427	10.9626
624.159	11.1851
625.887	11.0251
627.618	11.9351
629.348	12.4354
631.076	12.773
632.806	12.6616
634.535	12.9013
636.262	13.4494
637.99	14.9779
639.716	15.4705
641.444	15.4833
643.172	15.956
644.897	16.6691
646.624	18.0026
648.348	19.3048
650.075	20.1899
651.801	21.1442
653.524	21.7129
655.249	23.0012
656.972	24.3866
658.697	24.1581
660.419	24.5346
662.143	24.8587
663.865	24.5094
665.588	25.1605
667.309	25.5008
669.032	25.6727
670.752	24.7384
672.474	24.8398
674.194	25.397
675.915	26.3875
677.634	26.6423
679.355	26.3978
681.073	25.5847
682.793	25.8479
684.511	26.093
686.23	27.3733
687.947	28.109
689.664	29.0013
691.382	29.462
693.098	29.7329
694.816	30.5704
696.531	31.3567
698.247	32.5955
699.963	32.0392
701.678	32.0753
703.392	33.182
705.108	33.4593
706.821	33.6324
708.534	33.6773
710.249	33.8345
711.962	34.7995
713.674	36.4224
715.388	37.0977
717.099	37.1824
718.81	38.1299
720.523	38.3842
722.234	40.4285
723.944	41.4134
725.654	42.0596
727.365	43.6275
729.075	44.3455
730.784	45.0828
732.492	45.8713
734.202	47.4586
735.91	48.2621
737.618	49.1221
739.325	49.9542
741.034	51.3282
742.741	52.224
744.447	52.566
746.153	54.0005
747.859	54.9825
749.564	55.792
751.271	56.7109
752.976	57.5401
754.681	58.5712
756.385	59.5731
758.088	60.8746
759.792	63.0388
761.495	63.1717
763.2	62.6896
764.902	63.0243
766.604	64.3144
768.306	65.8197
770.008	68.1335
771.709	69.6138
773.41	70.7685
775.11	72.2317
776.811	73.1793
778.51	74.3346
780.21	75.7586
781.909	76.1907
783.608	77.6941
785.307	77.5897
787.005	79.2538
788.703	80.7115
790.401	81.0653
792.098	81.3849
793.795	82.699
795.492	84.2258
797.188	84.881
798.884	86.0374
800.58	86.0258
802.276	84.7972
803.971	85.47
805.665	85.6531
807.36	86.2871
809.054	85.4003
810.748	85.4216
812.441	84.8651
814.135	83.5403
815.826	83.122
817.518	82.818
819.21	82.61
820.902	81.7878
822.594	81.563
824.285	80.8299
825.976	80.1197
827.665	78.719
829.355	77.2393
831.045	75.7751
832.735	75.068
834.424	74.1852
836.111	73.5763
837.8	72.3274
839.488	71.2305
841.177	70.5917
842.864	70.0327
844.55	69.1594
846.237	67.0663
847.924	66.1053
849.61	65.5496
851.295	65.0046
852.98	63.7193
854.666	62.9226
856.349	60.9417
858.034	60.6826
859.719	59.4819
861.403	58.5491
863.085	57.6702
864.769	56.315
866.452	54.9537
868.133	54.7589
869.816	53.3596
871.498	52.7029
873.179	51.2157
874.86	50.6623
876.54	50.27
878.221	49.6717
879.902	48.9473
881.58	47.5991
883.26	47.6568
884.938	47.2913
886.618	46.2478
888.297	46.7674
889.974	46.5361
891.653	46.787
893.329	47.3444
895.007	46.8847
896.683	46.5909
898.36	46.7649
900.035	47.5983
901.712	47.8144
903.387	47.5573
905.063	48.0931
906.737	47.6021
908.412	46.662
910.085	45.9104
911.76	45.9866
913.433	46.6144
915.107	46.3882
916.779	46.4816
918.452	46.1867
920.124	46.2928
921.797	46.7686
923.467	48.0066
925.138	48.1637
926.81	47.9477
928.48	46.695
930.151	45.6802
931.82	44.8673
933.489	44.0271
935.16	42.1751
936.828	41.2088
938.496	41.2028
940.165	41.1006
941.833	41.2764
943.5	40.741
945.168	40.4924
946.834	39.4288
948.5	38.4384
950.168	38.2469
951.834	38.1577
953.499	37.1909
955.163	36.7862
956.83	36.3579
958.494	36.9185
960.158	36.5939
961.821	35.6933
963.487	36.2156
965.15	36.3321
966.812	35.7189
968.474	35.5706
970.138	34.6683
971.8	35.3362
973.461	35.7737
975.123	36.2222
976.783	35.6275
978.446	34.6872
980.106	34.4813
981.766	33.6682
983.425	32.875
985.084	30.6354
986.743	29.5116
988.402	29.4276
990.06	27.5944
991.72	27.3079
993.378	27.1221
995.035	26.4519
996.692	25.329
998.349	23.8027
1000.01	23.7215
1001.66	23.538
1003.32	23.5317
1004.97	23.2177
1006.63	21.6237
1008.28	21.2802
1009.94	20.3283
1011.59	19.418
1013.25	19.6066
1014.9	19.0048
1016.55	19.2622
1018.21	18.869
1019.86	20.0501
1021.51	20.5792
1023.16	21.1687
1024.81	21.0465
1026.47	21.1539
1028.12	20.1971
1029.77	20.5879
1031.42	21.1535
1033.07	21.9329
1034.72	20.8952
1036.37	21.564
1038.02	22.1936
1039.67	22.3968
1041.31	22.4123
1042.96	22.1412
1044.61	21.8636
1046.26	21.986
1047.91	21.2456
1049.55	20.7478
1051.2	20.9643
1052.84	21.4252
1054.49	21.8048
1056.14	20.7945
1057.78	19.7044
1059.43	18.0815
1061.07	17.6164
1062.72	16.9811
1064.36	16.9415
1066	16.3887
1067.65	15.8421
1069.29	16.5213
1070.93	16.6632
1072.58	15.5308
1074.22	15.4834
1075.86	14.6153
1077.5	14.2687
1079.14	14.3768
1080.78	14.1068
1082.42	14.7264
1084.06	14.0965
1085.7	14.2147
1087.34	14.4168
1088.98	14.1022
1090.62	14.9575
1092.26	14.8378
1093.9	14.3789
1095.54	14.8695
1097.17	14.5919
1098.81	14.8655
1100.45	14.3871
1102.09	14.7011
1103.72	13.6995
1105.36	13.2774
1106.99	13.0536
1108.63	12.9681
1110.27	12.729
1111.9	12.9752
1113.53	12.3285
1115.17	12.1976
1116.8	11.2364
1118.43	11.8282
1120.07	10.0279
1121.7	8.37728
1123.33	7.01273
1124.97	5.79982
1126.6	4.96706
1128.23	4.41286
1129.86	3.92312
1131.49	3.66019
1133.12	3.15885
1134.75	2.77808
1136.38	1.45723
1138.01	1.18616
1139.64	1.52094
1141.27	2.00529
1142.9	2.68108
1144.53	3.07909
1146.16	3.45911
1147.78	2.64876
1149.41	2.8264
1151.04	2.73823
1152.67	2.95181
1154.29	2.78867
1155.92	3.10844
1157.54	3.40718
1159.17	3.79955
1160.8	3.44495
1162.42	3.52279
1164.05	3.28713
1165.67	3.43239
1167.29	3.77008
1168.92	4.3262
1170.54	3.72028
1172.16	3.91697
1173.79	4.20474
1175.41	4.34111
1177.03	5.69131
1178.65	5.26971
1180.28	5.03483
1181.9	4.82712
1183.52	5.00776
1185.14	4.52208
1186.76	4.77189
1188.38	5.5783
1190	4.82214
1191.62	5.10856
1193.24	5.08759
1194.86	5.39161
1196.47	5.4189
1198.09	5.30117
1199.71	5.30219
1201.33	5.33988
1202.95	6.20704
1204.56	7.14274
1206.18	7.97483
1207.8	8.5297
1209.41	8.52442
1211.03	8.8957
1212.64	9.31132
1214.26	9.3999
1215.87	10.5537
1217.49	11.6865
1219.1	13.2441
1220.71	13.5333
1222.33	14.4276
1223.94	15.5667
1225.55	16.0371
1227.16	16.4552
1228.78	16.9305
1230.39	18.5692
1232	19.6492
1233.61	20.0245
1235.22	20.1731
1236.83	19.3904
1238.44	19.1028
1240.05	19.1589
1241.66	18.8745
1243.27	18.3853
1244.88	18.3744
1246.49	18.3245
1248.1	17.9682
1249.71	16.7263
1251.32	16.452
1252.92	16.7058
1254.53	16.9336
1256.14	17.0928
1257.74	17.2238
1259.35	16.4733
1260.96	15.7654
1262.56	15.7576
1264.17	15.5424
1265.77	15.3441
1267.38	15.3529
1268.98	16.1709
1270.59	15.4702
1272.19	15.9054
1273.79	15.8359
1275.4	15.9572
1277	16.0906
1278.6	16.0346
1280.21	15.7331
1281.81	16.1521
1283.41	15.4264
1285.01	14.968
1286.61	14.3781
1288.21	14.3834
1289.81	14.4193
1291.41	14.7233
1293.01	14.6027
1294.61	14.4673
1296.21	15.3804
1297.81	15.2722
1299.41	15.5175
1301.01	16.3058
1302.6	17.0748
1304.2	17.5738
1305.8	18.4309
1307.4	19.0096
1308.99	19.5529
1310.59	19.7291
1312.19	19.1954
1313.78	19.197
1315.38	19.3664
1316.97	18.9514
1318.57	19.0973
1320.16	19.6997
1321.76	19.2947
1323.35	18.8836
1324.94	19.1387
1326.54	19.81
1328.13	19.8953
1329.72	19.5699
1331.32	20.7544
1332.91	21.2402
1334.5	22.0527
1336.09	22.3426
1337.68	22.9322
1339.27	22.5896
1340.87	22.2682
1342.45	22.2973
1344.04	22.1826
1345.64	22.9218
1347.22	22.5684
1348.81	22.7547
1350.4	22.6056
1351.99	22.5008
1353.58	22.3137
1355.17	21.8827
1356.75	20.7314
1358.34	19.0925
1359.93	18.5973
1361.51	17.8807
1363.1	16.7086
1364.69	16.2569
1366.27	15.9848
1367.86	15.803
1369.44	15.651
1371.03	15.13
1372.61	14.9098
1374.2	14.7141
1375.78	15.4138
1377.37	15.7917
1378.95	15.8928
1380.53	15.681
1382.11	14.995
1383.7	15.3772
1385.28	15.6825
1386.86	14.8058
1388.44	14.2954
1390.02	13.311
1391.6	13.4277
1393.19	13.6642
1394.77	12.5256
1396.35	11.8305
1397.93	11.7062
1399.51	12.8351
1401.08	13.1146
1402.66	13.3226
1404.24	14.0345
1405.82	14.2817
1407.4	13.9105
1408.97	13.9193
1410.55	13.6341
1412.13	14.2796
1413.71	14.7322
1415.28	15.5643
1416.86	15.5745
1418.43	14.9554
1420.01	15.0094
1421.59	15.027
1423.16	16.1818
1424.73	17.2811
1426.31	18.2255
1427.88	19.4006
1429.46	20.0618
1431.03	20.4552
1432.6	20.4412
1434.18	20.8036
1435.75	20.9956
1437.32	21.8846
1438.89	23.3369
1440.46	23.8943
1442.04	25.2066
1443.61	26.653
1445.18	28.0442
1446.75	28.0218
1448.32	29.0251
1449.89	29.2941
1451.46	29.2692
1453.03	29.2457
1454.6	29.7671
1456.16	29.8199
1457.73	29.4874
1459.3	29.8138
1460.87	30.3956
1462.44	30.8803
1464	30.9536
1465.57	31.0373
1467.14	31.0869
1468.7	31.4175
1470.27	32.557
1471.83	33.1643
1473.4	33.0041
1474.96	33.4903
1476.53	34.0701
1478.09	33.9839
1479.66	32.8085
1481.22	31.5313
1482.78	30.7272
1484.35	29.4389
1485.91	29.3557
1487.47	28.0691
1489.04	27.4745
1490.6	27.0862
1492.16	25.4515
1493.72	24.5112
1495.28	22.7517
1496.84	22.299
1498.4	22.3587
1499.96	22.4344
1501.52	22.4219
1503.08	22.0977
1504.64	21.8659
1506.2	20.8361
1507.76	20.339
1509.32	19.6569
1510.88	19.3044
1512.44	18.9095
1513.99	17.7747
1515.55	17.6009
1517.11	16.4367
1518.66	15.3196
1520.22	15.0526
1521.78	14.2368
1523.33	12.7562
1524.89	12.1096
1526.44	12.4092
1528	11.4324
1529.55	10.9249
1531.11	11.4045
1532.66	11.7442
1534.21	11.2599
1535.77	11.4989
1537.32	12.1155
1538.87	12.9131
1540.43	12.7932
1541.98	13.3988
1543.53	14.0267
1545.08	13.9051
1546.63	14.0929
1548.18	15.1072
1549.74	14.8826
1551.29	14.4208
1552.84	13.9017
1554.39	13.6702
1555.94	13.4095
1557.48	13.5669
1559.03	13.8222
1560.58	14.2158
1562.13	13.9509
1563.68	14.0663
1565.23	13.9627
1566.78	13.9465
1568.32	13.9004
1569.87	13.9896
1571.42	15.1997
1572.96	15.8667
1574.51	16.5565
1576.05	16.4171
1577.6	17.3199
1579.14	17.7267
1580.69	18.681
1582.24	19.5768
1583.78	19.8695
1585.32	20.7138
1586.87	21.302
1588.41	22.2813
1589.95	22.1843
1591.5	23.0377
1593.04	23.9639
1594.58	24.1647
1596.12	24.4498
1597.67	24.9678
1599.21	24.705
1600.75	24.7921
1602.29	25.0013
1603.83	24.9713
1605.37	25.1199
1606.91	25.957
1608.45	26.2688
1609.99	25.9243
1611.53	26.3894
1613.07	27.3784
1614.6	27.5643
1616.14	27.7466
1617.68	27.7964
1619.22	28.7627
1620.75	28.5276
1622.29	28.8924
1623.83	28.7342
1625.37	29.1601
1626.9	28.1844
1628.44	28.5632
1629.97	28.7712
1631.51	29.2704
1633.04	30.0742
1634.58	30.1977
1636.11	30.6076
1637.65	30.1883
1639.18	30.1172
1640.72	30.443
1642.25	31.1972
1643.78	30.9061
1645.31	30.801
1646.85	30.9662
1648.38	31.4491
1649.91	31.3978
1651.44	31.1644
1652.97	31.1095
1654.5	32.044
1656.03	31.5147
1657.56	31.316
1659.1	30.6414
1660.62	30.8052
1662.15	30.5996
1663.68	30.1628
1665.21	29.9937
1666.74	29.178
1668.27	28.3909
1669.8	27.0127
1671.32	25.1653
1672.85	23.5439
1674.38	22.147
1675.91	21.7643
1677.43	21.1249
1678.96	19.6418
1680.49	19.3142
1682.01	18.3553
1683.54	17.4226
1685.06	15.7807
1686.59	13.943
1688.11	13.0303
1689.64	12.0621
1691.16	11.0665
1692.68	10.4211
1694.21	10.2923
1695.73	9.85069
1697.25	8.42513
1698.78	8.01385
1700.3	6.59179
1701.82	6.81767
1703.34	6.84761
1704.86	6.87915
1706.39	6.71561
1707.91	6.97617
1709.43	7.22398
1710.95	7.08935
1712.47	6.89207
1713.99	5.95769
1715.51	6.12055
1717.02	5.8466
1718.54	5.9547
1720.06	5.31011
1721.58	5.17818
1723.1	5.64295
1724.62	5.65042
1726.13	5.18662
1727.65	4.96528
1729.17	5.54168
1730.68	5.78582
1732.2	5.38472
1733.72	5.38568
1735.23	5.49552
1736.75	5.90458
1738.26	5.36883
1739.78	5.36155
1741.29	5.06298
1742.81	4.60338
1744.32	4.0598
1745.84	3.58934
1747.35	3.44721
1748.86	3.85148
1750.37	3.70349
1751.89	3.66314
1753.4	2.94695
1754.91	1.83098
1756.42	1.59557
1757.93	0.9757
1759.45	0.344222
1760.96	-0.281635
1762.47	-0.403168
1763.98	0.0296831
1765.49	0.352206
1767	0.356285
1768.51	0.393533
1770.02	0.633693
1771.53	0.28912
1773.03	-0.0347688
1774.54	0.461382
1776.05	1.10607
1777.56	1.47609
1779.07	1.18238
1780.57	0.899224
1782.08	1.1699
1783.59	1.5944
1785.09	1.39981
1786.6	1.21115
1788.11	0.447652
1789.61	0.355998
1791.12	0.808564
1792.62	0.687022
1794.13	1.02881
1795.63	1.0676
1797.13	1.69777
1798.64	2.40485
1800.14	2.50473
1801.65	2.31026
1803.15	2.88058
1804.65	3.36953
1806.15	3.01093
1807.66	3.13507
1809.16	3.08141
1810.66	3.21084
1812.16	3.14159
1813.66	2.99687
1815.16	3.18781
1816.66	3.15223
1818.16	3.39243
1819.66	3.15493
1821.16	3.26084
1822.66	3.84922
1824.16	3.90645
1825.66	3.8734
1827.16	3.5842
1828.66	3.94061
1830.16	3.44991
1831.65	3.56236
1833.15	3.53161
1834.65	3.40627
1836.14	3.75062
1837.64	3.55389
1839.14	3.95683
1840.63	4.20416
1842.13	3.91654
1843.62	4.25568
1845.12	4.40498
1846.61	4.61849
1848.11	4.54176
1849.6	4.6273
1851.1	4.46833
1852.59	3.87974
1854.08	3.34106
1855.58	3.31447
1857.07	3.49602
1858.56	3.50663
1860.05	3.01572
1861.55	2.38149
1863.04	2.20201
1864.53	2.35446
1866.02	2.27669
1867.51	2.39487
1869	3.03142
1870.49	3.20741
1871.98	3.40611
1873.47	3.68691
1874.96	3.53873
1876.45	3.69728
1877.94	3.55077
1879.43	3.43357
1880.92	3.19717
1882.41	2.73837
1882.51	2.52161
1884	2.88989
1885.5	2.68334
1886.99	2.83918
1888.48	3.24636
1889.98	3.39948
1891.47	3.58589
1892.96	4.04813
1894.46	4.5788
1895.95	4.95123
1897.44	4.51041
1898.93	4.14225
1900.42	4.23639
1901.91	4.96624
1903.41	5.41672
1904.9	6.01316
1906.39	6.17494
1907.88	6.38534
1909.37	6.41413
1910.86	6.40122
1912.35	6.65066
1913.83	6.17439
1915.32	6.00817
1916.81	6.5424
1918.3	6.40812
1919.79	6.5375
1921.27	6.8239
1922.76	6.39604
1924.25	6.64243
1925.74	6.39913
1927.22	6.30154
1928.71	6.13033
1930.19	6.04079
1931.68	5.39226
1933.17	4.69738
1934.65	4.69982
1936.14	4.88355
1937.62	5.32715
1939.11	5.36523
1940.59	5.47819
1942.07	5.08829
1943.56	4.34756
1945.04	4.02902
1946.52	3.44962
1948.01	2.75805
1949.49	2.54546
1950.97	2.36527
1952.45	2.38465
1953.93	1.7552
1955.42	1.59171
1956.9	1.97481
1958.38	1.46937
1959.86	1.53427
1961.34	1.66787
1962.82	1.51347
1964.3	1.33189
1965.78	1.28203
1967.26	1.08364
1968.74	0.696538
1970.21	0.549735
1971.69	0.4228
1973.17	0.727385
1974.65	1.13786
1976.13	1.33597
1977.6	0.832968
1979.08	0.340251
1980.56	0.37774
1982.03	0.465032
1983.51	0.599122
1984.99	1.2952
1986.46	1.40928
1987.94	1.98853
1989.41	2.5888
1990.89	3.101
1992.36	4.08999
1993.84	4.54293
1995.31	4.26779
1996.78	3.93239
1998.26	4.2356
1999.73	3.98227
2001.2	4.16535
2002.68	4.29237
2004.15	4.64507
2005.62	4.7193
2007.09	5.05526
2008.56	6.32253
2010.04	6.81566
2011.51	7.29308
2012.98	7.03282
2014.45	7.25492
2015.92	7.51463
2017.39	7.89492
2018.86	8.13229
2020.33	8.76992
2021.8	9.74994
2023.26	9.88284
2024.73	10.0645
2026.2	10.2044
2027.67	9.8484
2029.14	10.0621
2030.61	9.78601
2032.07	9.54084
2033.54	9.7588
2035.01	9.75291
2036.47	9.18808
2037.94	9.02397
2039.4	8.71271
2040.87	8.51201
2042.33	8.53383
2043.8	8.42469
2045.27	8.42142
2046.73	8.14814
2048.19	8.01409
2049.66	7.72595
2051.12	7.9568
2052.59	8.37417
2054.05	8.77088
2055.51	8.87616
2056.97	9.44374
2058.44	9.56779
2059.9	9.85485
2061.36	9.51062
2062.82	9.4021
2064.28	9.49972
2065.74	9.24736
2067.21	8.24201
2068.67	7.82431
2070.13	7.65528
2071.59	8.11733
2073.05	8.91446
2074.51	9.08094
2075.96	8.99293
2077.42	8.93724
2078.88	9.08071
2080.34	8.93718
2081.8	9.09233
2083.26	8.79995
2084.72	8.92094
2086.17	8.90643
2087.63	8.55446
2089.09	7.86937
2090.54	7.53832
2092	7.33609
2093.45	7.77755
2094.91	7.92357
2096.37	7.55566
2097.82	7.69079
2099.28	7.83662
2100.73	7.55601
2102.19	7.86212
2103.64	8.2199
2105.09	8.40907
2106.55	9.1144
2108	9.02437
2109.45	8.61969
2110.91	9.31287
2112.36	9.77298
2113.81	10.2304
2115.26	10.7203
2116.72	10.9768
2118.17	11.6619
2119.62	11.8738
2121.07	12.4657
2122.52	13.0957
2123.97	13.9055
2125.42	14.439
2126.87	15.6656
2128.32	16.453
2129.77	17.2652
2131.22	17.9145
2132.67	18.8834
2134.11	18.9152
2135.56	20.0734
2137.01	20.4875
2138.46	21.3208
2139.91	22.048
2141.35	22.6395
2142.8	23.3106
2144.25	24.2731
2145.7	24.7066
2147.14	24.8509
2148.59	24.7308
2150.03	25.0158
2151.48	25.5272
2152.92	25.5573
2154.37	26.284
2155.81	26.3698
2157.26	26.9419
2158.7	26.4742
2160.15	26.0066
2161.59	26.863
2163.03	27.7344
2164.47	28.7731
2165.92	30.0983
2167.36	30.6669
2168.8	30.7509
2170.24	30.9367
2171.69	31.3797
2173.13	31.3026
2174.57	31.2837
2176.01	31.2271
2177.45	30.8248
2178.89	30.8376
2180.33	30.5266
2181.77	30.4587
2183.21	31.0111
2184.65	31.1466
2186.09	30.5275
2187.53	30.5324
2188.97	30.0494
2190.4	29.2434
2191.84	28.8306
2193.28	28.5
2194.72	27.6894
2196.16	26.9485
2197.59	26.8227
2199.03	26.2957
2200.47	26.0132
2201.9	25.3601
2203.34	25.3577
2204.77	24.5066
2206.21	23.7861
2207.64	23.0064
2209.08	22.2661
2210.51	21.6749
2211.95	20.8222
2213.38	20.5695
2214.82	19.8395
2216.25	18.5762
2217.68	18.1131
2219.12	17.0823
2220.55	16.4146
2221.98	16.1791
2223.41	15.873
2224.85	15.3264
2226.28	14.9193
2227.71	14.2462
2229.14	14.6028
2230.57	14.1531
2232	14.4826
2233.43	15.2572
2234.86	15.0851
2236.29	14.9751
2237.72	14.7693
2239.15	14.1307
2240.58	14.3149
2242.01	14.0245
2243.44	13.6721
2244.87	13.7254
2246.29	13.4853
2247.72	13.7117
2249.15	13.4176
2250.58	13.2936
2252.01	13.0585
2253.43	12.9864
2254.86	13.285
2256.29	12.657
2257.71	12.5355
2259.14	12.4545
2260.56	11.9439
2261.99	11.7366
2263.41	12.0937
2264.84	11.0631
2266.26	10.5239
2267.69	10.4245
2269.11	10.3752
2270.53	10.1517
2271.96	10.6183
2273.38	10.1959
2274.8	10.6097
2276.23	10.1458
2277.65	10.1554
2279.07	9.93419
2280.49	10.0339
2281.91	9.83919
2283.34	9.81724
2284.76	9.90976
2286.18	9.12156
2287.6	9.05303
2289.02	8.71691
2290.44	7.69421
2291.86	7.26024
2293.28	6.81406
2294.7	6.08993
2296.12	6.46759
2297.54	7.00179
2298.96	7.47564
2300.37	7.65168
2301.79	7.34779
2303.21	7.70012
2304.63	7.62026
2306.04	7.77219
2307.46	7.8869
2308.88	8.47999
2310.3	8.38778
2311.71	8.12947
2313.13	7.60348
2314.54	7.37629
2315.96	7.57883
2317.37	7.66638
2318.79	7.63504
2320.2	7.3141
2321.62	7.27793
2323.03	7.05046
2324.45	7.04614
2325.86	6.36259
2327.27	6.0914
2328.69	5.86761
2330.1	4.9193
2331.51	4.44225
2332.92	4.45099
2334.34	4.10503
2335.75	4.22278
2337.16	4.61871
2338.57	5.03812
2339.98	5.09633
2341.39	5.28605
2342.8	5.19209
2344.21	4.77694
2345.63	4.85638
2347.04	4.27126
2348.45	3.75153
2349.85	3.48499
2351.26	3.29955
2352.67	3.11643
2354.08	2.87541
2355.49	2.52388
2356.9	2.03861
2358.3	1.28072
2359.71	0.322208
2361.12	0.454518
2362.53	1.05469
2363.93	1.49994
2365.34	1.9671
2366.75	2.6983
2368.15	2.96158
2369.56	2.29518
2370.97	2.2277
2372.37	2.33134
2373.77	2.76193
2375.18	2.77432
2376.59	3.16268
2377.99	3.15611
2379.39	3.32926
2380.8	2.74316
2382.2	2.83314
2383.6	2.82207
2385.01	3.0114
2386.41	3.14448
2387.81	3.50948
2389.21	2.90155
2390.62	2.68798
2392.02	2.43767
2393.42	2.25867
2394.82	2.02807
2396.22	2.24553
2397.62	2.44669
2399.02	2.80612
2400.42	3.08791
2401.82	3.60536
2403.22	3.81116
2404.62	4.07566
2406.02	4.27558
2407.42	3.88701
2408.82	3.75526
2410.22	3.08718
2411.62	2.74001
2413.01	2.9529
2414.41	2.95737
2415.81	2.8193
2417.21	3.0252
2418.6	3.35028
2420	3.53758
2421.4	3.13232
2422.79	2.72637
2424.19	2.55223
2425.59	2.27993
2426.98	2.63388
2428.38	2.4325
2429.77	2.27832
2431.17	2.43609
2432.56	2.42747
2433.95	1.87782
2435.35	1.23188
2436.74	0.855539
2438.14	0.912514
2439.53	0.272939
2440.92	0.610928
2442.31	0.699138
2443.71	1.52615
2445.1	1.50497
2446.49	1.52355
2447.88	1.55784
2449.27	1.38402
2450.67	1.15804
2452.06	1.49386
2453.45	1.64221
2454.84	2.00524
2456.23	2.03694
2457.62	2.47844
2459.01	2.53693
2460.4	3.05623
2461.79	3.49402
2463.18	4.02401
2464.57	3.97747
2465.95	4.14299
2467.34	4.20802
2468.73	4.48201
2470.12	4.35426
2471.5	4.6985
2472.89	4.89506
2474.28	5.70119
2475.67	5.25225
2477.05	5.55258
2478.44	5.72442
2479.82	5.97066
2481.21	5.73488
2482.6	5.71338
2483.98	5.57225
2485.37	5.36692
2486.75	5.17157
2488.13	4.43185
2489.52	4.27804
2490.9	4.26377
2492.29	3.94655
2493.67	3.57464
2495.05	3.40266
2496.44	3.11197
2497.82	2.46285
2499.2	1.76903
2500.58	1.58305
2501.97	0.881412
2503.35	0.45409
2504.73	0.225207
2506.11	0.355764
2507.49	0.611735
2508.87	0.839675
2510.25	1.33073
2511.63	0.977584
2513.01	1.02511
2514.39	0.719298
2515.77	0.785931
2517.15	0.806468
2518.53	0.339597
2519.91	0.389345
2521.29	0.662867
2522.67	1.04697
2524.05	1.47182
2525.42	1.87195
2526.8	2.04812
2528.18	2.43795
2529.55	2.81231
2530.93	2.8138
2532.31	3.19165
2533.69	3.06
2535.06	3.57022
2536.44	4.12307
2537.81	4.35221
2539.19	5.0634
2540.56	5.62455
2541.94	5.5626
2543.31	5.80498
2544.69	6.21428
2546.06	6.65472
2547.44	6.55842
2548.81	6.99668
2550.18	6.6549
2551.56	7.1041
2552.93	6.60332
2554.3	6.50078
2555.67	6.62091
2557.04	6.66839
2558.42	6.7169
2559.79	6.44111
2561.16	5.28715
2562.53	5.3248
2563.9	5.49211
2565.27	5.17639
2566.64	5.43876
2568.01	4.95944
2569.38	4.52435
2570.75	4.19521
2572.12	4.42177
2573.49	4.21149
2574.86	4.23924
2576.23	3.83961
2577.6	3.55851
2578.97	2.94793
2580.33	2.42468
2581.7	2.65919
2583.07	2.33087
2584.44	2.14793
2585.8	2.26761
2587.17	2.75159
2588.54	3.60656
2589.9	4.18058
2591.27	4.24728
2592.64	3.96877
2594	3.59971
2595.37	3.88897
2596.73	4.17112
2598.1	3.93761
2599.46	4.0541
2600.83	4.19952
2602.19	4.09638
2603.55	4.2604
2604.92	4.28135
2606.28	4.27901
2607.64	4.83689
2609.01	4.87073
2610.37	5.23042
2611.73	5.51828
2613.09	5.67159
2614.46	5.35391
2615.82	5.44845
2617.18	5.68609
2618.54	5.06544
2619.9	5.03049
2621.26	4.42788
2622.62	5.00795
2623.98	4.64504
2625.34	4.69121
2626.7	4.79203
2628.06	4.78985
2629.42	4.98438
2630.78	5.59399
2632.14	5.26474
2633.5	4.89837
2634.86	4.2871
2636.21	3.52718
2637.57	3.19078
2638.93	3.69716
2640.29	3.2423
2641.64	3.28299
2643	3.65025
2644.36	3.89088
2645.71	4.51261
2647.07	4.98
2648.43	5.56493
2649.78	6.58522
2651.14	7.17933
2652.49	8.18978
2653.85	8.40996
2655.2	8.50256
2656.56	8.66281
2657.91	8.74799
2659.26	8.43115
2660.62	8.40301
2661.97	8.37625
2663.32	8.17591
2664.68	7.58837
2666.03	7.6187
2667.38	7.93788
2668.74	7.66132
2670.09	7.67528
2671.44	7.41167
2672.79	7.58606
2674.14	7.51988
2675.49	7.93882
2676.84	7.58157
2678.19	7.31347
2679.54	6.86755
2680.89	6.87364
2682.24	6.67682
2683.59	6.13973
2684.94	5.56207
2686.29	5.15807
2687.64	5.08187
2688.99	4.89121
2690.34	5.12288
2691.69	5.22411
2693.03	5.14233
2694.38	5.27245
2695.73	5.14434
2697.08	4.57974
2698.42	4.11147
2699.77	3.83753
2701.12	3.54018
2702.46	3.1007
2703.81	3.59643
2705.15	4.13228
2706.5	5.35679
2707.85	4.9755
2709.19	5.93543
2710.54	6.36578
2711.88	6.94476
2713.22	6.99078
2714.57	6.94215
2715.91	7.26946
2717.26	7.36986
2718.6	7.15304
2719.94	6.97935
2721.29	7.20792
2722.63	7.27915
2723.97	7.45175
2725.31	7.01945
2726.66	6.7499
2728	6.41744
2729.34	5.96792
2730.68	6.05334
2732.02	6.09719
2733.36	6.67945
2734.7	6.73279
2736.04	6.24513
2737.38	6.1368
2738.72	6.00663
2740.06	6.55966
2741.4	6.25194
2742.74	5.99556
2744.08	5.21226
2745.42	4.97586
2746.76	4.776
2748.09	4.4282
2749.43	3.94211
2750.77	3.63026
2752.11	4.03502
2753.45	4.29883
2754.78	4.15546
2756.12	3.2332
2757.46	2.7241
2758.79	2.55699
2760.13	2.29335
2761.46	2.23046
2762.8	1.71194
2764.14	1.3385
2765.47	1.94679
2766.8	1.69569
2768.14	1.76736
2769.47	1.69798
2770.81	2.123
2772.14	2.25022
2773.48	2.09599
2774.81	1.58787
2776.14	1.4934
2777.48	1.39246
2778.81	1.62563
2780.14	0.930454
2781.47	0.854011
2782.8	1.03479
2784.14	0.608042
2785.47	0.73101
2786.8	0.697724
2788.13	0.661011
2789.46	0.291919
2790.79	-0.0274907
2792.12	-0.301897
2793.45	-0.143601
2794.78	-0.54696
2796.11	-0.579669
2797.44	-0.0355832
2798.77	0.512467
2800.1	0.886103
2801.43	0.568743
2802.76	0.501055
2804.09	0.624161
2805.41	0.587338
2806.74	0.875696
2808.07	0.68303
2809.4	0.936033
2810.72	0.988825
2812.05	1.03575
2813.38	1.11744
2814.71	1.78004
2816.03	2.09462
2817.36	2.55498
2818.68	3.16896
2820.01	3.20096
2821.33	3.42019
2822.66	3.70261
2823.98	4.54926
2825.31	5.60971
2826.63	6.4872
2827.96	6.54864
2829.28	7.21892
2830.6	8.22521
2831.93	9.26755
2833.25	9.67143
2834.57	10.7408
2835.9	11.2051
2837.22	12.1541
2838.54	13.0482
2839.86	14.0757
2841.18	15.0453
2842.5	16.3275
2843.83	17.5616
2845.15	18.0646
2846.47	19.0979
2847.79	20.2462
2849.11	21.6278
2850.43	23.0255
2851.75	24.1605
2853.07	25.1072
2854.39	26.3198
2855.71	27.7983
2857.03	28.8217
2858.35	29.9733
2859.66	31.6773
2860.98	32.9517
2862.3	34.5934
2863.62	36.1047
2864.94	37.0566
2866.25	37.7263
2867.57	38.6669
2868.89	39.3243
2870.2	40.0976
2871.52	41.0917
2872.84	42.2765
2874.15	42.7225
2875.47	43.1803
2876.78	43.2207
2878.1	44.0089
2879.41	45.0921
2880.73	45.8508
2882.04	46.3318
2883.36	46.675
2884.67	47.1919
2885.99	47.4942
2887.3	47.7047
2888.61	48.4038
2889.93	48.7596
2891.24	49.6079
2892.55	49.6592
2893.86	50.2784
2895.18	51.613
2896.49	52.2049
2897.8	52.6453
2899.11	52.7319
2900.42	53.5197
2901.73	54.7416
2903.05	56.3195
2904.36	57.5436
2905.67	58.8601
2906.98	60.2177
2908.29	62.7988
2909.6	64.4178
2910.91	66.2497
2912.21	68.945
2913.52	70.8854
2914.83	72.7233
2916.14	74.5538
2917.45	76.1772
2918.76	77.879
2920.07	79.8628
2921.37	81.5283
2922.68	82.4903
2923.99	83.8675
2925.29	85.322
2926.6	86.3109
2927.91	87.3623
2929.22	88.5438
2930.52	88.9787
2931.83	89.332
2933.13	89.1577
2934.44	89.0287
2935.74	89.0371
2937.05	89.0037
2938.35	88.4637
2939.66	87.2132
2940.96	86.6629
2942.26	86.2104
2943.57	85.8774
2944.87	84.9862
2946.18	83.3491
2947.48	82.1987
2948.78	80.8677
2950.08	79.5318
2951.39	78.6777
2952.69	77.1348
2953.99	75.2084
2955.29	72.8111
2956.59	71.2192
2957.9	69.818
2959.2	68.4978
2960.5	65.8878
2961.8	63.5226
2963.1	62.4065
2964.4	60.9853
2965.7	59.7095
2967	58.3267
2968.3	56.7634
2969.6	54.8534
2970.9	54.061
2972.19	53.1213
2973.49	51.8517
2974.79	49.2261
2976.09	47.956
2977.39	46.3921
2978.68	44.5043
2979.98	42.7196
2981.28	41.1818
2982.58	39.555
2983.87	37.8687
2985.17	36.2062
2986.47	34.3933
2987.76	32.6682
2989.06	31.738
2990.35	30.2087
2991.65	28.9292
2992.94	27.3401
2994.24	26.0634
2995.53	23.8376
2996.83	22.4137
2998.12	21.3423
2999.42	20.2027
3000.71	19.1787
3002	18.392
3003.3	17.1367
3004.59	16.1772
3005.88	15.6019
3007.18	14.7607
3008.47	13.6512
3009.76	12.5831
3011.05	11.1093
3012.34	10.5742
3013.64	9.82019
3014.93	8.85962
3016.22	8.73376
3017.51	7.15065
3018.8	6.1407
3020.09	5.52741
3021.38	5.68967
3022.67	5.30956
3023.96	4.21334
3025.25	3.90158
3026.54	3.48525
3027.83	3.40546
3029.12	2.87979
3030.41	1.92808
3031.69	1.91031
3032.98	1.85341
3034.27	1.79888
3035.56	1.88296
3036.84	1.18728
3038.13	1.07614
3039.42	0.817921
3040.71	1.46263
3041.99	1.01007
3043.28	1.30618
3044.57	1.88855
3045.85	2.00033
3047.14	1.89839
3048.42	1.63461
3049.71	1.35394
3050.99	1.62796
3052.28	1.70922
3053.56	1.87161
3054.85	1.64652
3056.13	1.91339
3057.41	1.82249
3058.7	2.30313
3059.98	2.1719
3061.26	2.7104
3062.55	2.79756
3063.83	2.66474
3065.11	2.76784
3066.39	2.57203
3067.68	2.49817
3068.96	2.62158
3070.24	2.46698
3071.52	2.51753
3072.8	2.65013
3074.08	2.69568
3075.36	2.99904
3076.65	3.35208
3077.93	3.51612
3079.21	3.63069
3080.49	4.17866
3081.77	3.99935
3083.04	4.181
3084.32	4.40358
3085.6	4.73669
3086.88	4.26916
3088.16	4.04405
3089.44	4.09646
3090.72	3.79193
3091.99	3.89389
3093.27	4.13047
3094.55	3.86406
3095.83	4.35656
3097.1	4.82193
3098.38	4.62292
3099.66	4.99269
3100.93	5.20681
3102.21	5.29568
3103.49	5.41777
3104.76	5.3126
3106.04	5.53756
3107.31	6.01548
3108.59	5.68692
3109.86	5.38415
3111.14	5.32257
3112.41	5.74164
3113.69	5.66267
3114.96	5.61688
3116.23	5.25916
3117.51	5.31299
3118.78	5.16249
3120.05	5.22155
3121.33	5.03584
3122.6	5.20016
3123.87	4.84487
3125.14	4.74966
3126.41	4.40966
3127.69	4.49095
3128.96	4.59958
3130.23	4.64564
3131.5	5.01928
3132.77	5.12613
3134.04	4.87587
3135.31	5.30039
3136.58	5.62785
3137.85	5.59269
3139.12	5.61658
3140.39	5.27223
3141.66	5.01793
3142.93	4.65022
3144.2	4.0098
3145.47	3.46171
3146.74	3.20277
3148	3.09112
3149.27	3.49744
