#Acq. time (s)=	45
#Accumulations=	2
#Range (cm-¹)=	200...3150
#Windows=	2
#Auto scanning=	Off
#Autofocus=	Off
#Macrospot=	Off
#AutoExposure=	Off
#Spike filter=	Multiple accum.
#Delay time (s)=	0
#Binning=	1
#Readout mode=	Signal
#DeNoise=	Off
#ICS correction=	On
#Dark correction=	Off
#Inst. Process=	Off
#Detector Gain=	Best Dynamic Range
#Detector ADC=	20 kHz       
#Detector temperature (°C)=	-69.85
#Instrument=	LabRAM HR Evol
#Detector=	Synapse
#Objective=	x100
#Grating=	600 gr/mm
#ND Filter=	100%
#Laser (nm)=	532 
#Hole=	100.021
#Range=	Auto
#Laser Pol.=	No
#Raman. Pol.=	No
#Laser Pol. (°)=	-0.0007625
#Raman Pol. (°)=	89.9995
#Collection=	Microscope
#StageXY=	Marzhauser
#StageZ=	Marzhauser
#X (µm)=	-6368
#Y (µm)=	716
#Z (µm)=	-64.85
#Full time(mm:ss)=	3:18
#Project=	
#Sample=	
#Site=	
#Title=	Mb_30_27_50_2x_45s_532 nm_x100_100%_600 gr_mm
#Remark=	
#Date=	13.07.2022 12:31
#Acquired=	13.07.2022 12:31:26
#Base:Fit=	10.08.2022 10:40:03
#Base:Sub=	10.08.2022 10:40:17
#Filter:Polynom=	16.08.2022 10:16:15
#AxisType[0]=Intens
#AxisUnit[0]=Cnt
#AxisType[1]=Spectr
#AxisUnit[1]=1/cm
200.563	27.1013
202.377	26.8132
204.194	24.9018
206.008	22.3042
207.821	20.0918
209.634	18.3437
211.449	17.1149
213.262	16.0306
215.074	14.9265
216.885	12.3154
218.699	11.1304
220.51	10.112
222.321	9.24619
224.131	9.38568
225.941	8.43533
227.751	8.01985
229.562	6.93659
231.371	5.49073
233.18	3.86833
234.988	3.27731
236.796	3.05194
238.603	3.55
240.411	3.75285
242.219	3.17444
244.026	3.80103
245.832	4.45949
247.638	5.00108
249.443	4.67086
251.248	4.45787
253.053	5.50695
254.857	6.51973
256.661	7.01426
258.465	7.77267
260.268	9.10729
262.071	10.7362
263.874	12.0104
265.678	12.5251
267.48	12.7443
269.282	12.5849
271.083	13.1969
272.884	12.3575
274.684	13.773
276.484	14.8248
278.284	16.9259
280.084	18.6737
281.883	19.178
283.682	20.0239
285.48	19.7181
287.276	19.5474
289.074	18.4209
290.871	18.6451
292.668	19.508
294.465	20.3979
296.261	21.3699
298.057	22.1558
299.853	22.4675
301.648	23.0314
303.443	22.4293
305.237	23.2493
307.032	23.2797
308.823	25.0464
310.617	24.8396
312.41	25.215
314.203	24.9008
315.995	24.4051
317.788	24.1129
319.579	23.2155
321.369	22.8312
323.16	23.0286
324.951	23.3199
326.741	23.1029
328.531	23.1251
330.321	22.6001
332.108	22.359
333.897	22.5354
335.686	22.4099
337.474	22.6394
339.26	21.4902
341.048	21.0541
342.835	21.2466
344.622	20.5377
346.406	20.3932
348.192	20.0556
349.978	19.648
351.764	19.406
353.547	18.4456
355.332	17.2341
357.116	15.9131
358.901	15.9265
360.682	16.971
362.466	17.0176
364.249	18.2936
366.03	17.8606
367.812	17.5604
369.594	16.6423
371.374	15.9135
373.155	15.2252
374.936	14.0389
376.715	13.659
378.495	12.9034
380.273	14.1411
382.053	14.5051
383.832	15.7321
385.609	16.5325
387.388	17.7778
389.164	18.6346
390.942	18.1154
392.72	18.7798
394.495	20.3578
396.272	20.0698
398.047	19.7272
399.823	19.47
401.597	20.0575
403.372	19.8304
405.145	20.1386
406.92	19.8617
408.693	19.7485
410.467	19.5275
412.239	18.4131
414.012	17.5859
415.783	17.0543
417.556	17.1969
419.327	16.4118
421.099	16.198
422.869	15.5803
424.64	15.2946
426.409	14.5206
428.18	13.5274
429.948	13.4695
431.718	13.4138
433.486	12.1641
435.253	12.2505
437.022	11.0092
438.789	10.9017
440.558	9.99352
442.324	8.99404
444.089	8.01236
445.857	7.59969
447.622	8.10719
449.386	8.05451
451.153	7.55085
452.917	8.22191
454.682	9.08003
456.446	8.7261
458.208	8.86957
459.973	9.48537
461.735	9.41046
463.497	10.4259
465.259	11.0934
467.022	12.4554
468.783	13.8432
470.544	15.1248
472.306	16.3418
474.066	15.947
475.825	16.1872
477.585	16.0493
479.346	16.4948
481.104	17.8826
482.862	18.6479
484.62	18.2486
486.38	18.3858
488.137	19.2127
489.894	19.3504
491.65	19.8365
493.407	19.2448
495.164	19.4904
496.92	19.145
498.675	18.6127
500.43	17.8515
502.184	18.4738
503.939	18.9387
505.694	18.4078
507.448	18.6702
509.201	18.7489
510.954	18.091
512.706	18.7924
514.459	18.8241
516.21	18.2088
517.962	17.643
519.715	17.2725
521.466	16.7551
523.216	17.2601
524.966	16.2948
526.716	16.1214
528.466	15.5437
530.215	16.0033
531.964	16.1274
533.712	16.3538
535.46	17.0329
537.208	17.1225
538.955	16.803
540.703	16.7855
542.449	17.183
544.196	16.0451
545.942	16.8048
547.688	16.7396
549.433	16.51
551.178	17.5129
552.923	17.0665
554.667	16.0957
556.412	14.6269
558.155	13.8436
559.899	13.3221
561.642	11.9943
563.385	11.7246
565.127	11.2863
566.867	11.3402
568.609	10.2484
570.35	9.53593
572.092	9.04418
573.832	8.54
575.573	7.1913
577.313	6.70296
579.053	7.40903
580.79	6.66495
582.529	6.72716
584.268	6.33819
586.006	6.15592
587.745	6.35587
589.482	6.73348
591.218	6.73589
592.955	6.08231
594.692	6.78981
596.428	5.63732
598.164	6.01269
599.898	5.90089
601.634	4.41727
603.369	3.73518
605.104	4.88948
606.836	5.25044
608.57	5.31505
610.304	5.28344
612.037	4.98801
613.769	4.66821
615.501	5.46819
617.234	5.52204
618.966	5.72518
620.696	5.70692
622.427	6.11981
624.159	6.31792
625.887	6.84568
627.618	8.09554
629.348	10.2364
631.076	10.5027
632.806	11.1357
634.535	11.5175
636.262	12.4015
637.99	12.7273
639.716	12.5406
641.444	12.1476
643.172	12.737
644.897	12.572
646.624	13.3665
648.348	13.0964
650.075	13.429
651.801	13.9715
653.524	15.1292
655.249	15.3266
656.972	15.9472
658.697	16.5511
660.419	16.7165
662.143	17.4042
663.865	19.5172
665.588	20.7482
667.309	20.7411
669.032	21.3967
670.752	22.1781
672.474	22.6564
674.194	23.2503
675.915	23.6443
677.634	24.0188
679.355	24.5404
681.073	25.9823
682.793	26.4089
684.511	27.407
686.23	27.329
687.947	27.3183
689.664	28.5918
691.382	29.3293
693.098	28.3914
694.816	28.4668
696.531	28.4682
698.247	29.2702
699.963	29.9087
701.678	30.9732
703.392	31.2685
705.108	32.4635
706.821	32.9676
708.534	33.5702
710.249	34.4151
711.962	35.8851
713.674	35.9444
715.388	36.1091
717.099	36.2772
718.81	36.084
720.523	36.3774
722.234	36.4021
723.944	35.4524
725.654	36.0823
727.365	36.711
729.075	36.1847
730.784	35.9396
732.492	37.3832
734.202	38.4777
735.91	38.6774
737.618	39.261
739.325	39.5021
741.034	40.5125
742.741	42.0952
744.447	43.4064
746.153	44.0737
747.859	44.907
749.564	46.1473
751.271	46.8216
752.976	48.4492
754.681	50.0026
756.385	51.0641
758.088	52.0703
759.792	53.899
761.495	55.4588
763.2	56.7766
764.902	59.3519
766.604	61.6202
768.306	62.2643
770.008	62.5266
771.709	63.4308
773.41	64.3954
775.11	65.8522
776.811	65.9313
778.51	66.7558
780.21	68.3545
781.909	70.1197
783.608	71.0819
785.307	72.0021
787.005	72.3879
788.703	73.2376
790.401	73.7994
792.098	74.0033
793.795	73.9346
795.492	73.8723
797.188	74.3251
798.884	73.8234
800.58	75.0083
802.276	74.8455
803.971	73.5788
805.665	73.8091
807.36	73.8199
809.054	72.9243
810.748	73.8284
812.441	72.7318
814.135	71.7428
815.826	71.6468
817.518	72.2018
819.21	71.8831
820.902	70.1145
822.594	70.77
824.285	70.7904
825.976	71.2
827.665	70.5941
829.355	69.4032
831.045	68.4388
832.735	68.1374
834.424	67.6244
836.111	66.7124
837.8	66.5285
839.488	65.3546
841.177	63.9492
842.864	62.9332
844.55	62.2204
846.237	60.5633
847.924	59.9265
849.61	59.0157
851.295	57.8415
852.98	56.3587
854.666	54.7992
856.349	54.9615
858.034	54.319
859.719	54.1323
861.403	53.2568
863.085	52.398
864.769	51.3512
866.452	50.9438
868.133	50.4657
869.816	49.8187
871.498	48.7634
873.179	48.7311
874.86	48.8351
876.54	48.0885
878.221	47.7988
879.902	47.82
881.58	48.5676
883.26	47.6667
884.938	47.3939
886.618	46.3846
888.297	46.6131
889.974	46.9798
891.653	46.1951
893.329	45.4398
895.007	45.9896
896.683	45.19
898.36	45.1933
900.035	45.3998
901.712	46.1304
903.387	46.036
905.063	44.5261
906.737	44.4478
908.412	43.7019
910.085	43.0913
911.76	42.872
913.433	42.3305
915.107	42.0581
916.779	41.673
918.452	41.0918
920.124	41.0418
921.797	40.7334
923.467	39.9504
925.138	39.0391
926.81	38.7475
928.48	39.3936
930.151	38.9329
931.82	39.4108
933.489	39.3903
935.16	39.9107
936.828	39.4241
938.496	39.1957
940.165	39.9001
941.833	39.0732
943.5	38.8163
945.168	37.1705
946.834	36.1475
948.5	35.3335
950.168	35.2706
951.834	34.9928
953.499	33.765
955.163	33.1931
956.83	32.8553
958.494	31.8471
960.158	30.9024
961.821	30.1058
963.487	29.7056
965.15	30.0087
966.812	28.6457
968.474	28.5143
970.138	27.8849
971.8	27.9437
973.461	27.0126
975.123	26.8515
976.783	25.7741
978.446	25.4866
980.106	24.6766
981.766	24.3658
983.425	24.563
985.084	24.3251
986.743	23.1387
988.402	21.7111
990.06	21.8355
991.72	21.8886
993.378	21.0345
995.035	20.6721
996.692	19.9434
998.349	19.4354
1000.01	17.913
1001.66	17.1371
1003.32	16.1673
1004.97	15.4423
1006.63	15.8651
1008.28	16.2933
1009.94	18.2438
1011.59	19.6475
1013.25	20.609
1014.9	22.5193
1016.55	24.7313
1018.21	27.1933
1019.86	29.2284
1021.51	30.3556
1023.16	31.6598
1024.81	32.3793
1026.47	33.0222
1028.12	33.5323
1029.77	34.5497
1031.42	35.6924
1033.07	37.4796
1034.72	38.5528
1036.37	39.3015
1038.02	39.5159
1039.67	40.4394
1041.31	41.056
1042.96	41.8283
1044.61	42.221
1046.26	42.8307
1047.91	42.533
1049.55	41.8098
1051.2	42.0449
1052.84	41.3878
1054.49	41.2553
1056.14	39.5112
1057.78	38.2184
1059.43	36.8238
1061.07	36.6115
1062.72	35.7029
1064.36	33.6647
1066	32.4343
1067.65	30.8012
1069.29	27.5633
1070.93	25.215
1072.58	22.9685
1074.22	20.9377
1075.86	18.4937
1077.5	16.7779
1079.14	15.6509
1080.78	14.0395
1082.42	12.36
1084.06	12.3657
1085.7	11.9593
1087.34	12.4814
1088.98	12.7263
1090.62	13.554
1092.26	14.1878
1093.9	14.5193
1095.54	15.5022
1097.17	15.9844
1098.81	17.195
1100.45	17.4959
1102.09	16.2315
1103.72	15.4622
1105.36	16.8406
1106.99	16.6069
1108.63	16.5298
1110.27	17.2518
1111.9	16.7659
1113.53	16.8727
1115.17	16.7662
1116.8	16.3965
1118.43	15.9442
1120.07	15.1213
1121.7	14.7248
1123.33	14.0621
1124.97	14.7192
1126.6	14.8018
1128.23	13.6489
1129.86	13.7296
1131.49	13.3612
1133.12	12.5973
1134.75	12.5736
1136.38	12.0188
1138.01	11.0235
1139.64	10.4165
1141.27	10.1796
1142.9	9.31605
1144.53	8.44251
1146.16	7.50306
1147.78	7.00357
1149.41	6.17474
1151.04	5.48277
1152.67	6.33747
1154.29	6.02395
1155.92	6.53525
1157.54	5.72655
1159.17	5.9644
1160.8	5.60622
1162.42	5.25901
1164.05	4.39513
1165.67	4.5487
1167.29	4.04356
1168.92	4.0396
1170.54	4.24507
1172.16	4.40844
1173.79	4.30333
1175.41	4.97911
1177.03	5.92799
1178.65	6.62922
1180.28	7.25303
1181.9	6.97111
1183.52	6.71495
1185.14	8.2334
1186.76	8.52417
1188.38	8.11409
1190	8.85119
1191.62	8.44225
1193.24	8.34252
1194.86	9.5997
1196.47	9.31638
1198.09	9.44226
1199.71	9.88114
1201.33	10.2396
1202.95	10.7467
1204.56	11.1086
1206.18	11.47
1207.8	10.3613
1209.41	10.7251
1211.03	11.8599
1212.64	11.8444
1214.26	12.5175
1215.87	12.7198
1217.49	12.773
1219.1	12.8756
1220.71	12.9402
1222.33	13.4717
1223.94	13.9682
1225.55	14.1841
1227.16	14.859
1228.78	15.5351
1230.39	16.9579
1232	17.8768
1233.61	18.8305
1235.22	18.4606
1236.83	19.4568
1238.44	19.3204
1240.05	20.5391
1241.66	21.23
1243.27	22.8962
1244.88	23.4588
1246.49	25.0707
1248.1	26.174
1249.71	27.7492
1251.32	28.6136
1252.92	29.4719
1254.53	30.8235
1256.14	31.493
1257.74	32.7149
1259.35	33.3852
1260.96	33.7199
1262.56	34.1696
1264.17	35.3838
1265.77	36.7316
1267.38	37.039
1268.98	38.3128
1270.59	38.842
1272.19	39.0886
1273.79	40.3685
1275.4	40.8925
1277	40.5988
1278.6	41.3651
1280.21	41.6274
1281.81	42.3425
1283.41	42.2658
1285.01	41.7813
1286.61	43.4568
1288.21	44.0475
1289.81	45.3694
1291.41	45.6198
1293.01	45.472
1294.61	45.5464
1296.21	46.1204
1297.81	46.6863
1299.41	45.877
1301.01	45.6503
1302.6	45.8347
1304.2	46.5604
1305.8	45.8599
1307.4	45.8635
1308.99	45.3912
1310.59	45.2624
1312.19	45.6573
1313.78	44.8689
1315.38	45.3336
1316.97	46.387
1318.57	47.1865
1320.16	47.645
1321.76	47.7545
1323.35	47.8878
1324.94	47.7114
1326.54	47.5014
1328.13	47.7287
1329.72	47.2795
1331.32	46.4329
1332.91	46.5464
1334.5	45.8903
1336.09	44.7367
1337.68	43.7076
1339.27	43.834
1340.87	43.8941
1342.45	43.8615
1344.04	44.298
1345.64	44.8459
1347.22	44.1972
1348.81	43.1405
1350.4	43.0239
1351.99	42.6799
1353.58	41.7927
1355.17	41.2139
1356.75	40.1311
1358.34	39.6404
1359.93	39.7533
1361.51	39.8044
1363.1	38.681
1364.69	38.6939
1366.27	38.641
1367.86	37.3135
1369.44	36.6725
1371.03	36.4148
1372.61	35.3687
1374.2	35.3355
1375.78	35.6473
1377.37	34.6092
1378.95	34.154
1380.53	34.5396
1382.11	34.5467
1383.7	33.7615
1385.28	33.7462
1386.86	34.6168
1388.44	34.9375
1390.02	35.6717
1391.6	35.7513
1393.19	35.8781
1394.77	37.8631
1396.35	37.9849
1397.93	38.021
1399.51	37.2762
1401.08	36.9473
1402.66	37.2164
1404.24	37.5695
1405.82	38.2123
1407.4	39.1168
1408.97	38.666
1410.55	39.3379
1412.13	39.8407
1413.71	39.6639
1415.28	40.7503
1416.86	42.1739
1418.43	43.4346
1420.01	44.522
1421.59	45.2915
1423.16	46.3496
1424.73	46.8046
1426.31	46.8733
1427.88	47.2269
1429.46	49.1767
1431.03	50.0286
1432.6	51.179
1434.18	52.1888
1435.75	53.4163
1437.32	55.176
1438.89	55.8533
1440.46	55.6151
1442.04	55.5918
1443.61	55.9967
1445.18	56.2461
1446.75	56.606
1448.32	56.7634
1449.89	57.5429
1451.46	57.8033
1453.03	57.8582
1454.6	57.5415
1456.16	57.4239
1457.73	57.7393
1459.3	56.9866
1460.87	56.1767
1462.44	56.3155
1464	56.4934
1465.57	56.2253
1467.14	55.7804
1468.7	54.7742
1470.27	54.1852
1471.83	54.0951
1473.4	53.0046
1474.96	51.0897
1476.53	50.0952
1478.09	49.0796
1479.66	48.0218
1481.22	47.6984
1482.78	46.8429
1484.35	46.7285
1485.91	44.8459
1487.47	43.3268
1489.04	42.8857
1490.6	41.0038
1492.16	40.1704
1493.72	39.5022
1495.28	38.0072
1496.84	36.5496
1498.4	36.1896
1499.96	35.7208
1501.52	35.8225
1503.08	35.3406
1504.64	34.5618
1506.2	34.8103
1507.76	35.1045
1509.32	34.5799
1510.88	33.7548
1512.44	32.5692
1513.99	32.613
1515.55	31.5037
1517.11	30.5277
1518.66	29.5237
1520.22	29.5406
1521.78	29.6032
1523.33	29.366
1524.89	29.692
1526.44	29.5072
1528	28.8357
1529.55	28.6583
1531.11	28.2532
1532.66	28.5909
1534.21	29.7272
1535.77	29.0181
1537.32	28.8099
1538.87	29.9457
1540.43	30.6636
1541.98	30.6557
1543.53	30.5004
1545.08	30.1124
1546.63	30.0431
1548.18	30.6263
1549.74	30.3052
1551.29	29.4834
1552.84	30.355
1554.39	31.32
1555.94	31.708
1557.48	31.7789
1559.03	31.845
1560.58	32.0046
1562.13	32.0177
1563.68	31.5078
1565.23	31.2592
1566.78	31.4905
1568.32	30.5719
1569.87	31.3305
1571.42	31.2064
1572.96	31.4584
1574.51	32.0325
1576.05	32.3142
1577.6	33.5276
1579.14	33.7859
1580.69	34.1259
1582.24	34.8174
1583.78	35.5121
1585.32	34.9693
1586.87	34.541
1588.41	34.2226
1589.95	35.0172
1591.5	36.754
1593.04	37.068
1594.58	37.7759
1596.12	37.8648
1597.67	39.1899
1599.21	39.4149
1600.75	39.3378
1602.29	39.6204
1603.83	38.7552
1605.37	38.8932
1606.91	39.4873
1608.45	38.8063
1609.99	38.5828
1611.53	39.0584
1613.07	37.9347
1614.6	38.4471
1616.14	39.0365
1617.68	38.7474
1619.22	38.9909
1620.75	38.4374
1622.29	39.5555
1623.83	40.1314
1625.37	39.9663
1626.9	39.8904
1628.44	41.0321
1629.97	42.9531
1631.51	43.773
1633.04	43.6584
1634.58	43.7096
1636.11	44.1544
1637.65	44.0707
1639.18	44.4103
1640.72	44.685
1642.25	44.2589
1643.78	45.1914
1645.31	44.9882
1646.85	45.3078
1648.38	45.0282
1649.91	45.1561
1651.44	44.3822
1652.97	44.0388
1654.5	43.9514
1656.03	43.3683
1657.56	43.2927
1659.1	42.3747
1660.62	40.9977
1662.15	40.615
1663.68	40.3308
1665.21	40.0556
1666.74	40.5302
1668.27	40.1518
1669.8	39.0963
1671.32	37.9376
1672.85	36.4509
1674.38	35.1995
1675.91	33.0767
1677.43	31.1088
1678.96	29.889
1680.49	27.7899
1682.01	26.1826
1683.54	24.2861
1685.06	23.1139
1686.59	22.9701
1688.11	21.353
1689.64	20.0896
1691.16	19.418
1692.68	18.3885
1694.21	17.1359
1695.73	15.954
1697.25	14.4316
1698.78	14.4315
1700.3	13.6525
1701.82	12.9983
1703.34	12.9992
1704.86	13.6891
1706.39	13.3571
1707.91	12.8714
1709.43	11.8549
1710.95	12.1486
1712.47	11.5434
1713.99	10.7046
1715.51	11.045
1717.02	10.3222
1718.54	10.3476
1720.06	10.3335
1721.58	9.78433
1723.1	9.21247
1724.62	9.05223
1726.13	8.28286
1727.65	7.58021
1729.17	8.1053
1730.68	7.582
1732.2	7.93936
1733.72	7.67655
1735.23	6.99471
1736.75	6.97389
1738.26	7.27896
1739.78	6.93619
1741.29	6.18291
1742.81	6.55887
1744.32	6.09825
1745.84	5.30704
1747.35	4.72812
1748.86	4.37184
1750.37	3.37596
1751.89	3.39457
1753.4	2.85408
1754.91	2.92834
1756.42	2.17889
1757.93	2.4013
1759.45	1.85385
1760.96	1.67614
1762.47	1.31854
1763.98	0.620486
1765.49	0.763
1767	0.436144
1768.51	0.0725729
1770.02	0.145042
1771.53	-0.0590671
1773.03	0.000718238
1774.54	0.578835
1776.05	1.03534
1777.56	1.09909
1779.07	1.12937
1780.57	1.52838
1782.08	1.07997
1783.59	1.29072
1785.09	1.26814
1786.6	1.78589
1788.11	1.75963
1789.61	2.0484
1791.12	2.52098
1792.62	2.56013
1794.13	2.7278
1795.63	2.32182
1797.13	2.09205
1798.64	1.86691
1800.14	1.61245
1801.65	1.57869
1803.15	1.65929
1804.65	1.744
1806.15	1.63305
1807.66	1.88097
1809.16	1.57203
1810.66	1.5673
1812.16	1.93302
1813.66	1.79503
1815.16	1.26306
1816.66	1.34028
1818.16	2.01675
1819.66	2.29232
1821.16	2.2587
1822.66	2.32012
1824.16	2.03362
1825.66	1.519
1827.16	1.7417
1828.66	1.89201
1830.16	1.86806
1831.65	0.976587
1833.15	1.80724
1834.65	1.38594
1836.14	1.69968
1837.64	2.39653
1839.14	2.53715
1840.63	2.45286
1842.13	2.25637
1843.62	2.65529
1845.12	2.91545
1846.61	2.96432
1848.11	3.20664
1849.6	3.64174
1851.1	3.26051
1852.59	2.59745
1854.08	2.72928
1855.58	3.04989
1857.07	3.10627
1858.56	2.64167
1860.05	2.07145
1861.55	1.49778
1863.04	1.33898
1864.53	1.3114
1866.02	1.24347
1867.51	1.34019
1869	1.17625
1870.49	1.14768
1871.98	1.44941
1873.47	2.0189
1874.96	2.31711
1876.45	2.79655
1877.94	2.22161
1879.43	2.51
1880.92	2.58111
1882.41	2.4199
1882.51	2.37316
1884	2.23789
1885.5	2.16512
1886.99	1.82417
1888.48	1.0596
1889.98	1.44312
1891.47	2.05421
1892.96	2.19736
1894.46	2.21239
1895.95	1.96667
1897.44	1.99239
1898.93	1.67386
1900.42	2.04199
1901.91	2.60814
1903.41	1.86711
1904.9	2.30006
1906.39	3.11726
1907.88	2.57
1909.37	2.9593
1910.86	3.13722
1912.35	3.13568
1913.83	3.29033
1915.32	3.16759
1916.81	4.13533
1918.3	4.00027
1919.79	4.10399
1921.27	4.18086
1922.76	4.44795
1924.25	4.17278
1925.74	4.70265
1927.22	4.56471
1928.71	4.03803
1930.19	3.85192
1931.68	3.35006
1933.17	3.69972
1934.65	4.33562
1936.14	5.18842
1937.62	5.13296
1939.11	4.76338
1940.59	4.50001
1942.07	4.28075
1943.56	4.94148
1945.04	4.82816
1946.52	4.5623
1948.01	4.4954
1949.49	4.35357
1950.97	3.862
1952.45	3.72361
1953.93	3.56294
1955.42	3.25628
1956.9	3.34996
1958.38	3.12733
1959.86	2.82358
1961.34	3.03198
1962.82	2.77422
1964.3	3.29695
1965.78	3.07587
1967.26	3.14396
1968.74	2.81758
1970.21	2.27281
1971.69	2.25758
1973.17	2.00838
1974.65	2.43714
1976.13	2.54502
1977.6	2.3492
1979.08	2.22556
1980.56	1.87849
1982.03	1.93612
1983.51	2.0262
1984.99	2.12215
1986.46	2.17194
1987.94	1.8929
1989.41	2.16507
1990.89	2.8376
1992.36	2.46413
1993.84	2.74405
1995.31	3.06899
1996.78	2.73191
1998.26	1.90998
1999.73	2.33144
2001.2	1.9252
2002.68	1.93622
2004.15	2.62916
2005.62	2.13505
2007.09	1.63699
2008.56	1.70374
2010.04	1.54617
2011.51	0.9753
2012.98	0.278209
2014.45	0.709323
2015.92	1.70492
2017.39	1.76673
2018.86	1.38278
2020.33	1.97185
2021.8	2.41445
2023.26	2.88628
2024.73	3.03748
2026.2	3.25392
2027.67	3.48481
2029.14	3.61679
2030.61	4.67861
2032.07	5.33578
2033.54	6.02416
2035.01	6.87708
2036.47	7.04194
2037.94	7.43023
2039.4	7.64879
2040.87	7.93029
2042.33	7.64217
2043.8	7.51903
2045.27	7.55092
2046.73	7.88598
2048.19	8.43534
2049.66	8.05556
2051.12	8.47757
2052.59	7.93893
2054.05	8.15975
2055.51	8.44902
2056.97	8.28223
2058.44	8.42221
2059.9	8.09036
2061.36	8.47895
2062.82	8.58817
2064.28	8.5859
2065.74	8.16535
2067.21	8.00715
2068.67	7.90165
2070.13	7.32288
2071.59	7.53303
2073.05	7.70383
2074.51	6.99181
2075.96	6.51776
2077.42	5.90319
2078.88	5.48198
2080.34	6.15108
2081.8	6.29823
2083.26	6.83068
2084.72	6.76026
2086.17	6.96153
2087.63	7.14146
2089.09	7.49749
2090.54	7.00586
2092	7.29777
2093.45	7.94955
2094.91	8.76793
2096.37	9.30733
2097.82	10.6274
2099.28	11.1481
2100.73	12.1049
2102.19	13.3474
2103.64	14.1623
2105.09	14.2141
2106.55	14.2721
2108	13.964
2109.45	13.3055
2110.91	13.6002
2112.36	13.0638
2113.81	12.7314
2115.26	13.0924
2116.72	13.6783
2118.17	14.6471
2119.62	15.7336
2121.07	16.9195
2122.52	17.2965
2123.97	18.2122
2125.42	18.6686
2126.87	19.597
2128.32	19.9476
2129.77	20.8714
2131.22	21.9772
2132.67	22.1198
2134.11	23.4057
2135.56	23.954
2137.01	24.7298
2138.46	24.8298
2139.91	26.1165
2141.35	26.9509
2142.8	28.1551
2144.25	28.8613
2145.7	29.5075
2147.14	30.9303
2148.59	32.1394
2150.03	33.1257
2151.48	34.5292
2152.92	35.1958
2154.37	35.2638
2155.81	36.4995
2157.26	36.7635
2158.7	37.0086
2160.15	37.248
2161.59	38.8
2163.03	39.5771
2164.47	41.4161
2165.92	42.6247
2167.36	43.2499
2168.8	43.6367
2170.24	44.0781
2171.69	43.7019
2173.13	44.1241
2174.57	44.2917
2176.01	43.8051
2177.45	43.4713
2178.89	43.0489
2180.33	42.85
2181.77	42.6309
2183.21	42.4158
2184.65	41.847
2186.09	42.8275
2187.53	43.4718
2188.97	43.598
2190.4	43.0535
2191.84	42.6208
2193.28	41.9329
2194.72	40.3672
2196.16	39.7594
2197.59	39.0861
2199.03	38.2276
2200.47	37.2664
2201.9	37.3029
2203.34	36.1898
2204.77	35.5468
2206.21	35.1488
2207.64	34.2095
2209.08	32.7098
2210.51	32.4478
2211.95	32.2326
2213.38	31.1007
2214.82	31.1377
2216.25	29.3597
2217.68	28.9768
2219.12	28.2326
2220.55	26.8964
2221.98	25.4166
2223.41	23.8901
2224.85	23.1631
2226.28	22.3452
2227.71	21.6377
2229.14	20.5377
2230.57	19.8007
2232	19.2866
2233.43	18.9715
2234.86	18.1963
2236.29	17.8186
2237.72	16.6572
2239.15	15.0381
2240.58	14.876
2242.01	14.321
2243.44	14.0531
2244.87	13.6662
2246.29	13.3305
2247.72	12.2406
2249.15	11.579
2250.58	11.2615
2252.01	10.91
2253.43	10.3032
2254.86	10.0763
2256.29	10.3533
2257.71	10.7653
2259.14	9.96699
2260.56	9.48052
2261.99	8.98627
2263.41	8.65205
2264.84	8.29596
2266.26	8.04663
2267.69	9.16084
2269.11	8.89297
2270.53	8.9875
2271.96	8.67428
2273.38	8.38637
2274.8	7.83389
2276.23	8.44247
2277.65	8.01339
2279.07	7.91389
2280.49	7.7657
2281.91	8.21155
2283.34	7.63141
2284.76	7.74752
2286.18	8.06035
2287.6	7.02992
2289.02	7.31254
2290.44	6.48501
2291.86	6.1131
2293.28	5.32754
2294.7	4.96111
2296.12	5.23555
2297.54	5.22075
2298.96	5.41543
2300.37	5.86257
2301.79	6.31826
2303.21	6.19456
2304.63	6.56249
2306.04	7.01874
2307.46	7.18755
2308.88	7.26648
2310.3	7.01364
2311.71	7.80393
2313.13	7.88905
2314.54	8.40699
2315.96	8.70265
2317.37	9.02159
2318.79	9.02164
2320.2	9.15741
2321.62	10.0876
2323.03	10.0334
2324.45	10.3654
2325.86	10.5519
2327.27	10.545
2328.69	10.9894
2330.1	10.4735
2331.51	10.2841
2332.92	9.9567
2334.34	10.1296
2335.75	10.1811
2337.16	10.2872
2338.57	10.3636
2339.98	9.57537
2341.39	9.43762
2342.8	8.86723
2344.21	8.3802
2345.63	8.7779
2347.04	8.08453
2348.45	7.21489
2349.85	7.12575
2351.26	6.9176
2352.67	6.25509
2354.08	5.68941
2355.49	5.11481
2356.9	4.8213
2358.3	3.42154
2359.71	2.74631
2361.12	1.95392
2362.53	1.32145
2363.93	0.586992
2365.34	0.647533
2366.75	0.470325
2368.15	0.746716
2369.56	0.74808
2370.97	0.285883
2372.37	-0.397295
2373.77	-0.993974
2375.18	-0.538526
2376.59	-0.751198
2377.99	-0.73289
2379.39	-0.84697
2380.8	-0.802003
2382.2	-0.899709
2383.6	-0.239851
2385.01	0.233635
2386.41	0.132876
2387.81	0.616777
2389.21	0.831259
2390.62	1.09803
2392.02	1.40139
2393.42	1.15183
2394.82	2.44271
2396.22	3.02084
2397.62	3.93874
2399.02	4.52058
2400.42	4.60018
2401.82	4.84463
2403.22	5.6704
2404.62	6.35499
2406.02	6.51119
2407.42	7.3017
2408.82	7.54152
2410.22	8.07106
2411.62	8.29157
2413.01	8.02267
2414.41	7.88502
2415.81	8.38533
2417.21	7.80142
2418.6	7.67176
2420	7.43748
2421.4	6.74024
2422.79	5.73551
2424.19	5.15261
2425.59	4.77665
2426.98	4.98398
2428.38	4.27354
2429.77	4.83043
2431.17	4.85604
2432.56	4.4758
2433.95	4.64897
2435.35	4.84736
2436.74	4.4902
2438.14	4.5517
2439.53	4.40207
2440.92	3.76204
2442.31	3.75557
2443.71	4.26549
2445.1	5.03634
2446.49	4.06289
2447.88	4.32354
2449.27	3.6794
2450.67	4.06521
2452.06	4.26748
2453.45	4.74734
2454.84	5.09728
2456.23	5.26755
2457.62	5.65944
2459.01	5.84496
2460.4	6.13711
2461.79	6.7864
2463.18	7.12514
2464.57	7.79043
2465.95	7.48344
2467.34	7.4302
2468.73	6.76683
2470.12	6.87371
2471.5	7.01684
2472.89	7.17748
2474.28	6.99771
2475.67	6.87701
2477.05	6.47911
2478.44	5.99269
2479.82	6.04996
2481.21	5.53914
2482.6	4.75136
2483.98	4.2858
2485.37	4.26612
2486.75	3.55458
2488.13	2.39299
2489.52	2.08544
2490.9	1.57768
2492.29	1.51807
2493.67	2.03065
2495.05	2.12517
2496.44	2.28079
2497.82	2.00266
2499.2	2.23899
2500.58	1.92652
2501.97	1.62664
2503.35	1.57095
2504.73	1.24054
2506.11	0.821721
2507.49	1.03808
2508.87	1.21698
2510.25	1.0134
2511.63	1.48107
2513.01	1.53522
2514.39	1.4443
2515.77	1.378
2517.15	1.92581
2518.53	1.99156
2519.91	2.57349
2521.29	2.96203
2522.67	2.95702
2524.05	3.30734
2525.42	3.1621
2526.8	3.1395
2528.18	3.25205
2529.55	3.29866
2530.93	4.31212
2532.31	4.12179
2533.69	4.70874
2535.06	4.46624
2536.44	4.36516
2537.81	4.95148
2539.19	5.3755
2540.56	5.82302
2541.94	5.56561
2543.31	5.61435
2544.69	5.90259
2546.06	6.00104
2547.44	6.15353
2548.81	6.32947
2550.18	6.38776
2551.56	6.1987
2552.93	5.82547
2554.3	6.21923
2555.67	5.93238
2557.04	5.55519
2558.42	6.23103
2559.79	6.65059
2561.16	7.18355
2562.53	7.19147
2563.9	7.30083
2565.27	7.67579
2566.64	7.58404
2568.01	8.23841
2569.38	8.43348
2570.75	7.99116
2572.12	8.31888
2573.49	8.43333
2574.86	8.4637
2576.23	8.7931
2577.6	8.54017
2578.97	8.20642
2580.33	7.87402
2581.7	7.87165
2583.07	7.70562
2584.44	7.73895
2585.8	7.0426
2587.17	6.40966
2588.54	5.6284
2589.9	5.55968
2591.27	5.12017
2592.64	5.06396
2594	5.18955
2595.37	4.9097
2596.73	4.78657
2598.1	5.27767
2599.46	5.25422
2600.83	4.6063
2602.19	4.69272
2603.55	4.81394
2604.92	5.09155
2606.28	5.10546
2607.64	3.93506
2609.01	3.58252
2610.37	2.89091
2611.73	3.30656
2613.09	3.30199
2614.46	2.92546
2615.82	2.67388
2617.18	2.3682
2618.54	2.26294
2619.9	1.93647
2621.26	2.56189
2622.62	3.31227
2623.98	3.58408
2625.34	4.03608
2626.7	4.32226
2628.06	4.28484
2629.42	4.66797
2630.78	5.02696
2632.14	5.49708
2633.5	5.75462
2634.86	6.3146
2636.21	7.04673
2637.57	6.84318
2638.93	6.4148
2640.29	6.97941
2641.64	6.68538
2643	6.74138
2644.36	6.95692
2645.71	6.48758
2647.07	6.22232
2648.43	5.94127
2649.78	6.16566
2651.14	5.76676
2652.49	5.83334
2653.85	5.19759
2655.2	5.4183
2656.56	5.84286
2657.91	5.83332
2659.26	5.67443
2660.62	6.04974
2661.97	6.14802
2663.32	5.76575
2664.68	6.37938
2666.03	6.26045
2667.38	5.53097
2668.74	5.50196
2670.09	5.59706
2671.44	5.28983
2672.79	4.75269
2674.14	3.83952
2675.49	3.37074
2676.84	3.50256
2678.19	4.24643
2679.54	4.86515
2680.89	5.15837
2682.24	4.96521
2683.59	4.81287
2684.94	4.82579
2686.29	5.656
2687.64	6.03718
2688.99	6.41978
2690.34	6.2748
2691.69	7.00269
2693.03	7.55764
2694.38	8.33035
2695.73	8.82321
2697.08	9.43436
2698.42	9.73108
2699.77	10.359
2701.12	10.8395
2702.46	11.525
2703.81	11.4184
2705.15	11.4018
2706.5	11.8152
2707.85	12.3209
2709.19	12.2302
2710.54	12.607
2711.88	12.6314
2713.22	12.7194
2714.57	12.6255
2715.91	12.5878
2717.26	13.2019
2718.6	13.1285
2719.94	12.7996
2721.29	13.0217
2722.63	13.1453
2723.97	12.4634
2725.31	12.1489
2726.66	12.5208
2728	12.5367
2729.34	12.1243
2730.68	11.8121
2732.02	11.6161
2733.36	10.9936
2734.7	11.0903
2736.04	11.3255
2737.38	11.3572
2738.72	11.0234
2740.06	10.6139
2741.4	10.312
2742.74	10.2158
2744.08	9.82016
2745.42	9.98035
2746.76	9.36295
2748.09	9.11992
2749.43	8.87247
2750.77	8.40331
2752.11	8.42183
2753.45	7.55985
2754.78	6.99264
2756.12	6.62647
2757.46	6.63253
2758.79	6.63136
2760.13	5.96421
2761.46	5.92276
2762.8	5.16902
2764.14	5.46692
2765.47	5.24167
2766.8	4.84418
2768.14	4.37783
2769.47	4.30514
2770.81	3.59617
2772.14	3.09573
2773.48	2.86348
2774.81	2.46964
2776.14	1.95692
2777.48	1.82181
2778.81	1.4928
2780.14	1.41239
2781.47	0.606918
2782.8	0.116516
2784.14	0.270348
2785.47	0.172042
2786.8	0.246631
2788.13	0.756018
2789.46	0.680252
2790.79	0.74699
2792.12	0.986152
2793.45	1.22374
2794.78	1.48854
2796.11	1.55147
2797.44	1.93701
2798.77	2.34884
2800.1	2.47674
2801.43	2.20969
2802.76	2.17446
2804.09	2.39513
2805.41	2.8745
2806.74	2.7054
2808.07	2.99788
2809.4	2.9363
2810.72	3.6116
2812.05	4.61515
2813.38	5.10002
2814.71	5.35074
2816.03	5.58016
2817.36	5.15192
2818.68	5.34596
2820.01	5.73778
2821.33	6.74056
2822.66	7.68324
2823.98	8.51476
2825.31	9.31919
2826.63	10.6732
2827.96	11.6922
2829.28	12.569
2830.6	13.7106
2831.93	13.5625
2833.25	14.3383
2834.57	15.3354
2835.9	16.3269
2837.22	17.2164
2838.54	17.687
2839.86	19.2051
2841.18	19.7286
2842.5	20.6161
2843.83	21.617
2845.15	22.914
2846.47	24.0971
2847.79	25.2197
2849.11	27.7167
2850.43	30.0841
2851.75	32.2481
2853.07	33.2988
2854.39	34.9217
2855.71	36.4232
2857.03	37.5702
2858.35	38.9748
2859.66	41.0313
2860.98	42.8189
2862.3	44.5285
2863.62	46.3355
2864.94	47.4258
2866.25	48.6323
2867.57	50.1294
2868.89	51.7731
2870.2	53.4363
2871.52	54.994
2872.84	55.5841
2874.15	57.1064
2875.47	58.0755
2876.78	59.4312
2878.1	60.8979
2879.41	62.2488
2880.73	63.1976
2882.04	64.2499
2883.36	65.9911
2884.67	67.3049
2885.99	68.8459
2887.3	70.8423
2888.61	72.1569
2889.93	73.3989
2891.24	74.2741
2892.55	75.3183
2893.86	76.8236
2895.18	78.3009
2896.49	79.0239
2897.8	80.0202
2899.11	81.308
2900.42	82.7143
2901.73	84.3006
2903.05	85.5367
2904.36	86.9332
2905.67	89.0733
2906.98	90.7231
2908.29	93.0172
2909.6	95.2871
2910.91	97.5682
2912.21	100.262
2913.52	102.585
2914.83	105.617
2916.14	106.956
2917.45	109.279
2918.76	111.33
2920.07	113.796
2921.37	115.406
2922.68	117.556
2923.99	119.26
2925.29	120.764
2926.6	121.732
2927.91	122.609
2929.22	123.391
2930.52	123.641
2931.83	124.912
2933.13	125.324
2934.44	125.554
2935.74	126.103
2937.05	125.383
2938.35	124.522
2939.66	124.289
2940.96	123.77
2942.26	123.367
2943.57	122.632
2944.87	121.273
2946.18	119.849
2947.48	118.819
2948.78	117.396
2950.08	114.698
2951.39	112.772
2952.69	110.84
2953.99	107.538
2955.29	104.749
2956.59	101.516
2957.9	99.6344
2959.2	97.4824
2960.5	94.3239
2961.8	90.8918
2963.1	87.9429
2964.4	85.4605
2965.7	83.3083
2967	80.8141
2968.3	78.0375
2969.6	76.2298
2970.9	74.0488
2972.19	71.9161
2973.49	69.5239
2974.79	67.3357
2976.09	64.7629
2977.39	62.9515
2978.68	60.014
2979.98	58.1412
2981.28	55.3801
2982.58	53.5949
2983.87	51.2198
2985.17	48.7109
2986.47	46.1409
2987.76	43.9004
2989.06	40.9725
2990.35	38.8722
2991.65	37.0292
2992.94	35.235
2994.24	33.208
2995.53	31.4092
2996.83	29.8789
2998.12	27.6987
2999.42	25.9027
3000.71	24.1874
3002	22.2277
3003.3	20.9813
3004.59	19.6192
3005.88	18.2447
3007.18	16.6853
3008.47	15.2056
3009.76	14.2408
3011.05	12.4502
3012.34	10.7791
3013.64	8.69696
3014.93	7.73821
3016.22	6.85949
3017.51	6.39857
3018.8	5.19047
3020.09	4.36796
3021.38	3.60752
3022.67	3.14372
3023.96	2.15088
3025.25	1.7337
3026.54	1.19324
3027.83	1.08821
3029.12	1.22331
3030.41	0.981601
3031.69	0.649575
3032.98	0.617491
3034.27	0.787662
3035.56	0.803805
3036.84	0.715905
3038.13	0.729992
3039.42	1.0103
3040.71	0.718854
3041.99	1.04714
3043.28	1.08701
3044.57	1.56038
3045.85	1.9251
3047.14	2.31005
3048.42	2.37451
3049.71	2.29446
3050.99	2.08884
3052.28	2.02684
3053.56	2.29368
3054.85	2.82525
3056.13	2.54506
3057.41	2.77939
3058.7	2.58691
3059.98	2.84882
3061.26	3.04045
3062.55	2.63052
3063.83	2.24917
3065.11	1.83375
3066.39	1.67872
3067.68	1.37249
3068.96	1.53346
3070.24	1.43244
3071.52	1.64856
3072.8	1.28063
3074.08	1.05272
3075.36	0.431957
3076.65	0.888623
3077.93	1.19455
3079.21	1.91391
3080.49	1.71409
3081.77	2.02705
3083.04	1.05199
3084.32	0.88939
3085.6	0.594762
3086.88	0.77772
3088.16	0.877235
3089.44	1.01712
3090.72	0.995123
3091.99	0.615416
3093.27	0.556305
3094.55	0.690518
3095.83	0.798055
3097.1	1.26882
3098.38	0.97765
3099.66	1.60425
3100.93	2.08462
3102.21	2.37169
3103.49	2.84389
3104.76	3.21215
3106.04	4.01771
3107.31	4.22106
3108.59	4.30582
3109.86	4.94004
3111.14	5.08952
3112.41	5.26745
3113.69	5.2965
3114.96	5.50399
3116.23	5.80493
3117.51	6.30293
3118.78	6.62736
3120.05	6.70735
3121.33	7.36729
3122.6	7.42626
3123.87	7.83867
3125.14	8.22979
3126.41	7.96055
3127.69	8.58999
3128.96	9.31914
3130.23	10.2709
3131.5	10.855
3132.77	11.7127
3134.04	12.1804
3135.31	12.8799
3136.58	13.0774
3137.85	14.0162
3139.12	15.12
3140.39	15.9729
3141.66	16.5926
3142.93	17.0836
3144.2	17.7138
3145.47	18.4015
3146.74	19.5777
3148	20.5623
3149.27	21.7692
