#Acq. time (s)=	45
#Accumulations=	2
#Range (cm-¹)=	200...3150
#Windows=	2
#Auto scanning=	Off
#Autofocus=	Off
#Macrospot=	Off
#AutoExposure=	Off
#Spike filter=	Multiple accum.
#Delay time (s)=	0
#Binning=	1
#Readout mode=	Signal
#DeNoise=	Off
#ICS correction=	On
#Dark correction=	Off
#Inst. Process=	Off
#Detector Gain=	Best Dynamic Range
#Detector ADC=	20 kHz       
#Detector temperature (°C)=	-69.85
#Instrument=	LabRAM HR Evol
#Detector=	Synapse
#Objective=	x100
#Grating=	600 gr/mm
#ND Filter=	100%
#Laser (nm)=	532 
#Hole=	100.021
#Range=	Auto
#Laser Pol.=	No
#Raman. Pol.=	No
#Laser Pol. (°)=	-0.0007625
#Raman Pol. (°)=	89.9995
#Collection=	Microscope
#StageXY=	Marzhauser
#StageZ=	Marzhauser
#X (µm)=	-6398.7
#Y (µm)=	870.2
#Z (µm)=	-64.4
#Full time(mm:ss)=	3:19
#Project=	
#Sample=	
#Site=	
#Title=	Mb_30_27_19_2x_45s_532 nm_x100_100%_600 gr_mm
#Remark=	
#Date=	13.07.2022 10:02
#Acquired=	13.07.2022 10:02:58
#Base:Fit=	10.08.2022 10:40:03
#Base:Sub=	10.08.2022 10:40:17
#Filter:Polynom=	16.08.2022 10:16:15
#AxisType[0]=Intens
#AxisUnit[0]=Cnt
#AxisType[1]=Spectr
#AxisUnit[1]=1/cm
200.563	30.0723
202.377	32.6362
204.194	34.7449
206.008	36.1614
207.821	37.0827
209.634	37.5043
211.449	37.5564
213.262	37.9375
215.074	37.4918
216.885	37.0088
218.699	37.6001
220.51	37.8937
222.321	37.4616
224.131	36.2406
225.941	35.0679
227.751	34.6028
229.562	33.7175
231.371	31.6765
233.18	29.8799
234.988	29.0126
236.796	27.9894
238.603	25.6927
240.411	24.9949
242.219	24.7412
244.026	23.7182
245.832	23.3226
247.638	21.7094
249.443	20.8317
251.248	20.2382
253.053	19.8923
254.857	19.5636
256.661	18.6801
258.465	18.3211
260.268	16.3732
262.071	14.3527
263.874	13.8632
265.678	13.527
267.48	13.1718
269.282	12.5518
271.083	10.9884
272.884	9.31367
274.684	9.57319
276.484	9.78259
278.284	9.56691
280.084	9.76884
281.883	8.88987
283.682	8.72601
285.48	9.00985
287.276	7.91151
289.074	7.72392
290.871	7.42324
292.668	7.05746
294.465	6.44712
296.261	6.38372
298.057	6.23961
299.853	5.58652
301.648	6.74887
303.443	6.75158
305.237	6.32145
307.032	6.52207
308.823	6.97163
310.617	5.7029
312.41	4.65147
314.203	3.67762
315.995	3.34599
317.788	3.15618
319.579	2.48461
321.369	2.5592
323.16	2.75059
324.951	3.09104
326.741	2.73514
328.531	3.05481
330.321	4.76428
332.108	6.01832
333.897	6.09463
335.686	6.06492
337.474	5.49567
339.26	7.20338
341.048	7.59376
342.835	7.29378
344.622	7.32485
346.406	7.20242
348.192	6.61835
349.978	6.41227
351.764	5.79892
353.547	5.76073
355.332	4.93895
357.116	4.81595
358.901	4.52002
360.682	4.7375
362.466	4.08566
364.249	4.29813
366.03	4.20702
367.812	5.18139
369.594	5.42825
371.374	5.95189
373.155	5.94571
374.936	5.38202
376.715	5.57213
378.495	5.75108
380.273	5.09351
382.053	5.40711
383.832	5.44507
385.609	5.89316
387.388	6.30389
389.164	6.46117
390.942	6.98546
392.72	6.40093
394.495	6.77807
396.272	6.89217
398.047	6.32078
399.823	5.95063
401.597	6.2376
403.372	6.76894
405.145	7.41113
406.92	7.24122
408.693	7.2221
410.467	7.50815
412.239	6.4224
414.012	6.67104
415.783	7.14773
417.556	8.02126
419.327	7.16737
421.099	7.05965
422.869	6.8133
424.64	6.77929
426.409	6.64478
428.18	7.86262
429.948	7.36736
431.718	7.45617
433.486	7.25087
435.253	6.69314
437.022	5.83909
438.789	5.21773
440.558	4.39277
442.324	4.92506
444.089	4.55076
445.857	5.14933
447.622	5.67573
449.386	5.33124
451.153	5.44721
452.917	6.29736
454.682	6.10974
456.446	6.95405
458.208	7.07255
459.973	6.95451
461.735	6.85498
463.497	7.25536
465.259	8.18369
467.022	9.08724
468.783	9.85207
470.544	11.8612
472.306	12.1365
474.066	13.3355
475.825	14.0953
477.585	14.7189
479.346	15.6011
481.104	17.4796
482.862	18.3721
484.62	18.7282
486.38	19.3129
488.137	20.5997
489.894	20.6561
491.65	21.1659
493.407	21.6468
495.164	21.6263
496.92	22.349
498.675	22.744
500.43	23.1472
502.184	24.0331
503.939	24.2762
505.694	24.0004
507.448	23.888
509.201	24.9624
510.954	25.6693
512.706	25.784
514.459	25.2147
516.21	27.0239
517.962	28.0853
519.715	27.7263
521.466	27.9313
523.216	28.2755
524.966	26.912
526.716	27.1138
528.466	28.4464
530.215	28.0306
531.964	26.8943
533.712	27.1007
535.46	26.5922
537.208	25.6269
538.955	25.8074
540.703	25.1001
542.449	23.9558
544.196	23.4364
545.942	22.1594
547.688	21.4343
549.433	20.2423
551.178	19.8062
552.923	19.3844
554.667	19.0342
556.412	17.4766
558.155	16.7156
559.899	15.8652
561.642	14.8832
563.385	13.5611
565.127	13.0029
566.867	12.2417
568.609	11.941
570.35	9.67575
572.092	9.20526
573.832	8.57789
575.573	7.043
577.313	6.48249
579.053	6.60414
580.79	6.19819
582.529	5.57307
584.268	4.58241
586.006	4.21112
587.745	3.98705
589.482	2.78689
591.218	2.31636
592.955	2.07659
594.692	1.80165
596.428	1.77533
598.164	2.63707
599.898	3.18186
601.634	3.45676
603.369	4.79661
605.104	5.49562
606.836	4.80865
608.57	5.51103
610.304	5.2221
612.037	5.37381
613.769	5.69584
615.501	6.06809
617.234	5.24318
618.966	6.11604
620.696	8.03137
622.427	8.15666
624.159	8.62708
625.887	9.10724
627.618	8.66705
629.348	8.40638
631.076	8.61543
632.806	9.21061
634.535	9.91131
636.262	9.89192
637.99	11.5527
639.716	11.1685
641.444	11.6681
643.172	11.9052
644.897	12.7356
646.624	13.1475
648.348	13.0483
650.075	15.0183
651.801	16.2566
653.524	17.1352
655.249	17.7962
656.972	17.9757
658.697	20.2536
660.419	19.6565
662.143	20.7701
663.865	21.9805
665.588	21.8105
667.309	23.3233
669.032	25.0772
670.752	24.1824
672.474	25.1514
674.194	25.9225
675.915	26.4103
677.634	27.9276
679.355	29.279
681.073	30.4928
682.793	32.2956
684.511	33.6984
686.23	34.9171
687.947	36.4413
689.664	37.9999
691.382	38.2636
693.098	38.6476
694.816	40.2674
696.531	40.8063
698.247	42.3656
699.963	43.5581
701.678	44.5212
703.392	45.3205
705.108	45.9799
706.821	46.7548
708.534	46.1921
710.249	47.16
711.962	47.6542
713.674	48.1012
715.388	48.1358
717.099	48.6483
718.81	48.4579
720.523	48.8512
722.234	49.7571
723.944	50.061
725.654	50.1573
727.365	50.6191
729.075	51.0522
730.784	51.3012
732.492	51.4604
734.202	51.3351
735.91	52.0926
737.618	50.8968
739.325	50.844
741.034	50.9003
742.741	51.512
744.447	52.2375
746.153	51.6787
747.859	53.7723
749.564	53.6075
751.271	54.6027
752.976	56.6616
754.681	56.9837
756.385	57.4762
758.088	59.3718
759.792	60.8688
761.495	61.8701
763.2	64.7672
764.902	66.7888
766.604	67.776
768.306	68.8789
770.008	69.4482
771.709	71.2767
773.41	71.9152
775.11	72.366
776.811	73.8342
778.51	75.331
780.21	77.6061
781.909	76.6624
783.608	78.3284
785.307	78.5577
787.005	79.1372
788.703	80.0331
790.401	81.234
792.098	82.2935
793.795	83.3068
795.492	84.986
797.188	85.6654
798.884	86.6025
800.58	87.293
802.276	88.5978
803.971	89.4226
805.665	90.2579
807.36	90.4714
809.054	89.8563
810.748	89.8035
812.441	88.51
814.135	88.216
815.826	88.0025
817.518	88.5099
819.21	88.9716
820.902	88.7757
822.594	88.3296
824.285	88.3652
825.976	87.0994
827.665	86.6944
829.355	86.351
831.045	84.6133
832.735	84.4099
834.424	82.4755
836.111	80.9551
837.8	79.765
839.488	79.022
841.177	78.0021
842.864	75.6653
844.55	75.3064
846.237	73.4851
847.924	72.5131
849.61	69.8706
851.295	68.0402
852.98	66.7348
854.666	65.0714
856.349	64.2131
858.034	61.7306
859.719	60.2774
861.403	59.2728
863.085	57.4442
864.769	56.7435
866.452	55.2762
868.133	56.0702
869.816	55.2012
871.498	53.7043
873.179	52.5409
874.86	52.338
876.54	51.7734
878.221	51.2468
879.902	50.8491
881.58	50.8784
883.26	50.8596
884.938	51.0768
886.618	51.4305
888.297	50.7074
889.974	49.7671
891.653	50.2549
893.329	49.9085
895.007	50.5941
896.683	51.2728
898.36	53.0058
900.035	53.6121
901.712	54.0623
903.387	53.3946
905.063	53.6411
906.737	53.8504
908.412	52.8772
910.085	52.4771
911.76	53.0273
913.433	53.3049
915.107	52.5126
916.779	52.3469
918.452	51.5548
920.124	50.3552
921.797	50.1738
923.467	49.9964
925.138	49.5918
926.81	49.1735
928.48	49.5647
930.151	48.6596
931.82	48.7061
933.489	48.1315
935.16	48.1634
936.828	47.4828
938.496	46.6641
940.165	46.0241
941.833	45.0871
943.5	44.8132
945.168	44.2578
946.834	43.0409
948.5	42.9278
950.168	42.8452
951.834	41.2535
953.499	40.2474
955.163	39.9524
956.83	40.1274
958.494	38.6506
960.158	38.104
961.821	37.7487
963.487	38.7595
965.15	38.6753
966.812	38.0093
968.474	38.825
970.138	38.1186
971.8	37.6554
973.461	37.9462
975.123	38.492
976.783	37.9398
978.446	38.6897
980.106	38.4834
981.766	38.2323
983.425	36.9313
985.084	36.8742
986.743	36.2806
988.402	36.6726
990.06	35.5692
991.72	34.3975
993.378	34.3619
995.035	34.2178
996.692	34.4166
998.349	33.0999
1000.01	31.3285
1001.66	30.3831
1003.32	29.2455
1004.97	29.932
1006.63	31.2825
1008.28	34.2437
1009.94	35.6685
1011.59	38.5619
1013.25	41.5168
1014.9	44.0731
1016.55	46.8398
1018.21	50.206
1019.86	52.76
1021.51	54.7009
1023.16	56.1154
1024.81	57.3554
1026.47	59.2926
1028.12	60.7293
1029.77	62.0515
1031.42	63.8062
1033.07	64.7276
1034.72	64.9617
1036.37	66.2566
1038.02	66.0824
1039.67	64.3593
1041.31	64.3797
1042.96	64.7439
1044.61	65.1095
1046.26	65.3372
1047.91	64.8262
1049.55	63.8904
1051.2	63.0056
1052.84	61.1412
1054.49	59.4673
1056.14	57.2765
1057.78	54.597
1059.43	51.6608
1061.07	49.459
1062.72	47.3919
1064.36	44.358
1066	41.166
1067.65	39.2149
1069.29	36.5041
1070.93	34.6615
1072.58	31.0131
1074.22	27.7075
1075.86	25.5004
1077.5	23.2027
1079.14	20.831
1080.78	18.9747
1082.42	17.5515
1084.06	17.2193
1085.7	18.2141
1087.34	19.038
1088.98	19.4797
1090.62	21.1156
1092.26	20.8165
1093.9	22.5615
1095.54	21.9494
1097.17	21.9604
1098.81	22.8925
1100.45	24.0002
1102.09	23.5593
1103.72	24.0393
1105.36	24.4181
1106.99	23.9329
1108.63	24.0744
1110.27	23.5559
1111.9	22.6102
1113.53	22.818
1115.17	23.3635
1116.8	23.4272
1118.43	23.9662
1120.07	22.8197
1121.7	22.6827
1123.33	23.6208
1124.97	23.2669
1126.6	23.4443
1128.23	22.7307
1129.86	21.8398
1131.49	20.2392
1133.12	19.1793
1134.75	18.2161
1136.38	17.2693
1138.01	16.9615
1139.64	16.2668
1141.27	16.2827
1142.9	15.7516
1144.53	14.5621
1146.16	12.8092
1147.78	11.7471
1149.41	10.9876
1151.04	10.411
1152.67	9.31674
1154.29	7.73639
1155.92	7.11553
1157.54	6.59369
1159.17	5.72644
1160.8	5.00203
1162.42	4.38817
1164.05	3.65979
1165.67	2.91424
1167.29	2.49549
1168.92	0.858683
1170.54	0.901786
1172.16	1.57509
1173.79	1.39044
1175.41	2.37135
1177.03	1.86222
1178.65	3.5498
1180.28	4.41837
1181.9	3.90017
1183.52	3.63129
1185.14	4.68884
1186.76	5.02471
1188.38	5.23285
1190	6.28914
1191.62	6.98637
1193.24	7.63869
1194.86	9.48124
1196.47	10.6365
1198.09	10.9645
1199.71	11.8023
1201.33	12.7581
1202.95	14.6814
1204.56	16.8751
1206.18	18.3813
1207.8	19.1443
1209.41	20.4675
1211.03	20.6741
1212.64	22.2716
1214.26	22.687
1215.87	25.1377
1217.49	26.9865
1219.1	28.6996
1220.71	29.8934
1222.33	30.5298
1223.94	31.9419
1225.55	33.4344
1227.16	35.6537
1228.78	37.1296
1230.39	39.1011
1232	41.6969
1233.61	42.9077
1235.22	44.6094
1236.83	45.8234
1238.44	47.5274
1240.05	48.6358
1241.66	50.7187
1243.27	51.6118
1244.88	52.512
1246.49	52.6921
1248.1	53.6264
1249.71	54.548
1251.32	56.1234
1252.92	56.4393
1254.53	56.7072
1256.14	57.5278
1257.74	57.497
1259.35	58.3041
1260.96	58.5422
1262.56	59.5173
1264.17	59.8509
1265.77	61.3344
1267.38	62.2941
1268.98	62.0836
1270.59	62.2155
1272.19	61.9203
1273.79	61.7539
1275.4	62.2911
1277	62.6697
1278.6	62.4017
1280.21	62.9326
1281.81	63.2939
1283.41	63.0441
1285.01	63.2065
1286.61	62.0455
1288.21	61.578
1289.81	62.1927
1291.41	61.9858
1293.01	63.1699
1294.61	62.8377
1296.21	64.0758
1297.81	64.3918
1299.41	64.4043
1301.01	64.4046
1302.6	64.1041
1304.2	64.4533
1305.8	64.1073
1307.4	64.2362
1308.99	64.3297
1310.59	66.307
1312.19	67.1053
1313.78	66.7101
1315.38	67.7132
1316.97	67.1476
1318.57	67.4199
1320.16	68.0034
1321.76	68.139
1323.35	67.2543
1324.94	67.293
1326.54	68.4822
1328.13	68.7811
1329.72	68.6189
1331.32	68.9711
1332.91	69.0547
1334.5	70.1113
1336.09	69.893
1337.68	69.5198
1339.27	68.6177
1340.87	68.9524
1342.45	68.5069
1344.04	67.6067
1345.64	67.7418
1347.22	65.7765
1348.81	64.5125
1350.4	63.8335
1351.99	62.7104
1353.58	61.8366
1355.17	61.828
1356.75	60.0122
1358.34	58.0459
1359.93	56.7029
1361.51	55.807
1363.1	54.2133
1364.69	52.8558
1366.27	51.3594
1367.86	50.5608
1369.44	48.9695
1371.03	47.3519
1372.61	46.1814
1374.2	44.6319
1375.78	43.7434
1377.37	43.0553
1378.95	41.025
1380.53	39.764
1382.11	38.6062
1383.7	38.2107
1385.28	38.7066
1386.86	38.3881
1388.44	39.1196
1390.02	39.3633
1391.6	38.5439
1393.19	38.4488
1394.77	37.9987
1396.35	36.5211
1397.93	36.6159
1399.51	37.5374
1401.08	36.8562
1402.66	36.7813
1404.24	36.9358
1405.82	36.9338
1407.4	37.1475
1408.97	38.0019
1410.55	38.746
1412.13	39.2247
1413.71	39.333
1415.28	39.1904
1416.86	39.9937
1418.43	40.9901
1420.01	43.1894
1421.59	44.8178
1423.16	46.2656
1424.73	48.2132
1426.31	51.2805
1427.88	54.1521
1429.46	56.8237
1431.03	58.8543
1432.6	60.6966
1434.18	63.2754
1435.75	63.8308
1437.32	65.277
1438.89	66.802
1440.46	68.9325
1442.04	69.591
1443.61	70.5269
1445.18	71.5695
1446.75	72.8249
1448.32	74.6092
1449.89	75.9856
1451.46	76.3901
1453.03	77.6019
1454.6	78.4955
1456.16	79.8225
1457.73	78.9183
1459.3	79.2464
1460.87	79.1485
1462.44	78.9515
1464	79.0864
1465.57	78.0203
1467.14	77.6981
1468.7	75.7664
1470.27	74.5255
1471.83	73.1393
1473.4	70.7361
1474.96	68.4503
1476.53	66.739
1478.09	65.3925
1479.66	62.1893
1481.22	60.0105
1482.78	58.3845
1484.35	56.168
1485.91	55.212
1487.47	52.74
1489.04	51.216
1490.6	49.7546
1492.16	48.0838
1493.72	47.4341
1495.28	45.6943
1496.84	44.5453
1498.4	43.491
1499.96	42.8873
1501.52	41.2369
1503.08	41.6196
1504.64	40.2525
1506.2	38.3577
1507.76	37.4378
1509.32	35.7816
1510.88	34.3197
1512.44	31.8794
1513.99	29.6279
1515.55	28.4999
1517.11	27.3658
1518.66	26.9103
1520.22	25.6409
1521.78	25.2062
1523.33	25.075
1524.89	25.0106
1526.44	25.1594
1528	23.5813
1529.55	23.8327
1531.11	24.1263
1532.66	24.1989
1534.21	24.9997
1535.77	24.5093
1537.32	25.1888
1538.87	25.2825
1540.43	26.2217
1541.98	27.0037
1543.53	26.7763
1545.08	28.0991
1546.63	28.52
1548.18	29.6514
1549.74	29.9091
1551.29	30.3468
1552.84	30.0406
1554.39	31.0765
1555.94	31.9559
1557.48	32.4177
1559.03	33.6277
1560.58	34.2991
1562.13	34.9159
1563.68	35.823
1565.23	36.7838
1566.78	37.5064
1568.32	37.6235
1569.87	38.8798
1571.42	40.1314
1572.96	40.5029
1574.51	42.1953
1576.05	43.5408
1577.6	45.1653
1579.14	46.1817
1580.69	47.3025
1582.24	47.8036
1583.78	48.4935
1585.32	49.2204
1586.87	49.8642
1588.41	50.7271
1589.95	51.1845
1591.5	52.7391
1593.04	53.1001
1594.58	53.7256
1596.12	54.5948
1597.67	55.218
1599.21	55.4829
1600.75	55.3715
1602.29	55.7008
1603.83	57.013
1605.37	57.1785
1606.91	59.144
1608.45	59.412
1609.99	61.0827
1611.53	61.3756
1613.07	62.3118
1614.6	62.8329
1616.14	63.6449
1617.68	64.9941
1619.22	65.4381
1620.75	67.0621
1622.29	68.5274
1623.83	69.0205
1625.37	69.959
1626.9	70.8545
1628.44	72.4394
1629.97	73.539
1631.51	74.7719
1633.04	76.6992
1634.58	77.3506
1636.11	79.2454
1637.65	79.9712
1639.18	81.187
1640.72	82.188
1642.25	83.9053
1643.78	84.9049
1645.31	86.9143
1646.85	89.3741
1648.38	90.161
1649.91	91.0843
1651.44	92.6055
1652.97	93.1876
1654.5	93.3189
1656.03	93.5142
1657.56	92.9932
1659.1	92.829
1660.62	91.5568
1662.15	91.4271
1663.68	91.1667
1665.21	89.2819
1666.74	87.2066
1668.27	85.0997
1669.8	82.2335
1671.32	79.871
1672.85	77.3607
1674.38	74.9492
1675.91	72.2827
1677.43	69.6193
1678.96	67.2124
1680.49	64.984
1682.01	61.6323
1683.54	58.4762
1685.06	54.3925
1686.59	52.0925
1688.11	49.0652
1689.64	46.2465
1691.16	43.5598
1692.68	40.7303
1694.21	38.3826
1695.73	35.7814
1697.25	34.3911
1698.78	32.356
1700.3	30.5753
1701.82	29.0772
1703.34	27.346
1704.86	25.8522
1706.39	24.4351
1707.91	22.6771
1709.43	22.2382
1710.95	20.34
1712.47	18.9022
1713.99	17.1432
1715.51	16.1314
1717.02	15.2309
1718.54	14.5844
1720.06	13.9223
1721.58	13.8836
1723.1	13.9897
1724.62	13.5398
1726.13	13.5948
1727.65	13.6346
1729.17	12.4131
1730.68	11.7476
1732.2	11.5174
1733.72	10.9045
1735.23	11.1576
1736.75	10.721
1738.26	10.6266
1739.78	9.98988
1741.29	8.6896
1742.81	8.68224
1744.32	7.49231
1745.84	6.37861
1747.35	6.22775
1748.86	5.84431
1750.37	5.49816
1751.89	5.21651
1753.4	4.63705
1754.91	3.90239
1756.42	3.84513
1757.93	3.1111
1759.45	2.78976
1760.96	2.64611
1762.47	3.31367
1763.98	2.7138
1765.49	2.56813
1767	3.25956
1768.51	2.70036
1770.02	2.66165
1771.53	2.05049
1773.03	2.29356
1774.54	2.18026
1776.05	1.96418
1777.56	1.77362
1779.07	1.36922
1780.57	1.40008
1782.08	1.46509
1783.59	0.699309
1785.09	0.586205
1786.6	-0.173462
1788.11	-0.363214
1789.61	-0.0695322
1791.12	-0.226814
1792.62	-0.0851965
1794.13	0.0233283
1795.63	0.251168
1797.13	0.722209
1798.64	0.527076
1800.14	-0.0248113
1801.65	-0.256321
1803.15	-0.364978
1804.65	-0.523407
1806.15	0.560349
1807.66	0.538818
1809.16	0.643917
1810.66	0.857735
1812.16	0.904745
1813.66	1.19662
1815.16	1.10281
1816.66	0.736521
1818.16	0.523827
1819.66	-0.0796615
1821.16	0.0905163
1822.66	0.254131
1824.16	0.0838082
1825.66	0.822768
1827.16	0.644322
1828.66	0.742954
1830.16	0.837036
1831.65	1.21485
1833.15	1.44689
1834.65	1.96923
1836.14	2.3674
1837.64	2.64646
1839.14	2.77491
1840.63	2.80005
1842.13	2.49246
1843.62	2.22676
1845.12	1.96171
1846.61	1.90305
1848.11	2.6649
1849.6	3.13053
1851.1	3.70049
1852.59	4.0896
1854.08	4.6649
1855.58	5.29324
1857.07	6.11396
1858.56	6.31365
1860.05	6.89036
1861.55	6.8189
1863.04	6.75702
1864.53	6.87393
1866.02	6.94431
1867.51	7.03528
1869	7.39851
1870.49	8.04969
1871.98	8.06234
1873.47	7.97527
1874.96	8.46407
1876.45	8.98819
1877.94	8.68976
1879.43	9.00524
1880.92	9.04027
1882.41	8.64407
1882.51	8.57365
1884	8.78318
1885.5	8.39562
1886.99	7.72071
1888.48	7.37083
1889.98	6.83479
1891.47	6.92943
1892.96	6.2197
1894.46	5.37343
1895.95	4.6024
1897.44	4.73914
1898.93	4.34403
1900.42	4.18072
1901.91	4.00184
1903.41	3.8551
1904.9	3.37981
1906.39	3.45432
1907.88	3.30755
1909.37	2.52772
1910.86	1.90933
1912.35	1.84348
1913.83	1.42318
1915.32	1.64326
1916.81	1.54142
1918.3	2.0885
1919.79	3.24543
1921.27	4.41736
1922.76	5.15667
1924.25	5.55817
1925.74	5.48796
1927.22	5.67398
1928.71	5.66566
1930.19	5.76651
1931.68	5.57929
1933.17	6.1297
1934.65	5.89195
1936.14	6.13908
1937.62	6.34514
1939.11	6.16279
1940.59	6.33448
1942.07	6.00349
1943.56	6.4301
1945.04	6.92399
1946.52	7.56712
1948.01	7.66264
1949.49	8.28882
1950.97	8.25931
1952.45	8.48196
1953.93	8.37511
1955.42	8.3078
1956.9	8.61259
1958.38	8.87877
1959.86	9.15813
1961.34	8.78777
1962.82	8.54742
1964.3	7.77127
1965.78	8.34564
1967.26	7.6792
1968.74	7.35196
1970.21	7.26823
1971.69	7.33537
1973.17	6.93677
1974.65	6.30345
1976.13	5.17799
1977.6	4.3305
1979.08	4.34427
1980.56	4.61527
1982.03	3.98105
1983.51	3.86331
1984.99	4.28692
1986.46	4.86111
1987.94	5.36654
1989.41	5.46237
1990.89	5.50413
1992.36	6.34644
1993.84	6.71425
1995.31	6.24247
1996.78	6.11786
1998.26	5.93059
1999.73	5.46702
2001.2	5.71973
2002.68	5.77863
2004.15	5.9649
2005.62	6.0601
2007.09	5.88694
2008.56	5.33921
2010.04	6.39393
2011.51	6.0606
2012.98	6.1646
2014.45	6.617
2015.92	6.99513
2017.39	7.72407
2018.86	8.23807
2020.33	8.2742
2021.8	8.30031
2023.26	8.9087
2024.73	8.62069
2026.2	8.66464
2027.67	9.30276
2029.14	9.77801
2030.61	10.2086
2032.07	10.2369
2033.54	10.0723
2035.01	9.65777
2036.47	10.6574
2037.94	10.8968
2039.4	11.5505
2040.87	11.2939
2042.33	11.1812
2043.8	11.3849
2045.27	11.8134
2046.73	11.4285
2048.19	10.9025
2049.66	11.7748
2051.12	12.3234
2052.59	13.104
2054.05	13.0789
2055.51	12.9689
2056.97	13.4987
2058.44	13.5812
2059.9	13.6504
2061.36	12.6382
2062.82	12.1228
2064.28	12.8005
2065.74	13.4507
2067.21	13.4592
2068.67	13.1624
2070.13	13.3546
2071.59	13.3276
2073.05	13.2714
2074.51	14.6739
2075.96	14.6202
2077.42	14.8508
2078.88	15.426
2080.34	15.4936
2081.8	16.4118
2083.26	17.2854
2084.72	16.934
2086.17	17.0728
2087.63	17.5412
2089.09	18.4777
2090.54	19.1862
2092	20.7519
2093.45	21.3243
2094.91	21.9371
2096.37	22.9632
2097.82	23.9771
2099.28	24.7348
2100.73	25.9734
2102.19	26.7182
2103.64	27.7856
2105.09	29.2004
2106.55	30.1776
2108	31.8512
2109.45	33.5405
2110.91	35.0014
2112.36	36.4552
2113.81	38.4303
2115.26	39.6518
2116.72	41.0567
2118.17	42.8599
2119.62	43.9167
2121.07	45.798
2122.52	48.2081
2123.97	48.7215
2125.42	49.3818
2126.87	51.0519
2128.32	52.5548
2129.77	54.6526
2131.22	55.8889
2132.67	57.5963
2134.11	59.0322
2135.56	61.7566
2137.01	64.083
2138.46	65.4775
2139.91	67.0876
2141.35	69.2777
2142.8	71.751
2144.25	73.9293
2145.7	76.3519
2147.14	78.3311
2148.59	79.437
2150.03	81.5411
2151.48	83.0137
2152.92	84.7531
2154.37	86.9256
2155.81	88.0063
2157.26	88.8884
2158.7	90.6216
2160.15	92.7776
2161.59	94.133
2163.03	95.5315
2164.47	96.5056
2165.92	96.9758
2167.36	97.1742
2168.8	97.3672
2170.24	96.658
2171.69	96.4308
2173.13	96.0952
2174.57	96.1704
2176.01	95.7741
2177.45	95.1289
2178.89	94.5244
2180.33	94.3181
2181.77	93.9034
2183.21	92.88
2184.65	91.7571
2186.09	90.8161
2187.53	90.03
2188.97	88.4305
2190.4	87.3605
2191.84	85.5787
2193.28	83.6414
2194.72	81.8824
2196.16	79.838
2197.59	78.6348
2199.03	78.0331
2200.47	75.9714
2201.9	74.5687
2203.34	72.0243
2204.77	70.1257
2206.21	68.5369
2207.64	67.5541
2209.08	66.0499
2210.51	64.4155
2211.95	63.1541
2213.38	61.5095
2214.82	59.638
2216.25	57.4744
2217.68	55.6572
2219.12	53.2886
2220.55	52.3039
2221.98	50.6996
2223.41	49.3797
2224.85	48.6033
2226.28	46.9851
2227.71	45.4778
2229.14	44.8591
2230.57	43.4451
2232	41.5165
2233.43	39.6684
2234.86	38.4366
2236.29	36.5285
2237.72	35.0921
2239.15	32.8003
2240.58	31.3768
2242.01	30.4772
2243.44	30.2834
2244.87	29.2389
2246.29	28.9362
2247.72	27.9796
2249.15	27.3103
2250.58	26.4419
2252.01	26.3568
2253.43	25.7303
2254.86	25.1343
2256.29	25.0484
2257.71	24.8205
2259.14	24.471
2260.56	23.4178
2261.99	23.3728
2263.41	22.9265
2264.84	22.2717
2266.26	22.5652
2267.69	22.3573
2269.11	22.0544
2270.53	22.0532
2271.96	20.8439
2273.38	20.5331
2274.8	19.396
2276.23	18.8235
2277.65	18.3949
2279.07	18.1256
2280.49	17.1227
2281.91	16.763
2283.34	16.1469
2284.76	15.8759
2286.18	15.4567
2287.6	14.7449
2289.02	13.6785
2290.44	12.9071
2291.86	12.1815
2293.28	11.1591
2294.7	10.6986
2296.12	10.2726
2297.54	10.2236
2298.96	9.79622
2300.37	9.39234
2301.79	8.52356
2303.21	8.65337
2304.63	8.99337
2306.04	9.19481
2307.46	9.0242
2308.88	8.78702
2310.3	8.38149
2311.71	9.16939
2313.13	9.66444
2314.54	8.98054
2315.96	8.66093
2317.37	8.36386
2318.79	8.32757
2320.2	8.23937
2321.62	7.8008
2323.03	8.75011
2324.45	8.69182
2325.86	8.73096
2327.27	9.12349
2328.69	9.29676
2330.1	9.25127
2331.51	9.45414
2332.92	8.63576
2334.34	8.71198
2335.75	8.71391
2337.16	8.44717
2338.57	7.36016
2339.98	7.33943
2341.39	6.90844
2342.8	5.60263
2344.21	4.80488
2345.63	4.02313
2347.04	3.67046
2348.45	2.87861
2349.85	3.26169
2351.26	3.33928
2352.67	3.91665
2354.08	3.25665
2355.49	2.77558
2356.9	1.807
2358.3	1.09186
2359.71	0.755362
2361.12	0.869065
2362.53	1.24664
2363.93	1.79735
2365.34	2.17383
2366.75	2.30142
2368.15	2.23044
2369.56	1.66713
2370.97	1.78423
2372.37	1.80893
2373.77	1.51047
2375.18	1.70683
2376.59	1.73279
2377.99	1.54892
2379.39	1.49192
2380.8	0.977085
2382.2	1.10895
2383.6	0.553467
2385.01	0.316791
2386.41	1.19925
2387.81	1.03125
2389.21	1.50223
2390.62	1.97176
2392.02	1.41738
2393.42	2.51668
2394.82	2.26499
2396.22	2.38404
2397.62	2.82452
2399.02	3.00252
2400.42	2.94297
2401.82	2.95835
2403.22	2.80408
2404.62	3.20136
2406.02	2.53587
2407.42	2.00833
2408.82	1.94524
2410.22	3.00112
2411.62	2.88347
2413.01	2.5072
2414.41	2.59321
2415.81	2.57014
2417.21	2.72717
2418.6	3.04857
2420	4.46926
2421.4	3.93718
2422.79	3.61325
2424.19	3.50918
2425.59	3.41533
2426.98	3.54359
2428.38	3.3289
2429.77	3.63399
2431.17	3.31745
2432.56	3.50804
2433.95	3.37076
2435.35	2.91376
2436.74	2.08861
2438.14	2.28174
2439.53	2.51133
2440.92	2.37432
2442.31	2.25962
2443.71	2.14657
2445.1	3.19704
2446.49	3.09123
2447.88	3.17601
2449.27	3.12185
2450.67	3.03287
2452.06	3.09048
2453.45	3.30171
2454.84	3.33372
2456.23	3.17377
2457.62	2.43783
2459.01	2.78331
2460.4	2.83931
2461.79	2.80379
2463.18	3.14713
2464.57	3.14843
2465.95	3.4471
2467.34	3.65525
2468.73	3.80742
2470.12	3.52206
2471.5	3.66151
2472.89	3.38212
2474.28	2.96559
2475.67	2.70604
2477.05	3.08301
2478.44	3.30056
2479.82	3.63353
2481.21	2.68572
2482.6	2.10424
2483.98	1.7507
2485.37	1.64803
2486.75	1.67004
2488.13	1.95992
2489.52	1.90424
2490.9	1.04917
2492.29	0.810068
2493.67	1.21236
2495.05	0.706504
2496.44	0.845844
2497.82	0.537746
2499.2	0.700681
2500.58	0.269478
2501.97	0.637326
2503.35	0.526394
2504.73	0.312326
2506.11	0.887594
2507.49	1.34846
2508.87	1.57434
2510.25	1.79199
2511.63	1.57119
2513.01	2.07282
2514.39	2.56737
2515.77	2.14949
2517.15	1.99904
2518.53	1.6547
2519.91	1.28454
2521.29	1.39804
2522.67	2.00032
2524.05	1.80572
2525.42	1.45092
2526.8	1.945
2528.18	2.93289
2529.55	2.9514
2530.93	3.14418
2532.31	2.34341
2533.69	2.50559
2535.06	1.89294
2536.44	1.7687
2537.81	1.52105
2539.19	1.61627
2540.56	1.29532
2541.94	1.48904
2543.31	0.664361
2544.69	1.00829
2546.06	1.74466
2547.44	1.63142
2548.81	1.41
2550.18	0.913472
2551.56	1.01542
2552.93	0.904603
2554.3	0.851604
2555.67	1.16301
2557.04	1.41453
2558.42	1.40565
2559.79	1.33834
2561.16	1.67565
2562.53	2.27179
2563.9	2.43719
2565.27	2.49019
2566.64	2.66547
2568.01	2.30597
2569.38	2.63388
2570.75	3.15221
2572.12	3.13372
2573.49	3.36063
2574.86	3.04296
2576.23	2.70775
2577.6	3.04898
2578.97	3.24816
2580.33	3.0222
2581.7	3.415
2583.07	3.3361
2584.44	3.48586
2585.8	3.58374
2587.17	4.29226
2588.54	4.68814
2589.9	5.21656
2591.27	5.25238
2592.64	5.12776
2594	5.52015
2595.37	6.00693
2596.73	6.03176
2598.1	5.2824
2599.46	5.06285
2600.83	4.97283
2602.19	4.84697
2603.55	4.58902
2604.92	5.38862
2606.28	5.68808
2607.64	5.75894
2609.01	5.58132
2610.37	5.49964
2611.73	5.03062
2613.09	5.88764
2614.46	5.37874
2615.82	4.85253
2617.18	4.46443
2618.54	4.31922
2619.9	4.47826
2621.26	4.48304
2622.62	5.00631
2623.98	5.33906
2625.34	4.90585
2626.7	5.12147
2628.06	4.79629
2629.42	4.98226
2630.78	4.75537
2632.14	4.94729
2633.5	4.44675
2634.86	3.94905
2636.21	3.22296
2637.57	3.64992
2638.93	3.39232
2640.29	3.48898
2641.64	3.05951
2643	2.96584
2644.36	3.3555
2645.71	3.82447
2647.07	3.6668
2648.43	3.3552
2649.78	3.36506
2651.14	3.90527
2652.49	3.61051
2653.85	3.83316
2655.2	4.51679
2656.56	4.21003
2657.91	4.22548
2659.26	4.44913
2660.62	4.63362
2661.97	4.65112
2663.32	4.38698
2664.68	4.21174
2666.03	4.01434
2667.38	4.09047
2668.74	4.32279
2670.09	4.24859
2671.44	4.86921
2672.79	5.16856
2674.14	4.82625
2675.49	4.44737
2676.84	4.77011
2678.19	5.08623
2679.54	5.68737
2680.89	5.51068
2682.24	5.56196
2683.59	6.01907
2684.94	6.38276
2686.29	6.675
2687.64	7.15198
2688.99	7.3391
2690.34	7.55431
2691.69	8.10176
2693.03	8.3694
2694.38	9.12788
2695.73	9.4686
2697.08	10.1103
2698.42	10.1384
2699.77	10.3608
2701.12	10.1717
2702.46	10.7229
2703.81	10.9147
2705.15	11.1146
2706.5	10.9438
2707.85	11.1674
2709.19	11.1567
2710.54	11.4696
2711.88	11.2348
2713.22	10.9354
2714.57	10.8342
2715.91	11.2624
2717.26	11.3466
2718.6	11.0642
2719.94	10.9366
2721.29	11.607
2722.63	11.8067
2723.97	11.1324
2725.31	11.5593
2726.66	11.2152
2728	11.0165
2729.34	10.4943
2730.68	10.6168
2732.02	10.0019
2733.36	10.2214
2734.7	10.9992
2736.04	11.0735
2737.38	10.6331
2738.72	10.802
2740.06	10.5666
2741.4	10.4588
2742.74	10.7659
2744.08	10.9639
2745.42	10.7085
2746.76	10.5201
2748.09	10.4833
2749.43	10.8177
2750.77	10.6662
2752.11	10.408
2753.45	10.1497
2754.78	10.5533
2756.12	10.4321
2757.46	10.5641
2758.79	10.5894
2760.13	9.56568
2761.46	9.38605
2762.8	9.32528
2764.14	8.74694
2765.47	8.16484
2766.8	7.63302
2768.14	6.6114
2769.47	5.86706
2770.81	4.8256
2772.14	4.39251
2773.48	4.75077
2774.81	4.12979
2776.14	3.48783
2777.48	2.60271
2778.81	2.41901
2780.14	2.0865
2781.47	1.82792
2782.8	1.58462
2784.14	0.935275
2785.47	0.922618
2786.8	0.987373
2788.13	0.844298
2789.46	0.396264
2790.79	-0.846245
2792.12	-0.720515
2793.45	-0.964454
2794.78	-0.664846
2796.11	-1.14126
2797.44	-1.29088
2798.77	-1.0809
2800.1	-0.492768
2801.43	-0.301388
2802.76	-0.628885
2804.09	-1.15123
2805.41	-0.677334
2806.74	-1.05602
2808.07	-0.581954
2809.4	-0.323866
2810.72	-0.547463
2812.05	0.179461
2813.38	0.821904
2814.71	1.24259
2816.03	2.47433
2817.36	3.20208
2818.68	4.19483
2820.01	5.59897
2821.33	7.28343
2822.66	8.9663
2823.98	10.922
2825.31	12.2476
2826.63	14.0066
2827.96	16.2507
2829.28	17.9871
2830.6	19.4969
2831.93	21.1637
2833.25	23.2249
2834.57	25.7209
2835.9	28.6855
2837.22	31.2129
2838.54	33.3282
2839.86	36.0419
2841.18	38.3844
2842.5	42.1385
2843.83	45.8007
2845.15	49.5984
2846.47	53.5314
2847.79	57.8086
2849.11	62.0968
2850.43	66.8262
2851.75	71.9837
2853.07	76.4617
2854.39	81.2429
2855.71	85.4066
2857.03	89.9308
2858.35	94.7903
2859.66	99.4483
2860.98	104.432
2862.3	108.472
2863.62	112.929
2864.94	117.328
2866.25	120.078
2867.57	122.956
2868.89	126.158
2870.2	128.46
2871.52	132.094
2872.84	135.342
2874.15	138.58
2875.47	140.626
2876.78	143.299
2878.1	146.255
2879.41	148.672
2880.73	152.055
2882.04	155.422
2883.36	157.679
2884.67	160.671
2885.99	163.312
2887.3	166.012
2888.61	168.643
2889.93	171.588
2891.24	175.022
2892.55	178.222
2893.86	180.944
2895.18	183.544
2896.49	186.86
2897.8	190.996
2899.11	194.78
2900.42	199.615
2901.73	203.317
2903.05	208.349
2904.36	213.363
2905.67	219.608
2906.98	225.944
2908.29	231.969
2909.6	238.366
2910.91	245.346
2912.21	252.357
2913.52	258.917
2914.83	265.599
2916.14	272.615
2917.45	278.588
2918.76	284.181
2920.07	289.277
2921.37	294.006
2922.68	298.621
2923.99	302.78
2925.29	306.716
2926.6	309.407
2927.91	311.186
2929.22	312.92
2930.52	313.148
2931.83	313.359
2933.13	313.03
2934.44	312.232
2935.74	310.451
2937.05	308.579
2938.35	306.403
2939.66	303.445
2940.96	299.325
2942.26	295.778
2943.57	291.587
2944.87	287.161
2946.18	282.28
2947.48	276.53
2948.78	271.304
2950.08	265.557
2951.39	259.209
2952.69	252.843
2953.99	247.016
2955.29	241.294
2956.59	234.58
2957.9	227.365
2959.2	220.73
2960.5	214.162
2961.8	208.039
2963.1	202.037
2964.4	195.372
2965.7	190.013
2967	183.142
2968.3	178.101
2969.6	171.876
2970.9	166.605
2972.19	161.414
2973.49	155.888
2974.79	150.854
2976.09	145.953
2977.39	140.955
2978.68	135.985
2979.98	130.571
2981.28	125.257
2982.58	120.033
2983.87	115.296
2985.17	110.379
2986.47	105.478
2987.76	100.366
2989.06	95.7836
2990.35	90.9202
2991.65	86.4675
2992.94	82.1114
2994.24	77.5361
2995.53	72.779
2996.83	68.7146
2998.12	64.1139
2999.42	59.6594
3000.71	55.46
3002	52.3723
3003.3	48.5936
3004.59	44.4288
3005.88	40.5375
3007.18	37.4948
3008.47	34.6655
3009.76	31.6665
3011.05	28.7456
3012.34	26.153
3013.64	23.7785
3014.93	20.8654
3016.22	18.9864
3017.51	17.8204
3018.8	16.3654
3020.09	15.2796
3021.38	13.6186
3022.67	12.7602
3023.96	11.8518
3025.25	10.4874
3026.54	9.55556
3027.83	9.33177
3029.12	8.73849
3030.41	8.65501
3031.69	8.34803
3032.98	8.43769
3034.27	8.25794
3035.56	8.22054
3036.84	8.75678
3038.13	9.00301
3039.42	9.68458
3040.71	10.2913
3041.99	10.4642
3043.28	10.1591
3044.57	10.1884
3045.85	11.3285
3047.14	11.9011
3048.42	12.5109
3049.71	12.8398
3050.99	12.9761
3052.28	13.6601
3053.56	14.3719
3054.85	14.5522
3056.13	14.4865
3057.41	14.3619
3058.7	14.5016
3059.98	14.0044
3061.26	13.6256
3062.55	12.921
3063.83	12.3597
3065.11	12.4697
3066.39	12.305
3067.68	11.2686
3068.96	10.892
3070.24	10.3205
3071.52	9.78058
3072.8	9.06219
3074.08	7.73485
3075.36	6.95941
3076.65	6.51881
3077.93	5.94375
3079.21	5.74536
3080.49	5.60279
3081.77	4.84409
3083.04	3.5761
3084.32	3.20181
3085.6	2.07473
3086.88	1.3329
3088.16	0.468074
3089.44	-0.146851
3090.72	-0.412473
3091.99	-0.147566
3093.27	-0.451486
3094.55	-0.728302
3095.83	-0.790386
3097.1	-0.811756
3098.38	-0.0373812
3099.66	-0.0375269
3100.93	0.255677
3102.21	0.337955
3103.49	0.826596
3104.76	1.20925
3106.04	1.84966
3107.31	2.24572
3108.59	3.17219
3109.86	3.7894
3111.14	4.04132
3112.41	4.93299
3113.69	5.56268
3114.96	5.88039
3116.23	6.96481
3117.51	7.35489
3118.78	7.76145
3120.05	8.26661
3121.33	9.20912
3122.6	9.99749
3123.87	10.5757
3125.14	11.4984
3126.41	12.1808
3127.69	13.2106
3128.96	14.0972
3130.23	14.4034
3131.5	14.8198
3132.77	15.1764
3134.04	15.8799
3135.31	16.6048
3136.58	16.637
3137.85	17.1322
3139.12	17.8521
3140.39	18.3313
3141.66	18.363
3142.93	18.5202
3144.2	18.5548
3145.47	18.8396
3146.74	19.4351
3148	20.2882
3149.27	21.9614
