#Acq. time (s)=	45
#Accumulations=	2
#Range (cm-¹)=	200...3150
#Windows=	2
#Auto scanning=	Off
#Autofocus=	Off
#Macrospot=	Off
#AutoExposure=	Off
#Spike filter=	Multiple accum.
#Delay time (s)=	0
#Binning=	1
#Readout mode=	Signal
#DeNoise=	Off
#ICS correction=	On
#Dark correction=	Off
#Inst. Process=	Off
#Detector Gain=	Best Dynamic Range
#Detector ADC=	20 kHz       
#Detector temperature (°C)=	-69.62
#Instrument=	LabRAM HR Evol
#Detector=	Synapse
#Objective=	x100
#Grating=	600 gr/mm
#ND Filter=	100%
#Laser (nm)=	532 
#Hole=	100.021
#Range=	Auto
#Laser Pol.=	No
#Raman. Pol.=	No
#Laser Pol. (°)=	-0.0007625
#Raman Pol. (°)=	89.9995
#Collection=	Microscope
#StageXY=	Marzhauser
#StageZ=	Marzhauser
#X (µm)=	-6421.9
#Y (µm)=	856.8
#Z (µm)=	-64.95
#Full time(mm:ss)=	3:18
#Project=	
#Sample=	
#Site=	
#Title=	Mb_30_27_15_2x_45s_532 nm_x100_100%_600 gr_mm
#Remark=	
#Date=	13.07.2022 09:45
#Acquired=	13.07.2022 09:45:48
#Base:Fit=	10.08.2022 10:40:03
#Base:Sub=	10.08.2022 10:40:17
#Filter:Polynom=	16.08.2022 10:16:15
#AxisType[0]=Intens
#AxisUnit[0]=Cnt
#AxisType[1]=Spectr
#AxisUnit[1]=1/cm
200.563	12.1313
202.377	10.154
204.194	10.3916
206.008	9.5561
207.821	9.28431
209.634	9.61702
211.449	10.2059
213.262	10.9881
215.074	11.1104
216.885	12.2299
218.699	11.4435
220.51	12.5366
222.321	12.7563
224.131	13.4404
225.941	12.6672
227.751	12.7872
229.562	12.6478
231.371	12.1825
233.18	11.9236
234.988	12.0992
236.796	12.0631
238.603	11.6853
240.411	11.2034
242.219	10.7901
244.026	10.9225
245.832	10.5555
247.638	9.65945
249.443	8.82868
251.248	8.05823
253.053	7.5082
254.857	7.44956
256.661	7.91577
258.465	8.6246
260.268	8.58728
262.071	9.01385
263.874	8.63525
265.678	7.87703
267.48	5.67852
269.282	4.76091
271.083	4.75634
272.884	5.29754
274.684	5.72387
276.484	6.21733
278.284	5.9688
280.084	7.20881
281.883	7.26654
283.682	7.42988
285.48	8.03473
287.276	7.97091
289.074	7.77645
290.871	9.30651
292.668	9.33365
294.465	8.45054
296.261	9.2747
298.057	9.54979
299.853	10.0473
301.648	10.6134
303.443	10.6321
305.237	11.3079
307.032	11.8128
308.823	11.5398
310.617	12.2501
312.41	11.9762
314.203	13.0167
315.995	11.8475
317.788	11.9822
319.579	12.2735
321.369	12.0451
323.16	12.4728
324.951	12.4158
326.741	12.0301
328.531	12.0569
330.321	12.288
332.108	11.7088
333.897	10.9903
335.686	9.65821
337.474	8.82257
339.26	9.14193
341.048	9.707
342.835	9.80276
344.622	8.96329
346.406	7.92617
348.192	7.33021
349.978	6.74317
351.764	6.99366
353.547	6.83109
355.332	5.98309
357.116	5.66704
358.901	6.88615
360.682	8.01479
362.466	9.0253
364.249	8.0165
366.03	7.52367
367.812	7.98239
369.594	8.30162
371.374	7.48085
373.155	6.39068
374.936	7.02833
376.715	6.93326
378.495	6.54361
380.273	6.94465
382.053	7.23704
383.832	7.51564
385.609	8.14576
387.388	8.46308
389.164	9.50394
390.942	9.83229
392.72	9.09903
394.495	10.1256
396.272	9.75428
398.047	9.76283
399.823	9.95412
401.597	10.0868
403.372	10.7606
405.145	10.5516
406.92	11.2699
408.693	12.3487
410.467	12.2231
412.239	13.0215
414.012	11.6743
415.783	11.3875
417.556	11.5536
419.327	10.9603
421.099	9.67471
422.869	9.2732
424.64	9.3559
426.409	9.24046
428.18	9.67452
429.948	9.61702
431.718	8.01374
433.486	6.65547
435.253	5.91091
437.022	6.20772
438.789	5.83071
440.558	5.87867
442.324	5.36921
444.089	4.61059
445.857	5.00729
447.622	5.52788
449.386	6.07457
451.153	5.11681
452.917	4.68914
454.682	4.9345
456.446	4.25911
458.208	4.25566
459.973	4.22504
461.735	4.63634
463.497	5.95386
465.259	6.03782
467.022	6.39041
468.783	6.4394
470.544	8.06958
472.306	8.12093
474.066	8.37309
475.825	10.0331
477.585	11.38
479.346	12.1536
481.104	13.0562
482.862	14.4691
484.62	15.7148
486.38	17.0504
488.137	18.0227
489.894	19.3609
491.65	21.055
493.407	21.5158
495.164	22.3345
496.92	23.3728
498.675	23.9061
500.43	24.5552
502.184	24.1538
503.939	25.6917
505.694	26.1752
507.448	26.0893
509.201	25.7541
510.954	26.1947
512.706	26.1376
514.459	25.9221
516.21	26.6683
517.962	27.2795
519.715	26.2331
521.466	26.4066
523.216	26.0415
524.966	26.8646
526.716	26.6292
528.466	26.4997
530.215	26.6676
531.964	26.0629
533.712	26.5366
535.46	25.5758
537.208	24.1252
538.955	22.7331
540.703	22.3667
542.449	20.2438
544.196	19.6233
545.942	19.7695
547.688	18.4095
549.433	17.9845
551.178	18.4273
552.923	17.0463
554.667	17.0092
556.412	16.466
558.155	17.5874
559.899	17.2767
561.642	17.4635
563.385	17.6229
565.127	16.5587
566.867	16.0323
568.609	16.7081
570.35	15.884
572.092	16.5644
573.832	15.4764
575.573	15.0018
577.313	15.4995
579.053	14.7908
580.79	14.7608
582.529	15.4439
584.268	14.7929
586.006	14.9318
587.745	14.1897
589.482	13.7676
591.218	13.7561
592.955	12.7214
594.692	12.6618
596.428	11.8124
598.164	12.2432
599.898	12.2254
601.634	13.1556
603.369	14.2024
605.104	13.9188
606.836	12.5806
608.57	12.6721
610.304	12.4516
612.037	12.7993
613.769	13.1012
615.501	11.7442
617.234	11.1021
618.966	9.9078
620.696	9.63913
622.427	9.03664
624.159	7.69246
625.887	7.37727
627.618	6.5244
629.348	6.22396
631.076	6.92687
632.806	7.33625
634.535	6.90917
636.262	8.05052
637.99	9.45106
639.716	8.71084
641.444	9.40254
643.172	10.1111
644.897	10.5006
646.624	9.38744
648.348	10.1345
650.075	9.60854
651.801	8.9174
653.524	9.83762
655.249	10.6807
656.972	10.1879
658.697	11.0004
660.419	11.2018
662.143	11.5184
663.865	11.3938
665.588	12.0031
667.309	12.7118
669.032	14.0899
670.752	15.0676
672.474	16.4084
674.194	16.551
675.915	17.6235
677.634	18.0398
679.355	18.2817
681.073	19.7048
682.793	21.0189
684.511	22.168
686.23	22.9357
687.947	23.854
689.664	23.5944
691.382	23.4852
693.098	23.497
694.816	24.2608
696.531	24.7414
698.247	24.8116
699.963	26.1037
701.678	24.8631
703.392	26.8459
705.108	28.3135
706.821	29.1492
708.534	30.3005
710.249	31.7765
711.962	33.6076
713.674	33.9087
715.388	35.6725
717.099	36.2583
718.81	36.7248
720.523	36.6569
722.234	37.8551
723.944	37.501
725.654	37.5304
727.365	37.7216
729.075	38.695
730.784	38.2645
732.492	38.4559
734.202	39.9231
735.91	38.4626
737.618	38.9195
739.325	40.9742
741.034	41.8787
742.741	43.0981
744.447	44.8647
746.153	46.4086
747.859	47.5469
749.564	48.9947
751.271	51.2612
752.976	52.996
754.681	54.738
756.385	56.2875
758.088	57.9827
759.792	58.5812
761.495	60.6988
763.2	61.6285
764.902	63.0996
766.604	64.419
768.306	65.7657
770.008	66.0749
771.709	68.7125
773.41	69.7164
775.11	70.2759
776.811	71.8365
778.51	73.106
780.21	74.6947
781.909	75.7836
783.608	76.1776
785.307	77.7261
787.005	79.3373
788.703	81.0987
790.401	81.7513
792.098	83.5369
793.795	84.9918
795.492	86.211
797.188	86.0779
798.884	86.6133
800.58	87.1991
802.276	87.417
803.971	87.3838
805.665	87.94
807.36	88.527
809.054	88.6462
810.748	88.6254
812.441	88.1174
814.135	88.0823
815.826	86.1375
817.518	85.5622
819.21	85.5774
820.902	84.8103
822.594	85.3446
824.285	85.8044
825.976	85.4665
827.665	84.3727
829.355	84.0817
831.045	82.7638
832.735	82.3198
834.424	80.8892
836.111	80.2763
837.8	80.2237
839.488	78.4599
841.177	77.2751
842.864	76.7088
844.55	75.3007
846.237	75.1536
847.924	73.9525
849.61	72.8435
851.295	71.8612
852.98	70.6181
854.666	69.3205
856.349	68.9635
858.034	66.9667
859.719	66.6873
861.403	65.9011
863.085	65.3922
864.769	64.4888
866.452	63.6774
868.133	63.5342
869.816	64.1247
871.498	63.9782
873.179	63.442
874.86	63.8781
876.54	64.2303
878.221	63.6992
879.902	64.1242
881.58	63.5711
883.26	63.4882
884.938	62.7728
886.618	62.314
888.297	60.7492
889.974	60.5266
891.653	60.595
893.329	60.027
895.007	59.0568
896.683	57.6048
898.36	56.4037
900.035	55.1625
901.712	55.1159
903.387	54.7975
905.063	54.8131
906.737	54.2546
908.412	53.9847
910.085	53.8475
911.76	52.6021
913.433	52.8647
915.107	52.7604
916.779	53.0239
918.452	52.2623
920.124	51.7374
921.797	52.1494
923.467	51.1313
925.138	51.0465
926.81	51.8205
928.48	50.9164
930.151	50.0233
931.82	48.6301
933.489	47.0353
935.16	46.8131
936.828	46.11
938.496	46.1863
940.165	46.1182
941.833	45.6323
943.5	45.0839
945.168	43.856
946.834	43.3543
948.5	42.9319
950.168	42.9422
951.834	42.4791
953.499	42.8515
955.163	42.7592
956.83	42.7325
958.494	42.483
960.158	41.7402
961.821	40.6379
963.487	40.5011
965.15	40.446
966.812	40.1574
968.474	39.8753
970.138	40.1693
971.8	40.723
973.461	41.4241
975.123	41.659
976.783	40.7465
978.446	41.0023
980.106	40.2653
981.766	41.0122
983.425	40.5662
985.084	40.7169
986.743	41.3581
988.402	41.9731
990.06	41.302
991.72	41.1452
993.378	41.282
995.035	40.5484
996.692	40.6771
998.349	40.0699
1000.01	38.1283
1001.66	37.326
1003.32	36.4729
1004.97	37.443
1006.63	37.6312
1008.28	38.1724
1009.94	39.7307
1011.59	41.0783
1013.25	43.8937
1014.9	46.0285
1016.55	48.5764
1018.21	52.5411
1019.86	54.9436
1021.51	57.4922
1023.16	59.2908
1024.81	61.1788
1026.47	63.0456
1028.12	64.2798
1029.77	65.6828
1031.42	67.334
1033.07	68.4276
1034.72	69.6021
1036.37	70.4111
1038.02	70.3614
1039.67	71.1232
1041.31	71.8969
1042.96	71.8614
1044.61	72.5313
1046.26	73.8373
1047.91	73.135
1049.55	71.8503
1051.2	72.0974
1052.84	70.9868
1054.49	69.4967
1056.14	68.9159
1057.78	67.2659
1059.43	64.6233
1061.07	62.7019
1062.72	60.9609
1064.36	58.4208
1066	55.7998
1067.65	53.2961
1069.29	50.3736
1070.93	47.1727
1072.58	44.1037
1074.22	42.0351
1075.86	39.4061
1077.5	36.7787
1079.14	34.7436
1080.78	32.8883
1082.42	31.9472
1084.06	30.8604
1085.7	29.8063
1087.34	30.4888
1088.98	30.9426
1090.62	30.8744
1092.26	31.4951
1093.9	31.4085
1095.54	31.5301
1097.17	30.5303
1098.81	31.0277
1100.45	30.9861
1102.09	29.8996
1103.72	29.5069
1105.36	28.9194
1106.99	28.4855
1108.63	27.8196
1110.27	27.4861
1111.9	27.7291
1113.53	27.5287
1115.17	28.0181
1116.8	27.8598
1118.43	26.8049
1120.07	27.2589
1121.7	27.4124
1123.33	27.0494
1124.97	26.5242
1126.6	25.7873
1128.23	25.6681
1129.86	24.8724
1131.49	24.9622
1133.12	24.9279
1134.75	23.776
1136.38	23.9688
1138.01	23.6023
1139.64	21.4089
1141.27	20.9555
1142.9	20.957
1144.53	21.6001
1146.16	19.3531
1147.78	18.9389
1149.41	18.0092
1151.04	17.9885
1152.67	16.9491
1154.29	16.3062
1155.92	15.5549
1157.54	13.906
1159.17	13.0558
1160.8	11.7295
1162.42	10.6409
1164.05	8.73303
1165.67	6.46883
1167.29	7.0681
1168.92	7.03132
1170.54	5.26828
1172.16	3.9171
1173.79	2.77225
1175.41	2.46069
1177.03	2.73424
1178.65	3.443
1180.28	4.06284
1181.9	4.32382
1183.52	4.20988
1185.14	4.03478
1186.76	4.54798
1188.38	5.30635
1190	6.28753
1191.62	6.68374
1193.24	7.15824
1194.86	7.35928
1196.47	8.27736
1198.09	8.07518
1199.71	9.02373
1201.33	10.2012
1202.95	10.5299
1204.56	12.3578
1206.18	14.441
1207.8	16.0013
1209.41	18.3202
1211.03	19.7227
1212.64	20.9614
1214.26	22.5694
1215.87	24.9535
1217.49	27.5987
1219.1	28.6442
1220.71	30.6667
1222.33	33.5417
1223.94	35.1271
1225.55	36.8562
1227.16	38.2917
1228.78	40.8687
1230.39	42.3525
1232	43.4258
1233.61	43.7989
1235.22	45.4422
1236.83	46.7175
1238.44	47.81
1240.05	49.3849
1241.66	50.9898
1243.27	53.2647
1244.88	55.4396
1246.49	57.2094
1248.1	58.8009
1249.71	59.3737
1251.32	60.8531
1252.92	63.1887
1254.53	64.5543
1256.14	66.5573
1257.74	67.9667
1259.35	69.486
1260.96	70.3903
1262.56	71.0151
1264.17	72.3826
1265.77	73.8619
1267.38	75.1864
1268.98	76.3189
1270.59	77.1395
1272.19	78.1744
1273.79	78.9816
1275.4	80.2322
1277	81.5937
1278.6	82.6091
1280.21	84.3399
1281.81	85.6546
1283.41	87.4233
1285.01	88.8868
1286.61	89.671
1288.21	89.625
1289.81	91.0428
1291.41	90.9439
1293.01	91.6669
1294.61	92.4654
1296.21	93.2114
1297.81	92.3413
1299.41	91.8387
1301.01	92.1307
1302.6	91.9141
1304.2	90.9631
1305.8	91.3351
1307.4	91.7024
1308.99	91.2708
1310.59	90.5577
1312.19	89.6397
1313.78	88.8
1315.38	88.8263
1316.97	87.628
1318.57	87.4418
1320.16	87.3078
1321.76	86.9091
1323.35	85.9118
1324.94	84.785
1326.54	82.5173
1328.13	81.098
1329.72	80.749
1331.32	80.0827
1332.91	78.759
1334.5	78.0912
1336.09	77.1573
1337.68	76.2404
1339.27	74.8223
1340.87	73.7986
1342.45	72.728
1344.04	72.4899
1345.64	70.6663
1347.22	69.5748
1348.81	69.4852
1350.4	68.6015
1351.99	67.555
1353.58	66.4073
1355.17	65.937
1356.75	64.6993
1358.34	63.7164
1359.93	62.6143
1361.51	61.4358
1363.1	59.1123
1364.69	56.6198
1366.27	55.4743
1367.86	54.312
1369.44	53.3455
1371.03	51.7399
1372.61	50.8084
1374.2	49.2354
1375.78	48.074
1377.37	46.7245
1378.95	46.7339
1380.53	46.3927
1382.11	46.0363
1383.7	45.351
1385.28	45.66
1386.86	44.3933
1388.44	43.7047
1390.02	42.8111
1391.6	42.351
1393.19	42.3058
1394.77	42.7801
1396.35	42.222
1397.93	42.0675
1399.51	41.4066
1401.08	41.4414
1402.66	41.475
1404.24	42.2666
1405.82	42.8203
1407.4	43.9669
1408.97	45.1507
1410.55	46.3798
1412.13	47.8606
1413.71	49.9351
1415.28	50.8728
1416.86	51.8758
1418.43	54.1203
1420.01	57.1148
1421.59	59.9753
1423.16	63.0956
1424.73	66.2979
1426.31	69.3183
1427.88	72.4934
1429.46	75.2294
1431.03	77.9564
1432.6	81.2378
1434.18	83.6055
1435.75	86.3004
1437.32	88.564
1438.89	90.6137
1440.46	92.574
1442.04	94.1987
1443.61	96.0878
1445.18	97.3012
1446.75	98.6478
1448.32	99.8534
1449.89	100.697
1451.46	100.79
1453.03	100.764
1454.6	100.018
1456.16	99.5876
1457.73	98.7605
1459.3	97.47
1460.87	96.1342
1462.44	93.7762
1464	91.9756
1465.57	89.56
1467.14	87.9492
1468.7	85.8864
1470.27	83.9762
1471.83	81.6025
1473.4	79.0552
1474.96	76.0831
1476.53	73.3504
1478.09	70.687
1479.66	67.9762
1481.22	65.1798
1482.78	62.4757
1484.35	59.8752
1485.91	56.7798
1487.47	54.5951
1489.04	52.6833
1490.6	50.5633
1492.16	48.6912
1493.72	45.7277
1495.28	43.2013
1496.84	42.3699
1498.4	41.2013
1499.96	39.4109
1501.52	37.6696
1503.08	36.7175
1504.64	34.4055
1506.2	33.3473
1507.76	32.4592
1509.32	31.9701
1510.88	31.6755
1512.44	30.4967
1513.99	29.9026
1515.55	29.2463
1517.11	28.9556
1518.66	28.1607
1520.22	27.9541
1521.78	26.8445
1523.33	26.1704
1524.89	26.4486
1526.44	25.9974
1528	25.8383
1529.55	25.554
1531.11	25.9113
1532.66	25.2499
1534.21	25.9928
1535.77	25.8129
1537.32	26.5856
1538.87	27.2286
1540.43	27.4971
1541.98	28.5782
1543.53	29.8406
1545.08	30.8826
1546.63	32.3387
1548.18	33.5698
1549.74	34.5226
1551.29	35.4481
1552.84	36.492
1554.39	36.9011
1555.94	37.5004
1557.48	37.9779
1559.03	39.114
1560.58	39.3157
1562.13	40.8372
1563.68	41.2272
1565.23	42.6206
1566.78	43.3414
1568.32	44.0576
1569.87	44.1205
1571.42	43.8724
1572.96	44.4487
1574.51	45.2193
1576.05	46.1506
1577.6	47.4326
1579.14	48.5528
1580.69	50.4926
1582.24	51.3038
1583.78	53.197
1585.32	54.6843
1586.87	56.1707
1588.41	56.8444
1589.95	57.5113
1591.5	58.7585
1593.04	60.4815
1594.58	60.7888
1596.12	61.8352
1597.67	62.8397
1599.21	63.4354
1600.75	63.828
1602.29	64.2623
1603.83	64.8804
1605.37	65.5804
1606.91	65.8503
1608.45	66.0338
1609.99	66.1888
1611.53	67.6421
1613.07	68.669
1614.6	70.531
1616.14	71.0425
1617.68	71.6591
1619.22	73.4161
1620.75	73.9057
1622.29	74.5746
1623.83	76.0965
1625.37	77.0025
1626.9	78.6333
1628.44	81.4632
1629.97	83.4288
1631.51	85.3376
1633.04	86.7635
1634.58	88.5827
1636.11	90.1733
1637.65	92.3682
1639.18	95.0472
1640.72	96.3235
1642.25	99.039
1643.78	101.004
1645.31	102.956
1646.85	104.526
1648.38	105.726
1649.91	107.247
1651.44	109.224
1652.97	111.048
1654.5	111.702
1656.03	112.514
1657.56	113.834
1659.1	113.986
1660.62	113.217
1662.15	112.578
1663.68	111.844
1665.21	110.503
1666.74	108.995
1668.27	107.772
1669.8	104.924
1671.32	102.025
1672.85	99.682
1674.38	96.5552
1675.91	93.7142
1677.43	90.1988
1678.96	86.8799
1680.49	83.9652
1682.01	80.1902
1683.54	77.325
1685.06	73.4483
1686.59	70.2353
1688.11	66.963
1689.64	63.8552
1691.16	60.4956
1692.68	55.8691
1694.21	52.8721
1695.73	49.322
1697.25	45.6217
1698.78	43.4517
1700.3	40.886
1701.82	39.0835
1703.34	37.2081
1704.86	35.0104
1706.39	32.5126
1707.91	30.2391
1709.43	28.0822
1710.95	27.3018
1712.47	25.8036
1713.99	24.8934
1715.51	23.6628
1717.02	23.0052
1718.54	22.2237
1720.06	21.1366
1721.58	20.1807
1723.1	19.5622
1724.62	19.0023
1726.13	18.6859
1727.65	18.6895
1729.17	17.9193
1730.68	17.6996
1732.2	18.0211
1733.72	17.2019
1735.23	16.2465
1736.75	15.7336
1738.26	16.1042
1739.78	15.6031
1741.29	14.9572
1742.81	14.6057
1744.32	14.7218
1745.84	13.9036
1747.35	14.6116
1748.86	14.6778
1750.37	14.7868
1751.89	14.1777
1753.4	13.9121
1754.91	13.8745
1756.42	14.0854
1757.93	13.1154
1759.45	12.451
1760.96	11.5857
1762.47	11.2118
1763.98	10.8209
1765.49	10.3907
1767	9.49996
1768.51	8.69283
1770.02	8.67286
1771.53	8.10279
1773.03	8.14784
1774.54	7.65595
1776.05	7.04674
1777.56	7.572
1779.07	6.87926
1780.57	6.16851
1782.08	6.43303
1783.59	5.88969
1785.09	6.33302
1786.6	6.11606
1788.11	5.99746
1789.61	5.97171
1791.12	6.20112
1792.62	6.44741
1794.13	5.86246
1795.63	5.79235
1797.13	5.50108
1798.64	6.00828
1800.14	5.52589
1801.65	5.5034
1803.15	5.78712
1804.65	5.59686
1806.15	5.30582
1807.66	4.89488
1809.16	4.51451
1810.66	4.56827
1812.16	4.68535
1813.66	4.36804
1815.16	4.03594
1816.66	3.69628
1818.16	3.71692
1819.66	3.92263
1821.16	4.25069
1822.66	4.15243
1824.16	3.48234
1825.66	2.81973
1827.16	2.43597
1828.66	2.44319
1830.16	2.67521
1831.65	2.44888
1833.15	2.01805
1834.65	1.97115
1836.14	2.13147
1837.64	1.98174
1839.14	2.24136
1840.63	2.0355
1842.13	1.71491
1843.62	1.83332
1845.12	1.77671
1846.61	1.71599
1848.11	1.23476
1849.6	0.979182
1851.1	1.63092
1852.59	2.54387
1854.08	2.6731
1855.58	2.55968
1857.07	3.66151
1858.56	4.08653
1860.05	4.43201
1861.55	4.51945
1863.04	4.64831
1864.53	4.29296
1866.02	4.12997
1867.51	3.75574
1869	3.72984
1870.49	3.49943
1871.98	3.35387
1873.47	3.00457
1874.96	2.95702
1876.45	2.92818
1877.94	2.96326
1879.43	2.39282
1880.92	2.23514
1882.41	2.54863
1882.51	2.50483
1884	2.5271
1885.5	2.38295
1886.99	2.48749
1888.48	2.2418
1889.98	2.46542
1891.47	2.27467
1892.96	2.80141
1894.46	2.37238
1895.95	1.9034
1897.44	1.87874
1898.93	2.2993
1900.42	2.0254
1901.91	2.3338
1903.41	2.51665
1904.9	2.05253
1906.39	1.93954
1907.88	2.01525
1909.37	2.04656
1910.86	2.23657
1912.35	2.36169
1913.83	2.34696
1915.32	2.32205
1916.81	2.72936
1918.3	3.48306
1919.79	4.00175
1921.27	4.59113
1922.76	5.449
1924.25	6.63291
1925.74	6.763
1927.22	5.88897
1928.71	5.76641
1930.19	6.07466
1931.68	5.39745
1933.17	5.28368
1934.65	4.9992
1936.14	4.68665
1937.62	3.7209
1939.11	3.49676
1940.59	3.6636
1942.07	3.64498
1943.56	3.15442
1945.04	2.90847
1946.52	2.54446
1948.01	3.16478
1949.49	3.46596
1950.97	3.23962
1952.45	2.64465
1953.93	2.87889
1955.42	3.07761
1956.9	2.58944
1958.38	2.33265
1959.86	2.46801
1961.34	2.2968
1962.82	2.01829
1964.3	2.19014
1965.78	1.59407
1967.26	1.87366
1968.74	1.76579
1970.21	1.7
1971.69	1.41661
1973.17	1.28346
1974.65	1.20384
1976.13	1.2253
1977.6	1.7461
1979.08	2.40214
1980.56	2.84263
1982.03	3.21132
1983.51	3.02512
1984.99	3.25134
1986.46	3.22255
1987.94	3.76966
1989.41	3.93833
1990.89	5.22783
1992.36	6.10429
1993.84	6.23017
1995.31	6.22124
1996.78	6.35181
1998.26	6.04984
1999.73	5.62832
2001.2	5.75052
2002.68	6.1108
2004.15	5.6855
2005.62	5.55536
2007.09	6.11057
2008.56	5.51557
2010.04	5.93472
2011.51	6.33087
2012.98	7.27906
2014.45	7.33374
2015.92	6.57761
2017.39	6.34214
2018.86	6.47635
2020.33	6.3272
2021.8	6.71581
2023.26	6.89708
2024.73	5.60381
2026.2	5.79734
2027.67	6.13354
2029.14	6.17178
2030.61	5.78423
2032.07	5.5503
2033.54	6.06228
2035.01	6.00899
2036.47	5.9099
2037.94	6.08471
2039.4	5.46291
2040.87	5.67958
2042.33	6.07941
2043.8	5.63158
2045.27	5.55508
2046.73	6.3297
2048.19	6.85047
2049.66	6.56231
2051.12	7.17722
2052.59	6.24633
2054.05	6.13029
2055.51	6.02588
2056.97	6.27513
2058.44	6.72928
2059.9	7.70395
2061.36	8.51231
2062.82	8.36391
2064.28	8.65319
2065.74	8.90574
2067.21	8.38001
2068.67	8.55252
2070.13	8.99993
2071.59	9.41431
2073.05	10.0405
2074.51	10.4973
2075.96	10.4555
2077.42	10.944
2078.88	11.6812
2080.34	12.1399
2081.8	12.8723
2083.26	13.9672
2084.72	14.6583
2086.17	14.5051
2087.63	15.0541
2089.09	15.4275
2090.54	16.1855
2092	16.9121
2093.45	17.0803
2094.91	17.9171
2096.37	18.1412
2097.82	18.3859
2099.28	19.1992
2100.73	19.6793
2102.19	19.9383
2103.64	20.7263
2105.09	21.4175
2106.55	22.4952
2108	23.3168
2109.45	23.8032
2110.91	24.9649
2112.36	25.2506
2113.81	25.9183
2115.26	26.4819
2116.72	27.3369
2118.17	28.6025
2119.62	30.2973
2121.07	30.7719
2122.52	31.3055
2123.97	32.7202
2125.42	33.5805
2126.87	35.249
2128.32	36.5213
2129.77	37.7213
2131.22	38.9574
2132.67	40.1151
2134.11	40.8471
2135.56	41.9436
2137.01	43.7261
2138.46	45.4484
2139.91	46.6554
2141.35	48.7485
2142.8	50.5596
2144.25	52.4097
2145.7	53.5326
2147.14	54.745
2148.59	56.7313
2150.03	59.0661
2151.48	60.6721
2152.92	61.899
2154.37	63.5177
2155.81	64.72
2157.26	66.4804
2158.7	67.2919
2160.15	68.817
2161.59	70.1649
2163.03	71.0271
2164.47	72.672
2165.92	73.4853
2167.36	74.0525
2168.8	74.6904
2170.24	75.3376
2171.69	75.8244
2173.13	76.3862
2174.57	76.7166
2176.01	77.3227
2177.45	77.3277
2178.89	78.1607
2180.33	78.3432
2181.77	78.1356
2183.21	77.9484
2184.65	77.3801
2186.09	76.9811
2187.53	76.7377
2188.97	76.5404
2190.4	75.5091
2191.84	74.2641
2193.28	72.5033
2194.72	71.3074
2196.16	70.1881
2197.59	68.1993
2199.03	66.3209
2200.47	65.2309
2201.9	63.7267
2203.34	62.3002
2204.77	60.4169
2206.21	58.4642
2207.64	57.0222
2209.08	55.3504
2210.51	53.9637
2211.95	52.1791
2213.38	50.098
2214.82	48.3652
2216.25	46.2625
2217.68	44.3397
2219.12	42.7463
2220.55	41.2289
2221.98	39.2341
2223.41	36.8674
2224.85	34.8913
2226.28	33.3597
2227.71	31.4853
2229.14	30.4716
2230.57	29.2645
2232	27.8431
2233.43	25.9938
2234.86	24.2933
2236.29	23.6163
2237.72	21.7324
2239.15	20.9637
2240.58	20.2387
2242.01	19.3252
2243.44	18.891
2244.87	17.4535
2246.29	17.0087
2247.72	16.7474
2249.15	15.8511
2250.58	16.1206
2252.01	15.4955
2253.43	15.0533
2254.86	14.6838
2256.29	14.2006
2257.71	14.2561
2259.14	13.9066
2260.56	13.6573
2261.99	13.2847
2263.41	13.5409
2264.84	13.2853
2266.26	13.8035
2267.69	13.2883
2269.11	13.1069
2270.53	13.3166
2271.96	13.7418
2273.38	13.1335
2274.8	12.6671
2276.23	12.6555
2277.65	12.375
2279.07	12.543
2280.49	11.6614
2281.91	11.7134
2283.34	10.7848
2284.76	10.593
2286.18	10.5136
2287.6	9.8242
2289.02	9.54552
2290.44	8.75322
2291.86	7.58972
2293.28	5.9749
2294.7	5.45612
2296.12	5.06224
2297.54	4.92222
2298.96	5.00645
2300.37	5.50213
2301.79	5.14522
2303.21	4.34293
2304.63	4.08534
2306.04	4.11573
2307.46	4.57642
2308.88	4.15347
2310.3	4.08587
2311.71	3.97299
2313.13	3.337
2314.54	3.0294
2315.96	2.70787
2317.37	3.39518
2318.79	3.66108
2320.2	4.06757
2321.62	5.4109
2323.03	5.51468
2324.45	5.52674
2325.86	5.62312
2327.27	5.32999
2328.69	5.65314
2330.1	5.20593
2331.51	5.4693
2332.92	5.42174
2334.34	5.29152
2335.75	4.68935
2337.16	4.98498
2338.57	4.99526
2339.98	5.20434
2341.39	4.56334
2342.8	4.16614
2344.21	3.94887
2345.63	3.37512
2347.04	3.14746
2348.45	2.38761
2349.85	1.53049
2351.26	1.15029
2352.67	1.77611
2354.08	1.20122
2355.49	1.0071
2356.9	0.426332
2358.3	-0.239472
2359.71	-0.453125
2361.12	-0.750136
2362.53	-0.880786
2363.93	-0.721561
2365.34	0.426846
2366.75	0.949072
2368.15	1.14555
2369.56	0.904886
2370.97	0.642856
2372.37	0.454201
2373.77	0.147011
2375.18	0.0621942
2376.59	0.13396
2377.99	0.836168
2379.39	0.498211
2380.8	1.19927
2382.2	1.44904
2383.6	0.957655
2385.01	1.75811
2386.41	2.79461
2387.81	3.08084
2389.21	3.14939
2390.62	3.34455
2392.02	3.43381
2393.42	3.22901
2394.82	2.89955
2396.22	2.92232
2397.62	2.9341
2399.02	3.17164
2400.42	3.56703
2401.82	4.50808
2403.22	4.46543
2404.62	5.05255
2406.02	5.01751
2407.42	5.75008
2408.82	5.56964
2410.22	5.37509
2411.62	5.00793
2413.01	5.47301
2414.41	5.27629
2415.81	5.11045
2417.21	5.4275
2418.6	5.6272
2420	5.75304
2421.4	6.95685
2422.79	7.02582
2424.19	7.28057
2425.59	7.73935
2426.98	8.40243
2428.38	8.60949
2429.77	9.36891
2431.17	10.0955
2432.56	10.2027
2433.95	10.6651
2435.35	11.2055
2436.74	11.1748
2438.14	11.1177
2439.53	11.0812
2440.92	11.1306
2442.31	11.2628
2443.71	10.9609
2445.1	11.3796
2446.49	11.3984
2447.88	11.6577
2449.27	11.3588
2450.67	11.2709
2452.06	10.5653
2453.45	10.3325
2454.84	10.3631
2456.23	10.421
2457.62	9.99162
2459.01	9.67923
2460.4	9.63441
2461.79	9.0956
2463.18	8.87438
2464.57	8.29678
2465.95	8.79537
2467.34	8.58024
2468.73	8.2693
2470.12	8.46224
2471.5	8.23864
2472.89	7.04131
2474.28	6.83488
2475.67	6.1844
2477.05	6.0323
2478.44	5.29196
2479.82	4.89207
2481.21	4.17531
2482.6	4.49792
2483.98	4.34756
2485.37	4.45183
2486.75	4.5203
2488.13	4.57278
2489.52	4.02566
2490.9	4.52619
2492.29	3.37324
2493.67	3.89461
2495.05	4.13583
2496.44	4.30204
2497.82	3.99928
2499.2	4.19759
2500.58	4.08147
2501.97	3.73027
2503.35	3.17614
2504.73	3.0634
2506.11	2.66404
2507.49	2.87695
2508.87	2.72999
2510.25	2.51454
2511.63	1.82352
2513.01	1.58213
2514.39	1.73776
2515.77	1.4245
2517.15	1.4074
2518.53	1.54004
2519.91	1.92002
2521.29	2.33013
2522.67	2.61268
2524.05	2.9637
2525.42	3.38484
2526.8	3.36534
2528.18	2.88383
2529.55	3.31175
2530.93	3.95459
2532.31	3.87867
2533.69	3.7668
2535.06	4.14529
2536.44	4.12177
2537.81	3.80238
2539.19	4.45894
2540.56	4.08357
2541.94	3.92639
2543.31	4.27468
2544.69	3.65653
2546.06	3.23304
2547.44	3.3284
2548.81	3.44413
2550.18	3.60781
2551.56	3.87293
2552.93	2.76058
2554.3	2.27314
2555.67	1.70823
2557.04	0.916736
2558.42	0.785537
2559.79	0.829577
2561.16	0.357304
2562.53	0.98377
2563.9	0.902245
2565.27	0.217437
2566.64	0.257877
2568.01	0.394411
2569.38	0.327758
2570.75	-0.0378522
2572.12	-0.354019
2573.49	0.230405
2574.86	-0.0113379
2576.23	0.383106
2577.6	0.21346
2578.97	-0.503441
2580.33	-0.697865
2581.7	0.217629
2583.07	0.761214
2584.44	1.3503
2585.8	1.61369
2587.17	2.14697
2588.54	2.8961
2589.9	2.93694
2591.27	3.20737
2592.64	3.31888
2594	3.42196
2595.37	3.47878
2596.73	3.53843
2598.1	4.1533
2599.46	3.84158
2600.83	3.90029
2602.19	4.41541
2603.55	4.48142
2604.92	4.45782
2606.28	3.6382
2607.64	3.35598
2609.01	2.92932
2610.37	2.8307
2611.73	2.75794
2613.09	2.04426
2614.46	2.26152
2615.82	2.52462
2617.18	2.0688
2618.54	1.57781
2619.9	1.95056
2621.26	1.50197
2622.62	1.59187
2623.98	1.72139
2625.34	2.19024
2626.7	2.96285
2628.06	2.97254
2629.42	3.11407
2630.78	3.3528
2632.14	3.31266
2633.5	3.2667
2634.86	3.30348
2636.21	3.1714
2637.57	2.99395
2638.93	2.99567
2640.29	3.41148
2641.64	3.75541
2643	3.56536
2644.36	3.86151
2645.71	3.42844
2647.07	3.86946
2648.43	4.41883
2649.78	4.9873
2651.14	4.38768
2652.49	4.7155
2653.85	4.47274
2655.2	4.96236
2656.56	5.03047
2657.91	5.03186
2659.26	5.38079
2660.62	5.08671
2661.97	5.4306
2663.32	5.37516
2664.68	5.68063
2666.03	5.81678
2667.38	5.78847
2668.74	6.45615
2670.09	5.64713
2671.44	5.33169
2672.79	5.34908
2674.14	5.06519
2675.49	5.39035
2676.84	5.50214
2678.19	5.28916
2679.54	5.26472
2680.89	4.6667
2682.24	4.64959
2683.59	4.82022
2684.94	4.96456
2686.29	5.04098
2687.64	5.58689
2688.99	4.92262
2690.34	5.302
2691.69	5.5486
2693.03	5.59438
2694.38	5.60635
2695.73	5.28498
2697.08	5.48054
2698.42	5.82348
2699.77	5.46203
2701.12	5.68378
2702.46	5.74044
2703.81	6.1647
2705.15	6.46258
2706.5	6.88053
2707.85	7.50683
2709.19	7.65011
2710.54	7.9066
2711.88	8.83699
2713.22	8.69252
2714.57	9.19989
2715.91	8.96742
2717.26	9.43032
2718.6	9.56313
2719.94	10.7087
2721.29	10.9732
2722.63	12.214
2723.97	12.154
2725.31	12.5408
2726.66	12.5958
2728	12.7111
2729.34	12.8598
2730.68	12.7421
2732.02	12.3684
2733.36	12.3848
2734.7	11.9914
2736.04	12.0312
2737.38	11.102
2738.72	11.2534
2740.06	10.9648
2741.4	10.3654
2742.74	10.14
2744.08	9.19199
2745.42	8.74467
2746.76	8.36687
2748.09	7.94538
2749.43	7.71727
2750.77	7.52226
2752.11	7.30062
2753.45	6.56298
2754.78	6.46654
2756.12	5.60164
2757.46	5.49295
2758.79	5.14022
2760.13	5.04479
2761.46	4.56834
2762.8	4.45607
2764.14	4.05568
2765.47	3.50835
2766.8	3.2377
2768.14	3.16597
2769.47	2.99023
2770.81	2.60703
2772.14	2.4227
2773.48	1.91838
2774.81	1.67052
2776.14	1.21347
2777.48	0.97576
2778.81	0.82704
2780.14	0.369812
2781.47	1.13646
2782.8	1.48826
2784.14	1.72713
2785.47	1.84623
2786.8	1.86931
2788.13	1.74023
2789.46	1.86215
2790.79	0.905655
2792.12	0.984605
2793.45	0.91876
2794.78	0.959905
2796.11	0.923507
2797.44	0.797482
2798.77	0.928307
2800.1	0.768295
2801.43	0.371028
2802.76	0.875331
2804.09	0.855529
2805.41	1.31498
2806.74	1.04923
2808.07	1.04936
2809.4	1.40056
2810.72	1.32386
2812.05	1.57323
2813.38	1.871
2814.71	2.44261
2816.03	3.04942
2817.36	4.1422
2818.68	5.26713
2820.01	5.55106
2821.33	6.59396
2822.66	7.19628
2823.98	8.82795
2825.31	9.57687
2826.63	10.3198
2827.96	11.044
2829.28	11.5135
2830.6	12.1692
2831.93	13.1242
2833.25	14.6278
2834.57	16.1829
2835.9	17.9438
2837.22	19.7676
2838.54	21.8811
2839.86	24.2636
2841.18	27.5669
2842.5	30.5112
2843.83	34.2587
2845.15	37.808
2846.47	41.7735
2847.79	46.1507
2849.11	49.6784
2850.43	53.0633
2851.75	57.5181
2853.07	62.0074
2854.39	66.4053
2855.71	71.4044
2857.03	75.6443
2858.35	79.8109
2859.66	84.0716
2860.98	88.043
2862.3	92.6995
2863.62	95.9958
2864.94	99.9539
2866.25	103.417
2867.57	106.876
2868.89	110.731
2870.2	113.856
2871.52	116.962
2872.84	119.961
2874.15	123.398
2875.47	126.461
2876.78	129.187
2878.1	132.149
2879.41	135.093
2880.73	137.767
2882.04	140.274
2883.36	142.161
2884.67	144.245
2885.99	145.689
2887.3	147.911
2888.61	149.504
2889.93	151.504
2891.24	152.877
2892.55	155.194
2893.86	157.564
2895.18	160.652
2896.49	163.831
2897.8	167.779
2899.11	171.931
2900.42	175.9
2901.73	180.975
2903.05	186.4
2904.36	191.827
2905.67	197.77
2906.98	203.999
2908.29	210.236
2909.6	217.155
2910.91	223.86
2912.21	230.59
2913.52	237.533
2914.83	243.582
2916.14	250.136
2917.45	256.865
2918.76	262.76
2920.07	268.934
2921.37	274.213
2922.68	278.629
2923.99	283.174
2925.29	287.634
2926.6	291.137
2927.91	294.353
2929.22	295.765
2930.52	297.725
2931.83	299.204
2933.13	299.357
2934.44	300.213
2935.74	299.148
2937.05	297.792
2938.35	296.003
2939.66	293.951
2940.96	291.026
2942.26	287.58
2943.57	284.16
2944.87	279.524
2946.18	274.15
2947.48	268.701
2948.78	262.885
2950.08	257.15
2951.39	250.753
2952.69	244.721
2953.99	238.298
2955.29	232.393
2956.59	226.172
2957.9	220.203
2959.2	214.11
2960.5	208.16
2961.8	201.819
2963.1	196.929
2964.4	190.876
2965.7	185.122
2967	180.481
2968.3	174.704
2969.6	169.492
2970.9	164.269
2972.19	159.181
2973.49	154.023
2974.79	148.783
2976.09	143.661
2977.39	138.216
2978.68	133.273
2979.98	128.025
2981.28	123.767
2982.58	119.127
2983.87	114.665
2985.17	109.914
2986.47	104.302
2987.76	99.7175
2989.06	94.9828
2990.35	89.9086
2991.65	84.8736
2992.94	79.7471
2994.24	74.7137
2995.53	69.7409
2996.83	65.2604
2998.12	60.1121
2999.42	56.1026
3000.71	51.69
3002	47.9192
3003.3	44.1012
3004.59	40.2496
3005.88	36.267
3007.18	32.5485
3008.47	29.1983
3009.76	25.5463
3011.05	22.4167
3012.34	20.3886
3013.64	17.6236
3014.93	14.7956
3016.22	12.7474
3017.51	10.9713
3018.8	9.58357
3020.09	7.77872
3021.38	5.84867
3022.67	4.45633
3023.96	3.0793
3025.25	2.15315
3026.54	1.56192
3027.83	1.14307
3029.12	0.509135
3030.41	0.260675
3031.69	0.368994
3032.98	0.285402
3034.27	0.564569
3035.56	0.752396
3036.84	1.20031
3038.13	1.39166
3039.42	1.81045
3040.71	2.4072
3041.99	3.01234
3043.28	3.77989
3044.57	4.59676
3045.85	5.2796
3047.14	5.41334
3048.42	5.59391
3049.71	5.72549
3050.99	5.85247
3052.28	6.27281
3053.56	6.68208
3054.85	6.71736
3056.13	6.56542
3057.41	6.40394
3058.7	6.37397
3059.98	6.39602
3061.26	6.2298
3062.55	6.03745
3063.83	6.39338
3065.11	5.9572
3066.39	5.3428
3067.68	4.68822
3068.96	4.39795
3070.24	4.20633
3071.52	3.91643
3072.8	3.94345
3074.08	3.27763
3075.36	3.19224
3076.65	3.00955
3077.93	1.52696
3079.21	1.1452
3080.49	0.888592
3081.77	0.561926
3083.04	-0.267889
3084.32	-1.31052
3085.6	-1.68897
3086.88	-1.74452
3088.16	-1.8007
3089.44	-1.242
3090.72	-1.25715
3091.99	-1.17966
3093.27	-1.04165
3094.55	-1.36078
3095.83	-1.3212
3097.1	-0.867014
3098.38	-0.753265
3099.66	-0.406342
3100.93	0.0078918
3102.21	0.302005
3103.49	0.739994
3104.76	1.3149
3106.04	2.1051
3107.31	2.38159
3108.59	3.07625
3109.86	3.52586
3111.14	4.17349
3112.41	4.67795
3113.69	5.42479
3114.96	5.97776
3116.23	6.99508
3117.51	7.74639
3118.78	8.10862
3120.05	8.7294
3121.33	9.5285
3122.6	10.3669
3123.87	11.2169
3125.14	11.9401
3126.41	13.361
3127.69	14.5745
3128.96	15.4322
3130.23	16.618
3131.5	17.9974
3132.77	19.3533
3134.04	20.5129
3135.31	21.6616
3136.58	23.0632
3137.85	23.9742
3139.12	25.4761
3140.39	26.2111
3141.66	27.0609
3142.93	28.3411
3144.2	29.3582
3145.47	30.4155
3146.74	31.8821
3148	33.2018
3149.27	33.9034
