#Acq. time (s)=	45
#Accumulations=	2
#Range (cm-¹)=	200...3150
#Windows=	2
#Auto scanning=	Off
#Autofocus=	Off
#Macrospot=	Off
#AutoExposure=	Off
#Spike filter=	Multiple accum.
#Delay time (s)=	0
#Binning=	1
#Readout mode=	Signal
#DeNoise=	Off
#ICS correction=	On
#Dark correction=	Off
#Inst. Process=	Off
#Detector Gain=	Best Dynamic Range
#Detector ADC=	20 kHz       
#Detector temperature (°C)=	-69.85
#Instrument=	LabRAM HR Evol
#Detector=	Synapse
#Objective=	x100
#Grating=	600 gr/mm
#ND Filter=	100%
#Laser (nm)=	532 
#Hole=	100.021
#Range=	Auto
#Laser Pol.=	No
#Raman. Pol.=	No
#Laser Pol. (°)=	-0.0007625
#Raman Pol. (°)=	89.9995
#Collection=	Microscope
#StageXY=	Marzhauser
#StageZ=	Marzhauser
#X (µm)=	-6359.4
#Y (µm)=	815
#Z (µm)=	-64.7
#Full time(mm:ss)=	3:18
#Project=	
#Sample=	
#Site=	
#Title=	Mb_30_27_33_2x_45s_532 nm_x100_100%_600 gr_mm
#Remark=	
#Date=	13.07.2022 11:09
#Acquired=	13.07.2022 11:09:52
#Base:Fit=	10.08.2022 10:40:03
#Base:Sub=	10.08.2022 10:40:17
#Filter:Polynom=	16.08.2022 10:16:15
#AxisType[0]=Intens
#AxisUnit[0]=Cnt
#AxisType[1]=Spectr
#AxisUnit[1]=1/cm
200.563	2.71616
202.377	3.83405
204.194	3.79405
206.008	3.66634
207.821	3.46155
209.634	3.26334
211.449	3.15039
213.262	3.09423
215.074	3.03868
216.885	4.37394
218.699	4.66501
220.51	4.58562
222.321	5.92785
224.131	5.30732
225.941	4.07797
227.751	5.03563
229.562	5.3071
231.371	5.31616
233.18	5.1643
234.988	5.47923
236.796	5.23626
238.603	4.73753
240.411	5.06229
242.219	4.9324
244.026	4.60884
245.832	4.82756
247.638	4.13726
249.443	3.70265
251.248	4.03276
253.053	4.35699
254.857	4.42357
256.661	4.44115
258.465	5.09943
260.268	4.15034
262.071	5.1971
263.874	5.14478
265.678	5.19205
267.48	4.28372
269.282	4.92934
271.083	5.28645
272.884	4.75331
274.684	4.46567
276.484	5.17439
278.284	4.78704
280.084	4.63274
281.883	5.15283
283.682	6.98569
285.48	8.02707
287.276	8.2018
289.074	8.44577
290.871	7.9551
292.668	8.41739
294.465	9.58391
296.261	9.56303
298.057	10.2223
299.853	11.8456
301.648	11.9579
303.443	13.1663
305.237	14.3888
307.032	15.1459
308.823	15.2662
310.617	15.5344
312.41	16.1504
314.203	15.6977
315.995	15.7541
317.788	17.5128
319.579	17.9762
321.369	18.1127
323.16	18.388
324.951	18.6667
326.741	18.3098
328.531	18.3813
330.321	18.9698
332.108	18.8021
333.897	19.2141
335.686	19.5057
337.474	18.662
339.26	19.1633
341.048	18.9322
342.835	17.892
344.622	18.5903
346.406	19.0888
348.192	19.421
349.978	18.6781
351.764	19.2896
353.547	19.3834
355.332	19.0825
357.116	19.5629
358.901	19.8684
360.682	19.3733
362.466	17.8281
364.249	17.5716
366.03	17.3258
367.812	16.4106
369.594	16.3065
371.374	16.6041
373.155	16.302
374.936	15.9128
376.715	16.2297
378.495	15.9481
380.273	14.9325
382.053	14.7952
383.832	14.4727
385.609	13.0826
387.388	13.2222
389.164	13.068
390.942	12.6938
392.72	13.1711
394.495	12.4438
396.272	12.2491
398.047	12.4523
399.823	11.897
401.597	12.6165
403.372	12.4163
405.145	12.0797
406.92	12.7991
408.693	13.1986
410.467	12.6589
412.239	12.9377
414.012	12.2942
415.783	12.1281
417.556	12.1039
419.327	12.6931
421.099	11.4651
422.869	10.9833
424.64	10.0524
426.409	9.70602
428.18	9.85074
429.948	9.53701
431.718	9.51997
433.486	9.32147
435.253	8.29272
437.022	7.76218
438.789	9.19666
440.558	9.26227
442.324	9.74461
444.089	8.69804
445.857	8.84727
447.622	8.51028
449.386	7.82089
451.153	8.47795
452.917	9.56425
454.682	10.2566
456.446	11.2502
458.208	12.0351
459.973	12.5698
461.735	12.9034
463.497	14.3466
465.259	14.0965
467.022	14.4057
468.783	14.1038
470.544	14.8937
472.306	15.2832
474.066	15.2131
475.825	16.3087
477.585	17.2839
479.346	17.1187
481.104	17.5106
482.862	17.7815
484.62	18.4659
486.38	18.9348
488.137	18.8879
489.894	19.1634
491.65	18.4979
493.407	18.9438
495.164	19.3234
496.92	19.2083
498.675	18.2514
500.43	17.3152
502.184	16.7537
503.939	16.8222
505.694	16.7822
507.448	16.3341
509.201	15.1534
510.954	15.1835
512.706	14.9687
514.459	14.816
516.21	14.2313
517.962	13.8647
519.715	13.5657
521.466	14.0802
523.216	14.9483
524.966	15.8852
526.716	16.4387
528.466	15.5136
530.215	16.0321
531.964	15.6072
533.712	17.1691
535.46	17.9581
537.208	18.1299
538.955	18.7644
540.703	18.6149
542.449	18.9741
544.196	19.3227
545.942	18.6676
547.688	18.5116
549.433	18.0658
551.178	17.9106
552.923	17.5135
554.667	17.9364
556.412	17.3283
558.155	16.6519
559.899	16.6146
561.642	16.2551
563.385	15.8587
565.127	15.097
566.867	13.7465
568.609	14.1093
570.35	13.9018
572.092	13.2892
573.832	12.7019
575.573	11.932
577.313	11.5654
579.053	10.5998
580.79	9.94547
582.529	8.85639
584.268	7.49974
586.006	7.0126
587.745	6.5709
589.482	6.95203
591.218	6.53838
592.955	6.4234
594.692	5.89697
596.428	5.76859
598.164	5.70518
599.898	5.26688
601.634	5.08398
603.369	4.68284
605.104	4.51029
606.836	4.7027
608.57	5.38284
610.304	5.65282
612.037	6.77761
613.769	7.23579
615.501	7.97913
617.234	8.62283
618.966	8.8599
620.696	9.33916
622.427	8.82879
624.159	8.21723
625.887	8.30426
627.618	8.77253
629.348	8.2625
631.076	7.82284
632.806	7.55757
634.535	8.36431
636.262	8.97891
637.99	9.79336
639.716	10.3968
641.444	10.3903
643.172	10.3979
644.897	9.93191
646.624	10.7013
648.348	10.0117
650.075	9.81058
651.801	10.4564
653.524	10.8614
655.249	12.2394
656.972	12.5205
658.697	12.0841
660.419	11.8878
662.143	12.6469
663.865	12.2646
665.588	12.421
667.309	12.2184
669.032	12.3074
670.752	12.8818
672.474	14.2419
674.194	14.9945
675.915	15.7786
677.634	16.5196
679.355	16.748
681.073	17.4176
682.793	18.1559
684.511	18.7549
686.23	19.3568
687.947	19.8982
689.664	21.0868
691.382	22.0121
693.098	24.0637
694.816	25.5336
696.531	26.3453
698.247	27.474
699.963	28.1909
701.678	28.5464
703.392	28.6544
705.108	29.3894
706.821	29.32
708.534	29.624
710.249	30.7008
711.962	31.6566
713.674	32.7134
715.388	32.7226
717.099	33.6189
718.81	33.8318
720.523	34.566
722.234	34.7387
723.944	35.4284
725.654	35.6187
727.365	36.5427
729.075	35.9514
730.784	36.5962
732.492	37.5143
734.202	38.6899
735.91	39.3388
737.618	40.2509
739.325	40.7314
741.034	42.1698
742.741	42.1476
744.447	42.5837
746.153	43.8915
747.859	45.7582
749.564	47.2038
751.271	48.2216
752.976	49.2276
754.681	50.4711
756.385	52.3159
758.088	53.9091
759.792	54.7353
761.495	55.3218
763.2	55.9227
764.902	56.6608
766.604	58.1643
768.306	59.4018
770.008	60.1589
771.709	61.7901
773.41	62.9304
775.11	65.2587
776.811	66.0149
778.51	67.5629
780.21	68.2268
781.909	68.9858
783.608	69.7981
785.307	70.3809
787.005	71.2277
788.703	71.4494
790.401	72.1943
792.098	72.0509
793.795	72.9586
795.492	73.7103
797.188	72.8862
798.884	72.1581
800.58	71.1753
802.276	71.2233
803.971	70.921
805.665	71.4122
807.36	71.8426
809.054	71.6905
810.748	71.5115
812.441	71.1457
814.135	70.2542
815.826	70.4114
817.518	70.344
819.21	70.0223
820.902	69.6691
822.594	69.6487
824.285	69.804
825.976	69.6173
827.665	68.7341
829.355	68.9878
831.045	68.8314
832.735	68.5341
834.424	67.6732
836.111	66.0338
837.8	65.6285
839.488	64.7277
841.177	63.3218
842.864	62.0608
844.55	60.2128
846.237	58.6599
847.924	57.6517
849.61	56.6284
851.295	56.4517
852.98	55.7533
854.666	54.9946
856.349	54.4597
858.034	53.8303
859.719	53.4098
861.403	52.4146
863.085	51.4557
864.769	51.2816
866.452	50.0809
868.133	49.716
869.816	49.0539
871.498	48.6215
873.179	47.1566
874.86	47.3394
876.54	47.1138
878.221	47.0309
879.902	46.5001
881.58	46.2096
883.26	45.525
884.938	46.003
886.618	46.3827
888.297	46.6435
889.974	47.0005
891.653	46.8241
893.329	46.8746
895.007	47.1362
896.683	46.0919
898.36	46.3153
900.035	46.5506
901.712	47.0915
903.387	46.6307
905.063	47.1034
906.737	46.6793
908.412	46.9555
910.085	46.4555
911.76	45.6863
913.433	45.6133
915.107	44.4651
916.779	43.9371
918.452	42.9804
920.124	41.6646
921.797	40.2989
923.467	39.1848
925.138	37.4975
926.81	37.3784
928.48	36.1327
930.151	35.5912
931.82	35.8509
933.489	35.9679
935.16	36.9495
936.828	36.1191
938.496	36.2533
940.165	36.6866
941.833	36.718
943.5	36.7465
945.168	36.5193
946.834	35.6281
948.5	35.7911
950.168	34.8602
951.834	36.0138
953.499	35.8932
955.163	36.0585
956.83	35.9813
958.494	36.1205
960.158	35.1776
961.821	34.207
963.487	33.5119
965.15	33.2503
966.812	32.1058
968.474	32.4552
970.138	31.5242
971.8	30.7012
973.461	29.9747
975.123	29.6021
976.783	28.435
978.446	28.1797
980.106	27.7718
981.766	28.481
983.425	28.414
985.084	27.5969
986.743	26.7772
988.402	25.4217
990.06	24.1517
991.72	22.6794
993.378	21.5541
995.035	20.7584
996.692	19.8649
998.349	18.2365
1000.01	16.9604
1001.66	15.7345
1003.32	15.0305
1004.97	14.5297
1006.63	15.442
1008.28	15.5456
1009.94	16.1137
1011.59	17.2756
1013.25	18.8632
1014.9	20.125
1016.55	21.6465
1018.21	22.3475
1019.86	23.389
1021.51	25.0399
1023.16	26.1037
1024.81	26.4799
1026.47	28.2431
1028.12	29.0066
1029.77	29.2421
1031.42	30.941
1033.07	32.0654
1034.72	32.9561
1036.37	33.0004
1038.02	32.6238
1039.67	33.0936
1041.31	33.0186
1042.96	33.2068
1044.61	33.9332
1046.26	33.3605
1047.91	33.2547
1049.55	32.6353
1051.2	33.0834
1052.84	32.5665
1054.49	32.0076
1056.14	31.7725
1057.78	31.7676
1059.43	31.4101
1061.07	31.9272
1062.72	31.3829
1064.36	30.8873
1066	29.6168
1067.65	27.3846
1069.29	26.1513
1070.93	24.6359
1072.58	23.568
1074.22	21.6041
1075.86	21.0137
1077.5	19.1403
1079.14	17.5387
1080.78	15.999
1082.42	15.1393
1084.06	14.2414
1085.7	13.0727
1087.34	13.3397
1088.98	13.8903
1090.62	13.3822
1092.26	13.69
1093.9	14.4261
1095.54	14.2769
1097.17	14.9124
1098.81	14.9431
1100.45	14.1807
1102.09	13.6799
1103.72	12.5299
1105.36	12.1201
1106.99	11.5165
1108.63	11.3759
1110.27	10.9854
1111.9	10.956
1113.53	11.2652
1115.17	10.855
1116.8	9.96194
1118.43	9.82911
1120.07	8.67309
1121.7	8.68409
1123.33	8.27408
1124.97	7.89214
1126.6	7.5099
1128.23	6.03656
1129.86	5.31737
1131.49	4.81782
1133.12	4.82118
1134.75	4.86548
1136.38	5.00975
1138.01	6.05404
1139.64	6.3254
1141.27	6.30381
1142.9	6.2715
1144.53	5.91562
1146.16	5.47418
1147.78	5.7077
1149.41	5.11318
1151.04	5.63383
1152.67	5.19204
1154.29	5.42201
1155.92	5.66846
1157.54	6.26192
1159.17	6.0619
1160.8	6.35459
1162.42	5.61721
1164.05	6.18882
1165.67	5.934
1167.29	6.39854
1168.92	7.05615
1170.54	7.66945
1172.16	8.33352
1173.79	8.87837
1175.41	8.816
1177.03	8.73008
1178.65	8.59643
1180.28	7.85506
1181.9	7.62527
1183.52	6.92474
1185.14	7.73038
1186.76	8.20244
1188.38	7.81122
1190	7.77865
1191.62	7.7164
1193.24	7.53595
1194.86	7.23727
1196.47	6.56766
1198.09	6.35975
1199.71	6.70119
1201.33	6.73513
1202.95	7.25515
1204.56	7.17485
1206.18	6.07538
1207.8	5.95464
1209.41	5.15726
1211.03	6.09778
1212.64	7.89347
1214.26	9.37871
1215.87	10.1417
1217.49	10.6479
1219.1	12.1565
1220.71	12.3552
1222.33	13.4508
1223.94	15.1461
1225.55	16.4776
1227.16	18.2578
1228.78	19.967
1230.39	21.113
1232	22.6342
1233.61	24.0748
1235.22	26.2139
1236.83	27.0868
1238.44	27.633
1240.05	28.9815
1241.66	29.844
1243.27	30.3807
1244.88	31.1735
1246.49	32.2083
1248.1	32.968
1249.71	33.1586
1251.32	34.5884
1252.92	34.7302
1254.53	35.4521
1256.14	34.9241
1257.74	35.7666
1259.35	35.9983
1260.96	37.2058
1262.56	36.8982
1264.17	36.8026
1265.77	37.1245
1267.38	36.6658
1268.98	35.8641
1270.59	36.2761
1272.19	36.617
1273.79	37.0069
1275.4	37.423
1277	37.4602
1278.6	37.8666
1280.21	38.0301
1281.81	37.5524
1283.41	37.5372
1285.01	37.3377
1286.61	37.2354
1288.21	38.9961
1289.81	39.3895
1291.41	40.516
1293.01	40.622
1294.61	39.8416
1296.21	39.9655
1297.81	40.6885
1299.41	41.7787
1301.01	41.2607
1302.6	42.6812
1304.2	42.7859
1305.8	42.2003
1307.4	42.1431
1308.99	42.8854
1310.59	43.554
1312.19	43.4179
1313.78	43.9403
1315.38	43.8574
1316.97	43.4542
1318.57	43.6575
1320.16	43.9975
1321.76	43.3631
1323.35	43.2946
1324.94	43.0111
1326.54	42.9566
1328.13	41.9317
1329.72	42.1708
1331.32	42.7973
1332.91	42.75
1334.5	42.6809
1336.09	41.8547
1337.68	42.4218
1339.27	41.8073
1340.87	41.7505
1342.45	41.0017
1344.04	41.3269
1345.64	40.7185
1347.22	40.5162
1348.81	40.1397
1350.4	40.637
1351.99	39.8561
1353.58	38.9634
1355.17	38.5247
1356.75	38.4295
1358.34	38.2203
1359.93	38.5536
1361.51	37.5895
1363.1	37.3251
1364.69	37.1177
1366.27	36.6766
1367.86	36.0614
1369.44	34.7729
1371.03	34.2801
1372.61	33.323
1374.2	32.6014
1375.78	32.5543
1377.37	32.0947
1378.95	31.6307
1380.53	30.8241
1382.11	30.1891
1383.7	28.649
1385.28	28.5046
1386.86	28.4843
1388.44	28.5237
1390.02	27.9115
1391.6	27.5737
1393.19	27.3767
1394.77	26.3657
1396.35	27.0811
1397.93	26.3725
1399.51	25.9394
1401.08	25.4396
1402.66	25.4447
1404.24	24.773
1405.82	24.8172
1407.4	24.6373
1408.97	25.4626
1410.55	25.4278
1412.13	25.7099
1413.71	25.6575
1415.28	26.6557
1416.86	26.2642
1418.43	28.159
1420.01	29.862
1421.59	31.0479
1423.16	31.4246
1424.73	31.6061
1426.31	32.8478
1427.88	33.8203
1429.46	34.9247
1431.03	36.5423
1432.6	37.9021
1434.18	39.7075
1435.75	41.5106
1437.32	42.1124
1438.89	42.4979
1440.46	42.5623
1442.04	43.7301
1443.61	44.3136
1445.18	45.0693
1446.75	44.8263
1448.32	45.5553
1449.89	45.4907
1451.46	45.3274
1453.03	45.1847
1454.6	44.4571
1456.16	44.1777
1457.73	43.5506
1459.3	42.3115
1460.87	41.4674
1462.44	40.8826
1464	39.9522
1465.57	38.2967
1467.14	36.7973
1468.7	35.7578
1470.27	34.9881
1471.83	33.682
1473.4	33.2156
1474.96	32.9902
1476.53	31.28
1478.09	31.1871
1479.66	29.8335
1481.22	28.7163
1482.78	27.669
1484.35	26.739
1485.91	25.6945
1487.47	25.5055
1489.04	24.8916
1490.6	24.3206
1492.16	23.2445
1493.72	22.7904
1495.28	22.0779
1496.84	22.9308
1498.4	21.5433
1499.96	20.6314
1501.52	19.9174
1503.08	20.2118
1504.64	20.0596
1506.2	19.804
1507.76	20.0376
1509.32	19.8574
1510.88	19.0077
1512.44	18.306
1513.99	17.5729
1515.55	16.2532
1517.11	15.8423
1518.66	16.1236
1520.22	15.9767
1521.78	15.8113
1523.33	15.6763
1524.89	14.3446
1526.44	13.9903
1528	13.7946
1529.55	13.4417
1531.11	12.822
1532.66	12.8682
1534.21	12.5863
1535.77	12.5504
1537.32	12.463
1538.87	13.5961
1540.43	14.6024
1541.98	14.7472
1543.53	15.1472
1545.08	16.057
1546.63	17.6806
1548.18	18.4459
1549.74	18.6826
1551.29	20.0292
1552.84	20.4816
1554.39	21.1765
1555.94	22.0961
1557.48	21.928
1559.03	22.309
1560.58	22.3638
1562.13	22.0465
1563.68	22.6198
1565.23	22.9441
1566.78	23.6146
1568.32	23.5373
1569.87	24.1681
1571.42	24.6947
1572.96	24.7851
1574.51	24.8274
1576.05	25.3052
1577.6	25.8748
1579.14	26.3259
1580.69	26.7165
1582.24	27.2477
1583.78	27.7204
1585.32	28.1325
1586.87	28.5032
1588.41	29.175
1589.95	29.5913
1591.5	29.8757
1593.04	30.0092
1594.58	31.2599
1596.12	32.1072
1597.67	31.8643
1599.21	32.2372
1600.75	32.3141
1602.29	32.824
1603.83	32.3889
1605.37	32.2984
1606.91	32.3699
1608.45	32.4105
1609.99	32.3201
1611.53	32.164
1613.07	32.4809
1614.6	33.0832
1616.14	33.3252
1617.68	32.6948
1619.22	32.0603
1620.75	31.8777
1622.29	32.5059
1623.83	32.1119
1625.37	31.4556
1626.9	32.5755
1628.44	33.5255
1629.97	33.8047
1631.51	34.2987
1633.04	34.1593
1634.58	33.9866
1636.11	34.325
1637.65	34.2485
1639.18	34.7716
1640.72	35.4306
1642.25	35.8524
1643.78	36.7456
1645.31	37.1415
1646.85	37.7246
1648.38	37.4819
1649.91	37.4798
1651.44	37.9951
1652.97	38.6439
1654.5	39.2007
1656.03	39.6874
1657.56	40.0885
1659.1	41.1079
1660.62	40.6832
1662.15	41.1821
1663.68	41.3303
1665.21	40.5921
1666.74	40.2745
1668.27	39.2511
1669.8	39.5131
1671.32	39.0741
1672.85	37.6433
1674.38	35.965
1675.91	35.2701
1677.43	33.9732
1678.96	32.4849
1680.49	30.4841
1682.01	29.7262
1683.54	28.5405
1685.06	26.9889
1686.59	25.2426
1688.11	24.9304
1689.64	24.2958
1691.16	23.4706
1692.68	21.8035
1694.21	20.886
1695.73	21.0267
1697.25	20.184
1698.78	19.1231
1700.3	17.7673
1701.82	17.2959
1703.34	17.7946
1704.86	16.651
1706.39	16.149
1707.91	15.4119
1709.43	14.7024
1710.95	14.3155
1712.47	13.4669
1713.99	12.6143
1715.51	12.2663
1717.02	11.6273
1718.54	11.9889
1720.06	11.6769
1721.58	11.3316
1723.1	10.3604
1724.62	9.84926
1726.13	9.88716
1727.65	10.3699
1729.17	10.7364
1730.68	10.8973
1732.2	10.8704
1733.72	11.2983
1735.23	11.0656
1736.75	10.427
1738.26	10.3845
1739.78	9.53201
1741.29	9.23965
1742.81	9.18246
1744.32	8.78497
1745.84	8.43109
1747.35	6.82578
1748.86	6.56608
1750.37	6.25591
1751.89	6.07344
1753.4	5.78507
1754.91	5.63411
1756.42	5.53277
1757.93	4.89083
1759.45	4.55187
1760.96	4.39281
1762.47	3.89992
1763.98	4.18592
1765.49	3.53223
1767	2.85581
1768.51	2.70244
1770.02	2.72764
1771.53	2.82393
1773.03	1.94295
1774.54	1.41315
1776.05	1.10184
1777.56	0.864367
1779.07	1.03738
1780.57	0.338291
1782.08	0.177263
1783.59	0.0445898
1785.09	0.0606926
1786.6	-0.0881298
1788.11	-0.205923
1789.61	-0.0520007
1791.12	-0.0299207
1792.62	0.0531793
1794.13	0.418288
1795.63	0.124302
1797.13	0.249331
1798.64	0.675154
1800.14	1.76642
1801.65	2.93626
1803.15	3.72958
1804.65	4.22385
1806.15	4.38101
1807.66	4.76116
1809.16	4.79128
1810.66	4.53075
1812.16	5.03893
1813.66	5.03616
1815.16	5.52226
1816.66	5.45983
1818.16	5.68533
1819.66	5.73035
1821.16	6.13039
1822.66	6.37665
1824.16	6.48279
1825.66	6.35723
1827.16	5.89118
1828.66	6.09515
1830.16	6.01532
1831.65	5.94581
1833.15	5.89563
1834.65	5.29781
1836.14	4.85028
1837.64	4.61392
1839.14	4.90192
1840.63	4.6712
1842.13	4.78246
1843.62	4.31321
1845.12	3.72936
1846.61	3.23458
1848.11	2.94827
1849.6	2.77419
1851.1	3.10644
1852.59	3.01805
1854.08	3.02382
1855.58	2.88061
1857.07	2.65076
1858.56	2.64131
1860.05	2.78102
1861.55	2.88389
1863.04	2.55426
1864.53	2.35835
1866.02	1.95114
1867.51	1.8278
1869	1.66569
1870.49	1.68001
1871.98	1.99332
1873.47	2.54673
1874.96	2.88239
1876.45	3.13597
1877.94	3.09943
1879.43	2.51282
1880.92	2.48357
1882.41	2.86746
1882.51	2.23118
1884	2.56863
1885.5	2.79711
1886.99	2.0115
1888.48	2.21558
1889.98	1.98135
1891.47	2.80412
1892.96	3.19001
1894.46	3.90248
1895.95	3.51615
1897.44	3.65322
1898.93	3.98419
1900.42	4.1094
1901.91	5.17123
1903.41	5.64203
1904.9	5.76221
1906.39	5.31584
1907.88	4.78838
1909.37	5.55882
1910.86	5.92686
1912.35	6.46827
1913.83	6.3579
1915.32	7.12324
1916.81	7.40979
1918.3	7.97765
1919.79	8.26438
1921.27	9.03283
1922.76	9.08533
1924.25	9.56212
1925.74	8.62568
1927.22	8.98644
1928.71	8.7543
1930.19	9.00901
1931.68	8.56439
1933.17	8.73301
1934.65	8.54793
1936.14	7.96458
1937.62	7.88862
1939.11	7.29965
1940.59	7.29981
1942.07	7.30262
1943.56	7.35095
1945.04	7.63782
1946.52	7.01395
1948.01	6.53205
1949.49	6.53848
1950.97	6.0148
1952.45	5.74998
1953.93	5.77929
1955.42	5.13011
1956.9	4.8716
1958.38	5.26574
1959.86	4.93552
1961.34	4.58278
1962.82	5.28477
1964.3	5.52585
1965.78	5.67778
1967.26	5.95642
1968.74	6.18456
1970.21	6.10084
1971.69	6.33052
1973.17	5.96808
1974.65	5.82992
1976.13	5.69598
1977.6	5.57428
1979.08	4.89705
1980.56	4.71284
1982.03	4.86973
1983.51	4.76689
1984.99	4.81601
1986.46	4.60818
1987.94	4.75238
1989.41	5.03174
1990.89	4.60625
1992.36	4.92211
1993.84	4.66393
1995.31	5.03704
1996.78	4.34207
1998.26	4.95067
1999.73	5.1504
2001.2	5.97249
2002.68	6.24292
2004.15	6.38043
2005.62	6.12703
2007.09	6.93592
2008.56	6.67833
2010.04	6.85305
2011.51	6.8062
2012.98	6.75992
2014.45	6.84927
2015.92	6.99351
2017.39	6.67184
2018.86	6.63056
2020.33	6.56039
2021.8	6.80597
2023.26	7.13621
2024.73	7.30724
2026.2	7.55161
2027.67	7.89544
2029.14	7.96576
2030.61	7.95425
2032.07	8.30695
2033.54	8.75989
2035.01	8.82498
2036.47	8.85828
2037.94	8.91537
2039.4	9.06039
2040.87	9.34232
2042.33	9.2873
2043.8	8.89023
2045.27	9.04998
2046.73	8.72202
2048.19	8.42156
2049.66	8.16133
2051.12	7.85919
2052.59	7.17482
2054.05	6.93305
2055.51	6.99643
2056.97	7.4731
2058.44	7.4336
2059.9	7.55967
2061.36	8.29844
2062.82	8.31166
2064.28	9.00526
2065.74	9.23786
2067.21	9.09562
2068.67	9.59117
2070.13	9.90487
2071.59	11.1925
2073.05	10.9953
2074.51	11.0923
2075.96	11.2336
2077.42	11.3367
2078.88	11.4964
2080.34	12.1013
2081.8	12.1024
2083.26	12.8486
2084.72	13.113
2086.17	13.8514
2087.63	14.1999
2089.09	14.4709
2090.54	14.8538
2092	15.2008
2093.45	15.626
2094.91	15.9247
2096.37	16.5095
2097.82	16.97
2099.28	17.1927
2100.73	17.7933
2102.19	17.7251
2103.64	18.803
2105.09	19.1772
2106.55	19.087
2108	18.392
2109.45	19.0688
2110.91	19.4383
2112.36	19.8995
2113.81	19.6682
2115.26	19.8928
2116.72	19.7866
2118.17	20.201
2119.62	19.8663
2121.07	19.9482
2122.52	20.78
2123.97	21.0835
2125.42	21.7783
2126.87	23.0293
2128.32	24.2825
2129.77	25.0748
2131.22	24.9377
2132.67	26.086
2134.11	27.0465
2135.56	27.179
2137.01	28.3357
2138.46	28.649
2139.91	30.1396
2141.35	30.8925
2142.8	31.7771
2144.25	32.4101
2145.7	33.2483
2147.14	34.5544
2148.59	35.3259
2150.03	36.2117
2151.48	37.4694
2152.92	38.7259
2154.37	39.8236
2155.81	41.107
2157.26	41.4825
2158.7	42.6739
2160.15	42.857
2161.59	43.4921
2163.03	44.2844
2164.47	44.7445
2165.92	45.3672
2167.36	45.5457
2168.8	45.7315
2170.24	46.1142
2171.69	46.3348
2173.13	46.4472
2174.57	46.1814
2176.01	46.4296
2177.45	45.6986
2178.89	45.7974
2180.33	45.809
2181.77	46.4781
2183.21	45.9271
2184.65	45.9012
2186.09	45.3449
2187.53	45.3789
2188.97	45.2055
2190.4	44.7847
2191.84	44.3074
2193.28	44.0944
2194.72	43.6446
2196.16	42.6047
2197.59	42.268
2199.03	41.8985
2200.47	40.7489
2201.9	40.0808
2203.34	39.0664
2204.77	38.455
2206.21	37.1313
2207.64	36.1582
2209.08	35.7034
2210.51	34.2099
2211.95	33.4348
2213.38	31.6121
2214.82	30.92
2216.25	29.8857
2217.68	28.8965
2219.12	28.0659
2220.55	27.1492
2221.98	26.502
2223.41	25.818
2224.85	24.8508
2226.28	23.9212
2227.71	22.4082
2229.14	20.7899
2230.57	20.2102
2232	19.1158
2233.43	18.9229
2234.86	17.9306
2236.29	16.9657
2237.72	15.8675
2239.15	15.2347
2240.58	14.6625
2242.01	14.0839
2243.44	13.9564
2244.87	13.255
2246.29	13.5128
2247.72	13.6581
2249.15	13.5455
2250.58	13.8901
2252.01	14.0973
2253.43	14.0305
2254.86	13.8564
2256.29	13.4986
2257.71	13.5976
2259.14	12.9793
2260.56	12.8822
2261.99	12.1377
2263.41	12.1062
2264.84	11.9612
2266.26	11.7822
2267.69	11.7395
2269.11	11.8931
2270.53	11.5348
2271.96	11.1608
2273.38	10.9346
2274.8	10.5165
2276.23	10.3841
2277.65	10.1144
2279.07	9.90465
2280.49	9.87102
2281.91	9.05554
2283.34	8.91065
2284.76	8.48752
2286.18	8.28072
2287.6	7.281
2289.02	6.53045
2290.44	6.52308
2291.86	5.58605
2293.28	4.65568
2294.7	4.34494
2296.12	4.46976
2297.54	4.30488
2298.96	4.33631
2300.37	4.26204
2301.79	4.2521
2303.21	4.71641
2304.63	4.36404
2306.04	4.06536
2307.46	3.86451
2308.88	4.11959
2310.3	4.55136
2311.71	4.70933
2313.13	4.79224
2314.54	5.12378
2315.96	5.03098
2317.37	5.62579
2318.79	5.56155
2320.2	5.81452
2321.62	6.04992
2323.03	5.45637
2324.45	4.94179
2325.86	4.72894
2327.27	4.05385
2328.69	3.98302
2330.1	3.36999
2331.51	3.50369
2332.92	3.10927
2334.34	3.40739
2335.75	2.99122
2337.16	2.4394
2338.57	2.21276
2339.98	2.18135
2341.39	1.70593
2342.8	1.84616
2344.21	1.6454
2345.63	1.97896
2347.04	1.5302
2348.45	1.113
2349.85	0.838271
2351.26	0.904805
2352.67	0.641199
2354.08	0.39437
2355.49	0.866968
2356.9	0.232053
2358.3	0.204007
2359.71	0.461374
2361.12	0.845169
2362.53	1.02469
2363.93	1.4794
2365.34	2.244
2366.75	2.63097
2368.15	1.85412
2369.56	1.65174
2370.97	1.75618
2372.37	1.97893
2373.77	2.40296
2375.18	2.15268
2376.59	3.22965
2377.99	3.57938
2379.39	3.86168
2380.8	3.94994
2382.2	3.88629
2383.6	3.69784
2385.01	3.70647
2386.41	3.72017
2387.81	4.01187
2389.21	3.6176
2390.62	3.56322
2392.02	3.1126
2393.42	2.4855
2394.82	3.29482
2396.22	3.32875
2397.62	3.46773
2399.02	3.78595
2400.42	3.82865
2401.82	3.76373
2403.22	3.66449
2404.62	3.96389
2406.02	3.74938
2407.42	3.4669
2408.82	3.86268
2410.22	3.94577
2411.62	3.32701
2413.01	3.34439
2414.41	3.46062
2415.81	3.52655
2417.21	3.18308
2418.6	3.0751
2420	3.15607
2421.4	2.74758
2422.79	2.57432
2424.19	2.29329
2425.59	2.82669
2426.98	2.43194
2428.38	2.56598
2429.77	2.1437
2431.17	2.31721
2432.56	2.38389
2433.95	1.32148
2435.35	1.00245
2436.74	0.720218
2438.14	0.11363
2439.53	0.485753
2440.92	0.740669
2442.31	0.627469
2443.71	0.664731
2445.1	0.944624
2446.49	1.32119
2447.88	0.829694
2449.27	0.489616
2450.67	1.07259
2452.06	0.753143
2453.45	0.860723
2454.84	1.02953
2456.23	1.28655
2457.62	1.4855
2459.01	1.83307
2460.4	2.6982
2461.79	2.87024
2463.18	3.69549
2464.57	4.35423
2465.95	4.35453
2467.34	4.50623
2468.73	4.90041
2470.12	5.38407
2471.5	5.47601
2472.89	5.13476
2474.28	5.19114
2475.67	4.45156
2477.05	4.26238
2478.44	4.23703
2479.82	3.98757
2481.21	3.89165
2482.6	4.56322
2483.98	4.59415
2485.37	4.11728
2486.75	4.12121
2488.13	3.70187
2489.52	4.10242
2490.9	4.12106
2492.29	4.26748
2493.67	4.22212
2495.05	4.35545
2496.44	4.11543
2497.82	3.62102
2499.2	3.25359
2500.58	3.26295
2501.97	2.46151
2503.35	2.24459
2504.73	2.86361
2506.11	2.75561
2507.49	2.72639
2508.87	2.89133
2510.25	2.87824
2511.63	2.65205
2513.01	2.4531
2514.39	2.34846
2515.77	2.1714
2517.15	1.89426
2518.53	1.76761
2519.91	1.93867
2521.29	1.35986
2522.67	1.99473
2524.05	2.19492
2525.42	2.33993
2526.8	2.91793
2528.18	3.4325
2529.55	3.01402
2530.93	3.29175
2532.31	3.62931
2533.69	3.42081
2535.06	3.49626
2536.44	3.23237
2537.81	3.61243
2539.19	3.39426
2540.56	2.95597
2541.94	2.8083
2543.31	3.08293
2544.69	3.12044
2546.06	3.09743
2547.44	3.28823
2548.81	3.47264
2550.18	4.16868
2551.56	4.41805
2552.93	3.62507
2554.3	3.67416
2555.67	3.66207
2557.04	3.38718
2558.42	3.66984
2559.79	3.38413
2561.16	3.46874
2562.53	3.83593
2563.9	4.24603
2565.27	3.48875
2566.64	3.42888
2568.01	3.36187
2569.38	3.44784
2570.75	3.23754
2572.12	3.75508
2573.49	3.35127
2574.86	2.97173
2576.23	2.46749
2577.6	1.8842
2578.97	1.67244
2580.33	1.97488
2581.7	1.99294
2583.07	1.71494
2584.44	2.02897
2585.8	1.96792
2587.17	2.3539
2588.54	2.3212
2589.9	2.50331
2591.27	2.98359
2592.64	2.62301
2594	2.28189
2595.37	2.43496
2596.73	2.02168
2598.1	1.64828
2599.46	1.95453
2600.83	1.94586
2602.19	1.82314
2603.55	1.96609
2604.92	1.9744
2606.28	2.19189
2607.64	1.98174
2609.01	2.32034
2610.37	2.36205
2611.73	2.21026
2613.09	1.93107
2614.46	1.80833
2615.82	2.22157
2617.18	2.33332
2618.54	2.11434
2619.9	1.61875
2621.26	1.18609
2622.62	1.35627
2623.98	1.38697
2625.34	1.10585
2626.7	1.41096
2628.06	1.63332
2629.42	1.60131
2630.78	1.01741
2632.14	0.813407
2633.5	0.439988
2634.86	0.930844
2636.21	0.87033
2637.57	1.10922
2638.93	1.11732
2640.29	1.57207
2641.64	1.78777
2643	2.12204
2644.36	1.95843
2645.71	2.18236
2647.07	2.98014
2648.43	3.44092
2649.78	2.90914
2651.14	3.01487
2652.49	2.74015
2653.85	2.35611
2655.2	2.58766
2656.56	2.80686
2657.91	2.86589
2659.26	2.97517
2660.62	2.4201
2661.97	2.42741
2663.32	3.03204
2664.68	2.68903
2666.03	2.57863
2667.38	2.55708
2668.74	2.64015
2670.09	2.05946
2671.44	2.46568
2672.79	2.77421
2674.14	3.11866
2675.49	3.30677
2676.84	3.55604
2678.19	3.22855
2679.54	2.96942
2680.89	3.04729
2682.24	3.22031
2683.59	3.05312
2684.94	2.90375
2686.29	2.59981
2687.64	2.97578
2688.99	3.0708
2690.34	3.07902
2691.69	2.93699
2693.03	2.67034
2694.38	3.00872
2695.73	2.79338
2697.08	2.20248
2698.42	2.18028
2699.77	2.42634
2701.12	3.05299
2702.46	3.1741
2703.81	3.43537
2705.15	3.47165
2706.5	3.33139
2707.85	3.57616
2709.19	3.58696
2710.54	3.67415
2711.88	3.58319
2713.22	4.01074
2714.57	4.16956
2715.91	3.87331
2717.26	3.75745
2718.6	4.18273
2719.94	3.99219
2721.29	4.56345
2722.63	4.93615
2723.97	5.2569
2725.31	4.69517
2726.66	4.75113
2728	4.59342
2729.34	4.86807
2730.68	5.08368
2732.02	4.93654
2733.36	4.73136
2734.7	4.97888
2736.04	5.02473
2737.38	4.79622
2738.72	5.33925
2740.06	4.9903
2741.4	4.90951
2742.74	4.67037
2744.08	4.95244
2745.42	4.74678
2746.76	4.95783
2748.09	4.86132
2749.43	5.2257
2750.77	5.30196
2752.11	5.13825
2753.45	5.53376
2754.78	5.08723
2756.12	5.07071
2757.46	4.97423
2758.79	4.31071
2760.13	4.29886
2761.46	3.98948
2762.8	3.27835
2764.14	3.04527
2765.47	3.25305
2766.8	3.21233
2768.14	2.97072
2769.47	2.55338
2770.81	2.82313
2772.14	2.67982
2773.48	2.51309
2774.81	2.60781
2776.14	2.60501
2777.48	2.46023
2778.81	1.88098
2780.14	1.7567
2781.47	1.43243
2782.8	1.6485
2784.14	1.47191
2785.47	1.34568
2786.8	0.986831
2788.13	1.2187
2789.46	1.18349
2790.79	0.676048
2792.12	0.202678
2793.45	0.392084
2794.78	0.721112
2796.11	0.757085
2797.44	0.204069
2798.77	0.238396
2800.1	-0.439825
2801.43	-0.37518
2802.76	-0.466283
2804.09	-0.25759
2805.41	0.209952
2806.74	0.325607
2808.07	0.602616
2809.4	0.911192
2810.72	1.75006
2812.05	1.94063
2813.38	2.50539
2814.71	2.37535
2816.03	2.9272
2817.36	3.22497
2818.68	3.2494
2820.01	3.82295
2821.33	4.01659
2822.66	4.92411
2823.98	5.51828
2825.31	6.10687
2826.63	6.82025
2827.96	7.51006
2829.28	8.61633
2830.6	9.4491
2831.93	10.1783
2833.25	11.0754
2834.57	12.2772
2835.9	13.8331
2837.22	14.9515
2838.54	15.8619
2839.86	17.0313
2841.18	18.1217
2842.5	19.4078
2843.83	20.7931
2845.15	22.513
2846.47	24.1809
2847.79	25.9859
2849.11	27.7161
2850.43	29.0185
2851.75	30.8806
2853.07	32.3209
2854.39	34.3058
2855.71	35.9199
2857.03	37.3563
2858.35	39.6022
2859.66	41.1653
2860.98	42.4926
2862.3	43.7535
2863.62	45.2178
2864.94	47.085
2866.25	48.1444
2867.57	49.7183
2868.89	50.7295
2870.2	52.0337
2871.52	53.2196
2872.84	53.9485
2874.15	54.801
2875.47	56.3664
2876.78	57.4918
2878.1	57.968
2879.41	58.7282
2880.73	59.4849
2882.04	60.1627
2883.36	61.1128
2884.67	61.6611
2885.99	62.9858
2887.3	63.7416
2888.61	65.716
2889.93	66.8267
2891.24	67.5576
2892.55	68.1916
2893.86	69.3732
2895.18	70.9489
2896.49	72.5659
2897.8	74.0557
2899.11	75.7535
2900.42	77.512
2901.73	79.8404
2903.05	81.644
2904.36	83.6509
2905.67	85.7681
2906.98	88.1519
2908.29	91.0015
2909.6	93.3142
2910.91	95.8738
2912.21	98.4042
2913.52	101.029
2914.83	103.285
2916.14	105.736
2917.45	108.053
2918.76	110.506
2920.07	112.824
2921.37	114.667
2922.68	116.57
2923.99	119.247
2925.29	120.548
2926.6	122.265
2927.91	123.755
2929.22	124.611
2930.52	125.165
2931.83	126.19
2933.13	126.672
2934.44	127.106
2935.74	127.924
2937.05	127.445
2938.35	127.365
2939.66	127.188
2940.96	126.784
2942.26	125.79
2943.57	124.659
2944.87	123.702
2946.18	121.853
2947.48	120.456
2948.78	119.161
2950.08	117.406
2951.39	115.886
2952.69	113.825
2953.99	112.325
2955.29	109.123
2956.59	107.308
2957.9	105.161
2959.2	103.263
2960.5	101.329
2961.8	98.7703
2963.1	95.42
2964.4	93.0492
2965.7	90.9178
2967	88.5752
2968.3	85.8543
2969.6	83.3367
2970.9	81.0611
2972.19	78.8646
2973.49	76.0605
2974.79	73.4991
2976.09	71.3865
2977.39	68.8302
2978.68	66.6721
2979.98	64.3274
2981.28	61.9013
2982.58	59.4001
2983.87	57.3967
2985.17	54.828
2986.47	52.6482
2987.76	50.7766
2989.06	48.6551
2990.35	46.4015
2991.65	44.4575
2992.94	42.2273
2994.24	40.0806
2995.53	38.3058
2996.83	36.2285
2998.12	34.0367
2999.42	32.1945
3000.71	30.2455
3002	28.3887
3003.3	27.0597
3004.59	25.1233
3005.88	23.2956
3007.18	22.0134
3008.47	20.5568
3009.76	18.994
3011.05	17.3937
3012.34	16.4633
3013.64	15.3369
3014.93	14.3506
3016.22	13.5651
3017.51	12.6885
3018.8	12.018
3020.09	11.1391
3021.38	10.8111
3022.67	9.58952
3023.96	9.19777
3025.25	8.49717
3026.54	7.9665
3027.83	7.66973
3029.12	7.66627
3030.41	7.85666
3031.69	7.62707
3032.98	7.47345
3034.27	7.37425
3035.56	7.8241
3036.84	8.30278
3038.13	8.33252
3039.42	8.64198
3040.71	8.58166
3041.99	9.24495
3043.28	9.36067
3044.57	9.16416
3045.85	8.93357
3047.14	8.75663
3048.42	8.60994
3049.71	8.39646
3050.99	8.43605
3052.28	8.42418
3053.56	8.7919
3054.85	8.72972
3056.13	8.20075
3057.41	8.16212
3058.7	7.89892
3059.98	7.13601
3061.26	6.84135
3062.55	6.88918
3063.83	6.277
3065.11	5.98685
3066.39	5.83855
3067.68	4.97533
3068.96	4.82699
3070.24	4.58095
3071.52	4.34906
3072.8	3.72269
3074.08	3.34175
3075.36	3.04225
3076.65	3.14152
3077.93	3.06399
3079.21	2.58675
3080.49	2.5189
3081.77	2.29631
3083.04	2.08405
3084.32	1.56299
3085.6	1.44118
3086.88	1.71741
3088.16	1.68747
3089.44	1.67191
3090.72	1.58308
3091.99	1.70252
3093.27	1.72462
3094.55	2.06298
3095.83	1.66664
3097.1	1.35367
3098.38	1.27971
3099.66	1.32866
3100.93	1.23149
3102.21	0.646248
3103.49	0.788913
3104.76	1.08506
3106.04	1.26352
3107.31	0.817952
3108.59	1.10976
3109.86	0.929217
3111.14	1.1356
3112.41	1.0051
3113.69	1.55251
3114.96	2.03737
3116.23	2.46946
3117.51	2.94239
3118.78	2.76693
3120.05	3.05192
3121.33	3.09196
3122.6	2.71969
3123.87	2.44419
3125.14	3.01014
3126.41	2.82411
3127.69	2.68904
3128.96	3.09233
3130.23	3.32237
3131.5	3.3524
3132.77	3.87292
3134.04	3.61805
3135.31	3.67247
3136.58	3.87937
3137.85	4.20134
3139.12	4.27806
3140.39	4.2601
3141.66	3.93191
3142.93	3.69826
3144.2	3.32076
3145.47	2.75989
3146.74	2.1545
3148	1.47775
3149.27	-0.320263
