#Acq. time (s)=	45
#Accumulations=	2
#Range (cm-¹)=	200...3150
#Windows=	2
#Auto scanning=	Off
#Autofocus=	Off
#Macrospot=	Off
#AutoExposure=	Off
#Spike filter=	Multiple accum.
#Delay time (s)=	0
#Binning=	1
#Readout mode=	Signal
#DeNoise=	Off
#ICS correction=	On
#Dark correction=	Off
#Inst. Process=	Off
#Detector Gain=	Best Dynamic Range
#Detector ADC=	20 kHz       
#Detector temperature (°C)=	-69.85
#Instrument=	LabRAM HR Evol
#Detector=	Synapse
#Objective=	x100
#Grating=	600 gr/mm
#ND Filter=	100%
#Laser (nm)=	532 
#Hole=	100.021
#Range=	Auto
#Laser Pol.=	No
#Raman. Pol.=	No
#Laser Pol. (°)=	-0.0007625
#Raman Pol. (°)=	89.9995
#Collection=	Microscope
#StageXY=	Marzhauser
#StageZ=	Marzhauser
#X (µm)=	28068.1
#Y (µm)=	-550.7
#Z (µm)=	1083.45
#Full time(mm:ss)=	3:19
#Project=	
#Sample=	
#Site=	
#Title=	Mb_30_27_05_2x_45s_532 nm_x100_100%_600 gr_mm
#Remark=	
#Date=	12.07.2022 15:48
#Acquired=	12.07.2022 15:48:26
#Base:Fit=	10.08.2022 10:39:47
#Base:Sub=	10.08.2022 10:39:55
#Base:Fit=	10.08.2022 10:40:03
#Base:Sub=	10.08.2022 10:40:17
#Filter:Polynom=	16.08.2022 10:16:15
#AxisType[0]=Intens
#AxisUnit[0]=Cnt
#AxisType[1]=Spectr
#AxisUnit[1]=1/cm
200.388	3.83705
202.204	10.1358
204.019	12.5519
205.832	14.8881
207.646	17.2676
209.459	19.1996
211.274	21.1799
213.087	22.7299
214.899	22.7705
216.711	23.6752
218.524	23.5279
220.335	22.4643
222.146	22.4928
223.956	22.7866
225.766	21.9986
227.576	22.2488
229.388	21.5528
231.197	21.0968
233.005	21.8138
234.813	21.4567
236.621	21.9523
238.429	22.5182
240.236	21.613
242.045	21.0824
243.852	20.6984
245.658	20.7602
247.464	19.9759
249.269	18.6032
251.074	17.3265
252.879	17.6542
254.683	18.3904
256.487	19.343
258.291	19.7926
260.094	20.6105
261.897	20.7337
263.702	20.9349
265.504	20.8341
267.306	21.0617
269.108	20.8987
270.909	21.1056
272.71	21.4511
274.511	22.1446
276.311	21.1883
278.111	20.8278
279.91	20.4557
281.709	20.9353
283.508	21.1911
285.306	20.6174
287.105	19.8203
288.9	19.573
290.698	20.0534
292.495	19.1469
294.291	20.074
296.088	19.1683
297.884	18.5511
299.679	17.9123
301.475	17.8629
303.27	16.6436
305.064	16.3396
306.858	16.2389
308.652	14.7898
310.444	14.4637
312.237	14.5814
314.03	13.5461
315.822	13.6703
317.615	14.0501
319.406	14.5529
321.198	14.1485
322.987	14.1294
324.778	13.2906
326.568	13.765
328.358	13.3864
330.148	12.3539
331.935	12.3647
333.724	12.5331
335.513	12.985
337.301	13.6815
339.089	14.1513
340.875	13.8312
342.662	13.659
344.449	14.2467
346.236	14.1532
348.02	13.6561
349.806	13.5663
351.592	13.3442
353.375	13.1048
355.16	12.4933
356.944	12.8655
358.728	11.8179
360.51	10.8302
362.294	10.1334
364.077	9.34205
365.858	8.71251
367.64	9.19946
369.422	9.28472
371.202	9.12498
372.983	8.04651
374.764	8.1876
376.543	8.32203
378.324	8.24443
380.102	8.73043
381.881	7.89877
383.661	8.02337
385.438	7.60551
387.216	7.66609
388.993	8.08898
390.771	8.61002
392.548	7.74269
394.324	7.34255
396.101	6.45724
397.875	6.62625
399.651	6.95928
401.425	6.91519
403.201	6.44437
404.974	7.20757
406.749	6.49811
408.524	5.83102
410.296	4.31469
412.07	5.07633
413.841	5.53156
415.614	6.03226
417.385	6.13797
419.156	5.64483
420.928	5.66985
422.698	7.1222
424.469	7.33003
426.238	7.42747
428.009	6.84284
429.777	5.82404
431.548	5.95232
433.315	5.63409
435.083	5.01768
436.852	4.34755
438.618	4.02736
440.387	3.29026
442.153	2.48604
443.919	1.76188
445.686	2.51493
447.451	1.97438
449.218	2.84707
450.982	2.74721
452.746	2.91773
454.512	3.54459
456.275	4.61722
458.038	5.07299
459.803	5.31293
461.565	5.37807
463.327	6.23071
465.091	6.29921
466.852	6.41287
468.613	6.89388
470.374	7.42685
472.136	7.92258
473.896	8.53041
475.655	9.4276
477.415	10.6149
479.176	11.1149
480.934	11.5119
482.692	11.5282
484.45	11.6107
486.21	12.1421
487.967	12.8387
489.724	12.4362
491.481	13.5293
493.237	15.2673
494.995	15.9025
496.75	17.2164
498.506	18.2244
500.26	18.7672
502.015	18.736
503.771	18.7581
505.525	19.8909
507.279	19.6717
509.032	20.034
510.785	19.671
512.537	18.4423
514.289	18.3088
516.041	17.1866
517.793	16.9757
519.546	16.4112
521.297	16.1078
523.047	15.5779
524.797	15.6637
526.547	15.2214
528.297	15.5911
530.046	15.967
531.795	16.0304
533.543	16.1669
535.291	14.9801
537.039	14.9433
538.787	13.4435
540.534	13.2985
542.281	12.7385
544.027	12.8226
545.773	11.6307
547.519	11.7912
549.264	11.6379
551.01	11.5639
552.754	11.6316
554.499	11.2779
556.243	10.5756
557.987	10.7803
559.73	9.65187
561.474	9.73071
563.216	9.9355
564.959	9.86387
566.701	9.79661
568.441	7.49315
570.182	6.81599
571.923	6.69546
573.664	7.03417
575.405	6.99937
577.145	6.30073
578.885	7.1618
580.624	6.59575
582.361	5.74244
584.1	5.55303
585.839	5.18541
587.577	4.96853
589.315	5.87243
591.052	6.06708
592.787	7.04473
594.524	6.14941
596.26	5.89388
597.997	6.03515
599.732	6.131
601.466	6.2559
603.201	6.53246
604.936	7.28954
606.67	7.21065
608.403	7.49371
610.136	7.93911
611.87	9.14583
613.603	9.23858
615.334	10.1873
617.067	9.43186
618.799	8.93349
620.529	9.50354
622.26	9.11974
623.991	9.66007
625.72	9.72091
627.451	10.3251
629.181	11.0109
630.909	11.7485
632.638	12.1671
634.368	13.2679
636.095	12.9983
637.823	12.9414
639.551	13.2754
641.277	12.4055
643.005	12.4562
644.73	12.9515
646.457	12.9773
648.184	14.3803
649.908	15.3703
651.634	15.4398
653.357	15.1242
655.083	13.9555
656.806	15.4667
658.53	15.4227
660.253	16.1651
661.977	16.304
663.7	16.5239
665.422	16.7002
667.145	16.9018
668.865	17.4054
670.588	18.1725
672.308	19.2739
674.027	19.849
675.749	20.6919
677.468	20.8389
679.188	20.6456
680.907	20.3233
682.627	21.8288
684.345	22.8481
686.064	22.9001
687.781	23.8484
689.498	24.0468
691.216	24.1012
692.932	25.3365
694.65	26.2026
696.366	27.1686
698.081	27.9571
699.797	28.9553
701.512	29.8455
703.228	30.2172
704.942	31.0917
706.655	32.994
708.371	33.1975
710.083	33.5112
711.796	34.1592
713.51	35.8971
715.222	36.0146
716.934	35.6977
718.645	36.2195
720.358	35.782
722.068	35.9426
723.779	36.5285
725.49	37.9901
727.2	38.0938
728.909	39.9548
730.618	40.6215
732.329	41.0761
734.037	41.8811
735.745	42.4452
737.453	42.8542
739.16	44.1893
740.869	44.954
742.576	46.4434
744.282	47.2166
745.988	48.4703
747.694	49.4753
749.401	50.6628
751.107	52.5725
752.811	54.9843
754.516	56.6139
756.22	58.677
757.924	60.4297
759.627	61.5254
761.332	62.8071
763.035	63.3773
764.738	64.906
766.44	67.1147
768.142	68.827
769.843	69.9406
771.544	70.5013
773.245	71.7635
774.946	72.4607
776.646	73.9342
778.346	75.3521
780.046	75.9039
781.745	77.0835
783.444	77.5929
785.143	77.7778
786.841	78.66
788.539	79.1641
790.237	80.2444
791.934	81.0812
793.631	80.6288
795.328	81.3151
797.024	81.8162
798.72	81.4107
800.416	80.7452
802.112	79.8535
803.807	80.2731
805.502	80.3428
807.196	81.4138
808.89	80.9677
810.584	81.1803
812.278	80.2727
813.971	80.5288
815.664	79.543
817.354	79.7813
819.047	80.4123
820.739	81.4201
822.43	81.2846
824.122	82.0918
825.813	81.9208
827.503	81.8084
829.192	81.4055
830.882	81.9765
832.571	82.101
834.261	81.7675
835.95	82.1425
837.637	81.3507
839.325	80.4556
841.013	80.3301
842.701	79.3296
844.389	78.0936
846.074	77.2958
847.761	75.5863
849.447	75.5781
851.131	74.2559
852.817	73.1118
854.503	72.5636
856.188	70.7463
857.871	69.7356
859.556	69.5282
861.24	68.8458
862.922	67.4342
864.606	66.7169
866.289	65.8758
867.97	64.6653
869.653	64.1934
871.336	63.7236
873.016	62.626
874.698	63.078
876.379	62.2399
878.058	61.9945
879.739	62.0088
881.418	60.2905
883.098	59.8325
884.778	59.6439
886.456	58.4734
888.135	58.7135
889.812	58.2576
891.49	57.0644
893.167	56.2444
894.845	56.548
896.523	56.4608
898.198	56.2996
899.875	55.4831
901.55	55.6178
903.226	56.1782
904.901	56.2869
906.576	55.5145
908.25	55.8387
909.925	55.8373
911.598	55.218
913.271	55.0589
914.945	55.6007
916.617	55.6275
918.291	54.6836
919.962	54.6853
921.635	53.2836
923.306	52.654
924.978	51.796
926.648	50.6664
928.318	49.9315
929.989	49.0161
931.659	47.6815
933.328	47.5512
934.998	46.2948
936.666	45.0271
938.336	44.3045
940.004	43.3978
941.671	42.7843
943.34	41.9884
945.007	40.6969
946.673	40.0667
948.339	40.2659
950.007	39.9084
951.672	39.1968
953.337	39.6769
955.004	40.0465
956.669	40.7265
958.333	40.1193
959.997	38.985
961.662	38.8738
963.326	38.8375
964.989	37.5961
966.651	38.2206
968.315	37.5098
969.977	37.1175
971.639	36.2255
973.301	36.1159
974.962	36.253
976.624	36.7568
978.285	35.9886
979.945	35.3125
981.605	34.5584
983.264	34.7651
984.924	35.725
986.583	36.1547
988.243	33.1907
989.901	31.2624
991.56	29.9925
993.217	30.7598
994.875	29.7148
996.532	30.0946
998.188	30.8642
999.845	30.8287
1001.5	31.3975
1003.16	31.1995
1004.81	31.7734
1006.47	33.6408
1008.12	34.7968
1009.78	37.2955
1011.43	39.1283
1013.09	41.3887
1014.74	44.2489
1016.39	46.9048
1018.05	48.6671
1019.7	50.3637
1021.35	53.0105
1023	55.618
1024.65	57.2204
1026.31	58.9584
1027.96	60.7201
1029.61	62.1905
1031.26	63.2955
1032.91	64.0175
1034.56	64.3879
1036.21	65.3201
1037.86	65.3186
1039.51	64.4313
1041.16	64.317
1042.8	64.0096
1044.45	63.5667
1046.1	61.9906
1047.75	60.0116
1049.39	58.3978
1051.04	56.1076
1052.69	53.3675
1054.33	50.7765
1055.98	49.513
1057.62	46.9778
1059.27	44.1771
1060.91	41.1097
1062.56	38.3749
1064.2	35.2908
1065.85	33.2484
1067.49	29.8656
1069.13	25.008
1070.77	20.7003
1072.42	19.5328
1074.06	18.1315
1075.7	18.6188
1077.34	16.3841
1078.98	16.0331
1080.62	15.3289
1082.27	14.245
1083.91	14.4389
1085.55	13.6191
1087.18	15.1494
1088.82	16.2146
1090.46	17.3381
1092.1	18.9782
1093.74	19.4479
1095.38	19.977
1097.02	19.8049
1098.65	20.3494
1100.29	20.5764
1101.93	21.2665
1103.56	21.5641
1105.2	21.2284
1106.84	20.9396
1108.47	21.5046
1110.11	22.0835
1111.74	22.574
1113.38	22.5199
1115.01	22.5336
1116.64	22.4989
1118.28	22.5214
1119.91	21.9526
1121.54	21.1524
1123.18	21.4259
1124.81	20.181
1126.44	19.9155
1128.07	18.7105
1129.7	17.5737
1131.33	16.8258
1132.97	16.5043
1134.6	15.9891
1136.23	15.7018
1137.86	14.7166
1139.49	14.046
1141.11	13.3129
1142.74	12.3178
1144.37	11.4746
1146	10.7133
1147.63	9.48354
1149.26	7.86488
1150.88	6.3444
1152.51	6.22206
1154.14	5.53016
1155.76	4.41693
1157.39	4.10785
1159.01	2.55955
1160.64	2.39495
1162.27	1.8734
1163.89	1.20951
1165.51	1.73804
1167.14	2.34454
1168.76	2.36946
1170.39	1.71683
1172.01	1.70601
1173.63	1.04249
1175.25	-0.297632
1176.88	-0.554025
1178.5	0.289811
1180.12	0.0180273
1181.74	-0.196845
1183.36	0.123985
1184.98	0.267747
1186.6	1.32684
1188.22	2.14041
1189.84	2.67426
1191.46	3.25649
1193.08	3.19422
1194.7	3.77077
1196.32	3.943
1197.94	4.96347
1199.55	5.81813
1201.17	6.68792
1202.79	8.0274
1204.41	8.96882
1206.02	9.51683
1207.64	10.5355
1209.25	11.0698
1210.87	12.5209
1212.48	14.2419
1214.1	16.3893
1215.71	18.5461
1217.33	20.4286
1218.94	21.9637
1220.56	24.3747
1222.17	25.2325
1223.79	26.5143
1225.4	27.3315
1227.01	28.8058
1228.62	29.722
1230.23	31.6522
1231.85	32.8663
1233.46	34.691
1235.07	35.4798
1236.68	36.3561
1238.29	38.2872
1239.9	39.4963
1241.51	40.5527
1243.12	41.9157
1244.73	43.1043
1246.34	44.7981
1247.94	45.2718
1249.55	45.1299
1251.16	46.3893
1252.77	47.5199
1254.37	46.9768
1255.98	46.9885
1257.59	48.3556
1259.2	48.3511
1260.8	48.5675
1262.41	49.7612
1264.01	49.932
1265.62	50.5648
1267.22	51.1516
1268.83	51.1303
1270.43	52.0094
1272.03	52.1542
1273.64	52.5732
1275.24	53.3881
1276.85	53.6916
1278.45	53.8601
1280.05	54.2907
1281.65	55.4031
1283.25	56.6566
1284.85	57.3653
1286.46	58.9382
1288.06	59.399
1289.66	59.9601
1291.26	61.1259
1292.86	61.6898
1294.46	62.7863
1296.06	63.6236
1297.66	63.9901
1299.25	63.2881
1300.85	62.5018
1302.45	61.8974
1304.05	61.828
1305.65	61.3417
1307.24	61.7456
1308.84	61.9107
1310.43	62.7001
1312.03	61.8323
1313.63	61.9001
1315.22	61.2435
1316.82	60.5826
1318.41	60.1669
1320.01	59.4224
1321.6	59.0845
1323.2	59.548
1324.79	58.8839
1326.38	57.9602
1327.98	56.8797
1329.57	55.3862
1331.16	54.0571
1332.76	51.7402
1334.35	49.597
1335.94	49.0896
1337.53	47.78
1339.12	46.5166
1340.71	45.8079
1342.3	43.9354
1343.89	42.8354
1345.48	42.155
1347.07	41.4058
1348.66	40.1268
1350.25	39.1823
1351.84	37.7947
1353.43	38.2762
1355.01	37.2395
1356.6	37.0898
1358.19	35.9969
1359.77	35.9581
1361.36	35.0241
1362.95	34.2309
1364.53	33.1668
1366.12	32.4271
1367.71	30.6372
1369.29	30.1674
1370.88	29.6172
1372.46	28.6808
1374.04	27.5977
1375.63	26.7189
1377.21	25.1965
1378.8	23.7448
1380.38	22.745
1381.96	22.3662
1383.54	22.0899
1385.13	22.1829
1386.71	23.1491
1388.29	22.7196
1389.87	21.8096
1391.45	20.9092
1393.03	21.2232
1394.61	20.2749
1396.19	19.9989
1397.77	19.3675
1399.35	19.3754
1400.93	19.1323
1402.51	19.011
1404.09	18.0973
1405.67	18.3072
1407.24	18.8341
1408.82	19.3765
1410.4	20.1972
1411.98	21.0856
1413.55	22.163
1415.13	23.6494
1416.71	24.0203
1418.28	26.3113
1419.86	27.8515
1421.43	28.9283
1423.01	30.9686
1424.58	33.4335
1426.16	35.7511
1427.73	37.4873
1429.31	40.1053
1430.88	42.6001
1432.45	45.0372
1434.02	46.0512
1435.6	48.4656
1437.17	49.5049
1438.74	52.5149
1440.31	53.9882
1441.88	55.7434
1443.45	56.5873
1445.03	56.6275
1446.6	57.2403
1448.17	57.6097
1449.74	58.1724
1451.3	58.5502
1452.87	58.6823
1454.44	58.7673
1456.01	58.7943
1457.58	59.3369
1459.15	59.4964
1460.72	59.7192
1462.28	60.5371
1463.85	61.0428
1465.42	60.5607
1466.98	58.8643
1468.55	59.0836
1470.12	58.3814
1471.68	57.0401
1473.25	55.8576
1474.81	54.3344
1476.38	51.875
1477.94	51.4725
1479.51	50.0565
1481.07	48.6057
1482.63	48.3929
1484.2	47.9185
1485.76	46.4798
1487.32	45.3991
1488.88	43.3296
1490.45	41.8621
1492.01	39.9307
1493.57	37.5792
1495.13	36.5038
1496.69	35.6244
1498.25	33.5449
1499.81	32.1409
1501.37	31.2444
1502.93	30.4232
1504.49	29.0703
1506.05	28.2274
1507.61	27.7293
1509.17	26.6918
1510.73	25.6917
1512.28	24.1524
1513.84	23.054
1515.4	22.1019
1516.96	20.6905
1518.51	17.9053
1520.07	16.036
1521.63	14.7963
1523.18	13.5146
1524.74	13.0674
1526.29	12.822
1527.85	12.7276
1529.4	12.3158
1530.96	12.0613
1532.51	12.5977
1534.06	13.9504
1535.62	14.8206
1537.17	15.9508
1538.72	16.7949
1540.28	17.8061
1541.83	18.6083
1543.38	19.038
1544.93	20.0729
1546.48	20.7565
1548.03	20.7242
1549.59	21.7496
1551.14	22.656
1552.69	23.5003
1554.24	23.9745
1555.79	25.1797
1557.34	25.265
1558.88	25.4233
1560.43	26.2503
1561.98	26.4995
1563.53	26.201
1565.08	26.8357
1566.62	26.9698
1568.17	27.7493
1569.72	28.3955
1571.27	29.2701
1572.81	30.542
1574.36	30.8582
1575.9	31.4885
1577.45	32.3121
1579	32.8657
1580.54	33.044
1582.09	33.7994
1583.63	33.6779
1585.17	34.4317
1586.72	34.9916
1588.26	35.0004
1589.8	34.7986
1591.35	35.91
1592.89	36.2404
1594.43	35.9301
1595.97	35.9113
1597.52	35.9148
1599.06	36.6682
1600.6	36.1933
1602.14	36.7486
1603.68	36.9155
1605.22	37.0262
1606.76	37.4395
1608.3	37.8349
1609.84	39.2598
1611.38	39.9026
1612.92	40.4712
1614.46	41.9444
1615.99	42.9922
1617.53	44.0732
1619.07	45.1463
1620.61	46.2449
1622.14	47.2243
1623.68	47.3422
1625.22	48.2255
1626.75	49.5296
1628.29	50.2403
1629.82	51.2438
1631.36	52.169
1632.9	54.5521
1634.43	56.7501
1635.96	58.9052
1637.5	61.5692
1639.03	63.6529
1640.57	65.2441
1642.1	67.5661
1643.63	69.2821
1645.16	70.7605
1646.7	71.8968
1648.23	72.2414
1649.76	73.4228
1651.29	74.6138
1652.82	76.1994
1654.36	76.8942
1655.89	76.8676
1657.42	77.0322
1658.95	76.7054
1660.48	76.174
1662.01	76.5466
1663.53	75.703
1665.06	74.0788
1666.59	73.5724
1668.12	72.3255
1669.65	69.9924
1671.18	67.8253
1672.7	66.113
1674.23	64.245
1675.76	61.6356
1677.29	58.507
1678.81	56.1897
1680.34	53.2482
1681.86	51.4725
1683.39	49.139
1684.91	46.8793
1686.44	44.6586
1687.96	41.6751
1689.49	39.1419
1691.01	36.3283
1692.54	33.5948
1694.06	30.0805
1695.58	27.7999
1697.11	25.3324
1698.63	23.0146
1700.15	20.564
1701.67	18.8255
1703.2	18.0647
1704.72	17.2264
1706.24	16.8082
1707.76	15.638
1709.28	15.2341
1710.8	14.2424
1712.32	12.9613
1713.84	11.9416
1715.36	10.7002
1716.88	10.471
1718.4	9.87099
1719.91	9.55202
1721.43	8.76469
1722.95	8.41652
1724.47	7.6375
1725.99	8.03654
1727.5	7.72599
1729.02	7.59002
1730.54	6.90041
1732.05	5.88077
1733.57	5.43871
1735.09	4.93444
1736.6	4.92172
1738.12	4.63959
1739.63	4.5886
1741.15	4.87892
1742.66	5.23637
1744.18	4.09158
1745.69	3.8747
1747.2	4.1582
1748.72	4.09532
1750.23	3.69268
1751.74	3.16052
1753.25	3.31285
1754.77	3.53569
1756.28	3.46276
1757.79	3.69516
1759.3	3.02463
1760.81	2.39338
1762.32	2.02563
1763.83	1.59844
1765.34	1.387
1766.85	0.815439
1768.36	0.577133
1769.87	0.164007
1771.38	0.577572
1772.89	0.248076
1774.4	0.0184201
1775.91	-0.281095
1777.41	-0.487298
1778.92	-0.347894
1780.43	-0.533686
1781.94	-0.68381
1783.44	-0.895608
1784.95	0.104945
1786.45	0.237236
1787.96	-0.0640759
1789.47	0.0827577
1790.97	0.0563192
1792.48	0.343848
1793.98	-0.0566723
1795.48	0.240435
1796.99	0.210374
1798.49	0.296221
1800	0.410735
1801.5	0.608412
1803	0.827767
1804.51	0.898284
1806.01	0.701742
1807.51	0.114242
1809.01	1.0007
1810.51	1.48372
1812.02	1.39723
1813.52	1.59604
1815.02	2.00704
1816.52	2.47147
1818.02	2.75425
1819.52	3.11196
1821.02	3.95193
1822.52	4.76017
1824.02	4.84099
1825.51	5.58575
1827.01	5.6821
1828.51	5.85123
1830.01	5.75135
1831.51	6.1344
1833	6.66068
1834.5	7.01404
1836	7.2152
1837.5	7.01475
1838.99	6.78802
1840.49	6.51707
1841.98	6.29971
1843.48	6.54603
1844.97	6.3313
1846.47	6.10248
1847.96	6.10486
1849.46	6.08127
1850.95	5.88591
1852.45	5.77137
1853.94	6.11826
1855.43	6.23543
1856.92	6.3659
1858.42	6.7573
1859.91	7.06407
1861.4	6.74213
1862.89	6.89531
1864.39	6.80465
1865.88	6.70014
1867.37	6.54125
1868.86	6.40919
1870.35	6.81141
1871.84	5.95341
1873.33	5.50693
1874.82	5.4372
1876.31	5.08625
1877.8	5.06851
1879.29	5.32063
1880.77	5.112
1882.26	5.30604
1882.51	5.66148
1884	5.0926
1885.5	4.99104
1886.99	5.33292
1888.48	5.71571
1889.98	6.25532
1891.47	6.25462
1892.97	5.67326
1894.46	5.27775
1895.95	5.32112
1897.44	5.05722
1898.93	5.25647
1900.42	4.84409
1901.92	4.81855
1903.41	4.45829
1904.9	4.77379
1906.39	4.2502
1907.88	3.704
1909.37	2.89489
1910.86	2.15284
1912.35	1.70111
1913.84	1.53075
1915.32	1.78519
1916.81	1.82272
1918.3	1.43672
1919.79	1.59204
1921.28	1.83614
1922.76	2.16843
1924.25	1.71508
1925.74	1.65843
1927.22	1.84389
1928.71	1.90108
1930.2	1.7403
1931.68	2.13589
1933.17	1.849
1934.65	1.68268
1936.14	1.59731
1937.62	1.07574
1939.11	1.81369
1940.59	1.84734
1942.08	1.79876
1943.56	1.72783
1945.04	1.29893
1946.53	1.44035
1948.01	1.1657
1949.49	1.15603
1950.97	1.41944
1952.45	1.72488
1953.94	1.49284
1955.42	1.84588
1956.9	2.44128
1958.38	2.62764
1959.86	2.53886
1961.34	2.90992
1962.82	2.70892
1964.3	2.84422
1965.78	2.73211
1967.26	2.99219
1968.74	3.56661
1970.22	4.29672
1971.69	4.47122
1973.17	5.13847
1974.65	5.30505
1976.13	5.63979
1977.61	5.35042
1979.08	5.19885
1980.56	5.0594
1982.03	5.0018
1983.51	4.76568
1984.99	4.43426
1986.46	4.64162
1987.94	5.56669
1989.41	5.97104
1990.89	6.55114
1992.36	7.36774
1993.84	7.81627
1995.31	8.29359
1996.78	8.69208
1998.26	8.29877
1999.73	8.84071
2001.2	8.93272
2002.68	8.79664
2004.15	8.65985
2005.62	8.57828
2007.09	8.53414
2008.56	8.87119
2010.04	8.73059
2011.51	8.83166
2012.98	9.22152
2014.45	8.67076
2015.92	8.63573
2017.39	8.50025
2018.86	8.24327
2020.33	7.93206
2021.8	7.84699
2023.27	8.28663
2024.74	8.42492
2026.2	8.12129
2027.67	8.41731
2029.14	8.35093
2030.61	8.85321
2032.07	8.32314
2033.54	8.41736
2035.01	9.09455
2036.47	9.08806
2037.94	9.45845
2039.41	8.97577
2040.87	9.45448
2042.34	9.47174
2043.8	10.0023
2045.27	10.1719
2046.73	10.6271
2048.2	10.2686
2049.66	9.93647
2051.12	9.89238
2052.59	10.0793
2054.05	10.4092
2055.51	10.8359
2056.98	11.377
2058.44	12.0206
2059.9	13.0618
2061.36	13.5515
2062.82	13.7939
2064.29	15.0406
2065.75	15.7611
2067.21	15.5974
2068.67	16.0441
2070.13	16.4139
2071.59	16.6072
2073.05	17.3399
2074.51	17.9868
2075.97	18.7998
2077.43	18.6859
2078.88	18.9325
2080.34	19.6342
2081.8	20.0363
2083.26	20.1663
2084.72	20.4515
2086.17	21.2711
2087.63	21.4734
2089.09	21.7272
2090.54	21.8624
2092	21.7763
2093.46	22.6947
2094.91	23.644
2096.37	24.3622
2097.82	25.2378
2099.28	25.9199
2100.73	26.9686
2102.19	27.686
2103.64	28.8591
2105.09	29.1436
2106.55	29.873
2108	31.2866
2109.46	31.7528
2110.91	32.118
2112.36	32.6698
2113.81	34.3045
2115.27	34.8765
2116.72	36.2395
2118.17	36.9209
2119.62	38.1797
2121.07	39.0309
2122.52	40.7558
2123.97	42.3777
2125.42	43.7186
2126.87	45.3928
2128.32	46.9786
2129.77	48.2195
2131.22	49.5679
2132.67	51.4513
2134.12	53.4516
2135.57	55.3007
2137.01	57.3406
2138.46	59.1653
2139.91	60.7207
2141.36	62.6967
2142.8	65.0783
2144.25	67.5036
2145.7	69.8131
2147.14	71.9202
2148.59	73.2575
2150.03	74.0647
2151.48	76.0834
2152.92	77.5275
2154.37	79.1536
2155.81	80.2688
2157.26	81.8252
2158.7	83.4107
2160.15	84.4438
2161.59	85.9706
2163.03	87.2309
2164.48	88.2579
2165.92	90.2261
2167.36	90.4699
2168.8	91.0383
2170.25	91.4518
2171.69	91.7341
2173.13	91.9225
2174.57	91.8554
2176.01	91.7607
2177.45	91.3572
2178.89	91.3819
2180.33	91.0356
2181.77	89.5126
2183.21	88.4782
2184.65	87.6894
2186.09	86.672
2187.53	85.4484
2188.97	84.2636
2190.41	82.9256
2191.84	81.8046
2193.28	80.0583
2194.72	78.6645
2196.16	77.1018
2197.59	75.0704
2199.03	73.1584
2200.47	70.9531
2201.9	69.0432
2203.34	67.6909
2204.78	66.7733
2206.21	64.9865
2207.65	63.3056
2209.08	61.8241
2210.51	60.4728
2211.95	58.2627
2213.38	56.5198
2214.82	55.3605
2216.25	53.4803
2217.68	51.3578
2219.12	49.5048
2220.55	47.5914
2221.98	45.9176
2223.42	44.8371
2224.85	42.7121
2226.28	40.8346
2227.71	38.9696
2229.14	37.6441
2230.57	36.0084
2232	34.5611
2233.43	33.1643
2234.86	31.3864
2236.29	29.9891
2237.72	29.2157
2239.15	27.4483
2240.58	27.0072
2242.01	25.9441
2243.44	25.3599
2244.87	24.7021
2246.3	24.6616
2247.73	24.0339
2249.15	23.5234
2250.58	22.7618
2252.01	22.0356
2253.43	21.2787
2254.86	20.7688
2256.29	20.8856
2257.71	20.0685
2259.14	19.5626
2260.56	18.9274
2261.99	18.8124
2263.41	18.563
2264.84	18.3244
2266.26	18.0568
2267.69	17.8771
2269.11	17.4245
2270.54	17.3347
2271.96	17.315
2273.38	16.8969
2274.81	16.3493
2276.23	15.5526
2277.65	14.6563
2279.07	14.1452
2280.49	13.5148
2281.92	13.3007
2283.34	12.6003
2284.76	12.3179
2286.18	11.5621
2287.6	11.0791
2289.02	11.0119
2290.44	10.1369
2291.86	9.32631
2293.28	7.97692
2294.7	7.25197
2296.12	6.92227
2297.54	7.14412
2298.96	7.46804
2300.38	7.65217
2301.79	8.05062
2303.21	8.47062
2304.63	8.6878
2306.05	9.04756
2307.46	9.23466
2308.88	9.8943
2310.3	10.38
2311.71	11.0126
2313.13	10.8947
2314.55	11.1787
2315.96	11.6189
2317.38	11.915
2318.79	11.348
2320.21	12.0585
2321.62	11.7173
2323.03	11.9666
2324.45	11.3025
2325.86	11.143
2327.27	10.8802
2328.69	10.5976
2330.1	10.2078
2331.51	9.75347
2332.93	9.47181
2334.34	9.0644
2335.75	8.9261
2337.16	8.46521
2338.57	7.94563
2339.99	7.26927
2341.4	6.35976
2342.81	5.35301
2344.22	4.12389
2345.63	3.76974
2347.04	3.31731
2348.45	3.35375
2349.86	2.926
2351.26	2.61612
2352.67	2.02763
2354.08	0.850584
2355.49	0.537155
2356.9	-0.415228
2358.31	-0.878352
2359.71	-1.61312
2361.12	-2.2691
2362.53	-2.16332
2363.94	-1.59609
2365.34	-0.65898
2366.75	-0.554165
2368.15	-0.699342
2369.56	-0.48615
2370.97	-0.390928
2372.37	-0.513189
2373.78	-0.684886
2375.18	-0.945968
2376.59	-0.766095
2377.99	-0.571375
2379.39	0.293736
2380.8	-0.0704674
2382.2	-0.332173
2383.61	-0.28187
2385.01	-0.0673414
2386.41	0.0206023
2387.81	0.0643515
2389.22	0.0742638
2390.62	0.655165
2392.02	-0.100984
2393.42	-0.0674488
2394.82	0.0361087
2396.22	0.399387
2397.63	0.919543
2399.02	1.69449
2400.43	1.37595
2401.82	1.89829
2403.23	2.88573
2404.62	3.77281
2406.02	4.72126
2407.42	4.92656
2408.82	5.21548
2410.22	5.27612
2411.62	6.1555
2413.02	6.13175
2414.41	6.05511
2415.81	6.86167
2417.21	7.19157
2418.61	7.70667
2420	7.73331
2421.4	8.00889
2422.79	7.79351
2424.19	7.73449
2425.59	7.99706
2426.98	7.44284
2428.38	7.693
2429.77	7.60599
2431.17	7.52091
2432.56	7.58697
2433.96	7.33581
2435.35	7.12238
2436.74	6.76397
2438.14	6.9455
2439.53	6.76267
2440.92	6.12522
2442.32	5.70957
2443.71	5.57283
2445.1	5.53538
2446.49	5.4107
2447.88	5.31855
2449.28	4.91032
2450.67	4.43097
2452.06	4.57331
2453.45	4.00798
2454.84	3.49219
2456.23	2.93823
2457.62	2.82856
2459.01	2.36587
2460.4	1.89782
2461.79	1.32561
2463.18	1.34055
2464.57	1.39988
2465.96	1.82684
2467.34	2.49202
2468.73	2.61314
2470.12	2.0439
2471.51	2.69623
2472.89	2.86904
2474.28	2.75669
2475.67	2.60874
2477.05	2.4988
2478.44	2.33016
2479.83	2.24085
2481.21	2.64722
2482.6	2.29897
2483.98	2.28611
2485.37	2.581
2486.75	2.29038
2488.14	2.42398
2489.52	2.13875
2490.9	1.89144
2492.29	1.59133
2493.67	1.60427
2495.06	1.97684
2496.44	1.78208
2497.82	1.79395
2499.2	1.909
2500.59	1.90037
2501.97	1.94593
2503.35	2.01654
2504.73	2.14968
2506.11	2.39149
2507.49	2.10942
2508.88	1.68906
2510.26	1.49411
2511.63	1.98438
2513.01	2.16982
2514.39	1.80385
2515.77	1.81407
2517.15	1.77583
2518.53	1.60898
2519.91	1.87744
2521.29	1.95729
2522.67	1.56442
2524.05	1.62191
2525.42	1.19875
2526.8	0.665199
2528.18	0.345144
2529.56	0.50718
2530.93	0.883025
2532.31	0.844289
2533.69	0.964489
2535.06	1.27047
2536.44	0.883781
2537.81	0.848727
2539.19	0.876674
2540.56	1.33791
2541.94	1.14461
2543.31	1.31907
2544.69	0.916695
2546.06	1.23145
2547.44	0.989203
2548.81	1.70977
2550.18	1.48103
2551.56	1.09914
2552.93	0.835524
2554.3	0.940772
2555.68	0.817785
2557.05	1.15059
2558.42	0.437624
2559.79	0.51484
2561.16	0.758033
2562.53	0.882304
2563.9	1.18747
2565.28	1.0362
2566.64	1.80704
2568.02	2.09942
2569.38	2.45912
2570.76	2.69257
2572.12	3.21844
2573.49	3.16785
2574.86	3.83732
2576.23	3.78973
2577.6	3.99115
2578.97	4.34
2580.34	4.93233
2581.7	4.63304
2583.07	4.71006
2584.44	5.72508
2585.81	5.7566
2587.17	6.12819
2588.54	6.44972
2589.91	6.70171
2591.27	6.38688
2592.64	6.27498
2594	5.88369
2595.37	5.83317
2596.73	6.20038
2598.1	6.32177
2599.46	6.2245
2600.83	6.1632
2602.19	5.91962
2603.55	6.06725
2604.92	5.72399
2606.28	5.68861
2607.64	5.38105
2609.01	5.10655
2610.37	4.79551
2611.73	4.218
2613.09	3.94742
2614.46	4.2277
2615.82	3.72169
2617.18	3.81101
2618.54	2.65503
2619.9	2.50394
2621.26	2.75436
2622.62	2.43333
2623.98	2.83331
2625.34	3.1231
2626.7	2.59134
2628.06	3.03628
2629.42	3.23733
2630.78	3.09588
2632.14	3.66438
2633.5	3.6198
2634.86	3.48805
2636.22	3.34955
2637.57	3.50688
2638.93	2.81237
2640.29	2.94914
2641.64	2.99144
2643	3.65313
2644.36	3.51736
2645.72	3.62635
2647.07	3.74426
2648.43	4.13045
2649.78	4.04494
2651.14	4.46607
2652.49	4.85146
2653.85	4.71955
2655.2	4.97672
2656.56	5.29534
2657.91	5.61001
2659.27	5.32674
2660.62	5.5294
2661.97	5.3099
2663.33	5.13977
2664.68	5.71634
2666.03	5.54383
2667.38	5.49035
2668.74	5.10659
2670.09	4.3895
2671.44	4.24117
2672.79	3.82744
2674.14	3.88782
2675.49	3.99255
2676.84	3.74149
2678.2	3.44656
2679.55	3.56333
2680.89	3.65753
2682.24	3.47352
2683.59	3.30088
2684.94	3.6596
2686.29	3.97782
2687.64	4.47433
2688.99	4.40568
2690.34	4.25629
2691.69	4.06931
2693.04	3.62757
2694.38	3.18171
2695.73	3.15139
2697.08	2.64844
2698.43	2.33766
2699.77	2.19211
2701.12	2.07779
2702.46	2.39208
2703.81	2.74453
2705.16	2.73911
2706.5	2.89477
2707.85	3.27193
2709.19	3.99482
2710.54	4.59647
2711.88	4.51407
2713.23	4.76475
2714.57	4.89432
2715.92	5.72426
2717.26	5.84083
2718.6	6.80357
2719.95	7.09984
2721.29	7.71732
2722.63	8.05262
2723.97	8.24472
2725.32	8.0295
2726.66	7.49036
2728	7.32778
2729.34	7.10252
2730.68	7.44195
2732.02	7.79977
2733.36	6.95437
2734.7	7.13966
2736.04	7.3476
2737.39	7.49081
2738.72	8.03596
2740.06	7.76103
2741.4	7.59942
2742.74	7.70162
2744.08	7.29593
2745.42	7.07202
2746.76	7.04956
2748.1	6.57874
2749.44	6.38652
2750.77	6.01076
2752.11	5.79658
2753.45	5.30421
2754.78	4.30266
2756.12	3.4963
2757.46	3.33349
2758.79	3.00173
2760.13	3.26694
2761.47	2.63373
2762.8	2.33783
2764.14	1.95417
2765.47	1.74206
2766.81	1.73853
2768.14	2.04015
2769.48	1.90119
2770.81	2.01894
2772.14	2.01961
2773.48	2.69581
2774.81	2.63609
2776.14	2.88336
2777.48	3.34067
2778.81	3.32108
2780.14	3.48741
2781.47	3.73925
2782.81	3.67611
2784.14	3.41982
2785.47	3.04637
2786.8	2.0922
2788.13	1.97183
2789.46	1.39696
2790.79	1.27632
2792.12	1.08144
2793.46	1.08131
2794.79	1.8799
2796.11	2.39994
2797.44	2.80675
2798.77	2.64242
2800.1	2.84476
2801.43	3.27921
2802.76	2.88814
2804.09	2.36546
2805.42	2.41023
2806.74	1.83273
2808.07	1.67878
2809.4	1.82933
2810.73	1.17163
2812.05	1.50132
2813.38	1.67614
2814.71	1.55982
2816.03	2.32913
2817.36	2.59035
2818.68	3.27154
2820.01	4.04297
2821.33	4.75926
2822.66	6.10327
2823.98	7.18968
2825.31	8.65196
2826.63	10.1326
2827.96	11.0215
2829.28	12.6863
2830.61	14.6553
2831.93	16.296
2833.25	18.511
2834.57	20.8128
2835.9	22.8449
2837.22	25.2584
2838.54	27.9285
2839.86	30.8827
2841.18	32.4996
2842.51	35.7102
2843.83	39.2367
2845.15	42.1419
2846.47	45.6071
2847.79	49.0408
2849.11	52.5035
2850.43	56.369
2851.75	59.6127
2853.07	63.9561
2854.39	68.2504
2855.71	72.5705
2857.03	76.4897
2858.35	80.3801
2859.67	83.9082
2860.98	87.9983
2862.3	91.2985
2863.62	94.2675
2864.94	97.4017
2866.25	100.418
2867.57	103.03
2868.89	105.226
2870.21	107.845
2871.52	110.033
2872.84	112.324
2874.15	114.805
2875.47	117.688
2876.78	119.801
2878.1	122.147
2879.42	124.101
2880.73	126.361
2882.04	129.003
2883.36	130.888
2884.67	132.692
2885.99	135.179
2887.3	137.58
2888.61	140.573
2889.93	142.835
2891.24	145.161
2892.55	147.699
2893.87	150.29
2895.18	153.51
2896.49	156.654
2897.8	159.552
2899.11	163.561
2900.42	167.796
2901.74	172.708
2903.05	177.814
2904.36	183.071
2905.67	189.298
2906.98	194.776
2908.29	201.424
2909.6	207.91
2910.91	214.469
2912.22	221.283
2913.53	227.401
2914.83	233.628
2916.14	239.673
2917.45	245.36
2918.76	251.487
2920.07	256.649
2921.37	262.157
2922.68	266.445
2923.99	270.523
2925.3	273.755
2926.6	276.856
2927.91	278.602
2929.22	280.353
2930.52	281.861
2931.83	282.071
2933.13	281.982
2934.44	281.131
2935.74	280.083
2937.05	279.018
2938.35	277.92
2939.66	275.407
2940.96	272.985
2942.27	269.467
2943.57	265.411
2944.87	261.516
2946.18	257.073
2947.48	252.34
2948.78	247.209
2950.09	242.079
2951.39	237.611
2952.69	231.951
2953.99	226.29
2955.29	220.583
2956.6	214.353
2957.9	209.059
2959.2	203.417
2960.5	197.705
2961.8	191.9
2963.1	186.839
2964.4	182.166
2965.7	176.982
2967	171.876
2968.3	166.927
2969.6	162.314
2970.9	157.902
2972.2	152.166
2973.49	148.029
2974.79	143.808
2976.09	139.297
2977.39	134.616
2978.69	129.696
2979.98	125.23
2981.28	120.674
2982.58	116.273
2983.88	111.974
2985.17	107.435
2986.47	103.25
2987.76	97.9897
2989.06	93.131
2990.36	88.1035
2991.65	83.5258
2992.95	79.078
2994.24	74.7891
2995.54	70.7223
2996.83	66.4385
2998.12	62.7985
2999.42	59.112
3000.71	55.6884
3002	52.7631
3003.3	49.5039
3004.59	45.699
3005.88	43.2415
3007.18	39.7045
3008.47	36.9265
3009.76	34.4347
3011.05	32.4138
3012.35	30.4601
3013.64	28.6835
3014.93	27.1009
3016.22	25.5599
3017.51	23.6577
3018.8	22.2121
3020.09	21.1603
3021.38	19.6869
3022.67	18.9963
3023.96	17.9582
3025.25	17.0671
3026.54	16.3019
3027.83	15.7841
3029.12	15.1156
3030.41	14.5338
3031.69	14.6075
3032.98	14.9728
3034.27	14.631
3035.56	14.8805
3036.85	14.8724
3038.13	15.4591
3039.42	15.7174
3040.71	16.0739
3041.99	16.4705
3043.28	16.9245
3044.57	17.6095
3045.85	17.9042
3047.14	18.347
3048.42	18.2041
3049.71	17.8446
3050.99	17.8812
3052.28	17.281
3053.56	17.2148
3054.85	17.0715
3056.13	17.267
3057.42	16.92
3058.7	16.7294
3059.98	16.7837
3061.27	16.2648
3062.55	15.7381
3063.83	15.3392
3065.11	15.1096
3066.4	15.1337
3067.68	14.4707
3068.96	13.7737
3070.24	13.7998
3071.52	13.1489
3072.8	12.605
3074.09	12.1622
3075.37	11.7454
3076.65	10.9482
3077.93	9.74274
3079.21	8.64063
3080.49	7.89587
3081.77	6.99287
3083.05	6.46869
3084.32	6.26736
3085.61	5.48455
3086.88	4.49069
3088.16	4.12998
3089.44	3.9581
3090.72	3.56143
3092	3.36324
3093.27	3.51695
3094.55	3.64287
3095.83	3.57539
3097.11	3.53379
3098.38	3.67396
3099.66	3.99121
3100.94	4.12826
3102.21	3.97289
3103.49	4.38322
3104.76	4.43496
3106.04	4.78376
3107.31	5.36047
3108.59	5.51197
3109.86	5.49119
3111.14	5.53353
3112.41	5.32369
3113.69	5.94314
3114.96	6.6944
3116.23	7.08028
3117.51	7.40458
3118.78	7.70492
3120.05	8.13642
3121.33	8.33888
3122.6	8.87807
3123.87	9.30236
3125.14	9.84865
3126.42	10.406
3127.69	11.3559
3128.96	11.9512
3130.23	12.2502
3131.5	12.2078
3132.77	12.5305
3134.04	12.9102
3135.31	12.9209
3136.58	12.6957
3137.85	12.8498
3139.12	12.5297
3140.39	12.3681
3141.66	12.2334
3142.93	12.4531
3144.2	12.4395
3145.47	12.35
3146.74	11.9011
3148	11.3497
3149.27	11.4751
