#Acq. time (s)=	45
#Accumulations=	2
#Range (cm-¹)=	200...3150
#Windows=	2
#Auto scanning=	Off
#Autofocus=	Off
#Macrospot=	Off
#AutoExposure=	Off
#Spike filter=	Multiple accum.
#Delay time (s)=	0
#Binning=	1
#Readout mode=	Signal
#DeNoise=	Off
#ICS correction=	On
#Dark correction=	Off
#Inst. Process=	Off
#Detector Gain=	Best Dynamic Range
#Detector ADC=	20 kHz       
#Detector temperature (°C)=	-69.85
#Instrument=	LabRAM HR Evol
#Detector=	Synapse
#Objective=	x100
#Grating=	600 gr/mm
#ND Filter=	100%
#Laser (nm)=	532 
#Hole=	100.021
#Range=	Auto
#Laser Pol.=	No
#Raman. Pol.=	No
#Laser Pol. (°)=	-0.0007625
#Raman Pol. (°)=	89.9995
#Collection=	Microscope
#StageXY=	Marzhauser
#StageZ=	Marzhauser
#X (µm)=	-1244
#Y (µm)=	1606.2
#Z (µm)=	-6.95
#Full time(mm:ss)=	3:18
#Project=	
#Sample=	
#Site=	
#Title=	Mb_30_27_12_2x_45s_532 nm_x100_100%_600 gr_mm
#Remark=	
#Date=	12.07.2022 16:51
#Acquired=	12.07.2022 16:51:56
#Base:Fit=	10.08.2022 10:40:03
#Base:Sub=	10.08.2022 10:40:17
#Filter:Polynom=	16.08.2022 10:16:15
#AxisType[0]=Intens
#AxisUnit[0]=Cnt
#AxisType[1]=Spectr
#AxisUnit[1]=1/cm
200.413	8.85082
202.227	11.4348
204.042	11.8219
205.856	11.6004
207.671	11.3862
209.485	11.3479
211.297	10.6632
213.11	10.7853
214.924	10.8173
216.736	11.1515
218.547	11.0453
220.358	10.8987
222.169	11.4545
223.982	12.1775
225.792	10.9683
227.601	11.1468
229.411	11.2196
231.22	10.3083
233.028	9.97669
234.837	9.96547
236.647	9.88274
238.454	10.5938
240.261	10.8541
242.068	11.2839
243.875	11.8952
245.681	11.5635
247.487	12.1478
249.292	12.522
251.099	12.6572
252.904	13.1218
254.708	13.1042
256.512	13.4221
258.316	14.5361
260.12	16.2461
261.922	16.6524
263.725	16.6662
265.527	18.3025
267.329	17.3575
269.131	18.7001
270.932	19.3594
272.733	20.8839
274.534	21.4613
276.334	22.168
278.134	22.0351
279.933	22.6439
281.732	23.1476
283.531	23.2427
285.329	22.5889
287.128	22.6276
288.925	22.3578
290.723	22.419
292.52	22.9146
294.316	23.6222
296.113	24.0504
297.909	23.6871
299.702	23.9183
301.498	23.4359
303.293	23.406
305.087	23.1489
306.881	23.1538
308.675	23.0124
310.469	21.8903
312.262	22.1272
314.055	22.0053
315.845	21.1556
317.638	22.4853
319.429	21.6788
321.221	21.89
323.012	21.7426
324.803	21.5983
326.591	21.2274
328.381	20.6591
330.171	19.9815
331.96	19.6771
333.749	18.1835
335.536	17.2038
337.324	17.8004
339.112	16.6727
340.9	15.0471
342.685	14.3724
344.472	14.1399
346.259	15.0858
348.045	14.8943
349.829	14.5732
351.614	13.0767
353.4	12.6686
355.185	11.8516
356.967	10.4705
358.751	10.5755
360.535	9.46297
362.317	9.49771
364.1	9.41059
365.883	8.95392
367.663	7.69419
369.445	7.878
371.227	6.67003
373.006	5.44087
374.787	4.69292
376.568	5.34811
378.346	5.25391
380.126	5.37477
381.904	3.28625
383.683	2.78441
385.462	2.60694
387.239	1.84987
389.017	2.33942
390.793	1.20023
392.571	1.62018
394.348	2.99271
396.123	3.07939
397.9	2.32967
399.674	1.75871
401.45	3.09902
403.224	4.14942
404.999	3.63592
406.772	3.81796
408.546	1.96173
410.318	2.15525
412.092	2.11139
413.864	1.91134
415.637	0.846238
417.408	0.76722
419.18	1.09271
420.95	0.988581
422.722	0.854972
424.492	1.89438
426.263	2.21702
428.032	2.05698
429.802	2.09829
431.57	2.9747
433.338	2.8834
435.107	3.41152
436.874	2.38215
438.643	2.36076
440.41	2.13218
442.176	2.1805
443.943	1.9699
445.709	2.37903
447.476	1.33014
449.24	1.75398
451.005	2.74453
452.771	2.30438
454.534	2.7026
456.298	3.71096
458.063	5.01677
459.825	5.12446
461.588	5.33746
463.352	5.88321
465.113	7.37045
466.875	7.58753
468.638	7.43729
470.398	6.76738
472.158	7.48883
473.918	9.85883
475.68	9.66358
477.439	10.5267
479.198	11.2255
480.957	12.3498
482.717	12.773
484.475	12.4911
486.233	12.0186
487.99	13.6642
489.747	14.4144
491.505	14.7121
493.261	14.3814
495.017	15.4794
496.773	15.9207
498.528	17.0918
500.285	17.2781
502.039	16.5187
503.794	16.4161
505.548	16.8949
507.301	16.6149
509.054	16.651
510.807	15.5111
512.562	14.7889
514.314	14.1117
516.066	13.8129
517.817	13.0552
519.568	12.4354
521.319	12.4729
523.07	11.7908
524.82	11.2587
526.57	10.9348
528.319	10.1991
530.068	8.95063
531.817	7.8437
533.568	6.99387
535.316	5.43717
537.064	6.1784
538.811	5.57554
540.558	5.82276
542.305	6.03706
544.051	5.87943
545.798	4.69704
547.543	4.66852
549.289	4.54228
551.034	4.0516
552.777	4.65491
554.521	3.40787
556.265	2.9119
558.009	3.79882
559.753	4.31415
561.496	4.50532
563.239	3.88414
564.981	4.42152
566.723	4.66209
568.465	4.34293
570.207	3.63446
571.948	3.61002
573.688	3.97608
575.427	4.91077
577.167	4.14212
578.907	4.16305
580.646	4.38849
582.385	4.11297
584.124	3.89788
585.863	2.78097
587.599	2.33584
589.337	2.40509
591.074	2.22691
592.811	2.18965
594.548	2.24805
596.283	2.09978
598.019	0.982091
599.755	1.91864
601.49	2.26534
603.223	1.57103
604.958	1.41867
606.693	3.04156
608.427	3.81553
610.159	3.5315
611.892	3.82214
613.625	2.87231
615.358	3.12397
617.089	2.40011
618.821	3.27816
620.553	2.28382
622.282	2.95632
624.014	4.03437
625.744	4.59794
627.473	5.27131
629.203	5.01066
630.933	5.65575
632.661	6.4432
634.39	6.63164
636.119	6.62523
637.845	6.12174
639.574	7.57555
641.301	8.29132
643.027	9.03369
644.754	10.0807
646.479	10.2687
648.206	11.1429
649.932	12.4505
651.656	11.9463
653.382	12.7497
655.105	13.1829
656.83	13.4823
658.552	13.2448
660.277	12.7914
661.999	13.0122
663.722	12.2683
665.444	12.9772
667.167	13.2089
668.887	13.4182
670.61	13.6662
672.33	13.3489
674.051	14.3255
675.771	15.5012
677.492	15.773
679.21	16.2748
680.931	17.0839
682.649	18.1124
684.369	18.4708
686.086	19.3501
687.803	19.2415
689.522	19.7598
691.238	21.754
692.956	22.0421
694.672	21.9467
696.388	22.1288
698.105	21.6254
699.819	22.0146
701.536	22.9747
703.25	22.2815
704.964	23.8452
706.679	23.6463
708.393	24.9457
710.105	24.5246
711.82	24.8969
713.532	25.0059
715.244	25.5336
716.957	25.6996
718.669	25.2712
720.38	24.901
722.09	25.3987
723.802	25.6302
725.512	26.6443
727.222	27.827
728.933	28.8652
730.642	29.4774
732.351	29.795
734.059	29.99
735.767	29.4278
737.477	28.8399
739.184	30.4967
740.891	31.006
742.598	32.6957
744.304	33.1337
746.012	35.0446
747.718	37.406
749.423	38.4018
751.128	40.9587
752.833	42.7846
754.538	45.0966
756.244	46.8647
757.947	48.6013
759.651	50.1458
761.354	51.9841
763.057	53.3535
764.759	56.1082
766.462	57.6282
768.163	59.1157
769.865	61.3803
771.568	63.0882
773.269	64.6954
774.97	67.3499
776.67	69.0259
778.37	70.4291
780.069	73.0374
781.769	74.9953
783.468	76.6808
785.166	80.0166
786.865	81.0096
788.563	81.2754
790.26	82.4468
791.958	83.1247
793.655	84.4967
795.352	85.9642
797.048	86.8255
798.744	87.934
800.44	89.1219
802.135	88.8039
803.83	89.4468
805.525	90.2589
807.218	90.9969
808.912	91.8522
810.606	92.7547
812.299	93.7408
813.993	92.8417
815.685	92.3155
817.378	92.1279
819.07	91.9471
820.762	91.9108
822.452	93.0399
824.143	93.5461
825.834	92.2984
827.525	92.707
829.215	91.8273
830.905	90.8544
832.593	89.9027
834.282	88.8592
835.971	88.5847
837.66	86.2491
839.349	85.6743
841.035	84.6292
842.723	83.2402
844.41	81.9583
846.097	80.8819
847.782	79.3198
849.469	77.7575
851.155	76.7846
852.841	76.3964
854.525	74.9624
856.21	72.4505
857.895	71.9954
859.577	70.9738
861.262	70.4493
862.946	69.2608
864.628	67.0749
866.311	67.1944
867.994	66.1954
869.675	65.4145
871.357	63.8164
873.039	63.025
874.719	63.419
876.401	63.7951
878.082	64.4504
879.761	63.8449
881.441	63.0563
883.12	63.4215
884.799	62.4875
886.479	60.8372
888.156	60.6519
889.835	60.6981
891.512	60.8657
893.19	60.0543
894.866	59.6308
896.544	59.2151
898.22	58.4735
899.897	58.6119
901.573	57.7172
903.248	57.4227
904.924	58.6059
906.598	58.4605
908.271	57.8478
909.947	58.0462
911.62	58.3167
913.294	57.7287
914.966	56.0013
916.64	57.4512
918.312	56.9966
919.985	55.6022
921.656	55.6242
923.329	56.0715
925	54.5862
926.67	53.6607
928.341	52.146
930.011	50.8704
931.68	49.2013
933.351	48.3416
935.019	47.4224
936.69	45.7492
938.358	44.2115
940.025	43.484
941.694	43.063
943.361	41.5983
945.028	40.8472
946.696	39.6157
948.362	39.3705
950.028	40.0847
951.694	39.0593
953.361	38.8471
955.026	38.0123
956.69	36.9068
958.356	36.5845
960.02	35.3403
961.684	35.4815
963.347	33.9116
965.012	34.2897
966.674	33.8627
968.337	33.2286
969.999	32.8708
971.661	32.2888
973.324	31.8698
974.985	31.1152
976.646	30.1405
978.306	29.7257
979.966	30.1189
981.626	30.8172
983.288	30.0733
984.947	29.3549
986.606	30.1051
988.264	30.5755
989.923	28.7122
991.581	27.7786
993.238	28.298
994.896	26.9376
996.553	26.7254
998.212	26.2669
999.868	25.6127
1001.52	24.0869
1003.18	22.4708
1004.84	22.6862
1006.49	21.5362
1008.15	22.0546
1009.8	22.9028
1011.45	21.368
1013.11	22.148
1014.76	23.7231
1016.42	25.9009
1018.07	27.3541
1019.72	29.9578
1021.37	30.5499
1023.03	31.6625
1024.68	32.9744
1026.33	34.9237
1027.98	36.1671
1029.63	37.4521
1031.28	37.905
1032.93	38.2642
1034.58	39.3921
1036.23	40.4023
1037.88	40.3535
1039.53	41.1231
1041.18	41.9517
1042.83	42.4113
1044.47	43.4191
1046.12	43.6815
1047.77	43.8728
1049.42	42.7903
1051.06	42.0722
1052.71	41.0174
1054.35	40.9023
1056	41.4286
1057.64	40.6695
1059.29	39.9503
1060.94	39.8463
1062.58	38.9065
1064.22	37.8938
1065.87	35.9882
1067.51	35.0528
1069.15	33.7654
1070.8	31.9409
1072.44	30.3937
1074.08	28.8361
1075.72	27.8368
1077.36	24.8571
1079.01	23.0154
1080.65	21.6667
1082.29	20.1517
1083.93	20.2582
1085.57	18.6925
1087.21	18.2078
1088.85	18.1831
1090.49	17.5677
1092.12	16.5663
1093.76	15.4693
1095.4	16.3498
1097.04	18.0792
1098.68	17.1984
1100.31	16.49
1101.95	15.5461
1103.59	14.5058
1105.22	14.0093
1106.86	14.0837
1108.49	14.0643
1110.13	12.5098
1111.76	12.2329
1113.4	12.3608
1115.03	13.7855
1116.66	14.828
1118.3	14.559
1119.93	14.7972
1121.57	14.2732
1123.2	14.4095
1124.83	15.1689
1126.46	14.7086
1128.09	16.1265
1129.72	15.6084
1131.36	16.3346
1132.99	16.6462
1134.62	17.1185
1136.25	18.1726
1137.88	18.3022
1139.51	18.3567
1141.14	19.0047
1142.77	19.3712
1144.39	19.0968
1146.02	18.3144
1147.65	17.2145
1149.28	16.1756
1150.9	16.3296
1152.53	15.3585
1154.16	14.84
1155.78	13.6883
1157.41	12.8199
1159.04	12.0441
1160.66	11.1484
1162.29	11.3658
1163.91	10.6608
1165.54	9.58859
1167.16	8.73608
1168.78	7.23503
1170.41	6.51306
1172.03	5.30226
1173.65	4.54173
1175.27	4.8753
1176.9	4.41204
1178.52	3.91939
1180.14	2.35706
1181.76	1.23028
1183.38	0.0397106
1185	0.632799
1186.62	0.381421
1188.24	1.6079
1189.86	1.4555
1191.48	2.30388
1193.1	2.99327
1194.72	3.68147
1196.34	4.05977
1197.96	5.12738
1199.58	6.0356
1201.19	7.26653
1202.81	7.99135
1204.43	9.78984
1206.04	11.0906
1207.66	11.6719
1209.28	13.2883
1210.89	13.5705
1212.51	14.7545
1214.12	15.6543
1215.74	18.1487
1217.35	19.4868
1218.97	20.6329
1220.58	22.0583
1222.19	22.8397
1223.81	23.8344
1225.42	25.0877
1227.03	26.5113
1228.64	29.1896
1230.26	31.0496
1231.87	33.5612
1233.48	33.7327
1235.09	35.2349
1236.7	36.4025
1238.31	37.125
1239.92	39.2793
1241.53	40.779
1243.14	42.0507
1244.75	42.6789
1246.36	43.2554
1247.97	43.1211
1249.57	42.0793
1251.18	41.9682
1252.79	42.5322
1254.4	43.0981
1256	45.3619
1257.61	44.575
1259.22	45.2208
1260.82	45.3896
1262.43	44.7355
1264.03	45.8777
1265.64	47.1486
1267.24	47.5172
1268.85	48.1102
1270.45	48.1043
1272.06	48.7449
1273.66	49.5815
1275.26	51.7965
1276.87	54.0859
1278.47	55.4687
1280.07	55.1232
1281.67	54.9744
1283.28	56.4245
1284.88	57.239
1286.48	58.1566
1288.08	58.8526
1289.68	58.9132
1291.28	59.724
1292.88	60.5525
1294.48	61.8228
1296.08	61.4445
1297.68	60.6329
1299.28	61.7592
1300.87	63.5578
1302.47	64.1463
1304.07	65.0473
1305.67	65.5156
1307.26	66.4684
1308.86	66.8781
1310.46	67.3252
1312.05	67.4759
1313.65	68.4587
1315.24	68.5663
1316.84	69.062
1318.44	69.2381
1320.03	69.8759
1321.62	69.7232
1323.22	69.4282
1324.81	69.8549
1326.4	69.9501
1328	69.0924
1329.59	68.7141
1331.18	68.8198
1332.78	68.8997
1334.37	68.8229
1335.96	68.5734
1337.55	66.0355
1339.14	65.4135
1340.73	63.874
1342.32	62.8036
1343.91	62.8821
1345.5	62.7572
1347.09	61.7375
1348.68	61.5849
1350.27	61.0341
1351.86	60.5581
1353.45	59.9378
1355.03	59.4128
1356.62	58.0575
1358.21	55.8399
1359.8	55.3237
1361.38	54.9912
1362.97	54.2568
1364.56	53.5434
1366.14	52.164
1367.73	50.7505
1369.31	50.0209
1370.9	49.6545
1372.48	47.9355
1374.07	45.7381
1375.65	43.7916
1377.23	43.7438
1378.82	43.8362
1380.4	43.4251
1381.98	41.5373
1383.57	41.0707
1385.15	40.6332
1386.73	40.9974
1388.31	41.125
1389.89	40.8111
1391.47	40.6388
1393.05	41.5138
1394.63	41.291
1396.21	41.2355
1397.79	41.1522
1399.37	42.4515
1400.95	43.7171
1402.53	45.116
1404.11	45.6459
1405.69	46.5543
1407.27	46.7998
1408.84	48.3251
1410.42	50.2654
1412	51.5451
1413.57	52.4464
1415.15	54.2327
1416.73	55.0023
1418.3	56.3499
1419.88	58.1018
1421.45	60.0397
1423.03	63.2945
1424.6	66.0125
1426.18	67.3101
1427.75	69.0126
1429.33	70.5646
1430.9	72.2187
1432.47	74.8054
1434.04	78.7421
1435.62	80.2297
1437.19	81.5382
1438.76	82.2808
1440.33	83.3037
1441.91	83.355
1443.47	84.0762
1445.05	84.3931
1446.62	84.7581
1448.19	85.0144
1449.76	83.7153
1451.33	83.6331
1452.9	83.3917
1454.46	84.1649
1456.03	84.2711
1457.6	83.9385
1459.17	82.9674
1460.74	81.5474
1462.3	81.8973
1463.87	81.5133
1465.44	79.7634
1467.01	78.8954
1468.57	77.2131
1470.14	75.8191
1471.7	74.5612
1473.27	73.0823
1474.83	70.8029
1476.4	69.2728
1477.96	68.5952
1479.53	66.1228
1481.09	65.1355
1482.65	62.2943
1484.22	60.7585
1485.78	59.0226
1487.34	58.2583
1488.91	56.4145
1490.47	54.4867
1492.03	52.836
1493.59	52.2963
1495.15	50.0526
1496.71	49.4263
1498.27	49.149
1499.83	48.1199
1501.39	48.2684
1502.95	47.0487
1504.51	44.3807
1506.07	43.7743
1507.63	42.7762
1509.19	42.6781
1510.75	41.7063
1512.3	40.4067
1513.86	37.6511
1515.42	36.387
1516.98	34.677
1518.53	34.4977
1520.09	33.4532
1521.65	33.502
1523.2	33.82
1524.76	32.5997
1526.31	32.3114
1527.87	32.2118
1529.42	33.2236
1530.98	33.4122
1532.53	34.3162
1534.08	34.0527
1535.64	32.9291
1537.19	33.5864
1538.74	34.7295
1540.3	35.6964
1541.85	35.8631
1543.4	35.3458
1544.95	35.5331
1546.5	36.3268
1548.05	37.2772
1549.61	37.8079
1551.16	38.8866
1552.71	39.7468
1554.26	40.5846
1555.81	42.4707
1557.36	43.1467
1558.9	43.7385
1560.45	44.1875
1562	45.7466
1563.55	47.0692
1565.1	49.2713
1566.64	49.9856
1568.19	51.3662
1569.74	52.1176
1571.29	53.4036
1572.83	53.9012
1574.38	55.6644
1575.93	56.6506
1577.47	56.5357
1579.02	57.8602
1580.56	57.5193
1582.1	58.5706
1583.65	61.3812
1585.19	61.445
1586.74	62.1467
1588.28	61.9782
1589.82	63.0301
1591.37	63.1822
1592.91	64.4011
1594.45	65.0231
1595.99	66.2647
1597.54	65.6943
1599.08	66.8998
1600.62	66.7141
1602.16	66.4931
1603.7	67.0929
1605.24	67.5463
1606.78	67.1672
1608.32	68.357
1609.86	67.1977
1611.4	66.6425
1612.94	67.4795
1614.48	69.6227
1616.01	69.6033
1617.55	69.4151
1619.09	69.6435
1620.63	69.7589
1622.16	70.1687
1623.7	72.1392
1625.24	73.7381
1626.77	73.4796
1628.31	74.4384
1629.84	74.8586
1631.38	75.2005
1632.92	76.482
1634.45	75.4925
1635.98	75.8653
1637.52	76.9855
1639.05	78.2467
1640.59	79.5057
1642.12	80.626
1643.65	80.4187
1645.19	81.2184
1646.72	81.5363
1648.25	82.6215
1649.78	82.7195
1651.31	83.5561
1652.85	83.7832
1654.38	84.5066
1655.91	86.3164
1657.44	87.4297
1658.97	88.2472
1660.5	88.4865
1662.03	86.5989
1663.56	86.1601
1665.08	86.5713
1666.61	85.8876
1668.14	85.4082
1669.67	86.2668
1671.2	85.1122
1672.72	83.2273
1674.25	81.5296
1675.78	80.4281
1677.31	78.1708
1678.83	75.7548
1680.36	73.2089
1681.88	72.2383
1683.41	70.4023
1684.93	68.8182
1686.46	65.8775
1687.98	65.4443
1689.51	63.7153
1691.03	62.2317
1692.56	59.1427
1694.08	57.6365
1695.6	56.625
1697.13	55.3817
1698.65	53.6829
1700.17	51.7817
1701.69	49.8726
1703.21	47.0861
1704.74	45.8167
1706.26	44.0399
1707.78	42.7431
1709.3	41.568
1710.82	38.7186
1712.34	37.7303
1713.86	37.1036
1715.38	37.1299
1716.9	35.6108
1718.42	35.3864
1719.94	35.2473
1721.45	34.4275
1722.97	33.9443
1724.49	33.9404
1726.01	33.9021
1727.52	34.1631
1729.04	34.5096
1730.56	35.2492
1732.07	35.2157
1733.59	35.6707
1735.11	34.5517
1736.62	34.6865
1738.14	33.5921
1739.65	34.5515
1741.17	35.0745
1742.68	35.4405
1744.19	36.2576
1745.71	36.2585
1747.22	35.5577
1748.74	35.4766
1750.25	36.0447
1751.76	35.3062
1753.27	35.0172
1754.79	33.9848
1756.3	34.3901
1757.81	34.4873
1759.32	33.6609
1760.83	33.5901
1762.34	33.7428
1763.85	33.3223
1765.36	32.4098
1766.87	32.2402
1768.38	31.1559
1769.89	31.8125
1771.4	31.7353
1772.91	31.0245
1774.42	30.0632
1775.93	29.2755
1777.43	29.4821
1778.94	29.1846
1780.45	29.2446
1781.95	29.5057
1783.46	29.9575
1784.97	29.4398
1786.47	29.4489
1787.98	30.1014
1789.49	31.264
1790.99	31.5791
1792.5	31.941
1794	33.5468
1795.51	33.6433
1797.01	33.487
1798.51	34.5917
1800.02	35.0431
1801.52	35.4371
1803.02	35.7722
1804.53	36.1256
1806.03	36.2052
1807.53	36.4134
1809.03	37.1605
1810.53	37.1319
1812.03	38.1243
1813.54	38.6289
1815.04	39.4127
1816.54	39.1463
1818.04	38.7748
1819.54	39.0694
1821.04	39.2812
1822.54	39.093
1824.04	39.2478
1825.53	38.8795
1827.03	38.158
1828.53	38.1853
1830.03	37.9098
1831.53	38.369
1833.02	38.0334
1834.52	38.2563
1836.02	37.4011
1837.52	36.9943
1839.01	36.7258
1840.51	36.69
1842	36.061
1843.5	36.087
1844.99	35.9836
1846.49	35.7411
1847.98	35.1913
1849.48	35.1432
1850.97	35.8933
1852.47	36.7907
1853.96	37.2872
1855.45	37.949
1856.95	37.7175
1858.44	37.3588
1859.93	37.4381
1861.42	37.7662
1862.91	37.7839
1864.4	37.9023
1865.9	37.773
1867.39	37.9572
1868.88	38.1116
1870.37	37.7775
1871.86	37.0383
1873.35	36.9503
1874.84	36.4674
1876.33	36.5736
1877.82	35.9343
1879.31	35.3025
1880.79	34.7819
1882.28	34.0948
1882.53	34.2413
1884.02	33.1826
1885.52	33.2246
1887.01	32.3284
1888.51	31.5633
1890	31.6083
1891.49	31.186
1892.99	31.3228
1894.48	31.0873
1895.97	30.5927
1897.46	30.7873
1898.96	30.6415
1900.45	29.9824
1901.94	29.7598
1903.43	28.906
1904.92	27.9144
1906.41	26.6308
1907.9	25.8983
1909.39	25.5735
1910.88	25.5201
1912.37	24.7823
1913.86	24.1178
1915.35	23.8484
1916.84	23.1716
1918.32	22.4571
1919.81	22.5394
1921.3	22.5964
1922.79	22.8354
1924.27	22.6306
1925.76	22.5654
1927.25	22.2462
1928.73	21.5771
1930.22	21.2178
1931.7	20.369
1933.19	19.9746
1934.68	19.5888
1936.16	19.4378
1937.65	18.3896
1939.13	17.2968
1940.61	16.6853
1942.1	16.6128
1943.58	15.3128
1945.06	13.7826
1946.55	12.2328
1948.03	10.9847
1949.51	10.6438
1950.99	8.86747
1952.48	8.5628
1953.96	8.48491
1955.44	7.87413
1956.92	8.15672
1958.4	7.19158
1959.88	6.95435
1961.36	6.24938
1962.84	5.99014
1964.32	5.80998
1965.8	4.78098
1967.28	4.70969
1968.76	4.64003
1970.24	4.19679
1971.72	3.53483
1973.19	3.75814
1974.67	2.52178
1976.15	1.62711
1977.63	0.885255
1979.1	0.582718
1980.58	1.15781
1982.06	2.40564
1983.53	2.7257
1985.01	1.73582
1986.48	1.88452
1987.96	2.15868
1989.43	2.32256
1990.91	2.40056
1992.39	3.03349
1993.86	3.1981
1995.33	3.48587
1996.81	3.87793
1998.28	4.32595
1999.75	5.85098
2001.23	6.4419
2002.7	6.53481
2004.17	6.82705
2005.64	6.31415
2007.11	6.77343
2008.59	7.42412
2010.06	6.67743
2011.53	6.01799
2013	6.59218
2014.47	6.98535
2015.94	6.93355
2017.41	6.75137
2018.88	6.29474
2020.35	6.47578
2021.82	7.59969
2023.29	8.72675
2024.76	9.18066
2026.22	9.92558
2027.69	9.88554
2029.16	9.73004
2030.63	10.0055
2032.09	8.99874
2033.56	9.21353
2035.03	10.5341
2036.5	10.4529
2037.96	11.0185
2039.43	10.917
2040.89	12.0886
2042.36	12.2117
2043.82	12.1766
2045.29	12.226
2046.75	12.5095
2048.22	11.6658
2049.68	12.127
2051.14	13.5511
2052.61	14.7267
2054.07	16.3252
2055.53	16.3218
2057	16.2521
2058.46	15.9258
2059.92	17.599
2061.38	18.4867
2062.85	18.7969
2064.31	19.4885
2065.77	20.7817
2067.23	20.3454
2068.69	21.4449
2070.15	21.3285
2071.61	21.5092
2073.07	21.5186
2074.53	21.072
2075.99	20.3384
2077.45	19.8205
2078.91	19.5454
2080.36	19.6156
2081.82	19.6184
2083.28	18.9882
2084.74	19.2674
2086.19	19.9486
2087.65	20.1212
2089.11	20.8998
2090.57	20.6781
2092.02	20.7117
2093.48	21.7501
2094.93	21.6707
2096.39	22.553
2097.84	23.2078
2099.3	23.1278
2100.75	23.7313
2102.21	24.678
2103.66	25.0232
2105.12	25.1366
2106.57	26.5734
2108.02	27.6922
2109.48	27.1695
2110.93	27.6865
2112.38	28.3223
2113.83	29.1077
2115.29	29.4055
2116.74	30.2609
2118.19	31.4076
2119.64	31.9249
2121.09	33.3959
2122.54	35.1644
2123.99	36.8434
2125.44	38.8729
2126.89	40.5891
2128.34	41.4268
2129.79	43.8129
2131.24	46.0407
2132.69	48.0628
2134.14	49.5296
2135.59	50.7201
2137.04	51.9524
2138.48	53.0587
2139.93	52.9539
2141.38	55.081
2142.82	56.3358
2144.27	57.822
2145.72	58.8761
2147.16	60.1399
2148.61	61.5141
2150.06	62.8492
2151.5	64.0878
2152.95	65.3857
2154.39	66.258
2155.83	67.1985
2157.28	68.853
2158.72	69.4012
2160.17	70.8089
2161.61	71.4488
2163.05	71.7772
2164.5	73.4764
2165.94	73.5455
2167.38	73.5041
2168.83	74.681
2170.27	74.9668
2171.71	74.5966
2173.15	74.6928
2174.59	74.5055
2176.03	74.172
2177.47	74.2539
2178.91	74.4537
2180.35	74.1505
2181.79	73.0677
2183.23	73.0595
2184.67	72.4626
2186.11	70.9134
2187.55	70.8386
2188.99	69.8128
2190.43	69.6003
2191.86	69.0886
2193.3	68.0768
2194.74	67.2674
2196.18	67.3189
2197.61	66.7054
2199.05	65.0967
2200.49	64.4991
2201.92	64.3423
2203.36	62.8795
2204.8	61.1886
2206.23	60.4682
2207.67	59.8269
2209.1	59.0927
2210.54	58.212
2211.97	57.0931
2213.4	56.4272
2214.84	53.8253
2216.27	52.4998
2217.7	50.881
2219.14	50.169
2220.57	48.6503
2222	47.3764
2223.44	45.863
2224.87	44.6835
2226.3	43.0882
2227.73	41.9324
2229.16	40.9376
2230.59	39.9039
2232.02	39.248
2233.46	37.6465
2234.88	36.7275
2236.32	35.8597
2237.74	34.8157
2239.18	34.0439
2240.6	33.8049
2242.03	33.3582
2243.46	31.9494
2244.89	31.1339
2246.32	30.4865
2247.75	29.9876
2249.17	29.0341
2250.6	28.287
2252.03	26.6071
2253.45	25.3466
2254.88	24.855
2256.31	23.8703
2257.73	22.7654
2259.16	23.1212
2260.58	22.4631
2262.01	22.4578
2263.44	21.0398
2264.86	20.4914
2266.28	21.0741
2267.71	20.2384
2269.13	19.9475
2270.56	20.2855
2271.98	20.5669
2273.4	19.9075
2274.83	19.5262
2276.25	19.583
2277.67	20.043
2279.09	19.4542
2280.51	18.3507
2281.94	17.3275
2283.36	16.7379
2284.78	16.6365
2286.2	15.1929
2287.62	15.3845
2289.04	15.0628
2290.46	15.2346
2291.88	13.5834
2293.3	13.1283
2294.72	12.8048
2296.14	12.5496
2297.56	12.8548
2298.98	13.3512
2300.39	13.227
2301.81	13.4424
2303.23	12.8147
2304.65	12.7389
2306.07	12.8597
2307.48	12.1958
2308.9	11.832
2310.32	11.4472
2311.73	11.3129
2313.15	11.1771
2314.56	10.2755
2315.98	11.0126
2317.4	11.0933
2318.81	11.6571
2320.23	11.1716
2321.64	10.9596
2323.05	10.2752
2324.47	10.907
2325.88	11.171
2327.3	11.4982
2328.71	11.9679
2330.12	12.0638
2331.54	11.594
2332.95	11.5094
2334.36	9.95733
2335.77	10.0207
2337.18	9.5159
2338.59	9.12306
2340.01	9.63669
2341.42	9.55838
2342.83	8.91654
2344.24	8.77239
2345.65	9.04031
2347.06	8.5926
2348.47	8.16979
2349.88	7.10759
2351.29	6.9432
2352.69	6.72177
2354.1	5.84459
2355.51	4.96592
2356.92	4.25334
2358.33	4.55938
2359.73	4.29599
2361.14	3.30529
2362.55	2.89814
2363.96	3.30779
2365.36	3.53775
2366.77	3.63991
2368.18	4.21927
2369.58	4.10858
2370.99	3.31153
2372.39	3.42056
2373.8	3.23707
2375.2	3.82511
2376.61	3.84014
2378.01	3.0086
2379.41	4.04237
2380.82	3.48288
2382.22	3.61473
2383.63	3.68466
2385.03	4.30361
2386.43	4.56074
2387.83	4.08898
2389.24	3.54402
2390.64	2.4939
2392.04	2.16424
2393.44	3.03914
2394.84	3.23793
2396.24	3.21259
2397.64	3.36206
2399.05	3.16791
2400.45	2.55405
2401.85	2.98824
2403.25	2.93514
2404.65	2.54087
2406.04	3.37003
2407.44	4.23202
2408.84	4.6572
2410.24	5.73076
2411.64	6.60501
2413.04	6.64113
2414.43	7.19022
2415.83	8.43019
2417.23	8.59454
2418.63	9.10197
2420.02	9.78896
2421.42	9.68963
2422.82	9.01463
2424.21	9.23112
2425.61	9.822
2427	9.77393
2428.4	9.71131
2429.79	9.78105
2431.19	10.3685
2432.58	10.3948
2433.98	10.014
2435.37	10.1013
2436.76	10.5615
2438.16	10.6172
2439.55	10.9981
2440.94	10.614
2442.34	10.9129
2443.73	10.9811
2445.12	10.0496
2446.51	8.95952
2447.9	7.50521
2449.3	7.88976
2450.69	6.52044
2452.08	6.77025
2453.47	6.32457
2454.86	6.91741
2456.25	5.44711
2457.64	4.52976
2459.03	4.27747
2460.42	4.25336
2461.81	5.16579
2463.2	5.56194
2464.59	4.866
2465.97	5.05428
2467.36	5.68776
2468.75	5.38121
2470.14	5.02388
2471.53	5.18224
2472.91	4.80444
2474.3	4.84063
2475.69	5.29453
2477.07	5.20992
2478.46	5.4925
2479.85	5.5997
2481.23	5.48185
2482.62	5.95124
2484	6.57394
2485.39	6.99836
2486.77	6.12712
2488.16	5.73223
2489.54	5.41397
2490.93	4.61804
2492.31	4.56444
2493.69	4.9671
2495.08	4.8671
2496.46	4.16503
2497.84	4.98613
2499.22	5.18744
2500.61	4.92886
2501.99	4.19199
2503.37	4.89688
2504.75	5.01094
2506.13	4.91551
2507.51	5.24972
2508.89	5.50442
2510.28	5.11532
2511.66	5.19258
2513.04	5.23588
2514.42	4.46671
2515.79	4.89277
2517.17	4.10479
2518.55	4.51699
2519.93	4.24648
2521.31	4.81598
2522.69	5.42202
2524.07	5.04279
2525.44	5.11386
2526.82	5.32313
2528.2	6.74797
2529.58	6.92603
2530.95	7.13048
2532.33	6.18839
2533.71	6.30719
2535.08	6.45564
2536.46	6.86137
2537.83	6.68231
2539.21	6.33643
2540.59	5.68166
2541.96	5.44402
2543.33	4.93886
2544.71	5.5458
2546.08	4.94114
2547.46	5.17713
2548.83	5.53222
2550.2	5.91722
2551.58	5.92332
2552.95	5.2837
2554.32	4.57577
2555.69	3.90035
2557.07	3.6487
2558.44	3.96442
2559.81	4.18593
2561.18	4.39781
2562.55	3.82218
2563.92	3.82165
2565.29	3.17288
2566.67	3.31651
2568.03	3.02889
2569.41	3.00203
2570.77	2.29804
2572.14	2.69559
2573.51	2.4832
2574.88	2.75714
2576.25	3.10705
2577.62	3.73267
2578.99	3.90356
2580.36	3.47173
2581.72	2.89698
2583.09	2.05141
2584.46	2.01958
2585.83	1.51285
2587.19	2.04429
2588.56	2.07137
2589.93	1.89468
2591.29	1.40066
2592.66	0.655484
2594.02	1.32225
2595.39	0.676028
2596.75	1.27713
2598.12	0.50609
2599.48	-0.196883
2600.85	-0.207308
2602.21	0.131952
2603.58	-0.145449
2604.94	-0.0026108
2606.3	0.344603
2607.67	0.232072
2609.03	0.36083
2610.39	1.45478
2611.75	0.968407
2613.12	1.5177
2614.48	1.04451
2615.84	1.08285
2617.2	2.26371
2618.56	2.26393
2619.92	2.97705
2621.28	2.63182
2622.64	3.37723
2624	3.9185
2625.36	3.97986
2626.72	5.2726
2628.08	5.65314
2629.44	4.88589
2630.8	4.3417
2632.16	5.01107
2633.52	5.56198
2634.88	5.8149
2636.23	5.56161
2637.59	5.33849
2638.95	5.6723
2640.31	6.7856
2641.67	6.46209
2643.02	6.30427
2644.38	6.63684
2645.73	7.37268
2647.09	6.76549
2648.45	6.40668
2649.8	5.66874
2651.16	5.1502
2652.51	5.45665
2653.87	5.62527
2655.22	5.47662
2656.58	4.66933
2657.93	4.81109
2659.28	4.91374
2660.64	4.84012
2661.99	4.12447
2663.34	3.80777
2664.7	3.50376
2666.05	2.63977
2667.4	2.48304
2668.76	2.76899
2670.11	2.95101
2671.46	3.06784
2672.81	3.83196
2674.16	4.30294
2675.51	4.13833
2676.86	4.74153
2678.21	5.44368
2679.57	4.96396
2680.92	6.07924
2682.27	6.75519
2683.62	7.55052
2684.96	9.09121
2686.31	8.94699
2687.66	8.9897
2689.01	8.02639
2690.36	8.45212
2691.71	8.07509
2693.06	7.735
2694.4	8.32751
2695.75	7.57305
2697.1	7.36722
2698.44	7.94753
2699.79	8.25325
2701.14	8.05746
2702.48	7.36587
2703.83	7.20656
2705.18	7.48155
2706.52	8.45024
2707.87	8.40211
2709.21	7.66859
2710.56	7.89745
2711.9	9.09279
2713.25	9.18899
2714.59	8.19452
2715.93	8.04928
2717.28	7.96344
2718.62	7.92652
2719.96	8.48336
2721.31	8.38919
2722.65	7.35372
2723.99	7.08623
2725.33	7.32374
2726.68	7.26771
2728.02	6.84569
2729.36	6.11245
2730.7	6.58018
2732.04	6.90036
2733.38	7.596
2734.72	8.01344
2736.06	8.45842
2737.4	9.29882
2738.74	9.62333
2740.08	9.46289
2741.42	9.73751
2742.76	10.5061
2744.1	10.981
2745.44	10.6501
2746.78	10.5131
2748.12	10.3896
2749.45	9.66382
2750.79	9.57631
2752.13	8.77339
2753.47	7.4246
2754.8	6.44472
2756.14	5.97379
2757.48	6.60785
2758.81	6.26222
2760.15	5.86538
2761.48	5.79003
2762.82	5.15803
2764.16	4.8691
2765.49	4.19595
2766.83	3.23398
2768.16	3.06898
2769.49	2.39814
2770.83	2.26129
2772.16	1.46671
2773.5	1.82694
2774.83	1.3472
2776.16	1.13509
2777.5	1.6549
2778.83	2.52864
2780.16	1.70728
2781.49	1.14841
2782.83	1.10887
2784.16	1.23708
2785.49	1.24087
2786.82	1.06943
2788.15	0.755209
2789.48	0.455265
2790.81	1.13745
2792.14	1.59698
2793.47	1.60192
2794.8	1.94438
2796.13	1.80632
2797.46	2.63991
2798.79	2.35993
2800.12	2.20759
2801.45	1.57448
2802.78	1.95653
2804.11	2.66185
2805.44	1.59266
2806.76	1.06326
2808.09	1.89262
2809.42	1.72047
2810.75	0.590885
2812.07	0.308628
2813.4	-0.479062
2814.73	-0.79713
2816.05	-0.424907
2817.38	0.926763
2818.7	1.47084
2820.03	2.90923
2821.35	3.80522
2822.68	5.9605
2824	6.94826
2825.33	7.82005
2826.65	9.8915
2827.98	11.0352
2829.3	12.7797
2830.62	15.0354
2831.95	17.6446
2833.27	20.5276
2834.59	23.3491
2835.92	25.643
2837.24	28.9806
2838.56	32.7108
2839.88	36.9982
2841.2	40.7757
2842.53	44.8119
2843.85	48.6031
2845.17	52.5042
2846.49	55.4782
2847.81	59.2793
2849.13	64.172
2850.45	68.9099
2851.77	73.1195
2853.09	77.1016
2854.41	81.8364
2855.73	86.0253
2857.05	89.4054
2858.37	92.583
2859.68	95.6921
2861	99.6758
2862.32	101.914
2863.64	105.094
2864.96	108.603
2866.27	112.278
2867.59	114.723
2868.91	117.832
2870.22	119.853
2871.54	121.281
2872.86	123.305
2874.17	125.734
2875.49	127.421
2876.8	129.06
2878.12	131.577
2879.44	133.975
2880.75	137.2
2882.06	140.074
2883.38	142.254
2884.69	143.229
2886.01	145.223
2887.32	146.786
2888.63	149.118
2889.95	151.151
2891.26	153.987
2892.57	157.112
2893.88	159.082
2895.2	161.805
2896.51	164.708
2897.82	167.589
2899.13	170.909
2900.44	174.004
2901.76	177.445
2903.07	182.48
2904.38	186.299
2905.69	190.019
2907	193.89
2908.31	198.916
2909.62	203.502
2910.93	208.982
2912.24	213.284
2913.54	219.045
2914.85	223.479
2916.16	227.348
2917.47	230.339
2918.78	233.565
2920.09	235.963
2921.39	237.387
2922.7	239.177
2924.01	241.931
2925.31	243.912
2926.62	245.779
2927.93	247.171
2929.24	248.74
2930.54	248.971
2931.85	248.039
2933.15	247.28
2934.46	246.512
2935.76	245.046
2937.07	243.617
2938.37	241.094
2939.68	239.346
2940.98	236.722
2942.29	234.302
2943.59	231.141
2944.89	227.665
2946.2	223.792
2947.5	219.482
2948.8	214.388
2950.1	209.946
2951.41	206.18
2952.71	201.361
2954.01	196.461
2955.31	191.729
2956.62	186.546
2957.92	181.914
2959.22	176.392
2960.52	171.503
2961.82	166.713
2963.12	162.224
2964.42	158.488
2965.72	153.43
2967.02	149.742
2968.32	146.004
2969.62	140.667
2970.92	136.612
2972.21	132.522
2973.51	129.055
2974.81	124.228
2976.11	119.445
2977.41	114.395
2978.71	110.536
2980	104.981
2981.3	101.004
2982.6	95.7378
2983.89	91.6933
2985.19	87.0617
2986.49	82.5698
2987.78	78.2268
2989.08	75.1729
2990.37	71.1842
2991.67	67.0799
2992.96	63.2558
2994.26	58.3602
2995.55	54.5092
2996.85	51.7822
2998.14	48.9049
2999.44	45.7331
3000.73	42.8095
3002.02	40.5087
3003.32	38.1536
3004.61	35.6408
3005.9	33.4336
3007.2	31.5356
3008.49	29.1487
3009.78	27.0165
3011.07	24.9775
3012.36	23.6834
3013.66	21.4684
3014.95	20.1506
3016.24	18.7275
3017.53	16.7576
3018.82	15.2399
3020.11	14.5817
3021.4	14.9749
3022.69	15.2751
3023.98	14.5321
3025.27	13.3309
3026.56	12.5357
3027.85	12.277
3029.14	12.0526
3030.43	11.0925
3031.71	10.9596
3033	10.2931
3034.29	9.45302
3035.58	9.29552
3036.86	9.34781
3038.15	8.89411
3039.44	8.71779
3040.73	8.72733
3042.01	8.48946
3043.3	8.20555
3044.59	8.03256
3045.87	8.62421
3047.16	8.37378
3048.44	8.38596
3049.73	8.07628
3051.01	6.81067
3052.3	6.40456
3053.58	6.81213
3054.87	5.8125
3056.15	5.96642
3057.43	6.35684
3058.72	6.19715
3060	7.0536
3061.28	8.10631
3062.57	8.1743
3063.85	7.82584
3065.13	7.87052
3066.41	7.59003
3067.7	7.0103
3068.98	7.55252
3070.26	8.18118
3071.54	7.35869
3072.82	6.95875
3074.1	6.54391
3075.39	6.88735
3076.67	7.39845
3077.95	6.96526
3079.23	6.89731
3080.51	7.56289
3081.79	8.21498
3083.07	8.64249
3084.34	9.26746
3085.62	9.40605
3086.9	8.54948
3088.18	7.07704
3089.46	5.71377
3090.74	5.69247
3092.01	5.37779
3093.29	5.04429
3094.57	5.22254
3095.85	5.33486
3097.12	5.50352
3098.4	5.07742
3099.68	5.02489
3100.95	5.78154
3102.23	5.41558
3103.51	5.9426
3104.78	5.90734
3106.06	6.13432
3107.33	6.99097
3108.61	7.58248
3109.88	7.97207
3111.16	8.22853
3112.43	8.03607
3113.71	8.25896
3114.98	8.28871
3116.25	9.90408
3117.53	10.9718
3118.8	11.8669
3120.07	12.8776
3121.34	13.0523
3122.62	13.7832
3123.89	15.0402
3125.16	15.9391
3126.43	15.9003
3127.71	16.5067
3128.98	17.9052
3130.25	18.9088
3131.52	20.6601
3132.79	22.2187
3134.06	22.0463
3135.33	22.6205
3136.6	24.6563
3137.87	26.0808
3139.14	27.0589
3140.41	27.7521
3141.68	28.2186
3142.95	28.4563
3144.22	28.2058
3145.49	27.6724
3146.75	27.7643
3148.02	27.8571
3149.29	28.6336
