#Acq. time (s)=	45
#Accumulations=	2
#Range (cm-¹)=	200...3150
#Windows=	2
#Auto scanning=	Off
#Autofocus=	Off
#Macrospot=	Off
#AutoExposure=	Off
#Spike filter=	Multiple accum.
#Delay time (s)=	0
#Binning=	1
#Readout mode=	Signal
#DeNoise=	Off
#ICS correction=	On
#Dark correction=	Off
#Inst. Process=	Off
#Detector Gain=	Best Dynamic Range
#Detector ADC=	20 kHz       
#Detector temperature (°C)=	-69.85
#Instrument=	LabRAM HR Evol
#Detector=	Synapse
#Objective=	x100
#Grating=	600 gr/mm
#ND Filter=	100%
#Laser (nm)=	532 
#Hole=	100.021
#Range=	Auto
#Laser Pol.=	No
#Raman. Pol.=	No
#Laser Pol. (°)=	-0.0007625
#Raman Pol. (°)=	89.9995
#Collection=	Microscope
#StageXY=	Marzhauser
#StageZ=	Marzhauser
#X (µm)=	-6350.2
#Y (µm)=	792.6
#Z (µm)=	-64.95
#Full time(mm:ss)=	3:18
#Project=	
#Sample=	
#Site=	
#Title=	Mb_30_27_42_2x_45s_532 nm_x100_100%_600 gr_mm
#Remark=	
#Date=	13.07.2022 11:57
#Acquired=	13.07.2022 11:57:32
#Base:Fit=	10.08.2022 10:40:03
#Base:Sub=	10.08.2022 10:40:17
#Filter:Polynom=	16.08.2022 10:16:15
#AxisType[0]=Intens
#AxisUnit[0]=Cnt
#AxisType[1]=Spectr
#AxisUnit[1]=1/cm
200.563	65.6737
202.377	59.1276
204.194	53.2941
206.008	47.4372
207.821	42.1727
209.634	37.7333
211.449	33.7227
213.262	29.9812
215.074	25.2056
216.885	22.2896
218.699	19.2727
220.51	16.3316
222.321	14.0779
224.131	12.5377
225.941	11.388
227.751	10.5564
229.562	9.08475
231.371	7.23033
233.18	5.90546
234.988	5.45844
236.796	6.31179
238.603	6.71775
240.411	7.33592
242.219	6.21771
244.026	5.36954
245.832	4.45464
247.638	5.10401
249.443	5.05053
251.248	6.12416
253.053	5.45184
254.857	5.58545
256.661	6.35148
258.465	6.9103
260.268	7.69578
262.071	7.57639
263.874	7.22987
265.678	7.82586
267.48	8.45303
269.282	7.88494
271.083	8.42475
272.884	8.48097
274.684	8.06241
276.484	7.52933
278.284	7.32457
280.084	7.91094
281.883	7.26036
283.682	6.49707
285.48	5.6606
287.276	6.46535
289.074	7.23642
290.871	7.84889
292.668	8.28737
294.465	8.7508
296.261	9.87497
298.057	10.4033
299.853	10.0227
301.648	9.68051
303.443	9.72534
305.237	10.0694
307.032	11.7145
308.823	11.3862
310.617	12.2983
312.41	14.2017
314.203	15.765
315.995	16.4625
317.788	16.7131
319.579	16.9124
321.369	18.1723
323.16	19.5376
324.951	21.5256
326.741	22.9302
328.531	22.2626
330.321	21.7452
332.108	19.9513
333.897	20.0077
335.686	21.1457
337.474	21.0725
339.26	21.1144
341.048	21.3449
342.835	20.4108
344.622	20.2877
346.406	20.1379
348.192	17.3788
349.978	16.0596
351.764	14.9445
353.547	14.0515
355.332	13.461
357.116	12.076
358.901	9.66021
360.682	8.6374
362.466	7.98694
364.249	6.61871
366.03	7.10326
367.812	7.48733
369.594	7.30654
371.374	5.257
373.155	4.9995
374.936	5.02211
376.715	6.41492
378.495	5.73711
380.273	5.8334
382.053	6.10396
383.832	6.14408
385.609	5.78606
387.388	4.80941
389.164	5.63504
390.942	6.85191
392.72	6.26862
394.495	6.59808
396.272	6.94256
398.047	7.05519
399.823	8.34438
401.597	8.44075
403.372	8.77635
405.145	8.60932
406.92	10.4633
408.693	11.6922
410.467	13.216
412.239	14.1654
414.012	15.1494
415.783	15.6527
417.556	14.4954
419.327	16.0849
421.099	16.5934
422.869	17.2166
424.64	17.743
426.409	17.162
428.18	17.4601
429.948	16.2512
431.718	16.0175
433.486	15.9405
435.253	15.4837
437.022	15.0816
438.789	15.9188
440.558	16.1149
442.324	16.4443
444.089	15.8216
445.857	15.3688
447.622	15.7328
449.386	17.2354
451.153	17.7019
452.917	17.0757
454.682	17.3424
456.446	17.3931
458.208	16.1021
459.973	15.8735
461.735	16.3519
463.497	17.9694
465.259	19.2468
467.022	19.2659
468.783	19.2103
470.544	19.9615
472.306	20.8349
474.066	20.8278
475.825	20.741
477.585	21.8087
479.346	21.7935
481.104	21.9988
482.862	23.2844
484.62	23.2524
486.38	24.3933
488.137	25.8606
489.894	27.1735
491.65	29.72
493.407	32.224
495.164	34.8891
496.92	35.4693
498.675	35.7623
500.43	36.9668
502.184	37.6304
503.939	38.2606
505.694	38.2334
507.448	39.095
509.201	37.9416
510.954	37.4373
512.706	38.066
514.459	37.9671
516.21	37.8386
517.962	38.4894
519.715	38.3871
521.466	38.6945
523.216	38.3149
524.966	38.1762
526.716	37.9505
528.466	37.2691
530.215	36.8665
531.964	35.8852
533.712	36.3883
535.46	35.8994
537.208	34.5718
538.955	33.5322
540.703	33.1536
542.449	32.8169
544.196	32.1728
545.942	31.9261
547.688	32.333
549.433	31.33
551.178	31.7733
552.923	30.4281
554.667	29.2083
556.412	28.9045
558.155	29.1897
559.899	29.5574
561.642	28.5796
563.385	28.025
565.127	27.7998
566.867	27.9124
568.609	27.2113
570.35	26.2364
572.092	25.7685
573.832	25.7646
575.573	24.2848
577.313	24.0481
579.053	24.4835
580.79	24.6036
582.529	23.124
584.268	21.4812
586.006	20.0402
587.745	19.5135
589.482	17.3404
591.218	15.1755
592.955	13.1729
594.692	11.5792
596.428	11.7478
598.164	12.3683
599.898	13.0789
601.634	12.3011
603.369	12.1764
605.104	12.741
606.836	12.1399
608.57	13.0918
610.304	12.5186
612.037	13.3911
613.769	14.2909
615.501	15.3472
617.234	16.2001
618.966	17.0504
620.696	17.6906
622.427	18.6045
624.159	20.1731
625.887	22.1263
627.618	22.6616
629.348	22.975
631.076	25.0013
632.806	25.963
634.535	26.8777
636.262	28.3658
637.99	30.9734
639.716	32.0763
641.444	33.108
643.172	34.8055
644.897	35.8038
646.624	36.7544
648.348	37.1715
650.075	37.5241
651.801	37.8628
653.524	39.1236
655.249	39.1327
656.972	39.1616
658.697	39.5083
660.419	39.4791
662.143	40.3904
663.865	42.918
665.588	43.6832
667.309	44.3337
669.032	43.3414
670.752	43.3093
672.474	43.6851
674.194	43.1549
675.915	42.7055
677.634	43.6591
679.355	44.9989
681.073	46.3347
682.793	49.0356
684.511	50.2981
686.23	50.6489
687.947	50.9412
689.664	52.9942
691.382	54.9255
693.098	55.4227
694.816	56.5462
696.531	57.4977
698.247	59.2023
699.963	60.3266
701.678	61.0824
703.392	61.3679
705.108	62.1112
706.821	63.1454
708.534	64.2709
710.249	65.2336
711.962	65.2057
713.674	65.9784
715.388	66.736
717.099	67.1369
718.81	65.9391
720.523	67.4858
722.234	68.0121
723.944	67.68
725.654	67.1498
727.365	67.3948
729.075	68.007
730.784	68.472
732.492	68.5481
734.202	68.7146
735.91	68.7394
737.618	69.6689
739.325	71.3438
741.034	71.0173
742.741	71.8095
744.447	73.2479
746.153	74.4259
747.859	75.3272
749.564	76.8211
751.271	76.3271
752.976	77.0306
754.681	77.4178
756.385	79.2236
758.088	79.2432
759.792	80.0423
761.495	81.6428
763.2	83.6963
764.902	86.129
766.604	88.5052
768.306	90.8004
770.008	91.1292
771.709	92.3449
773.41	93.8724
775.11	95.6005
776.811	96.4009
778.51	96.9589
780.21	98.299
781.909	99.5784
783.608	101.305
785.307	103.515
787.005	103.015
788.703	103.578
790.401	104.434
792.098	105.466
793.795	106.007
795.492	106.508
797.188	106.65
798.884	106.61
800.58	106.427
802.276	107.156
803.971	106.931
805.665	107.534
807.36	106.464
809.054	106.32
810.748	105.51
812.441	105.13
814.135	105.183
815.826	105.027
817.518	104.44
819.21	104.702
820.902	103.29
822.594	102.66
824.285	101.749
825.976	100.582
827.665	100.412
829.355	99.2534
831.045	97.6413
832.735	96.464
834.424	96.1708
836.111	95.2648
837.8	95.7403
839.488	95.2586
841.177	94.8501
842.864	93.4847
844.55	93.8475
846.237	92.2231
847.924	91.6552
849.61	92.0319
851.295	89.4835
852.98	87.2734
854.666	86.3396
856.349	85.4011
858.034	83.9308
859.719	82.3543
861.403	81.6677
863.085	80.3327
864.769	79.249
866.452	78.6792
868.133	78.3795
869.816	76.7859
871.498	74.929
873.179	75.5582
874.86	75.888
876.54	75.4262
878.221	74.7864
879.902	74.6419
881.58	73.669
883.26	73.2959
884.938	72.9945
886.618	71.8791
888.297	70.3947
889.974	70.2072
891.653	69.4765
893.329	69.6457
895.007	68.7241
896.683	69.811
898.36	69.032
900.035	67.0867
901.712	66.1465
903.387	63.982
905.063	61.936
906.737	63.1438
908.412	63.5293
910.085	62.5835
911.76	61.366
913.433	61.1677
915.107	61.6312
916.779	62.1978
918.452	62.748
920.124	62.9447
921.797	63.4231
923.467	62.6359
925.138	63.2675
926.81	64.0114
928.48	63.614
930.151	62.5744
931.82	62.9387
933.489	61.6981
935.16	61.798
936.828	62.0907
938.496	62.2844
940.165	61.7039
941.833	61.0196
943.5	60.5294
945.168	60.8724
946.834	60.5065
948.5	60.3571
950.168	61.1039
951.834	60.9632
953.499	61.3183
955.163	62.7759
956.83	62.7926
958.494	61.765
960.158	60.7872
961.821	61.0684
963.487	61.7165
965.15	61.4987
966.812	62.271
968.474	62.1025
970.138	63.1742
971.8	63.9106
973.461	64.1727
975.123	63.432
976.783	63.5946
978.446	62.3831
980.106	61.3015
981.766	58.4953
983.425	57.4115
985.084	57.2183
986.743	56.4094
988.402	56.245
990.06	55.8397
991.72	53.872
993.378	51.6207
995.035	51.1877
996.692	50.555
998.349	49.1587
1000.01	47.6101
1001.66	45.7811
1003.32	44.7521
1004.97	45.6322
1006.63	45.4489
1008.28	47.5743
1009.94	48.9884
1011.59	51.1884
1013.25	54.1297
1014.9	57.54
1016.55	61.6076
1018.21	66.055
1019.86	68.8342
1021.51	71.6149
1023.16	73.7313
1024.81	75.9086
1026.47	78.8705
1028.12	81.808
1029.77	84.3895
1031.42	86.0887
1033.07	87.5777
1034.72	89.6031
1036.37	90.0494
1038.02	90.3096
1039.67	90.1069
1041.31	90.4204
1042.96	91.5579
1044.61	92.6157
1046.26	93.2002
1047.91	92.2271
1049.55	90.7556
1051.2	89.3089
1052.84	87.9883
1054.49	85.2191
1056.14	81.1531
1057.78	78.1918
1059.43	76.115
1061.07	72.377
1062.72	68.6184
1064.36	65.3444
1066	61.875
1067.65	58.2018
1069.29	53.7565
1070.93	50.1409
1072.58	46.0395
1074.22	43.0418
1075.86	39.0361
1077.5	35.9738
1079.14	33.0122
1080.78	30.5248
1082.42	29.0777
1084.06	27.5927
1085.7	27.4784
1087.34	28.1853
1088.98	28.4824
1090.62	31.0677
1092.26	31.7371
1093.9	35.2927
1095.54	35.7812
1097.17	37.1457
1098.81	38.8783
1100.45	39.1644
1102.09	40.6492
1103.72	41.1629
1105.36	42.0026
1106.99	42.0043
1108.63	42.2856
1110.27	42.6161
1111.9	42.5356
1113.53	40.9972
1115.17	40.5844
1116.8	40.2243
1118.43	38.4114
1120.07	38.0442
1121.7	37.7131
1123.33	35.6909
1124.97	34.3136
1126.6	33.4365
1128.23	31.7614
1129.86	29.0264
1131.49	27.3131
1133.12	25.7304
1134.75	25.0026
1136.38	22.5995
1138.01	20.552
1139.64	20.0272
1141.27	17.6243
1142.9	15.2405
1144.53	13.9168
1146.16	13.1097
1147.78	11.5274
1149.41	10.0975
1151.04	9.10622
1152.67	8.21738
1154.29	6.93553
1155.92	6.26052
1157.54	3.84002
1159.17	3.08421
1160.8	2.36866
1162.42	0.950839
1164.05	-0.0485241
1165.67	-1.29745
1167.29	-1.36314
1168.92	-1.71972
1170.54	-0.488302
1172.16	-0.0934516
1173.79	0.260598
1175.41	2.28795
1177.03	1.90146
1178.65	3.54606
1180.28	5.18956
1181.9	6.03091
1183.52	6.9431
1185.14	8.20014
1186.76	8.50529
1188.38	10.1686
1190	12.4392
1191.62	13.4672
1193.24	14.3585
1194.86	14.0193
1196.47	15.9803
1198.09	16.1439
1199.71	18.136
1201.33	19.7932
1202.95	22.3659
1204.56	23.601
1206.18	27.4015
1207.8	30.0471
1209.41	32.0382
1211.03	34.191
1212.64	37.3271
1214.26	40.9417
1215.87	42.8718
1217.49	45.0559
1219.1	46.9103
1220.71	49.4564
1222.33	50.8683
1223.94	54.3246
1225.55	57.8621
1227.16	59.6867
1228.78	61.5068
1230.39	63.1887
1232	65.3766
1233.61	67.3246
1235.22	69.1136
1236.83	70.3726
1238.44	71.7521
1240.05	73.6397
1241.66	73.992
1243.27	75.0786
1244.88	75.3922
1246.49	76.2849
1248.1	77.0428
1249.71	78.5833
1251.32	80.7366
1252.92	81.7992
1254.53	82.3914
1256.14	82.5088
1257.74	84.0227
1259.35	84.4323
1260.96	83.9987
1262.56	83.291
1264.17	82.9733
1265.77	83.8198
1267.38	83.6262
1268.98	83.3624
1270.59	81.3162
1272.19	80.567
1273.79	80.2961
1275.4	79.423
1277	81.027
1278.6	81.4028
1280.21	83.4193
1281.81	84.109
1283.41	84.9573
1285.01	85.3549
1286.61	87.3612
1288.21	88.041
1289.81	89.1929
1291.41	90.35
1293.01	91.6598
1294.61	93.1179
1296.21	94.0567
1297.81	95.7104
1299.41	96.6985
1301.01	98.0328
1302.6	100.883
1304.2	103.55
1305.8	104.965
1307.4	105.941
1308.99	107.109
1310.59	107.772
1312.19	108.016
1313.78	108.681
1315.38	108.627
1316.97	110.189
1318.57	109.782
1320.16	109.48
1321.76	109.492
1323.35	109.918
1324.94	110.064
1326.54	110.255
1328.13	109.932
1329.72	109.246
1331.32	107.749
1332.91	106.867
1334.5	104.953
1336.09	103.213
1337.68	102.099
1339.27	98.2357
1340.87	95.722
1342.45	94.0739
1344.04	92.3259
1345.64	91.1004
1347.22	88.8401
1348.81	86.5673
1350.4	85.2824
1351.99	81.9845
1353.58	80.854
1355.17	78.0108
1356.75	76.1004
1358.34	74.4116
1359.93	72.9074
1361.51	70.225
1363.1	67.8873
1364.69	66.3286
1366.27	64.8125
1367.86	62.4347
1369.44	61.206
1371.03	58.8435
1372.61	57.7839
1374.2	57.3555
1375.78	55.985
1377.37	54.9883
1378.95	54.7077
1380.53	52.7124
1382.11	52.6284
1383.7	51.9788
1385.28	50.8705
1386.86	50.2784
1388.44	48.9144
1390.02	47.8852
1391.6	46.7976
1393.19	46.3741
1394.77	45.5744
1396.35	45.9619
1397.93	43.8164
1399.51	44.3061
1401.08	44.2896
1402.66	43.7915
1404.24	43.9006
1405.82	43.8491
1407.4	44.4982
1408.97	44.9584
1410.55	45.5033
1412.13	47.4057
1413.71	48.7041
1415.28	50.2842
1416.86	52.3559
1418.43	54.4125
1420.01	58.1174
1421.59	60.8257
1423.16	64.1956
1424.73	67.8612
1426.31	70.7797
1427.88	74.2038
1429.46	75.8611
1431.03	77.0942
1432.6	81.8311
1434.18	82.4847
1435.75	85.3742
1437.32	88.607
1438.89	89.8735
1440.46	91.8309
1442.04	93.3754
1443.61	94.92
1445.18	95.2114
1446.75	95.6821
1448.32	95.7295
1449.89	94.869
1451.46	95.0213
1453.03	95.5535
1454.6	94.7713
1456.16	94.7568
1457.73	94.0158
1459.3	93.276
1460.87	94.2677
1462.44	93.9114
1464	91.8903
1465.57	90.3074
1467.14	88.6533
1468.7	86.9236
1470.27	85.448
1471.83	84.511
1473.4	83.5224
1474.96	80.7966
1476.53	78.7154
1478.09	77.5024
1479.66	75.2228
1481.22	72.5384
1482.78	69.637
1484.35	67.7345
1485.91	65.6102
1487.47	63.4476
1489.04	60.6531
1490.6	60.4937
1492.16	58.3764
1493.72	56.7765
1495.28	54.9448
1496.84	52.8039
1498.4	51.0947
1499.96	48.4093
1501.52	47.6435
1503.08	44.9036
1504.64	42.8588
1506.2	40.964
1507.76	38.4112
1509.32	37.4366
1510.88	35.5431
1512.44	32.9365
1513.99	31.55
1515.55	30.3407
1517.11	27.6735
1518.66	26.1606
1520.22	23.0132
1521.78	21.2098
1523.33	18.981
1524.89	17.4797
1526.44	15.9443
1528	15.4976
1529.55	15.2078
1531.11	15.3148
1532.66	14.5267
1534.21	14.8122
1535.77	14.3463
1537.32	14.9916
1538.87	15.1006
1540.43	15.7137
1541.98	16.6625
1543.53	18.0061
1545.08	19.4154
1546.63	20.2159
1548.18	22.2822
1549.74	23.6253
1551.29	24.5251
1552.84	24.0804
1554.39	26.3589
1555.94	26.6434
1557.48	27.1434
1559.03	27.564
1560.58	28.5893
1562.13	30.5582
1563.68	31.2788
1565.23	31.9736
1566.78	34.6129
1568.32	36.5206
1569.87	38.2571
1571.42	40.1688
1572.96	41.9986
1574.51	43.0629
1576.05	44.7662
1577.6	47.1162
1579.14	50.0856
1580.69	51.836
1582.24	54.3234
1583.78	55.2685
1585.32	56.7693
1586.87	58.4425
1588.41	59.587
1589.95	61.5101
1591.5	62.7171
1593.04	63.9838
1594.58	64.7106
1596.12	66.6033
1597.67	68.0187
1599.21	68.4944
1600.75	68.925
1602.29	69.1728
1603.83	69.7215
1605.37	69.9285
1606.91	70.1478
1608.45	70.3403
1609.99	70.3359
1611.53	71.4865
1613.07	71.5107
1614.6	72.7584
1616.14	73.3108
1617.68	75.243
1619.22	76.3232
1620.75	76.7683
1622.29	78.098
1623.83	79.4081
1625.37	80.7537
1626.9	80.9257
1628.44	81.8061
1629.97	82.6537
1631.51	84.3334
1633.04	85.8546
1634.58	88.4143
1636.11	90.8664
1637.65	93.7754
1639.18	95.9827
1640.72	99.3093
1642.25	101.908
1643.78	104.96
1645.31	105.612
1646.85	108.605
1648.38	109.281
1649.91	110.264
1651.44	110.466
1652.97	112.398
1654.5	114.292
1656.03	113.843
1657.56	113.045
1659.1	112.936
1660.62	112.165
1662.15	112.498
1663.68	112.589
1665.21	111.204
1666.74	108.341
1668.27	106.172
1669.8	104.15
1671.32	101.472
1672.85	98.9515
1674.38	95.3778
1675.91	91.1609
1677.43	87.6725
1678.96	83.5426
1680.49	80.1887
1682.01	76.783
1683.54	73.2141
1685.06	69.1388
1686.59	65.5006
1688.11	62.2625
1689.64	57.2473
1691.16	54.5534
1692.68	51.2451
1694.21	48.1778
1695.73	44.4205
1697.25	40.7951
1698.78	38.5165
1700.3	34.8546
1701.82	32.4837
1703.34	30.47
1704.86	29.5177
1706.39	27.7046
1707.91	26.6376
1709.43	25.4816
1710.95	25.0138
1712.47	23.2537
1713.99	22.5823
1715.51	20.9018
1717.02	20.2994
1718.54	18.4417
1720.06	17.6581
1721.58	16.7184
1723.1	16.7273
1724.62	15.3182
1726.13	14.858
1727.65	14.5558
1729.17	14.9785
1730.68	13.9754
1732.2	12.769
1733.72	12.687
1735.23	12.6542
1736.75	12.6657
1738.26	13.4352
1739.78	13.4056
1741.29	11.9335
1742.81	10.8965
1744.32	11.4317
1745.84	11.1487
1747.35	10.7395
1748.86	10.6386
1750.37	9.88695
1751.89	9.78487
1753.4	9.1121
1754.91	9.27047
1756.42	9.67912
1757.93	8.72105
1759.45	8.16983
1760.96	7.22422
1762.47	7.1119
1763.98	6.42202
1765.49	5.66889
1767	5.80667
1768.51	5.27605
1770.02	5.00586
1771.53	4.2087
1773.03	3.99107
1774.54	3.57037
1776.05	3.07614
1777.56	3.36205
1779.07	2.62978
1780.57	2.26217
1782.08	1.99899
1783.59	2.61515
1785.09	2.79067
1786.6	3.58163
1788.11	2.97222
1789.61	3.16143
1791.12	2.56046
1792.62	2.72645
1794.13	3.08671
1795.63	3.43109
1797.13	3.44545
1798.64	3.10508
1800.14	2.84778
1801.65	3.59653
1803.15	4.70579
1804.65	5.1811
1806.15	5.53006
1807.66	6.09333
1809.16	6.97779
1810.66	7.38604
1812.16	7.85645
1813.66	7.89855
1815.16	7.53971
1816.66	7.68427
1818.16	7.71637
1819.66	7.75137
1821.16	7.94315
1822.66	7.44318
1824.16	7.62354
1825.66	7.64006
1827.16	7.38182
1828.66	6.997
1830.16	6.60594
1831.65	6.2439
1833.15	4.85406
1834.65	5.02629
1836.14	4.09244
1837.64	4.68036
1839.14	4.13071
1840.63	3.35003
1842.13	2.65033
1843.62	2.81672
1845.12	2.39406
1846.61	1.93916
1848.11	1.81937
1849.6	2.40892
1851.1	2.18355
1852.59	1.85289
1854.08	1.30627
1855.58	2.13781
1857.07	3.22601
1858.56	3.15244
1860.05	4.42143
1861.55	4.78658
1863.04	4.45379
1864.53	5.07912
1866.02	5.30723
1867.51	6.03034
1869	6.55814
1870.49	6.90115
1871.98	6.74553
1873.47	7.27374
1874.96	7.78307
1876.45	9.11108
1877.94	8.97002
1879.43	8.82118
1880.92	9.75463
1882.41	9.61208
1882.51	9.8357
1884	10.6663
1885.5	10.8316
1886.99	11.5664
1888.48	12.2727
1889.98	12.6958
1891.47	12.2625
1892.96	11.6979
1894.46	10.9745
1895.95	11.0672
1897.44	11.1678
1898.93	10.3871
1900.42	9.20881
1901.91	9.28875
1903.41	8.04466
1904.9	7.92154
1906.39	7.2738
1907.88	7.79795
1909.37	7.04697
1910.86	7.92149
1912.35	6.85678
1913.83	7.03644
1915.32	8.37172
1916.81	8.98857
1918.3	9.32416
1919.79	9.57118
1921.27	9.44371
1922.76	10.4754
1924.25	10.2213
1925.74	10.7826
1927.22	10.89
1928.71	12.0612
1930.19	11.7155
1931.68	11.059
1933.17	11.629
1934.65	10.6242
1936.14	9.78413
1937.62	9.17724
1939.11	8.56821
1940.59	8.3979
1942.07	7.77734
1943.56	7.33951
1945.04	7.74915
1946.52	8.24944
1948.01	7.74453
1949.49	7.91836
1950.97	6.98992
1952.45	8.01665
1953.93	9.01188
1955.42	8.85949
1956.9	9.51741
1958.38	9.60333
1959.86	8.65336
1961.34	9.6285
1962.82	9.35045
1964.3	9.29077
1965.78	8.28409
1967.26	7.79041
1968.74	7.5751
1970.21	7.72787
1971.69	7.10821
1973.17	6.71898
1974.65	6.74033
1976.13	7.10648
1977.6	6.82842
1979.08	7.41112
1980.56	8.10253
1982.03	9.04508
1983.51	9.87885
1984.99	11.3837
1986.46	11.2191
1987.94	12.6922
1989.41	13.4993
1990.89	13.332
1992.36	14.284
1993.84	14.416
1995.31	16.0583
1996.78	17.3369
1998.26	18.2048
1999.73	18.2647
2001.2	17.9496
2002.68	18.1615
2004.15	17.9139
2005.62	18.2059
2007.09	18.4874
2008.56	18.1971
2010.04	17.6823
2011.51	18.0017
2012.98	18.2549
2014.45	17.2445
2015.92	17.4852
2017.39	18.5214
2018.86	18.3493
2020.33	17.5991
2021.8	17.2649
2023.26	18.5416
2024.73	19.0583
2026.2	19.3827
2027.67	19.3953
2029.14	18.6698
2030.61	19.0474
2032.07	19.0561
2033.54	18.4937
2035.01	19.309
2036.47	18.496
2037.94	18.8678
2039.4	18.2898
2040.87	18.4257
2042.33	17.8896
2043.8	17.5982
2045.27	17.944
2046.73	17.8633
2048.19	18.3683
2049.66	18.5864
2051.12	19.2488
2052.59	20.4755
2054.05	21.3766
2055.51	21.3194
2056.97	21.2068
2058.44	21.2479
2059.9	21.9787
2061.36	22.5496
2062.82	22.9056
2064.28	24.5618
2065.74	25.1989
2067.21	25.7674
2068.67	27.2409
2070.13	26.7589
2071.59	27.0579
2073.05	27.0612
2074.51	27.4785
2075.96	28.4756
2077.42	29.5106
2078.88	30.5988
2080.34	31.7363
2081.8	31.9561
2083.26	32.7042
2084.72	34.4456
2086.17	34.8555
2087.63	35.4684
2089.09	37.2455
2090.54	38.0521
2092	37.9181
2093.45	39.8573
2094.91	40.7743
2096.37	42.1961
2097.82	42.7183
2099.28	43.7071
2100.73	44.8723
2102.19	45.6156
2103.64	47.137
2105.09	48.3656
2106.55	49.5284
2108	51.5819
2109.45	52.1988
2110.91	53.6531
2112.36	54.7665
2113.81	56.0446
2115.26	57.2014
2116.72	59.7848
2118.17	61.8116
2119.62	63.6841
2121.07	65.8681
2122.52	67.6187
2123.97	69.137
2125.42	71.2461
2126.87	71.9385
2128.32	73.5922
2129.77	75.152
2131.22	77.3233
2132.67	79.4387
2134.11	80.6302
2135.56	83.1982
2137.01	85.8291
2138.46	87.7375
2139.91	90.1978
2141.35	92.7922
2142.8	95.5775
2144.25	98.9195
2145.7	102.39
2147.14	105.539
2148.59	108.829
2150.03	111.921
2151.48	114.588
2152.92	116.969
2154.37	119.166
2155.81	123.007
2157.26	126.195
2158.7	127.427
2160.15	129.447
2161.59	132.116
2163.03	133.461
2164.47	135.283
2165.92	137.326
2167.36	138.458
2168.8	139.979
2170.24	140.669
2171.69	141.523
2173.13	141.605
2174.57	142.063
2176.01	141.628
2177.45	141.428
2178.89	140.589
2180.33	139.637
2181.77	138.621
2183.21	138.398
2184.65	137.411
2186.09	136.147
2187.53	134.374
2188.97	132.59
2190.4	130.384
2191.84	127.998
2193.28	126.059
2194.72	123.425
2196.16	120.591
2197.59	117.893
2199.03	114.373
2200.47	111.374
2201.9	108.227
2203.34	104.764
2204.77	101.71
2206.21	99.3329
2207.64	97.1044
2209.08	95.106
2210.51	92.4092
2211.95	88.6589
2213.38	86.5226
2214.82	84.9482
2216.25	81.8197
2217.68	79.3527
2219.12	76.8192
2220.55	74.9587
2221.98	72.4915
2223.41	70.346
2224.85	68.9894
2226.28	67.4528
2227.71	65.4749
2229.14	62.8022
2230.57	60.0565
2232	58.0863
2233.43	56.9574
2234.86	54.5183
2236.29	53.193
2237.72	51.2996
2239.15	49.3341
2240.58	47.5676
2242.01	46.5496
2243.44	45.2138
2244.87	44.1431
2246.29	42.5313
2247.72	41.0006
2249.15	40.3135
2250.58	39.2846
2252.01	37.6163
2253.43	36.7224
2254.86	36.189
2256.29	35.2842
2257.71	34.7461
2259.14	33.5914
2260.56	32.7786
2261.99	32.5578
2263.41	31.2638
2264.84	30.3495
2266.26	29.1234
2267.69	28.1005
2269.11	27.2211
2270.53	26.3994
2271.96	25.1356
2273.38	25.1206
2274.8	23.4305
2276.23	23.7486
2277.65	23.4894
2279.07	23.1529
2280.49	22.7354
2281.91	22.0824
2283.34	21.6484
2284.76	22.4943
2286.18	22.0073
2287.6	21.1575
2289.02	21.6177
2290.44	20.414
2291.86	20.1246
2293.28	19.5084
2294.7	19.5335
2296.12	20.1256
2297.54	20.113
2298.96	20.417
2300.37	20.5234
2301.79	20.3772
2303.21	20.7297
2304.63	21.08
2306.04	20.3438
2307.46	20.2095
2308.88	20.0172
2310.3	21.1661
2311.71	21.3551
2313.13	20.9662
2314.54	20.5739
2315.96	19.9646
2317.37	18.6156
2318.79	18.0005
2320.2	17.2264
2321.62	16.5231
2323.03	15.8011
2324.45	15.9493
2325.86	16.2129
2327.27	15.4827
2328.69	14.5428
2330.1	13.7259
2331.51	13
2332.92	12.4456
2334.34	11.8275
2335.75	11.502
2337.16	10.9735
2338.57	10.0895
2339.98	9.64424
2341.39	8.94671
2342.8	8.38504
2344.21	8.34263
2345.63	7.25398
2347.04	7.15441
2348.45	6.74546
2349.85	6.15599
2351.26	5.33763
2352.67	4.99685
2354.08	4.12205
2355.49	3.69599
2356.9	2.62078
2358.3	2.25383
2359.71	1.61624
2361.12	1.18241
2362.53	1.86312
2363.93	2.7398
2365.34	3.63481
2366.75	4.13058
2368.15	4.32361
2369.56	3.32078
2370.97	2.73567
2372.37	2.01323
2373.77	1.95984
2375.18	1.3303
2376.59	1.52703
2377.99	1.50727
2379.39	1.69715
2380.8	1.93189
2382.2	1.19126
2383.6	0.383056
2385.01	0.156546
2386.41	-0.808121
2387.81	-0.916693
2389.21	-0.990911
2390.62	-0.768669
2392.02	-0.128287
2393.42	0.620715
2394.82	1.09963
2396.22	1.38285
2397.62	1.40563
2399.02	1.52294
2400.42	2.90703
2401.82	2.69112
2403.22	3.17575
2404.62	3.58184
2406.02	3.97341
2407.42	4.07347
2408.82	4.51624
2410.22	4.64749
2411.62	5.20617
2413.01	6.08388
2414.41	6.54961
2415.81	6.86323
2417.21	6.63679
2418.6	6.92294
2420	7.17843
2421.4	8.38661
2422.79	9.01269
2424.19	8.68584
2425.59	9.43478
2426.98	8.91421
2428.38	9.27761
2429.77	9.65032
2431.17	10.5814
2432.56	10.0892
2433.95	10.0945
2435.35	10.2545
2436.74	9.42613
2438.14	9.0022
2439.53	8.43513
2440.92	8.53525
2442.31	7.70717
2443.71	7.96961
2445.1	7.26026
2446.49	7.87995
2447.88	7.89296
2449.27	6.6527
2450.67	5.47485
2452.06	4.45903
2453.45	3.78577
2454.84	3.68054
2456.23	3.78761
2457.62	4.2983
2459.01	4.40393
2460.4	5.01426
2461.79	4.93284
2463.18	4.4897
2464.57	4.51857
2465.95	4.30369
2467.34	4.54436
2468.73	4.72428
2470.12	5.17015
2471.5	4.42383
2472.89	4.21008
2474.28	3.94038
2475.67	4.00914
2477.05	4.09174
2478.44	4.38781
2479.82	5.0686
2481.21	5.16172
2482.6	4.7842
2483.98	4.61878
2485.37	4.49523
2486.75	5.30863
2488.13	5.9309
2489.52	6.29158
2490.9	6.49654
2492.29	6.29729
2493.67	5.71428
2495.05	6.01002
2496.44	4.70821
2497.82	5.5556
2499.2	5.30633
2500.58	5.80403
2501.97	5.01956
2503.35	5.11038
2504.73	5.37542
2506.11	4.60841
2507.49	4.54907
2508.87	4.67727
2510.25	4.2818
2511.63	3.24933
2513.01	3.33495
2514.39	2.76082
2515.77	2.70793
2517.15	1.89791
2518.53	1.34409
2519.91	1.48599
2521.29	1.33647
2522.67	1.86024
2524.05	1.69963
2525.42	1.65516
2526.8	1.87542
2528.18	2.15115
2529.55	2.08361
2530.93	1.80345
2532.31	1.78365
2533.69	2.18952
2535.06	2.15259
2536.44	2.9808
2537.81	3.06273
2539.19	2.95109
2540.56	2.38187
2541.94	2.15701
2543.31	2.76723
2544.69	3.43387
2546.06	3.67976
2547.44	3.61779
2548.81	3.91289
2550.18	3.47136
2551.56	4.43336
2552.93	5.85642
2554.3	5.62158
2555.67	5.71551
2557.04	5.56905
2558.42	5.78226
2559.79	5.53056
2561.16	5.65778
2562.53	5.537
2563.9	5.65746
2565.27	5.79478
2566.64	6.53377
2568.01	6.47289
2569.38	6.64339
2570.75	5.93958
2572.12	6.0596
2573.49	6.03299
2574.86	5.50155
2576.23	5.47971
2577.6	5.75199
2578.97	5.37589
2580.33	4.81421
2581.7	4.87045
2583.07	4.90699
2584.44	4.82292
2585.8	5.06979
2587.17	4.43487
2588.54	4.22779
2589.9	4.08067
2591.27	4.74064
2592.64	4.54232
2594	4.56567
2595.37	4.99141
2596.73	4.60033
2598.1	4.45281
2599.46	5.14384
2600.83	4.58719
2602.19	5.63551
2603.55	5.54947
2604.92	5.31261
2606.28	5.09219
2607.64	4.40068
2609.01	4.70886
2610.37	5.32128
2611.73	5.13826
2613.09	4.55718
2614.46	3.79256
2615.82	3.80155
2617.18	3.71047
2618.54	3.67373
2619.9	3.54929
2621.26	2.76331
2622.62	1.77465
2623.98	1.82153
2625.34	2.17895
2626.7	1.90996
2628.06	1.88361
2629.42	2.52834
2630.78	2.52399
2632.14	2.54158
2633.5	3.4061
2634.86	3.50321
2636.21	3.0687
2637.57	2.74311
2638.93	2.85268
2640.29	3.40736
2641.64	3.26931
2643	3.16877
2644.36	3.27909
2645.71	3.57214
2647.07	3.39584
2648.43	3.12598
2649.78	2.82793
2651.14	2.32463
2652.49	2.08081
2653.85	1.71796
2655.2	1.67918
2656.56	2.58894
2657.91	1.65088
2659.26	1.43994
2660.62	0.888911
2661.97	1.31505
2663.32	0.893409
2664.68	0.591673
2666.03	0.480269
2667.38	0.474634
2668.74	-0.00713377
2670.09	0.627858
2671.44	-0.385201
2672.79	-0.558084
2674.14	0.0891555
2675.49	0.339065
2676.84	0.617628
2678.19	-0.259639
2679.54	-0.362289
2680.89	0.248091
2682.24	0.696751
2683.59	1.24879
2684.94	1.04382
2686.29	1.7584
2687.64	1.86451
2688.99	2.16215
2690.34	2.69196
2691.69	3.00864
2693.03	3.16397
2694.38	3.39715
2695.73	4.4058
2697.08	5.26971
2698.42	5.90349
2699.77	6.69315
2701.12	7.20333
2702.46	7.07935
2703.81	7.29987
2705.15	8.14177
2706.5	8.40785
2707.85	9.03128
2709.19	8.88986
2710.54	9.71104
2711.88	10.0994
2713.22	10.8649
2714.57	10.9747
2715.91	10.6557
2717.26	10.7678
2718.6	10.939
2719.94	11.8861
2721.29	11.997
2722.63	12.4605
2723.97	12.1847
2725.31	11.4863
2726.66	10.8452
2728	10.5501
2729.34	10.5505
2730.68	9.72028
2732.02	9.79617
2733.36	9.73236
2734.7	9.83627
2736.04	10.1976
2737.38	10.1571
2738.72	10.2048
2740.06	10.0058
2741.4	10.1383
2742.74	9.95895
2744.08	9.54748
2745.42	9.49854
2746.76	10.2372
2748.09	9.343
2749.43	8.42005
2750.77	8.06406
2752.11	7.66512
2753.45	6.99885
2754.78	6.86759
2756.12	5.73352
2757.46	5.62604
2758.79	4.63352
2760.13	3.91387
2761.46	4.14771
2762.8	4.12241
2764.14	3.86683
2765.47	3.17686
2766.8	3.20855
2768.14	3.3054
2769.47	2.99459
2770.81	3.05809
2772.14	2.78564
2773.48	2.59701
2774.81	2.12507
2776.14	1.54489
2777.48	1.99723
2778.81	1.13479
2780.14	1.11871
2781.47	0.247599
2782.8	0.277015
2784.14	0.0614774
2785.47	-0.0180671
2786.8	-0.142193
2788.13	-0.426156
2789.46	0.137127
2790.79	0.169971
2792.12	-0.0462942
2793.45	0.183239
2794.78	0.0960505
2796.11	0.123864
2797.44	0.229292
2798.77	0.951106
2800.1	0.948021
2801.43	1.06045
2802.76	1.44373
2804.09	0.88284
2805.41	0.833401
2806.74	-0.359419
2808.07	-0.371521
2809.4	-0.492674
2810.72	0.00431237
2812.05	0.164507
2813.38	0.494028
2814.71	0.697808
2816.03	1.9869
2817.36	3.50041
2818.68	4.54296
2820.01	6.01998
2821.33	8.82863
2822.66	10.7401
2823.98	13.3017
2825.31	15.2566
2826.63	18.0841
2827.96	20.6188
2829.28	22.5468
2830.6	25.3021
2831.93	28.3864
2833.25	32.191
2834.57	35.4021
2835.9	38.2719
2837.22	41.8854
2838.54	45.5779
2839.86	49.4796
2841.18	53.6509
2842.5	58.323
2843.83	63.9307
2845.15	68.4621
2846.47	74.1038
2847.79	79.4558
2849.11	85.1329
2850.43	90.8516
2851.75	97.6471
2853.07	103.904
2854.39	110.062
2855.71	116.238
2857.03	121.504
2858.35	126.789
2859.66	132.489
2860.98	137.735
2862.3	143.132
2863.62	149.361
2864.94	154.189
2866.25	158.984
2867.57	163.316
2868.89	167.315
2870.2	171.006
2871.52	175.341
2872.84	178.67
2874.15	183.404
2875.47	187.293
2876.78	191.638
2878.1	195.484
2879.41	198.581
2880.73	202.712
2882.04	205.439
2883.36	208.912
2884.67	211.867
2885.99	216.19
2887.3	219.939
2888.61	223.308
2889.93	226.219
2891.24	229.165
2892.55	231.535
2893.86	235.261
2895.18	240.049
2896.49	244.663
2897.8	249.868
2899.11	255.577
2900.42	260.637
2901.73	265.931
2903.05	272.503
2904.36	280.134
2905.67	287.219
2906.98	294.376
2908.29	301.665
2909.6	310.961
2910.91	318.754
2912.21	328.501
2913.52	336.969
2914.83	345.073
2916.14	354.772
2917.45	362.918
2918.76	369.837
2920.07	377.108
2921.37	384.117
2922.68	391.383
2923.99	397.284
2925.29	402.033
2926.6	407.063
2927.91	410.693
2929.22	414.485
2930.52	415.734
2931.83	417.128
2933.13	417.553
2934.44	417.305
2935.74	416.91
2937.05	415.661
2938.35	412.927
2939.66	410.466
2940.96	405.626
2942.26	400.982
2943.57	395.547
2944.87	389.019
2946.18	382.638
2947.48	375.348
2948.78	369.752
2950.08	362.365
2951.39	354.823
2952.69	345.98
2953.99	337.479
2955.29	328.763
2956.59	319.652
2957.9	311.347
2959.2	303.973
2960.5	295.142
2961.8	285.75
2963.1	277.058
2964.4	269.22
2965.7	261.084
2967	253.494
2968.3	247.146
2969.6	240.41
2970.9	232.235
2972.19	224.672
2973.49	218.417
2974.79	212.333
2976.09	206.174
2977.39	200.381
2978.68	192.367
2979.98	185.042
2981.28	178.396
2982.58	170.118
2983.87	163.379
2985.17	157.041
2986.47	150.459
2987.76	143.342
2989.06	135.628
2990.35	128.961
2991.65	122.56
2992.94	115.369
2994.24	108.99
2995.53	102.261
2996.83	96.5321
2998.12	91.2523
2999.42	85.2583
3000.71	80.1222
3002	74.5337
3003.3	68.6313
3004.59	62.7745
3005.88	57.4769
3007.18	53.3253
3008.47	48.8036
3009.76	45.0494
3011.05	41.3213
3012.34	38.1619
3013.64	34.6093
3014.93	30.7244
3016.22	27.4141
3017.51	24.5585
3018.8	22.0093
3020.09	19.7336
3021.38	17.3415
3022.67	15.9478
3023.96	13.8695
3025.25	12.1383
3026.54	11.0217
3027.83	10.7607
3029.12	10.9073
3030.41	10.8228
3031.69	10.8359
3032.98	11.3121
3034.27	10.7769
3035.56	10.3269
3036.84	11.7427
3038.13	12.7623
3039.42	13.6446
3040.71	14.4908
3041.99	14.0265
3043.28	14.1356
3044.57	15.1238
3045.85	15.7694
3047.14	16.4077
3048.42	17.077
3049.71	17.2681
3050.99	17.2308
3052.28	17.3171
3053.56	17.921
3054.85	18.0987
3056.13	17.2706
3057.41	17.3978
3058.7	17.5713
3059.98	17.4256
3061.26	17.256
3062.55	17.1641
3063.83	16.5772
3065.11	16.4802
3066.39	15.5762
3067.68	14.1061
3068.96	13.4998
3070.24	13.9462
3071.52	12.5088
3072.8	12.1871
3074.08	11.1056
3075.36	9.30273
3076.65	7.90071
3077.93	7.14223
3079.21	6.2858
3080.49	4.6456
3081.77	4.2348
3083.04	3.5921
3084.32	3.28998
3085.6	2.1697
3086.88	1.44028
3088.16	0.768286
3089.44	0.17271
3090.72	0.030034
3091.99	-0.520925
3093.27	-1.21376
3094.55	-0.989655
3095.83	-0.519896
3097.1	-0.0191252
3098.38	0.225993
3099.66	0.572908
3100.93	1.14562
3102.21	1.26232
3103.49	1.56825
3104.76	1.36832
3106.04	1.71567
3107.31	2.03771
3108.59	1.76271
3109.86	1.85686
3111.14	2.29527
3112.41	2.31492
3113.69	2.65007
3114.96	3.42919
3116.23	4.34355
3117.51	4.77046
3118.78	4.93806
3120.05	5.27891
3121.33	6.3023
3122.6	6.8146
3123.87	7.5961
3125.14	8.22106
3126.41	9.2497
3127.69	9.82905
3128.96	10.4479
3130.23	10.1789
3131.5	10.6621
3132.77	11.9302
3134.04	12.7019
3135.31	12.4926
3136.58	13.9558
3137.85	13.6995
3139.12	14.9454
3140.39	16.1839
3141.66	17.221
3142.93	17.6854
3144.2	18.2113
3145.47	18.1893
3146.74	18.2543
3148	18.4128
3149.27	20.0507
