#Acq. time (s)=	45
#Accumulations=	2
#Range (cm-¹)=	200...3150
#Windows=	2
#Auto scanning=	Off
#Autofocus=	Off
#Macrospot=	Off
#AutoExposure=	Off
#Spike filter=	Multiple accum.
#Delay time (s)=	0
#Binning=	1
#Readout mode=	Signal
#DeNoise=	Off
#ICS correction=	On
#Dark correction=	Off
#Inst. Process=	Off
#Detector Gain=	Best Dynamic Range
#Detector ADC=	20 kHz       
#Detector temperature (°C)=	-69.85
#Instrument=	LabRAM HR Evol
#Detector=	Synapse
#Objective=	x100
#Grating=	600 gr/mm
#ND Filter=	100%
#Laser (nm)=	532 
#Hole=	100.021
#Range=	Auto
#Laser Pol.=	No
#Raman. Pol.=	No
#Laser Pol. (°)=	-0.0007625
#Raman Pol. (°)=	89.9995
#Collection=	Microscope
#StageXY=	Marzhauser
#StageZ=	Marzhauser
#X (µm)=	-6374.4
#Y (µm)=	826.6
#Z (µm)=	-64.65
#Full time(mm:ss)=	3:18
#Project=	
#Sample=	
#Site=	
#Title=	Mb_30_27_31_2x_45s_532 nm_x100_100%_600 gr_mm
#Remark=	
#Date=	13.07.2022 11:01
#Acquired=	13.07.2022 11:01:32
#Base:Fit=	10.08.2022 10:40:03
#Base:Sub=	10.08.2022 10:40:17
#Filter:Polynom=	16.08.2022 10:16:15
#AxisType[0]=Intens
#AxisUnit[0]=Cnt
#AxisType[1]=Spectr
#AxisUnit[1]=1/cm
200.563	31.2056
202.377	31.2578
204.194	29.7342
206.008	28.8169
207.821	27.6278
209.634	26.021
211.449	24.4875
213.262	22.2924
215.074	19.9056
216.885	18.2949
218.699	16.0406
220.51	15.8601
222.321	15.0108
224.131	14.7203
225.941	14.5416
227.751	14.3526
229.562	13.4687
231.371	13.4295
233.18	13.8329
234.988	13.0341
236.796	11.295
238.603	11.3311
240.411	11.9107
242.219	11.1115
244.026	11.7791
245.832	11.2272
247.638	9.71633
249.443	9.46618
251.248	8.70211
253.053	9.59398
254.857	9.751
256.661	11.0118
258.465	11.6105
260.268	12.7526
262.071	14.5288
263.874	15.3449
265.678	15.8702
267.48	16.8581
269.282	17.0783
271.083	16.7726
272.884	16.5174
274.684	15.5942
276.484	16.5656
278.284	17.2808
280.084	17.2563
281.883	18.7246
283.682	20.5381
285.48	21.7319
287.276	21.5434
289.074	21.9323
290.871	21.0035
292.668	20.606
294.465	20.5678
296.261	18.9322
298.057	18.3902
299.853	17.3752
301.648	17.0988
303.443	17.2191
305.237	17.1125
307.032	17.0683
308.823	17.4486
310.617	18.0157
312.41	17.4494
314.203	17.4235
315.995	16.2682
317.788	16.9553
319.579	15.9011
321.369	17.1342
323.16	15.6703
324.951	14.8137
326.741	15.1493
328.531	15.9258
330.321	15.5812
332.108	14.8417
333.897	14.5537
335.686	13.1657
337.474	12.886
339.26	13.4821
341.048	13.8841
342.835	14.7414
344.622	16.1914
346.406	16.4242
348.192	16.8343
349.978	18.4704
351.764	18.0504
353.547	17.7068
355.332	16.3557
357.116	15.6156
358.901	15.4595
360.682	14.486
362.466	14.7911
364.249	15.2661
366.03	15.5761
367.812	15.7243
369.594	16.0669
371.374	16.5149
373.155	15.8389
374.936	15.4277
376.715	13.3126
378.495	12.824
380.273	11.7499
382.053	11.3478
383.832	10.4222
385.609	10.2807
387.388	10.8406
389.164	11.2673
390.942	11.4492
392.72	12.3782
394.495	11.5075
396.272	11.6898
398.047	12.0428
399.823	11.8502
401.597	11.7363
403.372	12.0349
405.145	11.8128
406.92	13.2206
408.693	13.2944
410.467	14.0113
412.239	13.1581
414.012	14.9936
415.783	15.0621
417.556	13.7973
419.327	14.1034
421.099	14.1578
422.869	13.8115
424.64	14.6801
426.409	16.0516
428.18	16.2083
429.948	17.0219
431.718	17.3033
433.486	17.3673
435.253	17.3106
437.022	18.1038
438.789	17.555
440.558	16.464
442.324	16.2826
444.089	15.6332
445.857	16.3998
447.622	16.1858
449.386	16.0116
451.153	16.7488
452.917	16.2546
454.682	16.2455
456.446	15.6571
458.208	15.7482
459.973	14.9048
461.735	15.0067
463.497	13.7026
465.259	13.1883
467.022	14.5541
468.783	15.2468
470.544	14.7336
472.306	15.6943
474.066	17.0868
475.825	17.5189
477.585	18.1015
479.346	17.9761
481.104	17.949
482.862	18.2973
484.62	19.5379
486.38	20.1412
488.137	21.4709
489.894	23.2533
491.65	24.9356
493.407	26.7694
495.164	28.6789
496.92	29.2272
498.675	29.4206
500.43	30.1399
502.184	30.423
503.939	30.343
505.694	30.359
507.448	31.1109
509.201	31.1102
510.954	31.4927
512.706	32.7058
514.459	32.9644
516.21	31.8921
517.962	31.836
519.715	32.2394
521.466	31.8765
523.216	31.373
524.966	31.5108
526.716	31.4736
528.466	30.9461
530.215	30.1382
531.964	29.3297
533.712	28.7812
535.46	28.0674
537.208	27.6697
538.955	26.0422
540.703	25.6111
542.449	25.3141
544.196	23.7258
545.942	23.4461
547.688	21.7161
549.433	21.4273
551.178	19.1161
552.923	19.6104
554.667	18.584
556.412	17.2318
558.155	15.4849
559.899	16.3887
561.642	15.1579
563.385	15.0194
565.127	14.5822
566.867	13.1987
568.609	12.5989
570.35	12.436
572.092	12.1933
573.832	12.2857
575.573	12.3638
577.313	12.6139
579.053	11.1414
580.79	10.7101
582.529	9.3116
584.268	8.78074
586.006	7.97487
587.745	7.06342
589.482	5.89452
591.218	4.81504
592.955	4.04936
594.692	3.42329
596.428	3.01828
598.164	3.20003
599.898	3.34288
601.634	1.88151
603.369	1.47622
605.104	2.54137
606.836	4.30469
608.57	5.51909
610.304	6.48082
612.037	7.60239
613.769	7.51416
615.501	7.56163
617.234	7.48375
618.966	8.16726
620.696	9.63563
622.427	10.2012
624.159	10.0455
625.887	11.2747
627.618	12.7878
629.348	13.4347
631.076	13.6239
632.806	14.0877
634.535	13.6147
636.262	13.7611
637.99	13.4607
639.716	14.5521
641.444	14.7612
643.172	15.0568
644.897	15.6702
646.624	15.6586
648.348	14.9604
650.075	15.7862
651.801	14.9044
653.524	14.2358
655.249	14.7559
656.972	14.5665
658.697	15.0414
660.419	14.545
662.143	14.0081
663.865	13.6465
665.588	13.1187
667.309	13.8635
669.032	12.7125
670.752	12.954
672.474	12.256
674.194	12.9128
675.915	13.3925
677.634	13.9602
679.355	15.6111
681.073	16.4214
682.793	16.6338
684.511	18.4976
686.23	19.8466
687.947	21.0082
689.664	23.5546
691.382	25.1706
693.098	27.4636
694.816	28.7303
696.531	29.5744
698.247	30.306
699.963	32.2839
701.678	33.1369
703.392	34.013
705.108	35.3559
706.821	36.3396
708.534	37.0093
710.249	37.5192
711.962	38.9564
713.674	38.8521
715.388	39.0016
717.099	39.4846
718.81	40.1354
720.523	40.692
722.234	41.0363
723.944	42.0674
725.654	42.4282
727.365	42.9982
729.075	42.4898
730.784	43.1184
732.492	43.4435
734.202	43.4363
735.91	44.1622
737.618	44.0596
739.325	44.2504
741.034	43.8744
742.741	44.4594
744.447	45.6182
746.153	46.7938
747.859	48.6546
749.564	49.5606
751.271	50.6601
752.976	51.2207
754.681	51.8089
756.385	53.8974
758.088	55.7303
759.792	57.5019
761.495	59.4313
763.2	60.8002
764.902	62.1804
766.604	62.476
768.306	63.6666
770.008	66.246
771.709	68.072
773.41	69.4721
775.11	69.9738
776.811	71.7963
778.51	74.5801
780.21	74.8039
781.909	75.5666
783.608	76.7209
785.307	77.2318
787.005	76.979
788.703	78.3925
790.401	78.1848
792.098	79.0772
793.795	79.4592
795.492	80.5528
797.188	80.7944
798.884	82.0365
800.58	82.3255
802.276	83.6589
803.971	83.9382
805.665	83.9343
807.36	84.6452
809.054	85.3349
810.748	85.6231
812.441	85.578
814.135	85.7784
815.826	86.4799
817.518	86.194
819.21	85.6031
820.902	86.4026
822.594	86.0828
824.285	85.545
825.976	86.2852
827.665	87.2341
829.355	87.2245
831.045	85.5794
832.735	83.8397
834.424	82.2132
836.111	80.3858
837.8	79.683
839.488	79.4466
841.177	78.5788
842.864	77.6317
844.55	75.7866
846.237	74.2358
847.924	72.705
849.61	70.7507
851.295	68.966
852.98	68.3716
854.666	66.5166
856.349	65.7241
858.034	64.1976
859.719	62.1491
861.403	61.3384
863.085	60.1131
864.769	57.9665
866.452	57.0065
868.133	55.3735
869.816	54.3008
871.498	53.5059
873.179	52.9833
874.86	52.3301
876.54	52.486
878.221	51.568
879.902	50.5327
881.58	49.195
883.26	49.5041
884.938	49.7065
886.618	50.5979
888.297	50.0138
889.974	49.3143
891.653	49.544
893.329	49.1604
895.007	48.4852
896.683	48.8024
898.36	48.9119
900.035	48.3655
901.712	48.4502
903.387	47.8605
905.063	48.1513
906.737	48.0478
908.412	48.0264
910.085	49.2548
911.76	48.7307
913.433	48.3687
915.107	47.6326
916.779	48.0122
918.452	48.9841
920.124	49.8831
921.797	50.5855
923.467	50.2414
925.138	49.8154
926.81	49.1627
928.48	49.384
930.151	49.4455
931.82	49.2402
933.489	48.0919
935.16	47.2706
936.828	47.7207
938.496	47.4436
940.165	47.7693
941.833	46.2587
943.5	45.4716
945.168	44.724
946.834	45.2897
948.5	43.8639
950.168	43.7438
951.834	42.1557
953.499	42.2808
955.163	40.8256
956.83	41.1793
958.494	40.483
960.158	38.2641
961.821	37.5541
963.487	37.5137
965.15	39.0482
966.812	38.9923
968.474	38.7513
970.138	38.1706
971.8	38.0322
973.461	37.5678
975.123	36.7617
976.783	36.398
978.446	36.3041
980.106	36.2063
981.766	35.6064
983.425	35.4394
985.084	35.7517
986.743	35.017
988.402	35.3777
990.06	34.9888
991.72	34.6795
993.378	33.9227
995.035	31.0319
996.692	29.7252
998.349	27.8822
1000.01	28.9513
1001.66	30.3035
1003.32	31.7384
1004.97	31.6427
1006.63	32.7954
1008.28	34.9659
1009.94	36.9345
1011.59	39.7123
1013.25	41.3659
1014.9	43.1935
1016.55	44.9608
1018.21	47.4185
1019.86	50.8616
1021.51	52.0914
1023.16	53.7771
1024.81	55.0763
1026.47	57.0551
1028.12	58.5239
1029.77	60.85
1031.42	61.0118
1033.07	62.618
1034.72	62.8771
1036.37	64.6822
1038.02	65.9372
1039.67	66.8755
1041.31	66.1655
1042.96	66.059
1044.61	67.243
1046.26	67.0817
1047.91	68.1077
1049.55	66.6835
1051.2	66.2707
1052.84	64.8291
1054.49	62.9813
1056.14	59.7532
1057.78	57.8477
1059.43	55.8039
1061.07	52.9404
1062.72	49.9269
1064.36	47.2454
1066	43.7414
1067.65	40.0785
1069.29	36.5388
1070.93	32.7592
1072.58	29.1337
1074.22	25.241
1075.86	22.0796
1077.5	19.8042
1079.14	19.7232
1080.78	19.2787
1082.42	20.1001
1084.06	19.3688
1085.7	18.128
1087.34	16.7185
1088.98	17.1392
1090.62	16.9471
1092.26	16.3538
1093.9	16.6189
1095.54	17.0359
1097.17	17.6735
1098.81	17.7182
1100.45	18.6824
1102.09	18.8455
1103.72	17.3746
1105.36	18.3362
1106.99	18.6956
1108.63	19.6468
1110.27	20.0797
1111.9	19.7028
1113.53	18.8539
1115.17	19.5591
1116.8	20.3074
1118.43	20.9497
1120.07	21.5985
1121.7	20.5622
1123.33	20.0664
1124.97	19.6082
1126.6	19.4842
1128.23	19.0135
1129.86	19.338
1131.49	18.1882
1133.12	17.0584
1134.75	16.0173
1136.38	14.6621
1138.01	13.8357
1139.64	13.3096
1141.27	12.0165
1142.9	11.6713
1144.53	11.0439
1146.16	9.89032
1147.78	8.80618
1149.41	9.0005
1151.04	8.60149
1152.67	7.79558
1154.29	7.44351
1155.92	6.93361
1157.54	5.98852
1159.17	5.12321
1160.8	3.88156
1162.42	3.26723
1164.05	2.65855
1165.67	2.44281
1167.29	1.99129
1168.92	2.70815
1170.54	2.5616
1172.16	2.55375
1173.79	3.18307
1175.41	3.83526
1177.03	3.66003
1178.65	2.33023
1180.28	2.40439
1181.9	3.09591
1183.52	2.11509
1185.14	2.32366
1186.76	3.60744
1188.38	3.80553
1190	3.9715
1191.62	4.27358
1193.24	5.24528
1194.86	6.26721
1196.47	7.33799
1198.09	7.91466
1199.71	7.82219
1201.33	7.59548
1202.95	7.4532
1204.56	8.38516
1206.18	9.38721
1207.8	11.1316
1209.41	12.948
1211.03	14.1885
1212.64	15.7642
1214.26	16.79
1215.87	18.6447
1217.49	19.453
1219.1	21.0792
1220.71	21.6861
1222.33	23.643
1223.94	25.7219
1225.55	27.9348
1227.16	29.8512
1228.78	32.5299
1230.39	36.0257
1232	37.795
1233.61	40.1251
1235.22	42.4823
1236.83	44.5676
1238.44	47.1742
1240.05	49.4667
1241.66	51.0796
1243.27	53.5165
1244.88	54.6903
1246.49	57.1164
1248.1	58.9848
1249.71	60.7326
1251.32	61.253
1252.92	62.5768
1254.53	64.0456
1256.14	65.1758
1257.74	65.5524
1259.35	66.4175
1260.96	68.5454
1262.56	68.8431
1264.17	69.2172
1265.77	70.8836
1267.38	71.8903
1268.98	72.5238
1270.59	73.1694
1272.19	74.5165
1273.79	74.9017
1275.4	74.0636
1277	73.8852
1278.6	73.0504
1280.21	72.5207
1281.81	72.2869
1283.41	73.1886
1285.01	73.2088
1286.61	73.2727
1288.21	73.9317
1289.81	73.5972
1291.41	72.6666
1293.01	72.9452
1294.61	73.2683
1296.21	72.9182
1297.81	72.4495
1299.41	72.7943
1301.01	73.99
1302.6	75.3341
1304.2	76.1134
1305.8	77.5816
1307.4	78.2237
1308.99	79.9353
1310.59	80.865
1312.19	81.3416
1313.78	82.5313
1315.38	82.9773
1316.97	83.4429
1318.57	83.691
1320.16	83.3413
1321.76	83.0893
1323.35	83.0066
1324.94	82.9896
1326.54	82.6944
1328.13	81.5562
1329.72	80.7133
1331.32	80.7376
1332.91	80.1021
1334.5	79.851
1336.09	78.512
1337.68	77.6249
1339.27	76.7904
1340.87	76.0177
1342.45	74.9403
1344.04	73.744
1345.64	72.8374
1347.22	70.8288
1348.81	69.0568
1350.4	66.8378
1351.99	64.732
1353.58	62.7274
1355.17	60.6349
1356.75	59.3169
1358.34	57.3287
1359.93	55.7011
1361.51	54.1965
1363.1	53.3412
1364.69	51.8004
1366.27	50.256
1367.86	50.1277
1369.44	49.0823
1371.03	48.1303
1372.61	47.2799
1374.2	46.5149
1375.78	46.2096
1377.37	45.8029
1378.95	46.1498
1380.53	46.2532
1382.11	45.8434
1383.7	45.657
1385.28	46.5109
1386.86	46.356
1388.44	45.8212
1390.02	45.3995
1391.6	44.9625
1393.19	43.8349
1394.77	42.1015
1396.35	41.4051
1397.93	40.2361
1399.51	39.5063
1401.08	38.1914
1402.66	38.3187
1404.24	38.2535
1405.82	38.333
1407.4	39.2836
1408.97	40.1125
1410.55	41.0082
1412.13	40.5628
1413.71	42.0011
1415.28	43.1558
1416.86	44.9207
1418.43	46.6316
1420.01	48.6655
1421.59	50.0943
1423.16	51.8585
1424.73	53.5814
1426.31	55.9153
1427.88	58.9475
1429.46	60.9731
1431.03	63.6025
1432.6	66.998
1434.18	69.6102
1435.75	72.3067
1437.32	74.4535
1438.89	76.4485
1440.46	78.8278
1442.04	80.9144
1443.61	82.4833
1445.18	83.9694
1446.75	86.5452
1448.32	86.8434
1449.89	87.0016
1451.46	88.1172
1453.03	89.8852
1454.6	90.3542
1456.16	89.3031
1457.73	88.8427
1459.3	88.3434
1460.87	86.938
1462.44	85.2914
1464	83.4984
1465.57	80.2313
1467.14	77.4582
1468.7	75.1792
1470.27	72.7456
1471.83	69.4503
1473.4	67.0687
1474.96	64.6615
1476.53	61.9803
1478.09	59.5797
1479.66	57.7336
1481.22	56.4973
1482.78	54.5885
1484.35	53.084
1485.91	50.252
1487.47	48.5917
1489.04	46.6209
1490.6	44.5927
1492.16	43.9746
1493.72	42.3702
1495.28	40.8312
1496.84	39.7825
1498.4	38.4598
1499.96	37.2697
1501.52	36.6677
1503.08	35.1572
1504.64	34.462
1506.2	32.8973
1507.76	31.8246
1509.32	31.61
1510.88	31.4132
1512.44	30.207
1513.99	29.3021
1515.55	28.2164
1517.11	27.6723
1518.66	26.9725
1520.22	25.9654
1521.78	25.6737
1523.33	25.165
1524.89	25.9154
1526.44	25.6542
1528	25.4582
1529.55	25.6589
1531.11	24.8967
1532.66	24.5652
1534.21	23.9456
1535.77	24.9903
1537.32	25.5698
1538.87	24.9646
1540.43	24.4865
1541.98	25.5373
1543.53	26.0422
1545.08	27.6405
1546.63	28.8672
1548.18	29.2597
1549.74	28.9813
1551.29	30.2437
1552.84	31.1387
1554.39	32.6804
1555.94	33.7964
1557.48	34.7829
1559.03	35.3751
1560.58	36.695
1562.13	38.2243
1563.68	38.982
1565.23	40.7708
1566.78	42.6383
1568.32	43.9448
1569.87	45.9322
1571.42	47.0954
1572.96	47.7088
1574.51	49.3077
1576.05	50.4596
1577.6	51.7988
1579.14	53.0481
1580.69	53.5043
1582.24	55.9002
1583.78	57.7861
1585.32	59.3506
1586.87	60.5135
1588.41	61.4636
1589.95	62.5987
1591.5	64.1747
1593.04	65.7295
1594.58	66.5755
1596.12	66.5444
1597.67	67.1565
1599.21	68.3079
1600.75	69.5123
1602.29	70.9606
1603.83	70.8894
1605.37	70.981
1606.91	71.9037
1608.45	72.0994
1609.99	73.7018
1611.53	73.6884
1613.07	74.1179
1614.6	73.5973
1616.14	74.4594
1617.68	75.1713
1619.22	76.0711
1620.75	75.7745
1622.29	76.7882
1623.83	76.2337
1625.37	76.4949
1626.9	76.9731
1628.44	78.9491
1629.97	79.9069
1631.51	81.2843
1633.04	82.4719
1634.58	84.5952
1636.11	87.1401
1637.65	89.4287
1639.18	90.5839
1640.72	91.3415
1642.25	92.8046
1643.78	95.5129
1645.31	97.0036
1646.85	98.8478
1648.38	100.764
1649.91	102.024
1651.44	103.518
1652.97	104.776
1654.5	106.409
1656.03	106.927
1657.56	107.47
1659.1	108.693
1660.62	107.83
1662.15	107.177
1663.68	106.761
1665.21	106.195
1666.74	105.861
1668.27	104.595
1669.8	102.485
1671.32	99.7192
1672.85	97.5819
1674.38	96.418
1675.91	93.6975
1677.43	91.544
1678.96	88.7104
1680.49	85.9592
1682.01	83.0793
1683.54	79.7443
1685.06	76.21
1686.59	72.981
1688.11	69.416
1689.64	66.13
1691.16	63.0561
1692.68	60.1077
1694.21	56.2071
1695.73	53.3162
1697.25	50.1413
1698.78	47.7938
1700.3	44.2365
1701.82	41.8556
1703.34	39.9507
1704.86	38.9811
1706.39	36.8596
1707.91	34.5603
1709.43	32.612
1710.95	30.1922
1712.47	28.1992
1713.99	26.741
1715.51	25.0191
1717.02	24.6588
1718.54	24.486
1720.06	24.7746
1721.58	23.6834
1723.1	22.2695
1724.62	21.3799
1726.13	20.334
1727.65	19.216
1729.17	18.8193
1730.68	17.9784
1732.2	17.2494
1733.72	17.4459
1735.23	16.4788
1736.75	15.9547
1738.26	15.3352
1739.78	15.253
1741.29	14.3728
1742.81	13.7504
1744.32	12.7251
1745.84	11.654
1747.35	11.7333
1748.86	11.6572
1750.37	11.7135
1751.89	10.6544
1753.4	10.5439
1754.91	9.56402
1756.42	9.19606
1757.93	8.24431
1759.45	7.47516
1760.96	6.99473
1762.47	6.49191
1763.98	6.43001
1765.49	5.65796
1767	5.02941
1768.51	4.99472
1770.02	4.40093
1771.53	4.17956
1773.03	2.83333
1774.54	2.63509
1776.05	1.94827
1777.56	2.33398
1779.07	2.30805
1780.57	1.72766
1782.08	1.01055
1783.59	0.330427
1785.09	0.315609
1786.6	0.280459
1788.11	0.706447
1789.61	1.25231
1791.12	1.1287
1792.62	1.45515
1794.13	1.38551
1795.63	1.60684
1797.13	1.61358
1798.64	1.53531
1800.14	1.29999
1801.65	1.49488
1803.15	1.27333
1804.65	1.16546
1806.15	1.52462
1807.66	2.16888
1809.16	2.10723
1810.66	1.36256
1812.16	1.68124
1813.66	1.75605
1815.16	2.31633
1816.66	2.72135
1818.16	3.218
1819.66	3.32722
1821.16	3.41858
1822.66	3.74203
1824.16	3.55646
1825.66	3.40206
1827.16	3.55797
1828.66	3.63311
1830.16	3.77584
1831.65	4.13121
1833.15	3.96509
1834.65	4.16719
1836.14	4.27632
1837.64	4.73548
1839.14	5.06754
1840.63	4.79183
1842.13	4.80591
1843.62	4.73892
1845.12	4.07416
1846.61	3.86336
1848.11	3.48807
1849.6	3.70187
1851.1	3.91513
1852.59	4.38057
1854.08	3.89484
1855.58	4.02693
1857.07	3.52869
1858.56	3.49718
1860.05	3.63244
1861.55	3.32622
1863.04	2.95448
1864.53	3.34781
1866.02	2.95892
1867.51	2.76547
1869	1.78377
1870.49	2.01136
1871.98	1.64729
1873.47	0.849259
1874.96	0.76713
1876.45	0.890141
1877.94	0.628424
1879.43	0.509125
1880.92	0.83845
1882.41	0.0775761
1882.51	-0.137515
1884	-0.0885937
1885.5	0.204346
1886.99	0.484092
1888.48	0.747225
1889.98	0.304186
1891.47	0.491869
1892.96	0.820414
1894.46	0.631691
1895.95	0.45323
1897.44	0.833506
1898.93	1.45812
1900.42	2.55437
1901.91	3.0456
1903.41	3.37566
1904.9	3.6745
1906.39	3.38091
1907.88	3.45596
1909.37	3.56129
1910.86	3.9872
1912.35	3.71148
1913.83	3.65283
1915.32	3.34526
1916.81	3.48921
1918.3	3.69163
1919.79	3.99022
1921.27	3.95905
1922.76	4.54225
1924.25	4.95856
1925.74	4.22932
1927.22	3.909
1928.71	3.41752
1930.19	3.86214
1931.68	4.04143
1933.17	3.80969
1934.65	2.84545
1936.14	3.04095
1937.62	3.05958
1939.11	2.50832
1940.59	2.5982
1942.07	2.52435
1943.56	3.61918
1945.04	3.22888
1946.52	2.73858
1948.01	2.90199
1949.49	1.75437
1950.97	1.7234
1952.45	1.46988
1953.93	1.11403
1955.42	0.400881
1956.9	0.810748
1958.38	1.09928
1959.86	1.82055
1961.34	2.30036
1962.82	2.14646
1964.3	2.1474
1965.78	2.9072
1967.26	3.4967
1968.74	3.53371
1970.21	4.26821
1971.69	4.97793
1973.17	5.489
1974.65	5.46512
1976.13	5.4405
1977.6	5.80239
1979.08	5.63435
1980.56	5.34503
1982.03	5.99952
1983.51	6.1471
1984.99	6.61707
1986.46	7.04068
1987.94	7.38457
1989.41	7.77789
1990.89	8.77244
1992.36	8.64425
1993.84	8.35753
1995.31	8.18744
1996.78	8.8958
1998.26	8.69639
1999.73	8.23005
2001.2	8.55508
2002.68	8.22992
2004.15	8.4831
2005.62	7.9969
2007.09	8.3896
2008.56	8.53107
2010.04	8.58799
2011.51	9.35628
2012.98	9.57933
2014.45	10.3453
2015.92	9.36088
2017.39	8.58248
2018.86	7.75243
2020.33	7.28442
2021.8	7.34072
2023.26	7.21829
2024.73	8.28416
2026.2	8.03595
2027.67	7.93241
2029.14	7.53299
2030.61	8.28031
2032.07	8.5059
2033.54	8.99274
2035.01	9.23732
2036.47	9.11349
2037.94	9.85219
2039.4	9.33295
2040.87	9.6932
2042.33	9.24716
2043.8	9.45805
2045.27	9.46984
2046.73	9.4428
2048.19	9.13623
2049.66	9.01916
2051.12	9.35382
2052.59	9.05957
2054.05	9.03444
2055.51	8.72179
2056.97	9.391
2058.44	10.332
2059.9	10.4246
2061.36	10.52
2062.82	10.7099
2064.28	11.1569
2065.74	11.4926
2067.21	11.7263
2068.67	11.9156
2070.13	12.5517
2071.59	12.6868
2073.05	13.046
2074.51	14.1413
2075.96	14.6142
2077.42	15.3616
2078.88	16.3991
2080.34	16.9554
2081.8	17.5253
2083.26	18.1832
2084.72	19.5284
2086.17	20.0056
2087.63	20.361
2089.09	19.8786
2090.54	20.6438
2092	21.8931
2093.45	22.5331
2094.91	23.568
2096.37	24.8855
2097.82	25.7319
2099.28	26.3794
2100.73	27.7051
2102.19	29.0067
2103.64	30.3101
2105.09	30.8259
2106.55	31.9896
2108	32.2136
2109.45	32.7204
2110.91	33.4626
2112.36	33.443
2113.81	35.0051
2115.26	36.4733
2116.72	37.5096
2118.17	38.328
2119.62	39.4599
2121.07	40.2404
2122.52	41.6285
2123.97	43.645
2125.42	44.9478
2126.87	46.2308
2128.32	48.7139
2129.77	51.3095
2131.22	52.8458
2132.67	54.9334
2134.11	57.0335
2135.56	59.0632
2137.01	62.2651
2138.46	64.8847
2139.91	66.8282
2141.35	69.4137
2142.8	71.7681
2144.25	73.9497
2145.7	75.9516
2147.14	78.2683
2148.59	80.0369
2150.03	82.9731
2151.48	84.8859
2152.92	87.2926
2154.37	89.6088
2155.81	91.8871
2157.26	93.7349
2158.7	95.5615
2160.15	96.8579
2161.59	98.3848
2163.03	100.091
2164.47	101.837
2165.92	103.392
2167.36	105.039
2168.8	106.396
2170.24	107.16
2171.69	108.094
2173.13	108.279
2174.57	108.408
2176.01	108.226
2177.45	108.058
2178.89	107.954
2180.33	107.099
2181.77	106.836
2183.21	106.183
2184.65	104.95
2186.09	104.126
2187.53	103.014
2188.97	100.923
2190.4	98.9695
2191.84	97.0434
2193.28	95.0666
2194.72	93.7819
2196.16	92.2425
2197.59	90.8142
2199.03	88.8894
2200.47	87.2026
2201.9	84.425
2203.34	82.332
2204.77	80.1991
2206.21	78.4341
2207.64	77.0504
2209.08	75.5113
2210.51	72.8261
2211.95	70.125
2213.38	67.9441
2214.82	65.1652
2216.25	63.0104
2217.68	60.6207
2219.12	58.692
2220.55	57.1586
2221.98	54.7687
2223.41	52.6684
2224.85	51.297
2226.28	49.2289
2227.71	47.2621
2229.14	45.3888
2230.57	43.9812
2232	41.7576
2233.43	40.7834
2234.86	39.5559
2236.29	38.4803
2237.72	37.7282
2239.15	36.2111
2240.58	35.3655
2242.01	33.9795
2243.44	32.8652
2244.87	31.9539
2246.29	31.3734
2247.72	30.692
2249.15	29.8848
2250.58	28.8654
2252.01	27.9901
2253.43	27.1383
2254.86	25.9368
2256.29	24.8687
2257.71	23.9602
2259.14	23.2526
2260.56	22.6335
2261.99	22.207
2263.41	22.23
2264.84	22.6433
2266.26	22.7124
2267.69	22.3645
2269.11	21.9797
2270.53	20.8985
2271.96	20.0095
2273.38	19.7166
2274.8	19.9368
2276.23	19.6118
2277.65	20.0393
2279.07	19.3069
2280.49	18.7408
2281.91	17.7132
2283.34	16.7095
2284.76	16.1585
2286.18	15.1617
2287.6	15.0464
2289.02	14.0884
2290.44	13.4083
2291.86	12.9185
2293.28	11.7813
2294.7	11.6516
2296.12	10.7003
2297.54	10.5485
2298.96	10.4119
2300.37	11.2303
2301.79	11.0328
2303.21	11.0177
2304.63	11.3393
2306.04	11.5135
2307.46	11.4911
2308.88	11.4101
2310.3	10.3594
2311.71	10.2333
2313.13	10.5347
2314.54	10.2724
2315.96	10.4038
2317.37	9.78816
2318.79	9.50545
2320.2	9.34225
2321.62	8.67651
2323.03	8.30931
2324.45	8.07748
2325.86	7.47358
2327.27	7.39373
2328.69	6.99994
2330.1	7.2288
2331.51	7.9217
2332.92	7.72347
2334.34	8.00071
2335.75	7.64446
2337.16	6.82748
2338.57	6.03243
2339.98	5.34089
2341.39	4.65731
2342.8	4.314
2344.21	4.61869
2345.63	4.5337
2347.04	4.0158
2348.45	3.77246
2349.85	2.85107
2351.26	2.33547
2352.67	1.42442
2354.08	0.930483
2355.49	1.23548
2356.9	0.627959
2358.3	0.780434
2359.71	0.0732964
2361.12	-0.0143782
2362.53	0.253213
2363.93	-0.072897
2365.34	0.41713
2366.75	0.549384
2368.15	1.46137
2369.56	1.32111
2370.97	1.87555
2372.37	1.44927
2373.77	1.79332
2375.18	1.47924
2376.59	1.79849
2377.99	1.29663
2379.39	0.77849
2380.8	0.573906
2382.2	1.02963
2383.6	1.43915
2385.01	1.26001
2386.41	1.68323
2387.81	1.48724
2389.21	1.71837
2390.62	1.92832
2392.02	1.60121
2393.42	1.80665
2394.82	1.99353
2396.22	1.19044
2397.62	1.39412
2399.02	2.02278
2400.42	2.74752
2401.82	2.46947
2403.22	1.65084
2404.62	2.48129
2406.02	2.46552
2407.42	2.50211
2408.82	2.70278
2410.22	2.67146
2411.62	2.72403
2413.01	2.66705
2414.41	2.81192
2415.81	2.97195
2417.21	2.06249
2418.6	1.97001
2420	1.95227
2421.4	2.14059
2422.79	2.45321
2424.19	2.69391
2425.59	3.50117
2426.98	3.46833
2428.38	3.67147
2429.77	3.71494
2431.17	4.1775
2432.56	4.53153
2433.95	4.57237
2435.35	5.20624
2436.74	5.15295
2438.14	5.22364
2439.53	4.9794
2440.92	5.20935
2442.31	4.9761
2443.71	5.37279
2445.1	5.15847
2446.49	5.49574
2447.88	5.53881
2449.27	5.26777
2450.67	5.32485
2452.06	5.42541
2453.45	5.73308
2454.84	5.60242
2456.23	5.07962
2457.62	4.61287
2459.01	4.4143
2460.4	4.73755
2461.79	4.21346
2463.18	4.2074
2464.57	3.8143
2465.95	3.38933
2467.34	3.82386
2468.73	3.74363
2470.12	3.51566
2471.5	2.8103
2472.89	2.97097
2474.28	3.40454
2475.67	2.7207
2477.05	2.47584
2478.44	2.43953
2479.82	1.81378
2481.21	1.38938
2482.6	1.4376
2483.98	1.77066
2485.37	1.81856
2486.75	1.61209
2488.13	1.97314
2489.52	1.99752
2490.9	2.44181
2492.29	2.17643
2493.67	1.78936
2495.05	1.24051
2496.44	1.15951
2497.82	0.709116
2499.2	0.73734
2500.58	0.686007
2501.97	0.433601
2503.35	0.64742
2504.73	0.581393
2506.11	0.140212
2507.49	0.251006
2508.87	0.376588
2510.25	0.149415
2511.63	0.0542281
2513.01	0.383869
2514.39	0.246097
2515.77	2.06329e-005
2517.15	-0.0789439
2518.53	-0.176405
2519.91	0.193111
2521.29	-0.0666852
2522.67	-0.0177139
2524.05	0.581321
2525.42	0.440694
2526.8	0.214214
2528.18	0.326157
2529.55	0.866407
2530.93	0.558742
2532.31	1.01641
2533.69	0.879023
2535.06	1.1719
2536.44	1.43912
2537.81	1.25942
2539.19	1.58352
2540.56	1.60745
2541.94	2.01986
2543.31	2.72112
2544.69	2.68158
2546.06	3.22376
2547.44	2.99317
2548.81	3.036
2550.18	3.55145
2551.56	4.2615
2552.93	4.30579
2554.3	4.13918
2555.67	4.48818
2557.04	4.76856
2558.42	4.99047
2559.79	4.39471
2561.16	3.99803
2562.53	4.05064
2563.9	3.93222
2565.27	4.38957
2566.64	4.27923
2568.01	4.20862
2569.38	4.80803
2570.75	4.78551
2572.12	4.7434
2573.49	4.34021
2574.86	4.03107
2576.23	3.6062
2577.6	3.8083
2578.97	3.47184
2580.33	3.15699
2581.7	3.22412
2583.07	3.07568
2584.44	3.11638
2585.8	3.29956
2587.17	2.98574
2588.54	2.83109
2589.9	2.35528
2591.27	2.8153
2592.64	2.70821
2594	1.61874
2595.37	1.68553
2596.73	2.23501
2598.1	2.17408
2599.46	2.01179
2600.83	1.32129
2602.19	0.975381
2603.55	0.954241
2604.92	0.893118
2606.28	0.895133
2607.64	0.716964
2609.01	0.608706
2610.37	0.667798
2611.73	0.82867
2613.09	0.36767
2614.46	0.767052
2615.82	1.04198
2617.18	1.39465
2618.54	1.88783
2619.9	1.89863
2621.26	2.1801
2622.62	2.47275
2623.98	3.16708
2625.34	3.30113
2626.7	2.97492
2628.06	3.30649
2629.42	3.92386
2630.78	3.54959
2632.14	3.7167
2633.5	3.93636
2634.86	4.19218
2636.21	3.97208
2637.57	4.41382
2638.93	4.40979
2640.29	4.17587
2641.64	4.10684
2643	4.61581
2644.36	4.7439
2645.71	5.2012
2647.07	4.88875
2648.43	4.90442
2649.78	5.39994
2651.14	5.98532
2652.49	6.05284
2653.85	5.56492
2655.2	5.83899
2656.56	6.2984
2657.91	6.15844
2659.26	7.15998
2660.62	7.00627
2661.97	7.06361
2663.32	6.9097
2664.68	6.55011
2666.03	5.78346
2667.38	5.57197
2668.74	5.04526
2670.09	5.43263
2671.44	4.75453
2672.79	4.72027
2674.14	4.19356
2675.49	3.97154
2676.84	4.08529
2678.19	3.98107
2679.54	3.80186
2680.89	3.75939
2682.24	3.77093
2683.59	4.19374
2684.94	3.96032
2686.29	4.38991
2687.64	4.24128
2688.99	4.41235
2690.34	4.11997
2691.69	4.35054
2693.03	3.66782
2694.38	3.62282
2695.73	3.61344
2697.08	3.52239
2698.42	3.80293
2699.77	4.1182
2701.12	4.33938
2702.46	4.69566
2703.81	5.0031
2705.15	4.96133
2706.5	4.98072
2707.85	5.06432
2709.19	5.60173
2710.54	6.26083
2711.88	6.17621
2713.22	6.01676
2714.57	5.92088
2715.91	6.12382
2717.26	6.68163
2718.6	7.05219
2719.94	7.66698
2721.29	8.06394
2722.63	9.19194
2723.97	9.82332
2725.31	10.1593
2726.66	11.059
2728	10.7335
2729.34	10.7358
2730.68	10.8786
2732.02	11.0463
2733.36	11.288
2734.7	11.3517
2736.04	11.7497
2737.38	11.3553
2738.72	11.5139
2740.06	12.0296
2741.4	12.2739
2742.74	12.4666
2744.08	12.0606
2745.42	11.7049
2746.76	11.6555
2748.09	11.3248
2749.43	11.1388
2750.77	11.1817
2752.11	10.555
2753.45	10.1802
2754.78	9.52588
2756.12	9.56841
2757.46	9.41824
2758.79	9.34224
2760.13	8.91132
2761.46	8.7303
2762.8	8.45902
2764.14	8.52287
2765.47	8.08831
2766.8	7.08518
2768.14	6.57862
2769.47	5.54733
2770.81	4.69601
2772.14	3.80641
2773.48	3.45238
2774.81	3.01247
2776.14	2.20952
2777.48	1.70547
2778.81	1.48201
2780.14	1.3943
2781.47	1.3035
2782.8	1.21997
2784.14	1.63285
2785.47	1.9969
2786.8	2.33189
2788.13	2.44298
2789.46	3.36342
2790.79	3.36253
2792.12	3.57032
2793.45	3.45562
2794.78	3.2052
2796.11	2.84429
2797.44	2.79361
2798.77	2.84399
2800.1	2.55097
2801.43	2.3875
2802.76	2.56405
2804.09	2.66715
2805.41	2.81722
2806.74	2.06788
2808.07	1.97199
2809.4	0.967723
2810.72	0.996025
2812.05	1.20222
2813.38	1.44983
2814.71	1.68216
2816.03	2.3732
2817.36	2.74205
2818.68	3.90734
2820.01	5.50017
2821.33	6.86677
2822.66	8.38128
2823.98	9.59066
2825.31	11.1523
2826.63	12.9093
2827.96	14.3328
2829.28	16.5877
2830.6	18.3491
2831.93	20.3063
2833.25	22.3779
2834.57	25.1599
2835.9	28.1425
2837.22	31.4315
2838.54	34.4672
2839.86	37.6242
2841.18	40.8396
2842.5	45.1084
2843.83	49.0784
2845.15	53.9483
2846.47	57.9001
2847.79	61.7335
2849.11	66.5493
2850.43	71.9319
2851.75	76.6795
2853.07	81.1399
2854.39	86.5456
2855.71	90.8189
2857.03	94.603
2858.35	98.861
2859.66	103.556
2860.98	108.064
2862.3	112.238
2863.62	115.99
2864.94	119.676
2866.25	122.789
2867.57	126.833
2868.89	130.107
2870.2	133.264
2871.52	135.625
2872.84	137.986
2874.15	140.94
2875.47	143.14
2876.78	146.254
2878.1	148.56
2879.41	150.558
2880.73	153.205
2882.04	155.494
2883.36	157.918
2884.67	160.597
2885.99	162.981
2887.3	165.081
2888.61	167.014
2889.93	169.43
2891.24	171.798
2892.55	174.325
2893.86	176.83
2895.18	179.951
2896.49	183.071
2897.8	186.688
2899.11	191.064
2900.42	195.324
2901.73	199.77
2903.05	205.137
2904.36	210.388
2905.67	216.813
2906.98	223.159
2908.29	230.014
2909.6	236.307
2910.91	243.879
2912.21	250.717
2913.52	258.115
2914.83	265.364
2916.14	272.65
2917.45	279.382
2918.76	286.343
2920.07	292.926
2921.37	298.632
2922.68	304.949
2923.99	310.716
2925.29	315.624
2926.6	318.922
2927.91	321.848
2929.22	324.167
2930.52	326.661
2931.83	328.413
2933.13	329.535
2934.44	329.172
2935.74	328.789
2937.05	327.25
2938.35	324.963
2939.66	322.968
2940.96	320.316
2942.26	317.431
2943.57	313.501
2944.87	309.218
2946.18	304.3
2947.48	298.903
2948.78	293.138
2950.08	286.997
2951.39	280.552
2952.69	273.708
2953.99	266.283
2955.29	258.918
2956.59	251.532
2957.9	244.572
2959.2	238.138
2960.5	231.17
2961.8	223.855
2963.1	217.184
2964.4	210.86
2965.7	203.839
2967	197.421
2968.3	191.329
2969.6	185.027
2970.9	179.388
2972.19	173.328
2973.49	168.195
2974.79	162.539
2976.09	157.738
2977.39	152.6
2978.68	147.346
2979.98	141.998
2981.28	136.937
2982.58	131.491
2983.87	126.859
2985.17	121.8
2986.47	116.922
2987.76	112.094
2989.06	107.106
2990.35	101.41
2991.65	96.8437
2992.94	92.2622
2994.24	88.2128
2995.53	84.5221
2996.83	80.0995
2998.12	75.8757
2999.42	71.4666
3000.71	67.6817
3002	63.5881
3003.3	59.692
3004.59	56.8614
3005.88	53.8359
3007.18	50.4054
3008.47	47.1361
3009.76	43.9105
3011.05	40.4852
3012.34	37.8141
3013.64	34.8188
3014.93	32.0961
3016.22	29.3891
3017.51	27.4661
3018.8	24.8246
3020.09	22.713
3021.38	21.7951
3022.67	20.6014
3023.96	18.914
3025.25	16.5777
3026.54	14.9544
3027.83	14.2481
3029.12	12.9991
3030.41	11.31
3031.69	10.8759
3032.98	10.2294
3034.27	10.3417
3035.56	10.0928
3036.84	10.2186
3038.13	10.3119
3039.42	9.83862
3040.71	10.5132
3041.99	10.7168
3043.28	10.6875
3044.57	11.0954
3045.85	11.5083
3047.14	12.3905
3048.42	12.9802
3049.71	13.8409
3050.99	13.8892
3052.28	14.0873
3053.56	14.2548
3054.85	14.0872
3056.13	14.7038
3057.41	14.4912
3058.7	14.8612
3059.98	14.2886
3061.26	13.8218
3062.55	13.4967
3063.83	12.7285
3065.11	12.8496
3066.39	12.8084
3067.68	11.9688
3068.96	11.6962
3070.24	11.1129
3071.52	10.6216
3072.8	10.2044
3074.08	9.46441
3075.36	8.79425
3076.65	8.18104
3077.93	7.46414
3079.21	7.21419
3080.49	6.59055
3081.77	6.31444
3083.04	5.18921
3084.32	4.80618
3085.6	4.0366
3086.88	3.1076
3088.16	2.48185
3089.44	1.92629
3090.72	1.45671
3091.99	0.790733
3093.27	-0.219997
3094.55	-0.0244483
3095.83	0.537782
3097.1	0.00676164
3098.38	-0.0415784
3099.66	-0.32167
3100.93	0.0123931
3102.21	0.193297
3103.49	0.565549
3104.76	0.696347
3106.04	0.883931
3107.31	0.995035
3108.59	1.54475
3109.86	1.00751
3111.14	1.00764
3112.41	1.08783
3113.69	1.46994
3114.96	0.434979
3116.23	0.57948
3117.51	1.04293
3118.78	0.99348
3120.05	1.13279
3121.33	1.25043
3122.6	1.57359
3123.87	1.44977
3125.14	1.88801
3126.41	2.02603
3127.69	2.18278
3128.96	2.87958
3130.23	2.69282
3131.5	2.38159
3132.77	3.35807
3134.04	4.11823
3135.31	4.62092
3136.58	4.57969
3137.85	4.79899
3139.12	5.11684
3140.39	5.38122
3141.66	5.74662
3142.93	6.02033
3144.2	6.19829
3145.47	6.43248
3146.74	6.86927
3148	7.3163
3149.27	8.21158
