#Acq. time (s)=	45
#Accumulations=	2
#Range (cm-¹)=	200...3150
#Windows=	2
#Auto scanning=	Off
#Autofocus=	Off
#Macrospot=	Off
#AutoExposure=	Off
#Spike filter=	Multiple accum.
#Delay time (s)=	0
#Binning=	1
#Readout mode=	Signal
#DeNoise=	Off
#ICS correction=	On
#Dark correction=	Off
#Inst. Process=	Off
#Detector Gain=	Best Dynamic Range
#Detector ADC=	20 kHz       
#Detector temperature (°C)=	-70.31
#Instrument=	LabRAM HR Evol
#Detector=	Synapse
#Objective=	x100
#Grating=	600 gr/mm
#ND Filter=	100%
#Laser (nm)=	532 
#Hole=	100.021
#Range=	Auto
#Laser Pol.=	No
#Raman. Pol.=	No
#Laser Pol. (°)=	-0.0007625
#Raman Pol. (°)=	89.9995
#Collection=	Microscope
#StageXY=	Marzhauser
#StageZ=	Marzhauser
#X (µm)=	-6389.2
#Y (µm)=	877.9
#Z (µm)=	-65
#Full time(mm:ss)=	3:18
#Project=	
#Sample=	
#Site=	
#Title=	Mb_30_27_22_2x_45s_532 nm_x100_100%_600 gr_mm
#Remark=	
#Date=	13.07.2022 10:15
#Acquired=	13.07.2022 10:15:00
#Base:Fit=	10.08.2022 10:40:03
#Base:Sub=	10.08.2022 10:40:17
#Filter:Polynom=	16.08.2022 10:16:15
#AxisType[0]=Intens
#AxisUnit[0]=Cnt
#AxisType[1]=Spectr
#AxisUnit[1]=1/cm
200.563	8.47199
202.377	10.4457
204.194	10.1908
206.008	10.022
207.821	9.626
209.634	9.34353
211.449	9.39939
213.262	10.2343
215.074	10.2533
216.885	10.5639
218.699	11.4895
220.51	12.1038
222.321	12.9019
224.131	13.7851
225.941	12.7044
227.751	11.9471
229.562	12.6792
231.371	12.5752
233.18	12.1168
234.988	13.0422
236.796	12.1746
238.603	12.0631
240.411	12.0076
242.219	12.8385
244.026	12.5545
245.832	13.5697
247.638	13.6422
249.443	13.4001
251.248	13.3474
253.053	13.6994
254.857	12.9003
256.661	13.557
258.465	14.3384
260.268	14.0443
262.071	13.7947
263.874	13.1761
265.678	13.6858
267.48	13.1567
269.282	12.4555
271.083	11.7189
272.884	12.159
274.684	11.7219
276.484	12.1095
278.284	11.6478
280.084	10.8632
281.883	11.9598
283.682	11.8096
285.48	11.5628
287.276	11.3731
289.074	11.2401
290.871	10.7707
292.668	10.2247
294.465	11.1082
296.261	11.3195
298.057	13.1882
299.853	13.7659
301.648	14.4362
303.443	13.7909
305.237	13.5508
307.032	14.0158
308.823	14.4758
310.617	13.4426
312.41	12.6858
314.203	11.9705
315.995	10.9523
317.788	11.6813
319.579	12.4069
321.369	12.7378
323.16	12.3032
324.951	12.3493
326.741	11.3465
328.531	11.726
330.321	11.2346
332.108	10.9745
333.897	10.7432
335.686	10.7104
337.474	9.83007
339.26	9.50061
341.048	9.10922
342.835	7.61725
344.622	7.35621
346.406	6.89183
348.192	6.22684
349.978	5.39982
351.764	5.26787
353.547	4.27653
355.332	5.05799
357.116	4.02427
358.901	3.68401
360.682	3.263
362.466	3.1577
364.249	2.77826
366.03	2.2672
367.812	2.8624
369.594	3.30131
371.374	3.90795
373.155	4.21985
374.936	3.81396
376.715	4.91571
378.495	5.54968
380.273	4.64443
382.053	5.48024
383.832	5.93469
385.609	5.68475
387.388	7.39578
389.164	6.56883
390.942	6.35678
392.72	5.73426
394.495	5.8487
396.272	6.41729
398.047	6.01891
399.823	5.63235
401.597	6.19247
403.372	6.63192
405.145	7.08945
406.92	8.2348
408.693	7.91232
410.467	7.69589
412.239	6.65585
414.012	6.30203
415.783	6.32232
417.556	6.1764
419.327	6.18301
421.099	6.30475
422.869	6.29091
424.64	5.70166
426.409	5.45352
428.18	5.32199
429.948	5.20538
431.718	3.99161
433.486	4.18335
435.253	4.13846
437.022	3.66096
438.789	4.59466
440.558	5.23257
442.324	5.39618
444.089	6.91418
445.857	6.63724
447.622	6.28736
449.386	6.79986
451.153	6.79071
452.917	7.0979
454.682	7.0411
456.446	7.24457
458.208	6.75507
459.973	7.72754
461.735	8.41789
463.497	8.49937
465.259	9.44851
467.022	9.87613
468.783	9.00245
470.544	10.8341
472.306	11.4278
474.066	11.6411
475.825	13.8865
477.585	13.5127
479.346	13.9311
481.104	13.8644
482.862	14.7122
484.62	16.6056
486.38	17.067
488.137	18.2768
489.894	18.463
491.65	18.3805
493.407	19.3553
495.164	19.7252
496.92	19.8383
498.675	21.6516
500.43	22.2107
502.184	22.5141
503.939	23.6118
505.694	23.2429
507.448	23.032
509.201	23.201
510.954	24.1357
512.706	25.3225
514.459	25.2642
516.21	26.2329
517.962	25.7871
519.715	24.9252
521.466	26.1707
523.216	26.3868
524.966	25.6723
526.716	26.0998
528.466	24.4809
530.215	23.8208
531.964	23.2933
533.712	21.8114
535.46	21.3321
537.208	20.266
538.955	18.8446
540.703	18.8413
542.449	17.5292
544.196	16.3938
545.942	16.1298
547.688	16.6142
549.433	16.3507
551.178	16.1302
552.923	14.5392
554.667	12.8753
556.412	10.7954
558.155	10.563
559.899	9.40334
561.642	9.18856
563.385	10.1569
565.127	9.1859
566.867	8.06626
568.609	7.5912
570.35	8.19707
572.092	7.70615
573.832	7.05582
575.573	6.25581
577.313	5.88956
579.053	5.97459
580.79	6.03982
582.529	5.95466
584.268	6.35884
586.006	6.54996
587.745	5.3755
589.482	4.58804
591.218	3.46873
592.955	3.01634
594.692	3.04531
596.428	3.49582
598.164	3.68409
599.898	3.21666
601.634	3.49912
603.369	3.25374
605.104	3.90119
606.836	5.12477
608.57	5.5872
610.304	5.32673
612.037	5.24208
613.769	5.99396
615.501	4.9533
617.234	6.12819
618.966	5.92281
620.696	5.37642
622.427	6.02669
624.159	6.02334
625.887	7.34414
627.618	7.86334
629.348	7.72332
631.076	7.77036
632.806	9.45579
634.535	10.0924
636.262	10.1121
637.99	10.0042
639.716	8.60126
641.444	8.28292
643.172	9.31313
644.897	10.7782
646.624	12.4759
648.348	13.981
650.075	15.3232
651.801	15.7245
653.524	16.1515
655.249	17.3376
656.972	18.0301
658.697	17.9661
660.419	18.6344
662.143	19.4835
663.865	20.3072
665.588	20.4137
667.309	20.788
669.032	22.0295
670.752	22.8568
672.474	23.788
674.194	24.472
675.915	25.0088
677.634	25.9836
679.355	27.3588
681.073	27.5367
682.793	28.9279
684.511	29.5577
686.23	30.0975
687.947	30.6955
689.664	30.7845
691.382	32.1146
693.098	32.0217
694.816	31.0032
696.531	30.5252
698.247	30.9291
699.963	31.4643
701.678	30.8228
703.392	31.4766
705.108	31.9223
706.821	32.225
708.534	33.4662
710.249	34.2114
711.962	34.3709
713.674	34.387
715.388	36.2219
717.099	36.6966
718.81	37.3669
720.523	37.1946
722.234	37.8635
723.944	38.2847
725.654	38.3902
727.365	40.4792
729.075	42.2031
730.784	43.0515
732.492	44.5166
734.202	45.0868
735.91	46.8329
737.618	47.5253
739.325	48.6175
741.034	49.8886
742.741	50.9287
744.447	52.0772
746.153	54.1619
747.859	55.9989
749.564	57.484
751.271	59.1543
752.976	61.1283
754.681	62.742
756.385	64.597
758.088	65.9491
759.792	66.6914
761.495	67.8761
763.2	68.7242
764.902	69.3182
766.604	69.7846
768.306	71.4582
770.008	71.988
771.709	73.0537
773.41	72.4131
775.11	73.4271
776.811	73.073
778.51	74.4558
780.21	74.0545
781.909	75.1495
783.608	76.7604
785.307	77.861
787.005	78.1172
788.703	79.1324
790.401	79.7636
792.098	80.5699
793.795	81.8712
795.492	82.3086
797.188	82.845
798.884	84.2394
800.58	84.5878
802.276	83.9912
803.971	84.274
805.665	84.6952
807.36	85.0671
809.054	84.3742
810.748	83.6516
812.441	83.9097
814.135	82.4041
815.826	81.9299
817.518	80.9727
819.21	79.8477
820.902	79.9027
822.594	79.973
824.285	79.4746
825.976	78.8653
827.665	77.5695
829.355	77.5428
831.045	76.9671
832.735	75.6115
834.424	74.7869
836.111	73.4557
837.8	71.2123
839.488	68.7628
841.177	67.8134
842.864	66.4852
844.55	65.1015
846.237	64.8834
847.924	63.7452
849.61	61.9449
851.295	60.6761
852.98	60.5897
854.666	58.7478
856.349	56.9125
858.034	54.0306
859.719	54.1019
861.403	53.752
863.085	54.2069
864.769	52.4557
866.452	52.5974
868.133	52.9478
869.816	53.2523
871.498	52.7276
873.179	51.8626
874.86	51.5303
876.54	51.8219
878.221	51.4078
879.902	51.9525
881.58	52.9083
883.26	53.0931
884.938	51.5516
886.618	51.9502
888.297	51.66
889.974	50.5131
891.653	49.5146
893.329	49.1288
895.007	49.3608
896.683	49.8261
898.36	49.5132
900.035	50.2069
901.712	49.4487
903.387	50.0466
905.063	51.1379
906.737	51.3575
908.412	49.5297
910.085	49.7687
911.76	49.1714
913.433	49.0404
915.107	49.2448
916.779	48.3697
918.452	47.4929
920.124	46.8932
921.797	45.9992
923.467	46.1816
925.138	46.3077
926.81	45.8623
928.48	45.0723
930.151	45.4361
931.82	43.6006
933.489	42.5325
935.16	42.7185
936.828	42.4538
938.496	41.4861
940.165	41.2233
941.833	39.6223
943.5	40.289
945.168	40.5316
946.834	39.2025
948.5	39.2365
950.168	39.3576
951.834	39.666
953.499	39.6165
955.163	39.2522
956.83	39.0515
958.494	39.121
960.158	38.2991
961.821	37.4674
963.487	36.9998
965.15	37.0484
966.812	36.4317
968.474	35.6416
970.138	35.6351
971.8	35.5403
973.461	35.1857
975.123	36.3335
976.783	36.3411
978.446	36.4063
980.106	36.097
981.766	35.2615
983.425	34.7412
985.084	33.3585
986.743	33.7979
988.402	33.6546
990.06	32.8514
991.72	31.95
993.378	31.7443
995.035	30.8751
996.692	29.7584
998.349	29.0367
1000.01	26.0817
1001.66	23.8616
1003.32	21.9392
1004.97	20.6413
1006.63	20.9909
1008.28	22.1542
1009.94	24.1007
1011.59	26.388
1013.25	29.3244
1014.9	31.7646
1016.55	35.6824
1018.21	38.5252
1019.86	40.5552
1021.51	43.3964
1023.16	45.667
1024.81	47.5757
1026.47	51.9961
1028.12	54.7047
1029.77	55.906
1031.42	58.6814
1033.07	60.4554
1034.72	62.6621
1036.37	63.3628
1038.02	63.2236
1039.67	64.1637
1041.31	63.618
1042.96	64.0898
1044.61	65.1169
1046.26	65.6546
1047.91	66.3962
1049.55	65.1471
1051.2	64.8066
1052.84	64.2827
1054.49	63.9358
1056.14	62.9655
1057.78	61.3153
1059.43	58.106
1061.07	55.6149
1062.72	53.3875
1064.36	50.4301
1066	47.4393
1067.65	43.7665
1069.29	40.3337
1070.93	36.4535
1072.58	32.8021
1074.22	29.2645
1075.86	25.3719
1077.5	21.7275
1079.14	18.7807
1080.78	15.842
1082.42	13.3429
1084.06	12.1898
1085.7	13.068
1087.34	14.5838
1088.98	16.0021
1090.62	17.1987
1092.26	17.796
1093.9	18.63
1095.54	19.6864
1097.17	20.0879
1098.81	19.4299
1100.45	19.2599
1102.09	19.8
1103.72	20.5266
1105.36	20.6066
1106.99	20.3973
1108.63	20.7624
1110.27	20.2265
1111.9	19.7731
1113.53	20.3207
1115.17	20.2374
1116.8	19.7322
1118.43	18.7575
1120.07	19.0535
1121.7	19.7495
1123.33	18.8985
1124.97	18.2878
1126.6	16.788
1128.23	16.7788
1129.86	16.5243
1131.49	14.8958
1133.12	14.6366
1134.75	13.29
1136.38	12.3529
1138.01	11.6775
1139.64	10.6981
1141.27	10.073
1142.9	9.11803
1144.53	9.04207
1146.16	8.29432
1147.78	8.26752
1149.41	8.15727
1151.04	7.93113
1152.67	7.92327
1154.29	7.34459
1155.92	6.86835
1157.54	5.56512
1159.17	5.91731
1160.8	6.87491
1162.42	6.83045
1164.05	7.02912
1165.67	7.66014
1167.29	9.11547
1168.92	9.24966
1170.54	9.74883
1172.16	10.5401
1173.79	10.8881
1175.41	10.7394
1177.03	11.3804
1178.65	10.7314
1180.28	10.0217
1181.9	11.3689
1183.52	10.9792
1185.14	10.7387
1186.76	10.2452
1188.38	10.6549
1190	10.9602
1191.62	10.593
1193.24	9.29975
1194.86	9.80421
1196.47	10.7698
1198.09	10.8174
1199.71	10.3464
1201.33	10.7213
1202.95	10.5657
1204.56	10.6978
1206.18	10.8271
1207.8	11.3273
1209.41	12.9255
1211.03	12.521
1212.64	13.6421
1214.26	14.8954
1215.87	15.3733
1217.49	16.8984
1219.1	18.4891
1220.71	19.7209
1222.33	20.8956
1223.94	20.8496
1225.55	22.4567
1227.16	23.2495
1228.78	24.2634
1230.39	24.6399
1232	25.3365
1233.61	26.4578
1235.22	27.8637
1236.83	28.9768
1238.44	30.7173
1240.05	33.7768
1241.66	35.1902
1243.27	36.8927
1244.88	38.4341
1246.49	40.6359
1248.1	41.2579
1249.71	40.7378
1251.32	41.6824
1252.92	41.8834
1254.53	41.9634
1256.14	42.0831
1257.74	42.8516
1259.35	43.201
1260.96	43.8978
1262.56	44.0774
1264.17	44.3434
1265.77	45.7028
1267.38	45.9194
1268.98	46.9218
1270.59	47.0969
1272.19	47.9878
1273.79	48.9225
1275.4	51.0237
1277	50.9766
1278.6	49.8743
1280.21	50.5163
1281.81	51.5689
1283.41	51.7327
1285.01	51.5102
1286.61	51.7084
1288.21	51.0788
1289.81	52.0811
1291.41	52.3098
1293.01	53.0911
1294.61	52.4272
1296.21	52.5382
1297.81	53.5765
1299.41	54.3873
1301.01	54.3192
1302.6	54.431
1304.2	53.9428
1305.8	55.2796
1307.4	55.0766
1308.99	56.3473
1310.59	56.9069
1312.19	57.2541
1313.78	58.0463
1315.38	58.5446
1316.97	58.3927
1318.57	59.9051
1320.16	59.8071
1321.76	58.9002
1323.35	58.9766
1324.94	59.123
1326.54	58.7524
1328.13	58.4205
1329.72	58.4839
1331.32	59.3264
1332.91	59.2596
1334.5	59.6021
1336.09	58.8839
1337.68	58.645
1339.27	58.4466
1340.87	57.343
1342.45	56.8406
1344.04	57.7939
1345.64	56.9015
1347.22	55.6827
1348.81	55.133
1350.4	55.0628
1351.99	53.57
1353.58	51.9752
1355.17	51.2369
1356.75	49.4653
1358.34	49.0238
1359.93	49.0861
1361.51	48.3745
1363.1	47.9666
1364.69	46.9363
1366.27	47.2304
1367.86	46.6351
1369.44	46.4043
1371.03	44.9406
1372.61	44.1264
1374.2	43.5247
1375.78	43.1167
1377.37	44.044
1378.95	43.4989
1380.53	42.383
1382.11	42.2005
1383.7	41.1238
1385.28	40.749
1386.86	40.5417
1388.44	41.0654
1390.02	41.6206
1391.6	41.708
1393.19	42.4553
1394.77	43.2348
1396.35	42.8365
1397.93	43.4992
1399.51	43.4164
1401.08	43.9421
1402.66	44.7763
1404.24	45.8533
1405.82	45.391
1407.4	46.2059
1408.97	47.2853
1410.55	48.411
1412.13	48.7987
1413.71	49.6384
1415.28	50.3877
1416.86	51.4025
1418.43	53.4172
1420.01	54.8975
1421.59	57.1565
1423.16	58.7195
1424.73	59.911
1426.31	60.9911
1427.88	62.4449
1429.46	64.1577
1431.03	65.2023
1432.6	67.1389
1434.18	69.3197
1435.75	71.2181
1437.32	73.3871
1438.89	74.4645
1440.46	75.4985
1442.04	75.9901
1443.61	76.1745
1445.18	76.5802
1446.75	76.1482
1448.32	75.3722
1449.89	75.4151
1451.46	76.0267
1453.03	75.9091
1454.6	75.4243
1456.16	75.3273
1457.73	73.9412
1459.3	73.2754
1460.87	72.4952
1462.44	71.5933
1464	70.9607
1465.57	70.3541
1467.14	68.9238
1468.7	68.4165
1470.27	66.9901
1471.83	65.9188
1473.4	64.9215
1474.96	62.9734
1476.53	62.6281
1478.09	61.7822
1479.66	60.0003
1481.22	58.3053
1482.78	56.5457
1484.35	54.1229
1485.91	52.9604
1487.47	51.5044
1489.04	49.1604
1490.6	47.2401
1492.16	45.8131
1493.72	44.0642
1495.28	42.5339
1496.84	41.9531
1498.4	39.7486
1499.96	38.6506
1501.52	37.4736
1503.08	35.4764
1504.64	34.2894
1506.2	33.7557
1507.76	33.1822
1509.32	32.267
1510.88	31.0386
1512.44	29.7678
1513.99	28.5699
1515.55	27.0341
1517.11	25.6328
1518.66	24.5273
1520.22	23.4782
1521.78	22.2974
1523.33	20.9937
1524.89	20.2997
1526.44	19.7877
1528	20.1132
1529.55	19.7189
1531.11	19.3116
1532.66	18.9989
1534.21	19.0529
1535.77	19.2736
1537.32	19.3419
1538.87	19.3936
1540.43	19.9869
1541.98	19.8717
1543.53	20.1096
1545.08	21.2077
1546.63	22.8418
1548.18	23.8132
1549.74	23.7535
1551.29	24.2835
1552.84	24.2547
1554.39	24.9748
1555.94	24.5138
1557.48	24.8501
1559.03	25.4373
1560.58	26.7027
1562.13	27.7049
1563.68	28.5939
1565.23	29.7116
1566.78	30.1784
1568.32	31.3811
1569.87	31.9917
1571.42	33.3555
1572.96	34.518
1574.51	35.507
1576.05	36.7505
1577.6	38.3049
1579.14	39.1626
1580.69	40.1017
1582.24	42.2119
1583.78	43.6229
1585.32	44.2213
1586.87	44.3594
1588.41	44.297
1589.95	44.3158
1591.5	45.3313
1593.04	45.7061
1594.58	45.5022
1596.12	45.5554
1597.67	45.9832
1599.21	45.2635
1600.75	45.5264
1602.29	45.8833
1603.83	46.1123
1605.37	45.8639
1606.91	45.698
1608.45	45.437
1609.99	45.4327
1611.53	45.7227
1613.07	45.9528
1614.6	46.4413
1616.14	47.1779
1617.68	47.0697
1619.22	47.2965
1620.75	47.7855
1622.29	49.1046
1623.83	49.0507
1625.37	48.3177
1626.9	47.4137
1628.44	48.1292
1629.97	49.2721
1631.51	50.0605
1633.04	50.2602
1634.58	52.2258
1636.11	53.6127
1637.65	54.8119
1639.18	55.7118
1640.72	56.0826
1642.25	56.7913
1643.78	57.0703
1645.31	58.3077
1646.85	58.1962
1648.38	59.6165
1649.91	59.4445
1651.44	60.5252
1652.97	60.6819
1654.5	60.5355
1656.03	61.3855
1657.56	61.1068
1659.1	61.1011
1660.62	60.7459
1662.15	58.8058
1663.68	57.8504
1665.21	56.4332
1666.74	55.2238
1668.27	53.9279
1669.8	52.3178
1671.32	50.3052
1672.85	48.7682
1674.38	47.1766
1675.91	45.1611
1677.43	44.9771
1678.96	43.1412
1680.49	41.3069
1682.01	39.2889
1683.54	38.3236
1685.06	37.0562
1686.59	36.1096
1688.11	34.6108
1689.64	33.44
1691.16	32.2454
1692.68	30.3363
1694.21	28.1256
1695.73	26.7602
1697.25	24.3228
1698.78	22.062
1700.3	19.7986
1701.82	18.7726
1703.34	18.0046
1704.86	17.2739
1706.39	15.9487
1707.91	14.9442
1709.43	14.3215
1710.95	13.9291
1712.47	12.7028
1713.99	11.6768
1715.51	10.6938
1717.02	9.06018
1718.54	8.08352
1720.06	7.23885
1721.58	7.27748
1723.1	6.27729
1724.62	5.94475
1726.13	4.97455
1727.65	4.54203
1729.17	3.42132
1730.68	3.58026
1732.2	3.53508
1733.72	2.58261
1735.23	3.21361
1736.75	2.41215
1738.26	1.4339
1739.78	1.07821
1741.29	0.459658
1742.81	0.366273
1744.32	0.446395
1745.84	0.489214
1747.35	-0.143902
1748.86	0.083626
1750.37	0.575261
1751.89	0.59713
1753.4	0.530068
1754.91	-0.0634047
1756.42	0.0822739
1757.93	0.405897
1759.45	1.18353
1760.96	1.58954
1762.47	1.41205
1763.98	1.7155
1765.49	1.96975
1767	1.85449
1768.51	1.40567
1770.02	1.53905
1771.53	1.5597
1773.03	1.40989
1774.54	2.092
1776.05	2.83743
1777.56	3.5172
1779.07	3.45007
1780.57	3.74683
1782.08	4.01311
1783.59	4.2991
1785.09	4.30843
1786.6	4.47844
1788.11	4.55957
1789.61	5.12081
1791.12	4.65278
1792.62	4.57282
1794.13	4.58349
1795.63	4.4181
1797.13	4.08213
1798.64	3.4285
1800.14	3.43214
1801.65	3.59898
1803.15	3.25148
1804.65	3.62403
1806.15	3.39574
1807.66	3.33393
1809.16	3.33155
1810.66	3.28013
1812.16	2.53674
1813.66	2.18023
1815.16	2.05339
1816.66	2.12365
1818.16	1.95222
1819.66	1.73337
1821.16	1.45527
1822.66	0.771923
1824.16	0.765892
1825.66	0.881095
1827.16	0.826463
1828.66	1.01567
1830.16	1.38367
1831.65	1.18665
1833.15	1.55529
1834.65	1.67948
1836.14	1.68354
1837.64	1.55683
1839.14	1.59541
1840.63	1.19231
1842.13	0.7269
1843.62	0.914798
1845.12	1.15771
1846.61	1.36257
1848.11	1.25398
1849.6	1.6741
1851.1	2.02386
1852.59	2.35032
1854.08	2.32668
1855.58	2.21553
1857.07	1.61897
1858.56	1.41006
1860.05	1.70721
1861.55	1.63502
1863.04	1.26759
1864.53	1.68747
1866.02	1.68335
1867.51	2.34998
1869	2.62035
1870.49	2.90208
1871.98	3.02027
1873.47	3.87257
1874.96	3.96129
1876.45	3.64313
1877.94	3.27015
1879.43	3.45018
1880.92	4.45163
1882.41	5.08589
1882.51	5.27284
1884	5.85508
1885.5	6.32018
1886.99	6.45823
1888.48	6.28974
1889.98	6.59568
1891.47	6.46748
1892.96	5.86968
1894.46	6.19095
1895.95	6.47878
1897.44	6.64691
1898.93	6.32665
1900.42	5.86421
1901.91	5.98669
1903.41	6.0925
1904.9	5.87882
1906.39	6.03943
1907.88	5.90722
1909.37	5.66633
1910.86	5.48705
1912.35	5.64772
1913.83	6.40677
1915.32	7.10989
1916.81	6.87078
1918.3	6.61987
1919.79	6.18986
1921.27	5.85861
1922.76	5.79231
1924.25	6.14537
1925.74	5.63332
1927.22	5.04822
1928.71	4.89671
1930.19	5.00637
1931.68	5.03204
1933.17	5.60056
1934.65	5.21544
1936.14	4.69868
1937.62	5.13614
1939.11	4.99505
1940.59	4.87487
1942.07	4.7152
1943.56	4.56678
1945.04	4.43478
1946.52	4.59113
1948.01	4.53383
1949.49	4.32501
1950.97	4.53945
1952.45	5.25327
1953.93	5.85906
1955.42	4.6161
1956.9	4.68327
1958.38	4.69304
1959.86	4.33521
1961.34	3.1686
1962.82	3.11707
1964.3	2.65123
1965.78	2.16511
1967.26	2.22752
1968.74	2.85857
1970.21	2.47871
1971.69	1.8792
1973.17	2.57103
1974.65	3.06303
1976.13	4.07252
1977.6	3.53341
1979.08	3.32395
1980.56	3.76922
1982.03	3.51462
1983.51	3.19808
1984.99	3.74893
1986.46	4.09319
1987.94	4.22284
1989.41	3.69811
1990.89	2.83369
1992.36	2.92316
1993.84	3.10529
1995.31	3.81063
1996.78	4.39625
1998.26	4.30167
1999.73	4.01533
2001.2	4.74218
2002.68	5.51904
2004.15	5.56907
2005.62	5.93991
2007.09	6.16138
2008.56	5.6275
2010.04	5.77357
2011.51	5.97414
2012.98	5.44191
2014.45	5.64853
2015.92	5.90517
2017.39	6.76951
2018.86	6.62709
2020.33	6.68732
2021.8	6.21887
2023.26	5.65736
2024.73	5.68741
2026.2	6.0831
2027.67	6.05795
2029.14	5.95059
2030.61	6.46162
2032.07	6.96261
2033.54	6.6172
2035.01	6.37254
2036.47	6.66527
2037.94	6.90179
2039.4	7.63989
2040.87	7.70269
2042.33	8.14954
2043.8	7.71579
2045.27	8.16563
2046.73	8.65831
2048.19	8.12135
2049.66	7.74218
2051.12	6.64392
2052.59	7.1439
2054.05	6.92937
2055.51	6.48649
2056.97	6.57627
2058.44	7.5131
2059.9	7.70119
2061.36	8.08849
2062.82	8.60645
2064.28	8.91318
2065.74	9.4886
2067.21	10.2106
2068.67	11.0861
2070.13	11.1668
2071.59	11.1205
2073.05	12.0072
2074.51	12.2049
2075.96	12.0839
2077.42	12.2681
2078.88	12.7227
2080.34	12.7383
2081.8	12.9978
2083.26	13.302
2084.72	13.7773
2086.17	14.0701
2087.63	15.401
2089.09	15.9443
2090.54	16.6369
2092	16.1695
2093.45	16.7056
2094.91	16.7762
2096.37	17.8541
2097.82	18.3281
2099.28	19.0235
2100.73	19.5924
2102.19	19.6808
2103.64	20.7499
2105.09	21.6456
2106.55	22.2683
2108	22.638
2109.45	22.9935
2110.91	23.811
2112.36	23.5805
2113.81	23.7544
2115.26	23.7977
2116.72	23.9984
2118.17	24.7735
2119.62	25.2474
2121.07	25.6681
2122.52	26.4699
2123.97	27.3701
2125.42	28.4289
2126.87	29.0712
2128.32	30.5061
2129.77	31.7936
2131.22	32.8113
2132.67	34.5461
2134.11	35.6953
2135.56	37.6103
2137.01	39.1715
2138.46	40.602
2139.91	41.726
2141.35	43.3732
2142.8	44.657
2144.25	45.8423
2145.7	47.2722
2147.14	47.9828
2148.59	49.0956
2150.03	50.6619
2151.48	52.1097
2152.92	53.0074
2154.37	53.8145
2155.81	55.3582
2157.26	56.6135
2158.7	57.8957
2160.15	59.3463
2161.59	59.9395
2163.03	60.2621
2164.47	60.7057
2165.92	61.381
2167.36	62.178
2168.8	62.5596
2170.24	62.5359
2171.69	62.4663
2173.13	62.7888
2174.57	62.8358
2176.01	63.0899
2177.45	62.3018
2178.89	61.3878
2180.33	60.638
2181.77	60.4195
2183.21	59.7429
2184.65	59.2228
2186.09	59.1606
2187.53	58.7132
2188.97	58.1656
2190.4	57.2638
2191.84	56.2624
2193.28	55.5324
2194.72	54.7219
2196.16	54.0478
2197.59	52.91
2199.03	52.5135
2200.47	51.8277
2201.9	50.5583
2203.34	49.8438
2204.77	48.9151
2206.21	47.5691
2207.64	46.3181
2209.08	44.823
2210.51	43.4552
2211.95	42.308
2213.38	41.6368
2214.82	39.8743
2216.25	38.112
2217.68	36.9968
2219.12	35.8222
2220.55	35.4896
2221.98	35.6063
2223.41	34.8269
2224.85	33.5842
2226.28	33.1598
2227.71	32.9004
2229.14	32.3043
2230.57	31.486
2232	30.4038
2233.43	28.8535
2234.86	27.5591
2236.29	27.0765
2237.72	26.125
2239.15	25.32
2240.58	24.3614
2242.01	24.0088
2243.44	23.357
2244.87	23.2978
2246.29	22.7598
2247.72	21.9784
2249.15	21.681
2250.58	21.5181
2252.01	21.7008
2253.43	21.1433
2254.86	20.6115
2256.29	21.1136
2257.71	20.8095
2259.14	19.6788
2260.56	19.2931
2261.99	19.2817
2263.41	18.9471
2264.84	19.1758
2266.26	18.7988
2267.69	18.3893
2269.11	17.6926
2270.53	17.1889
2271.96	16.7348
2273.38	16.5016
2274.8	15.9484
2276.23	14.9665
2277.65	14.8644
2279.07	14.4106
2280.49	14.3837
2281.91	14.1857
2283.34	13.9881
2284.76	13.8057
2286.18	13.8032
2287.6	14.1801
2289.02	14.4154
2290.44	13.6258
2291.86	13.3866
2293.28	12.6408
2294.7	11.6646
2296.12	11.6049
2297.54	11.6828
2298.96	11.9291
2300.37	11.4066
2301.79	10.625
2303.21	9.85746
2304.63	9.80066
2306.04	9.8836
2307.46	9.9377
2308.88	9.59638
2310.3	9.96259
2311.71	9.64797
2313.13	9.66281
2314.54	9.13732
2315.96	9.07276
2317.37	9.39758
2318.79	9.27182
2320.2	9.72163
2321.62	9.73286
2323.03	10.1267
2324.45	9.95535
2325.86	9.45738
2327.27	9.316
2328.69	8.63766
2330.1	8.12343
2331.51	8.20796
2332.92	7.46016
2334.34	6.84591
2335.75	6.80595
2337.16	6.16616
2338.57	5.84341
2339.98	5.64567
2341.39	5.33508
2342.8	5.40105
2344.21	4.96338
2345.63	4.54252
2347.04	4.97517
2348.45	4.99446
2349.85	4.46824
2351.26	3.66599
2352.67	3.2178
2354.08	3.08863
2355.49	3.3317
2356.9	2.92552
2358.3	1.90467
2359.71	1.11911
2361.12	0.720579
2362.53	0.952833
2363.93	0.839225
2365.34	1.25098
2366.75	1.43076
2368.15	1.41716
2369.56	1.37311
2370.97	1.11703
2372.37	1.15086
2373.77	1.2691
2375.18	1.88316
2376.59	1.87463
2377.99	2.03592
2379.39	2.14329
2380.8	2.50626
2382.2	2.24645
2383.6	2.45073
2385.01	2.87122
2386.41	3.90461
2387.81	4.49901
2389.21	4.38344
2390.62	4.82188
2392.02	4.41896
2393.42	5.12177
2394.82	4.2786
2396.22	3.74123
2397.62	3.74165
2399.02	4.01653
2400.42	3.85334
2401.82	3.57655
2403.22	3.44376
2404.62	3.38233
2406.02	3.40145
2407.42	3.18094
2408.82	3.38048
2410.22	3.52965
2411.62	3.56836
2413.01	3.99354
2414.41	4.50897
2415.81	5.02215
2417.21	5.43982
2418.6	4.69751
2420	4.43991
2421.4	4.68225
2422.79	5.04675
2424.19	5.40416
2425.59	5.04643
2426.98	4.25551
2428.38	3.85873
2429.77	4.07248
2431.17	4.49729
2432.56	4.22801
2433.95	4.46342
2435.35	4.49189
2436.74	4.99364
2438.14	5.36958
2439.53	5.8568
2440.92	6.20746
2442.31	5.95575
2443.71	6.57323
2445.1	6.50704
2446.49	6.61817
2447.88	6.58299
2449.27	6.88412
2450.67	6.60059
2452.06	6.71486
2453.45	7.32436
2454.84	8.12771
2456.23	7.9435
2457.62	7.87836
2459.01	7.53766
2460.4	7.45425
2461.79	7.53543
2463.18	7.94925
2464.57	6.68927
2465.95	6.22428
2467.34	6.48667
2468.73	6.0376
2470.12	5.86857
2471.5	5.6457
2472.89	5.81494
2474.28	5.50405
2475.67	5.81675
2477.05	5.74338
2478.44	6.37589
2479.82	6.72766
2481.21	6.26063
2482.6	6.55872
2483.98	6.40728
2485.37	6.05347
2486.75	6.08471
2488.13	5.72695
2489.52	6.23673
2490.9	5.63327
2492.29	5.76422
2493.67	5.99631
2495.05	5.86554
2496.44	5.84386
2497.82	6.54399
2499.2	6.82569
2500.58	7.21536
2501.97	7.114
2503.35	7.1785
2504.73	6.6306
2506.11	6.69171
2507.49	6.35966
2508.87	6.35047
2510.25	6.05356
2511.63	5.45718
2513.01	5.60443
2514.39	6.19929
2515.77	7.08193
2517.15	7.39694
2518.53	7.00894
2519.91	6.68822
2521.29	7.03656
2522.67	7.2787
2524.05	6.98207
2525.42	6.18892
2526.8	6.19596
2528.18	6.08688
2529.55	6.30798
2530.93	6.46145
2532.31	5.97499
2533.69	5.19799
2535.06	5.20058
2536.44	5.38675
2537.81	5.1706
2539.19	5.39907
2540.56	5.04102
2541.94	5.22949
2543.31	4.50005
2544.69	4.45501
2546.06	4.48576
2547.44	4.55883
2548.81	3.63906
2550.18	3.63522
2551.56	4.34742
2552.93	4.52964
2554.3	4.7173
2555.67	5.16469
2557.04	4.93669
2558.42	5.09251
2559.79	4.83491
2561.16	5.75655
2562.53	6.06635
2563.9	5.50995
2565.27	5.5468
2566.64	5.48391
2568.01	5.36581
2569.38	5.43871
2570.75	4.93026
2572.12	4.23248
2573.49	3.62202
2574.86	3.99824
2576.23	4.22731
2577.6	5.02071
2578.97	5.19305
2580.33	5.02481
2581.7	5.63965
2583.07	6.14513
2584.44	5.59223
2585.8	4.7494
2587.17	4.3862
2588.54	4.38291
2589.9	4.27169
2591.27	3.8122
2592.64	3.48447
2594	2.88653
2595.37	2.97754
2596.73	3.10034
2598.1	3.13545
2599.46	3.11658
2600.83	3.13843
2602.19	3.61239
2603.55	4.49452
2604.92	4.98452
2606.28	5.3218
2607.64	5.41633
2609.01	5.54116
2610.37	6.18713
2611.73	6.32997
2613.09	6.88723
2614.46	7.21835
2615.82	7.33962
2617.18	7.4939
2618.54	8.7755
2619.9	9.01489
2621.26	9.4751
2622.62	9.67108
2623.98	10.5211
2625.34	10.5066
2626.7	10.8911
2628.06	11.5832
2629.42	11.5602
2630.78	11.5362
2632.14	10.9312
2633.5	11.0129
2634.86	10.5905
2636.21	10.8202
2637.57	10.0187
2638.93	9.57606
2640.29	8.9641
2641.64	8.54991
2643	8.922
2644.36	8.30436
2645.71	7.92281
2647.07	7.21435
2648.43	6.76668
2649.78	6.62428
2651.14	6.32973
2652.49	5.74257
2653.85	5.38365
2655.2	5.00224
2656.56	4.38201
2657.91	3.8314
2659.26	3.24613
2660.62	2.87364
2661.97	2.24427
2663.32	1.90211
2664.68	1.84107
2666.03	1.6199
2667.38	1.89887
2668.74	1.89178
2670.09	1.76074
2671.44	1.93199
2672.79	1.37023
2674.14	1.70384
2675.49	1.769
2676.84	1.78555
2678.19	2.53727
2679.54	2.69607
2680.89	2.43127
2682.24	2.99868
2683.59	3.04992
2684.94	2.95226
2686.29	3.85342
2687.64	4.21392
2688.99	4.25479
2690.34	4.40261
2691.69	5.05898
2693.03	4.82213
2694.38	5.07143
2695.73	5.40589
2697.08	4.87343
2698.42	5.06671
2699.77	5.22764
2701.12	5.34977
2702.46	5.45639
2703.81	6.00577
2705.15	6.2712
2706.5	6.56711
2707.85	6.74215
2709.19	7.55215
2710.54	7.92066
2711.88	8.4578
2713.22	8.9695
2714.57	9.92323
2715.91	10.334
2717.26	10.6146
2718.6	10.6273
2719.94	10.5036
2721.29	10.3745
2722.63	9.98663
2723.97	9.83941
2725.31	9.10231
2726.66	9.15047
2728	8.82643
2729.34	8.48722
2730.68	8.39548
2732.02	8.91272
2733.36	9.21393
2734.7	8.83356
2736.04	8.40526
2737.38	8.42159
2738.72	8.63479
2740.06	8.61736
2741.4	8.69306
2742.74	8.36257
2744.08	8.49478
2745.42	8.37406
2746.76	7.46627
2748.09	6.89848
2749.43	6.51643
2750.77	5.77237
2752.11	5.40596
2753.45	5.49943
2754.78	5.2307
2756.12	4.8148
2757.46	5.13362
2758.79	4.65708
2760.13	3.85649
2761.46	3.74666
2762.8	3.43482
2764.14	3.04059
2765.47	2.95928
2766.8	2.90215
2768.14	2.54302
2769.47	2.66823
2770.81	3.21272
2772.14	2.68147
2773.48	2.5164
2774.81	2.76875
2776.14	2.17747
2777.48	1.94087
2778.81	1.96225
2780.14	1.34328
2781.47	1.36557
2782.8	0.899704
2784.14	0.409354
2785.47	0.167659
2786.8	-0.0431254
2788.13	-0.331667
2789.46	-0.17368
2790.79	-0.107226
2792.12	0.222942
2793.45	1.0614
2794.78	0.809465
2796.11	1.06646
2797.44	1.00998
2798.77	0.845365
2800.1	0.0914979
2801.43	-0.19805
2802.76	0.0532639
2804.09	0.0714266
2805.41	0.0792706
2806.74	0.374108
2808.07	0.00543849
2809.4	0.0980756
2810.72	-0.0638327
2812.05	-0.668146
2813.38	-0.873694
2814.71	-0.70626
2816.03	-0.037239
2817.36	0.895331
2818.68	1.52443
2820.01	2.5387
2821.33	3.02725
2822.66	4.08165
2823.98	4.71229
2825.31	5.42754
2826.63	6.37213
2827.96	7.31295
2829.28	8.10717
2830.6	9.43554
2831.93	10.5873
2833.25	11.7403
2834.57	13.3043
2835.9	14.7332
2837.22	16.5818
2838.54	17.5562
2839.86	19.8172
2841.18	21.8791
2842.5	23.6198
2843.83	26.1632
2845.15	28.9432
2846.47	31.6816
2847.79	34.3032
2849.11	36.9337
2850.43	39.8686
2851.75	42.4892
2853.07	45.957
2854.39	48.743
2855.71	52.315
2857.03	55.233
2858.35	58.7337
2859.66	61.11
2860.98	62.9804
2862.3	65.4121
2863.62	67.6321
2864.94	70.3713
2866.25	72.9681
2867.57	75.8195
2868.89	77.8309
2870.2	80.0423
2871.52	82.8703
2872.84	85.0852
2874.15	86.3801
2875.47	88.2728
2876.78	89.7987
2878.1	91.4357
2879.41	93.1365
2880.73	95.0125
2882.04	96.833
2883.36	98.8229
2884.67	100.835
2885.99	102.351
2887.3	104.062
2888.61	106.506
2889.93	108.048
2891.24	109.898
2892.55	112.029
2893.86	113.463
2895.18	115.545
2896.49	117.584
2897.8	119.879
2899.11	122.469
2900.42	125.451
2901.73	128.372
2903.05	131.426
2904.36	134.596
2905.67	137.585
2906.98	141.894
2908.29	145.423
2909.6	149.764
2910.91	154.319
2912.21	158.39
2913.52	162.649
2914.83	167.022
2916.14	171.981
2917.45	175.544
2918.76	179.873
2920.07	183.363
2921.37	187.594
2922.68	190.724
2923.99	193.736
2925.29	195.987
2926.6	199.188
2927.91	201.388
2929.22	203.554
2930.52	204.883
2931.83	206.409
2933.13	206.857
2934.44	206.76
2935.74	206.778
2937.05	206.794
2938.35	205.259
2939.66	203.697
2940.96	202.514
2942.26	200.546
2943.57	198.377
2944.87	196.26
2946.18	193.896
2947.48	191.615
2948.78	189.723
2950.08	185.836
2951.39	182.316
2952.69	179.459
2953.99	175.577
2955.29	170.793
2956.59	166.914
2957.9	163.187
2959.2	158.499
2960.5	154.966
2961.8	150.957
2963.1	147.363
2964.4	143.528
2965.7	139.555
2967	135.433
2968.3	131.657
2969.6	128.074
2970.9	124.554
2972.19	121.773
2973.49	117.927
2974.79	114.478
2976.09	110.91
2977.39	107.65
2978.68	103.75
2979.98	100.308
2981.28	96.6285
2982.58	92.5723
2983.87	89.2455
2985.17	86.157
2986.47	83.0083
2987.76	78.951
2989.06	75.5203
2990.35	71.9594
2991.65	68.7115
2992.94	64.5721
2994.24	61.3249
2995.53	57.9357
2996.83	54.7402
2998.12	51.3335
2999.42	48.3333
3000.71	45.6395
3002	43.1423
3003.3	39.482
3004.59	36.7585
3005.88	33.875
3007.18	30.919
3008.47	28.5672
3009.76	26.3211
3011.05	23.3198
3012.34	21.3564
3013.64	19.3317
3014.93	17.3594
3016.22	16.2907
3017.51	14.5308
3018.8	12.7261
3020.09	11.3985
3021.38	10.9896
3022.67	9.69316
3023.96	8.67949
3025.25	7.85544
3026.54	7.00331
3027.83	6.45447
3029.12	5.74408
3030.41	5.15202
3031.69	4.64504
3032.98	5.14205
3034.27	5.28216
3035.56	5.2862
3036.84	5.50423
3038.13	5.73913
3039.42	5.68658
3040.71	6.19435
3041.99	6.4346
3043.28	6.66361
3044.57	7.31638
3045.85	7.33418
3047.14	7.57957
3048.42	7.60502
3049.71	7.954
3050.99	8.13076
3052.28	7.64262
3053.56	7.98313
3054.85	8.5339
3056.13	9.1425
3057.41	9.50606
3058.7	9.37393
3059.98	9.22556
3061.26	9.33889
3062.55	9.13424
3063.83	8.90589
3065.11	8.15614
3066.39	7.66606
3067.68	6.65102
3068.96	6.30663
3070.24	5.23537
3071.52	4.65213
3072.8	4.38911
3074.08	3.61842
3075.36	3.29577
3076.65	4.18884
3077.93	4.10911
3079.21	4.12634
3080.49	3.30443
3081.77	2.60002
3083.04	2.05835
3084.32	1.50195
3085.6	1.26076
3086.88	0.606741
3088.16	0.625654
3089.44	0.411391
3090.72	0.0661085
3091.99	0.285062
3093.27	0.787668
3094.55	0.90957
3095.83	1.16979
3097.1	2.13261
3098.38	2.21521
3099.66	2.43233
3100.93	2.88843
3102.21	3.25598
3103.49	3.42174
3104.76	4.33765
3106.04	4.81432
3107.31	5.18295
3108.59	5.17316
3109.86	4.80522
3111.14	5.50229
3112.41	6.26044
3113.69	7.37433
3114.96	8.27141
3116.23	9.05632
3117.51	9.8001
3118.78	10.8839
3120.05	11.2275
3121.33	11.7756
3122.6	11.9096
3123.87	12.8224
3125.14	13.6468
3126.41	13.9538
3127.69	14.8829
3128.96	15.089
3130.23	16.1978
3131.5	16.9519
3132.77	17.8236
3134.04	19.0334
3135.31	20.5517
3136.58	21.9619
3137.85	22.9136
3139.12	24.1262
3140.39	25.0734
3141.66	25.4218
3142.93	26.1879
3144.2	27.0928
3145.47	28.2514
3146.74	29.3446
3148	30.3999
3149.27	31.2867
