#Acq. time (s)=	45
#Accumulations=	2
#Range (cm-¹)=	200...3150
#Windows=	2
#Auto scanning=	Off
#Autofocus=	Off
#Macrospot=	Off
#AutoExposure=	Off
#Spike filter=	Multiple accum.
#Delay time (s)=	0
#Binning=	1
#Readout mode=	Signal
#DeNoise=	Off
#ICS correction=	On
#Dark correction=	Off
#Inst. Process=	Off
#Detector Gain=	Best Dynamic Range
#Detector ADC=	20 kHz       
#Detector temperature (°C)=	-69.85
#Instrument=	LabRAM HR Evol
#Detector=	Synapse
#Objective=	x100
#Grating=	600 gr/mm
#ND Filter=	100%
#Laser (nm)=	532 
#Hole=	100.021
#Range=	Auto
#Laser Pol.=	No
#Raman. Pol.=	No
#Laser Pol. (°)=	-0.0007625
#Raman Pol. (°)=	89.9995
#Collection=	Microscope
#StageXY=	Marzhauser
#StageZ=	Marzhauser
#X (µm)=	-6400.4
#Y (µm)=	884.2
#Z (µm)=	-64.65
#Full time(mm:ss)=	3:18
#Project=	
#Sample=	
#Site=	
#Title=	Mb_30_27_20_2x_45s_532 nm_x100_100%_600 gr_mm
#Remark=	
#Date=	13.07.2022 10:07
#Acquired=	13.07.2022 10:07:16
#Base:Fit=	10.08.2022 10:40:03
#Base:Sub=	10.08.2022 10:40:17
#Filter:Polynom=	16.08.2022 10:16:15
#AxisType[0]=Intens
#AxisUnit[0]=Cnt
#AxisType[1]=Spectr
#AxisUnit[1]=1/cm
200.563	15.2877
202.377	18.8919
204.194	20.8453
206.008	21.0365
207.821	20.9322
209.634	20.8553
211.449	20.4485
213.262	20.6147
215.074	19.4442
216.885	19.3782
218.699	18.8874
220.51	19.2151
222.321	18.4322
224.131	18.3685
225.941	17.9566
227.751	17.949
229.562	17.4497
231.371	18.6758
233.18	18.2717
234.988	17.3225
236.796	16.6949
238.603	15.9562
240.411	15.4212
242.219	14.9701
244.026	14.2723
245.832	14.213
247.638	14.1549
249.443	13.397
251.248	13.0521
253.053	11.9085
254.857	11.203
256.661	8.85912
258.465	8.08475
260.268	7.16288
262.071	6.3273
263.874	5.32893
265.678	5.43587
267.48	5.02885
269.282	5.1627
271.083	4.83634
272.884	4.57806
274.684	5.42685
276.484	4.97568
278.284	5.25293
280.084	4.95637
281.883	5.33447
283.682	5.67183
285.48	4.31284
287.276	4.42062
289.074	3.8884
290.871	4.17304
292.668	3.99638
294.465	3.7316
296.261	5.18809
298.057	4.69145
299.853	5.2083
301.648	6.24208
303.443	7.36287
305.237	6.84199
307.032	8.6525
308.823	8.70282
310.617	8.6826
312.41	8.97462
314.203	9.06124
315.995	9.44091
317.788	10.2849
319.579	9.53794
321.369	9.9063
323.16	9.19361
324.951	8.44069
326.741	8.70197
328.531	8.31237
330.321	8.04076
332.108	7.91831
333.897	8.86438
335.686	9.08805
337.474	8.06866
339.26	7.30082
341.048	7.07042
342.835	6.88619
344.622	6.6462
346.406	6.87525
348.192	7.9628
349.978	8.0155
351.764	8.18404
353.547	8.72094
355.332	8.63854
357.116	8.63574
358.901	8.43255
360.682	8.44818
362.466	9.21291
364.249	9.304
366.03	9.1394
367.812	9.41786
369.594	8.94597
371.374	8.04727
373.155	8.37177
374.936	9.58627
376.715	10.5434
378.495	10.6302
380.273	9.91302
382.053	10.2851
383.832	9.67147
385.609	9.7759
387.388	8.59194
389.164	9.86691
390.942	9.0196
392.72	8.73398
394.495	8.21164
396.272	8.03104
398.047	8.16982
399.823	7.38969
401.597	7.38426
403.372	6.57918
405.145	7.02584
406.92	6.97576
408.693	5.56929
410.467	6.31849
412.239	5.42535
414.012	4.43291
415.783	4.41827
417.556	4.28907
419.327	4.14906
421.099	4.53454
422.869	4.48426
424.64	3.49573
426.409	2.68557
428.18	3.42522
429.948	4.11921
431.718	4.05403
433.486	4.14777
435.253	5.64363
437.022	6.35112
438.789	5.89469
440.558	6.71021
442.324	6.69057
444.089	6.38091
445.857	6.41053
447.622	7.27288
449.386	8.08524
451.153	7.12123
452.917	6.22579
454.682	6.69564
456.446	7.49464
458.208	7.74051
459.973	7.53592
461.735	8.58251
463.497	8.45141
465.259	7.83979
467.022	8.33093
468.783	8.36818
470.544	9.64468
472.306	9.88007
474.066	10.2629
475.825	11.7507
477.585	13.0862
479.346	14.6099
481.104	16.5004
482.862	16.0216
484.62	16.2188
486.38	17.5781
488.137	17.6043
489.894	18.4011
491.65	19.1867
493.407	20.3708
495.164	20.6834
496.92	21.0603
498.675	21.9963
500.43	21.6781
502.184	22.3377
503.939	22.0649
505.694	21.7145
507.448	21.5839
509.201	21.6992
510.954	22.0261
512.706	21.9147
514.459	21.8138
516.21	22.6224
517.962	22.7439
519.715	22.4174
521.466	23.4075
523.216	24.314
524.966	24.272
526.716	23.4079
528.466	23.5285
530.215	22.4911
531.964	21.936
533.712	21.6974
535.46	20.4787
537.208	19.7837
538.955	17.9174
540.703	19.1719
542.449	19.2466
544.196	18.972
545.942	18.0644
547.688	16.8939
549.433	17.0478
551.178	16.8924
552.923	17.4276
554.667	17.3624
556.412	16.8331
558.155	16.5907
559.899	15.8923
561.642	15.4267
563.385	12.9413
565.127	10.9866
566.867	10.7291
568.609	10.1232
570.35	10.1248
572.092	10.9661
573.832	11.809
575.573	12.2094
577.313	13.314
579.053	14.6491
580.79	15.7468
582.529	15.0271
584.268	14.1786
586.006	13.3047
587.745	12.8691
589.482	13.1834
591.218	13.1243
592.955	13.2024
594.692	14.5255
596.428	14.1375
598.164	14.1737
599.898	14.3088
601.634	14.3842
603.369	13.9584
605.104	13.5423
606.836	13.6947
608.57	13.4251
610.304	12.9785
612.037	12.8448
613.769	12.0629
615.501	11.4287
617.234	11.5061
618.966	11.66
620.696	11.5561
622.427	11.4561
624.159	12.8658
625.887	11.8712
627.618	12.4859
629.348	11.165
631.076	10.7643
632.806	11.2327
634.535	10.4067
636.262	10.3981
637.99	9.27477
639.716	8.10257
641.444	7.27196
643.172	6.83671
644.897	6.53339
646.624	6.96299
648.348	6.86426
650.075	6.44273
651.801	9.02674
653.524	11.6362
655.249	13.5915
656.972	14.5021
658.697	15.4105
660.419	16.632
662.143	17.8937
663.865	19.1279
665.588	19.2438
667.309	20.1579
669.032	20.2549
670.752	21.3934
672.474	23.4001
674.194	24.5092
675.915	25.3903
677.634	26.0559
679.355	26.9982
681.073	28.241
682.793	27.8732
684.511	29.0388
686.23	29.8751
687.947	29.9099
689.664	30.4541
691.382	31.6292
693.098	32.6893
694.816	33.4217
696.531	34.3538
698.247	36.5264
699.963	37.151
701.678	37.5654
703.392	38.6305
705.108	39.4844
706.821	40.4886
708.534	40.9358
710.249	40.6097
711.962	39.6124
713.674	37.9999
715.388	36.101
717.099	34.9146
718.81	35.7001
720.523	34.8449
722.234	37.3241
723.944	39.4731
725.654	42.8254
727.365	45.5097
729.075	48.3691
730.784	50.2589
732.492	52.2223
734.202	53.653
735.91	55.1197
737.618	56.4699
739.325	58.2578
741.034	59.5582
742.741	60.4284
744.447	61.5814
746.153	63.0088
747.859	64.5994
749.564	66.3981
751.271	68.1355
752.976	69.5017
754.681	70.169
756.385	70.6154
758.088	72.5256
759.792	72.5434
761.495	74.3055
763.2	75.8072
764.902	76.5859
766.604	77.4306
768.306	78.4369
770.008	80.1302
771.709	81.2074
773.41	82.0881
775.11	83.1112
776.811	83.6986
778.51	84.0383
780.21	83.9709
781.909	83.8517
783.608	83.8247
785.307	82.1774
787.005	81.8277
788.703	80.8884
790.401	80.6527
792.098	79.0795
793.795	76.3046
795.492	73.7968
797.188	71.8225
798.884	71.3622
800.58	71.5094
802.276	73.3519
803.971	74.9644
805.665	75.4337
807.36	77.5742
809.054	78.6184
810.748	78.9794
812.441	77.828
814.135	77.3864
815.826	75.3114
817.518	73.9317
819.21	73.1277
820.902	72.2201
822.594	71.2715
824.285	70.1216
825.976	69.3492
827.665	68.1509
829.355	68.0338
831.045	67.0289
832.735	66.1627
834.424	65.1166
836.111	63.436
837.8	62.2242
839.488	61.4335
841.177	60.2081
842.864	59.3598
844.55	57.8598
846.237	57.9068
847.924	56.7261
849.61	55.7421
851.295	55.4128
852.98	54.8793
854.666	54.0101
856.349	53.3175
858.034	51.801
859.719	51.022
861.403	49.6764
863.085	49.0798
864.769	47.7328
866.452	47.4853
868.133	47.367
869.816	46.9142
871.498	47.104
873.179	46.4545
874.86	46.6873
876.54	45.9621
878.221	45.8807
879.902	46.5168
881.58	48.2394
883.26	49.4266
884.938	48.5089
886.618	49.0533
888.297	48.3569
889.974	48.6255
891.653	49.9395
893.329	50.5912
895.007	49.3137
896.683	48.7109
898.36	48.5784
900.035	47.8761
901.712	48.1928
903.387	48.8297
905.063	48.8842
906.737	48.7704
908.412	48.7638
910.085	50.0084
911.76	49.8928
913.433	50.4201
915.107	49.9969
916.779	50.3908
918.452	49.3541
920.124	49.2361
921.797	49.6712
923.467	49.7845
925.138	49.5084
926.81	48.8703
928.48	48.9814
930.151	47.8635
931.82	46.658
933.489	45.9176
935.16	44.9302
936.828	44.4569
938.496	44.2692
940.165	44.7312
941.833	43.6391
943.5	43.3053
945.168	42.5992
946.834	42.71
948.5	41.5791
950.168	41.9411
951.834	41.3561
953.499	39.5891
955.163	39.5493
956.83	38.7344
958.494	37.9737
960.158	37.5874
961.821	36.7314
963.487	35.9676
965.15	35.7985
966.812	34.2141
968.474	33.3771
970.138	33.8145
971.8	33.865
973.461	33.8135
975.123	33.7703
976.783	33.5379
978.446	32.6913
980.106	32.3941
981.766	32.0378
983.425	32.3138
985.084	32.1464
986.743	31.678
988.402	31.8391
990.06	31.7256
991.72	31.0457
993.378	29.9441
995.035	28.9626
996.692	29.0126
998.349	28.7226
1000.01	28.1078
1001.66	26.3654
1003.32	26.3235
1004.97	25.686
1006.63	25.1566
1008.28	24.7982
1009.94	24.6646
1011.59	26.4518
1013.25	27.9616
1014.9	30.2642
1016.55	32.7463
1018.21	35.5049
1019.86	37.8517
1021.51	39.9538
1023.16	40.9025
1024.81	42.5784
1026.47	44.1287
1028.12	44.9259
1029.77	46.0707
1031.42	46.1456
1033.07	46.8666
1034.72	47.351
1036.37	46.8061
1038.02	48.0041
1039.67	48.2907
1041.31	48.7874
1042.96	48.481
1044.61	47.6454
1046.26	48.0392
1047.91	48.161
1049.55	47.7283
1051.2	46.9424
1052.84	45.6351
1054.49	44.0647
1056.14	42.8002
1057.78	41.7664
1059.43	40.4213
1061.07	38.6477
1062.72	37.4941
1064.36	35.6921
1066	33.0217
1067.65	29.7965
1069.29	27.0799
1070.93	24.635
1072.58	20.8927
1074.22	18.4419
1075.86	16.7305
1077.5	15.2214
1079.14	13.7434
1080.78	11.2009
1082.42	8.97229
1084.06	7.14523
1085.7	6.17184
1087.34	6.77334
1088.98	7.40278
1090.62	8.40779
1092.26	9.46534
1093.9	11.0261
1095.54	11.9491
1097.17	12.0266
1098.81	12.1397
1100.45	12.3655
1102.09	12.1962
1103.72	12.9127
1105.36	12.8223
1106.99	13.6049
1108.63	13.125
1110.27	12.5083
1111.9	12.955
1113.53	12.4529
1115.17	12.3155
1116.8	12.1353
1118.43	11.6371
1120.07	11.2943
1121.7	10.4457
1123.33	9.15531
1124.97	8.56769
1126.6	8.31966
1128.23	8.51219
1129.86	7.79341
1131.49	7.03282
1133.12	6.62588
1134.75	6.90649
1136.38	7.25286
1138.01	7.26092
1139.64	6.49254
1141.27	5.64579
1142.9	5.35501
1144.53	4.81112
1146.16	3.07781
1147.78	2.64699
1149.41	3.60866
1151.04	3.72396
1152.67	3.21041
1154.29	2.91361
1155.92	3.14508
1157.54	2.04727
1159.17	1.59611
1160.8	2.05049
1162.42	2.10242
1164.05	1.7833
1165.67	1.92059
1167.29	2.16652
1168.92	2.49607
1170.54	2.36582
1172.16	2.3151
1173.79	2.21372
1175.41	2.14244
1177.03	2.0256
1178.65	1.95033
1180.28	2.29415
1181.9	2.9794
1183.52	3.12855
1185.14	3.39573
1186.76	3.01644
1188.38	3.36055
1190	3.29831
1191.62	2.77212
1193.24	3.05754
1194.86	1.8669
1196.47	2.36679
1198.09	1.5518
1199.71	1.31262
1201.33	-0.20754
1202.95	-0.209882
1204.56	0.615015
1206.18	0.766391
1207.8	0.654283
1209.41	1.07929
1211.03	1.4296
1212.64	2.66218
1214.26	3.70217
1215.87	4.3745
1217.49	5.41137
1219.1	6.16101
1220.71	7.58637
1222.33	8.70988
1223.94	9.92342
1225.55	10.8312
1227.16	11.5796
1228.78	13.0143
1230.39	14.1228
1232	14.3388
1233.61	14.3677
1235.22	16.1294
1236.83	16.2268
1238.44	16.8105
1240.05	18.5958
1241.66	19.8748
1243.27	19.6713
1244.88	20.0798
1246.49	21.3049
1248.1	21.7797
1249.71	21.4771
1251.32	22.5872
1252.92	23.2561
1254.53	23.7141
1256.14	24.8029
1257.74	25.8264
1259.35	26.0663
1260.96	25.9419
1262.56	26.4708
1264.17	25.937
1265.77	26.9671
1267.38	27.0906
1268.98	28.0239
1270.59	27.7872
1272.19	27.4984
1273.79	27.2224
1275.4	26.6847
1277	27.7858
1278.6	27.0228
1280.21	26.8436
1281.81	27.081
1283.41	27.9289
1285.01	28.8744
1286.61	28.6561
1288.21	29.6485
1289.81	30.0204
1291.41	30.5858
1293.01	31.7739
1294.61	32.6624
1296.21	33.4936
1297.81	33.4603
1299.41	33.4545
1301.01	33.7784
1302.6	34.0459
1304.2	33.762
1305.8	34.3563
1307.4	34.4556
1308.99	34.9556
1310.59	36.3256
1312.19	36.3034
1313.78	36.5938
1315.38	36.9369
1316.97	36.0688
1318.57	37.2405
1320.16	38.8954
1321.76	38.6822
1323.35	37.861
1324.94	39.2153
1326.54	38.713
1328.13	38.4707
1329.72	38.6267
1331.32	39.2962
1332.91	39.0924
1334.5	38.7252
1336.09	38.9033
1337.68	37.6347
1339.27	36.8084
1340.87	36.1467
1342.45	35.4332
1344.04	34.7885
1345.64	35.1726
1347.22	33.9528
1348.81	33.1823
1350.4	32.0565
1351.99	31.5779
1353.58	30.7558
1355.17	29.7707
1356.75	28.488
1358.34	27.3346
1359.93	27.1048
1361.51	27.3987
1363.1	26.4017
1364.69	26.0231
1366.27	24.9795
1367.86	24.7711
1369.44	24.3561
1371.03	24.5707
1372.61	24.3059
1374.2	23.5819
1375.78	22.5007
1377.37	21.5337
1378.95	22.1128
1380.53	22.2718
1382.11	22.3821
1383.7	22.3862
1385.28	23.7901
1386.86	24.484
1388.44	24.8619
1390.02	24.8883
1391.6	24.9701
1393.19	25.4672
1394.77	25.4974
1396.35	26.4247
1397.93	27.4827
1399.51	27.5358
1401.08	26.9871
1402.66	27.7081
1404.24	28.2425
1405.82	27.3176
1407.4	27.267
1408.97	27.3374
1410.55	27.8451
1412.13	27.8984
1413.71	27.7326
1415.28	27.391
1416.86	27.5674
1418.43	28.3564
1420.01	29.0288
1421.59	30.5403
1423.16	32.0822
1424.73	33.2779
1426.31	34.7443
1427.88	36.1298
1429.46	37.368
1431.03	37.8609
1432.6	38.3367
1434.18	38.4364
1435.75	39.1496
1437.32	40.3401
1438.89	40.6832
1440.46	41.275
1442.04	40.9641
1443.61	40.7584
1445.18	41.0465
1446.75	42.3485
1448.32	42.0156
1449.89	41.725
1451.46	41.3593
1453.03	41.1072
1454.6	40.0968
1456.16	40.2764
1457.73	40.8742
1459.3	40.5945
1460.87	40.7193
1462.44	40.97
1464	40.6041
1465.57	40.3341
1467.14	39.5313
1468.7	38.5961
1470.27	38.5223
1471.83	37.1187
1473.4	36.571
1474.96	36.3083
1476.53	34.719
1478.09	33.5559
1479.66	32.7913
1481.22	31.7899
1482.78	29.8677
1484.35	29.2297
1485.91	28.9512
1487.47	28.8974
1489.04	27.8692
1490.6	26.2356
1492.16	25.668
1493.72	24.8778
1495.28	24.5276
1496.84	23.6643
1498.4	23.2208
1499.96	22.5363
1501.52	21.9025
1503.08	20.3588
1504.64	19.894
1506.2	18.7986
1507.76	17.7617
1509.32	16.134
1510.88	14.931
1512.44	13.4143
1513.99	13.0379
1515.55	12.0514
1517.11	11.9246
1518.66	12.0239
1520.22	11.4567
1521.78	10.9394
1523.33	11.6821
1524.89	11.1918
1526.44	10.8312
1528	11.431
1529.55	11.8499
1531.11	12.5
1532.66	13.0035
1534.21	14.7816
1535.77	15.4497
1537.32	16.0083
1538.87	16.8568
1540.43	17.3084
1541.98	18.4273
1543.53	19.9316
1545.08	19.5966
1546.63	20.26
1548.18	21.673
1549.74	21.9148
1551.29	22.2457
1552.84	23.269
1554.39	23.4617
1555.94	23.8529
1557.48	25.1831
1559.03	25.0491
1560.58	25.0092
1562.13	25.4026
1563.68	26.0307
1565.23	27.1724
1566.78	27.5337
1568.32	27.1853
1569.87	27.2279
1571.42	26.977
1572.96	28.2992
1574.51	28.562
1576.05	29.002
1577.6	29.4342
1579.14	29.3789
1580.69	28.7826
1582.24	29.6185
1583.78	29.8412
1585.32	29.8319
1586.87	30.594
1588.41	31.6238
1589.95	31.7303
1591.5	32.4804
1593.04	32.4345
1594.58	32.7989
1596.12	32.7792
1597.67	33.2398
1599.21	32.8127
1600.75	33.2119
1602.29	33.9143
1603.83	34.9467
1605.37	35.6357
1606.91	35.5608
1608.45	35.756
1609.99	35.399
1611.53	35.5874
1613.07	35.3755
1614.6	35.0686
1616.14	34.6827
1617.68	34.2631
1619.22	35.0788
1620.75	35.0841
1622.29	34.4346
1623.83	35.8709
1625.37	36.6907
1626.9	36.4927
1628.44	36.9348
1629.97	38.5085
1631.51	38.3979
1633.04	38.7616
1634.58	40.3961
1636.11	40.712
1637.65	41.7512
1639.18	43.0931
1640.72	45.1339
1642.25	45.722
1643.78	45.4024
1645.31	45.9383
1646.85	47.1033
1648.38	47.907
1649.91	48.4221
1651.44	47.3645
1652.97	47.618
1654.5	47.8381
1656.03	47.3615
1657.56	47.2315
1659.1	46.7423
1660.62	46.6829
1662.15	46.2852
1663.68	44.875
1665.21	43.2985
1666.74	41.3238
1668.27	40.9742
1669.8	39.273
1671.32	38.1342
1672.85	37.4785
1674.38	36.7602
1675.91	34.8533
1677.43	33.7127
1678.96	32.1406
1680.49	30.0901
1682.01	28.3561
1683.54	25.7851
1685.06	24.1137
1686.59	22.0948
1688.11	20.1789
1689.64	18.6649
1691.16	16.5121
1692.68	15.4068
1694.21	14.5309
1695.73	14.324
1697.25	12.8953
1698.78	12.3457
1700.3	12.776
1701.82	11.221
1703.34	9.74233
1704.86	9.2794
1706.39	8.23111
1707.91	7.33117
1709.43	7.06525
1710.95	7.56322
1712.47	7.39705
1713.99	6.79524
1715.51	6.25595
1717.02	5.70587
1718.54	4.96425
1720.06	4.75632
1721.58	4.58662
1723.1	3.53583
1724.62	3.35844
1726.13	3.10121
1727.65	2.39946
1729.17	2.26407
1730.68	1.96758
1732.2	1.32366
1733.72	0.935525
1735.23	0.596211
1736.75	0.674777
1738.26	0.0892776
1739.78	0.203488
1741.29	1.41015
1742.81	1.56046
1744.32	2.42744
1745.84	2.44913
1747.35	2.87406
1748.86	2.95352
1750.37	2.66721
1751.89	2.49356
1753.4	2.51163
1754.91	1.99985
1756.42	2.37094
1757.93	2.17116
1759.45	1.6781
1760.96	1.82118
1762.47	1.70879
1763.98	1.91128
1765.49	1.8718
1767	1.5875
1768.51	2.16843
1770.02	2.12707
1771.53	2.39091
1773.03	2.32851
1774.54	3.06576
1776.05	2.9146
1777.56	2.03443
1779.07	2.39907
1780.57	2.10187
1782.08	1.95817
1783.59	2.91118
1785.09	3.00975
1786.6	3.29198
1788.11	3.34838
1789.61	2.90119
1791.12	3.30255
1792.62	3.77806
1794.13	3.79916
1795.63	3.84337
1797.13	3.88917
1798.64	3.86184
1800.14	4.10794
1801.65	3.74709
1803.15	3.38791
1804.65	3.44505
1806.15	3.77064
1807.66	3.97584
1809.16	4.21362
1810.66	4.56479
1812.16	4.70722
1813.66	5.40756
1815.16	5.83592
1816.66	5.92763
1818.16	5.51979
1819.66	5.48803
1821.16	4.73115
1822.66	4.56061
1824.16	4.33149
1825.66	4.34962
1827.16	4.73217
1828.66	4.42945
1830.16	4.52417
1831.65	4.85213
1833.15	3.53854
1834.65	3.08411
1836.14	2.77917
1837.64	3.02418
1839.14	3.0324
1840.63	3.14015
1842.13	3.17765
1843.62	2.7466
1845.12	2.77668
1846.61	3.09466
1848.11	3.10949
1849.6	2.82942
1851.1	3.0671
1852.59	3.06071
1854.08	3.24477
1855.58	3.47231
1857.07	4.25153
1858.56	4.8313
1860.05	4.89271
1861.55	4.88826
1863.04	4.96747
1864.53	4.40011
1866.02	4.73506
1867.51	4.57971
1869	4.15253
1870.49	4.50353
1871.98	4.89173
1873.47	4.63112
1874.96	5.08813
1876.45	4.67579
1877.94	4.5233
1879.43	5.09386
1880.92	5.45752
1882.41	5.5684
1882.51	5.65197
1884	5.94858
1885.5	5.64807
1886.99	5.16734
1888.48	4.6947
1889.98	5.13033
1891.47	4.71597
1892.96	4.61161
1894.46	4.60768
1895.95	5.34092
1897.44	5.35244
1898.93	5.1832
1900.42	5.53912
1901.91	5.41295
1903.41	5.0638
1904.9	4.29761
1906.39	3.81763
1907.88	4.01739
1909.37	4.0574
1910.86	4.29137
1912.35	4.23636
1913.83	4.36688
1915.32	3.79025
1916.81	4.10529
1918.3	4.10719
1919.79	3.89435
1921.27	3.63619
1922.76	3.67794
1924.25	3.862
1925.74	3.07576
1927.22	2.9877
1928.71	3.31889
1930.19	3.08278
1931.68	2.50701
1933.17	2.15822
1934.65	1.03897
1936.14	0.501334
1937.62	0.633411
1939.11	0.883821
1940.59	0.503856
1942.07	0.409165
1943.56	0.202352
1945.04	-0.00094026
1946.52	-0.194436
1948.01	-0.279907
1949.49	-0.276613
1950.97	0.134468
1952.45	1.26226
1953.93	1.2784
1955.42	0.87237
1956.9	1.03991
1958.38	1.08013
1959.86	0.691892
1961.34	1.03855
1962.82	1.36669
1964.3	1.75454
1965.78	1.45984
1967.26	2.07593
1968.74	2.29878
1970.21	2.77186
1971.69	2.77857
1973.17	2.88572
1974.65	2.88067
1976.13	2.60185
1977.6	2.18009
1979.08	2.25965
1980.56	2.30923
1982.03	2.33404
1983.51	2.56416
1984.99	2.74299
1986.46	2.78631
1987.94	2.40193
1989.41	2.46394
1990.89	2.33275
1992.36	2.39744
1993.84	3.05971
1995.31	3.35562
1996.78	3.71089
1998.26	3.51583
1999.73	3.53386
2001.2	3.64119
2002.68	3.54657
2004.15	3.77744
2005.62	4.021
2007.09	4.63942
2008.56	4.09417
2010.04	4.47064
2011.51	5.54041
2012.98	5.51214
2014.45	4.77091
2015.92	4.05087
2017.39	3.63377
2018.86	4.12071
2020.33	4.30968
2021.8	4.64326
2023.26	5.04835
2024.73	4.74268
2026.2	5.23436
2027.67	4.52714
2029.14	4.83955
2030.61	5.7135
2032.07	5.82926
2033.54	6.16006
2035.01	6.73644
2036.47	6.74366
2037.94	6.85462
2039.4	7.03285
2040.87	6.95658
2042.33	7.10909
2043.8	6.86085
2045.27	7.02802
2046.73	6.99585
2048.19	6.41049
2049.66	6.63273
2051.12	6.76413
2052.59	7.4485
2054.05	7.50572
2055.51	7.48345
2056.97	6.94069
2058.44	7.41447
2059.9	6.94863
2061.36	6.99001
2062.82	7.82333
2064.28	7.59027
2065.74	8.74456
2067.21	8.74144
2068.67	8.64837
2070.13	8.20982
2071.59	8.33625
2073.05	8.59651
2074.51	8.73486
2075.96	9.54566
2077.42	9.89574
2078.88	9.86689
2080.34	9.94001
2081.8	9.33968
2083.26	9.34185
2084.72	9.59232
2086.17	9.184
2087.63	8.60952
2089.09	9.25851
2090.54	9.92293
2092	10.4581
2093.45	11.1638
2094.91	11.3751
2096.37	11.2023
2097.82	11.5208
2099.28	11.9329
2100.73	12.5482
2102.19	13.4172
2103.64	13.7155
2105.09	13.6389
2106.55	14.0988
2108	14.3366
2109.45	14.5939
2110.91	14.9671
2112.36	15.4555
2113.81	15.7425
2115.26	16.5953
2116.72	16.4881
2118.17	17.4176
2119.62	18.0146
2121.07	19.1042
2122.52	20.0169
2123.97	20.5833
2125.42	21.4817
2126.87	21.8174
2128.32	22.8943
2129.77	23.7016
2131.22	24.4857
2132.67	24.9077
2134.11	26.539
2135.56	27.8466
2137.01	28.2428
2138.46	29.4201
2139.91	29.7001
2141.35	30.1524
2142.8	31.4367
2144.25	32.4545
2145.7	33.2666
2147.14	34.2496
2148.59	35.2471
2150.03	36.3723
2151.48	37.3815
2152.92	38.0089
2154.37	38.4492
2155.81	39.0903
2157.26	40.1207
2158.7	40.9026
2160.15	41.8272
2161.59	43.1637
2163.03	43.0731
2164.47	43.7495
2165.92	43.5693
2167.36	43.1706
2168.8	43.4944
2170.24	43.6969
2171.69	44.1804
2173.13	44.5189
2174.57	43.7315
2176.01	44.3099
2177.45	44.4978
2178.89	44.9169
2180.33	45.0233
2181.77	44.481
2183.21	44.0005
2184.65	43.7896
2186.09	43.848
2187.53	43.7215
2188.97	43.2337
2190.4	43.1669
2191.84	42.8755
2193.28	42.2911
2194.72	41.1247
2196.16	40.7805
2197.59	40.1097
2199.03	39.1709
2200.47	38.5344
2201.9	36.8789
2203.34	35.9144
2204.77	34.8904
2206.21	34.3671
2207.64	33.6833
2209.08	32.6656
2210.51	32.0225
2211.95	31.1442
2213.38	29.8154
2214.82	28.9658
2216.25	27.7461
2217.68	26.9595
2219.12	26.6071
2220.55	25.4852
2221.98	24.7206
2223.41	23.5282
2224.85	22.6231
2226.28	21.6243
2227.71	21.2098
2229.14	20.164
2230.57	19.536
2232	18.53
2233.43	17.4172
2234.86	16.1466
2236.29	15.9027
2237.72	14.9046
2239.15	14.7682
2240.58	14.6425
2242.01	13.9682
2243.44	13.8046
2244.87	13.5395
2246.29	13.4521
2247.72	14.001
2249.15	12.8387
2250.58	12.0873
2252.01	11.266
2253.43	10.7462
2254.86	11.135
2256.29	10.739
2257.71	10.7628
2259.14	10.8991
2260.56	10.8545
2261.99	10.5264
2263.41	10.5852
2264.84	10.5337
2266.26	10.1227
2267.69	10.3212
2269.11	9.83128
2270.53	9.77714
2271.96	9.93597
2273.38	9.56584
2274.8	9.45225
2276.23	9.60121
2277.65	9.86281
2279.07	9.25552
2280.49	8.47059
2281.91	8.38387
2283.34	7.63966
2284.76	7.26009
2286.18	7.29504
2287.6	7.26329
2289.02	6.67891
2290.44	5.6516
2291.86	4.50589
2293.28	3.72024
2294.7	3.4449
2296.12	3.04392
2297.54	3.03869
2298.96	3.82806
2300.37	3.90187
2301.79	4.68074
2303.21	4.54846
2304.63	5.23111
2306.04	5.35312
2307.46	5.66113
2308.88	5.4548
2310.3	5.65367
2311.71	5.96847
2313.13	5.6613
2314.54	6.10072
2315.96	6.08229
2317.37	5.97201
2318.79	6.21462
2320.2	6.00219
2321.62	6.45323
2323.03	6.80341
2324.45	7.63348
2325.86	7.58005
2327.27	7.80356
2328.69	8.88248
2330.1	9.05156
2331.51	8.50458
2332.92	8.11488
2334.34	8.23761
2335.75	7.94046
2337.16	7.54136
2338.57	7.76386
2339.98	7.18497
2341.39	6.83269
2342.8	6.22878
2344.21	5.73304
2345.63	5.10778
2347.04	5.11281
2348.45	4.03996
2349.85	3.31491
2351.26	2.80671
2352.67	2.2818
2354.08	1.63742
2355.49	1.61761
2356.9	1.30302
2358.3	0.751119
2359.71	0.399733
2361.12	-0.350851
2362.53	0.272946
2363.93	0.529222
2365.34	1.63635
2366.75	2.04059
2368.15	2.65985
2369.56	2.80243
2370.97	2.28148
2372.37	2.64516
2373.77	2.15734
2375.18	2.45021
2376.59	1.97755
2377.99	2.02537
2379.39	1.57074
2380.8	1.75391
2382.2	2.23403
2383.6	2.0538
2385.01	2.71304
2386.41	2.7897
2387.81	3.21574
2389.21	3.30087
2390.62	3.24105
2392.02	3.47203
2393.42	3.95426
2394.82	4.25522
2396.22	3.61897
2397.62	3.74654
2399.02	3.83259
2400.42	3.52576
2401.82	3.31051
2403.22	3.56546
2404.62	3.81123
2406.02	3.56271
2407.42	3.58249
2408.82	3.88272
2410.22	3.96293
2411.62	4.45358
2413.01	4.8071
2414.41	5.00221
2415.81	5.31143
2417.21	5.56392
2418.6	5.09632
2420	5.66202
2421.4	6.56565
2422.79	7.02204
2424.19	7.6659
2425.59	8.20498
2426.98	8.09828
2428.38	7.73505
2429.77	6.96338
2431.17	6.40078
2432.56	6.50165
2433.95	6.05144
2435.35	6.20604
2436.74	6.21207
2438.14	6.0971
2439.53	5.25223
2440.92	4.68659
2442.31	4.53214
2443.71	3.78609
2445.1	3.28858
2446.49	2.45964
2447.88	2.55916
2449.27	2.77142
2450.67	3.43588
2452.06	3.54303
2453.45	3.04225
2454.84	2.9532
2456.23	2.80262
2457.62	2.35279
2459.01	2.73959
2460.4	2.70909
2461.79	2.65972
2463.18	2.57609
2464.57	1.91445
2465.95	1.99092
2467.34	2.16353
2468.73	2.02264
2470.12	2.19501
2471.5	2.95593
2472.89	3.17111
2474.28	2.83908
2475.67	3.05886
2477.05	3.76596
2478.44	3.96068
2479.82	4.81939
2481.21	4.77882
2482.6	4.66754
2483.98	4.70421
2485.37	5.00587
2486.75	4.70857
2488.13	4.8302
2489.52	5.30748
2490.9	5.56525
2492.29	5.35071
2493.67	5.25819
2495.05	4.59416
2496.44	3.69504
2497.82	3.52247
2499.2	3.35002
2500.58	4.05207
2501.97	4.34165
2503.35	4.18406
2504.73	4.72373
2506.11	4.78762
2507.49	4.11219
2508.87	3.67192
2510.25	3.15865
2511.63	3.26109
2513.01	3.03469
2514.39	2.89096
2515.77	2.75102
2517.15	3.1238
2518.53	2.97462
2519.91	2.88212
2521.29	2.57005
2522.67	2.45314
2524.05	2.13288
2525.42	2.36856
2526.8	2.41092
2528.18	3.1632
2529.55	2.69404
2530.93	3.32229
2532.31	3.43705
2533.69	3.42509
2535.06	4.40449
2536.44	3.83086
2537.81	3.80403
2539.19	4.12015
2540.56	4.29153
2541.94	4.03626
2543.31	4.24873
2544.69	4.41452
2546.06	4.27654
2547.44	4.18688
2548.81	4.81393
2550.18	4.7608
2551.56	5.03163
2552.93	5.4647
2554.3	5.88523
2555.67	6.27321
2557.04	6.48444
2558.42	6.62333
2559.79	6.81492
2561.16	7.29337
2562.53	7.27587
2563.9	7.92253
2565.27	7.96478
2566.64	8.15809
2568.01	8.70062
2569.38	8.83799
2570.75	8.31281
2572.12	8.31604
2573.49	8.46197
2574.86	8.41115
2576.23	7.67579
2577.6	7.27207
2578.97	7.12698
2580.33	7.01783
2581.7	6.54135
2583.07	6.14328
2584.44	6.05147
2585.8	6.05783
2587.17	5.96079
2588.54	5.78908
2589.9	5.89385
2591.27	5.85371
2592.64	5.82072
2594	6.23065
2595.37	6.45625
2596.73	6.36187
2598.1	6.00207
2599.46	5.88272
2600.83	5.13196
2602.19	5.10148
2603.55	5.11845
2604.92	4.27
2606.28	4.3299
2607.64	4.37803
2609.01	4.35998
2610.37	4.06003
2611.73	3.85604
2613.09	3.25203
2614.46	3.81944
2615.82	4.27283
2617.18	5.06237
2618.54	5.29733
2619.9	5.0143
2621.26	5.25541
2622.62	5.27938
2623.98	5.49159
2625.34	5.4039
2626.7	5.84489
2628.06	5.83129
2629.42	5.97134
2630.78	5.5508
2632.14	5.64949
2633.5	5.10979
2634.86	5.53189
2636.21	5.78569
2637.57	5.55309
2638.93	5.56434
2640.29	6.3153
2641.64	6.47176
2643	6.82644
2644.36	6.66598
2645.71	6.66317
2647.07	6.81914
2648.43	6.51201
2649.78	6.56367
2651.14	7.33912
2652.49	7.95417
2653.85	8.0987
2655.2	8.497
2656.56	8.78503
2657.91	9.7655
2659.26	9.64976
2660.62	9.78724
2661.97	9.56424
2663.32	9.54891
2664.68	9.41699
2666.03	9.24113
2667.38	9.14038
2668.74	9.44166
2670.09	9.60801
2671.44	9.25107
2672.79	9.32282
2674.14	9.00029
2675.49	9.10904
2676.84	9.32648
2678.19	9.49704
2679.54	9.98741
2680.89	10.1081
2682.24	10.8051
2683.59	11.3705
2684.94	11.6524
2686.29	11.2072
2687.64	10.9345
2688.99	10.8785
2690.34	10.7141
2691.69	10.4005
2693.03	9.80614
2694.38	9.87746
2695.73	9.50279
2697.08	9.33989
2698.42	9.05332
2699.77	8.84408
2701.12	8.70305
2702.46	8.61942
2703.81	7.9252
2705.15	7.80678
2706.5	7.51564
2707.85	6.94827
2709.19	6.57693
2710.54	5.88512
2711.88	4.89554
2713.22	4.25293
2714.57	4.18403
2715.91	4.25453
2717.26	4.19331
2718.6	4.57319
2719.94	4.60687
2721.29	4.17375
2722.63	4.44404
2723.97	4.57326
2725.31	4.6498
2726.66	4.3198
2728	4.28823
2729.34	4.14126
2730.68	4.20411
2732.02	4.38094
2733.36	4.19761
2734.7	4.61208
2736.04	5.53278
2737.38	5.42915
2738.72	5.889
2740.06	6.6311
2741.4	6.68143
2742.74	6.87093
2744.08	6.95071
2745.42	6.53724
2746.76	6.69902
2748.09	6.57579
2749.43	7.00745
2750.77	7.29959
2752.11	6.64947
2753.45	6.78489
2754.78	7.12657
2756.12	6.81589
2757.46	6.39324
2758.79	6.57141
2760.13	7.05055
2761.46	7.21011
2762.8	7.00092
2764.14	6.79107
2765.47	6.76207
2766.8	6.68498
2768.14	6.4397
2769.47	5.65114
2770.81	5.27069
2772.14	5.85789
2773.48	6.08481
2774.81	5.14167
2776.14	4.86536
2777.48	4.24609
2778.81	4.02082
2780.14	3.80905
2781.47	4.17742
2782.8	4.10463
2784.14	4.37061
2785.47	4.16541
2786.8	4.32113
2788.13	3.82541
2789.46	3.89384
2790.79	3.35366
2792.12	3.08836
2793.45	3.02402
2794.78	2.6589
2796.11	2.0187
2797.44	1.7571
2798.77	1.47148
2800.1	1.38179
2801.43	1.57302
2802.76	1.69368
2804.09	1.61205
2805.41	1.48548
2806.74	0.63793
2808.07	0.235936
2809.4	0.496903
2810.72	0.675034
2812.05	0.802457
2813.38	1.2673
2814.71	1.47792
2816.03	1.93493
2817.36	2.01953
2818.68	2.52218
2820.01	3.61459
2821.33	4.75636
2822.66	4.8053
2823.98	5.49322
2825.31	6.8023
2826.63	7.63286
2827.96	8.51884
2829.28	10.2706
2830.6	11.7398
2831.93	13.0084
2833.25	14.5184
2834.57	16.1133
2835.9	18.1337
2837.22	20.3839
2838.54	22.3363
2839.86	23.4854
2841.18	24.4507
2842.5	26.1703
2843.83	27.5429
2845.15	28.6604
2846.47	30.3979
2847.79	32.7561
2849.11	34.112
2850.43	36.2373
2851.75	37.3376
2853.07	39.0463
2854.39	41.0406
2855.71	42.6688
2857.03	44.3171
2858.35	45.8698
2859.66	47.2475
2860.98	48.7263
2862.3	49.9813
2863.62	52.1092
2864.94	53.6135
2866.25	55.4519
2867.57	57.1326
2868.89	58.6124
2870.2	59.2727
2871.52	59.8755
2872.84	61.311
2874.15	63.0017
2875.47	64.0952
2876.78	64.3113
2878.1	65.6163
2879.41	66.6542
2880.73	67.7699
2882.04	69.1212
2883.36	70.6508
2884.67	72.2787
2885.99	74.2266
2887.3	75.769
2888.61	76.5941
2889.93	78.6519
2891.24	81.1844
2892.55	83.0035
2893.86	85.625
2895.18	88.5629
2896.49	90.2909
2897.8	92.5105
2899.11	95.5159
2900.42	98.0617
2901.73	100.85
2903.05	103.605
2904.36	106.117
2905.67	108.445
2906.98	111.261
2908.29	114.184
2909.6	117.459
2910.91	120.901
2912.21	125.142
2913.52	128.848
2914.83	132.218
2916.14	136.014
2917.45	138.176
2918.76	141.491
2920.07	144.806
2921.37	146.634
2922.68	148.877
2923.99	150.762
2925.29	152.856
2926.6	154.274
2927.91	155.379
2929.22	156.104
2930.52	156.378
2931.83	156.789
2933.13	156.763
2934.44	156.141
2935.74	155.192
2937.05	154.819
2938.35	154.145
2939.66	152.722
2940.96	151.722
2942.26	149.851
2943.57	148.601
2944.87	146.643
2946.18	144.065
2947.48	141.521
2948.78	139.303
2950.08	136.97
2951.39	134.437
2952.69	131.357
2953.99	128.718
2955.29	126.309
2956.59	123.246
2957.9	119.799
2959.2	117.634
2960.5	114.73
2961.8	110.852
2963.1	108.461
2964.4	105.827
2965.7	102.605
2967	99.6003
2968.3	96.5812
2969.6	93.0122
2970.9	90.1492
2972.19	87.536
2973.49	85.035
2974.79	82.3878
2976.09	79.8316
2977.39	77.8067
2978.68	74.9555
2979.98	71.713
2981.28	68.4702
2982.58	65.3233
2983.87	62.9974
2985.17	60.5614
2986.47	57.5869
2987.76	54.9275
2989.06	52.0986
2990.35	49.7696
2991.65	46.6478
2992.94	43.7053
2994.24	40.59
2995.53	38.1448
2996.83	35.5027
2998.12	32.6773
2999.42	30.5172
3000.71	28.4272
3002	26.4457
3003.3	23.8702
3004.59	21.673
3005.88	19.4999
3007.18	16.851
3008.47	15.6399
3009.76	13.8263
3011.05	12.3378
3012.34	11.4086
3013.64	10.9033
3014.93	9.86486
3016.22	8.82525
3017.51	8.36538
3018.8	7.70815
3020.09	6.57917
3021.38	5.36952
3022.67	4.90612
3023.96	4.9228
3025.25	4.33341
3026.54	3.45695
3027.83	3.37759
3029.12	2.94843
3030.41	2.24171
3031.69	2.07985
3032.98	2.1808
3034.27	2.17121
3035.56	2.2809
3036.84	2.44874
3038.13	3.00112
3039.42	3.01602
3040.71	3.10554
3041.99	3.41777
3043.28	3.10422
3044.57	3.05837
3045.85	3.17103
3047.14	3.49849
3048.42	3.88324
3049.71	4.30551
3050.99	4.33344
3052.28	4.65219
3053.56	4.39607
3054.85	4.55937
3056.13	4.19465
3057.41	3.79352
3058.7	3.66665
3059.98	4.02369
3061.26	3.92211
3062.55	3.60639
3063.83	3.68973
3065.11	3.19468
3066.39	2.6334
3067.68	2.32656
3068.96	2.49992
3070.24	2.46216
3071.52	2.49923
3072.8	2.82246
3074.08	2.61217
3075.36	2.9722
3076.65	2.63654
3077.93	2.35893
3079.21	2.21666
3080.49	1.89364
3081.77	1.23569
3083.04	0.378218
3084.32	0.160834
3085.6	0.352885
3086.88	0.598026
3088.16	0.849941
3089.44	0.318941
3090.72	-0.275318
3091.99	-0.0623206
3093.27	0.24131
3094.55	0.557917
3095.83	0.775798
3097.1	0.850745
3098.38	0.789643
3099.66	0.353535
3100.93	0.536143
3102.21	0.592048
3103.49	0.559695
3104.76	1.04854
3106.04	1.14093
3107.31	1.64097
3108.59	1.84827
3109.86	2.07589
3111.14	2.71169
3112.41	3.23212
3113.69	3.54519
3114.96	3.86874
3116.23	4.30459
3117.51	4.74616
3118.78	5.26314
3120.05	5.49936
3121.33	5.71389
3122.6	6.29404
3123.87	7.03007
3125.14	7.13483
3126.41	7.38439
3127.69	7.97472
3128.96	8.33763
3130.23	8.84442
3131.5	9.49616
3132.77	9.80943
3134.04	10.3876
3135.31	10.6361
3136.58	11.0111
3137.85	11.4591
3139.12	11.5759
3140.39	11.4917
3141.66	11.7818
3142.93	12.0717
3144.2	12.312
3145.47	12.843
3146.74	13.0438
3148	12.6834
3149.27	12.5113
