#Acq. time (s)=	45
#Accumulations=	2
#Range (cm-¹)=	200...3150
#Windows=	2
#Auto scanning=	Off
#Autofocus=	Off
#Macrospot=	Off
#AutoExposure=	Off
#Spike filter=	Multiple accum.
#Delay time (s)=	0
#Binning=	1
#Readout mode=	Signal
#DeNoise=	Off
#ICS correction=	On
#Dark correction=	Off
#Inst. Process=	Off
#Detector Gain=	Best Dynamic Range
#Detector ADC=	20 kHz       
#Detector temperature (°C)=	-69.85
#Instrument=	LabRAM HR Evol
#Detector=	Synapse
#Objective=	x100
#Grating=	600 gr/mm
#ND Filter=	100%
#Laser (nm)=	532 
#Hole=	100.021
#Range=	Auto
#Laser Pol.=	No
#Raman. Pol.=	No
#Laser Pol. (°)=	-0.0007625
#Raman Pol. (°)=	89.9995
#Collection=	Microscope
#StageXY=	Marzhauser
#StageZ=	Marzhauser
#X (µm)=	-6379.6
#Y (µm)=	796.7
#Z (µm)=	-64.55
#Full time(mm:ss)=	3:18
#Project=	
#Sample=	
#Site=	
#Title=	Mb_30_27_44_2x_45s_532 nm_x100_100%_600 gr_mm
#Remark=	
#Date=	13.07.2022 12:05
#Acquired=	13.07.2022 12:05:29
#Base:Fit=	10.08.2022 10:40:03
#Base:Sub=	10.08.2022 10:40:17
#Filter:Polynom=	16.08.2022 10:16:15
#AxisType[0]=Intens
#AxisUnit[0]=Cnt
#AxisType[1]=Spectr
#AxisUnit[1]=1/cm
200.563	14.8992
202.377	13.2498
204.194	12.8814
206.008	12.647
207.821	12.3155
209.634	11.5224
211.449	10.9217
213.262	11.3616
215.074	11.0242
216.885	10.5617
218.699	10.3083
220.51	11.1138
222.321	11.2733
224.131	11.8752
225.941	11.5647
227.751	11.4578
229.562	10.7183
231.371	10.6332
233.18	10.782
234.988	11.2218
236.796	11.3776
238.603	10.9987
240.411	10.5923
242.219	11.7007
244.026	12.2975
245.832	12.6892
247.638	12.927
249.443	12.8483
251.248	12.8048
253.053	13.9831
254.857	13.1109
256.661	12.4708
258.465	11.9953
260.268	12.1588
262.071	12.3967
263.874	11.7824
265.678	11.1726
267.48	10.4299
269.282	8.31687
271.083	7.69984
272.884	6.69564
274.684	6.14438
276.484	6.82653
278.284	7.18834
280.084	7.16145
281.883	6.47445
283.682	5.97218
285.48	5.49652
287.276	4.98353
289.074	5.55608
290.871	5.56999
292.668	4.89629
294.465	3.78952
296.261	3.48071
298.057	3.41618
299.853	3.73199
301.648	5.60226
303.443	6.17315
305.237	5.52866
307.032	5.62536
308.823	5.96279
310.617	6.85877
312.41	6.95555
314.203	6.14911
315.995	5.46225
317.788	5.68478
319.579	6.20961
321.369	6.27173
323.16	6.29294
324.951	6.8939
326.741	7.66173
328.531	8.508
330.321	9.06202
332.108	9.64645
333.897	8.47355
335.686	7.80385
337.474	7.32638
339.26	6.80314
341.048	6.60558
342.835	7.57961
344.622	6.4735
346.406	6.64078
348.192	7.23727
349.978	7.25782
351.764	6.54585
353.547	5.99468
355.332	5.4557
357.116	4.84935
358.901	4.19527
360.682	3.76153
362.466	3.50006
364.249	4.33459
366.03	4.6741
367.812	4.63274
369.594	5.06108
371.374	5.55966
373.155	6.41856
374.936	6.91416
376.715	7.10611
378.495	7.91173
380.273	8.64535
382.053	8.82911
383.832	9.4376
385.609	9.45549
387.388	10.0109
389.164	10.717
390.942	11.679
392.72	12.0898
394.495	12.6537
396.272	12.8322
398.047	12.8773
399.823	13.2471
401.597	12.1705
403.372	11.9964
405.145	12.6584
406.92	12.5557
408.693	12.2773
410.467	11.5808
412.239	12.2011
414.012	12.8928
415.783	12.8975
417.556	12.2469
419.327	11.7268
421.099	11.4204
422.869	10.6811
424.64	10.1442
426.409	9.13875
428.18	8.39039
429.948	7.73221
431.718	7.3361
433.486	5.54046
435.253	5.25603
437.022	4.93694
438.789	3.47668
440.558	2.86155
442.324	3.61077
444.089	3.00413
445.857	4.28763
447.622	4.69623
449.386	5.41699
451.153	7.14334
452.917	7.41618
454.682	8.2806
456.446	9.4272
458.208	10.6081
459.973	11.8917
461.735	12.6823
463.497	13.8191
465.259	14.6917
467.022	15.9756
468.783	17.6135
470.544	18.6088
472.306	19.0357
474.066	20.2985
475.825	22.8575
477.585	24.4087
479.346	26.1031
481.104	27.3703
482.862	28.3042
484.62	28.9988
486.38	30.0461
488.137	30.5017
489.894	31.2927
491.65	32.2615
493.407	32.2113
495.164	32.1146
496.92	33.0627
498.675	33.3498
500.43	33.2094
502.184	33.0224
503.939	33.5125
505.694	33.2025
507.448	32.5173
509.201	30.8836
510.954	28.236
512.706	27.575
514.459	26.1838
516.21	26.3275
517.962	25.3141
519.715	24.7232
521.466	23.903
523.216	23.7823
524.966	22.9224
526.716	22.5877
528.466	22.6203
530.215	22.1978
531.964	21.6954
533.712	22.1394
535.46	20.7745
537.208	20.1123
538.955	19.4033
540.703	19.1085
542.449	19.317
544.196	18.0522
545.942	17.3637
547.688	16.4725
549.433	15.4412
551.178	14.4031
552.923	13.009
554.667	12.4618
556.412	12.0893
558.155	11.7446
559.899	10.7736
561.642	11.0936
563.385	10.3435
565.127	9.68602
566.867	9.09839
568.609	8.9253
570.35	8.01976
572.092	7.55488
573.832	6.67403
575.573	5.37276
577.313	5.92091
579.053	4.80093
580.79	5.05886
582.529	5.08607
584.268	5.28835
586.006	4.22364
587.745	4.42748
589.482	4.8793
591.218	5.64543
592.955	5.0847
594.692	5.06512
596.428	4.79306
598.164	4.06552
599.898	5.87017
601.634	4.5881
603.369	5.04653
605.104	5.40406
606.836	5.2584
608.57	6.01728
610.304	6.41413
612.037	6.59922
613.769	6.99688
615.501	7.89648
617.234	8.26529
618.966	8.90137
620.696	8.73889
622.427	8.79102
624.159	8.91008
625.887	9.59747
627.618	9.91066
629.348	9.61373
631.076	9.4283
632.806	10.1737
634.535	10.0474
636.262	10.4525
637.99	10.1843
639.716	11.0023
641.444	11.9083
643.172	13.5195
644.897	13.2569
646.624	13.0828
648.348	13.9447
650.075	14.2964
651.801	14.7371
653.524	15.2995
655.249	15.4706
656.972	16.1559
658.697	16.6483
660.419	16.5451
662.143	17.6751
663.865	18.6054
665.588	18.5867
667.309	19.5637
669.032	19.579
670.752	20.2812
672.474	21.2789
674.194	21.5487
675.915	21.7186
677.634	21.8316
679.355	21.2314
681.073	21.3807
682.793	20.6779
684.511	20.6049
686.23	22.0118
687.947	21.0148
689.664	22.5896
691.382	23.4446
693.098	23.2283
694.816	24.9894
696.531	24.3155
698.247	24.4091
699.963	25.1266
701.678	26.0121
703.392	26.0529
705.108	26.8657
706.821	27.562
708.534	28.1453
710.249	29.3136
711.962	30.3556
713.674	30.2715
715.388	31.5165
717.099	33.1709
718.81	34.486
720.523	34.6019
722.234	35.7576
723.944	35.8452
725.654	37.6709
727.365	38.0166
729.075	37.8639
730.784	38.8714
732.492	40.2755
734.202	41.3526
735.91	42.5002
737.618	42.7412
739.325	43.8601
741.034	44.4491
742.741	46.5115
744.447	47.5604
746.153	50.0751
747.859	51.4336
749.564	51.9748
751.271	53.7432
752.976	55.7246
754.681	57.8895
756.385	59.1926
758.088	60.1642
759.792	59.6811
761.495	61.3701
763.2	62.4506
764.902	64.4628
766.604	66.0908
768.306	67.4533
770.008	68.3568
771.709	69.3318
773.41	69.609
775.11	70.4585
776.811	71.1177
778.51	72.2095
780.21	72.755
781.909	72.4138
783.608	73.5995
785.307	74.2154
787.005	74.8444
788.703	74.9917
790.401	75.226
792.098	74.7371
793.795	74.8112
795.492	75.2681
797.188	75.0297
798.884	75.0422
800.58	75.9738
802.276	76.286
803.971	75.9525
805.665	75.7033
807.36	75.6924
809.054	75.7962
810.748	76.3763
812.441	75.9217
814.135	76.4852
815.826	77.3397
817.518	75.5924
819.21	75.3225
820.902	76.0331
822.594	75.5284
824.285	75.0179
825.976	74.3557
827.665	74.7904
829.355	74.6796
831.045	73.7742
832.735	72.9525
834.424	73.2084
836.111	73.0335
837.8	72.273
839.488	70.5405
841.177	69.1996
842.864	68.2777
844.55	66.4421
846.237	66.2446
847.924	65.2094
849.61	63.8252
851.295	62.2277
852.98	60.9653
854.666	59.8417
856.349	59.7423
858.034	59.1012
859.719	58.6718
861.403	58.8881
863.085	58.4479
864.769	57.9235
866.452	57.8176
868.133	56.9257
869.816	56.3486
871.498	55.2627
873.179	54.3596
874.86	54.3702
876.54	54.4285
878.221	55.7027
879.902	55.8027
881.58	55.9651
883.26	56.3897
884.938	57.5925
886.618	56.8747
888.297	57.5728
889.974	57.7221
891.653	57.643
893.329	57.7305
895.007	57.6457
896.683	58.0721
898.36	58.5283
900.035	58.4777
901.712	58.6509
903.387	59.0236
905.063	60.5292
906.737	60.315
908.412	59.5048
910.085	59.886
911.76	60.4948
913.433	60.2827
915.107	59.7341
916.779	60.3956
918.452	59.273
920.124	57.1095
921.797	55.3838
923.467	54.3751
925.138	52.9581
926.81	51.5948
928.48	50.9457
930.151	49.5854
931.82	48.5569
933.489	48.7171
935.16	49.4433
936.828	49.38
938.496	49.3849
940.165	48.5976
941.833	47.3479
943.5	47.2273
945.168	46.1254
946.834	44.9491
948.5	43.604
950.168	42.4411
951.834	41.6997
953.499	41.8796
955.163	41.3405
956.83	41.7145
958.494	40.4277
960.158	39.7988
961.821	39.4295
963.487	38.7411
965.15	38.4416
966.812	39.8669
968.474	39.4963
970.138	38.5688
971.8	40.3779
973.461	40.6414
975.123	40.7954
976.783	40.8823
978.446	42.2213
980.106	43.8074
981.766	44.7842
983.425	45.0056
985.084	45.1179
986.743	45.0773
988.402	45.3429
990.06	44.5905
991.72	44.0006
993.378	44.8469
995.035	44.5276
996.692	43.5339
998.349	43.1074
1000.01	42.6319
1001.66	40.7977
1003.32	38.7278
1004.97	38.3286
1006.63	38.7122
1008.28	38.6067
1009.94	40.2473
1011.59	41.5071
1013.25	42.5474
1014.9	44.8885
1016.55	47.039
1018.21	47.7493
1019.86	49.0792
1021.51	51.3785
1023.16	53.1951
1024.81	54.1068
1026.47	55.6399
1028.12	56.4244
1029.77	58.324
1031.42	59.7961
1033.07	61.3829
1034.72	62.3092
1036.37	62.1511
1038.02	62.0674
1039.67	62.0232
1041.31	61.6893
1042.96	62.7433
1044.61	63.9018
1046.26	64.2319
1047.91	64.5746
1049.55	64.8579
1051.2	63.9804
1052.84	63.835
1054.49	63.4873
1056.14	62.6637
1057.78	60.9635
1059.43	59.4343
1061.07	59.3598
1062.72	57.6231
1064.36	55.1052
1066	52.6457
1067.65	50.2733
1069.29	47.4908
1070.93	45.4582
1072.58	43.573
1074.22	40.6503
1075.86	38.135
1077.5	34.7393
1079.14	32.9057
1080.78	31.1992
1082.42	29.1848
1084.06	27.3468
1085.7	26.0223
1087.34	26.8274
1088.98	27.114
1090.62	28.0456
1092.26	28.684
1093.9	29.3305
1095.54	29.2234
1097.17	30.0461
1098.81	30.8197
1100.45	30.8411
1102.09	31.3943
1103.72	32.0776
1105.36	31.2569
1106.99	30.6665
1108.63	31.4791
1110.27	31.7551
1111.9	33.1726
1113.53	31.7235
1115.17	31.4597
1116.8	30.5485
1118.43	30.6191
1120.07	30.4542
1121.7	30.2192
1123.33	30.3682
1124.97	29.8915
1126.6	30.0476
1128.23	29.1846
1129.86	29.292
1131.49	28.9634
1133.12	28.1409
1134.75	26.8354
1136.38	25.2816
1138.01	24.697
1139.64	23.014
1141.27	21.7542
1142.9	21.0935
1144.53	19.2617
1146.16	17.6969
1147.78	16.2793
1149.41	14.6988
1151.04	13.2627
1152.67	12.3075
1154.29	10.2871
1155.92	9.39666
1157.54	9.27761
1159.17	8.21392
1160.8	7.88803
1162.42	6.33711
1164.05	5.4412
1165.67	4.63948
1167.29	3.48997
1168.92	3.68696
1170.54	3.34376
1172.16	3.44099
1173.79	2.23046
1175.41	2.46411
1177.03	2.91441
1178.65	4.20142
1180.28	4.328
1181.9	4.15092
1183.52	4.89756
1185.14	5.52319
1186.76	5.79411
1188.38	6.83225
1190	7.5166
1191.62	8.48269
1193.24	9.45564
1194.86	9.60338
1196.47	11.066
1198.09	12.0702
1199.71	13.8047
1201.33	14.8567
1202.95	16.7719
1204.56	18.4419
1206.18	19.3084
1207.8	20.7942
1209.41	22.659
1211.03	24.2232
1212.64	25.2727
1214.26	26.0005
1215.87	27.5318
1217.49	29.0872
1219.1	31.8921
1220.71	34.2991
1222.33	36.951
1223.94	39.0076
1225.55	41.4474
1227.16	43.801
1228.78	46.4347
1230.39	48.6477
1232	50.3188
1233.61	51.7365
1235.22	52.7959
1236.83	54.6889
1238.44	56.3758
1240.05	57.9513
1241.66	59.8708
1243.27	60.9259
1244.88	62.4678
1246.49	64.1366
1248.1	65.5884
1249.71	67.6608
1251.32	68.9391
1252.92	70.4051
1254.53	70.7896
1256.14	73.8711
1257.74	75.5725
1259.35	76.9588
1260.96	77.2236
1262.56	77.5885
1264.17	78.7085
1265.77	79.4545
1267.38	80.4931
1268.98	81.5382
1270.59	80.9602
1272.19	81.8759
1273.79	82.6008
1275.4	83.8999
1277	84.2196
1278.6	85.8387
1280.21	85.5849
1281.81	86.1103
1283.41	86.1356
1285.01	86.7576
1286.61	87.1039
1288.21	88.041
1289.81	89.8762
1291.41	88.9068
1293.01	89.8861
1294.61	90.9242
1296.21	92.1806
1297.81	93.3357
1299.41	94.5531
1301.01	96.4616
1302.6	96.7146
1304.2	96.7934
1305.8	97.6301
1307.4	98.5332
1308.99	99.6157
1310.59	99.3867
1312.19	99.433
1313.78	100.779
1315.38	100.886
1316.97	101.655
1318.57	102.484
1320.16	102.676
1321.76	102.32
1323.35	101.043
1324.94	101.282
1326.54	101.869
1328.13	101.636
1329.72	101.379
1331.32	100.287
1332.91	99.2257
1334.5	98.3655
1336.09	98.6369
1337.68	96.7235
1339.27	94.961
1340.87	92.9229
1342.45	91.1356
1344.04	89.4271
1345.64	86.9853
1347.22	85.4107
1348.81	83.5903
1350.4	81.2531
1351.99	80.1883
1353.58	78.1419
1355.17	76.6424
1356.75	74.0471
1358.34	72.5698
1359.93	70.0569
1361.51	69.0737
1363.1	66.9624
1364.69	65.8503
1366.27	63.9306
1367.86	62.6028
1369.44	60.4239
1371.03	58.3856
1372.61	58.4575
1374.2	57.1053
1375.78	55.647
1377.37	54.8972
1378.95	54.4199
1380.53	53.8577
1382.11	52.1585
1383.7	52.1362
1385.28	52.4321
1386.86	52.8155
1388.44	52.4598
1390.02	51.9628
1391.6	51.8145
1393.19	51.7227
1394.77	50.1017
1396.35	49.9162
1397.93	49.5273
1399.51	48.7873
1401.08	48.5879
1402.66	48.2856
1404.24	50.4008
1405.82	50.0482
1407.4	49.6985
1408.97	49.6005
1410.55	50.1257
1412.13	51.5958
1413.71	53.8092
1415.28	55.067
1416.86	56.0707
1418.43	57.3007
1420.01	58.9681
1421.59	59.934
1423.16	62.8869
1424.73	65.3836
1426.31	67.5206
1427.88	69.4312
1429.46	72.1316
1431.03	74.7456
1432.6	78.097
1434.18	80.9954
1435.75	82.7994
1437.32	85.902
1438.89	87.6204
1440.46	89.5277
1442.04	90.5512
1443.61	91.6654
1445.18	91.8416
1446.75	92.6777
1448.32	93.2197
1449.89	94.5134
1451.46	94.2751
1453.03	93.3548
1454.6	92.9125
1456.16	92.4329
1457.73	91.5721
1459.3	90.7052
1460.87	89.33
1462.44	88.8838
1464	87.1378
1465.57	85.4791
1467.14	83.9084
1468.7	82.0474
1470.27	79.6053
1471.83	76.9695
1473.4	74.6625
1474.96	72.3145
1476.53	69.7891
1478.09	67.2939
1479.66	64.5649
1481.22	62.3523
1482.78	60.4195
1484.35	57.23
1485.91	56.0802
1487.47	54.4748
1489.04	53.2189
1490.6	52.0862
1492.16	50.3202
1493.72	48.6758
1495.28	46.7556
1496.84	45.8737
1498.4	45.8185
1499.96	44.6778
1501.52	45.4117
1503.08	44.2281
1504.64	43.2761
1506.2	43.1306
1507.76	42.2556
1509.32	40.8436
1510.88	40.3115
1512.44	38.3372
1513.99	37.191
1515.55	36.0903
1517.11	34.253
1518.66	33.2829
1520.22	32.1382
1521.78	30.9298
1523.33	30.3707
1524.89	30.2607
1526.44	30.0979
1528	29.8463
1529.55	29.0642
1531.11	28.6425
1532.66	27.7621
1534.21	26.6433
1535.77	27.3293
1537.32	27.5088
1538.87	27.4573
1540.43	29.1464
1541.98	29.2205
1543.53	29.6748
1545.08	30.6398
1546.63	31.3922
1548.18	31.9429
1549.74	31.7783
1551.29	32.8768
1552.84	32.3651
1554.39	32.6595
1555.94	32.8235
1557.48	33.0676
1559.03	33.5107
1560.58	34.3146
1562.13	35.0183
1563.68	36.1685
1565.23	37.6894
1566.78	39.1908
1568.32	40.6786
1569.87	41.6845
1571.42	43.2895
1572.96	44.6557
1574.51	46.7981
1576.05	48.5449
1577.6	49.1995
1579.14	51.2833
1580.69	51.7732
1582.24	51.6152
1583.78	52.6892
1585.32	53.1661
1586.87	53.8682
1588.41	54.9283
1589.95	54.7815
1591.5	55.7408
1593.04	57.0142
1594.58	57.8672
1596.12	58.4151
1597.67	58.866
1599.21	58.955
1600.75	59.8357
1602.29	60.1503
1603.83	60.1865
1605.37	59.2926
1606.91	58.7488
1608.45	58.3363
1609.99	57.3703
1611.53	58.7091
1613.07	60.1424
1614.6	59.8547
1616.14	60.2869
1617.68	61.6306
1619.22	61.6079
1620.75	62.6893
1622.29	64.3599
1623.83	65.9522
1625.37	66.8046
1626.9	68.2101
1628.44	70.1648
1629.97	71.0928
1631.51	73.0809
1633.04	74.8204
1634.58	75.7002
1636.11	77.9032
1637.65	80.4263
1639.18	82.8635
1640.72	85.2047
1642.25	87.188
1643.78	88.6217
1645.31	91.0002
1646.85	92.6503
1648.38	93.9936
1649.91	95.9302
1651.44	97.7085
1652.97	98.2708
1654.5	98.363
1656.03	98.8905
1657.56	98.5353
1659.1	98.0578
1660.62	98.3932
1662.15	97.4571
1663.68	97.0923
1665.21	96.0776
1666.74	94.8036
1668.27	93.9307
1669.8	91.8109
1671.32	88.4438
1672.85	86.189
1674.38	83.6642
1675.91	80.5475
1677.43	77.2756
1678.96	73.5574
1680.49	69.9317
1682.01	66.8838
1683.54	64.1439
1685.06	61.0276
1686.59	57.9902
1688.11	55.6639
1689.64	51.9865
1691.16	48.687
1692.68	46.429
1694.21	44.4597
1695.73	41.3624
1697.25	39.5883
1698.78	37.4926
1700.3	35.3456
1701.82	33.0412
1703.34	31.6619
1704.86	29.9206
1706.39	28.2166
1707.91	26.4027
1709.43	24.7257
1710.95	22.776
1712.47	22.2709
1713.99	20.8865
1715.51	20.6004
1717.02	19.6906
1718.54	18.9455
1720.06	18.8474
1721.58	18.4963
1723.1	17.583
1724.62	17.2467
1726.13	17.0579
1727.65	16.5684
1729.17	15.2108
1730.68	14.4983
1732.2	14.5561
1733.72	14.199
1735.23	13.5789
1736.75	13.4308
1738.26	13.104
1739.78	12.2549
1741.29	10.9956
1742.81	10.7304
1744.32	9.95403
1745.84	9.09559
1747.35	8.66019
1748.86	8.77968
1750.37	7.93871
1751.89	7.75926
1753.4	8.00699
1754.91	7.74045
1756.42	7.96517
1757.93	7.52476
1759.45	6.45696
1760.96	5.80089
1762.47	5.02744
1763.98	4.27301
1765.49	3.52563
1767	3.36723
1768.51	3.49531
1770.02	3.46326
1771.53	2.87075
1773.03	3.17031
1774.54	2.7934
1776.05	2.81969
1777.56	2.79335
1779.07	3.00401
1780.57	2.19846
1782.08	2.23369
1783.59	2.32796
1785.09	2.25483
1786.6	2.52511
1788.11	2.93681
1789.61	3.11671
1791.12	2.97112
1792.62	2.64639
1794.13	2.66726
1795.63	2.55573
1797.13	2.69237
1798.64	2.73285
1800.14	2.73434
1801.65	2.39869
1803.15	2.07757
1804.65	1.48882
1806.15	1.64765
1807.66	1.60993
1809.16	1.30727
1810.66	0.750925
1812.16	0.475169
1813.66	0.357896
1815.16	0.228358
1816.66	0.366753
1818.16	0.961517
1819.66	0.787804
1821.16	0.957903
1822.66	0.71118
1824.16	0.631217
1825.66	0.99067
1827.16	1.69169
1828.66	1.63596
1830.16	1.04314
1831.65	1.40024
1833.15	0.93616
1834.65	1.15734
1836.14	0.943391
1837.64	1.04353
1839.14	1.48089
1840.63	1.39853
1842.13	1.507
1843.62	1.89744
1845.12	1.70426
1846.61	1.32348
1848.11	1.51564
1849.6	1.40429
1851.1	1.54269
1852.59	1.44519
1854.08	1.61826
1855.58	1.57391
1857.07	2.06029
1858.56	2.42566
1860.05	2.17715
1861.55	2.5383
1863.04	2.28523
1864.53	1.9744
1866.02	1.66038
1867.51	1.94454
1869	2.65677
1870.49	2.91525
1871.98	3.14621
1873.47	2.907
1874.96	3.20022
1876.45	2.79106
1877.94	3.25363
1879.43	3.21401
1880.92	3.19645
1882.41	3.36193
1882.51	3.86605
1884	4.05704
1885.5	4.2495
1886.99	4.25462
1888.48	4.01643
1889.98	4.12776
1891.47	4.18281
1892.96	3.77801
1894.46	3.97018
1895.95	3.75465
1897.44	3.5234
1898.93	3.96079
1900.42	4.12108
1901.91	3.54374
1903.41	3.79542
1904.9	4.09295
1906.39	4.00425
1907.88	3.70967
1909.37	3.55404
1910.86	3.17946
1912.35	3.06448
1913.83	2.802
1915.32	2.87593
1916.81	2.8507
1918.3	2.88246
1919.79	2.64715
1921.27	3.06775
1922.76	2.36612
1924.25	1.93048
1925.74	1.27972
1927.22	1.12543
1928.71	1.3671
1930.19	1.21354
1931.68	1.17553
1933.17	0.866318
1934.65	0.861563
1936.14	0.585819
1937.62	0.597733
1939.11	1.51614
1940.59	2.08694
1942.07	1.85044
1943.56	1.36414
1945.04	0.749043
1946.52	0.797645
1948.01	1.21087
1949.49	1.29316
1950.97	1.40475
1952.45	0.775239
1953.93	0.782492
1955.42	1.61583
1956.9	1.50561
1958.38	1.19987
1959.86	0.78627
1961.34	0.796231
1962.82	1.28653
1964.3	1.58911
1965.78	1.5647
1967.26	1.68262
1968.74	2.75007
1970.21	2.9421
1971.69	2.84444
1973.17	3.60644
1974.65	4.50729
1976.13	4.54732
1977.6	5.1175
1979.08	5.25013
1980.56	5.3871
1982.03	5.18024
1983.51	5.62854
1984.99	5.67818
1986.46	6.28804
1987.94	6.42617
1989.41	6.77742
1990.89	6.44751
1992.36	6.83911
1993.84	6.25423
1995.31	6.35896
1996.78	5.88078
1998.26	5.63987
1999.73	5.77188
2001.2	5.7088
2002.68	5.59912
2004.15	5.25953
2005.62	5.53291
2007.09	5.55787
2008.56	5.45354
2010.04	4.77811
2011.51	4.71107
2012.98	4.27768
2014.45	3.2238
2015.92	2.68864
2017.39	2.711
2018.86	2.59361
2020.33	2.53682
2021.8	2.30054
2023.26	2.25664
2024.73	1.64084
2026.2	1.55504
2027.67	1.80212
2029.14	2.09572
2030.61	2.14932
2032.07	2.19072
2033.54	3.0923
2035.01	3.62404
2036.47	3.40107
2037.94	3.78326
2039.4	4.81819
2040.87	5.2629
2042.33	5.42731
2043.8	5.00488
2045.27	4.81346
2046.73	5.29284
2048.19	5.65272
2049.66	5.21664
2051.12	5.75943
2052.59	5.98085
2054.05	6.63692
2055.51	6.94441
2056.97	7.73889
2058.44	8.17787
2059.9	8.7868
2061.36	9.52534
2062.82	9.46742
2064.28	9.51529
2065.74	10.0925
2067.21	10.3684
2068.67	10.6155
2070.13	10.886
2071.59	11.2999
2073.05	12.578
2074.51	12.9813
2075.96	13.9119
2077.42	14.7726
2078.88	15.3816
2080.34	15.8914
2081.8	16.1731
2083.26	16.2654
2084.72	17.1411
2086.17	17.8419
2087.63	19.2424
2089.09	20.1178
2090.54	21.0925
2092	21.5654
2093.45	22.1657
2094.91	23.1084
2096.37	24.0722
2097.82	25.2109
2099.28	26.401
2100.73	27.4033
2102.19	28.7001
2103.64	29.5804
2105.09	29.8902
2106.55	30.7097
2108	31.8188
2109.45	32.5907
2110.91	34.2571
2112.36	35.5773
2113.81	36.1744
2115.26	37.0912
2116.72	38.7223
2118.17	39.8754
2119.62	41.7631
2121.07	43.4257
2122.52	45.0955
2123.97	47.2885
2125.42	49.4975
2126.87	51.7447
2128.32	53.5291
2129.77	55.2835
2131.22	56.7052
2132.67	58.4893
2134.11	60.1715
2135.56	61.7989
2137.01	64.2695
2138.46	66.1957
2139.91	68.5579
2141.35	70.2517
2142.8	72.7884
2144.25	74.5745
2145.7	76.4379
2147.14	77.8991
2148.59	79.7593
2150.03	81.3436
2151.48	83.4172
2152.92	85.5177
2154.37	86.5215
2155.81	88.2587
2157.26	90.6409
2158.7	92.0999
2160.15	93.5514
2161.59	94.0855
2163.03	94.8104
2164.47	95.5699
2165.92	96.7832
2167.36	97.8327
2168.8	98.2206
2170.24	98.7869
2171.69	98.9433
2173.13	98.4634
2174.57	98.4333
2176.01	98.2296
2177.45	97.8888
2178.89	97.6153
2180.33	97.5587
2181.77	96.6198
2183.21	96.1052
2184.65	95.2403
2186.09	94.4971
2187.53	93.0743
2188.97	91.973
2190.4	90.791
2191.84	90.1696
2193.28	88.2153
2194.72	87.1027
2196.16	85.9157
2197.59	83.5718
2199.03	81.4739
2200.47	78.7105
2201.9	76.8386
2203.34	75.2933
2204.77	73.8123
2206.21	71.7367
2207.64	69.8639
2209.08	67.961
2210.51	65.44
2211.95	63.4133
2213.38	61.0919
2214.82	59.0516
2216.25	56.3836
2217.68	54.6224
2219.12	52.2987
2220.55	50.9801
2221.98	49.307
2223.41	47.3104
2224.85	45.1363
2226.28	42.9824
2227.71	41.413
2229.14	39.2066
2230.57	37.1145
2232	35.2118
2233.43	33.4117
2234.86	32.4155
2236.29	31.5366
2237.72	30.1531
2239.15	28.7001
2240.58	27.2498
2242.01	26.3297
2243.44	24.5638
2244.87	23.1886
2246.29	22.7875
2247.72	21.6895
2249.15	20.9874
2250.58	20.2714
2252.01	19.9528
2253.43	19.646
2254.86	18.7783
2256.29	18.8143
2257.71	18.7823
2259.14	17.953
2260.56	17.8078
2261.99	17.9565
2263.41	17.9141
2264.84	17.3418
2266.26	17.4628
2267.69	17.3731
2269.11	16.8541
2270.53	17.1253
2271.96	16.8228
2273.38	16.905
2274.8	16.2627
2276.23	15.614
2277.65	15.0567
2279.07	14.9364
2280.49	14.4734
2281.91	13.5819
2283.34	13.1977
2284.76	12.5923
2286.18	11.8927
2287.6	10.7887
2289.02	10.3793
2290.44	9.49391
2291.86	8.74041
2293.28	7.63945
2294.7	6.63571
2296.12	6.37263
2297.54	6.099
2298.96	5.77348
2300.37	5.47869
2301.79	5.53415
2303.21	5.62964
2304.63	5.62016
2306.04	5.44601
2307.46	5.24433
2308.88	4.569
2310.3	4.05876
2311.71	4.97836
2313.13	4.65289
2314.54	4.42868
2315.96	4.92141
2317.37	5.53891
2318.79	5.29534
2320.2	5.65578
2321.62	5.46461
2323.03	5.5908
2324.45	6.07295
2325.86	6.28413
2327.27	6.68568
2328.69	6.49614
2330.1	6.43713
2331.51	6.29183
2332.92	6.54278
2334.34	6.31918
2335.75	6.53595
2337.16	6.46173
2338.57	6.25661
2339.98	5.53781
2341.39	5.29962
2342.8	5.01538
2344.21	4.72759
2345.63	4.37036
2347.04	4.00732
2348.45	3.3971
2349.85	2.36224
2351.26	1.65694
2352.67	1.12424
2354.08	1.17057
2355.49	0.581601
2356.9	0.34943
2358.3	0.331052
2359.71	1.19095
2361.12	0.695063
2362.53	1.10386
2363.93	2.35991
2365.34	2.50522
2366.75	3.03689
2368.15	3.51717
2369.56	3.38115
2370.97	3.32365
2372.37	3.20792
2373.77	3.94985
2375.18	3.49905
2376.59	3.71432
2377.99	4.28072
2379.39	4.41263
2380.8	4.75434
2382.2	5.39648
2383.6	4.46894
2385.01	5.01387
2386.41	5.48199
2387.81	6.31001
2389.21	6.42772
2390.62	7.01422
2392.02	7.34933
2393.42	7.19028
2394.82	7.68527
2396.22	8.02219
2397.62	8.13006
2399.02	8.47619
2400.42	8.17495
2401.82	8.13307
2403.22	8.31924
2404.62	8.42539
2406.02	8.36675
2407.42	7.86196
2408.82	7.68918
2410.22	7.58549
2411.62	8.03454
2413.01	7.39937
2414.41	6.75234
2415.81	6.39672
2417.21	6.08319
2418.6	5.92573
2420	5.3324
2421.4	5.3852
2422.79	5.78663
2424.19	6.78674
2425.59	6.55375
2426.98	7.03499
2428.38	7.05096
2429.77	6.79258
2431.17	5.81892
2432.56	5.99176
2433.95	5.3777
2435.35	4.64063
2436.74	4.63021
2438.14	4.15762
2439.53	3.44783
2440.92	2.89902
2442.31	2.62258
2443.71	2.44562
2445.1	1.99362
2446.49	2.16223
2447.88	2.02776
2449.27	1.96921
2450.67	2.21921
2452.06	2.81409
2453.45	2.55714
2454.84	3.09007
2456.23	3.15635
2457.62	3.06907
2459.01	2.65963
2460.4	2.42955
2461.79	2.50171
2463.18	2.47894
2464.57	2.68286
2465.95	2.38197
2467.34	2.0409
2468.73	1.54381
2470.12	1.38905
2471.5	1.19034
2472.89	1.38591
2474.28	1.85275
2475.67	1.39725
2477.05	1.34178
2478.44	1.20075
2479.82	1.07366
2481.21	0.638113
2482.6	0.271215
2483.98	0.875924
2485.37	0.858194
2486.75	0.579155
2488.13	0.956652
2489.52	0.298008
2490.9	0.514579
2492.29	1.38519
2493.67	1.56707
2495.05	1.11356
2496.44	1.36448
2497.82	1.40068
2499.2	1.78356
2500.58	1.56151
2501.97	1.3288
2503.35	1.21987
2504.73	1.55156
2506.11	2.20536
2507.49	1.91324
2508.87	1.87719
2510.25	2.0507
2511.63	2.13355
2513.01	2.7675
2514.39	3.17992
2515.77	3.48563
2517.15	3.7426
2518.53	3.90293
2519.91	4.19559
2521.29	3.72327
2522.67	3.09736
2524.05	3.79779
2525.42	3.42378
2526.8	3.65669
2528.18	4.07347
2529.55	4.5913
2530.93	4.81131
2532.31	4.74169
2533.69	4.52696
2535.06	4.55347
2536.44	4.99724
2537.81	5.25892
2539.19	5.88204
2540.56	5.50558
2541.94	6.05823
2543.31	5.82227
2544.69	5.2282
2546.06	5.52863
2547.44	6.17462
2548.81	6.47175
2550.18	6.65805
2551.56	7.1438
2552.93	6.99835
2554.3	6.77889
2555.67	7.26223
2557.04	7.45073
2558.42	7.37756
2559.79	8.02739
2561.16	8.52213
2562.53	8.36916
2563.9	8.6326
2565.27	8.62241
2566.64	8.31851
2568.01	8.71541
2569.38	7.88075
2570.75	8.18508
2572.12	8.72764
2573.49	8.94492
2574.86	9.2823
2576.23	8.87704
2577.6	8.71343
2578.97	8.77746
2580.33	9.01294
2581.7	9.5971
2583.07	9.2423
2584.44	9.69985
2585.8	9.52393
2587.17	9.50672
2588.54	9.75561
2589.9	9.59977
2591.27	9.94109
2592.64	10.3773
2594	9.90535
2595.37	10.3188
2596.73	10.2336
2598.1	9.81051
2599.46	9.50296
2600.83	9.70031
2602.19	9.58074
2603.55	9.26164
2604.92	9.34992
2606.28	9.17529
2607.64	9.24479
2609.01	8.8551
2610.37	9.42347
2611.73	9.18347
2613.09	9.50479
2614.46	9.65919
2615.82	10.0301
2617.18	9.34186
2618.54	9.04921
2619.9	8.4502
2621.26	8.01801
2622.62	7.95673
2623.98	8.21925
2625.34	8.362
2626.7	8.3828
2628.06	8.1664
2629.42	7.84721
2630.78	8.09177
2632.14	8.24007
2633.5	8.36027
2634.86	8.28386
2636.21	9.04325
2637.57	8.69848
2638.93	9.34208
2640.29	9.23357
2641.64	9.8599
2643	10.2332
2644.36	9.95868
2645.71	9.07427
2647.07	9.43945
2648.43	9.37111
2649.78	9.06504
2651.14	8.82728
2652.49	8.51547
2653.85	7.98104
2655.2	7.7045
2656.56	7.71448
2657.91	7.40744
2659.26	7.63097
2660.62	7.88031
2661.97	7.39206
2663.32	7.59773
2664.68	7.49611
2666.03	7.87343
2667.38	7.97139
2668.74	7.75455
2670.09	7.60807
2671.44	7.00256
2672.79	7.07642
2674.14	7.68351
2675.49	8.23998
2676.84	8.02468
2678.19	8.17852
2679.54	8.15921
2680.89	7.98266
2682.24	7.40394
2683.59	7.86798
2684.94	7.08429
2686.29	7.14263
2687.64	7.19007
2688.99	7.5577
2690.34	7.8028
2691.69	8.3935
2693.03	8.39057
2694.38	8.18191
2695.73	7.97188
2697.08	8.15461
2698.42	8.74222
2699.77	8.56758
2701.12	8.78698
2702.46	9.16053
2703.81	9.72564
2705.15	9.60518
2706.5	9.58012
2707.85	9.85746
2709.19	10.001
2710.54	9.09269
2711.88	9.10884
2713.22	8.92044
2714.57	9.59754
2715.91	9.40018
2717.26	9.74503
2718.6	10.0891
2719.94	10.1264
2721.29	10.6917
2722.63	10.8408
2723.97	11.1265
2725.31	11.4518
2726.66	12.4528
2728	12.2487
2729.34	11.9139
2730.68	11.9752
2732.02	11.7617
2733.36	12.0873
2734.7	11.6058
2736.04	11.4598
2737.38	11.637
2738.72	11.5951
2740.06	11.9363
2741.4	12.1552
2742.74	11.4685
2744.08	10.8411
2745.42	10.4761
2746.76	10.2657
2748.09	9.59184
2749.43	9.22575
2750.77	9.39291
2752.11	8.5225
2753.45	8.15794
2754.78	8.10921
2756.12	7.54403
2757.46	6.79998
2758.79	6.3925
2760.13	5.47878
2761.46	4.92023
2762.8	4.70697
2764.14	5.0655
2765.47	4.91405
2766.8	4.39726
2768.14	4.20121
2769.47	3.75946
2770.81	3.14976
2772.14	2.44359
2773.48	2.05918
2774.81	2.31421
2776.14	1.74699
2777.48	1.01867
2778.81	1.01463
2780.14	0.462347
2781.47	0.522495
2782.8	0.377837
2784.14	0.718314
2785.47	0.581173
2786.8	-0.139432
2788.13	0.22486
2789.46	0.212241
2790.79	0.0564529
2792.12	0.186809
2793.45	-0.0370996
2794.78	-0.31179
2796.11	-0.141864
2797.44	-0.399067
2798.77	-0.498554
2800.1	-0.0285131
2801.43	-0.274699
2802.76	-0.153874
2804.09	-0.274567
2805.41	-0.13276
2806.74	-0.177934
2808.07	-1.21101
2809.4	-1.25946
2810.72	-0.864727
2812.05	-0.624607
2813.38	-0.556617
2814.71	-0.222636
2816.03	0.180657
2817.36	1.51762
2818.68	2.38266
2820.01	3.59446
2821.33	5.19237
2822.66	6.2997
2823.98	7.78241
2825.31	9.38202
2826.63	11.7813
2827.96	14.2754
2829.28	16.9261
2830.6	19.6303
2831.93	21.7713
2833.25	24.1751
2834.57	26.5806
2835.9	29.3933
2837.22	32.5721
2838.54	36.0299
2839.86	39.676
2841.18	43.8159
2842.5	47.3884
2843.83	51.5016
2845.15	56.4888
2846.47	61.7466
2847.79	66.8582
2849.11	71.9975
2850.43	77.2728
2851.75	81.6843
2853.07	86.5622
2854.39	91.397
2855.71	95.3683
2857.03	100.036
2858.35	104.987
2859.66	109.344
2860.98	113.999
2862.3	117.692
2863.62	121.676
2864.94	125.815
2866.25	130.158
2867.57	133.643
2868.89	136.644
2870.2	139.727
2871.52	143.025
2872.84	145.596
2874.15	148.046
2875.47	151.284
2876.78	153.903
2878.1	155.754
2879.41	158.479
2880.73	161.432
2882.04	163.959
2883.36	167.125
2884.67	168.999
2885.99	171.734
2887.3	174.196
2888.61	176.137
2889.93	179.352
2891.24	181.66
2892.55	185.505
2893.86	187.829
2895.18	191.153
2896.49	194.067
2897.8	196.828
2899.11	200.273
2900.42	204.355
2901.73	208.988
2903.05	213.625
2904.36	219.278
2905.67	224.817
2906.98	231.349
2908.29	237.073
2909.6	243.236
2910.91	249.77
2912.21	256.142
2913.52	261.674
2914.83	267.121
2916.14	272.459
2917.45	277.477
2918.76	282.787
2920.07	287.018
2921.37	292.056
2922.68	296.302
2923.99	299.466
2925.29	302.139
2926.6	305.15
2927.91	307.411
2929.22	309.519
2930.52	310.353
2931.83	311.25
2933.13	311.029
2934.44	310.389
2935.74	309.29
2937.05	307.138
2938.35	304.538
2939.66	302.077
2940.96	298.575
2942.26	294.915
2943.57	290.498
2944.87	286.707
2946.18	281.782
2947.48	276.54
2948.78	271.096
2950.08	264.843
2951.39	259.124
2952.69	252.719
2953.99	246.256
2955.29	240.57
2956.59	233.612
2957.9	227.175
2959.2	220.122
2960.5	213.773
2961.8	206.92
2963.1	200.944
2964.4	195.215
2965.7	189.932
2967	184.47
2968.3	179.024
2969.6	173.916
2970.9	168.23
2972.19	163.01
2973.49	157.368
2974.79	152.052
2976.09	146.665
2977.39	140.962
2978.68	135.178
2979.98	129.88
2981.28	124.58
2982.58	118.847
2983.87	113.351
2985.17	107.816
2986.47	102.363
2987.76	96.8667
2989.06	91.5431
2990.35	86.4621
2991.65	82.1301
2992.94	76.9362
2994.24	71.675
2995.53	66.6488
2996.83	61.922
2998.12	57.1615
2999.42	51.8306
3000.71	47.0749
3002	42.7582
3003.3	38.7821
3004.59	35.2091
3005.88	31.4184
3007.18	27.844
3008.47	24.8574
3009.76	21.9858
3011.05	19.0459
3012.34	16.3747
3013.64	13.9711
3014.93	11.5976
3016.22	9.76465
3017.51	8.02099
3018.8	6.35337
3020.09	5.35577
3021.38	3.77752
3022.67	2.48925
3023.96	2.04297
3025.25	1.4465
3026.54	1.44469
3027.83	1.48451
3029.12	1.25803
3030.41	1.65607
3031.69	1.64507
3032.98	1.4547
3034.27	1.7746
3035.56	1.78112
3036.84	2.54755
3038.13	2.89509
3039.42	3.6581
3040.71	4.21279
3041.99	4.82811
3043.28	5.46306
3044.57	5.86172
3045.85	6.01469
3047.14	6.32083
3048.42	6.42086
3049.71	6.59603
3050.99	6.54394
3052.28	6.67728
3053.56	6.75719
3054.85	7.16964
3056.13	7.10464
3057.41	6.85799
3058.7	6.52426
3059.98	6.67261
3061.26	6.4647
3062.55	6.25531
3063.83	5.58613
3065.11	6.38125
3066.39	6.39631
3067.68	6.14946
3068.96	6.38235
3070.24	6.0112
3071.52	5.73739
3072.8	5.40512
3074.08	4.58034
3075.36	4.05738
3076.65	3.31793
3077.93	2.83148
3079.21	2.22424
3080.49	2.00266
3081.77	1.65899
3083.04	1.72847
3084.32	1.50799
3085.6	1.16821
3086.88	1.16788
3088.16	1.13595
3089.44	1.55384
3090.72	1.98888
3091.99	2.18998
3093.27	2.46082
3094.55	2.75031
3095.83	2.71645
3097.1	3.50729
3098.38	3.83924
3099.66	4.41693
3100.93	5.60763
3102.21	6.09478
3103.49	7.13483
3104.76	7.45641
3106.04	7.40628
3107.31	7.89658
3108.59	8.55333
3109.86	9.06458
3111.14	9.3691
3112.41	10.017
3113.69	11.1583
3114.96	11.6756
3116.23	12.3383
3117.51	13.5978
3118.78	14.4436
3120.05	15.1841
3121.33	16.4511
3122.6	17.2014
3123.87	18.5841
3125.14	19.4802
3126.41	20.6162
3127.69	22.059
3128.96	23.5592
3130.23	24.1975
3131.5	25.1262
3132.77	26.2728
3134.04	27.066
3135.31	27.9783
3136.58	28.8035
3137.85	29.9278
3139.12	31.2615
3140.39	32.8243
3141.66	34.5681
3142.93	36.2445
3144.2	38.0039
3145.47	39.8352
3146.74	41.8183
3148	44.6685
3149.27	47.3765
