#Acq. time (s)=	45
#Accumulations=	2
#Range (cm-¹)=	200...3150
#Windows=	2
#Auto scanning=	Off
#Autofocus=	Off
#Macrospot=	Off
#AutoExposure=	Off
#Spike filter=	Multiple accum.
#Delay time (s)=	0
#Binning=	1
#Readout mode=	Signal
#DeNoise=	Off
#ICS correction=	On
#Dark correction=	Off
#Inst. Process=	Off
#Detector Gain=	Best Dynamic Range
#Detector ADC=	20 kHz       
#Detector temperature (°C)=	-69.85
#Instrument=	LabRAM HR Evol
#Detector=	Synapse
#Objective=	x100
#Grating=	600 gr/mm
#ND Filter=	100%
#Laser (nm)=	532 
#Hole=	100.021
#Range=	Auto
#Laser Pol.=	No
#Raman. Pol.=	No
#Laser Pol. (°)=	-0.0007625
#Raman Pol. (°)=	89.9995
#Collection=	Microscope
#StageXY=	Marzhauser
#StageZ=	Marzhauser
#X (µm)=	28066.1
#Y (µm)=	-536.8
#Z (µm)=	1083.55
#Full time(mm:ss)=	3:20
#Project=	
#Sample=	
#Site=	
#Title=	Mb_30_27_07_2x_45s_532 nm_x100_100%_600 gr_mm
#Remark=	
#Date=	12.07.2022 15:56
#Acquired=	12.07.2022 15:56:33
#Base:Fit=	10.08.2022 10:39:47
#Base:Sub=	10.08.2022 10:39:55
#Base:Fit=	10.08.2022 10:40:03
#Base:Sub=	10.08.2022 10:40:17
#Filter:Polynom=	16.08.2022 10:16:15
#AxisType[0]=Intens
#AxisUnit[0]=Cnt
#AxisType[1]=Spectr
#AxisUnit[1]=1/cm
200.388	18.695
202.204	18.6799
204.019	17.8217
205.832	17.496
207.646	17.0093
209.459	16.5102
211.274	15.4111
213.087	13.7604
214.899	12.6801
216.711	11.5488
218.524	11.9161
220.335	12.0847
222.146	11.2562
223.956	9.36943
225.766	9.55806
227.576	9.72003
229.388	8.39554
231.197	8.01168
233.005	8.27801
234.813	6.65253
236.621	5.54182
238.429	6.38817
240.236	5.55614
242.045	5.06595
243.852	4.92949
245.658	5.06781
247.464	3.94772
249.269	2.72574
251.074	2.88749
252.879	2.94553
254.683	2.20385
256.487	3.15968
258.291	2.48385
260.094	2.77088
261.897	2.49098
263.702	4.41316
265.504	5.40887
267.306	5.14337
269.108	5.12589
270.909	5.20246
272.71	5.17824
274.511	5.2395
276.311	5.51566
278.111	5.56837
279.91	4.93112
281.709	5.72994
283.508	6.00705
285.306	6.41383
287.105	6.05522
288.9	7.73619
290.698	7.59837
292.495	9.41866
294.291	10.0265
296.088	9.76376
297.884	10.4522
299.679	10.7962
301.475	10.6503
303.27	11.8133
305.064	13.0041
306.858	14.1538
308.652	15.0842
310.444	14.6304
312.237	13.5621
314.03	14.2223
315.822	16.0789
317.615	15.0615
319.406	14.8537
321.198	15.52
322.987	15.6565
324.778	14.9511
326.568	15.8572
328.358	16.6579
330.148	15.7248
331.935	16.6977
333.724	16.6642
335.513	16.6229
337.301	16.5115
339.089	17.5157
340.875	18.6419
342.662	18.7758
344.449	19.1755
346.236	19.0354
348.02	18.0975
349.806	17.6636
351.592	17.3457
353.375	17.2343
355.16	15.8565
356.944	14.6375
358.728	14.058
360.51	14.0332
362.294	14.5399
364.077	14.0901
365.858	15.9616
367.64	16.0564
369.422	17.3545
371.202	18.1723
372.983	18.2269
374.764	19.6769
376.543	20.3761
378.324	21.7171
380.102	21.4229
381.881	22.2649
383.661	22.202
385.438	23.2975
387.216	25.0499
388.993	25.4827
390.771	25.455
392.548	25.7556
394.324	25.673
396.101	24.9519
397.875	23.9004
399.651	22.8675
401.425	23.0414
403.201	24.1502
404.974	24.128
406.749	23.0057
408.524	23.4544
410.296	22.7116
412.07	21.6273
413.841	20.3003
415.614	19.6321
417.385	18.1742
419.156	17.4293
420.928	17.3911
422.698	16.3758
424.469	15.8553
426.238	15.1734
428.009	13.8837
429.777	12.9322
431.548	11.4359
433.315	9.19909
435.083	6.89152
436.852	6.50863
438.618	5.63004
440.387	5.12528
442.153	4.82991
443.919	5.50363
445.686	6.17248
447.451	6.29536
449.218	6.81627
450.982	7.02359
452.746	6.7574
454.512	7.75907
456.275	8.24332
458.038	9.27363
459.803	10.3328
461.565	12.3718
463.327	13.1548
465.091	14.2303
466.852	15.232
468.613	17.1138
470.374	19.5788
472.136	21.4907
473.896	23.9395
475.655	25.3024
477.415	25.9803
479.176	27.5069
480.934	28.259
482.692	29.7518
484.45	31.0577
486.21	33.0336
487.967	35.3816
489.724	37.5947
491.481	38.0272
493.237	38.2084
494.995	38.6348
496.75	38.9416
498.506	39.133
500.26	40.0525
502.015	40.3619
503.771	41.1271
505.525	41.019
507.279	41.9804
509.032	42.394
510.785	41.9003
512.537	41.3323
514.289	40.7175
516.041	40.2255
517.793	39.6893
519.546	37.8158
521.297	37.6829
523.047	37.8852
524.797	37.9451
526.547	36.821
528.297	35.551
530.046	33.7629
531.795	31.6877
533.543	30.9075
535.291	29.7036
537.039	28.9359
538.787	28.4127
540.534	26.8085
542.281	27.0503
544.027	25.2763
545.773	23.1329
547.519	21.8778
549.264	20.5114
551.01	19.8549
552.754	20.7489
554.499	19.0547
556.243	18.3088
557.987	16.4307
559.73	15.7131
561.474	14.9283
563.216	13.5665
564.959	12.2502
566.701	11.1225
568.441	10.3769
570.182	11.0601
571.923	10.2099
573.664	8.97442
575.405	7.85772
577.145	6.97441
578.885	5.6404
580.624	5.40469
582.361	6.04144
584.1	5.89637
585.839	5.62225
587.577	5.79073
589.315	4.53203
591.052	4.65928
592.787	4.22662
594.524	4.0851
596.26	4.57792
597.997	4.47416
599.732	3.9236
601.466	3.92027
603.201	3.54414
604.936	3.67343
606.67	4.27829
608.403	5.2905
610.136	5.5608
611.87	5.34099
613.603	4.83767
615.334	5.10485
617.067	5.49425
618.799	7.22791
620.529	9.14784
622.26	9.00817
623.991	9.70998
625.72	11.0666
627.451	11.2556
629.181	11.8221
630.909	11.7177
632.638	12.2783
634.368	12.6823
636.095	12.7144
637.823	13.4928
639.551	13.0116
641.277	10.4854
643.005	11.4586
644.73	10.495
646.457	11.7149
648.184	12.5634
649.908	11.9238
651.634	11.7628
653.357	11.5394
655.083	12.092
656.806	12.1115
658.53	10.2513
660.253	10.3704
661.977	9.88212
663.7	10.2013
665.422	9.70397
667.145	10.1259
668.865	11.0421
670.588	9.78283
672.308	8.6645
674.027	9.37254
675.749	8.45251
677.468	9.96583
679.188	10.2898
680.907	10.1366
682.627	10.2982
684.345	10.4618
686.064	10.608
687.781	11.006
689.498	11.7513
691.216	13.4502
692.932	14.9166
694.65	15.4215
696.366	16.3003
698.081	16.7436
699.797	16.9158
701.512	18.4597
703.228	20.1209
704.942	20.9262
706.655	21.7851
708.371	23.0752
710.083	25.4714
711.796	27.2869
713.51	27.4674
715.222	28.5064
716.934	29.7687
718.645	30.18
720.358	31.7033
722.068	31.8797
723.779	34.159
725.49	34.0557
727.2	34.5698
728.909	36.6166
730.618	36.0019
732.329	37.8049
734.037	37.2498
735.745	36.5901
737.453	36.8549
739.16	36.7913
740.869	36.5198
742.576	36.1744
744.282	36.6823
745.988	37.7112
747.694	38.6137
749.401	40.0121
751.107	41.7552
752.811	42.6865
754.516	42.8449
756.22	43.6817
757.924	45.131
759.627	47.0155
761.332	49.187
763.035	51.8596
764.738	52.7491
766.44	53.8168
768.142	54.7337
769.843	56.8118
771.544	57.4874
773.245	59.475
774.946	60.8914
776.646	62.0423
778.346	63.5673
780.046	64.6837
781.745	65.7063
783.444	67.052
785.143	67.7101
786.841	69.915
788.539	71.6246
790.237	73.3628
791.934	75.6601
793.631	77.351
795.328	77.7652
797.024	78.9489
798.72	80.0501
800.416	80.8513
802.112	81.443
803.807	80.9135
805.502	82.1036
807.196	80.8994
808.89	81.6692
810.584	80.4775
812.278	80.2519
813.971	79.4072
815.664	78.2302
817.354	78.2689
819.047	77.0331
820.739	75.4876
822.43	74.9826
824.122	74.2998
825.813	73.1149
827.503	73.6966
829.192	73.8929
830.882	72.3789
832.571	72.0701
834.261	71.004
835.95	70.7197
837.637	69.3341
839.325	69.5207
841.013	69.6534
842.701	68.7947
844.389	69.4219
846.074	69.5149
847.761	67.1345
849.447	65.2448
851.131	63.4822
852.817	62.6211
854.503	63.0233
856.188	62.3828
857.871	61.5515
859.556	60.7008
861.24	61.1428
862.922	61.5151
864.606	60.6048
866.289	59.9961
867.97	59.3483
869.653	58.8909
871.336	59.3365
873.016	59.4837
874.698	59.6681
876.379	58.84
878.058	58.7989
879.739	58.8368
881.418	59.2913
883.098	58.1683
884.778	57.5529
886.456	57.5114
888.135	57.5685
889.812	58.096
891.49	56.8261
893.167	56.8786
894.845	56.2266
896.523	55.5203
898.198	55.5247
899.875	54.7568
901.55	54.0797
903.226	53.3562
904.901	53.5049
906.576	54.7408
908.25	53.866
909.925	53.0494
911.598	53.5379
913.271	52.2721
914.945	52.4205
916.617	52.2486
918.291	51.9073
919.962	51.9734
921.635	51.4239
923.306	51.4349
924.978	49.693
926.648	48.8279
928.318	47.2897
929.989	44.8611
931.659	43.2156
933.328	43.0604
934.998	44.6521
936.666	45.005
938.336	44.2684
940.004	42.958
941.671	41.8743
943.34	40.8937
945.007	39.0291
946.673	37.431
948.339	37.5288
950.007	37.7547
951.672	37.7141
953.337	39.4038
955.004	39.2146
956.669	38.6235
958.333	37.4447
959.997	37.499
961.662	37.8989
963.326	38.3103
964.989	39.6391
966.651	39.4469
968.315	41.5089
969.977	43.4352
971.639	45.2487
973.301	44.9402
974.962	46.3595
976.624	46.859
978.285	47.9411
979.945	49.2325
981.605	49.8442
983.264	50.7853
984.924	51.6869
986.583	53.2765
988.243	54.8729
989.901	55.7401
991.56	55.7785
993.217	56.0186
994.875	55.3286
996.532	53.8806
998.188	53.0531
999.845	51.9163
1001.5	51.674
1003.16	51.9235
1004.81	51.9718
1006.47	53.2608
1008.12	54.5799
1009.78	57.6697
1011.43	60.8302
1013.09	64.0179
1014.74	68.5339
1016.39	71.8394
1018.05	74.8788
1019.7	77.2697
1021.35	79.1866
1023	81.2177
1024.65	83.006
1026.31	84.823
1027.96	86.5936
1029.61	89.5706
1031.26	92.3822
1032.91	91.9789
1034.56	91.8297
1036.21	92.4027
1037.86	92.0013
1039.51	92.4422
1041.16	92.8576
1042.8	93.6185
1044.45	93.1912
1046.1	92.645
1047.75	92.0364
1049.39	89.5008
1051.04	89.3948
1052.69	87.3733
1054.33	84.6904
1055.98	80.9905
1057.62	78.6222
1059.27	75.3074
1060.91	72.2127
1062.56	69.0489
1064.2	65.6641
1065.85	62.0508
1067.49	58.3622
1069.13	55.179
1070.77	51.2795
1072.42	46.7303
1074.06	41.3383
1075.7	37.1371
1077.34	33.7559
1078.98	30.9967
1080.62	29.2556
1082.27	28.5185
1083.91	27.2411
1085.55	27.2375
1087.18	27.0734
1088.82	28.6935
1090.46	30.0136
1092.1	30.8881
1093.74	31.0434
1095.38	30.8051
1097.02	31.7236
1098.65	31.4751
1100.29	32.1101
1101.93	32.6383
1103.56	32.2566
1105.2	32.4429
1106.84	32.7599
1108.47	33.4168
1110.11	33.6221
1111.74	34.6079
1113.38	33.6351
1115.01	32.5974
1116.64	32.2843
1118.28	32.1029
1119.91	31.7147
1121.54	29.8086
1123.18	28.4727
1124.81	26.9553
1126.44	25.3981
1128.07	24.4257
1129.7	24.2997
1131.33	23.3939
1132.97	22.2747
1134.6	21.033
1136.23	20.3163
1137.86	20.1502
1139.49	19.667
1141.11	19.674
1142.74	18.2877
1144.37	18.2639
1146	17.2211
1147.63	15.0757
1149.26	14.9636
1150.88	14.465
1152.51	14.0561
1154.14	13.1431
1155.76	11.9664
1157.39	12.0841
1159.01	11.5347
1160.64	10.1594
1162.27	8.8642
1163.89	7.832
1165.51	6.40651
1167.14	7.02628
1168.76	6.92566
1170.39	7.39497
1172.01	7.81982
1173.63	7.77314
1175.25	7.78905
1176.88	7.72618
1178.5	9.00934
1180.12	9.68371
1181.74	10.4378
1183.36	11.3826
1184.98	11.8947
1186.6	12.7468
1188.22	14.4838
1189.84	15.5638
1191.46	16.6455
1193.08	17.0531
1194.7	17.5208
1196.32	19.7658
1197.94	20.6793
1199.55	22.2053
1201.17	24.5882
1202.79	26.7971
1204.41	28.8563
1206.02	30.5518
1207.64	33.1169
1209.25	35.8513
1210.87	39.5134
1212.48	42.3236
1214.1	45.118
1215.71	48.926
1217.33	51.9724
1218.94	54.9156
1220.56	57.6597
1222.17	60.5812
1223.79	62.3888
1225.4	66.2129
1227.01	68.2358
1228.62	70.5335
1230.23	73.809
1231.85	76.4181
1233.46	78.7925
1235.07	80.9085
1236.68	83.1032
1238.29	85.1629
1239.9	86.597
1241.51	88.0508
1243.12	89.7788
1244.73	92.0281
1246.34	93.6026
1247.94	95.5914
1249.55	96.8556
1251.16	99.011
1252.77	99.9285
1254.37	99.6009
1255.98	100.633
1257.59	100.93
1259.2	102.809
1260.8	103.127
1262.41	103.797
1264.01	103.935
1265.62	105.057
1267.22	106.228
1268.83	106.665
1270.43	107.953
1272.03	108.903
1273.64	109.898
1275.24	111.731
1276.85	112.791
1278.45	112.603
1280.05	113.527
1281.65	114.421
1283.25	115.274
1284.85	115.776
1286.46	116.897
1288.06	118.601
1289.66	119.54
1291.26	120.515
1292.86	120.993
1294.46	121.664
1296.06	122.166
1297.66	121.932
1299.25	122.327
1300.85	122.62
1302.45	122.244
1304.05	122.651
1305.65	124.543
1307.24	124.346
1308.84	124.805
1310.43	124.53
1312.03	125.672
1313.63	125.928
1315.22	126.329
1316.82	126.264
1318.41	125.255
1320.01	124.375
1321.6	124.487
1323.2	124.385
1324.79	123.398
1326.38	121.593
1327.98	120.242
1329.57	118.645
1331.16	116.347
1332.76	113.96
1334.35	111.186
1335.94	109.934
1337.53	107.621
1339.12	105.995
1340.71	102.619
1342.3	100.099
1343.89	97.3321
1345.48	95.4935
1347.07	92.0923
1348.66	90.0168
1350.25	87.9377
1351.84	85.3354
1353.43	83.5302
1355.01	81.1533
1356.6	78.4855
1358.19	76.3836
1359.77	73.9441
1361.36	71.2881
1362.95	69.4312
1364.53	67.2858
1366.12	64.3584
1367.71	62.3983
1369.29	59.7939
1370.88	57.6182
1372.46	56.0824
1374.04	54.6225
1375.63	53.0343
1377.21	50.9673
1378.8	49.1612
1380.38	49.0302
1381.96	48.4515
1383.54	47.9501
1385.13	48.333
1386.71	47.0712
1388.29	46.7346
1389.87	46.5157
1391.45	46.4931
1393.03	46.0868
1394.61	45.5839
1396.19	45.5464
1397.77	44.65
1399.35	44.1804
1400.93	44.1921
1402.51	44.1448
1404.09	44.2127
1405.67	44.9468
1407.24	46.4587
1408.82	47.8915
1410.4	49.4011
1411.98	51.6433
1413.55	54.0268
1415.13	57.3071
1416.71	59.8438
1418.28	62.65
1419.86	65.6156
1421.43	69.9471
1423.01	73.0741
1424.58	76.9992
1426.16	80.4515
1427.73	84.9018
1429.31	89.9448
1430.88	95.7885
1432.45	99.9167
1434.02	104.096
1435.6	108.567
1437.17	111.705
1438.74	113.838
1440.31	117.23
1441.88	120.411
1443.45	123.21
1445.03	124.97
1446.6	127.125
1448.17	128.1
1449.74	129.384
1451.3	129.097
1452.87	129.706
1454.44	129.415
1456.01	127.731
1457.58	125.989
1459.15	125.102
1460.72	121.515
1462.28	118.59
1463.85	116.109
1465.42	112.949
1466.98	109.475
1468.55	105.333
1470.12	101.233
1471.68	98.3511
1473.25	94.7304
1474.81	90.5216
1476.38	85.2972
1477.94	81.3411
1479.51	77.3265
1481.07	73.4552
1482.63	69.6373
1484.2	65.2929
1485.76	61.3665
1487.32	57.6223
1488.88	54.3198
1490.45	51.4514
1492.01	47.6136
1493.57	44.7969
1495.13	41.9632
1496.69	39.9217
1498.25	38.5527
1499.81	37.1326
1501.37	35.1943
1502.93	34.6212
1504.49	33.6473
1506.05	33.6552
1507.61	33.707
1509.17	32.6278
1510.73	31.8133
1512.28	31.0612
1513.84	30.7146
1515.4	28.935
1516.96	28.5929
1518.51	28.9387
1520.07	28.7754
1521.63	28.335
1523.18	26.9072
1524.74	26.6151
1526.29	27.1365
1527.85	27.719
1529.4	27.4521
1530.96	28.2776
1532.51	27.8146
1534.06	27.6176
1535.62	28.3261
1537.17	29.1413
1538.72	29.6215
1540.28	30.5239
1541.83	31.9948
1543.38	32.9103
1544.93	33.4986
1546.48	34.6354
1548.03	36.0489
1549.59	36.7092
1551.14	37.1698
1552.69	36.6476
1554.24	37.388
1555.79	37.5201
1557.34	38.2663
1558.88	38.8319
1560.43	39.2652
1561.98	39.5336
1563.53	40.2309
1565.08	41.7889
1566.62	43.0212
1568.17	44.1475
1569.72	45.6876
1571.27	48.3875
1572.81	50.5005
1574.36	53.1473
1575.9	54.6967
1577.45	56.2884
1579	58.3525
1580.54	60.7656
1582.09	63.9586
1583.63	66.2625
1585.17	67.3478
1586.72	69.7898
1588.26	72.0007
1589.8	73.5458
1591.35	74.8513
1592.89	75.8236
1594.43	77.117
1595.97	77.9395
1597.52	78.7571
1599.06	79.2865
1600.6	80.9694
1602.14	82.8634
1603.68	84.5886
1605.22	85.4146
1606.76	85.9313
1608.3	86.4566
1609.84	86.8551
1611.38	86.648
1612.92	88.0637
1614.46	88.7704
1615.99	88.7551
1617.53	89.4799
1619.07	91.0975
1620.61	92.0692
1622.14	93.3383
1623.68	95.0614
1625.22	96.5154
1626.75	98.7194
1628.29	100.584
1629.82	102.188
1631.36	104.498
1632.9	107.037
1634.43	110.168
1635.96	112.694
1637.5	115.694
1639.03	119.847
1640.57	123.603
1642.1	126.814
1643.63	129.669
1645.16	132.693
1646.7	136.216
1648.23	140.052
1649.76	143.534
1651.29	145.703
1652.82	147.514
1654.36	149.996
1655.89	150.827
1657.42	152.671
1658.95	153.422
1660.48	152.595
1662.01	152.408
1663.53	151.838
1665.06	150.208
1666.59	148.484
1668.12	145.221
1669.65	142.753
1671.18	139.597
1672.7	136.573
1674.23	133.277
1675.76	129.47
1677.29	125.257
1678.81	119.885
1680.34	114.552
1681.86	109.068
1683.39	103.511
1684.91	99.0017
1686.44	94.4368
1687.96	89.7349
1689.49	85.7926
1691.01	80.0271
1692.54	75.2982
1694.06	71.1041
1695.58	66.8139
1697.11	62.7629
1698.63	58.6234
1700.15	55.0875
1701.67	51.1235
1703.2	48.2474
1704.72	44.2387
1706.24	41.739
1707.76	38.8981
1709.28	36.827
1710.8	34.6413
1712.32	33.0907
1713.84	30.6259
1715.36	29.3548
1716.88	26.9603
1718.4	25.3939
1719.91	24.5646
1721.43	23.8669
1722.95	23.3306
1724.47	22.2788
1725.99	21.0291
1727.5	19.3296
1729.02	18.0389
1730.54	17.2005
1732.05	16.29
1733.57	16.4607
1735.09	15.3107
1736.6	14.9045
1738.12	14.3866
1739.63	13.5934
1741.15	12.999
1742.66	11.865
1744.18	10.7584
1745.69	10.1875
1747.2	9.7518
1748.72	8.53215
1750.23	8.23337
1751.74	7.51661
1753.25	7.09347
1754.77	6.5762
1756.28	6.54089
1757.79	6.98243
1759.3	7.13333
1760.81	6.97885
1762.32	6.40011
1763.83	5.71955
1765.34	5.20732
1766.85	5.06662
1768.36	4.78915
1769.87	4.17765
1771.38	4.2802
1772.89	3.84225
1774.4	2.97524
1775.91	2.83627
1777.41	2.34893
1778.92	1.98834
1780.43	1.50615
1781.94	1.75293
1783.44	1.71141
1784.95	1.9726
1786.45	2.137
1787.96	2.01647
1789.47	1.23826
1790.97	1.74249
1792.48	1.50656
1793.98	1.6349
1795.48	1.71706
1796.99	1.7487
1798.49	1.50075
1800	1.2857
1801.5	1.15938
1803	1.02335
1804.51	1.20738
1806.01	1.33927
1807.51	1.44188
1809.01	1.15704
1810.51	0.726893
1812.02	1.02546
1813.52	0.870709
1815.02	0.752454
1816.52	0.546105
1818.02	0.401918
1819.52	0.341916
1821.02	-0.0855908
1822.52	0.0648427
1824.02	-0.00835653
1825.51	1.04144
1827.01	1.33956
1828.51	1.17145
1830.01	0.934891
1831.51	0.761295
1833	0.911578
1834.5	0.558787
1836	0.64915
1837.5	0.655041
1838.99	0.337569
1840.49	0.356027
1841.98	0.60507
1843.48	0.540516
1844.97	0.634773
1846.47	0.628701
1847.96	0.406882
1849.46	0.100515
1850.95	0.168247
1852.45	0.523045
1853.94	0.761223
1855.43	1.59044
1856.92	1.85909
1858.42	2.36666
1859.91	2.28562
1861.4	2.3512
1862.89	2.53351
1864.39	3.12577
1865.88	4.1295
1867.37	4.97832
1868.86	5.55923
1870.35	5.92371
1871.84	6.52769
1873.33	6.99463
1874.82	7.02433
1876.31	7.68513
1877.8	7.82433
1879.29	7.74901
1880.77	7.89095
1882.26	7.67734
1882.51	6.82492
1884	7.15778
1885.5	7.05627
1886.99	7.45344
1888.48	6.94962
1889.98	6.24333
1891.47	5.62979
1892.97	5.60758
1894.46	5.16894
1895.95	5.46521
1897.44	6.01521
1898.93	5.88612
1900.42	5.22902
1901.92	3.76372
1903.41	3.31225
1904.9	3.35241
1906.39	3.44125
1907.88	2.47918
1909.37	2.41751
1910.86	1.72397
1912.35	1.76442
1913.84	1.69907
1915.32	1.59889
1916.81	1.55536
1918.3	1.7368
1919.79	1.9602
1921.28	1.86488
1922.76	1.97128
1924.25	3.01204
1925.74	3.51641
1927.22	3.71709
1928.71	4.87572
1930.2	5.41383
1931.68	5.7655
1933.17	5.99657
1934.65	6.95724
1936.14	7.69706
1937.62	8.89044
1939.11	8.66241
1940.59	8.84834
1942.08	8.91026
1943.56	8.7858
1945.04	8.5572
1946.53	8.05113
1948.01	7.54874
1949.49	7.46797
1950.97	6.95601
1952.45	6.52887
1953.94	6.47512
1955.42	6.19975
1956.9	5.65086
1958.38	6.22251
1959.86	6.0736
1961.34	6.3
1962.82	5.5306
1964.3	5.4763
1965.78	5.81279
1967.26	6.0682
1968.74	6.39252
1970.22	6.58614
1971.69	6.69787
1973.17	5.20841
1974.65	5.45706
1976.13	6.09425
1977.61	6.93411
1979.08	7.19163
1980.56	6.79843
1982.03	6.72307
1983.51	7.09012
1984.99	6.98154
1986.46	6.92169
1987.94	6.83119
1989.41	6.94622
1990.89	6.69794
1992.36	6.2852
1993.84	6.35714
1995.31	6.47433
1996.78	6.75024
1998.26	7.01923
1999.73	6.83145
2001.2	7.60281
2002.68	8.2196
2004.15	8.34933
2005.62	8.25485
2007.09	8.70425
2008.56	8.54838
2010.04	8.23357
2011.51	8.57433
2012.98	8.77452
2014.45	8.847
2015.92	9.04475
2017.39	9.15215
2018.86	9.16789
2020.33	9.14487
2021.8	8.8833
2023.27	9.36732
2024.74	9.80897
2026.2	9.991
2027.67	10.2982
2029.14	10.1879
2030.61	10.2404
2032.07	11.2975
2033.54	11.6654
2035.01	12.0369
2036.47	12.3758
2037.94	12.9786
2039.41	13.5574
2040.87	13.988
2042.34	14.6518
2043.8	14.929
2045.27	15.7533
2046.73	15.5504
2048.2	16.9128
2049.66	17.0889
2051.12	16.7153
2052.59	16.8547
2054.05	16.9203
2055.51	17.1004
2056.98	17.3532
2058.44	17.1888
2059.9	17.216
2061.36	17.2147
2062.82	17.1941
2064.29	17.3757
2065.75	18.5631
2067.21	19.4434
2068.67	20.26
2070.13	20.7361
2071.59	21.6528
2073.05	22.7029
2074.51	23.7688
2075.97	24.6083
2077.43	25.1073
2078.88	25.7737
2080.34	27.0194
2081.8	27.6787
2083.26	28.5958
2084.72	29.9138
2086.17	30.2275
2087.63	30.136
2089.09	30.8846
2090.54	31.8677
2092	32.0116
2093.46	32.5073
2094.91	34.1821
2096.37	35.713
2097.82	36.5064
2099.28	37.7239
2100.73	38.8921
2102.19	40.8253
2103.64	42.6326
2105.09	44.512
2106.55	45.7029
2108	47.53
2109.46	49.4407
2110.91	51.2278
2112.36	53.7362
2113.81	56.0416
2115.27	58.1466
2116.72	60.0907
2118.17	62.4134
2119.62	64.3809
2121.07	67.4446
2122.52	70.7729
2123.97	73.6495
2125.42	76.2994
2126.87	78.4973
2128.32	81.0492
2129.77	84.1491
2131.22	87.3808
2132.67	90.7237
2134.12	93.6026
2135.57	97.0149
2137.01	100.35
2138.46	104.355
2139.91	107.88
2141.36	111.664
2142.8	115.008
2144.25	118.557
2145.7	121.8
2147.14	125.118
2148.59	128.228
2150.03	131.25
2151.48	134.389
2152.92	137.133
2154.37	139.242
2155.81	142.123
2157.26	144.842
2158.7	147.257
2160.15	149.334
2161.59	150.749
2163.03	153.581
2164.48	155.341
2165.92	156.93
2167.36	158.063
2168.8	159.455
2170.25	160.534
2171.69	161.738
2173.13	162.191
2174.57	162.49
2176.01	162.134
2177.45	161.484
2178.89	160.629
2180.33	160.127
2181.77	159.208
2183.21	157.7
2184.65	156.714
2186.09	154.622
2187.53	152.243
2188.97	150.047
2190.41	147.883
2191.84	145.235
2193.28	142.164
2194.72	139.469
2196.16	135.096
2197.59	131.414
2199.03	128.076
2200.47	125.739
2201.9	122.968
2203.34	119.533
2204.78	116.143
2206.21	112.473
2207.65	109.818
2209.08	106.616
2210.51	103.744
2211.95	100.393
2213.38	97.0197
2214.82	92.9447
2216.25	90.2247
2217.68	87.3171
2219.12	84.9433
2220.55	81.8861
2221.98	78.9731
2223.42	76.5741
2224.85	73.7567
2226.28	71.3242
2227.71	68.4165
2229.14	65.6212
2230.57	63.0491
2232	60.3031
2233.43	58.1271
2234.86	57.0439
2236.29	54.1152
2237.72	51.7205
2239.15	49.5201
2240.58	48.9442
2242.01	46.6489
2243.44	44.9542
2244.87	43.2943
2246.3	41.2955
2247.73	39.9556
2249.15	38.4599
2250.58	37.6549
2252.01	37.1353
2253.43	36.3429
2254.86	34.7802
2256.29	33.9451
2257.71	33.0426
2259.14	31.764
2260.56	30.9302
2261.99	30.3111
2263.41	29.5851
2264.84	28.8683
2266.26	28.0972
2267.69	27.5478
2269.11	27.1931
2270.54	27.0781
2271.96	26.7747
2273.38	26.0826
2274.81	25.6867
2276.23	25.6997
2277.65	25.5
2279.07	25.0849
2280.49	24.4167
2281.92	23.6027
2283.34	23.8166
2284.76	23.0792
2286.18	22.405
2287.6	22.7577
2289.02	21.9325
2290.44	21.172
2291.86	19.7517
2293.28	19.2271
2294.7	18.9648
2296.12	18.1477
2297.54	17.7073
2298.96	17.4595
2300.38	17.6699
2301.79	17.3582
2303.21	17.3194
2304.63	16.9525
2306.05	16.1318
2307.46	15.4962
2308.88	15.5819
2310.3	15.2661
2311.71	15.4156
2313.13	14.169
2314.55	14.3795
2315.96	13.7522
2317.38	13.3687
2318.79	13.5083
2320.21	13.5486
2321.62	13.5273
2323.03	13.0343
2324.45	13.0756
2325.86	12.2935
2327.27	12.4608
2328.69	12.6364
2330.1	11.7668
2331.51	11.929
2332.93	12.055
2334.34	11.876
2335.75	10.8052
2337.16	10.1832
2338.57	10.2106
2339.99	9.68674
2341.4	9.46217
2342.81	10.1304
2344.22	9.50296
2345.63	8.56614
2347.04	8.00143
2348.45	7.19807
2349.86	6.00937
2351.26	5.87954
2352.67	5.28359
2354.08	5.70287
2355.49	4.60339
2356.9	4.22488
2358.31	3.72046
2359.71	3.18785
2361.12	3.18472
2362.53	3.3776
2363.94	3.98745
2365.34	3.83676
2366.75	3.26846
2368.15	2.9522
2369.56	3.50672
2370.97	3.98212
2372.37	3.47169
2373.78	3.56049
2375.18	3.03198
2376.59	2.61827
2377.99	2.96374
2379.39	2.68931
2380.8	2.37106
2382.2	2.16978
2383.61	2.53802
2385.01	3.08772
2386.41	3.0085
2387.81	3.38501
2389.22	3.46189
2390.62	3.92022
2392.02	3.74756
2393.42	4.3933
2394.82	5.09878
2396.22	5.42719
2397.63	5.94931
2399.02	6.60814
2400.43	6.78493
2401.82	7.61507
2403.23	7.71431
2404.62	7.57022
2406.02	7.73836
2407.42	7.97247
2408.82	8.38017
2410.22	9.16458
2411.62	9.21399
2413.02	10.0195
2414.41	8.58574
2415.81	8.69942
2417.21	8.60316
2418.61	8.93852
2420	9.74867
2421.4	9.85057
2422.79	9.98954
2424.19	9.85247
2425.59	9.21576
2426.98	9.35507
2428.38	9.17603
2429.77	9.31106
2431.17	8.96686
2432.56	8.86238
2433.96	8.22173
2435.35	7.02659
2436.74	7.70283
2438.14	8.4967
2439.53	9.00912
2440.92	9.30219
2442.32	8.45033
2443.71	8.9105
2445.1	8.75927
2446.49	8.74841
2447.88	8.67978
2449.28	8.71875
2450.67	8.88383
2452.06	8.9234
2453.45	8.92112
2454.84	8.16267
2456.23	8.15629
2457.62	7.79774
2459.01	7.93536
2460.4	7.60685
2461.79	7.4754
2463.18	7.63508
2464.57	7.04487
2465.96	7.30176
2467.34	7.15972
2468.73	7.1341
2470.12	6.76728
2471.51	6.64165
2472.89	6.46051
2474.28	5.98015
2475.67	5.55847
2477.05	4.85498
2478.44	4.46494
2479.83	4.3642
2481.21	3.75039
2482.6	3.39327
2483.98	2.39732
2485.37	2.70085
2486.75	2.65193
2488.14	2.27026
2489.52	1.37516
2490.9	0.636389
2492.29	0.565662
2493.67	0.292482
2495.06	-0.255949
2496.44	-0.278631
2497.82	-0.67429
2499.2	-1.04435
2500.59	-1.55724
2501.97	-1.69772
2503.35	-2.22863
2504.73	-1.73291
2506.11	-0.87814
2507.49	-1.08525
2508.88	-0.615525
2510.26	-0.301189
2511.63	-0.82522
2513.01	-0.260308
2514.39	-0.803422
2515.77	-0.764456
2517.15	-0.395205
2518.53	-0.540529
2519.91	-0.772706
2521.29	-0.721222
2522.67	-0.81627
2524.05	-1.04498
2525.42	-0.881189
2526.8	-1.04363
2528.18	-0.526498
2529.56	0.215217
2530.93	1.0606
2532.31	1.80101
2533.69	2.65042
2535.06	3.57573
2536.44	3.87776
2537.81	3.79157
2539.19	3.8376
2540.56	3.85798
2541.94	3.74034
2543.31	3.64825
2544.69	4.45969
2546.06	5.17055
2547.44	5.32957
2548.81	6.01179
2550.18	5.96517
2551.56	5.6388
2552.93	5.93714
2554.3	6.01468
2555.68	6.03516
2557.05	5.444
2558.42	6.00771
2559.79	5.89747
2561.16	5.45699
2562.53	5.29059
2563.9	4.99623
2565.28	4.77217
2566.64	4.86363
2568.02	4.57083
2569.38	4.09326
2570.76	3.72916
2572.12	3.64108
2573.49	4.08802
2574.86	3.97454
2576.23	3.59684
2577.6	3.84339
2578.97	3.08267
2580.34	3.10057
2581.7	2.98704
2583.07	2.13896
2584.44	2.50439
2585.81	2.15685
2587.17	1.44173
2588.54	1.60542
2589.91	1.91828
2591.27	1.26021
2592.64	1.30812
2594	1.68587
2595.37	2.09634
2596.73	2.81229
2598.1	2.67377
2599.46	2.46315
2600.83	2.62606
2602.19	2.74826
2603.55	2.78392
2604.92	2.34131
2606.28	1.90255
2607.64	1.60203
2609.01	1.87339
2610.37	2.53421
2611.73	2.58816
2613.09	3.45834
2614.46	3.2121
2615.82	2.78374
2617.18	2.4942
2618.54	1.70486
2619.9	1.54922
2621.26	1.86973
2622.62	1.86047
2623.98	2.26293
2625.34	1.63128
2626.7	2.36801
2628.06	2.40588
2629.42	3.19405
2630.78	4.05589
2632.14	4.19284
2633.5	4.62597
2634.86	5.05574
2636.22	4.64915
2637.57	4.94216
2638.93	5.60339
2640.29	5.92489
2641.64	6.18303
2643	6.16688
2644.36	6.27868
2645.72	6.86085
2647.07	6.87012
2648.43	7.62193
2649.78	7.29573
2651.14	7.41677
2652.49	7.96163
2653.85	8.00116
2655.2	7.86631
2656.56	7.78784
2657.91	8.0375
2659.27	7.76496
2660.62	8.30952
2661.97	7.85715
2663.33	7.8427
2664.68	7.82921
2666.03	7.7992
2667.38	8.4849
2668.74	7.76756
2670.09	8.02253
2671.44	7.60327
2672.79	7.29002
2674.14	7.06479
2675.49	6.5079
2676.84	6.20481
2678.2	5.98426
2679.55	5.20471
2680.89	5.43311
2682.24	4.45292
2683.59	3.67928
2684.94	2.97575
2686.29	3.18831
2687.64	3.49935
2688.99	2.93181
2690.34	3.05577
2691.69	3.37605
2693.04	3.6028
2694.38	4.12905
2695.73	3.94874
2697.08	3.70476
2698.43	3.42303
2699.77	3.90902
2701.12	4.21039
2702.46	5.14631
2703.81	5.1808
2705.16	6.08421
2706.5	6.23085
2707.85	6.68299
2709.19	6.86545
2710.54	7.9047
2711.88	8.47398
2713.23	9.11562
2714.57	9.72654
2715.92	10.2881
2717.26	10.4211
2718.6	10.714
2719.95	10.6751
2721.29	10.5926
2722.63	10.3882
2723.97	10.1923
2725.32	10.6676
2726.66	11.1009
2728	11.1011
2729.34	10.8364
2730.68	10.8876
2732.02	10.9172
2733.36	11.079
2734.7	10.5815
2736.04	9.85693
2737.39	9.61091
2738.72	9.53399
2740.06	8.98159
2741.4	7.60115
2742.74	6.91403
2744.08	6.86877
2745.42	6.95059
2746.76	6.61937
2748.1	6.71821
2749.44	6.04668
2750.77	5.52502
2752.11	5.53281
2753.45	5.28677
2754.78	4.54082
2756.12	4.0105
2757.46	4.5113
2758.79	4.54127
2760.13	3.97552
2761.47	3.53211
2762.8	3.20465
2764.14	2.43467
2765.47	2.33599
2766.81	2.42349
2768.14	2.4744
2769.48	2.54799
2770.81	1.86313
2772.14	2.35646
2773.48	1.94907
2774.81	1.8881
2776.14	1.75507
2777.48	2.64614
2778.81	2.70687
2780.14	3.12937
2781.47	3.33636
2782.81	3.56762
2784.14	3.63341
2785.47	3.64929
2786.8	3.39267
2788.13	3.2558
2789.46	3.35839
2790.79	3.64326
2792.12	4.02365
2793.46	4.33344
2794.79	3.31532
2796.11	3.28417
2797.44	3.70688
2798.77	4.01239
2800.1	4.255
2801.43	4.25421
2802.76	4.13984
2804.09	4.12884
2805.42	4.57042
2806.74	4.07373
2808.07	4.20607
2809.4	4.95473
2810.73	4.99611
2812.05	5.74808
2813.38	5.98268
2814.71	6.22361
2816.03	6.0478
2817.36	7.16055
2818.68	8.15136
2820.01	9.41423
2821.33	11.3204
2822.66	12.8503
2823.98	15.0393
2825.31	16.9428
2826.63	18.799
2827.96	21.0467
2829.28	23.2298
2830.61	26.241
2831.93	29.4589
2833.25	33.1714
2834.57	36.8215
2835.9	40.4046
2837.22	44.9091
2838.54	49.3551
2839.86	54.081
2841.18	59.2051
2842.51	64.9841
2843.83	70.9218
2845.15	76.2882
2846.47	82.8482
2847.79	89.5282
2849.11	96.3608
2850.43	103.331
2851.75	110.796
2853.07	117.743
2854.39	124.787
2855.71	131.967
2857.03	139.308
2858.35	145.582
2859.67	152.192
2860.98	158.907
2862.3	165.854
2863.62	172.021
2864.94	177.12
2866.25	182.641
2867.57	188.004
2868.89	193.084
2870.21	197.96
2871.52	202.038
2872.84	205.985
2874.15	209.662
2875.47	213.524
2876.78	217.463
2878.1	221.937
2879.42	224.514
2880.73	227.783
2882.04	231.376
2883.36	235.79
2884.67	239.384
2885.99	243.671
2887.3	247.392
2888.61	250.932
2889.93	255.467
2891.24	259.566
2892.55	263.435
2893.87	268.931
2895.18	274.467
2896.49	280.832
2897.8	287.402
2899.11	294.728
2900.42	302.029
2901.74	310.006
2903.05	318.907
2904.36	327.791
2905.67	337.86
2906.98	347.796
2908.29	359.456
2909.6	370.746
2910.91	382.444
2912.22	394.831
2913.53	406.521
2914.83	417.597
2916.14	428.456
2917.45	438.597
2918.76	448.115
2920.07	456.75
2921.37	464.909
2922.68	472.632
2923.99	479.345
2925.3	485.895
2926.6	492.16
2927.91	495.643
2929.22	499.25
2930.52	500.745
2931.83	502.391
2933.13	502.533
2934.44	501.536
2935.74	499.697
2937.05	496.533
2938.35	492.582
2939.66	487.756
2940.96	482.691
2942.27	476.724
2943.57	469.655
2944.87	461.291
2946.18	453.588
2947.48	445.136
2948.78	436.282
2950.09	426.736
2951.39	416.953
2952.69	407.028
2953.99	397.074
2955.29	386.886
2956.6	376.212
2957.9	365.649
2959.2	356.761
2960.5	346.601
2961.8	336.953
2963.1	327.122
2964.4	316.88
2965.7	307.101
2967	297.857
2968.3	289.338
2969.6	280.988
2970.9	272.98
2972.2	264.547
2973.49	257.032
2974.79	248.671
2976.09	240.923
2977.39	233.088
2978.69	225.228
2979.98	217.31
2981.28	209.353
2982.58	201.751
2983.88	194.279
2985.17	186.055
2986.47	178.356
2987.76	170.947
2989.06	163.286
2990.36	155.232
2991.65	147.586
2992.95	139.672
2994.24	132.874
2995.54	125.248
2996.83	118.845
2998.12	112.159
2999.42	105.77
3000.71	99.2846
3002	92.4979
3003.3	86.4231
3004.59	80.9774
3005.88	75.7217
3007.18	70.6469
3008.47	65.7287
3009.76	61.0941
3011.05	56.5771
3012.35	52.1994
3013.64	48.1545
3014.93	44.0502
3016.22	40.1985
3017.51	37.0217
3018.8	33.159
3020.09	30.1454
3021.38	28.0035
3022.67	26.2512
3023.96	24.7098
3025.25	22.5823
3026.54	21.2874
3027.83	19.846
3029.12	18.372
3030.41	17.8079
3031.69	17.1219
3032.98	16.7832
3034.27	16.6983
3035.56	16.6343
3036.85	16.6843
3038.13	17.3055
3039.42	17.7263
3040.71	18.0103
3041.99	18.4933
3043.28	19.6131
3044.57	20.1306
3045.85	20.3811
3047.14	20.9264
3048.42	20.7739
3049.71	20.7579
3050.99	21.1376
3052.28	21.2153
3053.56	21.2924
3054.85	21.2788
3056.13	21.3729
3057.42	21.3407
3058.7	21.5964
3059.98	21.2131
3061.27	21.0323
3062.55	21.0083
3063.83	20.8235
3065.11	19.8863
3066.4	19.3483
3067.68	18.4568
3068.96	17.4214
3070.24	16.7336
3071.52	16.0967
3072.8	15.2558
3074.09	13.9504
3075.37	12.5211
3076.65	11.403
3077.93	10.343
3079.21	9.08012
3080.49	8.76307
3081.77	8.11859
3083.05	6.92571
3084.32	6.70851
3085.61	5.81337
3086.88	5.00675
3088.16	3.79927
3089.44	3.58611
3090.72	2.79458
3092	1.85669
3093.27	1.51081
3094.55	1.61998
3095.83	1.00085
3097.11	0.625287
3098.38	0.619035
3099.66	0.407037
3100.94	0.061223
3102.21	0.232744
3103.49	0.0805455
3104.76	-0.233188
3106.04	0.24018
3107.31	0.716394
3108.59	0.271448
3109.86	0.399025
3111.14	0.271566
3112.41	0.56591
3113.69	0.986434
3114.96	0.898097
3116.23	0.836902
3117.51	1.4673
3118.78	1.60771
3120.05	2.08567
3121.33	2.94287
3122.6	3.81547
3123.87	3.90037
3125.14	4.71675
3126.42	5.01692
3127.69	5.30671
3128.96	5.33056
3130.23	6.4634
3131.5	6.8081
3132.77	7.86257
3134.04	8.95207
3135.31	9.54006
3136.58	10.2794
3137.85	10.8223
3139.12	11.7749
3140.39	12.519
3141.66	13.3664
3142.93	14.0605
3144.2	14.732
3145.47	15.7008
3146.74	17.0308
3148	18.0406
3149.27	19.6808
