#Acq. time (s)=	45
#Accumulations=	2
#Range (cm-¹)=	200...3150
#Windows=	2
#Auto scanning=	Off
#Autofocus=	Off
#Macrospot=	Off
#AutoExposure=	Off
#Spike filter=	Multiple accum.
#Delay time (s)=	0
#Binning=	1
#Readout mode=	Signal
#DeNoise=	Off
#ICS correction=	On
#Dark correction=	Off
#Inst. Process=	Off
#Detector Gain=	Best Dynamic Range
#Detector ADC=	20 kHz       
#Detector temperature (°C)=	-69.85
#Instrument=	LabRAM HR Evol
#Detector=	Synapse
#Objective=	x100
#Grating=	600 gr/mm
#ND Filter=	100%
#Laser (nm)=	532 
#Hole=	100.021
#Range=	Auto
#Laser Pol.=	No
#Raman. Pol.=	No
#Laser Pol. (°)=	-0.0007625
#Raman Pol. (°)=	89.9995
#Collection=	Microscope
#StageXY=	Marzhauser
#StageZ=	Marzhauser
#X (µm)=	-6414
#Y (µm)=	863.4
#Z (µm)=	-64.65
#Full time(mm:ss)=	3:18
#Project=	
#Sample=	
#Site=	
#Title=	Mb_30_27_17_2x_45s_532 nm_x100_100%_600 gr_mm
#Remark=	
#Date=	13.07.2022 09:54
#Acquired=	13.07.2022 09:54:41
#Base:Fit=	10.08.2022 10:40:03
#Base:Sub=	10.08.2022 10:40:17
#Filter:Polynom=	16.08.2022 10:16:15
#AxisType[0]=Intens
#AxisUnit[0]=Cnt
#AxisType[1]=Spectr
#AxisUnit[1]=1/cm
200.563	31.7875
202.377	28.4842
204.194	23.686
206.008	20.2407
207.821	17.7857
209.634	15.5005
211.449	14.1539
213.262	13.4051
215.074	12.7009
216.885	11.706
218.699	11.2574
220.51	9.95601
222.321	10.0217
224.131	8.80648
225.941	7.83371
227.751	8.00137
229.562	7.50835
231.371	6.63935
233.18	7.5642
234.988	7.64129
236.796	6.63694
238.603	5.99446
240.411	5.86233
242.219	5.25086
244.026	5.3567
245.832	6.21041
247.638	6.76657
249.443	7.77951
251.248	8.17239
253.053	10.0404
254.857	11.066
256.661	11.4707
258.465	10.9131
260.268	11.7314
262.071	12.4233
263.874	12.9242
265.678	13.2377
267.48	14.3586
269.282	14.4619
271.083	13.4483
272.884	13.4385
274.684	13.1524
276.484	13.1038
278.284	12.8282
280.084	12.4862
281.883	11.7452
283.682	12.1601
285.48	12.8354
287.276	13.8455
289.074	13.9055
290.871	14.0147
292.668	14.2754
294.465	15.4062
296.261	15.9255
298.057	16.0034
299.853	15.6404
301.648	16.4613
303.443	15.4821
305.237	15.4152
307.032	15.1577
308.823	15.4435
310.617	14.5785
312.41	15.2519
314.203	14.963
315.995	14.6821
317.788	15.3476
319.579	14.2974
321.369	13.4765
323.16	13.4617
324.951	12.6343
326.741	11.8865
328.531	12.2833
330.321	12.7579
332.108	12.8157
333.897	13.4474
335.686	13.9465
337.474	13.8185
339.26	13.5672
341.048	13.0404
342.835	12.4738
344.622	11.6555
346.406	11.4999
348.192	11.3836
349.978	10.9969
351.764	9.89632
353.547	9.79688
355.332	9.86331
357.116	9.04706
358.901	7.55209
360.682	8.11264
362.466	8.61077
364.249	8.69261
366.03	8.84163
367.812	7.81013
369.594	8.20154
371.374	8.32917
373.155	9.78412
374.936	10.2284
376.715	9.04668
378.495	9.49399
380.273	9.88612
382.053	10.8569
383.832	11.851
385.609	11.4791
387.388	10.3096
389.164	9.58163
390.942	10.2409
392.72	10.1809
394.495	10.5614
396.272	9.41636
398.047	9.44989
399.823	9.70541
401.597	10.2702
403.372	8.88634
405.145	8.64403
406.92	8.45331
408.693	7.81114
410.467	8.57199
412.239	9.5032
414.012	9.46958
415.783	9.42274
417.556	9.56973
419.327	9.14474
421.099	9.27462
422.869	9.11197
424.64	8.8909
426.409	7.90122
428.18	6.73271
429.948	6.39684
431.718	5.3494
433.486	5.64359
435.253	5.44043
437.022	4.92545
438.789	3.85038
440.558	4.41904
442.324	4.97711
444.089	4.78313
445.857	4.43295
447.622	4.58003
449.386	5.0313
451.153	5.51416
452.917	5.40154
454.682	5.5479
456.446	6.33952
458.208	7.15298
459.973	7.59779
461.735	7.49574
463.497	7.22532
465.259	8.25514
467.022	10.1456
468.783	11.4243
470.544	11.5466
472.306	10.8474
474.066	10.6972
475.825	10.6632
477.585	11.7315
479.346	12.7956
481.104	13.3856
482.862	14.2537
484.62	14.9543
486.38	16.3406
488.137	17.4067
489.894	17.5785
491.65	17.7454
493.407	18.9097
495.164	19.1407
496.92	19.6677
498.675	19.861
500.43	19.719
502.184	18.8379
503.939	19.9322
505.694	18.7803
507.448	18.82
509.201	18.5648
510.954	17.5241
512.706	16.7438
514.459	16.72
516.21	16.8076
517.962	16.9994
519.715	16.492
521.466	16.7189
523.216	16.49
524.966	16.4904
526.716	16.9148
528.466	16.9929
530.215	17.2152
531.964	16.808
533.712	16.2881
535.46	15.5019
537.208	15.3811
538.955	15.402
540.703	14.5864
542.449	14.2302
544.196	13.0174
545.942	12.0362
547.688	11.8254
549.433	12.1381
551.178	13.1331
552.923	12.7024
554.667	12.1001
556.412	11.257
558.155	10.1085
559.899	9.14322
561.642	9.76739
563.385	9.75192
565.127	10.2378
566.867	9.42269
568.609	8.88769
570.35	8.25028
572.092	7.36235
573.832	7.6594
575.573	7.17847
577.313	6.53759
579.053	5.76709
580.79	6.12768
582.529	5.83154
584.268	4.87178
586.006	4.33595
587.745	3.80154
589.482	2.73425
591.218	2.99604
592.955	2.19487
594.692	2.31367
596.428	2.36465
598.164	3.26623
599.898	3.91885
601.634	4.08587
603.369	4.46592
605.104	4.90485
606.836	4.95334
608.57	6.08936
610.304	6.16047
612.037	5.71867
613.769	5.42351
615.501	5.04657
617.234	5.15246
618.966	4.30863
620.696	4.03521
622.427	4.72853
624.159	5.28526
625.887	4.99412
627.618	4.14553
629.348	3.41014
631.076	3.98272
632.806	4.70005
634.535	5.09812
636.262	4.90347
637.99	4.19205
639.716	3.85199
641.444	4.67743
643.172	5.18137
644.897	5.97416
646.624	5.28911
648.348	6.05865
650.075	6.8383
651.801	6.69307
653.524	6.59114
655.249	6.75939
656.972	6.94724
658.697	7.27849
660.419	6.65693
662.143	6.7765
663.865	7.23299
665.588	7.32109
667.309	8.12924
669.032	7.464
670.752	7.68235
672.474	7.96301
674.194	7.74369
675.915	8.4089
677.634	9.31855
679.355	10.6728
681.073	11.2265
682.793	12.4066
684.511	13.6981
686.23	14.0373
687.947	15.2588
689.664	15.967
691.382	16.7771
693.098	17.1266
694.816	18.004
696.531	18.4837
698.247	19.5286
699.963	20.5491
701.678	21.5175
703.392	21.9221
705.108	22.8879
706.821	24.9106
708.534	25.6784
710.249	25.8458
711.962	26.0876
713.674	27.0912
715.388	28.2442
717.099	29.7248
718.81	30.468
720.523	31.0051
722.234	31.3568
723.944	32.2661
725.654	32.8922
727.365	33.9469
729.075	33.8371
730.784	34.3429
732.492	35.2515
734.202	36.3994
735.91	37.3824
737.618	37.658
739.325	37.8832
741.034	38.0304
742.741	39.0953
744.447	39.7042
746.153	39.5995
747.859	41.6416
749.564	42.0436
751.271	43.9189
752.976	45.1999
754.681	45.7236
756.385	46.4729
758.088	47.5408
759.792	47.8845
761.495	49.7767
763.2	51.4104
764.902	53.5888
766.604	54.2563
768.306	55.3793
770.008	56.8613
771.709	57.9745
773.41	58.9469
775.11	59.7842
776.811	62.0041
778.51	62.0978
780.21	63.4856
781.909	64.4314
783.608	64.5753
785.307	63.9361
787.005	64.4719
788.703	64.898
790.401	67.3745
792.098	68.9697
793.795	69.1141
795.492	68.7324
797.188	69.2244
798.884	69.8909
800.58	69.509
802.276	70.2209
803.971	69.9678
805.665	69.2324
807.36	69.0186
809.054	68.6693
810.748	68.2001
812.441	68.4649
814.135	67.9272
815.826	69.132
817.518	68.8638
819.21	68.3256
820.902	68.7981
822.594	68.9978
824.285	68.4686
825.976	68.4948
827.665	68.0297
829.355	67.0433
831.045	66.4139
832.735	66.5756
834.424	66.175
836.111	65.3645
837.8	63.8444
839.488	62.7544
841.177	62.5903
842.864	62.6231
844.55	61.0491
846.237	61.7192
847.924	60.3648
849.61	59.8524
851.295	58.307
852.98	57.6497
854.666	56.7677
856.349	56.2206
858.034	55.5226
859.719	55.4193
861.403	54.716
863.085	53.8129
864.769	52.5247
866.452	51.6766
868.133	51.5726
869.816	51.0545
871.498	52.2116
873.179	51.7747
874.86	52.5287
876.54	50.8404
878.221	49.5475
879.902	48.3729
881.58	49.0538
883.26	48.5115
884.938	48.1996
886.618	47.4315
888.297	46.5754
889.974	46.0743
891.653	45.7864
893.329	45.2251
895.007	44.8487
896.683	44.9923
898.36	44.6556
900.035	44.7557
901.712	43.7225
903.387	43.3602
905.063	42.8034
906.737	41.4055
908.412	40.6608
910.085	40.6548
911.76	39.2013
913.433	38.7106
915.107	37.7771
916.779	36.4778
918.452	35.7798
920.124	35.4527
921.797	35.2313
923.467	34.3353
925.138	34.7232
926.81	33.2338
928.48	32.4589
930.151	32.798
931.82	31.5574
933.489	32.4731
935.16	32.4648
936.828	32.1159
938.496	31.5652
940.165	31.4014
941.833	30.8571
943.5	30.4093
945.168	30.0493
946.834	30.5804
948.5	30.216
950.168	32.7721
951.834	32.8684
953.499	32.546
955.163	33.5466
956.83	32.906
958.494	32.9787
960.158	31.7796
961.821	31.8442
963.487	32.1387
965.15	33.5335
966.812	33.0886
968.474	32.9882
970.138	32.7486
971.8	33.0944
973.461	32.6833
975.123	32.9979
976.783	32.4429
978.446	32.3003
980.106	32.2253
981.766	31.2196
983.425	31.0637
985.084	30.8386
986.743	30.9175
988.402	31.0555
990.06	31.5491
991.72	31.8762
993.378	31.6026
995.035	30.2314
996.692	29.4116
998.349	27.9406
1000.01	27.5457
1001.66	27.34
1003.32	26.266
1004.97	24.7643
1006.63	26.1142
1008.28	27.2956
1009.94	28.3015
1011.59	31.4736
1013.25	33.0942
1014.9	36.0139
1016.55	38.7665
1018.21	40.0282
1019.86	40.6854
1021.51	42.4713
1023.16	44.5623
1024.81	46.8522
1026.47	48.6322
1028.12	50.6504
1029.77	53.1208
1031.42	53.1615
1033.07	53.4044
1034.72	52.8394
1036.37	53.5023
1038.02	53.0872
1039.67	52.7183
1041.31	52.7733
1042.96	53.7379
1044.61	54.5348
1046.26	55.1673
1047.91	55.2225
1049.55	53.8915
1051.2	52.6134
1052.84	52.0244
1054.49	49.9724
1056.14	48.2244
1057.78	46.549
1059.43	44.4183
1061.07	42.5846
1062.72	40.6705
1064.36	38.6808
1066	37.1222
1067.65	35.6434
1069.29	32.7375
1070.93	30.61
1072.58	27.0511
1074.22	23.4557
1075.86	21.1889
1077.5	18.3611
1079.14	16.4697
1080.78	15.4297
1082.42	14.5046
1084.06	13.372
1085.7	12.3565
1087.34	13.5542
1088.98	14.8525
1090.62	14.1237
1092.26	15.1093
1093.9	16.5474
1095.54	17.3041
1097.17	18.8819
1098.81	19.107
1100.45	19.0371
1102.09	19.8924
1103.72	20.6348
1105.36	20.619
1106.99	19.6303
1108.63	18.7991
1110.27	19.5415
1111.9	19.4039
1113.53	18.9461
1115.17	18.5619
1116.8	19.9734
1118.43	20.8363
1120.07	21.3856
1121.7	22.1577
1123.33	22.8782
1124.97	23.4999
1126.6	22.9825
1128.23	22.2818
1129.86	21.4047
1131.49	20.3622
1133.12	19.28
1134.75	18.7563
1136.38	17.8931
1138.01	17.0912
1139.64	16.8209
1141.27	16.1406
1142.9	15.9561
1144.53	15.3149
1146.16	14.0232
1147.78	13.8507
1149.41	13.2476
1151.04	11.378
1152.67	10.9154
1154.29	8.73281
1155.92	8.80296
1157.54	9.35414
1159.17	8.93891
1160.8	8.99911
1162.42	8.41973
1164.05	7.85882
1165.67	7.61114
1167.29	7.38206
1168.92	6.87797
1170.54	7.06268
1172.16	7.34283
1173.79	8.97528
1175.41	9.76446
1177.03	10.1182
1178.65	10.4184
1180.28	11.032
1181.9	11.2629
1183.52	10.9969
1185.14	10.2851
1186.76	9.66264
1188.38	9.79991
1190	11.2727
1191.62	12.413
1193.24	12.4095
1194.86	12.9125
1196.47	14.0959
1198.09	16.8091
1199.71	18.4895
1201.33	18.645
1202.95	18.5651
1204.56	20.1507
1206.18	19.9321
1207.8	20.2844
1209.41	21.756
1211.03	22.5728
1212.64	23.8677
1214.26	25.7792
1215.87	27.3906
1217.49	28.4564
1219.1	29.4385
1220.71	30.7151
1222.33	32.5493
1223.94	35.0448
1225.55	35.7306
1227.16	37.3359
1228.78	39.6324
1230.39	39.8504
1232	41.0329
1233.61	42.4991
1235.22	43.827
1236.83	46.451
1238.44	48.0731
1240.05	48.4597
1241.66	49.3454
1243.27	50.1755
1244.88	52.1481
1246.49	52.8877
1248.1	53.8223
1249.71	55.574
1251.32	57.7179
1252.92	58.2733
1254.53	59.5127
1256.14	60.5051
1257.74	62.1929
1259.35	62.9974
1260.96	63.3891
1262.56	63.3936
1264.17	63.2595
1265.77	63.3501
1267.38	64.3293
1268.98	64.5562
1270.59	64.9414
1272.19	65.8061
1273.79	66.0919
1275.4	66.3467
1277	67.0249
1278.6	66.8739
1280.21	66.0159
1281.81	65.3987
1283.41	65.684
1285.01	66.9002
1286.61	66.3192
1288.21	66.5248
1289.81	68.0685
1291.41	68.1699
1293.01	68.6962
1294.61	69.3756
1296.21	69.3106
1297.81	68.5716
1299.41	68.867
1301.01	69.456
1302.6	70.0684
1304.2	69.6734
1305.8	69.7093
1307.4	70.2255
1308.99	70.3668
1310.59	69.9236
1312.19	69.5273
1313.78	69.8289
1315.38	70.9412
1316.97	71.3269
1318.57	70.3545
1320.16	71.3334
1321.76	72.6325
1323.35	73.5244
1324.94	74.2196
1326.54	74.281
1328.13	74.8747
1329.72	75.6869
1331.32	75.4131
1332.91	75.8746
1334.5	76.1568
1336.09	76.8904
1337.68	76.1077
1339.27	75.4507
1340.87	75.2409
1342.45	74.495
1344.04	74.0382
1345.64	73.7047
1347.22	73.8014
1348.81	72.4958
1350.4	72.3338
1351.99	72.5496
1353.58	71.346
1355.17	70.2505
1356.75	70.1988
1358.34	68.7851
1359.93	67.8457
1361.51	67.6694
1363.1	66.416
1364.69	65.6326
1366.27	64.4095
1367.86	63.6384
1369.44	63.1615
1371.03	62.0555
1372.61	60.7146
1374.2	60.2636
1375.78	58.91
1377.37	57.6181
1378.95	56.6629
1380.53	55.5122
1382.11	53.3553
1383.7	53.2389
1385.28	52.6852
1386.86	51.175
1388.44	49.6194
1390.02	48.5703
1391.6	48.0713
1393.19	47.9509
1394.77	47.1026
1396.35	45.541
1397.93	44.8
1399.51	45.7058
1401.08	45.0629
1402.66	43.9271
1404.24	43.1881
1405.82	43.511
1407.4	43.4092
1408.97	43.1856
1410.55	43.9452
1412.13	44.0715
1413.71	44.0459
1415.28	44.7182
1416.86	44.8632
1418.43	46.5463
1420.01	47.6843
1421.59	49.6757
1423.16	51.4473
1424.73	53.9409
1426.31	56.4401
1427.88	57.8417
1429.46	60.2389
1431.03	62.5255
1432.6	64.8145
1434.18	67.3561
1435.75	69.0316
1437.32	70.8092
1438.89	73.0279
1440.46	74.0598
1442.04	75.3271
1443.61	77.29
1445.18	78.7469
1446.75	80.3459
1448.32	81.9942
1449.89	83.4715
1451.46	83.2309
1453.03	83.3269
1454.6	83.2897
1456.16	83.8655
1457.73	83.7839
1459.3	83.0422
1460.87	82.6982
1462.44	84.3522
1464	84.9345
1465.57	85.0948
1467.14	85.2765
1468.7	86.1038
1470.27	86.0949
1471.83	85.9807
1473.4	86.2406
1474.96	86.3024
1476.53	86.7651
1478.09	86.7073
1479.66	85.6912
1481.22	85.1454
1482.78	84.7263
1484.35	84.3483
1485.91	82.2514
1487.47	81.4383
1489.04	80.9581
1490.6	79.343
1492.16	78.5033
1493.72	77.7165
1495.28	77.4179
1496.84	76.5557
1498.4	75.2399
1499.96	74.0685
1501.52	71.9789
1503.08	71.4097
1504.64	69.5476
1506.2	66.9165
1507.76	65.3409
1509.32	63.4391
1510.88	61.5669
1512.44	57.9033
1513.99	55.2021
1515.55	53.4309
1517.11	50.3892
1518.66	48.0901
1520.22	46.1151
1521.78	44.0024
1523.33	42.6477
1524.89	41.3285
1526.44	39.0809
1528	37.1222
1529.55	35.6435
1531.11	35.2672
1532.66	34.3051
1534.21	33.8067
1535.77	32.4124
1537.32	32.3888
1538.87	32.7909
1540.43	33.8016
1541.98	34.1925
1543.53	34.119
1545.08	35.2268
1546.63	35.9761
1548.18	36.843
1549.74	37.4707
1551.29	38.8465
1552.84	39.901
1554.39	40.9232
1555.94	41.255
1557.48	42.4671
1559.03	44.0139
1560.58	44.0193
1562.13	44.7688
1563.68	45.2094
1565.23	47.4787
1566.78	48.6215
1568.32	49.4366
1569.87	50.2037
1571.42	51.6413
1572.96	52.1993
1574.51	53.1522
1576.05	54.439
1577.6	55.7044
1579.14	56.5961
1580.69	58.1329
1582.24	58.4489
1583.78	58.8144
1585.32	58.9568
1586.87	59.9698
1588.41	61.1859
1589.95	62.4612
1591.5	63.9452
1593.04	63.6957
1594.58	63.9427
1596.12	64.307
1597.67	65.3305
1599.21	65.4708
1600.75	66.1626
1602.29	65.9202
1603.83	64.6377
1605.37	63.7325
1606.91	64.1369
1608.45	63.996
1609.99	63.0461
1611.53	62.9921
1613.07	62.9756
1614.6	63.4585
1616.14	63.5566
1617.68	64.1298
1619.22	64.7373
1620.75	65.2935
1622.29	65.7708
1623.83	65.9123
1625.37	66.588
1626.9	68.1077
1628.44	69.6568
1629.97	70.5046
1631.51	71.8517
1633.04	73.0618
1634.58	75.6861
1636.11	76.8558
1637.65	77.7722
1639.18	79.1874
1640.72	80.9893
1642.25	82.326
1643.78	83.5572
1645.31	85.2889
1646.85	87.0366
1648.38	88.5495
1649.91	88.5272
1651.44	90.9229
1652.97	91.1843
1654.5	91.6418
1656.03	91.3452
1657.56	91.3658
1659.1	90.0512
1660.62	90.2607
1662.15	89.8214
1663.68	89.8124
1665.21	88.1325
1666.74	86.4979
1668.27	84.0121
1669.8	82.6052
1671.32	81.1676
1672.85	78.2351
1674.38	76.7344
1675.91	72.8153
1677.43	70.0912
1678.96	67.6232
1680.49	64.5939
1682.01	62.6906
1683.54	60.5035
1685.06	56.9528
1686.59	53.7332
1688.11	51.3053
1689.64	48.2154
1691.16	45.2865
1692.68	42.8896
1694.21	39.9937
1695.73	38.2205
1697.25	36.4257
1698.78	34.7482
1700.3	33.233
1701.82	31.8243
1703.34	30.7435
1704.86	28.9694
1706.39	28.2906
1707.91	27.184
1709.43	26.1176
1710.95	25.7333
1712.47	23.745
1713.99	22.3485
1715.51	21.6314
1717.02	20.8382
1718.54	19.9508
1720.06	19.9514
1721.58	19.049
1723.1	17.7894
1724.62	16.9067
1726.13	16.0738
1727.65	16.7709
1729.17	15.2602
1730.68	14.9936
1732.2	14.1183
1733.72	14.3275
1735.23	14.0944
1736.75	14.5716
1738.26	13.8736
1739.78	13.5825
1741.29	13.4336
1742.81	13.8688
1744.32	13.3602
1745.84	12.8582
1747.35	11.991
1748.86	11.217
1750.37	11.1831
1751.89	9.68801
1753.4	9.06206
1754.91	8.83471
1756.42	7.56143
1757.93	7.11956
1759.45	6.12352
1760.96	6.10818
1762.47	5.82144
1763.98	5.45884
1765.49	4.71845
1767	4.93642
1768.51	4.53601
1770.02	4.32203
1771.53	4.34405
1773.03	3.89309
1774.54	3.47577
1776.05	3.01884
1777.56	2.64791
1779.07	2.56258
1780.57	2.32319
1782.08	2.20533
1783.59	1.74564
1785.09	1.59209
1786.6	1.68856
1788.11	0.817782
1789.61	0.829709
1791.12	0.684704
1792.62	0.738199
1794.13	1.07936
1795.63	1.51304
1797.13	1.64817
1798.64	2.36251
1800.14	2.57844
1801.65	2.7624
1803.15	2.99772
1804.65	2.23394
1806.15	2.81062
1807.66	3.31171
1809.16	3.78548
1810.66	3.77108
1812.16	4.07954
1813.66	4.3036
1815.16	4.84466
1816.66	4.82845
1818.16	4.03853
1819.66	3.57966
1821.16	3.36448
1822.66	3.62212
1824.16	3.53007
1825.66	3.72695
1827.16	3.99732
1828.66	3.96574
1830.16	4.32021
1831.65	5.08838
1833.15	5.44424
1834.65	4.9925
1836.14	5.44205
1837.64	5.04495
1839.14	4.74463
1840.63	4.38137
1842.13	4.42246
1843.62	4.27664
1845.12	4.39122
1846.61	4.16379
1848.11	4.11439
1849.6	3.96228
1851.1	4.45185
1852.59	4.66163
1854.08	4.68575
1855.58	4.88909
1857.07	5.09724
1858.56	5.00238
1860.05	4.48482
1861.55	4.63771
1863.04	4.04562
1864.53	4.03789
1866.02	3.94039
1867.51	4.95826
1869	5.06894
1870.49	5.46676
1871.98	5.47263
1873.47	5.48344
1874.96	4.59272
1876.45	4.16503
1877.94	3.97118
1879.43	3.4699
1880.92	4.34189
1882.41	4.40747
1882.51	4.07204
1884	4.56275
1885.5	4.25158
1886.99	3.84842
1888.48	4.34787
1889.98	3.53491
1891.47	3.38239
1892.96	3.56885
1894.46	3.30127
1895.95	2.92899
1897.44	2.96542
1898.93	2.8242
1900.42	2.94935
1901.91	2.50292
1903.41	2.54566
1904.9	2.39466
1906.39	1.91002
1907.88	1.88868
1909.37	2.05139
1910.86	2.37648
1912.35	2.42797
1913.83	2.11538
1915.32	2.37367
1916.81	2.20183
1918.3	2.08936
1919.79	2.11193
1921.27	2.38395
1922.76	2.03401
1924.25	2.48663
1925.74	2.40312
1927.22	2.15416
1928.71	2.41072
1930.19	1.98507
1931.68	2.03064
1933.17	1.91323
1934.65	2.54139
1936.14	2.58891
1937.62	3.14703
1939.11	3.48721
1940.59	3.90183
1942.07	4.16924
1943.56	4.18558
1945.04	4.18339
1946.52	4.07247
1948.01	3.55477
1949.49	4.12322
1950.97	4.33112
1952.45	4.36659
1953.93	4.92768
1955.42	4.66328
1956.9	4.67841
1958.38	4.93663
1959.86	4.51441
1961.34	4.89989
1962.82	5.1567
1964.3	4.15145
1965.78	3.85254
1967.26	3.4813
1968.74	3.01522
1970.21	3.177
1971.69	3.76198
1973.17	3.83472
1974.65	4.09289
1976.13	4.47179
1977.6	4.43598
1979.08	4.65751
1980.56	5.29932
1982.03	4.96713
1983.51	4.94417
1984.99	4.71488
1986.46	3.57827
1987.94	3.28995
1989.41	3.49484
1990.89	3.48939
1992.36	2.94074
1993.84	2.7943
1995.31	2.65927
1996.78	2.1467
1998.26	2.06013
1999.73	1.62494
2001.2	1.58968
2002.68	1.79298
2004.15	1.70961
2005.62	1.72595
2007.09	1.63398
2008.56	1.80554
2010.04	1.59163
2011.51	1.51309
2012.98	1.53442
2014.45	2.55616
2015.92	2.92162
2017.39	2.55232
2018.86	2.84108
2020.33	3.03458
2021.8	3.01515
2023.26	3.32976
2024.73	3.61262
2026.2	3.68165
2027.67	3.75408
2029.14	3.77319
2030.61	3.99298
2032.07	3.81022
2033.54	3.93683
2035.01	4.54977
2036.47	4.7522
2037.94	4.83371
2039.4	4.48627
2040.87	4.73964
2042.33	4.69982
2043.8	4.91375
2045.27	5.14587
2046.73	6.40835
2048.19	6.24159
2049.66	6.54101
2051.12	6.02961
2052.59	6.54117
2054.05	6.31901
2055.51	6.2987
2056.97	6.34704
2058.44	6.18551
2059.9	5.69255
2061.36	6.55339
2062.82	6.50552
2064.28	5.86772
2065.74	5.20868
2067.21	5.12625
2068.67	5.36682
2070.13	4.91309
2071.59	4.62862
2073.05	4.6974
2074.51	5.61675
2075.96	5.69661
2077.42	6.20174
2078.88	6.27714
2080.34	7.14718
2081.8	7.48333
2083.26	7.95024
2084.72	8.88453
2086.17	9.02965
2087.63	9.05683
2089.09	8.82078
2090.54	9.06943
2092	9.37117
2093.45	10.14
2094.91	11.1242
2096.37	10.995
2097.82	12.4381
2099.28	12.9387
2100.73	14.1254
2102.19	14.686
2103.64	14.8179
2105.09	14.8917
2106.55	16.2721
2108	17.8103
2109.45	17.7872
2110.91	18.5665
2112.36	19.0524
2113.81	20.4003
2115.26	21.2839
2116.72	22.3454
2118.17	24.1073
2119.62	25.5801
2121.07	26.0995
2122.52	27.3452
2123.97	28.7057
2125.42	30.4686
2126.87	31.7704
2128.32	34.216
2129.77	35.6502
2131.22	37.0227
2132.67	38.5834
2134.11	40.7206
2135.56	41.2442
2137.01	42.5328
2138.46	44.7759
2139.91	46.5014
2141.35	49.0659
2142.8	50.1826
2144.25	52.672
2145.7	55.2235
2147.14	57.7994
2148.59	59.3337
2150.03	60.4918
2151.48	61.8675
2152.92	63.7052
2154.37	64.4479
2155.81	65.8823
2157.26	67.5396
2158.7	68.7657
2160.15	70.8264
2161.59	72.8296
2163.03	73.6878
2164.47	75.0125
2165.92	77.3815
2167.36	78.3473
2168.8	79.5187
2170.24	81.0928
2171.69	81.1449
2173.13	80.9367
2174.57	80.2179
2176.01	80.1294
2177.45	80.4129
2178.89	80.938
2180.33	80.4668
2181.77	78.8773
2183.21	78.1972
2184.65	76.9891
2186.09	76.8776
2187.53	75.4523
2188.97	74.2182
2190.4	72.5863
2191.84	71.5377
2193.28	70.4556
2194.72	68.5865
2196.16	67.5158
2197.59	66.2918
2199.03	64.5708
2200.47	62.4069
2201.9	59.8491
2203.34	57.7095
2204.77	56.3225
2206.21	54.6428
2207.64	52.3777
2209.08	51.2508
2210.51	49.8038
2211.95	47.223
2213.38	45.0997
2214.82	43.1273
2216.25	42.0253
2217.68	39.9271
2219.12	37.3551
2220.55	35.6395
2221.98	34.5314
2223.41	33.7352
2224.85	31.9878
2226.28	30.7567
2227.71	29.4957
2229.14	28.2365
2230.57	26.886
2232	25.7216
2233.43	24.7109
2234.86	23.8867
2236.29	23.8311
2237.72	23.73
2239.15	22.4168
2240.58	21.4647
2242.01	20.1942
2243.44	18.9225
2244.87	17.9981
2246.29	17.7528
2247.72	16.873
2249.15	16.4118
2250.58	15.4802
2252.01	14.6389
2253.43	13.9013
2254.86	14.054
2256.29	13.826
2257.71	13.2222
2259.14	11.8972
2260.56	11.9491
2261.99	11.4691
2263.41	12.2003
2264.84	11.2586
2266.26	11.5953
2267.69	11.7995
2269.11	11.2589
2270.53	10.6531
2271.96	10.6183
2273.38	11.5504
2274.8	11.9699
2276.23	12.0236
2277.65	11.6886
2279.07	11.4111
2280.49	11.1387
2281.91	10.2972
2283.34	9.94934
2284.76	9.93645
2286.18	10.2885
2287.6	9.74644
2289.02	9.27016
2290.44	9.2203
2291.86	9.21214
2293.28	8.32061
2294.7	7.25644
2296.12	6.68737
2297.54	7.06432
2298.96	7.20623
2300.37	7.77644
2301.79	8.20548
2303.21	8.09723
2304.63	8.27512
2306.04	8.92407
2307.46	9.21281
2308.88	9.40044
2310.3	8.6934
2311.71	8.37429
2313.13	8.64199
2314.54	8.63412
2315.96	8.6928
2317.37	8.26364
2318.79	8.02428
2320.2	7.91815
2321.62	7.55041
2323.03	7.66772
2324.45	7.07531
2325.86	6.85619
2327.27	6.40052
2328.69	6.46178
2330.1	6.71244
2331.51	6.56396
2332.92	6.61098
2334.34	6.35144
2335.75	5.64709
2337.16	6.06459
2338.57	5.76223
2339.98	5.35346
2341.39	5.52314
2342.8	4.8921
2344.21	4.85123
2345.63	3.86344
2347.04	3.05048
2348.45	2.69173
2349.85	2.11817
2351.26	1.14727
2352.67	0.730672
2354.08	1.17625
2355.49	0.557814
2356.9	0.148232
2358.3	-0.323083
2359.71	-0.401257
2361.12	-0.371282
2362.53	-0.97492
2363.93	-0.758323
2365.34	0.0507031
2366.75	0.551651
2368.15	1.20756
2369.56	1.19118
2370.97	1.49288
2372.37	1.37312
2373.77	1.29438
2375.18	2.13963
2376.59	2.84662
2377.99	2.01612
2379.39	1.98831
2380.8	1.54472
2382.2	1.54355
2383.6	1.6151
2385.01	1.14967
2386.41	0.402556
2387.81	1.09526
2389.21	1.32234
2390.62	0.516066
2392.02	0.530332
2393.42	-0.187614
2394.82	-0.662854
2396.22	-0.214249
2397.62	-0.498847
2399.02	-0.482708
2400.42	-0.932299
2401.82	-0.890481
2403.22	-0.568151
2404.62	-0.911164
2406.02	-0.580393
2407.42	0.155095
2408.82	0.819089
2410.22	0.380825
2411.62	-0.0812029
2413.01	-0.0586377
2414.41	1.08985
2415.81	1.39814
2417.21	1.45192
2418.6	1.53717
2420	1.89136
2421.4	2.78482
2422.79	3.32282
2424.19	4.1481
2425.59	3.75918
2426.98	3.40215
2428.38	4.04462
2429.77	5.01324
2431.17	5.58387
2432.56	6.05582
2433.95	6.55259
2435.35	7.26865
2436.74	7.64976
2438.14	8.30922
2439.53	8.16061
2440.92	8.24196
2442.31	7.75185
2443.71	7.53323
2445.1	7.40139
2446.49	7.08839
2447.88	6.83622
2449.27	7.05512
2450.67	6.24672
2452.06	6.03395
2453.45	5.97391
2454.84	5.88248
2456.23	5.32136
2457.62	5.77226
2459.01	4.9577
2460.4	4.61738
2461.79	4.72177
2463.18	4.34532
2464.57	4.36892
2465.95	4.42846
2467.34	4.11663
2468.73	4.45966
2470.12	4.25721
2471.5	5.08221
2472.89	4.95302
2474.28	4.88865
2475.67	4.5242
2477.05	4.8138
2478.44	5.05462
2479.82	4.47092
2481.21	4.15002
2482.6	4.16136
2483.98	3.94762
2485.37	3.36221
2486.75	2.66887
2488.13	2.56608
2489.52	3.29123
2490.9	3.6168
2492.29	3.28377
2493.67	3.23399
2495.05	2.70744
2496.44	3.32487
2497.82	4.30615
2499.2	4.29949
2500.58	3.85856
2501.97	3.86861
2503.35	3.77825
2504.73	3.76779
2506.11	3.30068
2507.49	3.20949
2508.87	2.98357
2510.25	2.62542
2511.63	2.88427
2513.01	3.16915
2514.39	3.60205
2515.77	4.02314
2517.15	4.22866
2518.53	3.96786
2519.91	4.08259
2521.29	4.20983
2522.67	4.55812
2524.05	4.4432
2525.42	4.31664
2526.8	5.12775
2528.18	5.00373
2529.55	5.31071
2530.93	5.24513
2532.31	5.53417
2533.69	5.18646
2535.06	5.96411
2536.44	5.87821
2537.81	5.9369
2539.19	6.25835
2540.56	6.4929
2541.94	5.95939
2543.31	5.71564
2544.69	5.43571
2546.06	5.45525
2547.44	4.94147
2548.81	4.10038
2550.18	4.02576
2551.56	4.24859
2552.93	4.1165
2554.3	3.99102
2555.67	4.47577
2557.04	4.83075
2558.42	5.41561
2559.79	5.71701
2561.16	5.53657
2562.53	5.7704
2563.9	5.84044
2565.27	5.99488
2566.64	5.69855
2568.01	5.01784
2569.38	4.97358
2570.75	5.40349
2572.12	5.95256
2573.49	6.34374
2574.86	6.64176
2576.23	7.02048
2577.6	7.11571
2578.97	7.09544
2580.33	7.59887
2581.7	7.25467
2583.07	7.06788
2584.44	7.23361
2585.8	6.97938
2587.17	7.1826
2588.54	7.8539
2589.9	7.00631
2591.27	6.93736
2592.64	6.71739
2594	6.65327
2595.37	6.71713
2596.73	7.32532
2598.1	6.8979
2599.46	6.6767
2600.83	7.24252
2602.19	7.26256
2603.55	7.6201
2604.92	7.25809
2606.28	7.35129
2607.64	6.91548
2609.01	6.41098
2610.37	6.11075
2611.73	5.58122
2613.09	5.81523
2614.46	5.94647
2615.82	5.83158
2617.18	6.23685
2618.54	6.55758
2619.9	6.40718
2621.26	6.19362
2622.62	7.08114
2623.98	7.68305
2625.34	7.57392
2626.7	7.31265
2628.06	7.38066
2629.42	7.16112
2630.78	6.8478
2632.14	6.66723
2633.5	6.58151
2634.86	6.35751
2636.21	6.23124
2637.57	6.50771
2638.93	6.47896
2640.29	6.27562
2641.64	6.18768
2643	5.54319
2644.36	5.44476
2645.71	5.20615
2647.07	4.8439
2648.43	4.74647
2649.78	4.91797
2651.14	5.55009
2652.49	5.80714
2653.85	5.8593
2655.2	6.1033
2656.56	5.93155
2657.91	5.14674
2659.26	6.08299
2660.62	6.09223
2661.97	6.00484
2663.32	6.54092
2664.68	6.93704
2666.03	6.4907
2667.38	7.62535
2668.74	7.91791
2670.09	7.53336
2671.44	7.78169
2672.79	8.10586
2674.14	8.28193
2675.49	8.18575
2676.84	8.65897
2678.19	9.19315
2679.54	9.47316
2680.89	10.011
2682.24	10.2467
2683.59	10.2912
2684.94	10.7919
2686.29	10.5501
2687.64	10.8362
2688.99	11.2363
2690.34	11.7212
2691.69	11.3708
2693.03	10.2945
2694.38	10.1707
2695.73	10.5104
2697.08	10.7245
2698.42	10.3054
2699.77	10.3333
2701.12	10.0126
2702.46	9.48331
2703.81	9.55099
2705.15	9.37931
2706.5	8.66352
2707.85	8.92348
2709.19	9.02748
2710.54	8.88921
2711.88	8.75138
2713.22	8.77775
2714.57	8.8888
2715.91	9.31533
2717.26	9.19211
2718.6	9.06072
2719.94	9.13266
2721.29	8.90696
2722.63	8.47758
2723.97	8.78273
2725.31	8.32945
2726.66	8.79524
2728	8.51034
2729.34	8.99495
2730.68	9.07816
2732.02	8.67378
2733.36	8.48363
2734.7	8.46758
2736.04	8.35736
2737.38	8.94547
2738.72	9.58795
2740.06	9.55844
2741.4	9.67136
2742.74	9.68141
2744.08	10.0457
2745.42	9.73094
2746.76	9.05062
2748.09	8.45943
2749.43	8.03484
2750.77	7.47366
2752.11	7.06502
2753.45	6.54391
2754.78	6.2273
2756.12	6.0354
2757.46	6.02467
2758.79	5.24115
2760.13	5.36865
2761.46	6.28118
2762.8	5.99728
2764.14	5.6444
2765.47	5.09275
2766.8	5.15202
2768.14	5.02236
2769.47	5.29519
2770.81	5.28208
2772.14	5.24067
2773.48	4.61403
2774.81	4.83153
2776.14	4.52766
2777.48	4.07955
2778.81	3.88689
2780.14	4.14424
2781.47	4.04771
2782.8	3.914
2784.14	3.92622
2785.47	3.62767
2786.8	3.09221
2788.13	2.66455
2789.46	2.52268
2790.79	2.5256
2792.12	2.08127
2793.45	2.62213
2794.78	1.7027
2796.11	1.6013
2797.44	1.26401
2798.77	1.25804
2800.1	1.24585
2801.43	1.41771
2802.76	1.24775
2804.09	1.05023
2805.41	1.10482
2806.74	0.763317
2808.07	0.58393
2809.4	0.0493372
2810.72	-0.412848
2812.05	-1.12938
2813.38	-1.58658
2814.71	-1.18747
2816.03	-0.988845
2817.36	0.0640383
2818.68	0.798189
2820.01	1.12107
2821.33	1.41409
2822.66	2.32277
2823.98	3.3314
2825.31	4.64163
2826.63	6.51714
2827.96	7.28696
2829.28	8.24762
2830.6	9.60347
2831.93	11.5582
2833.25	13.3754
2834.57	14.9436
2835.9	17.0344
2837.22	18.8815
2838.54	21.0648
2839.86	23.5041
2841.18	26.6924
2842.5	29.6002
2843.83	32.5747
2845.15	36.2686
2846.47	39.6131
2847.79	42.8827
2849.11	46.5191
2850.43	50.1054
2851.75	52.8999
2853.07	56.7137
2854.39	60.5222
2855.71	64.019
2857.03	68.2016
2858.35	72.3122
2859.66	76.2161
2860.98	79.4219
2862.3	83.1251
2863.62	85.6997
2864.94	88.734
2866.25	91.2893
2867.57	93.6717
2868.89	95.8774
2870.2	99.4604
2871.52	102.612
2872.84	104.795
2874.15	106.841
2875.47	108.694
2876.78	110.711
2878.1	112.805
2879.41	114.485
2880.73	116.416
2882.04	117.11
2883.36	118.758
2884.67	119.658
2885.99	120.521
2887.3	122.013
2888.61	123.9
2889.93	126.253
2891.24	127.848
2892.55	129.126
2893.86	130.641
2895.18	132.965
2896.49	136.325
2897.8	139.591
2899.11	142.072
2900.42	146.008
2901.73	150.706
2903.05	154.922
2904.36	159.924
2905.67	165.408
2906.98	170.61
2908.29	175.821
2909.6	181.154
2910.91	186.476
2912.21	192.23
2913.52	197.395
2914.83	203.062
2916.14	207.965
2917.45	212.814
2918.76	218.619
2920.07	223.533
2921.37	228.131
2922.68	232.536
2923.99	236.421
2925.29	239.278
2926.6	241.685
2927.91	243.737
2929.22	245.755
2930.52	247.525
2931.83	248.481
2933.13	248.86
2934.44	249.937
2935.74	250.742
2937.05	249.683
2938.35	248.461
2939.66	246.645
2940.96	244.329
2942.26	241.357
2943.57	237.704
2944.87	233.361
2946.18	228.935
2947.48	224.306
2948.78	220.59
2950.08	216.439
2951.39	211.528
2952.69	206.581
2953.99	201.152
2955.29	195.702
2956.59	190.291
2957.9	184.927
2959.2	179.923
2960.5	174.979
2961.8	170.606
2963.1	165.009
2964.4	159.874
2965.7	155.45
2967	150.337
2968.3	146.246
2969.6	141.814
2970.9	136.853
2972.19	131.715
2973.49	126.87
2974.79	121.999
2976.09	117.164
2977.39	112.605
2978.68	107.573
2979.98	103.353
2981.28	99.1482
2982.58	94.9856
2983.87	91.0287
2985.17	86.1014
2986.47	81.5744
2987.76	77.4319
2989.06	73.1711
2990.35	68.8578
2991.65	65.2265
2992.94	61.3712
2994.24	57.6203
2995.53	54.5668
2996.83	51.2789
2998.12	47.9485
2999.42	45.3583
3000.71	42.6478
3002	39.3911
3003.3	36.5791
3004.59	33.4188
3005.88	30.0974
3007.18	27.2196
3008.47	24.7093
3009.76	22.8199
3011.05	21.1283
3012.34	19.437
3013.64	18.0819
3014.93	16.3453
3016.22	14.0041
3017.51	12.7294
3018.8	11.0141
3020.09	9.93894
3021.38	8.90029
3022.67	7.31642
3023.96	6.72333
3025.25	6.05511
3026.54	4.84211
3027.83	3.7405
3029.12	3.70474
3030.41	3.30628
3031.69	3.33093
3032.98	4.15654
3034.27	2.59493
3035.56	3.10301
3036.84	3.21963
3038.13	3.14508
3039.42	3.22577
3040.71	3.29691
3041.99	3.60185
3043.28	4.24938
3044.57	5.05898
3045.85	5.13519
3047.14	5.42047
3048.42	6.01304
3049.71	6.48892
3050.99	6.92778
3052.28	7.15348
3053.56	7.15479
3054.85	6.99435
3056.13	7.09515
3057.41	6.91833
3058.7	7.51921
3059.98	8.21657
3061.26	7.54526
3062.55	7.68456
3063.83	7.87224
3065.11	7.44754
3066.39	7.01643
3067.68	7.16104
3068.96	6.64365
3070.24	6.23831
3071.52	5.93522
3072.8	5.86912
3074.08	5.58907
3075.36	5.55646
3076.65	5.03161
3077.93	4.49691
3079.21	4.19934
3080.49	3.60482
3081.77	3.21064
3083.04	1.75453
3084.32	1.23728
3085.6	0.777587
3086.88	0.315064
3088.16	0.0860801
3089.44	-0.276712
3090.72	-1.18516
3091.99	-0.774496
3093.27	-1.00694
3094.55	-0.924654
3095.83	-0.118516
3097.1	0.224542
3098.38	-0.0344489
3099.66	0.748998
3100.93	0.662519
3102.21	0.935396
3103.49	1.94037
3104.76	2.2063
3106.04	2.63717
3107.31	3.58349
3108.59	4.4369
3109.86	4.59186
3111.14	5.89523
3112.41	6.30951
3113.69	6.44536
3114.96	6.61804
3116.23	6.9909
3117.51	7.42399
3118.78	8.08644
3120.05	9.24157
3121.33	10.1059
3122.6	11.1426
3123.87	11.5698
3125.14	12.1261
3126.41	13.1053
3127.69	13.7561
3128.96	14.4922
3130.23	15.8005
3131.5	16.7953
3132.77	17.1781
3134.04	18.095
3135.31	18.8515
3136.58	19.9352
3137.85	20.69
3139.12	21.2782
3140.39	21.4211
3141.66	21.7628
3142.93	22.1483
3144.2	22.4833
3145.47	23.0687
3146.74	24.0281
3148	23.9106
3149.27	24.3725
