#Acq. time (s)=	45
#Accumulations=	2
#Range (cm-¹)=	200...3150
#Windows=	2
#Auto scanning=	Off
#Autofocus=	Off
#Macrospot=	Off
#AutoExposure=	Off
#Spike filter=	Multiple accum.
#Delay time (s)=	0
#Binning=	1
#Readout mode=	Signal
#DeNoise=	Off
#ICS correction=	On
#Dark correction=	Off
#Inst. Process=	Off
#Detector Gain=	Best Dynamic Range
#Detector ADC=	20 kHz       
#Detector temperature (°C)=	-69.85
#Instrument=	LabRAM HR Evol
#Detector=	Synapse
#Objective=	x100
#Grating=	600 gr/mm
#ND Filter=	100%
#Laser (nm)=	532 
#Hole=	100.021
#Range=	Auto
#Laser Pol.=	No
#Raman. Pol.=	No
#Laser Pol. (°)=	-0.0007625
#Raman Pol. (°)=	89.9995
#Collection=	Microscope
#StageXY=	Marzhauser
#StageZ=	Marzhauser
#X (µm)=	-1270.9
#Y (µm)=	1616.1
#Z (µm)=	-6.35
#Full time(mm:ss)=	3:18
#Project=	
#Sample=	
#Site=	
#Title=	Mb_30_27_08_2x_45s_532 nm_x100_100%_600 gr_mm
#Remark=	
#Date=	12.07.2022 16:34
#Acquired=	12.07.2022 16:34:44
#Base:Fit=	10.08.2022 10:39:47
#Base:Sub=	10.08.2022 10:39:55
#Base:Fit=	10.08.2022 10:40:03
#Base:Sub=	10.08.2022 10:40:17
#Filter:Polynom=	16.08.2022 10:16:15
#AxisType[0]=Intens
#AxisUnit[0]=Cnt
#AxisType[1]=Spectr
#AxisUnit[1]=1/cm
200.413	22.337
202.227	19.4904
204.042	16.2588
205.856	14.5438
207.671	12.272
209.485	10.4991
211.297	9.44983
213.11	8.45843
214.924	7.00026
216.736	5.53998
218.547	5.66228
220.358	4.83097
222.169	6.27195
223.982	5.35612
225.792	6.40554
227.601	5.98423
229.411	5.63117
231.22	6.60075
233.028	6.75894
234.837	6.96839
236.647	8.00432
238.454	8.90111
240.261	8.81589
242.068	9.32745
243.875	9.72605
245.681	9.80028
247.487	10.4078
249.292	11.4802
251.099	12.067
252.904	12.3815
254.708	12.3772
256.512	12.2832
258.316	12.473
260.12	13.4728
261.922	13.1044
263.725	14.4441
265.527	14.1373
267.329	15.3003
269.131	16.6195
270.932	17.2134
272.733	15.6147
274.534	15.0933
276.334	14.646
278.134	14.1931
279.933	13.8344
281.732	14.3741
283.531	14.6676
285.329	13.4606
287.128	13.7622
288.925	12.7717
290.723	11.875
292.52	11.1082
294.316	11.2228
296.113	11.0437
297.909	11.73
299.702	10.9394
301.498	10.1927
303.293	10.4642
305.087	9.88923
306.881	9.86034
308.675	10.4464
310.469	10.9709
312.262	10.8158
314.055	9.82924
315.845	10.6778
317.638	10.6615
319.429	10.6729
321.221	10.6951
323.012	10.5805
324.803	10.7013
326.591	11.4449
328.381	10.6584
330.171	10.85
331.96	10.7287
333.749	10.1371
335.536	9.5454
337.324	9.86529
339.112	9.70762
340.9	9.8152
342.685	10.733
344.472	10.4907
346.259	10.4986
348.045	10.3974
349.829	11.5563
351.614	11.0164
353.4	11.833
355.185	11.8841
356.967	12.5986
358.751	11.821
360.535	11.6184
362.317	9.79061
364.1	9.68915
365.883	9.39626
367.663	9.41022
369.445	9.77952
371.227	8.46108
373.006	7.76705
374.787	7.02543
376.568	7.94503
378.346	6.61493
380.126	6.17727
381.904	6.14795
383.683	7.07802
385.462	6.39875
387.239	4.72619
389.017	3.67432
390.793	4.17905
392.571	4.36076
394.348	3.09088
396.123	2.89212
397.9	4.20451
399.674	4.0693
401.45	2.94256
403.224	3.74609
404.999	4.07559
406.772	4.0662
408.546	2.8219
410.318	2.19995
412.092	2.72672
413.864	2.01996
415.637	2.92974
417.408	3.51507
419.18	4.17291
420.95	2.79725
422.722	3.46795
424.492	2.61828
426.263	2.7519
428.032	3.10757
429.802	3.52111
431.57	3.29804
433.338	2.27911
435.107	2.45333
436.874	3.24882
438.643	4.69752
440.41	4.34239
442.176	5.4342
443.943	5.60623
445.709	5.45026
447.476	5.6648
449.24	6.80673
451.005	6.92216
452.771	7.60929
454.534	9.19233
456.298	10.1766
458.063	10.2551
459.825	10.1954
461.588	11.2351
463.352	12.3447
465.113	12.4945
466.875	12.4127
468.638	13.1407
470.398	13.945
472.158	14.0888
473.918	14.4924
475.68	15.7222
477.439	16.394
479.198	16.5478
480.957	16.8951
482.717	18.2245
484.475	19.2952
486.233	20.571
487.99	19.6604
489.747	19.7234
491.505	19.8638
493.261	19.7839
495.017	19.1057
496.773	18.7118
498.528	19.2905
500.285	20.2438
502.039	20.4871
503.794	21.4894
505.548	20.1605
507.301	19.1584
509.054	18.3245
510.807	17.9205
512.562	16.712
514.314	18.0334
516.066	18.2441
517.817	18.2832
519.568	18.2457
521.319	17.8292
523.07	17.9622
524.82	18.1186
526.57	17.9569
528.319	17.5017
530.068	17.1941
531.817	17.4135
533.568	17.0736
535.316	16.3888
537.064	15.7175
538.811	15.7711
540.558	15.1955
542.305	14.8449
544.051	13.983
545.798	13.1834
547.543	12.7198
549.289	12.956
551.034	12.3894
552.777	11.4234
554.521	11.6492
556.265	11.3003
558.009	11.4116
559.753	11.2287
561.496	11.2423
563.239	11.0612
564.981	10.0148
566.723	10.9026
568.465	11.1718
570.207	11.1473
571.948	10.49
573.688	9.55404
575.427	8.98545
577.167	8.23873
578.907	8.0811
580.646	7.30916
582.385	7.34743
584.124	7.80912
585.863	7.76696
587.599	7.39067
589.337	7.10932
591.074	6.63096
592.811	6.39535
594.548	6.50326
596.283	6.60989
598.019	6.82284
599.755	7.81591
601.49	8.40074
603.223	7.20496
604.958	7.72168
606.693	7.27913
608.427	7.17263
610.159	6.65705
611.892	7.03651
613.625	7.09598
615.358	7.2028
617.089	6.25135
618.821	6.88168
620.553	5.98049
622.282	5.50548
624.014	6.83332
625.744	8.68315
627.473	9.23726
629.203	9.37956
630.933	10.1578
632.661	10.7409
634.39	11.0932
636.119	12.1236
637.845	12.5089
639.574	13.0063
641.301	13.5623
643.027	13.6392
644.754	14.2765
646.479	14.8915
648.206	15.4346
649.932	15.1444
651.656	15.1839
653.382	15.0136
655.105	14.41
656.83	15.2817
658.552	16.4388
660.277	16.9047
661.999	16.8938
663.722	16.6736
665.444	16.952
667.167	17.3967
668.887	19.1138
670.61	19.2857
672.33	20.7275
674.051	21.329
675.771	22.0295
677.492	23.2544
679.21	24.6866
680.931	25.5787
682.649	27.1457
684.369	27.3559
686.086	28.1066
687.803	28.8232
689.522	29.956
691.238	32.143
692.956	31.535
694.672	32.6066
696.388	33.5265
698.105	36.2082
699.819	36.9371
701.536	37.4979
703.25	38.1081
704.964	39.3519
706.679	40.2675
708.393	41.2116
710.105	43.139
711.82	44.4008
713.532	43.9768
715.244	44.2162
716.957	45.1627
718.669	45.4654
720.38	45.8258
722.09	45.5492
723.802	44.2619
725.512	43.4066
727.222	43.5185
728.933	43.3897
730.642	43.2195
732.351	43.3815
734.059	42.9089
735.767	42.8387
737.477	43.8155
739.184	44.3046
740.891	44.6623
742.598	44.9858
744.304	45.1679
746.012	44.7444
747.718	45.0427
749.423	46.1213
751.128	45.8705
752.833	47.5302
754.538	49.298
756.244	49.3052
757.947	50.7426
759.651	50.6725
761.354	51.8323
763.057	52.5337
764.759	53.5283
766.462	54.7226
768.163	55.4053
769.865	56.3299
771.568	58.4328
773.269	60.1457
774.97	61.5476
776.67	61.9812
778.37	62.4814
780.069	64.7648
781.769	65.6611
783.468	66.6344
785.166	66.2686
786.865	67.3971
788.563	68.2
790.26	68.9721
791.958	70.4236
793.655	71.0403
795.352	72.0241
797.048	72.5513
798.744	72.5628
800.44	73.9589
802.135	74.0225
803.83	73.8092
805.525	73.7243
807.218	73.2009
808.912	73.183
810.606	73.2788
812.299	73.0532
813.993	72.5175
815.685	72.655
817.378	72.7375
819.07	72.056
820.762	71.2659
822.452	71.3109
824.143	70.8766
825.834	69.6934
827.525	69.6142
829.215	69.9057
830.905	69.7899
832.593	68.9845
834.282	68.0006
835.971	67.0931
837.66	67.5772
839.349	67.6969
841.035	66.4994
842.723	66.3177
844.41	65.4975
846.097	64.0345
847.782	64.1296
849.469	64.3558
851.155	63.7755
852.841	62.59
854.525	61.0985
856.21	60.4355
857.895	59.1964
859.577	57.9304
861.262	56.7332
862.946	55.5897
864.628	54.3588
866.311	53.9588
867.994	52.5997
869.675	51.976
871.357	51.2131
873.039	49.7483
874.719	49.5455
876.401	49.068
878.082	48.6959
879.761	48.0268
881.441	47.483
883.12	47.8255
884.799	48.0494
886.479	46.9995
888.156	46.4915
889.835	45.6932
891.512	45.9359
893.19	44.8244
894.866	44.3763
896.544	43.804
898.22	43.7766
899.897	43.7191
901.573	43.0006
903.248	42.494
904.924	42.5649
906.598	43.0039
908.271	43.0716
909.947	43.4942
911.62	44.5454
913.294	44.9027
914.966	45.2742
916.64	44.95
918.312	45.1138
919.985	45.3786
921.656	46.2822
923.329	45.5745
925	45.153
926.67	44.0894
928.341	43.5085
930.011	42.9611
931.68	43.6254
933.351	42.1731
935.019	41.8678
936.69	40.997
938.358	40.1675
940.025	40.242
941.694	39.3641
943.361	38.5462
945.028	37.5559
946.696	35.6867
948.362	35.1234
950.028	34.882
951.694	33.0341
953.361	32.7334
955.026	31.2667
956.69	30.4736
958.356	29.67
960.02	28.8518
961.684	27.6643
963.347	27.19
965.012	26.7243
966.674	26.9109
968.337	26.962
969.999	25.5637
971.661	24.5546
973.324	23.8824
974.985	23.6131
976.646	22.1562
978.306	21.8752
979.966	22.4091
981.626	21.3129
983.288	21.1369
984.947	21.0445
986.606	20.9408
988.264	20.0647
989.923	18.9608
991.581	18.7481
993.238	18.4865
994.896	17.9336
996.553	16.4166
998.212	14.6758
999.868	12.8581
1001.52	11.4581
1003.18	9.87527
1004.84	9.08405
1006.49	7.72292
1008.15	10.8395
1009.8	12.0072
1011.45	16.077
1013.11	19.7253
1014.76	24.2706
1016.42	28.8714
1018.07	33.6945
1019.72	38.8225
1021.37	42.696
1023.03	47.3302
1024.68	51.7922
1026.33	56.1923
1027.98	60.3363
1029.63	63.926
1031.28	67.1673
1032.93	69.583
1034.58	71.7602
1036.23	74.455
1037.88	74.7951
1039.53	76.6852
1041.18	77.9581
1042.83	79.451
1044.47	78.8479
1046.12	79.7337
1047.77	80.0297
1049.42	80.0097
1051.06	79.9978
1052.71	77.3274
1054.35	75.4797
1056	73.3812
1057.64	70.9078
1059.29	68.0508
1060.94	65.3953
1062.58	62.5895
1064.22	57.7338
1065.87	53.458
1067.51	48.4543
1069.15	43.6343
1070.8	38.194
1072.44	34.3761
1074.08	30.4899
1075.72	25.5355
1077.36	20.6808
1079.01	16.0823
1080.65	12.808
1082.29	9.09287
1083.93	5.99808
1085.57	4.29682
1087.21	5.10598
1088.85	5.72743
1090.49	8.07512
1092.12	8.44228
1093.76	10.0867
1095.4	10.2844
1097.04	11.5507
1098.68	12.304
1100.31	12.2375
1101.95	13.0958
1103.59	13.0036
1105.22	14.8303
1106.86	15.4124
1108.49	15.9407
1110.13	15.4911
1111.76	14.588
1113.4	13.9948
1115.03	14.3225
1116.66	14.506
1118.3	12.9302
1119.93	12.2465
1121.57	12.4694
1123.2	12.2886
1124.83	11.3562
1126.46	9.81619
1128.09	11.0783
1129.72	10.5179
1131.36	9.82263
1132.99	9.82798
1134.62	8.34523
1136.25	7.90015
1137.88	7.44345
1139.51	7.41082
1141.14	7.20024
1142.77	6.83459
1144.39	7.09567
1146.02	6.76353
1147.65	5.50115
1149.28	6.09087
1150.9	5.74508
1152.53	4.55754
1154.16	4.97188
1155.78	4.60453
1157.41	3.83702
1159.04	4.10947
1160.66	4.33142
1162.29	3.51858
1163.91	2.27805
1165.54	2.40283
1167.16	2.81639
1168.78	3.46543
1170.41	3.00663
1172.03	2.86964
1173.65	2.63591
1175.27	2.33361
1176.9	2.04855
1178.52	2.40413
1180.14	2.83324
1181.76	3.09854
1183.38	4.23374
1185	5.38401
1186.62	6.01545
1188.24	6.48963
1189.86	7.13684
1191.48	7.62544
1193.1	8.69202
1194.72	8.5048
1196.34	9.1416
1197.96	9.83566
1199.58	9.85822
1201.19	11.1212
1202.81	11.3747
1204.43	12.0535
1206.04	12.4373
1207.66	13.376
1209.28	14.6894
1210.89	14.8023
1212.51	15.7288
1214.12	16.3562
1215.74	18.0978
1217.35	18.4568
1218.97	18.4577
1220.58	19.2951
1222.19	19.4883
1223.81	20.0534
1225.42	20.9562
1227.03	20.6735
1228.64	20.6224
1230.26	21.2489
1231.87	21.5894
1233.48	22.2753
1235.09	22.8582
1236.7	22.8053
1238.31	23.4795
1239.92	24.7377
1241.53	25.7913
1243.14	25.5536
1244.75	25.5559
1246.36	24.908
1247.97	25.8177
1249.57	25.9174
1251.18	24.7698
1252.79	24.2218
1254.4	24.6341
1256	24.0581
1257.61	24.2847
1259.22	25.638
1260.82	26.32
1262.43	26.537
1264.03	25.8884
1265.64	26.0935
1267.24	26.3302
1268.85	26.5587
1270.45	27.7773
1272.06	28.221
1273.66	28.8339
1275.26	29.0754
1276.87	30.2627
1278.47	30.6055
1280.07	30.0521
1281.67	30.4439
1283.28	30.9064
1284.88	31.1815
1286.48	32.354
1288.08	33.201
1289.68	33.6595
1291.28	34.2065
1292.88	35.7083
1294.48	37.1521
1296.08	38.301
1297.68	37.4426
1299.28	37.6779
1300.87	39.992
1302.47	40.1144
1304.07	41.5851
1305.67	42.6428
1307.26	42.8105
1308.86	44.3535
1310.46	45.3679
1312.05	46.5409
1313.65	47.0838
1315.24	47.7036
1316.84	48.7841
1318.44	49.8506
1320.03	50.0146
1321.62	50.5669
1323.22	49.6266
1324.81	50.226
1326.4	50.9539
1328	51.9652
1329.59	52.0019
1331.18	51.8581
1332.78	51.986
1334.37	52.0311
1335.96	51.7537
1337.55	51.7814
1339.14	51.4795
1340.73	50.7327
1342.32	49.5273
1343.91	48.5847
1345.5	48.7942
1347.09	49.0603
1348.68	49.4441
1350.27	48.8408
1351.86	47.6387
1353.45	47.0449
1355.03	46.2757
1356.62	45.9559
1358.21	45.4095
1359.8	44.65
1361.38	44.6441
1362.97	42.9366
1364.56	41.0657
1366.14	40.6036
1367.73	39.6829
1369.31	37.9936
1370.9	37.4455
1372.48	36.865
1374.07	36.3276
1375.65	35.1492
1377.23	33.5565
1378.82	33.8223
1380.4	34.3752
1381.98	33.3169
1383.57	33.7069
1385.15	33.67
1386.73	33.6549
1388.31	34.3126
1389.89	34.1845
1391.47	34.6796
1393.05	34.8802
1394.63	35.3854
1396.21	34.462
1397.79	35.1421
1399.37	35.7237
1400.95	36.3663
1402.53	35.6624
1404.11	36.3292
1405.69	36.7027
1407.27	36.3762
1408.84	37.0489
1410.42	37.6164
1412	37.7845
1413.57	38.3775
1415.15	39.3876
1416.73	39.9996
1418.3	40.7603
1419.88	42.0615
1421.45	42.3007
1423.03	43.0672
1424.6	44.1149
1426.18	45.303
1427.75	45.9838
1429.33	46.079
1430.9	48.2107
1432.47	49.862
1434.04	51.451
1435.62	52.5388
1437.19	52.8311
1438.76	52.4271
1440.33	52.7304
1441.91	52.1743
1443.47	52.5466
1445.05	53.3631
1446.62	53.1105
1448.19	52.9793
1449.76	54.3915
1451.33	54.7349
1452.9	55.0112
1454.46	54.7844
1456.03	55.0223
1457.6	56.4406
1459.17	56.8524
1460.74	57.8672
1462.3	58.0818
1463.87	58.4533
1465.44	58.2749
1467.01	58.6004
1468.57	58.2295
1470.14	58.5944
1471.7	58.2924
1473.27	57.3525
1474.83	56.91
1476.4	57.7262
1477.96	57.1458
1479.53	56.3294
1481.09	56.1049
1482.65	56.1935
1484.22	55.9112
1485.78	54.6702
1487.34	54.1029
1488.91	52.6413
1490.47	50.938
1492.03	50.0247
1493.59	48.1647
1495.15	46.9111
1496.71	45.3313
1498.27	44.0011
1499.83	43.0703
1501.39	41.7802
1502.95	40.6428
1504.51	39.6979
1506.07	37.7351
1507.63	36.6161
1509.19	36.0331
1510.75	34.3126
1512.3	32.5064
1513.86	30.1494
1515.42	27.4855
1516.98	24.9772
1518.53	24.7918
1520.09	24.0696
1521.65	22.8117
1523.2	22.7857
1524.76	22.3984
1526.31	22.1297
1527.87	22.4118
1529.42	22.1501
1530.98	21.7036
1532.53	22.4624
1534.08	22.9007
1535.64	23.1856
1537.19	24.3996
1538.74	25.5358
1540.3	25.8671
1541.85	26.4723
1543.4	27.0397
1544.95	27.912
1546.5	28.5694
1548.05	29.7354
1549.61	31.0202
1551.16	31.2795
1552.71	32.8084
1554.26	33.7907
1555.81	34.0466
1557.36	34.5072
1558.9	34.3994
1560.45	33.7102
1562	33.0909
1563.55	33.3894
1565.1	34.3663
1566.64	34.3497
1568.19	34.4312
1569.74	34.3046
1571.29	33.8309
1572.83	35.2078
1574.38	35.0199
1575.93	35.6671
1577.47	36.3425
1579.02	36.2518
1580.56	36.188
1582.1	36.4981
1583.65	36.1561
1585.19	36.9048
1586.74	36.8326
1588.28	36.0181
1589.82	36.7703
1591.37	37.2016
1592.91	37.9241
1594.45	38.9719
1595.99	41.0968
1597.54	41.6165
1599.08	41.3362
1600.62	40.979
1602.16	41.4272
1603.7	42.1311
1605.24	42.391
1606.78	42.9473
1608.32	42.9968
1609.86	43.7787
1611.4	44.134
1612.94	44.6894
1614.48	45.4643
1616.01	45.2643
1617.55	44.8852
1619.09	44.5608
1620.63	44.6485
1622.16	44.3329
1623.7	44.2468
1625.24	44.3389
1626.77	44.9785
1628.31	44.8173
1629.84	45.0586
1631.38	45.1352
1632.92	44.4751
1634.45	43.88
1635.98	43.3628
1637.52	43.3433
1639.05	44.0349
1640.59	45.0234
1642.12	44.4499
1643.65	43.8974
1645.19	44.0556
1646.72	44.894
1648.25	44.7297
1649.78	45.0564
1651.31	45.695
1652.85	46.4539
1654.38	46.5033
1655.91	46.0004
1657.44	44.8704
1658.97	44.3537
1660.5	43.6257
1662.03	42.8742
1663.56	42.5828
1665.08	42.3372
1666.61	41.9588
1668.14	41.237
1669.67	40.589
1671.2	39.6094
1672.72	38.8799
1674.25	38.0472
1675.78	36.6807
1677.31	35.1514
1678.83	35.3655
1680.36	33.7191
1681.88	31.9498
1683.41	30.9175
1684.93	29.1526
1686.46	28.2186
1687.98	26.8533
1689.51	24.8619
1691.03	22.406
1692.56	21.2255
1694.08	20.1153
1695.6	18.8223
1697.13	17.6246
1698.65	16.5407
1700.17	16.0338
1701.69	15.7348
1703.21	15.5944
1704.74	14.3947
1706.26	13.2067
1707.78	12.8703
1709.3	11.927
1710.82	11.3047
1712.34	11.4737
1713.86	11.1222
1715.38	11.3303
1716.9	10.4582
1718.42	9.45185
1719.94	9.61893
1721.45	9.23123
1722.97	9.10718
1724.49	8.304
1726.01	8.63776
1727.52	8.78995
1729.04	7.61732
1730.56	6.40416
1732.07	5.59333
1733.59	5.61276
1735.11	6.14552
1736.62	6.94287
1738.14	6.83754
1739.65	7.64219
1741.17	7.43519
1742.68	7.24785
1744.19	8.00996
1745.71	7.80109
1747.22	7.25641
1748.74	7.64094
1750.25	7.79353
1751.76	7.11242
1753.27	6.34621
1754.79	6.21075
1756.3	5.92903
1757.81	5.57819
1759.32	6.00047
1760.83	5.80355
1762.34	6.18989
1763.85	5.74191
1765.36	5.68741
1766.87	5.64435
1768.38	6.29149
1769.89	6.28463
1771.4	6.57913
1772.91	6.69612
1774.42	6.93367
1775.93	6.76279
1777.43	6.96334
1778.94	6.91263
1780.45	5.739
1781.95	5.46522
1783.46	5.74879
1784.97	5.65772
1786.47	6.09339
1787.98	6.25876
1789.49	6.23097
1790.99	6.19606
1792.5	5.25317
1794	5.04659
1795.51	5.1801
1797.01	4.66674
1798.51	3.89361
1800.02	3.17773
1801.52	2.92598
1803.02	2.82689
1804.53	2.50693
1806.03	2.65933
1807.53	3.30016
1809.03	4.11874
1810.53	4.88085
1812.03	4.63663
1813.54	4.06891
1815.04	4.95888
1816.54	4.8888
1818.04	4.60741
1819.54	3.98955
1821.04	3.40289
1822.54	3.52813
1824.04	3.6437
1825.53	2.98121
1827.03	2.79755
1828.53	2.43901
1830.03	2.63315
1831.53	3.07095
1833.02	3.32199
1834.52	3.59739
1836.02	3.24788
1837.52	3.49355
1839.01	3.00102
1840.51	3.15211
1842	3.52832
1843.5	3.77628
1844.99	3.50513
1846.49	3.0664
1847.98	2.82456
1849.48	2.91268
1850.97	2.48672
1852.47	2.54619
1853.96	2.17992
1855.45	1.81439
1856.95	2.59008
1858.44	2.96345
1859.93	2.62496
1861.42	2.0857
1862.91	1.79946
1864.4	1.61028
1865.9	0.750164
1867.39	0.998226
1868.88	0.463632
1870.37	-0.181033
1871.86	-0.140337
1873.35	0.112332
1874.84	1.06479
1876.33	2.22761
1877.82	3.10333
1879.31	3.52539
1880.79	4.14997
1882.28	4.73024
1882.53	4.58509
1884.02	4.54073
1885.52	3.5305
1887.01	4.21706
1888.51	4.61689
1890	4.77178
1891.49	4.22859
1892.99	3.77732
1894.48	4.37858
1895.97	5.27274
1897.46	4.98527
1898.96	5.05899
1900.45	5.61365
1901.94	5.98848
1903.43	5.52883
1904.92	6.36085
1906.41	6.88954
1907.9	5.90499
1909.39	5.68721
1910.88	5.32538
1912.37	4.66717
1913.86	4.90586
1915.35	5.14487
1916.84	4.89495
1918.32	4.57558
1919.81	5.3594
1921.3	5.33658
1922.79	5.34004
1924.27	5.28665
1925.76	5.27324
1927.25	4.76757
1928.73	4.68698
1930.22	4.83669
1931.7	3.94957
1933.19	3.34449
1934.68	3.41805
1936.16	4.17262
1937.65	4.49807
1939.13	4.37868
1940.61	5.10294
1942.1	5.3003
1943.58	5.93201
1945.06	6.42143
1946.55	7.30744
1948.03	7.4344
1949.51	8.0394
1950.99	8.02858
1952.48	7.72097
1953.96	7.62022
1955.44	7.4076
1956.92	7.39887
1958.4	8.58641
1959.88	8.76329
1961.36	9.08836
1962.84	8.71153
1964.32	8.72175
1965.8	8.25462
1967.28	7.97082
1968.76	9.17077
1970.24	8.94355
1971.72	8.21115
1973.19	8.08118
1974.67	8.15797
1976.15	7.60009
1977.63	7.19985
1979.1	7.94957
1980.58	7.38973
1982.06	6.85781
1983.53	7.91628
1985.01	7.89202
1986.48	7.78222
1987.96	8.51823
1989.43	8.62736
1990.91	8.19192
1992.39	8.17273
1993.86	8.31709
1995.33	7.99218
1996.81	8.51334
1998.28	8.17319
1999.75	7.95178
2001.23	8.72928
2002.7	9.21415
2004.17	9.10562
2005.64	8.60136
2007.11	8.08467
2008.59	7.97572
2010.06	7.9951
2011.53	8.07987
2013	8.44816
2014.47	9.03192
2015.94	8.99886
2017.41	8.27131
2018.88	8.1292
2020.35	7.82227
2021.82	7.26757
2023.29	7.41083
2024.76	7.20487
2026.22	7.10583
2027.69	7.36898
2029.16	7.46199
2030.63	7.39511
2032.09	7.23549
2033.56	6.24315
2035.03	5.18661
2036.5	4.77495
2037.96	4.46946
2039.43	4.27691
2040.89	3.57485
2042.36	4.59994
2043.82	4.34495
2045.29	4.8873
2046.75	4.75721
2048.22	4.75443
2049.68	4.14236
2051.14	4.38186
2052.61	4.44613
2054.07	4.46129
2055.53	4.38204
2057	4.43479
2058.46	4.11378
2059.92	4.69653
2061.38	5.05708
2062.85	5.54098
2064.31	6.23161
2065.77	7.0566
2067.23	7.56384
2068.69	8.27476
2070.15	9.06098
2071.61	9.30092
2073.07	9.88185
2074.53	9.37633
2075.99	8.54958
2077.45	8.42204
2078.91	8.2733
2080.36	8.42396
2081.82	9.08199
2083.28	9.60738
2084.74	9.97574
2086.19	10.2898
2087.65	10.1876
2089.11	10.2477
2090.57	9.94358
2092.02	10.2842
2093.48	10.5356
2094.93	11.504
2096.39	12.1252
2097.84	12.259
2099.3	11.6628
2100.75	11.5265
2102.21	11.5364
2103.66	11.7402
2105.12	12.2478
2106.57	12.5612
2108.02	12.4897
2109.48	12.5217
2110.93	13.7957
2112.38	14.7832
2113.83	15.8324
2115.29	16.5208
2116.74	16.5223
2118.19	16.2961
2119.64	15.9966
2121.09	16.3117
2122.54	17.1011
2123.99	18.1489
2125.44	19.0886
2126.89	20.2954
2128.34	21.2969
2129.79	23.2578
2131.24	23.9179
2132.69	24.9639
2134.14	25.5058
2135.59	26.2392
2137.04	26.8835
2138.48	27.5296
2139.93	27.5732
2141.38	28.5478
2142.82	28.5485
2144.27	28.12
2145.72	28.2529
2147.16	29.0629
2148.61	29.9005
2150.06	30.866
2151.5	30.8923
2152.95	31.5674
2154.39	32.0252
2155.83	31.7277
2157.28	32.2248
2158.72	32.6529
2160.17	32.7846
2161.61	32.5864
2163.05	32.0673
2164.5	32.9408
2165.94	33.1232
2167.38	33.135
2168.83	32.9855
2170.27	32.4633
2171.71	32.385
2173.15	32.8057
2174.59	33.3733
2176.03	33.7432
2177.47	33.3673
2178.91	32.9328
2180.35	32.0045
2181.79	31.9392
2183.23	32.7244
2184.67	32.3548
2186.11	32.2973
2187.55	30.8381
2188.99	30.5111
2190.43	29.4094
2191.86	29.0498
2193.3	28.8274
2194.74	29.0709
2196.18	28.6381
2197.61	28.118
2199.05	28.2464
2200.49	27.4848
2201.92	26.6065
2203.36	25.4774
2204.8	25.871
2206.23	25.2485
2207.67	24.4815
2209.1	23.9776
2210.54	22.8473
2211.97	22.2388
2213.4	21.6985
2214.84	20.1459
2216.27	20.5084
2217.7	20.478
2219.14	20.6067
2220.57	20.1177
2222	20.243
2223.44	19.8013
2224.87	19.3654
2226.3	19.2548
2227.73	17.8595
2229.16	17.9671
2230.59	17.0741
2232.02	16.7467
2233.46	16.2756
2234.88	16.1414
2236.32	16.2786
2237.74	16.398
2239.18	15.7958
2240.6	15.2391
2242.03	14.7634
2243.46	14.6833
2244.89	15.2132
2246.32	15.7059
2247.75	15.3587
2249.17	15.093
2250.6	14.6995
2252.03	15.0328
2253.45	16.4047
2254.88	16.2205
2256.31	15.9048
2257.73	15.2337
2259.16	14.2547
2260.58	13.8387
2262.01	13.5242
2263.44	13.9978
2264.86	14.0694
2266.28	14.3843
2267.71	14.001
2269.13	14.334
2270.56	14.3405
2271.98	13.6331
2273.4	13.7842
2274.83	13.4471
2276.25	13.4216
2277.67	12.4902
2279.09	11.6263
2280.51	10.5195
2281.94	9.93169
2283.36	10.1908
2284.78	9.84952
2286.2	10.6157
2287.62	11.369
2289.04	10.3269
2290.46	9.37555
2291.88	8.51451
2293.3	7.96125
2294.72	7.31698
2296.14	6.54279
2297.56	6.68493
2298.98	5.94376
2300.39	6.8488
2301.81	6.50378
2303.23	7.04125
2304.65	6.77727
2306.07	7.02636
2307.48	7.23592
2308.9	7.23574
2310.32	6.62097
2311.73	6.89477
2313.15	6.85629
2314.56	7.66337
2315.98	8.46707
2317.4	8.40377
2318.81	7.98708
2320.23	8.32486
2321.64	7.96161
2323.05	9.0983
2324.47	9.12943
2325.88	8.1767
2327.3	8.17077
2328.71	7.31619
2330.12	6.6373
2331.54	6.49958
2332.95	6.77041
2334.36	6.97044
2335.77	7.12923
2337.18	7.04322
2338.59	6.39914
2340.01	6.80489
2341.42	6.18739
2342.83	5.49944
2344.24	4.97587
2345.65	3.80468
2347.06	4.12514
2348.47	3.31161
2349.88	2.55741
2351.29	2.18338
2352.69	2.4607
2354.1	1.92708
2355.51	1.92738
2356.92	2.14084
2358.33	1.3126
2359.73	0.440244
2361.14	-0.0647655
2362.55	0.221567
2363.96	0.565751
2365.36	0.888111
2366.77	0.857509
2368.18	0.941236
2369.58	1.0244
2370.99	1.84894
2372.39	1.48814
2373.8	1.94227
2375.2	1.44545
2376.61	1.36619
2378.01	1.0732
2379.41	1.59336
2380.82	2.26596
2382.22	1.61144
2383.63	1.75162
2385.03	2.40924
2386.43	2.36501
2387.83	2.37748
2389.24	2.54738
2390.64	3.26623
2392.04	3.85006
2393.44	3.958
2394.84	3.79471
2396.24	3.58174
2397.64	3.67466
2399.05	3.92168
2400.45	4.15669
2401.85	4.56565
2403.25	5.07168
2404.65	5.23938
2406.04	5.97463
2407.44	6.23471
2408.84	7.1268
2410.24	8.16227
2411.64	7.79488
2413.04	7.8702
2414.43	8.17332
2415.83	8.25569
2417.23	9.42179
2418.63	9.51296
2420.02	9.25039
2421.42	9.58647
2422.82	9.42159
2424.21	8.64009
2425.61	9.37052
2427	9.58147
2428.4	8.11486
2429.79	7.64366
2431.19	7.60003
2432.58	7.61825
2433.98	7.59389
2435.37	7.43887
2436.76	7.37742
2438.16	7.03269
2439.55	7.38758
2440.94	7.20823
2442.34	7.17785
2443.73	7.24404
2445.12	6.36499
2446.51	5.81525
2447.9	5.7944
2449.3	5.35839
2450.69	3.60383
2452.08	2.28303
2453.47	2.71993
2454.86	2.30187
2456.25	2.40121
2457.64	1.70127
2459.03	2.16716
2460.42	2.56745
2461.81	2.43759
2463.2	2.08031
2464.59	2.79139
2465.97	2.53767
2467.36	2.92136
2468.75	2.64337
2470.14	2.46151
2471.53	2.51003
2472.91	2.99113
2474.3	3.60959
2475.69	3.75316
2477.07	4.31382
2478.46	4.65037
2479.85	4.72631
2481.23	4.95216
2482.62	5.51029
2484	4.86745
2485.39	5.18585
2486.77	5.3375
2488.16	4.33641
2489.54	4.21373
2490.93	4.55236
2492.31	4.02077
2493.69	3.84519
2495.08	4.57442
2496.46	4.96631
2497.84	4.79831
2499.22	6.14211
2500.61	6.4754
2501.99	6.57937
2503.37	6.54017
2504.75	6.30711
2506.13	6.04619
2507.51	5.77675
2508.89	5.94911
2510.28	5.53419
2511.66	5.37672
2513.04	4.93882
2514.42	4.44164
2515.79	4.21383
2517.17	3.40846
2518.55	3.17118
2519.93	2.60256
2521.31	2.73862
2522.69	3.13374
2524.07	3.41145
2525.44	3.26077
2526.82	2.77241
2528.2	3.35165
2529.58	3.57623
2530.95	3.28712
2532.33	2.80812
2533.71	3.00444
2535.08	2.78507
2536.46	2.56827
2537.83	2.14621
2539.21	2.03953
2540.59	1.96291
2541.96	2.29499
2543.33	2.9479
2544.71	2.9563
2546.08	3.80061
2547.46	4.43054
2548.83	4.50283
2550.2	4.34742
2551.58	4.6139
2552.95	4.51221
2554.32	5.58095
2555.69	5.70817
2557.07	5.88679
2558.44	6.62177
2559.81	6.72884
2561.18	6.46441
2562.55	6.88182
2563.92	7.26849
2565.29	7.83832
2566.67	8.4223
2568.03	8.2377
2569.41	7.79717
2570.77	7.80134
2572.14	7.10891
2573.51	6.78282
2574.88	6.29828
2576.25	6.03557
2577.62	6.01846
2578.99	5.81526
2580.36	5.82167
2581.72	5.95094
2583.09	5.45562
2584.46	5.35211
2585.83	5.08326
2587.19	4.96773
2588.56	3.77959
2589.93	4.01492
2591.29	3.87477
2592.66	4.01699
2594.02	3.45854
2595.39	3.08527
2596.75	2.95609
2598.12	3.04828
2599.48	1.88177
2600.85	2.02677
2602.21	2.72788
2603.58	2.04745
2604.94	1.77516
2606.3	2.01172
2607.67	2.11245
2609.03	2.42978
2610.39	3.08128
2611.75	3.21377
2613.12	3.05741
2614.48	3.42728
2615.84	3.69419
2617.2	3.66066
2618.56	3.85061
2619.92	3.87196
2621.28	3.7546
2622.64	4.14575
2624	3.55368
2625.36	2.92889
2626.72	2.64545
2628.08	2.65791
2629.44	2.31311
2630.8	2.50581
2632.16	2.07352
2633.52	2.71696
2634.88	2.55995
2636.23	2.14355
2637.59	2.09154
2638.95	1.92167
2640.31	1.70946
2641.67	1.26726
2643.02	2.1111
2644.38	2.78309
2645.73	3.63289
2647.09	3.79579
2648.45	3.7519
2649.8	3.79753
2651.16	3.57202
2652.51	3.72892
2653.87	3.20433
2655.22	2.64399
2656.58	3.15179
2657.93	3.72105
2659.28	3.48353
2660.64	3.72655
2661.99	3.30905
2663.34	3.43057
2664.7	3.77877
2666.05	4.26792
2667.4	4.60607
2668.76	4.79391
2670.11	4.84582
2671.46	4.22023
2672.81	4.6577
2674.16	4.83669
2675.51	5.46205
2676.86	5.84854
2678.21	6.98239
2679.57	6.40495
2680.92	6.09055
2682.27	6.41269
2683.62	6.4992
2684.96	6.2627
2686.31	5.52902
2687.66	5.38469
2689.01	6.20315
2690.36	6.28002
2691.71	5.47369
2693.06	5.302
2694.4	6.58576
2695.75	6.46234
2697.1	6.29776
2698.44	6.30933
2699.79	6.43223
2701.14	7.07782
2702.48	6.37545
2703.83	6.62313
2705.18	6.73328
2706.52	7.15786
2707.87	6.75188
2709.21	6.38104
2710.56	6.68048
2711.9	6.16735
2713.25	5.33398
2714.59	4.85696
2715.93	4.85381
2717.28	4.68048
2718.62	4.39652
2719.96	4.75285
2721.31	4.46113
2722.65	4.36869
2723.99	4.74231
2725.33	4.6546
2726.68	4.42978
2728.02	4.61726
2729.36	4.79285
2730.7	4.76756
2732.04	4.59085
2733.38	4.42119
2734.72	4.36954
2736.06	4.72837
2737.4	5.2445
2738.74	4.9559
2740.08	5.24158
2741.42	5.53232
2742.76	5.87517
2744.1	5.34517
2745.44	5.24341
2746.78	4.78152
2748.12	5.3364
2749.45	5.81906
2750.79	5.60872
2752.13	5.42151
2753.47	5.88519
2754.8	5.63576
2756.14	6.07782
2757.48	5.35738
2758.81	5.05739
2760.15	5.12004
2761.48	5.56415
2762.82	4.12064
2764.16	4.15575
2765.49	3.93362
2766.83	4.00891
2768.16	3.90559
2769.49	3.35057
2770.83	3.66451
2772.16	2.94362
2773.5	2.6914
2774.83	1.86232
2776.16	1.89056
2777.5	1.38272
2778.83	1.19349
2780.16	0.953022
2781.49	0.896382
2782.83	1.18591
2784.16	0.381421
2785.49	-0.0375367
2786.82	-0.0216234
2788.15	-0.870812
2789.48	-0.521887
2790.81	-0.095259
2792.14	-0.136721
2793.47	-0.431
2794.8	0.549312
2796.13	0.958513
2797.46	0.869743
2798.79	1.26876
2800.12	1.54247
2801.45	1.38212
2802.78	1.19393
2804.11	0.807515
2805.44	0.870441
2806.76	0.9523
2808.09	1.38792
2809.42	1.71618
2810.75	1.85562
2812.07	2.51517
2813.4	3.44026
2814.73	3.79178
2816.05	3.87183
2817.38	3.46765
2818.7	3.76042
2820.03	3.92992
2821.35	3.85154
2822.68	5.00017
2824	5.56491
2825.33	6.06782
2826.65	6.44761
2827.98	7.28059
2829.3	7.63359
2830.62	8.86704
2831.95	9.73127
2833.27	11.0116
2834.59	11.6208
2835.92	12.0646
2837.24	13.1328
2838.56	13.2547
2839.88	14.5402
2841.2	15.0982
2842.53	16.0155
2843.85	16.8374
2845.17	17.8167
2846.49	18.827
2847.81	20.2803
2849.13	22.6721
2850.45	24.349
2851.77	25.7584
2853.09	27.5288
2854.41	29.2687
2855.73	31.9638
2857.05	33.4078
2858.37	34.8398
2859.68	36.1257
2861	38.5128
2862.32	39.38
2863.64	40.9026
2864.96	42.5519
2866.27	43.1804
2867.59	44.0485
2868.91	46.3
2870.22	47.8129
2871.54	48.3716
2872.86	49.7034
2874.17	51.3825
2875.49	52.9212
2876.8	54.6246
2878.12	56.2976
2879.44	57.3384
2880.75	58.3227
2882.06	59.6801
2883.38	60.3556
2884.69	62.1644
2886.01	63.398
2887.32	64.6295
2888.63	65.7447
2889.95	66.6668
2891.26	68.1652
2892.57	69.9739
2893.88	71.1049
2895.2	72.7547
2896.51	74.6679
2897.82	76.1438
2899.13	78.2771
2900.44	80.2182
2901.76	82.4908
2903.07	85.4177
2904.38	87.5543
2905.69	90.422
2907	92.968
2908.31	95.9554
2909.62	98.8836
2910.93	101.749
2912.24	105.002
2913.54	108.309
2914.85	111.558
2916.16	113.948
2917.47	115.767
2918.78	118.239
2920.09	120.573
2921.39	122.912
2922.7	124.257
2924.01	125.379
2925.31	126.322
2926.62	128.494
2927.93	128.602
2929.24	129.807
2930.54	130.149
2931.85	130.438
2933.15	130.586
2934.46	131.164
2935.76	129.831
2937.07	129.666
2938.37	129.729
2939.68	129.372
2940.98	128.417
2942.29	127.697
2943.59	126.296
2944.89	123.911
2946.2	122.978
2947.5	120.725
2948.8	118.926
2950.1	117.262
2951.41	114.542
2952.71	112.746
2954.01	110.477
2955.31	108.444
2956.62	106.122
2957.92	103.341
2959.22	100.605
2960.52	99.5975
2961.82	97.5081
2963.12	95.7564
2964.42	93.7411
2965.72	92.0356
2967.02	90.1974
2968.32	87.837
2969.62	85.7749
2970.92	83.5803
2972.21	81.8316
2973.51	79.3464
2974.81	76.5652
2976.11	74.0715
2977.41	72.052
2978.71	70.3725
2980	68.2263
2981.3	65.1911
2982.6	62.1368
2983.89	60.2096
2985.19	57.2165
2986.49	54.2712
2987.78	51.168
2989.08	48.6939
2990.37	46.6114
2991.67	44.7316
2992.96	42.0563
2994.26	40.3458
2995.55	38.1499
2996.85	36.0454
2998.14	33.3362
2999.44	31.9641
3000.73	29.3987
3002.02	28.0831
3003.32	26.4279
3004.61	25.6214
3005.9	23.8509
3007.2	22.6233
3008.49	21.0271
3009.78	19.483
3011.07	18.6296
3012.36	17.4551
3013.66	16.9438
3014.95	15.4325
3016.24	14.6782
3017.53	14.9124
3018.82	13.9656
3020.11	13.4417
3021.4	12.9405
3022.69	12.5553
3023.98	12.0825
3025.27	12.3359
3026.56	11.8056
3027.85	11.3598
3029.14	10.1237
3030.43	9.80948
3031.71	9.28875
3033	8.75199
3034.29	8.84328
3035.58	7.78981
3036.86	7.69442
3038.15	6.75092
3039.44	6.55779
3040.73	6.67754
3042.01	6.60928
3043.3	6.23032
3044.59	5.67651
3045.87	5.10662
3047.16	5.22469
3048.44	5.35632
3049.73	4.87968
3051.01	5.0121
3052.3	5.2531
3053.58	5.70319
3054.87	5.63262
3056.15	5.37162
3057.43	5.04146
3058.72	5.02671
3060	5.25799
3061.28	4.98839
3062.57	4.91091
3063.85	5.42392
3065.13	5.1712
3066.41	6.21488
3067.7	6.74355
3068.98	7.11845
3070.26	7.01505
3071.54	7.6078
3072.82	7.92701
3074.1	8.11921
3075.39	8.60977
3076.67	9.06273
3077.95	8.70168
3079.23	9.26816
3080.51	9.78411
3081.79	10.0513
3083.07	9.51818
3084.34	9.26754
3085.62	8.86806
3086.9	8.26046
3088.18	7.87135
3089.46	7.78403
3090.74	7.00629
3092.01	6.09751
3093.29	5.18684
3094.57	5.10308
3095.85	4.79584
3097.12	4.31717
3098.4	3.907
3099.68	3.49647
3100.95	3.63253
3102.23	2.99684
3103.51	2.97863
3104.78	3.07525
3106.06	3.18402
3107.33	2.68547
3108.61	2.40178
3109.88	1.69167
3111.16	1.78671
3112.43	1.90318
3113.71	2.12173
3114.98	2.40777
3116.25	2.59064
3117.53	2.9131
3118.8	2.58443
3120.07	2.65487
3121.34	3.0983
3122.62	3.83517
3123.89	4.21735
3125.16	4.41211
3126.43	5.28123
3127.71	5.99792
3128.98	6.77549
3130.25	8.19053
3131.52	8.55643
3132.79	9.48845
3134.06	10.2035
3135.33	10.9124
3136.6	11.5252
3137.87	12.265
3139.14	12.9998
3140.41	13.347
3141.68	14.103
3142.95	14.9468
3144.22	15.2876
3145.49	15.4995
3146.75	16.0454
3148.02	16.6184
3149.29	17.1778
