#Acq. time (s)=	45
#Accumulations=	2
#Range (cm-¹)=	200...3150
#Windows=	2
#Auto scanning=	Off
#Autofocus=	Off
#Macrospot=	Off
#AutoExposure=	Off
#Spike filter=	Multiple accum.
#Delay time (s)=	0
#Binning=	1
#Readout mode=	Signal
#DeNoise=	Off
#ICS correction=	On
#Dark correction=	Off
#Inst. Process=	Off
#Detector Gain=	Best Dynamic Range
#Detector ADC=	20 kHz       
#Detector temperature (°C)=	-69.85
#Instrument=	LabRAM HR Evol
#Detector=	Synapse
#Objective=	x100
#Grating=	600 gr/mm
#ND Filter=	100%
#Laser (nm)=	532 
#Hole=	100.021
#Range=	Auto
#Laser Pol.=	No
#Raman. Pol.=	No
#Laser Pol. (°)=	-0.0007625
#Raman Pol. (°)=	89.9995
#Collection=	Microscope
#StageXY=	Marzhauser
#StageZ=	Marzhauser
#X (µm)=	-6378.2
#Y (µm)=	830.1
#Z (µm)=	-64.65
#Full time(mm:ss)=	3:18
#Project=	
#Sample=	
#Site=	
#Title=	Mb_30_27_30_2x_45s_532 nm_x100_100%_600 gr_mm
#Remark=	
#Date=	13.07.2022 10:57
#Acquired=	13.07.2022 10:57:36
#Base:Fit=	10.08.2022 10:40:03
#Base:Sub=	10.08.2022 10:40:17
#Filter:Polynom=	16.08.2022 10:16:15
#AxisType[0]=Intens
#AxisUnit[0]=Cnt
#AxisType[1]=Spectr
#AxisUnit[1]=1/cm
200.563	28.9671
202.377	26.7255
204.194	23.512
206.008	20.7125
207.821	18.7922
209.634	17.4839
211.449	16.6369
213.262	15.2993
215.074	14.1746
216.885	12.6909
218.699	11.2102
220.51	9.87593
222.321	10.1798
224.131	9.47235
225.941	9.21181
227.751	7.81944
229.562	8.66395
231.371	9.00444
233.18	9.10153
234.988	8.85827
236.796	8.67562
238.603	8.55448
240.411	9.23728
242.219	9.0841
244.026	8.77864
245.832	9.22197
247.638	9.13464
249.443	9.58967
251.248	10.3189
253.053	10.445
254.857	12.0578
256.661	12.6929
258.465	13.0917
260.268	14.7737
262.071	13.7638
263.874	14.0012
265.678	13.4665
267.48	14.3629
269.282	14.3879
271.083	14.3308
272.884	12.6768
274.684	11.8333
276.484	10.8613
278.284	11.5602
280.084	12.3397
281.883	12.2772
283.682	12.4732
285.48	13.0353
287.276	14.5857
289.074	13.9638
290.871	14.4105
292.668	14.2996
294.465	15.2261
296.261	16.1382
298.057	15.6132
299.853	14.1112
301.648	13.6316
303.443	12.8248
305.237	12.3571
307.032	12.1057
308.823	13.4868
310.617	14.4286
312.41	15.6395
314.203	15.2635
315.995	15.8123
317.788	15.0449
319.579	15.7904
321.369	15.9307
323.16	16.2436
324.951	16.1456
326.741	16.4018
328.531	16.1118
330.321	17.1122
332.108	16.9432
333.897	17.0388
335.686	17.661
337.474	16.7407
339.26	16.569
341.048	16.1139
342.835	15.3663
344.622	15.39
346.406	13.878
348.192	12.1632
349.978	11.1604
351.764	10.4483
353.547	9.53909
355.332	9.25321
357.116	9.29144
358.901	8.45317
360.682	7.80651
362.466	7.19973
364.249	8.10105
366.03	9.26682
367.812	9.68003
369.594	10.0902
371.374	9.78883
373.155	9.92147
374.936	10.1043
376.715	9.44429
378.495	9.47383
380.273	10.2242
382.053	10.3762
383.832	11.1274
385.609	11.3196
387.388	10.3061
389.164	10.3952
390.942	12.0275
392.72	13.4651
394.495	14.925
396.272	16.1962
398.047	17.5902
399.823	18.2788
401.597	19.3349
403.372	20.1448
405.145	20.0194
406.92	21.028
408.693	21.5777
410.467	22.3558
412.239	21.4755
414.012	21.0747
415.783	21.8837
417.556	22.5278
419.327	24.4743
421.099	23.754
422.869	22.9086
424.64	22.0177
426.409	20.141
428.18	19.5274
429.948	18.9501
431.718	18.242
433.486	17.4965
435.253	16.4177
437.022	16.3561
438.789	15.7217
440.558	15.334
442.324	13.9635
444.089	14.5426
445.857	13.5089
447.622	13.7416
449.386	14.6027
451.153	14.625
452.917	14.1245
454.682	13.309
456.446	11.6048
458.208	11.2985
459.973	10.7785
461.735	10.1627
463.497	10.8718
465.259	12.0104
467.022	13.2114
468.783	13.2481
470.544	12.0997
472.306	12.0483
474.066	11.7277
475.825	12.4828
477.585	13.3684
479.346	14.8318
481.104	14.5888
482.862	14.9433
484.62	15.1728
486.38	15.8404
488.137	16.7171
489.894	17.2842
491.65	16.8294
493.407	16.5738
495.164	17.4558
496.92	16.385
498.675	17.0844
500.43	17.6757
502.184	18.4469
503.939	18.6873
505.694	18.8971
507.448	18.5422
509.201	17.6013
510.954	16.5808
512.706	16.0715
514.459	15.4827
516.21	15.9065
517.962	15.9345
519.715	15.4993
521.466	15.3999
523.216	14.7898
524.966	14.9567
526.716	13.6421
528.466	13.9766
530.215	14.8864
531.964	15.1621
533.712	14.8598
535.46	14.5046
537.208	13.2721
538.955	12.6028
540.703	11.9453
542.449	11.6272
544.196	11.5252
545.942	11.4158
547.688	10.776
549.433	10.8473
551.178	11.3508
552.923	11.1299
554.667	9.9724
556.412	9.40625
558.155	8.28953
559.899	9.23901
561.642	8.68248
563.385	8.76619
565.127	7.61268
566.867	7.35753
568.609	6.88355
570.35	7.09749
572.092	5.81396
573.832	5.57218
575.573	4.72846
577.313	4.30521
579.053	2.96296
580.79	3.30927
582.529	3.17691
584.268	2.68713
586.006	3.05365
587.745	3.17217
589.482	2.12286
591.218	2.61071
592.955	3.11884
594.692	3.17515
596.428	3.87574
598.164	3.33314
599.898	3.89997
601.634	3.50113
603.369	3.42217
605.104	4.20628
606.836	3.69745
608.57	4.40645
610.304	4.06532
612.037	5.05108
613.769	5.62104
615.501	7.30425
617.234	7.06795
618.966	6.20842
620.696	5.9278
622.427	5.88842
624.159	6.46184
625.887	6.54448
627.618	7.03923
629.348	7.90141
631.076	8.90571
632.806	8.81759
634.535	9.7669
636.262	11.3884
637.99	11.505
639.716	11.7703
641.444	11.6573
643.172	12.4491
644.897	12.3609
646.624	12.6047
648.348	12.7367
650.075	13.2862
651.801	13.4964
653.524	14.2509
655.249	14.9678
656.972	14.5839
658.697	14.7901
660.419	16.3622
662.143	16.1674
663.865	17.9622
665.588	18.6021
667.309	19.0886
669.032	19.6244
670.752	19.9012
672.474	20.3754
674.194	19.9748
675.915	20.1742
677.634	20.7417
679.355	20.9397
681.073	21.7608
682.793	21.3558
684.511	21.4715
686.23	20.9038
687.947	20.7737
689.664	21.8963
691.382	23.2294
693.098	24.0897
694.816	25.6639
696.531	26.5398
698.247	27.7775
699.963	28.0958
701.678	27.4934
703.392	26.126
705.108	27.4081
706.821	26.9008
708.534	27.4644
710.249	27.7891
711.962	29.5837
713.674	30.5935
715.388	30.6238
717.099	30.7188
718.81	30.417
720.523	31.4434
722.234	32.4055
723.944	33.4047
725.654	33.5264
727.365	34.3497
729.075	35.0336
730.784	35.0397
732.492	36.1897
734.202	38.1666
735.91	38.063
737.618	39.187
739.325	40.0489
741.034	41.3874
742.741	41.7241
744.447	43.6264
746.153	44.905
747.859	46.4118
749.564	47.4703
751.271	47.8058
752.976	48.1272
754.681	49.2761
756.385	50.4596
758.088	51.3467
759.792	52.4709
761.495	54.3421
763.2	56.0959
764.902	57.7915
766.604	58.1694
768.306	59.4661
770.008	61.6164
771.709	62.9307
773.41	64.5461
775.11	66.454
776.811	67.8911
778.51	68.9033
780.21	69.7667
781.909	70.0416
783.608	70.771
785.307	72.0238
787.005	73.1147
788.703	74.965
790.401	76.3208
792.098	77.5483
793.795	79.6525
795.492	80.0426
797.188	80.3582
798.884	79.6913
800.58	79.6663
802.276	80.1695
803.971	80.3014
805.665	81.1537
807.36	82.0186
809.054	81.4585
810.748	79.8076
812.441	79.832
814.135	79.4331
815.826	79.6258
817.518	80.4283
819.21	79.7257
820.902	78.3886
822.594	79.5001
824.285	78.5139
825.976	78.7546
827.665	77.8769
829.355	78.351
831.045	76.9487
832.735	74.5807
834.424	72.7352
836.111	71.7384
837.8	70.5572
839.488	70.1553
841.177	69.4766
842.864	67.9005
844.55	67.2959
846.237	65.9005
847.924	64.201
849.61	61.8993
851.295	60.0178
852.98	59.7688
854.666	58.1079
856.349	56.7
858.034	54.8114
859.719	55.0794
861.403	54.8927
863.085	53.8384
864.769	53.7647
866.452	53.2958
868.133	53.8215
869.816	53.0199
871.498	51.5137
873.179	50.9305
874.86	49.8265
876.54	50.0103
878.221	48.054
879.902	46.1234
881.58	46.122
883.26	46.4612
884.938	45.9148
886.618	45.7947
888.297	46.2841
889.974	47.0527
891.653	46.3046
893.329	45.3553
895.007	45.4167
896.683	46.8605
898.36	47.2945
900.035	47.7579
901.712	47.2754
903.387	46.4311
905.063	46.7659
906.737	47.388
908.412	47.4024
910.085	48.2871
911.76	48.4429
913.433	48.2683
915.107	47.485
916.779	47.2434
918.452	48.888
920.124	48.8799
921.797	48.7615
923.467	48.319
925.138	47.1427
926.81	46.4439
928.48	45.8021
930.151	44.8107
931.82	43.4402
933.489	42.6934
935.16	41.5709
936.828	41.581
938.496	41.5912
940.165	42.1343
941.833	42.1326
943.5	42.3873
945.168	40.8596
946.834	39.5811
948.5	39.3837
950.168	38.4953
951.834	38.1332
953.499	37.2282
955.163	36.8091
956.83	36.6212
958.494	35.0117
960.158	34.564
961.821	32.8686
963.487	32.1632
965.15	32.3661
966.812	31.9328
968.474	32.7203
970.138	32.6394
971.8	32.446
973.461	31.7004
975.123	31.3031
976.783	32.1992
978.446	32.5349
980.106	32.7611
981.766	32.5751
983.425	31.8233
985.084	31.191
986.743	32.2896
988.402	31.3033
990.06	31.4329
991.72	30.2595
993.378	28.8625
995.035	28.635
996.692	27.405
998.349	26.6088
1000.01	25.9377
1001.66	25.1359
1003.32	24.5514
1004.97	24.3947
1006.63	24.92
1008.28	26.2168
1009.94	26.6835
1011.59	27.8952
1013.25	29.4035
1014.9	30.5929
1016.55	32.5343
1018.21	34.4091
1019.86	36.6166
1021.51	38.8151
1023.16	38.9443
1024.81	39.3191
1026.47	39.7184
1028.12	39.8548
1029.77	41.4495
1031.42	42.1217
1033.07	42.5299
1034.72	42.8319
1036.37	43.0053
1038.02	42.4131
1039.67	42.2452
1041.31	41.9496
1042.96	41.8946
1044.61	41.2431
1046.26	41.5607
1047.91	41.7818
1049.55	41.8106
1051.2	42.279
1052.84	40.9679
1054.49	40.7183
1056.14	40.2399
1057.78	39.0088
1059.43	37.6133
1061.07	35.4366
1062.72	33.9311
1064.36	31.8144
1066	30.0349
1067.65	28.5645
1069.29	26.4817
1070.93	22.9408
1072.58	22.2304
1074.22	20.2975
1075.86	19.2907
1077.5	18.1527
1079.14	16.7522
1080.78	15.4287
1082.42	14.838
1084.06	13.7019
1085.7	14.605
1087.34	16.1793
1088.98	17.0987
1090.62	17.4826
1092.26	17.1185
1093.9	18.2929
1095.54	18.9199
1097.17	18.6306
1098.81	18.7618
1100.45	18.706
1102.09	18.1844
1103.72	19.5789
1105.36	18.2116
1106.99	19.1166
1108.63	19.1273
1110.27	19.2006
1111.9	20.2648
1113.53	19.319
1115.17	19.7799
1116.8	18.9984
1118.43	19.8824
1120.07	19.2605
1121.7	19.3024
1123.33	18.8385
1124.97	18.8653
1126.6	19.0663
1128.23	19.4466
1129.86	19.027
1131.49	18.9386
1133.12	18.3524
1134.75	18.0991
1136.38	16.5091
1138.01	15.5106
1139.64	14.1685
1141.27	14.1734
1142.9	13.7975
1144.53	13.3351
1146.16	12.0335
1147.78	11.5026
1149.41	10.6221
1151.04	9.39709
1152.67	8.77585
1154.29	8.27909
1155.92	6.69488
1157.54	5.89553
1159.17	5.255
1160.8	4.51077
1162.42	3.38784
1164.05	3.39915
1165.67	2.74884
1167.29	3.91938
1168.92	3.758
1170.54	2.05055
1172.16	2.17866
1173.79	2.96443
1175.41	2.02007
1177.03	2.64435
1178.65	2.41522
1180.28	2.82346
1181.9	3.03532
1183.52	3.64491
1185.14	4.90403
1186.76	4.59384
1188.38	5.06291
1190	6.22385
1191.62	6.83725
1193.24	7.49606
1194.86	8.52874
1196.47	9.88806
1198.09	9.74286
1199.71	10.7404
1201.33	11.8908
1202.95	12.718
1204.56	14.1374
1206.18	15.9697
1207.8	16.7364
1209.41	17.1266
1211.03	17.8841
1212.64	19.4665
1214.26	21.0729
1215.87	22.5406
1217.49	23.2948
1219.1	25.0085
1220.71	25.674
1222.33	27.0267
1223.94	29.0297
1225.55	30.1397
1227.16	32.2099
1228.78	34.3132
1230.39	36.2832
1232	37.3935
1233.61	39.0682
1235.22	40.4397
1236.83	42.3859
1238.44	44.5925
1240.05	45.9756
1241.66	47.8988
1243.27	48.9114
1244.88	50.6523
1246.49	51.1153
1248.1	52.7942
1249.71	53.4401
1251.32	54.4589
1252.92	56.3706
1254.53	57.4032
1256.14	56.5594
1257.74	58.7981
1259.35	58.3566
1260.96	59.7979
1262.56	60.9949
1264.17	61.9694
1265.77	63.3282
1267.38	63.9139
1268.98	64.4978
1270.59	65.6898
1272.19	66.1828
1273.79	66.8806
1275.4	68.0077
1277	67.3719
1278.6	67.7941
1280.21	69.5433
1281.81	70.5977
1283.41	70.9091
1285.01	72.0333
1286.61	72.8953
1288.21	73.5691
1289.81	74.3671
1291.41	75.1816
1293.01	75.7559
1294.61	75.4153
1296.21	75.8784
1297.81	75.4547
1299.41	74.9868
1301.01	74.979
1302.6	76.1129
1304.2	76.9184
1305.8	76.7004
1307.4	77.4692
1308.99	77.6319
1310.59	78.3841
1312.19	79.0069
1313.78	79.3875
1315.38	79.5227
1316.97	79.3008
1318.57	78.89
1320.16	78.5521
1321.76	77.6477
1323.35	76.8406
1324.94	77.1112
1326.54	75.7907
1328.13	75.5354
1329.72	74.6441
1331.32	74.6117
1332.91	73.6931
1334.5	73.0042
1336.09	72.7392
1337.68	72.9384
1339.27	71.8601
1340.87	71.4185
1342.45	70.1488
1344.04	69.0178
1345.64	67.9566
1347.22	67.0723
1348.81	66.4631
1350.4	65.8093
1351.99	64.7438
1353.58	64.099
1355.17	62.9092
1356.75	61.3252
1358.34	61.0024
1359.93	61.4015
1361.51	58.9935
1363.1	58.6283
1364.69	57.767
1366.27	55.7523
1367.86	54.5702
1369.44	52.6503
1371.03	51.1363
1372.61	50.4093
1374.2	48.58
1375.78	48.6045
1377.37	47.1568
1378.95	47.4449
1380.53	47.1255
1382.11	46.2331
1383.7	46.1237
1385.28	45.9998
1386.86	46.117
1388.44	46.0365
1390.02	45.6717
1391.6	44.6015
1393.19	43.7816
1394.77	43.0613
1396.35	43.6756
1397.93	44.7737
1399.51	45.3502
1401.08	45.3196
1402.66	46.6521
1404.24	47.5392
1405.82	47.8141
1407.4	49.2123
1408.97	50.1135
1410.55	52.1107
1412.13	52.976
1413.71	54.9884
1415.28	56.6317
1416.86	57.9093
1418.43	59.8471
1420.01	61.8213
1421.59	65.0769
1423.16	67.0051
1424.73	69.252
1426.31	72.605
1427.88	75.0933
1429.46	78.1254
1431.03	79.7904
1432.6	82.1484
1434.18	83.5639
1435.75	85.8944
1437.32	87.8944
1438.89	89.5566
1440.46	89.855
1442.04	92.2933
1443.61	93.4558
1445.18	94.225
1446.75	96.5717
1448.32	96.9209
1449.89	96.8131
1451.46	96.3856
1453.03	95.9943
1454.6	96.6029
1456.16	96.7522
1457.73	95.9454
1459.3	94.7846
1460.87	92.9993
1462.44	92.7355
1464	90.1405
1465.57	88.7339
1467.14	86.301
1468.7	83.5315
1470.27	81.8097
1471.83	80.2259
1473.4	78.0514
1474.96	76.3307
1476.53	73.3579
1478.09	70.5776
1479.66	68.2019
1481.22	65.5742
1482.78	63.2357
1484.35	60.7398
1485.91	58.2321
1487.47	55.8372
1489.04	54.3726
1490.6	52.1399
1492.16	50.1682
1493.72	48.6938
1495.28	46.5525
1496.84	44.6488
1498.4	42.9464
1499.96	41.6792
1501.52	39.694
1503.08	38.3887
1504.64	36.998
1506.2	35.4829
1507.76	34.2183
1509.32	32.3319
1510.88	30.8802
1512.44	28.9018
1513.99	27.856
1515.55	26.1836
1517.11	26.2343
1518.66	25.2481
1520.22	24.2206
1521.78	22.8053
1523.33	21.7309
1524.89	21.311
1526.44	19.8004
1528	18.7394
1529.55	18.9098
1531.11	18.8391
1532.66	19.349
1534.21	19.7812
1535.77	19.2553
1537.32	18.6119
1538.87	18.5157
1540.43	19.9191
1541.98	20.0023
1543.53	20.909
1545.08	21.0339
1546.63	22.4647
1548.18	24.0301
1549.74	24.2894
1551.29	24.8053
1552.84	26.0147
1554.39	27.7702
1555.94	28.2994
1557.48	29.1597
1559.03	29.3426
1560.58	30.419
1562.13	32.1664
1563.68	32.8789
1565.23	34.1416
1566.78	36.6789
1568.32	37.5494
1569.87	39.263
1571.42	41.4009
1572.96	41.7338
1574.51	44.0634
1576.05	45.7026
1577.6	47.1762
1579.14	48.5999
1580.69	49.4486
1582.24	51.2253
1583.78	53.0003
1585.32	53.6298
1586.87	55.3792
1588.41	56.2089
1589.95	57.3292
1591.5	58.9796
1593.04	59.4369
1594.58	60.7893
1596.12	60.6558
1597.67	60.609
1599.21	60.7084
1600.75	60.2779
1602.29	61.6537
1603.83	60.7322
1605.37	60.7723
1606.91	61.8422
1608.45	60.9696
1609.99	61.2311
1611.53	60.7267
1613.07	60.8249
1614.6	60.1587
1616.14	60.963
1617.68	61.2859
1619.22	60.0062
1620.75	59.9807
1622.29	60.5817
1623.83	60.4583
1625.37	60.3085
1626.9	60.8503
1628.44	61.6805
1629.97	61.7863
1631.51	62.6567
1633.04	62.6191
1634.58	64.123
1636.11	64.5811
1637.65	65.4183
1639.18	67.5016
1640.72	67.3577
1642.25	68.8893
1643.78	70.3582
1645.31	70.8791
1646.85	73.1156
1648.38	74.0944
1649.91	74.2814
1651.44	75.9031
1652.97	76.5204
1654.5	77.6145
1656.03	78.6607
1657.56	79.3087
1659.1	80.1149
1660.62	80.3861
1662.15	80.9298
1663.68	81.489
1665.21	80.3807
1666.74	79.0813
1668.27	78.4364
1669.8	76.7227
1671.32	75.1907
1672.85	73.0071
1674.38	70.285
1675.91	68.1686
1677.43	66.537
1678.96	65.901
1680.49	62.0055
1682.01	60.0465
1683.54	57.4725
1685.06	54.8408
1686.59	52.5398
1688.11	50.3244
1689.64	48.1088
1691.16	46.0026
1692.68	44.2599
1694.21	41.4803
1695.73	38.9397
1697.25	37.6554
1698.78	36.3795
1700.3	34.1818
1701.82	33.1916
1703.34	31.7935
1704.86	29.8409
1706.39	28.1199
1707.91	27.2803
1709.43	25.631
1710.95	24.3286
1712.47	22.8201
1713.99	21.9378
1715.51	20.8599
1717.02	19.8131
1718.54	19.434
1720.06	18.8859
1721.58	18.7227
1723.1	18.101
1724.62	17.0295
1726.13	16.4903
1727.65	16.6594
1729.17	16.5435
1730.68	16.8876
1732.2	16.4524
1733.72	15.8488
1735.23	14.8872
1736.75	14.0605
1738.26	13.5827
1739.78	12.6844
1741.29	11.9506
1742.81	11.07
1744.32	10.3792
1745.84	8.83513
1747.35	8.10694
1748.86	7.27228
1750.37	6.74641
1751.89	7.04881
1753.4	6.83926
1754.91	6.51787
1756.42	5.54724
1757.93	5.67323
1759.45	5.29577
1760.96	5.13101
1762.47	4.07026
1763.98	3.89903
1765.49	3.81456
1767	4.29564
1768.51	3.13036
1770.02	2.20866
1771.53	2.45304
1773.03	2.59451
1774.54	2.30539
1776.05	1.71307
1777.56	1.14986
1779.07	0.998273
1780.57	0.849412
1782.08	0.485096
1783.59	0.561126
1785.09	0.293195
1786.6	0.711556
1788.11	1.20465
1789.61	0.995553
1791.12	0.592812
1792.62	1.23293
1794.13	0.746143
1795.63	0.918212
1797.13	0.879247
1798.64	1.32444
1800.14	1.86364
1801.65	2.10303
1803.15	1.89987
1804.65	1.76213
1806.15	1.60808
1807.66	0.734881
1809.16	0.853156
1810.66	0.875898
1812.16	1.23808
1813.66	1.83351
1815.16	1.86668
1816.66	2.05562
1818.16	1.6241
1819.66	2.06996
1821.16	1.73572
1822.66	1.60452
1824.16	2.23629
1825.66	2.20911
1827.16	2.86848
1828.66	2.74251
1830.16	2.91179
1831.65	2.97496
1833.15	2.87704
1834.65	3.4615
1836.14	3.12513
1837.64	3.1927
1839.14	3.21797
1840.63	3.29066
1842.13	2.92742
1843.62	1.82236
1845.12	1.90532
1846.61	2.32303
1848.11	2.07368
1849.6	2.03965
1851.1	2.26744
1852.59	2.1999
1854.08	2.64178
1855.58	2.626
1857.07	2.34065
1858.56	2.41949
1860.05	2.4945
1861.55	3.02343
1863.04	2.93778
1864.53	2.66793
1866.02	2.72714
1867.51	3.05489
1869	2.42913
1870.49	2.35899
1871.98	1.52395
1873.47	1.03126
1874.96	0.659462
1876.45	0.387084
1877.94	-0.27721
1879.43	-0.322674
1880.92	0.213095
1882.41	0.291564
1882.51	0.493091
1884	0.299812
1885.5	0.33407
1886.99	0.21293
1888.48	0.0131719
1889.98	0.152771
1891.47	0.42365
1892.96	0.438274
1894.46	-0.0944751
1895.95	-0.0577544
1897.44	0.462634
1898.93	0.203891
1900.42	0.81048
1901.91	0.26876
1903.41	0.453297
1904.9	0.789384
1906.39	0.407775
1907.88	0.45457
1909.37	0.137616
1910.86	1.05919
1912.35	0.989631
1913.83	1.28614
1915.32	2.04585
1916.81	1.89612
1918.3	2.33668
1919.79	3.74288
1921.27	4.23915
1922.76	4.81261
1924.25	4.71761
1925.74	4.88398
1927.22	4.89267
1928.71	5.13968
1930.19	6.09635
1931.68	7.19674
1933.17	7.79495
1934.65	8.91458
1936.14	9.2073
1937.62	9.76602
1939.11	9.88416
1940.59	10.1902
1942.07	10.1166
1943.56	10.3412
1945.04	10.2808
1946.52	11.0418
1948.01	12.1544
1949.49	12.547
1950.97	12.5863
1952.45	13.6928
1953.93	13.4054
1955.42	12.5587
1956.9	12.4492
1958.38	12.4444
1959.86	12.4804
1961.34	12.0537
1962.82	12.552
1964.3	12.7217
1965.78	11.9462
1967.26	11.2009
1968.74	11.5313
1970.21	11.1992
1971.69	11.6979
1973.17	11.405
1974.65	11.9417
1976.13	11.9064
1977.6	12.1723
1979.08	12.3588
1980.56	11.7717
1982.03	11.9054
1983.51	11.9699
1984.99	11.6459
1986.46	11.9112
1987.94	11.8524
1989.41	11.7414
1990.89	11.6098
1992.36	12.1306
1993.84	12.4167
1995.31	11.6019
1996.78	11.439
1998.26	11.3687
1999.73	12.0817
2001.2	11.9772
2002.68	12.308
2004.15	13.2376
2005.62	13.0192
2007.09	12.8905
2008.56	13.6906
2010.04	13.4681
2011.51	13.966
2012.98	13.5322
2014.45	13.2643
2015.92	12.7059
2017.39	12.8697
2018.86	12.7393
2020.33	12.7515
2021.8	13.015
2023.26	13.0527
2024.73	13.4236
2026.2	13.7404
2027.67	13.6558
2029.14	14.5954
2030.61	15.2038
2032.07	15.0096
2033.54	15.4788
2035.01	15.2017
2036.47	15.8785
2037.94	15.38
2039.4	14.9641
2040.87	15.7238
2042.33	16.3225
2043.8	16.4439
2045.27	17.1586
2046.73	16.8043
2048.19	16.7733
2049.66	16.713
2051.12	16.635
2052.59	16.446
2054.05	16.3881
2055.51	16.7803
2056.97	16.9597
2058.44	17.2124
2059.9	17.8668
2061.36	17.7229
2062.82	18.8521
2064.28	19.1827
2065.74	19.4213
2067.21	19.4306
2068.67	20.0268
2070.13	20.1686
2071.59	19.9478
2073.05	20.7516
2074.51	20.4451
2075.96	21.4523
2077.42	22.2714
2078.88	22.9168
2080.34	22.6189
2081.8	22.7595
2083.26	23.314
2084.72	23.0893
2086.17	22.9129
2087.63	24.1108
2089.09	25.4938
2090.54	26.7797
2092	27.7705
2093.45	29.3122
2094.91	30.666
2096.37	31.4352
2097.82	32.1098
2099.28	32.6409
2100.73	32.8582
2102.19	33.0512
2103.64	33.6487
2105.09	33.9699
2106.55	34.7921
2108	34.8486
2109.45	36.7116
2110.91	37.0134
2112.36	37.8094
2113.81	39.0036
2115.26	39.779
2116.72	39.8102
2118.17	40.6186
2119.62	40.6231
2121.07	41.9891
2122.52	43.4358
2123.97	43.4258
2125.42	45.2804
2126.87	46.7054
2128.32	48.3215
2129.77	48.9341
2131.22	50.1907
2132.67	51.8524
2134.11	53.8573
2135.56	55.1698
2137.01	57.014
2138.46	58.7388
2139.91	60.1907
2141.35	61.9508
2142.8	63.4767
2144.25	65.0367
2145.7	67.0999
2147.14	68.3845
2148.59	70.1893
2150.03	71.0681
2151.48	72.8694
2152.92	73.91
2154.37	76.6526
2155.81	79
2157.26	80.2287
2158.7	82.2083
2160.15	84.1297
2161.59	86.1255
2163.03	87.444
2164.47	88.4203
2165.92	88.8662
2167.36	89.4586
2168.8	90.2738
2170.24	90.9166
2171.69	91.8728
2173.13	91.9324
2174.57	92.0079
2176.01	92.4214
2177.45	92.7134
2178.89	92.716
2180.33	92.3135
2181.77	92.2409
2183.21	90.6413
2184.65	89.6933
2186.09	89.0931
2187.53	87.6375
2188.97	86.3527
2190.4	85.4452
2191.84	84.3424
2193.28	83.0241
2194.72	81.4465
2196.16	79.1949
2197.59	78.2891
2199.03	76.4358
2200.47	75.1018
2201.9	72.326
2203.34	70.5706
2204.77	69.1381
2206.21	68.1049
2207.64	65.9716
2209.08	64.7304
2210.51	62.6453
2211.95	61.1126
2213.38	59.7129
2214.82	57.6734
2216.25	56.1028
2217.68	54.8632
2219.12	52.8852
2220.55	51.6369
2221.98	50.0033
2223.41	49.5323
2224.85	48.152
2226.28	47.4004
2227.71	45.8901
2229.14	44.6265
2230.57	43.7907
2232	43.1939
2233.43	42.592
2234.86	41.0058
2236.29	39.7802
2237.72	38.995
2239.15	38.152
2240.58	37.2561
2242.01	35.9329
2243.44	35.6869
2244.87	34.752
2246.29	33.9914
2247.72	33.6614
2249.15	33.3578
2250.58	32.1171
2252.01	31.2832
2253.43	30.2693
2254.86	29.2692
2256.29	28.4802
2257.71	27.8953
2259.14	27.2436
2260.56	26.7981
2261.99	25.6018
2263.41	25.4748
2264.84	25.1546
2266.26	25.1125
2267.69	24.1655
2269.11	23.7804
2270.53	23.3138
2271.96	22.7955
2273.38	21.7062
2274.8	21.2989
2276.23	21.3449
2277.65	21.2178
2279.07	20.7041
2280.49	20.1466
2281.91	19.9906
2283.34	19.237
2284.76	18.5347
2286.18	17.9424
2287.6	17.7641
2289.02	17.5455
2290.44	16.6887
2291.86	17.0474
2293.28	16.383
2294.7	16.4452
2296.12	16.5577
2297.54	17.1333
2298.96	17.2558
2300.37	18.0065
2301.79	17.8555
2303.21	17.3997
2304.63	17.3896
2306.04	17.6036
2307.46	17.5422
2308.88	17.7121
2310.3	17.3189
2311.71	17.037
2313.13	17.0715
2314.54	17.289
2315.96	16.7438
2317.37	16.3255
2318.79	15.8986
2320.2	16.1507
2321.62	15.4427
2323.03	15.4678
2324.45	14.9066
2325.86	14.973
2327.27	15.1484
2328.69	15.4041
2330.1	15.4562
2331.51	14.7352
2332.92	14.4615
2334.34	14.0096
2335.75	13.287
2337.16	11.9505
2338.57	10.8554
2339.98	10.0535
2341.39	9.95724
2342.8	9.67665
2344.21	8.60807
2345.63	8.33249
2347.04	8.13299
2348.45	7.72179
2349.85	7.11833
2351.26	6.40676
2352.67	6.3945
2354.08	5.76711
2355.49	6.10119
2356.9	5.43692
2358.3	4.53735
2359.71	4.25713
2361.12	3.96489
2362.53	4.01288
2363.93	3.73346
2365.34	4.34433
2366.75	4.74362
2368.15	5.49149
2369.56	5.36916
2370.97	5.35696
2372.37	5.16467
2373.77	5.76382
2375.18	5.71691
2376.59	4.97476
2377.99	4.28318
2379.39	3.84722
2380.8	3.71388
2382.2	4.05282
2383.6	4.56375
2385.01	4.39157
2386.41	4.4351
2387.81	4.48618
2389.21	4.44292
2390.62	5.28966
2392.02	4.40208
2393.42	4.49562
2394.82	4.85743
2396.22	4.99002
2397.62	5.23047
2399.02	4.75638
2400.42	4.01335
2401.82	3.17216
2403.22	2.87243
2404.62	2.80549
2406.02	3.09624
2407.42	2.90614
2408.82	2.97645
2410.22	3.1262
2411.62	3.45862
2413.01	3.17583
2414.41	3.39353
2415.81	3.41494
2417.21	3.49947
2418.6	3.28141
2420	3.14655
2421.4	2.75298
2422.79	2.83284
2424.19	2.87354
2425.59	3.12938
2426.98	2.66449
2428.38	3.09027
2429.77	3.6248
2431.17	4.14746
2432.56	4.98994
2433.95	5.91096
2435.35	6.29741
2436.74	5.88098
2438.14	5.66293
2439.53	5.39032
2440.92	5.89003
2442.31	5.8513
2443.71	5.8755
2445.1	5.14171
2446.49	5.41361
2447.88	5.7367
2449.27	6.28346
2450.67	6.96722
2452.06	6.89903
2453.45	7.1079
2454.84	6.99093
2456.23	7.22141
2457.62	7.48854
2459.01	7.7091
2460.4	8.03559
2461.79	8.0377
2463.18	8.80082
2464.57	8.83095
2465.95	8.34153
2467.34	8.44456
2468.73	8.11682
2470.12	7.74466
2471.5	8.16027
2472.89	8.55972
2474.28	7.95199
2475.67	7.5066
2477.05	7.17444
2478.44	7.39362
2479.82	7.21063
2481.21	6.95837
2482.6	6.88239
2483.98	6.97008
2485.37	6.60052
2486.75	7.07378
2488.13	7.10003
2489.52	6.6914
2490.9	6.07977
2492.29	6.22776
2493.67	5.71074
2495.05	5.2215
2496.44	4.55118
2497.82	4.27623
2499.2	3.88339
2500.58	3.57434
2501.97	3.02252
2503.35	2.18325
2504.73	1.3791
2506.11	1.52654
2507.49	1.67783
2508.87	1.96567
2510.25	1.79923
2511.63	0.761351
2513.01	0.558622
2514.39	-0.414404
2515.77	-0.785311
2517.15	-0.543337
2518.53	-0.469996
2519.91	-0.192874
2521.29	-0.0733975
2522.67	0.271136
2524.05	0.421026
2525.42	1.11853
2526.8	1.67436
2528.18	1.94924
2529.55	2.53496
2530.93	2.41078
2532.31	2.13039
2533.69	2.34295
2535.06	2.33197
2536.44	2.72207
2537.81	3.27828
2539.19	3.50203
2540.56	4.35347
2541.94	4.24034
2543.31	4.49173
2544.69	4.75564
2546.06	5.07441
2547.44	5.7692
2548.81	5.74522
2550.18	5.79682
2551.56	5.98847
2552.93	6.05514
2554.3	6.06836
2555.67	5.86906
2557.04	5.51199
2558.42	4.94563
2559.79	4.38483
2561.16	4.88266
2562.53	4.97268
2563.9	4.97055
2565.27	4.92204
2566.64	4.72415
2568.01	4.99976
2569.38	4.35087
2570.75	4.49432
2572.12	5.33273
2573.49	5.26434
2574.86	5.02939
2576.23	4.18269
2577.6	3.93659
2578.97	3.89772
2580.33	3.09991
2581.7	2.91672
2583.07	2.90808
2584.44	3.70497
2585.8	4.12206
2587.17	3.91474
2588.54	3.66986
2589.9	3.84158
2591.27	4.18132
2592.64	4.07487
2594	3.81195
2595.37	3.76845
2596.73	3.40899
2598.1	3.05458
2599.46	2.43232
2600.83	2.37385
2602.19	2.30259
2603.55	2.00246
2604.92	2.52839
2606.28	2.34679
2607.64	1.7334
2609.01	0.97117
2610.37	0.708432
2611.73	0.449324
2613.09	-0.190852
2614.46	0.164789
2615.82	0.150409
2617.18	-0.595332
2618.54	0.0784712
2619.9	0.0244887
2621.26	0.0669342
2622.62	-0.173861
2623.98	-0.428188
2625.34	-0.266784
2626.7	-0.319995
2628.06	-0.265383
2629.42	0.290251
2630.78	0.127593
2632.14	0.430504
2633.5	0.569321
2634.86	0.997669
2636.21	1.79183
2637.57	2.08441
2638.93	3.00485
2640.29	3.62809
2641.64	3.86359
2643	3.74843
2644.36	4.05274
2645.71	4.42818
2647.07	4.31456
2648.43	4.41009
2649.78	5.25709
2651.14	5.87405
2652.49	5.99363
2653.85	5.89979
2655.2	6.12489
2656.56	5.87193
2657.91	6.1281
2659.26	5.64686
2660.62	5.35644
2661.97	5.12673
2663.32	4.68419
2664.68	4.71924
2666.03	4.52723
2667.38	4.29413
2668.74	4.65056
2670.09	4.13025
2671.44	4.29564
2672.79	4.20748
2674.14	4.35855
2675.49	3.96098
2676.84	3.79508
2678.19	3.89629
2679.54	4.43031
2680.89	4.71546
2682.24	4.70445
2683.59	4.92907
2684.94	4.63519
2686.29	4.89014
2687.64	4.60344
2688.99	4.64344
2690.34	4.46885
2691.69	4.73683
2693.03	4.98955
2694.38	5.40016
2695.73	5.86413
2697.08	6.09044
2698.42	5.95325
2699.77	6.46292
2701.12	6.92241
2702.46	7.61125
2703.81	7.93265
2705.15	8.36711
2706.5	8.48876
2707.85	8.32729
2709.19	8.32927
2710.54	7.98524
2711.88	8.73911
2713.22	8.82623
2714.57	8.97008
2715.91	9.42064
2717.26	9.20427
2718.6	8.58636
2719.94	9.10674
2721.29	9.14891
2722.63	8.84625
2723.97	8.12534
2725.31	8.21409
2726.66	8.31304
2728	8.83763
2729.34	8.5263
2730.68	8.72105
2732.02	8.9917
2733.36	8.8474
2734.7	8.78475
2736.04	8.95604
2737.38	8.80779
2738.72	9.65821
2740.06	9.56317
2741.4	9.91224
2742.74	9.49115
2744.08	9.0013
2745.42	9.48559
2746.76	9.6258
2748.09	9.19024
2749.43	9.22535
2750.77	9.30779
2752.11	8.78958
2753.45	9.21975
2754.78	9.02529
2756.12	8.26211
2757.46	8.02582
2758.79	7.52266
2760.13	6.91751
2761.46	6.4715
2762.8	5.73281
2764.14	4.87475
2765.47	4.19029
2766.8	4.43224
2768.14	4.32275
2769.47	3.90746
2770.81	3.50889
2772.14	3.26837
2773.48	2.57121
2774.81	2.49343
2776.14	2.69282
2777.48	2.65647
2778.81	2.17138
2780.14	2.00951
2781.47	1.93622
2782.8	2.31818
2784.14	2.16285
2785.47	2.30037
2786.8	2.75546
2788.13	1.81436
2789.46	1.64251
2790.79	1.42722
2792.12	1.41754
2793.45	1.41137
2794.78	1.61245
2796.11	1.86594
2797.44	2.44543
2798.77	2.61279
2800.1	3.03149
2801.43	3.0976
2802.76	3.83231
2804.09	4.09094
2805.41	4.57899
2806.74	5.11306
2808.07	5.42506
2809.4	4.92686
2810.72	4.73424
2812.05	5.5051
2813.38	5.86278
2814.71	6.1015
2816.03	5.98942
2817.36	6.37245
2818.68	7.17292
2820.01	7.94364
2821.33	8.22324
2822.66	9.12845
2823.98	10.1096
2825.31	10.119
2826.63	11.2635
2827.96	12.3276
2829.28	13.763
2830.6	14.9756
2831.93	16.4668
2833.25	18.2855
2834.57	19.9273
2835.9	22.0585
2837.22	24.1925
2838.54	26.5154
2839.86	28.4257
2841.18	31.0509
2842.5	33.4063
2843.83	36.1769
2845.15	38.6579
2846.47	42.2145
2847.79	45.8797
2849.11	49.4364
2850.43	52.4368
2851.75	55.7491
2853.07	59.3739
2854.39	63.1051
2855.71	66.7521
2857.03	70.7132
2858.35	74.6288
2859.66	78.755
2860.98	82.7092
2862.3	87.2444
2863.62	90.7372
2864.94	93.8183
2866.25	97.1657
2867.57	100.71
2868.89	104.148
2870.2	106.459
2871.52	109.328
2872.84	111.565
2874.15	113.843
2875.47	116.49
2876.78	119.239
2878.1	122.208
2879.41	125.022
2880.73	127.093
2882.04	129.916
2883.36	132.618
2884.67	135.037
2885.99	137.51
2887.3	140.217
2888.61	142.387
2889.93	144.69
2891.24	146.743
2892.55	149.959
2893.86	152.379
2895.18	155.181
2896.49	157.755
2897.8	160.791
2899.11	165.059
2900.42	169.172
2901.73	173.059
2903.05	176.763
2904.36	180.002
2905.67	184.042
2906.98	189.547
2908.29	195.182
2909.6	200.885
2910.91	206.642
2912.21	212.555
2913.52	218.231
2914.83	223.493
2916.14	229.207
2917.45	234.262
2918.76	238.923
2920.07	243.042
2921.37	247.077
2922.68	252.031
2923.99	255.366
2925.29	258.174
2926.6	261.603
2927.91	264.362
2929.22	265.254
2930.52	265.813
2931.83	267.096
2933.13	267.066
2934.44	266.447
2935.74	265.766
2937.05	265.372
2938.35	263.917
2939.66	263.323
2940.96	261.349
2942.26	258.385
2943.57	255.74
2944.87	252.171
2946.18	248.668
2947.48	244.699
2948.78	240.544
2950.08	236.37
2951.39	231.755
2952.69	226.78
2953.99	221.152
2955.29	215.67
2956.59	210.825
2957.9	205.471
2959.2	200.056
2960.5	195.431
2961.8	190.331
2963.1	184.888
2964.4	180.123
2965.7	174.406
2967	168.994
2968.3	163.911
2969.6	159.869
2970.9	156.089
2972.19	152.396
2973.49	148.313
2974.79	144.189
2976.09	140.028
2977.39	135.631
2978.68	131.282
2979.98	127.119
2981.28	122.812
2982.58	118.513
2983.87	114.275
2985.17	110.345
2986.47	106.543
2987.76	102.493
2989.06	97.7247
2990.35	93.166
2991.65	89.7382
2992.94	85.16
2994.24	80.9584
2995.53	76.8788
2996.83	73.8598
2998.12	70.1143
2999.42	67.3984
3000.71	64.6861
3002	61.3451
3003.3	57.9071
3004.59	55.1726
3005.88	52.0778
3007.18	48.8988
3008.47	46.2167
3009.76	43.0125
3011.05	40.5201
3012.34	37.9022
3013.64	35.7783
3014.93	33.6567
3016.22	31.5997
3017.51	29.6979
3018.8	27.4877
3020.09	25.606
3021.38	24.3587
3022.67	22.5463
3023.96	20.8595
3025.25	19.414
3026.54	17.3835
3027.83	16.2125
3029.12	15.7972
3030.41	14.8957
3031.69	14.6284
3032.98	14.1107
3034.27	13.4991
3035.56	12.5006
3036.84	12.5135
3038.13	12.1473
3039.42	11.8803
3040.71	11.9639
3041.99	11.6526
3043.28	11.5511
3044.57	11.8038
3045.85	12.421
3047.14	12.8702
3048.42	12.788
3049.71	13.3078
3050.99	13.269
3052.28	13.5561
3053.56	13.5331
3054.85	13.296
3056.13	13.6787
3057.41	14.1091
3058.7	14.374
3059.98	14.574
3061.26	14.6761
3062.55	14.5611
3063.83	14.2197
3065.11	13.9364
3066.39	13.4659
3067.68	12.6179
3068.96	12.1992
3070.24	11.7738
3071.52	10.8774
3072.8	10.8272
3074.08	10.3337
3075.36	10.5882
3076.65	9.95341
3077.93	9.22397
3079.21	8.49183
3080.49	8.01029
3081.77	7.1289
3083.04	6.3484
3084.32	5.37651
3085.6	4.76764
3086.88	4.45273
3088.16	3.72651
3089.44	3.16255
3090.72	2.71122
3091.99	2.61634
3093.27	1.75338
3094.55	1.17491
3095.83	0.631966
3097.1	-0.439012
3098.38	-0.642963
3099.66	-1.00802
3100.93	-0.815369
3102.21	-1.05189
3103.49	-1.10626
3104.76	-0.724254
3106.04	-0.494091
3107.31	-0.457491
3108.59	0.125303
3109.86	0.188282
3111.14	0.420891
3112.41	0.972213
3113.69	0.825676
3114.96	0.646986
3116.23	0.658072
3117.51	0.22652
3118.78	0.231503
3120.05	0.612018
3121.33	0.980634
3122.6	0.525294
3123.87	0.435958
3125.14	0.0378004
3126.41	0.475413
3127.69	0.371133
3128.96	0.566958
3130.23	0.234142
3131.5	-0.12815
3132.77	0.761133
3134.04	0.950884
3135.31	1.31171
3136.58	1.73471
3137.85	1.49667
3139.12	1.82164
3140.39	1.69368
3141.66	1.95122
3142.93	2.10847
3144.2	2.01138
3145.47	2.12899
3146.74	2.1703
3148	2.59622
3149.27	1.96047
