#Acq. time (s)=	45
#Accumulations=	2
#Range (cm-¹)=	200...3150
#Windows=	2
#Auto scanning=	Off
#Autofocus=	Off
#Macrospot=	Off
#AutoExposure=	Off
#Spike filter=	Multiple accum.
#Delay time (s)=	0
#Binning=	1
#Readout mode=	Signal
#DeNoise=	Off
#ICS correction=	On
#Dark correction=	Off
#Inst. Process=	Off
#Detector Gain=	Best Dynamic Range
#Detector ADC=	20 kHz       
#Detector temperature (°C)=	-70.08
#Instrument=	LabRAM HR Evol
#Detector=	Synapse
#Objective=	x100
#Grating=	600 gr/mm
#ND Filter=	100%
#Laser (nm)=	532 
#Hole=	100.021
#Range=	Auto
#Laser Pol.=	No
#Raman. Pol.=	No
#Laser Pol. (°)=	-0.0007625
#Raman Pol. (°)=	89.9995
#Collection=	Microscope
#StageXY=	Marzhauser
#StageZ=	Marzhauser
#X (µm)=	28066.2
#Y (µm)=	-554.9
#Z (µm)=	1083.45
#Full time(mm:ss)=	3:18
#Project=	
#Sample=	
#Site=	
#Title=	Mb_30_27_04_2x_45s_532 nm_x100_100%_600 gr_mm
#Remark=	
#Date=	12.07.2022 15:44
#Acquired=	12.07.2022 15:44:20
#Base:Fit=	10.08.2022 10:39:47
#Base:Sub=	10.08.2022 10:39:55
#Base:Fit=	10.08.2022 10:40:03
#Base:Sub=	10.08.2022 10:40:17
#Filter:Polynom=	16.08.2022 10:16:15
#AxisType[0]=Intens
#AxisUnit[0]=Cnt
#AxisType[1]=Spectr
#AxisUnit[1]=1/cm
200.388	2.59503
202.204	4.11544
204.019	5.38964
205.832	5.87771
207.646	6.03496
209.459	6.12501
211.274	5.67899
213.087	6.02909
214.899	6.46393
216.711	7.20053
218.524	7.89804
220.335	8.28195
222.146	8.17426
223.956	7.81053
225.766	7.771
227.576	8.17574
229.388	8.53691
231.197	8.84114
233.005	9.15813
234.813	8.29741
236.621	6.88507
238.429	6.26775
240.236	5.91714
242.045	5.22767
243.852	5.06605
245.658	4.45586
247.464	4.18648
249.269	4.10316
251.074	3.18034
252.879	3.65337
254.683	3.58275
256.487	2.9324
258.291	3.94569
260.094	4.48404
261.897	4.62704
263.702	5.05325
265.504	4.95568
267.306	5.28018
269.108	5.69911
270.909	6.05886
272.71	6.99038
274.511	5.81422
276.311	5.33891
278.111	6.62137
279.91	6.94124
281.709	7.87629
283.508	8.36675
285.306	8.73743
287.105	9.11569
288.9	9.07643
290.698	8.90158
292.495	9.74098
294.291	9.9358
296.088	11.0256
297.884	11.8972
299.679	11.8519
301.475	13.1647
303.27	14.1558
305.064	15.0522
306.858	15.6067
308.652	15.9108
310.444	16.058
312.237	15.5936
314.03	15.3276
315.822	15.6165
317.615	15.5383
319.406	14.8427
321.198	14.1807
322.987	12.503
324.778	11.1609
326.568	10.9902
328.358	11.3049
330.148	11.3921
331.935	11.277
333.724	11.3913
335.513	11.3136
337.301	11.7622
339.089	12.1728
340.875	11.3615
342.662	11.418
344.449	9.7102
346.236	9.10285
348.02	9.5741
349.806	9.02483
351.592	8.99852
353.375	8.60363
355.16	8.02248
356.944	7.65667
358.728	7.1419
360.51	7.12344
362.294	7.46637
364.077	7.31278
365.858	8.62059
367.64	9.66561
369.422	9.89842
371.202	9.5305
372.983	8.6785
374.764	8.14338
376.543	8.444
378.324	7.99112
380.102	7.45488
381.881	8.22071
383.661	8.24055
385.438	8.70405
387.216	8.52333
388.993	7.66165
390.771	7.20279
392.548	8.02346
394.324	8.7803
396.101	8.36468
397.875	8.64372
399.651	8.35656
401.425	7.55227
403.201	7.50638
404.974	7.02398
406.749	7.19112
408.524	7.00729
410.296	6.81495
412.07	6.91471
413.841	7.33207
415.614	7.92201
417.385	8.27364
419.156	8.57261
420.928	8.75911
422.698	8.36016
424.469	8.42493
426.238	8.43131
428.009	8.3821
429.777	7.33233
431.548	7.12988
433.315	6.5327
435.083	7.11855
436.852	7.65565
438.618	7.79191
440.387	6.87931
442.153	6.3375
443.919	6.50565
445.686	7.56008
447.451	7.96032
449.218	9.44597
450.982	9.09185
452.746	8.36496
454.512	7.50965
456.275	6.83865
458.038	6.60622
459.803	5.79098
461.565	6.57438
463.327	7.75771
465.091	8.57528
466.852	8.43335
468.613	8.37534
470.374	9.34788
472.136	8.9924
473.896	9.13259
475.655	9.5971
477.415	10.0623
479.176	11.1
480.934	12.3116
482.692	11.4198
484.45	11.7074
486.21	12.4125
487.967	13.2555
489.724	13.8989
491.481	15.0143
493.237	16.1828
494.995	18.0212
496.75	18.2981
498.506	18.8183
500.26	19.9576
502.015	19.7115
503.771	20.8953
505.525	21.4817
507.279	22.1903
509.032	22.8505
510.785	22.6259
512.537	23.7317
514.289	24.1619
516.041	24.2799
517.793	23.4968
519.546	23.513
521.297	24.6029
523.047	25.6041
524.797	26.6637
526.547	26.2477
528.297	25.8023
530.046	26.7669
531.795	27.056
533.543	27.1291
535.291	26.1692
537.039	25.9839
538.787	25.4303
540.534	24.9733
542.281	24.689
544.027	25.4449
545.773	25.2579
547.519	24.3205
549.264	24.9116
551.01	23.5199
552.754	22.2538
554.499	21.5175
556.243	20.7073
557.987	20.9857
559.73	20.1276
561.474	18.9506
563.216	19.0314
564.959	18.1823
566.701	17.2697
568.441	16.2725
570.182	15.227
571.923	15.2778
573.664	14.9988
575.405	14.7998
577.145	13.8012
578.885	12.3349
580.624	11.1835
582.361	10.2595
584.1	9.18901
585.839	8.60484
587.577	7.95357
589.315	7.01655
591.052	6.63949
592.787	6.49739
594.524	6.14097
596.26	5.40289
597.997	5.19182
599.732	5.21203
601.466	4.74924
603.201	5.13047
604.936	5.38869
606.67	6.00978
608.403	6.11354
610.136	5.81723
611.87	6.0493
613.603	6.55883
615.334	7.24807
617.067	7.9443
618.799	7.94461
620.529	7.77062
622.26	7.86168
623.991	8.33234
625.72	8.84253
627.451	8.83859
629.181	9.66342
630.909	10.4226
632.638	10.1398
634.368	11.131
636.095	12.1866
637.823	12.5952
639.551	14.6114
641.277	15.3266
643.005	15.6846
644.73	17.0272
646.457	17.2172
648.184	17.6906
649.908	18.7666
651.634	18.7743
653.357	19.0573
655.083	19.5027
656.806	20.6147
658.53	21.3839
660.253	22.0562
661.977	23.3523
663.7	24.164
665.422	24.386
667.145	26.073
668.865	27.2597
670.588	27.0719
672.308	27.1346
674.027	27.5384
675.749	28.6207
677.468	28.6551
679.188	29.5138
680.907	30.1819
682.627	31.6736
684.345	33.3804
686.064	34.161
687.781	36.2009
689.498	37.6067
691.216	38.3638
692.932	38.8437
694.65	39.89
696.366	41.8184
698.081	42.7075
699.797	44.1427
701.512	44.4788
703.228	45.3117
704.942	45.8644
706.655	46.9127
708.371	48.1451
710.083	48.9878
711.796	50.4479
713.51	51.2071
715.222	51.3595
716.934	52.5035
718.645	53.3656
720.358	55.2286
722.068	55.3737
723.779	55.9891
725.49	56.6969
727.2	56.2722
728.909	57.0581
730.618	57.4264
732.329	57.6595
734.037	57.7892
735.745	57.488
737.453	58.446
739.16	59.1514
740.869	59.4483
742.576	59.2845
744.282	59.6529
745.988	60.6097
747.694	61.7999
749.401	62.674
751.107	63.7316
752.811	64.966
754.516	65.5872
756.22	66.0071
757.924	68.0373
759.627	69.285
761.332	69.913
763.035	70.833
764.738	72.995
766.44	74.5301
768.142	76.3113
769.843	76.2729
771.544	77.3271
773.245	79.0321
774.946	79.0753
776.646	79.6552
778.346	80.9276
780.046	82.2335
781.745	82.7644
783.444	83.3366
785.143	84.0047
786.841	84.3407
788.539	84.5368
790.237	84.8482
791.934	85.1829
793.631	86.322
795.328	87.2215
797.024	88.6992
798.72	89.11
800.416	89.4063
802.112	90.9145
803.807	91.1119
805.502	91.4233
807.196	90.6467
808.89	91.1923
810.584	91.4601
812.278	91.2202
813.971	91.5977
815.664	90.7345
817.354	91.6748
819.047	91.8724
820.739	92.0341
822.43	91.9657
824.122	92.2646
825.813	91.3067
827.503	91.4746
829.192	92.0666
830.882	92.6961
832.571	92.5626
834.261	92.4499
835.95	92.0788
837.637	90.8176
839.325	89.1712
841.013	88.3182
842.701	87.9525
844.389	85.7434
846.074	83.8271
847.761	83.2516
849.447	80.5306
851.131	77.8747
852.817	75.9425
854.503	74.0799
856.188	73.6763
857.871	71.1105
859.556	69.3281
861.24	68.1519
862.922	65.8763
864.606	63.5898
866.289	61.7617
867.97	60.715
869.653	59.3393
871.336	58.6199
873.016	57.8324
874.698	57.3343
876.379	57.1038
878.058	57.2339
879.739	56.4126
881.418	56.0152
883.098	55.221
884.778	54.2304
886.456	54.1723
888.135	53.6966
889.812	53.2745
891.49	53.3128
893.167	53.8104
894.845	53.6719
896.523	53.4954
898.198	52.6907
899.875	53.2848
901.55	53.7388
903.226	53.5691
904.901	52.9227
906.576	52.9186
908.25	52.9859
909.925	52.6641
911.598	53.5358
913.271	54.2639
914.945	54.335
916.617	52.9594
918.291	53.5161
919.962	53.1605
921.635	52.3889
923.306	52.3442
924.978	53.0758
926.648	52.0168
928.318	50.7519
929.989	50.0427
931.659	49.5724
933.328	48.2648
934.998	48.3045
936.666	47.9076
938.336	47.4301
940.004	46.1214
941.671	44.1092
943.34	43.3322
945.007	41.631
946.673	41.2897
948.339	41.7176
950.007	41.8509
951.672	42.3507
953.337	42.7982
955.004	43.0013
956.669	42.5846
958.333	42.055
959.997	42.0456
961.662	41.7879
963.326	41.9426
964.989	42.5874
966.651	42.7342
968.315	42.0663
969.977	42.6929
971.639	43.5615
973.301	44.2503
974.962	45.051
976.624	44.615
978.285	44.5954
979.945	45.1713
981.605	45.5979
983.264	46.3569
984.924	46.3382
986.583	47.3551
988.243	46.9869
989.901	47.2641
991.56	46.2327
993.217	46.977
994.875	46.5974
996.532	46.1942
998.188	44.734
999.845	43.8458
1001.5	44.3205
1003.16	43.5947
1004.81	42.7461
1006.47	42.0802
1008.12	42.3017
1009.78	42.0171
1011.43	42.6466
1013.09	43.5872
1014.74	43.6294
1016.39	44.5166
1018.05	44.0707
1019.7	43.9975
1021.35	44.1342
1023	44.386
1024.65	44.579
1026.31	45.8228
1027.96	47.2418
1029.61	48.6192
1031.26	48.0506
1032.91	47.9455
1034.56	47.9489
1036.21	47.9284
1037.86	46.9691
1039.51	46.2686
1041.16	46.5332
1042.8	46.8296
1044.45	46.8245
1046.1	46.5767
1047.75	46.3794
1049.39	45.8169
1051.04	45.07
1052.69	44.6611
1054.33	44.5976
1055.98	42.4697
1057.62	40.388
1059.27	37.9491
1060.91	36.7382
1062.56	36.257
1064.2	34.4947
1065.85	32.5648
1067.49	31.9079
1069.13	30.2579
1070.77	28.2304
1072.42	26.4243
1074.06	24.818
1075.7	24.6536
1077.34	23.4754
1078.98	22.3807
1080.62	21.4128
1082.27	20.6852
1083.91	20.7266
1085.55	20.3321
1087.18	20.5294
1088.82	21.0508
1090.46	22.1776
1092.1	21.125
1093.74	21.2594
1095.38	20.3307
1097.02	19.4014
1098.65	19.6975
1100.29	19.6363
1101.93	20.0861
1103.56	19.1476
1105.2	18.5356
1106.84	18.6525
1108.47	18.1645
1110.11	18.1072
1111.74	17.3266
1113.38	17.0955
1115.01	17.1734
1116.64	17.0448
1118.28	16.8944
1119.91	15.3866
1121.54	15.2017
1123.18	15.6379
1124.81	14.6413
1126.44	13.9901
1128.07	12.3908
1129.7	12.03
1131.33	11.2053
1132.97	9.90693
1134.6	9.08605
1136.23	8.44329
1137.86	7.3815
1139.49	7.69762
1141.11	7.16888
1142.74	7.71304
1144.37	8.68214
1146	7.93857
1147.63	8.11642
1149.26	7.817
1150.88	7.22195
1152.51	7.28529
1154.14	6.48242
1155.76	6.44464
1157.39	6.16842
1159.01	5.3618
1160.64	5.01987
1162.27	4.37755
1163.89	3.98569
1165.51	4.56797
1167.14	3.96335
1168.76	3.99352
1170.39	3.1606
1172.01	2.7549
1173.63	1.90939
1175.25	2.73803
1176.88	2.79977
1178.5	4.20208
1180.12	4.22143
1181.74	3.63847
1183.36	2.61486
1184.98	2.16354
1186.6	3.1052
1188.22	3.85217
1189.84	4.25568
1191.46	5.85965
1193.08	6.32905
1194.7	7.05093
1196.32	6.46398
1197.94	7.2608
1199.55	7.37874
1201.17	8.04854
1202.79	9.01985
1204.41	9.81693
1206.02	10.2848
1207.64	11.79
1209.25	13.088
1210.87	15.5765
1212.48	17.1808
1214.1	19.0083
1215.71	21.0334
1217.33	23.4009
1218.94	25.2662
1220.56	27.2685
1222.17	28.1672
1223.79	30.569
1225.4	32.3302
1227.01	33.6595
1228.62	36.2622
1230.23	37.6142
1231.85	39.5336
1233.46	41.1788
1235.07	42.0149
1236.68	43.7832
1238.29	45.9722
1239.9	47.8461
1241.51	50.2452
1243.12	51.0553
1244.73	52.6804
1246.34	53.9424
1247.94	54.9591
1249.55	55.3024
1251.16	55.6209
1252.77	55.712
1254.37	55.8324
1255.98	56.231
1257.59	56.4882
1259.2	55.8802
1260.8	55.816
1262.41	56.2818
1264.01	57.7519
1265.62	58.9028
1267.22	59.4982
1268.83	60.2392
1270.43	61.4499
1272.03	62.0374
1273.64	62.2841
1275.24	62.5373
1276.85	62.6489
1278.45	62.9839
1280.05	62.923
1281.65	63.7275
1283.25	63.9517
1284.85	64.7638
1286.46	65.2175
1288.06	65.9823
1289.66	66.6708
1291.26	66.7599
1292.86	66.7943
1294.46	67.4397
1296.06	67.1413
1297.66	67.6494
1299.25	67.9975
1300.85	68.3847
1302.45	67.5969
1304.05	68.7377
1305.65	68.8188
1307.24	69.7845
1308.84	70.0898
1310.43	69.565
1312.03	69.7995
1313.63	70.2128
1315.22	70.5679
1316.82	70.9316
1318.41	70.1235
1320.01	69.4492
1321.6	69.3926
1323.2	68.3181
1324.79	67.4452
1326.38	66.8654
1327.98	65.9352
1329.57	64.2239
1331.16	64.0441
1332.76	62.9086
1334.35	62.2638
1335.94	61.3831
1337.53	61.5668
1339.12	60.4858
1340.71	60.0305
1342.3	59.5728
1343.89	58.8106
1345.48	57.3021
1347.07	56.3369
1348.66	55.8782
1350.25	55.0009
1351.84	53.232
1353.43	52.0802
1355.01	50.4804
1356.6	48.7515
1358.19	46.4366
1359.77	45.366
1361.36	43.5106
1362.95	42.1704
1364.53	41.1252
1366.12	39.2414
1367.71	38.4667
1369.29	37.1079
1370.88	34.9147
1372.46	33.6849
1374.04	32.7618
1375.63	31.6351
1377.21	31.059
1378.8	30.4044
1380.38	29.6783
1381.96	29.2426
1383.54	30.2143
1385.13	30.5127
1386.71	30.4634
1388.29	30.6349
1389.87	30.6136
1391.45	31.0623
1393.03	30.5171
1394.61	29.4879
1396.19	29.7164
1397.77	29.938
1399.35	30.4985
1400.93	31.2448
1402.51	31.9451
1404.09	32.1066
1405.67	33.3279
1407.24	33.9147
1408.82	34.9522
1410.4	35.7425
1411.98	36.5972
1413.55	37.7719
1415.13	39.1107
1416.71	40.8564
1418.28	41.2894
1419.86	42.6147
1421.43	44.3135
1423.01	45.4906
1424.58	47.4145
1426.16	49.7571
1427.73	51.5612
1429.31	53.9581
1430.88	55.7977
1432.45	58.0873
1434.02	59.0618
1435.6	59.9978
1437.17	61.2519
1438.74	63.3989
1440.31	63.8117
1441.88	64.1637
1443.45	63.8574
1445.03	63.8159
1446.6	64.1317
1448.17	64.5215
1449.74	64.2728
1451.3	64.6117
1452.87	65.0516
1454.44	64.3745
1456.01	64.0602
1457.58	63.9504
1459.15	63.4934
1460.72	62.3771
1462.28	61.7537
1463.85	60.0973
1465.42	58.7709
1466.98	57.2587
1468.55	54.8016
1470.12	53.5225
1471.68	51.1678
1473.25	49.6082
1474.81	49.2499
1476.38	47.2196
1477.94	45.8818
1479.51	45.3861
1481.07	43.4869
1482.63	41.8022
1484.2	40.2406
1485.76	38.7228
1487.32	36.9298
1488.88	34.9279
1490.45	33.3698
1492.01	31.8892
1493.57	30.7474
1495.13	29.5386
1496.69	28.4724
1498.25	27.2052
1499.81	26.79
1501.37	26.3212
1502.93	26.3883
1504.49	26.029
1506.05	26.2677
1507.61	25.921
1509.17	24.8092
1510.73	24.4189
1512.28	23.3276
1513.84	22.436
1515.4	21.5602
1516.96	20.272
1518.51	18.9685
1520.07	19.1736
1521.63	18.9995
1523.18	19.32
1524.74	18.0419
1526.29	17.1349
1527.85	16.2488
1529.4	16.4212
1530.96	16.0171
1532.51	16.0433
1534.06	16.8773
1535.62	16.6564
1537.17	16.8474
1538.72	16.9208
1540.28	17.6652
1541.83	18.1606
1543.38	18.7797
1544.93	18.8965
1546.48	20.2265
1548.03	21.09
1549.59	20.7912
1551.14	21.8488
1552.69	23.2159
1554.24	23.6423
1555.79	24.0563
1557.34	24.7412
1558.88	24.9486
1560.43	25.8762
1561.98	25.7575
1563.53	26.3892
1565.08	27.2457
1566.62	28.4359
1568.17	29.3323
1569.72	30.4657
1571.27	32.3083
1572.81	33.4855
1574.36	34.0813
1575.9	34.6133
1577.45	36.4556
1579	38.0453
1580.54	39.9485
1582.09	41.1475
1583.63	42.5524
1585.17	42.2096
1586.72	43.2404
1588.26	44.0255
1589.8	44.5553
1591.35	44.8165
1592.89	45.427
1594.43	45.782
1595.97	46.2079
1597.52	46.7306
1599.06	46.1114
1600.6	45.6154
1602.14	45.1004
1603.68	45.1713
1605.22	46.4805
1606.76	47.1643
1608.3	47.6974
1609.84	48.8819
1611.38	49.6794
1612.92	49.3151
1614.46	50.5769
1615.99	51.422
1617.53	52.5095
1619.07	53.2606
1620.61	54.0733
1622.14	54.8457
1623.68	56.2718
1625.22	56.7346
1626.75	58.2758
1628.29	60.0254
1629.82	61.5228
1631.36	63.114
1632.9	64.9529
1634.43	67.6855
1635.96	69.5087
1637.5	71.4541
1639.03	73.4339
1640.57	75.8068
1642.1	77.6168
1643.63	78.8843
1645.16	81.3156
1646.7	83.2077
1648.23	85.1325
1649.76	86.0623
1651.29	86.9467
1652.82	88.3153
1654.36	88.9557
1655.89	89.4834
1657.42	89.1629
1658.95	88.9428
1660.48	88.4763
1662.01	87.4622
1663.53	87.7306
1665.06	86.8525
1666.59	85.4883
1668.12	83.2303
1669.65	81.5149
1671.18	79.2233
1672.7	77.6351
1674.23	75.4194
1675.76	71.9876
1677.29	69.3084
1678.81	66.9604
1680.34	64.2972
1681.86	62.4196
1683.39	59.5032
1684.91	56.6798
1686.44	53.5976
1687.96	50.9719
1689.49	47.7978
1691.01	45.336
1692.54	41.8379
1694.06	39.5849
1695.58	37.4662
1697.11	34.919
1698.63	32.9768
1700.15	31.6324
1701.67	29.2406
1703.2	28.1082
1704.72	26.3318
1706.24	25.4558
1707.76	24.2164
1709.28	23.3431
1710.8	22.3796
1712.32	20.9519
1713.84	20.1222
1715.36	19.3431
1716.88	18.3974
1718.4	18.2297
1719.91	18.2524
1721.43	18.4757
1722.95	17.929
1724.47	17.5353
1725.99	16.9998
1727.5	16.5186
1729.02	16.1087
1730.54	15.4401
1732.05	15.3613
1733.57	14.9663
1735.09	14.7029
1736.6	14.542
1738.12	14.4991
1739.63	14.528
1741.15	14.1443
1742.66	13.7055
1744.18	13.5853
1745.69	13.3451
1747.2	12.8979
1748.72	12.668
1750.23	11.9574
1751.74	11.5059
1753.25	11.3178
1754.77	10.6263
1756.28	10.4647
1757.79	10.161
1759.3	9.62833
1760.81	9.26731
1762.32	8.97937
1763.83	8.66895
1765.34	8.00965
1766.85	7.57277
1768.36	7.03572
1769.87	7.47845
1771.38	7.15296
1772.89	6.66716
1774.4	6.6209
1775.91	6.33586
1777.41	5.94812
1778.92	6.13061
1780.43	5.3753
1781.94	5.30221
1783.44	4.99386
1784.95	4.85509
1786.45	4.36696
1787.96	4.33944
1789.47	4.517
1790.97	4.22317
1792.48	4.59523
1793.98	4.76465
1795.48	4.30649
1796.99	3.99268
1798.49	3.65421
1800	2.58525
1801.5	2.36266
1803	2.18676
1804.51	1.89635
1806.01	1.45908
1807.51	0.962825
1809.01	1.52505
1810.51	1.49711
1812.02	1.74908
1813.52	1.71222
1815.02	1.71696
1816.52	1.74336
1818.02	1.77647
1819.52	2.08198
1821.02	2.11543
1822.52	2.46673
1824.02	2.49304
1825.51	2.6046
1827.01	2.62852
1828.51	2.80331
1830.01	3.3004
1831.51	4.12401
1833	4.11179
1834.5	4.10969
1836	4.01895
1837.5	3.36242
1838.99	2.85266
1840.49	2.84746
1841.98	2.62857
1843.48	2.55109
1844.97	3.25062
1846.47	3.23184
1847.96	3.41679
1849.46	3.17615
1850.95	3.10926
1852.45	2.83127
1853.94	2.31756
1855.43	2.22605
1856.92	2.54344
1858.42	2.00154
1859.91	2.05394
1861.4	2.09372
1862.89	2.10681
1864.39	1.51894
1865.88	0.888931
1867.37	0.973322
1868.86	0.485693
1870.35	0.147489
1871.84	-0.210356
1873.33	-0.294512
1874.82	-0.309869
1876.31	0.184858
1877.8	0.0986451
1879.29	0.574352
1880.77	0.74097
1882.26	1.21237
1882.51	1.82944
1884	2.01926
1885.5	2.15344
1886.99	2.35953
1888.48	2.41867
1889.98	2.41458
1891.47	2.94323
1892.97	3.20126
1894.46	3.75297
1895.95	3.75817
1897.44	3.72113
1898.93	4.00202
1900.42	4.58865
1901.92	4.90744
1903.41	4.65177
1904.9	5.29681
1906.39	5.04185
1907.88	5.40189
1909.37	5.07954
1910.86	5.45077
1912.35	5.77201
1913.84	5.89426
1915.32	5.56597
1916.81	5.4884
1918.3	5.58086
1919.79	5.42516
1921.28	5.1388
1922.76	4.40259
1924.25	4.06226
1925.74	3.79445
1927.22	3.35366
1928.71	3.08813
1930.2	2.78095
1931.68	2.6905
1933.17	3.14204
1934.65	2.73683
1936.14	2.3035
1937.62	2.13791
1939.11	2.44349
1940.59	2.7838
1942.08	2.4568
1943.56	2.34442
1945.04	1.9003
1946.53	2.53352
1948.01	2.53972
1949.49	2.37583
1950.97	2.32006
1952.45	2.72182
1953.94	2.7808
1955.42	1.9032
1956.9	1.37754
1958.38	1.66329
1959.86	1.23498
1961.34	1.65931
1962.82	1.52386
1964.3	1.5024
1965.78	1.56893
1967.26	1.8969
1968.74	1.94318
1970.22	1.4837
1971.69	1.86428
1973.17	1.99547
1974.65	1.61846
1976.13	1.12346
1977.61	0.721477
1979.08	1.04305
1980.56	0.634865
1982.03	1.05067
1983.51	0.747789
1984.99	1.05691
1986.46	0.227372
1987.94	-0.0358843
1989.41	0.0635607
1990.89	0.233664
1992.36	0.378659
1993.84	0.487813
1995.31	0.712697
1996.78	0.544078
1998.26	0.64703
1999.73	0.802613
2001.2	1.18976
2002.68	1.68336
2004.15	2.76319
2005.62	3.03659
2007.09	3.6364
2008.56	4.26201
2010.04	4.08034
2011.51	4.47177
2012.98	4.58037
2014.45	4.49962
2015.92	4.69409
2017.39	4.75121
2018.86	5.15362
2020.33	5.70663
2021.8	6.03146
2023.27	5.82048
2024.74	6.00937
2026.2	6.08208
2027.67	5.76703
2029.14	5.28983
2030.61	6.18027
2032.07	7.03283
2033.54	7.06381
2035.01	7.61958
2036.47	7.25133
2037.94	7.62553
2039.41	8.18318
2040.87	8.14219
2042.34	7.78488
2043.8	7.65468
2045.27	7.16958
2046.73	7.20403
2048.2	6.39624
2049.66	6.50654
2051.12	6.59186
2052.59	6.46566
2054.05	7.11218
2055.51	7.82359
2056.98	7.70559
2058.44	7.64958
2059.9	7.73352
2061.36	8.06036
2062.82	8.12498
2064.29	8.51446
2065.75	8.94487
2067.21	9.02912
2068.67	8.97149
2070.13	9.16391
2071.59	9.73625
2073.05	10.295
2074.51	10.4598
2075.97	10.7914
2077.43	11.3436
2078.88	11.8656
2080.34	12.5978
2081.8	12.8291
2083.26	12.8398
2084.72	14.1679
2086.17	14.9444
2087.63	15.6455
2089.09	15.7655
2090.54	16.4697
2092	17.6146
2093.46	18.0273
2094.91	18.8898
2096.37	19.0588
2097.82	19.747
2099.28	20.8414
2100.73	21.7267
2102.19	22.7598
2103.64	23.7466
2105.09	24.4506
2106.55	25.6541
2108	26.2721
2109.46	27.0706
2110.91	27.7583
2112.36	28.3348
2113.81	28.2843
2115.27	29.3345
2116.72	30.3919
2118.17	31.5457
2119.62	33.2371
2121.07	33.6441
2122.52	35.0075
2123.97	36.0091
2125.42	38.0005
2126.87	40.2915
2128.32	41.669
2129.77	42.8911
2131.22	43.6055
2132.67	44.9238
2134.12	46.446
2135.57	47.8669
2137.01	49.1437
2138.46	50.4362
2139.91	51.8336
2141.36	54.1791
2142.8	56.0665
2144.25	57.8681
2145.7	59.8341
2147.14	60.9698
2148.59	63.1871
2150.03	65.6073
2151.48	68.1125
2152.92	69.8602
2154.37	71.9891
2155.81	74.354
2157.26	76.7462
2158.7	78.8344
2160.15	80.9433
2161.59	82.8191
2163.03	84.2022
2164.48	85.3845
2165.92	86.1768
2167.36	87.305
2168.8	88.0615
2170.25	88.5561
2171.69	89.3833
2173.13	89.6585
2174.57	90.1833
2176.01	90.2202
2177.45	90.4429
2178.89	90.4827
2180.33	90.0596
2181.77	89.8574
2183.21	88.7453
2184.65	88.7906
2186.09	88.0084
2187.53	87.5029
2188.97	86.2768
2190.41	84.7356
2191.84	83.1999
2193.28	81.4499
2194.72	80.0033
2196.16	78.8189
2197.59	77.4795
2199.03	75.0188
2200.47	72.8504
2201.9	70.5093
2203.34	68.2597
2204.78	66.4146
2206.21	64.1354
2207.65	61.3763
2209.08	59.0669
2210.51	57.4692
2211.95	55.5081
2213.38	53.49
2214.82	50.7117
2216.25	49.2595
2217.68	46.5848
2219.12	44.4968
2220.55	43.5188
2221.98	41.798
2223.42	40.0561
2224.85	38.6513
2226.28	37.8634
2227.71	36.6734
2229.14	35.2276
2230.57	33.7018
2232	32.1153
2233.43	30.2353
2234.86	28.7386
2236.29	28.1067
2237.72	26.9232
2239.15	26.1209
2240.58	25.3374
2242.01	25.0341
2243.44	24.2177
2244.87	23.7614
2246.3	23.1676
2247.73	22.347
2249.15	22.1765
2250.58	21.7266
2252.01	21.673
2253.43	21.5507
2254.86	21.4935
2256.29	22.0055
2257.71	21.3477
2259.14	20.8953
2260.56	20.6414
2261.99	20.5622
2263.41	20.9561
2264.84	21.035
2266.26	20.5351
2267.69	20.523
2269.11	20.017
2270.54	19.545
2271.96	19.3809
2273.38	18.9729
2274.81	18.5444
2276.23	17.5248
2277.65	17.0895
2279.07	16.6974
2280.49	16.4297
2281.92	16.3102
2283.34	15.5878
2284.76	14.8951
2286.18	13.9545
2287.6	13.6362
2289.02	11.6713
2290.44	11.686
2291.86	10.6065
2293.28	9.44669
2294.7	9.16096
2296.12	9.16179
2297.54	9.04894
2298.96	8.95915
2300.38	9.2922
2301.79	9.18456
2303.21	8.74593
2304.63	8.38028
2306.05	8.96837
2307.46	8.56955
2308.88	8.25695
2310.3	8.50143
2311.71	8.78897
2313.13	8.47841
2314.55	8.2498
2315.96	8.47807
2317.38	8.14588
2318.79	7.80461
2320.21	7.9951
2321.62	7.96936
2323.03	8.68736
2324.45	8.46258
2325.86	8.26181
2327.27	8.21195
2328.69	8.07791
2330.1	7.56106
2331.51	7.6246
2332.93	7.33403
2334.34	7.73739
2335.75	7.14474
2337.16	6.50734
2338.57	6.16869
2339.99	5.22424
2341.4	4.6942
2342.81	4.15003
2344.22	3.62125
2345.63	3.21217
2347.04	3.03801
2348.45	3.00275
2349.86	3.10551
2351.26	3.0502
2352.67	2.85351
2354.08	2.19768
2355.49	1.89629
2356.9	0.748092
2358.31	0.39417
2359.71	-0.164863
2361.12	0.553419
2362.53	0.601278
2363.94	1.05613
2365.34	1.83736
2366.75	2.38169
2368.15	2.9363
2369.56	3.28337
2370.97	3.09835
2372.37	2.64456
2373.78	2.77356
2375.18	2.95701
2376.59	3.13377
2377.99	2.74855
2379.39	3.31072
2380.8	3.88115
2382.2	3.90082
2383.61	3.38191
2385.01	3.31433
2386.41	3.16444
2387.81	3.48325
2389.22	4.03024
2390.62	4.99013
2392.02	5.52869
2393.42	5.79851
2394.82	5.69742
2396.22	6.07162
2397.63	6.52531
2399.02	6.49646
2400.43	6.1554
2401.82	6.63886
2403.23	6.77984
2404.62	6.71601
2406.02	6.26744
2407.42	5.85545
2408.82	6.02854
2410.22	6.01976
2411.62	6.20141
2413.02	6.43886
2414.41	6.79516
2415.81	6.86997
2417.21	7.47825
2418.61	7.44862
2420	7.62601
2421.4	7.39495
2422.79	7.38758
2424.19	7.25761
2425.59	6.93271
2426.98	5.83391
2428.38	6.3159
2429.77	6.41187
2431.17	6.06217
2432.56	5.54858
2433.96	4.8128
2435.35	5.01007
2436.74	4.93848
2438.14	4.68417
2439.53	4.21001
2440.92	3.68998
2442.32	3.55958
2443.71	3.18211
2445.1	2.91703
2446.49	2.81628
2447.88	3.36593
2449.28	3.43224
2450.67	2.88018
2452.06	2.54321
2453.45	2.58988
2454.84	2.8763
2456.23	3.843
2457.62	4.31725
2459.01	3.9979
2460.4	4.1992
2461.79	4.66102
2463.18	4.46807
2464.57	5.01571
2465.96	5.07602
2467.34	5.61808
2468.73	5.71548
2470.12	5.49314
2471.51	5.7019
2472.89	6.34921
2474.28	6.19901
2475.67	6.47318
2477.05	6.43437
2478.44	6.92791
2479.83	6.80018
2481.21	6.60493
2482.6	6.8652
2483.98	6.93509
2485.37	7.11081
2486.75	7.24449
2488.14	7.10502
2489.52	7.05354
2490.9	6.67463
2492.29	6.08065
2493.67	5.4967
2495.06	4.77876
2496.44	4.13348
2497.82	4.03061
2499.2	3.42049
2500.59	3.24946
2501.97	2.85172
2503.35	2.67352
2504.73	2.86618
2506.11	2.61309
2507.49	2.6339
2508.88	2.64852
2510.26	2.1178
2511.63	1.67633
2513.01	1.19014
2514.39	1.33649
2515.77	0.993146
2517.15	0.405769
2518.53	-0.287638
2519.91	-0.597967
2521.29	-0.454245
2522.67	-0.370139
2524.05	-0.504538
2525.42	-0.267103
2526.8	-0.419862
2528.18	-0.359516
2529.56	-0.0116935
2530.93	0.340959
2532.31	0.691017
2533.69	0.954757
2535.06	1.24958
2536.44	1.97957
2537.81	2.11271
2539.19	2.34307
2540.56	2.91967
2541.94	3.6299
2543.31	3.8748
2544.69	4.29578
2546.06	4.40214
2547.44	4.57884
2548.81	4.6726
2550.18	4.71123
2551.56	5.13429
2552.93	5.16059
2554.3	5.47503
2555.68	5.74942
2557.05	5.90277
2558.42	5.56396
2559.79	5.31145
2561.16	5.32984
2562.53	5.64564
2563.9	5.356
2565.28	5.32491
2566.64	5.23503
2568.02	5.3726
2569.38	5.40651
2570.76	5.01581
2572.12	5.06264
2573.49	5.06495
2574.86	4.864
2576.23	4.44079
2577.6	3.58823
2578.97	3.16005
2580.34	2.94842
2581.7	2.82937
2583.07	2.31061
2584.44	1.97767
2585.81	1.48594
2587.17	1.83392
2588.54	1.63294
2589.91	1.78376
2591.27	1.55159
2592.64	1.09022
2594	1.14272
2595.37	1.30845
2596.73	1.17029
2598.1	1.00187
2599.46	1.33485
2600.83	1.418
2602.19	1.03528
2603.55	1.74329
2604.92	1.60765
2606.28	1.31639
2607.64	1.14181
2609.01	1.38832
2610.37	1.65952
2611.73	1.81462
2613.09	1.94145
2614.46	2.18039
2615.82	2.22069
2617.18	2.54343
2618.54	3.15689
2619.9	3.3291
2621.26	3.9045
2622.62	4.90073
2623.98	4.52028
2625.34	4.55326
2626.7	5.17715
2628.06	5.56851
2629.42	5.79835
2630.78	5.84298
2632.14	5.97436
2633.5	6.22331
2634.86	6.34214
2636.22	6.53672
2637.57	6.83193
2638.93	6.74032
2640.29	7.05573
2641.64	7.49211
2643	7.57002
2644.36	7.64698
2645.72	7.85871
2647.07	7.93272
2648.43	8.00841
2649.78	8.7809
2651.14	9.04841
2652.49	9.39659
2653.85	9.29707
2655.2	9.29735
2656.56	8.91298
2657.91	8.91492
2659.27	8.25599
2660.62	8.25798
2661.97	8.61525
2663.33	8.12663
2664.68	7.31366
2666.03	7.33508
2667.38	6.94888
2668.74	6.67185
2670.09	6.47424
2671.44	6.25237
2672.79	5.56455
2674.14	5.64446
2675.49	5.71798
2676.84	6.19471
2678.2	6.0983
2679.55	6.51295
2680.89	6.66693
2682.24	6.19789
2683.59	5.83815
2684.94	5.82585
2686.29	5.67415
2687.64	4.868
2688.99	5.06878
2690.34	4.71969
2691.69	3.908
2693.04	4.0159
2694.38	4.07734
2695.73	4.00928
2697.08	3.82126
2698.43	4.1991
2699.77	4.28859
2701.12	4.05677
2702.46	3.9803
2703.81	3.51696
2705.16	3.68315
2706.5	4.17679
2707.85	5.10947
2709.19	5.09282
2710.54	5.53026
2711.88	5.96032
2713.23	6.39405
2714.57	6.48739
2715.92	7.11758
2717.26	7.80574
2718.6	7.37001
2719.95	7.18464
2721.29	6.8172
2722.63	7.08862
2723.97	7.79793
2725.32	8.1545
2726.66	7.96767
2728	8.52121
2729.34	8.39003
2730.68	7.75107
2732.02	8.00297
2733.36	8.8138
2734.7	8.1865
2736.04	7.94238
2737.39	7.93656
2738.72	7.86765
2740.06	8.34304
2741.4	8.75181
2742.74	8.86744
2744.08	9.36874
2745.42	9.43897
2746.76	9.35889
2748.1	8.81141
2749.44	8.37693
2750.77	8.11155
2752.11	7.96958
2753.45	7.66675
2754.78	7.8853
2756.12	7.62283
2757.46	7.31439
2758.79	7.22021
2760.13	7.15869
2761.47	6.99864
2762.8	6.50561
2764.14	6.24426
2765.47	5.86158
2766.81	5.1777
2768.14	4.9984
2769.48	4.79578
2770.81	4.64278
2772.14	5.07008
2773.48	5.31075
2774.81	4.81947
2776.14	3.90616
2777.48	3.69206
2778.81	2.7018
2780.14	2.32735
2781.47	2.51709
2782.81	2.27755
2784.14	2.11643
2785.47	1.64177
2786.8	1.4297
2788.13	1.47262
2789.46	1.71884
2790.79	1.6221
2792.12	0.747043
2793.46	0.46016
2794.79	0.322159
2796.11	-0.34623
2797.44	-0.487934
2798.77	0.173739
2800.1	-0.118095
2801.43	-0.424056
2802.76	-0.332235
2804.09	-0.103351
2805.42	0.277678
2806.74	0.413905
2808.07	0.567042
2809.4	0.653863
2810.73	0.874284
2812.05	0.959819
2813.38	1.46505
2814.71	2.04989
2816.03	2.67247
2817.36	3.27541
2818.68	3.71791
2820.01	4.07691
2821.33	5.15054
2822.66	6.00659
2823.98	7.65485
2825.31	8.65197
2826.63	9.46435
2827.96	10.9002
2829.28	12.4277
2830.61	14.6386
2831.93	16.2018
2833.25	18.2566
2834.57	20.8833
2835.9	22.749
2837.22	24.9556
2838.54	27.7012
2839.86	30.5105
2841.18	33.0556
2842.51	35.96
2843.83	39.6757
2845.15	43.0344
2846.47	46.9969
2847.79	50.6872
2849.11	54.7336
2850.43	59.3286
2851.75	63.2433
2853.07	67.5274
2854.39	71.968
2855.71	76.0657
2857.03	80.2564
2858.35	83.6973
2859.67	87.4843
2860.98	91.3763
2862.3	95.1962
2863.62	98.961
2864.94	102.445
2866.25	105.148
2867.57	108.265
2868.89	110.547
2870.21	113.584
2871.52	115.941
2872.84	118.268
2874.15	120.135
2875.47	122.138
2876.78	124.243
2878.1	126.131
2879.42	127.98
2880.73	129.416
2882.04	131.441
2883.36	133.065
2884.67	134.928
2885.99	137.137
2887.3	139.252
2888.61	141.562
2889.93	143.897
2891.24	145.92
2892.55	148.621
2893.87	151.636
2895.18	154.484
2896.49	157.242
2897.8	160.321
2899.11	164.496
2900.42	169.058
2901.74	172.945
2903.05	178.192
2904.36	183.801
2905.67	189.304
2906.98	194.739
2908.29	201.222
2909.6	207.118
2910.91	213.51
2912.22	219.626
2913.53	226.937
2914.83	233.749
2916.14	239.735
2917.45	245.176
2918.76	251.184
2920.07	256.281
2921.37	261.714
2922.68	265.862
2923.99	270.352
2925.3	273.972
2926.6	278.306
2927.91	280.945
2929.22	282.854
2930.52	283.862
2931.83	284.226
2933.13	284.986
2934.44	284.975
2935.74	284.002
2937.05	282.116
2938.35	280.48
2939.66	277.286
2940.96	275.113
2942.27	271.528
2943.57	268.215
2944.87	263.992
2946.18	259.467
2947.48	254.814
2948.78	249.304
2950.09	243.505
2951.39	237.702
2952.69	231.424
2953.99	225.672
2955.29	219.584
2956.6	213.322
2957.9	206.935
2959.2	200.437
2960.5	194.114
2961.8	187.665
2963.1	182.942
2964.4	177.763
2965.7	172.398
2967	166.588
2968.3	161.078
2969.6	155.411
2970.9	150.139
2972.2	145.056
2973.49	140.366
2974.79	135.455
2976.09	131.21
2977.39	126.643
2978.69	123.079
2979.98	118.157
2981.28	113.793
2982.58	109.359
2983.88	105.347
2985.17	100.82
2986.47	97.121
2987.76	92.7127
2989.06	89.2408
2990.36	84.7141
2991.65	81.2546
2992.95	76.7569
2994.24	72.5463
2995.54	68.9264
2996.83	66.0857
2998.12	63.0785
2999.42	59.6335
3000.71	55.989
3002	52.8488
3003.3	49.5554
3004.59	46.6562
3005.88	43.7789
3007.18	40.2518
3008.47	37.9733
3009.76	34.8707
3011.05	32.6115
3012.35	29.7625
3013.64	26.775
3014.93	24.2958
3016.22	22.6786
3017.51	21.4582
3018.8	20.2716
3020.09	18.9503
3021.38	17.5391
3022.67	15.6576
3023.96	14.4101
3025.25	13.271
3026.54	12.7448
3027.83	12.934
3029.12	12.3061
3030.41	11.792
3031.69	11.0292
3032.98	10.4994
3034.27	10.5826
3035.56	11.0464
3036.85	11.1725
3038.13	11.1784
3039.42	11.6247
3040.71	11.79
3041.99	12.4516
3043.28	12.8981
3044.57	12.9085
3045.85	13.2222
3047.14	13.9053
3048.42	14.1302
3049.71	14.8655
3050.99	15.4624
3052.28	15.9236
3053.56	15.91
3054.85	15.9302
3056.13	16.2738
3057.42	16.3059
3058.7	16.1752
3059.98	16.5145
3061.27	16.3354
3062.55	15.7905
3063.83	15.2149
3065.11	14.4558
3066.4	14.1072
3067.68	13.3401
3068.96	13.2117
3070.24	12.3293
3071.52	12.0051
3072.8	11.466
3074.09	10.4401
3075.37	9.14022
3076.65	7.97653
3077.93	7.49634
3079.21	7.10708
3080.49	6.20442
3081.77	5.17895
3083.05	3.81098
3084.32	3.11141
3085.61	2.32366
3086.88	1.64271
3088.16	1.42991
3089.44	1.29558
3090.72	1.62392
3092	1.6579
3093.27	0.65213
3094.55	0.272003
3095.83	0.126844
3097.11	0.210044
3098.38	-0.0432969
3099.66	0.0538852
3100.94	-0.136075
3102.21	-0.0920597
3103.49	0.348348
3104.76	0.484503
3106.04	0.76105
3107.31	0.970367
3108.59	1.02851
3109.86	1.00312
3111.14	1.30184
3112.41	1.23304
3113.69	1.91433
3114.96	2.2384
3116.23	2.79736
3117.51	3.35811
3118.78	3.9078
3120.05	4.32687
3121.33	4.56777
3122.6	5.07088
3123.87	5.66581
3125.14	5.83917
3126.42	6.18823
3127.69	6.60204
3128.96	7.41187
3130.23	8.0332
3131.5	8.22486
3132.77	9.24966
3134.04	9.25887
3135.31	9.44226
3136.58	9.40011
3137.85	9.70525
3139.12	9.87957
3140.39	10.4167
3141.66	10.7333
3142.93	10.9921
3144.2	11.4304
3145.47	11.831
3146.74	11.8471
3148	11.4147
3149.27	11.2949
