#Acq. time (s)=	45
#Accumulations=	2
#Range (cm-¹)=	200...3150
#Windows=	2
#Auto scanning=	Off
#Autofocus=	Off
#Macrospot=	Off
#AutoExposure=	Off
#Spike filter=	Multiple accum.
#Delay time (s)=	0
#Binning=	1
#Readout mode=	Signal
#DeNoise=	Off
#ICS correction=	On
#Dark correction=	Off
#Inst. Process=	Off
#Detector Gain=	Best Dynamic Range
#Detector ADC=	20 kHz       
#Detector temperature (°C)=	-70.08
#Instrument=	LabRAM HR Evol
#Detector=	Synapse
#Objective=	x100
#Grating=	600 gr/mm
#ND Filter=	100%
#Laser (nm)=	532 
#Hole=	100.021
#Range=	Auto
#Laser Pol.=	No
#Raman. Pol.=	No
#Laser Pol. (°)=	-0.0007625
#Raman Pol. (°)=	89.9995
#Collection=	Microscope
#StageXY=	Marzhauser
#StageZ=	Marzhauser
#X (µm)=	28061.1
#Y (µm)=	-586.9
#Z (µm)=	1083.7
#Full time(mm:ss)=	3:19
#Project=	
#Sample=	
#Site=	
#Title=	Mb_30_27_01_2x_45s_532 nm_x100_100%_600 gr_mm
#Remark=	
#Date=	12.07.2022 15:28
#Acquired=	12.07.2022 15:28:27
#Base:Fit=	10.08.2022 10:39:47
#Base:Sub=	10.08.2022 10:39:55
#Base:Fit=	10.08.2022 10:40:03
#Base:Sub=	10.08.2022 10:40:17
#Filter:Polynom=	16.08.2022 10:16:15
#AxisType[0]=Intens
#AxisUnit[0]=Cnt
#AxisType[1]=Spectr
#AxisUnit[1]=1/cm
200.388	65.7613
202.204	62.1711
204.019	59.5109
205.832	58.1169
207.646	55.8911
209.459	53.4214
211.274	50.8091
213.087	48.0448
214.899	45.2891
216.711	43.0831
218.524	41.9895
220.335	39.922
222.146	38.9234
223.956	36.3546
225.766	34.6003
227.576	32.4918
229.388	29.9907
231.197	26.818
233.005	24.7341
234.813	23.4025
236.621	21.4542
238.429	18.7434
240.236	17.979
242.045	16.2614
243.852	16.1118
245.658	14.9323
247.464	13.6914
249.269	13.2768
251.074	10.8634
252.879	8.58506
254.683	8.6792
256.487	6.88613
258.291	7.99218
260.094	8.80771
261.897	8.75589
263.702	8.96331
265.504	8.57233
267.306	7.70093
269.108	8.28341
270.909	8.48711
272.71	6.84907
274.511	7.77048
276.311	7.42197
278.111	6.5004
279.91	5.48812
281.709	4.65295
283.508	4.56044
285.306	5.40523
287.105	5.42601
288.9	4.87705
290.698	6.40548
292.495	7.47777
294.291	7.08042
296.088	7.13211
297.884	8.74186
299.679	9.39301
301.475	10.6022
303.27	10.8533
305.064	11.7786
306.858	14.3326
308.652	15.2978
310.444	16.8182
312.237	16.0378
314.03	15.5903
315.822	15.5878
317.615	14.9042
319.406	15.0633
321.198	14.9376
322.987	15.894
324.778	15.478
326.568	15.9368
328.358	15.7603
330.148	16.3416
331.935	15.2803
333.724	16.4455
335.513	14.672
337.301	14.9507
339.089	15.4424
340.875	13.4175
342.662	12.9019
344.449	12.8899
346.236	12.2826
348.02	10.9364
349.806	9.83117
351.592	8.076
353.375	7.63879
355.16	5.04267
356.944	4.81845
358.728	4.92922
360.51	3.97104
362.294	2.88484
364.077	2.9172
365.858	1.80747
367.64	0.931787
369.422	0.879355
371.202	2.02953
372.983	2.39394
374.764	3.33636
376.543	3.25358
378.324	4.17271
380.102	5.02691
381.881	5.48436
383.661	6.86922
385.438	7.6748
387.216	8.66514
388.993	9.45382
390.771	9.26595
392.548	10.1263
394.324	11.0586
396.101	12.4193
397.875	12.1444
399.651	12.8019
401.425	11.2692
403.201	12.2775
404.974	12.6029
406.749	14.5493
408.524	15.5146
410.296	16.1941
412.07	17.3889
413.841	17.7583
415.614	19.015
417.385	17.535
419.156	17.8472
420.928	18.193
422.698	18.9968
424.469	18.2723
426.238	17.9928
428.009	16.9995
429.777	15.383
431.548	14.2172
433.315	13.5213
435.083	12.3768
436.852	12.475
438.618	12.2162
440.387	12.3294
442.153	12.9978
443.919	11.7518
445.686	13.2419
447.451	13.2092
449.218	13.4786
450.982	13.967
452.746	14.3644
454.512	15.0247
456.275	15.9802
458.038	16.5651
459.803	18.3205
461.565	18.4564
463.327	19.4491
465.091	19.3072
466.852	20.1903
468.613	20.1523
470.374	20.9338
472.136	23.0056
473.896	23.2343
475.655	24.3504
477.415	24.7442
479.176	25.2254
480.934	26.366
482.692	27.9661
484.45	29.9829
486.21	29.4663
487.967	30.2731
489.724	30.6776
491.481	32.3676
493.237	34.0519
494.995	35.8018
496.75	35.3873
498.506	36.0761
500.26	36.7131
502.015	36.4827
503.771	37.4365
505.525	37.8087
507.279	38.6121
509.032	38.9971
510.785	40.1343
512.537	40.5803
514.289	40.4226
516.041	40.8708
517.793	40.7766
519.546	40.903
521.297	41.3259
523.047	42.0445
524.797	42.3392
526.547	41.9706
528.297	42.3679
530.046	41.2324
531.795	40.3397
533.543	41.475
535.291	41.0003
537.039	40.3806
538.787	39.798
540.534	37.9327
542.281	37.0947
544.027	35.9949
545.773	33.9169
547.519	32.866
549.264	30.6864
551.01	28.9986
552.754	27.2568
554.499	25.9797
556.243	24.4939
557.987	23.0266
559.73	22.2164
561.474	19.934
563.216	17.0793
564.959	15.652
566.701	14.0568
568.441	12.1032
570.182	10.3666
571.923	6.86341
573.664	4.04096
575.405	3.64856
577.145	2.98169
578.885	2.53589
580.624	1.95772
582.361	1.93258
584.1	1.20171
585.839	1.00073
587.577	1.26168
589.315	1.34196
591.052	2.72718
592.787	2.79981
594.524	2.44396
596.26	3.65175
597.997	3.9069
599.732	3.82706
601.466	3.04929
603.201	3.75278
604.936	5.34208
606.67	6.82769
608.403	6.43779
610.136	7.41055
611.87	9.03796
613.603	9.50182
615.334	9.85179
617.067	9.8285
618.799	11.9245
620.529	12.8707
622.26	13.014
623.991	13.6875
625.72	13.1373
627.451	13.9518
629.181	14.4267
630.909	15.6567
632.638	16.0736
634.368	17.0296
636.095	17.0358
637.823	17.4571
639.551	18.303
641.277	18.9517
643.005	18.2101
644.73	18.3177
646.457	19.1563
648.184	19.9258
649.908	18.876
651.634	18.1586
653.357	18.5376
655.083	18.8827
656.806	19.0062
658.53	18.4171
660.253	20.2611
661.977	21.2217
663.7	22.8695
665.422	23.4341
667.145	23.7703
668.865	24.9866
670.588	25.0203
672.308	24.642
674.027	25.6718
675.749	27.1058
677.468	27.5627
679.188	27.3793
680.907	27.7009
682.627	29.1695
684.345	30.1918
686.064	32.178
687.781	32.9571
689.498	34.9163
691.216	35.7738
692.932	35.8065
694.65	36.2124
696.366	37.8026
698.081	39.2053
699.797	39.0049
701.512	40.6479
703.228	42.3556
704.942	43.3455
706.655	43.6761
708.371	44.3346
710.083	44.5573
711.796	44.715
713.51	45.1271
715.222	44.9428
716.934	45.5444
718.645	45.2107
720.358	46.2928
722.068	46.9641
723.779	47.5166
725.49	47.2442
727.2	46.4391
728.909	45.7009
730.618	46.5167
732.329	45.7604
734.037	46.4674
735.745	45.2179
737.453	46.3413
739.16	48.765
740.869	47.9869
742.576	47.6222
744.282	47.9894
745.988	49.3923
747.694	49.986
749.401	50.6693
751.107	50.7816
752.811	51.3795
754.516	53.3545
756.22	53.4311
757.924	54.5614
759.627	56.2468
761.332	57.8543
763.035	59.2217
764.738	61.0381
766.44	62.5996
768.142	64.2957
769.843	65.4598
771.544	65.6379
773.245	66.5902
774.946	68.5073
776.646	70.8126
778.346	72.3399
780.046	74.4857
781.745	75.6452
783.444	77.4325
785.143	79.56
786.841	81.712
788.539	83.3676
790.237	83.9152
791.934	85.7444
793.631	86.1199
795.328	87.0078
797.024	88.8877
798.72	90.1672
800.416	92.0124
802.112	93.7314
803.807	95.5099
805.502	96.4436
807.196	96.416
808.89	95.6497
810.584	94.7652
812.278	95.7843
813.971	94.9538
815.664	94.7625
817.354	94.8118
819.047	95.4185
820.739	94.1159
822.43	93.2231
824.122	91.7664
825.813	89.5266
827.503	89.0585
829.192	87.8751
830.882	87.2326
832.571	85.5728
834.261	84.9059
835.95	84.0837
837.637	83.3396
839.325	82.536
841.013	81.0851
842.701	79.3278
844.389	77.7334
846.074	76.47
847.761	74.9258
849.447	71.5024
851.131	69.5814
852.817	69.6429
854.503	68.5433
856.188	67.4609
857.871	66.7501
859.556	66.1808
861.24	64.6772
862.922	63.7665
864.606	62.6023
866.289	62.2886
867.97	62.759
869.653	62.7436
871.336	61.8908
873.016	60.8436
874.698	60.2062
876.379	60.4734
878.058	60.7604
879.739	61.6685
881.418	62.6699
883.098	63.4384
884.778	64.3149
886.456	64.5237
888.135	65.0011
889.812	64.4851
891.49	64.7875
893.167	64.1822
894.845	64.1096
896.523	64.9715
898.198	64.1657
899.875	64.9014
901.55	64.2005
903.226	63.4597
904.901	63.0539
906.576	62.9889
908.25	63.184
909.925	63.5529
911.598	63.6902
913.271	63.9102
914.945	64.6803
916.617	64.8132
918.291	66.1599
919.962	64.3965
921.635	64.1329
923.306	64.014
924.978	62.9127
926.648	61.3485
928.318	60.9896
929.989	59.2455
931.659	57.9834
933.328	57.473
934.998	58.5749
936.666	57.8014
938.336	55.6406
940.004	54.4503
941.671	53.2574
943.34	52.0189
945.007	50.0578
946.673	50.9345
948.339	48.7693
950.007	50.0137
951.672	49.391
953.337	48.987
955.004	48.1289
956.669	46.3576
958.333	46.4314
959.997	46.4173
961.662	46.2374
963.326	46.4814
964.989	46.3184
966.651	47.4602
968.315	47.1781
969.977	46.7207
971.639	46.7653
973.301	46.5637
974.962	47.3429
976.624	46.2965
978.285	46.0661
979.945	45.7791
981.605	45.6991
983.264	45.8918
984.924	45.085
986.583	46.4246
988.243	47.482
989.901	47.612
991.56	47.4698
993.217	48.0423
994.875	48.5645
996.532	47.8758
998.188	46.1612
999.845	44.7502
1001.5	43.0702
1003.16	40.5184
1004.81	42.011
1006.47	43.2276
1008.12	45.4618
1009.78	49.3962
1011.43	54.4358
1013.09	59.7998
1014.74	65.3058
1016.39	71.0584
1018.05	76.0563
1019.7	79.9652
1021.35	84.5823
1023	88.9733
1024.65	92.2746
1026.31	94.9719
1027.96	98.9501
1029.61	103.192
1031.26	104.502
1032.91	108.649
1034.56	109.312
1036.21	109.767
1037.86	109.947
1039.51	110.028
1041.16	110.571
1042.8	110.571
1044.45	110.446
1046.1	110.1
1047.75	109.265
1049.39	107.864
1051.04	104.735
1052.69	101.17
1054.33	99.3679
1055.98	96.0361
1057.62	92.8291
1059.27	88.9285
1060.91	85.4992
1062.56	81.5056
1064.2	77.2983
1065.85	72.6912
1067.49	67.1409
1069.13	63.6996
1070.77	58.0804
1072.42	52.2481
1074.06	47.2604
1075.7	42.6357
1077.34	37.8621
1078.98	32.9425
1080.62	30.235
1082.27	28.1966
1083.91	28.0442
1085.55	29.152
1087.18	32.4981
1088.82	35.0656
1090.46	38.4788
1092.1	39.9997
1093.74	41.8626
1095.38	42.9338
1097.02	44.2399
1098.65	45.5437
1100.29	46.9388
1101.93	46.9318
1103.56	48.1037
1105.2	48.8816
1106.84	48.4933
1108.47	48.7678
1110.11	49.3953
1111.74	50.0605
1113.38	49.8274
1115.01	49.3428
1116.64	48.7613
1118.28	48.2224
1119.91	47.5155
1121.54	46.3778
1123.18	46.5468
1124.81	47.222
1126.44	46.88
1128.07	45.5138
1129.7	44.5682
1131.33	43.8368
1132.97	42.8287
1134.6	42.2347
1136.23	42.3685
1137.86	41.0973
1139.49	41.3714
1141.11	39.1595
1142.74	37.4457
1144.37	35.9038
1146	33.1872
1147.63	30.8669
1149.26	28.7171
1150.88	27.9085
1152.51	25.7598
1154.14	24.0584
1155.76	22.6692
1157.39	21.9505
1159.01	21.2171
1160.64	20.8169
1162.27	20.8702
1163.89	19.5143
1165.51	18.7929
1167.14	17.1089
1168.76	15.3515
1170.39	14.3603
1172.01	12.9499
1173.63	11.6202
1175.25	11.9933
1176.88	12.0762
1178.5	12.8876
1180.12	12.3131
1181.74	12.3448
1183.36	11.7213
1184.98	12.43
1186.6	11.5346
1188.22	11.0933
1189.84	11.4824
1191.46	10.9987
1193.08	12.1108
1194.7	13.379
1196.32	14.5463
1197.94	17.285
1199.55	18.076
1201.17	18.8384
1202.79	21.4461
1204.41	23.7299
1206.02	25.6757
1207.64	27.0716
1209.25	28.1518
1210.87	31.5306
1212.48	35.604
1214.1	37.3006
1215.71	39.6912
1217.33	41.337
1218.94	42.9215
1220.56	44.8727
1222.17	46.3746
1223.79	49.6409
1225.4	52.3527
1227.01	54.0725
1228.62	56.915
1230.23	60.4552
1231.85	63.8
1233.46	64.9356
1235.07	66.5399
1236.68	68.4647
1238.29	70.881
1239.9	73.1058
1241.51	74.9864
1243.12	76.7154
1244.73	77.4824
1246.34	78.3668
1247.94	80.2121
1249.55	81.545
1251.16	83.3535
1252.77	84.7346
1254.37	86.8789
1255.98	88.4887
1257.59	89.0271
1259.2	90.5204
1260.8	91.2634
1262.41	92.2674
1264.01	93.4347
1265.62	95.2273
1267.22	95.4873
1268.83	97.2412
1270.43	98.7451
1272.03	100.6
1273.64	103.888
1275.24	105.464
1276.85	106.061
1278.45	106.935
1280.05	108.11
1281.65	108.707
1283.25	111.332
1284.85	112.588
1286.46	114.752
1288.06	116.515
1289.66	117.947
1291.26	120.181
1292.86	122.007
1294.46	122.521
1296.06	123.974
1297.66	125.258
1299.25	126.793
1300.85	128.251
1302.45	129.673
1304.05	129.881
1305.65	129.459
1307.24	129.809
1308.84	131.024
1310.43	130.746
1312.03	131.007
1313.63	129.889
1315.22	129.544
1316.82	130.04
1318.41	130.271
1320.01	130.334
1321.6	130.062
1323.2	129.668
1324.79	128.596
1326.38	127.142
1327.98	126.535
1329.57	124.098
1331.16	124.252
1332.76	123.911
1334.35	122.658
1335.94	121.505
1337.53	119.306
1339.12	118.984
1340.71	116.807
1342.3	114.599
1343.89	112.639
1345.48	110.814
1347.07	109.634
1348.66	108.047
1350.25	106.525
1351.84	105.235
1353.43	103.457
1355.01	101.216
1356.6	99.201
1358.19	97.9994
1359.77	96.3929
1361.36	93.9419
1362.95	93.2142
1364.53	91.795
1366.12	90.1962
1367.71	89.1445
1369.29	88.3308
1370.88	86.6152
1372.46	84.2394
1374.04	81.0372
1375.63	78.4826
1377.21	76.6703
1378.8	75.285
1380.38	74.1204
1381.96	71.5997
1383.54	70.1472
1385.13	69.87
1386.71	70.5142
1388.29	70.2267
1389.87	68.3258
1391.45	68.3243
1393.03	65.6834
1394.61	63.8137
1396.19	62.6555
1397.77	61.8449
1399.35	61.133
1400.93	60.813
1402.51	59.3108
1404.09	59.1504
1405.67	58.2417
1407.24	58.5447
1408.82	59.2332
1410.4	61.4586
1411.98	60.5197
1413.55	61.4616
1415.13	63.3767
1416.71	64.5343
1418.28	67.5652
1419.86	69.5641
1421.43	72.786
1423.01	76.8796
1424.58	81.2092
1426.16	85.5144
1427.73	89.2097
1429.31	93.1572
1430.88	97.2851
1432.45	100.952
1434.02	104.918
1435.6	109.166
1437.17	112.994
1438.74	115.918
1440.31	119.345
1441.88	122.424
1443.45	125.673
1445.03	126.649
1446.6	128.549
1448.17	129.499
1449.74	128.119
1451.3	128.077
1452.87	128.209
1454.44	129.536
1456.01	130.899
1457.58	130.173
1459.15	128.794
1460.72	128.031
1462.28	128.675
1463.85	127.27
1465.42	126.217
1466.98	123.466
1468.55	120.493
1470.12	118.722
1471.68	115.912
1473.25	113.661
1474.81	112.197
1476.38	110.386
1477.94	106.657
1479.51	103.535
1481.07	100.088
1482.63	97.8759
1484.2	95.471
1485.76	93.924
1487.32	92.2367
1488.88	88.8702
1490.45	85.4968
1492.01	83.427
1493.57	80.7126
1495.13	77.9128
1496.69	75.8483
1498.25	73.5085
1499.81	71.537
1501.37	68.8103
1502.93	65.7177
1504.49	63.4207
1506.05	61.2486
1507.61	58.8617
1509.17	56.9883
1510.73	54.9892
1512.28	52.6141
1513.84	51.3887
1515.4	48.6568
1516.96	45.8976
1518.51	44.3863
1520.07	42.7124
1521.63	41.4548
1523.18	39.2732
1524.74	37.5563
1526.29	35.2853
1527.85	32.8121
1529.4	31.9884
1530.96	31.2063
1532.51	31.7035
1534.06	31.1823
1535.62	30.2813
1537.17	30.6649
1538.72	31.9384
1540.28	32.1586
1541.83	33.5463
1543.38	34.4614
1544.93	35.1205
1546.48	37.6755
1548.03	39.5767
1549.59	40.8377
1551.14	42.2646
1552.69	43.9652
1554.24	45.3102
1555.79	46.2482
1557.34	48.0069
1558.88	49.5245
1560.43	51.3936
1561.98	52.9453
1563.53	54.2209
1565.08	55.6145
1566.62	55.3044
1568.17	56.2856
1569.72	57.3134
1571.27	59.6337
1572.81	61.7092
1574.36	64.5563
1575.9	66.9135
1577.45	68.4071
1579	70.1178
1580.54	72.6655
1582.09	75.4351
1583.63	77.3718
1585.17	79.1299
1586.72	80.9229
1588.26	83.3368
1589.8	85.925
1591.35	88.8576
1592.89	88.9331
1594.43	89.892
1595.97	92.2276
1597.52	92.5379
1599.06	92.636
1600.6	92.3639
1602.14	91.3179
1603.68	92.0245
1605.22	92.0142
1606.76	92.5421
1608.3	93.0112
1609.84	94.0418
1611.38	94.2152
1612.92	95.1734
1614.46	95.9738
1615.99	96.801
1617.53	98.6656
1619.07	101.097
1620.61	102.794
1622.14	104.852
1623.68	107.266
1625.22	109.238
1626.75	111.571
1628.29	112.775
1629.82	114.263
1631.36	116.538
1632.9	117.144
1634.43	119.803
1635.96	122.436
1637.5	125.173
1639.03	128.215
1640.57	131.188
1642.1	134.2
1643.63	135.804
1645.16	139.604
1646.7	142.666
1648.23	145.264
1649.76	147.809
1651.29	149.802
1652.82	150.404
1654.36	149.515
1655.89	150.246
1657.42	149.965
1658.95	149.054
1660.48	148.663
1662.01	147.535
1663.53	146.627
1665.06	145.323
1666.59	142.712
1668.12	138.79
1669.65	134.889
1671.18	131.114
1672.7	128.005
1674.23	122.886
1675.76	118.711
1677.29	114.252
1678.81	109.311
1680.34	104.41
1681.86	99.2028
1683.39	94.9774
1684.91	90.4509
1686.44	86.0338
1687.96	80.5756
1689.49	74.6498
1691.01	69.7652
1692.54	65.8666
1694.06	61.8366
1695.58	57.2465
1697.11	53.8279
1698.63	50.5625
1700.15	46.9423
1701.67	44.2337
1703.2	40.9743
1704.72	37.7379
1706.24	35.4217
1707.76	33.1081
1709.28	30.3612
1710.8	29.7908
1712.32	28.3117
1713.84	26.8731
1715.36	26.272
1716.88	24.9661
1718.4	23.7123
1719.91	21.9416
1721.43	21.9082
1722.95	20.52
1724.47	19.7094
1725.99	19.0679
1727.5	18.3013
1729.02	17.3514
1730.54	16.0647
1732.05	16.8076
1733.57	16.2535
1735.09	16.1214
1736.6	15.8813
1738.12	14.7986
1739.63	14.307
1741.15	14.7933
1742.66	13.608
1744.18	13.3183
1745.69	12.8839
1747.2	12.1685
1748.72	12.2152
1750.23	11.1286
1751.74	10.6347
1753.25	10.3254
1754.77	9.5421
1756.28	8.98203
1757.79	8.87811
1759.3	7.50216
1760.81	6.17662
1762.32	5.21057
1763.83	4.50386
1765.34	4.04812
1766.85	4.78961
1768.36	5.15352
1769.87	4.7506
1771.38	4.86404
1772.89	5.59886
1774.4	5.02243
1775.91	4.16712
1777.41	4.51839
1778.92	3.83408
1780.43	3.35639
1781.94	3.2349
1783.44	2.55263
1784.95	2.69616
1786.45	2.50409
1787.96	2.04933
1789.47	2.12026
1790.97	1.97493
1792.48	1.26982
1793.98	0.889234
1795.48	1.11684
1796.99	1.44887
1798.49	1.74678
1800	1.68749
1801.5	1.83703
1803	2.26158
1804.51	2.06114
1806.01	2.30602
1807.51	2.49595
1809.01	2.26896
1810.51	2.48619
1812.02	2.27232
1813.52	2.77755
1815.02	3.90066
1816.52	4.68498
1818.02	4.13644
1819.52	4.67831
1821.02	4.25392
1822.52	4.50434
1824.02	4.90566
1825.51	4.76595
1827.01	4.44411
1828.51	4.65034
1830.01	4.05532
1831.51	4.2826
1833	4.54455
1834.5	4.42132
1836	5.31088
1837.5	6.47423
1838.99	6.71647
1840.49	7.11244
1841.98	7.13278
1843.48	7.29767
1844.97	7.2259
1846.47	7.16705
1847.96	7.83621
1849.46	6.82063
1850.95	5.86123
1852.45	5.18983
1853.94	4.22138
1855.43	3.87161
1856.92	3.06204
1858.42	2.40054
1859.91	3.22761
1861.4	2.50022
1862.89	2.67053
1864.39	2.98529
1865.88	2.62481
1867.37	3.02453
1868.86	3.21783
1870.35	3.03462
1871.84	2.88081
1873.33	2.48729
1874.82	2.16141
1876.31	1.58217
1877.8	1.92247
1879.29	2.47823
1880.77	3.32528
1882.26	3.56971
1882.51	4.14603
1884	4.1665
1885.5	3.85036
1886.99	4.14771
1888.48	4.20934
1889.98	4.31027
1891.47	4.74176
1892.97	4.55035
1894.46	3.90126
1895.95	4.91505
1897.44	4.66056
1898.93	4.20442
1900.42	5.27655
1901.92	5.92753
1903.41	5.84766
1904.9	5.97714
1906.39	6.48236
1907.88	6.93983
1909.37	7.30643
1910.86	8.0203
1912.35	7.30146
1913.84	7.48649
1915.32	6.91639
1916.81	6.25101
1918.3	6.30973
1919.79	6.28397
1921.28	6.25785
1922.76	5.41775
1924.25	6.04687
1925.74	6.13333
1927.22	6.95377
1928.71	8.25398
1930.2	7.86342
1931.68	8.54512
1933.17	8.53125
1934.65	8.1777
1936.14	8.54765
1937.62	8.66274
1939.11	7.93896
1940.59	7.2945
1942.08	6.66361
1943.56	6.50847
1945.04	7.22914
1946.53	7.25417
1948.01	7.72296
1949.49	7.49712
1950.97	8.34447
1952.45	8.11954
1953.94	7.26158
1955.42	6.09416
1956.9	5.31262
1958.38	3.95636
1959.86	3.86195
1961.34	4.37069
1962.82	4.43655
1964.3	4.7646
1965.78	4.32826
1967.26	3.5483
1968.74	3.85414
1970.22	4.72877
1971.69	3.81053
1973.17	4.14071
1974.65	4.13177
1976.13	3.82681
1977.61	4.14934
1979.08	5.17016
1980.56	5.76129
1982.03	5.72273
1983.51	6.0892
1984.99	6.2656
1986.46	6.07199
1987.94	6.8144
1989.41	6.99317
1990.89	7.43749
1992.36	8.51623
1993.84	9.01503
1995.31	9.31661
1996.78	9.01928
1998.26	9.44508
1999.73	9.38764
2001.2	10.0569
2002.68	9.71484
2004.15	9.48175
2005.62	9.83126
2007.09	10.3565
2008.56	11.3165
2010.04	11.3004
2011.51	10.7625
2012.98	10.3263
2014.45	10.8547
2015.92	12.5233
2017.39	12.7119
2018.86	12.8827
2020.33	12.2816
2021.8	12.2925
2023.27	11.5703
2024.74	11.6044
2026.2	11.1828
2027.67	10.7827
2029.14	11.6839
2030.61	12.2713
2032.07	13.0049
2033.54	13.9407
2035.01	15.247
2036.47	15.548
2037.94	16.5798
2039.41	16.8213
2040.87	17.3546
2042.34	17.8886
2043.8	18.759
2045.27	19.2696
2046.73	20.5721
2048.2	21.5027
2049.66	22.4034
2051.12	22.504
2052.59	22.6616
2054.05	22.421
2055.51	23.0705
2056.98	23.3387
2058.44	22.7097
2059.9	22.9899
2061.36	22.9643
2062.82	23.3619
2064.29	23.7593
2065.75	24.513
2067.21	24.9155
2068.67	25.0503
2070.13	25.4982
2071.59	26.0689
2073.05	26.6169
2074.51	26.7448
2075.97	28.501
2077.43	30.7577
2078.88	31.3424
2080.34	32.6784
2081.8	33.0438
2083.26	33.9287
2084.72	34.9968
2086.17	35.851
2087.63	37.9097
2089.09	40.13
2090.54	40.4007
2092	41.794
2093.46	42.9011
2094.91	44.1433
2096.37	44.5666
2097.82	45.8587
2099.28	46.3919
2100.73	47.7581
2102.19	49.9001
2103.64	51.3311
2105.09	52.7586
2106.55	54.363
2108	56.9178
2109.46	58.0055
2110.91	59.0796
2112.36	60.2508
2113.81	61.8285
2115.27	63.6478
2116.72	66.244
2118.17	68.8708
2119.62	70.3542
2121.07	72.5269
2122.52	74.7828
2123.97	77.4348
2125.42	80.1868
2126.87	82.8197
2128.32	85.6464
2129.77	88.1413
2131.22	91.5006
2132.67	95.8647
2134.12	98.0566
2135.57	101.674
2137.01	104.367
2138.46	107.764
2139.91	111.267
2141.36	114.519
2142.8	118.328
2144.25	122.316
2145.7	125.973
2147.14	129.812
2148.59	134.319
2150.03	137.611
2151.48	141.006
2152.92	143.994
2154.37	146.897
2155.81	149.951
2157.26	153.219
2158.7	155.934
2160.15	159.06
2161.59	161.17
2163.03	162.051
2164.48	163.04
2165.92	165.106
2167.36	165.139
2168.8	165.233
2170.25	165.981
2171.69	166.452
2173.13	166.914
2174.57	167.605
2176.01	166.87
2177.45	165.825
2178.89	164.714
2180.33	162.524
2181.77	160.763
2183.21	158.992
2184.65	156.816
2186.09	155.38
2187.53	153.765
2188.97	152.035
2190.41	149.818
2191.84	146.893
2193.28	144.753
2194.72	141.795
2196.16	138.688
2197.59	135.511
2199.03	132.148
2200.47	128.849
2201.9	126.054
2203.34	122.538
2204.78	117.74
2206.21	112.701
2207.65	109.886
2209.08	106.689
2210.51	104.395
2211.95	100.478
2213.38	97.2602
2214.82	94.2991
2216.25	91.1148
2217.68	87.6027
2219.12	85.0148
2220.55	82.0156
2221.98	79.0581
2223.42	76.2442
2224.85	73.0595
2226.28	70.5911
2227.71	68.1665
2229.14	66.1532
2230.57	63.7018
2232	60.8487
2233.43	58.9358
2234.86	55.8344
2236.29	53.3435
2237.72	51.316
2239.15	48.2172
2240.58	46.1414
2242.01	44.326
2243.44	42.9441
2244.87	40.7522
2246.3	39.3374
2247.73	36.6342
2249.15	35.4388
2250.58	33.8824
2252.01	32.5796
2253.43	31.9072
2254.86	30.4347
2256.29	29.5466
2257.71	29.685
2259.14	28.5815
2260.56	27.3919
2261.99	26.1541
2263.41	24.956
2264.84	24.3326
2266.26	23.9764
2267.69	24.3991
2269.11	24.772
2270.54	23.9276
2271.96	24.0084
2273.38	23.6134
2274.81	22.3787
2276.23	22.2025
2277.65	22.5699
2279.07	23.1701
2280.49	23.5516
2281.92	23.5958
2283.34	23.0982
2284.76	24.2789
2286.18	23.6764
2287.6	23.2287
2289.02	22.4835
2290.44	22.0096
2291.86	20.9884
2293.28	20.2273
2294.7	20.2392
2296.12	19.9089
2297.54	19.2396
2298.96	19.0606
2300.38	18.4793
2301.79	17.7923
2303.21	16.8038
2304.63	16.892
2306.05	15.2224
2307.46	14.8722
2308.88	14.047
2310.3	13.9689
2311.71	13.8597
2313.13	14.2218
2314.55	13.2247
2315.96	11.9352
2317.38	11.9214
2318.79	11.5917
2320.21	11.3512
2321.62	10.8914
2323.03	10.7118
2324.45	9.79408
2325.86	9.28475
2327.27	9.03166
2328.69	8.54148
2330.1	8.19058
2331.51	7.90822
2332.93	7.52739
2334.34	7.44618
2335.75	7.87229
2337.16	7.65294
2338.57	8.20109
2339.99	7.92478
2341.4	7.10289
2342.81	6.82213
2344.22	6.18704
2345.63	5.49345
2347.04	5.47049
2348.45	5.15069
2349.86	5.50803
2351.26	4.99282
2352.67	4.54655
2354.08	4.36559
2355.49	3.48301
2356.9	2.18476
2358.31	1.03458
2359.71	0.520615
2361.12	0.486348
2362.53	-0.249594
2363.94	-0.246868
2365.34	-0.171633
2366.75	-0.35272
2368.15	-0.538789
2369.56	-0.900545
2370.97	-0.170157
2372.37	0.445942
2373.78	0.857959
2375.18	0.70758
2376.59	0.511892
2377.99	1.26407
2379.39	0.87545
2380.8	1.56139
2382.2	1.7208
2383.61	1.67049
2385.01	1.65323
2386.41	3.00398
2387.81	3.75981
2389.22	3.50413
2390.62	3.55048
2392.02	4.08664
2393.42	4.20382
2394.82	3.97191
2396.22	5.17947
2397.63	5.43213
2399.02	5.71302
2400.43	5.88914
2401.82	6.02564
2403.23	5.91153
2404.62	6.05353
2406.02	5.99624
2407.42	5.9429
2408.82	6.58888
2410.22	6.66021
2411.62	5.84977
2413.02	5.99026
2414.41	6.53347
2415.81	6.11415
2417.21	6.03879
2418.61	5.98299
2420	5.86239
2421.4	5.52792
2422.79	5.04172
2424.19	5.22098
2425.59	4.01282
2426.98	3.84531
2428.38	3.33077
2429.77	4.30255
2431.17	4.17342
2432.56	4.02143
2433.96	4.85563
2435.35	5.04913
2436.74	5.26968
2438.14	5.53344
2439.53	6.34152
2440.92	7.74822
2442.32	7.48115
2443.71	7.41085
2445.1	7.14698
2446.49	7.03926
2447.88	6.5866
2449.28	6.68672
2450.67	7.3781
2452.06	7.44463
2453.45	8.05026
2454.84	7.26145
2456.23	7.32153
2457.62	6.82264
2459.01	6.38269
2460.4	7.27745
2461.79	7.15212
2463.18	6.11022
2464.57	5.78903
2465.96	6.04595
2467.34	4.88245
2468.73	5.15854
2470.12	4.55652
2471.51	4.15184
2472.89	3.86715
2474.28	3.87979
2475.67	3.94634
2477.05	4.16073
2478.44	4.90941
2479.83	5.04457
2481.21	4.00062
2482.6	3.73486
2483.98	3.52293
2485.37	2.88471
2486.75	2.70435
2488.14	2.40909
2489.52	1.64053
2490.9	1.09925
2492.29	0.799821
2493.67	1.63268
2495.06	1.73858
2496.44	2.19383
2497.82	2.41598
2499.2	2.34085
2500.59	1.73761
2501.97	1.67331
2503.35	2.09051
2504.73	1.78389
2506.11	1.39153
2507.49	1.50996
2508.88	1.28642
2510.26	0.946379
2511.63	0.503962
2513.01	-0.0878529
2514.39	-0.648453
2515.77	-0.837831
2517.15	-0.448622
2518.53	0.26952
2519.91	0.0203481
2521.29	0.192824
2522.67	-0.26229
2524.05	-0.768526
2525.42	-0.0674556
2526.8	-0.730275
2528.18	-1.48692
2529.56	-1.26632
2530.93	-1.89315
2532.31	-1.86355
2533.69	-1.2463
2535.06	-0.670691
2536.44	-0.864986
2537.81	-0.462685
2539.19	-0.949154
2540.56	0.17099
2541.94	0.624947
2543.31	1.38726
2544.69	1.34442
2546.06	1.49952
2547.44	2.85211
2548.81	3.16209
2550.18	2.74805
2551.56	3.3842
2552.93	4.10289
2554.3	4.6658
2555.68	4.97639
2557.05	5.54439
2558.42	6.44528
2559.79	7.71279
2561.16	8.3871
2562.53	9.11033
2563.9	8.83413
2565.28	8.42689
2566.64	8.6723
2568.02	8.43968
2569.38	8.4688
2570.76	8.14477
2572.12	8.07942
2573.49	7.45004
2574.86	7.20566
2576.23	7.55557
2577.6	7.28286
2578.97	6.89626
2580.34	7.28732
2581.7	6.77954
2583.07	7.25332
2584.44	7.09612
2585.81	6.92566
2587.17	6.11586
2588.54	5.39363
2589.91	5.29982
2591.27	4.34927
2592.64	3.85843
2594	3.41724
2595.37	2.47653
2596.73	2.15685
2598.1	1.93518
2599.46	1.64805
2600.83	1.90918
2602.19	1.70883
2603.55	1.61809
2604.92	1.08936
2606.28	1.47869
2607.64	1.56809
2609.01	1.68981
2610.37	1.59593
2611.73	1.34695
2613.09	1.33846
2614.46	1.88669
2615.82	2.99687
2617.18	2.40758
2618.54	2.13782
2619.9	2.37951
2621.26	3.27389
2622.62	3.8495
2623.98	4.26903
2625.34	4.51765
2626.7	4.39752
2628.06	4.29236
2629.42	3.93794
2630.78	4.04463
2632.14	3.84719
2633.5	3.96213
2634.86	3.82289
2636.22	3.47452
2637.57	3.42666
2638.93	3.59227
2640.29	3.79551
2641.64	4.46904
2643	4.45642
2644.36	4.77402
2645.72	4.66583
2647.07	4.73364
2648.43	5.33022
2649.78	5.12888
2651.14	5.71535
2652.49	5.37777
2653.85	5.63167
2655.2	6.26502
2656.56	6.7862
2657.91	7.16811
2659.27	6.86744
2660.62	7.37533
2661.97	7.75118
2663.33	7.92542
2664.68	8.50978
2666.03	9.53436
2667.38	10.4651
2668.74	10.6424
2670.09	10.6575
2671.44	10.7028
2672.79	11.17
2674.14	11.6137
2675.49	11.3797
2676.84	11.3288
2678.2	11.4595
2679.55	10.8958
2680.89	11.5909
2682.24	11.5662
2683.59	11.6693
2684.94	10.7832
2686.29	10.6084
2687.64	9.9388
2688.99	9.98168
2690.34	9.25481
2691.69	9.33496
2693.04	8.66743
2694.38	8.16115
2695.73	7.81305
2697.08	7.26806
2698.43	6.58268
2699.77	6.2237
2701.12	5.84322
2702.46	5.56026
2703.81	6.04653
2705.16	5.88828
2706.5	5.27089
2707.85	4.68352
2709.19	4.63943
2710.54	4.21404
2711.88	4.98645
2713.23	5.20555
2714.57	5.22391
2715.92	5.93781
2717.26	6.62793
2718.6	7.55849
2719.95	7.91177
2721.29	8.58942
2722.63	8.54007
2723.97	9.166
2725.32	9.34264
2726.66	9.20911
2728	10.1577
2729.34	10.7514
2730.68	11.3695
2732.02	11.4339
2733.36	11.2375
2734.7	10.9646
2736.04	11.2937
2737.39	12.0522
2738.72	12.4045
2740.06	12.924
2741.4	13.1423
2742.74	13.2096
2744.08	13.2932
2745.42	13.2595
2746.76	13.3473
2748.1	13.5176
2749.44	13.5341
2750.77	13.0109
2752.11	12.3341
2753.45	11.4717
2754.78	10.5574
2756.12	10.9338
2757.46	11.284
2758.79	10.4554
2760.13	10.1978
2761.47	9.5895
2762.8	9.39204
2764.14	8.74075
2765.47	8.50343
2766.81	8.8314
2768.14	8.11519
2769.48	7.31293
2770.81	6.86566
2772.14	5.46474
2773.48	4.45801
2774.81	3.99187
2776.14	3.42038
2777.48	3.79105
2778.81	3.93632
2780.14	3.68838
2781.47	3.29936
2782.81	3.46854
2784.14	3.4026
2785.47	2.91541
2786.8	2.51415
2788.13	2.11035
2789.46	1.10917
2790.79	1.59389
2792.12	1.04853
2793.46	0.829131
2794.79	1.94708
2796.11	1.16907
2797.44	0.362605
2798.77	0.932061
2800.1	1.21539
2801.43	1.67126
2802.76	1.6103
2804.09	1.1632
2805.42	1.34493
2806.74	0.943951
2808.07	1.14885
2809.4	0.971166
2810.73	0.628348
2812.05	0.25781
2813.38	0.474889
2814.71	1.45879
2816.03	2.57063
2817.36	3.52454
2818.68	4.89534
2820.01	6.29319
2821.33	8.6548
2822.66	11.7998
2823.98	14.8136
2825.31	16.5969
2826.63	20.3204
2827.96	23.5433
2829.28	27.0967
2830.61	30.553
2831.93	34.267
2833.25	37.3585
2834.57	39.89
2835.9	43.0049
2837.22	47.6757
2838.54	52.4891
2839.86	57.8011
2841.18	63.4418
2842.51	69.6084
2843.83	76.3684
2845.15	82.8575
2846.47	90.462
2847.79	97.7761
2849.11	105.295
2850.43	112.673
2851.75	119.972
2853.07	127.58
2854.39	135.101
2855.71	143.02
2857.03	150.654
2858.35	157.738
2859.67	164.344
2860.98	171.064
2862.3	176.041
2863.62	182.745
2864.94	189.679
2866.25	194.61
2867.57	199.803
2868.89	204.244
2870.21	210.251
2871.52	215.679
2872.84	220.099
2874.15	224.857
2875.47	228.858
2876.78	233.179
2878.1	237.954
2879.42	242.377
2880.73	246.785
2882.04	250.972
2883.36	254.569
2884.67	259.059
2885.99	263.259
2887.3	268.131
2888.61	273.173
2889.93	276.965
2891.24	281.495
2892.55	287.169
2893.87	292.846
2895.18	298.486
2896.49	304.38
2897.8	310.559
2899.11	316.353
2900.42	323.037
2901.74	330.744
2903.05	339.815
2904.36	348.805
2905.67	358.473
2906.98	368.503
2908.29	379.205
2909.6	389.808
2910.91	400.991
2912.22	411.606
2913.53	421.394
2914.83	430.892
2916.14	441.192
2917.45	450.627
2918.76	459.545
2920.07	467.899
2921.37	475.443
2922.68	481.226
2923.99	486.638
2925.3	492.133
2926.6	495.966
2927.91	500.691
2929.22	504.525
2930.52	506.591
2931.83	507.393
2933.13	507.744
2934.44	506.979
2935.74	505.631
2937.05	502.048
2938.35	498.373
2939.66	493.439
2940.96	487.589
2942.27	481.608
2943.57	475.275
2944.87	468.064
2946.18	460.419
2947.48	451.463
2948.78	442.639
2950.09	433.604
2951.39	423.719
2952.69	414.108
2953.99	403.932
2955.29	392.776
2956.6	383.438
2957.9	372.884
2959.2	362.799
2960.5	352.395
2961.8	341.276
2963.1	330.422
2964.4	319.261
2965.7	309.511
2967	299.531
2968.3	291.221
2969.6	282.027
2970.9	273.549
2972.2	264.732
2973.49	256.125
2974.79	246.966
2976.09	237.756
2977.39	228.79
2978.69	220.416
2979.98	211.494
2981.28	203.272
2982.58	194.014
2983.88	185.792
2985.17	177.326
2986.47	168.747
2987.76	160.693
2989.06	152.674
2990.36	145.112
2991.65	137.319
2992.95	130.158
2994.24	121.841
2995.54	115.078
2996.83	108.465
2998.12	101.426
2999.42	94.4726
3000.71	88.2284
3002	82.3656
3003.3	76.2829
3004.59	70.8125
3005.88	65.4137
3007.18	60.7738
3008.47	55.8839
3009.76	51.5186
3011.05	47.1893
3012.35	43.1308
3013.64	39.704
3014.93	36.2238
3016.22	33.5054
3017.51	30.7306
3018.8	27.8086
3020.09	25.3262
3021.38	23.5869
3022.67	21.8834
3023.96	20.1112
3025.25	18.2439
3026.54	16.6362
3027.83	15.9581
3029.12	15.3891
3030.41	15.3453
3031.69	15.1119
3032.98	15.7673
3034.27	15.3923
3035.56	16.1183
3036.85	15.7482
3038.13	16.0119
3039.42	16.2607
3040.71	16.6942
3041.99	18.0599
3043.28	18.6401
3044.57	19.004
3045.85	19.7535
3047.14	20.441
3048.42	20.8164
3049.71	20.8822
3050.99	21.0676
3052.28	21.3943
3053.56	21.0546
3054.85	20.7109
3056.13	20.5845
3057.42	19.7917
3058.7	20.0508
3059.98	20.3308
3061.27	19.6737
3062.55	18.6745
3063.83	18.442
3065.11	17.9624
3066.4	16.5228
3067.68	15.6823
3068.96	15.3674
3070.24	14.1084
3071.52	13.2204
3072.8	13.174
3074.09	12.059
3075.37	11.0038
3076.65	9.26097
3077.93	7.81406
3079.21	7.42466
3080.49	6.57369
3081.77	5.28468
3083.05	4.31829
3084.32	3.19046
3085.61	2.12935
3086.88	1.35358
3088.16	0.557148
3089.44	0.220784
3090.72	0.445484
3092	-0.1062
3093.27	-0.54678
3094.55	-0.960887
3095.83	-1.16967
3097.11	-0.989235
3098.38	-1.2022
3099.66	-1.21972
3100.94	-1.17751
3102.21	-0.272899
3103.49	0.0846311
3104.76	-0.129327
3106.04	0.206647
3107.31	0.654334
3108.59	1.50287
3109.86	1.5407
3111.14	1.63604
3112.41	2.40126
3113.69	2.6968
3114.96	3.04943
3116.23	3.56362
3117.51	3.67234
3118.78	3.85252
3120.05	4.61267
3121.33	5.71084
3122.6	6.68488
3123.87	7.34086
3125.14	7.892
3126.42	8.40625
3127.69	9.51733
3128.96	9.82603
3130.23	10.3102
3131.5	11.5517
3132.77	12.2749
3134.04	12.8015
3135.31	13.1864
3136.58	14.018
3137.85	13.7143
3139.12	14.8348
3140.39	14.9802
3141.66	15.7157
3142.93	16.0621
3144.2	16.0109
3145.47	16.1412
3146.74	16.1999
3148	16.7133
3149.27	16.7052
