#Acq. time (s)=	45
#Accumulations=	2
#Range (cm-¹)=	200...3150
#Windows=	2
#Auto scanning=	Off
#Autofocus=	Off
#Macrospot=	Off
#AutoExposure=	Off
#Spike filter=	Multiple accum.
#Delay time (s)=	0
#Binning=	1
#Readout mode=	Signal
#DeNoise=	Off
#ICS correction=	On
#Dark correction=	Off
#Inst. Process=	Off
#Detector Gain=	Best Dynamic Range
#Detector ADC=	20 kHz       
#Detector temperature (°C)=	-69.85
#Instrument=	LabRAM HR Evol
#Detector=	Synapse
#Objective=	x100
#Grating=	600 gr/mm
#ND Filter=	100%
#Laser (nm)=	532 
#Hole=	100.021
#Range=	Auto
#Laser Pol.=	No
#Raman. Pol.=	No
#Laser Pol. (°)=	-0.0007625
#Raman Pol. (°)=	89.9995
#Collection=	Microscope
#StageXY=	Marzhauser
#StageZ=	Marzhauser
#X (µm)=	-6377.8
#Y (µm)=	843.8
#Z (µm)=	-64.8
#Full time(mm:ss)=	3:18
#Project=	
#Sample=	
#Site=	
#Title=	Mb_30_27_26_2x_45s_532 nm_x100_100%_600 gr_mm
#Remark=	
#Date=	13.07.2022 10:39
#Acquired=	13.07.2022 10:39:07
#Base:Fit=	10.08.2022 10:40:03
#Base:Sub=	10.08.2022 10:40:17
#Filter:Polynom=	16.08.2022 10:16:15
#AxisType[0]=Intens
#AxisUnit[0]=Cnt
#AxisType[1]=Spectr
#AxisUnit[1]=1/cm
200.563	28.4286
202.377	27.4477
204.194	26.9987
206.008	25.17
207.821	23.2547
209.634	21.9029
211.449	21.0073
213.262	19.7439
215.074	19.0666
216.885	18.3545
218.699	16.8267
220.51	16.0537
222.321	15.053
224.131	14.6371
225.941	12.578
227.751	11.4177
229.562	10.9258
231.371	10.0947
233.18	9.81937
234.988	9.60946
236.796	8.43385
238.603	7.29763
240.411	6.6393
242.219	5.4781
244.026	5.4749
245.832	5.3851
247.638	5.13581
249.443	5.30937
251.248	5.35477
253.053	4.12768
254.857	3.61424
256.661	3.59962
258.465	2.46121
260.268	2.86377
262.071	3.59752
263.874	3.33162
265.678	3.74005
267.48	3.93091
269.282	4.69843
271.083	5.11271
272.884	5.52905
274.684	5.63444
276.484	6.18073
278.284	6.19752
280.084	5.9376
281.883	5.92848
283.682	6.08374
285.48	5.89675
287.276	5.16141
289.074	4.51702
290.871	3.94562
292.668	4.05811
294.465	3.95725
296.261	5.0675
298.057	5.27592
299.853	4.75918
301.648	5.15334
303.443	5.06431
305.237	6.21844
307.032	5.70279
308.823	6.069
310.617	6.51017
312.41	6.00563
314.203	5.33662
315.995	5.70444
317.788	6.36164
319.579	6.83089
321.369	6.02386
323.16	6.29685
324.951	6.04228
326.741	5.59672
328.531	6.56045
330.321	6.7362
332.108	6.82808
333.897	6.83268
335.686	6.51855
337.474	6.94422
339.26	6.62578
341.048	5.83483
342.835	5.07124
344.622	5.18014
346.406	4.85427
348.192	4.65976
349.978	5.17446
351.764	5.3173
353.547	5.05654
355.332	5.38969
357.116	4.6
358.901	4.94401
360.682	4.18327
362.466	4.70982
364.249	4.38732
366.03	4.81968
367.812	4.57654
369.594	2.93899
371.374	3.90805
373.155	3.52912
374.936	1.98792
376.715	1.76249
378.495	1.26982
380.273	0.614863
382.053	1.07299
383.832	0.937388
385.609	1.97645
387.388	2.43756
389.164	3.36509
390.942	4.49148
392.72	4.29399
394.495	4.91117
396.272	4.30813
398.047	4.35091
399.823	3.99355
401.597	4.05024
403.372	4.32851
405.145	5.76581
406.92	4.65471
408.693	6.16884
410.467	5.23893
412.239	6.09817
414.012	6.06443
415.783	7.009
417.556	6.76871
419.327	5.88436
421.099	5.66409
422.869	6.55667
424.64	7.04843
426.409	8.64046
428.18	8.96246
429.948	9.06608
431.718	9.16713
433.486	8.65497
435.253	8.19466
437.022	8.69505
438.789	8.6779
440.558	8.26562
442.324	7.92257
444.089	7.68623
445.857	7.17178
447.622	7.69441
449.386	7.05554
451.153	7.37289
452.917	7.55446
454.682	7.24481
456.446	7.59289
458.208	7.98721
459.973	8.40946
461.735	8.07203
463.497	8.11293
465.259	9.10601
467.022	9.21392
468.783	9.88411
470.544	11.4979
472.306	12.3169
474.066	12.6141
475.825	12.5428
477.585	12.1945
479.346	12.5562
481.104	12.611
482.862	13.6992
484.62	13.3493
486.38	13.7975
488.137	15.2287
489.894	16.2602
491.65	17.5477
493.407	18.4422
495.164	18.6762
496.92	19.9108
498.675	19.1022
500.43	20.043
502.184	20.3277
503.939	21.7815
505.694	22.1846
507.448	22.7899
509.201	23.6084
510.954	24.5759
512.706	24.3913
514.459	25.3234
516.21	23.6677
517.962	22.5879
519.715	22.5519
521.466	21.7866
523.216	21.6481
524.966	20.7857
526.716	20.0521
528.466	19.9519
530.215	19.0584
531.964	18.4982
533.712	18.628
535.46	18.9551
537.208	18.5255
538.955	18.9873
540.703	17.9797
542.449	18.0011
544.196	18.4916
545.942	17.6846
547.688	17.4987
549.433	17.5465
551.178	17.0649
552.923	17.1191
554.667	16.989
556.412	16.1747
558.155	15.3556
559.899	14.0911
561.642	13.2442
563.385	12.9483
565.127	12.202
566.867	11.9871
568.609	11.0211
570.35	11.3413
572.092	10.4022
573.832	10.7773
575.573	10.2193
577.313	10.0601
579.053	9.76755
580.79	8.71032
582.529	8.43102
584.268	7.57973
586.006	7.66342
587.745	6.19471
589.482	6.26353
591.218	6.16038
592.955	5.1433
594.692	4.41418
596.428	4.89429
598.164	4.63003
599.898	4.80318
601.634	4.67322
603.369	4.71603
605.104	5.28239
606.836	5.37004
608.57	5.65169
610.304	6.3333
612.037	6.26376
613.769	6.3459
615.501	5.94295
617.234	6.21986
618.966	6.76791
620.696	6.90128
622.427	6.49031
624.159	5.65477
625.887	6.47765
627.618	6.60906
629.348	8.45793
631.076	7.93846
632.806	8.63149
634.535	8.71231
636.262	8.28782
637.99	7.57749
639.716	7.71091
641.444	7.6747
643.172	7.0288
644.897	7.4559
646.624	7.47865
648.348	8.0492
650.075	8.19951
651.801	8.61269
653.524	9.35962
655.249	9.57083
656.972	10.2314
658.697	10.5576
660.419	10.4757
662.143	9.89817
663.865	10.4675
665.588	10.0291
667.309	10.1046
669.032	11.4447
670.752	11.2142
672.474	12.2673
674.194	11.5422
675.915	13.0459
677.634	14.2565
679.355	15.8443
681.073	17.8261
682.793	18.9215
684.511	19.2294
686.23	20.7706
687.947	21.861
689.664	22.882
691.382	24.2013
693.098	26.1481
694.816	27.9172
696.531	28.424
698.247	29.0162
699.963	30.2833
701.678	31.3865
703.392	32.8574
705.108	33.5198
706.821	34.0433
708.534	34.7246
710.249	35.5688
711.962	36.4165
713.674	36.1189
715.388	36.0165
717.099	36.2259
718.81	36.7998
720.523	36.5438
722.234	37.0579
723.944	37.2746
725.654	38.0886
727.365	37.7736
729.075	37.6348
730.784	39.0619
732.492	39.9474
734.202	39.4757
735.91	39.9831
737.618	40.2359
739.325	39.6198
741.034	40.2853
742.741	40.6506
744.447	40.9323
746.153	40.7078
747.859	41.9634
749.564	43.3737
751.271	45.6241
752.976	47.9107
754.681	50.1782
756.385	49.9974
758.088	52.3424
759.792	53.4767
761.495	55.5261
763.2	57.0963
764.902	58.4491
766.604	59.9969
768.306	61.7877
770.008	63.2088
771.709	64.7066
773.41	66.5719
775.11	67.9116
776.811	69.0342
778.51	70.5818
780.21	71.7446
781.909	72.9393
783.608	73.9085
785.307	75.6016
787.005	76.9768
788.703	78.3812
790.401	78.1627
792.098	77.9894
793.795	78.4511
795.492	79.0991
797.188	78.8029
798.884	79.2166
800.58	81.1401
802.276	82.1636
803.971	82.0606
805.665	82.4276
807.36	82.9811
809.054	82.3833
810.748	81.4785
812.441	81.8269
814.135	82.2414
815.826	83.282
817.518	82.1631
819.21	81.0446
820.902	81.5718
822.594	81.4828
824.285	81.2339
825.976	81.963
827.665	81.5532
829.355	82.0818
831.045	81.0694
832.735	82.2029
834.424	82.0273
836.111	82.0879
837.8	81.1678
839.488	80.9985
841.177	79.0359
842.864	77.9517
844.55	76.1425
846.237	75.2772
847.924	73.5612
849.61	72.6311
851.295	71.787
852.98	70.9477
854.666	68.6398
856.349	67.8952
858.034	67.0777
859.719	66.2167
861.403	65.162
863.085	65.0721
864.769	63.8819
866.452	62.3111
868.133	61.7153
869.816	61.5352
871.498	60.1365
873.179	59.0591
874.86	58.5515
876.54	58.3869
878.221	58.081
879.902	57.8406
881.58	57.5066
883.26	57.644
884.938	58.086
886.618	56.261
888.297	55.9489
889.974	55.834
891.653	55.1014
893.329	54.3655
895.007	54.5142
896.683	55.4828
898.36	54.9733
900.035	54.2481
901.712	53.5104
903.387	53.7337
905.063	54.4631
906.737	54.7072
908.412	54.5973
910.085	54.9477
911.76	55.6901
913.433	56.2442
915.107	56.3161
916.779	57.7663
918.452	56.927
920.124	56.3866
921.797	55.2321
923.467	54.5943
925.138	52.9714
926.81	52.4472
928.48	52.4607
930.151	52.8579
931.82	51.9772
933.489	51.569
935.16	51.9797
936.828	51.8561
938.496	51.7048
940.165	52.4669
941.833	51.9922
943.5	51.2483
945.168	49.4853
946.834	48.0361
948.5	46.5956
950.168	46.0025
951.834	46.4809
953.499	45.553
955.163	44.9343
956.83	44.2615
958.494	43.8738
960.158	42.2694
961.821	41.4002
963.487	40.8579
965.15	40.4388
966.812	40.0845
968.474	40.8023
970.138	40.6449
971.8	41.1048
973.461	42.2156
975.123	41.9156
976.783	42.2952
978.446	41.9715
980.106	41.5533
981.766	40.5661
983.425	39.9654
985.084	39.5179
986.743	39.3208
988.402	39.4161
990.06	38.3963
991.72	38.3098
993.378	38.0384
995.035	38.0524
996.692	36.6053
998.349	35.0842
1000.01	33.4132
1001.66	31.7235
1003.32	30.6449
1004.97	30.2846
1006.63	30.9563
1008.28	30.5063
1009.94	30.5905
1011.59	31.557
1013.25	33.8222
1014.9	34.776
1016.55	36.1125
1018.21	37.7619
1019.86	37.7602
1021.51	39.5305
1023.16	40.627
1024.81	41.241
1026.47	41.8754
1028.12	42.1448
1029.77	43.1008
1031.42	43.5058
1033.07	44.8906
1034.72	45.2063
1036.37	44.6364
1038.02	44.8329
1039.67	44.7673
1041.31	45.694
1042.96	46.1971
1044.61	46.9205
1046.26	47.5537
1047.91	48.9826
1049.55	49.5062
1051.2	49.4874
1052.84	48.3648
1054.49	47.4368
1056.14	46.4165
1057.78	44.1786
1059.43	43.1584
1061.07	42.1816
1062.72	40.8617
1064.36	39.2473
1066	37.6321
1067.65	35.4813
1069.29	34.6838
1070.93	34.265
1072.58	32.8554
1074.22	31.4058
1075.86	28.8523
1077.5	26.5538
1079.14	24.2473
1080.78	22.9538
1082.42	21.9841
1084.06	21.6288
1085.7	21.1735
1087.34	21.1377
1088.98	21.3057
1090.62	20.7613
1092.26	21.5842
1093.9	22.6393
1095.54	24.0231
1097.17	24.418
1098.81	25.1109
1100.45	25.3423
1102.09	26.165
1103.72	27.8323
1105.36	27.8873
1106.99	27.4709
1108.63	27.1482
1110.27	25.3752
1111.9	24.9304
1113.53	23.2805
1115.17	23.4264
1116.8	23.1279
1118.43	22.6069
1120.07	22.5586
1121.7	22.2212
1123.33	22.0635
1124.97	20.9332
1126.6	19.9958
1128.23	19.4866
1129.86	18.8701
1131.49	17.242
1133.12	16.2462
1134.75	15.6364
1136.38	15.2725
1138.01	15.0753
1139.64	14.4536
1141.27	14.3092
1142.9	12.9211
1144.53	12.0778
1146.16	11.394
1147.78	11.1343
1149.41	10.2063
1151.04	10.3428
1152.67	9.77155
1154.29	7.27686
1155.92	5.6734
1157.54	3.98852
1159.17	4.24969
1160.8	3.56395
1162.42	2.53444
1164.05	2.63978
1165.67	2.14237
1167.29	1.16537
1168.92	1.29569
1170.54	1.98831
1172.16	1.79128
1173.79	2.47774
1175.41	3.21514
1177.03	3.48696
1178.65	3.04165
1180.28	2.14369
1181.9	1.21783
1183.52	1.19391
1185.14	0.719679
1186.76	0.720554
1188.38	1.55978
1190	1.98713
1191.62	1.67891
1193.24	2.26036
1194.86	3.13343
1196.47	4.53281
1198.09	5.85563
1199.71	5.99393
1201.33	6.55357
1202.95	6.65879
1204.56	8.10386
1206.18	9.53237
1207.8	11.1133
1209.41	12.5022
1211.03	14.0517
1212.64	15.6006
1214.26	17.9006
1215.87	19.4561
1217.49	21.3913
1219.1	23.2293
1220.71	24.3439
1222.33	26.6245
1223.94	28.5962
1225.55	31.2419
1227.16	32.4002
1228.78	33.9987
1230.39	35.1108
1232	37.3711
1233.61	37.9702
1235.22	39.4389
1236.83	40.6066
1238.44	41.7643
1240.05	44.2708
1241.66	44.6521
1243.27	45.4239
1244.88	47.2334
1246.49	48.3635
1248.1	49.1793
1249.71	50.9582
1251.32	51.7872
1252.92	52.4954
1254.53	53.6314
1256.14	54.3642
1257.74	54.7134
1259.35	56.2006
1260.96	57.6864
1262.56	59.3436
1264.17	60.3196
1265.77	61.6526
1267.38	63.7998
1268.98	66.6716
1270.59	67.189
1272.19	67.8412
1273.79	69.0708
1275.4	70.4706
1277	70.8694
1278.6	70.7342
1280.21	70.9432
1281.81	72.2402
1283.41	72.94
1285.01	74.2642
1286.61	74.7021
1288.21	75.1454
1289.81	75.9762
1291.41	75.7158
1293.01	76.5787
1294.61	76.7575
1296.21	78.1273
1297.81	78.9907
1299.41	79.2665
1301.01	79.5701
1302.6	79.772
1304.2	79.4992
1305.8	79.0506
1307.4	78.599
1308.99	79.3133
1310.59	79.9713
1312.19	79.9529
1313.78	79.3768
1315.38	79.1912
1316.97	78.8278
1318.57	78.9822
1320.16	79.732
1321.76	78.4809
1323.35	77.8677
1324.94	78.1612
1326.54	76.9124
1328.13	75.6043
1329.72	75.5186
1331.32	74.4786
1332.91	74.6924
1334.5	72.9463
1336.09	72.1012
1337.68	70.8525
1339.27	70.1543
1340.87	69.205
1342.45	67.9284
1344.04	67.0794
1345.64	67.5143
1347.22	66.9347
1348.81	65.9222
1350.4	63.165
1351.99	61.2465
1353.58	59.966
1355.17	58.1301
1356.75	56.0393
1358.34	53.8586
1359.93	52.9994
1361.51	51.7906
1363.1	50.1203
1364.69	48.7781
1366.27	47.1
1367.86	46.0049
1369.44	43.5146
1371.03	41.7567
1372.61	40.7528
1374.2	39.3799
1375.78	39.7909
1377.37	38.3026
1378.95	36.7348
1380.53	35.4356
1382.11	34.291
1383.7	33.0713
1385.28	32.5854
1386.86	31.7463
1388.44	31.3111
1390.02	30.8543
1391.6	29.7462
1393.19	29.9041
1394.77	28.3815
1396.35	28.1955
1397.93	27.3607
1399.51	27.0444
1401.08	25.5549
1402.66	25.2767
1404.24	25.3145
1405.82	25.413
1407.4	26.3729
1408.97	26.6131
1410.55	27.2541
1412.13	28.077
1413.71	28.2203
1415.28	31.3737
1416.86	33.2455
1418.43	36.0341
1420.01	39.3934
1421.59	41.8942
1423.16	44.8556
1424.73	47.9318
1426.31	49.5224
1427.88	52.4104
1429.46	54.6353
1431.03	57.6489
1432.6	59.7273
1434.18	62.4188
1435.75	64.391
1437.32	66.7827
1438.89	70.076
1440.46	71.9928
1442.04	72.6047
1443.61	72.6307
1445.18	73.7339
1446.75	74.7833
1448.32	74.219
1449.89	76.1439
1451.46	75.8175
1453.03	76.5914
1454.6	75.9807
1456.16	75.1278
1457.73	72.6915
1459.3	72.1206
1460.87	71.3564
1462.44	69.6864
1464	68.982
1465.57	66.9703
1467.14	64.982
1468.7	63.3441
1470.27	60.4152
1471.83	58.0568
1473.4	54.9853
1474.96	52.9653
1476.53	49.7152
1478.09	47.394
1479.66	45.1585
1481.22	43.3501
1482.78	41.7769
1484.35	39.6688
1485.91	36.926
1487.47	34.4733
1489.04	33.182
1490.6	31.369
1492.16	30.7625
1493.72	30.0429
1495.28	29.0066
1496.84	27.6098
1498.4	26.9598
1499.96	24.9927
1501.52	23.6416
1503.08	22.7312
1504.64	21.2726
1506.2	20.4433
1507.76	19.061
1509.32	18.2032
1510.88	16.8673
1512.44	16.6921
1513.99	15.4111
1515.55	14.9421
1517.11	14.6151
1518.66	12.8877
1520.22	11.7087
1521.78	11.9512
1523.33	12.5348
1524.89	12.2657
1526.44	11.8249
1528	12.8805
1529.55	12.0218
1531.11	12.7558
1532.66	12.395
1534.21	13.1832
1535.77	13.4664
1537.32	14.7859
1538.87	15.0379
1540.43	15.2042
1541.98	16.2388
1543.53	16.2405
1545.08	16.2675
1546.63	17.6734
1548.18	18.1005
1549.74	18.5631
1551.29	19.5325
1552.84	19.4645
1554.39	20.486
1555.94	21.5895
1557.48	21.7996
1559.03	22.5044
1560.58	23.2439
1562.13	24.0475
1563.68	24.8163
1565.23	26.2133
1566.78	26.6958
1568.32	27.6562
1569.87	29.039
1571.42	29.7974
1572.96	31.9285
1574.51	32.9487
1576.05	34.8067
1577.6	36.4933
1579.14	37.6689
1580.69	39.0076
1582.24	39.8391
1583.78	40.991
1585.32	41.5574
1586.87	42.2046
1588.41	42.8579
1589.95	43.9375
1591.5	45.2108
1593.04	47.0238
1594.58	47.6829
1596.12	48.0726
1597.67	48.5524
1599.21	49.3762
1600.75	49.3329
1602.29	50.1353
1603.83	50.6289
1605.37	51.4044
1606.91	51.5058
1608.45	51.9212
1609.99	51.6792
1611.53	52.5488
1613.07	51.9351
1614.6	50.9364
1616.14	51.7239
1617.68	53.9602
1619.22	54.5462
1620.75	54.6215
1622.29	55.212
1623.83	57.0264
1625.37	58.4341
1626.9	59.6493
1628.44	61.6621
1629.97	61.9422
1631.51	63.4605
1633.04	64.4345
1634.58	66.0185
1636.11	68.5103
1637.65	70.7823
1639.18	72.7209
1640.72	73.7989
1642.25	76.4133
1643.78	78.4567
1645.31	80.7813
1646.85	82.6165
1648.38	84.3041
1649.91	86.7968
1651.44	88.2607
1652.97	88.9327
1654.5	89.9649
1656.03	90.0305
1657.56	90.4003
1659.1	91.0984
1660.62	91.7408
1662.15	91.3533
1663.68	91.8343
1665.21	92.1644
1666.74	92.0478
1668.27	91.308
1669.8	89.5636
1671.32	86.7728
1672.85	85.2063
1674.38	82.2442
1675.91	79.8652
1677.43	77.1863
1678.96	75.2117
1680.49	71.8718
1682.01	68.7907
1683.54	65.3634
1685.06	61.7128
1686.59	57.638
1688.11	55.3165
1689.64	51.4495
1691.16	49.1634
1692.68	47.2731
1694.21	44.4854
1695.73	40.4977
1697.25	37.7802
1698.78	35.7152
1700.3	33.9779
1701.82	31.5175
1703.34	27.5809
1704.86	24.6871
1706.39	21.4857
1707.91	19.5058
1709.43	17.2942
1710.95	15.8962
1712.47	14.4197
1713.99	12.8463
1715.51	11.9699
1717.02	11.2927
1718.54	11.032
1720.06	9.66817
1721.58	8.24498
1723.1	8.04349
1724.62	7.89749
1726.13	7.37911
1727.65	6.84234
1729.17	6.82482
1730.68	7.69879
1732.2	7.66452
1733.72	7.92461
1735.23	8.81338
1736.75	8.82766
1738.26	8.31176
1739.78	8.16382
1741.29	8.47347
1742.81	8.36302
1744.32	8.27538
1745.84	8.3547
1747.35	8.53622
1748.86	8.77485
1750.37	8.51446
1751.89	8.86983
1753.4	8.72083
1754.91	8.58201
1756.42	8.25162
1757.93	8.1846
1759.45	7.76144
1760.96	7.67711
1762.47	7.56721
1763.98	8.11658
1765.49	7.58918
1767	7.6666
1768.51	7.22625
1770.02	7.07938
1771.53	6.64547
1773.03	6.12293
1774.54	5.72062
1776.05	5.34959
1777.56	4.831
1779.07	4.28132
1780.57	4.88852
1782.08	4.5889
1783.59	4.94274
1785.09	5.5649
1786.6	6.1226
1788.11	6.18977
1789.61	6.64778
1791.12	6.89552
1792.62	6.42351
1794.13	6.007
1795.63	5.57119
1797.13	5.10561
1798.64	5.31957
1800.14	4.66422
1801.65	4.57425
1803.15	5.18566
1804.65	5.4204
1806.15	5.16707
1807.66	4.88719
1809.16	5.05024
1810.66	5.01404
1812.16	4.50639
1813.66	4.55673
1815.16	5.02475
1816.66	5.51783
1818.16	5.85185
1819.66	5.4332
1821.16	5.52086
1822.66	5.22069
1824.16	4.91143
1825.66	4.70995
1827.16	4.51116
1828.66	4.49552
1830.16	4.24278
1831.65	3.94776
1833.15	3.62783
1834.65	2.98583
1836.14	2.81242
1837.64	2.41647
1839.14	2.25758
1840.63	1.85376
1842.13	1.37223
1843.62	1.23387
1845.12	1.25917
1846.61	1.13631
1848.11	0.994344
1849.6	0.808435
1851.1	1.1528
1852.59	1.19485
1854.08	1.21469
1855.58	1.1818
1857.07	1.52211
1858.56	2.1002
1860.05	2.17702
1861.55	1.92773
1863.04	2.05396
1864.53	2.30977
1866.02	1.95954
1867.51	2.18642
1869	2.80424
1870.49	2.70789
1871.98	2.95019
1873.47	3.52386
1874.96	3.55517
1876.45	4.65868
1877.94	4.85117
1879.43	4.7535
1880.92	4.67374
1882.41	5.51161
1882.51	5.46144
1884	5.81222
1885.5	6.44093
1886.99	6.75821
1888.48	7.04658
1889.98	7.13706
1891.47	7.6355
1892.96	7.91772
1894.46	8.4781
1895.95	8.11039
1897.44	7.66632
1898.93	8.12094
1900.42	8.66044
1901.91	8.20234
1903.41	7.54485
1904.9	7.69332
1906.39	7.36372
1907.88	7.46386
1909.37	7.82301
1910.86	7.89331
1912.35	8.34248
1913.83	8.42568
1915.32	8.7425
1916.81	8.64278
1918.3	8.34576
1919.79	7.94211
1921.27	7.77583
1922.76	7.59815
1924.25	7.59291
1925.74	7.42603
1927.22	7.01406
1928.71	6.35626
1930.19	6.28159
1931.68	5.89508
1933.17	5.4576
1934.65	4.47286
1936.14	4.5494
1937.62	4.30604
1939.11	3.63092
1940.59	3.64749
1942.07	3.67765
1943.56	2.91121
1945.04	2.6793
1946.52	2.85796
1948.01	2.4818
1949.49	2.84229
1950.97	1.86656
1952.45	1.51197
1953.93	1.90566
1955.42	2.04522
1956.9	1.54564
1958.38	2.05896
1959.86	2.17058
1961.34	1.87071
1962.82	2.05262
1964.3	2.3337
1965.78	2.31112
1967.26	2.45376
1968.74	2.8746
1970.21	2.65149
1971.69	3.67463
1973.17	4.6319
1974.65	5.12861
1976.13	5.26269
1977.6	6.61937
1979.08	7.60065
1980.56	7.94577
1982.03	8.92507
1983.51	9.10048
1984.99	9.48856
1986.46	10.1757
1987.94	10.2199
1989.41	9.99188
1990.89	9.96365
1992.36	10.1494
1993.84	9.9144
1995.31	9.84195
1996.78	9.32439
1998.26	9.12024
1999.73	8.80931
2001.2	8.96365
2002.68	8.7713
2004.15	9.42773
2005.62	9.27661
2007.09	9.06676
2008.56	9.0288
2010.04	9.46597
2011.51	9.27749
2012.98	9.65052
2014.45	10.1804
2015.92	10.3829
2017.39	10.0678
2018.86	10.2138
2020.33	10.7821
2021.8	10.3616
2023.26	10.5789
2024.73	10.492
2026.2	10.6829
2027.67	10.8856
2029.14	10.6571
2030.61	11.6298
2032.07	11.8919
2033.54	12.1925
2035.01	12.1271
2036.47	12.1347
2037.94	12.221
2039.4	12.2411
2040.87	13.6079
2042.33	14.0577
2043.8	13.6312
2045.27	13.9637
2046.73	14.0901
2048.19	14.6483
2049.66	14.5791
2051.12	15.2487
2052.59	15.4287
2054.05	15.2646
2055.51	15.9174
2056.97	15.8408
2058.44	16.5221
2059.9	16.4628
2061.36	16.094
2062.82	16.0434
2064.28	16.6142
2065.74	16.4749
2067.21	16.4483
2068.67	16.5379
2070.13	16.4088
2071.59	17.0291
2073.05	17.0247
2074.51	17.5056
2075.96	17.1981
2077.42	17.583
2078.88	17.228
2080.34	17.7955
2081.8	18.1207
2083.26	18.811
2084.72	20.3261
2086.17	21.3951
2087.63	22.1476
2089.09	22.464
2090.54	22.7578
2092	23.3219
2093.45	24.3248
2094.91	24.9177
2096.37	26.2567
2097.82	27.1873
2099.28	27.9272
2100.73	29.0555
2102.19	30.3282
2103.64	31.3816
2105.09	32.3459
2106.55	33.4658
2108	34.0436
2109.45	35.2272
2110.91	36.2183
2112.36	37.8087
2113.81	39.3414
2115.26	39.8611
2116.72	40.899
2118.17	42.101
2119.62	43.8108
2121.07	45.0598
2122.52	47.1377
2123.97	49.7709
2125.42	51.1395
2126.87	52.7318
2128.32	55.3186
2129.77	56.9402
2131.22	58.7139
2132.67	59.9095
2134.11	61.9977
2135.56	63.4573
2137.01	64.8466
2138.46	66.0708
2139.91	67.8096
2141.35	69.4871
2142.8	71.6526
2144.25	74.2007
2145.7	75.0112
2147.14	76.3569
2148.59	77.9781
2150.03	80.1351
2151.48	82.0406
2152.92	84.0515
2154.37	85.5842
2155.81	87.5929
2157.26	89.331
2158.7	90.6101
2160.15	91.661
2161.59	92.5991
2163.03	93.3585
2164.47	94.6463
2165.92	96.2664
2167.36	96.7816
2168.8	97.7489
2170.24	97.2392
2171.69	98.0474
2173.13	98.3212
2174.57	98.06
2176.01	97.7305
2177.45	97.1614
2178.89	96.3232
2180.33	95.8667
2181.77	95.6328
2183.21	95.2394
2184.65	94.7516
2186.09	93.3743
2187.53	91.813
2188.97	90.8374
2190.4	89.1394
2191.84	87.922
2193.28	86.338
2194.72	85.159
2196.16	83.6192
2197.59	81.8536
2199.03	80.4228
2200.47	78.8702
2201.9	76.5805
2203.34	74.4617
2204.77	71.9367
2206.21	69.9501
2207.64	67.9162
2209.08	66.0798
2210.51	64.7768
2211.95	63.3943
2213.38	61.4661
2214.82	59.618
2216.25	58.2857
2217.68	55.9908
2219.12	54.0883
2220.55	53.0363
2221.98	51.1901
2223.41	49.1757
2224.85	48.0511
2226.28	46.6463
2227.71	45.7147
2229.14	44.7952
2230.57	42.9632
2232	41.2303
2233.43	40.3848
2234.86	38.7652
2236.29	38.0537
2237.72	37.0092
2239.15	34.8935
2240.58	33.9928
2242.01	32.4816
2243.44	31.9594
2244.87	30.6529
2246.29	29.8309
2247.72	28.984
2249.15	28.2482
2250.58	28.1821
2252.01	27.9395
2253.43	27.4568
2254.86	26.0296
2256.29	24.8478
2257.71	24.116
2259.14	23.4849
2260.56	22.8832
2261.99	21.7381
2263.41	21.299
2264.84	21.1883
2266.26	20.8079
2267.69	20.726
2269.11	19.6842
2270.53	18.6925
2271.96	18.2675
2273.38	17.5044
2274.8	16.5033
2276.23	15.2756
2277.65	15.4238
2279.07	14.9729
2280.49	14.7548
2281.91	14.9884
2283.34	14.4934
2284.76	13.9016
2286.18	13.9276
2287.6	13.9468
2289.02	12.8687
2290.44	11.8469
2291.86	11.0312
2293.28	10.2037
2294.7	10.1464
2296.12	10.8729
2297.54	10.8798
2298.96	11.1731
2300.37	11.4906
2301.79	11.188
2303.21	11.5223
2304.63	12.042
2306.04	11.976
2307.46	11.9343
2308.88	12.0806
2310.3	12.1415
2311.71	12.6112
2313.13	12.6909
2314.54	12.5384
2315.96	12.5552
2317.37	12.2691
2318.79	12.2308
2320.2	12.2631
2321.62	12.2172
2323.03	12.4433
2324.45	12.0795
2325.86	12.1316
2327.27	12.5595
2328.69	12.6409
2330.1	12.0021
2331.51	11.8045
2332.92	11.3871
2334.34	11.273
2335.75	10.7957
2337.16	9.95721
2338.57	9.73837
2339.98	8.82023
2341.39	8.65406
2342.8	7.97228
2344.21	6.9187
2345.63	6.00063
2347.04	5.82849
2348.45	5.87451
2349.85	5.06788
2351.26	4.69257
2352.67	3.68395
2354.08	2.97652
2355.49	2.68795
2356.9	2.82548
2358.3	2.07032
2359.71	1.53779
2361.12	1.37972
2362.53	1.38238
2363.93	2.66875
2365.34	3.24429
2366.75	4.23964
2368.15	3.65651
2369.56	3.72867
2370.97	3.63354
2372.37	3.17266
2373.77	3.42201
2375.18	3.82207
2376.59	3.85004
2377.99	3.47268
2379.39	3.66087
2380.8	3.3269
2382.2	3.13464
2383.6	3.01547
2385.01	2.33447
2386.41	2.18295
2387.81	2.33753
2389.21	2.89749
2390.62	3.13223
2392.02	3.70196
2393.42	3.46297
2394.82	3.23307
2396.22	3.56311
2397.62	3.29159
2399.02	3.39586
2400.42	3.01543
2401.82	3.1074
2403.22	3.17389
2404.62	3.47864
2406.02	2.95168
2407.42	3.02078
2408.82	3.08476
2410.22	2.40819
2411.62	2.34724
2413.01	1.98425
2414.41	2.64821
2415.81	2.73084
2417.21	3.68285
2418.6	3.41252
2420	3.8645
2421.4	4.25197
2422.79	4.95267
2424.19	5.3365
2425.59	5.09703
2426.98	5.08632
2428.38	5.18327
2429.77	5.36277
2431.17	5.61411
2432.56	5.5957
2433.95	5.75484
2435.35	5.74843
2436.74	5.84854
2438.14	5.09579
2439.53	5.69618
2440.92	5.58731
2442.31	5.20233
2443.71	5.18424
2445.1	5.54926
2446.49	5.29308
2447.88	5.61753
2449.27	5.4932
2450.67	5.75593
2452.06	5.64695
2453.45	5.67958
2454.84	5.89883
2456.23	6.49531
2457.62	7.07304
2459.01	6.95054
2460.4	6.74734
2461.79	6.60216
2463.18	6.14445
2464.57	7.04308
2465.95	7.32779
2467.34	7.25024
2468.73	7.09854
2470.12	6.49799
2471.5	6.67802
2472.89	6.25968
2474.28	5.73239
2475.67	5.05619
2477.05	5.31173
2478.44	6.09599
2479.82	5.76875
2481.21	5.73201
2482.6	5.39282
2483.98	5.49022
2485.37	4.79655
2486.75	4.79675
2488.13	4.1124
2489.52	4.30248
2490.9	3.53618
2492.29	2.70049
2493.67	1.60812
2495.05	0.921448
2496.44	0.916761
2497.82	1.0496
2499.2	0.258044
2500.58	0.268568
2501.97	-0.104943
2503.35	-0.58404
2504.73	-0.825084
2506.11	-1.56281
2507.49	-2.01434
2508.87	-2.64531
2510.25	-2.84845
2511.63	-3.02454
2513.01	-2.70568
2514.39	-2.09733
2515.77	-2.61412
2517.15	-2.21343
2518.53	-2.68626
2519.91	-2.17837
2521.29	-2.22364
2522.67	-1.16792
2524.05	-1.01251
2525.42	-0.716732
2526.8	0.110183
2528.18	0.218065
2529.55	0.920548
2530.93	1.78882
2532.31	1.96822
2533.69	2.41702
2535.06	2.55397
2536.44	3.0296
2537.81	3.00191
2539.19	3.4852
2540.56	3.79265
2541.94	3.57715
2543.31	4.13888
2544.69	4.47807
2546.06	4.94116
2547.44	5.04904
2548.81	4.52833
2550.18	4.68264
2551.56	5.39992
2552.93	6.13457
2554.3	6.22422
2555.67	6.50615
2557.04	6.95592
2558.42	7.37718
2559.79	7.03278
2561.16	6.5177
2562.53	6.95754
2563.9	6.66663
2565.27	7.08858
2566.64	6.85279
2568.01	6.13401
2569.38	6.40012
2570.75	5.81441
2572.12	5.54031
2573.49	5.3254
2574.86	4.81889
2576.23	4.29008
2577.6	3.66267
2578.97	3.68925
2580.33	2.93125
2581.7	3.17459
2583.07	2.85325
2584.44	2.97261
2585.8	3.46441
2587.17	3.89151
2588.54	4.32297
2589.9	4.71481
2591.27	5.44024
2592.64	5.16565
2594	5.6358
2595.37	5.87049
2596.73	5.37847
2598.1	5.59688
2599.46	5.42685
2600.83	4.76279
2602.19	4.71439
2603.55	4.70527
2604.92	4.8477
2606.28	4.61946
2607.64	4.28809
2609.01	3.98223
2610.37	4.15061
2611.73	4.29986
2613.09	4.42978
2614.46	4.84002
2615.82	4.8528
2617.18	4.90898
2618.54	5.46839
2619.9	5.75408
2621.26	5.63962
2622.62	5.79866
2623.98	5.39855
2625.34	5.44916
2626.7	5.12435
2628.06	4.85529
2629.42	4.94282
2630.78	5.03318
2632.14	4.41105
2633.5	4.50846
2634.86	3.81891
2636.21	3.61095
2637.57	3.64987
2638.93	3.35852
2640.29	3.52836
2641.64	3.23182
2643	3.51156
2644.36	3.46001
2645.71	4.12224
2647.07	4.58581
2648.43	4.99607
2649.78	5.71576
2651.14	5.45397
2652.49	6.08607
2653.85	5.91956
2655.2	6.20894
2656.56	6.11299
2657.91	6.42607
2659.26	6.31359
2660.62	6.00235
2661.97	6.03542
2663.32	5.75803
2664.68	5.39435
2666.03	5.34574
2667.38	5.14022
2668.74	5.38054
2670.09	5.00708
2671.44	5.38381
2672.79	5.7911
2674.14	5.50576
2675.49	5.24415
2676.84	5.93019
2678.19	5.92571
2679.54	6.25784
2680.89	6.4771
2682.24	6.25753
2683.59	6.05239
2684.94	6.41469
2686.29	6.42479
2687.64	6.09758
2688.99	6.15634
2690.34	6.02628
2691.69	5.93715
2693.03	6.23094
2694.38	5.93364
2695.73	6.3378
2697.08	6.01455
2698.42	5.53548
2699.77	5.32968
2701.12	5.45674
2702.46	5.62724
2703.81	6.17719
2705.15	6.67378
2706.5	6.83301
2707.85	6.66486
2709.19	6.82792
2710.54	7.57573
2711.88	7.31217
2713.22	7.5719
2714.57	6.96482
2715.91	7.14032
2717.26	7.18739
2718.6	7.10665
2719.94	7.24134
2721.29	7.05341
2722.63	7.77329
2723.97	7.3942
2725.31	7.05775
2726.66	7.01953
2728	6.93669
2729.34	7.11478
2730.68	7.11718
2732.02	7.22708
2733.36	7.23292
2734.7	7.28318
2736.04	7.11059
2737.38	6.62408
2738.72	6.75835
2740.06	6.59562
2741.4	6.61245
2742.74	6.54354
2744.08	6.58707
2745.42	6.29005
2746.76	6.53007
2748.09	6.20455
2749.43	5.93903
2750.77	5.87024
2752.11	5.67548
2753.45	5.36277
2754.78	5.78577
2756.12	5.71589
2757.46	5.50303
2758.79	5.3609
2760.13	4.8008
2761.46	5.07334
2762.8	5.07608
2764.14	4.66738
2765.47	4.69768
2766.8	5.08773
2768.14	5.32574
2769.47	5.28688
2770.81	5.10983
2772.14	4.66156
2773.48	4.20682
2774.81	3.8482
2776.14	3.83609
2777.48	3.53964
2778.81	2.74358
2780.14	2.63709
2781.47	2.29213
2782.8	2.21147
2784.14	1.9885
2785.47	1.59124
2786.8	1.38242
2788.13	1.35172
2789.46	1.27959
2790.79	0.42396
2792.12	0.756326
2793.45	1.27469
2794.78	0.571287
2796.11	0.712122
2797.44	0.135412
2798.77	0.20988
2800.1	0.280474
2801.43	-0.175519
2802.76	-0.322073
2804.09	-0.451454
2805.41	-0.673951
2806.74	-0.584516
2808.07	-0.615987
2809.4	-0.758856
2810.72	-0.761825
2812.05	-0.560867
2813.38	-0.105958
2814.71	0.358267
2816.03	1.14417
2817.36	1.98479
2818.68	2.83588
2820.01	3.90573
2821.33	5.72778
2822.66	6.84541
2823.98	8.20393
2825.31	9.60239
2826.63	11.0515
2827.96	12.8713
2829.28	14.4025
2830.6	16.7069
2831.93	19.1663
2833.25	21.087
2834.57	23.1457
2835.9	25.2377
2837.22	27.6367
2838.54	30.2825
2839.86	32.9424
2841.18	36.1215
2842.5	39.6774
2843.83	43.0285
2845.15	47.0612
2846.47	51.1577
2847.79	55.274
2849.11	59.8204
2850.43	64.7874
2851.75	68.6368
2853.07	73.3095
2854.39	77.4117
2855.71	82.1307
2857.03	86.4634
2858.35	91.0408
2859.66	95.5763
2860.98	99.9348
2862.3	104.243
2863.62	107.819
2864.94	111.49
2866.25	114.738
2867.57	117.82
2868.89	121.398
2870.2	124.271
2871.52	126.927
2872.84	130.105
2874.15	132.83
2875.47	135.611
2876.78	138.016
2878.1	141.49
2879.41	144.199
2880.73	147.068
2882.04	149.841
2883.36	152.341
2884.67	154.107
2885.99	156.131
2887.3	158.349
2888.61	159.711
2889.93	162.246
2891.24	164.857
2892.55	167.148
2893.86	170.087
2895.18	172.208
2896.49	175.695
2897.8	178.37
2899.11	181.33
2900.42	185.231
2901.73	189.169
2903.05	193.485
2904.36	197.774
2905.67	201.936
2906.98	207.064
2908.29	211.835
2909.6	217.304
2910.91	223.279
2912.21	228.296
2913.52	233.481
2914.83	238.862
2916.14	243.716
2917.45	247.933
2918.76	252.69
2920.07	257.563
2921.37	262.154
2922.68	265.232
2923.99	268.911
2925.29	272.079
2926.6	274.599
2927.91	276.409
2929.22	278.145
2930.52	279.723
2931.83	281.007
2933.13	281.147
2934.44	281.067
2935.74	280.199
2937.05	279.615
2938.35	278.429
2939.66	276.23
2940.96	274.381
2942.26	271.851
2943.57	269.485
2944.87	265.355
2946.18	261.907
2947.48	257.664
2948.78	252.828
2950.08	247.597
2951.39	242.712
2952.69	237.444
2953.99	231.996
2955.29	226.969
2956.59	220.731
2957.9	214.931
2959.2	209.092
2960.5	203.313
2961.8	198.112
2963.1	192.088
2964.4	186.455
2965.7	181.005
2967	175.367
2968.3	169.399
2969.6	164.276
2970.9	159.317
2972.19	154.842
2973.49	149.49
2974.79	144.523
2976.09	138.881
2977.39	133.256
2978.68	127.92
2979.98	122.72
2981.28	117.25
2982.58	112.178
2983.87	107.413
2985.17	102.865
2986.47	97.4799
2987.76	92.8832
2989.06	88.1136
2990.35	83.2689
2991.65	78.9707
2992.94	74.1438
2994.24	69.717
2995.53	65.4948
2996.83	61.0436
2998.12	57.3715
2999.42	53.7189
3000.71	50.1006
3002	47.1062
3003.3	43.252
3004.59	40.2694
3005.88	37.3318
3007.18	34.8159
3008.47	32.5583
3009.76	29.8863
3011.05	27.7939
3012.34	25.9204
3013.64	24.2573
3014.93	22.1523
3016.22	19.8577
3017.51	18.3845
3018.8	16.6428
3020.09	15.2621
3021.38	13.7782
3022.67	12.6714
3023.96	11.6621
3025.25	11.3238
3026.54	10.5039
3027.83	10.0559
3029.12	9.54761
3030.41	9.33333
3031.69	9.09829
3032.98	8.7723
3034.27	8.86816
3035.56	8.50654
3036.84	7.95749
3038.13	7.61999
3039.42	7.76124
3040.71	7.9262
3041.99	8.40389
3043.28	8.73353
3044.57	9.3153
3045.85	9.4353
3047.14	9.88325
3048.42	10.5274
3049.71	10.4766
3050.99	10.575
3052.28	10.4757
3053.56	9.94585
3054.85	10.272
3056.13	10.3231
3057.41	10.3262
3058.7	10.1842
3059.98	9.93267
3061.26	10.1991
3062.55	10.4574
3063.83	9.77884
3065.11	9.88323
3066.39	9.51491
3067.68	9.27775
3068.96	9.36283
3070.24	9.16369
3071.52	8.80205
3072.8	8.42691
3074.08	7.79712
3075.36	7.46456
3076.65	7.139
3077.93	6.28219
3079.21	4.69601
3080.49	4.14683
3081.77	3.77882
3083.04	2.82283
3084.32	2.33032
3085.6	1.67111
3086.88	1.29044
3088.16	1.34928
3089.44	0.667764
3090.72	-0.0272196
3091.99	-0.582556
3093.27	-0.628272
3094.55	-0.995232
3095.83	-1.50326
3097.1	-1.85223
3098.38	-2.29293
3099.66	-2.00354
3100.93	-1.85666
3102.21	-1.10668
3103.49	-0.987189
3104.76	-0.367901
3106.04	-0.100397
3107.31	-0.184939
3108.59	0.243413
3109.86	0.495811
3111.14	1.47332
3112.41	1.96011
3113.69	2.11844
3114.96	2.34674
3116.23	2.49604
3117.51	2.95147
3118.78	3.47729
3120.05	3.86226
3121.33	4.36575
3122.6	4.68033
3123.87	5.67355
3125.14	6.60498
3126.41	6.92761
3127.69	7.23416
3128.96	8.07657
3130.23	8.47921
3131.5	9.15695
3132.77	9.48777
3134.04	10.1118
3135.31	10.5905
3136.58	11.8325
3137.85	12.388
3139.12	13.0058
3140.39	13.6669
3141.66	14.2584
3142.93	14.729
3144.2	15.2254
3145.47	15.5754
3146.74	16.0171
3148	16.9116
3149.27	17.4499
