#Acq. time (s)=	45
#Accumulations=	2
#Range (cm-¹)=	200...3150
#Windows=	2
#Auto scanning=	Off
#Autofocus=	Off
#Macrospot=	Off
#AutoExposure=	Off
#Spike filter=	Multiple accum.
#Delay time (s)=	0
#Binning=	1
#Readout mode=	Signal
#DeNoise=	Off
#ICS correction=	On
#Dark correction=	Off
#Inst. Process=	Off
#Detector Gain=	Best Dynamic Range
#Detector ADC=	20 kHz       
#Detector temperature (°C)=	-69.85
#Instrument=	LabRAM HR Evol
#Detector=	Synapse
#Objective=	x100
#Grating=	600 gr/mm
#ND Filter=	100%
#Laser (nm)=	532 
#Hole=	100.021
#Range=	Auto
#Laser Pol.=	No
#Raman. Pol.=	No
#Laser Pol. (°)=	-0.0007625
#Raman Pol. (°)=	89.9995
#Collection=	Microscope
#StageXY=	Marzhauser
#StageZ=	Marzhauser
#X (µm)=	-6362.2
#Y (µm)=	862.1
#Z (µm)=	-65.2
#Full time(mm:ss)=	3:19
#Project=	
#Sample=	
#Site=	
#Title=	Mb_30_27_23_2x_45s_532 nm_x100_100%_600 gr_mm
#Remark=	
#Date=	13.07.2022 10:18
#Acquired=	13.07.2022 10:18:44
#Base:Fit=	10.08.2022 10:40:03
#Base:Sub=	10.08.2022 10:40:17
#Filter:Polynom=	16.08.2022 10:16:15
#AxisType[0]=Intens
#AxisUnit[0]=Cnt
#AxisType[1]=Spectr
#AxisUnit[1]=1/cm
200.563	10.6569
202.377	10.2726
204.194	11.6316
206.008	11.5562
207.821	10.6658
209.634	10.3702
211.449	10.3578
213.262	10.6432
215.074	10.6994
216.885	10.651
218.699	10.2114
220.51	10.492
222.321	10.7075
224.131	8.32695
225.941	7.52993
227.751	7.74701
229.562	7.16936
231.371	7.60951
233.18	7.34165
234.988	8.26104
236.796	8.87911
238.603	9.498
240.411	8.66588
242.219	8.86626
244.026	9.42614
245.832	10.0321
247.638	9.287
249.443	9.24413
251.248	9.1633
253.053	9.7948
254.857	8.74287
256.661	8.02619
258.465	7.93334
260.268	8.64437
262.071	8.74347
263.874	8.60266
265.678	8.27295
267.48	9.57711
269.282	10.1261
271.083	10.2542
272.884	10.9776
274.684	11.5302
276.484	11.2749
278.284	11.2894
280.084	11.6528
281.883	12.147
283.682	12.0737
285.48	11.781
287.276	11.8854
289.074	11.716
290.871	12.0379
292.668	12.6517
294.465	12.2356
296.261	13.4842
298.057	14.1403
299.853	15.3433
301.648	14.1402
303.443	15.1662
305.237	15.39
307.032	15.7697
308.823	16.1671
310.617	16.7422
312.41	16.7234
314.203	15.9324
315.995	18.2131
317.788	18.744
319.579	18.6475
321.369	19.6307
323.16	19.3769
324.951	19.9643
326.741	19.3181
328.531	19.1755
330.321	18.2449
332.108	18.6989
333.897	18.5869
335.686	17.9366
337.474	16.0627
339.26	16.1986
341.048	15.8566
342.835	16.3261
344.622	15.8096
346.406	14.7567
348.192	15.5288
349.978	16.4601
351.764	14.9745
353.547	14.5451
355.332	14.6652
357.116	14.0795
358.901	13.3539
360.682	12.8477
362.466	12.2347
364.249	11.8392
366.03	11.4156
367.812	10.2186
369.594	8.69839
371.374	7.55795
373.155	6.7185
374.936	7.09771
376.715	7.28436
378.495	7.92868
380.273	7.34639
382.053	6.38885
383.832	5.93091
385.609	6.08582
387.388	4.87685
389.164	4.83902
390.942	5.38585
392.72	6.91427
394.495	5.79248
396.272	5.7724
398.047	6.14996
399.823	6.12766
401.597	5.87705
403.372	6.62496
405.145	7.14574
406.92	5.8606
408.693	5.96011
410.467	5.92194
412.239	5.70834
414.012	6.20209
415.783	5.98552
417.556	6.57692
419.327	6.73443
421.099	7.3062
422.869	7.51081
424.64	7.51321
426.409	7.48051
428.18	8.36188
429.948	8.93247
431.718	9.36445
433.486	7.94168
435.253	7.63445
437.022	7.72365
438.789	7.43612
440.558	6.73376
442.324	7.12684
444.089	7.03933
445.857	6.95194
447.622	7.36511
449.386	7.40837
451.153	6.14187
452.917	6.66138
454.682	6.27537
456.446	6.82873
458.208	8.02522
459.973	9.21983
461.735	9.75843
463.497	11.378
465.259	11.2571
467.022	11.4433
468.783	10.6246
470.544	10.555
472.306	11.653
474.066	12.5808
475.825	12.0912
477.585	13.3623
479.346	15.0108
481.104	15.0064
482.862	14.7838
484.62	16.0021
486.38	16.0038
488.137	15.8096
489.894	17.201
491.65	17.8913
493.407	17.6069
495.164	18.3765
496.92	18.9661
498.675	19.2476
500.43	19.5795
502.184	19.6466
503.939	19.3721
505.694	19.8023
507.448	19.1903
509.201	17.8524
510.954	16.6987
512.706	16.2084
514.459	15.7762
516.21	14.3201
517.962	13.9899
519.715	12.8578
521.466	11.382
523.216	11.4549
524.966	11.1962
526.716	10.0187
528.466	9.81678
530.215	9.62949
531.964	10.2766
533.712	10.0475
535.46	9.79592
537.208	9.33641
538.955	8.28999
540.703	9.11361
542.449	8.9474
544.196	8.94243
545.942	8.18695
547.688	7.52096
549.433	7.10446
551.178	7.53648
552.923	6.18344
554.667	6.49921
556.412	6.98684
558.155	6.94219
559.899	7.58216
561.642	6.3123
563.385	5.19739
565.127	5.64532
566.867	5.89191
568.609	5.63692
570.35	5.78331
572.092	5.80255
573.832	5.55973
575.573	6.97948
577.313	7.62695
579.053	6.79073
580.79	7.39639
582.529	7.30815
584.268	6.66837
586.006	6.46705
587.745	5.33987
589.482	5.13272
591.218	5.32245
592.955	4.56923
594.692	2.92646
596.428	2.49692
598.164	2.6855
599.898	2.93647
601.634	3.12587
603.369	2.67011
605.104	3.34486
606.836	2.77513
608.57	2.60492
610.304	3.28306
612.037	3.64083
613.769	3.13307
615.501	3.96278
617.234	4.10493
618.966	4.83584
620.696	5.0015
622.427	4.80891
624.159	4.89165
625.887	5.08532
627.618	5.44948
629.348	5.76354
631.076	6.45339
632.806	7.37336
634.535	8.60618
636.262	10.0032
637.99	9.84503
639.716	10.0599
641.444	12.2907
643.172	13.955
644.897	13.5742
646.624	14.2038
648.348	13.9612
650.075	14.7726
651.801	15.2865
653.524	15.9805
655.249	16.3253
656.972	16.8502
658.697	16.9735
660.419	17.6974
662.143	18.6467
663.865	18.6505
665.588	19.2456
667.309	20.4554
669.032	20.1576
670.752	20.227
672.474	20.728
674.194	20.5902
675.915	21.61
677.634	21.5872
679.355	21.3456
681.073	22.0875
682.793	23.4751
684.511	24.0119
686.23	24.4645
687.947	25.0563
689.664	25.8466
691.382	26.0465
693.098	25.9849
694.816	26.7497
696.531	27.1214
698.247	27.6808
699.963	27.957
701.678	28.7248
703.392	29.3885
705.108	29.7333
706.821	30.1915
708.534	29.6776
710.249	30.4962
711.962	31.524
713.674	32.239
715.388	33.4456
717.099	34.0521
718.81	33.299
720.523	33.3996
722.234	32.9023
723.944	33.0456
725.654	33.9511
727.365	34.5758
729.075	34.7708
730.784	33.4346
732.492	32.8017
734.202	32.8018
735.91	33.0476
737.618	33.2492
739.325	33.9233
741.034	34.0558
742.741	35.7012
744.447	35.9138
746.153	37.8802
747.859	39.5352
749.564	40.8416
751.271	42.7877
752.976	44.7174
754.681	45.869
756.385	48.0371
758.088	49.2926
759.792	49.3413
761.495	50.7297
763.2	52.0942
764.902	53.9349
766.604	55.8181
768.306	57.4259
770.008	58.3525
771.709	60.8927
773.41	63.1996
775.11	65.0974
776.811	66.2411
778.51	66.9826
780.21	68.0242
781.909	69.8693
783.608	70.7554
785.307	72.5431
787.005	73.0785
788.703	73.989
790.401	75.3725
792.098	76.1626
793.795	77.1152
795.492	77.0404
797.188	77.7366
798.884	77.6033
800.58	76.6176
802.276	75.6897
803.971	74.5341
805.665	74.6089
807.36	74.524
809.054	74.6367
810.748	73.1058
812.441	72.3119
814.135	71.9604
815.826	70.3308
817.518	69.1666
819.21	69.462
820.902	68.5795
822.594	68.2343
824.285	67.9524
825.976	67.8591
827.665	67.7844
829.355	66.8444
831.045	67.5101
832.735	66.6051
834.424	66.1319
836.111	65.2935
837.8	63.3397
839.488	62.6375
841.177	61.6737
842.864	59.389
844.55	58.6451
846.237	58.7017
847.924	57.9115
849.61	57.0783
851.295	56.2932
852.98	55.2399
854.666	54.7107
856.349	55.0495
858.034	54.0849
859.719	53.795
861.403	52.9852
863.085	52.2419
864.769	51.3331
866.452	51.3582
868.133	49.6077
869.816	49.9489
871.498	48.8062
873.179	48.8648
874.86	48.2004
876.54	47.2867
878.221	47.0758
879.902	45.3482
881.58	45.7522
883.26	44.4842
884.938	43.9833
886.618	44.2853
888.297	43.7105
889.974	43.6856
891.653	43.0351
893.329	42.5923
895.007	42.8161
896.683	42.8989
898.36	42.7325
900.035	41.9196
901.712	42.09
903.387	42.4352
905.063	42.1166
906.737	42.2349
908.412	41.8608
910.085	41.3419
911.76	40.8015
913.433	40.8319
915.107	40.3821
916.779	39.8629
918.452	39.3489
920.124	38.5155
921.797	38.4324
923.467	38.4939
925.138	36.923
926.81	36.0353
928.48	36.7263
930.151	36.6801
931.82	36.3545
933.489	36.3906
935.16	36.3507
936.828	36.5423
938.496	36.6993
940.165	36.5028
941.833	35.7381
943.5	35.4485
945.168	33.5149
946.834	32.4677
948.5	30.8538
950.168	31.4613
951.834	31.0732
953.499	31.6283
955.163	31.9616
956.83	30.8194
958.494	30.073
960.158	29.0996
961.821	29.1361
963.487	28.835
965.15	29.1971
966.812	28.9861
968.474	29.876
970.138	28.6413
971.8	28.3426
973.461	28.6938
975.123	28.2169
976.783	28.4731
978.446	27.8921
980.106	26.7176
981.766	26.3012
983.425	25.3848
985.084	25.2687
986.743	24.9516
988.402	24.9026
990.06	23.433
991.72	22.9494
993.378	22.3908
995.035	21.8866
996.692	21.1104
998.349	20.3445
1000.01	19.5063
1001.66	18.411
1003.32	18.6376
1004.97	18.0176
1006.63	16.9749
1008.28	17.6434
1009.94	18.2476
1011.59	18.8677
1013.25	19.1482
1014.9	20.1958
1016.55	20.1432
1018.21	20.5952
1019.86	20.6824
1021.51	20.983
1023.16	20.7087
1024.81	20.2054
1026.47	20.4245
1028.12	20.0515
1029.77	21.2967
1031.42	21.8492
1033.07	21.9964
1034.72	21.7045
1036.37	22.2335
1038.02	22.7637
1039.67	22.1303
1041.31	23.2301
1042.96	23.5407
1044.61	24.5405
1046.26	24.1237
1047.91	24.579
1049.55	24.1351
1051.2	23.4764
1052.84	22.3184
1054.49	22.9466
1056.14	22.9843
1057.78	21.6685
1059.43	21.2647
1061.07	20.7961
1062.72	19.805
1064.36	18.4779
1066	17.2629
1067.65	16.9651
1069.29	17.1617
1070.93	16.4574
1072.58	15.1133
1074.22	15.5046
1075.86	14.3168
1077.5	12.9037
1079.14	11.8971
1080.78	10.8852
1082.42	9.6529
1084.06	9.50562
1085.7	10.0169
1087.34	9.33739
1088.98	9.45337
1090.62	9.69092
1092.26	10.2778
1093.9	10.9919
1095.54	10.7592
1097.17	10.8931
1098.81	9.53897
1100.45	9.56206
1102.09	8.96124
1103.72	9.01582
1105.36	8.54503
1106.99	8.48204
1108.63	9.51602
1110.27	9.75087
1111.9	10.3605
1113.53	9.25606
1115.17	8.76497
1116.8	9.23281
1118.43	9.09817
1120.07	9.13307
1121.7	7.8441
1123.33	8.10364
1124.97	7.44405
1126.6	7.92847
1128.23	6.74041
1129.86	5.75615
1131.49	4.81943
1133.12	5.06009
1134.75	5.4575
1136.38	5.74835
1138.01	6.11428
1139.64	4.8984
1141.27	5.11148
1142.9	5.23829
1144.53	4.73039
1146.16	5.04732
1147.78	5.71245
1149.41	6.29013
1151.04	6.29943
1152.67	6.28854
1154.29	5.57692
1155.92	5.31095
1157.54	3.75009
1159.17	3.36867
1160.8	3.54228
1162.42	3.886
1164.05	3.23163
1165.67	3.74394
1167.29	3.89878
1168.92	3.63447
1170.54	3.33798
1172.16	3.54896
1173.79	4.65653
1175.41	4.19706
1177.03	2.99108
1178.65	3.18715
1180.28	3.01546
1181.9	3.67959
1183.52	3.73448
1185.14	4.42359
1186.76	4.56021
1188.38	4.49269
1190	4.5396
1191.62	3.57841
1193.24	3.64961
1194.86	2.98371
1196.47	3.50031
1198.09	3.48359
1199.71	3.9712
1201.33	4.95686
1202.95	5.01651
1204.56	5.9398
1206.18	6.0213
1207.8	6.39072
1209.41	6.47812
1211.03	7.64496
1212.64	9.37722
1214.26	10.4859
1215.87	11.4119
1217.49	12.771
1219.1	13.5852
1220.71	14.4672
1222.33	15.8333
1223.94	16.879
1225.55	18.0396
1227.16	19.3781
1228.78	20.247
1230.39	21.1699
1232	22.0931
1233.61	23.8224
1235.22	24.1407
1236.83	24.1974
1238.44	24.5625
1240.05	26.3878
1241.66	26.6805
1243.27	28.0197
1244.88	27.8146
1246.49	29.2553
1248.1	30.4546
1249.71	31.3623
1251.32	31.9982
1252.92	33.0311
1254.53	33.543
1256.14	33.8449
1257.74	33.7547
1259.35	35.3923
1260.96	37.7014
1262.56	39.2034
1264.17	39.9938
1265.77	41.4094
1267.38	41.6587
1268.98	40.8086
1270.59	41.3731
1272.19	42.739
1273.79	43.7076
1275.4	44.5569
1277	45.0876
1278.6	45.9867
1280.21	46.6005
1281.81	46.319
1283.41	46.1488
1285.01	46.4813
1286.61	46.7453
1288.21	46.5057
1289.81	47.1315
1291.41	46.8552
1293.01	47.561
1294.61	47.4803
1296.21	47.7374
1297.81	48.5768
1299.41	49.1795
1301.01	50.0727
1302.6	50.5782
1304.2	51.2009
1305.8	51.8509
1307.4	51.6774
1308.99	51.7272
1310.59	52.1662
1312.19	52.7531
1313.78	53.2356
1315.38	52.667
1316.97	52.7231
1318.57	53.8262
1320.16	55.1185
1321.76	54.777
1323.35	55.9596
1324.94	56.2823
1326.54	57.0136
1328.13	57.0255
1329.72	56.9324
1331.32	56.3454
1332.91	56.9773
1334.5	57.0415
1336.09	57.1647
1337.68	57.2593
1339.27	57.5549
1340.87	56.8563
1342.45	54.705
1344.04	52.7041
1345.64	52.1394
1347.22	51.1644
1348.81	49.5378
1350.4	49.4256
1351.99	48.6259
1353.58	48.1247
1355.17	46.5159
1356.75	44.4958
1358.34	42.8853
1359.93	41.1708
1361.51	39.7555
1363.1	38.9216
1364.69	37.5503
1366.27	36.2364
1367.86	34.3346
1369.44	33.5984
1371.03	32.5816
1372.61	31.7251
1374.2	31.0206
1375.78	30.2648
1377.37	29.5749
1378.95	28.5536
1380.53	27.599
1382.11	26.8557
1383.7	26.5772
1385.28	26.5051
1386.86	26.8215
1388.44	26.7268
1390.02	27.0894
1391.6	27.5343
1393.19	27.025
1394.77	26.8858
1396.35	27.8074
1397.93	28.4765
1399.51	28.7777
1401.08	28.7911
1402.66	29.8159
1404.24	30.4542
1405.82	31.0904
1407.4	30.6132
1408.97	30.8323
1410.55	31.3518
1412.13	32.5694
1413.71	33.1786
1415.28	34.0738
1416.86	34.8604
1418.43	35.6285
1420.01	36.6778
1421.59	38.1346
1423.16	39.6109
1424.73	43.0071
1426.31	44.567
1427.88	44.866
1429.46	46.8615
1431.03	48.9114
1432.6	50.8689
1434.18	50.7798
1435.75	52.6046
1437.32	53.6469
1438.89	54.6368
1440.46	55.8641
1442.04	57.5511
1443.61	57.6619
1445.18	58.3541
1446.75	58.463
1448.32	59.9635
1449.89	60.2314
1451.46	59.7023
1453.03	59.7599
1454.6	58.629
1456.16	57.986
1457.73	57.6275
1459.3	57.4486
1460.87	56.8214
1462.44	56.75
1464	55.8494
1465.57	54.985
1467.14	53.2733
1468.7	52.4366
1470.27	51.0381
1471.83	49.6933
1473.4	47.8616
1474.96	46.6125
1476.53	44.9803
1478.09	42.7015
1479.66	41.6723
1481.22	39.6108
1482.78	37.7887
1484.35	35.5073
1485.91	33.2853
1487.47	32.0802
1489.04	31.7883
1490.6	30.7405
1492.16	29.2524
1493.72	27.9277
1495.28	26.3194
1496.84	25.2548
1498.4	24.0101
1499.96	22.7082
1501.52	22.121
1503.08	21.6851
1504.64	20.6256
1506.2	19.9419
1507.76	20.276
1509.32	20.0202
1510.88	18.734
1512.44	18.4158
1513.99	18.1033
1515.55	17.9476
1517.11	18.9534
1518.66	20.0038
1520.22	20.9146
1521.78	21.1996
1523.33	22.4008
1524.89	21.7103
1526.44	21.8531
1528	21.695
1529.55	22.1676
1531.11	22.4742
1532.66	22.5374
1534.21	22.6087
1535.77	23.3055
1537.32	23.7358
1538.87	24.1992
1540.43	24.9959
1541.98	25.7529
1543.53	26.1089
1545.08	26.4555
1546.63	25.9849
1548.18	26.4924
1549.74	26.3228
1551.29	26.4481
1552.84	27.4996
1554.39	26.922
1555.94	27.1462
1557.48	27.3423
1559.03	26.8111
1560.58	27.9666
1562.13	27.9242
1563.68	29.1514
1565.23	30.0789
1566.78	30.1766
1568.32	30.1074
1569.87	30.8002
1571.42	31.2018
1572.96	31.6717
1574.51	32.6331
1576.05	32.6503
1577.6	33.0305
1579.14	34.4905
1580.69	34.952
1582.24	36.6921
1583.78	37.3848
1585.32	38.5715
1586.87	39.1687
1588.41	39.352
1589.95	40.2119
1591.5	40.586
1593.04	41.4723
1594.58	42.1468
1596.12	42.3702
1597.67	42.9054
1599.21	42.985
1600.75	42.2519
1602.29	40.6613
1603.83	40.3649
1605.37	40.398
1606.91	40.2966
1608.45	40.2846
1609.99	39.708
1611.53	38.902
1613.07	38.9412
1614.6	38.3534
1616.14	38.2668
1617.68	38.3632
1619.22	38.9092
1620.75	38.5831
1622.29	39.0546
1623.83	39.8989
1625.37	41.1822
1626.9	41.0331
1628.44	41.5444
1629.97	42.133
1631.51	42.7515
1633.04	43.9126
1634.58	44.1747
1636.11	45.3543
1637.65	47.2892
1639.18	48.2906
1640.72	50.0592
1642.25	51.6428
1643.78	52.8708
1645.31	54.7596
1646.85	55.9609
1648.38	57.3008
1649.91	59.0863
1651.44	59.4485
1652.97	60.1422
1654.5	61.4451
1656.03	61.839
1657.56	61.6402
1659.1	63.0138
1660.62	62.6063
1662.15	61.9765
1663.68	60.9129
1665.21	59.8667
1666.74	59.0701
1668.27	57.9231
1669.8	56.1193
1671.32	55.0671
1672.85	53.5663
1674.38	52.1011
1675.91	50.1269
1677.43	47.4283
1678.96	46.2607
1680.49	44.9487
1682.01	43.6422
1683.54	42.3418
1685.06	40.3276
1686.59	37.5268
1688.11	36.3751
1689.64	34.9777
1691.16	32.6884
1692.68	31.3275
1694.21	30.1484
1695.73	29.0984
1697.25	27.3942
1698.78	26.9647
1700.3	26.3588
1701.82	24.7295
1703.34	23.7187
1704.86	22.8389
1706.39	21.814
1707.91	20.392
1709.43	18.5613
1710.95	17.6704
1712.47	17.8624
1713.99	17.7963
1715.51	17.6884
1717.02	17.5469
1718.54	16.9137
1720.06	16.5684
1721.58	15.8135
1723.1	15.4575
1724.62	15.2004
1726.13	14.4407
1727.65	13.0931
1729.17	12.626
1730.68	11.8287
1732.2	11.2892
1733.72	11.2263
1735.23	10.619
1736.75	9.20839
1738.26	8.57449
1739.78	8.10215
1741.29	7.30129
1742.81	7.028
1744.32	6.0651
1745.84	6.1496
1747.35	6.34053
1748.86	6.40585
1750.37	6.61552
1751.89	6.51948
1753.4	6.49162
1754.91	6.89739
1756.42	6.00346
1757.93	5.8969
1759.45	5.80593
1760.96	5.5219
1762.47	5.43328
1763.98	5.72025
1765.49	5.35032
1767	5.26058
1768.51	6.26314
1770.02	6.52192
1771.53	7.00067
1773.03	7.01549
1774.54	7.60846
1776.05	7.28592
1777.56	6.62647
1779.07	6.34046
1780.57	5.73719
1782.08	5.37494
1783.59	5.43753
1785.09	5.36086
1786.6	5.6361
1788.11	5.89543
1789.61	5.7048
1791.12	6.07738
1792.62	5.94926
1794.13	5.96153
1795.63	6.1192
1797.13	5.83117
1798.64	5.51369
1800.14	5.67857
1801.65	5.11705
1803.15	4.42861
1804.65	4.08302
1806.15	3.88736
1807.66	3.51029
1809.16	3.26518
1810.66	3.23319
1812.16	3.36967
1813.66	3.09131
1815.16	2.65445
1816.66	2.70165
1818.16	2.78409
1819.66	2.19603
1821.16	2.50169
1822.66	2.26796
1824.16	2.27822
1825.66	2.30632
1827.16	2.02514
1828.66	1.91989
1830.16	1.92356
1831.65	1.53588
1833.15	2.03291
1834.65	2.01858
1836.14	2.38918
1837.64	2.85942
1839.14	3.76641
1840.63	4.144
1842.13	4.84707
1843.62	5.11188
1845.12	4.37897
1846.61	4.16983
1848.11	4.07148
1849.6	4.50217
1851.1	4.93836
1852.59	5.6102
1854.08	6.6555
1855.58	7.10409
1857.07	7.38758
1858.56	7.61862
1860.05	8.19094
1861.55	8.24542
1863.04	8.95334
1864.53	8.82751
1866.02	9.24766
1867.51	9.29481
1869	9.08187
1870.49	8.79532
1871.98	9.06421
1873.47	8.35993
1874.96	8.62742
1876.45	7.80073
1877.94	7.49269
1879.43	7.27099
1880.92	6.77874
1882.41	6.34338
1882.51	6.49792
1884	5.74793
1885.5	5.42042
1886.99	5.35078
1888.48	5.44962
1889.98	5.59052
1891.47	5.14987
1892.96	4.13608
1894.46	4.10333
1895.95	3.48051
1897.44	3.05409
1898.93	2.73123
1900.42	1.5955
1901.91	1.2189
1903.41	0.816007
1904.9	0.70715
1906.39	1.15924
1907.88	1.29906
1909.37	1.71418
1910.86	2.22576
1912.35	1.91134
1913.83	1.68369
1915.32	1.55877
1916.81	0.963572
1918.3	1.41743
1919.79	1.98213
1921.27	2.88622
1922.76	3.40039
1924.25	4.08855
1925.74	4.8352
1927.22	4.71352
1928.71	3.77483
1930.19	3.57054
1931.68	3.16374
1933.17	3.50577
1934.65	3.09607
1936.14	3.22028
1937.62	3.02463
1939.11	3.27043
1940.59	3.07491
1942.07	3.26513
1943.56	4.09409
1945.04	4.19187
1946.52	3.8756
1948.01	5.04279
1949.49	4.49785
1950.97	4.3471
1952.45	4.82557
1953.93	5.27674
1955.42	5.59251
1956.9	5.88689
1958.38	5.61865
1959.86	6.2079
1961.34	6.51409
1962.82	6.40767
1964.3	5.94599
1965.78	5.49305
1967.26	4.53552
1968.74	4.57441
1970.21	3.98344
1971.69	3.97128
1973.17	3.80369
1974.65	3.38087
1976.13	3.48775
1977.6	3.47207
1979.08	3.39176
1980.56	3.73215
1982.03	3.81684
1983.51	3.76674
1984.99	3.83456
1986.46	3.75618
1987.94	3.47134
1989.41	2.98341
1990.89	3.58473
1992.36	3.62655
1993.84	3.77304
1995.31	3.5801
1996.78	3.36693
1998.26	3.18949
1999.73	2.94617
2001.2	2.04468
2002.68	1.85176
2004.15	1.89733
2005.62	2.10216
2007.09	2.68524
2008.56	2.71557
2010.04	2.76362
2011.51	2.88214
2012.98	2.9929
2014.45	3.59231
2015.92	4.63609
2017.39	5.13919
2018.86	5.00389
2020.33	5.62779
2021.8	5.94446
2023.26	5.36299
2024.73	5.72838
2026.2	6.0547
2027.67	5.65087
2029.14	5.11706
2030.61	5.18545
2032.07	5.45346
2033.54	6.03481
2035.01	6.26768
2036.47	5.80037
2037.94	5.6348
2039.4	5.53785
2040.87	5.09688
2042.33	6.48958
2043.8	6.96135
2045.27	7.44249
2046.73	7.49782
2048.19	7.40675
2049.66	7.56566
2051.12	8.24944
2052.59	8.6043
2054.05	9.46305
2055.51	9.06148
2056.97	8.8164
2058.44	8.50037
2059.9	8.25184
2061.36	8.10202
2062.82	8.74352
2064.28	9.10765
2065.74	8.22925
2067.21	8.29132
2068.67	8.47395
2070.13	8.47198
2071.59	8.67276
2073.05	8.84284
2074.51	8.73076
2075.96	9.30131
2077.42	9.78901
2078.88	10.8513
2080.34	11.8204
2081.8	12.3919
2083.26	12.8047
2084.72	13.3901
2086.17	13.4681
2087.63	13.9481
2089.09	14.5304
2090.54	14.2636
2092	14.8354
2093.45	15.2191
2094.91	14.6853
2096.37	14.4231
2097.82	15.0842
2099.28	15.1408
2100.73	15.2431
2102.19	15.4517
2103.64	16.4216
2105.09	16.9189
2106.55	17.2207
2108	17.8557
2109.45	18.4987
2110.91	19.7057
2112.36	20.2367
2113.81	21.1755
2115.26	22.163
2116.72	22.1476
2118.17	22.344
2119.62	23.3531
2121.07	24.1348
2122.52	24.7836
2123.97	25.9231
2125.42	26.7999
2126.87	27.7709
2128.32	28.0763
2129.77	28.6782
2131.22	29.7315
2132.67	31.0289
2134.11	32.1777
2135.56	33.2666
2137.01	33.9161
2138.46	35.0128
2139.91	36.6186
2141.35	38.5302
2142.8	40.0865
2144.25	41.5917
2145.7	43.1419
2147.14	45.1095
2148.59	46.5359
2150.03	48.0967
2151.48	49.6848
2152.92	50.8733
2154.37	51.6988
2155.81	52.8344
2157.26	53.8537
2158.7	54.1171
2160.15	55.4247
2161.59	56.5207
2163.03	57.4088
2164.47	58.2537
2165.92	58.3557
2167.36	58.381
2168.8	59.0173
2170.24	59.682
2171.69	59.8832
2173.13	59.5096
2174.57	60.5409
2176.01	61.4337
2177.45	61.1873
2178.89	60.9569
2180.33	61.0457
2181.77	61.172
2183.21	60.4617
2184.65	59.6721
2186.09	58.9196
2187.53	58.1173
2188.97	57.7475
2190.4	57.2704
2191.84	56.8825
2193.28	56.0427
2194.72	55.1578
2196.16	54.547
2197.59	53.6338
2199.03	52.8102
2200.47	51.5192
2201.9	49.7198
2203.34	49.019
2204.77	47.9448
2206.21	46.6212
2207.64	45.1984
2209.08	43.729
2210.51	42.556
2211.95	41.5798
2213.38	40.845
2214.82	39.3549
2216.25	38.4285
2217.68	37.5402
2219.12	36.5659
2220.55	35.3315
2221.98	34.9321
2223.41	33.9414
2224.85	32.8707
2226.28	31.3875
2227.71	29.8314
2229.14	28.7511
2230.57	27.5752
2232	27.4258
2233.43	26.558
2234.86	25.3878
2236.29	23.6861
2237.72	22.2102
2239.15	21.4618
2240.58	21.199
2242.01	20.6063
2243.44	20.3867
2244.87	19.5053
2246.29	19.5559
2247.72	18.3692
2249.15	17.4522
2250.58	16.5442
2252.01	16.3474
2253.43	15.7802
2254.86	15.2089
2256.29	15.2027
2257.71	14.3281
2259.14	14.2196
2260.56	13.5697
2261.99	13.3409
2263.41	12.8664
2264.84	13.3145
2266.26	12.8774
2267.69	12.4106
2269.11	11.9518
2270.53	11.67
2271.96	10.773
2273.38	10.1619
2274.8	9.8897
2276.23	10.0098
2277.65	9.73681
2279.07	9.33117
2280.49	9.38521
2281.91	9.43831
2283.34	9.56862
2284.76	9.00452
2286.18	9.23461
2287.6	10.1793
2289.02	9.87285
2290.44	9.21946
2291.86	8.78234
2293.28	7.78258
2294.7	6.52732
2296.12	6.57881
2297.54	6.80482
2298.96	8.0315
2300.37	8.69993
2301.79	8.5496
2303.21	8.61233
2304.63	8.14449
2306.04	7.84841
2307.46	7.46245
2308.88	7.95249
2310.3	8.63403
2311.71	9.29001
2313.13	9.23182
2314.54	9.71885
2315.96	9.42712
2317.37	9.44619
2318.79	9.70292
2320.2	9.1504
2321.62	9.17599
2323.03	9.58849
2324.45	9.50169
2325.86	9.66446
2327.27	9.49626
2328.69	8.75075
2330.1	9.06142
2331.51	8.98584
2332.92	9.65919
2334.34	9.66041
2335.75	9.38137
2337.16	9.1808
2338.57	8.76861
2339.98	8.82901
2341.39	8.97004
2342.8	8.39453
2344.21	8.29708
2345.63	8.49738
2347.04	8.72194
2348.45	8.28097
2349.85	7.86025
2351.26	7.54831
2352.67	6.89676
2354.08	6.18238
2355.49	5.9341
2356.9	6.37509
2358.3	6.14433
2359.71	5.32494
2361.12	4.38528
2362.53	4.26068
2363.93	3.91635
2365.34	4.39153
2366.75	5.23261
2368.15	5.41768
2369.56	5.18499
2370.97	4.51675
2372.37	4.10586
2373.77	4.4335
2375.18	4.28751
2376.59	4.34565
2377.99	4.48114
2379.39	4.49149
2380.8	4.39634
2382.2	4.58718
2383.6	4.46386
2385.01	4.83942
2386.41	4.47835
2387.81	4.53028
2389.21	4.52119
2390.62	4.45334
2392.02	4.99983
2393.42	5.05761
2394.82	4.87156
2396.22	4.52292
2397.62	4.28683
2399.02	4.29921
2400.42	4.99601
2401.82	4.96857
2403.22	4.89082
2404.62	4.65787
2406.02	4.2716
2407.42	4.53675
2408.82	4.29381
2410.22	4.72702
2411.62	4.16746
2413.01	4.31636
2414.41	4.53239
2415.81	4.81547
2417.21	4.83243
2418.6	4.66976
2420	4.30841
2421.4	3.85308
2422.79	4.15507
2424.19	4.38769
2425.59	4.9622
2426.98	4.22176
2428.38	4.00262
2429.77	3.61527
2431.17	3.57079
2432.56	3.70438
2433.95	4.09617
2435.35	4.07632
2436.74	4.85727
2438.14	5.13994
2439.53	5.06388
2440.92	5.56825
2442.31	6.00546
2443.71	7.0852
2445.1	6.7584
2446.49	7.09125
2447.88	6.8716
2449.27	6.72049
2450.67	6.84816
2452.06	7.26422
2453.45	6.93462
2454.84	6.92975
2456.23	6.70359
2457.62	6.6648
2459.01	6.28585
2460.4	6.22603
2461.79	5.8819
2463.18	5.62909
2464.57	4.95135
2465.95	4.35302
2467.34	4.0444
2468.73	3.46449
2470.12	3.12216
2471.5	2.35522
2472.89	2.41604
2474.28	2.43151
2475.67	2.17563
2477.05	2.27823
2478.44	2.10351
2479.82	1.75522
2481.21	1.34957
2482.6	1.91027
2483.98	1.70184
2485.37	2.22968
2486.75	2.06971
2488.13	1.35053
2489.52	1.36206
2490.9	1.15966
2492.29	1.37319
2493.67	1.13391
2495.05	0.866475
2496.44	0.0892407
2497.82	0.671732
2499.2	0.941305
2500.58	0.613864
2501.97	0.610719
2503.35	0.606426
2504.73	0.352445
2506.11	0.696782
2507.49	0.792524
2508.87	1.30139
2510.25	1.37141
2511.63	1.49355
2513.01	1.33056
2514.39	0.413874
2515.77	0.884309
2517.15	0.853288
2518.53	1.10809
2519.91	1.1393
2521.29	1.52454
2522.67	0.994204
2524.05	1.60484
2525.42	1.51991
2526.8	1.58391
2528.18	1.22025
2529.55	1.35696
2530.93	1.41612
2532.31	1.36404
2533.69	1.21049
2535.06	1.4123
2536.44	1.23322
2537.81	1.96874
2539.19	2.77371
2540.56	2.59802
2541.94	3.02194
2543.31	2.73911
2544.69	2.36594
2546.06	2.70975
2547.44	2.90006
2548.81	3.11015
2550.18	3.69532
2551.56	4.34393
2552.93	4.6466
2554.3	5.33098
2555.67	5.29582
2557.04	5.59219
2558.42	6.07501
2559.79	6.53361
2561.16	6.71565
2562.53	6.6182
2563.9	6.62236
2565.27	6.78413
2566.64	7.31773
2568.01	7.79905
2569.38	7.60725
2570.75	7.68243
2572.12	7.91408
2573.49	7.84195
2574.86	8.362
2576.23	8.39555
2577.6	7.77535
2578.97	7.33098
2580.33	7.79383
2581.7	8.2068
2583.07	8.46517
2584.44	9.2925
2585.8	9.40033
2587.17	9.35182
2588.54	9.03547
2589.9	8.94887
2591.27	8.70653
2592.64	8.65338
2594	8.04454
2595.37	8.23933
2596.73	7.58408
2598.1	7.9189
2599.46	7.66157
2600.83	7.15572
2602.19	6.90621
2603.55	6.59911
2604.92	5.96704
2606.28	5.77645
2607.64	4.99098
2609.01	4.35686
2610.37	4.40434
2611.73	4.13138
2613.09	3.85684
2614.46	4.06428
2615.82	4.06908
2617.18	4.30935
2618.54	4.51626
2619.9	4.15235
2621.26	4.06454
2622.62	4.0166
2623.98	4.1836
2625.34	4.44943
2626.7	4.14037
2628.06	3.89784
2629.42	3.72978
2630.78	3.74353
2632.14	4.09139
2633.5	4.31718
2634.86	4.35399
2636.21	4.07289
2637.57	3.87286
2638.93	4.12394
2640.29	4.79809
2641.64	4.44688
2643	4.43256
2644.36	4.55996
2645.71	5.47092
2647.07	6.14315
2648.43	6.94279
2649.78	7.48897
2651.14	7.12422
2652.49	7.20456
2653.85	6.72199
2655.2	6.0311
2656.56	5.93925
2657.91	6.33728
2659.26	5.81551
2660.62	5.53483
2661.97	5.51482
2663.32	5.39298
2664.68	5.07408
2666.03	5.40044
2667.38	5.00884
2668.74	5.08209
2670.09	5.55278
2671.44	5.36328
2672.79	5.01279
2674.14	4.9777
2675.49	4.50697
2676.84	4.27872
2678.19	4.50071
2679.54	4.5579
2680.89	4.73663
2682.24	4.9263
2683.59	4.88516
2684.94	4.68465
2686.29	4.61824
2687.64	4.70388
2688.99	4.89959
2690.34	5.35413
2691.69	6.23963
2693.03	5.91029
2694.38	5.72444
2695.73	6.66944
2697.08	7.24586
2698.42	7.1187
2699.77	7.04736
2701.12	7.71627
2702.46	7.70679
2703.81	7.62297
2705.15	8.18297
2706.5	8.43955
2707.85	7.97562
2709.19	7.634
2710.54	8.45023
2711.88	8.97004
2713.22	8.89167
2714.57	8.59636
2715.91	8.44605
2717.26	8.70069
2718.6	7.80879
2719.94	8.10676
2721.29	7.53983
2722.63	8.00555
2723.97	8.2085
2725.31	8.03033
2726.66	7.90496
2728	8.32875
2729.34	8.52985
2730.68	8.06995
2732.02	8.19705
2733.36	7.95659
2734.7	7.72828
2736.04	7.40482
2737.38	6.76337
2738.72	5.73072
2740.06	5.08873
2741.4	4.95148
2742.74	4.38119
2744.08	4.62731
2745.42	5.28009
2746.76	4.77971
2748.09	4.6737
2749.43	4.38933
2750.77	4.41007
2752.11	4.27072
2753.45	4.61785
2754.78	4.26868
2756.12	4.29599
2757.46	4.8692
2758.79	4.39387
2760.13	3.76081
2761.46	3.80091
2762.8	3.70095
2764.14	2.8243
2765.47	2.42943
2766.8	3.05144
2768.14	3.39902
2769.47	2.86575
2770.81	2.44618
2772.14	2.46974
2773.48	2.17213
2774.81	1.96086
2776.14	2.39486
2777.48	2.65006
2778.81	2.05296
2780.14	1.87347
2781.47	1.92729
2782.8	1.74263
2784.14	2.15825
2785.47	1.61088
2786.8	1.96505
2788.13	1.80964
2789.46	2.48796
2790.79	2.21496
2792.12	2.47731
2793.45	2.73192
2794.78	2.21575
2796.11	2.09981
2797.44	1.11766
2798.77	1.51842
2800.1	1.24792
2801.43	0.965212
2802.76	0.380086
2804.09	0.137821
2805.41	0.600027
2806.74	0.197148
2808.07	0.303882
2809.4	-0.390256
2810.72	-0.408562
2812.05	-0.230766
2813.38	-0.541232
2814.71	-0.32404
2816.03	0.262274
2817.36	0.519334
2818.68	1.04476
2820.01	1.72712
2821.33	1.91778
2822.66	3.00647
2823.98	3.47893
2825.31	3.96705
2826.63	5.25248
2827.96	6.69658
2829.28	8.00323
2830.6	9.32941
2831.93	10.7182
2833.25	12.1993
2834.57	13.422
2835.9	14.9512
2837.22	16.0161
2838.54	18.4155
2839.86	20.6871
2841.18	22.8784
2842.5	25.058
2843.83	27.1271
2845.15	28.9953
2846.47	32.0386
2847.79	35.0318
2849.11	37.8558
2850.43	41.1103
2851.75	44.3455
2853.07	47.454
2854.39	50.6677
2855.71	53.4808
2857.03	56.4174
2858.35	59.253
2859.66	61.9397
2860.98	64.2546
2862.3	67.0023
2863.62	69.4845
2864.94	72.3554
2866.25	74.5084
2867.57	76.2168
2868.89	78.2268
2870.2	80.482
2871.52	82.0989
2872.84	83.4789
2874.15	85.6423
2875.47	86.9059
2876.78	89.0636
2878.1	90.422
2879.41	92.1537
2880.73	93.5625
2882.04	95.3281
2883.36	96.8923
2884.67	98.8158
2885.99	99.503
2887.3	100.406
2888.61	101.545
2889.93	102.126
2891.24	103.606
2892.55	104.913
2893.86	106.71
2895.18	108.289
2896.49	110.481
2897.8	112.795
2899.11	114.863
2900.42	117.925
2901.73	121.298
2903.05	124.27
2904.36	127.611
2905.67	130.787
2906.98	134.047
2908.29	137.483
2909.6	141.015
2910.91	145.025
2912.21	149.823
2913.52	153.676
2914.83	157.492
2916.14	161.574
2917.45	165.904
2918.76	169.508
2920.07	172.816
2921.37	175.956
2922.68	179.396
2923.99	182.035
2925.29	184.551
2926.6	187.426
2927.91	189.226
2929.22	191.241
2930.52	192.807
2931.83	193.46
2933.13	193.772
2934.44	194.471
2935.74	194.286
2937.05	194.314
2938.35	193.706
2939.66	192.077
2940.96	190.582
2942.26	188.685
2943.57	185.987
2944.87	183.721
2946.18	181.418
2947.48	179.066
2948.78	175.888
2950.08	172.208
2951.39	168.067
2952.69	164.451
2953.99	161.317
2955.29	158.138
2956.59	155.056
2957.9	151.831
2959.2	149.053
2960.5	145.455
2961.8	141.798
2963.1	137.975
2964.4	133.527
2965.7	130.494
2967	126.845
2968.3	122.391
2969.6	118.452
2970.9	115.009
2972.19	111.064
2973.49	107.151
2974.79	103.546
2976.09	100.481
2977.39	96.9269
2978.68	92.9025
2979.98	89.5144
2981.28	85.6997
2982.58	81.9493
2983.87	77.734
2985.17	73.8689
2986.47	70.3653
2987.76	66.2031
2989.06	62.8037
2990.35	59.1471
2991.65	55.938
2992.94	52.4642
2994.24	49.468
2995.53	45.7807
2996.83	42.2078
2998.12	39.4882
2999.42	36.4601
3000.71	33.3349
3002	30.6766
3003.3	27.3011
3004.59	24.5774
3005.88	22.3316
3007.18	19.7124
3008.47	17.8738
3009.76	15.982
3011.05	14.7445
3012.34	13.2426
3013.64	11.3944
3014.93	10.3334
3016.22	9.18606
3017.51	8.17706
3018.8	7.37895
3020.09	6.45131
3021.38	5.53713
3022.67	4.93459
3023.96	4.22086
3025.25	3.35767
3026.54	2.59677
3027.83	2.11568
3029.12	0.934978
3030.41	1.16698
3031.69	1.50675
3032.98	1.73255
3034.27	1.8298
3035.56	1.72049
3036.84	2.11352
3038.13	2.22868
3039.42	2.3012
3040.71	2.35842
3041.99	2.09269
3043.28	2.20986
3044.57	2.00798
3045.85	2.09738
3047.14	2.51757
3048.42	2.98744
3049.71	3.13717
3050.99	2.74309
3052.28	2.99429
3053.56	3.28936
3054.85	3.00639
3056.13	3.34291
3057.41	3.76291
3058.7	3.4803
3059.98	3.48569
3061.26	3.78974
3062.55	3.99112
3063.83	3.82099
3065.11	3.57237
3066.39	3.56218
3067.68	3.4508
3068.96	2.72218
3070.24	2.55827
3071.52	2.26708
3072.8	2.0952
3074.08	1.71543
3075.36	1.91583
3076.65	2.03194
3077.93	2.04984
3079.21	1.71375
3080.49	1.78593
3081.77	1.99651
3083.04	2.07408
3084.32	2.08194
3085.6	1.97507
3086.88	1.79203
3088.16	1.53909
3089.44	1.23636
3090.72	1.11116
3091.99	0.949931
3093.27	1.25877
3094.55	1.95738
3095.83	2.50436
3097.1	2.45057
3098.38	2.49786
3099.66	3.05688
3100.93	3.58286
3102.21	3.3085
3103.49	3.27508
3104.76	3.60678
3106.04	4.13768
3107.31	4.43762
3108.59	5.48564
3109.86	6.23211
3111.14	6.29995
3112.41	6.39757
3113.69	6.65667
3114.96	6.88076
3116.23	7.86
3117.51	7.99339
3118.78	8.94368
3120.05	9.82018
3121.33	10.623
3122.6	11.053
3123.87	11.7071
3125.14	12.4499
3126.41	12.9435
3127.69	13.1933
3128.96	13.5154
3130.23	14.1182
3131.5	14.4545
3132.77	14.8847
3134.04	16.2484
3135.31	16.9178
3136.58	17.9736
3137.85	18.7398
3139.12	19.5357
3140.39	20.2011
3141.66	20.6115
3142.93	20.7184
3144.2	20.8337
3145.47	20.7896
3146.74	20.9772
3148	21.4736
3149.27	22.4093
