#Acq. time (s)=	45
#Accumulations=	2
#Range (cm-¹)=	200...3150
#Windows=	2
#Auto scanning=	Off
#Autofocus=	Off
#Macrospot=	Off
#AutoExposure=	Off
#Spike filter=	Multiple accum.
#Delay time (s)=	0
#Binning=	1
#Readout mode=	Signal
#DeNoise=	Off
#ICS correction=	On
#Dark correction=	Off
#Inst. Process=	Off
#Detector Gain=	Best Dynamic Range
#Detector ADC=	20 kHz       
#Detector temperature (°C)=	-69.85
#Instrument=	LabRAM HR Evol
#Detector=	Synapse
#Objective=	x100
#Grating=	600 gr/mm
#ND Filter=	100%
#Laser (nm)=	532 
#Hole=	100.021
#Range=	Auto
#Laser Pol.=	No
#Raman. Pol.=	No
#Laser Pol. (°)=	-0.0007625
#Raman Pol. (°)=	89.9995
#Collection=	Microscope
#StageXY=	Marzhauser
#StageZ=	Marzhauser
#X (µm)=	-6402.9
#Y (µm)=	781.5
#Z (µm)=	-64.6
#Full time(mm:ss)=	3:18
#Project=	
#Sample=	
#Site=	
#Title=	Mb_30_27_45_2x_45s_532 nm_x100_100%_600 gr_mm
#Remark=	
#Date=	13.07.2022 12:09
#Acquired=	13.07.2022 12:09:19
#Base:Fit=	10.08.2022 10:40:03
#Base:Sub=	10.08.2022 10:40:17
#Filter:Polynom=	16.08.2022 10:16:15
#AxisType[0]=Intens
#AxisUnit[0]=Cnt
#AxisType[1]=Spectr
#AxisUnit[1]=1/cm
200.563	-7.98069
202.377	-1.79171
204.194	-0.275832
206.008	1.73988
207.821	3.62049
209.634	4.9371
211.449	6.39901
213.262	7.42429
215.074	7.57429
216.885	4.72608
218.699	2.85102
220.51	1.42716
222.321	2.54582
224.131	4.26599
225.941	6.83434
227.751	8.94064
229.562	10.0201
231.371	11.1022
233.18	12.9746
234.988	13.1109
236.796	14.431
238.603	16.162
240.411	17.5173
242.219	18.7079
244.026	18.9342
245.832	19.5658
247.638	20.3453
249.443	20.8708
251.248	20.5683
253.053	22.0188
254.857	21.0848
256.661	21.5532
258.465	21.6078
260.268	21.6468
262.071	21.1006
263.874	20.5744
265.678	20.0143
267.48	18.7291
269.282	18.5613
271.083	16.6971
272.884	15.6346
274.684	14.9312
276.484	15.3124
278.284	15.7091
280.084	15.9221
281.883	15.7149
283.682	14.6238
285.48	13.0104
287.276	12.7183
289.074	11.7959
290.871	11.226
292.668	9.54853
294.465	10.4368
296.261	9.20304
298.057	8.11872
299.853	8.33285
301.648	7.24753
303.443	5.62121
305.237	4.69216
307.032	4.74407
308.823	7.97568
310.617	10.063
312.41	12.228
314.203	12.8947
315.995	13.2348
317.788	13.5423
319.579	13.5525
321.369	14.665
323.16	15.4149
324.951	15.8793
326.741	17.6809
328.531	18.1542
330.321	18.5509
332.108	18.6326
333.897	18.8485
335.686	19.6852
337.474	19.5386
339.26	19.7491
341.048	18.8248
342.835	18.6958
344.622	18.6991
346.406	20.2915
348.192	19.0042
349.978	18.5077
351.764	17.1627
353.547	16.4885
355.332	15.2698
357.116	13.9396
358.901	13.9517
360.682	13.8515
362.466	14.386
364.249	14.1083
366.03	14.7853
367.812	14.4293
369.594	15.0974
371.374	14.9339
373.155	15.1504
374.936	15.2984
376.715	16.4917
378.495	16.6271
380.273	17.9976
382.053	18.6145
383.832	19.2202
385.609	18.9955
387.388	19.7602
389.164	20.1063
390.942	21.22
392.72	21.0189
394.495	21.5982
396.272	21.5668
398.047	21.1787
399.823	20.3744
401.597	19.7139
403.372	19.3251
405.145	19.0798
406.92	19.3104
408.693	19.2783
410.467	19.0272
412.239	19.6529
414.012	19.3221
415.783	19.1662
417.556	18.5397
419.327	18.0099
421.099	17.275
422.869	17.3389
424.64	16.8012
426.409	16.1916
428.18	16.299
429.948	15.8399
431.718	16.2935
433.486	16.3577
435.253	15.5851
437.022	14.1333
438.789	14.1108
440.558	12.5354
442.324	11.8743
444.089	10.6875
445.857	10.6701
447.622	11.164
449.386	11.2572
451.153	11.3701
452.917	11.0586
454.682	11.1506
456.446	11.2412
458.208	12.5735
459.973	12.9737
461.735	14.8064
463.497	16.2151
465.259	17.5272
467.022	19.5042
468.783	21.0616
470.544	21.8188
472.306	22.5275
474.066	22.9403
475.825	23.107
477.585	23.2701
479.346	23.9823
481.104	23.6888
482.862	24.0479
484.62	24.9078
486.38	26.4095
488.137	26.8809
489.894	27.287
491.65	28.5317
493.407	28.4889
495.164	29.2536
496.92	30.3624
498.675	30.7467
500.43	32.2135
502.184	32.0652
503.939	33.2155
505.694	33.5302
507.448	33.7969
509.201	34.0504
510.954	35.0127
512.706	35.255
514.459	35.2901
516.21	35.3578
517.962	35.6012
519.715	35.2368
521.466	34.2263
523.216	33.3582
524.966	32.5279
526.716	32.8525
528.466	31.5302
530.215	31.263
531.964	30.4454
533.712	29.6981
535.46	29.7584
537.208	29.2486
538.955	29.2781
540.703	29.4319
542.449	29.2192
544.196	29.6066
545.942	29.7679
547.688	29.2169
549.433	28.8025
551.178	27.3417
552.923	26.5012
554.667	25.3124
556.412	23.8845
558.155	23.0692
559.899	21.0495
561.642	18.408
563.385	17.5076
565.127	17.0147
566.867	16.3808
568.609	15.8257
570.35	15.7595
572.092	15.2673
573.832	14.197
575.573	13.0086
577.313	12.9155
579.053	12.1176
580.79	10.4783
582.529	10.3832
584.268	9.71235
586.006	9.01644
587.745	9.12386
589.482	8.0464
591.218	6.79648
592.955	5.33753
594.692	4.39138
596.428	3.99168
598.164	4.65927
599.898	4.85675
601.634	4.91681
603.369	4.92807
605.104	5.51961
606.836	5.76727
608.57	5.82019
610.304	6.77301
612.037	7.89369
613.769	8.01558
615.501	7.15531
617.234	7.20584
618.966	7.45024
620.696	9.03789
622.427	10.0236
624.159	9.70634
625.887	10.301
627.618	10.6093
629.348	11.2079
631.076	11.1163
632.806	11.4674
634.535	11.6009
636.262	13.1351
637.99	13.5677
639.716	14.415
641.444	15.0093
643.172	15.5774
644.897	16.4292
646.624	16.1209
648.348	16.0174
650.075	17.382
651.801	18.3669
653.524	18.8109
655.249	19.1507
656.972	19.8601
658.697	20.4208
660.419	21.559
662.143	22.5246
663.865	22.8294
665.588	22.6419
667.309	22.4336
669.032	22.563
670.752	23.2747
672.474	23.416
674.194	23.2994
675.915	23.0738
677.634	23.7564
679.355	24.1828
681.073	25.8785
682.793	27.178
684.511	28.2615
686.23	28.9485
687.947	30.0282
689.664	30.5583
691.382	31.3908
693.098	32.0694
694.816	32.8317
696.531	33.8919
698.247	34.9049
699.963	35.5044
701.678	36.8634
703.392	36.5911
705.108	37.5392
706.821	38.5826
708.534	38.9671
710.249	39.8925
711.962	41.6123
713.674	43.4578
715.388	43.5399
717.099	44.7577
718.81	46.0846
720.523	46.6282
722.234	46.7754
723.944	46.2694
725.654	46.187
727.365	45.8664
729.075	45.8087
730.784	46.3346
732.492	46.0968
734.202	46.2731
735.91	47.6067
737.618	47.4438
739.325	47.8734
741.034	48.2821
742.741	49.3973
744.447	50.1608
746.153	50.6145
747.859	51.3159
749.564	51.7252
751.271	51.7293
752.976	52.7091
754.681	54.2807
756.385	55.179
758.088	54.7844
759.792	56.1241
761.495	57.3658
763.2	57.9909
764.902	59.3083
766.604	60.8413
768.306	62.1654
770.008	63.5458
771.709	65.0096
773.41	67.2298
775.11	67.8222
776.811	69.1716
778.51	70.5235
780.21	71.8615
781.909	73.0916
783.608	74.5635
785.307	75.4843
787.005	76.4958
788.703	77.0889
790.401	79.4772
792.098	80.2574
793.795	81.2714
795.492	81.5592
797.188	81.9686
798.884	82.3679
800.58	82.6086
802.276	83.3996
803.971	82.8922
805.665	82.348
807.36	81.5721
809.054	81.9852
810.748	81.7465
812.441	82.0093
814.135	82.3692
815.826	82.7471
817.518	82.7641
819.21	82.8087
820.902	82.6572
822.594	81.9416
824.285	82.5338
825.976	81.3402
827.665	80.8864
829.355	79.9461
831.045	79.2949
832.735	78.522
834.424	76.6718
836.111	75.3404
837.8	75.3451
839.488	74.1786
841.177	72.3242
842.864	71.7767
844.55	70.9337
846.237	69.1786
847.924	68.4814
849.61	68.7214
851.295	67.2824
852.98	66.4255
854.666	65.8724
856.349	63.8394
858.034	62.6379
859.719	60.5889
861.403	59.568
863.085	58.3522
864.769	57.8675
866.452	56.677
868.133	56.4813
869.816	55.358
871.498	54.5147
873.179	53.7149
874.86	52.168
876.54	51.6705
878.221	50.6372
879.902	49.9845
881.58	49.1792
883.26	49.61
884.938	49.6554
886.618	48.3122
888.297	47.9896
889.974	47.0149
891.653	46.9989
893.329	47.3937
895.007	47.2184
896.683	47.47
898.36	47.2686
900.035	47.4855
901.712	47.8378
903.387	47.9995
905.063	48.1193
906.737	48.101
908.412	47.7292
910.085	47.3132
911.76	47.3937
913.433	47.6992
915.107	47.9495
916.779	47.4212
918.452	47.6814
920.124	48.8753
921.797	49.9765
923.467	50.2734
925.138	50.0329
926.81	49.7736
928.48	49.0219
930.151	49.1998
931.82	49.7514
933.489	49.8843
935.16	49.0467
936.828	48.5995
938.496	48.5408
940.165	47.6206
941.833	48.2269
943.5	48.0361
945.168	48.4898
946.834	48.016
948.5	47.5734
950.168	47.7327
951.834	47.9487
953.499	47.3221
955.163	47.6591
956.83	47.7698
958.494	46.6298
960.158	46.391
961.821	46.0336
963.487	46.4432
965.15	46.5645
966.812	47.7616
968.474	47.8989
970.138	47.741
971.8	48.4835
973.461	48.633
975.123	49.5527
976.783	49.9278
978.446	50.6093
980.106	50.7162
981.766	50.3615
983.425	51.3369
985.084	52.0829
986.743	52.0451
988.402	52.7922
990.06	51.8721
991.72	51.3333
993.378	50.6457
995.035	49.8097
996.692	49.3508
998.349	49.0203
1000.01	48.0577
1001.66	48.0551
1003.32	47.1788
1004.97	46.4902
1006.63	46.3968
1008.28	45.8281
1009.94	46.5905
1011.59	47.7047
1013.25	48.6459
1014.9	49.5937
1016.55	49.8602
1018.21	49.8652
1019.86	49.4762
1021.51	50.5848
1023.16	51.3616
1024.81	50.8732
1026.47	50.8504
1028.12	51.0703
1029.77	51.0439
1031.42	51.0728
1033.07	51.0857
1034.72	50.4645
1036.37	50.5982
1038.02	49.8845
1039.67	49.3003
1041.31	47.644
1042.96	47.8113
1044.61	48.0587
1046.26	48.044
1047.91	47.4049
1049.55	47.02
1051.2	45.7981
1052.84	44.4262
1054.49	42.8184
1056.14	41.2603
1057.78	40.1345
1059.43	39.1041
1061.07	37.4719
1062.72	35.633
1064.36	34.1515
1066	33.1462
1067.65	30.9721
1069.29	29.1388
1070.93	28.0681
1072.58	25.0825
1074.22	23.4608
1075.86	21.7901
1077.5	21.0467
1079.14	20.1001
1080.78	19.5423
1082.42	18.1147
1084.06	17.878
1085.7	18.1716
1087.34	18.8867
1088.98	19.9052
1090.62	19.7318
1092.26	20.0229
1093.9	20.0331
1095.54	20.4705
1097.17	19.3886
1098.81	19.7191
1100.45	20.737
1102.09	20.326
1103.72	20.7582
1105.36	20.0137
1106.99	19.0107
1108.63	19.9848
1110.27	20.0293
1111.9	20.0173
1113.53	19.8067
1115.17	19.9009
1116.8	19.8385
1118.43	19.2489
1120.07	18.6672
1121.7	17.9745
1123.33	17.2562
1124.97	18.027
1126.6	17.1281
1128.23	16.7957
1129.86	15.8746
1131.49	15.5431
1133.12	14.5317
1134.75	13.576
1136.38	12.8835
1138.01	12.3534
1139.64	11.7267
1141.27	11.4539
1142.9	10.7825
1144.53	10.1733
1146.16	9.2662
1147.78	7.77279
1149.41	7.39499
1151.04	7.54587
1152.67	7.18561
1154.29	5.60311
1155.92	5.72506
1157.54	4.55136
1159.17	3.55142
1160.8	3.28649
1162.42	2.53068
1164.05	1.04797
1165.67	0.716852
1167.29	0.799927
1168.92	1.07407
1170.54	0.620601
1172.16	0.614402
1173.79	0.659594
1175.41	1.30378
1177.03	1.8188
1178.65	1.90054
1180.28	3.51316
1181.9	2.57779
1183.52	2.33617
1185.14	2.89018
1186.76	3.00356
1188.38	3.34288
1190	5.00247
1191.62	5.27415
1193.24	7.08955
1194.86	8.5655
1196.47	8.94012
1198.09	9.6941
1199.71	11.1467
1201.33	12.5742
1202.95	13.8693
1204.56	16.3623
1206.18	17.8488
1207.8	19.8376
1209.41	22.0576
1211.03	23.1149
1212.64	24.2669
1214.26	25.9242
1215.87	27.3755
1217.49	29.6657
1219.1	31.7594
1220.71	34.4732
1222.33	36.4719
1223.94	38.5984
1225.55	40.1627
1227.16	41.3903
1228.78	42.9561
1230.39	45.5195
1232	47.1594
1233.61	48.5542
1235.22	49.2168
1236.83	49.7314
1238.44	50.9924
1240.05	53.4777
1241.66	55.6475
1243.27	56.6385
1244.88	57.895
1246.49	59.5657
1248.1	60.4058
1249.71	62.2311
1251.32	62.3837
1252.92	63.499
1254.53	62.9176
1256.14	63.3696
1257.74	63.9083
1259.35	63.8318
1260.96	63.8352
1262.56	62.8701
1264.17	64
1265.77	64.1607
1267.38	64.3211
1268.98	64.3817
1270.59	66.094
1272.19	66.3387
1273.79	67.1648
1275.4	67.2518
1277	67.1699
1278.6	68.6629
1280.21	68.803
1281.81	69.4898
1283.41	70.3707
1285.01	71.342
1286.61	71.8354
1288.21	72.8365
1289.81	71.6456
1291.41	71.9107
1293.01	72.97
1294.61	74.4152
1296.21	74.8352
1297.81	75.9206
1299.41	76.0366
1301.01	76.4087
1302.6	76.158
1304.2	76.945
1305.8	76.4247
1307.4	76.2133
1308.99	76.3051
1310.59	76.8252
1312.19	77.5477
1313.78	78.6912
1315.38	78.5489
1316.97	79.7668
1318.57	81.05
1320.16	80.4875
1321.76	80.3292
1323.35	79.5928
1324.94	79.1782
1326.54	78.6063
1328.13	78.7827
1329.72	78.7565
1331.32	77.0501
1332.91	76.2799
1334.5	74.683
1336.09	74.2394
1337.68	73.4609
1339.27	72.695
1340.87	71.5612
1342.45	70.4343
1344.04	69.6652
1345.64	68.005
1347.22	66.7729
1348.81	65.1013
1350.4	63.8942
1351.99	62.3317
1353.58	60.6015
1355.17	59.9008
1356.75	58.4019
1358.34	57.0048
1359.93	55.6845
1361.51	54.941
1363.1	53.0484
1364.69	51.2437
1366.27	49.1015
1367.86	46.8853
1369.44	45.315
1371.03	43.852
1372.61	42.6646
1374.2	41.4758
1375.78	39.5568
1377.37	37.836
1378.95	36.3262
1380.53	35.0558
1382.11	33.9533
1383.7	32.8936
1385.28	31.6037
1386.86	31.3912
1388.44	31.0221
1390.02	31.8778
1391.6	32.6543
1393.19	32.6062
1394.77	31.9541
1396.35	31.7086
1397.93	30.2151
1399.51	29.8188
1401.08	29.8953
1402.66	29.1117
1404.24	29.4359
1405.82	29.891
1407.4	30.8355
1408.97	30.7646
1410.55	31.7622
1412.13	33.0145
1413.71	34.4961
1415.28	36.1389
1416.86	37.5161
1418.43	38.8855
1420.01	40.2241
1421.59	42.6318
1423.16	44.3579
1424.73	46.8938
1426.31	49.3933
1427.88	51.1982
1429.46	53.5089
1431.03	56.7973
1432.6	59.1458
1434.18	61.5061
1435.75	63.703
1437.32	65.5967
1438.89	67.0353
1440.46	68.4808
1442.04	69.2993
1443.61	70.0746
1445.18	70.7425
1446.75	70.909
1448.32	72.0243
1449.89	71.2033
1451.46	70.9289
1453.03	70.0778
1454.6	68.7642
1456.16	67.9153
1457.73	67.3801
1459.3	67.2043
1460.87	66.7424
1462.44	65.4862
1464	64.4935
1465.57	63.8631
1467.14	63.19
1468.7	62.1844
1470.27	60.5826
1471.83	57.6977
1473.4	56.3394
1474.96	54.037
1476.53	51.5642
1478.09	49.9903
1479.66	47.5673
1481.22	45.3741
1482.78	44.3655
1484.35	43.2135
1485.91	41.8012
1487.47	40.2645
1489.04	38.4262
1490.6	36.2735
1492.16	34.7815
1493.72	33.7268
1495.28	32.8774
1496.84	32.5065
1498.4	32.5274
1499.96	32.0158
1501.52	31.5963
1503.08	31.3395
1504.64	31.0425
1506.2	30.6964
1507.76	30.4961
1509.32	30.2134
1510.88	29.5018
1512.44	28.4653
1513.99	28.1362
1515.55	26.7374
1517.11	25.7313
1518.66	25.5738
1520.22	24.2231
1521.78	23.847
1523.33	23.5278
1524.89	23.3224
1526.44	22.6783
1528	21.879
1529.55	21.6327
1531.11	21.9545
1532.66	22.3144
1534.21	22.3191
1535.77	21.5744
1537.32	22.2723
1538.87	22.88
1540.43	23.4382
1541.98	23.8813
1543.53	24.8013
1545.08	25.0777
1546.63	25.5103
1548.18	26.2149
1549.74	27.0711
1551.29	28.4702
1552.84	28.7123
1554.39	29.0888
1555.94	29.5504
1557.48	30.0102
1559.03	30.7439
1560.58	31.9425
1562.13	32.1577
1563.68	32.692
1565.23	33.6296
1566.78	34.1921
1568.32	35.0975
1569.87	37.2463
1571.42	39.0797
1572.96	40.8667
1574.51	42.1333
1576.05	44.0974
1577.6	45.1525
1579.14	46.5912
1580.69	47.7245
1582.24	48.9294
1583.78	50.1003
1585.32	51.9756
1586.87	53.2277
1588.41	54.3546
1589.95	55.5128
1591.5	56.6054
1593.04	58.114
1594.58	58.871
1596.12	60.0349
1597.67	61.0915
1599.21	61.5961
1600.75	61.5853
1602.29	61.5507
1603.83	61.4064
1605.37	61.5963
1606.91	61.116
1608.45	60.924
1609.99	60.6185
1611.53	59.684
1613.07	60.1454
1614.6	60.9682
1616.14	61.5423
1617.68	61.7131
1619.22	62.1317
1620.75	63.3551
1622.29	64.4197
1623.83	66.2155
1625.37	67.7101
1626.9	70.1844
1628.44	71.7965
1629.97	73.1485
1631.51	74.6488
1633.04	76.7853
1634.58	78.9191
1636.11	80.9181
1637.65	82.9416
1639.18	85.1622
1640.72	87.5859
1642.25	89.7024
1643.78	92.5408
1645.31	95.0256
1646.85	98.0465
1648.38	100.169
1649.91	102.521
1651.44	103.589
1652.97	105.109
1654.5	105.639
1656.03	106.06
1657.56	106.622
1659.1	106.804
1660.62	107.333
1662.15	106.735
1663.68	105.313
1665.21	105.042
1666.74	103.586
1668.27	102.064
1669.8	99.6038
1671.32	96.6937
1672.85	94.5239
1674.38	91.4611
1675.91	87.8688
1677.43	84.2743
1678.96	80.3642
1680.49	76.4423
1682.01	71.9501
1683.54	68.1877
1685.06	64.2163
1686.59	60.0744
1688.11	56.4672
1689.64	52.9069
1691.16	49.4218
1692.68	46.6915
1694.21	43.8633
1695.73	40.8721
1697.25	38.1981
1698.78	35.9696
1700.3	33.6085
1701.82	31.666
1703.34	29.9998
1704.86	28.0785
1706.39	25.4323
1707.91	22.0643
1709.43	19.5069
1710.95	18.5589
1712.47	18.2958
1713.99	18.2485
1715.51	18.2635
1717.02	18.2123
1718.54	19.286
1720.06	19.9982
1721.58	19.311
1723.1	19.172
1724.62	19.1043
1726.13	18.3283
1727.65	17.6155
1729.17	17.0028
1730.68	16.6753
1732.2	16.6298
1733.72	16.6782
1735.23	16.5722
1736.75	16.671
1738.26	16.2737
1739.78	16.2945
1741.29	16.5519
1742.81	15.6216
1744.32	15.1681
1745.84	14.6792
1747.35	14.793
1748.86	14.3122
1750.37	13.575
1751.89	12.8981
1753.4	11.6856
1754.91	11.282
1756.42	11.0863
1757.93	10.5343
1759.45	9.93376
1760.96	9.22327
1762.47	8.48146
1763.98	7.9754
1765.49	7.04994
1767	6.60938
1768.51	5.83343
1770.02	5.21422
1771.53	4.58878
1773.03	3.99141
1774.54	3.7208
1776.05	3.12314
1777.56	2.82847
1779.07	2.11422
1780.57	1.53482
1782.08	0.246073
1783.59	0.312701
1785.09	2.11423
1786.6	3.82859
1788.11	4.17412
1789.61	4.45893
1791.12	4.2067
1792.62	4.09822
1794.13	4.3806
1795.63	3.173
1797.13	2.52829
1798.64	2.29796
1800.14	1.97317
1801.65	1.77763
1803.15	2.0989
1804.65	2.29075
1806.15	2.56141
1807.66	2.06783
1809.16	1.56594
1810.66	1.1345
1812.16	1.0984
1813.66	1.0146
1815.16	1.30009
1816.66	1.41706
1818.16	1.11397
1819.66	1.18913
1821.16	1.15111
1822.66	0.789364
1824.16	0.70808
1825.66	0.682116
1827.16	0.726951
1828.66	0.667188
1830.16	1.05996
1831.65	0.625883
1833.15	0.458638
1834.65	0.909309
1836.14	1.04653
1837.64	1.18869
1839.14	1.22616
1840.63	1.30412
1842.13	1.82614
1843.62	1.70464
1845.12	1.88622
1846.61	2.27835
1848.11	2.3326
1849.6	2.85762
1851.1	2.53821
1852.59	2.53591
1854.08	2.41229
1855.58	1.82618
1857.07	1.52676
1858.56	1.56923
1860.05	1.45033
1861.55	1.63541
1863.04	1.73498
1864.53	1.93161
1866.02	1.13484
1867.51	0.896136
1869	1.29316
1870.49	1.31309
1871.98	1.57111
1873.47	1.81779
1874.96	2.20368
1876.45	2.75952
1877.94	2.66813
1879.43	2.66606
1880.92	2.21045
1882.41	2.48365
1882.51	3.22783
1884	3.13664
1885.5	3.64513
1886.99	3.50025
1888.48	3.26829
1889.98	3.10501
1891.47	3.5782
1892.96	4.56047
1894.46	4.58345
1895.95	5.36598
1897.44	5.57641
1898.93	5.46127
1900.42	5.7624
1901.91	5.65048
1903.41	5.68073
1904.9	5.50176
1906.39	5.91042
1907.88	6.18548
1909.37	5.83288
1910.86	6.1464
1912.35	6.48818
1913.83	6.59966
1915.32	6.28109
1916.81	5.69967
1918.3	5.79725
1919.79	5.67575
1921.27	5.56256
1922.76	5.26924
1924.25	4.90457
1925.74	5.57895
1927.22	5.34572
1928.71	5.31525
1930.19	5.61905
1931.68	5.9426
1933.17	4.94375
1934.65	4.19826
1936.14	3.71528
1937.62	3.77012
1939.11	3.56029
1940.59	4.41852
1942.07	4.69865
1943.56	4.69893
1945.04	4.89826
1946.52	4.87949
1948.01	5.24353
1949.49	5.45714
1950.97	5.25091
1952.45	4.92792
1953.93	4.54405
1955.42	4.71308
1956.9	3.94575
1958.38	3.43395
1959.86	3.10112
1961.34	2.87802
1962.82	3.02315
1964.3	3.10736
1965.78	3.40438
1967.26	3.76832
1968.74	3.19863
1970.21	3.07447
1971.69	2.7762
1973.17	2.79689
1974.65	2.80607
1976.13	2.76368
1977.6	2.65092
1979.08	2.25613
1980.56	2.28617
1982.03	2.4395
1983.51	2.54404
1984.99	3.27678
1986.46	3.19016
1987.94	2.29923
1989.41	2.43526
1990.89	2.94054
1992.36	3.23475
1993.84	3.87175
1995.31	3.94776
1996.78	4.89306
1998.26	5.4345
1999.73	6.04733
2001.2	5.95003
2002.68	5.73135
2004.15	5.72366
2005.62	5.65565
2007.09	4.73302
2008.56	5.40546
2010.04	6.37969
2011.51	7.04082
2012.98	7.87967
2014.45	8.23655
2015.92	7.70142
2017.39	8.15504
2018.86	8.13725
2020.33	8.13864
2021.8	8.06155
2023.26	7.83892
2024.73	7.72436
2026.2	7.21319
2027.67	6.80155
2029.14	6.94567
2030.61	6.84373
2032.07	7.26629
2033.54	7.53976
2035.01	7.16569
2036.47	7.27307
2037.94	7.48269
2039.4	7.55839
2040.87	7.6857
2042.33	7.66059
2043.8	7.83475
2045.27	8.10214
2046.73	8.05671
2048.19	7.94135
2049.66	7.93803
2051.12	7.68419
2052.59	7.73096
2054.05	7.95819
2055.51	8.69098
2056.97	9.69683
2058.44	10.1173
2059.9	9.69105
2061.36	10.3375
2062.82	11.7882
2064.28	11.6348
2065.74	12.35
2067.21	12.7591
2068.67	12.8725
2070.13	13.8427
2071.59	13.5962
2073.05	14.7618
2074.51	14.9412
2075.96	15.0422
2077.42	15.6783
2078.88	15.98
2080.34	16.8075
2081.8	17.5031
2083.26	17.8886
2084.72	18.6946
2086.17	19.2249
2087.63	19.3882
2089.09	20.2154
2090.54	21.0355
2092	21.6463
2093.45	22.1233
2094.91	22.7406
2096.37	23.0378
2097.82	23.8235
2099.28	23.8093
2100.73	24.7083
2102.19	25.557
2103.64	25.971
2105.09	27.0224
2106.55	27.4356
2108	27.4538
2109.45	28.8345
2110.91	29.8503
2112.36	30.8973
2113.81	32.2742
2115.26	33.7734
2116.72	34.0239
2118.17	35.2644
2119.62	36.3896
2121.07	37.3921
2122.52	38.9351
2123.97	40.858
2125.42	42.483
2126.87	44.6843
2128.32	47.1926
2129.77	48.6834
2131.22	49.6835
2132.67	51.8485
2134.11	53.8727
2135.56	55.5199
2137.01	56.6972
2138.46	59.6327
2139.91	61.3105
2141.35	63.6374
2142.8	66.0132
2144.25	69.1391
2145.7	71.6426
2147.14	73.824
2148.59	76.1911
2150.03	78.8102
2151.48	80.6648
2152.92	83.0232
2154.37	84.9566
2155.81	87.3646
2157.26	89.8905
2158.7	91.5894
2160.15	93.6574
2161.59	95.3674
2163.03	96.5568
2164.47	97.8635
2165.92	99.0484
2167.36	100.422
2168.8	101.158
2170.24	102.737
2171.69	103.491
2173.13	104.255
2174.57	104.552
2176.01	104.858
2177.45	105.572
2178.89	104.581
2180.33	104.031
2181.77	103.206
2183.21	102.323
2184.65	101.176
2186.09	99.3929
2187.53	97.9054
2188.97	95.7354
2190.4	94.5056
2191.84	92.2015
2193.28	89.9007
2194.72	88.3307
2196.16	86.4208
2197.59	84.2673
2199.03	81.5348
2200.47	78.8892
2201.9	76.2551
2203.34	74.2657
2204.77	72.237
2206.21	70.0174
2207.64	67.9366
2209.08	66.0181
2210.51	64.2095
2211.95	61.7422
2213.38	60.1796
2214.82	58.4031
2216.25	56.8699
2217.68	54.0902
2219.12	53.2192
2220.55	50.9683
2221.98	48.4616
2223.41	46.785
2224.85	45.9622
2226.28	44.6916
2227.71	43.6243
2229.14	42.6148
2230.57	41.2122
2232	40.3055
2233.43	39.4567
2234.86	38.5901
2236.29	37.9817
2237.72	37.1387
2239.15	35.8974
2240.58	35.26
2242.01	34.424
2243.44	33.2529
2244.87	32.3641
2246.29	31.5886
2247.72	30.9395
2249.15	30.1827
2250.58	29.0693
2252.01	28.8484
2253.43	27.8117
2254.86	27.3684
2256.29	26.3389
2257.71	25.2212
2259.14	24.7126
2260.56	23.8686
2261.99	22.7892
2263.41	21.9098
2264.84	21.1821
2266.26	21.0837
2267.69	20.2046
2269.11	19.6616
2270.53	18.7041
2271.96	18.7237
2273.38	18.6468
2274.8	18.261
2276.23	17.8642
2277.65	17.7823
2279.07	16.4956
2280.49	16.1103
2281.91	15.7611
2283.34	15.7155
2284.76	15.1217
2286.18	14.4344
2287.6	14.204
2289.02	13.7264
2290.44	13.3031
2291.86	11.6946
2293.28	11.1168
2294.7	11.9189
2296.12	11.8782
2297.54	11.8162
2298.96	11.8205
2300.37	11.4389
2301.79	11.4002
2303.21	11.1936
2304.63	11.0339
2306.04	10.6378
2307.46	10.6885
2308.88	10.5125
2310.3	10.3295
2311.71	10.8488
2313.13	10.3414
2314.54	10.5783
2315.96	11.2503
2317.37	12.1974
2318.79	12.3117
2320.2	11.7668
2321.62	11.3819
2323.03	11.156
2324.45	10.8658
2325.86	10.9892
2327.27	10.517
2328.69	10.4176
2330.1	10.9818
2331.51	10.3572
2332.92	10.2965
2334.34	9.91938
2335.75	10.2113
2337.16	10.0844
2338.57	9.27554
2339.98	9.1614
2341.39	8.58533
2342.8	8.39169
2344.21	8.21596
2345.63	7.74367
2347.04	7.54348
2348.45	7.27315
2349.85	6.81965
2351.26	6.71543
2352.67	5.9317
2354.08	4.88212
2355.49	4.46745
2356.9	4.65734
2358.3	4.07895
2359.71	3.49836
2361.12	3.06901
2362.53	2.79049
2363.93	3.66061
2365.34	3.45479
2366.75	3.52308
2368.15	3.46043
2369.56	2.83405
2370.97	2.01715
2372.37	1.60807
2373.77	1.15084
2375.18	1.3388
2376.59	1.01819
2377.99	0.886074
2379.39	0.653823
2380.8	0.0810108
2382.2	0.627021
2383.6	0.686921
2385.01	0.896562
2386.41	0.884079
2387.81	0.542619
2389.21	-0.285673
2390.62	-0.550992
2392.02	-0.158795
2393.42	0.0185278
2394.82	0.501335
2396.22	0.845109
2397.62	0.634067
2399.02	1.49266
2400.42	2.1313
2401.82	1.81945
2403.22	2.27174
2404.62	2.70957
2406.02	3.16009
2407.42	2.38128
2408.82	3.52075
2410.22	3.98867
2411.62	4.56185
2413.01	4.99431
2414.41	4.87506
2415.81	5.4761
2417.21	6.30601
2418.6	6.35466
2420	6.56298
2421.4	6.20452
2422.79	6.38519
2424.19	7.0111
2425.59	8.27443
2426.98	8.34468
2428.38	7.97069
2429.77	8.35223
2431.17	9.03665
2432.56	9.27612
2433.95	9.37733
2435.35	9.03822
2436.74	9.55143
2438.14	8.62615
2439.53	8.2566
2440.92	8.29837
2442.31	8.34172
2443.71	8.17313
2445.1	8.21512
2446.49	7.70834
2447.88	7.41955
2449.27	6.99305
2450.67	6.73646
2452.06	6.94879
2453.45	6.48101
2454.84	5.97097
2456.23	5.53957
2457.62	5.21007
2459.01	5.27112
2460.4	4.8069
2461.79	4.77067
2463.18	4.81235
2464.57	5.13254
2465.95	4.97732
2467.34	4.71076
2468.73	5.37094
2470.12	4.86836
2471.5	4.62691
2472.89	4.5722
2474.28	4.67612
2475.67	4.46014
2477.05	4.79643
2478.44	5.47903
2479.82	5.01226
2481.21	5.1345
2482.6	4.8059
2483.98	4.49321
2485.37	4.54705
2486.75	4.47903
2488.13	3.64102
2489.52	3.25001
2490.9	2.5793
2492.29	2.77403
2493.67	3.2602
2495.05	3.32363
2496.44	2.74916
2497.82	2.63212
2499.2	2.59338
2500.58	2.64863
2501.97	2.12924
2503.35	1.85118
2504.73	2.20744
2506.11	1.97002
2507.49	1.57999
2508.87	1.27424
2510.25	0.594663
2511.63	0.3538
2513.01	0.547869
2514.39	1.01693
2515.77	0.721842
2517.15	0.984125
2518.53	1.31069
2519.91	1.89223
2521.29	1.75276
2522.67	1.76549
2524.05	1.51397
2525.42	1.75285
2526.8	2.18749
2528.18	2.72277
2529.55	2.35102
2530.93	2.79595
2532.31	3.39128
2533.69	3.30045
2535.06	3.59347
2536.44	3.55416
2537.81	3.98854
2539.19	3.48742
2540.56	3.97453
2541.94	4.58979
2543.31	5.21914
2544.69	5.33897
2546.06	5.24125
2547.44	5.44101
2548.81	5.0549
2550.18	4.48128
2551.56	3.70616
2552.93	3.56826
2554.3	3.61036
2555.67	3.63129
2557.04	3.36632
2558.42	3.10308
2559.79	3.50303
2561.16	3.97275
2562.53	4.54496
2563.9	4.02663
2565.27	3.26597
2566.64	3.03606
2568.01	3.16905
2569.38	3.55371
2570.75	3.64152
2572.12	3.43506
2573.49	3.13409
2574.86	2.84531
2576.23	2.23931
2577.6	1.82026
2578.97	1.9838
2580.33	2.23355
2581.7	2.63673
2583.07	2.41439
2584.44	2.37998
2585.8	2.88408
2587.17	2.6957
2588.54	2.56086
2589.9	2.61588
2591.27	3.14578
2592.64	2.91111
2594	2.96573
2595.37	2.68039
2596.73	2.63966
2598.1	2.33029
2599.46	2.3721
2600.83	1.9465
2602.19	1.92346
2603.55	2.03129
2604.92	1.84019
2606.28	2.20766
2607.64	1.88343
2609.01	2.42269
2610.37	2.69201
2611.73	1.93507
2613.09	1.59872
2614.46	1.21394
2615.82	1.20097
2617.18	0.467544
2618.54	0.865782
2619.9	1.19759
2621.26	1.51653
2622.62	1.3648
2623.98	0.971712
2625.34	1.19982
2626.7	0.746363
2628.06	1.30709
2629.42	1.03021
2630.78	1.30745
2632.14	0.449918
2633.5	0.535278
2634.86	1.09645
2636.21	0.953621
2637.57	0.880405
2638.93	0.453472
2640.29	0.771384
2641.64	0.722179
2643	0.656372
2644.36	0.384253
2645.71	0.397323
2647.07	0.967087
2648.43	1.85467
2649.78	2.59631
2651.14	2.59124
2652.49	3.56606
2653.85	4.25895
2655.2	4.30659
2656.56	4.47211
2657.91	4.92969
2659.26	4.99947
2660.62	4.98407
2661.97	5.09343
2663.32	5.25332
2664.68	5.39056
2666.03	5.46066
2667.38	5.35451
2668.74	5.44003
2670.09	6.15068
2671.44	5.98693
2672.79	6.09852
2674.14	5.82737
2675.49	5.55227
2676.84	5.82989
2678.19	5.52637
2679.54	4.83541
2680.89	4.91491
2682.24	4.80555
2683.59	5.19257
2684.94	5.3759
2686.29	5.59429
2687.64	4.84543
2688.99	4.21327
2690.34	4.11677
2691.69	3.96034
2693.03	4.39823
2694.38	4.30045
2695.73	4.86284
2697.08	4.64451
2698.42	4.56149
2699.77	4.27256
2701.12	4.98262
2702.46	5.20351
2703.81	4.82961
2705.15	5.22698
2706.5	5.32102
2707.85	5.60576
2709.19	5.31294
2710.54	5.77659
2711.88	6.1852
2713.22	6.58144
2714.57	6.82309
2715.91	7.28576
2717.26	6.90161
2718.6	7.11831
2719.94	7.36707
2721.29	7.02423
2722.63	6.33991
2723.97	5.90845
2725.31	6.12647
2726.66	6.00221
2728	5.83149
2729.34	5.58542
2730.68	5.15112
2732.02	5.0479
2733.36	5.26223
2734.7	5.31123
2736.04	5.56154
2737.38	5.97453
2738.72	5.46046
2740.06	5.68172
2741.4	5.63739
2742.74	5.88599
2744.08	5.82053
2745.42	5.94115
2746.76	6.02264
2748.09	6.28187
2749.43	5.90006
2750.77	5.57343
2752.11	5.17392
2753.45	4.93988
2754.78	4.43141
2756.12	4.75296
2757.46	4.60311
2758.79	4.47521
2760.13	4.3858
2761.46	3.97367
2762.8	3.61111
2764.14	3.47687
2765.47	3.75713
2766.8	3.86248
2768.14	3.69423
2769.47	3.16134
2770.81	3.02929
2772.14	3.26361
2773.48	2.96607
2774.81	2.55195
2776.14	2.527
2777.48	2.46561
2778.81	2.25432
2780.14	2.04763
2781.47	1.72397
2782.8	1.60787
2784.14	0.805706
2785.47	0.447965
2786.8	-0.00430273
2788.13	-0.25394
2789.46	-0.452242
2790.79	-0.266598
2792.12	0.0634844
2793.45	-0.0729426
2794.78	-0.0735417
2796.11	-0.131396
2797.44	-0.16004
2798.77	0.484215
2800.1	0.489296
2801.43	0.482587
2802.76	0.667977
2804.09	0.240236
2805.41	0.217995
2806.74	0.892074
2808.07	1.0767
2809.4	1.14474
2810.72	1.30376
2812.05	1.41366
2813.38	0.935556
2814.71	0.865652
2816.03	1.03277
2817.36	1.55246
2818.68	2.18797
2820.01	2.78627
2821.33	3.61432
2822.66	4.07349
2823.98	4.65433
2825.31	5.58984
2826.63	6.81333
2827.96	7.8931
2829.28	9.36524
2830.6	11.1231
2831.93	12.2836
2833.25	13.3579
2834.57	14.9415
2835.9	16.502
2837.22	18.7357
2838.54	20.4248
2839.86	22.6025
2841.18	25.4191
2842.5	28.259
2843.83	31.5736
2845.15	34.4719
2846.47	37.4696
2847.79	40.8388
2849.11	44.238
2850.43	48.102
2851.75	52.4977
2853.07	56.5279
2854.39	60.7068
2855.71	64.8823
2857.03	69.3325
2858.35	73.1128
2859.66	76.9383
2860.98	80.7744
2862.3	84.1873
2863.62	87.5027
2864.94	90.7873
2866.25	93.9014
2867.57	97.213
2868.89	100.682
2870.2	103.494
2871.52	106.891
2872.84	110.064
2874.15	112.331
2875.47	114.995
2876.78	117.448
2878.1	120.278
2879.41	122.404
2880.73	125.25
2882.04	127.682
2883.36	130.034
2884.67	132.81
2885.99	135.63
2887.3	138.333
2888.61	140.937
2889.93	143.981
2891.24	146.764
2892.55	150.398
2893.86	153.801
2895.18	157.37
2896.49	160.746
2897.8	164.741
2899.11	169.826
2900.42	174.174
2901.73	179.576
2903.05	185.528
2904.36	191.25
2905.67	198.155
2906.98	204.932
2908.29	211.713
2909.6	219.093
2910.91	226.205
2912.21	233.574
2913.52	241.303
2914.83	248.695
2916.14	255.961
2917.45	263.313
2918.76	270.215
2920.07	276.998
2921.37	283.007
2922.68	288.276
2923.99	292.77
2925.29	296.963
2926.6	300.286
2927.91	303.086
2929.22	305.663
2930.52	307.621
2931.83	308.799
2933.13	309.918
2934.44	310.313
2935.74	309.887
2937.05	309.196
2938.35	307.716
2939.66	305.114
2940.96	302.043
2942.26	297.607
2943.57	293.151
2944.87	288.154
2946.18	283.79
2947.48	278.696
2948.78	273.391
2950.08	267.95
2951.39	262.077
2952.69	255.766
2953.99	249.532
2955.29	242.968
2956.59	237.08
2957.9	231.117
2959.2	224.992
2960.5	218.675
2961.8	212.652
2963.1	206.885
2964.4	200.804
2965.7	194.536
2967	189.203
2968.3	183.48
2969.6	178.074
2970.9	173.27
2972.19	167.76
2973.49	162.642
2974.79	157.629
2976.09	152.97
2977.39	147.655
2978.68	142.804
2979.98	137.676
2981.28	132.996
2982.58	128.257
2983.87	122.977
2985.17	117.556
2986.47	112.403
2987.76	107.118
2989.06	102.36
2990.35	97.2526
2991.65	92.3194
2992.94	88.1545
2994.24	83.477
2995.53	79.1455
2996.83	75.1141
2998.12	71.2767
2999.42	66.9501
3000.71	62.6921
3002	58.6989
3003.3	54.0529
3004.59	49.7141
3005.88	45.6322
3007.18	42.2922
3008.47	39.4255
3009.76	36.6203
3011.05	34.1975
3012.34	31.4977
3013.64	29.2323
3014.93	27.1937
3016.22	24.8926
3017.51	23.5209
3018.8	22.0773
3020.09	21.1906
3021.38	20.6135
3022.67	19.7557
3023.96	18.6704
3025.25	17.4438
3026.54	16.5841
3027.83	16.0037
3029.12	15.7266
3030.41	15.7449
3031.69	15.4392
3032.98	15.7007
3034.27	15.6965
3035.56	15.8367
3036.84	15.9229
3038.13	16.0222
3039.42	16.259
3040.71	16.8622
3041.99	17.3584
3043.28	17.856
3044.57	18.3964
3045.85	18.8473
3047.14	18.9607
3048.42	19.192
3049.71	19.4225
3050.99	19.9594
3052.28	20.4027
3053.56	20.9821
3054.85	21.1112
3056.13	21.5933
3057.41	21.8847
3058.7	21.5554
3059.98	21.3683
3061.26	20.4837
3062.55	19.5488
3063.83	18.8977
3065.11	18.0198
3066.39	17.431
3067.68	16.3491
3068.96	15.7572
3070.24	15.2036
3071.52	14.4228
3072.8	13.6216
3074.08	12.8687
3075.36	12.168
3076.65	11.2069
3077.93	10.6573
3079.21	9.92888
3080.49	9.44769
3081.77	9.27781
3083.04	8.44049
3084.32	7.82011
3085.6	6.90474
3086.88	5.78922
3088.16	5.11907
3089.44	4.63067
3090.72	4.39955
3091.99	3.84979
3093.27	3.74326
3094.55	3.43316
3095.83	3.32979
3097.1	3.29208
3098.38	2.84532
3099.66	3.17657
3100.93	3.46622
3102.21	3.498
3103.49	4.04659
3104.76	4.52878
3106.04	4.72634
3107.31	4.39652
3108.59	4.64086
3109.86	4.76641
3111.14	5.31303
3112.41	5.48777
3113.69	5.69104
3114.96	6.27649
3116.23	6.22191
3117.51	5.86906
3118.78	5.72211
3120.05	5.66847
3121.33	5.24325
3122.6	4.79286
3123.87	4.23661
3125.14	3.99019
3126.41	4.11687
3127.69	4.52881
3128.96	4.62353
3130.23	4.91263
3131.5	5.1928
3132.77	5.32625
3134.04	5.59382
3135.31	5.40404
3136.58	5.49804
3137.85	5.31926
3139.12	5.25686
3140.39	5.21691
3141.66	4.95422
3142.93	4.46136
3144.2	3.72649
3145.47	3.05587
3146.74	2.61589
3148	2.59211
3149.27	2.75138
