#Acq. time (s)=	45
#Accumulations=	2
#Range (cm-¹)=	200...3150
#Windows=	2
#Auto scanning=	Off
#Autofocus=	Off
#Macrospot=	Off
#AutoExposure=	Off
#Spike filter=	Multiple accum.
#Delay time (s)=	0
#Binning=	1
#Readout mode=	Signal
#DeNoise=	Off
#ICS correction=	On
#Dark correction=	Off
#Inst. Process=	Off
#Detector Gain=	Best Dynamic Range
#Detector ADC=	20 kHz       
#Detector temperature (°C)=	-69.85
#Instrument=	LabRAM HR Evol
#Detector=	Synapse
#Objective=	x100
#Grating=	600 gr/mm
#ND Filter=	100%
#Laser (nm)=	532 
#Hole=	100.021
#Range=	Auto
#Laser Pol.=	No
#Raman. Pol.=	No
#Laser Pol. (°)=	-0.0007625
#Raman Pol. (°)=	89.9995
#Collection=	Microscope
#StageXY=	Marzhauser
#StageZ=	Marzhauser
#X (µm)=	-1255.6
#Y (µm)=	1610.7
#Z (µm)=	-6.3
#Full time(mm:ss)=	3:18
#Project=	
#Sample=	
#Site=	
#Title=	Mb_30_27_10_2x_45s_532 nm_x100_100%_600 gr_mm
#Remark=	
#Date=	12.07.2022 16:42
#Acquired=	12.07.2022 16:42:41
#Base:Fit=	10.08.2022 10:39:47
#Base:Sub=	10.08.2022 10:39:55
#Base:Fit=	10.08.2022 10:40:03
#Base:Sub=	10.08.2022 10:40:17
#Filter:Polynom=	16.08.2022 10:16:15
#AxisType[0]=Intens
#AxisUnit[0]=Cnt
#AxisType[1]=Spectr
#AxisUnit[1]=1/cm
200.413	13.0751
202.227	14.0173
204.042	12.6765
205.856	10.9412
207.671	9.72377
209.485	8.72516
211.297	8.09052
213.11	7.60085
214.924	6.95959
216.736	6.70155
218.547	5.8426
220.358	4.84466
222.169	5.38217
223.982	4.07438
225.792	2.92242
227.601	1.34416
229.411	1.22664
231.22	1.19268
233.028	1.38759
234.837	1.86631
236.647	2.42409
238.454	2.01757
240.261	1.57588
242.068	2.03517
243.875	1.3772
245.681	1.01144
247.487	1.67155
249.292	2.15963
251.099	1.96048
252.904	1.95851
254.708	2.57673
256.512	2.86932
258.316	2.99577
260.12	2.92994
261.922	3.45776
263.725	3.82992
265.527	4.06855
267.329	4.87619
269.131	5.38774
270.932	4.86913
272.733	4.87368
274.534	4.17692
276.334	4.95074
278.134	5.61686
279.933	6.00951
281.732	6.99497
283.531	7.87742
285.329	9.69985
287.128	10.0093
288.925	10.3607
290.723	10.2825
292.52	10.4166
294.316	11.4491
296.113	12.2579
297.909	13.2367
299.702	13.6531
301.498	14.488
303.293	14.4275
305.087	14.8649
306.881	14.7496
308.675	14.1469
310.469	14.6183
312.262	14.3886
314.055	14.2185
315.845	14.9829
317.638	15.6173
319.429	17.0164
321.221	16.9527
323.012	17.6007
324.803	17.101
326.591	16.9324
328.381	16.1945
330.171	16.1072
331.96	16.3919
333.749	15.3835
335.536	15.2091
337.324	14.8765
339.112	13.9507
340.9	13.4058
342.685	13.3143
344.472	12.6483
346.259	12.0503
348.045	10.9883
349.829	11.1471
351.614	11.2113
353.4	10.4676
355.185	9.82101
356.967	9.5684
358.751	8.2235
360.535	7.80759
362.317	8.74994
364.1	8.68756
365.883	9.36529
367.663	8.92264
369.445	9.18708
371.227	10.268
373.006	10.6815
374.787	10.2614
376.568	9.22618
378.346	9.11177
380.126	10.147
381.904	10.265
383.683	11.1002
385.462	11.0886
387.239	10.9184
389.017	10.1289
390.793	9.68448
392.571	9.75744
394.348	10.0093
396.123	9.0155
397.9	9.70832
399.674	9.40207
401.45	9.14929
403.224	8.9664
404.999	8.72165
406.772	8.19084
408.546	8.02932
410.318	7.70334
412.092	7.60111
413.864	6.74062
415.637	7.04998
417.408	6.52318
419.18	6.32763
420.95	6.32966
422.722	5.50867
424.492	4.61253
426.263	4.11551
428.032	3.73837
429.802	3.19732
431.57	3.09568
433.338	2.60528
435.107	2.13719
436.874	2.56376
438.643	3.00344
440.41	4.10494
442.176	3.77148
443.943	3.91488
445.709	3.5676
447.476	3.77219
449.24	3.74908
451.005	4.3418
452.771	3.57741
454.534	4.68415
456.298	6.00725
458.063	7.21914
459.825	8.61735
461.588	9.33702
463.352	9.9928
465.113	11.3745
466.875	11.6513
468.638	12.0094
470.398	11.0488
472.158	11.6306
473.918	10.9728
475.68	11.0508
477.439	11.0671
479.198	11.4493
480.957	12.0842
482.717	11.622
484.475	10.6471
486.233	10.7088
487.99	10.0479
489.747	10.7575
491.505	11.3552
493.261	12.2257
495.017	12.2254
496.773	11.6694
498.528	11.6123
500.285	11.4151
502.039	11.8667
503.794	12.2843
505.548	11.9899
507.301	12.109
509.054	12.2589
510.807	10.6538
512.562	9.8633
514.314	10.2451
516.066	9.54796
517.817	9.86721
519.568	10.1742
521.319	9.61243
523.07	10.0663
524.82	10.4629
526.57	10.0736
528.319	9.88397
530.068	8.94624
531.817	8.7443
533.568	8.60598
535.316	8.87641
537.064	9.99627
538.811	10.3168
540.558	10.8436
542.305	11.2745
544.051	10.9818
545.798	10.8526
547.543	11.282
549.289	10.5714
551.034	10.2022
552.777	9.64292
554.521	8.7896
556.265	7.98762
558.009	8.63682
559.753	8.86607
561.496	8.18198
563.239	7.74091
564.981	7.18878
566.723	7.77457
568.465	7.20988
570.207	6.17979
571.948	5.75358
573.688	5.67144
575.427	5.94415
577.167	5.64217
578.907	5.16953
580.646	3.58474
582.385	3.01349
584.124	2.84876
585.863	3.58979
587.599	4.03189
589.337	3.98548
591.074	3.7719
592.811	3.5516
594.548	3.55536
596.283	2.23643
598.019	1.17666
599.755	1.7128
601.49	1.82537
603.223	1.3135
604.958	1.97781
606.693	1.0181
608.427	0.632936
610.159	1.18336
611.892	1.38288
613.625	2.38054
615.358	3.31775
617.089	3.43382
618.821	4.28292
620.553	5.02887
622.282	5.87376
624.014	6.38392
625.744	6.08885
627.473	6.7946
629.203	7.33807
630.933	8.57978
632.661	9.257
634.39	9.37082
636.119	9.26936
637.845	9.89874
639.574	9.90208
641.301	11.4842
643.027	12.1039
644.754	13.9269
646.479	14.2876
648.206	15.098
649.932	15.8304
651.656	17.2428
653.382	18.4725
655.105	18.7859
656.83	18.1052
658.552	19.0723
660.277	19.274
661.999	19.9137
663.722	19.5741
665.444	19.3584
667.167	19.5712
668.887	20.5453
670.61	21.2902
672.33	22.3472
674.051	21.9258
675.771	21.8346
677.492	22.4097
679.21	22.2455
680.931	22.3149
682.649	21.796
684.369	22.9599
686.086	23.572
687.803	23.6007
689.522	24.4814
691.238	25.1926
692.956	25.4089
694.672	26.7084
696.388	27.7562
698.105	28.5852
699.819	29.8127
701.536	30.0717
703.25	31.1238
704.964	32.064
706.679	33.1397
708.393	33.4528
710.105	33.9399
711.82	35.0722
713.532	35.2225
715.244	35.9592
716.957	36.265
718.669	36.0926
720.38	36.1254
722.09	37.2434
723.802	39.241
725.512	40.5349
727.222	42.4066
728.933	41.9714
730.642	42.7511
732.351	42.4275
734.059	43.313
735.767	44.0067
737.477	44.8235
739.184	44.934
740.891	45.3924
742.598	44.6489
744.304	46.5144
746.012	47.2859
747.718	48.7646
749.423	50.0265
751.128	51.4842
752.833	53.4734
754.538	55.0028
756.244	56.7205
757.947	58.107
759.651	58.5752
761.354	60.6395
763.057	61.4947
764.759	62.3382
766.462	63.2412
768.163	63.5633
769.865	65.1947
771.568	65.7127
773.269	66.6941
774.97	67.7913
776.67	68.4084
778.37	69.6599
780.069	70.9041
781.769	72.2422
783.468	73.9056
785.166	74.2853
786.865	75.5518
788.563	76.8
790.26	77.3191
791.958	78.3431
793.655	78.5746
795.352	78.99
797.048	79.9077
798.744	79.6379
800.44	79.317
802.135	79.052
803.83	79.5325
805.525	78.7078
807.218	79.0035
808.912	78.8497
810.606	78.1252
812.299	77.2809
813.993	75.9459
815.685	75.2678
817.378	74.9596
819.07	75.8516
820.762	75.5506
822.452	74.7107
824.143	74.7907
825.834	73.9321
827.525	74.0146
829.215	74.5356
830.905	73.9073
832.593	73.5419
834.282	72.1265
835.971	70.4487
837.66	68.5392
839.349	66.4913
841.035	65.3433
842.723	64.0065
844.41	62.4395
846.097	61.5508
847.782	60.6115
849.469	59.5399
851.155	58.3598
852.841	56.901
854.525	56.9635
856.21	55.6828
857.895	54.7142
859.577	53.6184
861.262	53.2604
862.946	52.4685
864.628	52.0645
866.311	51.5134
867.994	51.0589
869.675	50.3149
871.357	50.0427
873.039	49.827
874.719	49.2114
876.401	49.2524
878.082	49.0435
879.761	48.2616
881.441	48.3263
883.12	47.2989
884.799	46.9725
886.479	47.6305
888.156	47.7594
889.835	47.2482
891.512	47.9447
893.19	48.305
894.866	48.1714
896.544	47.5796
898.22	47.9034
899.897	48.3057
901.573	48.9422
903.248	48.6802
904.924	48.4209
906.598	47.9418
908.271	49.0846
909.947	48.1199
911.62	48.4101
913.294	47.0989
914.966	46.9274
916.64	46.4701
918.312	45.2075
919.985	44.8237
921.656	44.7139
923.329	44.4123
925	44.3014
926.67	45.1478
928.341	44.5357
930.011	44.1994
931.68	44.0801
933.351	43.2442
935.019	43.0312
936.69	41.784
938.358	41.5221
940.025	40.0777
941.694	39.7821
943.361	40.0332
945.028	38.9982
946.696	39.0201
948.362	38.6996
950.028	38.0833
951.694	37.8677
953.361	37.1524
955.026	36.6042
956.69	36.3007
958.356	34.8022
960.02	34.5517
961.684	33.0316
963.347	32.2041
965.012	32.3314
966.674	31.6759
968.337	31.1389
969.999	31.1793
971.661	30.3899
973.324	29.3995
974.985	28.4194
976.646	28.0114
978.306	27.9989
979.966	27.3265
981.626	27.7535
983.288	26.3778
984.947	26.4014
986.606	25.8784
988.264	25.9057
989.923	25.0198
991.581	24.558
993.238	22.282
994.896	22.5912
996.553	22.0176
998.212	21.9231
999.868	21.4707
1001.52	20.2832
1003.18	20.061
1004.84	20.1173
1006.49	20.1815
1008.15	20.9763
1009.8	22.504
1011.45	22.6912
1013.11	24.4467
1014.76	26.4701
1016.42	27.4813
1018.07	28.3229
1019.72	29.2493
1021.37	30.8681
1023.03	32.3034
1024.68	34.3702
1026.33	35.129
1027.98	35.1159
1029.63	36.5794
1031.28	36.9324
1032.93	38.3986
1034.58	38.6757
1036.23	38.9806
1037.88	39.1385
1039.53	38.3265
1041.18	38.601
1042.83	38.5002
1044.47	38.8504
1046.12	38.7132
1047.77	38.579
1049.42	37.7731
1051.06	37.1623
1052.71	36.8124
1054.35	35.6368
1056	34.9241
1057.64	33.9254
1059.29	33.5658
1060.94	32.9845
1062.58	31.6851
1064.22	30.3312
1065.87	28.1732
1067.51	27.0228
1069.15	24.4334
1070.8	22.7099
1072.44	19.5386
1074.08	17.7335
1075.72	16.5372
1077.36	16.2232
1079.01	13.9971
1080.65	13.0481
1082.29	11.704
1083.93	10.4526
1085.57	11.2467
1087.21	12.0158
1088.85	11.8015
1090.49	11.7779
1092.12	11.7453
1093.76	11.8705
1095.4	12.2723
1097.04	12.1296
1098.68	11.8555
1100.31	10.9606
1101.95	10.1411
1103.59	9.37139
1105.22	9.50248
1106.86	9.44205
1108.49	8.74045
1110.13	8.63171
1111.76	9.30129
1113.4	9.09506
1115.03	9.33766
1116.66	9.16821
1118.3	9.71408
1119.93	9.21105
1121.57	9.00356
1123.2	9.46988
1124.83	9.00194
1126.46	9.16082
1128.09	7.89953
1129.72	8.40481
1131.36	8.22152
1132.99	8.72787
1134.62	8.86355
1136.25	8.3548
1137.88	8.60885
1139.51	8.26513
1141.14	8.10249
1142.77	7.92386
1144.39	7.5792
1146.02	6.46175
1147.65	5.98928
1149.28	5.20706
1150.9	4.74864
1152.53	4.75712
1154.16	3.63168
1155.78	4.26795
1157.41	3.82419
1159.04	3.36329
1160.66	3.79373
1162.29	3.80342
1163.91	3.35885
1165.54	3.63059
1167.16	3.89907
1168.78	3.66862
1170.41	3.22265
1172.03	3.44002
1173.65	2.68404
1175.27	3.82756
1176.9	4.00447
1178.52	3.3775
1180.14	3.20243
1181.76	2.85534
1183.38	3.26951
1185	4.13142
1186.62	5.27111
1188.24	4.84444
1189.86	5.19013
1191.48	5.41672
1193.1	6.04424
1194.72	5.70593
1196.34	6.10992
1197.96	6.33288
1199.58	5.9686
1201.19	5.43503
1202.81	5.46129
1204.43	4.58674
1206.04	4.04029
1207.66	3.83403
1209.28	4.53897
1210.89	4.84761
1212.51	5.50449
1214.12	6.13951
1215.74	5.90934
1217.35	5.55221
1218.97	5.14184
1220.58	5.12239
1222.19	5.34313
1223.81	5.41183
1225.42	4.89357
1227.03	4.87068
1228.64	5.21606
1230.26	5.23306
1231.87	5.72567
1233.48	6.92382
1235.09	6.88732
1236.7	7.88732
1238.31	8.15335
1239.92	9.5262
1241.53	10.7846
1243.14	10.7075
1244.75	12.1357
1246.36	13.6654
1247.97	14.7452
1249.57	15.8746
1251.18	16.7753
1252.79	18.0732
1254.4	19.4538
1256	20.0355
1257.61	20.3968
1259.22	21.6804
1260.82	23.8229
1262.43	24.3084
1264.03	25.6341
1265.64	26.0153
1267.24	26.9896
1268.85	26.587
1270.45	26.7801
1272.06	27.0097
1273.66	26.5429
1275.26	25.6736
1276.87	25.2546
1278.47	26.1368
1280.07	26.0264
1281.67	27.3664
1283.28	27.8061
1284.88	27.5665
1286.48	27.8959
1288.08	28.3185
1289.68	28.4019
1291.28	26.0891
1292.88	26.8759
1294.48	25.7558
1296.08	25.4485
1297.68	24.3174
1299.28	23.9983
1300.87	24.2193
1302.47	23.3771
1304.07	22.8595
1305.67	23.2526
1307.26	23.8299
1308.86	23.6589
1310.46	24.199
1312.05	25.2476
1313.65	25.4824
1315.24	25.3034
1316.84	25.6686
1318.44	25.7679
1320.03	26.2358
1321.62	26.5063
1323.22	26.1348
1324.81	25.6698
1326.4	25.4039
1328	24.7755
1329.59	24.7484
1331.18	25.3709
1332.78	26.4497
1334.37	26.6776
1335.96	26.392
1337.55	28.1773
1339.14	28.964
1340.73	27.9573
1342.32	27.1676
1343.91	27.084
1345.5	26.2887
1347.09	25.5907
1348.68	24.4454
1350.27	22.9661
1351.86	23.2776
1353.45	22.8355
1355.03	22.7623
1356.62	22.5628
1358.21	22.4729
1359.8	21.5438
1361.38	21.7965
1362.97	19.6504
1364.56	17.9361
1366.14	17.2848
1367.73	16.5001
1369.31	15.8224
1370.9	14.9087
1372.48	16.0449
1374.07	15.7778
1375.65	15.9766
1377.23	15.4119
1378.82	15.9836
1380.4	15.8071
1381.98	15.7751
1383.57	16.2935
1385.15	16.013
1386.73	16.7894
1388.31	17.0683
1389.89	17.9258
1391.47	17.8661
1393.05	16.8763
1394.63	17.6444
1396.21	17.1099
1397.79	17.6382
1399.37	17.7805
1400.95	17.6267
1402.53	17.1076
1404.11	18.156
1405.69	19.0554
1407.27	20.1783
1408.84	20.7471
1410.42	21.7855
1412	21.7985
1413.57	22.5026
1415.15	22.5758
1416.73	22.6012
1418.3	22.7614
1419.88	22.6051
1421.45	23.8385
1423.03	24.2059
1424.6	24.5335
1426.18	25.4012
1427.75	25.8042
1429.33	26.7038
1430.9	28.9486
1432.47	29.1094
1434.04	29.5422
1435.62	30.665
1437.19	31.3491
1438.76	32.4174
1440.33	33.2009
1441.91	33.7487
1443.47	35.5944
1445.05	35.9773
1446.62	36.7926
1448.19	37.9334
1449.76	37.8641
1451.33	38.6017
1452.9	39.708
1454.46	40.1028
1456.03	40.323
1457.6	41.5337
1459.17	41.9654
1460.74	42.7855
1462.3	43.6187
1463.87	43.3144
1465.44	43.9424
1467.01	43.4485
1468.57	43.2985
1470.14	42.3502
1471.7	42.6191
1473.27	42.4837
1474.83	41.7503
1476.4	41.6092
1477.96	39.608
1479.53	38.7929
1481.09	38.3732
1482.65	37.9569
1484.22	35.7311
1485.78	34.332
1487.34	32.7278
1488.91	31.5546
1490.47	31.6047
1492.03	31.3748
1493.59	30.0757
1495.15	29.8629
1496.71	29.1221
1498.27	28.1908
1499.83	27.567
1501.39	26.7351
1502.95	25.7356
1504.51	24.135
1506.07	22.8649
1507.63	22.9077
1509.19	21.8879
1510.75	20.95
1512.3	19.5538
1513.86	19.0827
1515.42	18.1614
1516.98	17.5303
1518.53	16.5886
1520.09	16.8957
1521.65	16.0357
1523.2	15.6412
1524.76	16.5043
1526.31	15.8148
1527.87	15.376
1529.42	15.7679
1530.98	16.8582
1532.53	16.5664
1534.08	16.7794
1535.64	17.3593
1537.19	16.9339
1538.74	17.091
1540.3	16.8861
1541.85	16.8498
1543.4	17.0233
1544.95	17.5743
1546.5	17.9294
1548.05	17.6008
1549.61	18.3294
1551.16	17.6763
1552.71	18.167
1554.26	17.9236
1555.81	18.061
1557.36	18.727
1558.9	18.4448
1560.45	18.6385
1562	18.943
1563.55	19.6463
1565.1	20.6414
1566.64	20.9336
1568.19	22.1784
1569.74	22.0254
1571.29	22.4203
1572.83	23.2421
1574.38	22.7892
1575.93	23.297
1577.47	23.6734
1579.02	24.1508
1580.56	24.7317
1582.1	25.3997
1583.65	26.7283
1585.19	26.9818
1586.74	27.3738
1588.28	28.0615
1589.82	28.2431
1591.37	29.1627
1592.91	30.0624
1594.45	29.9726
1595.99	30.6102
1597.54	31.728
1599.08	31.2229
1600.62	31.8531
1602.16	31.9128
1603.7	31.7567
1605.24	31.3186
1606.78	31.0524
1608.32	31.7285
1609.86	31.7999
1611.4	32.6861
1612.94	33.2825
1614.48	32.5112
1616.01	32.4595
1617.55	32.8205
1619.09	33.1591
1620.63	33.2629
1622.16	33.5552
1623.7	32.5583
1625.24	32.6756
1626.77	33.7226
1628.31	34.3178
1629.84	34.7113
1631.38	34.2722
1632.92	33.861
1634.45	33.9531
1635.98	34.2729
1637.52	34.4669
1639.05	34.0774
1640.59	33.7051
1642.12	33.8383
1643.65	33.8217
1645.19	34.6998
1646.72	35.2163
1648.25	35.3013
1649.78	35.4509
1651.31	35.7036
1652.85	36.6259
1654.38	37.0094
1655.91	37.3683
1657.44	36.5178
1658.97	36.2497
1660.5	35.875
1662.03	35.0595
1663.56	35.0208
1665.08	34.0802
1666.61	33.3629
1668.14	32.4344
1669.67	31.6456
1671.2	30.6329
1672.72	30.0095
1674.25	28.4439
1675.78	27.367
1677.31	27.0016
1678.83	26.0893
1680.36	25.0908
1681.88	23.7243
1683.41	23.8421
1684.93	23.6235
1686.46	23.073
1687.98	22.0172
1689.51	20.2846
1691.03	18.7913
1692.56	18.4932
1694.08	18.3209
1695.6	17.6677
1697.13	16.5789
1698.65	15.6493
1700.17	15.0861
1701.69	15.2336
1703.21	15.1886
1704.74	13.7336
1706.26	12.4567
1707.78	11.5074
1709.3	10.5722
1710.82	10.3749
1712.34	9.3846
1713.86	8.93547
1715.38	8.07659
1716.9	7.35948
1718.42	7.3136
1719.94	6.77019
1721.45	6.43519
1722.97	5.91879
1724.49	5.8408
1726.01	5.66585
1727.52	5.56669
1729.04	4.7316
1730.56	4.42894
1732.07	4.43873
1733.59	3.43908
1735.11	4.05653
1736.62	4.15944
1738.14	3.60771
1739.65	3.6505
1741.17	3.67706
1742.68	4.03765
1744.19	3.83051
1745.71	3.81496
1747.22	3.91725
1748.74	3.60832
1750.25	3.16158
1751.76	3.81494
1753.27	4.09878
1754.79	4.40473
1756.3	4.73624
1757.81	4.68864
1759.32	4.96111
1760.83	4.72367
1762.34	4.59093
1763.85	4.63729
1765.36	4.65405
1766.87	4.78798
1768.38	4.77916
1769.89	5.18687
1771.4	5.35181
1772.91	5.4809
1774.42	5.4847
1775.93	5.38574
1777.43	5.39585
1778.94	5.42472
1780.45	4.50467
1781.95	4.55261
1783.46	4.25703
1784.97	3.69641
1786.47	3.88564
1787.98	3.41072
1789.49	3.06198
1790.99	1.87487
1792.5	1.59857
1794	1.57399
1795.51	1.35841
1797.01	1.91235
1798.51	2.14223
1800.02	2.45318
1801.52	2.08392
1803.02	2.2871
1804.53	2.95867
1806.03	3.87608
1807.53	4.08165
1809.03	3.94419
1810.53	4.75998
1812.03	5.08896
1813.54	4.88494
1815.04	5.39467
1816.54	5.64569
1818.04	5.64847
1819.54	5.73274
1821.04	5.66895
1822.54	5.27469
1824.04	5.31738
1825.53	5.40714
1827.03	6.12671
1828.53	6.21017
1830.03	6.19014
1831.53	5.75032
1833.02	5.4217
1834.52	5.23588
1836.02	5.16709
1837.52	5.54218
1839.01	6.01652
1840.51	5.9135
1842	6.00818
1843.5	6.15661
1844.99	5.97126
1846.49	5.55559
1847.98	5.49815
1849.48	5.00994
1850.97	5.44654
1852.47	5.59941
1853.96	6.10953
1855.45	6.49244
1856.95	6.48953
1858.44	6.20275
1859.93	5.89899
1861.42	5.65808
1862.91	5.79167
1864.4	5.49166
1865.9	4.87977
1867.39	5.42606
1868.88	5.59121
1870.37	5.85763
1871.86	6.32851
1873.35	5.95623
1874.84	6.09881
1876.33	5.75664
1877.82	6.0936
1879.31	6.45658
1880.79	6.36343
1882.28	6.17116
1882.53	5.93949
1884.02	5.9635
1885.52	6.45173
1887.01	6.61016
1888.51	6.68724
1890	6.33045
1891.49	6.7045
1892.99	6.17746
1894.48	6.05644
1895.97	5.92144
1897.46	5.96169
1898.96	5.98554
1900.45	5.87639
1901.94	5.86566
1903.43	5.45408
1904.92	6.01713
1906.41	6.43828
1907.9	6.42387
1909.39	6.81192
1910.88	7.16142
1912.37	7.67892
1913.86	7.88749
1915.35	7.95257
1916.84	8.26304
1918.32	8.62021
1919.81	9.14089
1921.3	9.64935
1922.79	10.2358
1924.27	11.2751
1925.76	11.7374
1927.25	12.3506
1928.73	12.4108
1930.22	11.8045
1931.7	11.7053
1933.19	11.4361
1934.68	11.005
1936.16	10.4034
1937.65	9.3275
1939.13	8.99961
1940.61	8.8595
1942.1	8.53792
1943.58	7.87658
1945.06	7.51505
1946.55	7.04347
1948.03	7.25315
1949.51	6.76921
1950.99	6.50834
1952.48	5.69481
1953.96	5.41365
1955.44	5.43474
1956.92	5.25706
1958.4	5.42644
1959.88	5.78348
1961.36	5.38713
1962.84	5.07404
1964.32	5.11361
1965.8	5.80845
1967.28	4.99154
1968.76	4.7798
1970.24	4.84145
1971.72	4.6591
1973.19	5.67789
1974.67	6.2678
1976.15	7.41543
1977.63	7.52288
1979.1	8.53971
1980.58	8.19678
1982.06	8.52639
1983.53	9.64562
1985.01	9.86997
1986.48	10.4098
1987.96	10.7921
1989.43	11.8539
1990.91	12.5232
1992.39	13.0554
1993.86	12.9358
1995.33	13.2187
1996.81	13.5415
1998.28	13.5241
1999.75	13.0721
2001.23	12.8188
2002.7	12.9034
2004.17	12.0014
2005.64	11.6051
2007.11	11.2726
2008.59	10.8974
2010.06	9.91849
2011.53	9.76806
2013	9.85708
2014.47	9.81203
2015.94	9.81058
2017.41	9.19929
2018.88	9.31767
2020.35	9.10114
2021.82	9.36054
2023.29	9.13958
2024.76	9.85789
2026.22	10.2319
2027.69	10.5027
2029.16	10.8535
2030.63	10.5771
2032.09	10.5607
2033.56	10.5339
2035.03	10.1238
2036.5	10.1282
2037.96	10.5754
2039.43	10.6792
2040.89	10.1333
2042.36	11.0724
2043.82	12.3235
2045.29	13.0255
2046.75	13.7657
2048.22	13.713
2049.68	13.7442
2051.14	13.2814
2052.61	13.5076
2054.07	13.9681
2055.53	14.4788
2057	14.3308
2058.46	14.3491
2059.92	14.3945
2061.38	14.909
2062.85	15.2957
2064.31	14.9391
2065.77	14.5482
2067.23	13.7492
2068.69	13.505
2070.15	13.3362
2071.61	13.3707
2073.07	13.8454
2074.53	14.0963
2075.99	13.9955
2077.45	13.6763
2078.91	13.7415
2080.36	13.7781
2081.82	13.3951
2083.28	12.8068
2084.74	13.1203
2086.19	13.071
2087.65	12.6671
2089.11	12.1756
2090.57	12.4006
2092.02	13.0985
2093.48	13.4745
2094.93	14.6175
2096.39	14.0353
2097.84	14.6137
2099.3	14.0718
2100.75	13.2124
2102.21	13.4416
2103.66	12.9287
2105.12	12.8359
2106.57	12.8401
2108.02	12.9011
2109.48	13.5605
2110.93	14.0727
2112.38	14.2995
2113.83	14.7297
2115.29	15.8728
2116.74	15.8747
2118.19	16.3466
2119.64	16.6789
2121.09	17.1459
2122.54	17.5244
2123.99	18.8806
2125.44	19.7422
2126.89	20.1593
2128.34	20.0913
2129.79	20.3486
2131.24	20.9857
2132.69	21.7714
2134.14	23.7157
2135.59	25.1627
2137.04	25.1702
2138.48	26.0988
2139.93	27.5505
2141.38	28.6663
2142.82	30.2251
2144.27	31.4699
2145.72	32.788
2147.16	33.6376
2148.61	34.1385
2150.06	35.0028
2151.5	35.5922
2152.95	36.4124
2154.39	37.1689
2155.83	37.7476
2157.28	38.5554
2158.72	39.3219
2160.17	39.5747
2161.61	40.325
2163.05	41.6833
2164.5	42.1732
2165.94	41.8201
2167.38	41.5389
2168.83	41.0248
2170.27	41.5688
2171.71	40.8453
2173.15	40.5007
2174.59	40.5573
2176.03	40.057
2177.47	40.2948
2178.91	39.683
2180.35	39.5191
2181.79	39.31
2183.23	38.4072
2184.67	37.8544
2186.11	37.6842
2187.55	37.5615
2188.99	36.5274
2190.43	35.9492
2191.86	35.4859
2193.3	34.5513
2194.74	33.8494
2196.18	33.1783
2197.61	32.1085
2199.05	31.5806
2200.49	31.1099
2201.92	31.0183
2203.36	31.2684
2204.8	31.5177
2206.23	31.3431
2207.67	30.4911
2209.1	29.7164
2210.54	30.4591
2211.97	29.8826
2213.4	29.3989
2214.84	29.0645
2216.27	28.7666
2217.7	28.0355
2219.14	27.4126
2220.57	26.7644
2222	26.9915
2223.44	26.3901
2224.87	26.2566
2226.3	25.8027
2227.73	25.1281
2229.16	24.8337
2230.59	23.8932
2232.02	23.2308
2233.46	22.968
2234.88	22.1784
2236.32	21.2231
2237.74	20.3213
2239.18	19.2331
2240.6	19.4917
2242.03	19.1105
2243.46	18.6323
2244.89	18.129
2246.32	17.5539
2247.75	17.3861
2249.17	16.92
2250.6	16.2468
2252.03	16.8375
2253.45	16.2406
2254.88	15.6805
2256.31	15.8015
2257.73	16.1952
2259.16	15.7722
2260.58	14.8955
2262.01	14.6037
2263.44	14.3191
2264.86	13.7764
2266.28	13.9873
2267.71	14.2092
2269.13	14.5024
2270.56	14.9503
2271.98	14.7096
2273.4	15.1729
2274.83	15.3588
2276.25	14.817
2277.67	15.2647
2279.09	15.5484
2280.51	15.7237
2281.94	16.1956
2283.36	16.1443
2284.78	16.0929
2286.2	16.0648
2287.62	16.0031
2289.04	15.4278
2290.46	15.194
2291.88	14.2038
2293.3	13.1245
2294.72	12.1658
2296.14	11.9659
2297.56	11.6591
2298.98	10.951
2300.39	10.5984
2301.81	10.1825
2303.23	9.97828
2304.65	10.0008
2306.07	9.83554
2307.48	9.73379
2308.9	9.04152
2310.32	9.04371
2311.73	9.24328
2313.15	8.87559
2314.56	8.76713
2315.98	8.50511
2317.4	8.30469
2318.81	8.62999
2320.23	8.63829
2321.64	8.99143
2323.05	9.34174
2324.47	9.39962
2325.88	9.34564
2327.3	9.95921
2328.71	9.6483
2330.12	9.53313
2331.54	9.8897
2332.95	10.261
2334.36	10.7189
2335.77	11.214
2337.18	11.4171
2338.59	11.3445
2340.01	11.9047
2341.42	11.9147
2342.83	11.8708
2344.24	11.7921
2345.65	12.1327
2347.06	11.2905
2348.47	11.4808
2349.88	11.1894
2351.29	11.0762
2352.69	11.2391
2354.1	10.6298
2355.51	9.28344
2356.92	9.03963
2358.33	8.06244
2359.73	7.59258
2361.14	6.87324
2362.55	5.74383
2363.96	5.60207
2365.36	5.26462
2366.77	5.52376
2368.18	5.43922
2369.58	4.78612
2370.99	4.81618
2372.39	5.20444
2373.8	4.81029
2375.2	4.17701
2376.61	3.20873
2378.01	2.89847
2379.41	2.56963
2380.82	2.55898
2382.22	2.42048
2383.63	2.40912
2385.03	2.19287
2386.43	2.23276
2387.83	2.86916
2389.24	3.51203
2390.64	4.12645
2392.04	4.61401
2393.44	5.20202
2394.84	5.2022
2396.24	4.82138
2397.64	5.71979
2399.05	5.68196
2400.45	6.17733
2401.85	6.94907
2403.25	7.30482
2404.65	7.66676
2406.04	7.91087
2407.44	7.79374
2408.84	8.05114
2410.24	8.25996
2411.64	7.68329
2413.04	7.59671
2414.43	7.63102
2415.83	7.55615
2417.23	7.54376
2418.63	8.08291
2420.02	8.42099
2421.42	8.82058
2422.82	8.43321
2424.21	8.10734
2425.61	7.50192
2427	7.91317
2428.4	7.8242
2429.79	7.99392
2431.19	7.61473
2432.58	7.41433
2433.98	8.07677
2435.37	8.31075
2436.76	8.37931
2438.16	8.07921
2439.55	7.58948
2440.94	7.9465
2442.34	7.57589
2443.73	6.84313
2445.12	6.1364
2446.51	6.07055
2447.9	6.05675
2449.3	5.39832
2450.69	5.52654
2452.08	5.28223
2453.47	4.95375
2454.86	4.97341
2456.25	5.63637
2457.64	5.67904
2459.03	5.09203
2460.42	4.97611
2461.81	4.15262
2463.2	4.01789
2464.59	4.02155
2465.97	4.31323
2467.36	4.938
2468.75	4.94115
2470.14	5.26773
2471.53	5.57605
2472.91	5.20321
2474.3	4.49984
2475.69	3.87902
2477.07	3.53864
2478.46	3.59595
2479.85	3.20557
2481.23	3.1126
2482.62	3.14954
2484	3.40725
2485.39	3.14207
2486.77	3.36354
2488.16	3.10782
2489.54	2.76245
2490.93	2.80921
2492.31	2.50169
2493.69	2.75041
2495.08	3.11569
2496.46	3.25616
2497.84	3.55801
2499.22	3.04126
2500.61	3.22061
2501.99	3.17908
2503.37	2.82433
2504.75	2.30412
2506.13	1.63909
2507.51	1.97499
2508.89	1.81652
2510.28	1.66503
2511.66	0.844526
2513.04	0.868793
2514.42	0.641176
2515.79	0.478602
2517.17	0.587726
2518.55	0.0782119
2519.93	0.715418
2521.31	0.591874
2522.69	0.610289
2524.07	0.514023
2525.44	0.521434
2526.82	0.408586
2528.2	0.794888
2529.58	1.4564
2530.95	1.69967
2532.33	2.53835
2533.71	3.42791
2535.08	3.67884
2536.46	3.76321
2537.83	3.45884
2539.21	3.31908
2540.59	3.08429
2541.96	3.00756
2543.33	3.18329
2544.71	3.18582
2546.08	4.08994
2547.46	3.89029
2548.83	3.92043
2550.2	4.65446
2551.58	4.35454
2552.95	4.0962
2554.32	3.95907
2555.69	4.24097
2557.07	4.64477
2558.44	4.40417
2559.81	4.95493
2561.18	4.72172
2562.55	4.57977
2563.92	4.9141
2565.29	4.26068
2566.67	4.2291
2568.03	4.09637
2569.41	4.36109
2570.77	4.15143
2572.14	3.88741
2573.51	3.94724
2574.88	3.59813
2576.25	3.63387
2577.62	3.32045
2578.99	2.7187
2580.36	2.78248
2581.72	2.72516
2583.09	2.61925
2584.46	2.05789
2585.83	2.23727
2587.19	1.86736
2588.56	2.52739
2589.93	1.94206
2591.29	1.17038
2592.66	1.2356
2594.02	1.24737
2595.39	1.87636
2596.75	1.85188
2598.12	1.72469
2599.48	1.71918
2600.85	1.77901
2602.21	1.77564
2603.58	1.21478
2604.94	0.81841
2606.3	1.37655
2607.67	1.27476
2609.03	1.78702
2610.39	1.70059
2611.75	1.49077
2613.12	2.04697
2614.48	2.2875
2615.84	1.64392
2617.2	1.58737
2618.56	1.29156
2619.92	0.968987
2621.28	1.35229
2622.64	1.68943
2624	1.30377
2625.36	1.43726
2626.72	1.45489
2628.08	1.3682
2629.44	1.10514
2630.8	1.6485
2632.16	1.48902
2633.52	0.881529
2634.88	1.02265
2636.23	1.0728
2637.59	0.9612
2638.95	0.596993
2640.31	0.342343
2641.67	0.529255
2643.02	1.05463
2644.38	1.32186
2645.73	1.16832
2647.09	1.31819
2648.45	1.2754
2649.8	1.17525
2651.16	1.04051
2652.51	1.11978
2653.87	1.55241
2655.22	0.87756
2656.58	0.864867
2657.93	0.894258
2659.28	1.55394
2660.64	1.88444
2661.99	2.55514
2663.34	2.89383
2664.7	3.04478
2666.05	3.07176
2667.4	2.96179
2668.76	3.24309
2670.11	3.53506
2671.46	3.75687
2672.81	4.2337
2674.16	4.08504
2675.51	3.8232
2676.86	4.22376
2678.21	3.78312
2679.57	3.6144
2680.92	4.20087
2682.27	3.71991
2683.62	2.97867
2684.96	2.98769
2686.31	2.75604
2687.66	2.59579
2689.01	2.73742
2690.36	2.71761
2691.71	2.95044
2693.06	3.62681
2694.4	4.1115
2695.75	3.46284
2697.1	3.49213
2698.44	3.37071
2699.79	2.53271
2701.14	2.96526
2702.48	3.11458
2703.83	3.03516
2705.18	3.08319
2706.52	3.11708
2707.87	3.65616
2709.21	3.48293
2710.56	3.29596
2711.9	2.12438
2713.25	2.12279
2714.59	2.74592
2715.93	2.71624
2717.28	2.8478
2718.62	2.62476
2719.96	3.31174
2721.31	3.33182
2722.65	3.35674
2723.99	3.95272
2725.33	3.86231
2726.68	3.53054
2728.02	3.06309
2729.36	3.12071
2730.7	2.43
2732.04	2.66488
2733.38	2.61206
2734.72	2.75938
2736.06	2.92284
2737.4	2.93091
2738.74	3.40928
2740.08	3.46074
2741.42	2.85217
2742.76	3.39637
2744.1	3.74805
2745.44	3.82701
2746.78	3.65281
2748.12	3.46308
2749.45	2.96707
2750.79	2.84717
2752.13	3.47251
2753.47	4.31027
2754.8	5.1365
2756.14	5.89058
2757.48	6.24754
2758.81	6.99981
2760.15	7.36308
2761.48	7.02857
2762.82	6.29269
2764.16	6.25464
2765.49	6.45739
2766.83	6.56138
2768.16	6.58893
2769.49	5.85975
2770.83	5.57968
2772.16	5.50517
2773.5	5.70664
2774.83	5.51422
2776.16	4.56577
2777.5	4.91207
2778.83	4.66171
2780.16	5.51966
2781.49	6.02723
2782.83	5.81785
2784.16	5.18266
2785.49	5.32581
2786.82	5.8077
2788.15	5.63427
2789.48	4.9035
2790.81	4.39698
2792.14	3.91451
2793.47	4.06684
2794.8	3.68221
2796.13	3.29543
2797.46	3.06022
2798.79	3.65749
2800.12	3.03067
2801.45	2.37924
2802.78	2.44282
2804.11	2.94202
2805.44	3.02083
2806.76	2.35365
2808.09	2.08577
2809.42	2.21697
2810.75	2.24248
2812.07	2.47325
2813.4	2.59568
2814.73	2.2812
2816.05	3.00824
2817.38	3.41149
2818.7	4.0931
2820.03	4.21609
2821.35	4.30049
2822.68	5.06118
2824	5.72694
2825.33	5.99989
2826.65	5.90697
2827.98	5.51029
2829.3	6.28879
2830.62	7.00991
2831.95	7.76044
2833.27	8.04691
2834.59	8.4472
2835.92	8.93089
2837.24	9.90156
2838.56	11.0787
2839.88	12.4596
2841.2	13.5929
2842.53	14.3954
2843.85	16.3707
2845.17	17.516
2846.49	19.145
2847.81	21.2458
2849.13	22.11
2850.45	23.6104
2851.77	26.0966
2853.09	27.8066
2854.41	28.6735
2855.73	30.2135
2857.05	32.0531
2858.37	33.5853
2859.68	34.8549
2861	36.4947
2862.32	37.4966
2863.64	38.9092
2864.96	40.3276
2866.27	41.4782
2867.59	42.6076
2868.91	43.934
2870.22	45.2303
2871.54	45.8081
2872.86	46.6657
2874.17	47.9245
2875.49	48.9993
2876.8	49.8274
2878.12	50.9856
2879.44	50.9811
2880.75	51.285
2882.06	52.4394
2883.38	52.645
2884.69	54.5902
2886.01	55.072
2887.32	56.8109
2888.63	57.895
2889.95	58.2623
2891.26	59.0429
2892.57	59.9328
2893.88	60.8756
2895.2	62.0798
2896.51	64.0791
2897.82	65.2227
2899.13	66.6639
2900.44	68.0231
2901.76	69.8152
2903.07	71.7327
2904.38	73.5965
2905.69	75.828
2907	77.8243
2908.31	80.0618
2909.62	82.1581
2910.93	84.6987
2912.24	87.3151
2913.54	90.236
2914.85	91.7809
2916.16	93.8682
2917.47	96.1344
2918.78	97.588
2920.09	99.239
2921.39	101.406
2922.7	102.987
2924.01	103.995
2925.31	105.583
2926.62	106.574
2927.93	107.055
2929.24	108.606
2930.54	109.238
2931.85	109.378
2933.15	108.885
2934.46	109.676
2935.76	109.6
2937.07	108.881
2938.37	108.444
2939.68	107.399
2940.98	106.169
2942.29	105.082
2943.59	104.506
2944.89	102.448
2946.2	101.559
2947.5	100.454
2948.8	99.3505
2950.1	98.6528
2951.41	96.6017
2952.71	94.7194
2954.01	92.4736
2955.31	90.5404
2956.62	88.4037
2957.92	86.4323
2959.22	84.3233
2960.52	82.287
2961.82	80.5749
2963.12	77.5531
2964.42	75.0403
2965.72	72.8865
2967.02	70.5421
2968.32	68.1978
2969.62	66.2677
2970.92	64.2101
2972.21	62.2355
2973.51	60.378
2974.81	58.3499
2976.11	57.48
2977.41	55.2357
2978.71	53.6008
2980	51.4224
2981.3	50.0332
2982.6	48.9907
2983.89	47.482
2985.19	46.2217
2986.49	44.4313
2987.78	43.0323
2989.08	41.1296
2990.37	39.5257
2991.67	37.6236
2992.96	36.4384
2994.26	35.0053
2995.55	33.0843
2996.85	31.2754
2998.14	30.2063
2999.44	28.9883
3000.73	26.8626
3002.02	25.7866
3003.32	24.5414
3004.61	23.2295
3005.9	22.6049
3007.2	22.0291
3008.49	20.8708
3009.78	19.2753
3011.07	19.3454
3012.36	18.6267
3013.66	18.1066
3014.95	16.8373
3016.24	15.9354
3017.53	14.749
3018.82	13.9997
3020.11	12.8996
3021.4	11.7387
3022.69	10.7231
3023.98	9.23673
3025.27	8.18059
3026.56	7.19935
3027.85	5.91896
3029.14	5.26291
3030.43	4.97908
3031.71	4.60477
3033	4.80654
3034.29	4.90692
3035.58	4.40128
3036.86	4.67622
3038.15	4.91367
3039.44	5.21395
3040.73	5.78112
3042.01	5.6396
3043.3	6.24781
3044.59	6.01276
3045.87	6.00422
3047.16	5.87623
3048.44	5.95846
3049.73	5.90607
3051.01	5.92835
3052.3	6.46141
3053.58	6.09124
3054.87	5.93343
3056.15	6.36557
3057.43	6.71404
3058.72	6.79001
3060	7.13409
3061.28	7.02176
3062.57	7.65239
3063.85	7.30772
3065.13	7.15338
3066.41	7.05097
3067.7	6.78734
3068.98	7.19447
3070.26	7.3709
3071.54	7.11034
3072.82	7.02933
3074.1	7.19994
3075.39	7.00208
3076.67	6.17724
3077.95	6.1497
3079.23	5.47746
3080.51	5.09583
3081.79	4.31014
3083.07	3.87247
3084.34	2.89981
3085.62	2.32239
3086.9	1.56716
3088.18	0.893491
3089.46	0.813302
3090.74	0.655194
3092.01	0.791939
3093.29	0.912689
3094.57	0.973381
3095.85	1.28451
3097.12	1.43934
3098.4	1.08137
3099.68	0.467433
3100.95	1.07723
3102.23	1.44074
3103.51	1.36255
3104.78	1.13523
3106.06	0.644892
3107.33	0.631898
3108.61	0.522354
3109.88	1.01347
3111.16	1.53692
3112.43	2.32394
3113.71	2.44383
3114.98	3.18662
3116.25	3.07297
3117.53	3.15296
3118.8	3.61039
3120.07	4.02081
3121.34	4.43576
3122.62	4.64406
3123.89	4.99718
3125.16	4.74787
3126.43	5.2155
3127.71	4.71352
3128.98	4.99071
3130.25	5.53676
3131.52	6.34034
3132.79	6.92396
3134.06	6.78209
3135.33	6.864
3136.6	7.03183
3137.87	6.6291
3139.14	6.30896
3140.41	6.56805
3141.68	6.80059
3142.95	6.43783
3144.22	6.27755
3145.49	6.10817
3146.75	6.02398
3148.02	6.48594
3149.29	6.1179
