#Acq. time (s)=	45
#Accumulations=	2
#Range (cm-¹)=	200...3150
#Windows=	2
#Auto scanning=	Off
#Autofocus=	Off
#Macrospot=	Off
#AutoExposure=	Off
#Spike filter=	Multiple accum.
#Delay time (s)=	0
#Binning=	1
#Readout mode=	Signal
#DeNoise=	Off
#ICS correction=	On
#Dark correction=	Off
#Inst. Process=	Off
#Detector Gain=	Best Dynamic Range
#Detector ADC=	20 kHz       
#Detector temperature (°C)=	-70.08
#Instrument=	LabRAM HR Evol
#Detector=	Synapse
#Objective=	x100
#Grating=	600 gr/mm
#ND Filter=	100%
#Laser (nm)=	532 
#Hole=	100.021
#Range=	Auto
#Laser Pol.=	No
#Raman. Pol.=	No
#Laser Pol. (°)=	-0.0007625
#Raman Pol. (°)=	89.9995
#Collection=	Microscope
#StageXY=	Marzhauser
#StageZ=	Marzhauser
#X (µm)=	-2564.7
#Y (µm)=	-87.7
#Z (µm)=	-10.65
#Full time(mm:ss)=	3:18
#Project=	
#Sample=	
#Site=	
#Title=	Mb_40_24_14_2x_45s_532 nm_x100_100%_600 gr_mm
#Remark=	
#Date=	14.07.2022 11:42
#Acquired=	14.07.2022 11:42:50
#Edit:Spike=	14.07.2022 11:45:19
#Base:Fit=	10.08.2022 10:47:00
#Base:Sub=	10.08.2022 10:47:12
#Filter:Polynom=	16.08.2022 10:11:48
#AxisType[0]=Intens
#AxisUnit[0]=Cnt
#AxisType[1]=Spectr
#AxisUnit[1]=1/cm
200.554	29.9508
202.369	32.0695
204.183	31.551
205.999	30.9505
207.813	30.1985
209.626	29.2262
211.439	28.8093
213.253	27.61
215.065	27.2947
216.877	27.1127
218.688	27.3856
220.5	27.5343
222.312	26.9903
224.123	26.1244
225.933	25.7336
227.742	24.993
229.552	23.8458
231.361	21.5759
233.171	19.7214
234.98	20.4548
236.787	19.5318
238.595	19.365
240.402	18.0366
242.209	17.11
244.015	16.8305
245.822	16.1938
247.627	14.812
249.435	13.823
251.24	13.2148
253.045	11.8339
254.849	11.6164
256.653	10.9532
258.457	11.5998
260.26	12.1911
262.063	13.1153
263.866	12.0763
265.668	11.3539
267.47	11.7006
269.271	11.5766
271.073	11.7331
272.873	12.1476
274.674	12.5431
276.474	12.1128
278.274	12.7919
280.073	11.9168
281.872	12.1623
283.671	12.7424
285.47	12.6628
287.268	12.1132
289.065	11.6968
290.863	11.8574
292.66	12.0879
294.456	13.8547
296.253	14.0471
298.049	14.0538
299.844	14.5241
301.637	15.9097
303.432	16.4007
305.227	17.6884
307.021	18.0036
308.815	18.5973
310.609	18.2412
312.402	17.7817
314.195	18.8193
315.987	18.8776
317.777	19.7272
319.569	20.0026
321.36	20.5161
323.151	21.9917
324.942	23.4225
326.733	22.7339
328.521	23.3069
330.31	22.8385
332.1	23.4221
333.889	23.3923
335.677	23.5959
337.464	23.3148
339.252	24.9177
341.039	25.4526
342.826	24.7885
344.611	24.4648
346.398	24.6739
348.184	25.5349
349.97	25.1949
351.754	25.792
353.539	25.4786
355.324	26.2822
357.106	26.161
358.89	25.9271
360.674	25.8264
362.455	24.8993
364.239	24.2003
366.021	23.6015
367.804	22.2084
369.584	20.715
371.366	21.3793
373.145	20.3295
374.926	19.7681
376.707	19.3201
378.485	19.5567
380.265	19.9323
382.045	19.1462
383.822	18.6565
385.601	15.3658
387.378	15.2907
389.156	15.8416
390.934	15.0599
392.71	14.8825
394.487	13.843
396.262	12.222
398.038	11.5546
399.813	11.0838
401.588	10.3724
403.362	11.0043
405.137	10.0788
406.912	9.86351
408.685	8.27523
410.459	8.40217
412.23	8.56662
414.004	7.34879
415.775	7.19337
417.548	6.32113
419.318	5.24937
421.089	5.00313
422.86	4.97064
424.63	5.98562
426.401	4.98713
428.17	5.25633
429.94	3.86461
431.708	2.66694
433.478	2.52154
435.245	2.69151
437.012	2.33848
438.781	2.79976
440.547	3.24747
442.315	2.70601
444.081	1.53186
445.846	0.759523
447.613	0.639778
449.378	0.875874
451.142	0.514255
452.908	1.34503
454.672	1.6839
456.435	0.949758
458.2	1.35802
459.963	2.2863
461.725	2.29394
463.489	3.62192
465.251	3.05875
467.012	2.54243
468.775	2.56744
470.536	1.85381
472.296	1.84581
474.056	2.80949
475.817	5.94985
477.576	6.2999
479.335	5.88325
481.094	6.98488
482.854	6.72485
484.612	7.79493
486.37	9.42895
488.127	10.3728
489.886	10.6968
491.642	11.9251
493.398	11.6916
495.154	13.2265
496.91	14.5776
498.667	16.3436
500.422	16.5194
502.176	16.1777
503.93	16.599
505.684	17.0226
507.438	17.3325
509.191	18.5368
510.946	19.9764
512.698	19.2663
514.45	18.9315
516.202	19.5397
517.954	19.2737
519.705	19.4046
521.456	19.3981
523.206	20.1712
524.956	19.7401
526.706	20.4933
528.456	19.6718
530.207	19.3607
531.956	19.0869
533.704	19.5012
535.452	19.6596
537.2	18.3263
538.947	17.2689
540.694	16.6389
542.441	15.9756
544.188	15.2208
545.934	16.0412
547.68	15.3354
549.425	14.3489
551.17	14.3318
552.915	13.7553
554.659	14.5939
556.403	15.5039
558.145	14.9222
559.889	15.4219
561.632	15.5509
563.375	15.0208
565.117	13.9058
566.859	13.3949
568.601	13.6199
570.342	12.4096
572.083	12.4409
573.824	11.6368
575.565	11.1607
577.303	10.5157
579.043	9.73701
580.782	8.69239
582.521	8.70714
584.26	8.25065
585.998	7.65012
587.734	6.18053
589.472	6.10216
591.21	5.44094
592.947	5.93524
594.684	4.82067
596.418	6.01516
598.154	6.56334
599.89	5.33049
601.626	5.65067
603.361	5.4867
605.094	5.59673
606.828	6.02692
608.562	5.74795
610.296	5.66982
612.027	6.25096
613.761	7.63912
615.493	7.93897
617.224	8.00826
618.956	8.66635
620.688	10.0035
622.419	10.3525
624.149	11.1151
625.879	12.5978
627.61	13.1171
629.338	14.6586
631.068	15.923
632.797	16.5387
634.525	15.5733
636.254	17.3862
637.98	19.2372
639.708	19.2589
641.436	19.3692
643.162	19.5638
644.889	18.2293
646.614	18.5541
648.34	19.0562
650.067	19.762
651.791	19.1722
653.516	19.5597
655.239	19.8901
656.964	19.1596
658.687	19.7325
660.411	19.4935
662.133	18.224
663.857	17.7681
665.58	17.6577
667.301	17.7164
669.024	18.1665
670.744	18.5558
672.464	18.145
674.186	18.7145
675.905	19.8434
677.626	20.4751
679.345	21.1948
681.065	21.4131
682.783	22.8901
684.503	23.1944
686.22	23.3731
687.939	23.841
689.656	24.2963
691.372	25.026
693.09	24.7428
694.806	25.4546
696.523	26.4722
698.239	27.8847
699.953	28.6092
701.67	28.7858
703.384	29.6084
705.098	31.5844
706.813	32.2084
708.526	32.6565
710.239	33.5638
711.954	34.6391
713.666	35.4151
715.378	37.0941
717.091	37.4067
718.802	37.4121
720.513	37.0657
722.226	38.2666
723.936	37.6719
725.646	36.838
727.355	36.7051
729.067	37.6691
730.776	37.5497
732.484	38.8683
734.192	39.6466
735.902	39.7157
737.61	39.7666
739.317	40.9777
741.024	41.6015
742.731	42.6928
744.439	44.0395
746.145	44.7144
747.851	45.705
749.556	46.9569
751.262	47.6021
752.966	48.5114
754.673	49.7787
756.377	52.6169
758.081	54.2009
759.784	55.3843
761.487	56.6639
763.19	58.7478
764.892	59.8291
766.594	61.1628
768.296	63.1218
770	64.55
771.701	66.7469
773.402	67.454
775.102	68.5808
776.803	70.1529
778.503	71.5601
780.202	72.8865
781.901	73.6091
783.6	74.5595
785.299	75.3338
786.997	75.6928
788.695	76.0951
790.393	76.347
792.09	76.5567
793.787	77.2406
795.484	76.9635
797.18	77.3337
798.877	75.9521
800.572	76.0443
802.268	75.5601
803.963	74.3856
805.658	72.2244
807.35	71.9046
809.044	71.5509
810.738	70.997
812.432	70.5658
814.125	70.8918
815.818	71.1746
817.51	70.6682
819.202	69.3001
820.894	68.9772
822.584	68.9855
824.275	69.4178
825.966	69.5495
827.657	68.8186
829.347	69.0001
831.037	69.0329
832.725	69.111
834.414	68.6381
836.103	68.4282
837.792	69.4565
839.481	70.7223
841.167	71.1744
842.854	70.4501
844.542	71.3929
846.229	72.1415
847.914	73.5061
849.6	73.8437
851.287	74.2141
852.973	75.389
854.656	75.3141
856.341	74.6622
858.026	72.6778
859.711	71.6826
861.393	71.3215
863.077	70.6127
864.761	68.2882
866.442	66.3996
868.125	66.2278
869.808	64.8891
871.489	64.1073
873.171	62.943
874.85	63.3075
876.532	62.4788
878.213	61.17
879.892	59.6926
881.572	58.4627
883.251	57.2813
884.931	56.6605
886.61	55.127
888.287	53.693
889.966	52.3949
891.643	52.1455
893.321	51.2825
894.997	50.2419
896.675	49.9336
898.352	49.9075
900.028	49.8042
901.704	48.159
903.379	47.7457
905.055	49.1583
906.729	49.8355
908.404	49.701
910.077	50.4693
911.75	50.6501
913.425	52.6321
915.097	51.8283
916.771	51.5658
918.443	51.6421
920.116	51.9324
921.787	53.4066
923.46	53.3007
925.13	53.6778
926.8	53.6806
928.472	53.7629
930.141	52.776
931.813	53.3977
933.481	52.7492
935.15	51.5415
936.82	50.0146
938.488	48.0556
940.156	46.8459
941.825	45.8081
943.492	45.7007
945.158	45.2568
946.827	43.5496
948.493	42.0669
950.158	40.4679
951.824	40.8005
953.491	39.3558
955.156	38.2484
956.82	37.7637
958.486	35.6719
960.15	32.8438
961.814	32.4921
963.477	32.1379
965.142	32.2452
966.804	31.7924
968.467	31.5888
970.129	30.9557
971.79	30.015
973.454	29.6603
975.115	29.1614
976.776	28.7287
978.436	30.0549
980.096	30.4042
981.756	29.7279
983.417	29.539
985.077	28.3804
986.736	28.1794
988.394	28.1516
990.052	27.4758
991.71	26.9821
993.368	27.3374
995.025	26.8062
996.682	26.6217
998.341	25.8327
999.998	25.8868
1001.65	25.5971
1003.31	25.5129
1004.97	25.0802
1006.62	24.2598
1008.28	25.4753
1009.93	24.2822
1011.58	23.7061
1013.24	24.1386
1014.89	25.2309
1016.54	25.1217
1018.2	24.5654
1019.85	25.9425
1021.5	26.9767
1023.16	27.1392
1024.81	27.4434
1026.46	28.0065
1028.11	28.8808
1029.76	28.9465
1031.41	30.0419
1033.06	30.6276
1034.71	32.4887
1036.36	33.5348
1038.01	33.7708
1039.66	34.4883
1041.31	33.4791
1042.95	34.7265
1044.6	35.7292
1046.25	36.8971
1047.9	37.1618
1049.54	37.2916
1051.19	37.5553
1052.84	36.7054
1054.48	36.4193
1056.13	36.4568
1057.77	36.3632
1059.42	36.6325
1061.06	36.729
1062.71	33.8469
1064.35	31.6001
1066	29.9721
1067.64	28.4759
1069.28	28.0524
1070.93	26.4441
1072.57	24.8014
1074.21	23.9781
1075.85	22.4634
1077.49	21.0951
1079.13	19.4545
1080.78	18.4009
1082.42	16.9738
1084.06	15.9856
1085.7	14.4444
1087.34	13.1756
1088.97	11.8575
1090.61	11.3451
1092.25	9.82618
1093.89	10.0277
1095.53	10.9748
1097.17	10.7024
1098.8	10.4588
1100.44	11
1102.08	11.0151
1103.71	10.4945
1105.35	10.9636
1106.99	11.4662
1108.62	11.9038
1110.26	12.8846
1111.89	12.3407
1113.52	12.4704
1115.16	12.5447
1116.79	13.044
1118.43	12.8106
1120.06	13.0701
1121.69	13.3285
1123.32	13.5974
1124.96	15.4124
1126.59	15.6439
1128.22	16.8991
1129.85	17.2351
1131.48	16.5178
1133.11	16.6349
1134.75	17.9519
1136.37	19.4762
1138	20.2743
1139.63	21.4601
1141.26	20.8467
1142.89	20.8827
1144.52	19.9539
1146.15	20.4388
1147.78	19.8165
1149.4	20.1528
1151.03	19.3446
1152.66	18.4116
1154.28	18.068
1155.91	17.8933
1157.54	16.8453
1159.16	15.951
1160.79	14.3754
1162.41	14.8972
1164.04	13.8867
1165.66	12.9685
1167.29	11.4642
1168.91	10.727
1170.53	8.75314
1172.16	8.68643
1173.78	8.34361
1175.4	7.89662
1177.02	7.62897
1178.65	6.39903
1180.27	6.2042
1181.89	5.64679
1183.51	4.75894
1185.13	5.2672
1186.75	5.30948
1188.37	5.11696
1189.99	5.1022
1191.61	5.5024
1193.23	5.01931
1194.85	5.26252
1196.47	5.35234
1198.08	6.14231
1199.7	6.70978
1201.32	7.14321
1202.94	6.95807
1204.55	6.87663
1206.17	7.23482
1207.79	6.62578
1209.4	8.0017
1211.02	9.24055
1212.63	9.648
1214.25	11.6837
1215.86	14.0576
1217.48	14.7393
1219.09	15.7018
1220.71	16.8806
1222.32	17.1662
1223.93	18.7131
1225.54	18.349
1227.16	18.459
1228.77	18.9641
1230.38	19.5993
1231.99	19.681
1233.6	19.6006
1235.22	19.9459
1236.83	20.5921
1238.44	20.7383
1240.05	20.9678
1241.66	20.5749
1243.26	21.6679
1244.87	20.6729
1246.48	21.5483
1248.09	20.7076
1249.7	19.4554
1251.31	19.6036
1252.92	20.0677
1254.52	20.5966
1256.13	21.0158
1257.74	22.176
1259.34	22.1328
1260.95	22.7514
1262.55	23.1182
1264.16	24.4337
1265.76	25.3851
1267.37	25.5387
1268.97	25.2372
1270.58	25.2581
1272.18	26.2153
1273.78	26.2293
1275.39	26.0925
1276.99	26.8862
1278.59	28.1812
1280.2	28.0639
1281.8	28.1117
1283.4	28.9431
1285	30.7693
1286.6	31.6853
1288.2	33.0746
1289.8	34.1921
1291.4	35.7243
1293	36.6332
1294.6	38.1658
1296.2	40.0658
1297.8	39.8262
1299.4	40.3702
1301	40.9977
1302.6	40.7772
1304.19	42.3357
1305.79	42.0495
1307.39	42.2303
1308.99	42.5625
1310.58	42.1866
1312.18	42.6295
1313.77	42.5391
1315.37	42.8088
1316.96	42.1353
1318.56	41.1067
1320.15	41.4966
1321.75	41.159
1323.34	41.7981
1324.94	41.2209
1326.53	40.6352
1328.12	38.9379
1329.72	38.6859
1331.31	38.7077
1332.9	38.6713
1334.49	38.8497
1336.08	39.104
1337.67	39.0463
1339.27	37.6426
1340.86	37.4837
1342.45	37.4917
1344.04	37.3392
1345.63	36.3018
1347.22	35.6899
1348.8	35.0446
1350.39	35.2103
1351.98	34.8573
1353.57	33.9309
1355.16	33.5139
1356.75	34.5685
1358.33	34.1563
1359.92	33.5195
1361.51	34.064
1363.09	34.4482
1364.68	35.0636
1366.27	34.1799
1367.85	35.0535
1369.44	35.2194
1371.02	36.2128
1372.61	36.5159
1374.19	36.1944
1375.77	36.6689
1377.36	36.429
1378.94	36.6475
1380.52	38.1823
1382.11	38.7143
1383.69	39.1937
1385.27	38.2241
1386.85	37.951
1388.43	37.0143
1390.02	37.0078
1391.6	36.5942
1393.18	36.2219
1394.76	36.621
1396.34	36.3309
1397.92	36.5008
1399.5	36.0169
1401.08	36.1778
1402.65	36.9265
1404.23	36.9189
1405.81	38.2425
1407.39	39.0221
1408.97	39.4798
1410.54	40.4446
1412.12	42.6376
1413.7	43.6788
1415.27	45.1118
1416.85	45.5729
1418.43	45.9792
1420	47.9194
1421.58	49.0821
1423.15	50.8557
1424.73	52.0465
1426.3	53.2986
1427.87	54.8038
1429.45	56.729
1431.02	58.5976
1432.6	60.1529
1434.17	62.2053
1435.74	63.72
1437.31	64.1803
1438.89	65.381
1440.46	66.377
1442.03	66.7168
1443.6	67.7431
1445.17	67.8145
1446.74	68.5715
1448.31	68.4229
1449.88	69.2567
1451.45	69.5465
1453.02	68.6824
1454.59	68.4798
1456.16	67.0771
1457.72	65.7369
1459.29	64.0876
1460.86	62.0793
1462.43	59.3681
1463.99	57.552
1465.56	55.9219
1467.13	53.7559
1468.69	52.4799
1470.26	50.4484
1471.83	49.3927
1473.39	47.5452
1474.95	45.1318
1476.52	43.8459
1478.08	42.5277
1479.65	42.295
1481.21	41.3688
1482.78	39.1524
1484.34	38.0707
1485.9	35.9484
1487.47	34.3675
1489.03	33.5262
1490.59	32.5364
1492.15	30.5928
1493.71	29.1843
1495.27	28.3273
1496.84	27.4317
1498.39	27.268
1499.96	26.6394
1501.52	26.3374
1503.07	26.0317
1504.64	25.6966
1506.19	25.6329
1507.75	24.4988
1509.31	23.7863
1510.87	23.2405
1512.43	22.4547
1513.98	21.3827
1515.54	21.0804
1517.1	20.4132
1518.65	19.2501
1520.21	19.1633
1521.77	18.6036
1523.32	18.1876
1524.88	18.1608
1526.44	18.6454
1527.99	19.2285
1529.54	18.3107
1531.1	17.502
1532.65	17.3354
1534.21	17.0762
1535.76	17.0646
1537.31	17.1325
1538.87	18.1718
1540.42	18.2373
1541.97	18.7259
1543.52	19.3559
1545.07	20.1257
1546.63	20.2874
1548.18	21.8289
1549.73	23.3295
1551.28	24.3821
1552.83	25.1227
1554.38	25.453
1555.93	25.2553
1557.48	26.6845
1559.03	27.575
1560.57	27.3972
1562.12	27.099
1563.67	26.7437
1565.22	27.4946
1566.77	28.1594
1568.31	28.6997
1569.86	29.0375
1571.41	29.58
1572.95	30.1181
1574.5	29.9767
1576.05	30.5592
1577.59	32.1353
1579.14	32.6596
1580.68	33.5252
1582.23	33.3905
1583.77	34.0728
1585.31	34.8264
1586.86	36.5413
1588.4	38.115
1589.95	39.5531
1591.49	40.2918
1593.03	41.4395
1594.57	41.516
1596.11	41.9681
1597.66	41.8524
1599.2	42.0135
1600.74	42.6843
1602.28	43.1937
1603.82	43.7353
1605.36	42.4577
1606.9	42.4473
1608.44	42.1683
1609.98	42.2234
1611.52	42.4329
1613.06	42.4023
1614.6	41.7627
1616.13	42.1915
1617.67	41.6559
1619.21	41.811
1620.75	42.3826
1622.28	42.6929
1623.82	42.0179
1625.36	42.6105
1626.89	42.7756
1628.43	42.1715
1629.96	40.9622
1631.5	40.6499
1633.04	40.7154
1634.57	41.1098
1636.11	39.6309
1637.64	38.673
1639.17	38.1975
1640.71	38.5357
1642.24	39.49
1643.77	38.4333
1645.31	37.6833
1646.84	37.0769
1648.37	35.9231
1649.9	35.8777
1651.43	35.8041
1652.96	36.6048
1654.5	37.3204
1656.03	36.2743
1657.56	36.4226
1659.09	37.0099
1660.62	37.4021
1662.15	37.9159
1663.67	37.8898
1665.2	37.6329
1666.73	36.5124
1668.26	34.2636
1669.79	32.9241
1671.32	30.7607
1672.84	29.5575
1674.37	28.2547
1675.9	27.8701
1677.43	26.8949
1678.95	26.4415
1680.48	24.5917
1682	23.15
1683.53	22.7675
1685.05	21.8146
1686.58	21.6712
1688.1	20.6988
1689.63	19.1586
1691.15	18.2329
1692.68	18.5146
1694.2	17.3816
1695.72	17.1857
1697.25	15.6083
1698.77	14.7876
1700.29	14.156
1701.81	13.6749
1703.33	13.2663
1704.86	12.6762
1706.38	12.2316
1707.9	12.6354
1709.42	12.3245
1710.94	11.8827
1712.46	11.3856
1713.98	11.4357
1715.5	10.8473
1717.02	10.3722
1718.54	10.0527
1720.06	8.50719
1721.57	8.7259
1723.09	8.22269
1724.61	7.71437
1726.13	8.48026
1727.64	8.86877
1729.16	8.55966
1730.68	7.88753
1732.19	7.14073
1733.71	7.74274
1735.23	7.83136
1736.74	6.60538
1738.26	6.37615
1739.77	5.68845
1741.29	5.04856
1742.8	3.93922
1744.31	3.33843
1745.83	3.25119
1747.34	3.591
1748.85	4.42618
1750.37	3.9897
1751.88	4.17263
1753.39	3.7241
1754.91	3.75665
1756.42	3.31541
1757.93	3.09319
1759.44	2.80268
1760.95	3.15856
1762.46	2.95544
1763.97	2.62708
1765.48	2.79521
1766.99	3.21955
1768.5	3.38237
1770.01	2.72322
1771.52	2.58668
1773.03	2.30843
1774.54	3.17756
1776.04	3.3423
1777.55	3.05769
1779.06	3.39731
1780.57	3.65485
1782.07	3.49078
1783.58	3.61486
1785.09	3.24497
1786.59	3.2856
1788.1	3.22869
1789.6	3.35678
1791.11	2.99802
1792.61	3.11456
1794.12	3.01625
1795.62	3.03055
1797.13	2.92465
1798.63	2.54429
1800.13	2.81961
1801.64	3.37385
1803.14	3.40335
1804.64	2.99453
1806.15	3.19767
1807.65	3.19029
1809.15	3.07883
1810.65	2.65027
1812.15	2.60501
1813.65	2.76706
1815.16	2.77825
1816.66	2.40588
1818.15	2.17866
1819.66	2.34962
1821.16	2.73103
1822.65	2.53634
1824.15	2.42354
1825.65	2.53208
1827.15	2.55458
1828.65	2.21381
1830.15	2.61813
1831.64	2.42265
1833.14	2.56708
1834.64	3.21328
1836.14	3.74517
1837.63	3.83317
1839.13	4.68601
1840.62	5.479
1842.12	5.31171
1843.62	4.42434
1845.11	4.16372
1846.61	4.05753
1848.1	3.33891
1849.6	2.91793
1851.09	2.76607
1852.58	2.48433
1854.08	2.37303
1855.57	2.34017
1857.06	2.29579
1858.55	2.54063
1860.05	2.56657
1861.54	2.44809
1863.03	2.38561
1864.52	2.88496
1866.01	2.76649
1867.5	3.43647
1869	3.96179
1870.49	5.07489
1871.98	5.1917
1873.47	5.71058
1874.96	5.9783
1876.44	5.6761
1877.93	5.97447
1879.42	5.57816
1880.91	5.85918
1882.4	5.72528
1882.47	5.61982
1883.96	5.70002
1885.46	4.91246
1886.95	4.72218
1888.44	4.73759
1889.94	4.31949
1891.43	4.32551
1892.93	4.60027
1894.42	4.52056
1895.91	4.64273
1897.4	5.32298
1898.89	5.56741
1900.39	5.45132
1901.88	6.27832
1903.37	7.019
1904.86	7.06107
1906.35	7.87753
1907.84	7.83051
1909.33	7.07719
1910.82	6.58737
1912.31	6.36547
1913.8	5.64729
1915.29	4.19009
1916.77	3.48188
1918.26	3.87423
1919.75	4.2896
1921.24	3.93419
1922.73	3.80195
1924.21	3.82794
1925.7	3.46695
1927.19	3.23328
1928.67	3.81783
1930.16	3.47471
1931.64	3.75421
1933.13	4.0681
1934.61	4.5832
1936.1	5.26588
1937.58	5.62887
1939.07	5.85818
1940.55	6.49268
1942.04	6.68091
1943.52	6.27663
1945	4.72173
1946.49	5.40187
1947.97	5.50241
1949.45	5.0021
1950.93	5.88805
1952.42	5.14554
1953.9	4.10292
1955.38	3.2228
1956.86	2.90867
1958.34	3.01264
1959.82	2.8986
1961.3	2.81721
1962.78	2.35751
1964.26	2.61667
1965.74	2.94535
1967.22	3.21307
1968.7	3.52272
1970.18	3.92668
1971.65	4.06377
1973.13	4.35782
1974.61	4.31113
1976.09	4.85862
1977.57	4.89634
1979.04	5.18966
1980.52	5.47643
1982	4.98565
1983.47	4.65101
1984.95	5.29721
1986.42	5.18073
1987.9	4.98358
1989.37	4.97198
1990.85	5.26545
1992.32	5.06012
1993.8	4.71133
1995.27	4.27812
1996.75	3.70823
1998.22	3.61261
1999.69	3.98017
2001.17	4.42452
2002.64	5.32213
2004.11	5.35844
2005.58	6.50006
2007.05	7.01339
2008.53	6.70484
2010	7.25019
2011.47	7.10896
2012.94	7.38303
2014.41	6.70318
2015.88	6.94815
2017.35	6.91262
2018.82	7.54041
2020.29	9.31937
2021.76	8.47169
2023.23	7.97106
2024.7	8.20309
2026.16	6.95496
2027.63	7.02468
2029.1	8.10119
2030.57	8.07512
2032.03	8.33599
2033.5	8.04918
2034.97	7.15079
2036.44	8.00476
2037.9	8.68453
2039.37	8.28344
2040.83	8.08627
2042.3	8.27377
2043.76	8.04059
2045.23	8.20224
2046.69	8.01416
2048.16	7.68701
2049.62	7.86884
2051.08	7.88638
2052.55	7.95568
2054.01	8.13213
2055.47	8.22931
2056.94	8.08961
2058.4	8.30461
2059.86	8.24895
2061.32	8.71532
2062.79	8.30504
2064.25	7.98568
2065.71	8.60691
2067.17	9.53402
2068.63	9.10395
2070.09	9.0352
2071.55	9.94883
2073.01	10.5803
2074.47	11.1151
2075.93	11.4437
2077.39	11.7702
2078.85	11.8159
2080.31	12.1348
2081.76	12.4707
2083.22	12.8876
2084.68	13.2496
2086.13	13.572
2087.59	13.62
2089.05	14.8654
2090.51	15.6012
2091.96	16.4042
2093.42	15.8638
2094.87	15.7676
2096.33	16.3566
2097.78	17.1879
2099.24	17.325
2100.69	17.7122
2102.15	17.5899
2103.6	17.9791
2105.06	18.8647
2106.51	18.7945
2107.96	18.9813
2109.42	19.5235
2110.87	19.2869
2112.32	19.0611
2113.77	19.1461
2115.23	19.8145
2116.68	19.6842
2118.13	20.0273
2119.58	20.4525
2121.03	20.6007
2122.48	21.1481
2123.93	22.9518
2125.38	23.6407
2126.83	25.16
2128.28	26.1855
2129.73	26.811
2131.18	27.7393
2132.63	28.2362
2134.08	28.1958
2135.53	28.7001
2136.97	29.6711
2138.42	31.0167
2139.87	30.8844
2141.32	30.7867
2142.76	32.445
2144.21	32.9735
2145.66	33.5555
2147.1	34.309
2148.55	34.7344
2150	35.3182
2151.44	35.861
2152.89	36.9057
2154.33	37.0309
2155.78	37.1841
2157.22	37.7814
2158.66	38.1442
2160.11	39.0288
2161.55	40.5291
2163	40.8486
2164.44	40.6636
2165.88	40.6167
2167.32	41.6135
2168.77	41.1808
2170.21	40.6582
2171.65	39.9341
2173.09	39.253
2174.53	38.9885
2175.97	39.1091
2177.41	38.5792
2178.85	37.8474
2180.29	37.7505
2181.73	36.8378
2183.17	36.2038
2184.61	35.4402
2186.05	35.0938
2187.49	34.3769
2188.93	33.9261
2190.37	33.9749
2191.81	33.7435
2193.24	33.0062
2194.68	32.7342
2196.12	32.6742
2197.56	31.8788
2198.99	31.8697
2200.43	30.6448
2201.87	29.0883
2203.3	29.1702
2204.74	28.7628
2206.17	28.4492
2207.61	28.435
2209.04	28.2885
2210.48	28.1484
2211.91	27.6188
2213.35	27.4871
2214.78	27.3727
2216.21	26.645
2217.65	26.5916
2219.08	25.7722
2220.51	25.4113
2221.95	25.0449
2223.38	24.1294
2224.81	23.2866
2226.24	22.2386
2227.67	22.625
2229.1	22.8403
2230.54	22.2271
2231.97	21.3418
2233.4	20.0896
2234.83	18.4425
2236.26	17.8127
2237.69	17.2596
2239.11	15.9966
2240.54	14.9258
2241.97	14.2195
2243.4	13.4369
2244.83	12.8784
2246.26	12.5915
2247.69	12.2632
2249.11	12.3466
2250.54	11.3787
2251.97	10.8927
2253.4	10.4045
2254.82	9.70452
2256.25	9.62217
2257.67	9.37682
2259.1	9.21403
2260.53	9.5031
2261.95	8.87546
2263.38	8.01822
2264.8	8.09323
2266.23	8.02701
2267.65	8.34304
2269.07	8.62957
2270.5	8.59247
2271.92	8.9331
2273.34	9.01787
2274.77	9.85798
2276.19	9.23718
2277.61	9.68159
2279.03	9.71022
2280.46	9.59379
2281.88	10.0485
2283.3	10.4525
2284.72	10.979
2286.14	11.2913
2287.56	10.6875
2288.98	10.4578
2290.4	9.45497
2291.82	8.82308
2293.24	7.7518
2294.66	7.09159
2296.08	7.41121
2297.5	8.31687
2298.92	8.76597
2300.34	8.44677
2301.76	7.27528
2303.17	7.72275
2304.59	7.3909
2306.01	7.95931
2307.43	8.37213
2308.84	8.6668
2310.26	8.34935
2311.68	8.38074
2313.09	8.61921
2314.51	8.56378
2315.92	8.93778
2317.34	9.18249
2318.75	9.22158
2320.17	9.60834
2321.58	9.54329
2323	10.4749
2324.41	10.3022
2325.82	9.8769
2327.24	10.5115
2328.65	10.8505
2330.06	11.0009
2331.48	10.2153
2332.89	9.95589
2334.3	10.23
2335.71	10.386
2337.12	10.1514
2338.54	9.84149
2339.95	9.03938
2341.36	8.6188
2342.77	8.03833
2344.18	6.71066
2345.59	6.65546
2347	7.06604
2348.41	7.27161
2349.82	6.51697
2351.23	6.70147
2352.64	7.25005
2354.04	6.64129
2355.45	6.62122
2356.86	6.51882
2358.27	5.48544
2359.68	5.29653
2361.08	4.21187
2362.49	3.85758
2363.9	3.91652
2365.3	3.99924
2366.71	3.63881
2368.12	4.56282
2369.52	3.99071
2370.93	3.73095
2372.33	3.36014
2373.74	3.81019
2375.14	3.60355
2376.55	4.3816
2377.95	3.92159
2379.36	4.31768
2380.76	3.97054
2382.16	4.48145
2383.57	4.87046
2384.97	4.39172
2386.37	5.19367
2387.78	5.24753
2389.18	5.44848
2390.58	6.18207
2391.98	6.55242
2393.38	6.83743
2394.79	5.77785
2396.19	5.36236
2397.59	5.55379
2398.99	5.2732
2400.39	4.75612
2401.79	4.15836
2403.19	4.90299
2404.59	4.78561
2405.99	4.5377
2407.39	4.56444
2408.78	3.95319
2410.18	3.6068
2411.58	4.487
2412.98	4.0499
2414.38	4.42018
2415.77	5.0278
2417.17	5.71877
2418.57	5.12306
2419.97	5.47969
2421.36	5.97947
2422.76	6.10156
2424.15	6.26572
2425.55	7.02686
2426.95	7.27459
2428.34	6.98768
2429.74	6.39295
2431.13	6.12702
2432.52	6.74579
2433.92	6.69265
2435.31	6.84361
2436.71	7.08189
2438.1	8.0436
2439.49	7.74503
2440.89	7.96267
2442.28	8.1054
2443.67	7.89067
2445.06	7.66713
2446.46	7.70115
2447.85	7.22188
2449.24	7.63725
2450.63	7.1933
2452.02	6.94394
2453.41	6.17774
2454.8	6.4267
2456.19	6.60578
2457.58	6.46427
2458.97	6.8129
2460.36	6.81097
2461.75	6.27673
2463.14	6.26671
2464.53	5.36538
2465.92	5.22789
2467.31	5.48984
2468.69	5.06409
2470.08	5.35401
2471.47	5.25391
2472.86	5.60377
2474.24	5.15885
2475.63	5.34577
2477.02	5.02208
2478.4	4.36259
2479.79	4.5267
2481.17	3.90264
2482.56	3.16184
2483.94	3.56713
2485.33	3.7878
2486.72	3.56767
2488.1	2.99233
2489.48	3.18612
2490.87	3.57092
2492.25	3.64403
2493.64	4.49473
2495.02	5.48225
2496.4	5.02515
2497.79	5.21897
2499.17	4.52779
2500.55	4.88239
2501.93	5.23731
2503.31	5.41382
2504.69	5.76804
2506.08	5.51651
2507.46	5.92917
2508.84	6.09922
2510.22	5.66491
2511.6	5.84528
2512.98	6.00943
2514.36	5.46604
2515.74	4.92179
2517.12	4.80756
2518.5	4.73232
2519.88	4.36607
2521.25	4.04023
2522.63	4.25799
2524.01	5.63685
2525.39	5.49716
2526.77	5.87086
2528.14	4.87201
2529.52	4.91041
2530.9	4.96525
2532.27	5.21442
2533.65	4.30754
2535.03	3.8055
2536.4	4.99438
2537.78	4.68888
2539.15	4.61501
2540.53	4.06014
2541.9	3.76584
2543.28	3.43404
2544.65	2.72224
2546.03	2.38546
2547.4	1.86271
2548.77	2.10561
2550.15	1.59014
2551.52	2.12403
2552.89	2.32025
2554.27	2.17389
2555.64	1.84289
2557.01	2.20578
2558.38	2.74304
2559.75	3.48672
2561.12	2.86185
2562.5	3.53068
2563.87	3.33086
2565.24	2.64357
2566.61	2.63453
2567.98	2.52889
2569.35	3.1203
2570.72	4.12697
2572.09	4.64239
2573.46	4.71719
2574.83	5.36938
2576.19	6.05931
2577.56	6.29771
2578.93	6.45472
2580.3	6.49271
2581.67	6.05485
2583.04	5.25594
2584.4	5.99597
2585.77	6.0427
2587.14	5.46141
2588.5	5.80846
2589.87	5.53791
2591.23	6.28857
2592.6	7.35268
2593.97	6.91061
2595.33	6.03702
2596.7	5.77248
2598.06	5.97001
2599.43	5.84557
2600.79	5.42252
2602.15	4.69044
2603.52	4.91414
2604.88	5.2824
2606.25	3.61887
2607.61	3.50217
2608.97	3.89787
2610.33	4.25399
2611.7	4.44889
2613.06	4.22884
2614.42	4.36622
2615.78	3.85329
2617.15	3.98732
2618.51	3.75229
2619.87	4.05057
2621.23	4.02158
2622.59	3.44325
2623.95	3.407
2625.31	3.08994
2626.67	3.60003
2628.03	4.46552
2629.39	4.10497
2630.75	4.45625
2632.1	4.15809
2633.46	4.57982
2634.82	5.66043
2636.18	6.96351
2637.54	7.98021
2638.89	8.79831
2640.25	9.36894
2641.61	10.0574
2642.97	10.5673
2644.32	10.1823
2645.68	9.9789
2647.03	9.28238
2648.39	9.55259
2649.75	10.3244
2651.1	10.5674
2652.46	10.8702
2653.81	10.123
2655.17	10.4563
2656.52	10.9145
2657.88	10.4468
2659.23	11.2228
2660.58	10.894
2661.94	10.0477
2663.29	9.63724
2664.64	10.0219
2666	9.7303
2667.35	10.5935
2668.7	10.2405
2670.05	10.6002
2671.4	10.7865
2672.76	10.6699
2674.11	11.0478
2675.46	11.8373
2676.81	12.0562
2678.16	11.9404
2679.51	11.221
2680.86	10.4454
2682.21	10.2383
2683.56	10.309
2684.91	10.5283
2686.26	10.6049
2687.61	10.5359
2688.96	10.3281
2690.3	10.4442
2691.65	10.7744
2693	11.1146
2694.35	11.3143
2695.7	12.1067
2697.04	11.6274
2698.39	11.6772
2699.74	11.9196
2701.08	12.5294
2702.43	13.1871
2703.77	12.9785
2705.12	13.7078
2706.47	13.91
2707.81	14.3201
2709.16	14.2458
2710.5	13.9066
2711.85	14.1663
2713.19	14.8365
2714.53	15.3512
2715.88	16.2504
2717.22	16.1472
2718.57	15.8951
2719.91	15.8177
2721.25	15.3481
2722.59	15.3863
2723.94	14.698
2725.28	14.2947
2726.62	14.1463
2727.96	13.5385
2729.3	13.4042
2730.65	12.7628
2731.99	12.4249
2733.33	12.3882
2734.67	12.8026
2736.01	11.8363
2737.35	12.3547
2738.69	11.966
2740.03	11.8302
2741.37	12.0007
2742.71	11.2405
2744.05	10.5895
2745.38	10.4781
2746.72	10.4809
2748.06	10.5243
2749.4	10.7024
2750.74	10.8409
2752.07	10.6187
2753.41	10.6987
2754.75	9.80888
2756.09	9.41056
2757.42	9.04039
2758.76	8.70856
2760.09	8.07422
2761.43	7.48117
2762.77	7.61392
2764.1	6.3792
2765.44	6.11654
2766.77	5.98962
2768.11	6.16369
2769.44	6.75755
2770.77	7.06752
2772.11	7.56449
2773.44	7.05259
2774.77	6.79007
2776.11	5.90774
2777.44	5.95517
2778.77	6.00018
2780.11	6.02408
2781.44	5.82342
2782.77	5.24726
2784.1	4.63498
2785.43	4.31803
2786.77	3.33597
2788.1	2.7332
2789.43	2.83697
2790.76	2.08315
2792.09	1.85928
2793.42	1.38134
2794.75	1.21674
2796.08	1.69577
2797.41	2.02838
2798.74	2.3948
2800.07	2.43952
2801.4	2.90117
2802.72	3.08401
2804.05	3.82519
2805.38	4.04188
2806.71	4.59908
2808.04	4.84045
2809.36	5.1846
2810.69	5.70542
2812.02	6.11607
2813.34	6.72459
2814.67	6.89804
2816	8.05884
2817.32	8.66537
2818.65	9.92537
2819.97	11.6645
2821.3	12.3471
2822.62	14.7111
2823.95	16.8106
2825.27	18.5018
2826.6	19.7779
2827.92	21.7963
2829.25	23.8228
2830.57	25.9652
2831.89	27.9696
2833.22	30.3113
2834.54	32.8917
2835.86	35.4817
2837.18	36.8436
2838.51	38.9103
2839.83	41.3269
2841.15	44.0556
2842.47	46.3905
2843.79	50.038
2845.11	53.0583
2846.43	56.5871
2847.76	59.587
2849.08	62.3463
2850.4	65.5184
2851.72	68.8181
2853.04	71.9748
2854.36	75.7446
2855.67	79.0288
2856.99	81.3883
2858.31	83.8952
2859.63	86.8845
2860.95	90.5859
2862.27	92.9988
2863.58	94.782
2864.9	97.0548
2866.22	99.5272
2867.54	102.147
2868.85	103.732
2870.17	105.165
2871.49	107.4
2872.8	109.207
2874.12	110.517
2875.43	112.125
2876.75	113.383
2878.07	115.33
2879.38	116.774
2880.7	118.588
2882.01	120.387
2883.32	121.934
2884.64	124.665
2885.95	126.802
2887.27	127.656
2888.58	129.075
2889.89	130.452
2891.21	132.391
2892.52	134.156
2893.83	135.477
2895.14	137.679
2896.46	138.876
2897.77	140.623
2899.08	143.046
2900.39	144.859
2901.7	147.066
2903.01	149.614
2904.32	152.225
2905.63	154.735
2906.94	156.81
2908.25	159.065
2909.56	162.739
2910.87	166.112
2912.18	169.132
2913.49	171.876
2914.8	174.88
2916.11	177.418
2917.42	179.587
2918.72	181.54
2920.03	183.174
2921.34	185.127
2922.65	186.301
2923.95	187.724
2925.26	189.175
2926.57	189.494
2927.88	189.175
2929.18	188.842
2930.49	188.302
2931.79	187.605
2933.1	186.818
2934.4	184.981
2935.71	184.118
2937.01	182.487
2938.32	179.593
2939.62	176.715
2940.93	173.738
2942.23	170.499
2943.54	167.518
2944.84	163.596
2946.14	160.523
2947.45	156.493
2948.75	153.524
2950.05	150.091
2951.35	146.088
2952.66	141.546
2953.96	138.307
2955.26	134.977
2956.56	130.759
2957.86	126.649
2959.16	121.966
2960.46	118.391
2961.77	113.924
2963.07	110.791
2964.37	107.489
2965.66	104.796
2966.96	101.706
2968.26	98.6723
2969.56	95.421
2970.86	92.4327
2972.16	89.2031
2973.46	87.2604
2974.76	85.265
2976.06	82.8837
2977.35	79.8841
2978.65	78.0893
2979.95	75.429
2981.25	72.4861
2982.54	69.8768
2983.84	68.0425
2985.14	66.34
2986.43	64.3455
2987.73	61.8813
2989.02	59.0654
2990.32	55.8894
2991.62	52.8381
2992.91	50.2404
2994.21	48.038
2995.5	46.3021
2996.8	44.3193
2998.09	41.8956
2999.38	39.4203
3000.68	37.363
3001.97	34.7063
3003.26	32.6341
3004.56	30.8705
3005.85	29.4085
3007.14	27.4788
3008.43	25.8263
3009.73	23.5907
3011.02	21.5544
3012.31	19.8783
3013.6	18.5634
3014.89	16.9713
3016.19	15.4419
3017.48	14.0524
3018.77	12.701
3020.06	11.6155
3021.35	10.8042
3022.64	9.67866
3023.93	8.49795
3025.22	7.85616
3026.5	6.94749
3027.79	7.07684
3029.08	6.64042
3030.37	5.63347
3031.66	4.73184
3032.95	5.05894
3034.24	4.12138
3035.52	3.97484
3036.81	4.40085
3038.1	4.80387
3039.39	5.18387
3040.67	5.25223
3041.96	5.04807
3043.25	5.87646
3044.53	5.01236
3045.82	5.50423
3047.1	5.33638
3048.39	6.01372
3049.67	5.78996
3050.96	5.5369
3052.24	5.38392
3053.53	5.10113
3054.81	5.40849
3056.1	6.20983
3057.38	6.56683
3058.67	6.33803
3059.95	5.9589
3061.23	5.31111
3062.52	5.673
3063.8	5.89884
3065.08	5.35356
3066.36	5.77403
3067.65	5.64101
3068.93	5.74186
3070.21	5.45774
3071.49	4.34024
3072.77	3.88756
3074.05	3.65756
3075.33	3.51563
3076.61	3.81772
3077.89	3.79644
3079.17	3.41524
3080.45	2.81762
3081.73	2.50163
3083.01	1.8588
3084.29	1.46562
3085.57	0.702277
3086.85	0.11533
3088.13	0.332411
3089.41	0.614664
3090.68	0.872386
3091.96	1.28267
3093.24	0.946743
3094.52	0.712432
3095.79	1.48469
3097.07	1.05974
3098.35	0.440112
3099.62	1.60172
3100.9	1.0046
3102.18	0.73497
3103.45	1.15524
3104.73	0.752996
3106	0.658045
3107.28	0.819095
3108.55	-0.215232
3109.83	1.03139
3111.1	1.05242
3112.38	1.51753
3113.65	1.24062
3114.93	1.7054
3116.2	1.48444
3117.47	2.0869
3118.75	2.37496
3120.02	2.37058
3121.29	1.96462
3122.57	1.81682
3123.84	2.68016
3125.11	2.97654
3126.38	3.77852
3127.65	3.759
3128.92	3.71076
3130.2	4.63713
3131.47	4.72528
3132.74	5.29315
3134.01	5.46549
3135.28	6.10064
3136.55	7.07459
3137.82	7.84071
3139.09	8.17004
3140.36	8.81852
3141.63	9.34046
3142.9	10.0825
3144.17	11.2276
3145.43	12.3346
3146.7	13.6037
3147.97	14.693
3149.24	14.8696
