#Acq. time (s)=	45
#Accumulations=	2
#Range (cm-¹)=	200...3150
#Windows=	2
#Auto scanning=	Off
#Autofocus=	Off
#Macrospot=	Off
#AutoExposure=	Off
#Spike filter=	Multiple accum.
#Delay time (s)=	0
#Binning=	1
#Readout mode=	Signal
#DeNoise=	Off
#ICS correction=	On
#Dark correction=	Off
#Inst. Process=	Off
#Detector Gain=	Best Dynamic Range
#Detector ADC=	20 kHz       
#Detector temperature (°C)=	-69.85
#Instrument=	LabRAM HR Evol
#Detector=	Synapse
#Objective=	x100
#Grating=	600 gr/mm
#ND Filter=	100%
#Laser (nm)=	532 
#Hole=	100.021
#Range=	Auto
#Laser Pol.=	No
#Raman. Pol.=	No
#Laser Pol. (°)=	-0.0007625
#Raman Pol. (°)=	89.9995
#Collection=	Microscope
#StageXY=	Marzhauser
#StageZ=	Marzhauser
#X (µm)=	-1077.6
#Y (µm)=	600.9
#Z (µm)=	584.45
#Full time(mm:ss)=	3:18
#Project=	
#Sample=	
#Site=	
#Title=	Mb_40_y_40_2x_45s_532 nm_x100_100%_600 gr_mm
#Remark=	
#Date=	19.07.2022 12:42
#Acquired=	19.07.2022 12:42:42
#Base:Fit=	10.08.2022 10:52:48
#Base:Sub=	10.08.2022 10:52:53
#Filter:Polynom=	16.08.2022 10:09:04
#AxisType[0]=Intens
#AxisUnit[0]=Cnt
#AxisType[1]=Spectr
#AxisUnit[1]=1/cm
200.423	39.8292
202.238	36.7073
204.052	32.5516
205.868	29.9017
207.682	27.6053
209.495	25.5928
211.308	23.6209
213.12	21.1786
214.935	19.1006
216.746	16.9718
218.558	15.0875
220.369	12.7236
222.18	11.8551
223.992	11.4044
225.802	11.2908
227.612	11.7702
229.421	11.7459
231.23	10.681
233.039	9.52256
234.849	8.60204
236.657	7.41122
238.465	5.79155
240.272	5.87755
242.079	6.44832
243.885	5.84505
245.691	6.03526
247.497	5.67942
249.305	6.24496
251.11	7.02205
252.915	7.1705
254.719	7.01163
256.523	8.19292
258.327	8.54533
260.13	9.08306
261.933	9.52845
263.736	9.159
265.538	9.47088
267.34	10.0488
269.141	11.2916
270.943	11.7942
272.744	12.7616
274.544	12.95
276.344	13.6237
278.144	13.8209
279.944	13.4277
281.743	13.2295
283.542	12.5373
285.34	12.1632
287.138	12.0423
288.936	12.8684
290.733	13.7736
292.53	14.3623
294.327	15.1361
296.123	14.5679
297.919	14.5521
299.715	15.6317
301.508	16.0287
303.303	16.4323
305.098	17.5602
306.892	18.2432
308.686	18.9107
310.479	19.4192
312.273	20.0869
314.065	20.6208
315.858	21.2365
317.648	20.9086
319.44	19.5138
321.231	18.7614
323.022	19.5709
324.813	19.5043
326.604	18.9305
328.392	18.9858
330.181	20.1324
331.971	19.8922
333.76	19.9876
335.548	20.2915
337.335	20.7628
339.123	21.3741
340.91	21.3617
342.698	21.2786
344.483	20.7488
346.269	20.4686
348.055	19.4738
349.841	18.4529
351.625	17.4623
353.41	16.2996
355.195	16.9277
356.977	16.1644
358.762	15.1218
360.545	14.7827
362.329	13.7525
364.11	12.6663
365.893	12.7063
367.675	11.4653
369.455	10.2569
371.237	9.81759
373.017	9.62304
374.798	9.34273
376.578	9.20484
378.357	10.1796
380.137	9.95818
381.917	9.91441
383.694	10.3296
385.473	10.6558
387.249	11.3651
389.028	12.2242
390.806	12.1224
392.581	11.6309
394.359	11.4085
396.134	10.3955
397.91	9.39216
399.684	8.39126
401.46	8.38617
403.234	9.19325
405.009	8.95926
406.784	8.47076
408.557	9.05457
410.331	9.1968
412.103	8.99124
413.876	7.73709
415.647	7.57553
417.42	7.71874
419.191	7.73154
420.961	7.54415
422.733	7.9445
424.502	6.90705
426.273	6.81085
428.042	5.78065
429.812	5.84258
431.58	6.03091
433.35	4.84312
435.118	5.07762
436.885	4.9075
438.653	3.87167
440.42	4.1652
442.188	4.18896
443.954	5.03626
445.719	3.46105
447.486	4.25948
449.251	4.41626
451.015	4.23412
452.781	5.35521
454.545	6.69022
456.308	6.41428
458.073	7.00168
459.836	7.34946
461.598	7.8905
463.362	8.48266
465.124	9.41372
466.885	10.7392
468.648	10.3844
470.408	10.4103
472.169	11.2364
473.929	12.0331
475.69	11.7653
477.45	12.3624
479.208	11.9622
480.967	11.9314
482.727	11.6602
484.485	11.8472
486.243	13.0147
488	13.8326
489.759	14.7472
491.515	15.058
493.272	15.4426
495.028	15.8177
496.783	16.3382
498.54	15.9661
500.295	16.6529
502.05	16.8637
503.804	17.7435
505.558	18.5131
507.311	18.7314
509.064	18.4687
510.819	18.8045
512.572	18.809
514.324	19.7713
516.076	21.2087
517.827	21.6187
519.578	21.9867
521.329	20.9505
523.08	20.9645
524.83	21.2596
526.58	20.299
528.329	20.1844
530.08	19.3717
531.829	19.4167
533.578	18.7868
535.326	19.1621
537.074	18.3484
538.821	16.996
540.568	16.7856
542.315	16.3213
544.062	15.1595
545.808	14.3295
547.554	12.693
549.299	11.9718
551.044	10.2233
552.789	9.77705
554.533	8.40818
556.278	7.32135
558.019	6.45294
559.763	5.73585
561.506	5.08053
563.249	3.44129
564.991	3.26319
566.733	2.09424
568.475	1.8747
570.217	1.37848
571.958	1.61743
573.699	1.43942
575.439	0.717193
577.177	0.526334
578.917	1.10985
580.656	1.16709
582.396	0.771505
584.134	0.975106
585.873	0.648185
587.609	1.16166
589.347	0.554376
591.084	0.80577
592.822	0.951341
594.558	0.474689
596.295	1.40239
598.029	2.01699
599.765	2.54294
601.5	3.34613
603.235	3.96699
604.968	3.56702
606.703	4.64849
608.437	4.26884
610.171	4.77166
611.902	4.52058
613.635	3.83234
615.368	4.14584
617.099	3.58923
618.831	4.10176
620.563	4.2313
622.294	3.97071
624.024	4.41394
625.755	4.04748
627.485	5.10483
629.213	5.2865
630.943	5.75548
632.673	5.40576
634.4	5.14263
636.129	5.38652
637.855	6.05789
639.584	6.16448
641.312	6.29497
643.037	6.67312
644.764	6.96691
646.491	7.31176
648.216	7.77677
649.942	7.3273
651.666	7.95873
653.392	8.54792
655.115	8.78798
656.84	9.16435
658.563	9.58809
660.287	9.47971
662.011	9.44371
663.732	9.63455
665.456	9.70484
667.177	9.01991
668.899	9.62112
670.62	10.6875
672.342	11.0282
674.061	11.7554
675.781	12.6088
677.502	14.0557
679.22	15.8686
680.941	17.1647
682.659	17.9406
684.379	18.2705
686.096	20.2859
687.815	21.9034
689.532	22.802
691.248	23.6436
692.966	24.9944
694.682	26.3672
696.4	27.5736
698.115	28.1335
699.829	28.9864
701.546	29.9687
703.26	31.2174
704.974	33.541
706.689	34.3913
708.402	35.3273
710.115	35.7774
711.83	35.4513
713.542	36.6758
715.254	37.6771
716.967	39.1492
718.679	38.6406
720.39	38.2532
722.102	38.6311
723.812	39.0666
725.522	39.4698
727.232	40.4063
728.943	39.5748
730.652	39.5818
732.361	39.0001
734.069	38.7105
735.779	39.7956
737.487	39.9928
739.194	40.348
740.901	40.2137
742.608	40.0115
744.316	40.4935
746.022	39.791
747.728	40.1388
749.433	40.6629
751.138	41.5955
752.843	42.1021
754.549	43.1389
756.254	42.6097
757.957	43.1643
759.661	44.2486
761.364	45.0013
763.067	45.6601
764.769	45.8228
766.471	46.8296
768.175	47.6732
769.877	49.0389
771.578	50.2666
773.279	51.2519
774.98	51.9999
776.68	52.7631
778.38	53.8403
780.079	54.9752
781.779	55.2422
783.478	56.7543
785.176	58.558
786.875	59.7868
788.573	61.4281
790.27	61.3755
791.968	61.9935
793.665	61.6996
795.361	61.9769
797.058	62.2339
798.754	63.4594
800.45	63.6224
802.145	63.1619
803.84	62.1378
805.535	61.9715
807.23	62.4231
808.922	62.964
810.616	62.7715
812.309	61.9488
814.002	61.1467
815.695	61.8273
817.388	62.2083
819.08	62.7284
820.772	62.6998
822.464	61.7842
824.153	61.743
825.844	61.9478
827.535	61.2768
829.225	61.1837
830.915	59.338
832.605	59.6567
834.292	58.9948
835.981	58.4547
837.67	57.4393
839.359	55.9542
841.047	55.0952
842.732	55.0399
844.42	53.4074
846.107	52.1434
847.794	51.0142
849.479	50.1032
851.165	50.6377
852.851	50.6592
854.534	49.6749
856.22	48.5445
857.905	46.8634
859.589	45.8095
861.272	45.6588
862.956	45.9912
864.639	46.0753
866.321	46.579
868.004	46.8745
869.687	45.5348
871.367	44.6431
873.049	44.5287
874.731	43.4788
876.41	43.1655
878.092	41.9952
879.771	41.4968
881.451	40.8106
883.131	41.2782
884.809	41.0421
886.489	40.5791
888.166	40.0375
889.845	40.6453
891.522	41.5682
893.2	41.3772
894.878	41.3085
896.554	41.1499
898.231	40.7848
899.906	40.815
901.583	40.6779
903.258	40.4287
904.934	40.2619
906.608	41.1584
908.283	41.226
909.956	41.695
911.631	40.6461
913.304	39.8475
914.976	39.7636
916.65	40.1349
918.322	39.0654
919.995	38.4567
921.666	38.0568
923.339	38.3505
925.009	38.7636
926.679	37.7286
928.351	37.4605
930.021	36.9917
931.692	37.4952
933.361	37.5639
935.029	37.6022
936.699	37.3095
938.367	36.204
940.035	35.9638
941.704	35.7002
943.371	36.2486
945.038	35.8959
946.706	34.8789
948.372	34.8707
950.038	34.8283
951.705	34.2533
953.37	33.7189
955.035	33.8392
956.7	33.4773
958.366	32.9214
960.03	31.9793
961.693	31.8097
963.357	31.8554
965.021	31.9769
966.684	32.2294
968.346	31.4611
970.008	30.3305
971.67	29.6518
973.334	29.9825
974.995	29.5385
976.655	28.9018
978.316	28.3045
979.976	27.9632
981.638	28.3548
983.297	28.7582
984.957	28.493
986.616	27.7385
988.274	27.1536
989.932	26.4191
991.59	25.2143
993.248	23.6588
994.907	21.8977
996.565	20.0296
998.221	18.5506
999.878	15.6003
1001.53	13.5389
1003.19	12.0295
1004.85	12.4408
1006.5	13.8243
1008.16	15.4349
1009.81	18.8739
1011.46	24.048
1013.12	30.7122
1014.77	38.0484
1016.43	45.35
1018.08	53.5154
1019.73	60.8713
1021.38	68.4641
1023.04	75.1921
1024.69	80.9376
1026.34	87.7325
1027.99	94.4923
1029.64	101.12
1031.29	107.564
1032.94	112.449
1034.59	117.112
1036.24	119.956
1037.89	122.956
1039.54	125.6
1041.19	128.352
1042.84	129.149
1044.48	130.011
1046.13	130.348
1047.78	130.124
1049.42	129.754
1051.07	127.533
1052.72	124.592
1054.36	122.328
1056.01	119.989
1057.66	116.488
1059.3	111.906
1060.94	106.395
1062.59	101.244
1064.23	94.6357
1065.88	87.5351
1067.52	79.476
1069.16	72.5783
1070.81	64.4959
1072.45	56.497
1074.09	48.3824
1075.73	39.9486
1077.38	32.2664
1079.02	25.2454
1080.66	18.9069
1082.3	13.6856
1083.94	10.376
1085.58	8.21093
1087.22	8.09501
1088.86	7.95319
1090.5	8.94967
1092.13	8.92433
1093.77	9.94348
1095.41	10.8449
1097.05	11.3823
1098.68	12.1279
1100.32	13.0251
1101.96	14.0124
1103.6	15.0166
1105.23	15.9861
1106.87	16.7458
1108.5	18.4377
1110.14	19.4165
1111.77	19.5926
1113.41	19.4223
1115.04	19.3486
1116.67	19.9299
1118.31	19.3393
1119.94	18.9515
1121.58	19.6849
1123.21	19.8214
1124.84	18.6918
1126.47	19.2335
1128.1	19.6072
1129.73	19.0256
1131.37	16.94
1133	16.0096
1134.63	15.3934
1136.26	16.0098
1137.89	15.268
1139.52	13.7944
1141.14	13.6554
1142.77	12.893
1144.4	12.5487
1146.03	12.189
1147.66	11.6497
1149.29	10.8092
1150.91	10.6698
1152.54	9.32599
1154.17	8.43976
1155.79	8.46042
1157.42	8.33615
1159.04	7.19466
1160.67	6.93399
1162.3	6.36017
1163.92	5.15224
1165.55	4.04402
1167.17	2.85443
1168.79	2.06261
1170.42	0.44572
1172.04	-0.159797
1173.66	-1.78272
1175.28	-1.87598
1176.91	-2.18585
1178.53	-0.888568
1180.15	-1.03077
1181.77	0.259062
1183.39	0.654887
1185.01	1.09273
1186.63	1.40801
1188.25	0.613708
1189.87	1.16267
1191.49	1.52577
1193.11	1.44072
1194.73	1.54601
1196.35	2.28346
1197.97	2.84435
1199.59	2.35017
1201.2	2.92176
1202.82	3.74806
1204.44	2.94508
1206.05	3.3073
1207.67	5.10306
1209.29	5.06807
1210.9	5.73198
1212.52	5.75902
1214.13	7.86992
1215.75	8.35755
1217.36	8.436
1218.97	9.09936
1220.59	10.5847
1222.2	13.1
1223.82	13.505
1225.43	15.2022
1227.04	16.5995
1228.65	17.9453
1230.26	19.5786
1231.88	20.16
1233.49	21.8868
1235.1	23.6512
1236.71	25.3414
1238.32	25.9957
1239.93	26.6725
1241.54	28.4973
1243.15	30.0019
1244.76	30.2608
1246.37	31.1281
1247.97	31.6731
1249.58	32.0815
1251.19	32.7147
1252.8	33.3939
1254.41	34.0069
1256.01	35.1859
1257.62	36.4639
1259.23	37.6842
1260.83	38.4467
1262.44	40.2235
1264.04	40.9849
1265.65	41.4838
1267.25	41.7087
1268.86	42.2558
1270.46	42.8855
1272.07	42.7676
1273.67	42.1939
1275.27	42.7882
1276.88	43.7207
1278.48	44.5454
1280.08	45.2819
1281.68	45.677
1283.28	45.5914
1284.89	46.4843
1286.49	48.5618
1288.09	49.3425
1289.69	49.108
1291.29	49.6148
1292.89	49.376
1294.49	49.1068
1296.09	49.8963
1297.69	49.8633
1299.29	51.3497
1300.88	51.9913
1302.48	52.3587
1304.08	51.3515
1305.68	52.2834
1307.27	52.3136
1308.87	52.0037
1310.47	51.5366
1312.06	51.0943
1313.66	52.0484
1315.25	51.7082
1316.85	50.8398
1318.44	50.7926
1320.04	50.6874
1321.63	50.5459
1323.23	49.6413
1324.82	48.5717
1326.41	48.5309
1328.01	48.7311
1329.6	48.1208
1331.19	48.0438
1332.78	47.8692
1334.38	47.304
1335.97	46.8823
1337.56	46.7366
1339.15	46.398
1340.74	46.6311
1342.33	46.402
1343.92	45.419
1345.51	44.7606
1347.1	43.8343
1348.69	43.3414
1350.28	43.2503
1351.87	43.4218
1353.46	44.1161
1355.04	44.294
1356.63	43.9652
1358.22	43.8379
1359.81	43.0347
1361.39	42.6737
1362.98	42.5156
1364.57	41.7244
1366.15	41.3849
1367.74	41.2247
1369.32	41.692
1370.91	40.4887
1372.49	39.6925
1374.07	38.8393
1375.66	39.2302
1377.24	38.1971
1378.83	38.0856
1380.41	36.8045
1381.99	35.8348
1383.57	35.1974
1385.16	36.268
1386.74	35.3778
1388.32	34.9325
1389.9	35.6322
1391.48	35.4174
1393.06	35.0778
1394.64	34.4967
1396.22	34.7052
1397.8	35.6387
1399.38	36.6195
1400.96	36.6645
1402.54	37.5187
1404.12	39.395
1405.7	40.8107
1407.28	42.3566
1408.85	42.938
1410.43	44.6774
1412.01	45.9385
1413.58	46.8419
1415.16	48.6331
1416.74	49.9693
1418.31	51.5309
1419.89	53.5064
1421.46	54.1654
1423.04	56.1059
1424.61	57.5875
1426.19	59.2059
1427.76	61.0099
1429.33	62.5954
1430.91	63.9353
1432.48	65.002
1434.05	66.168
1435.63	68.2027
1437.2	69.2705
1438.77	70.3553
1440.34	71.4994
1441.91	70.7817
1443.49	71.0972
1445.05	72.7286
1446.63	72.9188
1448.2	71.7016
1449.77	70.7539
1451.34	70.4565
1452.91	70.2688
1454.47	69.2998
1456.04	68.4705
1457.61	67.7491
1459.18	67.1214
1460.75	66.6668
1462.31	64.801
1463.88	63.4071
1465.45	61.103
1467.01	59.4596
1468.58	58.1129
1470.15	55.7824
1471.71	54.387
1473.28	53.3519
1474.84	52.3608
1476.41	51.5888
1477.97	50.214
1479.54	48.0583
1481.1	47.4782
1482.66	46.7521
1484.23	44.6917
1485.79	42.7623
1487.35	40.4325
1488.91	39.6869
1490.48	38.0436
1492.04	36.1925
1493.6	34.4939
1495.16	32.5938
1496.72	31.6047
1498.28	30.6648
1499.84	30.4151
1501.4	30.3933
1502.96	28.2737
1504.52	27.7525
1506.08	27.2783
1507.64	27.097
1509.2	27.0271
1510.76	26.0952
1512.31	25.2097
1513.87	24.8123
1515.43	24.3558
1516.99	24.4326
1518.54	23.7993
1520.1	24.004
1521.66	24.5741
1523.21	24.6631
1524.77	24.6345
1526.32	24.8848
1527.88	25.57
1529.43	25.5294
1530.99	26.062
1532.54	25.9212
1534.09	26.3044
1535.65	26.4061
1537.2	26.5012
1538.75	26.1725
1540.31	26.0465
1541.86	27.1283
1543.41	28.2717
1544.96	28.8552
1546.51	29.9578
1548.06	31.2824
1549.62	31.8346
1551.17	32.489
1552.72	33.282
1554.27	34.5564
1555.82	34.5857
1557.36	34.3609
1558.91	34.7443
1560.46	35.1052
1562.01	34.2336
1563.56	34.9229
1565.11	35.3856
1566.66	36.1801
1568.2	36.4079
1569.75	36.9218
1571.3	38.136
1572.84	38.6662
1574.39	39.5867
1575.93	40.1155
1577.48	40.5304
1579.02	40.8852
1580.57	41.1227
1582.11	41.6523
1583.66	41.7832
1585.2	42.4234
1586.75	42.1498
1588.29	41.7571
1589.83	41.8191
1591.38	42.447
1592.92	42.8518
1594.46	42.3823
1596	41.9059
1597.54	42.0942
1599.09	41.7452
1600.63	41.752
1602.17	41.525
1603.71	41.027
1605.25	41.1902
1606.79	40.5999
1608.33	39.9408
1609.87	39.4305
1611.41	39.5082
1612.95	40.4648
1614.48	40.7986
1616.02	40.1199
1617.56	40.0429
1619.1	40.1248
1620.64	40.7829
1622.17	41.2853
1623.71	42.2796
1625.25	43.2342
1626.78	43.6624
1628.32	44.8032
1629.86	45.8363
1631.39	46.5128
1632.92	47.1056
1634.46	46.729
1635.99	47.7543
1637.53	48.5758
1639.06	48.4633
1640.59	49.5101
1642.13	49.6125
1643.66	50.4433
1645.19	51.0482
1646.73	51.3247
1648.26	52.3911
1649.79	51.6801
1651.32	51.7016
1652.85	51.8292
1654.38	51.7735
1655.92	52.0546
1657.45	51.2577
1658.98	50.1714
1660.51	49.1038
1662.04	48.5926
1663.57	46.8319
1665.09	45.6632
1666.62	45.3572
1668.15	44.1664
1669.68	43.8602
1671.21	42.1863
1672.73	41.0094
1674.26	39.5418
1675.79	37.5501
1677.31	35.8821
1678.84	34.471
1680.37	32.5098
1681.89	30.3075
1683.42	27.5948
1684.94	26.0803
1686.47	25.2415
1687.99	24.3307
1689.52	22.7862
1691.04	20.9209
1692.57	19.3883
1694.09	18.8528
1695.61	18.6358
1697.14	17.9846
1698.66	17.6558
1700.18	17.1443
1701.7	15.6821
1703.22	14.9133
1704.75	14.0365
1706.27	12.8616
1707.79	11.4252
1709.31	10.8156
1710.83	9.4208
1712.35	9.69606
1713.87	8.93979
1715.39	8.36377
1716.91	8.45055
1718.43	8.41591
1719.95	8.08426
1721.46	8.21043
1722.98	8.48509
1724.5	8.63171
1726.02	7.40544
1727.53	8.1678
1729.05	7.93587
1730.57	7.93761
1732.08	7.68116
1733.6	6.64486
1735.12	5.75794
1736.63	5.46777
1738.15	5.65511
1739.66	5.72054
1741.18	5.7607
1742.69	6.44478
1744.21	5.22798
1745.72	5.2199
1747.23	4.36231
1748.74	3.71281
1750.26	3.25323
1751.77	3.14761
1753.28	3.11688
1754.8	2.76567
1756.31	1.92166
1757.82	1.61821
1759.33	1.45763
1760.84	1.93916
1762.35	1.93011
1763.86	1.43837
1765.37	0.951039
1766.88	1.10295
1768.39	0.65348
1769.9	0.581194
1771.41	0.521397
1772.92	-0.00619358
1774.43	0.0744193
1775.93	-0.0587817
1777.44	-0.225095
1778.95	0.275324
1780.46	0.53124
1781.96	0.600793
1783.47	1.14069
1784.98	2.21849
1786.48	2.11687
1787.99	2.83958
1789.49	3.15212
1791	3.60701
1792.5	3.67675
1794.01	3.80149
1795.51	3.49815
1797.02	4.00595
1798.52	4.22133
1800.03	4.06278
1801.53	4.16966
1803.03	4.62477
1804.53	4.02926
1806.04	3.96888
1807.54	3.43511
1809.04	3.64218
1810.54	4.29112
1812.04	4.45472
1813.54	4.65765
1815.05	4.80115
1816.55	4.25648
1818.05	4.20397
1819.55	3.96276
1821.05	4.32293
1822.55	4.89087
1824.05	5.03058
1825.54	4.90098
1827.04	4.57649
1828.54	4.2417
1830.04	4.6635
1831.54	4.47505
1833.03	4.65687
1834.53	4.78805
1836.03	4.33539
1837.52	4.08443
1839.02	3.84776
1840.52	4.12491
1842.01	4.27459
1843.51	4.20399
1845	4.12815
1846.5	4.0419
1847.99	4.37963
1849.49	5.04407
1850.98	5.54585
1852.47	5.36361
1853.97	5.68391
1855.46	6.22401
1856.95	6.74366
1858.45	7.0407
1859.94	6.94175
1861.43	6.03301
1862.92	5.92697
1864.41	5.81881
1865.91	5.51725
1867.4	5.26295
1868.89	5.18419
1870.38	5.4395
1871.87	5.67412
1873.36	5.54852
1874.85	5.36542
1876.34	5.16388
1877.83	5.05134
1879.31	5.19562
1880.8	5.10819
1882.29	5.05292
1882.56	5.46826
1884.05	5.31214
1885.54	4.91039
1887.04	4.89069
1888.53	5.25835
1890.03	4.94677
1891.52	5.61588
1893.01	6.16946
1894.5	6.65233
1895.99	6.74905
1897.49	6.54696
1898.98	6.26395
1900.47	6.52481
1901.96	6.44705
1903.45	6.98555
1904.94	6.82274
1906.43	6.35829
1907.92	6.22956
1909.41	6.28414
1910.9	6.83145
1912.39	7.9941
1913.88	8.40363
1915.37	8.76322
1916.86	8.80305
1918.35	8.91776
1919.84	9.16461
1921.32	9.48798
1922.81	9.68781
1924.3	9.02312
1925.78	9.26408
1927.27	9.37759
1928.76	9.18602
1930.24	8.55485
1931.73	7.73041
1933.21	7.15645
1934.7	6.6906
1936.18	6.63106
1937.67	6.65283
1939.15	6.34281
1940.64	6.0244
1942.12	6.1979
1943.6	6.09465
1945.09	5.67398
1946.57	5.04068
1948.05	4.8358
1949.54	5.02377
1951.02	5.09244
1952.5	5.26604
1953.98	4.38788
1955.46	4.14459
1956.94	4.32482
1958.42	3.62051
1959.91	3.89364
1961.39	5.10036
1962.87	5.29892
1964.34	5.26688
1965.82	5.60677
1967.3	6.08266
1968.78	6.564
1970.26	6.14763
1971.74	6.71796
1973.22	7.05497
1974.7	7.83223
1976.17	7.74602
1977.65	8.74535
1979.13	8.65766
1980.6	9.53474
1982.08	10.811
1983.56	11.3176
1985.03	11.7007
1986.51	12.2789
1987.98	11.863
1989.46	12.1334
1990.93	12.1287
1992.41	12.7335
1993.88	12.962
1995.36	13.3485
1996.83	14.1863
1998.3	14.0793
1999.78	14.6453
2001.25	14.5421
2002.72	14.765
2004.2	14.4314
2005.67	14.504
2007.14	14.5061
2008.61	14.8802
2010.08	14.9914
2011.55	15.1933
2013.02	15.7873
2014.49	16.2171
2015.97	16.7783
2017.43	16.4118
2018.9	16.0994
2020.37	15.8131
2021.84	16.8276
2023.31	17.3257
2024.78	16.929
2026.25	17.054
2027.72	16.9122
2029.19	17.7037
2030.65	18.1303
2032.12	18.1046
2033.59	18.9038
2035.05	19.4018
2036.52	18.9917
2037.98	19.0244
2039.45	18.9655
2040.92	19.7803
2042.38	19.8424
2043.85	19.7205
2045.31	20.2958
2046.78	20.5108
2048.24	20.0682
2049.71	19.8189
2051.17	20.3666
2052.63	20.2162
2054.1	21.1733
2055.56	20.991
2057.02	20.6397
2058.48	21.0251
2059.95	21.2418
2061.41	21.9513
2062.87	22.6342
2064.33	22.6124
2065.79	22.7949
2067.25	22.6068
2068.71	22.7982
2070.17	22.8778
2071.63	22.4616
2073.09	23.5981
2074.55	24.2184
2076.01	24.155
2077.47	24.4889
2078.93	25.0396
2080.39	25.866
2081.85	26.5596
2083.3	27.4582
2084.76	27.6427
2086.22	28.4587
2087.68	28.321
2089.13	28.5847
2090.59	28.9755
2092.05	29.9242
2093.5	30.5331
2094.96	31.4819
2096.41	31.413
2097.87	32.1175
2099.32	32.9624
2100.78	33.4727
2102.23	34.3289
2103.69	34.6833
2105.14	35.0184
2106.59	35.8872
2108.05	36.3224
2109.5	37.2489
2110.95	37.6136
2112.41	38.5264
2113.86	39.1298
2115.31	40.0765
2116.76	41.329
2118.21	42.5072
2119.67	42.8085
2121.12	43.31
2122.57	44.5891
2124.02	44.7955
2125.47	45.7237
2126.92	46.7599
2128.37	47.2816
2129.82	48.479
2131.27	50.4251
2132.71	51.1337
2134.16	52.1858
2135.61	52.6504
2137.06	52.9671
2138.51	53.795
2139.95	54.7775
2141.4	55.7265
2142.85	57.3252
2144.29	58.3435
2145.74	59.2496
2147.19	59.8245
2148.63	60.7108
2150.08	62.1602
2151.52	63.2551
2152.97	64.0884
2154.42	64.7695
2155.86	65.7989
2157.3	65.7109
2158.75	66.5335
2160.19	67.1324
2161.64	67.8223
2163.08	68.5538
2164.52	68.9604
2165.96	68.9783
2167.41	70.0218
2168.85	70.586
2170.29	70.9993
2171.73	71.0966
2173.17	71.4052
2174.61	71.5665
2176.06	70.9279
2177.5	70.7854
2178.94	70.9832
2180.38	70.1754
2181.82	70.1869
2183.26	69.4442
2184.7	68.9878
2186.14	68.1626
2187.57	67.8317
2189.01	66.8316
2190.45	65.3276
2191.89	63.6903
2193.33	63.3705
2194.76	62.8487
2196.2	61.9299
2197.64	61.7359
2199.08	60.75
2200.51	59.8793
2201.95	59.0591
2203.38	57.4715
2204.82	55.8608
2206.25	54.5104
2207.69	52.9062
2209.12	51.416
2210.56	49.8516
2211.99	49.0397
2213.43	48.1118
2214.86	47.0509
2216.3	45.4389
2217.73	44.8058
2219.16	44.1894
2220.59	43.3045
2222.03	42.3292
2223.46	41.3256
2224.89	40.5574
2226.32	40.1823
2227.75	38.7345
2229.19	37.9223
2230.62	37.1954
2232.05	36.703
2233.48	36.1617
2234.91	36.0435
2236.34	35.1162
2237.77	34.5173
2239.2	33.5161
2240.63	32.178
2242.06	30.9995
2243.48	29.9425
2244.91	28.781
2246.34	27.4997
2247.77	26.7921
2249.2	26.3037
2250.62	25.336
2252.05	24.7183
2253.48	24.3653
2254.9	23.7258
2256.33	23.0685
2257.76	22.5827
2259.18	22.5798
2260.61	22.0241
2262.03	22.079
2263.46	21.8349
2264.88	22.0832
2266.31	21.5513
2267.73	20.5045
2269.16	19.3499
2270.58	18.6652
2272	18.1844
2273.43	17.4487
2274.85	17.0513
2276.27	17.1207
2277.69	16.5139
2279.12	15.8678
2280.54	15.5898
2281.96	14.8286
2283.38	14.9462
2284.8	14.189
2286.22	13.7913
2287.64	13.3861
2289.07	13.3606
2290.49	12.7153
2291.91	12.2677
2293.32	11.7213
2294.74	11.6343
2296.16	12.2332
2297.58	12.1686
2299	12.3175
2300.42	12.793
2301.84	12.9794
2303.26	13.4979
2304.67	13.8885
2306.09	13.9766
2307.51	13.0496
2308.92	12.8253
2310.34	11.9747
2311.76	11.5079
2313.17	11.8152
2314.59	11.9736
2316	11.8217
2317.42	11.6659
2318.83	11.7782
2320.25	11.7413
2321.66	11.508
2323.08	11.7826
2324.49	11.7052
2325.91	12.0608
2327.32	12.1258
2328.73	12.2633
2330.15	12.0786
2331.56	11.5249
2332.97	11.2714
2334.38	10.4165
2335.79	10.1034
2337.21	9.49423
2338.62	8.77658
2340.03	8.58364
2341.44	8.71857
2342.85	8.22979
2344.26	7.67638
2345.67	7.0635
2347.08	6.17511
2348.49	5.4846
2349.9	4.84441
2351.31	4.19473
2352.72	3.17702
2354.13	2.78907
2355.53	1.90985
2356.94	1.61954
2358.35	0.823206
2359.76	0.374333
2361.17	0.304314
2362.57	0.363233
2363.98	0.840533
2365.39	1.76496
2366.79	2.87377
2368.2	2.19469
2369.6	2.47939
2371.01	1.73917
2372.42	1.75835
2373.82	1.85273
2375.22	1.71995
2376.63	0.942609
2378.03	0.232841
2379.44	0.061977
2380.84	0.3202
2382.25	0.902953
2383.65	1.27905
2385.05	1.37668
2386.45	1.56005
2387.86	2.10457
2389.26	2.13505
2390.66	3.01031
2392.06	3.20991
2393.46	3.86812
2394.87	4.09405
2396.27	4.42291
2397.67	4.22176
2399.07	4.00826
2400.47	3.94455
2401.87	3.5843
2403.27	3.67506
2404.67	4.03557
2406.07	3.72077
2407.47	3.91868
2408.86	3.66748
2410.26	3.67659
2411.66	3.77642
2413.06	3.55829
2414.46	3.65271
2415.85	3.85471
2417.25	4.62446
2418.65	4.81034
2420.05	4.92976
2421.44	4.73515
2422.84	4.94416
2424.23	5.13272
2425.63	5.14898
2427.03	5.00921
2428.42	5.22227
2429.82	4.94264
2431.21	5.36476
2432.6	4.96825
2434	4.61076
2435.39	4.01694
2436.79	3.73739
2438.18	2.19534
2439.57	2.62897
2440.97	1.91168
2442.36	2.00553
2443.75	2.13969
2445.14	1.78231
2446.54	1.85515
2447.93	2.27981
2449.32	2.11961
2450.71	2.37704
2452.1	2.4261
2453.49	2.60589
2454.88	2.89443
2456.27	3.21569
2457.66	2.90584
2459.05	2.7289
2460.44	3.38871
2461.83	2.71799
2463.22	2.62112
2464.61	2.57112
2466	2.7977
2467.39	2.48937
2468.77	2.58887
2470.16	2.69868
2471.55	2.74998
2472.94	2.64911
2474.32	2.82992
2475.71	2.90767
2477.1	3.50655
2478.48	3.78803
2479.87	4.45678
2481.25	4.65249
2482.64	4.80451
2484.02	4.70919
2485.41	5.13751
2486.8	5.00996
2488.18	4.58025
2489.56	4.61451
2490.95	4.68139
2492.33	4.45289
2493.72	3.53611
2495.1	2.99748
2496.48	2.36606
2497.86	2.13377
2499.25	1.48822
2500.63	1.38339
2502.01	1.12494
2503.39	1.06591
2504.77	1.38929
2506.16	1.69419
2507.54	1.60639
2508.92	2.49609
2510.3	2.70373
2511.68	3.11314
2513.06	3.32771
2514.44	3.30614
2515.82	3.7997
2517.2	3.43133
2518.58	3.23495
2519.95	3.52583
2521.33	3.6437
2522.71	3.88076
2524.09	3.38255
2525.47	3.82505
2526.84	3.43574
2528.22	3.88241
2529.6	4.17112
2530.98	4.38119
2532.35	5.26741
2533.73	6.06186
2535.11	6.24214
2536.48	5.96105
2537.86	5.95901
2539.23	6.28062
2540.61	6.50077
2541.98	6.35379
2543.36	6.72831
2544.73	6.5787
2546.1	5.91586
2547.48	6.01102
2548.85	5.93348
2550.23	5.5819
2551.6	5.61462
2552.97	5.10961
2554.34	5.28218
2555.72	4.84307
2557.09	4.67671
2558.46	4.45142
2559.83	4.41985
2561.2	3.73688
2562.58	3.3381
2563.95	3.78773
2565.32	3.98143
2566.69	4.08801
2568.06	3.85533
2569.43	4.28312
2570.8	4.57111
2572.17	4.39243
2573.54	4.61688
2574.91	4.51236
2576.27	4.53384
2577.64	4.37191
2579.01	4.10456
2580.38	3.42841
2581.75	3.10391
2583.11	2.79168
2584.48	2.43812
2585.85	1.95203
2587.21	1.74151
2588.58	1.39847
2589.95	1.4461
2591.31	1.65766
2592.68	1.51958
2594.04	2.2321
2595.41	2.26583
2596.78	2.51518
2598.14	2.55797
2599.51	2.84945
2600.87	3.01059
2602.23	3.25262
2603.6	2.81094
2604.96	2.51055
2606.32	2.68564
2607.69	2.70715
2609.05	2.46835
2610.41	2.24494
2611.77	2.34606
2613.14	2.34854
2614.5	2.45375
2615.86	2.69241
2617.22	2.63042
2618.58	2.22522
2619.94	2.3198
2621.3	2.03615
2622.67	2.5233
2624.03	2.49897
2625.39	2.53607
2626.75	2.41068
2628.1	2.16571
2629.46	2.06655
2630.82	2.05902
2632.18	2.23003
2633.54	2.10206
2634.9	1.79634
2636.26	1.90341
2637.61	2.14463
2638.97	2.10546
2640.33	1.78043
2641.69	1.80246
2643.04	1.63148
2644.4	1.22007
2645.76	1.20014
2647.11	1.39499
2648.47	1.29345
2649.82	1.59186
2651.18	1.45742
2652.53	1.14283
2653.89	1.44035
2655.24	1.30025
2656.6	1.52158
2657.95	1.64983
2659.31	1.9246
2660.66	2.44308
2662.01	2.7772
2663.37	2.63117
2664.72	2.50457
2666.07	3.12792
2667.43	3.02481
2668.78	3.58598
2670.13	4.25469
2671.48	4.00537
2672.83	4.51898
2674.18	5.01852
2675.53	4.96945
2676.89	5.49115
2678.24	5.63326
2679.59	5.67025
2680.94	5.62853
2682.29	5.73496
2683.64	6.06622
2684.99	6.15244
2686.34	6.93746
2687.68	7.55698
2689.03	7.99286
2690.38	8.3539
2691.73	7.93641
2693.08	8.14521
2694.43	8.13551
2695.77	8.12755
2697.12	8.69484
2698.47	8.80395
2699.81	8.89546
2701.16	8.86745
2702.51	8.52807
2703.85	8.23879
2705.2	8.41186
2706.54	8.13694
2707.89	7.81468
2709.23	7.87769
2710.58	8.0611
2711.92	7.64917
2713.27	7.62309
2714.61	7.55849
2715.96	7.22611
2717.3	7.10416
2718.64	6.73993
2719.99	6.59198
2721.33	6.84158
2722.67	6.44542
2724.01	6.66653
2725.36	6.68349
2726.7	6.34374
2728.04	5.79932
2729.38	5.39968
2730.72	5.63098
2732.06	5.74457
2733.41	5.93242
2734.75	5.89875
2736.09	6.71344
2737.43	7.00545
2738.77	6.79013
2740.11	6.86272
2741.44	6.52589
2742.78	6.2709
2744.12	6.3469
2745.46	6.14335
2746.8	6.17291
2748.14	6.1554
2749.48	5.78237
2750.81	6.10737
2752.15	6.01481
2753.49	6.76665
2754.83	6.51891
2756.16	6.59725
2757.5	6.46459
2758.84	6.3573
2760.17	6.60667
2761.51	6.16556
2762.84	6.3566
2764.18	6.16541
2765.51	5.53005
2766.85	5.46873
2768.18	5.04204
2769.52	5.03474
2770.85	4.82885
2772.19	4.95126
2773.52	4.14586
2774.85	3.96671
2776.19	3.49866
2777.52	2.58988
2778.85	1.96149
2780.18	1.9987
2781.52	1.45396
2782.85	1.0386
2784.18	0.71949
2785.51	0.98977
2786.84	0.992608
2788.17	1.47505
2789.51	1.3733
2790.84	1.27624
2792.17	0.783616
2793.5	0.801406
2794.83	0.934349
2796.16	1.11659
2797.48	1.38093
2798.81	0.884964
2800.14	0.843265
2801.47	1.19984
2802.8	1.14659
2804.13	0.783131
2805.46	0.510395
2806.79	0.0415327
2808.11	-0.171695
2809.44	-0.175728
2810.77	-0.842536
2812.09	-1.11776
2813.42	-0.903177
2814.75	-0.659302
2816.07	-0.027403
2817.4	1.33242
2818.73	2.26136
2820.05	3.51257
2821.38	4.35343
2822.7	5.4452
2824.03	6.46407
2825.35	7.50792
2826.67	8.86693
2828	10.4577
2829.32	12.3103
2830.65	13.2371
2831.97	15.3151
2833.29	17.0885
2834.62	18.25
2835.94	20.2403
2837.26	21.7587
2838.58	23.6347
2839.9	24.9637
2841.23	26.6192
2842.55	28.54
2843.87	30.3484
2845.19	33.2839
2846.51	35.8872
2847.83	38.654
2849.15	41.8933
2850.47	44.6155
2851.79	47.8203
2853.11	50.0434
2854.43	52.8812
2855.75	55.5381
2857.07	57.5237
2858.39	60.1067
2859.71	62.9147
2861.02	64.9791
2862.34	66.9515
2863.66	69.0363
2864.98	70.8041
2866.3	72.4623
2867.61	74.5049
2868.93	75.7372
2870.25	76.9163
2871.56	78.2981
2872.88	79.4084
2874.19	80.6748
2875.51	81.9988
2876.83	82.7216
2878.14	84.38
2879.46	86.4987
2880.77	87.8651
2882.09	89.4357
2883.4	91.1394
2884.71	92.096
2886.03	93.4023
2887.34	95.1654
2888.65	96.2341
2889.97	97.641
2891.28	99.0833
2892.59	99.9811
2893.91	101.381
2895.22	102.502
2896.53	104.18
2897.84	105.974
2899.15	107.433
2900.46	108.749
2901.78	110.803
2903.09	112.964
2904.4	115.16
2905.71	117.107
2907.02	120.265
2908.33	122.903
2909.64	126.458
2910.95	129.676
2912.26	133.045
2913.57	136.008
2914.87	138.662
2916.18	141.416
2917.49	144.384
2918.8	146.946
2920.11	150.133
2921.42	152.41
2922.72	154.123
2924.03	156.629
2925.34	158.098
2926.64	159.218
2927.95	160.394
2929.26	161.637
2930.56	162.15
2931.87	162.208
2933.17	162.614
2934.48	162.173
2935.78	161.8
2937.09	161.406
2938.39	160.703
2939.7	159.599
2941	158.012
2942.31	156.825
2943.61	155.343
2944.91	154.161
2946.22	151.825
2947.52	149.416
2948.82	146.384
2950.13	143.057
2951.43	140.17
2952.73	136.562
2954.03	132.906
2955.33	129.502
2956.64	125.705
2957.94	122.66
2959.24	119.687
2960.54	116.518
2961.84	113.162
2963.14	109.384
2964.44	105.827
2965.74	102.117
2967.04	99.2487
2968.34	96.345
2969.64	93.3002
2970.94	90.156
2972.24	87.4195
2973.53	84.5745
2974.83	82.5976
2976.13	79.1448
2977.43	76.1934
2978.73	73.2107
2980.02	70.2802
2981.32	67.9892
2982.62	65.5701
2983.91	62.8725
2985.21	60.2781
2986.51	57.0625
2987.8	54.2455
2989.1	51.3925
2990.4	48.3824
2991.69	45.7743
2992.99	43.0648
2994.28	39.979
2995.57	37.2838
2996.87	34.8362
2998.16	32.7516
2999.46	30.4364
3000.75	28.0284
3002.05	25.9451
3003.34	23.8063
3004.63	22.4026
3005.92	20.801
3007.22	19.3084
3008.51	17.121
3009.8	15.4401
3011.09	13.3183
3012.39	11.4788
3013.68	10.4467
3014.97	9.1709
3016.26	7.91641
3017.55	7.04373
3018.84	6.532
3020.13	5.73405
3021.42	5.2207
3022.71	4.87876
3024	4.06432
3025.29	3.68518
3026.58	3.14271
3027.87	3.09247
3029.16	2.64899
3030.45	2.61732
3031.73	3.02897
3033.02	3.72709
3034.31	3.84569
3035.6	4.1031
3036.89	4.60301
3038.17	4.9038
3039.46	4.99316
3040.75	5.45603
3042.03	5.74597
3043.32	6.58408
3044.61	6.91039
3045.89	7.6432
3047.18	7.29847
3048.46	6.99611
3049.75	6.68093
3051.03	6.31212
3052.32	6.20738
3053.6	6.36055
3054.89	6.21203
3056.17	6.3022
3057.45	6.20061
3058.74	6.28577
3060.02	6.46569
3061.31	5.93475
3062.59	5.89444
3063.87	6.09922
3065.15	5.45068
3066.44	5.42615
3067.72	5.14972
3069	4.89163
3070.28	4.01231
3071.56	3.04459
3072.84	2.62018
3074.13	2.98435
3075.41	2.84708
3076.69	2.58162
3077.97	2.71311
3079.25	1.93331
3080.53	1.72634
3081.81	1.42581
3083.09	1.39785
3084.37	1.20726
3085.64	0.427447
3086.92	0.509295
3088.2	0.358195
3089.48	0.373936
3090.76	0.19079
3092.04	-0.0290356
3093.31	-0.494368
3094.59	-0.211439
3095.87	0.585561
3097.14	0.873275
3098.42	0.793646
3099.7	1.10009
3100.97	1.22407
3102.25	1.26163
3103.53	1.84052
3104.8	2.50538
3106.08	2.73762
3107.35	3.06454
3108.63	3.53203
3109.9	3.67794
3111.18	3.79043
3112.45	4.30575
3113.73	4.7401
3115	5.02229
3116.27	5.53289
3117.55	5.91811
3118.82	6.17094
3120.09	6.81696
3121.37	7.13542
3122.64	7.63006
3123.91	7.87693
3125.18	7.89844
3126.45	8.5663
3127.73	8.72846
3129	8.20943
3130.27	8.99375
3131.54	9.36652
3132.81	9.84569
3134.08	10.4434
3135.35	10.7949
3136.62	11.6272
3137.89	12.3395
3139.16	12.091
3140.43	12.3451
3141.7	12.6716
3142.97	12.7876
3144.24	13.1908
3145.51	13.8139
3146.78	14.2995
3148.04	15.7818
3149.31	17.036
