#Acq. time (s)=	45
#Accumulations=	2
#Range (cm-¹)=	200...3150
#Windows=	2
#Auto scanning=	Off
#Autofocus=	Off
#Macrospot=	Off
#AutoExposure=	Off
#Spike filter=	Multiple accum.
#Delay time (s)=	0
#Binning=	1
#Readout mode=	Signal
#DeNoise=	Off
#ICS correction=	On
#Dark correction=	Off
#Inst. Process=	Off
#Detector Gain=	Best Dynamic Range
#Detector ADC=	20 kHz       
#Detector temperature (°C)=	-70.08
#Instrument=	LabRAM HR Evol
#Detector=	Synapse
#Objective=	x100
#Grating=	600 gr/mm
#ND Filter=	100%
#Laser (nm)=	532 
#Hole=	100.021
#Range=	Auto
#Laser Pol.=	No
#Raman. Pol.=	No
#Laser Pol. (°)=	-0.0007625
#Raman Pol. (°)=	89.9995
#Collection=	Microscope
#StageXY=	Marzhauser
#StageZ=	Marzhauser
#X (µm)=	-2527.8
#Y (µm)=	-15.3
#Z (µm)=	-10
#Full time(mm:ss)=	3:19
#Project=	
#Sample=	
#Site=	
#Title=	Mb_40_24_06_2x_45s_532 nm_x100_100%_600 gr_mm
#Remark=	
#Date=	14.07.2022 11:08
#Acquired=	14.07.2022 11:08:31
#Base:Fit=	10.08.2022 10:47:00
#Base:Sub=	10.08.2022 10:47:12
#Filter:Polynom=	16.08.2022 10:11:48
#AxisType[0]=Intens
#AxisUnit[0]=Cnt
#AxisType[1]=Spectr
#AxisUnit[1]=1/cm
200.554	39.3523
202.369	35.341
204.183	30.1284
205.999	26.1072
207.813	21.9881
209.626	19.0782
211.439	17.0634
213.253	14.5019
215.065	13.3804
216.877	11.8025
218.688	11.7142
220.5	11.3955
222.312	9.10651
224.123	6.4304
225.933	6.18075
227.742	5.57223
229.552	5.53582
231.361	3.30591
233.171	3.09773
234.98	3.3649
236.787	3.80363
238.595	3.75939
240.402	4.90714
242.209	4.48469
244.015	4.62931
245.822	5.00793
247.627	6.15163
249.435	7.38822
251.24	8.86004
253.045	10.3745
254.849	11.5405
256.653	11.2201
258.457	11.1315
260.26	10.0489
262.063	10.8834
263.866	10.7365
265.668	13.3216
267.47	13.9526
269.271	13.9338
271.073	12.5526
272.873	13.0692
274.674	13.03
276.474	11.9884
278.274	13.625
280.073	13.1403
281.872	12.5146
283.671	12.8639
285.47	13.7367
287.268	14.4801
289.065	14.4544
290.863	15.9268
292.66	14.5899
294.456	15.1904
296.253	15.0803
298.049	16.3067
299.844	16.96
301.637	17.682
303.432	17.8796
305.227	19.449
307.021	18.8885
308.815	18.973
310.609	18.2537
312.402	17.816
314.195	19.2271
315.987	20.9793
317.777	21.2159
319.569	21.8657
321.36	21.2235
323.151	23.4142
324.942	24.4708
326.733	25.6929
328.521	25.9895
330.31	26.7916
332.1	25.2942
333.889	25.4508
335.677	25.2646
337.464	25.3924
339.252	25.3984
341.039	25.8751
342.826	26.0791
344.611	25.0489
346.398	25.5636
348.184	25.644
349.97	25.6111
351.754	26.7514
353.539	27.1211
355.324	27.0444
357.106	24.5011
358.89	23.4666
360.674	21.719
362.455	22.6033
364.239	22.0565
366.021	20.2895
367.804	20.0811
369.584	19.2024
371.366	18.3439
373.145	18.6941
374.926	18.7802
376.707	18.3394
378.485	18.402
380.265	18.2723
382.045	17.3076
383.822	17.124
385.601	15.8198
387.378	16.7289
389.156	17.2237
390.934	15.6735
392.71	15.1142
394.487	14.1625
396.262	12.8837
398.038	12.6343
399.813	12.7307
401.588	12.3964
403.362	11.7083
405.137	11.7395
406.912	11.9146
408.685	12.5605
410.459	12.7113
412.23	14.3177
414.004	13.9162
415.775	13.1422
417.548	12.1617
419.318	12.4552
421.089	11.902
422.86	11.4616
424.63	12.3817
426.401	12.9387
428.17	13.3888
429.94	14.6983
431.708	14.5494
433.478	14.7587
435.245	15.2653
437.012	14.1929
438.781	14.4838
440.547	13.5681
442.315	13.8252
444.081	13.8638
445.846	13.7029
447.613	14.882
449.378	15.5721
451.142	17.1482
452.908	16.3036
454.672	15.0283
456.435	16.5652
458.2	17.5292
459.963	17.494
461.725	19.6468
463.489	19.8745
465.251	21.3859
467.012	21.9424
468.775	21.9263
470.536	21.3756
472.296	20.2838
474.056	20.0673
475.817	20.674
477.576	18.8382
479.335	17.508
481.094	18.0504
482.854	16.7627
484.612	16.3355
486.37	16.2397
488.127	15.1708
489.886	15.3315
491.642	16.374
493.398	16.9928
495.154	16.7434
496.91	15.3186
498.667	15.1653
500.422	14.8111
502.176	14.8874
503.93	14.5643
505.684	15.1498
507.438	16.4431
509.191	15.7401
510.946	15.0435
512.698	16.2775
514.45	15.0219
516.202	15.1996
517.954	16.5301
519.705	15.3541
521.456	14.3772
523.206	14.9397
524.956	15.7448
526.706	16.485
528.456	16.6641
530.207	17.9561
531.956	16.6347
533.704	15.5496
535.452	16.1647
537.2	16.9102
538.947	18.235
540.694	16.7537
542.441	17.0355
544.188	19.1266
545.934	20.6389
547.68	21.1358
549.425	22.3402
551.17	22.6505
552.915	23.6624
554.659	22.3182
556.403	21.8502
558.145	20.6733
559.889	20.0469
561.632	20.0946
563.375	19.2376
565.117	18.9654
566.859	19.3692
568.601	19.6094
570.342	19.1104
572.083	18.7103
573.824	17.7442
575.565	17.1385
577.303	17.0168
579.043	16.0381
580.782	14.8898
582.521	15.2972
584.26	15.9204
585.998	15.9024
587.734	15.4053
589.472	15.7617
591.21	13.3396
592.947	13.5657
594.684	13.4789
596.418	10.9606
598.154	10.1193
599.89	11.2157
601.626	9.1129
603.361	9.15627
605.094	8.71102
606.828	7.88004
608.562	8.64041
610.296	9.64145
612.027	8.61694
613.761	7.44425
615.493	6.58953
617.224	7.91439
618.956	7.33199
620.688	8.54723
622.419	9.04847
624.149	9.41096
625.879	8.80982
627.61	8.12749
629.338	9.44988
631.068	10.0044
632.797	11.1214
634.525	10.7495
636.254	10.564
637.98	11.4189
639.708	11.1751
641.436	11.6299
643.162	11.7927
644.889	12.8862
646.614	14.2374
648.34	15.0203
650.067	14.104
651.791	14.2445
653.516	13.7918
655.239	14.1932
656.964	14.1992
658.687	11.9657
660.411	11.9582
662.133	11.2225
663.857	9.67402
665.58	9.70196
667.301	10.2456
669.024	10.6136
670.744	11.1983
672.464	9.82944
674.186	10.2394
675.905	10.5808
677.626	10.4078
679.345	10.7553
681.065	11.4078
682.783	11.1105
684.503	11.7952
686.22	11.5922
687.939	9.58838
689.656	10.8068
691.372	12.0051
693.09	13.0937
694.806	13.8578
696.523	13.2202
698.239	13.6344
699.953	14.5399
701.67	14.9252
703.384	15.5065
705.098	14.3431
706.813	15.7604
708.526	17.1358
710.239	17.9287
711.954	17.7169
713.666	18.5401
715.378	18.6791
717.091	19.5937
718.802	20.1094
720.513	19.8838
722.226	19.8976
723.936	19.2456
725.646	18.4594
727.355	19.4035
729.067	19.0888
730.776	19.3931
732.484	19.7406
734.192	19.4171
735.902	18.8522
737.61	20.3694
739.317	21.8261
741.024	22.9108
742.731	22.8512
744.439	21.4148
746.145	24.332
747.851	24.5658
749.556	25.8676
751.262	28.1699
752.966	29.0355
754.673	29.9305
756.377	29.7481
758.081	29.6545
759.784	29.9767
761.487	31.5933
763.19	31.7298
764.892	30.8882
766.594	31.7804
768.296	31.1405
770	31.6051
771.701	31.647
773.402	32.2751
775.102	34.012
776.803	36.0803
778.503	37.1782
780.202	39.1118
781.901	39.3261
783.6	40.3283
785.299	41.797
786.997	43.759
788.695	45.8015
790.393	47.2209
792.09	48.7473
793.787	49.4973
795.484	50.001
797.18	50.282
798.877	51.1514
800.572	51.4745
802.268	53.2929
803.963	52.765
805.658	52.5951
807.35	52.4505
809.044	52.1222
810.738	52.9249
812.432	54.0805
814.125	53.8039
815.818	55.7277
817.51	55.6321
819.202	55.5297
820.894	57.0869
822.584	57.8263
824.275	58.4063
825.966	57.6775
827.657	56.7424
829.347	57.4575
831.037	59.5948
832.725	58.3752
834.414	58.3122
836.103	57.4736
837.792	56.657
839.481	56.0226
841.167	56.0567
842.854	56.4916
844.542	56.1842
846.229	56.3802
847.914	54.4974
849.6	53.4969
851.287	53.774
852.973	53.315
854.656	54.7898
856.341	55.1136
858.026	56.225
859.711	56.8137
861.393	56.582
863.077	56.9749
864.761	57.2928
866.442	56.4228
868.125	56.2899
869.808	57.2783
871.489	57.9609
873.171	56.9698
874.85	55.5724
876.532	54.8592
878.213	53.3084
879.892	52.0843
881.572	50.41
883.251	49.411
884.931	47.949
886.61	47.0921
888.287	44.0253
889.966	42.1115
891.643	40.8125
893.321	39.4873
894.997	38.8507
896.675	38.5609
898.352	36.7783
900.028	36.1909
901.704	34.1085
903.379	33.5721
905.055	33.3611
906.729	32.5113
908.404	31.7702
910.077	30.6287
911.75	30.5753
913.425	30.9312
915.097	30.1913
916.771	28.7445
918.443	28.4137
920.116	27.7628
921.787	28.0843
923.46	27.8394
925.13	28.5757
926.8	27.8307
928.472	28.4312
930.141	28.6715
931.813	28.5145
933.481	29.6717
935.15	30.4434
936.82	31.8673
938.488	33.4462
940.156	32.689
941.825	32.5939
943.492	31.4117
945.158	31.3685
946.827	32.1706
948.493	30.9257
950.158	31.0206
951.824	30.2781
953.491	30.2749
955.156	29.5553
956.82	26.1082
958.486	25.1733
960.15	24.7685
961.814	24.6647
963.477	24.7527
965.142	25.3551
966.804	25.0874
968.467	24.7429
970.129	25.466
971.79	25.349
973.454	25.4508
975.115	25.4461
976.776	26.3151
978.436	25.2553
980.096	24.6182
981.756	23.715
983.417	22.9337
985.077	21.3421
986.736	20.5852
988.394	20.5862
990.052	20.0995
991.71	18.7092
993.368	18.5111
995.025	18.3586
996.682	17.5777
998.341	15.9709
999.998	14.7985
1001.65	14.7171
1003.31	14.9715
1004.97	14.664
1006.62	14.2127
1008.28	14.0042
1009.93	14.0362
1011.58	14.8891
1013.24	16.3435
1014.89	16.2175
1016.54	17.4691
1018.2	17.6971
1019.85	19.6298
1021.5	20.5436
1023.16	21.4769
1024.81	21.9895
1026.46	22.7952
1028.11	24.586
1029.76	26.2321
1031.41	26.1719
1033.06	27.6292
1034.71	27.1327
1036.36	27.891
1038.01	28.2977
1039.66	29.2013
1041.31	31.5826
1042.95	32.3069
1044.6	33.6304
1046.25	34.1371
1047.9	34.6751
1049.54	34.6785
1051.19	35.2228
1052.84	34.5698
1054.48	33.5091
1056.13	31.8764
1057.77	31.4792
1059.42	30.6639
1061.06	28.2778
1062.71	26.3438
1064.35	24.9162
1066	23.8303
1067.64	22.8685
1069.28	21.9277
1070.93	20.9224
1072.57	19.3091
1074.21	17.3517
1075.85	16.229
1077.49	14.3916
1079.13	12.3724
1080.78	10.6591
1082.42	10.7929
1084.06	9.21132
1085.7	8.00617
1087.34	6.3978
1088.97	5.66662
1090.61	5.33584
1092.25	5.01552
1093.89	5.68972
1095.53	5.79346
1097.17	4.67551
1098.8	5.5483
1100.44	5.77847
1102.08	6.62064
1103.71	6.05782
1105.35	5.41521
1106.99	4.99776
1108.62	5.46787
1110.26	5.08814
1111.89	4.015
1113.52	3.6154
1115.16	3.86243
1116.79	3.00285
1118.43	3.14722
1120.06	3.22124
1121.69	3.27381
1123.32	1.82644
1124.96	2.21205
1126.59	2.11344
1128.22	2.48918
1129.85	2.17402
1131.48	1.79053
1133.11	1.29988
1134.75	0.0916176
1136.37	-0.367427
1138	-0.0186994
1139.63	0.147623
1141.26	-0.406727
1142.89	-0.188162
1144.52	0.304619
1146.15	2.4733
1147.78	3.60431
1149.4	1.98146
1151.03	2.78825
1152.66	3.61254
1154.28	3.80086
1155.91	3.61563
1157.54	3.71456
1159.16	3.27536
1160.79	3.72198
1162.41	4.3624
1164.04	3.65856
1165.66	2.60317
1167.29	3.34375
1168.91	3.32311
1170.53	3.7557
1172.16	3.55144
1173.78	3.02491
1175.4	3.70172
1177.02	3.2051
1178.65	4.06714
1180.27	3.96819
1181.89	3.87248
1183.51	3.29687
1185.13	3.36941
1186.75	3.57363
1188.37	3.08295
1189.99	3.0079
1191.61	3.29945
1193.23	2.79036
1194.85	2.18726
1196.47	1.26638
1198.08	1.18017
1199.7	0.432186
1201.32	0.973296
1202.94	2.14926
1204.55	3.74103
1206.17	5.35733
1207.79	5.27654
1209.4	6.28366
1211.02	5.65211
1212.63	5.32193
1214.25	5.8874
1215.86	5.88869
1217.48	7.0934
1219.09	8.84668
1220.71	9.17969
1222.32	9.99551
1223.93	10.2851
1225.54	11.892
1227.16	13.031
1228.77	13.5664
1230.38	13.649
1231.99	15.6232
1233.6	16.2446
1235.22	16.4067
1236.83	17.2283
1238.44	19.1602
1240.05	20.9142
1241.66	22.9652
1243.26	24.6698
1244.87	26.0666
1246.48	27.7264
1248.09	29.0065
1249.7	30.5131
1251.31	31.9793
1252.92	32.0993
1254.52	32.8917
1256.13	33.9303
1257.74	34.0827
1259.34	35.6604
1260.95	35.7372
1262.55	38.2755
1264.16	39.2203
1265.76	40.3849
1267.37	41.4531
1268.97	42
1270.58	44.3202
1272.18	45.2916
1273.78	45.3115
1275.39	45.9775
1276.99	47.7255
1278.59	49.1654
1280.2	51.0108
1281.8	53.0693
1283.4	54.7885
1285	56.672
1286.6	56.5738
1288.2	57.2701
1289.8	57.1706
1291.4	57.5495
1293	59.0653
1294.6	59.7975
1296.2	60.2466
1297.8	60.7717
1299.4	60.7263
1301	61.1763
1302.6	61.2789
1304.19	61.8302
1305.79	62.1572
1307.39	61.8002
1308.99	61.6628
1310.58	61.0928
1312.18	60.8064
1313.77	61.4352
1315.37	61.6041
1316.96	62.4231
1318.56	62.6255
1320.15	61.6072
1321.75	61.0934
1323.34	60.0434
1324.94	60.6986
1326.53	59.5938
1328.12	58.2209
1329.72	56.6269
1331.31	55.3508
1332.9	53.9351
1334.49	53.0773
1336.08	53.0028
1337.67	52.6476
1339.27	52.6881
1340.86	51.8189
1342.45	51.4842
1344.04	50.2794
1345.63	49.6953
1347.22	49.3684
1348.8	48.5143
1350.39	48.2021
1351.98	46.0828
1353.57	45.2945
1355.16	44.1756
1356.75	45.0197
1358.33	44.9228
1359.92	45.8019
1361.51	45.9473
1363.09	46.0409
1364.68	45.6876
1366.27	45.34
1367.85	46.124
1369.44	46.5741
1371.02	48.7347
1372.61	49.2671
1374.19	49.5019
1375.77	48.8697
1377.36	49.5663
1378.94	50.1993
1380.52	51.214
1382.11	51.6445
1383.69	52.5852
1385.27	52.0759
1386.85	53.3992
1388.43	54.5807
1390.02	55.6308
1391.6	57.0742
1393.18	58.0252
1394.76	59.4076
1396.34	59.9223
1397.92	60.6559
1399.5	61.5073
1401.08	63.8454
1402.65	64.2282
1404.23	66.9103
1405.81	66.0041
1407.39	67.1458
1408.97	67.9875
1410.54	70.1729
1412.12	71.1657
1413.7	72.8643
1415.27	74.8647
1416.85	75.5476
1418.43	77.7225
1420	80.1525
1421.58	82.7031
1423.15	84.3312
1424.73	85.6061
1426.3	87.3525
1427.87	87.5127
1429.45	88.7658
1431.02	90.2872
1432.6	92.8665
1434.17	93.7126
1435.74	95.9327
1437.31	96.6916
1438.89	98.4151
1440.46	100.135
1442.03	100.824
1443.6	102.327
1445.17	102.933
1446.74	102.719
1448.31	101.293
1449.88	100.642
1451.45	100.296
1453.02	99.9092
1454.59	98.0844
1456.16	98.3102
1457.72	96.9805
1459.29	96.5656
1460.86	94.6068
1462.43	93.7692
1463.99	92.0682
1465.56	91.1158
1467.13	88.3306
1468.69	85.4529
1470.26	82.2276
1471.83	79.6984
1473.39	77.0099
1474.95	73.5579
1476.52	70.4891
1478.08	66.9406
1479.65	62.7375
1481.21	58.0083
1482.78	55.1624
1484.34	51.7243
1485.9	50.0146
1487.47	46.4259
1489.03	44.6285
1490.59	40.739
1492.15	39.632
1493.71	37.1455
1495.27	34.3983
1496.84	33.2221
1498.39	30.9437
1499.96	29.0954
1501.52	26.5213
1503.07	25.0959
1504.64	22.9705
1506.19	21.1399
1507.75	20.9961
1509.31	20.8989
1510.87	19.9801
1512.43	18.2011
1513.98	18.0514
1515.54	18.6988
1517.1	18.7307
1518.65	20.0127
1520.21	19.7294
1521.77	19.2337
1523.32	19.2969
1524.88	20.1409
1526.44	21.8703
1527.99	23.7979
1529.54	25.8402
1531.1	26.4563
1532.65	28.1944
1534.21	30.578
1535.76	32.0687
1537.31	33.1295
1538.87	34.6461
1540.42	37.3276
1541.97	37.7737
1543.52	37.2783
1545.07	37.0939
1546.63	38.6547
1548.18	40.1783
1549.73	41.0055
1551.28	40.8267
1552.83	41.5421
1554.38	41.7511
1555.93	41.6378
1557.48	42.468
1559.03	43.6174
1560.57	44.2467
1562.12	46.5537
1563.67	46.8735
1565.22	47.9201
1566.77	49.2962
1568.31	49.5074
1569.86	50.7875
1571.41	51.1473
1572.95	51.619
1574.5	53.7515
1576.05	54.172
1577.59	56.0011
1579.14	56.6136
1580.68	57.827
1582.23	58.7481
1583.77	60.1242
1585.31	62.0483
1586.86	63.2125
1588.4	64.0226
1589.95	65.1518
1591.49	66.6651
1593.03	68.4799
1594.57	69.6213
1596.11	71.1958
1597.66	71.196
1599.2	70.5231
1600.74	71.2483
1602.28	71.4271
1603.82	71.8362
1605.36	71.5676
1606.9	72.4872
1608.44	72.7082
1609.98	72.0489
1611.52	71.6991
1613.06	71.9224
1614.6	73.0838
1616.13	74.4879
1617.67	74.5505
1619.21	72.4022
1620.75	72.8085
1622.28	72.5335
1623.82	72.4925
1625.36	72.0187
1626.89	70.4173
1628.43	70.3315
1629.96	70.5572
1631.5	70.1985
1633.04	70.3416
1634.57	69.9049
1636.11	69.7744
1637.64	69.9189
1639.17	71.1068
1640.71	69.9647
1642.24	70.118
1643.77	68.9251
1645.31	67.8351
1646.84	66.8468
1648.37	67.4193
1649.9	67.4547
1651.43	67.6416
1652.96	67.0871
1654.5	67.0312
1656.03	65.8099
1657.56	64.5957
1659.09	63.545
1660.62	62.8817
1662.15	63.1591
1663.67	62.6103
1665.2	61.8844
1666.73	60.0924
1668.26	58.7106
1669.79	57.9072
1671.32	57.1504
1672.84	55.1752
1674.37	53.4515
1675.9	51.9927
1677.43	50.9364
1678.95	50.1315
1680.48	49.5362
1682	48.736
1683.53	48.2889
1685.05	46.9723
1686.58	45.0832
1688.1	44.5222
1689.63	43.9532
1691.15	42.3148
1692.68	41.157
1694.2	39.947
1695.72	38.069
1697.25	37.2177
1698.77	34.8754
1700.29	34.612
1701.81	33.8365
1703.33	32.1304
1704.86	30.4723
1706.38	29.787
1707.9	28.8421
1709.42	26.9728
1710.94	24.6096
1712.46	24.2908
1713.98	23.1799
1715.5	21.3608
1717.02	20.1874
1718.54	18.6347
1720.06	17.4544
1721.57	17.2168
1723.09	16.3269
1724.61	15.7161
1726.13	14.7655
1727.64	13.7322
1729.16	12.2581
1730.68	11.2906
1732.19	10.0743
1733.71	9.5274
1735.23	10.1411
1736.74	9.57722
1738.26	9.38039
1739.77	8.94105
1741.29	7.7017
1742.8	7.11381
1744.31	6.96732
1745.83	6.62349
1747.34	6.31014
1748.85	5.81958
1750.37	5.55788
1751.88	4.95101
1753.39	4.5186
1754.91	4.89091
1756.42	4.93489
1757.93	4.93218
1759.44	4.44219
1760.95	3.46317
1762.46	2.54413
1763.97	3.12525
1765.48	3.54548
1766.99	3.52205
1768.5	4.20326
1770.01	3.40273
1771.52	3.12375
1773.03	2.34896
1774.54	2.73531
1776.04	2.9274
1777.55	1.85537
1779.06	1.06884
1780.57	0.687605
1782.07	1.4445
1783.58	0.804762
1785.09	0.335851
1786.59	0.540141
1788.1	1.63124
1789.6	1.71358
1791.11	1.33656
1792.61	1.83885
1794.12	1.50448
1795.62	2.15201
1797.13	2.64496
1798.63	2.28342
1800.13	2.32559
1801.64	2.34171
1803.14	2.69391
1804.64	2.61733
1806.15	3.47613
1807.65	3.55208
1809.15	3.85834
1810.65	3.62144
1812.15	2.65709
1813.65	3.13934
1815.16	3.26566
1816.66	3.51671
1818.15	3.85104
1819.66	3.57812
1821.16	3.42363
1822.65	3.9473
1824.15	4.02899
1825.65	4.04818
1827.15	4.27762
1828.65	5.31192
1830.15	5.82764
1831.64	6.10791
1833.14	5.72081
1834.64	5.13557
1836.14	4.06761
1837.63	3.98768
1839.13	4.75687
1840.62	4.68992
1842.12	4.61452
1843.62	4.19231
1845.11	4.11914
1846.61	4.42598
1848.1	3.89609
1849.6	4.78552
1851.09	4.39261
1852.58	3.36484
1854.08	3.27101
1855.57	3.63805
1857.06	3.9552
1858.55	3.71724
1860.05	3.44525
1861.54	3.49433
1863.03	3.70702
1864.52	3.44281
1866.01	3.12859
1867.5	3.234
1869	3.35963
1870.49	3.36858
1871.98	3.53088
1873.47	4.33435
1874.96	4.86501
1876.44	4.71589
1877.93	4.35524
1879.42	4.09654
1880.91	3.96124
1882.4	3.91923
1882.47	3.78204
1883.96	3.39539
1885.46	4.07752
1886.95	5.12013
1888.44	6.03041
1889.94	5.93733
1891.43	5.61498
1892.93	5.52014
1894.42	6.25268
1895.91	6.71235
1897.4	7.06734
1898.89	7.06676
1900.39	7.20955
1901.88	7.26165
1903.37	6.10788
1904.86	5.29813
1906.35	4.48265
1907.84	4.00227
1909.33	3.76868
1910.82	5.22604
1912.31	5.03244
1913.8	5.42154
1915.29	5.23276
1916.77	5.33121
1918.26	5.90833
1919.75	6.14331
1921.24	5.94097
1922.73	5.72497
1924.21	5.86221
1925.7	5.90384
1927.19	6.19302
1928.67	6.40506
1930.16	5.19974
1931.64	4.19967
1933.13	3.60149
1934.61	3.45751
1936.1	3.34117
1937.58	3.08093
1939.07	2.75125
1940.55	3.24978
1942.04	3.81481
1943.52	4.52221
1945	5.52481
1946.49	5.51534
1947.97	4.08431
1949.45	3.5457
1950.93	4.59195
1952.42	5.38602
1953.9	5.48027
1955.38	5.43464
1956.86	5.48268
1958.34	5.2274
1959.82	5.29094
1961.3	5.30024
1962.78	4.70781
1964.26	3.57111
1965.74	2.82522
1967.22	1.98655
1968.7	2.0126
1970.18	1.46014
1971.65	1.61667
1973.13	1.17783
1974.61	1.18677
1976.09	-0.0410636
1977.57	-0.341772
1979.04	0.203867
1980.52	0.397854
1982	0.689973
1983.47	1.36737
1984.95	1.97578
1986.42	1.85099
1987.9	2.47396
1989.37	3.13964
1990.85	2.7914
1992.32	3.32478
1993.8	3.51246
1995.27	3.93579
1996.75	4.23757
1998.22	4.24893
1999.69	3.6533
2001.17	2.30122
2002.64	2.79833
2004.11	2.67414
2005.58	3.37953
2007.05	3.78232
2008.53	4.36321
2010	4.44012
2011.47	3.82983
2012.94	3.82901
2014.41	5.11327
2015.88	5.14985
2017.35	4.87115
2018.82	4.84928
2020.29	3.8163
2021.76	3.25491
2023.23	4.18842
2024.7	4.31756
2026.16	3.17809
2027.63	3.87083
2029.1	3.97167
2030.57	4.98659
2032.03	5.28917
2033.5	5.62125
2034.97	6.15641
2036.44	6.1354
2037.9	6.24903
2039.37	6.16086
2040.83	7.58143
2042.3	8.80037
2043.76	9.65651
2045.23	10.9993
2046.69	11.088
2048.16	11.8532
2049.62	12.3928
2051.08	13.8446
2052.55	14.4067
2054.01	14.535
2055.47	15.3097
2056.94	17.1481
2058.4	17.8097
2059.86	17.5888
2061.32	17.4018
2062.79	18.0841
2064.25	17.9073
2065.71	18.9109
2067.17	18.8509
2068.63	19.3819
2070.09	19.6438
2071.55	19.2196
2073.01	19.4571
2074.47	19.3585
2075.93	20.159
2077.39	20.6684
2078.85	20.4334
2080.31	20.4841
2081.76	20.7747
2083.22	20.9194
2084.68	20.3227
2086.13	20.8541
2087.59	20.8176
2089.05	20.9786
2090.51	20.2016
2091.96	20.3083
2093.42	20.1033
2094.87	21.2274
2096.33	22.3407
2097.78	22.8748
2099.24	23.6923
2100.69	24.3206
2102.15	24.0574
2103.6	24.7194
2105.06	24.609
2106.51	24.9459
2107.96	25.4912
2109.42	26.0387
2110.87	26.2925
2112.32	26.9104
2113.77	27.8293
2115.23	28.5423
2116.68	29.3668
2118.13	30.1173
2119.58	29.9345
2121.03	30.8543
2122.48	30.6123
2123.93	31.3782
2125.38	31.3116
2126.83	32.2227
2128.28	33.2675
2129.73	34.1952
2131.18	33.1998
2132.63	33.5548
2134.08	34.9694
2135.53	36.336
2136.97	37.3068
2138.42	38.0067
2139.87	37.689
2141.32	38.936
2142.76	38.7726
2144.21	38.4607
2145.66	40.2975
2147.1	42.2733
2148.55	43.7134
2150	45.9868
2151.44	46.7859
2152.89	47.5873
2154.33	48.4878
2155.78	48.4867
2157.22	48.4479
2158.66	50.0355
2160.11	50.4541
2161.55	51.7458
2163	51.7897
2164.44	53.5958
2165.88	54.0583
2167.32	53.6193
2168.77	53.4833
2170.21	54.0625
2171.65	53.6497
2173.09	53.0087
2174.53	52.8255
2175.97	51.8967
2177.41	52.3516
2178.85	51.9039
2180.29	51.5232
2181.73	50.9706
2183.17	50.4333
2184.61	50.0258
2186.05	49.9566
2187.49	49.4116
2188.93	48.4687
2190.37	48.2546
2191.81	46.9614
2193.24	46.7804
2194.68	45.9684
2196.12	45.3745
2197.56	44.0134
2198.99	44.1333
2200.43	42.7866
2201.87	41.5381
2203.3	40.5206
2204.74	40.1287
2206.17	39.0528
2207.61	39.0956
2209.04	38.3011
2210.48	37.2081
2211.91	35.4919
2213.35	36.566
2214.78	36.1382
2216.21	36.7555
2217.65	36.7865
2219.08	36.5066
2220.51	35.4246
2221.95	34.456
2223.38	33.344
2224.81	33.0282
2226.24	32.4907
2227.67	31.0753
2229.1	31.2145
2230.54	30.8812
2231.97	30.8717
2233.4	30.711
2234.83	30.2571
2236.26	28.5429
2237.69	26.5987
2239.11	25.5627
2240.54	25.433
2241.97	23.9036
2243.4	21.5587
2244.83	20.7232
2246.26	20.2082
2247.69	19.3794
2249.11	19.7845
2250.54	17.9519
2251.97	17.4746
2253.4	16.9185
2254.82	16.4689
2256.25	16.6117
2257.67	16.0184
2259.1	15.1544
2260.53	15.4647
2261.95	15.0928
2263.38	14.9125
2264.8	14.5679
2266.23	14.201
2267.65	13.5113
2269.07	14.1237
2270.5	14.4154
2271.92	13.3313
2273.34	13.9675
2274.77	14.5845
2276.19	15.37
2277.61	16.4328
2279.03	17.0708
2280.46	16.2696
2281.88	17.1414
2283.3	17.1413
2284.72	17.8516
2286.14	17.5713
2287.56	16.9472
2288.98	16.4824
2290.4	15.7649
2291.82	14.6885
2293.24	14.6235
2294.66	15.5244
2296.08	16.388
2297.5	15.445
2298.92	15.9814
2300.34	16.3831
2301.76	17.0463
2303.17	17.539
2304.59	17.6701
2306.01	17.1517
2307.43	15.7327
2308.84	15.1697
2310.26	15.9717
2311.68	15.3516
2313.09	14.4327
2314.51	14.33
2315.92	14.5717
2317.34	14.4125
2318.75	13.9317
2320.17	14.3781
2321.58	13.6596
2323	13.8352
2324.41	13.5661
2325.82	13.2955
2327.24	12.7655
2328.65	11.2929
2330.06	11.4967
2331.48	11.0461
2332.89	9.83996
2334.3	10.4188
2335.71	9.65748
2337.12	9.68676
2338.54	8.73757
2339.95	9.51508
2341.36	9.46696
2342.77	8.27013
2344.18	8.57995
2345.59	8.22822
2347	7.74982
2348.41	6.71371
2349.82	6.04783
2351.23	5.68569
2352.64	5.0525
2354.04	3.7052
2355.45	3.42877
2356.86	2.90017
2358.27	2.24316
2359.68	2.6771
2361.08	2.75314
2362.49	3.38551
2363.9	3.66059
2365.3	4.21591
2366.71	4.48217
2368.12	3.46375
2369.52	4.93025
2370.93	5.32285
2372.33	6.41947
2373.74	6.32421
2375.14	5.84001
2376.55	4.17013
2377.95	3.84504
2379.36	4.39134
2380.76	5.57478
2382.16	4.91037
2383.57	5.02865
2384.97	6.00344
2386.37	6.30654
2387.78	6.3607
2389.18	6.73921
2390.58	7.25344
2391.98	6.17553
2393.38	5.79165
2394.79	5.34588
2396.19	5.57773
2397.59	4.81235
2398.99	5.32987
2400.39	5.96242
2401.79	5.15827
2403.19	5.90669
2404.59	6.82185
2405.99	7.03008
2407.39	6.76867
2408.78	7.50624
2410.18	8.24701
2411.58	8.34004
2412.98	8.22814
2414.38	9.30045
2415.77	9.7794
2417.17	10.1179
2418.57	10.9915
2419.97	11.3352
2421.36	11.2506
2422.76	11.6347
2424.15	12.5465
2425.55	13.0262
2426.95	12.4204
2428.34	12.6285
2429.74	12.6364
2431.13	12.3468
2432.52	11.6696
2433.92	11.6589
2435.31	12.2544
2436.71	11.7411
2438.1	11.1777
2439.49	12.1753
2440.89	11.638
2442.28	11.4974
2443.67	11.1162
2445.06	10.5268
2446.46	10.5397
2447.85	10.5762
2449.24	10.2397
2450.63	9.44706
2452.02	9.02903
2453.41	8.92056
2454.8	8.33862
2456.19	6.97299
2457.58	6.52685
2458.97	6.68313
2460.36	5.75827
2461.75	5.16251
2463.14	5.59666
2464.53	5.52705
2465.92	5.76702
2467.31	5.03978
2468.69	5.92181
2470.08	5.57743
2471.47	5.02751
2472.86	5.66789
2474.24	5.65275
2475.63	6.01279
2477.02	5.72667
2478.4	6.07136
2479.79	6.12869
2481.17	5.9946
2482.56	5.2079
2483.94	4.78434
2485.33	5.03576
2486.72	5.77526
2488.1	5.51154
2489.48	5.44158
2490.87	4.67369
2492.25	4.46971
2493.64	3.95425
2495.02	3.00835
2496.4	2.29678
2497.79	2.95728
2499.17	2.97391
2500.55	3.10674
2501.93	2.67685
2503.31	2.83142
2504.69	2.20246
2506.08	1.8218
2507.46	2.28129
2508.84	3.31012
2510.22	3.00342
2511.6	3.05947
2512.98	2.94436
2514.36	2.75794
2515.74	2.35959
2517.12	2.2
2518.5	1.65291
2519.88	2.06646
2521.25	2.68658
2522.63	3.05033
2524.01	2.55372
2525.39	2.78459
2526.77	3.61807
2528.14	3.99029
2529.52	4.4503
2530.9	5.10011
2532.27	5.93428
2533.65	5.83035
2535.03	5.85407
2536.4	5.6479
2537.78	5.61279
2539.15	5.99664
2540.53	5.89511
2541.9	6.91024
2543.28	7.48741
2544.65	7.94972
2546.03	7.62024
2547.4	8.42111
2548.77	9.24739
2550.15	8.91466
2551.52	9.63678
2552.89	11.0913
2554.27	11.9384
2555.64	11.7398
2557.01	10.4424
2558.38	9.86107
2559.75	9.46482
2561.12	9.93781
2562.5	9.79241
2563.87	10.044
2565.24	10.6198
2566.61	10.675
2567.98	10.9683
2569.35	11.0609
2570.72	10.2893
2572.09	10.1638
2573.46	9.36592
2574.83	9.12804
2576.19	9.38933
2577.56	9.28295
2578.93	8.15467
2580.3	8.108
2581.67	7.72368
2583.04	7.16856
2584.4	6.19504
2585.77	5.42684
2587.14	5.16738
2588.5	5.40635
2589.87	4.64408
2591.23	4.3547
2592.6	4.29312
2593.97	5.00318
2595.33	5.2282
2596.7	5.43197
2598.06	5.77373
2599.43	5.29673
2600.79	5.69512
2602.15	5.54062
2603.52	5.76131
2604.88	5.84228
2606.25	6.65348
2607.61	8.2442
2608.97	7.59836
2610.33	8.40889
2611.7	8.45255
2613.06	8.82912
2614.42	9.2993
2615.78	9.85513
2617.15	9.19621
2618.51	9.26663
2619.87	9.4823
2621.23	9.43934
2622.59	8.59908
2623.95	8.24914
2625.31	8.0083
2626.67	8.98693
2628.03	10.1946
2629.39	10.5631
2630.75	11.1203
2632.1	11.9877
2633.46	11.815
2634.82	11.4091
2636.18	11.8937
2637.54	10.6967
2638.89	10.0098
2640.25	9.89933
2641.61	9.54606
2642.97	9.48929
2644.32	9.06384
2645.68	8.66796
2647.03	8.54357
2648.39	8.69131
2649.75	8.11999
2651.1	7.77348
2652.46	6.8963
2653.81	6.90331
2655.17	7.12845
2656.52	6.14107
2657.88	5.86193
2659.23	6.62479
2660.58	6.5249
2661.94	6.51514
2663.29	5.868
2664.64	6.14973
2666	5.98115
2667.35	5.4946
2668.7	5.59863
2670.05	5.56154
2671.4	4.32353
2672.76	4.23588
2674.11	4.75951
2675.46	4.78806
2676.81	4.43214
2678.16	4.78735
2679.51	4.4963
2680.86	4.35942
2682.21	4.16683
2683.56	3.52953
2684.91	3.02187
2686.26	4.20474
2687.61	4.77863
2688.96	5.38243
2690.3	5.75762
2691.65	7.07761
2693	7.02716
2694.35	8.23019
2695.7	8.83465
2697.04	9.24706
2698.39	10.1239
2699.74	10.6493
2701.08	10.8571
2702.43	10.9519
2703.77	12.0178
2705.12	12.2362
2706.47	13.1063
2707.81	13.0183
2709.16	13.6092
2710.5	13.6813
2711.85	13.7587
2713.19	14.5289
2714.53	14.6901
2715.88	15.1407
2717.22	15.1218
2718.57	14.649
2719.91	14.8086
2721.25	15.4875
2722.59	15.1488
2723.94	15.1484
2725.28	15.0559
2726.62	15.1497
2727.96	14.1507
2729.3	14.2324
2730.65	13.8117
2731.99	13.7495
2733.33	12.4124
2734.67	11.0616
2736.01	10.7768
2737.35	10.0525
2738.69	9.82443
2740.03	10.9363
2741.37	10.3595
2742.71	9.96038
2744.05	9.35766
2745.38	8.39334
2746.72	7.73691
2748.06	7.38407
2749.4	7.74909
2750.74	8.15185
2752.07	8.53644
2753.41	9.63537
2754.75	8.65476
2756.09	8.34612
2757.42	8.39964
2758.76	9.03544
2760.09	7.93475
2761.43	8.73885
2762.77	9.38195
2764.1	10.2212
2765.44	9.99255
2766.77	9.74757
2768.11	9.70238
2769.44	9.18655
2770.77	9.83781
2772.11	9.03219
2773.44	8.74492
2774.77	8.11744
2776.11	7.99037
2777.44	7.12038
2778.77	6.81337
2780.11	6.3645
2781.44	6.32302
2782.77	6.57649
2784.1	5.49656
2785.43	4.00662
2786.77	3.98323
2788.1	2.6045
2789.43	1.98773
2790.76	2.07894
2792.09	1.64762
2793.42	1.86949
2794.75	1.92676
2796.08	2.22855
2797.41	2.01679
2798.74	1.63602
2800.07	2.04047
2801.4	3.06887
2802.72	3.50643
2804.05	3.59851
2805.38	4.34256
2806.71	4.68719
2808.04	4.12894
2809.36	4.48978
2810.69	5.31173
2812.02	5.5854
2813.34	6.15319
2814.67	7.08615
2816	7.85134
2817.32	8.26328
2818.65	9.46857
2819.97	10.8057
2821.3	11.5577
2822.62	14.0723
2823.95	16.4245
2825.27	18.4013
2826.6	20.7531
2827.92	23.7915
2829.25	26.4706
2830.57	28.2625
2831.89	29.8796
2833.22	32.7399
2834.54	34.8714
2835.86	37.9515
2837.18	41.0012
2838.51	44.2881
2839.83	47.9071
2841.15	51.3622
2842.47	54.5474
2843.79	57.836
2845.11	61.6151
2846.43	64.7516
2847.76	68.8566
2849.08	73.0165
2850.4	77.1901
2851.72	81.217
2853.04	85.4705
2854.36	89.8209
2855.67	95.2222
2856.99	99.44
2858.31	103.712
2859.63	107.681
2860.95	111.927
2862.27	115.772
2863.58	119.042
2864.9	123.068
2866.22	126.647
2867.54	129.94
2868.85	132.665
2870.17	135.543
2871.49	138.484
2872.8	140.67
2874.12	142.187
2875.43	144.425
2876.75	145.815
2878.07	147.245
2879.38	148.819
2880.7	150.3
2882.01	152.765
2883.32	154.949
2884.64	157.538
2885.95	159.542
2887.27	162.44
2888.58	166.054
2889.89	168.119
2891.21	169.513
2892.52	172.056
2893.83	174.316
2895.14	176.74
2896.46	180.294
2897.77	183.576
2899.08	187.95
2900.39	191.923
2901.7	196.563
2903.01	199.903
2904.32	203.515
2905.63	207.908
2906.94	212.029
2908.25	216.074
2909.56	220.885
2910.87	226.427
2912.18	231.17
2913.49	236.251
2914.8	240.795
2916.11	245.005
2917.42	248.729
2918.72	253.197
2920.03	257.804
2921.34	261.479
2922.65	263.77
2923.95	266.215
2925.26	268.081
2926.57	269.444
2927.88	269.679
2929.18	269.621
2930.49	269.928
2931.79	268.553
2933.1	267.073
2934.4	264.788
2935.71	261.461
2937.01	259.116
2938.32	255.071
2939.62	250.623
2940.93	246.507
2942.23	241.637
2943.54	237.467
2944.84	232.784
2946.14	228.27
2947.45	223.491
2948.75	217.44
2950.05	212.535
2951.35	207.276
2952.66	202.145
2953.96	195.74
2955.26	190.111
2956.56	184.783
2957.86	180.648
2959.16	175.777
2960.46	171.266
2961.77	166.752
2963.07	161.615
2964.37	157.539
2965.66	151.906
2966.96	148.199
2968.26	144.06
2969.56	140.418
2970.86	137.735
2972.16	134.059
2973.46	130.528
2974.76	128.126
2976.06	125.027
2977.35	120.822
2978.65	118.123
2979.95	115.316
2981.25	112.391
2982.54	109.582
2983.84	106.154
2985.14	102.662
2986.43	98.8417
2987.73	94.7577
2989.02	90.8019
2990.32	86.684
2991.62	82.1024
2992.91	77.9879
2994.21	74.5762
2995.5	70.6091
2996.8	66.0788
2998.09	62.4688
2999.38	59.0965
3000.68	55.2463
3001.97	52.2413
3003.26	47.5757
3004.56	44.2119
3005.85	41.3826
3007.14	37.7946
3008.43	34.7147
3009.73	31.5959
3011.02	28.0906
3012.31	24.7657
3013.6	22.3578
3014.89	21.1032
3016.19	19.0025
3017.48	16.7773
3018.77	14.8735
3020.06	13.554
3021.35	11.299
3022.64	10.0806
3023.93	8.52256
3025.22	7.91052
3026.5	5.95151
3027.79	4.53799
3029.08	3.61481
3030.37	2.17327
3031.66	2.27668
3032.95	1.30043
3034.24	1.25704
3035.52	1.36155
3036.81	1.62921
3038.1	1.55025
3039.39	2.08082
3040.67	2.11381
3041.96	1.8454
3043.25	2.40186
3044.53	3.03686
3045.82	3.41833
3047.1	3.90667
3048.39	4.20685
3049.67	4.50896
3050.96	4.27091
3052.24	3.74347
3053.53	3.48498
3054.81	3.75316
3056.1	4.51214
3057.38	5.40418
3058.67	5.9594
3059.95	6.40158
3061.23	6.39031
3062.52	7.04342
3063.8	7.10982
3065.08	7.61663
3066.36	7.02909
3067.65	6.36885
3068.93	6.34982
3070.21	6.76026
3071.49	6.23382
3072.77	6.3607
3074.05	6.15402
3075.33	6.39775
3076.61	7.07994
3077.89	7.68067
3079.17	7.8676
3080.45	6.97321
3081.73	6.85075
3083.01	6.44976
3084.29	6.1396
3085.57	6.04501
3086.85	5.98485
3088.13	5.76619
3089.41	5.54924
3090.68	4.83326
3091.96	4.47956
3093.24	4.09418
3094.52	4.16182
3095.79	4.41694
3097.07	4.03805
3098.35	3.49981
3099.62	2.67713
3100.9	2.51225
3102.18	2.22245
3103.45	2.09235
3104.73	1.91221
3106	1.26716
3107.28	1.61091
3108.55	1.68299
3109.83	0.911966
3111.1	0.732061
3112.38	0.422605
3113.65	0.573938
3114.93	0.520953
3116.2	0.419551
3117.47	1.28069
3118.75	1.83736
3120.02	2.34503
3121.29	2.5808
3122.57	2.69119
3123.84	3.00899
3125.11	2.75442
3126.38	3.19815
3127.65	3.09649
3128.92	3.58735
3130.2	2.98549
3131.47	4.11077
3132.74	5.0828
3134.01	6.23627
3135.28	6.1673
3136.55	6.99399
3137.82	7.75187
3139.09	8.77
3140.36	9.32174
3141.63	9.6081
3142.9	10.0044
3144.17	10.4392
3145.43	10.6232
3146.7	11.15
3147.97	10.2683
3149.24	9.26686
