#Acq. time (s)=	45
#Accumulations=	2
#Range (cm-¹)=	200...3150
#Windows=	2
#Auto scanning=	Off
#Autofocus=	Off
#Macrospot=	Off
#AutoExposure=	Off
#Spike filter=	Multiple accum.
#Delay time (s)=	0
#Binning=	1
#Readout mode=	Signal
#DeNoise=	Off
#ICS correction=	On
#Dark correction=	Off
#Inst. Process=	Off
#Detector Gain=	Best Dynamic Range
#Detector ADC=	20 kHz       
#Detector temperature (°C)=	-69.85
#Instrument=	LabRAM HR Evol
#Detector=	Synapse
#Objective=	x100
#Grating=	600 gr/mm
#ND Filter=	100%
#Laser (nm)=	532 
#Hole=	100.021
#Range=	Auto
#Laser Pol.=	No
#Raman. Pol.=	No
#Laser Pol. (°)=	-0.0007625
#Raman Pol. (°)=	89.9995
#Collection=	Microscope
#StageXY=	Marzhauser
#StageZ=	Marzhauser
#X (µm)=	-1028.7
#Y (µm)=	655.3
#Z (µm)=	584.35
#Full time(mm:ss)=	3:18
#Project=	
#Sample=	
#Site=	
#Title=	Mb_40_y_20_2x_45s_532 nm_x100_100%_600 gr_mm
#Remark=	
#Date=	19.07.2022 10:36
#Acquired=	19.07.2022 10:36:00
#Base:Fit=	10.08.2022 10:52:48
#Base:Sub=	10.08.2022 10:52:53
#Filter:Polynom=	16.08.2022 10:09:04
#AxisType[0]=Intens
#AxisUnit[0]=Cnt
#AxisType[1]=Spectr
#AxisUnit[1]=1/cm
200.423	24.2911
202.238	21.1631
204.052	18.4901
205.868	16.6944
207.682	14.9338
209.495	13.4481
211.308	12.3192
213.12	10.7934
214.935	10.4862
216.746	9.57125
218.558	7.6522
220.369	7.79471
222.18	6.7999
223.992	5.9695
225.802	4.26061
227.612	4.30098
229.421	4.51606
231.23	4.68654
233.039	5.28848
234.849	4.51782
236.657	3.38609
238.465	3.78347
240.272	3.33674
242.079	3.13858
243.885	3.7885
245.691	3.60635
247.497	3.21101
249.305	3.06877
251.11	2.27071
252.915	2.36955
254.719	2.89754
256.523	3.21726
258.327	1.64454
260.13	0.880606
261.933	1.91379
263.736	1.70252
265.538	0.867595
267.34	-0.0138054
269.141	1.4479
270.943	1.1209
272.744	1.00552
274.544	1.74671
276.344	3.50567
278.144	4.46002
279.944	5.62056
281.743	5.19224
283.542	5.43905
285.34	6.53065
287.138	6.08877
288.936	6.75207
290.733	7.52113
292.53	8.32037
294.327	9.51962
296.123	9.29119
297.919	10.0085
299.715	12.033
301.508	12.5419
303.303	12.706
305.098	14.0644
306.892	13.3385
308.686	13.653
310.479	15.08
312.273	15.9908
314.065	17.1643
315.858	17.9449
317.648	18.9791
319.44	19.0023
321.231	19.4313
323.022	20.033
324.813	20.3674
326.604	20.831
328.392	22.4959
330.181	22.0076
331.971	22.5248
333.76	23.1708
335.548	22.3778
337.335	21.4345
339.123	21.6158
340.91	20.4543
342.698	20.6674
344.483	19.2587
346.269	18.3452
348.055	16.9476
349.841	16.7252
351.625	17.0335
353.41	16.7179
355.195	16.4468
356.977	16.4552
358.762	15.9179
360.545	14.6963
362.329	14.5859
364.11	14.4191
365.893	14.3955
367.675	14.2123
369.455	14.4177
371.237	13.9826
373.017	14.1048
374.798	13.7967
376.578	13.5309
378.357	13.8306
380.137	13.8161
381.917	15.0317
383.694	16.0677
385.473	16.368
387.249	16.7273
389.028	17.547
390.806	17.0962
392.581	17.2545
394.359	18.5305
396.134	20.1052
397.91	21.7528
399.684	23.2231
401.46	23.7711
403.234	23.8406
405.009	24.235
406.784	24.1549
408.557	25.3715
410.331	27.0181
412.103	26.9683
413.876	26.7892
415.647	26.4358
417.42	27.2129
419.191	26.0216
420.961	27.2248
422.733	27.3834
424.502	27.1967
426.273	26.2719
428.042	26.025
429.812	24.7454
431.58	25.1231
433.35	23.4405
435.118	23.6173
436.885	22.6984
438.653	22.8631
440.42	23.4022
442.188	23.1952
443.954	22.5584
445.719	21.5717
447.486	22.587
449.251	21.518
451.015	22.5907
452.781	22.6716
454.545	23.8158
456.308	24.1427
458.073	24.2917
459.836	24.1301
461.598	25.9604
463.362	26.007
465.124	27.4515
466.885	28.7842
468.648	30.5355
470.408	32.1498
472.169	32.2607
473.929	32.8652
475.69	33.1408
477.45	35.2135
479.208	34.8429
480.967	35.5815
482.727	36.7309
484.485	37.3539
486.243	37.0168
488	37.5799
489.759	37.7743
491.515	38.0655
493.272	37.3538
495.028	37.089
496.783	37.1831
498.54	35.5562
500.295	34.3641
502.05	34.9551
503.804	35.4326
505.558	35.8179
507.311	35.0468
509.064	35.2524
510.819	34.145
512.572	33.0344
514.324	31.6004
516.076	32.5468
517.827	32.7956
519.578	33.3056
521.329	32.9024
523.08	33.7952
524.83	34.1786
526.58	34.3888
528.329	34.3563
530.08	34.5067
531.829	33.4131
533.578	33.8241
535.326	33.0045
537.074	32.9206
538.821	34.018
540.568	35.1324
542.315	34.3853
544.062	33.5333
545.808	33.3083
547.554	33.1812
549.299	34.3045
551.044	33.8428
552.789	33.7434
554.533	33.0631
556.278	32.0916
558.019	31.3539
559.763	30.1676
561.506	29.7668
563.249	28.7697
564.991	26.8244
566.733	25.5854
568.475	25.3877
570.217	24.0125
571.958	23.1653
573.699	21.2106
575.439	20.2417
577.177	19.008
578.917	16.5543
580.656	15.5346
582.396	14.487
584.134	13.0862
585.873	11.5681
587.609	12.0471
589.347	10.642
591.084	8.33239
592.822	7.21645
594.558	5.74594
596.295	3.77237
598.029	2.68369
599.765	2.47347
601.5	3.16743
603.235	3.94768
604.968	4.11993
606.703	5.08486
608.437	4.95564
610.171	5.13863
611.902	5.64208
613.635	6.24231
615.368	4.89427
617.099	5.15125
618.831	4.32893
620.563	5.34065
622.294	4.06678
624.024	5.13433
625.755	5.57989
627.485	5.58408
629.213	4.80925
630.943	5.67507
632.673	6.41176
634.4	5.95477
636.129	7.05468
637.855	7.04527
639.584	7.21205
641.312	7.1374
643.037	6.79594
644.764	7.57191
646.491	7.76069
648.216	7.66012
649.942	7.58373
651.666	6.80584
653.392	6.55149
655.115	5.58273
656.84	6.2092
658.563	6.47978
660.287	5.6063
662.011	5.81515
663.732	5.41939
665.456	5.9506
667.177	6.96209
668.899	6.89226
670.62	7.48399
672.342	7.55432
674.061	8.98252
675.781	8.07864
677.502	9.36093
679.22	10.1635
680.941	11.3743
682.659	11.6774
684.379	13.5453
686.096	15.8613
687.815	17.1892
689.532	19.1592
691.248	20.0747
692.966	20.7892
694.682	22.0129
696.4	24.3999
698.115	26.695
699.829	27.7458
701.546	28.9562
703.26	32.4362
704.974	33.3599
706.689	35.2644
708.402	36.3817
710.115	39.5023
711.83	41.6147
713.542	42.5261
715.254	43.6147
716.967	44.816
718.679	47.0313
720.39	47.0234
722.102	48.4366
723.812	48.3536
725.522	48.6366
727.232	47.3228
728.943	46.9639
730.652	47.2268
732.361	48.1059
734.069	46.8243
735.779	46.3822
737.487	45.4919
739.194	45.4249
740.901	45.7005
742.608	45.3317
744.316	44.7787
746.022	44.7606
747.728	45.3939
749.433	46.7031
751.138	47.7819
752.843	47.7636
754.549	48.6341
756.254	48.0711
757.957	47.736
759.661	48.1656
761.364	47.4306
763.067	48.116
764.769	47.3405
766.471	48.0678
768.175	47.441
769.877	48.3995
771.578	49.0243
773.279	49.8049
774.98	49.9235
776.68	49.815
778.38	51.8392
780.079	53.2091
781.779	53.6502
783.478	53.1018
785.176	53.9281
786.875	53.8015
788.573	52.8837
790.27	52.3448
791.968	52.8963
793.665	53.7594
795.361	56.2342
797.058	56.8427
798.754	57.5663
800.45	57.5126
802.145	58.654
803.84	59.6766
805.535	58.0652
807.23	58.2613
808.922	59.0248
810.616	58.9368
812.309	58.5646
814.002	59.811
815.695	60.5517
817.388	61.3544
819.08	60.2646
820.772	61.632
822.464	61.614
824.153	62.4778
825.844	61.8332
827.535	61.9172
829.225	62.4362
830.915	63.3154
832.605	63.6034
834.292	63.7591
835.981	62.9671
837.67	62.4625
839.359	61.6793
841.047	58.8728
842.732	59.1132
844.42	58.1033
846.107	57.0066
847.794	57.1348
849.479	54.9489
851.165	54.3352
852.851	53.419
854.534	51.5914
856.22	51.1168
857.905	49.6985
859.589	47.6073
861.272	46.0933
862.956	44.8051
864.639	40.7929
866.321	38.7401
868.004	37.8455
869.687	37.6985
871.367	36.0683
873.049	35.3936
874.731	35.8425
876.41	35.3672
878.092	34.8215
879.771	33.994
881.451	32.2856
883.131	31.4699
884.809	31.5027
886.489	31.7631
888.166	30.9765
889.845	29.7961
891.522	29.4189
893.2	29.9904
894.878	29.0609
896.554	28.067
898.231	28.2728
899.906	27.8635
901.583	27.9434
903.258	26.8063
904.934	26.9271
906.608	27.1173
908.283	27.1624
909.956	27.3112
911.631	28.1224
913.304	28.956
914.976	28.9019
916.65	28.9453
918.322	28.8844
919.995	29.1213
921.666	30.0423
923.339	30.3261
925.009	29.64
926.679	31.9644
928.351	32.1666
930.021	33.2726
931.692	33.1676
933.361	32.517
935.029	33.4937
936.699	33.7738
938.367	34.2232
940.035	35.8224
941.704	34.8072
943.371	36.2342
945.038	36.4346
946.706	34.9523
948.372	34.3286
950.038	35.7593
951.705	35.197
953.37	35.6552
955.035	36.7353
956.7	36.4456
958.366	35.7581
960.03	34.0871
961.693	33.7256
963.357	33.6474
965.021	34.6936
966.684	35.7095
968.346	36.3473
970.008	35.9709
971.67	35.791
973.334	36.4088
974.995	36.1829
976.655	35.3764
978.316	33.9111
979.976	33.5308
981.638	33.653
983.297	32.5453
984.957	31.1229
986.616	30.0278
988.274	30.2529
989.932	27.8209
991.59	26.0468
993.248	22.9101
994.907	18.4638
996.565	14.1542
998.221	10.4472
999.878	5.92558
1001.53	0.80113
1003.19	-2.74717
1004.85	-4.32057
1006.5	-3.94891
1008.16	0.0206249
1009.81	9.30036
1011.46	20.3552
1013.12	36.2218
1014.77	54.0345
1016.43	73.983
1018.08	94.0967
1019.73	116.392
1021.38	136.85
1023.04	159.024
1024.69	178.306
1026.34	198.889
1027.99	216.28
1029.64	232.914
1031.29	250.444
1032.94	265.894
1034.59	279.494
1036.24	292.194
1037.89	302.121
1039.54	309.944
1041.19	317.488
1042.84	323.483
1044.48	329.688
1046.13	332.837
1047.78	333.791
1049.42	333.055
1051.07	330.471
1052.72	325.646
1054.36	318.287
1056.01	310.365
1057.66	300.704
1059.3	289.816
1060.94	277.343
1062.59	262.324
1064.23	245.65
1065.88	227.881
1067.52	209.585
1069.16	189.561
1070.81	168.057
1072.45	145.001
1074.09	123.567
1075.73	98.9994
1077.38	77.8871
1079.02	58.4655
1080.66	40.9418
1082.3	23.6547
1083.94	11.0406
1085.58	2.21715
1087.22	-2.48924
1088.86	-3.37878
1090.5	-1.41664
1092.13	1.89828
1093.77	5.72964
1095.41	10.3668
1097.05	12.8044
1098.68	16.325
1100.32	20.3143
1101.96	23.1936
1103.6	24.623
1105.23	28.3058
1106.87	29.1096
1108.5	31.4695
1110.14	32.0524
1111.77	32.4012
1113.41	32.5669
1115.04	33.4532
1116.67	33.3383
1118.31	33.4267
1119.94	34.0178
1121.58	34.045
1123.21	33.7255
1124.84	34.2573
1126.47	34.344
1128.1	32.4276
1129.73	31.88
1131.37	32.1667
1133	30.7855
1134.63	29.9699
1136.26	29.6891
1137.89	30.3684
1139.52	30.0263
1141.14	29.572
1142.77	27.6717
1144.4	27.3571
1146.03	26.9849
1147.66	26.4881
1149.29	26.2067
1150.91	25.0718
1152.54	24.4636
1154.17	23.1927
1155.79	22.2796
1157.42	20.8211
1159.04	20.0837
1160.67	18.0817
1162.3	16.0522
1163.92	13.933
1165.55	12.2455
1167.17	12.5295
1168.79	13.2394
1170.42	13.4447
1172.04	12.3668
1173.66	11.6547
1175.28	13.3929
1176.91	13.5498
1178.53	13.0683
1180.15	14.249
1181.77	14.4447
1183.39	14.0515
1185.01	14.6904
1186.63	14.3708
1188.25	14.5491
1189.87	15.1678
1191.49	14.5369
1193.11	14.7906
1194.73	14.6714
1196.35	16.0153
1197.97	16.1519
1199.59	17.5927
1201.2	18.2073
1202.82	18.6734
1204.44	19.7538
1206.05	20.2803
1207.67	19.9908
1209.29	20.522
1210.9	22.2339
1212.52	22.2426
1214.13	22.871
1215.75	24.835
1217.36	26.492
1218.97	27.7604
1220.59	28.4287
1222.2	30.8367
1223.82	32.2588
1225.43	34.3902
1227.04	35.898
1228.65	37.3162
1230.26	38.6651
1231.88	40.0366
1233.49	42.281
1235.1	43.6592
1236.71	44.9326
1238.32	46.6598
1239.93	46.7967
1241.54	47.9574
1243.15	50.6847
1244.76	51.8188
1246.37	53.7517
1247.97	56.4728
1249.58	57.1335
1251.19	58.0221
1252.8	58.1227
1254.41	61.4549
1256.01	64.4144
1257.62	66.6157
1259.23	69.5422
1260.83	72.4891
1262.44	76.4643
1264.04	79.6155
1265.65	83.7319
1267.25	87.4033
1268.86	90.959
1270.46	92.1745
1272.07	94.4009
1273.67	96.7762
1275.27	98.9472
1276.88	101.865
1278.48	103.925
1280.08	105.334
1281.68	106.488
1283.28	107.353
1284.89	109.492
1286.49	110.237
1288.09	111.092
1289.69	111.931
1291.29	111.472
1292.89	111.197
1294.49	111.829
1296.09	112.736
1297.69	112.717
1299.29	112.382
1300.88	112.641
1302.48	114.379
1304.08	114.211
1305.68	114.586
1307.27	113.947
1308.87	113.79
1310.47	113.423
1312.06	113.932
1313.66	113.885
1315.25	113.312
1316.85	111.524
1318.44	111.454
1320.04	109.842
1321.63	109.924
1323.23	109.331
1324.82	107.91
1326.41	107.2
1328.01	104.984
1329.6	104.947
1331.19	105.243
1332.78	105.482
1334.38	106.76
1335.97	106.183
1337.56	105.205
1339.15	105.181
1340.74	105.241
1342.33	105.505
1343.92	104.15
1345.51	104.175
1347.1	102.534
1348.69	99.8539
1350.28	98.3623
1351.87	98.8899
1353.46	96.8444
1355.04	95.8788
1356.63	95.0585
1358.22	94.3718
1359.81	92.5936
1361.39	91.2854
1362.98	88.6837
1364.57	87.2848
1366.15	84.9841
1367.74	83.1705
1369.32	81.1592
1370.91	78.2198
1372.49	76.3316
1374.07	74.1307
1375.66	72.2951
1377.24	70.223
1378.83	68.6574
1380.41	68.9506
1381.99	68.2128
1383.57	67.7101
1385.16	67.9998
1386.74	66.915
1388.32	67.0289
1389.9	66.7362
1391.48	66.8084
1393.06	68.4538
1394.64	69.0755
1396.22	69.034
1397.8	71.2444
1399.38	71.8189
1400.96	74.2108
1402.54	75.5212
1404.12	79.3225
1405.7	82.3611
1407.28	85.7407
1408.85	90.9838
1410.43	94.3603
1412.01	98.3262
1413.58	101.847
1415.16	106.943
1416.74	112.431
1418.31	118.64
1419.89	122.967
1421.46	127.757
1423.04	133.859
1424.61	140.786
1426.19	145.884
1427.76	152.298
1429.33	159.422
1430.91	165.6
1432.48	170.059
1434.05	175.743
1435.63	180.399
1437.2	184.403
1438.77	187.397
1440.34	189.054
1441.91	192.31
1443.49	194.568
1445.05	195.708
1446.63	195.768
1448.2	195.758
1449.77	195.021
1451.34	194.884
1452.91	194.43
1454.47	192.915
1456.04	191.48
1457.61	189.831
1459.18	188.574
1460.75	186.414
1462.31	185.243
1463.88	182.018
1465.45	177.682
1467.01	174.547
1468.58	171.355
1470.15	168.182
1471.71	165.415
1473.28	159.785
1474.84	156.653
1476.41	151.85
1477.97	147.872
1479.54	144.231
1481.1	140.489
1482.66	136.187
1484.23	130.714
1485.79	126.252
1487.35	122.277
1488.91	117.484
1490.48	112.558
1492.04	107.15
1493.6	103.855
1495.16	99.9399
1496.72	95.5013
1498.28	91.9864
1499.84	88.5059
1501.4	85.1483
1502.96	80.8051
1504.52	77.699
1506.08	75.4396
1507.64	71.5311
1509.2	67.2444
1510.76	63.2665
1512.31	60.7614
1513.87	57.0961
1515.43	54.7059
1516.99	51.2887
1518.54	48.3646
1520.1	47.988
1521.66	45.7483
1523.21	43.7467
1524.77	42.9465
1526.32	41.149
1527.88	40.5657
1529.43	40.8935
1530.99	39.3929
1532.54	38.0096
1534.09	38.9257
1535.65	40.3763
1537.2	41.8208
1538.75	43.1463
1540.31	44.2365
1541.86	44.0333
1543.41	45.8343
1544.96	47.726
1546.51	48.991
1548.06	49.8599
1549.62	49.964
1551.17	50.5618
1552.72	51.9234
1554.27	52.1187
1555.82	54.5448
1557.36	54.7955
1558.91	55.7696
1560.46	55.8762
1562.01	57.4302
1563.56	58.4879
1565.11	59.5343
1566.66	60.8412
1568.2	61.9258
1569.75	62.9805
1571.3	64.8926
1572.84	66.1653
1574.39	67.9734
1575.93	70.3054
1577.48	72.0651
1579.02	74.1594
1580.57	76.279
1582.11	78.9829
1583.66	79.5927
1585.2	79.9374
1586.75	80.6529
1588.29	82.436
1589.83	84.9256
1591.38	85.8461
1592.92	86.6732
1594.46	87.2422
1596	88.2116
1597.54	88.7652
1599.09	88.3467
1600.63	89.0753
1602.17	89.5064
1603.71	89.2735
1605.25	89.1616
1606.79	87.962
1608.33	85.9796
1609.87	85.5892
1611.41	86.1902
1612.95	84.8781
1614.48	84.6731
1616.02	84.0516
1617.56	83.7444
1619.1	83.3316
1620.64	84.3467
1622.17	83.6914
1623.71	83.3346
1625.25	83.7743
1626.78	83.3129
1628.32	84.0813
1629.86	83.6927
1631.39	83.3655
1632.92	83.8003
1634.46	83.8573
1635.99	85.1394
1637.53	86.2793
1639.06	85.7309
1640.59	86.4229
1642.13	88.0724
1643.66	89.102
1645.19	89.5546
1646.73	89.5983
1648.26	89.8707
1649.79	91.0865
1651.32	92.8428
1652.85	93.4667
1654.38	92.6113
1655.92	92.3485
1657.45	92.9139
1658.98	92.5026
1660.51	91.1973
1662.04	90.7017
1663.57	90.2813
1665.09	90.0766
1666.62	88.2757
1668.15	85.6764
1669.68	83.0833
1671.21	81.8575
1672.73	80.0234
1674.26	78.8526
1675.79	76.7104
1677.31	74.7274
1678.84	72.4193
1680.37	69.3747
1681.89	66.5632
1683.42	64.5834
1684.94	61.3512
1686.47	59.4429
1687.99	56.6645
1689.52	53.3087
1691.04	50.969
1692.57	47.9485
1694.09	45.9844
1695.61	44.5294
1697.14	42.8226
1698.66	39.8974
1700.18	37.7291
1701.7	35.8778
1703.22	32.7559
1704.75	31.1808
1706.27	28.7857
1707.79	27.5323
1709.31	27.5801
1710.83	25.7583
1712.35	24.2157
1713.87	21.7174
1715.39	19.9103
1716.91	19.7447
1718.43	19.0008
1719.95	17.6836
1721.46	16.5686
1722.98	15.6331
1724.5	15.0313
1726.02	15.1535
1727.53	14.8992
1729.05	14.1731
1730.57	13.532
1732.08	13.8007
1733.6	12.8178
1735.12	11.1077
1736.63	10.789
1738.15	11.1928
1739.66	10.9347
1741.18	11.1209
1742.69	10.3634
1744.21	10.2829
1745.72	10.6092
1747.23	10.8157
1748.74	10.6705
1750.26	10.7941
1751.77	11.0616
1753.28	11.1426
1754.8	11.4675
1756.31	10.7591
1757.82	10.4125
1759.33	9.42856
1760.84	8.21954
1762.35	6.90193
1763.86	5.68553
1765.37	5.48145
1766.88	6.2369
1768.39	5.94821
1769.9	6.00067
1771.41	5.39947
1772.92	4.14766
1774.43	3.3918
1775.93	3.32671
1777.44	3.53894
1778.95	2.80272
1780.46	3.08157
1781.96	3.45444
1783.47	4.01169
1784.98	3.57376
1786.48	2.76984
1787.99	2.72232
1789.49	2.37762
1791	2.56671
1792.5	2.39336
1794.01	2.72236
1795.51	2.65524
1797.02	3.26429
1798.52	2.69474
1800.03	2.27508
1801.53	2.06074
1803.03	2.63274
1804.53	2.75578
1806.04	2.46619
1807.54	2.4271
1809.04	2.70385
1810.54	3.7029
1812.04	4.24837
1813.54	4.17211
1815.05	3.76586
1816.55	3.44445
1818.05	3.01817
1819.55	3.56556
1821.05	3.66995
1822.55	3.57517
1824.05	4.56176
1825.54	4.96323
1827.04	5.46426
1828.54	4.90547
1830.04	5.46627
1831.54	5.48295
1833.03	5.43944
1834.53	5.19962
1836.03	4.94844
1837.52	4.39409
1839.02	5.02404
1840.52	4.9703
1842.01	4.62799
1843.51	3.48987
1845	3.76028
1846.5	3.70165
1847.99	3.43725
1849.49	3.78819
1850.98	4.06617
1852.47	3.85745
1853.97	3.60369
1855.46	4.53688
1856.95	5.20712
1858.45	5.12891
1859.94	4.11109
1861.43	3.91345
1862.92	3.39063
1864.41	3.31635
1865.91	3.94341
1867.4	4.80339
1868.89	4.59585
1870.38	4.01535
1871.87	3.73279
1873.36	2.04201
1874.85	1.80267
1876.34	2.00578
1877.83	1.85658
1879.31	1.11361
1880.8	0.835231
1882.29	1.0909
1882.56	1.13699
1884.05	1.51487
1885.54	0.515109
1887.04	1.0016
1888.53	0.401107
1890.03	0.695225
1891.52	1.24764
1893.01	0.630244
1894.5	0.442133
1895.99	0.645759
1897.49	2.15524
1898.98	2.21277
1900.47	3.12117
1901.96	3.25082
1903.45	4.55617
1904.94	5.29795
1906.43	5.16262
1907.92	4.77302
1909.41	5.78525
1910.9	5.09515
1912.39	5.62026
1913.88	4.74077
1915.37	4.84882
1916.86	6.11566
1918.35	7.10594
1919.84	6.82295
1921.32	6.87074
1922.81	6.90579
1924.3	6.49973
1925.78	6.72595
1927.27	7.47056
1928.76	8.6294
1930.24	9.11207
1931.73	8.39591
1933.21	8.69984
1934.7	8.87677
1936.18	8.72197
1937.67	8.23702
1939.15	8.09127
1940.64	6.65653
1942.12	5.93838
1943.6	5.61265
1945.09	5.53513
1946.57	4.81668
1948.05	5.06509
1949.54	5.7012
1951.02	5.56483
1952.5	5.98866
1953.98	6.62681
1955.46	7.20148
1956.94	7.14815
1958.42	6.27771
1959.91	4.84824
1961.39	5.27397
1962.87	4.21997
1964.34	4.66446
1965.82	5.34167
1967.3	5.1737
1968.78	6.79261
1970.26	7.57057
1971.74	8.25
1973.22	7.86805
1974.7	8.1295
1976.17	8.09497
1977.65	8.27546
1979.13	8.18167
1980.6	7.5803
1982.08	8.23074
1983.56	8.39054
1985.03	7.76708
1986.51	8.94501
1987.98	8.62329
1989.46	9.01273
1990.93	9.50237
1992.41	8.62145
1993.88	8.16856
1995.36	8.29945
1996.83	8.77705
1998.3	9.39717
1999.78	10.6963
2001.25	10.8389
2002.72	11.6469
2004.2	11.0964
2005.67	10.4832
2007.14	9.86215
2008.61	9.03834
2010.08	7.73282
2011.55	7.40659
2013.02	7.99072
2014.49	7.24522
2015.97	8.19139
2017.43	7.83933
2018.9	7.3926
2020.37	7.33593
2021.84	8.43137
2023.31	9.00167
2024.78	9.04219
2026.25	8.47939
2027.72	8.17281
2029.19	7.93234
2030.65	8.02491
2032.12	7.68677
2033.59	8.32218
2035.05	9.45414
2036.52	10.3935
2037.98	11.6103
2039.45	12.2482
2040.92	12.268
2042.38	13.4033
2043.85	12.821
2045.31	12.6053
2046.78	12.5792
2048.24	13.2506
2049.71	13.6758
2051.17	14.0994
2052.63	15.726
2054.1	16.0532
2055.56	17.4988
2057.02	17.6143
2058.48	18.8761
2059.95	18.9953
2061.41	19.109
2062.87	19.8141
2064.33	21.1006
2065.79	22.2587
2067.25	22.9657
2068.71	23.6587
2070.17	23.7684
2071.63	24.6679
2073.09	24.4476
2074.55	24.0788
2076.01	24.6066
2077.47	24.1389
2078.93	24.7239
2080.39	24.659
2081.85	25.7123
2083.3	26.0671
2084.76	27.3762
2086.22	28.1286
2087.68	28.0928
2089.13	29.343
2090.59	29.4338
2092.05	30.3604
2093.5	31.7906
2094.96	32.9108
2096.41	33.0603
2097.87	34.0075
2099.32	34.7564
2100.78	36.1728
2102.23	37.726
2103.69	39.0609
2105.14	40.7068
2106.59	42.4059
2108.05	43.7542
2109.5	44.6391
2110.95	45.8359
2112.41	46.5364
2113.86	47.6062
2115.31	48.525
2116.76	48.7424
2118.21	49.8479
2119.67	51.504
2121.12	53.2329
2122.57	54.1235
2124.02	56.0532
2125.47	57.6344
2126.92	58.6667
2128.37	61.3046
2129.82	63.0793
2131.27	65.9317
2132.71	68.9042
2134.16	70.96
2135.61	73.0461
2137.06	75.2522
2138.51	77.6094
2139.95	78.9491
2141.4	82.1867
2142.85	84.3385
2144.29	87.1246
2145.74	88.5997
2147.19	91.3275
2148.63	94.3926
2150.08	97.0476
2151.52	100.105
2152.97	102.926
2154.42	105.417
2155.86	107.774
2157.3	109.79
2158.75	111.59
2160.19	113.578
2161.64	115.643
2163.08	116.162
2164.52	117.088
2165.96	118.518
2167.41	119.199
2168.85	120.1
2170.29	120.743
2171.73	120.488
2173.17	121.376
2174.61	121.475
2176.06	121.109
2177.5	120.951
2178.94	120.952
2180.38	120.076
2181.82	118.366
2183.26	116.437
2184.7	114.967
2186.14	113.233
2187.57	110.869
2189.01	108.932
2190.45	107.055
2191.89	105.587
2193.33	103.59
2194.76	101.498
2196.2	99.9024
2197.64	99.0346
2199.08	97.675
2200.51	96.4924
2201.95	94.9182
2203.38	92.9774
2204.82	91.4744
2206.25	88.1997
2207.69	87.2391
2209.12	85.8727
2210.56	84.3101
2211.99	83.6284
2213.43	82.9695
2214.86	81.5712
2216.3	79.6588
2217.73	79.0639
2219.16	78.2982
2220.59	77.2745
2222.03	75.4609
2223.46	74.0765
2224.89	72.7913
2226.32	70.5728
2227.75	69.1294
2229.19	68.0077
2230.62	66.0641
2232.05	64.314
2233.48	61.0868
2234.91	58.7033
2236.34	57.5349
2237.77	56.3106
2239.2	54.4292
2240.63	52.4398
2242.06	50.8207
2243.48	49.1426
2244.91	48.5596
2246.34	46.9366
2247.77	45.3011
2249.2	43.8153
2250.62	42.6236
2252.05	40.0166
2253.48	39.1083
2254.9	38.0446
2256.33	36.9709
2257.76	35.1548
2259.18	33.9113
2260.61	32.7915
2262.03	31.501
2263.46	30.4788
2264.88	29.2175
2266.31	28.7191
2267.73	28.1607
2269.16	27.2484
2270.58	25.6484
2272	24.958
2273.43	24.4176
2274.85	23.6622
2276.27	23.8492
2277.69	23.2136
2279.12	23.6105
2280.54	23.0043
2281.96	22.9342
2283.38	22.3068
2284.8	21.401
2286.22	20.8992
2287.64	19.8649
2289.07	19.5831
2290.49	18.6904
2291.91	17.5758
2293.32	15.9596
2294.74	15.4307
2296.16	14.6586
2297.58	14.135
2299	15.0731
2300.42	14.465
2301.84	13.5804
2303.26	13.3778
2304.67	13.0242
2306.09	13.393
2307.51	13.6986
2308.92	13.4211
2310.34	13.5605
2311.76	13.5409
2313.17	14.2878
2314.59	14.307
2316	14.5033
2317.42	13.8145
2318.83	13.8854
2320.25	13.9056
2321.66	14.5897
2323.08	13.8125
2324.49	12.794
2325.91	11.879
2327.32	12.1167
2328.73	12.1172
2330.15	11.4341
2331.56	11.0505
2332.97	10.7389
2334.38	10.1026
2335.79	10.1202
2337.21	10.7502
2338.62	9.41516
2340.03	9.43677
2341.44	8.92657
2342.85	8.81551
2344.26	8.70127
2345.67	8.65886
2347.08	8.05634
2348.49	7.22644
2349.9	7.17593
2351.31	6.8468
2352.72	6.8988
2354.13	6.19577
2355.53	6.94617
2356.94	7.29928
2358.35	7.15714
2359.76	6.89129
2361.17	6.04435
2362.57	5.93952
2363.98	4.88557
2365.39	6.15753
2366.79	7.10557
2368.2	8.0111
2369.6	7.29309
2371.01	6.8579
2372.42	8.20709
2373.82	7.97875
2375.22	7.71252
2376.63	6.98699
2378.03	7.46705
2379.44	7.17933
2380.84	7.26522
2382.25	6.71714
2383.65	6.0831
2385.05	5.08093
2386.45	4.63415
2387.86	4.21319
2389.26	4.76237
2390.66	3.7575
2392.06	3.79618
2393.46	3.35331
2394.87	4.16462
2396.27	5.52641
2397.67	5.24326
2399.07	4.24834
2400.47	4.29438
2401.87	4.91767
2403.27	4.79728
2404.67	5.51053
2406.07	5.43008
2407.47	6.12338
2408.86	5.76594
2410.26	6.32636
2411.66	6.01811
2413.06	6.50428
2414.46	6.63233
2415.85	7.08235
2417.25	7.50462
2418.65	7.76988
2420.05	8.25922
2421.44	8.34291
2422.84	8.14143
2424.23	7.90505
2425.63	8.90739
2427.03	8.69986
2428.42	8.09117
2429.82	8.99278
2431.21	9.33351
2432.6	9.82349
2434	9.37004
2435.39	9.76379
2436.79	9.06658
2438.18	7.94688
2439.57	7.17519
2440.97	8.22912
2442.36	8.01882
2443.75	6.4781
2445.14	6.40841
2446.54	5.55793
2447.93	6.08106
2449.32	4.87036
2450.71	4.11424
2452.1	4.01174
2453.49	3.76007
2454.88	3.2788
2456.27	3.89639
2457.66	3.59213
2459.05	4.42601
2460.44	3.70419
2461.83	4.40226
2463.22	4.04734
2464.61	4.00316
2466	3.47203
2467.39	3.02396
2468.77	2.92507
2470.16	3.49286
2471.55	3.41624
2472.94	3.42188
2474.32	3.89642
2475.71	3.26698
2477.1	3.66695
2478.48	3.19006
2479.87	3.16312
2481.25	2.58665
2482.64	2.37917
2484.02	2.45613
2485.41	3.28867
2486.8	3.12207
2488.18	3.16321
2489.56	3.21361
2490.95	3.01689
2492.33	2.94999
2493.72	3.46547
2495.1	4.01899
2496.48	3.97054
2497.86	3.92455
2499.25	4.06442
2500.63	2.66843
2502.01	1.53544
2503.39	1.06992
2504.77	0.512015
2506.16	1.02853
2507.54	1.34201
2508.92	1.53822
2510.3	1.14851
2511.68	0.239654
2513.06	-0.594354
2514.44	-0.0942502
2515.82	-0.667543
2517.2	0.305052
2518.58	-0.461342
2519.95	-0.752388
2521.33	-1.15949
2522.71	-1.38225
2524.09	-1.25363
2525.47	-0.381984
2526.84	-0.122329
2528.22	-0.0749188
2529.6	-0.0132242
2530.98	1.35642
2532.35	1.28947
2533.73	1.77565
2535.11	2.08784
2536.48	2.99991
2537.86	3.08875
2539.23	3.02042
2540.61	3.24726
2541.98	3.16222
2543.36	3.60176
2544.73	3.37116
2546.1	4.03053
2547.48	4.61745
2548.85	4.86316
2550.23	4.92842
2551.6	5.58885
2552.97	6.41622
2554.34	6.62737
2555.72	6.09502
2557.09	6.26033
2558.46	5.27443
2559.83	5.33415
2561.2	6.12203
2562.58	6.83061
2563.95	6.69124
2565.32	7.20252
2566.69	7.44369
2568.06	7.35082
2569.43	7.94189
2570.8	8.26052
2572.17	8.55573
2573.54	8.74451
2574.91	8.77527
2576.27	8.07805
2577.64	7.80419
2579.01	7.79234
2580.38	8.64682
2581.75	9.32683
2583.11	9.72717
2584.48	9.22207
2585.85	8.91265
2587.21	7.69983
2588.58	7.41873
2589.95	6.95514
2591.31	7.50614
2592.68	7.13083
2594.04	7.342
2595.41	7.86411
2596.78	8.30358
2598.14	9.16162
2599.51	9.1968
2600.87	7.9088
2602.23	8.07293
2603.6	6.96042
2604.96	6.2576
2606.32	6.14223
2607.69	6.13809
2609.05	6.13282
2610.41	6.4511
2611.77	6.56555
2613.14	5.7197
2614.5	6.20665
2615.86	5.53516
2617.22	5.24291
2618.58	5.40024
2619.94	5.18831
2621.3	4.96258
2622.67	4.2514
2624.03	4.68369
2625.39	5.28774
2626.75	5.30876
2628.1	6.11802
2629.46	6.36743
2630.82	6.69322
2632.18	7.11722
2633.54	7.65676
2634.9	7.86851
2636.26	8.37586
2637.61	8.52278
2638.97	8.75908
2640.33	8.82918
2641.69	9.02702
2643.04	8.91521
2644.4	9.37627
2645.76	9.38966
2647.11	8.95793
2648.47	9.23233
2649.82	8.66307
2651.18	8.3968
2652.53	8.39237
2653.89	8.16641
2655.24	7.91843
2656.6	7.73985
2657.95	7.49002
2659.31	8.55206
2660.66	9.65698
2662.01	10.9995
2663.37	11.9007
2664.72	12.4266
2666.07	12.7018
2667.43	12.6069
2668.78	12.7505
2670.13	12.921
2671.48	12.7676
2672.83	13.0731
2674.18	13.1024
2675.53	12.5872
2676.89	13.4272
2678.24	13.9076
2679.59	13.4113
2680.94	13.8383
2682.29	14.6669
2683.64	15.1629
2684.99	15.5253
2686.34	15.9037
2687.68	16.3951
2689.03	16.6151
2690.38	17.7627
2691.73	18.95
2693.08	18.8926
2694.43	18.1804
2695.77	18.4714
2697.12	18.941
2698.47	19.8839
2699.81	21.1343
2701.16	20.559
2702.51	21.0055
2703.85	20.8058
2705.2	20.4255
2706.54	20.7981
2707.89	20.1408
2709.23	20.2355
2710.58	19.6491
2711.92	19.7484
2713.27	19.4939
2714.61	19.6403
2715.96	19.1952
2717.3	19.4464
2718.64	19.1471
2719.99	18.5746
2721.33	18.0986
2722.67	17.692
2724.01	17.4283
2725.36	17.7
2726.7	18.1039
2728.04	17.5855
2729.38	17.2626
2730.72	17.1764
2732.06	17.2824
2733.41	16.1275
2734.75	15.2889
2736.09	14.5187
2737.43	13.3227
2738.77	12.9052
2740.11	12.1753
2741.44	12.0632
2742.78	12.0534
2744.12	12.1964
2745.46	11.3813
2746.8	11.3497
2748.14	11.4316
2749.48	11.7025
2750.81	11.1147
2752.15	10.0848
2753.49	9.20021
2754.83	8.52247
2756.16	7.20869
2757.5	6.81744
2758.84	6.20325
2760.17	5.17061
2761.51	4.44292
2762.84	4.78183
2764.18	4.34738
2765.51	4.16804
2766.85	3.56566
2768.18	2.56143
2769.52	3.14765
2770.85	2.38809
2772.19	2.92765
2773.52	2.145
2774.85	1.57428
2776.19	1.61201
2777.52	1.25274
2778.85	1.02528
2780.18	0.839547
2781.52	0.0615872
2782.85	0.229156
2784.18	0.753063
2785.51	-0.192984
2786.84	-0.139428
2788.17	0.276973
2789.51	0.428804
2790.84	0.589499
2792.17	0.420506
2793.5	0.875669
2794.83	1.10447
2796.16	2.25936
2797.48	2.66311
2798.81	2.16959
2800.14	1.48922
2801.47	2.06767
2802.8	2.18017
2804.13	2.25245
2805.46	2.13302
2806.79	1.70324
2808.11	1.66654
2809.44	1.15326
2810.77	1.03201
2812.09	1.40448
2813.42	1.98096
2814.75	3.13986
2816.07	5.6972
2817.4	8.08058
2818.73	11.9543
2820.05	16.2751
2821.38	21.3321
2822.7	27.3854
2824.03	33.8588
2825.35	40.2565
2826.67	46.8524
2828	53.2888
2829.32	61.5494
2830.65	69.1111
2831.97	76.6843
2833.29	84.7202
2834.62	93.249
2835.94	101.298
2837.26	108.726
2838.58	116.784
2839.9	124.545
2841.23	132.903
2842.55	141.17
2843.87	147.58
2845.19	154.196
2846.51	161.126
2847.83	168.349
2849.15	176.736
2850.47	185.257
2851.79	194.299
2853.11	203.86
2854.43	213.481
2855.75	221.969
2857.07	230.316
2858.39	238.674
2859.71	246.204
2861.02	254.19
2862.34	260.927
2863.66	267.099
2864.98	271.932
2866.3	276.789
2867.61	280.39
2868.93	284.079
2870.25	287.055
2871.56	288.994
2872.88	291.359
2874.19	294.479
2875.51	296.016
2876.83	299.776
2878.14	302.778
2879.46	306.08
2880.77	309.846
2882.09	312.414
2883.4	314.657
2884.71	316.316
2886.03	317.847
2887.34	319.18
2888.65	321.026
2889.97	321.501
2891.28	322.087
2892.59	322.941
2893.91	323.05
2895.22	324.538
2896.53	323.806
2897.84	324.441
2899.15	325.421
2900.46	326.695
2901.78	326.624
2903.09	327.401
2904.4	328.735
2905.71	330.877
2907.02	332.021
2908.33	333.475
2909.64	335.831
2910.95	340.25
2912.26	344.968
2913.57	350.69
2914.87	356.436
2916.18	361.998
2917.49	367.125
2918.8	371.921
2920.11	376.643
2921.42	378.507
2922.72	381.969
2924.03	385.477
2925.34	388.079
2926.64	391.198
2927.95	392.145
2929.26	393.1
2930.56	394.088
2931.87	393.955
2933.17	393.522
2934.48	392.595
2935.78	390.038
2937.09	387.39
2938.39	384.39
2939.7	381.606
2941	377.578
2942.31	373.848
2943.61	367.532
2944.91	363.162
2946.22	356.343
2947.52	349.34
2948.82	342.204
2950.13	334.362
2951.43	326.062
2952.73	317.871
2954.03	309.813
2955.33	300.61
2956.64	292.529
2957.94	285.066
2959.24	277.28
2960.54	268.732
2961.84	260.344
2963.14	253.342
2964.44	244.882
2965.74	237.632
2967.04	229.321
2968.34	222.17
2969.64	214.709
2970.94	207.945
2972.24	201.158
2973.53	194.49
2974.83	187.926
2976.13	181.568
2977.43	174.071
2978.73	167.299
2980.02	161.174
2981.32	154.192
2982.62	147.653
2983.91	140.473
2985.21	133.831
2986.51	126.937
2987.8	122.591
2989.1	116.724
2990.4	110.983
2991.69	105.359
2992.99	100.772
2994.28	95.7907
2995.57	90.372
2996.87	85.269
2998.16	80.2105
2999.46	74.6924
3000.75	70.1585
3002.05	65.6445
3003.34	61.4381
3004.63	57.8419
3005.92	53.2925
3007.22	49.0485
3008.51	44.8273
3009.8	42.0138
3011.09	37.1593
3012.39	33.5771
3013.68	29.5177
3014.97	26.2521
3016.26	22.8409
3017.55	20.8351
3018.84	18.4918
3020.13	15.988
3021.42	14.3582
3022.71	12.5431
3024	10.5509
3025.29	8.3002
3026.58	7.39374
3027.87	6.02823
3029.16	5.05907
3030.45	4.39098
3031.73	3.55637
3033.02	3.27348
3034.31	3.3114
3035.6	3.28881
3036.89	3.00595
3038.17	2.40668
3039.46	2.03701
3040.75	1.58037
3042.03	0.628175
3043.32	0.935952
3044.61	0.871168
3045.89	0.308485
3047.18	0.248307
3048.46	0.736058
3049.75	1.61579
3051.03	2.41799
3052.32	2.99487
3053.6	3.15918
3054.89	3.79987
3056.17	4.56517
3057.45	5.50172
3058.74	5.81611
3060.02	5.40937
3061.31	5.81075
3062.59	5.15372
3063.87	5.26616
3065.15	4.81072
3066.44	5.14637
3067.72	5.00487
3069	4.84662
3070.28	5.17875
3071.56	4.51161
3072.84	3.86456
3074.13	3.6747
3075.41	2.82983
3076.69	2.8073
3077.97	2.44704
3079.25	1.97593
3080.53	2.15397
3081.81	1.54899
3083.09	1.21884
3084.37	0.783301
3085.64	0.881887
3086.92	1.00804
3088.2	1.18582
3089.48	1.02311
3090.76	1.03402
3092.04	0.668692
3093.31	-0.00487648
3094.59	-0.190341
3095.87	0.0481802
3097.14	-0.100377
3098.42	0.619355
3099.7	0.265716
3100.97	0.0346564
3102.25	-0.174708
3103.53	-0.0959156
3104.8	-0.230898
3106.08	0.593045
3107.35	1.62443
3108.63	2.28746
3109.9	2.81713
3111.18	3.27379
3112.45	4.02316
3113.73	4.71073
3115	5.23091
3116.27	5.57272
3117.55	6.77292
3118.82	7.55595
3120.09	8.82408
3121.37	9.63037
3122.64	10.2131
3123.91	10.3137
3125.18	11.7183
3126.45	13.1214
3127.73	13.8048
3129	14.4975
3130.27	16.4944
3131.54	16.8325
3132.81	18.1563
3134.08	18.8367
3135.35	18.8194
3136.62	20.5284
3137.89	21.981
3139.16	23.3695
3140.43	24.4513
3141.7	25.369
3142.97	26.4985
3144.24	27.588
3145.51	29.0063
3146.78	29.7958
3148.04	31.0955
3149.31	31.2712
