#Acq. time (s)=	45
#Accumulations=	2
#Range (cm-¹)=	200...3150
#Windows=	2
#Auto scanning=	Off
#Autofocus=	Off
#Macrospot=	Off
#AutoExposure=	Off
#Spike filter=	Multiple accum.
#Delay time (s)=	0
#Binning=	1
#Readout mode=	Signal
#DeNoise=	Off
#ICS correction=	On
#Dark correction=	Off
#Inst. Process=	Off
#Detector Gain=	Best Dynamic Range
#Detector ADC=	20 kHz       
#Detector temperature (°C)=	-70.08
#Instrument=	LabRAM HR Evol
#Detector=	Synapse
#Objective=	x100
#Grating=	600 gr/mm
#ND Filter=	100%
#Laser (nm)=	532 
#Hole=	100.021
#Range=	Auto
#Laser Pol.=	No
#Raman. Pol.=	No
#Laser Pol. (°)=	-0.0007625
#Raman Pol. (°)=	89.9995
#Collection=	Microscope
#StageXY=	Marzhauser
#StageZ=	Marzhauser
#X (µm)=	-2454.8
#Y (µm)=	-111.7
#Z (µm)=	-10.1
#Full time(mm:ss)=	3:19
#Project=	
#Sample=	
#Site=	
#Title=	Mb_40_24_30_2x_45s_532 nm_x100_100%_600 gr_mm
#Remark=	
#Date=	14.07.2022 12:54
#Acquired=	14.07.2022 12:54:42
#Edit:Spike=	10.08.2022 10:43:18
#Edit:Spike=	10.08.2022 10:43:20
#Edit:Spike=	10.08.2022 10:43:21
#Base:Fit=	10.08.2022 10:47:00
#Base:Sub=	10.08.2022 10:47:12
#Filter:Polynom=	16.08.2022 10:11:48
#AxisType[0]=Intens
#AxisUnit[0]=Cnt
#AxisType[1]=Spectr
#AxisUnit[1]=1/cm
200.554	-4.40645
202.369	-0.277978
204.183	4.96622
205.999	7.122
207.813	9.58726
209.626	11.7081
211.439	13.2499
213.253	15.0736
215.065	16.6407
216.877	17.1249
218.688	18.6375
220.5	19.6905
222.312	19.8151
224.123	20.3473
225.933	20.0097
227.742	20.1832
229.552	20.0909
231.361	19.4247
233.171	19.7106
234.98	20.1236
236.787	19.9748
238.595	19.7318
240.402	20.1665
242.209	20.3073
244.015	20.4497
245.822	19.2946
247.627	18.5955
249.435	16.8072
251.24	14.6745
253.045	14.3645
254.849	13.935
256.653	12.4621
258.457	12.3807
260.26	12.1436
262.063	11.1348
263.866	10.5468
265.668	9.53471
267.47	8.82821
269.271	8.57633
271.073	7.72442
272.873	9.1766
274.674	8.64633
276.474	10.0954
278.274	11.1515
280.073	11.8371
281.872	10.9713
283.671	11.3608
285.47	10.359
287.268	9.20427
289.065	9.12417
290.863	10.2929
292.66	9.51223
294.456	9.25376
296.253	10.2221
298.049	9.83313
299.844	9.21388
301.637	7.1428
303.432	6.6888
305.227	6.71852
307.021	8.26006
308.815	10.3376
310.609	11.5682
312.402	12.3595
314.195	13.705
315.987	15.3567
317.777	16.9391
319.569	17.9695
321.36	19.0424
323.151	20.927
324.942	21.8521
326.733	22.2461
328.521	22.1897
330.31	22.4131
332.1	22.0186
333.889	21.2617
335.677	20.0693
337.464	20.1132
339.252	20.2987
341.039	20.4159
342.826	20.38
344.611	20.1993
346.398	20.316
348.184	20.3987
349.97	20.4092
351.754	19.0742
353.539	18.657
355.324	18.6079
357.106	19.2111
358.89	19.013
360.674	19.0981
362.455	18.577
364.239	17.3227
366.021	16.9562
367.804	15.484
369.584	14.4831
371.366	13.0613
373.145	12.0441
374.926	10.7295
376.707	8.64959
378.485	8.10474
380.265	7.83329
382.045	6.64541
383.822	6.42976
385.601	5.96618
387.378	4.71563
389.156	3.4959
390.934	3.7371
392.71	5.37074
394.487	7.48753
396.262	8.82728
398.038	8.55461
399.813	8.53411
401.588	8.30606
403.362	8.92309
405.137	10.3378
406.912	11.0186
408.685	10.8522
410.459	10.1936
412.23	9.00852
414.004	7.91596
415.775	7.13101
417.548	6.16415
419.318	7.13639
421.089	6.8852
422.86	6.88129
424.63	6.4614
426.401	7.14065
428.17	8.1842
429.94	6.65937
431.708	6.45311
433.478	6.38723
435.245	6.33688
437.012	5.64278
438.781	6.42214
440.547	4.84684
442.315	4.34856
444.081	4.7029
445.846	3.99015
447.613	2.97928
449.378	3.01784
451.142	3.12686
452.908	2.79757
454.672	3.55547
456.435	3.59717
458.2	3.54257
459.963	4.28894
461.725	4.95869
463.489	5.18508
465.251	5.95786
467.012	7.12064
468.775	7.80531
470.536	7.86465
472.296	7.91184
474.056	8.98872
475.817	9.02525
477.576	10.0899
479.335	12.0538
481.094	12.5414
482.854	14.4333
484.612	15.8589
486.37	17.4743
488.127	19.6189
489.886	21.0587
491.642	23.7647
493.398	24.7918
495.154	25.2424
496.91	25.44
498.667	25.7537
500.422	26.823
502.176	28.5705
503.93	30.3657
505.684	30.6333
507.438	31.4131
509.191	30.6842
510.946	31.3091
512.698	30.4769
514.45	32.6578
516.202	32.1017
517.954	30.7813
519.705	31.0277
521.456	30.9809
523.206	30.3965
524.956	30.5041
526.706	30.3987
528.456	28.7336
530.207	28.6857
531.956	28.0104
533.704	28.2094
535.452	27.4127
537.2	27.6078
538.947	26.2647
540.694	24.199
542.441	23.3312
544.188	22.4419
545.934	21.6085
547.68	22.4055
549.425	20.6552
551.17	19.6941
552.915	19.4677
554.659	17.5762
556.403	16.9378
558.145	16.2274
559.889	15.9468
561.632	16.0277
563.375	15.313
565.117	14.3666
566.859	14.3561
568.601	12.9
570.342	12.7499
572.083	12.0551
573.824	10.9965
575.565	10.7201
577.303	9.22122
579.043	8.6191
580.782	7.16582
582.521	7.16216
584.26	7.64821
585.998	7.20771
587.734	7.89591
589.472	7.48889
591.21	6.48733
592.947	4.26598
594.684	4.66635
596.418	4.08568
598.154	5.63987
599.89	6.08288
601.626	7.93448
603.361	6.53082
605.094	7.6246
606.828	8.52111
608.562	9.10423
610.296	9.22468
612.027	10.2874
613.761	10.6513
615.493	10.1183
617.224	11.3504
618.956	12.4546
620.688	13.0306
622.419	12.5968
624.149	14.2278
625.879	15.2619
627.61	15.7928
629.338	16.7976
631.068	17.2266
632.797	17.3456
634.525	17.499
636.254	17.2383
637.98	18.2662
639.708	18.9965
641.436	18.6164
643.162	19.41
644.889	18.7007
646.614	18.2786
648.34	17.7205
650.067	17.3804
651.791	16.9911
653.516	17.4942
655.239	16.3228
656.964	15.1531
658.687	14.0819
660.411	13.092
662.133	13.243
663.857	13.5654
665.58	13.2884
667.301	14.117
669.024	15.2905
670.744	16.341
672.464	15.6286
674.186	15.5275
675.905	15.1764
677.626	15.525
679.345	16.7364
681.065	18.8773
682.783	19.5426
684.503	21.9409
686.22	22.4237
687.939	23.8231
689.656	24.3732
691.372	25.8237
693.09	26.1345
694.806	27.205
696.523	27.7547
698.239	28.9663
699.953	29.7459
701.67	30.8894
703.384	33.5205
705.098	34.3004
706.813	35.2422
708.526	37.8032
710.239	39.0171
711.954	40.4373
713.666	39.8495
715.378	40.1471
717.091	40.7288
718.802	41.2061
720.513	42.4367
722.226	43.6623
723.936	43.7776
725.646	42.9052
727.355	41.5525
729.067	41.2658
730.776	41.2297
732.484	41.8723
734.192	41.5003
735.902	41.9645
737.61	41.212
739.317	41.4375
741.024	40.5571
742.731	40.3873
744.439	40.5253
746.145	42.1113
747.851	43.1704
749.556	43.7712
751.262	43.0704
752.966	44.6962
754.673	45.0255
756.377	45.2897
758.081	44.5431
759.784	46.0574
761.487	47.2734
763.19	48.6512
764.892	50.0772
766.594	51.391
768.296	52.7249
770	54.0325
771.701	54.6733
773.402	55.7656
775.102	56.851
776.803	57.7145
778.503	58.3697
780.202	58.8554
781.901	59.5925
783.6	61.2011
785.299	62.5637
786.997	64.9396
788.695	66.6129
790.393	67.2361
792.09	69.0104
793.787	69.2653
795.484	68.9264
797.18	69.6222
798.877	69.0825
800.572	69.3953
802.268	69.1889
803.963	69.1972
805.658	69.2382
807.35	68.96
809.044	69.7149
810.738	69.4956
812.432	69.2684
814.125	68.6261
815.818	69.4102
817.51	69.1718
819.202	69.2106
820.894	69.908
822.584	70.5106
824.275	69.9618
825.966	69.635
827.657	68.8053
829.347	68.6499
831.037	68.975
832.725	68.5299
834.414	67.868
836.103	67.5218
837.792	67.0361
839.481	66.4404
841.167	67.0885
842.854	66.1316
844.542	67.9464
846.229	67.6524
847.914	67.9694
849.6	66.4045
851.287	65.4355
852.973	63.1344
854.656	61.8325
856.341	61.836
858.026	62.2753
859.711	61.5685
861.393	59.9554
863.077	59.1193
864.761	58.529
866.442	58.2
868.125	57.787
869.808	57.9042
871.489	58.0565
873.171	56.7053
874.85	55.5792
876.532	54.9133
878.213	53.9057
879.892	52.5114
881.572	51.9879
883.251	52.3839
884.931	51.3854
886.61	50.9408
888.287	51.4437
889.966	50.8137
891.643	51.0568
893.321	50.2251
894.997	48.532
896.675	47.4911
898.352	48.1157
900.028	48.1732
901.704	47.6719
903.379	48.1037
905.055	47.252
906.729	47.5952
908.404	46.6336
910.077	47.6206
911.75	47.6257
913.425	47.8088
915.097	48.5189
916.771	49.0297
918.443	49.1397
920.116	48.9822
921.787	48.699
923.46	49.3615
925.13	48.6535
926.8	47.6711
928.472	47.5957
930.141	45.6027
931.813	43.9277
933.481	41.8427
935.15	40.1806
936.82	39.2109
938.488	39.6679
940.156	39.2587
941.825	37.3382
943.492	35.9956
945.158	34.5027
946.827	33.3788
948.493	32.3627
950.158	31.906
951.824	32.235
953.491	32.8581
955.156	32.5977
956.82	32.3115
958.486	31.4473
960.15	30.4184
961.814	30.1575
963.477	30.1119
965.142	31.8761
966.804	32.9288
968.467	31.9454
970.129	31.8584
971.79	32.2044
973.454	32.5558
975.115	33.9521
976.776	34.0781
978.436	34.748
980.096	35.2018
981.756	36.5084
983.417	36.1269
985.077	37.6837
986.736	38.3415
988.394	38.835
990.052	40.5908
991.71	40.8426
993.368	40.8148
995.025	42.2975
996.682	42.398
998.341	43.2773
999.998	42.9017
1001.65	42.2567
1003.31	42.2208
1004.97	42.6586
1006.62	42.2791
1008.28	41.8071
1009.93	42.0807
1011.58	42.1879
1013.24	41.8209
1014.89	42.1541
1016.54	42.659
1018.2	42.8971
1019.85	44.1571
1021.5	44.3504
1023.16	44.8693
1024.81	45.4683
1026.46	46.1265
1028.11	46.1365
1029.76	46.6861
1031.41	48.183
1033.06	49.2041
1034.71	50.6511
1036.36	50.5631
1038.01	50.3395
1039.66	49.842
1041.31	49.7328
1042.95	51.4423
1044.6	52.5717
1046.25	53.0522
1047.9	53.1196
1049.54	51.2231
1051.19	49.6394
1052.84	48.5462
1054.48	49.2633
1056.13	48.836
1057.77	48.3987
1059.42	46.3178
1061.06	45.9541
1062.71	45.1841
1064.35	44.0885
1066	42.3713
1067.64	42.066
1069.28	40.6495
1070.93	40.3754
1072.57	39.1383
1074.21	37.5069
1075.85	36.2126
1077.49	35.9362
1079.13	33.5131
1080.78	31.9978
1082.42	31.4696
1084.06	30.7063
1085.7	31.0106
1087.34	30.7845
1088.97	29.352
1090.61	29.2835
1092.25	28.7085
1093.89	28.5013
1095.53	28.0254
1097.17	28.2547
1098.8	27.8872
1100.44	26.2934
1102.08	26.8964
1103.71	27.2896
1105.35	26.916
1106.99	26.6395
1108.62	25.8964
1110.26	26.2625
1111.89	26.0409
1113.52	26.4723
1115.16	26.548
1116.79	26.1048
1118.43	25.8096
1120.06	26.6858
1121.69	26.619
1123.32	26.2449
1124.96	25.7026
1126.59	24.1868
1128.22	22.9245
1129.85	22.9826
1131.48	22.0737
1133.11	22.5397
1134.75	22.4766
1136.37	22.1766
1138	20.6338
1139.63	20.0692
1141.26	19.5294
1142.89	19.4187
1144.52	18.7989
1146.15	17.1643
1147.78	15.5495
1149.4	14.7381
1151.03	12.8572
1152.66	12.5444
1154.28	10.7348
1155.91	10.0144
1157.54	9.5631
1159.16	9.56578
1160.79	9.01304
1162.41	8.4753
1164.04	8.06508
1165.66	7.54647
1167.29	7.48892
1168.91	6.38617
1170.53	5.52153
1172.16	5.78322
1173.78	5.40682
1175.4	5.19974
1177.02	5.14268
1178.65	4.46046
1180.27	4.26428
1181.89	4.64798
1183.51	5.88865
1185.13	4.71771
1186.75	4.84978
1188.37	5.965
1189.99	6.75948
1191.61	8.133
1193.23	9.20092
1194.85	11.1725
1196.47	12.4674
1198.08	13.3289
1199.7	15.5203
1201.32	16.6383
1202.94	17.1023
1204.55	18.759
1206.17	20.7656
1207.79	22.2631
1209.4	24.2281
1211.02	27.0894
1212.63	27.6947
1214.25	29.8358
1215.86	30.3507
1217.48	31.7822
1219.09	33.3939
1220.71	36.0411
1222.32	38.072
1223.93	40.2558
1225.54	42.3162
1227.16	43.292
1228.77	45.5034
1230.38	47.7827
1231.99	49.7065
1233.6	52.9412
1235.22	55.4597
1236.83	58.5742
1238.44	61.5814
1240.05	64.3602
1241.66	65.0615
1243.26	66.6435
1244.87	68.3633
1246.48	69.6485
1248.09	70.9348
1249.7	71.2865
1251.31	71.1486
1252.92	72.1352
1254.52	73.0638
1256.13	74.4022
1257.74	75.3363
1259.34	75.9602
1260.95	78.5968
1262.55	79.6133
1264.16	79.6578
1265.76	81.5789
1267.37	84.0557
1268.97	86.5492
1270.58	87.6093
1272.18	89.4393
1273.78	89.9032
1275.39	91.5056
1276.99	91.8411
1278.59	93.3337
1280.2	95.0403
1281.8	97.0559
1283.4	98.2329
1285	99.273
1286.6	100.155
1288.2	101.792
1289.8	102.847
1291.4	103.576
1293	104.202
1294.6	105.08
1296.2	104.948
1297.8	105.95
1299.4	106.137
1301	107.287
1302.6	107.98
1304.19	108.104
1305.79	108.482
1307.39	108.494
1308.99	109.516
1310.58	109.646
1312.18	109.822
1313.77	110.602
1315.37	110.324
1316.96	109.56
1318.56	109.42
1320.15	107.595
1321.75	104.073
1323.34	102.736
1324.94	100.417
1326.53	98.0324
1328.12	96.6751
1329.72	95.1589
1331.31	94.6385
1332.9	94.199
1334.49	93.381
1336.08	92.3066
1337.67	90.4133
1339.27	90.1401
1340.86	88.1937
1342.45	86.6176
1344.04	85.726
1345.63	85.3931
1347.22	84.0197
1348.8	81.7475
1350.39	79.003
1351.98	77.6171
1353.57	75.4542
1355.16	75.3325
1356.75	73.5877
1358.33	72.7025
1359.92	72.072
1361.51	70.8447
1363.09	68.7694
1364.68	68.0938
1366.27	67.663
1367.85	66.5892
1369.44	65.2449
1371.02	64.5343
1372.61	64.6706
1374.19	63.988
1375.77	63.5048
1377.36	63.2349
1378.94	63.0269
1380.52	63.5845
1382.11	63.8077
1383.69	63.9954
1385.27	65.4071
1386.85	64.8771
1388.43	65.1104
1390.02	64.3709
1391.6	64.3825
1393.18	64.496
1394.76	63.9222
1396.34	64.049
1397.92	63.8766
1399.5	63.3026
1401.08	63.3268
1402.65	64.6812
1404.23	66.1504
1405.81	67.9481
1407.39	69.8004
1408.97	72.126
1410.54	73.9751
1412.12	75.3797
1413.7	77.8002
1415.27	80.3553
1416.85	82.3854
1418.43	85.7179
1420	88.1003
1421.58	91.9365
1423.15	94.7202
1424.73	97.7189
1426.3	100.682
1427.87	103.436
1429.45	107.694
1431.02	111.777
1432.6	115.238
1434.17	119.998
1435.74	122.775
1437.31	126.383
1438.89	128.787
1440.46	131.836
1442.03	135.177
1443.6	138.134
1445.17	140.001
1446.74	140.106
1448.31	141.368
1449.88	142.083
1451.45	142.063
1453.02	141.53
1454.59	141.361
1456.16	141.445
1457.72	139.942
1459.29	139.33
1460.86	137.097
1462.43	134.717
1463.99	132.258
1465.56	128.111
1467.13	124.36
1468.69	119.59
1470.26	114.858
1471.83	110.341
1473.39	106.109
1474.95	101.518
1476.52	96.4627
1478.08	92.1187
1479.65	86.7325
1481.21	83.0526
1482.78	78.7962
1484.34	74.5774
1485.9	70.581
1487.47	66.4565
1489.03	62.2222
1490.59	58.8522
1492.15	55.5859
1493.71	52.6018
1495.27	49.6727
1496.84	47.7056
1498.39	45.3168
1499.96	42.1319
1501.52	40.3442
1503.07	38.6283
1504.64	38.1444
1506.19	37.0946
1507.75	36.9577
1509.31	36.1451
1510.87	35.1935
1512.43	34.8757
1513.98	33.0052
1515.54	33.4138
1517.1	34.0174
1518.65	35.7751
1520.21	34.8704
1521.77	34.4041
1523.32	33.6191
1524.88	33.3946
1526.44	35.6451
1527.99	36.5633
1529.54	37.4073
1531.1	38.7849
1532.65	40.4542
1534.21	40.9453
1535.76	40.9818
1537.31	42.5039
1538.87	43.1573
1540.42	43.0372
1541.97	43.7025
1543.52	43.9301
1545.07	43.806
1546.63	44.7813
1548.18	45.5329
1549.73	46.5623
1551.28	46.4992
1552.83	45.5263
1554.38	46.3929
1555.93	46.5778
1557.48	47.5798
1559.03	49.3176
1560.57	49.6328
1562.12	49.6292
1563.67	50.9412
1565.22	51.2411
1566.77	53.2628
1568.31	54.6809
1569.86	56.1595
1571.41	58.6799
1572.95	61.5086
1574.5	63.0782
1576.05	64.389
1577.59	66.7164
1579.14	70.0061
1580.68	72.4688
1582.23	74.9143
1583.77	75.4714
1585.31	77.4823
1586.86	79.4213
1588.4	81.0105
1589.95	82.1163
1591.49	82.9667
1593.03	85.5859
1594.57	87.7166
1596.11	87.966
1597.66	88.7318
1599.2	89.8762
1600.74	90.863
1602.28	92.5726
1603.82	93.3068
1605.36	93.6485
1606.9	93.2885
1608.44	93.6407
1609.98	94.4002
1611.52	94.8852
1613.06	96.0646
1614.6	97.3965
1616.13	97.7396
1617.67	97.641
1619.21	99.3281
1620.75	99.6237
1622.28	100.364
1623.82	100.979
1625.36	101.012
1626.89	101.429
1628.43	101.444
1629.96	102.858
1631.5	105.137
1633.04	106.23
1634.57	107.699
1636.11	109.322
1637.64	110.036
1639.17	111.973
1640.71	115.296
1642.24	116.622
1643.77	119.342
1645.31	120.225
1646.84	122.034
1648.37	122.8
1649.9	122.934
1651.43	122.16
1652.96	121.963
1654.5	123.387
1656.03	122.118
1657.56	120.762
1659.09	119.264
1660.62	117.971
1662.15	116.517
1663.67	115.41
1665.2	113.151
1666.73	111.045
1668.26	108.765
1669.79	107.07
1671.32	103.503
1672.84	99.5444
1674.37	96.714
1675.9	92.8059
1677.43	89.1727
1678.95	86.0036
1680.48	82.0807
1682	78.4401
1683.53	75.1299
1685.05	72.2525
1686.58	69.3755
1688.1	65.5517
1689.63	62.4576
1691.15	58.9133
1692.68	55.0962
1694.2	52.0768
1695.72	49.4429
1697.25	46.0681
1698.77	44.0377
1700.29	40.6823
1701.81	38.5343
1703.33	36.9482
1704.86	34.512
1706.38	32.1409
1707.9	29.6358
1709.42	28.5069
1710.94	26.9416
1712.46	26.167
1713.98	24.0005
1715.5	23.6363
1717.02	22.0689
1718.54	20.4343
1720.06	19.4292
1721.57	17.3726
1723.09	16.2942
1724.61	14.9729
1726.13	13.7058
1727.64	13.2154
1729.16	13.127
1730.68	13.5696
1732.19	12.5316
1733.71	13.0662
1735.23	12.4351
1736.74	12.9863
1738.26	13.0271
1739.77	13.7479
1741.29	13.15
1742.8	12.3002
1744.31	11.7379
1745.83	11.4099
1747.34	11.187
1748.85	11.9506
1750.37	11.6857
1751.88	11.2594
1753.39	10.9594
1754.91	10.6304
1756.42	9.97494
1757.93	10.0635
1759.44	9.82783
1760.95	9.18439
1762.46	8.3063
1763.97	7.6843
1765.48	7.68771
1766.99	6.92928
1768.5	5.94211
1770.01	5.68645
1771.52	5.63697
1773.03	5.07618
1774.54	4.87667
1776.04	3.68518
1777.55	3.09858
1779.06	2.71746
1780.57	1.22628
1782.07	0.926685
1783.58	1.38008
1785.09	1.74051
1786.59	1.27448
1788.1	1.2926
1789.6	0.928177
1791.11	0.84586
1792.61	0.207256
1794.12	0.162477
1795.62	-0.372872
1797.13	-1.4176
1798.63	-1.62188
1800.13	-1.26664
1801.64	-1.74862
1803.14	-0.939287
1804.64	-0.678576
1806.15	0.104981
1807.65	0.231334
1809.15	0.18553
1810.65	-0.0230049
1812.15	0.69604
1813.65	0.567893
1815.16	0.675954
1816.66	0.785192
1818.15	0.730465
1819.66	1.21808
1821.16	1.89569
1822.65	2.3793
1824.15	2.62864
1825.65	2.33954
1827.15	3.09607
1828.65	3.27798
1830.15	3.63964
1831.64	3.72124
1833.14	3.92029
1834.64	3.6056
1836.14	3.51779
1837.63	3.10196
1839.13	2.87068
1840.62	3.08593
1842.12	3.80022
1843.62	4.19476
1845.11	4.28416
1846.61	4.28929
1848.1	4.02264
1849.6	4.03405
1851.09	3.71311
1852.58	4.50964
1854.08	4.85204
1855.57	4.99096
1857.06	5.34551
1858.55	5.23111
1860.05	5.04422
1861.54	5.14553
1863.03	4.58469
1864.52	4.30723
1866.01	3.41401
1867.5	4.09219
1869	3.55678
1870.49	3.88542
1871.98	3.57061
1873.47	3.73941
1874.96	3.25265
1876.44	3.27866
1877.93	3.48971
1879.42	3.14617
1880.91	2.85918
1882.4	2.83703
1882.47	2.59138
1883.96	2.53623
1885.46	1.94887
1886.95	1.67869
1888.44	2.20772
1889.94	2.52867
1891.43	3.22986
1892.93	3.02796
1894.42	3.11864
1895.91	2.41669
1897.4	2.13364
1898.89	1.63433
1900.39	2.04026
1901.88	1.99841
1903.37	2.00251
1904.86	1.87172
1906.35	2.40426
1907.84	2.38512
1909.33	2.69128
1910.82	2.7477
1912.31	2.62214
1913.8	3.39477
1915.29	3.6767
1916.77	3.23094
1918.26	3.49933
1919.75	3.35147
1921.24	4.10122
1922.73	4.87483
1924.21	4.40712
1925.7	5.38994
1927.19	5.33643
1928.67	5.70385
1930.16	6.00109
1931.64	5.68155
1933.13	5.88724
1934.61	6.03125
1936.1	6.07955
1937.58	5.88675
1939.07	5.43081
1940.55	6.07821
1942.04	6.2427
1943.52	6.60433
1945	5.89102
1946.49	5.71419
1947.97	5.1025
1949.45	4.41665
1950.93	3.68361
1952.42	3.45713
1953.9	3.66577
1955.38	3.60636
1956.86	3.4561
1958.34	2.41016
1959.82	1.9157
1961.3	1.88151
1962.78	1.70926
1964.26	1.47558
1965.74	0.566468
1967.22	-0.319105
1968.7	-0.335164
1970.18	-0.447603
1971.65	-0.628181
1973.13	-0.498923
1974.61	-0.242189
1976.09	-0.0889696
1977.57	-0.183258
1979.04	-0.0536009
1980.52	-0.567971
1982	-0.455405
1983.47	-0.386504
1984.95	-0.464152
1986.42	0.171597
1987.9	0.195912
1989.37	0.617329
1990.85	1.11048
1992.32	1.20309
1993.8	0.808998
1995.27	1.64948
1996.75	2.12108
1998.22	2.30004
1999.69	4.07
2001.17	4.09237
2002.64	4.92513
2004.11	6.06271
2005.58	5.92112
2007.05	6.96919
2008.53	7.8859
2010	8.23245
2011.47	7.8904
2012.94	8.62489
2014.41	8.93025
2015.88	10.0149
2017.35	9.7573
2018.82	8.92014
2020.29	8.81753
2021.76	9.2806
2023.23	9.75431
2024.7	10.5964
2026.16	10.7577
2027.63	11.1255
2029.1	11.0421
2030.57	10.4969
2032.03	10.1754
2033.5	11.0231
2034.97	11.6391
2036.44	12.3982
2037.9	13.0154
2039.37	12.9423
2040.83	13.9884
2042.3	14.4631
2043.76	14.9656
2045.23	14.7316
2046.69	15.2773
2048.16	15.6772
2049.62	16.4022
2051.08	16.7903
2052.55	16.7397
2054.01	16.1737
2055.47	16.6004
2056.94	17.4418
2058.4	18.0923
2059.86	18.7064
2061.32	19.0841
2062.79	19.7716
2064.25	20.0702
2065.71	20.1221
2067.17	20.6958
2068.63	21.4695
2070.09	22.2387
2071.55	22.9259
2073.01	23.6479
2074.47	24.052
2075.93	25.2503
2077.39	26.3965
2078.85	26.6933
2080.31	27.3787
2081.76	27.7448
2083.22	27.6275
2084.68	28.0119
2086.13	28.8522
2087.59	29.6877
2089.05	31.504
2090.51	31.9655
2091.96	32.2698
2093.42	34.143
2094.87	34.9741
2096.33	35.6464
2097.78	36.5177
2099.24	37.9241
2100.69	39.1616
2102.15	40.5468
2103.6	41.5644
2105.06	43.3936
2106.51	44.4003
2107.96	45.9959
2109.42	47.6373
2110.87	48.7235
2112.32	49.8187
2113.77	51.3833
2115.23	53.2011
2116.68	54.3495
2118.13	55.7292
2119.58	57.583
2121.03	59.3762
2122.48	60.9164
2123.93	62.4115
2125.38	64.4109
2126.83	66.7176
2128.28	69.2499
2129.73	71.548
2131.18	74.0889
2132.63	75.5549
2134.08	77.4626
2135.53	79.1626
2136.97	81.7799
2138.42	83.8963
2139.87	86.1125
2141.32	88.6072
2142.76	90.1102
2144.21	92.6189
2145.66	95.3613
2147.1	97.9346
2148.55	99.908
2150	102.203
2151.44	103.802
2152.89	104.955
2154.33	106.486
2155.78	108.562
2157.22	110.312
2158.66	111.827
2160.11	113.254
2161.55	114.506
2163	115.674
2164.44	116.558
2165.88	118.206
2167.32	118.574
2168.77	118.647
2170.21	118.901
2171.65	118.948
2173.09	118.615
2174.53	119.014
2175.97	118.493
2177.41	117.893
2178.85	117.487
2180.29	116.828
2181.73	116.356
2183.17	115.398
2184.61	115.162
2186.05	114.574
2187.49	114.554
2188.93	113.256
2190.37	112.163
2191.81	111.513
2193.24	110.466
2194.68	108.925
2196.12	107.962
2197.56	106.429
2198.99	103.887
2200.43	101.537
2201.87	99.3864
2203.3	97.619
2204.74	94.7929
2206.17	92.5349
2207.61	90.2366
2209.04	87.8416
2210.48	84.7212
2211.91	82.4762
2213.35	79.1693
2214.78	76.8428
2216.21	75.84
2217.65	73.7597
2219.08	70.6432
2220.51	67.7682
2221.95	65.1336
2223.38	62.5275
2224.81	59.9802
2226.24	57.0266
2227.67	55.9157
2229.1	53.3993
2230.54	50.7518
2231.97	48.7181
2233.4	46.8808
2234.83	45.4921
2236.26	43.6016
2237.69	41.7378
2239.11	39.1312
2240.54	37.2465
2241.97	36.5935
2243.4	35.284
2244.83	34.2594
2246.26	33.2237
2247.69	32.4784
2249.11	32.2654
2250.54	32.2177
2251.97	31.924
2253.4	32.5234
2254.82	32.5122
2256.25	31.8415
2257.67	31.585
2259.1	31.1288
2260.53	30.2425
2261.95	29.2877
2263.38	29.208
2264.8	28.4371
2266.23	28.0689
2267.65	27.2024
2269.07	25.7716
2270.5	25.0655
2271.92	24.6992
2273.34	24.5923
2274.77	24.2212
2276.19	23.5816
2277.61	22.5718
2279.03	22.4836
2280.46	21.9056
2281.88	21.3474
2283.3	20.9748
2284.72	20.6241
2286.14	20.4094
2287.56	19.452
2288.98	18.3021
2290.4	16.6313
2291.82	15.8301
2293.24	14.8414
2294.66	13.8693
2296.08	13.1375
2297.5	12.4585
2298.92	13.0921
2300.34	12.5705
2301.76	12.6925
2303.17	13.1011
2304.59	13.0863
2306.01	13.6771
2307.43	13.2056
2308.84	13.1508
2310.26	12.7668
2311.68	12.1954
2313.09	12.8164
2314.51	12.266
2315.92	12.7559
2317.34	13.1198
2318.75	13.7022
2320.17	13.0576
2321.58	12.908
2323	11.6113
2324.41	11.1206
2325.82	10.5879
2327.24	10.0612
2328.65	10.5354
2330.06	9.92218
2331.48	10.3795
2332.89	10.7488
2334.3	11.8765
2335.71	12.1989
2337.12	11.9278
2338.54	11.0738
2339.95	11.045
2341.36	10.9469
2342.77	10.9857
2344.18	10.5302
2345.59	9.94373
2347	9.75006
2348.41	8.85163
2349.82	8.48454
2351.23	7.8998
2352.64	7.5529
2354.04	6.81107
2355.45	6.47269
2356.86	5.65585
2358.27	5.88894
2359.68	5.66804
2361.08	5.56699
2362.49	5.70449
2363.9	6.10943
2365.3	5.90389
2366.71	6.83994
2368.12	6.74004
2369.52	6.47924
2370.93	6.46438
2372.33	6.46594
2373.74	6.15586
2375.14	5.90184
2376.55	5.74757
2377.95	4.6405
2379.36	3.93777
2380.76	3.30652
2382.16	3.60672
2383.57	4.34035
2384.97	4.02901
2386.37	4.50634
2387.78	4.35981
2389.18	3.60163
2390.58	3.66269
2391.98	3.65719
2393.38	2.73055
2394.79	4.23957
2396.19	4.73142
2397.59	4.65796
2398.99	5.77056
2400.39	5.8898
2401.79	7.16371
2403.19	7.42023
2404.59	7.61475
2405.99	7.2791
2407.39	6.84675
2408.78	7.45358
2410.18	8.46304
2411.58	8.22752
2412.98	8.21135
2414.38	8.11703
2415.77	8.44483
2417.17	8.50169
2418.57	8.40082
2419.97	9.14861
2421.36	10.05
2422.76	10.5195
2424.15	10.5092
2425.55	11.2016
2426.95	12.2766
2428.34	12.2492
2429.74	12.7017
2431.13	12.9527
2432.52	13.0947
2433.92	13.0631
2435.31	12.6589
2436.71	13.4166
2438.1	12.6473
2439.49	12.569
2440.89	13.1229
2442.28	12.7508
2443.67	12.0778
2445.06	11.3866
2446.46	11.1061
2447.85	11.2102
2449.24	10.9691
2450.63	11.0715
2452.02	11.037
2453.41	10.5962
2454.8	9.77753
2456.19	9.15419
2457.58	7.74344
2458.97	7.01314
2460.36	6.57956
2461.75	5.58579
2463.14	5.42454
2464.53	5.7107
2465.92	4.6955
2467.31	4.47969
2468.69	4.83523
2470.08	4.0415
2471.47	4.21493
2472.86	3.02872
2474.24	2.78455
2475.63	2.79861
2477.02	2.92379
2478.4	3.18746
2479.79	2.5292
2481.17	2.03683
2482.56	2.15177
2483.94	1.59832
2485.33	1.35092
2486.72	1.53754
2488.1	1.69893
2489.48	2.36206
2490.87	2.05607
2492.25	1.42024
2493.64	1.63295
2495.02	2.10307
2496.4	2.16656
2497.79	2.28163
2499.17	2.93949
2500.55	2.77739
2501.93	3.2449
2503.31	2.6392
2504.69	3.40736
2506.08	3.16701
2507.46	2.91072
2508.84	3.14402
2510.22	3.39109
2511.6	2.84466
2512.98	2.67516
2514.36	2.89556
2515.74	2.46072
2517.12	2.26959
2518.5	1.55826
2519.88	1.85836
2521.25	2.07793
2522.63	1.61267
2524.01	1.54974
2525.39	2.26631
2526.77	2.13535
2528.14	2.82079
2529.52	2.58188
2530.9	2.84506
2532.27	3.48142
2533.65	4.49896
2535.03	4.48922
2536.4	5.27617
2537.78	5.461
2539.15	5.91508
2540.53	6.29537
2541.9	6.11673
2543.28	6.20147
2544.65	6.43658
2546.03	6.33246
2547.4	6.56385
2548.77	6.48807
2550.15	6.7015
2551.52	6.11407
2552.89	5.92342
2554.27	5.85207
2555.64	5.52144
2557.01	5.37356
2558.38	4.85153
2559.75	4.22954
2561.12	4.09107
2562.5	3.96911
2563.87	3.51078
2565.24	3.14817
2566.61	2.8618
2567.98	2.55566
2569.35	2.49129
2570.72	2.40568
2572.09	1.62877
2573.46	1.7937
2574.83	1.21298
2576.19	1.04585
2577.56	0.778589
2578.93	0.0438503
2580.3	-0.0232354
2581.67	-0.0717343
2583.04	0.166472
2584.4	-0.0550222
2585.77	1.16178
2587.14	1.7809
2588.5	2.50344
2589.87	2.78839
2591.23	2.81786
2592.6	3.74698
2593.97	3.67238
2595.33	3.05235
2596.7	3.67983
2598.06	3.70717
2599.43	3.97282
2600.79	4.8417
2602.15	5.71441
2603.52	5.77346
2604.88	5.78818
2606.25	5.12323
2607.61	4.91359
2608.97	4.98487
2610.33	4.68058
2611.7	4.65999
2613.06	5.86253
2614.42	6.33868
2615.78	7.54526
2617.15	7.88268
2618.51	7.83388
2619.87	7.88236
2621.23	7.99157
2622.59	7.93077
2623.95	8.14243
2625.31	8.39934
2626.67	8.24883
2628.03	8.46653
2629.39	7.94161
2630.75	7.42214
2632.1	7.30917
2633.46	6.94761
2634.82	7.07278
2636.18	7.66535
2637.54	7.81428
2638.89	7.02146
2640.25	7.33111
2641.61	7.58095
2642.97	7.6906
2644.32	7.88205
2645.68	8.54061
2647.03	8.68108
2648.39	9.09154
2649.75	9.02251
2651.1	8.85452
2652.46	9.02418
2653.81	9.60682
2655.17	9.65911
2656.52	9.36911
2657.88	8.38399
2659.23	8.07285
2660.58	7.80393
2661.94	7.4758
2663.29	7.62006
2664.64	7.70446
2666	6.55388
2667.35	6.6037
2668.7	6.83324
2670.05	6.63655
2671.4	5.41042
2672.76	5.01966
2674.11	4.78882
2675.46	4.67765
2676.81	5.14369
2678.16	5.25119
2679.51	5.64227
2680.86	5.75122
2682.21	5.53694
2683.56	6.16083
2684.91	6.27744
2686.26	5.97883
2687.61	5.95532
2688.96	5.97587
2690.3	5.75711
2691.65	5.04547
2693	4.59911
2694.35	4.75754
2695.7	4.40894
2697.04	4.41968
2698.39	4.89221
2699.74	5.28408
2701.08	5.78833
2702.43	6.65945
2703.77	6.86119
2705.12	7.15399
2706.47	7.5216
2707.81	9.03945
2709.16	9.75243
2710.5	10.0048
2711.85	10.3134
2713.19	10.9769
2714.53	10.5356
2715.88	10.9289
2717.22	10.9068
2718.57	11.3057
2719.91	11.7657
2721.25	12.0581
2722.59	11.9563
2723.94	12.046
2725.28	12.1341
2726.62	12.9637
2727.96	12.2741
2729.3	12.3855
2730.65	12.3719
2731.99	12.0045
2733.33	11.7184
2734.67	12.4669
2736.01	12.607
2737.35	12.3983
2738.69	12.2831
2740.03	12.4605
2741.37	10.9329
2742.71	11.107
2744.05	10.6169
2745.38	10.2113
2746.72	9.22119
2748.06	8.75961
2749.4	8.53696
2750.74	8.51575
2752.07	8.34795
2753.41	6.89364
2754.75	6.46419
2756.09	6.27959
2757.42	5.02664
2758.76	4.1479
2760.09	3.88128
2761.43	3.85506
2762.77	3.25735
2764.1	3.24881
2765.44	2.81136
2766.77	1.93
2768.11	1.36783
2769.44	1.31227
2770.77	0.737149
2772.11	1.05935
2773.44	1.3573
2774.77	1.27124
2776.11	0.916533
2777.44	0.143731
2778.77	-0.0503207
2780.11	0.187155
2781.44	0.192941
2782.77	1.19728
2784.1	0.801642
2785.43	1.42797
2786.77	1.46412
2788.1	1.21707
2789.43	1.25228
2790.76	1.49469
2792.09	1.43409
2793.42	1.43084
2794.75	1.22478
2796.08	2.47759
2797.41	3.17219
2798.74	2.59665
2800.07	2.75669
2801.4	3.54858
2802.72	3.13577
2804.05	2.80885
2805.38	2.61693
2806.71	2.30956
2808.04	2.17838
2809.36	2.36503
2810.69	1.46233
2812.02	1.31174
2813.34	1.53934
2814.67	2.36018
2816	3.16456
2817.32	4.55068
2818.65	5.18878
2819.97	5.45766
2821.3	7.2419
2822.62	8.21812
2823.95	9.29314
2825.27	11.3583
2826.6	13.4431
2827.92	15.5971
2829.25	17.5934
2830.57	19.7296
2831.89	22.3346
2833.22	25.315
2834.54	28.611
2835.86	32.5335
2837.18	36.0997
2838.51	40.9676
2839.83	45.4948
2841.15	49.9201
2842.47	54.4834
2843.79	59.0069
2845.11	64.1338
2846.43	69.6049
2847.76	75.0169
2849.08	79.9525
2850.4	84.8524
2851.72	90.703
2853.04	95.894
2854.36	101.585
2855.67	107.615
2856.99	112.514
2858.31	118.041
2859.63	123.79
2860.95	129.19
2862.27	134.611
2863.58	139.32
2864.9	143.164
2866.22	148.389
2867.54	152.762
2868.85	156.524
2870.17	160.643
2871.49	164.672
2872.8	168.035
2874.12	171.45
2875.43	174.661
2876.75	178.772
2878.07	182.554
2879.38	185.965
2880.7	189.37
2882.01	192.319
2883.32	195.683
2884.64	199.341
2885.95	203.642
2887.27	207.372
2888.58	210.693
2889.89	214.613
2891.21	217.876
2892.52	221.763
2893.83	226.253
2895.14	230.609
2896.46	235.193
2897.77	240.929
2899.08	246.17
2900.39	251.914
2901.7	257.951
2903.01	264.771
2904.32	271.856
2905.63	279.005
2906.94	285.96
2908.25	293.268
2909.56	301.097
2910.87	309.024
2912.18	316.631
2913.49	325.201
2914.8	333.065
2916.11	341.348
2917.42	348.365
2918.72	355.721
2920.03	361.79
2921.34	367.602
2922.65	372.666
2923.95	377.341
2925.26	380.792
2926.57	383.191
2927.88	386.125
2929.18	387.627
2930.49	388.245
2931.79	389.686
2933.1	389.057
2934.4	387.918
2935.71	385.517
2937.01	383.414
2938.32	379.727
2939.62	376.013
2940.93	371.515
2942.23	366.069
2943.54	359.63
2944.84	352.995
2946.14	346.838
2947.45	340.689
2948.75	334.124
2950.05	327.077
2951.35	318.635
2952.66	309.603
2953.96	300.937
2955.26	292.526
2956.56	283.557
2957.86	275.656
2959.16	268.302
2960.46	259.777
2961.77	251.981
2963.07	244.022
2964.37	236.782
2965.66	229.683
2966.96	222.921
2968.26	215.885
2969.56	209.118
2970.86	202.128
2972.16	195.758
2973.46	189.257
2974.76	182.951
2976.06	177.062
2977.35	171.88
2978.65	166.423
2979.95	159.718
2981.25	153.52
2982.54	146.833
2983.84	140.801
2985.14	133.437
2986.43	127.576
2987.73	120.649
2989.02	114.537
2990.32	108.937
2991.62	103.91
2992.91	99.0694
2994.21	93.7847
2995.5	88.2471
2996.8	82.9539
2998.09	76.8008
2999.38	71.9865
3000.68	67.1517
3001.97	62.455
3003.26	57.1743
3004.56	53.2949
3005.85	48.8195
3007.14	44.3488
3008.43	40.9062
3009.73	36.9149
3011.02	33.2546
3012.31	30.4636
3013.6	27.1003
3014.89	23.8774
3016.19	20.6044
3017.48	17.9117
3018.77	15.6861
3020.06	13.7569
3021.35	11.9889
3022.64	11.1237
3023.93	9.30736
3025.22	7.40863
3026.5	6.44543
3027.79	5.32288
3029.08	5.50747
3030.37	4.04043
3031.66	3.00075
3032.95	1.54548
3034.24	1.35799
3035.52	1.20024
3036.81	2.13934
3038.1	1.60982
3039.39	2.33597
3040.67	2.88235
3041.96	2.87411
3043.25	2.57259
3044.53	2.82089
3045.82	3.42262
3047.1	4.15861
3048.39	4.67279
3049.67	5.46223
3050.96	6.67298
3052.24	7.04094
3053.53	8.36793
3054.81	9.16531
3056.1	9.72689
3057.38	9.80955
3058.67	10.1194
3059.95	9.66346
3061.23	10.2331
3062.52	10.4031
3063.8	10.3575
3065.08	9.72995
3066.36	9.45566
3067.65	9.08906
3068.93	8.99458
3070.21	7.53602
3071.49	7.24673
3072.77	6.65473
3074.05	5.88288
3075.33	6.17924
3076.61	6.78544
3077.89	6.2911
3079.17	6.31091
3080.45	6.72666
3081.73	6.31518
3083.01	6.42311
3084.29	6.48668
3085.57	6.58979
3086.85	7.16536
3088.13	6.962
3089.41	7.94724
3090.68	8.55496
3091.96	9.50114
3093.24	9.94189
3094.52	10.2328
3095.79	10.8259
3097.07	11.5836
3098.35	12.7815
3099.62	13.3833
3100.9	13.4359
3102.18	14.3685
3103.45	15.4675
3104.73	16.062
3106	17.1438
3107.28	18.4112
3108.55	19.3959
3109.83	20.2868
3111.1	21.125
3112.38	22.0883
3113.65	23.3362
3114.93	24.0659
3116.2	24.7117
3117.47	25.7744
3118.75	26.4988
3120.02	27.0031
3121.29	27.6489
3122.57	28.7576
3123.84	29.298
3125.11	30.1137
3126.38	30.3236
3127.65	30.6132
3128.92	31.4999
3130.2	32.4838
3131.47	33.0817
3132.74	34.4643
3134.01	35.4613
3135.28	37.4966
3136.55	39.0994
3137.82	41.2813
3139.09	43.3873
3140.36	45.2416
3141.63	47.0069
3142.9	49.1017
3144.17	51.1828
3145.43	53.8209
3146.7	56.2572
3147.97	58.5507
3149.24	60.7819
