#Acq. time (s)=	45
#Accumulations=	2
#Range (cm-¹)=	200...3150
#Windows=	2
#Auto scanning=	Off
#Autofocus=	Off
#Macrospot=	Off
#AutoExposure=	Off
#Spike filter=	Multiple accum.
#Delay time (s)=	0
#Binning=	1
#Readout mode=	Signal
#DeNoise=	Off
#ICS correction=	On
#Dark correction=	Off
#Inst. Process=	Off
#Detector Gain=	Best Dynamic Range
#Detector ADC=	20 kHz       
#Detector temperature (°C)=	-69.85
#Instrument=	LabRAM HR Evol
#Detector=	Synapse
#Objective=	x100
#Grating=	600 gr/mm
#ND Filter=	100%
#Laser (nm)=	532 
#Hole=	100.021
#Range=	Auto
#Laser Pol.=	No
#Raman. Pol.=	No
#Laser Pol. (°)=	-0.0007625
#Raman Pol. (°)=	89.9995
#Collection=	Microscope
#StageXY=	Marzhauser
#StageZ=	Marzhauser
#X (µm)=	-1081.3
#Y (µm)=	597.2
#Z (µm)=	584.85
#Full time(mm:ss)=	3:18
#Project=	
#Sample=	
#Site=	
#Title=	Mb_40_y_38_2x_45s_532 nm_x100_100%_600 gr_mm
#Remark=	
#Date=	19.07.2022 12:30
#Acquired=	19.07.2022 12:30:22
#Base:Fit=	10.08.2022 10:52:48
#Base:Sub=	10.08.2022 10:52:53
#Filter:Polynom=	16.08.2022 10:09:04
#AxisType[0]=Intens
#AxisUnit[0]=Cnt
#AxisType[1]=Spectr
#AxisUnit[1]=1/cm
200.423	36.7083
202.238	36.5402
204.052	36.3456
205.868	36.7072
207.682	35.5579
209.495	34.4612
211.308	33.4145
213.12	32.4113
214.935	30.5147
216.746	28.8607
218.558	27.0228
220.369	25.8887
222.18	23.9678
223.992	23.5148
225.802	22.87
227.612	22.1834
229.421	20.4882
231.23	20.2354
233.039	20.3982
234.849	20.178
236.657	19.5367
238.465	18.2225
240.272	17.0912
242.079	16.5285
243.885	15.2616
245.691	13.3315
247.497	12.0975
249.305	11.114
251.11	11.0628
252.915	8.97247
254.719	8.06938
256.523	7.20301
258.327	7.21945
260.13	5.97562
261.933	7.67361
263.736	7.18528
265.538	8.36538
267.34	7.11098
269.141	7.01214
270.943	7.22974
272.744	7.4104
274.544	6.65922
276.344	5.48354
278.144	5.57694
279.944	5.16298
281.743	3.88061
283.542	3.91643
285.34	4.30099
287.138	3.6626
288.936	4.67238
290.733	4.96775
292.53	5.26223
294.327	4.72578
296.123	4.82813
297.919	6.43482
299.715	7.26447
301.508	7.3805
303.303	7.70713
305.098	7.2619
306.892	8.71876
308.686	9.27808
310.479	9.82794
312.273	10.4152
314.065	10.3361
315.858	11.8773
317.648	12.3512
319.44	13.1179
321.231	13.0195
323.022	12.6427
324.813	13.0575
326.604	13.1316
328.392	13.5654
330.181	13.1809
331.971	13.5967
333.76	13.4879
335.548	14.5553
337.335	15.0668
339.123	14.2786
340.91	14.676
342.698	13.6585
344.483	14.2966
346.269	15.1656
348.055	15.1002
349.841	13.9764
351.625	12.6294
353.41	11.0976
355.195	10.0681
356.977	9.34662
358.762	9.66263
360.545	7.81222
362.329	6.59724
364.11	4.55677
365.893	3.97021
367.675	3.94127
369.455	4.23758
371.237	5.19375
373.017	5.24404
374.798	4.9408
376.578	5.09115
378.357	5.10598
380.137	4.60785
381.917	5.25936
383.694	4.54704
385.473	5.33467
387.249	6.08967
389.028	6.42512
390.806	7.39362
392.581	7.76236
394.359	8.64998
396.134	10.0328
397.91	11.2016
399.684	11.8069
401.46	12.8946
403.234	14.6699
405.009	17.132
406.784	15.9974
408.557	15.4406
410.331	15.5489
412.103	17.1309
413.876	18.7295
415.647	19.3552
417.42	20.3014
419.191	19.7654
420.961	21.1107
422.733	21.9278
424.502	22.7479
426.273	23.0808
428.042	24.8347
429.812	25.962
431.58	25.8691
433.35	25.8722
435.118	25.1299
436.885	25.1651
438.653	24.7799
440.42	24.1021
442.188	24.1735
443.954	24.4806
445.719	24.4278
447.486	23.2745
449.251	21.9245
451.015	22.3283
452.781	21.0065
454.545	21.2836
456.308	21.0734
458.073	20.5429
459.836	21.4317
461.598	20.5036
463.362	20.3141
465.124	20.1796
466.885	19.5435
468.648	18.3752
470.408	17.7464
472.169	16.3083
473.929	17.2247
475.69	17.7668
477.45	17.9591
479.208	17.2728
480.967	17.3396
482.727	16.2719
484.485	16.8295
486.243	16.2797
488	13.6452
489.759	12.3294
491.515	11.9328
493.272	10.1813
495.028	10.6216
496.783	10.7356
498.54	11.4147
500.295	11.4584
502.05	11.9531
503.804	12.5305
505.558	13.3725
507.311	13.4747
509.064	13.9576
510.819	14.4842
512.572	14.8332
514.324	15.3197
516.076	15.3839
517.827	14.8246
519.578	14.104
521.329	14.7581
523.08	14.7069
524.83	15.1088
526.58	13.6022
528.329	13.0279
530.08	13.0025
531.829	13.1038
533.578	12.1523
535.326	11.637
537.074	10.8405
538.821	10.4966
540.568	10.1582
542.315	9.70544
544.062	9.62719
545.808	9.27968
547.554	10.1804
549.299	8.64195
551.044	8.3565
552.789	7.81607
554.533	6.69132
556.278	5.58081
558.019	4.29456
559.763	4.36438
561.506	5.22847
563.249	4.56085
564.991	4.12805
566.733	3.97674
568.475	5.44941
570.217	3.31035
571.958	4.21549
573.699	2.88074
575.439	2.97917
577.177	3.68978
578.917	4.47545
580.656	4.67956
582.396	4.75187
584.134	3.71492
585.873	3.71487
587.609	3.46577
589.347	2.86387
591.084	3.33231
592.822	2.56731
594.558	2.38939
596.295	0.789531
598.029	0.955644
599.765	0.669019
601.5	1.92115
603.235	2.30561
604.968	2.45204
606.703	2.58598
608.437	3.82235
610.171	3.25664
611.902	2.53377
613.635	1.46264
615.368	2.45742
617.099	1.59194
618.831	0.309923
620.563	0.627922
622.294	0.885799
624.024	1.48017
625.755	2.56995
627.485	3.93689
629.213	4.45327
630.943	6.03262
632.673	6.66793
634.4	8.21382
636.129	7.67089
637.855	9.25176
639.584	10.0812
641.312	10.3156
643.037	11.1832
644.764	11.5284
646.491	13.5408
648.216	12.2824
649.942	12.6247
651.666	13.9885
653.392	14.4143
655.115	13.8217
656.84	12.8877
658.563	13.8413
660.287	12.9188
662.011	12.986
663.732	13.0399
665.456	13.1976
667.177	13.2143
668.899	13.9445
670.62	13.7909
672.342	13.1958
674.061	13.0287
675.781	14.2438
677.502	15.3121
679.22	15.445
680.941	16.7399
682.659	15.8682
684.379	18.1542
686.096	19.9064
687.815	21.7484
689.532	22.6344
691.248	22.5483
692.966	23.3217
694.682	24.0297
696.4	23.415
698.115	23.1811
699.829	24.8628
701.546	27.6717
703.26	27.9056
704.974	29.3548
706.689	31.3024
708.402	33.3144
710.115	35.6189
711.83	37.1347
713.542	37.9018
715.254	38.5214
716.967	38.2639
718.679	38.0472
720.39	37.5228
722.102	37.3794
723.812	37.6068
725.522	36.6983
727.232	36.0665
728.943	35.4859
730.652	35.07
732.361	34.5971
734.069	34.2663
735.779	35.6756
737.487	35.5593
739.194	35.5825
740.901	34.7041
742.608	35.4354
744.316	35.3087
746.022	35.7072
747.728	36.0061
749.433	35.9623
751.138	35.6381
752.843	36.3931
754.549	37.9415
756.254	37.5642
757.957	38
759.661	38.8811
761.364	40.1965
763.067	40.1881
764.769	40.9428
766.471	41.8567
768.175	42.0567
769.877	44.9452
771.578	44.886
773.279	44.6609
774.98	45.8874
776.68	44.8493
778.38	46.2346
780.079	47.2073
781.779	47.6013
783.478	50.1388
785.176	52.8976
786.875	53.0651
788.573	53.4855
790.27	53.3436
791.968	54.0315
793.665	55.4831
795.361	55.985
797.058	56.1593
798.754	55.996
800.45	56.5211
802.145	57.373
803.84	57.3477
805.535	56.975
807.23	57.2966
808.922	56.1458
810.616	56.2053
812.309	55.4655
814.002	54.4247
815.695	53.9191
817.388	53.1027
819.08	51.8698
820.772	51.4263
822.464	51.0731
824.153	51.3614
825.844	50.0758
827.535	49.619
829.225	48.609
830.915	48.2407
832.605	45.3579
834.292	43.9582
835.981	43.2387
837.67	40.4384
839.359	38.6114
841.047	35.4134
842.732	33.1523
844.42	30.7644
846.107	30.1564
847.794	28.5141
849.479	27.4152
851.165	25.8548
852.851	25.0599
854.534	24.1326
856.22	22.662
857.905	22.246
859.589	21.5453
861.272	19.1916
862.956	19.4604
864.639	18.8185
866.321	19.1202
868.004	18.7903
869.687	18.8017
871.367	17.6725
873.049	18.4225
874.731	18.4147
876.41	20.5011
878.092	21.7331
879.771	23.2226
881.451	24.1296
883.131	25.6598
884.809	25.916
886.489	25.0618
888.166	23.406
889.845	23.9169
891.522	22.9661
893.2	21.6981
894.878	22.1605
896.554	21.208
898.231	21.8085
899.906	22.0974
901.583	20.9738
903.258	20.6593
904.934	21.3765
906.608	19.9224
908.283	18.3201
909.956	17.0862
911.631	16.2049
913.304	15.7599
914.976	14.5894
916.65	12.7895
918.322	12.1056
919.995	11.6366
921.666	10.6729
923.339	11.5446
925.009	10.6473
926.679	9.837
928.351	8.78523
930.021	9.48386
931.692	7.35579
933.361	7.11658
935.029	7.25412
936.699	7.47974
938.367	6.44536
940.035	6.04302
941.704	5.02953
943.371	4.94164
945.038	4.46337
946.706	5.29755
948.372	6.1918
950.038	6.05837
951.705	5.19659
953.37	6.50375
955.035	6.86831
956.7	7.48464
958.366	8.33389
960.03	7.42304
961.693	6.54607
963.357	6.9307
965.021	7.11186
966.684	7.37454
968.346	6.21589
970.008	6.27819
971.67	6.45707
973.334	7.01995
974.995	5.50531
976.655	6.32365
978.316	6.94444
979.976	6.35784
981.638	6.07206
983.297	5.62238
984.957	4.83246
986.616	6.00453
988.274	4.30132
989.932	3.65332
991.59	3.39608
993.248	3.87515
994.907	2.55443
996.565	1.75774
998.221	-1.51934
999.878	-3.8343
1001.53	-3.97838
1003.19	-4.60487
1004.85	-4.91152
1006.5	-2.61639
1008.16	2.07447
1009.81	8.6445
1011.46	19.6852
1013.12	32.5952
1014.77	47.0838
1016.43	64.5847
1018.08	79.9784
1019.73	95.3235
1021.38	109.397
1023.04	124.562
1024.69	139.959
1026.34	155.048
1027.99	168.29
1029.64	182.02
1031.29	193.857
1032.94	204.462
1034.59	213.772
1036.24	222.323
1037.89	228.724
1039.54	233.838
1041.19	239.094
1042.84	242.714
1044.48	246.32
1046.13	249.748
1047.78	251.596
1049.42	252.134
1051.07	249.628
1052.72	246.815
1054.36	242.974
1056.01	237.504
1057.66	231.586
1059.3	224.836
1060.94	215.461
1062.59	205.077
1064.23	192.422
1065.88	181.942
1067.52	169.517
1069.16	156.294
1070.81	140.171
1072.45	126.213
1074.09	111.145
1075.73	97.0289
1077.38	82.9722
1079.02	71.0426
1080.66	59.5554
1082.3	50.4751
1083.94	44.4229
1085.58	37.7544
1087.22	35.5399
1088.86	38.5147
1090.5	41.8846
1092.13	45.8893
1093.77	53.0341
1095.41	58.0641
1097.05	62.2218
1098.68	66.5216
1100.32	68.9741
1101.96	72.2089
1103.6	75.6231
1105.23	79.9458
1106.87	84.1625
1108.5	88.1776
1110.14	90.6516
1111.77	93.102
1113.41	96.3788
1115.04	99.0794
1116.67	101.29
1118.31	106.452
1119.94	109.924
1121.58	112.809
1123.21	115.063
1124.84	117.829
1126.47	120.966
1128.1	125.309
1129.73	127.498
1131.37	129.287
1133	131.029
1134.63	131.308
1136.26	133.266
1137.89	135.49
1139.52	137.12
1141.14	139.142
1142.77	139.572
1144.4	140.709
1146.03	141.933
1147.66	143.811
1149.29	144.166
1150.91	143.936
1152.54	143.662
1154.17	145.294
1155.79	147.399
1157.42	148.99
1159.04	150.207
1160.67	153.172
1162.3	154.558
1163.92	155.011
1165.55	159.334
1167.17	160.779
1168.79	164.974
1170.42	168.7
1172.04	171.044
1173.66	172.539
1175.28	175.65
1176.91	176.543
1178.53	178.286
1180.15	181.237
1181.77	182.487
1183.39	185.814
1185.01	188.752
1186.63	193.051
1188.25	197.441
1189.87	202.388
1191.49	205.19
1193.11	209.198
1194.73	214.931
1196.35	216.039
1197.97	219.663
1199.59	223.524
1201.2	227.091
1202.82	229.686
1204.44	233.334
1206.05	238.104
1207.67	242.787
1209.29	246.616
1210.9	249.732
1212.52	253.61
1214.13	258.949
1215.75	262.814
1217.36	269.739
1218.97	274.69
1220.59	279.559
1222.2	284.698
1223.82	290.119
1225.43	296.81
1227.04	302.158
1228.65	307.647
1230.26	314.069
1231.88	319.519
1233.49	326.431
1235.1	333.091
1236.71	340.492
1238.32	346.113
1239.93	353.02
1241.54	360.537
1243.15	366.92
1244.76	373.113
1246.37	379.936
1247.97	384.062
1249.58	390.707
1251.19	395.909
1252.8	401.424
1254.41	408.314
1256.01	416.809
1257.62	425.771
1259.23	435.299
1260.83	443.338
1262.44	451.945
1264.04	461.255
1265.65	470.305
1267.25	478.975
1268.86	486.465
1270.46	495.004
1272.07	501.375
1273.67	510.03
1275.27	519.62
1276.88	526.969
1278.48	536.623
1280.08	545.757
1281.68	554.544
1283.28	562.691
1284.89	569.83
1286.49	577.408
1288.09	585.486
1289.69	594.033
1291.29	601.685
1292.89	610.589
1294.49	618.807
1296.09	626.361
1297.69	633.747
1299.29	640.553
1300.88	649.449
1302.48	655.571
1304.08	663.14
1305.68	669.083
1307.27	674.565
1308.87	680.875
1310.47	686.13
1312.06	691.618
1313.66	697.298
1315.25	703.074
1316.85	707.978
1318.44	712.149
1320.04	716.152
1321.63	719.91
1323.23	723.848
1324.82	725.128
1326.41	725.999
1328.01	728.699
1329.6	731.125
1331.19	733.711
1332.78	736.201
1334.38	739.295
1335.97	740.991
1337.56	742.659
1339.15	742.193
1340.74	741.544
1342.33	741.596
1343.92	740.898
1345.51	740.04
1347.1	738.06
1348.69	737.518
1350.28	736.766
1351.87	734.015
1353.46	732.085
1355.04	730.372
1356.63	725.666
1358.22	722.734
1359.81	719.786
1361.39	716.404
1362.98	712.289
1364.57	706.383
1366.15	703.698
1367.74	700.078
1369.32	695.713
1370.91	692.124
1372.49	687.862
1374.07	682.813
1375.66	678.094
1377.24	672.387
1378.83	668.236
1380.41	664.118
1381.99	658.707
1383.57	653.352
1385.16	648.394
1386.74	642.834
1388.32	636.375
1389.9	629.863
1391.48	625.785
1393.06	619.949
1394.64	614.598
1396.22	607.205
1397.8	603.324
1399.38	597.108
1400.96	592.323
1402.54	588.033
1404.12	583.035
1405.7	578.735
1407.28	576.084
1408.85	570.971
1410.43	568.096
1412.01	563.17
1413.58	559.755
1415.16	555.892
1416.74	552.8
1418.31	549.539
1419.89	546.744
1421.46	544.481
1423.04	542.631
1424.61	539.2
1426.19	537.443
1427.76	536.364
1429.33	535.022
1430.91	532.952
1432.48	532.5
1434.05	530.459
1435.63	528.059
1437.2	526.384
1438.77	524.58
1440.34	522.9
1441.91	520.077
1443.49	517.935
1445.05	514.642
1446.63	512.468
1448.2	509.331
1449.77	507.847
1451.34	503.064
1452.91	498.981
1454.47	494.332
1456.04	491.837
1457.61	488.023
1459.18	483.815
1460.75	479.577
1462.31	473.212
1463.88	468.771
1465.45	463.443
1467.01	458.204
1468.58	454.97
1470.15	451.574
1471.71	447.62
1473.28	443.796
1474.84	439.879
1476.41	437.405
1477.97	433.487
1479.54	431.449
1481.1	428.454
1482.66	425.526
1484.23	422.428
1485.79	419.52
1487.35	416.033
1488.91	413.596
1490.48	410.777
1492.04	409.328
1493.6	407.762
1495.16	407.176
1496.72	407.237
1498.28	406.431
1499.84	406.424
1501.4	405.925
1502.96	404.816
1504.52	406.918
1506.08	408.218
1507.64	406.861
1509.2	406.437
1510.76	406.294
1512.31	406.635
1513.87	406.772
1515.43	406.956
1516.99	408.769
1518.54	409.685
1520.1	411.554
1521.66	414.161
1523.21	417.433
1524.77	422.636
1526.32	424.684
1527.88	429.637
1529.43	431.942
1530.99	435.943
1532.54	441.379
1534.09	446.848
1535.65	452.595
1537.2	459.794
1538.75	465.734
1540.31	471.97
1541.86	480.769
1543.41	488.832
1544.96	496.832
1546.51	505.79
1548.06	514.866
1549.62	524.334
1551.17	532.906
1552.72	541.638
1554.27	551.726
1555.82	561.238
1557.36	571.364
1558.91	581.056
1560.46	591.994
1562.01	602.85
1563.56	613.062
1565.11	624.482
1566.66	636.443
1568.2	647.336
1569.75	659.001
1571.3	669.265
1572.84	681.009
1574.39	692.166
1575.93	701.41
1577.48	711.132
1579.02	720.052
1580.57	727.137
1582.11	734.113
1583.66	739.105
1585.2	742.922
1586.75	748.87
1588.29	752.381
1589.83	755.909
1591.38	755.129
1592.92	755.806
1594.46	755.848
1596	753.864
1597.54	750.4
1599.09	745.451
1600.63	739.605
1602.17	732.582
1603.71	723.441
1605.25	713.436
1606.79	700.804
1608.33	689.747
1609.87	677.565
1611.41	663.397
1612.95	650.342
1614.48	634.646
1616.02	617.059
1617.56	600.646
1619.1	583.593
1620.64	564.84
1622.17	548.117
1623.71	531.295
1625.25	514.043
1626.78	496.329
1628.32	478.677
1629.86	461.023
1631.39	445.326
1632.92	429.495
1634.46	414.695
1635.99	400.131
1637.53	385.76
1639.06	372.75
1640.59	358.713
1642.13	347.604
1643.66	335.794
1645.19	324.194
1646.73	314.101
1648.26	303.293
1649.79	295.385
1651.32	285.2
1652.85	275.48
1654.38	265.969
1655.92	257.709
1657.45	249.227
1658.98	240.994
1660.51	233.608
1662.04	226.521
1663.57	219.579
1665.09	210.621
1666.62	202.649
1668.15	194.189
1669.68	186.087
1671.21	178.408
1672.73	170.896
1674.26	163.856
1675.79	156.113
1677.31	150.032
1678.84	143.352
1680.37	134.592
1681.89	126.453
1683.42	119.458
1684.94	112.471
1686.47	104.634
1687.99	98.253
1689.52	91.1684
1691.04	84.2942
1692.57	77.9835
1694.09	72.9817
1695.61	67.8545
1697.14	62.4262
1698.66	58.2044
1700.18	52.0165
1701.7	47.5591
1703.22	43.4436
1704.75	39.2832
1706.27	36.008
1707.79	32.4896
1709.31	29.3381
1710.83	26.442
1712.35	23.6583
1713.87	20.7832
1715.39	19.5466
1716.91	17.2459
1718.43	16.6612
1719.95	14.8501
1721.46	12.4448
1722.98	10.9806
1724.5	10.1589
1726.02	8.97071
1727.53	7.16315
1729.05	5.9178
1730.57	4.31349
1732.08	3.88451
1733.6	2.24461
1735.12	0.813222
1736.63	0.996975
1738.15	-0.672365
1739.66	-2.0435
1741.18	-3.19386
1742.69	-2.71069
1744.21	-2.01699
1745.72	-3.19821
1747.23	-2.05212
1748.74	-1.90377
1750.26	-2.15853
1751.77	-2.04896
1753.28	-0.929176
1754.8	-1.80532
1756.31	-2.62766
1757.82	-2.5095
1759.33	-2.35633
1760.84	-1.70392
1762.35	-1.32896
1763.86	-0.456526
1765.37	-0.582727
1766.88	0.111253
1768.39	0.639463
1769.9	0.0832744
1771.41	0.367228
1772.92	0.168116
1774.43	0.412273
1775.93	0.466218
1777.44	-0.0336777
1778.95	0.574668
1780.46	0.615732
1781.96	0.981191
1783.47	0.569086
1784.98	1.59649
1786.48	2.54938
1787.99	2.81704
1789.49	3.01614
1791	3.85194
1792.5	4.20684
1794.01	4.95939
1795.51	5.26955
1797.02	5.55524
1798.52	6.54153
1800.03	5.68491
1801.53	4.89188
1803.03	4.63242
1804.53	4.6937
1806.04	5.24181
1807.54	6.44721
1809.04	6.7399
1810.54	6.69744
1812.04	6.8488
1813.54	6.83709
1815.05	6.39968
1816.55	7.02176
1818.05	7.80828
1819.55	7.8162
1821.05	7.40633
1822.55	7.50424
1824.05	7.14975
1825.54	7.00455
1827.04	7.41667
1828.54	8.90421
1830.04	9.59224
1831.54	10.5834
1833.03	11.0668
1834.53	12.3115
1836.03	12.4209
1837.52	12.6563
1839.02	13.1998
1840.52	12.4326
1842.01	11.8617
1843.51	12.5499
1845	11.1891
1846.5	10.7746
1847.99	10.3487
1849.49	9.97638
1850.98	11.0666
1852.47	11.4311
1853.97	12.2986
1855.46	11.2029
1856.95	10.0787
1858.45	10.4491
1859.94	11.2058
1861.43	11.5517
1862.92	11.3396
1864.41	10.5864
1865.91	11.4506
1867.4	13.7439
1868.89	13.6971
1870.38	13.896
1871.87	12.4869
1873.36	11.2519
1874.85	9.36222
1876.34	9.94638
1877.83	10.6064
1879.31	11.246
1880.8	12.0847
1882.29	12.5349
1882.56	11.4162
1884.05	10.2007
1885.54	10.6066
1887.04	9.8514
1888.53	8.30411
1890.03	9.22027
1891.52	9.98117
1893.01	8.6689
1894.5	8.67549
1895.99	8.60266
1897.49	8.05859
1898.98	8.98907
1900.47	10.5266
1901.96	9.06182
1903.45	8.17239
1904.94	6.29843
1906.43	5.23294
1907.92	6.41924
1909.41	5.45853
1910.9	5.59234
1912.39	5.23904
1913.88	3.9056
1915.37	4.68052
1916.86	5.82342
1918.35	4.61772
1919.84	4.5069
1921.32	6.66383
1922.81	6.55001
1924.3	8.21379
1925.78	6.93558
1927.27	5.97339
1928.76	5.6536
1930.24	7.13498
1931.73	9.50016
1933.21	10.0592
1934.7	10.0586
1936.18	10.6739
1937.67	10.6759
1939.15	11.5332
1940.64	13.5417
1942.12	12.1053
1943.6	10.6577
1945.09	9.42174
1946.57	10.3337
1948.05	10.7133
1949.54	11.2755
1951.02	10.882
1952.5	10.8886
1953.98	11.1978
1955.46	9.32912
1956.94	8.10191
1958.42	9.58246
1959.91	11.0035
1961.39	11.0575
1962.87	10.8622
1964.34	12.1979
1965.82	12.4074
1967.3	10.7623
1968.78	11.9954
1970.26	11.5504
1971.74	11.6614
1973.22	12.63
1974.7	11.5493
1976.17	10.3745
1977.65	12.9224
1979.13	14.4614
1980.6	16.3912
1982.08	18.8718
1983.56	19.5211
1985.03	20.6529
1986.51	20.9461
1987.98	21.9308
1989.46	23.4753
1990.93	24.1734
1992.41	23.8232
1993.88	25.8887
1995.36	28.1942
1996.83	28.0999
1998.3	29.8689
1999.78	28.5185
2001.25	30.239
2002.72	32.3223
2004.2	34.6374
2005.67	36.1506
2007.14	35.2764
2008.61	35.3638
2010.08	35.5296
2011.55	34.4338
2013.02	34.5863
2014.49	33.9313
2015.97	31.8886
2017.43	31.7018
2018.9	31.5028
2020.37	31.9506
2021.84	32.2874
2023.31	32.7656
2024.78	33.592
2026.25	35.1066
2027.72	35.845
2029.19	35.7729
2030.65	36.9983
2032.12	38.5183
2033.59	36.8139
2035.05	37.263
2036.52	36.6722
2037.98	38.2787
2039.45	39.3052
2040.92	38.7168
2042.38	39.4955
2043.85	39.7837
2045.31	41.2736
2046.78	41.9135
2048.24	43.1954
2049.71	44.0535
2051.17	46.2591
2052.63	45.1659
2054.1	44.0737
2055.56	44.8676
2057.02	44.1374
2058.48	43.3386
2059.95	42.8373
2061.41	43.1596
2062.87	43.2554
2064.33	44.3877
2065.79	44.7035
2067.25	46.2455
2068.71	46.2962
2070.17	45.1963
2071.63	46.0113
2073.09	47.939
2074.55	48.1603
2076.01	48.6487
2077.47	47.4532
2078.93	45.0809
2080.39	45.0084
2081.85	45.979
2083.3	47.0344
2084.76	47.022
2086.22	49.2399
2087.68	50.1229
2089.13	51.0588
2090.59	51.6678
2092.05	52.3462
2093.5	54.0353
2094.96	53.2424
2096.41	55.1848
2097.87	56.0075
2099.32	58.1042
2100.78	59.3372
2102.23	58.8229
2103.69	59.3571
2105.14	61.6405
2106.59	63.6284
2108.05	65.723
2109.5	65.4695
2110.95	67.7955
2112.41	68.1821
2113.86	68.0015
2115.31	70.0997
2116.76	72.1707
2118.21	73.4793
2119.67	74.6119
2121.12	74.5713
2122.57	74.4726
2124.02	76.519
2125.47	76.3766
2126.92	77.7929
2128.37	79.1134
2129.82	80.6892
2131.27	84.1942
2132.71	85.3914
2134.16	88.8618
2135.61	91.2672
2137.06	93.1557
2138.51	94.6056
2139.95	97.7848
2141.4	99.2173
2142.85	102.424
2144.29	106.236
2145.74	110.475
2147.19	110.861
2148.63	116.426
2150.08	119.31
2151.52	123.714
2152.97	128.095
2154.42	128.55
2155.86	131.116
2157.3	132.39
2158.75	135.855
2160.19	135.947
2161.64	137.743
2163.08	139.474
2164.52	142.571
2165.96	145.282
2167.41	148.322
2168.85	153.044
2170.29	153.867
2171.73	154.989
2173.17	155.555
2174.61	155.285
2176.06	154.81
2177.5	154.338
2178.94	153.991
2180.38	151.679
2181.82	149.832
2183.26	149.872
2184.7	147.359
2186.14	145.984
2187.57	145.155
2189.01	143.79
2190.45	140.782
2191.89	138.634
2193.33	136.688
2194.76	135.594
2196.2	133.708
2197.64	132.72
2199.08	131.487
2200.51	130.71
2201.95	130.965
2203.38	129.211
2204.82	126.036
2206.25	126.615
2207.69	124.166
2209.12	122.425
2210.56	120.678
2211.99	120.938
2213.43	119.835
2214.86	119.773
2216.3	116.081
2217.73	116.222
2219.16	114.467
2220.59	113.901
2222.03	112.511
2223.46	110.098
2224.89	108.414
2226.32	108.132
2227.75	107.17
2229.19	107.2
2230.62	107.199
2232.05	104.892
2233.48	104.633
2234.91	104.011
2236.34	103.922
2237.77	102.146
2239.2	99.6883
2240.63	97.3733
2242.06	93.6227
2243.48	91.2247
2244.91	90.2312
2246.34	86.7653
2247.77	83.2319
2249.2	81.3069
2250.62	79.3468
2252.05	75.9929
2253.48	73.2207
2254.9	72.6545
2256.33	71.9238
2257.76	71.6444
2259.18	70.7401
2260.61	69.5934
2262.03	67.4071
2263.46	67.2368
2264.88	66.4277
2266.31	66.2732
2267.73	65.8132
2269.16	64.862
2270.58	62.522
2272	61.0183
2273.43	60.5067
2274.85	59.7557
2276.27	59.3653
2277.69	58.2003
2279.12	55.8379
2280.54	53.7059
2281.96	54.2278
2283.38	53.2018
2284.8	51.4975
2286.22	50.9336
2287.64	50.9199
2289.07	53.1376
2290.49	52.19
2291.91	51.5449
2293.32	50.5601
2294.74	49.8967
2296.16	50.0508
2297.58	49.3291
2299	49.0232
2300.42	50.554
2301.84	49.5569
2303.26	49.4202
2304.67	50.0501
2306.09	50.4644
2307.51	50.4332
2308.92	49.0288
2310.34	48.8453
2311.76	48.7746
2313.17	47.5425
2314.59	47.2042
2316	46.6639
2317.42	44.8128
2318.83	44.6374
2320.25	43.9635
2321.66	44.3139
2323.08	44.7495
2324.49	44.8189
2325.91	46.662
2327.32	48.2444
2328.73	47.1652
2330.15	46.5929
2331.56	44.3846
2332.97	43.6974
2334.38	42.9844
2335.79	42.5194
2337.21	41.4736
2338.62	39.3546
2340.03	37.0472
2341.44	38.0482
2342.85	37.6333
2344.26	35.3094
2345.67	32.6852
2347.08	29.9433
2348.49	26.2902
2349.9	24.7183
2351.31	23.3122
2352.72	23.8286
2354.13	21.5344
2355.53	20.6715
2356.94	18.737
2358.35	16.8683
2359.76	13.8155
2361.17	11.9419
2362.57	10.4393
2363.98	9.52007
2365.39	8.91355
2366.79	9.28596
2368.2	9.31656
2369.6	8.0782
2371.01	8.33291
2372.42	7.28823
2373.82	8.62005
2375.22	7.32907
2376.63	8.13421
2378.03	7.66378
2379.44	6.08636
2380.84	6.42702
2382.25	7.81217
2383.65	7.89987
2385.05	7.34082
2386.45	9.01364
2387.86	10.1602
2389.26	9.90584
2390.66	10.2667
2392.06	12.081
2393.46	12.9519
2394.87	14.2516
2396.27	16.5171
2397.67	17.6439
2399.07	18.0198
2400.47	18.0472
2401.87	17.9503
2403.27	19.7041
2404.67	19.9659
2406.07	20.6546
2407.47	20.7775
2408.86	22.0413
2410.26	21.7262
2411.66	23.0345
2413.06	22.6535
2414.46	22.4272
2415.85	24.1435
2417.25	24.908
2418.65	23.6519
2420.05	23.7258
2421.44	23.5194
2422.84	23.0859
2424.23	21.9979
2425.63	20.5931
2427.03	19.4555
2428.42	19.2874
2429.82	17.5413
2431.21	17.4756
2432.6	17.7224
2434	18.6251
2435.39	16.8357
2436.79	18.6164
2438.18	16.8097
2439.57	15.891
2440.97	17.3202
2442.36	16.8604
2443.75	17.6815
2445.14	16.8364
2446.54	17.9048
2447.93	16.4611
2449.32	15.6547
2450.71	15.4104
2452.1	16.5794
2453.49	14.8082
2454.88	13.7343
2456.27	14.8693
2457.66	13.4941
2459.05	13.3738
2460.44	13.9035
2461.83	13.5191
2463.22	13.1921
2464.61	13.6213
2466	12.4791
2467.39	11.1052
2468.77	9.25654
2470.16	7.52438
2471.55	8.38207
2472.94	9.13012
2474.32	9.7093
2475.71	8.41503
2477.1	7.62861
2478.48	7.01208
2479.87	6.6735
2481.25	8.33304
2482.64	8.02048
2484.02	5.66669
2485.41	5.37992
2486.8	2.52814
2488.18	2.79303
2489.56	2.26116
2490.95	2.43641
2492.33	2.69423
2493.72	2.61523
2495.1	1.63357
2496.48	0.51115
2497.86	1.19476
2499.25	1.05189
2500.63	2.75327
2502.01	4.28953
2503.39	4.29358
2504.77	3.38394
2506.16	4.13718
2507.54	3.85521
2508.92	4.79235
2510.3	5.71935
2511.68	6.02851
2513.06	7.23146
2514.44	7.9469
2515.82	8.77392
2517.2	10.2377
2518.58	11.9472
2519.95	13.4343
2521.33	16.176
2522.71	16.2903
2524.09	16.0927
2525.47	19.2047
2526.84	19.465
2528.22	20.8429
2529.6	21.7676
2530.98	21.9149
2532.35	22.4919
2533.73	23.0786
2535.11	23.049
2536.48	24.6495
2537.86	27.1559
2539.23	29.0265
2540.61	29.2013
2541.98	29.4133
2543.36	29.079
2544.73	30.1006
2546.1	30.5051
2547.48	30.9994
2548.85	32.3429
2550.23	32.3639
2551.6	31.1936
2552.97	30.4656
2554.34	33.0293
2555.72	31.7328
2557.09	32.6979
2558.46	31.4515
2559.83	30.9119
2561.2	32.0104
2562.58	31.3253
2563.95	29.3882
2565.32	27.0939
2566.69	26.9991
2568.06	26.3621
2569.43	24.4981
2570.8	22.1404
2572.17	19.4006
2573.54	19.0687
2574.91	16.242
2576.27	16.3787
2577.64	15.8093
2579.01	14.577
2580.38	13.4773
2581.75	13.6351
2583.11	13.5058
2584.48	11.8674
2585.85	11.267
2587.21	10.2875
2588.58	8.7006
2589.95	9.22697
2591.31	8.32924
2592.68	7.19465
2594.04	8.25258
2595.41	6.55029
2596.78	6.73538
2598.14	6.23955
2599.51	6.71518
2600.87	6.97386
2602.23	8.02367
2603.6	8.60716
2604.96	8.45213
2606.32	8.76605
2607.69	8.91762
2609.05	10.0445
2610.41	11.9668
2611.77	12.6591
2613.14	11.4541
2614.5	11.0543
2615.86	10.9104
2617.22	12.1509
2618.58	11.7585
2619.94	13.1703
2621.3	12.6486
2622.67	13.973
2624.03	13.3683
2625.39	15.3039
2626.75	15.3717
2628.1	15.7488
2629.46	17.1477
2630.82	16.1679
2632.18	15.7022
2633.54	16.595
2634.9	17.762
2636.26	18.0593
2637.61	17.9778
2638.97	17.9681
2640.33	19.6239
2641.69	21.3164
2643.04	19.6649
2644.4	20.5706
2645.76	20.7529
2647.11	20.5808
2648.47	19.6417
2649.82	20.5377
2651.18	18.9011
2652.53	17.3593
2653.89	18.7459
2655.24	18.7392
2656.6	18.0941
2657.95	19.4573
2659.31	20.6051
2660.66	20.7271
2662.01	21.1646
2663.37	23.2986
2664.72	23.3265
2666.07	23.9842
2667.43	24.7
2668.78	24.5481
2670.13	26.6177
2671.48	29.1027
2672.83	28.8749
2674.18	29.2995
2675.53	30.4134
2676.89	28.9638
2678.24	27.2512
2679.59	26.4896
2680.94	26.1948
2682.29	27.208
2683.64	27.9138
2684.99	29.7054
2686.34	29.2801
2687.68	29.4573
2689.03	29.4858
2690.38	31.5282
2691.73	33.6712
2693.08	34.152
2694.43	33.8991
2695.77	34.7495
2697.12	35.2624
2698.47	35.2235
2699.81	34.0243
2701.16	33.7054
2702.51	32.5626
2703.85	33.3101
2705.2	33.4752
2706.54	32.4656
2707.89	32.499
2709.23	31.1294
2710.58	29.4967
2711.92	28.6734
2713.27	28.519
2714.61	26.7658
2715.96	25.9031
2717.3	25.9426
2718.64	25.5504
2719.99	25.594
2721.33	26.0049
2722.67	25.435
2724.01	25.6456
2725.36	26.2091
2726.7	26.5372
2728.04	24.4461
2729.38	24.1598
2730.72	24.186
2732.06	22.4465
2733.41	22.1229
2734.75	21.254
2736.09	21.2595
2737.43	21.7882
2738.77	21.0117
2740.11	18.4061
2741.44	18.046
2742.78	19.0598
2744.12	17.1533
2745.46	17.686
2746.8	19.4004
2748.14	18.4342
2749.48	17.4349
2750.81	18.8315
2752.15	17.7831
2753.49	16.8713
2754.83	17.7012
2756.16	18.5417
2757.5	18.3746
2758.84	19.0709
2760.17	18.2801
2761.51	17.3817
2762.84	16.0449
2764.18	16.0714
2765.51	13.7582
2766.85	14.1232
2768.18	14.7998
2769.52	13.6693
2770.85	13.603
2772.19	13.0995
2773.52	12.4857
2774.85	12.4816
2776.19	12.1909
2777.52	12.2353
2778.85	12.8612
2780.18	12.4171
2781.52	14.2787
2782.85	14.8674
2784.18	12.9265
2785.51	12.092
2786.84	11.3932
2788.17	10.8205
2789.51	9.53733
2790.84	9.45929
2792.17	8.03647
2793.5	7.39423
2794.83	6.57504
2796.16	6.62452
2797.48	5.88972
2798.81	4.66593
2800.14	4.05318
2801.47	4.47438
2802.8	4.89352
2804.13	5.12967
2805.46	4.22668
2806.79	3.61478
2808.11	2.09301
2809.44	0.872289
2810.77	-0.102467
2812.09	0.30321
2813.42	-0.119454
2814.75	-1.31783
2816.07	1.88053
2817.4	3.53988
2818.73	5.77067
2820.05	8.72431
2821.38	9.85128
2822.7	11.2356
2824.03	13.5708
2825.35	15.5639
2826.67	17.3186
2828	19.2323
2829.32	22.2985
2830.65	26.1679
2831.97	29.3535
2833.29	34.0499
2834.62	36.0393
2835.94	40.2169
2837.26	44.2695
2838.58	49.2972
2839.9	52.2618
2841.23	55.2794
2842.55	59.5377
2843.87	62.8936
2845.19	66.7987
2846.51	69.4579
2847.83	74.4872
2849.15	76.4696
2850.47	80.6607
2851.79	85.2177
2853.11	88.8167
2854.43	91.4551
2855.75	95.1979
2857.07	100.603
2858.39	103.977
2859.71	107.043
2861.02	109.553
2862.34	112.317
2863.66	114.365
2864.98	118.048
2866.3	121.161
2867.61	123.086
2868.93	123.577
2870.25	124.526
2871.56	125.151
2872.88	126.852
2874.19	128.803
2875.51	132.201
2876.83	134.488
2878.14	135.736
2879.46	138.299
2880.77	140.857
2882.09	143.23
2883.4	143.432
2884.71	146.434
2886.03	148.177
2887.34	149.523
2888.65	154.181
2889.97	158.206
2891.28	160.084
2892.59	162.961
2893.91	165.963
2895.22	167.655
2896.53	170.721
2897.84	174.034
2899.15	177.492
2900.46	180.413
2901.78	184.42
2903.09	188.204
2904.4	193
2905.71	196.078
2907.02	201.296
2908.33	205.801
2909.64	210.673
2910.95	216.465
2912.26	222.335
2913.57	227.376
2914.87	230.654
2916.18	236.416
2917.49	241.773
2918.8	246.441
2920.11	251.575
2921.42	255.939
2922.72	259.831
2924.03	262.758
2925.34	263.576
2926.64	266.721
2927.95	267.883
2929.26	268.794
2930.56	270.137
2931.87	269.454
2933.17	267.281
2934.48	266.137
2935.78	265.346
2937.09	263.338
2938.39	262.356
2939.7	258.931
2941	255.177
2942.31	250.131
2943.61	246.911
2944.91	242.806
2946.22	238.878
2947.52	234.931
2948.82	230.672
2950.13	228.013
2951.43	223.429
2952.73	216.708
2954.03	211.588
2955.33	204.053
2956.64	195.83
2957.94	189.753
2959.24	184.712
2960.54	178.272
2961.84	172.935
2963.14	168.089
2964.44	162.567
2965.74	157.391
2967.04	153.865
2968.34	148.998
2969.64	142.684
2970.94	137.983
2972.24	133.874
2973.53	127.583
2974.83	125.41
2976.13	120.016
2977.43	116.15
2978.73	110.764
2980.02	108.239
2981.32	106.107
2982.62	100.603
2983.91	94.7485
2985.21	89.4952
2986.51	83.5092
2987.8	78.4612
2989.1	73.3978
2990.4	67.4044
2991.69	62.9489
2992.99	57.7418
2994.28	53.9747
2995.57	49.6432
2996.87	45.9611
2998.16	41.5516
2999.46	38.9166
3000.75	35.2277
3002.05	31.0646
3003.34	27.9399
3004.63	23.9393
3005.92	23.149
3007.22	20.1455
3008.51	18.1763
3009.8	16.4431
3011.09	15.204
3012.39	13.0545
3013.68	10.4609
3014.97	9.23708
3016.26	7.27939
3017.55	5.93524
3018.84	5.68903
3020.13	4.13883
3021.42	2.84545
3022.71	2.5838
3024	2.63136
3025.29	0.224597
3026.58	0.254763
3027.87	1.19182
3029.16	1.03887
3030.45	2.12579
3031.73	2.40254
3033.02	2.19212
3034.31	1.79127
3035.6	2.78499
3036.89	3.27045
3038.17	3.73792
3039.46	5.36658
3040.75	4.77618
3042.03	6.22505
3043.32	5.12676
3044.61	4.12959
3045.89	3.26619
3047.18	2.33905
3048.46	1.7785
3049.75	2.24952
3051.03	1.48846
3052.32	2.36625
3053.6	2.48796
3054.89	2.56714
3056.17	2.3695
3057.45	3.04206
3058.74	2.77769
3060.02	2.18231
3061.31	3.6021
3062.59	4.47094
3063.87	4.13211
3065.15	4.01845
3066.44	4.68715
3067.72	4.7875
3069	5.57481
3070.28	6.0345
3071.56	4.05142
3072.84	5.89326
3074.13	8.41965
3075.41	6.61824
3076.69	6.42309
3077.97	6.84766
3079.25	7.95499
3080.53	8.95598
3081.81	9.68525
3083.09	9.8557
3084.37	11.0574
3085.64	11.3598
3086.92	13.7001
3088.2	15.4195
3089.48	17.285
3090.76	19.9279
3092.04	21.6992
3093.31	22.0731
3094.59	23.901
3095.87	25.1783
3097.14	26.4989
3098.42	26.2882
3099.7	28.7596
3100.97	29.6961
3102.25	30.2276
3103.53	30.9918
3104.8	31.8472
3106.08	34.1282
3107.35	34.7834
3108.63	35.7439
3109.9	38.1528
3111.18	39.361
3112.45	40.5407
3113.73	42.9363
3115	43.7049
3116.27	46.3685
3117.55	47.724
3118.82	49.2495
3120.09	50.9991
3121.37	52.4561
3122.64	54.034
3123.91	55.8447
3125.18	58.7952
3126.45	59.9281
3127.73	60.1298
3129	61.094
3130.27	61.8211
3131.54	61.9641
3132.81	64.17
3134.08	64.8238
3135.35	66.8752
3136.62	69.7972
3137.89	70.5713
3139.16	70.4492
3140.43	74.2699
3141.7	77.2961
3142.97	79.7783
3144.24	81.9476
3145.51	83.5208
3146.78	84.8339
3148.04	84.6485
3149.31	84.5605
