#Acq. time (s)=	45
#Accumulations=	2
#Range (cm-¹)=	200...3150
#Windows=	2
#Auto scanning=	Off
#Autofocus=	Off
#Macrospot=	Off
#AutoExposure=	Off
#Spike filter=	Multiple accum.
#Delay time (s)=	0
#Binning=	1
#Readout mode=	Signal
#DeNoise=	Off
#ICS correction=	On
#Dark correction=	Off
#Inst. Process=	Off
#Detector Gain=	Best Dynamic Range
#Detector ADC=	20 kHz       
#Detector temperature (°C)=	-70.08
#Instrument=	LabRAM HR Evol
#Detector=	Synapse
#Objective=	x100
#Grating=	600 gr/mm
#ND Filter=	100%
#Laser (nm)=	532 
#Hole=	100.021
#Range=	Auto
#Laser Pol.=	No
#Raman. Pol.=	No
#Laser Pol. (°)=	-0.0007625
#Raman Pol. (°)=	89.9995
#Collection=	Microscope
#StageXY=	Marzhauser
#StageZ=	Marzhauser
#X (µm)=	-2487.1
#Y (µm)=	-82.7
#Z (µm)=	-10.3
#Full time(mm:ss)=	3:19
#Project=	
#Sample=	
#Site=	
#Title=	Mb_40_24_34_2x_45s_532 nm_x100_100%_600 gr_mm
#Remark=	
#Date=	14.07.2022 13:11
#Acquired=	14.07.2022 13:11:47
#Base:Fit=	10.08.2022 10:47:00
#Base:Sub=	10.08.2022 10:47:12
#Filter:Polynom=	16.08.2022 10:11:48
#AxisType[0]=Intens
#AxisUnit[0]=Cnt
#AxisType[1]=Spectr
#AxisUnit[1]=1/cm
200.554	30.5435
202.369	27.7735
204.183	25.0943
205.999	24.9737
207.813	24.1074
209.626	23.0876
211.439	21.6007
213.253	20.8563
215.065	19.6904
216.877	17.9587
218.688	17.0116
220.5	15.9493
222.312	14.3858
224.123	10.5451
225.933	9.99093
227.742	8.89718
229.552	5.8794
231.361	5.03224
233.171	4.18411
234.98	4.58936
236.787	5.59216
238.595	6.53602
240.402	7.29444
242.209	7.68787
244.015	6.82639
245.822	7.82591
247.627	7.90617
249.435	8.11396
251.24	8.48331
253.045	9.14536
254.849	9.11975
256.653	8.99862
258.457	8.89185
260.26	7.55195
262.063	8.39768
263.866	7.71156
265.668	8.46724
267.47	8.48635
269.271	8.47173
271.073	9.27294
272.873	10.3273
274.674	10.6237
276.474	10.199
278.274	11.3329
280.073	9.12312
281.872	9.32375
283.671	8.9551
285.47	7.9931
287.268	7.83156
289.065	7.78046
290.863	7.36206
292.66	9.08507
294.456	7.22142
296.253	6.11181
298.049	6.48839
299.844	6.41031
301.637	5.85996
303.432	6.29493
305.227	4.40856
307.021	4.51572
308.815	4.76748
310.609	3.57429
312.402	3.34866
314.195	3.05572
315.987	4.65358
317.777	5.14603
319.569	5.76894
321.36	7.16313
323.151	10.1586
324.942	11.3562
326.733	11.3979
328.521	12.2679
330.31	12.5335
332.1	12.3967
333.889	13.2381
335.677	15.0175
337.464	13.5307
339.252	13.7501
341.039	13.285
342.826	14.5194
344.611	15.2903
346.398	14.6821
348.184	13.9573
349.97	13.9365
351.754	13.7174
353.539	12.6139
355.324	13.3637
357.106	13.1516
358.89	12.2422
360.674	11.8467
362.455	11.6562
364.239	10.229
366.021	8.71636
367.804	7.67051
369.584	7.68818
371.366	7.15274
373.145	5.74091
374.926	6.3003
376.707	6.81367
378.485	6.92394
380.265	6.37093
382.045	5.95963
383.822	5.599
385.601	7.02339
387.378	7.69606
389.156	8.32037
390.934	8.93783
392.71	8.69077
394.487	8.3967
396.262	10.5212
398.038	10.3976
399.813	10.3782
401.588	12.6448
403.362	14.2012
405.137	15.9714
406.912	17.3624
408.685	17.6419
410.459	18.4385
412.23	19.6044
414.004	17.6239
415.775	17.8192
417.548	21.0864
419.318	20.2283
421.089	20.6107
422.86	21.1662
424.63	21.8317
426.401	21.8374
428.17	23.1789
429.94	22.8276
431.708	22.3058
433.478	22.0191
435.245	22.728
437.012	22.8573
438.781	23.4562
440.547	23.3942
442.315	23.2903
444.081	22.5217
445.846	21.8612
447.613	20.7602
449.378	20.747
451.142	20.2704
452.908	18.8333
454.672	18.8039
456.435	20.0222
458.2	21.4096
459.963	20.3435
461.725	20.8082
463.489	21.2141
465.251	20.9507
467.012	21.453
468.775	22.1429
470.536	23.3434
472.296	24.2386
474.056	24.4666
475.817	26.1073
477.576	28.1143
479.335	28.7311
481.094	28.8444
482.854	29.8589
484.612	31.5994
486.37	31.207
488.127	32.1598
489.886	34.3187
491.642	34.4028
493.398	35.216
495.154	35.1202
496.91	35.5943
498.667	36.9172
500.422	36.2332
502.176	38.8271
503.93	39.948
505.684	41.7984
507.438	39.8406
509.191	41.3509
510.946	41.0547
512.698	41.6771
514.45	40.8608
516.202	40.97
517.954	40.9434
519.705	41.1666
521.456	41.7252
523.206	40.3609
524.956	38.9947
526.706	39.0043
528.456	37.3162
530.207	35.9861
531.956	36.1592
533.704	36.011
535.452	35.0057
537.2	35.1878
538.947	34.6459
540.694	34.5269
542.441	35.3864
544.188	35.4029
545.934	34.7715
547.68	33.4756
549.425	33.1313
551.17	32.5702
552.915	33.3855
554.659	33.0397
556.403	33.1238
558.145	32.0034
559.889	30.8517
561.632	30.8145
563.375	30.9475
565.117	29.2391
566.859	27.0247
568.601	25.2963
570.342	23.9188
572.083	21.3935
573.824	18.4777
575.565	17.971
577.303	17.3551
579.043	16.4804
580.782	15.9123
582.521	15.0308
584.26	15.1451
585.998	13.0484
587.734	12.4541
589.472	11.9279
591.21	9.7486
592.947	9.52794
594.684	8.86812
596.418	9.40134
598.154	9.90713
599.89	10.6035
601.626	12.2102
603.361	13.5089
605.094	14.2209
606.828	14.1315
608.562	14.224
610.296	15.2377
612.027	16.3172
613.761	15.2047
615.493	15.2148
617.224	17.7417
618.956	18.7645
620.688	19.0446
622.419	20.0847
624.149	21.2903
625.879	21.1834
627.61	21.3151
629.338	21.8915
631.068	21.4752
632.797	21.3373
634.525	21.994
636.254	22.4523
637.98	20.4703
639.708	20.8351
641.436	20.0575
643.162	19.863
644.889	17.8663
646.614	16.1883
648.34	14.4496
650.067	13.4353
651.791	11.9716
653.516	11.2157
655.239	9.83775
656.964	8.78282
658.687	7.42935
660.411	7.75486
662.133	8.6718
663.857	7.03153
665.58	6.34287
667.301	5.09814
669.024	4.62715
670.744	3.7484
672.464	2.48828
674.186	3.37144
675.905	2.89677
677.626	3.95125
679.345	5.00958
681.065	6.31934
682.783	6.90014
684.503	7.63019
686.22	7.51673
687.939	9.53479
689.656	8.85651
691.372	8.14532
693.09	8.66478
694.806	8.62682
696.523	8.24679
698.239	7.81497
699.953	7.47011
701.67	8.6244
703.384	9.54171
705.098	8.87606
706.813	8.54897
708.526	8.19679
710.239	8.03553
711.954	7.61214
713.666	7.9978
715.378	8.21386
717.091	8.09751
718.802	7.81543
720.513	8.25753
722.226	7.40847
723.936	6.88722
725.646	7.89755
727.355	7.64202
729.067	8.00146
730.776	7.08405
732.484	7.64517
734.192	9.55143
735.902	11.8708
737.61	13.4241
739.317	14.732
741.024	15.4773
742.731	17.3161
744.439	19.6327
746.145	22.6918
747.851	23.5422
749.556	23.3277
751.262	26.4609
752.966	28.4706
754.673	30.7268
756.377	32.5875
758.081	34.2104
759.784	37.0492
761.487	38.117
763.19	39.5217
764.892	42.6264
766.594	44.6811
768.296	45.032
770	46.2024
771.701	47.4272
773.402	49.2686
775.102	49.2183
776.803	50.2573
778.503	52.2103
780.202	51.4399
781.901	51.8431
783.6	52.9071
785.299	54.1408
786.997	55.8204
788.695	55.909
790.393	55.6643
792.09	53.924
793.787	54.058
795.484	54.3826
797.18	53.9043
798.877	53.8436
800.572	53.7338
802.268	52.7797
803.963	52.9723
805.658	52.9169
807.35	52.844
809.044	53.1591
810.738	53.0337
812.432	52.9742
814.125	53.1707
815.818	54.5735
817.51	55.5869
819.202	56.7509
820.894	58.1778
822.584	58.6646
824.275	58.6835
825.966	59.0112
827.657	62.3356
829.347	64.1665
831.037	64.7442
832.725	63.1562
834.414	64.2681
836.103	65.2612
837.792	65.5119
839.481	64.7232
841.167	64.9623
842.854	64.9967
844.542	65.5398
846.229	64.8399
847.914	66.0514
849.6	66.6574
851.287	65.6665
852.973	64.1921
854.656	64.3858
856.341	65.2483
858.026	64.7003
859.711	64.3111
861.393	64.175
863.077	63.6755
864.761	61.4695
866.442	61.1636
868.125	61.2102
869.808	60.6098
871.489	58.7598
873.171	56.0155
874.85	54.2018
876.532	52.2714
878.213	51.9569
879.892	50.9659
881.572	49.3761
883.251	47.5398
884.931	45.6898
886.61	44.0878
888.287	43.6422
889.966	41.7032
891.643	40.8458
893.321	39.9363
894.997	38.7065
896.675	37.9343
898.352	38.7862
900.028	38.8589
901.704	37.4744
903.379	37.1495
905.055	37.2433
906.729	36.5993
908.404	36.4246
910.077	35.8084
911.75	36.1425
913.425	34.0647
915.097	33.035
916.771	31.628
918.443	31.9431
920.116	31.403
921.787	31.3435
923.46	30.6766
925.13	30.598
926.8	29.8265
928.472	29.5168
930.141	28.3446
931.813	27.3628
933.481	26.1805
935.15	24.8562
936.82	23.7464
938.488	23.3661
940.156	22.8896
941.825	20.4967
943.492	19.1897
945.158	16.3178
946.827	15.4367
948.493	15.0034
950.158	17.0401
951.824	17.212
953.491	16.797
955.156	14.8587
956.82	14.485
958.486	13.9469
960.15	15.1332
961.814	16.0211
963.477	18.9499
965.142	23.019
966.804	28.1929
968.467	33.0004
970.129	39.0232
971.79	43.4271
973.454	47.8993
975.115	53.1409
976.776	57.2372
978.436	60.7217
980.096	65.1475
981.756	68.4763
983.417	71.6238
985.077	73.3314
986.736	74.471
988.394	75.0669
990.052	75.9467
991.71	75.9035
993.368	76.382
995.025	77.4002
996.682	77.8166
998.341	77.5498
999.998	77.0363
1001.65	75.1785
1003.31	73.9889
1004.97	72.1909
1006.62	70.3602
1008.28	67.6586
1009.93	68.1856
1011.58	66.2573
1013.24	64.9421
1014.89	64.3056
1016.54	62.432
1018.2	61.6669
1019.85	60.722
1021.5	59.8927
1023.16	58.5117
1024.81	56.4013
1026.46	54.8595
1028.11	54.7053
1029.76	55.6824
1031.41	57.7544
1033.06	57.2021
1034.71	56.0376
1036.36	55.2399
1038.01	55.0131
1039.66	56.0396
1041.31	57.1613
1042.95	60.0542
1044.6	62.3846
1046.25	65.2811
1047.9	67.7647
1049.54	69.1349
1051.19	68.853
1052.84	70.5711
1054.48	70.9932
1056.13	71.9934
1057.77	71.1379
1059.42	70.0615
1061.06	69.7462
1062.71	69.0584
1064.35	68.4996
1066	68.1188
1067.64	65.7226
1069.28	63.6514
1070.93	62.2169
1072.57	61.3295
1074.21	59.0452
1075.85	57.9483
1077.49	55.8082
1079.13	53.4082
1080.78	49.1212
1082.42	47.4973
1084.06	45.5694
1085.7	44.9492
1087.34	44.0197
1088.97	43.4824
1090.61	42.7606
1092.25	43.7002
1093.89	41.5906
1095.53	42.9063
1097.17	41.8107
1098.8	41.3893
1100.44	42.5758
1102.08	42.3994
1103.71	42.6633
1105.35	41.1585
1106.99	41.1254
1108.62	40.8857
1110.26	41.5501
1111.89	41.5094
1113.52	40.8283
1115.16	38.6893
1116.79	38.1941
1118.43	35.2833
1120.06	35.4795
1121.69	33.1472
1123.32	32.5506
1124.96	32.2948
1126.59	31.9155
1128.22	31.7668
1129.85	32.0996
1131.48	31.8698
1133.11	31.6679
1134.75	32.4838
1136.37	31.1073
1138	29.3119
1139.63	28.0261
1141.26	26.5673
1142.89	26.1144
1144.52	25.075
1146.15	23.472
1147.78	21.0303
1149.4	18.6573
1151.03	17.344
1152.66	17.5887
1154.28	16.5318
1155.91	14.2953
1157.54	13.3498
1159.16	11.201
1160.79	10.975
1162.41	9.45911
1164.04	10.6538
1165.66	9.11368
1167.29	8.08645
1168.91	7.23974
1170.53	7.26919
1172.16	6.44251
1173.78	6.68825
1175.4	7.96023
1177.02	9.34374
1178.65	8.7835
1180.27	9.92052
1181.89	10.2352
1183.51	10.2836
1185.13	9.24604
1186.75	10.0566
1188.37	12.2965
1189.99	11.2104
1191.61	12.4583
1193.23	12.007
1194.85	12.9439
1196.47	15.2976
1198.08	15.2333
1199.7	16.3053
1201.32	19.3946
1202.94	20.6788
1204.55	23.2826
1206.17	25.5055
1207.79	28.1165
1209.4	30.7809
1211.02	34.7243
1212.63	37.5615
1214.25	40.7918
1215.86	43.8336
1217.48	46.6138
1219.09	50.5214
1220.71	53.5371
1222.32	57.7757
1223.93	61.4741
1225.54	64.731
1227.16	67.854
1228.77	71.8859
1230.38	75.9477
1231.99	80.8076
1233.6	84.392
1235.22	86.3128
1236.83	88.7492
1238.44	93.6348
1240.05	97.1329
1241.66	101.174
1243.26	102.116
1244.87	104.791
1246.48	106.093
1248.09	110.332
1249.7	112.784
1251.31	116.522
1252.92	118.554
1254.52	121.388
1256.13	124.228
1257.74	125.985
1259.34	128.532
1260.95	130.29
1262.55	132.893
1264.16	134.138
1265.76	135.705
1267.37	139.495
1268.97	141.664
1270.58	143.034
1272.18	147.211
1273.78	150.615
1275.39	155.045
1276.99	158.287
1278.59	160.62
1280.2	163.731
1281.8	166.238
1283.4	168.838
1285	172.462
1286.6	175.81
1288.2	179.83
1289.8	182.891
1291.4	186.012
1293	187.815
1294.6	190.169
1296.2	191.708
1297.8	192.55
1299.4	193.728
1301	195.499
1302.6	196.073
1304.19	195.795
1305.79	196.401
1307.39	196.044
1308.99	196.032
1310.58	196.277
1312.18	195.096
1313.77	193.451
1315.37	192.665
1316.96	192.148
1318.56	191.671
1320.15	189.705
1321.75	188.126
1323.34	186.645
1324.94	185.306
1326.53	184.745
1328.12	184.314
1329.72	180.933
1331.31	180.456
1332.9	178.209
1334.49	176.609
1336.08	174.229
1337.67	172.196
1339.27	169.903
1340.86	167.947
1342.45	166.576
1344.04	163.628
1345.63	163.878
1347.22	162.416
1348.8	160.521
1350.39	159.864
1351.98	160.097
1353.57	158.834
1355.16	156.83
1356.75	155.472
1358.33	153.387
1359.92	151.412
1361.51	149.473
1363.09	149.456
1364.68	149.267
1366.27	148.772
1367.85	148.013
1369.44	147.505
1371.02	146.097
1372.61	145.207
1374.19	144.543
1375.77	143.879
1377.36	143.345
1378.94	143.836
1380.52	144.541
1382.11	143.19
1383.69	145.059
1385.27	144.579
1386.85	145.883
1388.43	146.149
1390.02	147.987
1391.6	148.236
1393.18	149.787
1394.76	150.803
1396.34	151.879
1397.92	152.094
1399.5	154.411
1401.08	155.682
1402.65	158.668
1404.23	160.893
1405.81	164.053
1407.39	165.289
1408.97	167.798
1410.54	171.745
1412.12	174.588
1413.7	177.594
1415.27	181.366
1416.85	186.791
1418.43	192.313
1420	198.904
1421.58	203.47
1423.15	208.251
1424.73	215.981
1426.3	220.88
1427.87	227.37
1429.45	234.232
1431.02	240.454
1432.6	245.402
1434.17	250.836
1435.74	254.801
1437.31	258.971
1438.89	261.968
1440.46	264.89
1442.03	269.077
1443.6	271.26
1445.17	273.103
1446.74	273.95
1448.31	274.432
1449.88	272.375
1451.45	272.393
1453.02	270.012
1454.59	267.657
1456.16	264.805
1457.72	262.115
1459.29	259.812
1460.86	254.411
1462.43	250.198
1463.99	244.558
1465.56	239.089
1467.13	232.486
1468.69	227.545
1470.26	220.11
1471.83	213.873
1473.39	207.498
1474.95	200.746
1476.52	193.045
1478.08	187.407
1479.65	180.046
1481.21	174.409
1482.78	166.869
1484.34	160.388
1485.9	154.236
1487.47	149.616
1489.03	143.935
1490.59	139.622
1492.15	134.901
1493.71	131.727
1495.27	128.61
1496.84	125.698
1498.39	121.668
1499.96	117.553
1501.52	114.595
1503.07	113.588
1504.64	111.017
1506.19	109.171
1507.75	107.818
1509.31	106.253
1510.87	103.008
1512.43	99.9174
1513.98	97.1691
1515.54	95.3422
1517.1	93.6819
1518.65	94.1563
1520.21	93.7799
1521.77	92.0164
1523.32	90.6492
1524.88	89.7551
1526.44	88.0582
1527.99	87.9442
1529.54	88.6635
1531.1	89.1387
1532.65	91.0452
1534.21	92.5926
1535.76	94.5362
1537.31	95.8398
1538.87	97.7099
1540.42	100.903
1541.97	103.365
1543.52	106.27
1545.07	109.704
1546.63	112.301
1548.18	115.435
1549.73	117.75
1551.28	119.903
1552.83	121.879
1554.38	124.659
1555.93	127.741
1557.48	131.218
1559.03	134.185
1560.57	137.128
1562.12	139.985
1563.67	141.46
1565.22	145.017
1566.77	148.953
1568.31	152.606
1569.86	157.13
1571.41	161.681
1572.95	165.455
1574.5	169.633
1576.05	172.404
1577.59	176.615
1579.14	179.939
1580.68	184.47
1582.23	188.165
1583.77	191.704
1585.31	194.963
1586.86	197.075
1588.4	198.836
1589.95	201.551
1591.49	203.896
1593.03	205.973
1594.57	209.103
1596.11	210.172
1597.66	209.533
1599.2	209.196
1600.74	209.458
1602.28	209.38
1603.82	209.601
1605.36	209.771
1606.9	209.977
1608.44	208.457
1609.98	208.481
1611.52	207.5
1613.06	207.408
1614.6	206.629
1616.13	206.631
1617.67	205.237
1619.21	204.13
1620.75	203.083
1622.28	201.256
1623.82	199.553
1625.36	199.578
1626.89	198.114
1628.43	198.174
1629.96	197.32
1631.5	195.675
1633.04	195.151
1634.57	194.268
1636.11	194.549
1637.64	194.576
1639.17	194.58
1640.71	196.011
1642.24	198.559
1643.77	199.662
1645.31	201.072
1646.84	202.325
1648.37	202.126
1649.9	202.211
1651.43	202.068
1652.96	201.897
1654.5	201.238
1656.03	200.582
1657.56	200.729
1659.09	199.642
1660.62	196.011
1662.15	193.806
1663.67	190.269
1665.2	187.663
1666.73	185.633
1668.26	180.737
1669.79	176.855
1671.32	172.198
1672.84	166.55
1674.37	159.974
1675.9	153.565
1677.43	148.263
1678.95	142.784
1680.48	137.818
1682	130.775
1683.53	124.281
1685.05	117.432
1686.58	112.74
1688.1	105.87
1689.63	101.554
1691.15	96.3048
1692.68	90.6085
1694.2	84.5305
1695.72	79.3348
1697.25	73.4497
1698.77	69.255
1700.29	65.2151
1701.81	61.7958
1703.33	57.475
1704.86	52.8543
1706.38	48.2278
1707.9	45.4398
1709.42	44.3088
1710.94	41.394
1712.46	40.5274
1713.98	37.7715
1715.5	36.4424
1717.02	35.5798
1718.54	33.4246
1720.06	32.307
1721.57	30.7818
1723.09	28.3967
1724.61	27.4337
1726.13	27.0375
1727.64	26.1342
1729.16	26.0063
1730.68	24.6971
1732.19	23.6353
1733.71	23.3457
1735.23	22.4059
1736.74	21.0507
1738.26	22.1609
1739.77	20.9598
1741.29	21.8192
1742.8	20.8637
1744.31	18.8591
1745.83	18.6114
1747.34	17.2932
1748.85	16.803
1750.37	15.5639
1751.88	15.3117
1753.39	15.2486
1754.91	14.5674
1756.42	13.8821
1757.93	12.4023
1759.44	12.7412
1760.95	13.0885
1762.46	13.201
1763.97	12.8991
1765.48	13.0535
1766.99	12.0717
1768.5	10.6587
1770.01	10.3535
1771.52	10.7754
1773.03	10.0344
1774.54	10.3049
1776.04	9.1652
1777.55	9.11453
1779.06	7.4408
1780.57	6.80119
1782.07	6.86855
1783.58	7.55871
1785.09	7.17577
1786.59	5.60496
1788.1	6.38609
1789.6	6.22732
1791.11	6.75171
1792.61	6.10172
1794.12	4.83403
1795.62	4.5533
1797.13	3.85612
1798.63	3.53168
1800.13	3.23364
1801.64	2.8862
1803.14	2.05222
1804.64	1.69369
1806.15	1.29952
1807.65	0.184946
1809.15	0.53503
1810.65	0.060492
1812.15	-0.439883
1813.65	-0.0480597
1815.16	-0.201315
1816.66	0.175343
1818.15	-0.206383
1819.66	0.147514
1821.16	0.45302
1822.65	0.32603
1824.15	-0.683969
1825.65	-1.9294
1827.15	-1.95239
1828.65	-0.741209
1830.15	0.804959
1831.64	1.94586
1833.14	2.72794
1834.64	3.24609
1836.14	3.99473
1837.63	4.53362
1839.13	5.30253
1840.62	6.49219
1842.12	8.16171
1843.62	9.47791
1845.11	10.3492
1846.61	11.0988
1848.1	11.3284
1849.6	11.583
1851.09	11.5435
1852.58	12.8113
1854.08	12.9497
1855.57	14.5082
1857.06	14.5343
1858.55	15.2698
1860.05	15.192
1861.54	15.0768
1863.03	16.7089
1864.52	16.8493
1866.01	17.7842
1867.5	17.1134
1869	16.4532
1870.49	16.3697
1871.98	16.5506
1873.47	16.3018
1874.96	16.4509
1876.44	16.2904
1877.93	15.8148
1879.42	15.8112
1880.91	15.1922
1882.4	14.7086
1882.47	14.5006
1883.96	13.8626
1885.46	13.4154
1886.95	13.0611
1888.44	13.0363
1889.94	12.3774
1891.43	10.3254
1892.93	9.3413
1894.42	8.29009
1895.91	7.30533
1897.4	6.21471
1898.89	6.6424
1900.39	7.24027
1901.88	7.76571
1903.37	8.16515
1904.86	7.64758
1906.35	7.54677
1907.84	7.92494
1909.33	8.44102
1910.82	8.80128
1912.31	9.00629
1913.8	8.50987
1915.29	9.01844
1916.77	8.385
1918.26	7.68938
1919.75	6.78488
1921.24	5.7478
1922.73	5.36448
1924.21	5.02359
1925.7	5.63089
1927.19	5.59958
1928.67	4.38383
1930.16	3.39749
1931.64	3.1942
1933.13	3.37381
1934.61	3.90828
1936.1	3.65101
1937.58	3.61309
1939.07	3.01369
1940.55	1.65414
1942.04	0.881045
1943.52	1.22028
1945	1.06107
1946.49	0.750805
1947.97	1.0435
1949.45	0.809431
1950.93	1.16543
1952.42	2.00076
1953.9	2.75856
1955.38	3.23673
1956.86	2.13603
1958.34	2.14889
1959.82	2.05186
1961.3	1.69594
1962.78	2.48153
1964.26	2.1133
1965.74	2.17554
1967.22	4.40636
1968.7	3.44778
1970.18	3.00301
1971.65	3.30538
1973.13	4.54206
1974.61	5.31659
1976.09	6.78603
1977.57	6.77747
1979.04	7.65757
1980.52	8.27212
1982	7.98674
1983.47	8.13217
1984.95	9.00706
1986.42	8.79653
1987.9	8.93992
1989.37	9.83361
1990.85	9.61972
1992.32	10.0843
1993.8	10.4078
1995.27	12.8641
1996.75	14.4577
1998.22	14.3281
1999.69	14.3399
2001.17	14.2404
2002.64	13.6442
2004.11	14.2599
2005.58	14.3365
2007.05	14.5453
2008.53	14.4291
2010	13.8406
2011.47	14.4502
2012.94	13.1704
2014.41	13.5038
2015.88	12.6999
2017.35	13.4222
2018.82	12.3861
2020.29	12.7339
2021.76	13.3561
2023.23	13.1096
2024.7	13.8981
2026.16	13.6207
2027.63	13.7393
2029.1	13.7199
2030.57	13.8202
2032.03	14.8348
2033.5	15.086
2034.97	15.3638
2036.44	15.9835
2037.9	16.249
2039.37	16.1985
2040.83	16.7877
2042.3	15.694
2043.76	17.5965
2045.23	19.1062
2046.69	19.7087
2048.16	20.4623
2049.62	20.8166
2051.08	21.6884
2052.55	22.3161
2054.01	22.5118
2055.47	23.5438
2056.94	24.4479
2058.4	25.546
2059.86	26.7063
2061.32	28.6796
2062.79	30.7607
2064.25	31.2435
2065.71	32.6849
2067.17	34.1467
2068.63	35.7366
2070.09	35.0862
2071.55	35.4207
2073.01	36.4134
2074.47	37.8913
2075.93	38.7826
2077.39	39.3137
2078.85	39.9173
2080.31	41.5957
2081.76	42.9383
2083.22	43.1435
2084.68	43.972
2086.13	43.5846
2087.59	44.9963
2089.05	45.4397
2090.51	47.8627
2091.96	48.3772
2093.42	50.7887
2094.87	51.9173
2096.33	53.2596
2097.78	55.1704
2099.24	56.2736
2100.69	58.2725
2102.15	58.746
2103.6	59.8298
2105.06	61.0812
2106.51	62.9538
2107.96	65.0672
2109.42	67.6888
2110.87	70.4873
2112.32	71.9373
2113.77	74.7558
2115.23	76.9985
2116.68	80.1476
2118.13	82.8681
2119.58	84.9432
2121.03	88.4226
2122.48	90.6602
2123.93	93.4678
2125.38	96.7166
2126.83	100.675
2128.28	102.906
2129.73	106.467
2131.18	109.987
2132.63	114.24
2134.08	117.368
2135.53	121.199
2136.97	124.707
2138.42	129.707
2139.87	133.595
2141.32	137.467
2142.76	140.452
2144.21	144.89
2145.66	148.14
2147.1	151.086
2148.55	154.219
2150	157.961
2151.44	162.294
2152.89	165.298
2154.33	168.352
2155.78	170.96
2157.22	173.823
2158.66	176.351
2160.11	179.477
2161.55	182.205
2163	184.688
2164.44	185.693
2165.88	187.326
2167.32	188.555
2168.77	191.288
2170.21	191.31
2171.65	191.184
2173.09	191.123
2174.53	191.234
2175.97	192.189
2177.41	191.748
2178.85	190.528
2180.29	188.184
2181.73	186.394
2183.17	184.308
2184.61	182.545
2186.05	180.684
2187.49	178.474
2188.93	176.897
2190.37	173.661
2191.81	171.412
2193.24	168.247
2194.68	165.424
2196.12	162.898
2197.56	159.362
2198.99	154.76
2200.43	150.757
2201.87	148.736
2203.3	144.657
2204.74	142.945
2206.17	138.937
2207.61	135.594
2209.04	131.524
2210.48	128.285
2211.91	124.295
2213.35	120.354
2214.78	117.105
2216.21	114.062
2217.65	109.774
2219.08	106.453
2220.51	104.215
2221.95	100.248
2223.38	96.1474
2224.81	92.3927
2226.24	88.9677
2227.67	85.6387
2229.1	82.8224
2230.54	80.7811
2231.97	77.3828
2233.4	74.9748
2234.83	72.0893
2236.26	69.3193
2237.69	66.7597
2239.11	64.1842
2240.54	61.6179
2241.97	57.8378
2243.4	56.8333
2244.83	54.1734
2246.26	52.1863
2247.69	49.204
2249.11	46.2115
2250.54	44.4067
2251.97	42.4587
2253.4	42.8339
2254.82	42.2911
2256.25	41.1706
2257.67	39.2214
2259.1	38.1334
2260.53	37.2317
2261.95	35.6322
2263.38	35.9756
2264.8	34.3033
2266.23	34.4871
2267.65	33.4964
2269.07	32.7994
2270.5	33.2399
2271.92	33.6557
2273.34	34.1308
2274.77	32.1798
2276.19	31.7457
2277.61	29.2316
2279.03	28.736
2280.46	28.7819
2281.88	28.6726
2283.3	26.9142
2284.72	26.8976
2286.14	26.2572
2287.56	25.243
2288.98	24.1957
2290.4	22.8525
2291.82	21.5039
2293.24	19.9983
2294.66	18.8765
2296.08	19.3969
2297.5	18.6999
2298.92	20.1621
2300.34	19.5698
2301.76	19.2572
2303.17	18.1598
2304.59	18.2177
2306.01	17.636
2307.43	16.578
2308.84	15.555
2310.26	14.7825
2311.68	14.9264
2313.09	14.4274
2314.51	14.6396
2315.92	13.0353
2317.34	13.1853
2318.75	12.6086
2320.17	13.3733
2321.58	14.0889
2323	13.7843
2324.41	14.4026
2325.82	13.6003
2327.24	13.7033
2328.65	13.6011
2330.06	14.1245
2331.48	14.6385
2332.89	14.9358
2334.3	15.2515
2335.71	14.9902
2337.12	14.4236
2338.54	14.724
2339.95	14.4652
2341.36	12.7359
2342.77	11.2545
2344.18	10.3234
2345.59	8.82917
2347	9.37256
2348.41	8.27849
2349.82	8.78879
2351.23	8.73466
2352.64	8.32016
2354.04	7.75984
2355.45	7.91293
2356.86	6.89215
2358.27	6.1821
2359.68	4.94397
2361.08	4.782
2362.49	4.36813
2363.9	4.92207
2365.3	4.76897
2366.71	5.60694
2368.12	5.82626
2369.52	5.83865
2370.93	4.62535
2372.33	5.45788
2373.74	4.14676
2375.14	3.69843
2376.55	2.86273
2377.95	1.74685
2379.36	1.80741
2380.76	1.78281
2382.16	1.66323
2383.57	1.42656
2384.97	1.31168
2386.37	1.40594
2387.78	2.6832
2389.18	3.5407
2390.58	3.56257
2391.98	3.69398
2393.38	4.08028
2394.79	4.74457
2396.19	5.11407
2397.59	5.7596
2398.99	5.2811
2400.39	6.1103
2401.79	6.30508
2403.19	6.47298
2404.59	6.53958
2405.99	6.59022
2407.39	5.81913
2408.78	6.17398
2410.18	6.10571
2411.58	5.96616
2412.98	7.26333
2414.38	7.96289
2415.77	7.05456
2417.17	7.50045
2418.57	7.48549
2419.97	8.05847
2421.36	7.89714
2422.76	8.71855
2424.15	8.31501
2425.55	8.29768
2426.95	8.57883
2428.34	8.65922
2429.74	9.6278
2431.13	9.64917
2432.52	8.7748
2433.92	9.59679
2435.31	9.16626
2436.71	9.58731
2438.1	10.3914
2439.49	9.64403
2440.89	8.84047
2442.28	7.84125
2443.67	6.64338
2445.06	6.34388
2446.46	5.04129
2447.85	4.42024
2449.24	4.6833
2450.63	4.35072
2452.02	3.62708
2453.41	3.95177
2454.8	3.92188
2456.19	3.62142
2457.58	3.69428
2458.97	3.34401
2460.36	2.59261
2461.75	2.32262
2463.14	1.73139
2464.53	1.63439
2465.92	1.74387
2467.31	1.32479
2468.69	0.45062
2470.08	0.895075
2471.47	0.739731
2472.86	0.460057
2474.24	0.806089
2475.63	0.959487
2477.02	0.560828
2478.4	0.562067
2479.79	1.0947
2481.17	1.16088
2482.56	0.881494
2483.94	-0.0217206
2485.33	0.0238392
2486.72	0.981073
2488.1	1.67663
2489.48	1.57641
2490.87	1.82235
2492.25	2.74866
2493.64	2.0125
2495.02	3.06695
2496.4	3.5179
2497.79	4.04605
2499.17	3.61587
2500.55	3.0111
2501.93	4.26161
2503.31	4.84091
2504.69	4.40988
2506.08	4.46644
2507.46	3.58019
2508.84	3.27974
2510.22	3.21011
2511.6	2.67043
2512.98	2.94229
2514.36	2.468
2515.74	2.09595
2517.12	2.72278
2518.5	3.38599
2519.88	2.81409
2521.25	2.66978
2522.63	2.50798
2524.01	2.07527
2525.39	1.66778
2526.77	1.84711
2528.14	1.37066
2529.52	0.486285
2530.9	0.336378
2532.27	1.55703
2533.65	2.45591
2535.03	1.88181
2536.4	1.45422
2537.78	2.29584
2539.15	3.38969
2540.53	3.38897
2541.9	3.61137
2543.28	4.56853
2544.65	4.83983
2546.03	5.17676
2547.4	6.33084
2548.77	7.33206
2550.15	7.41372
2551.52	7.43246
2552.89	8.6179
2554.27	10.1738
2555.64	10.6835
2557.01	11.3886
2558.38	12.0094
2559.75	13.0163
2561.12	13.8631
2562.5	14.7226
2563.87	15.2417
2565.24	14.8133
2566.61	15.7819
2567.98	16.0595
2569.35	16.5006
2570.72	17.2206
2572.09	16.9173
2573.46	16.7654
2574.83	17.1302
2576.19	17.3038
2577.56	17.7304
2578.93	17.0986
2580.3	16.0987
2581.67	16.371
2583.04	16.9384
2584.4	17.229
2585.77	17.1296
2587.14	16.3671
2588.5	14.8709
2589.87	14.0191
2591.23	12.571
2592.6	12.5071
2593.97	11.4349
2595.33	11.0328
2596.7	11.3933
2598.06	10.5505
2599.43	10.1591
2600.79	10.1906
2602.15	9.271
2603.52	8.51574
2604.88	9.26417
2606.25	9.04345
2607.61	9.0441
2608.97	8.5523
2610.33	8.46689
2611.7	8.68989
2613.06	8.42528
2614.42	8.16569
2615.78	7.78958
2617.15	7.42795
2618.51	7.05825
2619.87	7.49839
2621.23	7.51547
2622.59	7.78074
2623.95	7.59291
2625.31	8.14269
2626.67	7.73529
2628.03	7.75145
2629.39	7.80317
2630.75	7.43164
2632.1	6.97958
2633.46	8.80635
2634.82	9.95374
2636.18	9.61612
2637.54	9.4493
2638.89	10.623
2640.25	11.4033
2641.61	11.6539
2642.97	12.9701
2644.32	13.0639
2645.68	12.6133
2647.03	13.1681
2648.39	12.9851
2649.75	13.2072
2651.1	13.3331
2652.46	13.1375
2653.81	12.5343
2655.17	13.4102
2656.52	14.156
2657.88	14.9262
2659.23	15.8262
2660.58	16.3893
2661.94	15.869
2663.29	16.2973
2664.64	16.3529
2666	15.9659
2667.35	16.2816
2668.7	16.3643
2670.05	15.2685
2671.4	15.685
2672.76	15.5302
2674.11	14.9004
2675.46	15.3527
2676.81	14.1955
2678.16	13.9119
2679.51	14.383
2680.86	13.6028
2682.21	13.3103
2683.56	13.2648
2684.91	13.3338
2686.26	13.0938
2687.61	12.6781
2688.96	12.6821
2690.3	13.1144
2691.65	13.3717
2693	12.4867
2694.35	12.8535
2695.7	13.1357
2697.04	13.0109
2698.39	13.625
2699.74	14.6354
2701.08	15.392
2702.43	15.197
2703.77	15.9399
2705.12	16.776
2706.47	17.9817
2707.81	17.9227
2709.16	18.188
2710.5	18.3017
2711.85	17.5097
2713.19	18.5206
2714.53	19.4156
2715.88	19.8724
2717.22	20.7425
2718.57	21.7582
2719.91	22.4551
2721.25	23.7282
2722.59	24.653
2723.94	23.629
2725.28	23.2118
2726.62	22.1845
2727.96	21.7776
2729.3	21.4196
2730.65	21.2942
2731.99	20.778
2733.33	19.8867
2734.67	18.3562
2736.01	17.5861
2737.35	17.0527
2738.69	17.1013
2740.03	16.3355
2741.37	15.2896
2742.71	14.3968
2744.05	13.3384
2745.38	12.3709
2746.72	12.5975
2748.06	11.3625
2749.4	10.9419
2750.74	10.7311
2752.07	10.8133
2753.41	9.88263
2754.75	9.1525
2756.09	9.09086
2757.42	7.86662
2758.76	7.53585
2760.09	6.99882
2761.43	7.18776
2762.77	6.64676
2764.1	6.02081
2765.44	6.03858
2766.77	5.87206
2768.11	5.65328
2769.44	6.00527
2770.77	5.54262
2772.11	4.95901
2773.44	4.54271
2774.77	3.70874
2776.11	3.82976
2777.44	3.38114
2778.77	3.10892
2780.11	3.48153
2781.44	2.89882
2782.77	2.73149
2784.1	2.01286
2785.43	1.98498
2786.77	1.36059
2788.1	2.00542
2789.43	1.3166
2790.76	0.896631
2792.09	0.986683
2793.42	0.833453
2794.75	1.32333
2796.08	0.453836
2797.41	-0.0788271
2798.74	-0.648681
2800.07	-0.0964443
2801.4	-0.159454
2802.72	0.986674
2804.05	1.10434
2805.38	0.942965
2806.71	0.913409
2808.04	0.64514
2809.36	0.348856
2810.69	0.6054
2812.02	0.0170892
2813.34	1.44445
2814.67	0.913017
2816	1.46344
2817.32	3.2562
2818.65	4.71195
2819.97	6.53723
2821.3	9.67998
2822.62	13.2717
2823.95	17.1303
2825.27	22.1134
2826.6	28.0413
2827.92	33.9408
2829.25	39.3101
2830.57	45.4795
2831.89	51.5065
2833.22	58.045
2834.54	65.1152
2835.86	72.6941
2837.18	80.1181
2838.51	87.8814
2839.83	96.4204
2841.15	105.556
2842.47	114.919
2843.79	124.592
2845.11	134.825
2846.43	145.386
2847.76	155.711
2849.08	165.642
2850.4	176.924
2851.72	189.177
2853.04	200.757
2854.36	212.301
2855.67	222.826
2856.99	233.818
2858.31	244.534
2859.63	255.392
2860.95	265.489
2862.27	274.605
2863.58	283.83
2864.9	292.82
2866.22	301.685
2867.54	308.897
2868.85	316.568
2870.17	324.059
2871.49	330.519
2872.8	337.594
2874.12	343.44
2875.43	349.957
2876.75	356.297
2878.07	361.625
2879.38	367.318
2880.7	373.849
2882.01	380.668
2883.32	388.272
2884.64	394.827
2885.95	402.298
2887.27	409.76
2888.58	417.46
2889.89	426.24
2891.21	434.422
2892.52	443.173
2893.83	452.132
2895.14	460.293
2896.46	468.861
2897.77	478.946
2899.08	488.994
2900.39	501.066
2901.7	511.679
2903.01	523.586
2904.32	535.76
2905.63	549.737
2906.94	562.762
2908.25	577.589
2909.56	592.776
2910.87	606.591
2912.18	620.943
2913.49	635.899
2914.8	650.68
2916.11	666.271
2917.42	678.39
2918.72	691.267
2920.03	701.572
2921.34	712.281
2922.65	721.428
2923.95	728.929
2925.26	734.997
2926.57	739.746
2927.88	742.779
2929.18	745.324
2930.49	746.623
2931.79	746.391
2933.1	744.961
2934.4	742.311
2935.71	738.495
2937.01	732.73
2938.32	726.162
2939.62	717.669
2940.93	708.841
2942.23	696.668
2943.54	685.437
2944.84	673.469
2946.14	661.205
2947.45	646.469
2948.75	631.888
2950.05	616.593
2951.35	601.738
2952.66	586.433
2953.96	570.672
2955.26	554.509
2956.56	537.253
2957.86	521.934
2959.16	505.961
2960.46	489.656
2961.77	473.444
2963.07	459.391
2964.37	443.726
2965.66	430.566
2966.96	416.065
2968.26	403.436
2969.56	391.633
2970.86	380.307
2972.16	368.303
2973.46	358.004
2974.76	346.492
2976.06	335.285
2977.35	325.245
2978.65	313.711
2979.95	301.79
2981.25	290.63
2982.54	278.767
2983.84	268.098
2985.14	255.963
2986.43	245.132
2987.73	233.864
2989.02	223.13
2990.32	212.376
2991.62	201.619
2992.91	191.138
2994.21	181.629
2995.5	171.63
2996.8	161.792
2998.09	152.32
2999.38	143.226
3000.68	134.068
3001.97	125.705
3003.26	115.764
3004.56	107.498
3005.85	99.3013
3007.14	90.3919
3008.43	83.3619
3009.73	75.7941
3011.02	68.7997
3012.31	62.2389
3013.6	56.2888
3014.89	50.2897
3016.19	44.6698
3017.48	39.0007
3018.77	33.9459
3020.06	28.9575
3021.35	25.403
3022.64	22.6518
3023.93	18.3658
3025.22	15.0529
3026.5	11.5694
3027.79	9.75557
3029.08	7.86875
3030.37	5.39929
3031.66	5.06264
3032.95	5.02582
3034.24	5.03552
3035.52	4.24381
3036.81	4.01458
3038.1	4.19784
3039.39	3.51635
3040.67	3.15898
3041.96	2.43685
3043.25	1.67644
3044.53	2.50212
3045.82	2.68656
3047.1	2.36881
3048.39	2.66003
3049.67	4.3245
3050.96	5.52847
3052.24	6.20873
3053.53	6.72718
3054.81	7.20137
3056.1	7.14296
3057.38	7.72904
3058.67	8.13078
3059.95	7.78908
3061.23	8.43857
3062.52	8.44605
3063.8	8.30336
3065.08	7.9729
3066.36	8.46093
3067.65	8.08967
3068.93	8.5591
3070.21	7.81458
3071.49	7.43247
3072.77	7.72074
3074.05	7.22297
3075.33	6.79026
3076.61	6.12192
3077.89	5.04637
3079.17	4.7625
3080.45	3.84356
3081.73	3.01592
3083.01	2.14751
3084.29	1.3733
3085.57	0.776806
3086.85	0.247341
3088.13	-1.04063
3089.41	-0.909051
3090.68	-0.505291
3091.96	-0.922542
3093.24	-1.38668
3094.52	-1.52291
3095.79	0.246665
3097.07	0.339081
3098.35	0.67075
3099.62	0.786552
3100.9	2.11853
3102.18	2.92657
3103.45	3.33492
3104.73	4.19425
3106	4.28858
3107.28	5.0047
3108.55	5.93025
3109.83	6.32444
3111.1	7.00527
3112.38	8.89918
3113.65	10.9471
3114.93	12.0272
3116.2	12.8625
3117.47	14.3615
3118.75	15.6923
3120.02	16.975
3121.29	18.9839
3122.57	20.5315
3123.84	22.4302
3125.11	24.6901
3126.38	26.0156
3127.65	28.3561
3128.92	31.0603
3130.2	33.3826
3131.47	35.5084
3132.74	37.5861
3134.01	39.9406
3135.28	42.6173
3136.55	44.4412
3137.82	46.4994
3139.09	48.9043
3140.36	50.679
3141.63	52.4616
3142.9	54.5751
3144.17	56.6951
3145.43	59.1371
3146.7	61.721
3147.97	64.1047
3149.24	67.3755
