#Acq. time (s)=	45
#Accumulations=	2
#Range (cm-¹)=	200...3150
#Windows=	2
#Auto scanning=	Off
#Autofocus=	Off
#Macrospot=	Off
#AutoExposure=	Off
#Spike filter=	Multiple accum.
#Delay time (s)=	0
#Binning=	1
#Readout mode=	Signal
#DeNoise=	Off
#ICS correction=	On
#Dark correction=	Off
#Inst. Process=	Off
#Detector Gain=	Best Dynamic Range
#Detector ADC=	20 kHz       
#Detector temperature (°C)=	-69.85
#Instrument=	LabRAM HR Evol
#Detector=	Synapse
#Objective=	x100
#Grating=	600 gr/mm
#ND Filter=	100%
#Laser (nm)=	532 
#Hole=	100.021
#Range=	Auto
#Laser Pol.=	No
#Raman. Pol.=	No
#Laser Pol. (°)=	-0.0007625
#Raman Pol. (°)=	89.9995
#Collection=	Microscope
#StageXY=	Marzhauser
#StageZ=	Marzhauser
#X (µm)=	-1016.1
#Y (µm)=	639.3
#Z (µm)=	583.85
#Full time(mm:ss)=	3:19
#Project=	
#Sample=	
#Site=	
#Title=	Mb_40_y_23_2x_45s_532 nm_x100_100%_600 gr_mm
#Remark=	
#Date=	19.07.2022 10:53
#Acquired=	19.07.2022 10:53:29
#Base:Fit=	10.08.2022 10:52:48
#Base:Sub=	10.08.2022 10:52:53
#Filter:Polynom=	16.08.2022 10:09:04
#AxisType[0]=Intens
#AxisUnit[0]=Cnt
#AxisType[1]=Spectr
#AxisUnit[1]=1/cm
200.423	11.4552
202.238	13.1424
204.052	15.8911
205.868	17.0131
207.682	17.8001
209.495	18.3494
211.308	18.7221
213.12	18.9814
214.935	18.4077
216.746	17.7795
218.558	16.3731
220.369	15.7017
222.18	14.3473
223.992	13.5629
225.802	12.901
227.612	12.6127
229.421	11.3136
231.23	10.0115
233.039	9.08471
234.849	9.60828
236.657	10.2982
238.465	10.5385
240.272	10.8042
242.079	10.9328
243.885	10.7276
245.691	10.0243
247.497	9.73773
249.305	9.62688
251.11	8.82458
252.915	9.08975
254.719	8.50189
256.523	6.46589
258.327	5.75407
260.13	5.22109
261.933	4.60848
263.736	4.37917
265.538	5.04551
267.34	4.78906
269.141	5.36196
270.943	5.09129
272.744	5.2708
274.544	6.33056
276.344	6.39754
278.144	7.01368
279.944	7.45829
281.743	7.16726
283.542	7.36101
285.34	7.79378
287.138	7.94195
288.936	7.49775
290.733	8.26611
292.53	8.30914
294.327	7.41343
296.123	7.61974
297.919	7.6745
299.715	7.64132
301.508	7.09435
303.303	6.73219
305.098	6.08798
306.892	6.15891
308.686	5.936
310.479	6.32979
312.273	5.81061
314.065	5.7398
315.858	6.17878
317.648	5.55193
319.44	5.54188
321.231	5.474
323.022	6.78915
324.813	7.48262
326.604	7.24033
328.392	6.84723
330.181	6.49337
331.971	6.4468
333.76	5.45241
335.548	5.57926
337.335	4.9228
339.123	4.75459
340.91	4.4756
342.698	3.8523
344.483	3.40693
346.269	2.8259
348.055	2.62016
349.841	2.41311
351.625	1.78853
353.41	1.94608
355.195	3.04555
356.977	3.12697
358.762	3.17028
360.545	1.92094
362.329	2.39064
364.11	1.24772
365.893	0.750173
367.675	0.888684
369.455	0.479126
371.237	0.99173
373.017	1.48621
374.798	1.75994
376.578	2.22718
378.357	2.52474
380.137	2.41745
381.917	2.56499
383.694	3.14985
385.473	3.6641
387.249	4.38738
389.028	4.22797
390.806	4.49663
392.581	4.62834
394.359	5.05892
396.134	5.43274
397.91	5.22512
399.684	6.08131
401.46	6.64137
403.234	6.95453
405.009	7.52093
406.784	7.28085
408.557	8.76297
410.331	8.91542
412.103	9.73381
413.876	10.1429
415.647	10.9531
417.42	11.6714
419.191	11.7687
420.961	11.7708
422.733	11.5158
424.502	12.4165
426.273	12.6285
428.042	13.1036
429.812	13.6733
431.58	13.0064
433.35	12.9523
435.118	12.3446
436.885	12.2182
438.653	11.875
440.42	11.353
442.188	11.2807
443.954	11.3854
445.719	10.7896
447.486	9.58353
449.251	9.21856
451.015	8.01988
452.781	7.65315
454.545	8.53306
456.308	8.36673
458.073	7.75853
459.836	7.88028
461.598	7.9006
463.362	7.76399
465.124	8.65903
466.885	8.40939
468.648	7.78673
470.408	8.49556
472.169	8.27563
473.929	7.95135
475.69	8.10921
477.45	8.43184
479.208	9.79182
480.967	9.68918
482.727	10.7077
484.485	11.8474
486.243	12.6372
488	14.4264
489.759	14.7873
491.515	15.5281
493.272	16.4765
495.028	18.141
496.783	19.2108
498.54	19.2356
500.295	19.9799
502.05	21.0361
503.804	21.2676
505.558	21.5152
507.311	21.749
509.064	21.8221
510.819	23.0487
512.572	24.0068
514.324	24.1708
516.076	23.9043
517.827	25.3241
519.578	25.0488
521.329	24.4299
523.08	23.9786
524.83	23.7011
526.58	23.8502
528.329	23.1274
530.08	23.2065
531.829	22.5332
533.578	21.5185
535.326	20.3716
537.074	19.504
538.821	17.8115
540.568	16.8826
542.315	15.972
544.062	15.2611
545.808	13.6067
547.554	13.4214
549.299	12.8921
551.044	11.9138
552.789	11.0743
554.533	9.29536
556.278	8.63832
558.019	7.69915
559.763	5.8897
561.506	5.00288
563.249	4.86864
564.991	5.13024
566.733	4.35234
568.475	4.16108
570.217	4.54022
571.958	3.76749
573.699	3.20072
575.439	3.02934
577.177	2.14424
578.917	1.99718
580.656	1.49535
582.396	1.29356
584.134	0.24063
585.873	-0.554632
587.609	0.246561
589.347	0.693331
591.084	1.21106
592.822	2.01646
594.558	2.14589
596.295	2.38679
598.029	3.45966
599.765	3.51758
601.5	3.69165
603.235	4.83258
604.968	5.11588
606.703	4.97798
608.437	4.85493
610.171	6.37817
611.902	7.85691
613.635	8.41097
615.368	8.41857
617.099	9.28625
618.831	8.05877
620.563	8.01776
622.294	8.74952
624.024	8.81921
625.755	9.23272
627.485	9.15965
629.213	9.82199
630.943	9.76927
632.673	10.1204
634.4	10.8462
636.129	10.6303
637.855	9.95947
639.584	10.4569
641.312	11.2269
643.037	12.1273
644.764	12.4103
646.491	13.2621
648.216	15.0825
649.942	16.2574
651.666	16.7103
653.392	17.1649
655.115	17.7607
656.84	17.0107
658.563	17.0649
660.287	18.3302
662.011	18.1966
663.732	17.4922
665.456	18.0072
667.177	18.8219
668.899	19.0546
670.62	20.2282
672.342	20.7438
674.061	22.3763
675.781	23.0975
677.502	23.1345
679.22	23.8983
680.941	23.5311
682.659	24.3114
684.379	25.5371
686.096	27.2754
687.815	29.231
689.532	30.4009
691.248	31.2743
692.966	32.5663
694.682	33.5755
696.4	35.3042
698.115	35.2868
699.829	36.4721
701.546	37.3496
703.26	37.178
704.974	37.939
706.689	39.2621
708.402	39.9503
710.115	40.3784
711.83	40.981
713.542	41.4631
715.254	42.9719
716.967	44.8934
718.679	46.7308
720.39	47.8316
722.102	48.3073
723.812	48.8177
725.522	50.8495
727.232	51.1318
728.943	52.1673
730.652	52.8283
732.361	52.9173
734.069	52.9655
735.779	53.4647
737.487	54.0303
739.194	54.3866
740.901	54.753
742.608	54.7663
744.316	55.2759
746.022	55.4535
747.728	55.6077
749.433	56.6226
751.138	58.7541
752.843	59.55
754.549	59.6747
756.254	60.4266
757.957	61.3079
759.661	62.3529
761.364	62.5273
763.067	63.1632
764.769	64.7326
766.471	65.533
768.175	67.3877
769.877	68.5133
771.578	70.0443
773.279	70.892
774.98	71.0207
776.68	71.9265
778.38	72.6572
780.079	73.6642
781.779	74.9451
783.478	75.0856
785.176	76.7588
786.875	76.4676
788.573	75.9686
790.27	77.316
791.968	77.4567
793.665	78.7969
795.361	80.199
797.058	81.3796
798.754	81.6111
800.45	82.2229
802.145	82.501
803.84	82.0427
805.535	81.1001
807.23	80.0204
808.922	80.0157
810.616	79.589
812.309	79.4916
814.002	79.7263
815.695	79.9702
817.388	79.1167
819.08	79.0212
820.772	79.0987
822.464	78.3883
824.153	77.7253
825.844	76.2622
827.535	75.1823
829.225	74.9589
830.915	73.9642
832.605	73.8476
834.292	73.6959
835.981	73.5773
837.67	72.8852
839.359	72.4643
841.047	72.3058
842.732	71.4546
844.42	69.5763
846.107	68.212
847.794	68.416
849.479	67.785
851.165	66.1447
852.851	65.7233
854.534	64.8978
856.22	64.3926
857.905	63.657
859.589	62.4596
861.272	61.8051
862.956	61.5648
864.639	60.8876
866.321	60.0727
868.004	58.6335
869.687	57.9376
871.367	57.2345
873.049	56.5049
874.731	56.5286
876.41	55.5223
878.092	54.6026
879.771	53.5215
881.451	52.5193
883.131	51.706
884.809	51.5415
886.489	51.3501
888.166	50.55
889.845	49.1645
891.522	49.2942
893.2	48.8031
894.878	48.0221
896.554	48.2096
898.231	47.7718
899.906	46.8081
901.583	46.0853
903.258	46.0914
904.934	45.1099
906.608	44.7708
908.283	44.0576
909.956	43.7021
911.631	44.0423
913.304	43.7791
914.976	44.3642
916.65	44.9083
918.322	45.4492
919.995	44.7877
921.666	44.5896
923.339	43.5559
925.009	43.8942
926.679	43.2366
928.351	43.369
930.021	43.3644
931.692	44.5468
933.361	44.4059
935.029	44.6502
936.699	45.8088
938.367	45.6119
940.035	45.42
941.704	44.7644
943.371	43.852
945.038	43.9531
946.706	43.9607
948.372	43.16
950.038	43.1458
951.705	42.8736
953.37	43.0023
955.035	42.2079
956.7	41.0961
958.366	40.3818
960.03	39.4364
961.693	39.2565
963.357	38.8639
965.021	38.6172
966.684	39.0119
968.346	37.9835
970.008	36.9153
971.67	36.3104
973.334	35.5861
974.995	36.582
976.655	35.6296
978.316	35.0298
979.976	34.4203
981.638	33.9331
983.297	33.5515
984.957	33.2814
986.616	31.7779
988.274	30.3588
989.932	31.0045
991.59	29.981
993.248	29.4597
994.907	27.3907
996.565	26.2833
998.221	24.743
999.878	21.6592
1001.53	19.5204
1003.19	17.1214
1004.85	16.0593
1006.5	16.8768
1008.16	19.7965
1009.81	22.6348
1011.46	28.2858
1013.12	35.7681
1014.77	44.1328
1016.43	52.485
1018.08	61.5318
1019.73	70.1758
1021.38	78.8661
1023.04	86.8583
1024.69	94.5534
1026.34	102.701
1027.99	110.346
1029.64	117.002
1031.29	122.922
1032.94	129.113
1034.59	133.242
1036.24	137.326
1037.89	139.81
1039.54	143.471
1041.19	145.01
1042.84	146.904
1044.48	147.635
1046.13	148.49
1047.78	148.834
1049.42	148.661
1051.07	145.539
1052.72	143.547
1054.36	140.436
1056.01	136.407
1057.66	132.257
1059.3	126.003
1060.94	120.444
1062.59	114.109
1064.23	108.503
1065.88	102.797
1067.52	94.6073
1069.16	86.4776
1070.81	78.0199
1072.45	68.9309
1074.09	58.4634
1075.73	48.7757
1077.38	39.3011
1079.02	31.1304
1080.66	23.2535
1082.3	16.2039
1083.94	10.8274
1085.58	7.05508
1087.22	5.58402
1088.86	5.71005
1090.5	6.03775
1092.13	7.89865
1093.77	11.2015
1095.41	13.4486
1097.05	14.6446
1098.68	16.136
1100.32	17.1633
1101.96	18.2332
1103.6	18.8777
1105.23	19.206
1106.87	19.3498
1108.5	19.44
1110.14	19.9085
1111.77	20.1187
1113.41	20.4887
1115.04	21.6563
1116.67	20.9563
1118.31	21.366
1119.94	21.3155
1121.58	21.5067
1123.21	21.1138
1124.84	21.3484
1126.47	21.1454
1128.1	21.9221
1129.73	21.4555
1131.37	20.7979
1133	20.344
1134.63	20.0877
1136.26	19.073
1137.89	19.709
1139.52	19.1045
1141.14	18.3645
1142.77	18.4964
1144.4	17.8852
1146.03	18.0958
1147.66	16.8733
1149.29	14.5091
1150.91	13.0939
1152.54	11.9
1154.17	10.3579
1155.79	9.53825
1157.42	8.27315
1159.04	7.61956
1160.67	5.90334
1162.3	4.3788
1163.92	3.14743
1165.55	2.40545
1167.17	2.22045
1168.79	2.68888
1170.42	1.81953
1172.04	1.73164
1173.66	2.2706
1175.28	1.63329
1176.91	0.588318
1178.53	0.672326
1180.15	0.910082
1181.77	1.39665
1183.39	1.43158
1185.01	2.00105
1186.63	1.61794
1188.25	0.698936
1189.87	1.01179
1191.49	2.03309
1193.11	2.09675
1194.73	2.74124
1196.35	3.0962
1197.97	2.72556
1199.59	4.07628
1201.2	4.29487
1202.82	5.17411
1204.44	6.50521
1206.05	7.1776
1207.67	8.49427
1209.29	9.47345
1210.9	9.52396
1212.52	9.9721
1214.13	11.1183
1215.75	10.7933
1217.36	12.2589
1218.97	13.2028
1220.59	13.5989
1222.2	14.7814
1223.82	16.1163
1225.43	16.5036
1227.04	17.4387
1228.65	18.24
1230.26	18.336
1231.88	19.4127
1233.49	20.2102
1235.1	21.1751
1236.71	22.2275
1238.32	23.4668
1239.93	25.5221
1241.54	26.6873
1243.15	27.369
1244.76	28.6877
1246.37	29.7465
1247.97	31.1392
1249.58	32.165
1251.19	32.0021
1252.8	32.9828
1254.41	33.2691
1256.01	34.0767
1257.62	35.6823
1259.23	36.9083
1260.83	37.5364
1262.44	37.9413
1264.04	38.5143
1265.65	39.5309
1267.25	39.4396
1268.86	40.7223
1270.46	41.5917
1272.07	41.859
1273.67	42.6123
1275.27	43.8936
1276.88	45.1374
1278.48	46.1502
1280.08	47.0559
1281.68	47.0536
1283.28	48.1884
1284.89	49.8637
1286.49	50.3726
1288.09	51.0601
1289.69	51.258
1291.29	50.6826
1292.89	51.4792
1294.49	52.079
1296.09	52.0316
1297.69	52.214
1299.29	51.7754
1300.88	52.4134
1302.48	52.195
1304.08	52.4863
1305.68	51.9804
1307.27	52.2388
1308.87	51.8908
1310.47	51.6829
1312.06	52.7797
1313.66	53.2242
1315.25	54.1083
1316.85	54.0554
1318.44	54.3319
1320.04	53.955
1321.63	53.3726
1323.23	52.8803
1324.82	53.2916
1326.41	53.7374
1328.01	53.7392
1329.6	52.7208
1331.19	51.4518
1332.78	50.7882
1334.38	50.7812
1335.97	51.248
1337.56	50.5857
1339.15	50.581
1340.74	49.3794
1342.33	49.0567
1343.92	48.9038
1345.51	49.3605
1347.1	48.7556
1348.69	47.8006
1350.28	46.5073
1351.87	46.6326
1353.46	46.0955
1355.04	45.4469
1356.63	44.4607
1358.22	44.1573
1359.81	43.4908
1361.39	43.3394
1362.98	43.6214
1364.57	42.6288
1366.15	39.9201
1367.74	38.1167
1369.32	37.0089
1370.91	35.6612
1372.49	35.4679
1374.07	34.2551
1375.66	32.7594
1377.24	32.1241
1378.83	31.6734
1380.41	30.5449
1381.99	28.7268
1383.57	28.3821
1385.16	27.9524
1386.74	28.1272
1388.32	27.8333
1389.9	28.3952
1391.48	29.0051
1393.06	28.4603
1394.64	27.4311
1396.22	27.5895
1397.8	28.2548
1399.38	28.7822
1400.96	29.385
1402.54	29.7355
1404.12	30.4748
1405.7	32.3672
1407.28	32.9021
1408.85	33.8189
1410.43	35.0781
1412.01	36.9877
1413.58	38.3281
1415.16	40.0785
1416.74	41.9759
1418.31	44.4466
1419.89	45.3957
1421.46	48.8599
1423.04	51.5394
1424.61	54.4361
1426.19	55.3921
1427.76	57.9643
1429.33	60.9308
1430.91	64.045
1432.48	66.8006
1434.05	69.3966
1435.63	71.9027
1437.2	73.5211
1438.77	74.3592
1440.34	76.2669
1441.91	76.8713
1443.49	77.5421
1445.05	78.7756
1446.63	80.6594
1448.2	81.2418
1449.77	81.4946
1451.34	80.8046
1452.91	80.5718
1454.47	80.7488
1456.04	80.4963
1457.61	79.5663
1459.18	78.9584
1460.75	79.5821
1462.31	79.7359
1463.88	79.4147
1465.45	78.3465
1467.01	76.6427
1468.58	75.7602
1470.15	74.8126
1471.71	73.0269
1473.28	71.7674
1474.84	70.5391
1476.41	69.0217
1477.97	67.3037
1479.54	64.8193
1481.1	62.8297
1482.66	61.5567
1484.23	60.6734
1485.79	58.8507
1487.35	57.1317
1488.91	54.7175
1490.48	53.1855
1492.04	51.302
1493.6	49.6808
1495.16	47.5963
1496.72	45.5526
1498.28	43.4217
1499.84	41.4912
1501.4	39.394
1502.96	37.1293
1504.52	35.4004
1506.08	34.6677
1507.64	33.3265
1509.2	30.9825
1510.76	28.9905
1512.31	26.6651
1513.87	25.066
1515.43	22.0971
1516.99	21.0626
1518.54	20.9143
1520.1	19.2245
1521.66	18.3729
1523.21	17.0498
1524.77	16.1708
1526.32	14.4703
1527.88	13.8984
1529.43	12.8741
1530.99	13.5123
1532.54	13.6531
1534.09	13.1904
1535.65	12.8132
1537.2	14.0746
1538.75	14.4225
1540.31	14.0644
1541.86	14.5076
1543.41	14.819
1544.96	15.5135
1546.51	16.6828
1548.06	16.9329
1549.62	17.2963
1551.17	18.179
1552.72	19.4523
1554.27	20.4271
1555.82	20.7565
1557.36	21.6602
1558.91	22.7901
1560.46	23.7571
1562.01	24.5863
1563.56	24.256
1565.11	24.6711
1566.66	25.0177
1568.2	25.6598
1569.75	26.0989
1571.3	26.0987
1572.84	26.878
1574.39	27.656
1575.93	28.9283
1577.48	29.7748
1579.02	31.6918
1580.57	32.4667
1582.11	33.9468
1583.66	33.9674
1585.2	34.2101
1586.75	35.0439
1588.29	36.0738
1589.83	36.5657
1591.38	36.7393
1592.92	37.3827
1594.46	38.8669
1596	39.7989
1597.54	39.4016
1599.09	40.0518
1600.63	40.4897
1602.17	40.7476
1603.71	40.5603
1605.25	40.5126
1606.79	40.8378
1608.33	41.0975
1609.87	41.0714
1611.41	40.5664
1612.95	40.3029
1614.48	40.6811
1616.02	40.4383
1617.56	40.8756
1619.1	40.8892
1620.64	41.8992
1622.17	42.0542
1623.71	42.9144
1625.25	42.7855
1626.78	43.8987
1628.32	44.5955
1629.86	44.6833
1631.39	44.5675
1632.92	46.6205
1634.46	47.6396
1635.99	47.6287
1637.53	48.8878
1639.06	50.5069
1640.59	51.5874
1642.13	53.1047
1643.66	53.5849
1645.19	54.411
1646.73	55.7001
1648.26	56.0598
1649.79	56.5958
1651.32	57.6466
1652.85	57.6088
1654.38	58.1539
1655.92	58.4234
1657.45	57.6685
1658.98	57.2526
1660.51	56.1375
1662.04	55.5849
1663.57	55.0323
1665.09	53.5431
1666.62	52.7747
1668.15	51.7868
1669.68	51.6433
1671.21	50.3456
1672.73	48.7271
1674.26	47.3077
1675.79	46.0992
1677.31	44.3923
1678.84	42.229
1680.37	40.0789
1681.89	38.3238
1683.42	36.7699
1684.94	34.5821
1686.47	32.531
1687.99	29.9365
1689.52	28.7878
1691.04	26.2558
1692.57	25.7914
1694.09	23.9124
1695.61	22.0229
1697.14	18.7262
1698.66	15.9954
1700.18	14.4711
1701.7	13.7274
1703.22	13.9706
1704.75	13.6974
1706.27	13.418
1707.79	13.8398
1709.31	13.8722
1710.83	13.0509
1712.35	12.5124
1713.87	13.221
1715.39	13.1046
1716.91	12.2313
1718.43	11.7623
1719.95	11.1684
1721.46	10.7084
1722.98	10.095
1724.5	9.27841
1726.02	9.47821
1727.53	9.90039
1729.05	9.70732
1730.57	10.4384
1732.08	9.97375
1733.6	9.71585
1735.12	9.39288
1736.63	9.22331
1738.15	8.97873
1739.66	8.85649
1741.18	8.55956
1742.69	8.5757
1744.21	9.02189
1745.72	9.44678
1747.23	8.41286
1748.74	8.47947
1750.26	8.68086
1751.77	8.5897
1753.28	7.74874
1754.8	6.90395
1756.31	6.52163
1757.82	6.37768
1759.33	5.49078
1760.84	4.44004
1762.35	3.97979
1763.86	3.58709
1765.37	3.43707
1766.88	1.60337
1768.39	1.62954
1769.9	0.157923
1771.41	-1.13437
1772.92	-1.73588
1774.43	-0.1623
1775.93	1.03939
1777.44	2.28471
1778.95	2.33801
1780.46	1.8851
1781.96	2.05821
1783.47	1.82288
1784.98	1.85372
1786.48	1.70957
1787.99	1.56867
1789.49	1.51916
1791	1.21863
1792.5	1.25371
1794.01	0.648236
1795.51	0.562706
1797.02	0.314732
1798.52	-0.0748547
1800.03	0.234753
1801.53	0.745491
1803.03	0.502734
1804.53	0.930777
1806.04	1.03232
1807.54	0.612965
1809.04	0.507363
1810.54	0.179672
1812.04	0.240928
1813.54	0.195306
1815.05	0.29795
1816.55	0.98347
1818.05	1.28404
1819.55	1.342
1821.05	1.26344
1822.55	0.831365
1824.05	0.899256
1825.54	0.792056
1827.04	0.490684
1828.54	0.10612
1830.04	0.71907
1831.54	1.1846
1833.03	1.29929
1834.53	1.44211
1836.03	2.44186
1837.52	3.46912
1839.02	3.41507
1840.52	3.20118
1842.01	3.17285
1843.51	3.58366
1845	3.64036
1846.5	3.71624
1847.99	4.4902
1849.49	4.70109
1850.98	4.34975
1852.47	4.89904
1853.97	5.10304
1855.46	5.17833
1856.95	5.49234
1858.45	5.12267
1859.94	5.47071
1861.43	5.53913
1862.92	6.38842
1864.41	5.75539
1865.91	5.34
1867.4	5.28499
1868.89	4.60405
1870.38	5.31245
1871.87	4.98942
1873.36	5.30705
1874.85	5.32864
1876.34	4.96255
1877.83	4.88381
1879.31	4.78062
1880.8	4.28825
1882.29	4.08514
1882.56	4.64635
1884.05	4.7167
1885.54	4.96208
1887.04	4.84632
1888.53	5.09117
1890.03	5.62824
1891.52	5.04125
1893.01	4.5856
1894.5	4.92292
1895.99	4.36167
1897.49	4.57433
1898.98	4.82445
1900.47	5.06745
1901.96	5.23307
1903.45	5.80221
1904.94	6.03561
1906.43	5.81568
1907.92	6.17571
1909.41	6.8238
1910.9	6.60723
1912.39	6.16492
1913.88	5.98284
1915.37	5.96382
1916.86	6.34316
1918.35	6.43043
1919.84	6.98673
1921.32	7.26888
1922.81	7.936
1924.3	7.22809
1925.78	8.33787
1927.27	8.09211
1928.76	7.82767
1930.24	8.03966
1931.73	8.6956
1933.21	9.58598
1934.7	9.92038
1936.18	9.82811
1937.67	8.57911
1939.15	9.00222
1940.64	9.79144
1942.12	9.14921
1943.6	8.99261
1945.09	8.43424
1946.57	7.8488
1948.05	7.03767
1949.54	7.20459
1951.02	7.95092
1952.5	7.27612
1953.98	7.13439
1955.46	7.2001
1956.94	7.43915
1958.42	7.51803
1959.91	7.67586
1961.39	6.92574
1962.87	7.24586
1964.34	7.09425
1965.82	6.41852
1967.3	6.35661
1968.78	7.15526
1970.26	6.90621
1971.74	6.61699
1973.22	6.55677
1974.7	6.23455
1976.17	5.98589
1977.65	6.08066
1979.13	5.68868
1980.6	5.82241
1982.08	6.3173
1983.56	6.74753
1985.03	6.74369
1986.51	6.88953
1987.98	7.11879
1989.46	7.81033
1990.93	7.63317
1992.41	7.77314
1993.88	7.97966
1995.36	8.03841
1996.83	8.18946
1998.3	7.71364
1999.78	8.55858
2001.25	8.56788
2002.72	8.60362
2004.2	10.2099
2005.67	10.35
2007.14	10.3599
2008.61	10.1355
2010.08	10.0873
2011.55	10.2472
2013.02	10.6664
2014.49	10.4748
2015.97	10.1888
2017.43	10.456
2018.9	10.2984
2020.37	10.4047
2021.84	10.6403
2023.31	11.3158
2024.78	11.2655
2026.25	10.6591
2027.72	10.9133
2029.19	11.1494
2030.65	11.1797
2032.12	11.3984
2033.59	10.8522
2035.05	10.9395
2036.52	12.3529
2037.98	13.2986
2039.45	13.4907
2040.92	13.782
2042.38	14.1392
2043.85	13.5462
2045.31	13.7468
2046.78	14.0256
2048.24	14.1187
2049.71	15.0464
2051.17	15.5852
2052.63	15.926
2054.1	16.3549
2055.56	16.6139
2057.02	16.7417
2058.48	16.4108
2059.95	16.9908
2061.41	17.5297
2062.87	17.7546
2064.33	17.9024
2065.79	18.9416
2067.25	19.475
2068.71	19.44
2070.17	19.566
2071.63	20.6753
2073.09	21.8697
2074.55	22.366
2076.01	22.6925
2077.47	24.4616
2078.93	24.0497
2080.39	25.0532
2081.85	25.9965
2083.3	27.1126
2084.76	27.4066
2086.22	28.1838
2087.68	29.6507
2089.13	30.69
2090.59	31.6809
2092.05	32.689
2093.5	34.0188
2094.96	35.3086
2096.41	36.4363
2097.87	37.094
2099.32	38.3957
2100.78	38.9011
2102.23	39.8723
2103.69	41.1087
2105.14	42.6395
2106.59	44.4431
2108.05	46.0407
2109.5	47.233
2110.95	47.3634
2112.41	48.132
2113.86	49.364
2115.31	50.2736
2116.76	51.7056
2118.21	53.1718
2119.67	53.9861
2121.12	55.0404
2122.57	56.1157
2124.02	56.8446
2125.47	58.373
2126.92	59.7349
2128.37	60.9012
2129.82	61.3626
2131.27	62.5194
2132.71	64.2286
2134.16	65.6091
2135.61	67.2711
2137.06	68.5506
2138.51	69.6959
2139.95	70.8903
2141.4	72.5347
2142.85	74.264
2144.29	76.239
2145.74	77.2957
2147.19	78.2701
2148.63	79.7917
2150.08	81.5423
2151.52	82.8924
2152.97	85.1759
2154.42	87.3081
2155.86	88.8914
2157.3	90.4745
2158.75	92.7065
2160.19	93.8766
2161.64	94.7419
2163.08	96.2857
2164.52	97.7642
2165.96	99.3075
2167.41	99.99
2168.85	99.9455
2170.29	100.591
2171.73	100.87
2173.17	101.398
2174.61	102.219
2176.06	102.206
2177.5	102.049
2178.94	101.873
2180.38	101.103
2181.82	99.9814
2183.26	99.2117
2184.7	98.3674
2186.14	97.4366
2187.57	96.5013
2189.01	95.4056
2190.45	93.2105
2191.89	90.8874
2193.33	89.0051
2194.76	87.4853
2196.2	86.122
2197.64	84.4335
2199.08	82.3599
2200.51	80.4288
2201.95	79.1357
2203.38	78.7967
2204.82	77.9271
2206.25	76.0814
2207.69	74.2773
2209.12	71.9386
2210.56	70.1428
2211.99	68.656
2213.43	67.2585
2214.86	65.1824
2216.3	63.8126
2217.73	62.1696
2219.16	60.4934
2220.59	59.0141
2222.03	57.4938
2223.46	56.034
2224.89	54.4671
2226.32	53.3807
2227.75	51.4404
2229.19	50.0756
2230.62	48.8773
2232.05	47.3167
2233.48	46.0902
2234.91	45.5736
2236.34	44.1242
2237.77	42.4824
2239.2	40.8605
2240.63	39.669
2242.06	38.8412
2243.48	37.7639
2244.91	36.9767
2246.34	35.318
2247.77	34.198
2249.2	33.7319
2250.62	32.6775
2252.05	31.5423
2253.48	29.7958
2254.9	28.8337
2256.33	28.1613
2257.76	27.763
2259.18	26.631
2260.61	25.6608
2262.03	24.3068
2263.46	23.9182
2264.88	23.5492
2266.31	23.2378
2267.73	22.9136
2269.16	22.6238
2270.58	23.0139
2272	23.4125
2273.43	24.2382
2274.85	24.1812
2276.27	23.1927
2277.69	21.8851
2279.12	21.4228
2280.54	21.2188
2281.96	21.3808
2283.38	21.1855
2284.8	21.0432
2286.22	20.3855
2287.64	19.8674
2289.07	19.075
2290.49	17.8671
2291.91	17.0955
2293.32	15.4629
2294.74	14.1653
2296.16	13.8321
2297.58	13.613
2299	13.0363
2300.42	13.3275
2301.84	13.1189
2303.26	12.5381
2304.67	12.8406
2306.09	13.4611
2307.51	12.994
2308.92	13.1046
2310.34	13.2599
2311.76	13.1095
2313.17	13.0352
2314.59	12.4223
2316	12.2495
2317.42	12.4781
2318.83	12.327
2320.25	12.089
2321.66	10.9929
2323.08	10.7207
2324.49	10.0991
2325.91	10.2546
2327.32	9.9444
2328.73	9.174
2330.15	8.94085
2331.56	8.71434
2332.97	8.05164
2334.38	7.7673
2335.79	7.42431
2337.21	7.52937
2338.62	7.56392
2340.03	7.76141
2341.44	7.99919
2342.85	7.89228
2344.26	7.56147
2345.67	6.12527
2347.08	5.08202
2348.49	4.50584
2349.9	4.09044
2351.31	4.10427
2352.72	3.89058
2354.13	3.47906
2355.53	3.05284
2356.94	2.22324
2358.35	1.93515
2359.76	1.30871
2361.17	0.969422
2362.57	0.924721
2363.98	0.946067
2365.39	1.77825
2366.79	2.47953
2368.2	3.41064
2369.6	3.98795
2371.01	4.75239
2372.42	5.08259
2373.82	5.58144
2375.22	6.52307
2376.63	7.09878
2378.03	6.97875
2379.44	6.79054
2380.84	6.77917
2382.25	6.59022
2383.65	6.03607
2385.05	6.34679
2386.45	6.58188
2387.86	6.84782
2389.26	6.80417
2390.66	7.08413
2392.06	7.13404
2393.46	7.43785
2394.87	7.22701
2396.27	7.20501
2397.67	7.29413
2399.07	7.51723
2400.47	7.23899
2401.87	7.22278
2403.27	7.05096
2404.67	6.92439
2406.07	7.51872
2407.47	7.39211
2408.86	7.18321
2410.26	6.9963
2411.66	6.91827
2413.06	6.70227
2414.46	6.87523
2415.85	6.48394
2417.25	6.33835
2418.65	6.28117
2420.05	6.36483
2421.44	6.52775
2422.84	6.90933
2424.23	6.9033
2425.63	7.03755
2427.03	6.93352
2428.42	7.97065
2429.82	8.05143
2431.21	8.5741
2432.6	8.68534
2434	8.30776
2435.39	8.38594
2436.79	8.14684
2438.18	8.60228
2439.57	8.1571
2440.97	7.82386
2442.36	7.48352
2443.75	6.58491
2445.14	5.92205
2446.54	5.23888
2447.93	4.3049
2449.32	3.85514
2450.71	3.65148
2452.1	3.3377
2453.49	3.1951
2454.88	3.63402
2456.27	2.96885
2457.66	3.26306
2459.05	3.04983
2460.44	2.97305
2461.83	3.1129
2463.22	3.10264
2464.61	2.70743
2466	2.84768
2467.39	3.00131
2468.77	2.80966
2470.16	2.35865
2471.55	2.76495
2472.94	2.92114
2474.32	2.81557
2475.71	2.85873
2477.1	2.69028
2478.48	2.90141
2479.87	2.5037
2481.25	2.57408
2482.64	2.95434
2484.02	3.39907
2485.41	2.61256
2486.8	2.41562
2488.18	3.11064
2489.56	3.51125
2490.95	3.78456
2492.33	4.18109
2493.72	4.12192
2495.1	4.41688
2496.48	4.55891
2497.86	4.83857
2499.25	4.0191
2500.63	4.49634
2502.01	3.58209
2503.39	2.85662
2504.77	2.82293
2506.16	2.36909
2507.54	2.46936
2508.92	1.74609
2510.3	1.04853
2511.68	0.839191
2513.06	0.191968
2514.44	0.284667
2515.82	0.389305
2517.2	0.295359
2518.58	0.210476
2519.95	0.396811
2521.33	0.600546
2522.71	0.504238
2524.09	0.737562
2525.47	0.929598
2526.84	1.1254
2528.22	1.24762
2529.6	1.83978
2530.98	2.11465
2532.35	2.21073
2533.73	1.97543
2535.11	1.9423
2536.48	2.18304
2537.86	2.19546
2539.23	1.93809
2540.61	1.96903
2541.98	2.42178
2543.36	2.79378
2544.73	2.68304
2546.1	2.78854
2547.48	2.63448
2548.85	3.14866
2550.23	4.00268
2551.6	4.11371
2552.97	4.03861
2554.34	3.68659
2555.72	4.18382
2557.09	4.81666
2558.46	4.69366
2559.83	4.63528
2561.2	4.87574
2562.58	5.11278
2563.95	5.04493
2565.32	5.36943
2566.69	5.21695
2568.06	5.55264
2569.43	5.66033
2570.8	4.98794
2572.17	5.23404
2573.54	4.97949
2574.91	5.00635
2576.27	4.73026
2577.64	3.90182
2579.01	4.08442
2580.38	3.89119
2581.75	3.48972
2583.11	3.30611
2584.48	3.13584
2585.85	3.07111
2587.21	2.99194
2588.58	3.52808
2589.95	3.09354
2591.31	2.7782
2592.68	2.85334
2594.04	2.99042
2595.41	2.8992
2596.78	3.1224
2598.14	3.14484
2599.51	2.86362
2600.87	2.69664
2602.23	2.35423
2603.6	1.88325
2604.96	1.87948
2606.32	1.71442
2607.69	1.43802
2609.05	1.80309
2610.41	2.47709
2611.77	2.31472
2613.14	1.58011
2614.5	1.52357
2615.86	2.2054
2617.22	2.61505
2618.58	2.3467
2619.94	2.33089
2621.3	2.55572
2622.67	2.75206
2624.03	3.39889
2625.39	4.37825
2626.75	4.83703
2628.1	5.09531
2629.46	5.6063
2630.82	5.84334
2632.18	6.20566
2633.54	6.41976
2634.9	6.18804
2636.26	6.44983
2637.61	6.73489
2638.97	6.83932
2640.33	6.66142
2641.69	6.52323
2643.04	6.61996
2644.4	6.44315
2645.76	6.10793
2647.11	6.513
2648.47	6.09233
2649.82	6.42029
2651.18	6.15076
2652.53	5.44568
2653.89	5.40136
2655.24	5.18236
2656.6	5.1128
2657.95	4.79827
2659.31	4.98796
2660.66	4.84352
2662.01	5.05177
2663.37	4.8819
2664.72	4.34667
2666.07	3.66524
2667.43	3.1422
2668.78	3.0674
2670.13	2.66279
2671.48	2.31862
2672.83	2.51849
2674.18	2.82492
2675.53	2.33597
2676.89	2.66973
2678.24	2.45275
2679.59	2.4622
2680.94	1.97202
2682.29	1.95455
2683.64	2.63589
2684.99	2.41291
2686.34	2.55611
2687.68	2.38575
2689.03	2.58182
2690.38	3.08728
2691.73	3.72929
2693.08	4.1276
2694.43	3.7835
2695.77	3.828
2697.12	4.02606
2698.47	4.4464
2699.81	4.45191
2701.16	4.19452
2702.51	4.76578
2703.85	5.56405
2705.2	6.28499
2706.54	6.2291
2707.89	6.19425
2709.23	6.68534
2710.58	6.83754
2711.92	6.91906
2713.27	7.18376
2714.61	7.65243
2715.96	8.15993
2717.3	8.20244
2718.64	8.12197
2719.99	8.12279
2721.33	8.40272
2722.67	8.38241
2724.01	8.90281
2725.36	9.01142
2726.7	8.94658
2728.04	8.96825
2729.38	9.09845
2730.72	9.53393
2732.06	9.537
2733.41	9.6976
2734.75	9.76417
2736.09	10.0163
2737.43	9.63556
2738.77	9.39913
2740.11	9.28754
2741.44	8.98147
2742.78	8.58579
2744.12	8.10161
2745.46	7.88409
2746.8	7.59485
2748.14	7.41413
2749.48	6.77282
2750.81	6.7464
2752.15	6.36044
2753.49	6.12045
2754.83	5.59433
2756.16	4.88906
2757.5	4.70363
2758.84	4.14435
2760.17	3.31981
2761.51	2.63633
2762.84	2.42528
2764.18	2.38488
2765.51	1.86746
2766.85	1.43091
2768.18	1.64833
2769.52	2.12465
2770.85	2.41454
2772.19	2.1602
2773.52	1.55648
2774.85	1.52626
2776.19	2.13312
2777.52	2.31903
2778.85	2.94583
2780.18	3.34001
2781.52	3.2215
2782.85	3.57506
2784.18	3.04253
2785.51	3.34407
2786.84	3.32853
2788.17	3.5561
2789.51	3.83417
2790.84	4.45422
2792.17	4.94703
2793.5	5.57706
2794.83	5.64621
2796.16	5.81605
2797.48	6.65704
2798.81	6.83953
2800.14	6.39878
2801.47	6.18096
2802.8	6.5318
2804.13	6.4154
2805.46	6.91569
2806.79	6.97812
2808.11	6.87666
2809.44	6.63703
2810.77	6.05635
2812.09	6.33949
2813.42	6.6592
2814.75	6.82258
2816.07	6.70088
2817.4	7.36756
2818.73	8.01434
2820.05	9.10235
2821.38	9.79521
2822.7	11.1142
2824.03	13.3078
2825.35	15.2172
2826.67	17.1519
2828	19.4526
2829.32	22.1592
2830.65	24.4621
2831.97	26.7599
2833.29	30.2139
2834.62	33.6534
2835.94	36.9087
2837.26	40.4862
2838.58	43.6546
2839.9	47.1907
2841.23	51.324
2842.55	55.3678
2843.87	58.0415
2845.19	60.8483
2846.51	64.2904
2847.83	68.0973
2849.15	71.6167
2850.47	75.2831
2851.79	79.4024
2853.11	83.4526
2854.43	87.2685
2855.75	91.1772
2857.07	95.2051
2858.39	99.0505
2859.71	102.069
2861.02	105.223
2862.34	108.45
2863.66	111.623
2864.98	114.162
2866.3	115.962
2867.61	118.277
2868.93	120.626
2870.25	122.133
2871.56	123.819
2872.88	125.343
2874.19	127.181
2875.51	129.075
2876.83	130.405
2878.14	132.507
2879.46	134.851
2880.77	136.185
2882.09	138.704
2883.4	140.805
2884.71	143.241
2886.03	145.052
2887.34	147.249
2888.65	149.018
2889.97	151.559
2891.28	153.673
2892.59	155.854
2893.91	158.216
2895.22	160.505
2896.53	163.686
2897.84	166.181
2899.15	168.859
2900.46	171.656
2901.78	174.335
2903.09	177.423
2904.4	179.731
2905.71	182.54
2907.02	186.104
2908.33	189.219
2909.64	192.28
2910.95	196.419
2912.26	201.83
2913.57	205.37
2914.87	208.905
2916.18	213.116
2917.49	217.494
2918.8	221.248
2920.11	224.582
2921.42	227.749
2922.72	230.622
2924.03	233.254
2925.34	235.643
2926.64	237.931
2927.95	239.15
2929.26	240.911
2930.56	241.531
2931.87	242.326
2933.17	242.743
2934.48	242.748
2935.78	241.814
2937.09	240.877
2938.39	240.288
2939.7	238.507
2941	237.391
2942.31	235.149
2943.61	233.101
2944.91	230.824
2946.22	227.442
2947.52	224.584
2948.82	220.561
2950.13	216.409
2951.43	212.142
2952.73	208.599
2954.03	203.593
2955.33	199.312
2956.64	194.815
2957.94	189.924
2959.24	184.507
2960.54	178.89
2961.84	173.833
2963.14	167.975
2964.44	162.875
2965.74	157.498
2967.04	152.08
2968.34	147.581
2969.64	142.136
2970.94	137.752
2972.24	133.634
2973.53	128.618
2974.83	124.111
2976.13	119.612
2977.43	115.857
2978.73	110.8
2980.02	106.155
2981.32	101.869
2982.62	97.8202
2983.91	93.4622
2985.21	89.2994
2986.51	84.9627
2987.8	80.8493
2989.1	77.091
2990.4	73.4464
2991.69	69.3925
2992.99	65.4574
2994.28	62.2102
2995.57	59.0759
2996.87	55.8929
2998.16	52.8813
2999.46	49.3375
3000.75	46.3962
3002.05	43.9524
3003.34	42.1029
3004.63	39.6032
3005.92	37.5102
3007.22	34.9752
3008.51	33.0507
3009.8	31.1009
3011.09	29.2808
3012.39	28.2415
3013.68	26.5141
3014.97	24.9123
3016.26	23.2094
3017.55	21.602
3018.84	19.4944
3020.13	18.3676
3021.42	17.3944
3022.71	15.4142
3024	14.1518
3025.29	13.129
3026.58	12.2708
3027.87	11.1961
3029.16	9.6994
3030.45	8.62718
3031.73	8.01972
3033.02	7.59712
3034.31	7.02278
3035.6	6.93082
3036.89	6.39054
3038.17	6.00678
3039.46	5.96578
3040.75	5.94402
3042.03	6.12031
3043.32	6.07444
3044.61	5.56288
3045.89	5.93813
3047.18	6.2121
3048.46	6.10448
3049.75	5.77627
3051.03	5.41087
3052.32	5.38184
3053.6	5.89539
3054.89	5.51371
3056.17	5.44213
3057.45	5.24454
3058.74	5.31977
3060.02	5.68349
3061.31	5.09999
3062.59	5.19997
3063.87	4.33076
3065.15	4.52797
3066.44	4.94056
3067.72	5.15592
3069	4.8151
3070.28	5.0908
3071.56	5.24982
3072.84	4.99989
3074.13	4.90236
3075.41	4.85097
3076.69	4.54743
3077.97	3.71364
3079.25	3.02632
3080.53	2.78789
3081.81	2.73685
3083.09	2.22427
3084.37	1.83149
3085.64	1.32556
3086.92	0.790374
3088.2	0.316902
3089.48	-0.202391
3090.76	-0.454147
3092.04	-0.304153
3093.31	-0.264289
3094.59	-0.303116
3095.87	0.118395
3097.14	0.279829
3098.42	0.46129
3099.7	0.319903
3100.97	0.699073
3102.25	1.08404
3103.53	1.45112
3104.8	1.82548
3106.08	2.47595
3107.35	2.58673
3108.63	2.21556
3109.9	2.84944
3111.18	2.95995
3112.45	2.89977
3113.73	2.88058
3115	3.1238
3116.27	3.02659
3117.55	3.49001
3118.82	3.38837
3120.09	3.78857
3121.37	3.97247
3122.64	4.45856
3123.91	4.70545
3125.18	4.72647
3126.45	5.16451
3127.73	5.38636
3129	6.15736
3130.27	6.78781
3131.54	6.59968
3132.81	6.57517
3134.08	7.11232
3135.35	7.03753
3136.62	7.46646
3137.89	7.90158
3139.16	8.02739
3140.43	8.23504
3141.7	8.25449
3142.97	8.4371
3144.24	8.63484
3145.51	8.94436
3146.78	9.79632
3148.04	10.4259
3149.31	10.4635
