#Acq. time (s)=	45
#Accumulations=	2
#Range (cm-¹)=	200...3150
#Windows=	2
#Auto scanning=	Off
#Autofocus=	Off
#Macrospot=	Off
#AutoExposure=	Off
#Spike filter=	Multiple accum.
#Delay time (s)=	0
#Binning=	1
#Readout mode=	Signal
#DeNoise=	Off
#ICS correction=	On
#Dark correction=	Off
#Inst. Process=	Off
#Detector Gain=	Best Dynamic Range
#Detector ADC=	20 kHz       
#Detector temperature (°C)=	-69.85
#Instrument=	LabRAM HR Evol
#Detector=	Synapse
#Objective=	x100
#Grating=	600 gr/mm
#ND Filter=	100%
#Laser (nm)=	532 
#Hole=	100.021
#Range=	Auto
#Laser Pol.=	No
#Raman. Pol.=	No
#Laser Pol. (°)=	-0.0007625
#Raman Pol. (°)=	89.9995
#Collection=	Microscope
#StageXY=	Marzhauser
#StageZ=	Marzhauser
#X (µm)=	-1072.1
#Y (µm)=	611.1
#Z (µm)=	584.45
#Full time(mm:ss)=	3:18
#Project=	
#Sample=	
#Site=	
#Title=	Mb_40_y_43_2x_45s_532 nm_x100_100%_600 gr_mm
#Remark=	
#Date=	19.07.2022 12:59
#Acquired=	19.07.2022 12:59:19
#Base:Fit=	10.08.2022 10:52:48
#Base:Sub=	10.08.2022 10:52:53
#Filter:Polynom=	16.08.2022 10:09:04
#AxisType[0]=Intens
#AxisUnit[0]=Cnt
#AxisType[1]=Spectr
#AxisUnit[1]=1/cm
200.423	51.9292
202.238	46.0778
204.052	42.5598
205.868	40.4984
207.682	37.8612
209.495	35.0511
211.308	32.0941
213.12	29.7779
214.935	27.9235
216.746	24.9524
218.558	23.0459
220.369	21.641
222.18	19.813
223.992	17.2167
225.802	15.0675
227.612	13.808
229.421	12.643
231.23	11.3583
233.039	10.766
234.849	8.68176
236.657	6.97312
238.465	6.28182
240.272	6.21331
242.079	5.35659
243.885	5.43045
245.691	5.52987
247.497	5.34969
249.305	4.78369
251.11	5.32903
252.915	6.37108
254.719	5.71053
256.523	5.4412
258.327	5.51685
260.13	4.68757
261.933	3.82648
263.736	4.27642
265.538	3.61465
267.34	1.78984
269.141	1.66495
270.943	2.32673
272.744	3.93606
274.544	4.2435
276.344	4.82075
278.144	4.26598
279.944	5.09798
281.743	5.2828
283.542	5.15041
285.34	5.53357
287.138	6.42573
288.936	6.15485
290.733	7.3706
292.53	6.97179
294.327	6.21299
296.123	6.14958
297.919	6.87047
299.715	7.13238
301.508	9.08749
303.303	9.4094
305.098	9.65614
306.892	8.28685
308.686	8.88092
310.479	9.13223
312.273	8.58472
314.065	8.71461
315.858	10.1805
317.648	10.5352
319.44	10.6157
321.231	10.5421
323.022	11.113
324.813	11.8443
326.604	13.5405
328.392	15.3509
330.181	16.1609
331.971	16.2237
333.76	17.3942
335.548	17.9161
337.335	17.2007
339.123	17.4001
340.91	18.2099
342.698	18.5267
344.483	16.9083
346.269	16.0413
348.055	15.4802
349.841	15.1673
351.625	14.2769
353.41	14.5776
355.195	13.7033
356.977	12.9333
358.762	13.6515
360.545	13.7275
362.329	12.665
364.11	10.2392
365.893	9.96211
367.675	8.03398
369.455	7.65121
371.237	6.44924
373.017	6.08205
374.798	6.06735
376.578	6.16765
378.357	5.42939
380.137	5.52477
381.917	4.78545
383.694	4.89162
385.473	6.27039
387.249	6.58824
389.028	6.16904
390.806	4.35745
392.581	3.26108
394.359	3.68013
396.134	3.27567
397.91	4.68991
399.684	4.82856
401.46	5.60369
403.234	7.77242
405.009	8.86507
406.784	8.83921
408.557	9.76402
410.331	10.8037
412.103	12.3438
413.876	13.3493
415.647	13.246
417.42	13.6112
419.191	13.1318
420.961	13.25
422.733	13.71
424.502	13.4958
426.273	12.7741
428.042	13.2527
429.812	12.3412
431.58	12.0215
433.35	10.0865
435.118	10.6702
436.885	10.6936
438.653	9.30642
440.42	7.94836
442.188	8.40065
443.954	7.90342
445.719	7.50059
447.486	8.12791
449.251	7.01894
451.015	5.50738
452.781	5.72908
454.545	6.69062
456.308	6.42594
458.073	6.89866
459.836	7.71332
461.598	9.02248
463.362	9.36651
465.124	10.3007
466.885	10.1925
468.648	11.581
470.408	12.8168
472.169	14.3324
473.929	15.3247
475.69	16.4125
477.45	16.4899
479.208	17.323
480.967	19.8754
482.727	20.3315
484.485	21.2339
486.243	22.7042
488	23.4652
489.759	25.3435
491.515	26.474
493.272	26.4701
495.028	26.357
496.783	26.4183
498.54	27.056
500.295	27.1165
502.05	27.5435
503.804	27.669
505.558	27.966
507.311	28.2671
509.064	28.4579
510.819	29.0363
512.572	27.8863
514.324	27.506
516.076	26.9493
517.827	25.5341
519.578	25.5789
521.329	24.2142
523.08	24.7638
524.83	24.2829
526.58	23.4166
528.329	23.7704
530.08	24.915
531.829	24.3635
533.578	23.0815
535.326	22.5101
537.074	21.3398
538.821	21.1774
540.568	21.735
542.315	20.7652
544.062	20.9693
545.808	21.2462
547.554	22.2676
549.299	22.8505
551.044	22.6839
552.789	22.6212
554.533	23.5747
556.278	25.2449
558.019	25.4875
559.763	25.7911
561.506	24.6697
563.249	24.626
564.991	23.1963
566.733	22.4644
568.475	21.4912
570.217	20.0386
571.958	20.8865
573.699	20.3638
575.439	20.2139
577.177	20.4201
578.917	19.4746
580.656	18.6601
582.396	17.3362
584.134	16.9692
585.873	17.0699
587.609	15.4023
589.347	14.1833
591.084	12.6846
592.822	12.1587
594.558	10.8334
596.295	9.58873
598.029	9.74339
599.765	9.77108
601.5	10.5757
603.235	9.88339
604.968	9.91841
606.703	10.0534
608.437	9.0721
610.171	9.8836
611.902	9.5815
613.635	9.76229
615.368	9.45482
617.099	9.67163
618.831	7.87152
620.563	7.45594
622.294	8.12847
624.024	8.62573
625.755	9.00742
627.485	9.93147
629.213	9.99878
630.943	11.4124
632.673	12.5261
634.4	14.0456
636.129	14.0551
637.855	14.778
639.584	15.2175
641.312	16.1348
643.037	16.0324
644.764	15.2322
646.491	14.2978
648.216	13.7635
649.942	15.0431
651.666	15.6203
653.392	15.8617
655.115	15.3002
656.84	15.5591
658.563	16.5609
660.287	16.7838
662.011	16.9606
663.732	17.3138
665.456	16.3822
667.177	16.4764
668.899	16.6204
670.62	18.2295
672.342	18.1866
674.061	18.5839
675.781	20.7779
677.502	23.1158
679.22	24.9366
680.941	26.7179
682.659	28.9795
684.379	30.4777
686.096	32.8742
687.815	33.5174
689.532	34.1923
691.248	35.4526
692.966	36.909
694.682	37.936
696.4	40.3831
698.115	40.7064
699.829	42.7125
701.546	43.4156
703.26	45.2347
704.974	46.1468
706.689	48.7569
708.402	50.6078
710.115	52.0772
711.83	53.0122
713.542	52.9595
715.254	52.9242
716.967	52.4747
718.679	52.9257
720.39	53.0936
722.102	53.0969
723.812	54.0214
725.522	53.2563
727.232	52.9779
728.943	51.8283
730.652	50.397
732.361	50.2085
734.069	50.1474
735.779	49.3791
737.487	48.5502
739.194	47.8543
740.901	48.4465
742.608	50.2891
744.316	51.2698
746.022	51.6283
747.728	52.2184
749.433	52.7276
751.138	51.9004
752.843	52.8089
754.549	54.3082
756.254	56.3888
757.957	56.7995
759.661	57.6461
761.364	58.9767
763.067	59.7756
764.769	60.4698
766.471	62.5908
768.175	63.3307
769.877	65.1605
771.578	66.779
773.279	66.7503
774.98	66.976
776.68	68.0546
778.38	69.8631
780.079	71.4082
781.779	72.949
783.478	72.6492
785.176	73.9473
786.875	74.5308
788.573	75.5539
790.27	76.9173
791.968	77.6868
793.665	78.3218
795.361	78.1857
797.058	77.9716
798.754	78.0347
800.45	78.7038
802.145	78.3789
803.84	79.2243
805.535	78.9966
807.23	78.5327
808.922	76.9936
810.616	75.9269
812.309	75.3959
814.002	72.9497
815.695	72.6142
817.388	72.3219
819.08	71.5628
820.772	71.3757
822.464	70.3837
824.153	70.9047
825.844	70.9286
827.535	69.5982
829.225	68.0507
830.915	66.1275
832.605	64.5253
834.292	62.3128
835.981	61.6684
837.67	61.6604
839.359	60.7706
841.047	59.6683
842.732	58.1386
844.42	56.4209
846.107	56.3996
847.794	55.2587
849.479	54.6343
851.165	53.702
852.851	51.5849
854.534	50.9943
856.22	49.3356
857.905	48.5946
859.589	47.7745
861.272	48.1502
862.956	47.5632
864.639	46.2445
866.321	45.0283
868.004	44.6273
869.687	45.1288
871.367	46.1488
873.049	47.0234
874.731	48.4432
876.41	47.9677
878.092	48.9905
879.771	49.0967
881.451	49.68
883.131	49.2329
884.809	47.5429
886.489	46.8013
888.166	46.0317
889.845	46.0132
891.522	44.7461
893.2	44.3603
894.878	44.4297
896.554	42.7067
898.231	40.4094
899.906	41.3611
901.583	40.7869
903.258	40.8504
904.934	40.0362
906.608	39.6722
908.283	40.1217
909.956	38.7388
911.631	38.2146
913.304	37.1253
914.976	35.7089
916.65	36.6501
918.322	36.6162
919.995	36.9019
921.666	37.058
923.339	36.29
925.009	35.9273
926.679	35.4807
928.351	35.0439
930.021	35.7199
931.692	35.6629
933.361	34.9569
935.029	34.1219
936.699	33.466
938.367	33.5995
940.035	33.3436
941.704	33.5321
943.371	34.187
945.038	33.9204
946.706	33.8013
948.372	34.5677
950.038	35.1022
951.705	34.4834
953.37	35.3936
955.035	36.4555
956.7	35.3873
958.366	34.6828
960.03	33.5081
961.693	33.5108
963.357	33.822
965.021	33.2501
966.684	31.7888
968.346	30.0479
970.008	30.0781
971.67	29.7121
973.334	30.5313
974.995	29.8019
976.655	29.2326
978.316	28.0991
979.976	27.304
981.638	28.6308
983.297	29.2348
984.957	28.2835
986.616	27.7507
988.274	27.2182
989.932	25.4677
991.59	24.0991
993.248	22.8382
994.907	21.2066
996.565	19.8101
998.221	18.027
999.878	15.6153
1001.53	13.0897
1003.19	10.8312
1004.85	11.3221
1006.5	12.2276
1008.16	16.1149
1009.81	23.5439
1011.46	33.4764
1013.12	43.793
1014.77	54.9045
1016.43	66.4449
1018.08	79.0047
1019.73	91.2209
1021.38	104.919
1023.04	118.622
1024.69	130.803
1026.34	143.021
1027.99	152.942
1029.64	164.62
1031.29	173.437
1032.94	181.511
1034.59	188.814
1036.24	196.075
1037.89	201.566
1039.54	205.747
1041.19	209.906
1042.84	212.704
1044.48	213.588
1046.13	213.378
1047.78	212.472
1049.42	211.449
1051.07	209.303
1052.72	206.604
1054.36	201.971
1056.01	196.613
1057.66	189.309
1059.3	181.625
1060.94	174.21
1062.59	166.075
1064.23	156.276
1065.88	144.792
1067.52	132.375
1069.16	120.871
1070.81	108.397
1072.45	93.2295
1074.09	80.5853
1075.73	67.624
1077.38	55.7713
1079.02	43.8118
1080.66	32.8822
1082.3	23.1626
1083.94	16.7413
1085.58	11.0167
1087.22	9.69262
1088.86	9.24571
1090.5	10.6272
1092.13	13.5624
1093.77	15.2694
1095.41	16.726
1097.05	18.6199
1098.68	20.0808
1100.32	22.4268
1101.96	24.7709
1103.6	26.8323
1105.23	28.0294
1106.87	27.9311
1108.5	29.2636
1110.14	29.0584
1111.77	29.1815
1113.41	27.2702
1115.04	26.4347
1116.67	25.6577
1118.31	25.0564
1119.94	25.8028
1121.58	25.0186
1123.21	23.6346
1124.84	23.597
1126.47	22.8752
1128.1	23.322
1129.73	24.1361
1131.37	22.4808
1133	20.8471
1134.63	19.0904
1136.26	18.8205
1137.89	18.6197
1139.52	18.3913
1141.14	18.0117
1142.77	17.4436
1144.4	18.3212
1146.03	17.6595
1147.66	16.8906
1149.29	14.4493
1150.91	15.3261
1152.54	13.1231
1154.17	11.2723
1155.79	11.994
1157.42	11.3507
1159.04	9.74392
1160.67	8.07172
1162.3	6.95345
1163.92	4.36074
1165.55	3.90377
1167.17	3.67833
1168.79	4.29509
1170.42	4.36905
1172.04	4.76823
1173.66	5.22206
1175.28	5.25213
1176.91	5.38344
1178.53	5.81096
1180.15	5.08434
1181.77	4.28771
1183.39	3.276
1185.01	1.96184
1186.63	0.642059
1188.25	0.423144
1189.87	0.193801
1191.49	-1.25272
1193.11	-1.73755
1194.73	-1.19442
1196.35	-0.9198
1197.97	0.108225
1199.59	0.474241
1201.2	2.65264
1202.82	2.74121
1204.44	3.49667
1206.05	4.9843
1207.67	5.22683
1209.29	6.65257
1210.9	7.50494
1212.52	8.49881
1214.13	10.097
1215.75	11.3689
1217.36	14.1995
1218.97	15.3333
1220.59	16.712
1222.2	17.5831
1223.82	18.7284
1225.43	20.8266
1227.04	21.7355
1228.65	23.2679
1230.26	24.2171
1231.88	26.5371
1233.49	27.0342
1235.1	27.9558
1236.71	29.9753
1238.32	30.5913
1239.93	32.4164
1241.54	33.0522
1243.15	34.3423
1244.76	33.9156
1246.37	35.6943
1247.97	36.0913
1249.58	36.5966
1251.19	37.0233
1252.8	36.9117
1254.41	36.5627
1256.01	38.807
1257.62	40.105
1259.23	41.2254
1260.83	40.4575
1262.44	42.4578
1264.04	44.227
1265.65	46.4192
1267.25	48.0513
1268.86	50.6004
1270.46	51.8931
1272.07	53.7882
1273.67	56.9131
1275.27	58.9523
1276.88	60.9061
1278.48	63.0293
1280.08	65.8609
1281.68	67.9503
1283.28	69.1082
1284.89	70.2278
1286.49	71.3555
1288.09	72.3288
1289.69	74.2865
1291.29	74.1779
1292.89	75.3545
1294.49	75.4448
1296.09	76.0455
1297.69	77.2972
1299.29	77.7415
1300.88	78.0569
1302.48	78.1312
1304.08	78.2164
1305.68	78.3526
1307.27	78.9536
1308.87	77.6551
1310.47	76.5002
1312.06	75.5001
1313.66	74.3925
1315.25	73.3877
1316.85	74.1171
1318.44	73.6947
1320.04	73.0612
1321.63	70.9289
1323.23	69.6654
1324.82	68.1459
1326.41	67.8697
1328.01	67.2115
1329.6	66.4692
1331.19	67.2732
1332.78	67.6865
1334.38	68.4028
1335.97	68.8613
1337.56	68.2663
1339.15	68.873
1340.74	68.9468
1342.33	69.5099
1343.92	69.6941
1345.51	70.2163
1347.1	69.9288
1348.69	69.3814
1350.28	69.3989
1351.87	68.3759
1353.46	67.2442
1355.04	66.2475
1356.63	65.2879
1358.22	64.0382
1359.81	63.0393
1361.39	60.2429
1362.98	58.8489
1364.57	57.3987
1366.15	56.3241
1367.74	54.9178
1369.32	53.7579
1370.91	51.2721
1372.49	50.4614
1374.07	49.0281
1375.66	48.145
1377.24	47.5365
1378.83	47.2529
1380.41	45.3388
1381.99	44.4268
1383.57	43.5782
1385.16	42.64
1386.74	43.1042
1388.32	42.4306
1389.9	43.2714
1391.48	44.0161
1393.06	44.2661
1394.64	45.1746
1396.22	46.5102
1397.8	46.7909
1399.38	48.4934
1400.96	50.1201
1402.54	52.6333
1404.12	56.63
1405.7	59.1246
1407.28	62.6886
1408.85	66.3254
1410.43	70.0063
1412.01	72.9283
1413.58	76.4382
1415.16	80.6823
1416.74	85.789
1418.31	89.7662
1419.89	92.4096
1421.46	95.5593
1423.04	100.477
1424.61	104.843
1426.19	108.265
1427.76	111.327
1429.33	115.537
1430.91	118.323
1432.48	122.631
1434.05	126.806
1435.63	128.729
1437.2	131.402
1438.77	133.123
1440.34	135.158
1441.91	137.882
1443.49	138.684
1445.05	138.912
1446.63	138.875
1448.2	139.234
1449.77	138.984
1451.34	138.797
1452.91	138.533
1454.47	137.036
1456.04	135.736
1457.61	133.928
1459.18	131.235
1460.75	129.647
1462.31	125.8
1463.88	123.203
1465.45	121.203
1467.01	117.306
1468.58	113.565
1470.15	108.962
1471.71	103.768
1473.28	100.601
1474.84	97.8193
1476.41	93.8806
1477.97	91.3655
1479.54	87.4319
1481.1	83.3833
1482.66	79.7111
1484.23	76.0338
1485.79	71.8964
1487.35	67.2192
1488.91	62.5453
1490.48	59.1734
1492.04	56.0069
1493.6	52.5891
1495.16	49.5811
1496.72	45.9284
1498.28	44.0849
1499.84	42.3893
1501.4	41.6973
1502.96	40.3671
1504.52	37.7209
1506.08	37.0499
1507.64	36.2496
1509.2	34.1674
1510.76	33.21
1512.31	30.8994
1513.87	28.4511
1515.43	27.9211
1516.99	27.2281
1518.54	26.3016
1520.1	26.1153
1521.66	24.7414
1523.21	25.3978
1524.77	25.5474
1526.32	25.6894
1527.88	25.4395
1529.43	25.7802
1530.99	26.9951
1532.54	26.9523
1534.09	28.2926
1535.65	29.3331
1537.2	30.2648
1538.75	31.2646
1540.31	31.1324
1541.86	32.9635
1543.41	33.4143
1544.96	33.8095
1546.51	34.394
1548.06	34.7918
1549.62	36.4029
1551.17	37.4906
1552.72	37.7216
1554.27	37.7653
1555.82	38.9631
1557.36	38.0388
1558.91	37.4193
1560.46	38.9071
1562.01	39.0151
1563.56	38.3595
1565.11	39.4506
1566.66	40.4234
1568.2	41.764
1569.75	42.7674
1571.3	43.1562
1572.84	43.9039
1574.39	45.5369
1575.93	47.9326
1577.48	48.7536
1579.02	49.0978
1580.57	50.4716
1582.11	50.364
1583.66	51.1536
1585.2	51.1147
1586.75	51.4001
1588.29	52.3886
1589.83	51.5681
1591.38	52.0962
1592.92	53.2442
1594.46	53.5492
1596	54.6189
1597.54	55.7715
1599.09	56.5935
1600.63	57.7114
1602.17	57.4054
1603.71	56.7908
1605.25	57.4894
1606.79	57.8124
1608.33	57.309
1609.87	56.1877
1611.41	56.25
1612.95	55.6522
1614.48	55.1976
1616.02	54.8169
1617.56	54.7507
1619.1	54.2031
1620.64	53.4207
1622.17	53.7409
1623.71	52.8988
1625.25	52.86
1626.78	54.3364
1628.32	53.8435
1629.86	53.6468
1631.39	53.2968
1632.92	53.7378
1634.46	53.3244
1635.99	54.3339
1637.53	55.8304
1639.06	55.5947
1640.59	56.4194
1642.13	56.9782
1643.66	56.5786
1645.19	57.458
1646.73	57.7525
1648.26	58.7081
1649.79	59.4037
1651.32	60.1156
1652.85	59.3626
1654.38	58.7908
1655.92	58.3506
1657.45	57.5987
1658.98	56.3988
1660.51	55.6771
1662.04	55.3072
1663.57	54.5602
1665.09	52.8677
1666.62	51.4905
1668.15	51.5457
1669.68	50.6326
1671.21	49.8504
1672.73	49.1205
1674.26	47.3888
1675.79	45.9239
1677.31	43.1516
1678.84	41.1093
1680.37	39.0599
1681.89	37.5512
1683.42	34.9665
1684.94	32.8559
1686.47	32.0741
1687.99	30.7795
1689.52	29.125
1691.04	27.6744
1692.57	27.4391
1694.09	26.7369
1695.61	24.7695
1697.14	23.8543
1698.66	23.869
1700.18	22.4326
1701.7	22.4184
1703.22	22.6511
1704.75	20.7598
1706.27	19.6777
1707.79	19.2374
1709.31	19.3243
1710.83	18.1011
1712.35	18.1118
1713.87	17.5309
1715.39	16.9807
1716.91	16.8947
1718.43	15.5023
1719.95	14.5123
1721.46	14.1997
1722.98	13.659
1724.5	12.95
1726.02	11.9349
1727.53	11.151
1729.05	10.9131
1730.57	10.1818
1732.08	9.84157
1733.6	8.79839
1735.12	9.65333
1736.63	8.8714
1738.15	9.34478
1739.66	9.16178
1741.18	9.01935
1742.69	9.22739
1744.21	9.17084
1745.72	8.52028
1747.23	8.56734
1748.74	7.98681
1750.26	7.77392
1751.77	6.94067
1753.28	6.80189
1754.8	6.92166
1756.31	6.57989
1757.82	6.76528
1759.33	6.73589
1760.84	7.34267
1762.35	7.50512
1763.86	6.63711
1765.37	6.76797
1766.88	6.26395
1768.39	6.7227
1769.9	5.30491
1771.41	5.16736
1772.92	5.17288
1774.43	5.54385
1775.93	5.46631
1777.44	5.51799
1778.95	5.66594
1780.46	5.08706
1781.96	4.73017
1783.47	4.72096
1784.98	4.45621
1786.48	4.17193
1787.99	4.71886
1789.49	4.31568
1791	4.85031
1792.5	4.33247
1794.01	3.55108
1795.51	4.29645
1797.02	4.65632
1798.52	4.63473
1800.03	4.70176
1801.53	4.55529
1803.03	5.12775
1804.53	5.28808
1806.04	4.94986
1807.54	5.50586
1809.04	5.50658
1810.54	6.30821
1812.04	5.88474
1813.54	6.29643
1815.05	6.3345
1816.55	6.25431
1818.05	6.72655
1819.55	6.71953
1821.05	6.77138
1822.55	6.8782
1824.05	7.50018
1825.54	7.95201
1827.04	8.002
1828.54	8.0653
1830.04	7.8808
1831.54	7.8622
1833.03	8.06456
1834.53	7.28019
1836.03	6.30248
1837.52	5.45517
1839.02	5.06696
1840.52	4.50732
1842.01	3.43191
1843.51	3.54377
1845	2.95288
1846.5	3.07383
1847.99	2.96404
1849.49	3.16585
1850.98	3.3638
1852.47	2.22895
1853.97	2.29116
1855.46	1.82489
1856.95	1.93027
1858.45	1.8669
1859.94	1.83949
1861.43	1.91323
1862.92	2.29467
1864.41	1.95903
1865.91	1.46004
1867.4	1.04839
1868.89	1.42682
1870.38	1.37065
1871.87	1.29314
1873.36	1.47498
1874.85	1.7479
1876.34	2.14475
1877.83	2.21189
1879.31	1.44213
1880.8	1.63782
1882.29	1.83869
1882.56	1.83517
1884.05	1.79394
1885.54	1.33048
1887.04	2.42497
1888.53	2.05529
1890.03	1.84792
1891.52	2.69467
1893.01	2.65523
1894.5	2.72952
1895.99	3.26965
1897.49	3.35657
1898.98	2.98026
1900.47	3.03673
1901.96	2.70534
1903.45	3.18109
1904.94	3.00992
1906.43	3.33616
1907.92	3.04517
1909.41	3.24587
1910.9	4.41623
1912.39	5.13954
1913.88	5.10511
1915.37	5.87101
1916.86	6.08023
1918.35	5.98471
1919.84	6.14435
1921.32	6.50092
1922.81	6.69642
1924.3	6.55361
1925.78	5.72307
1927.27	5.98257
1928.76	5.63796
1930.24	5.29638
1931.73	5.19195
1933.21	5.45934
1934.7	5.099
1936.18	5.70317
1937.67	6.32273
1939.15	6.44954
1940.64	6.51588
1942.12	6.88954
1943.6	6.60305
1945.09	7.0646
1946.57	7.31945
1948.05	8.2806
1949.54	8.40894
1951.02	7.56538
1952.5	7.10318
1953.98	7.23559
1955.46	7.06798
1956.94	6.56206
1958.42	6.50992
1959.91	6.84534
1961.39	7.18416
1962.87	6.33668
1964.34	6.90523
1965.82	7.44707
1967.3	7.19419
1968.78	7.3538
1970.26	7.92303
1971.74	7.51784
1973.22	7.70551
1974.7	7.36532
1976.17	7.76981
1977.65	8.24024
1979.13	7.4233
1980.6	7.16012
1982.08	6.75452
1983.56	6.67007
1985.03	6.88806
1986.51	6.62639
1987.98	6.15318
1989.46	6.37279
1990.93	5.63871
1992.41	5.10687
1993.88	5.04456
1995.36	5.20038
1996.83	4.75198
1998.3	4.0005
1999.78	4.08953
2001.25	4.15514
2002.72	3.92337
2004.2	4.29364
2005.67	5.20485
2007.14	5.23754
2008.61	5.28133
2010.08	6.33811
2011.55	6.84821
2013.02	6.49789
2014.49	6.04993
2015.97	6.62417
2017.43	7.13433
2018.9	7.49403
2020.37	8.13463
2021.84	9.01179
2023.31	8.20233
2024.78	8.99184
2026.25	9.23904
2027.72	10.8493
2029.19	11.8739
2030.65	12.6191
2032.12	12.6198
2033.59	13.3032
2035.05	13.1733
2036.52	13.3379
2037.98	14.0892
2039.45	14.5827
2040.92	14.3958
2042.38	15.2939
2043.85	15.0973
2045.31	15.1382
2046.78	14.8048
2048.24	15.068
2049.71	15.1093
2051.17	14.5924
2052.63	14.0755
2054.1	14.7006
2055.56	15.2693
2057.02	15.6997
2058.48	16.64
2059.95	17.4871
2061.41	18.3442
2062.87	18.2914
2064.33	17.9145
2065.79	18.3026
2067.25	19.1267
2068.71	19.4663
2070.17	19.7812
2071.63	19.5878
2073.09	20.5646
2074.55	20.5722
2076.01	20.1772
2077.47	20.4663
2078.93	21.111
2080.39	21.2549
2081.85	21.1586
2083.3	21.222
2084.76	21.6908
2086.22	21.2361
2087.68	21.8032
2089.13	22.5921
2090.59	23.5168
2092.05	23.3771
2093.5	24.7432
2094.96	25.3937
2096.41	26.074
2097.87	27.0366
2099.32	26.6059
2100.78	27.7294
2102.23	27.5812
2103.69	27.9591
2105.14	28.2119
2106.59	29.3089
2108.05	29.8415
2109.5	30.8558
2110.95	31.3343
2112.41	31.555
2113.86	32.4927
2115.31	34.0756
2116.76	34.2391
2118.21	35.3713
2119.67	36.3686
2121.12	38.0141
2122.57	39.2727
2124.02	40.7728
2125.47	42.1254
2126.92	44.2664
2128.37	45.9212
2129.82	47.5208
2131.27	49.583
2132.71	51.797
2134.16	53.1579
2135.61	54.605
2137.06	56.7908
2138.51	58.3618
2139.95	60.5318
2141.4	62.1928
2142.85	63.8481
2144.29	64.5672
2145.74	66.475
2147.19	67.7535
2148.63	68.9878
2150.08	70.551
2151.52	72.6009
2152.97	72.8689
2154.42	74.0632
2155.86	75.6005
2157.3	77.4033
2158.75	78.2206
2160.19	79.7518
2161.64	80.7263
2163.08	81.5845
2164.52	82.0508
2165.96	83.5972
2167.41	83.3929
2168.85	83.8446
2170.29	83.2218
2171.73	84.4901
2173.17	85.1011
2174.61	84.8365
2176.06	84.383
2177.5	83.6578
2178.94	82.613
2180.38	82.2323
2181.82	81.3889
2183.26	80.2593
2184.7	80.3909
2186.14	80.5325
2187.57	79.9837
2189.01	78.7952
2190.45	78.9578
2191.89	78.2734
2193.33	76.6994
2194.76	75.9127
2196.2	74.931
2197.64	73.6348
2199.08	72.1996
2200.51	70.4022
2201.95	68.6916
2203.38	67.8493
2204.82	66.9846
2206.25	65.9717
2207.69	64.6611
2209.12	62.8989
2210.56	60.7971
2211.99	59.9515
2213.43	58.5506
2214.86	56.4589
2216.3	54.8231
2217.73	53.6307
2219.16	52.3879
2220.59	50.6401
2222.03	49.0274
2223.46	47.8904
2224.89	46.2601
2226.32	45.839
2227.75	44.5069
2229.19	44.1822
2230.62	43.6308
2232.05	42.8425
2233.48	41.2916
2234.91	39.9521
2236.34	38.2527
2237.77	37.1537
2239.2	35.4359
2240.63	34.8838
2242.06	33.649
2243.48	33.1345
2244.91	31.4129
2246.34	30.0532
2247.77	28.8069
2249.2	28.5958
2250.62	27.7545
2252.05	27.5356
2253.48	27.3964
2254.9	26.8679
2256.33	27.0335
2257.76	26.3561
2259.18	25.859
2260.61	25.2212
2262.03	25.5694
2263.46	24.1849
2264.88	23.4221
2266.31	23.2046
2267.73	21.9217
2269.16	20.9086
2270.58	20.5316
2272	20.2401
2273.43	19.8198
2274.85	19.4427
2276.27	18.3038
2277.69	18.0915
2279.12	16.5534
2280.54	15.6757
2281.96	15.7785
2283.38	15.5853
2284.8	15.2315
2286.22	14.3277
2287.64	14.0023
2289.07	13.1273
2290.49	11.9758
2291.91	11.2172
2293.32	11.5256
2294.74	11.3315
2296.16	11.4727
2297.58	11.5054
2299	12.016
2300.42	11.8064
2301.84	10.4765
2303.26	10.22
2304.67	10.0568
2306.09	10.266
2307.51	9.97612
2308.92	10.1596
2310.34	10.5909
2311.76	10.2001
2313.17	9.74401
2314.59	10.8296
2316	11.022
2317.42	11.014
2318.83	12.0248
2320.25	12.825
2321.66	12.6362
2323.08	13.0288
2324.49	13.5909
2325.91	13.4053
2327.32	14.0334
2328.73	13.9028
2330.15	13.8536
2331.56	13.6163
2332.97	14.1946
2334.38	14.0249
2335.79	14.1466
2337.21	13.7494
2338.62	13.1623
2340.03	13.3086
2341.44	12.5682
2342.85	12.0132
2344.26	11.5949
2345.67	11.1221
2347.08	10.8965
2348.49	10.7183
2349.9	9.44956
2351.31	8.88909
2352.72	8.82619
2354.13	8.36097
2355.53	8.25501
2356.94	7.07712
2358.35	6.5968
2359.76	6.95352
2361.17	7.17839
2362.57	7.50872
2363.98	8.12873
2365.39	8.22976
2366.79	8.73633
2368.2	9.02146
2369.6	8.88724
2371.01	7.679
2372.42	7.83409
2373.82	8.35737
2375.22	8.16247
2376.63	7.65223
2378.03	7.08561
2379.44	6.93756
2380.84	6.91083
2382.25	6.60973
2383.65	7.44599
2385.05	7.90554
2386.45	7.20807
2387.86	7.32555
2389.26	8.07212
2390.66	7.78077
2392.06	7.55017
2393.46	7.40723
2394.87	7.71941
2396.27	7.69147
2397.67	7.01533
2399.07	6.83128
2400.47	7.11574
2401.87	7.45699
2403.27	7.48957
2404.67	6.63655
2406.07	6.28257
2407.47	6.31284
2408.86	5.93333
2410.26	5.91465
2411.66	5.66926
2413.06	5.96662
2414.46	5.49545
2415.85	5.97803
2417.25	5.77597
2418.65	5.40996
2420.05	6.07589
2421.44	6.51178
2422.84	7.33706
2424.23	7.22508
2425.63	7.10173
2427.03	6.79739
2428.42	7.30915
2429.82	7.30332
2431.21	6.79889
2432.6	6.76629
2434	6.85234
2435.39	7.1295
2436.79	6.3841
2438.18	6.30352
2439.57	5.62599
2440.97	4.99325
2442.36	5.56971
2443.75	4.97346
2445.14	4.88195
2446.54	4.81694
2447.93	4.61047
2449.32	5.14686
2450.71	4.72861
2452.1	4.63959
2453.49	4.92649
2454.88	5.07668
2456.27	5.06502
2457.66	5.66527
2459.05	5.83128
2460.44	5.83016
2461.83	5.51506
2463.22	4.97765
2464.61	4.79519
2466	4.79135
2467.39	4.65863
2468.77	4.84623
2470.16	4.03716
2471.55	3.29651
2472.94	3.32452
2474.32	3.92647
2475.71	4.16948
2477.1	4.26027
2478.48	3.671
2479.87	3.59949
2481.25	3.42113
2482.64	3.53529
2484.02	3.0788
2485.41	3.7639
2486.8	3.69431
2488.18	3.55039
2489.56	3.89577
2490.95	2.85057
2492.33	2.80172
2493.72	1.95408
2495.1	2.27445
2496.48	2.32854
2497.86	2.64966
2499.25	3.15521
2500.63	3.69251
2502.01	3.63663
2503.39	3.78762
2504.77	3.88998
2506.16	3.49111
2507.54	4.11207
2508.92	3.57357
2510.3	3.94858
2511.68	4.26899
2513.06	3.63058
2514.44	4.16801
2515.82	4.30146
2517.2	4.13527
2518.58	4.29125
2519.95	4.08601
2521.33	5.06339
2522.71	5.71772
2524.09	5.73089
2525.47	5.43175
2526.84	6.10631
2528.22	5.57404
2529.6	5.36316
2530.98	4.67737
2532.35	4.20521
2533.73	4.12016
2535.11	4.48969
2536.48	3.77222
2537.86	3.44331
2539.23	3.34626
2540.61	3.60367
2541.98	4.63435
2543.36	5.22971
2544.73	4.6531
2546.1	5.09007
2547.48	4.6931
2548.85	4.95586
2550.23	4.97632
2551.6	5.5043
2552.97	5.13484
2554.34	6.08061
2555.72	5.11374
2557.09	4.62717
2558.46	4.12763
2559.83	4.05399
2561.2	4.85541
2562.58	4.49993
2563.95	4.59748
2565.32	4.77212
2566.69	4.8041
2568.06	4.90229
2569.43	4.37597
2570.8	3.86954
2572.17	3.8088
2573.54	2.99205
2574.91	2.68489
2576.27	2.95142
2577.64	2.48693
2579.01	2.54901
2580.38	2.64979
2581.75	2.91111
2583.11	3.51325
2584.48	4.1141
2585.85	4.45219
2587.21	5.01437
2588.58	5.77276
2589.95	6.39427
2591.31	6.4246
2592.68	7.15487
2594.04	6.98355
2595.41	7.4492
2596.78	7.4086
2598.14	6.79796
2599.51	6.98982
2600.87	7.11059
2602.23	7.81579
2603.6	8.17267
2604.96	7.87292
2606.32	8.76148
2607.69	9.21583
2609.05	9.88623
2610.41	10.1983
2611.77	9.69815
2613.14	8.54188
2614.5	8.56613
2615.86	7.88818
2617.22	8.4409
2618.58	7.65984
2619.94	7.42892
2621.3	6.93045
2622.67	5.61944
2624.03	4.0626
2625.39	4.60242
2626.75	4.14488
2628.1	4.03883
2629.46	3.64147
2630.82	3.34269
2632.18	3.41246
2633.54	3.63343
2634.9	3.49774
2636.26	3.20765
2637.61	2.87894
2638.97	3.13965
2640.33	3.17374
2641.69	3.5977
2643.04	3.99005
2644.4	4.65214
2645.76	4.96614
2647.11	6.21107
2648.47	7.11396
2649.82	7.18097
2651.18	7.60808
2652.53	8.12767
2653.89	8.81569
2655.24	9.31557
2656.6	9.36768
2657.95	9.52507
2659.31	9.76945
2660.66	9.936
2662.01	9.13283
2663.37	9.56568
2664.72	9.1659
2666.07	9.04475
2667.43	9.38998
2668.78	9.1635
2670.13	9.39616
2671.48	9.09901
2672.83	9.17957
2674.18	9.84336
2675.53	9.18015
2676.89	8.81226
2678.24	8.06785
2679.59	7.82141
2680.94	7.83562
2682.29	8.54114
2683.64	8.8799
2684.99	9.53088
2686.34	9.04335
2687.68	8.84565
2689.03	8.49052
2690.38	8.19121
2691.73	8.83402
2693.08	9.47171
2694.43	9.75963
2695.77	10.1128
2697.12	10.9555
2698.47	11.6905
2699.81	11.917
2701.16	12.2693
2702.51	12.7529
2703.85	12.9856
2705.2	14.2889
2706.54	15.1172
2707.89	16.1851
2709.23	17.1596
2710.58	17.9053
2711.92	18.8463
2713.27	19.9402
2714.61	20.4085
2715.96	19.9186
2717.3	20.0091
2718.64	20.2171
2719.99	20.0719
2721.33	20.5803
2722.67	20.4912
2724.01	20.1438
2725.36	20.1748
2726.7	19.9692
2728.04	19.9239
2729.38	19.9334
2730.72	19.19
2732.06	18.3462
2733.41	17.5085
2734.75	16.8397
2736.09	15.987
2737.43	15.3461
2738.77	14.2447
2740.11	13.3357
2741.44	12.4005
2742.78	10.9175
2744.12	10.0337
2745.46	9.20564
2746.8	8.83702
2748.14	8.71452
2749.48	8.34711
2750.81	7.37101
2752.15	6.04913
2753.49	5.10854
2754.83	4.31143
2756.16	3.80643
2757.5	3.20275
2758.84	2.39523
2760.17	1.86627
2761.51	1.71929
2762.84	1.34151
2764.18	1.21681
2765.51	1.01873
2766.85	0.879066
2768.18	1.28263
2769.52	1.3933
2770.85	1.97967
2772.19	2.74633
2773.52	2.29388
2774.85	2.5008
2776.19	2.39215
2777.52	2.34691
2778.85	2.13943
2780.18	1.65778
2781.52	1.14311
2782.85	1.0919
2784.18	1.2797
2785.51	1.21424
2786.84	2.12053
2788.17	2.3372
2789.51	2.82167
2790.84	2.63553
2792.17	2.90744
2793.5	2.64012
2794.83	2.90684
2796.16	2.81956
2797.48	1.79605
2798.81	2.17795
2800.14	1.70693
2801.47	1.81156
2802.8	0.5013
2804.13	-0.135417
2805.46	-0.951156
2806.79	-1.89501
2808.11	-2.83875
2809.44	-3.64963
2810.77	-3.30836
2812.09	-2.19343
2813.42	-1.03157
2814.75	1.24744
2816.07	3.36768
2817.4	6.18227
2818.73	9.69721
2820.05	14.529
2821.38	19.416
2822.7	24.9333
2824.03	30.7057
2825.35	36.1546
2826.67	42.1874
2828	49.198
2829.32	55.687
2830.65	62.6833
2831.97	69.912
2833.29	77.47
2834.62	84.3142
2835.94	90.5734
2837.26	97.4854
2838.58	103.658
2839.9	109.62
2841.23	115.81
2842.55	121.255
2843.87	125.704
2845.19	130.287
2846.51	134.829
2847.83	140.742
2849.15	147.172
2850.47	153.933
2851.79	161.566
2853.11	169.283
2854.43	177.019
2855.75	185.011
2857.07	191.623
2858.39	198.791
2859.71	205.172
2861.02	210.916
2862.34	215.448
2863.66	219.422
2864.98	223.055
2866.3	225.522
2867.61	227.677
2868.93	229.229
2870.25	230.912
2871.56	232.001
2872.88	233.448
2874.19	234.472
2875.51	236.341
2876.83	238.591
2878.14	240.82
2879.46	242.309
2880.77	243.995
2882.09	244.169
2883.4	244.662
2884.71	244.908
2886.03	245.267
2887.34	244.818
2888.65	244.447
2889.97	242.846
2891.28	241.349
2892.59	240.162
2893.91	238.763
2895.22	236.677
2896.53	234.64
2897.84	233.134
2899.15	230.66
2900.46	227.801
2901.78	225.54
2903.09	223.72
2904.4	221.039
2905.71	218.815
2907.02	217.75
2908.33	217.604
2909.64	217.783
2910.95	219.409
2912.26	222.158
2913.57	226.037
2914.87	230.21
2916.18	233.644
2917.49	237.856
2918.8	241.472
2920.11	244.731
2921.42	247.214
2922.72	249.241
2924.03	251.593
2925.34	252.407
2926.64	252.802
2927.95	253.124
2929.26	253.755
2930.56	253.851
2931.87	253.628
2933.17	253.095
2934.48	252.766
2935.78	250.829
2937.09	248.993
2938.39	247.103
2939.7	243.955
2941	241.478
2942.31	237.921
2943.61	233.806
2944.91	228.426
2946.22	223.121
2947.52	217.131
2948.82	212.106
2950.13	206.191
2951.43	200.975
2952.73	194.892
2954.03	188.955
2955.33	182.558
2956.64	176.564
2957.94	170.616
2959.24	164.704
2960.54	159.081
2961.84	153.703
2963.14	148.684
2964.44	143.1
2965.74	138.384
2967.04	133.42
2968.34	128.186
2969.64	122.935
2970.94	119.344
2972.24	115.388
2973.53	111.332
2974.83	106.868
2976.13	102.371
2977.43	98.2877
2978.73	94.7232
2980.02	90.761
2981.32	86.7188
2982.62	83.3673
2983.91	79.1087
2985.21	75.0835
2986.51	71.4408
2987.8	67.3414
2989.1	63.2019
2990.4	58.9506
2991.69	56.033
2992.99	52.9524
2994.28	50.6341
2995.57	47.4684
2996.87	44.4112
2998.16	41.5084
2999.46	38.588
3000.75	34.4978
3002.05	31.701
3003.34	29.147
3004.63	26.0488
3005.92	23.6355
3007.22	21.433
3008.51	18.8056
3009.8	16.7579
3011.09	14.86
3012.39	12.7371
3013.68	11.8619
3014.97	9.87636
3016.26	9.12643
3017.55	7.55534
3018.84	6.30968
3020.13	4.95174
3021.42	3.6697
3022.71	2.64107
3024	1.63685
3025.29	1.39489
3026.58	0.694802
3027.87	-0.0266808
3029.16	-0.21988
3030.45	-0.32154
3031.73	-0.63039
3033.02	-0.721155
3034.31	-0.0296293
3035.6	0.415457
3036.89	-0.046746
3038.17	0.418566
3039.46	0.771454
3040.75	0.664773
3042.03	0.808432
3043.32	1.25416
3044.61	1.1971
3045.89	1.44223
3047.18	2.15743
3048.46	2.51289
3049.75	2.80288
3051.03	3.21629
3052.32	3.80916
3053.6	4.14138
3054.89	5.26059
3056.17	5.72088
3057.45	6.12464
3058.74	6.65052
3060.02	6.74736
3061.31	7.3335
3062.59	7.56083
3063.87	7.49993
3065.15	7.09255
3066.44	7.06434
3067.72	7.49084
3069	7.07375
3070.28	7.30745
3071.56	7.46089
3072.84	7.07575
3074.13	7.32508
3075.41	6.87712
3076.69	6.51161
3077.97	6.69358
3079.25	6.18172
3080.53	5.80742
3081.81	5.08279
3083.09	4.34204
3084.37	3.95505
3085.64	3.62687
3086.92	3.60411
3088.2	3.58606
3089.48	3.21443
3090.76	3.06205
3092.04	3.60709
3093.31	4.07063
3094.59	4.33218
3095.87	3.55793
3097.14	4.20946
3098.42	4.92181
3099.7	5.1283
3100.97	5.5083
3102.25	6.16561
3103.53	6.58886
3104.8	7.25656
3106.08	8.01105
3107.35	9.47976
3108.63	10.29
3109.9	11.0467
3111.18	12.2386
3112.45	12.9341
3113.73	14.0237
3115	15.3333
3116.27	16.4496
3117.55	17.3164
3118.82	18.4191
3120.09	19.2705
3121.37	20.929
3122.64	21.9318
3123.91	23.1129
3125.18	24.181
3126.45	24.9043
3127.73	25.6625
3129	26.5108
3130.27	27.7469
3131.54	29.5176
3132.81	30.6713
3134.08	32.3568
3135.35	33.4896
3136.62	34.6545
3137.89	35.8478
3139.16	36.7408
3140.43	37.8668
3141.7	38.992
3142.97	39.8818
3144.24	40.7048
3145.51	41.5526
3146.78	42.435
3148.04	43.36
3149.31	44.6901
