#Acq. time (s)=	45
#Accumulations=	2
#Range (cm-¹)=	200...3150
#Windows=	2
#Auto scanning=	Off
#Autofocus=	Off
#Macrospot=	Off
#AutoExposure=	Off
#Spike filter=	Multiple accum.
#Delay time (s)=	0
#Binning=	1
#Readout mode=	Signal
#DeNoise=	Off
#ICS correction=	On
#Dark correction=	Off
#Inst. Process=	Off
#Detector Gain=	Best Dynamic Range
#Detector ADC=	20 kHz       
#Detector temperature (°C)=	-69.85
#Instrument=	LabRAM HR Evol
#Detector=	Synapse
#Objective=	x100
#Grating=	600 gr/mm
#ND Filter=	100%
#Laser (nm)=	532 
#Hole=	100.021
#Range=	Auto
#Laser Pol.=	No
#Raman. Pol.=	No
#Laser Pol. (°)=	-0.0007625
#Raman Pol. (°)=	89.9995
#Collection=	Microscope
#StageXY=	Marzhauser
#StageZ=	Marzhauser
#X (µm)=	-1016.1
#Y (µm)=	659.5
#Z (µm)=	584.35
#Full time(mm:ss)=	3:18
#Project=	
#Sample=	
#Site=	
#Title=	Mb_40_y_22_2x_45s_532 nm_x100_100%_600 gr_mm
#Remark=	
#Date=	19.07.2022 10:45
#Acquired=	19.07.2022 10:45:04
#Base:Fit=	10.08.2022 10:52:48
#Base:Sub=	10.08.2022 10:52:53
#Filter:Polynom=	16.08.2022 10:09:04
#AxisType[0]=Intens
#AxisUnit[0]=Cnt
#AxisType[1]=Spectr
#AxisUnit[1]=1/cm
200.423	31.2017
202.238	25.1052
204.052	21.5652
205.868	17.9694
207.682	15.4158
209.495	12.7574
211.308	10.9616
213.12	9.3003
214.935	8.22807
216.746	6.68246
218.558	5.60082
220.369	5.0352
222.18	4.68461
223.992	4.12763
225.802	4.63112
227.612	4.48839
229.421	4.9433
231.23	6.03159
233.039	6.41713
234.849	6.93195
236.657	7.72883
238.465	7.83051
240.272	9.10747
242.079	10.0894
243.885	10.1586
245.691	9.20691
247.497	8.02328
249.305	8.71781
251.11	8.97339
252.915	11.5127
254.719	13.6841
256.523	16.0299
258.327	17.1646
260.13	19.0125
261.933	21.4401
263.736	22.8753
265.538	23.4591
267.34	25.0304
269.141	26.1271
270.943	26.3609
272.744	27.5379
274.544	28.4115
276.344	29.4547
278.144	29.9504
279.944	30.53
281.743	30.8899
283.542	32.1366
285.34	33.2005
287.138	33.6876
288.936	34.0691
290.733	33.9568
292.53	34.09
294.327	33.1817
296.123	33.5219
297.919	33.7253
299.715	34.0932
301.508	34.738
303.303	34.0448
305.098	33.8794
306.892	33.3187
308.686	33.6014
310.479	33.5044
312.273	33.0624
314.065	32.5354
315.858	32.6826
317.648	32.6113
319.44	32.5163
321.231	31.8297
323.022	31.0653
324.813	30.258
326.604	28.9942
328.392	27.3657
330.181	26.7752
331.971	24.4832
333.76	21.9573
335.548	20.1203
337.335	20.0138
339.123	21.7298
340.91	21.6902
342.698	23.0354
344.483	22.4317
346.269	21.4928
348.055	20.8326
349.841	20.3316
351.625	19.1274
353.41	18.5982
355.195	17.8982
356.977	18.2188
358.762	17.5159
360.545	16.9155
362.329	17.2022
364.11	16.9487
365.893	16.7913
367.675	17.025
369.455	17.2424
371.237	15.9109
373.017	15.3537
374.798	14.691
376.578	13.7466
378.357	13.6903
380.137	12.4399
381.917	12.7034
383.694	12.7203
385.473	13.127
387.249	12.914
389.028	12.1291
390.806	10.8256
392.581	10.6239
394.359	9.54135
396.134	9.67784
397.91	9.20274
399.684	8.73441
401.46	9.26962
403.234	9.39665
405.009	9.23808
406.784	9.43761
408.557	9.0574
410.331	8.35412
412.103	8.3222
413.876	7.04999
415.647	7.08336
417.42	7.16594
419.191	6.50069
420.961	5.39259
422.733	5.30803
424.502	4.94945
426.273	5.84864
428.042	5.57108
429.812	4.47477
431.58	3.83718
433.35	3.95265
435.118	4.89797
436.885	6.1181
438.653	6.96308
440.42	7.34962
442.188	8.7141
443.954	9.66309
445.719	11.568
447.486	11.9289
449.251	12.3035
451.015	13.369
452.781	14.6177
454.545	15.3781
456.308	16.713
458.073	16.3649
459.836	16.2884
461.598	16.3218
463.362	16.6349
465.124	17.1259
466.885	17.6654
468.648	17.0485
470.408	17.5502
472.169	17.0946
473.929	17.3115
475.69	17.11
477.45	16.5882
479.208	16.6152
480.967	17.5108
482.727	17.6255
484.485	18.8405
486.243	17.3438
488	17.3465
489.759	17.7534
491.515	17.0425
493.272	17.2173
495.028	17.8403
496.783	17.6804
498.54	17.2135
500.295	17.2717
502.05	17.2783
503.804	18.2406
505.558	17.6341
507.311	17.1938
509.064	17.0121
510.819	17.0706
512.572	16.9604
514.324	16.9585
516.076	14.8146
517.827	13.8683
519.578	13.8297
521.329	15.3357
523.08	16.8949
524.83	16.6775
526.58	16.4417
528.329	16.8002
530.08	16.6011
531.829	16.4796
533.578	16.2236
535.326	15.7114
537.074	15.5867
538.821	15.7495
540.568	15.8855
542.315	15.2607
544.062	15.1635
545.808	13.9381
547.554	13.4867
549.299	12.991
551.044	14.1762
552.789	13.6295
554.533	13.9197
556.278	13.2857
558.019	14.2425
559.763	14.4736
561.506	14.4728
563.249	13.9751
564.991	13.6095
566.733	13.9143
568.475	13.3117
570.217	12.1473
571.958	11.8546
573.699	11.1765
575.439	11.6683
577.177	11.6914
578.917	11.8978
580.656	12.209
582.396	11.9721
584.134	12.0586
585.873	11.5473
587.609	11.1179
589.347	10.7195
591.084	9.81279
592.822	8.86529
594.558	7.16671
596.295	6.01249
598.029	5.0526
599.765	4.31731
601.5	4.00653
603.235	4.0352
604.968	4.98041
606.703	5.88155
608.437	5.80077
610.171	4.61611
611.902	3.46109
613.635	3.27443
615.368	3.26117
617.099	2.28309
618.831	3.28054
620.563	3.83204
622.294	3.45944
624.024	3.63916
625.755	3.97548
627.485	4.03739
629.213	4.78726
630.943	5.71381
632.673	5.86437
634.4	6.71774
636.129	7.77
637.855	8.31688
639.584	8.18302
641.312	9.8314
643.037	10.1333
644.764	11.503
646.491	12.2078
648.216	12.7169
649.942	14.3826
651.666	15.4111
653.392	16.7739
655.115	16.9148
656.84	17.3046
658.563	18.9695
660.287	19.9961
662.011	20.8072
663.732	22.0982
665.456	23.484
667.177	23.6349
668.899	23.9323
670.62	23.8177
672.342	23.0958
674.061	22.9079
675.781	23.1472
677.502	23.3842
679.22	23.8184
680.941	24.0479
682.659	25.4089
684.379	25.8418
686.096	27.2566
687.815	28.1202
689.532	28.416
691.248	29.1253
692.966	29.824
694.682	29.3652
696.4	29.8814
698.115	30.6519
699.829	31.5123
701.546	32.6316
703.26	32.4071
704.974	32.9319
706.689	31.9931
708.402	32.6716
710.115	33.347
711.83	32.8908
713.542	33.1071
715.254	33.7959
716.967	33.9695
718.679	33.1009
720.39	33.6901
722.102	34.6323
723.812	34.6404
725.522	35.1698
727.232	36.0134
728.943	35.8735
730.652	36.1796
732.361	37.2381
734.069	37.2843
735.779	38.1548
737.487	39.4282
739.194	39.7603
740.901	39.8983
742.608	40.9641
744.316	42.118
746.022	43.0418
747.728	44.3136
749.433	44.6972
751.138	45.6247
752.843	46.8716
754.549	47.7414
756.254	48.5108
757.957	49.2284
759.661	50.8142
761.364	53.7263
763.067	54.5592
764.769	57.0949
766.471	58.9559
768.175	60.3919
769.877	61.964
771.578	64.4368
773.279	66.2507
774.98	68.2989
776.68	69.6646
778.38	70.8991
780.079	72.1173
781.779	73.3613
783.478	74.6804
785.176	75.6997
786.875	76.8104
788.573	77.3185
790.27	78.3561
791.968	79.7806
793.665	81.1707
795.361	81.6958
797.058	81.6882
798.754	82.3879
800.45	82.1812
802.145	82.4195
803.84	81.6543
805.535	82.4422
807.23	82.6091
808.922	82.3193
810.616	82.9525
812.309	82.7801
814.002	82.7977
815.695	83.3227
817.388	83.7473
819.08	82.7163
820.772	83.0743
822.464	83.4423
824.153	81.0371
825.844	80.1335
827.535	79.7145
829.225	79.2562
830.915	78.7343
832.605	77.6433
834.292	76.1648
835.981	75.9249
837.67	74.7181
839.359	73.6446
841.047	72.0475
842.732	71.4236
844.42	71.7446
846.107	71.5543
847.794	70.1076
849.479	70.0901
851.165	68.4594
852.851	67.3791
854.534	65.947
856.22	64.9723
857.905	63.0222
859.589	61.9073
861.272	60.0134
862.956	59.3736
864.639	59.3555
866.321	58.558
868.004	57.9078
869.687	57.1871
871.367	56.942
873.049	55.8058
874.731	55.3671
876.41	55.2217
878.092	54.3213
879.771	54.7726
881.451	53.6717
883.131	53.7461
884.809	52.7765
886.489	52.5021
888.166	50.9665
889.845	51.4478
891.522	51.083
893.2	51.2004
894.878	50.7992
896.554	49.7441
898.231	49.5292
899.906	50.0615
901.583	49.1499
903.258	48.1681
904.934	48.3686
906.608	48.0499
908.283	47.4703
909.956	47.9351
911.631	47.8921
913.304	48.1006
914.976	47.7879
916.65	47.8975
918.322	48.3253
919.995	48.3875
921.666	48.6047
923.339	49.5335
925.009	48.6352
926.679	48.8995
928.351	48.4488
930.021	48.5004
931.692	48.1898
933.361	47.5463
935.029	47.0587
936.699	46.6578
938.367	45.8059
940.035	45.3048
941.704	44.9758
943.371	44.9409
945.038	44.7406
946.706	45.3554
948.372	44.7965
950.038	43.7833
951.705	42.6578
953.37	42.2435
955.035	41.8523
956.7	41.0262
958.366	40.3696
960.03	39.8184
961.693	38.8381
963.357	38.1012
965.021	36.1138
966.684	35.6978
968.346	34.0837
970.008	33.4094
971.67	32.8836
973.334	33.5869
974.995	33.0301
976.655	33.3448
978.316	31.7919
979.976	31.0555
981.638	31.0691
983.297	31.1008
984.957	29.4965
986.616	29.1279
988.274	28.9781
989.932	28.0335
991.59	27.7575
993.248	25.8007
994.907	24.5264
996.565	24.6961
998.221	23.9977
999.878	22.8896
1001.53	21.6546
1003.19	20.8812
1004.85	20.9907
1006.5	21.5125
1008.16	21.6086
1009.81	22.9757
1011.46	25.2246
1013.12	27.672
1014.77	30.5774
1016.43	32.5279
1018.08	34.832
1019.73	36.785
1021.38	38.5928
1023.04	40.8032
1024.69	43.7467
1026.34	45.9666
1027.99	48.5817
1029.64	50.0284
1031.29	51.2821
1032.94	52.6278
1034.59	53.7988
1036.24	54.1323
1037.89	54.8258
1039.54	54.7379
1041.19	55.939
1042.84	56.2951
1044.48	56.342
1046.13	56.2779
1047.78	56.5753
1049.42	56.3347
1051.07	54.7267
1052.72	54.1095
1054.36	53.7345
1056.01	53.0725
1057.66	50.8153
1059.3	48.8266
1060.94	46.0518
1062.59	44.7285
1064.23	42.8211
1065.88	40.7397
1067.52	38.1579
1069.16	35.8064
1070.81	32.8534
1072.45	29.8403
1074.09	27.4138
1075.73	24.2405
1077.38	22.8805
1079.02	21.2685
1080.66	19.1698
1082.3	16.49
1083.94	15.5118
1085.58	15.1261
1087.22	15.7071
1088.86	15.7605
1090.5	15.5726
1092.13	15.5841
1093.77	15.7461
1095.41	16.7185
1097.05	17.5672
1098.68	16.1967
1100.32	15.693
1101.96	15.1623
1103.6	15.503
1105.23	16.8133
1106.87	17.3402
1108.5	18.0714
1110.14	17.2947
1111.77	15.8557
1113.41	15.2333
1115.04	14.3437
1116.67	14.662
1118.31	13.6786
1119.94	14.3795
1121.58	14.118
1123.21	13.7618
1124.84	12.4648
1126.47	11.4126
1128.1	11.5899
1129.73	11.5674
1131.37	10.6444
1133	11.4832
1134.63	12.7507
1136.26	12.5111
1137.89	12.0665
1139.52	11.8237
1141.14	11.9307
1142.77	12.8801
1144.4	13.4239
1146.03	13.2906
1147.66	13.304
1149.29	13.0101
1150.91	12.1904
1152.54	11.723
1154.17	11.5196
1155.79	11.1384
1157.42	10.1231
1159.04	9.15238
1160.67	8.27023
1162.3	8.688
1163.92	7.65416
1165.55	7.78428
1167.17	7.56449
1168.79	7.37291
1170.42	6.15071
1172.04	6.09071
1173.66	6.22141
1175.28	6.37862
1176.91	7.12818
1178.53	6.65259
1180.15	5.90905
1181.77	6.91551
1183.39	7.86951
1185.01	8.29107
1186.63	8.65277
1188.25	8.1934
1189.87	7.5203
1191.49	5.87718
1193.11	6.33867
1194.73	6.71991
1196.35	6.02688
1197.97	6.12138
1199.59	5.25912
1201.2	5.50042
1202.82	5.22933
1204.44	4.99142
1206.05	4.79893
1207.67	5.95207
1209.29	7.10535
1210.9	7.0829
1212.52	7.24448
1214.13	8.63859
1215.75	7.91417
1217.36	7.7355
1218.97	8.72405
1220.59	9.03839
1222.2	9.30205
1223.82	10.0359
1225.43	10.3069
1227.04	10.2216
1228.65	9.9386
1230.26	10.7008
1231.88	11.2645
1233.49	12.0163
1235.1	12.1244
1236.71	11.9399
1238.32	12.3325
1239.93	13.3574
1241.54	14.3505
1243.15	16.0467
1244.76	15.5118
1246.37	15.5717
1247.97	15.7098
1249.58	16.3544
1251.19	16.8515
1252.8	17.7638
1254.41	18.0695
1256.01	18.4294
1257.62	19.3349
1259.23	19.8247
1260.83	19.4408
1262.44	19.8604
1264.04	19.1868
1265.65	19.4684
1267.25	20.7065
1268.86	20.916
1270.46	21.0553
1272.07	22.1244
1273.67	23.2045
1275.27	22.9856
1276.88	23.1904
1278.48	23.3904
1280.08	23.4143
1281.68	23.2324
1283.28	22.7929
1284.89	22.9977
1286.49	23.5743
1288.09	24.0797
1289.69	23.7905
1291.29	23.7322
1292.89	23.1473
1294.49	23.2743
1296.09	22.767
1297.69	23.9418
1299.29	22.8035
1300.88	22.2454
1302.48	22.9053
1304.08	23.5917
1305.68	25.5187
1307.27	25.6133
1308.87	26.349
1310.47	27.4716
1312.06	27.4634
1313.66	27.0167
1315.25	26.5808
1316.85	26.4815
1318.44	26.679
1320.04	26.5381
1321.63	26.9444
1323.23	26.8767
1324.82	26.0393
1326.41	26.993
1328.01	27.1559
1329.6	27.2529
1331.19	26.4254
1332.78	26.3864
1334.38	26.4826
1335.97	26.4751
1337.56	26.6759
1339.15	26.5407
1340.74	26.3786
1342.33	27.1139
1343.92	27.4112
1345.51	27.6533
1347.1	27.9125
1348.69	27.7173
1350.28	28.0592
1351.87	28.1698
1353.46	27.9135
1355.04	27.6042
1356.63	26.8797
1358.22	25.42
1359.81	25.3712
1361.39	24.7545
1362.98	24.9793
1364.57	24.8102
1366.15	24.3525
1367.74	23.1431
1369.32	22.5105
1370.91	21.1251
1372.49	20.638
1374.07	20.2564
1375.66	20.3284
1377.24	20.2743
1378.83	19.7801
1380.41	20.5748
1381.99	21.6322
1383.57	21.8864
1385.16	22.0845
1386.74	21.3981
1388.32	21.334
1389.9	20.4391
1391.48	20.1437
1393.06	20.4157
1394.64	20.2175
1396.22	20.3213
1397.8	20.8051
1399.38	21.5136
1400.96	21.2618
1402.54	20.7576
1404.12	20.9538
1405.7	21.061
1407.28	20.2788
1408.85	20.6898
1410.43	21.1147
1412.01	22.0387
1413.58	22.5123
1415.16	23.0777
1416.74	23.708
1418.31	24.454
1419.89	24.9749
1421.46	25.8922
1423.04	26.8498
1424.61	28.3826
1426.19	29.858
1427.76	30.7387
1429.33	31.9316
1430.91	32.9937
1432.48	33.1916
1434.05	34.6064
1435.63	35.0255
1437.2	35.8392
1438.77	36.8577
1440.34	37.2348
1441.91	38.1699
1443.49	38.3788
1445.05	38.6652
1446.63	38.8811
1448.2	39.6274
1449.77	39.9753
1451.34	39.9479
1452.91	39.9818
1454.47	39.7219
1456.04	39.1021
1457.61	39.5823
1459.18	39.7108
1460.75	39.4436
1462.31	39.0565
1463.88	39.0012
1465.45	38.5767
1467.01	37.7882
1468.58	36.8074
1470.15	37.0298
1471.71	36.6068
1473.28	35.5858
1474.84	35.3345
1476.41	34.8859
1477.97	33.6386
1479.54	32.0938
1481.1	31.6206
1482.66	31.1918
1484.23	31.4238
1485.79	30.4451
1487.35	29.0402
1488.91	28.8281
1490.48	27.9623
1492.04	27.1595
1493.6	26.5645
1495.16	26.2375
1496.72	25.7139
1498.28	24.7025
1499.84	23.793
1501.4	22.7405
1502.96	21.3127
1504.52	19.4791
1506.08	18.79
1507.64	18.2553
1509.2	17.1606
1510.76	17.1233
1512.31	17.4455
1513.87	15.8843
1515.43	14.8225
1516.99	13.7407
1518.54	13.439
1520.1	12.6771
1521.66	11.9406
1523.21	11.1216
1524.77	10.5702
1526.32	9.78874
1527.88	8.8459
1529.43	8.13695
1530.99	7.9457
1532.54	7.57458
1534.09	8.04838
1535.65	8.98386
1537.2	8.82066
1538.75	9.24612
1540.31	9.776
1541.86	9.46063
1543.41	9.71267
1544.96	10.6661
1546.51	11.0334
1548.06	11.9095
1549.62	12.4946
1551.17	13.059
1552.72	14.2061
1554.27	13.7407
1555.82	14.0895
1557.36	15.1237
1558.91	16.2044
1560.46	17.4356
1562.01	17.8199
1563.56	17.3964
1565.11	17.3134
1566.66	18.8538
1568.2	19.7129
1569.75	20.7342
1571.3	21.7438
1572.84	22.6418
1574.39	22.9808
1575.93	23.9063
1577.48	24.5373
1579.02	25.4474
1580.57	25.9741
1582.11	26.7323
1583.66	27.5201
1585.2	28.3563
1586.75	28.6138
1588.29	29.8653
1589.83	29.2252
1591.38	28.9511
1592.92	29.1037
1594.46	28.9934
1596	29.5283
1597.54	29.6802
1599.09	30.089
1600.63	29.8603
1602.17	30.4634
1603.71	30.6585
1605.25	30.4863
1606.79	30.5452
1608.33	30.077
1609.87	29.7494
1611.41	29.8449
1612.95	28.8017
1614.48	28.2046
1616.02	27.8781
1617.56	27.0177
1619.1	26.5218
1620.64	26.9737
1622.17	26.2345
1623.71	25.6569
1625.25	25.0459
1626.78	24.9396
1628.32	24.5758
1629.86	24.0819
1631.39	23.1554
1632.92	23.4038
1634.46	23.9182
1635.99	23.3691
1637.53	23.0581
1639.06	22.8713
1640.59	22.4152
1642.13	23.0418
1643.66	24.516
1645.19	25.0843
1646.73	24.7158
1648.26	24.4517
1649.79	24.4383
1651.32	24.7592
1652.85	24.1544
1654.38	24.8343
1655.92	24.3868
1657.45	24.141
1658.98	24.0689
1660.51	24.1644
1662.04	23.4124
1663.57	23.176
1665.09	23.7486
1666.62	23.196
1668.15	23.377
1669.68	23.3438
1671.21	23.501
1672.73	24.4031
1674.26	24.9321
1675.79	24.7155
1677.31	24.7306
1678.84	24.2604
1680.37	23.0755
1681.89	22.6769
1683.42	22.2103
1684.94	20.8068
1686.47	20.0436
1687.99	19.6752
1689.52	18.8292
1691.04	19.4028
1692.57	19.1239
1694.09	17.8717
1695.61	16.575
1697.14	15.5436
1698.66	14.7288
1700.18	14.4403
1701.7	13.2139
1703.22	12.7805
1704.75	12.1697
1706.27	11.5355
1707.79	11.1723
1709.31	10.429
1710.83	10.3184
1712.35	9.1507
1713.87	8.34449
1715.39	7.71408
1716.91	6.90032
1718.43	7.16356
1719.95	5.89798
1721.46	4.93632
1722.98	4.51436
1724.5	4.61368
1726.02	5.14365
1727.53	5.94176
1729.05	5.84079
1730.57	6.2816
1732.08	5.29833
1733.6	5.54846
1735.12	5.35754
1736.63	5.24248
1738.15	5.2569
1739.66	6.58458
1741.18	6.85528
1742.69	7.16639
1744.21	7.4202
1745.72	7.76275
1747.23	8.35448
1748.74	8.55454
1750.26	8.25847
1751.77	7.75715
1753.28	7.82555
1754.8	7.35349
1756.31	6.78712
1757.82	6.90359
1759.33	6.54159
1760.84	6.08443
1762.35	6.26834
1763.86	6.32807
1765.37	6.06034
1766.88	5.67825
1768.39	4.5031
1769.9	3.74321
1771.41	3.50738
1772.92	3.59619
1774.43	3.58858
1775.93	2.52279
1777.44	2.11386
1778.95	2.45324
1780.46	2.09734
1781.96	1.40447
1783.47	1.30578
1784.98	0.91518
1786.48	0.607313
1787.99	0.247933
1789.49	0.117512
1791	0.684559
1792.5	0.943088
1794.01	0.847371
1795.51	0.665927
1797.02	1.46819
1798.52	1.58971
1800.03	2.01496
1801.53	2.29237
1803.03	2.83962
1804.53	2.47315
1806.04	2.57997
1807.54	3.04775
1809.04	3.21341
1810.54	2.95938
1812.04	3.27994
1813.54	3.74967
1815.05	4.13636
1816.55	4.62671
1818.05	4.78057
1819.55	4.74507
1821.05	4.50612
1822.55	4.32117
1824.05	4.18174
1825.54	4.88655
1827.04	5.2981
1828.54	5.42452
1830.04	5.42872
1831.54	5.33401
1833.03	5.92278
1834.53	6.13399
1836.03	6.22777
1837.52	6.51798
1839.02	6.7332
1840.52	6.8859
1842.01	6.7498
1843.51	6.75643
1845	6.82139
1846.5	6.74508
1847.99	7.41782
1849.49	7.51302
1850.98	7.95426
1852.47	8.72748
1853.97	9.21127
1855.46	8.1648
1856.95	7.69151
1858.45	8.28227
1859.94	8.32082
1861.43	8.11427
1862.92	8.00976
1864.41	7.62674
1865.91	7.13615
1867.4	6.20507
1868.89	4.99596
1870.38	4.90215
1871.87	4.33032
1873.36	3.63024
1874.85	3.94825
1876.34	3.92533
1877.83	3.97399
1879.31	3.37028
1880.8	3.67743
1882.29	3.62558
1882.56	3.33526
1884.05	3.1894
1885.54	3.21086
1887.04	3.80067
1888.53	3.46192
1890.03	3.73311
1891.52	3.74721
1893.01	3.28813
1894.5	3.22361
1895.99	4.00824
1897.49	4.34463
1898.98	4.83038
1900.47	4.55722
1901.96	4.227
1903.45	5.38443
1904.94	5.89221
1906.43	6.07657
1907.92	7.02708
1909.41	7.59075
1910.9	7.85966
1912.39	8.19145
1913.88	8.50085
1915.37	8.89023
1916.86	9.43859
1918.35	9.93044
1919.84	10.5392
1921.32	10.7373
1922.81	10.1733
1924.3	9.73199
1925.78	9.05438
1927.27	8.39495
1928.76	8.07582
1930.24	8.34429
1931.73	8.61382
1933.21	8.33482
1934.7	7.89087
1936.18	7.82804
1937.67	7.91186
1939.15	7.42286
1940.64	7.28012
1942.12	7.07252
1943.6	7.33375
1945.09	7.06813
1946.57	7.22979
1948.05	7.42532
1949.54	7.07444
1951.02	7.25027
1952.5	7.24439
1953.98	7.91719
1955.46	7.43103
1956.94	7.20119
1958.42	7.4306
1959.91	7.16025
1961.39	7.74681
1962.87	7.24648
1964.34	7.44641
1965.82	7.2304
1967.3	6.67572
1968.78	7.10197
1970.26	7.57978
1971.74	7.34491
1973.22	7.56377
1974.7	8.05465
1976.17	8.25808
1977.65	9.66496
1979.13	9.2026
1980.6	8.59543
1982.08	8.85996
1983.56	8.35472
1985.03	7.99629
1986.51	7.82539
1987.98	7.68195
1989.46	8.01722
1990.93	7.99228
1992.41	8.5249
1993.88	8.09214
1995.36	7.40799
1996.83	6.97839
1998.3	6.70052
1999.78	6.83509
2001.25	7.04852
2002.72	7.33418
2004.2	6.76815
2005.67	6.48687
2007.14	6.62395
2008.61	6.41769
2010.08	6.07105
2011.55	6.1718
2013.02	5.63158
2014.49	5.63088
2015.97	5.29499
2017.43	5.09846
2018.9	5.07379
2020.37	5.26756
2021.84	5.50649
2023.31	5.41221
2024.78	5.72015
2026.25	5.62766
2027.72	6.40058
2029.19	6.4241
2030.65	6.97737
2032.12	7.37448
2033.59	6.96879
2035.05	7.93469
2036.52	8.19909
2037.98	8.63676
2039.45	9.66709
2040.92	10.508
2042.38	11.4698
2043.85	12.196
2045.31	12.0128
2046.78	12.4921
2048.24	12.7106
2049.71	12.7676
2051.17	13.0281
2052.63	12.3486
2054.1	11.984
2055.56	12.1306
2057.02	12.138
2058.48	12.2954
2059.95	11.8052
2061.41	12.11
2062.87	12.4
2064.33	11.6038
2065.79	11.5069
2067.25	10.7414
2068.71	9.63369
2070.17	9.23953
2071.63	9.04124
2073.09	9.63136
2074.55	9.04336
2076.01	8.14956
2077.47	7.87493
2078.93	8.14891
2080.39	8.73993
2081.85	8.41584
2083.3	8.69684
2084.76	9.28929
2086.22	9.48758
2087.68	9.34624
2089.13	9.16961
2090.59	9.02112
2092.05	9.85959
2093.5	10.4895
2094.96	10.2778
2096.41	11.0634
2097.87	11.7604
2099.32	12.3381
2100.78	13.0838
2102.23	12.9028
2103.69	13.0662
2105.14	12.9388
2106.59	13.2654
2108.05	14.1782
2109.5	13.867
2110.95	13.885
2112.41	14.315
2113.86	14.8878
2115.31	14.7764
2116.76	14.1533
2118.21	14.3343
2119.67	14.5464
2121.12	15.0815
2122.57	15.3623
2124.02	15.2419
2125.47	15.1669
2126.92	15.2376
2128.37	15.308
2129.82	15.4386
2131.27	15.4378
2132.71	15.7116
2134.16	16.9563
2135.61	17.0253
2137.06	17.2692
2138.51	18.2475
2139.95	19.0241
2141.4	19.3331
2142.85	20.4942
2144.29	21.5084
2145.74	22.7661
2147.19	22.7985
2148.63	24.0229
2150.08	25.6001
2151.52	27.1085
2152.97	28.136
2154.42	29.2364
2155.86	30.303
2157.3	30.7987
2158.75	31.127
2160.19	30.86
2161.64	31.5167
2163.08	31.5522
2164.52	31.8219
2165.96	31.8985
2167.41	32.561
2168.85	33.5996
2170.29	33.1987
2171.73	32.9564
2173.17	33.3189
2174.61	33.2082
2176.06	33.368
2177.5	32.4374
2178.94	32.4539
2180.38	31.5255
2181.82	31.0846
2183.26	30.7131
2184.7	31.3195
2186.14	31.5996
2187.57	30.609
2189.01	29.5547
2190.45	29.1412
2191.89	28.1313
2193.33	27.9221
2194.76	26.5759
2196.2	25.9053
2197.64	24.7728
2199.08	24.1362
2200.51	23.2895
2201.95	22.2467
2203.38	21.6518
2204.82	21.0869
2206.25	20.8132
2207.69	19.9346
2209.12	19.571
2210.56	19.3399
2211.99	18.8184
2213.43	18.3633
2214.86	18.4911
2216.3	18.4638
2217.73	18.3328
2219.16	17.5082
2220.59	17.4874
2222.03	17.6794
2223.46	17.7621
2224.89	16.6688
2226.32	16.5385
2227.75	15.6993
2229.19	15.3206
2230.62	14.4648
2232.05	14.2885
2233.48	14.2616
2234.91	13.8831
2236.34	13.9824
2237.77	14.032
2239.2	13.864
2240.63	13.687
2242.06	13.8445
2243.48	13.4747
2244.91	13.8566
2246.34	13.8219
2247.77	12.9984
2249.2	12.6791
2250.62	13.625
2252.05	13.629
2253.48	14.4781
2254.9	14.4025
2256.33	14.9413
2257.76	14.5469
2259.18	13.9786
2260.61	13.9342
2262.03	14.7954
2263.46	14.9245
2264.88	14.984
2266.31	15.0207
2267.73	14.6636
2269.16	14.2782
2270.58	14.7434
2272	15.1122
2273.43	15.4782
2274.85	15.7831
2276.27	15.717
2277.69	16.0189
2279.12	15.7004
2280.54	16.2043
2281.96	15.8626
2283.38	16.0822
2284.8	16.273
2286.22	16.4386
2287.64	16.2697
2289.07	16.6243
2290.49	16.1887
2291.91	15.9064
2293.32	14.833
2294.74	13.971
2296.16	13.9233
2297.58	14.2177
2299	14.0091
2300.42	13.8039
2301.84	13.5678
2303.26	13.8472
2304.67	13.8532
2306.09	13.5932
2307.51	12.9881
2308.92	13.4813
2310.34	13.7686
2311.76	14.1044
2313.17	13.5444
2314.59	13.1
2316	12.4072
2317.42	11.8087
2318.83	11.461
2320.25	11.7342
2321.66	11.5402
2323.08	10.9054
2324.49	10.4557
2325.91	10.0592
2327.32	9.78319
2328.73	9.59406
2330.15	8.90461
2331.56	9.31056
2332.97	9.15163
2334.38	8.33305
2335.79	7.89535
2337.21	7.73658
2338.62	7.32953
2340.03	6.98405
2341.44	6.89764
2342.85	6.71792
2344.26	5.77837
2345.67	5.29072
2347.08	4.90797
2348.49	5.08387
2349.9	4.85824
2351.31	4.76348
2352.72	4.18114
2354.13	3.7255
2355.53	3.36533
2356.94	3.2514
2358.35	3.23003
2359.76	3.23277
2361.17	2.61702
2362.57	2.46318
2363.98	2.02601
2365.39	3.06954
2366.79	3.55485
2368.2	3.42031
2369.6	3.76545
2371.01	3.44478
2372.42	3.8564
2373.82	3.78693
2375.22	3.74712
2376.63	3.93331
2378.03	3.4062
2379.44	3.55776
2380.84	3.14772
2382.25	2.56966
2383.65	1.95508
2385.05	1.91841
2386.45	1.67049
2387.86	1.91869
2389.26	2.03546
2390.66	1.66986
2392.06	1.6894
2393.46	1.68998
2394.87	2.03053
2396.27	2.55967
2397.67	2.71016
2399.07	2.46921
2400.47	2.32825
2401.87	3.23542
2403.27	3.10426
2404.67	2.7548
2406.07	3.32888
2407.47	4.0317
2408.86	4.58612
2410.26	5.11979
2411.66	5.91414
2413.06	6.26573
2414.46	6.52658
2415.85	7.24846
2417.25	7.19975
2418.65	7.66854
2420.05	8.11031
2421.44	8.53001
2422.84	8.19648
2424.23	8.30682
2425.63	8.87926
2427.03	9.63301
2428.42	10.3715
2429.82	10.6227
2431.21	10.2566
2432.6	9.93787
2434	9.68209
2435.39	10.1903
2436.79	9.8793
2438.18	9.63743
2439.57	9.51575
2440.97	9.46084
2442.36	9.57239
2443.75	8.52836
2445.14	8.38444
2446.54	8.05658
2447.93	6.94804
2449.32	6.64236
2450.71	6.02271
2452.1	5.42008
2453.49	5.33057
2454.88	5.31427
2456.27	4.39227
2457.66	3.5139
2459.05	3.15659
2460.44	2.91612
2461.83	2.58287
2463.22	2.42221
2464.61	2.14
2466	1.79162
2467.39	1.34443
2468.77	1.07947
2470.16	0.965213
2471.55	1.16826
2472.94	1.37455
2474.32	1.52554
2475.71	1.98143
2477.1	2.27584
2478.48	2.21431
2479.87	2.46477
2481.25	1.98667
2482.64	2.01155
2484.02	1.88256
2485.41	2.4597
2486.8	2.20992
2488.18	2.58587
2489.56	2.37703
2490.95	2.51009
2492.33	2.83046
2493.72	3.30827
2495.1	3.32263
2496.48	3.35016
2497.86	3.37179
2499.25	3.49753
2500.63	2.6303
2502.01	3.39631
2503.39	3.31281
2504.77	2.39982
2506.16	2.53146
2507.54	2.60084
2508.92	2.63424
2510.3	2.63654
2511.68	2.36772
2513.06	1.89487
2514.44	2.26481
2515.82	2.3117
2517.2	2.06763
2518.58	1.80265
2519.95	1.87911
2521.33	1.83395
2522.71	1.79375
2524.09	1.95862
2525.47	1.65155
2526.84	1.64223
2528.22	1.3424
2529.6	1.55479
2530.98	1.79485
2532.35	2.00915
2533.73	2.28258
2535.11	2.31607
2536.48	2.09713
2537.86	1.98375
2539.23	1.33142
2540.61	1.77
2541.98	2.10982
2543.36	1.89448
2544.73	2.19555
2546.1	2.04934
2547.48	2.06102
2548.85	2.04058
2550.23	1.78622
2551.6	1.67899
2552.97	1.58585
2554.34	2.16636
2555.72	1.65026
2557.09	2.8235
2558.46	2.92827
2559.83	3.62831
2561.2	3.74037
2562.58	3.19327
2563.95	2.97892
2565.32	2.81272
2566.69	3.55332
2568.06	3.75611
2569.43	3.89689
2570.8	4.45629
2572.17	4.11082
2573.54	3.94399
2574.91	5.24567
2576.27	4.76674
2577.64	4.43195
2579.01	4.11326
2580.38	3.78444
2581.75	3.21859
2583.11	3.70305
2584.48	3.58809
2585.85	3.28949
2587.21	3.33276
2588.58	3.60399
2589.95	3.57169
2591.31	3.35751
2592.68	3.43377
2594.04	3.08528
2595.41	2.346
2596.78	2.48369
2598.14	2.40521
2599.51	2.9404
2600.87	3.1645
2602.23	3.16813
2603.6	2.43404
2604.96	2.16455
2606.32	2.19461
2607.69	1.93873
2609.05	2.43062
2610.41	2.68451
2611.77	3.18053
2613.14	3.49358
2614.5	4.12347
2615.86	5.1024
2617.22	5.15906
2618.58	5.96037
2619.94	6.66091
2621.3	7.50345
2622.67	7.88272
2624.03	8.18634
2625.39	8.88529
2626.75	8.14961
2628.1	8.20594
2629.46	8.23121
2630.82	7.97155
2632.18	7.49812
2633.54	7.41154
2634.9	7.39622
2636.26	7.19602
2637.61	6.90785
2638.97	6.13107
2640.33	5.71472
2641.69	5.36983
2643.04	5.4455
2644.4	4.58734
2645.76	4.69137
2647.11	4.52775
2648.47	4.67078
2649.82	5.04721
2651.18	5.35821
2652.53	5.05993
2653.89	5.00965
2655.24	4.58731
2656.6	4.73934
2657.95	4.20989
2659.31	4.00364
2660.66	4.83856
2662.01	5.31968
2663.37	4.61706
2664.72	5.17509
2666.07	5.53285
2667.43	5.84591
2668.78	5.84252
2670.13	5.24563
2671.48	5.12945
2672.83	5.90949
2674.18	6.56413
2675.53	6.90826
2676.89	7.99535
2678.24	8.81429
2679.59	9.31715
2680.94	9.44698
2682.29	9.63356
2683.64	9.15112
2684.99	8.79809
2686.34	9.2188
2687.68	9.15498
2689.03	9.02519
2690.38	8.71307
2691.73	8.60719
2693.08	8.06884
2694.43	7.41856
2695.77	7.16346
2697.12	7.18894
2698.47	6.25778
2699.81	5.80328
2701.16	5.54581
2702.51	5.45095
2703.85	4.96943
2705.2	4.61112
2706.54	4.46816
2707.89	3.92402
2709.23	4.36269
2710.58	4.55526
2711.92	4.64639
2713.27	4.46965
2714.61	4.08064
2715.96	3.97236
2717.3	4.51623
2718.64	4.35502
2719.99	4.69436
2721.33	4.72122
2722.67	4.40719
2724.01	4.98258
2725.36	4.64925
2726.7	4.98112
2728.04	5.51902
2729.38	4.87815
2730.72	4.2465
2732.06	5.07264
2733.41	4.8953
2734.75	4.62576
2736.09	4.70746
2737.43	4.40215
2738.77	4.45923
2740.11	4.93982
2741.44	4.2684
2742.78	4.34154
2744.12	4.27841
2745.46	4.00433
2746.8	3.30401
2748.14	3.11172
2749.48	2.98776
2750.81	3.14994
2752.15	3.08249
2753.49	3.82762
2754.83	3.46891
2756.16	3.86254
2757.5	3.20775
2758.84	2.68289
2760.17	2.45134
2761.51	2.82409
2762.84	2.42093
2764.18	2.23757
2765.51	1.66813
2766.85	1.98718
2768.18	1.65292
2769.52	1.76771
2770.85	1.66317
2772.19	2.23204
2773.52	2.08181
2774.85	2.14221
2776.19	2.78209
2777.52	2.9586
2778.85	2.87435
2780.18	3.07252
2781.52	3.44929
2782.85	3.82077
2784.18	4.91182
2785.51	4.82604
2786.84	5.38851
2788.17	5.13797
2789.51	5.47994
2790.84	5.54868
2792.17	5.18836
2793.5	5.24116
2794.83	5.5255
2796.16	5.2896
2797.48	5.30431
2798.81	5.23876
2800.14	4.58077
2801.47	4.47152
2802.8	4.17536
2804.13	4.18562
2805.46	3.92461
2806.79	3.85482
2808.11	3.30017
2809.44	3.27829
2810.77	2.93015
2812.09	2.7412
2813.42	2.93448
2814.75	2.95272
2816.07	2.7948
2817.4	3.08896
2818.73	3.41626
2820.05	3.33199
2821.38	2.79149
2822.7	3.00422
2824.03	2.87719
2825.35	3.51539
2826.67	3.48203
2828	3.79873
2829.32	4.08654
2830.65	5.38096
2831.97	6.42925
2833.29	7.15155
2834.62	7.48666
2835.94	8.38317
2837.26	9.23671
2838.58	10.0454
2839.9	10.6888
2841.23	11.6358
2842.55	12.1562
2843.87	13.2137
2845.19	14.5058
2846.51	15.6312
2847.83	16.7082
2849.15	17.9947
2850.47	19.5637
2851.79	21.0076
2853.11	22.2108
2854.43	23.1262
2855.75	24.731
2857.07	25.5224
2858.39	26.9263
2859.71	28.2439
2861.02	29.3559
2862.34	30.201
2863.66	31.0033
2864.98	31.8126
2866.3	32.2074
2867.61	32.5431
2868.93	32.9337
2870.25	32.8727
2871.56	33.0557
2872.88	33.7161
2874.19	34.1054
2875.51	34.5
2876.83	34.7322
2878.14	35.2431
2879.46	36.3446
2880.77	36.0876
2882.09	35.88
2883.4	36.6692
2884.71	36.7334
2886.03	36.8911
2887.34	37.3243
2888.65	37.7508
2889.97	38.5765
2891.28	39.0074
2892.59	39.1835
2893.91	40.2073
2895.22	41.0776
2896.53	41.7244
2897.84	41.96
2899.15	42.5797
2900.46	43.3463
2901.78	44.3344
2903.09	45.1488
2904.4	46.3456
2905.71	47.1593
2907.02	48.14
2908.33	48.5763
2909.64	49.7449
2910.95	51.3513
2912.26	52.3041
2913.57	53.9645
2914.87	55.9199
2916.18	58.3394
2917.49	59.9421
2918.8	60.7558
2920.11	61.6585
2921.42	62.9447
2922.72	63.3992
2924.03	64.2552
2925.34	64.6364
2926.64	64.8098
2927.95	64.8272
2929.26	65.4401
2930.56	65.2044
2931.87	65.3762
2933.17	65.1999
2934.48	65.2318
2935.78	64.8268
2937.09	65.0494
2938.39	64.9937
2939.7	64.1947
2941	63.7007
2942.31	63.1038
2943.61	62.4939
2944.91	62.1882
2946.22	60.7368
2947.52	59.7837
2948.82	59.1488
2950.13	58.175
2951.43	57.2682
2952.73	55.8431
2954.03	54.3958
2955.33	53.6665
2956.64	52.6753
2957.94	51.3117
2959.24	50.0529
2960.54	48.5904
2961.84	47.1556
2963.14	46.2744
2964.44	45.4268
2965.74	44.3367
2967.04	43.2787
2968.34	43.2187
2969.64	42.2764
2970.94	41.0592
2972.24	40.0623
2973.53	39.109
2974.83	38.3359
2976.13	38.1343
2977.43	36.5657
2978.73	36.0632
2980.02	35.22
2981.32	34.4241
2982.62	32.5597
2983.91	30.6973
2985.21	29.3197
2986.51	28.7311
2987.8	27.564
2989.1	25.8228
2990.4	24.7786
2991.69	23.4273
2992.99	22.1582
2994.28	21.4014
2995.57	19.7008
2996.87	18.6167
2998.16	16.8005
2999.46	16.2605
3000.75	15.1896
3002.05	13.988
3003.34	13.0507
3004.63	11.8952
3005.92	11.078
3007.22	10.1976
3008.51	8.97166
3009.8	8.0625
3011.09	6.53058
3012.39	5.91943
3013.68	5.16558
3014.97	3.64467
3016.26	2.22683
3017.55	1.18223
3018.84	0.407146
3020.13	0.807864
3021.42	0.823476
3022.71	0.234683
3024	0.207659
3025.29	0.174238
3026.58	0.715948
3027.87	1.2062
3029.16	0.506273
3030.45	0.832496
3031.73	1.14378
3033.02	1.64281
3034.31	1.10118
3035.6	1.36518
3036.89	1.41067
3038.17	1.82169
3039.46	1.82162
3040.75	2.51664
3042.03	2.43612
3043.32	3.08469
3044.61	3.48526
3045.89	3.66286
3047.18	3.53162
3048.46	4.10845
3049.75	4.70584
3051.03	5.11431
3052.32	5.31578
3053.6	4.96746
3054.89	5.64634
3056.17	5.49685
3057.45	5.76805
3058.74	6.4884
3060.02	6.20283
3061.31	6.60012
3062.59	7.24441
3063.87	7.92005
3065.15	7.36743
3066.44	7.44918
3067.72	7.86088
3069	7.3006
3070.28	7.01628
3071.56	6.24222
3072.84	5.70364
3074.13	5.8836
3075.41	5.55598
3076.69	5.37483
3077.97	4.58262
3079.25	3.83209
3080.53	4.07018
3081.81	4.61506
3083.09	4.70078
3084.37	4.61314
3085.64	4.03766
3086.92	4.00029
3088.2	4.09355
3089.48	3.70971
3090.76	4.06185
3092.04	3.96875
3093.31	3.99916
3094.59	4.89228
3095.87	4.82914
3097.14	4.79165
3098.42	4.9021
3099.7	5.57069
3100.97	5.79894
3102.25	6.34251
3103.53	6.77976
3104.8	7.2432
3106.08	7.77664
3107.35	7.90532
3108.63	8.60805
3109.9	9.44663
3111.18	10.1936
3112.45	10.7667
3113.73	11.3517
3115	12.0682
3116.27	12.2748
3117.55	12.4012
3118.82	13.0345
3120.09	13.7197
3121.37	14.2692
3122.64	14.9358
3123.91	15.0633
3125.18	16.1108
3126.45	16.5367
3127.73	16.3328
3129	16.3764
3130.27	16.9648
3131.54	16.9317
3132.81	16.5328
3134.08	16.8379
3135.35	16.7921
3136.62	17.3401
3137.89	17.3893
3139.16	16.764
3140.43	16.8809
3141.7	16.7988
3142.97	16.7907
3144.24	16.9414
3145.51	16.9438
3146.78	17.5325
3148.04	18.0587
3149.31	17.5047
