#Acq. time (s)=	45
#Accumulations=	2
#Range (cm-¹)=	200...3150
#Windows=	2
#Auto scanning=	Off
#Autofocus=	Off
#Macrospot=	Off
#AutoExposure=	Off
#Spike filter=	Multiple accum.
#Delay time (s)=	0
#Binning=	1
#Readout mode=	Signal
#DeNoise=	Off
#ICS correction=	On
#Dark correction=	Off
#Inst. Process=	Off
#Detector Gain=	Best Dynamic Range
#Detector ADC=	20 kHz       
#Detector temperature (°C)=	-69.85
#Instrument=	LabRAM HR Evol
#Detector=	Synapse
#Objective=	x100
#Grating=	600 gr/mm
#ND Filter=	100%
#Laser (nm)=	532 
#Hole=	100.021
#Range=	Auto
#Laser Pol.=	No
#Raman. Pol.=	No
#Laser Pol. (°)=	-0.0007625
#Raman Pol. (°)=	89.9995
#Collection=	Microscope
#StageXY=	Marzhauser
#StageZ=	Marzhauser
#X (µm)=	-1032.9
#Y (µm)=	687.7
#Z (µm)=	584.55
#Full time(mm:ss)=	3:18
#Project=	
#Sample=	
#Site=	
#Title=	Mb_40_y_10_2x_45s_532 nm_x100_100%_600 gr_mm
#Remark=	
#Date=	19.07.2022 09:37
#Acquired=	19.07.2022 09:37:16
#Base:Fit=	10.08.2022 10:52:48
#Base:Sub=	10.08.2022 10:52:53
#Filter:Polynom=	16.08.2022 10:09:04
#AxisType[0]=Intens
#AxisUnit[0]=Cnt
#AxisType[1]=Spectr
#AxisUnit[1]=1/cm
200.423	4.98405
202.238	5.82907
204.052	6.08466
205.868	7.78971
207.682	9.82624
209.495	11.3925
211.308	12.3986
213.12	13.0526
214.935	13.5853
216.746	13.9121
218.558	14.5005
220.369	12.5989
222.18	11.4798
223.992	11.1927
225.802	12.1182
227.612	11.7671
229.421	12.0076
231.23	11.5864
233.039	11.5932
234.849	10.4533
236.657	11.4847
238.465	12.2452
240.272	11.9786
242.079	11.2309
243.885	10.4734
245.691	10.7983
247.497	10.1977
249.305	9.41381
251.11	9.67872
252.915	8.43738
254.719	8.06374
256.523	7.06986
258.327	7.28474
260.13	7.18178
261.933	7.08962
263.736	6.25302
265.538	5.41764
267.34	5.30878
269.141	5.5832
270.943	4.75664
272.744	4.68147
274.544	4.58958
276.344	4.30716
278.144	4.19125
279.944	4.53216
281.743	4.64039
283.542	6.36309
285.34	6.97167
287.138	6.4306
288.936	6.2374
290.733	6.45063
292.53	7.14304
294.327	7.68123
296.123	6.77379
297.919	6.56829
299.715	7.55705
301.508	7.01775
303.303	7.39066
305.098	7.34089
306.892	7.41302
308.686	7.303
310.479	7.25466
312.273	9.40697
314.065	10.6232
315.858	11.0932
317.648	10.9919
319.44	11.6657
321.231	10.9308
323.022	11.5559
324.813	12.057
326.604	13.0321
328.392	13.5528
330.181	14.6234
331.971	14.4657
333.76	14.8379
335.548	15.8277
337.335	15.7926
339.123	15.27
340.91	15.7438
342.698	14.6892
344.483	15.3013
346.269	15.9251
348.055	16.7434
349.841	16.2779
351.625	16.135
353.41	15.6301
355.195	14.5139
356.977	14.5603
358.762	14.8977
360.545	14.9763
362.329	16.6487
364.11	16.1366
365.893	16.3731
367.675	16.4054
369.455	16.1859
371.237	15.7918
373.017	16.9586
374.798	15.954
376.578	16.0494
378.357	16.4763
380.137	16.0673
381.917	16.8799
383.694	17.0908
385.473	16.2279
387.249	17.4078
389.028	17.3913
390.806	17.4994
392.581	17.8289
394.359	18.216
396.134	19.0855
397.91	20.1305
399.684	21.2287
401.46	22.8172
403.234	22.5466
405.009	22.5323
406.784	23.2082
408.557	23.4473
410.331	23.6507
412.103	24.2065
413.876	23.7556
415.647	23.4942
417.42	24.6378
419.191	24.2819
420.961	22.2755
422.733	22.0221
424.502	21.2381
426.273	20.3623
428.042	18.9636
429.812	18.8908
431.58	17.6161
433.35	17.1197
435.118	17.3201
436.885	16.2021
438.653	15.3525
440.42	15.2805
442.188	14.8203
443.954	13.6524
445.719	14.8384
447.486	15.2061
449.251	14.5521
451.015	14.6002
452.781	14.184
454.545	13.4176
456.308	12.7924
458.073	13.0584
459.836	12.443
461.598	13.4918
463.362	12.6041
465.124	13.4104
466.885	14.5482
468.648	16.1131
470.408	16.1802
472.169	17.665
473.929	19.5
475.69	22.0639
477.45	22.5203
479.208	24.2418
480.967	25.8334
482.727	27.6715
484.485	29.1685
486.243	31.2697
488	33.5878
489.759	35.9339
491.515	35.7371
493.272	36.9046
495.028	38.1752
496.783	39.2881
498.54	39.4454
500.295	40.0446
502.05	41.6739
503.804	41.9479
505.558	43.0172
507.311	42.6119
509.064	42.5936
510.819	42.8112
512.572	42.8961
514.324	43.4132
516.076	43.9333
517.827	44.0592
519.578	43.7002
521.329	44.0102
523.08	44.4143
524.83	44.0919
526.58	43.0218
528.329	42.027
530.08	41.4401
531.829	40.5248
533.578	40.7807
535.326	39.4685
537.074	39.432
538.821	39.2962
540.568	37.8803
542.315	37.1684
544.062	37.0436
545.808	36.0139
547.554	34.6465
549.299	35.3634
551.044	33.5549
552.789	33.1532
554.533	32.0514
556.278	30.9968
558.019	29.3074
559.763	28.6371
561.506	26.9856
563.249	24.8158
564.991	23.9107
566.733	23.0516
568.475	22.464
570.217	21.385
571.958	20.7946
573.699	21.0707
575.439	19.7363
577.177	18.5282
578.917	16.2788
580.656	15.7187
582.396	15.479
584.134	14.2291
585.873	12.009
587.609	10.8175
589.347	9.11989
591.084	6.39498
592.822	6.29992
594.558	5.85587
596.295	5.69117
598.029	5.25809
599.765	5.11933
601.5	4.5973
603.235	4.94841
604.968	4.67166
606.703	5.29986
608.437	5.11532
610.171	5.59056
611.902	5.32315
613.635	4.02981
615.368	5.19928
617.099	5.74333
618.831	5.95024
620.563	6.14399
622.294	5.2047
624.024	5.08057
625.755	5.42622
627.485	6.10841
629.213	7.11641
630.943	6.58794
632.673	6.84684
634.4	7.85506
636.129	8.49647
637.855	8.07517
639.584	8.49996
641.312	8.58199
643.037	9.68036
644.764	8.79995
646.491	8.07629
648.216	8.3418
649.942	9.30539
651.666	9.80048
653.392	9.61996
655.115	10.0432
656.84	10.4336
658.563	10.5694
660.287	11.147
662.011	10.881
663.732	11.6233
665.456	11.2397
667.177	11.6408
668.899	12.3724
670.62	11.8634
672.342	11.5212
674.061	12.4028
675.781	13.952
677.502	15.228
679.22	16.4379
680.941	17.6596
682.659	18.7485
684.379	20.7004
686.096	21.1505
687.815	23.3575
689.532	25.382
691.248	26.4568
692.966	27.6816
694.682	28.7276
696.4	31.9642
698.115	32.4946
699.829	34.068
701.546	36.9696
703.26	38.8172
704.974	40.4892
706.689	42.502
708.402	44.2904
710.115	47.168
711.83	49.8189
713.542	51.0605
715.254	52.066
716.967	53.5351
718.679	54.1432
720.39	54.6687
722.102	54.9269
723.812	54.6153
725.522	55.1935
727.232	55.129
728.943	55.3442
730.652	53.6617
732.361	53.2132
734.069	54.013
735.779	54.1318
737.487	53.2882
739.194	53.7706
740.901	52.9503
742.608	52.1033
744.316	51.1809
746.022	51.3632
747.728	50.8267
749.433	49.7126
751.138	49.2882
752.843	48.5194
754.549	49.0962
756.254	48.3304
757.957	47.5348
759.661	47.5341
761.364	47.7953
763.067	47.784
764.769	48.1601
766.471	48.9858
768.175	49.812
769.877	49.7077
771.578	50.7341
773.279	52.2527
774.98	52.458
776.68	53.0382
778.38	54.9843
780.079	56.3036
781.779	57.7937
783.478	57.432
785.176	58.4882
786.875	59.6493
788.573	61.4179
790.27	61.277
791.968	62.1913
793.665	62.6122
795.361	61.8822
797.058	62.707
798.754	63.3594
800.45	64.1192
802.145	64.1381
803.84	64.5278
805.535	65.5665
807.23	65.5443
808.922	65.998
810.616	66.1197
812.309	65.1184
814.002	64.2834
815.695	64.2615
817.388	65.2003
819.08	64.9831
820.772	63.9717
822.464	64.0206
824.153	63.9635
825.844	63.3558
827.535	62.3163
829.225	62.8531
830.915	63.6927
832.605	63.2086
834.292	62.1927
835.981	61.9633
837.67	60.662
839.359	60.1199
841.047	59.072
842.732	58.6664
844.42	59.2534
846.107	58.9053
847.794	58.2455
849.479	56.8617
851.165	55.2724
852.851	53.6407
854.534	52.2742
856.22	52.1521
857.905	49.8392
859.589	49.6342
861.272	49.4784
862.956	49.5764
864.639	49.1473
866.321	48.828
868.004	47.4486
869.687	46.954
871.367	46.7751
873.049	45.4266
874.731	43.6453
876.41	43.2061
878.092	43.1834
879.771	42.7151
881.451	43.9679
883.131	43.4528
884.809	43.0044
886.489	41.6603
888.166	41.867
889.845	41.5214
891.522	41.4668
893.2	41.2616
894.878	40.7496
896.554	40.9795
898.231	40.9527
899.906	40.9619
901.583	40.931
903.258	40.0747
904.934	40.5683
906.608	41.2943
908.283	40.7929
909.956	40.671
911.631	40.4569
913.304	40.5084
914.976	40.4567
916.65	39.333
918.322	38.1078
919.995	38.1714
921.666	38.2119
923.339	39.1791
925.009	40.2582
926.679	40.4784
928.351	41.1378
930.021	39.4604
931.692	38.6306
933.361	38.1657
935.029	38.2088
936.699	39.1376
938.367	40.1231
940.035	40.167
941.704	40.3119
943.371	40.8625
945.038	40.2495
946.706	39.6309
948.372	38.6983
950.038	37.4086
951.705	36.8934
953.37	36.9001
955.035	36.3902
956.7	35.8588
958.366	36.2247
960.03	36.055
961.693	35.6913
963.357	34.7157
965.021	34.1442
966.684	34.2272
968.346	34.1291
970.008	34.8165
971.67	36.135
973.334	37.1941
974.995	37.1325
976.655	37.6373
978.316	37.3318
979.976	37.8055
981.638	38.5186
983.297	38.2595
984.957	39.294
986.616	37.3189
988.274	36.8013
989.932	37.4942
991.59	36.9729
993.248	35.8989
994.907	34.1593
996.565	31.7595
998.221	29.7259
999.878	26.2991
1001.53	22.6786
1003.19	20.6629
1004.85	18.4642
1006.5	17.2985
1008.16	21.4306
1009.81	27.2166
1011.46	35.6796
1013.12	46.8894
1014.77	61.6447
1016.43	77.8226
1018.08	94.3065
1019.73	110.707
1021.38	125.756
1023.04	140.887
1024.69	156.28
1026.34	170.56
1027.99	183.255
1029.64	195.88
1031.29	205.811
1032.94	216.127
1034.59	225.951
1036.24	233.481
1037.89	239.473
1039.54	244.646
1041.19	249.513
1042.84	253.613
1044.48	255.854
1046.13	257.672
1047.78	257.638
1049.42	256.863
1051.07	254.871
1052.72	251.944
1054.36	247.145
1056.01	240.258
1057.66	233.292
1059.3	225.572
1060.94	215.069
1062.59	205.341
1064.23	193.321
1065.88	179.206
1067.52	164.932
1069.16	148.884
1070.81	134.352
1072.45	118.848
1074.09	101.18
1075.73	83.532
1077.38	66.3041
1079.02	51.1199
1080.66	35.2896
1082.3	22.4209
1083.94	13.1263
1085.58	6.58762
1087.22	2.43296
1088.86	2.16895
1090.5	5.14718
1092.13	7.29259
1093.77	11.4693
1095.41	16.4309
1097.05	18.8869
1098.68	20.7124
1100.32	22.1582
1101.96	23.0776
1103.6	24.164
1105.23	24.6339
1106.87	24.772
1108.5	25.4616
1110.14	25.7625
1111.77	26.2391
1113.41	25.7469
1115.04	26.3898
1116.67	26.9543
1118.31	26.6565
1119.94	25.6592
1121.58	26.0643
1123.21	26.4632
1124.84	26.5557
1126.47	25.7915
1128.1	25.6819
1129.73	25.1297
1131.37	25.5627
1133	26.015
1134.63	24.6422
1136.26	24.2264
1137.89	22.9907
1139.52	23.0073
1141.14	22.5646
1142.77	20.606
1144.4	20.0344
1146.03	19.1045
1147.66	17.4214
1149.29	16.323
1150.91	15.6375
1152.54	14.7604
1154.17	13.2881
1155.79	11.9925
1157.42	10.1643
1159.04	8.55345
1160.67	8.14237
1162.3	6.36482
1163.92	6.56049
1165.55	5.98663
1167.17	5.22639
1168.79	4.68662
1170.42	5.39347
1172.04	5.12621
1173.66	5.78147
1175.28	6.2268
1176.91	5.83556
1178.53	5.16687
1180.15	5.54541
1181.77	5.47818
1183.39	5.55663
1185.01	5.13526
1186.63	5.17819
1188.25	5.87944
1189.87	6.0968
1191.49	5.74364
1193.11	4.91071
1194.73	4.97427
1196.35	4.91891
1197.97	5.54432
1199.59	6.27108
1201.2	6.04854
1202.82	8.41326
1204.44	10.0899
1206.05	11.9155
1207.67	13.028
1209.29	14.3111
1210.9	16.2352
1212.52	19.5328
1214.13	22.1204
1215.75	23.1553
1217.36	25.932
1218.97	27.8157
1220.59	30.1484
1222.2	32.1431
1223.82	33.4968
1225.43	36.5874
1227.04	39.0154
1228.65	39.8257
1230.26	41.9028
1231.88	43.8754
1233.49	45.0998
1235.1	47.4554
1236.71	49.0092
1238.32	50.4812
1239.93	53.7273
1241.54	56.9154
1243.15	59.0531
1244.76	61.3908
1246.37	63.4731
1247.97	66.921
1249.58	69.0082
1251.19	70.6926
1252.8	72.8888
1254.41	74.2701
1256.01	76.1155
1257.62	77.8779
1259.23	78.9166
1260.83	80.0761
1262.44	81.0117
1264.04	82.6552
1265.65	83.4824
1267.25	85.7162
1268.86	87.0393
1270.46	88.3354
1272.07	90.153
1273.67	90.8574
1275.27	91.7365
1276.88	92.5237
1278.48	93.7933
1280.08	95.477
1281.68	96.2291
1283.28	98.1843
1284.89	99.5453
1286.49	100.957
1288.09	101.717
1289.69	103.32
1291.29	105.984
1292.89	107.155
1294.49	106.873
1296.09	106.54
1297.69	106.975
1299.29	107.852
1300.88	107.421
1302.48	108.368
1304.08	109.648
1305.68	109.866
1307.27	110.681
1308.87	109.88
1310.47	110.51
1312.06	109.873
1313.66	110.721
1315.25	110.555
1316.85	109.859
1318.44	110.435
1320.04	111.136
1321.63	110.974
1323.23	110.058
1324.82	110.528
1326.41	110.586
1328.01	110.443
1329.6	108.902
1331.19	107.655
1332.78	107.24
1334.38	104.952
1335.97	104.302
1337.56	102.882
1339.15	100.474
1340.74	98.6737
1342.33	96.9494
1343.92	95.4695
1345.51	93.6023
1347.1	91.9117
1348.69	88.5666
1350.28	85.967
1351.87	83.1556
1353.46	80.3908
1355.04	78.0877
1356.63	76.4259
1358.22	75.0225
1359.81	73.2729
1361.39	70.7084
1362.98	68.7509
1364.57	67.2592
1366.15	65.1955
1367.74	63.1867
1369.32	62.0913
1370.91	59.6901
1372.49	57.4192
1374.07	56.1022
1375.66	56.1168
1377.24	55.6796
1378.83	55.6858
1380.41	55.0396
1381.99	55.1312
1383.57	54.8204
1385.16	54.2951
1386.74	53.9741
1388.32	52.4102
1389.9	52.6043
1391.48	53.5481
1393.06	54.7711
1394.64	54.5778
1396.22	55.6375
1397.8	57.0635
1399.38	58.7504
1400.96	59.9501
1402.54	60.6618
1404.12	62.1411
1405.7	63.1627
1407.28	63.2747
1408.85	64.1048
1410.43	65.1736
1412.01	67.1789
1413.58	68.3891
1415.16	71.0017
1416.74	72.9368
1418.31	75.1295
1419.89	77.4192
1421.46	80.4319
1423.04	83.659
1424.61	87.8295
1426.19	91.5323
1427.76	94.9231
1429.33	99.2254
1430.91	103.357
1432.48	105.956
1434.05	109.225
1435.63	113.021
1437.2	115.511
1438.77	117.234
1440.34	118.415
1441.91	120.226
1443.49	121.648
1445.05	122.086
1446.63	122.841
1448.2	122.96
1449.77	122.998
1451.34	123.94
1452.91	123.821
1454.47	122.911
1456.04	120.639
1457.61	118.857
1459.18	116.276
1460.75	113.746
1462.31	110.917
1463.88	108.028
1465.45	105.691
1467.01	103.583
1468.58	100.965
1470.15	98.0926
1471.71	93.866
1473.28	89.7058
1474.84	86.2525
1476.41	82.3976
1477.97	79.2891
1479.54	75.1392
1481.1	70.4523
1482.66	66.4196
1484.23	62.8157
1485.79	59.092
1487.35	57.1336
1488.91	54.4392
1490.48	52.288
1492.04	50.0963
1493.6	47.8676
1495.16	45.0502
1496.72	43.4334
1498.28	42.1963
1499.84	41.3528
1501.4	41.0702
1502.96	39.9877
1504.52	38.4651
1506.08	35.6701
1507.64	34.6924
1509.2	33.3473
1510.76	31.4771
1512.31	30.9599
1513.87	29.5484
1515.43	27.687
1516.99	25.9383
1518.54	24.3981
1520.1	24.4231
1521.66	23.5432
1523.21	23.659
1524.77	23.7704
1526.32	23.4741
1527.88	23.8806
1529.43	24.2212
1530.99	24.2226
1532.54	23.6133
1534.09	24.3238
1535.65	24.3571
1537.2	24.8806
1538.75	26.2429
1540.31	26.925
1541.86	28.7098
1543.41	29.8578
1544.96	30.4728
1546.51	31.6878
1548.06	32.5823
1549.62	34.1382
1551.17	35.8711
1552.72	37.4832
1554.27	38.7712
1555.82	41.0265
1557.36	42.2024
1558.91	43.3256
1560.46	46.5813
1562.01	48.6915
1563.56	51.0747
1565.11	53.1871
1566.66	54.7081
1568.2	56.3446
1569.75	58.4724
1571.3	59.3292
1572.84	61.5844
1574.39	64.655
1575.93	66.7949
1577.48	67.7929
1579.02	69.0907
1580.57	70.2035
1582.11	72.3379
1583.66	73.0974
1585.2	75.0438
1586.75	76.5179
1588.29	77.3167
1589.83	77.8626
1591.38	78.5435
1592.92	78.7697
1594.46	79.7218
1596	80.3804
1597.54	80.9952
1599.09	81.2551
1600.63	81.8307
1602.17	81.7126
1603.71	81.3206
1605.25	81.5908
1606.79	81.4619
1608.33	80.5684
1609.87	79.945
1611.41	80.1385
1612.95	79.8016
1614.48	79.657
1616.02	79.7225
1617.56	79.8502
1619.1	81.2283
1620.64	81.7191
1622.17	82.341
1623.71	83.2079
1625.25	84.3205
1626.78	85.4964
1628.32	86.3227
1629.86	88.5004
1631.39	90.5948
1632.92	92.3282
1634.46	93.8525
1635.99	96.1479
1637.53	98.3962
1639.06	100.027
1640.59	102.872
1642.13	104.766
1643.66	106.639
1645.19	109.009
1646.73	111.316
1648.26	112.674
1649.79	115.021
1651.32	115.993
1652.85	116.033
1654.38	116.405
1655.92	116.885
1657.45	117.321
1658.98	117.098
1660.51	115.608
1662.04	114.604
1663.57	113.326
1665.09	110.339
1666.62	108.843
1668.15	106.644
1669.68	103.669
1671.21	101.05
1672.73	97.3001
1674.26	93.7405
1675.79	90.6951
1677.31	87.538
1678.84	83.6505
1680.37	79.2396
1681.89	75.2249
1683.42	71.7771
1684.94	67.5739
1686.47	63.0903
1687.99	58.9754
1689.52	54.664
1691.04	50.5811
1692.57	47.3417
1694.09	43.9326
1695.61	40.9427
1697.14	36.9822
1698.66	33.9991
1700.18	32.1173
1701.7	29.3944
1703.22	26.2309
1704.75	24.4233
1706.27	22.5345
1707.79	19.8087
1709.31	18.0986
1710.83	17.1276
1712.35	15.9907
1713.87	14.6255
1715.39	13.8685
1716.91	12.4861
1718.43	11.2222
1719.95	10.36
1721.46	10.087
1722.98	9.28947
1724.5	8.69559
1726.02	8.4986
1727.53	7.40398
1729.05	6.93956
1730.57	6.03098
1732.08	5.69533
1733.6	5.46687
1735.12	5.49818
1736.63	5.53349
1738.15	6.204
1739.66	6.4594
1741.18	6.85744
1742.69	7.63069
1744.21	6.59264
1745.72	6.86432
1747.23	6.51606
1748.74	6.6011
1750.26	7.15819
1751.77	7.94324
1753.28	7.80279
1754.8	7.27396
1756.31	6.47378
1757.82	6.3682
1759.33	6.59972
1760.84	5.47602
1762.35	5.54078
1763.86	5.6461
1765.37	5.56367
1766.88	5.57651
1768.39	5.50732
1769.9	5.88883
1771.41	5.43225
1772.92	5.52961
1774.43	5.76546
1775.93	5.63673
1777.44	5.34338
1778.95	5.64679
1780.46	5.21973
1781.96	4.65125
1783.47	4.71724
1784.98	4.30052
1786.48	4.01569
1787.99	4.00169
1789.49	4.11311
1791	3.80222
1792.5	3.59094
1794.01	3.78587
1795.51	3.64126
1797.02	4.00066
1798.52	3.8033
1800.03	3.71558
1801.53	3.29726
1803.03	2.52936
1804.53	2.19288
1806.04	1.94458
1807.54	2.23146
1809.04	2.33762
1810.54	2.98372
1812.04	2.87776
1813.54	2.67534
1815.05	2.49223
1816.55	1.93861
1818.05	1.77193
1819.55	1.18418
1821.05	1.41277
1822.55	1.10831
1824.05	1.27921
1825.54	1.13537
1827.04	0.461895
1828.54	-0.132701
1830.04	-0.0702746
1831.54	-0.946109
1833.03	-0.261644
1834.53	-0.0665394
1836.03	0.551778
1837.52	1.32025
1839.02	1.23403
1840.52	1.55149
1842.01	1.44674
1843.51	1.26856
1845	1.24366
1846.5	1.04787
1847.99	1.69829
1849.49	1.63498
1850.98	1.95246
1852.47	2.2509
1853.97	1.69115
1855.46	1.05045
1856.95	1.58371
1858.45	2.11199
1859.94	1.82786
1861.43	2.26272
1862.92	2.39181
1864.41	2.51807
1865.91	2.38937
1867.4	3.09444
1868.89	3.02148
1870.38	2.87057
1871.87	3.12807
1873.36	3.18539
1874.85	2.79599
1876.34	2.54533
1877.83	2.6747
1879.31	2.37541
1880.8	2.59291
1882.29	2.93157
1882.56	3.93919
1884.05	4.13388
1885.54	3.64361
1887.04	3.32742
1888.53	3.4337
1890.03	3.81078
1891.52	4.091
1893.01	3.63343
1894.5	3.42352
1895.99	3.96137
1897.49	4.11848
1898.98	4.28061
1900.47	4.38847
1901.96	4.1144
1903.45	4.99986
1904.94	5.29331
1906.43	6.05535
1907.92	6.69098
1909.41	7.12282
1910.9	6.14363
1912.39	5.2366
1913.88	5.14456
1915.37	4.91944
1916.86	5.22303
1918.35	5.68018
1919.84	6.00941
1921.32	6.17044
1922.81	5.9799
1924.3	6.14888
1925.78	5.89909
1927.27	6.05817
1928.76	5.99085
1930.24	5.9723
1931.73	6.06965
1933.21	6.23214
1934.7	6.74151
1936.18	6.27723
1937.67	6.28489
1939.15	6.32544
1940.64	5.7758
1942.12	5.14726
1943.6	4.84098
1945.09	4.68969
1946.57	4.0254
1948.05	4.17321
1949.54	4.07383
1951.02	3.71311
1952.5	3.55771
1953.98	4.33542
1955.46	4.56476
1956.94	3.9869
1958.42	3.08713
1959.91	2.95574
1961.39	3.04271
1962.87	3.89263
1964.34	4.49577
1965.82	3.61991
1967.3	3.73648
1968.78	3.85983
1970.26	4.10704
1971.74	4.41846
1973.22	4.51169
1974.7	4.41746
1976.17	4.35833
1977.65	4.93724
1979.13	4.60516
1980.6	4.73016
1982.08	4.48579
1983.56	4.29852
1985.03	4.7896
1986.51	5.71612
1987.98	6.76439
1989.46	7.48829
1990.93	7.83215
1992.41	8.13256
1993.88	8.18733
1995.36	7.75076
1996.83	7.50466
1998.3	7.17761
1999.78	7.33034
2001.25	7.2263
2002.72	6.2879
2004.2	5.90805
2005.67	6.20762
2007.14	6.26115
2008.61	6.28713
2010.08	6.32904
2011.55	6.91702
2013.02	6.82762
2014.49	6.21634
2015.97	6.71194
2017.43	6.33847
2018.9	6.3769
2020.37	6.44801
2021.84	6.92782
2023.31	7.44711
2024.78	8.03176
2026.25	9.20734
2027.72	9.19987
2029.19	9.48156
2030.65	9.49042
2032.12	9.95094
2033.59	10.4022
2035.05	10.3098
2036.52	10.8002
2037.98	10.991
2039.45	11.1149
2040.92	12.2891
2042.38	12.5306
2043.85	13.3447
2045.31	14.4491
2046.78	14.7349
2048.24	14.4579
2049.71	15.0379
2051.17	15.839
2052.63	16.6264
2054.1	17.6835
2055.56	18.751
2057.02	19.7105
2058.48	21.2041
2059.95	21.3396
2061.41	21.921
2062.87	22.3663
2064.33	22.7764
2065.79	23.3597
2067.25	23.3409
2068.71	24.3298
2070.17	25.2383
2071.63	26.0987
2073.09	27.2429
2074.55	27.7509
2076.01	28.5543
2077.47	30.4822
2078.93	32.1903
2080.39	33.3994
2081.85	34.9651
2083.3	35.9301
2084.76	36.0254
2086.22	36.4147
2087.68	38.2547
2089.13	39.4112
2090.59	40.5668
2092.05	42.2902
2093.5	43.7097
2094.96	45.9627
2096.41	48.6945
2097.87	49.7531
2099.32	51.228
2100.78	52.2557
2102.23	54.1985
2103.69	55.6845
2105.14	57.4611
2106.59	59.9589
2108.05	61.8886
2109.5	64.1809
2110.95	65.7718
2112.41	67.7669
2113.86	70.2221
2115.31	72.0584
2116.76	75.0963
2118.21	77.4195
2119.67	79.6839
2121.12	82.2374
2122.57	85.2933
2124.02	88.2205
2125.47	91.162
2126.92	94.6127
2128.37	98.3526
2129.82	101.436
2131.27	105.112
2132.71	108.282
2134.16	111.867
2135.61	115.56
2137.06	119.521
2138.51	122.396
2139.95	126.369
2141.4	130.274
2142.85	132.403
2144.29	134.786
2145.74	137.755
2147.19	140.364
2148.63	143.886
2150.08	146.556
2151.52	148.897
2152.97	151.426
2154.42	153.29
2155.86	155.457
2157.3	157.874
2158.75	159.759
2160.19	161.374
2161.64	162.543
2163.08	164.504
2164.52	166.61
2165.96	167.176
2167.41	168.742
2168.85	169.201
2170.29	168.499
2171.73	168.926
2173.17	168.946
2174.61	168.482
2176.06	168.124
2177.5	167.528
2178.94	166.401
2180.38	164.554
2181.82	163.334
2183.26	161.722
2184.7	160.729
2186.14	158.604
2187.57	156.258
2189.01	154.313
2190.45	152.029
2191.89	149.95
2193.33	147.019
2194.76	143.968
2196.2	141.53
2197.64	139.515
2199.08	136.98
2200.51	134.369
2201.95	131.691
2203.38	128.788
2204.82	126.045
2206.25	122.964
2207.69	119.834
2209.12	116.596
2210.56	112.936
2211.99	110.159
2213.43	106.366
2214.86	102.359
2216.3	99.1826
2217.73	96.8145
2219.16	93.9897
2220.59	91.0222
2222.03	87.1935
2223.46	84.8947
2224.89	81.7473
2226.32	79.2984
2227.75	78.0413
2229.19	74.9243
2230.62	72.1601
2232.05	70.4084
2233.48	68.7695
2234.91	66.7122
2236.34	65.1039
2237.77	62.726
2239.2	61.0196
2240.63	59.07
2242.06	56.7243
2243.48	55.4029
2244.91	53.7752
2246.34	52.1506
2247.77	51.0841
2249.2	50.2484
2250.62	48.6036
2252.05	47.0127
2253.48	45.809
2254.9	44.6271
2256.33	43.2325
2257.76	41.8747
2259.18	40.9427
2260.61	39.9907
2262.03	39.4878
2263.46	38.4253
2264.88	37.0587
2266.31	36.7413
2267.73	36.0858
2269.16	35.1495
2270.58	33.8895
2272	32.9692
2273.43	32.1675
2274.85	31.2805
2276.27	30.9103
2277.69	30.066
2279.12	29.2877
2280.54	28.4106
2281.96	27.4742
2283.38	26.6858
2284.8	25.5548
2286.22	24.4426
2287.64	23.7456
2289.07	23.4016
2290.49	22.0357
2291.91	20.6247
2293.32	20.0389
2294.74	19.1985
2296.16	18.8257
2297.58	19.8915
2299	20.0861
2300.42	19.1114
2301.84	20.1803
2303.26	19.8861
2304.67	19.5189
2306.09	19.6896
2307.51	19.892
2308.92	19.3595
2310.34	18.6256
2311.76	18.5619
2313.17	17.9933
2314.59	18.1572
2316	18.1363
2317.42	17.8926
2318.83	17.9447
2320.25	17.5519
2321.66	16.8495
2323.08	16.6015
2324.49	17.4531
2325.91	16.8766
2327.32	16.3064
2328.73	16.0238
2330.15	15.5312
2331.56	15.2093
2332.97	15.5148
2334.38	15.0113
2335.79	13.9778
2337.21	13.6643
2338.62	12.3857
2340.03	12.4828
2341.44	11.7964
2342.85	10.8636
2344.26	10.4352
2345.67	9.85228
2347.08	8.35359
2348.49	7.80004
2349.9	6.96081
2351.31	5.71851
2352.72	4.82751
2354.13	4.19673
2355.53	3.51804
2356.94	2.79516
2358.35	1.95974
2359.76	1.7855
2361.17	0.917159
2362.57	0.627912
2363.98	0.275915
2365.39	0.522278
2366.79	1.58083
2368.2	1.45111
2369.6	1.13513
2371.01	0.469741
2372.42	0.928961
2373.82	0.389528
2375.22	-0.0831728
2376.63	-0.319126
2378.03	-0.493301
2379.44	0.135728
2380.84	0.274195
2382.25	0.491387
2383.65	0.731577
2385.05	1.22265
2386.45	1.50932
2387.86	1.31066
2389.26	1.33662
2390.66	2.01112
2392.06	3.04268
2393.46	4.18239
2394.87	5.12449
2396.27	4.89069
2397.67	5.24537
2399.07	5.73881
2400.47	5.91589
2401.87	6.60749
2403.27	7.56595
2404.67	7.59151
2406.07	8.0558
2407.47	8.99589
2408.86	8.90969
2410.26	9.26916
2411.66	8.18426
2413.06	8.70405
2414.46	8.87821
2415.85	9.09898
2417.25	9.21185
2418.65	9.76934
2420.05	8.85614
2421.44	8.53346
2422.84	8.30601
2424.23	8.98347
2425.63	8.59988
2427.03	8.31394
2428.42	8.00559
2429.82	7.65818
2431.21	6.65299
2432.6	6.12825
2434	5.66247
2435.39	5.56443
2436.79	4.85946
2438.18	4.5712
2439.57	4.63003
2440.97	4.38563
2442.36	4.38619
2443.75	3.88705
2445.14	4.2808
2446.54	3.90835
2447.93	4.43704
2449.32	4.88631
2450.71	4.236
2452.1	3.99878
2453.49	4.42907
2454.88	3.84402
2456.27	3.71986
2457.66	3.73019
2459.05	4.28291
2460.44	5.37749
2461.83	6.04394
2463.22	6.74131
2464.61	6.79402
2466	7.17671
2467.39	7.82601
2468.77	8.54334
2470.16	8.46964
2471.55	9.22908
2472.94	9.92165
2474.32	9.77537
2475.71	9.69465
2477.1	9.45292
2478.48	8.94081
2479.87	8.68764
2481.25	8.6144
2482.64	9.30924
2484.02	8.74721
2485.41	8.55537
2486.8	8.47792
2488.18	8.38682
2489.56	8.37117
2490.95	8.60338
2492.33	8.55117
2493.72	8.93058
2495.1	8.22948
2496.48	7.40706
2497.86	6.99428
2499.25	6.54763
2500.63	6.07455
2502.01	6.06282
2503.39	6.01987
2504.77	5.42061
2506.16	4.98142
2507.54	5.13155
2508.92	4.51174
2510.3	4.59573
2511.68	4.68403
2513.06	4.76059
2514.44	4.71003
2515.82	3.75859
2517.2	3.97733
2518.58	3.6087
2519.95	3.46204
2521.33	3.57935
2522.71	3.74499
2524.09	3.5078
2525.47	3.95985
2526.84	4.19715
2528.22	4.79493
2529.6	5.30388
2530.98	5.64404
2532.35	6.07591
2533.73	6.41986
2535.11	6.24881
2536.48	5.90315
2537.86	5.74617
2539.23	5.50654
2540.61	5.94225
2541.98	5.19883
2543.36	4.97428
2544.73	5.45495
2546.1	5.89873
2547.48	6.49798
2548.85	6.39125
2550.23	6.94666
2551.6	7.50549
2552.97	6.91589
2554.34	6.77869
2555.72	6.22001
2557.09	5.98778
2558.46	5.8985
2559.83	5.6413
2561.2	5.74753
2562.58	5.9023
2563.95	5.43737
2565.32	4.88269
2566.69	5.47811
2568.06	5.68878
2569.43	5.62207
2570.8	5.61249
2572.17	5.54222
2573.54	4.87756
2574.91	5.00297
2576.27	5.52151
2577.64	4.96134
2579.01	5.76993
2580.38	5.62953
2581.75	4.89211
2583.11	4.31478
2584.48	3.74289
2585.85	3.21529
2587.21	3.52689
2588.58	3.78841
2589.95	3.71991
2591.31	3.79296
2592.68	4.36197
2594.04	4.20487
2595.41	4.25588
2596.78	4.48833
2598.14	4.56154
2599.51	4.08263
2600.87	4.17506
2602.23	4.43131
2603.6	3.85312
2604.96	4.00566
2606.32	4.07467
2607.69	3.815
2609.05	4.62811
2610.41	4.51125
2611.77	5.00863
2613.14	4.40038
2614.5	4.04478
2615.86	3.72172
2617.22	3.30402
2618.58	3.34967
2619.94	2.64916
2621.3	2.35213
2622.67	2.80389
2624.03	3.05922
2625.39	3.69304
2626.75	3.92732
2628.1	4.1551
2629.46	4.41192
2630.82	4.50454
2632.18	3.91809
2633.54	4.54511
2634.9	4.81341
2636.26	4.53056
2637.61	3.78618
2638.97	4.00149
2640.33	3.77544
2641.69	3.86705
2643.04	3.94613
2644.4	3.6178
2645.76	3.06011
2647.11	3.54519
2648.47	3.03492
2649.82	2.78371
2651.18	3.16301
2652.53	3.25165
2653.89	3.79502
2655.24	4.38747
2656.6	4.72717
2657.95	5.29962
2659.31	6.20914
2660.66	6.21106
2662.01	5.51052
2663.37	5.55831
2664.72	5.82453
2666.07	5.87664
2667.43	5.20425
2668.78	6.11054
2670.13	6.43641
2671.48	6.03283
2672.83	5.61819
2674.18	5.9645
2675.53	6.69537
2676.89	6.62694
2678.24	6.03258
2679.59	5.90363
2680.94	5.97448
2682.29	6.28648
2683.64	6.15582
2684.99	6.31381
2686.34	5.89273
2687.68	5.39868
2689.03	5.76399
2690.38	5.42264
2691.73	4.82089
2693.08	4.71607
2694.43	4.23084
2695.77	3.92363
2697.12	3.0316
2698.47	3.01189
2699.81	2.71948
2701.16	3.46772
2702.51	3.04331
2703.85	3.17448
2705.2	3.53102
2706.54	3.57952
2707.89	3.45336
2709.23	4.02291
2710.58	3.89218
2711.92	3.68235
2713.27	4.5716
2714.61	5.17751
2715.96	5.15793
2717.3	5.9926
2718.64	6.39488
2719.99	6.32309
2721.33	6.26793
2722.67	6.71447
2724.01	7.12913
2725.36	7.36005
2726.7	6.72539
2728.04	6.51745
2729.38	6.03733
2730.72	6.25204
2732.06	5.82173
2733.41	5.30279
2734.75	4.38978
2736.09	4.63643
2737.43	3.9298
2738.77	3.78663
2740.11	4.31468
2741.44	5.17623
2742.78	5.1754
2744.12	4.17074
2745.46	4.2839
2746.8	4.08023
2748.14	3.12881
2749.48	2.64975
2750.81	2.10193
2752.15	1.70115
2753.49	1.48606
2754.83	1.80853
2756.16	2.1064
2757.5	1.6339
2758.84	1.04382
2760.17	1.28037
2761.51	0.672138
2762.84	0.769839
2764.18	0.406946
2765.51	1.27443
2766.85	1.35873
2768.18	1.21729
2769.52	1.33417
2770.85	1.36005
2772.19	1.88633
2773.52	1.17665
2774.85	1.64661
2776.19	1.67967
2777.52	2.23846
2778.85	2.4306
2780.18	2.89669
2781.52	2.55564
2782.85	2.57904
2784.18	3.58754
2785.51	2.98924
2786.84	3.20769
2788.17	3.16518
2789.51	3.29988
2790.84	3.15461
2792.17	2.86384
2793.5	2.58612
2794.83	2.57622
2796.16	1.94563
2797.48	1.92476
2798.81	1.48338
2800.14	0.90493
2801.47	1.26635
2802.8	1.82287
2804.13	2.45799
2805.46	3.37181
2806.79	3.40072
2808.11	2.81357
2809.44	1.98497
2810.77	1.77679
2812.09	1.93962
2813.42	1.76833
2814.75	1.34414
2816.07	2.07915
2817.4	2.71232
2818.73	3.67976
2820.05	5.473
2821.38	6.22764
2822.7	7.21568
2824.03	8.94767
2825.35	11.2823
2826.67	13.7234
2828	15.1808
2829.32	17.7571
2830.65	19.8732
2831.97	23.1363
2833.29	26.3975
2834.62	29.8041
2835.94	33.7325
2837.26	36.5336
2838.58	40.4013
2839.9	44.1258
2841.23	48.3008
2842.55	52.7335
2843.87	58.0481
2845.19	62.7005
2846.51	67.7674
2847.83	73.3653
2849.15	78.5327
2850.47	83.7578
2851.79	88.6412
2853.11	94.7961
2854.43	100.359
2855.75	106.111
2857.07	111.773
2858.39	116.999
2859.71	121.808
2861.02	125.959
2862.34	130.934
2863.66	135.364
2864.98	139.339
2866.3	143.506
2867.61	148.041
2868.93	151.74
2870.25	155.812
2871.56	158.772
2872.88	161.36
2874.19	164.716
2875.51	168.188
2876.83	171.154
2878.14	173.52
2879.46	176.43
2880.77	179.238
2882.09	183.06
2883.4	186.718
2884.71	189.423
2886.03	192.7
2887.34	195.609
2888.65	199.517
2889.97	202.317
2891.28	205.442
2892.59	208.412
2893.91	212.097
2895.22	215.604
2896.53	219.628
2897.84	224.431
2899.15	229.07
2900.46	233.868
2901.78	239.845
2903.09	245.125
2904.4	251.108
2905.71	257.319
2907.02	263.506
2908.33	271.503
2909.64	279.413
2910.95	286.811
2912.26	294.612
2913.57	302.328
2914.87	309.427
2916.18	316.442
2917.49	323.316
2918.8	330.553
2920.11	337.065
2921.42	343.391
2922.72	348.488
2924.03	353.517
2925.34	357.663
2926.64	362.548
2927.95	366.595
2929.26	370.095
2930.56	371.976
2931.87	373.905
2933.17	375.471
2934.48	375.969
2935.78	375.833
2937.09	375.112
2938.39	373.977
2939.7	372.745
2941	370.279
2942.31	366.91
2943.61	363.385
2944.91	359.986
2946.22	355.847
2947.52	351.016
2948.82	345.521
2950.13	338.429
2951.43	332.23
2952.73	324.931
2954.03	317.738
2955.33	310.814
2956.64	303.862
2957.94	296.942
2959.24	290.362
2960.54	282.916
2961.84	276.205
2963.14	268.044
2964.44	260.818
2965.74	253.513
2967.04	246.264
2968.34	238.51
2969.64	231.35
2970.94	224.945
2972.24	218.261
2973.53	212.574
2974.83	205.729
2976.13	198.465
2977.43	192.039
2978.73	184.417
2980.02	177.475
2981.32	170.432
2982.62	164.763
2983.91	159.549
2985.21	153.288
2986.51	147.263
2987.8	140.431
2989.1	134.196
2990.4	127.909
2991.69	122.087
2992.99	115.365
2994.28	109.246
2995.57	102.806
2996.87	97.5475
2998.16	92.6218
2999.46	87.2049
3000.75	82.3167
3002.05	78.1623
3003.34	73.2922
3004.63	69.0828
3005.92	64.2063
3007.22	59.7973
3008.51	55.4657
3009.8	51.3159
3011.09	47.2225
3012.39	43.4196
3013.68	39.2944
3014.97	35.7335
3016.26	33.3053
3017.55	30.5126
3018.84	28.8703
3020.13	27.373
3021.42	24.8932
3022.71	23.2343
3024	21.2107
3025.29	18.5914
3026.58	16.4316
3027.87	14.7664
3029.16	14.5328
3030.45	13.4461
3031.73	13.0497
3033.02	12.759
3034.31	11.6291
3035.6	10.8543
3036.89	10.6009
3038.17	10.5983
3039.46	9.93299
3040.75	9.87718
3042.03	10.44
3043.32	10.2376
3044.61	11.0846
3045.89	11.8819
3047.18	12.9205
3048.46	13.3196
3049.75	13.0896
3051.03	13.5541
3052.32	13.7528
3053.6	13.8457
3054.89	14.0023
3056.17	14.0171
3057.45	14.4097
3058.74	14.3224
3060.02	14.5954
3061.31	14.4382
3062.59	14.4659
3063.87	14.0376
3065.15	13.7082
3066.44	13.5086
3067.72	13.2895
3069	13.242
3070.28	12.286
3071.56	12.1432
3072.84	11.416
3074.13	10.9917
3075.41	10.5505
3076.69	9.70838
3077.97	8.61576
3079.25	8.36634
3080.53	7.79065
3081.81	6.7426
3083.09	6.38223
3084.37	5.82772
3085.64	4.80698
3086.92	4.68713
3088.2	3.98223
3089.48	3.58349
3090.76	3.23404
3092.04	2.9167
3093.31	2.53495
3094.59	1.82387
3095.87	1.11276
3097.14	0.759438
3098.42	0.293377
3099.7	0.435089
3100.97	0.884199
3102.25	0.665286
3103.53	0.254821
3104.8	0.224721
3106.08	0.795324
3107.35	0.776272
3108.63	1.46701
3109.9	1.70018
3111.18	1.67687
3112.45	1.42045
3113.73	1.99103
3115	2.40585
3116.27	2.08818
3117.55	1.61007
3118.82	1.64148
3120.09	1.93008
3121.37	2.14459
3122.64	1.92639
3123.91	2.42471
3125.18	2.71505
3126.45	3.28644
3127.73	3.61724
3129	4.28526
3130.27	5.04215
3131.54	5.94217
3132.81	5.77962
3134.08	5.71005
3135.35	6.31479
3136.62	6.49409
3137.89	7.03348
3139.16	7.10065
3140.43	7.65819
3141.7	8.46892
3142.97	9.43819
3144.24	10.4068
3145.51	11.5193
3146.78	12.2145
3148.04	12.7317
3149.31	13.1409
