#Acq. time (s)=	45
#Accumulations=	2
#Range (cm-¹)=	200...3150
#Windows=	2
#Auto scanning=	Off
#Autofocus=	Off
#Macrospot=	Off
#AutoExposure=	Off
#Spike filter=	Multiple accum.
#Delay time (s)=	0
#Binning=	1
#Readout mode=	Signal
#DeNoise=	Off
#ICS correction=	On
#Dark correction=	Off
#Inst. Process=	Off
#Detector Gain=	Best Dynamic Range
#Detector ADC=	20 kHz       
#Detector temperature (°C)=	-69.85
#Instrument=	LabRAM HR Evol
#Detector=	Synapse
#Objective=	x100
#Grating=	600 gr/mm
#ND Filter=	100%
#Laser (nm)=	532 
#Hole=	100.021
#Range=	Auto
#Laser Pol.=	No
#Raman. Pol.=	No
#Laser Pol. (°)=	-0.0007625
#Raman Pol. (°)=	89.9995
#Collection=	Microscope
#StageXY=	Marzhauser
#StageZ=	Marzhauser
#X (µm)=	-1035.2
#Y (µm)=	687.8
#Z (µm)=	584.15
#Full time(mm:ss)=	3:19
#Project=	
#Sample=	
#Site=	
#Title=	Mb_40_y_08_2x_45s_532 nm_x100_100%_600 gr_mm
#Remark=	
#Date=	19.07.2022 09:29
#Acquired=	19.07.2022 09:29:13
#Base:Fit=	10.08.2022 10:52:48
#Base:Sub=	10.08.2022 10:52:53
#Filter:Polynom=	16.08.2022 10:09:04
#AxisType[0]=Intens
#AxisUnit[0]=Cnt
#AxisType[1]=Spectr
#AxisUnit[1]=1/cm
200.423	24.4771
202.238	24.4103
204.052	24.7947
205.868	24.0042
207.682	23.0716
209.495	21.8456
211.308	20.1724
213.12	18.7947
214.935	17.2157
216.746	14.1728
218.558	13.5268
220.369	12.2715
222.18	12.7884
223.992	11.641
225.802	10.2112
227.612	9.57872
229.421	8.75395
231.23	8.79137
233.039	8.55804
234.849	8.15595
236.657	7.89702
238.465	6.04014
240.272	6.16172
242.079	6.02148
243.885	4.88011
245.691	4.68177
247.497	4.03085
249.305	3.3839
251.11	2.83224
252.915	4.1128
254.719	4.5455
256.523	5.35015
258.327	5.92637
260.13	5.479
261.933	5.24114
263.736	5.74216
265.538	7.1834
267.34	8.4877
269.141	9.10063
270.943	9.32311
272.744	10.0945
274.544	11.0966
276.344	13.2753
278.144	13.0188
279.944	14.2141
281.743	14.2536
283.542	13.7598
285.34	14.0746
287.138	13.9633
288.936	14.2885
290.733	13.0804
292.53	13.2166
294.327	12.2352
296.123	11.5682
297.919	11.3744
299.715	11.883
301.508	11.7011
303.303	12.7226
305.098	12.1955
306.892	12.8046
308.686	14.1088
310.479	13.6312
312.273	14.2409
314.065	12.6267
315.858	12.5183
317.648	13.4143
319.44	13.2527
321.231	13.2653
323.022	11.9826
324.813	11.4161
326.604	10.8659
328.392	10.1031
330.181	10.2283
331.971	9.28817
333.76	8.56873
335.548	8.6483
337.335	8.60805
339.123	8.22936
340.91	6.03697
342.698	6.27234
344.483	5.49561
346.269	4.58943
348.055	4.33503
349.841	2.75256
351.625	2.128
353.41	2.67676
355.195	3.88728
356.977	4.90772
358.762	4.66509
360.545	5.0738
362.329	6.43274
364.11	6.43656
365.893	5.91607
367.675	4.11957
369.455	4.85099
371.237	4.07723
373.017	4.34074
374.798	3.816
376.578	4.41463
378.357	5.4625
380.137	5.52915
381.917	6.82112
383.694	7.52241
385.473	8.23176
387.249	9.49784
389.028	10.7393
390.806	11.5499
392.581	11.652
394.359	11.0768
396.134	12.2949
397.91	12.1378
399.684	12.3354
401.46	13.4031
403.234	12.9925
405.009	14.8301
406.784	15.796
408.557	15.5458
410.331	15.6332
412.103	15.3446
413.876	16.3795
415.647	16.3336
417.42	16.4234
419.191	15.4191
420.961	15.9396
422.733	16.3897
424.502	16.8293
426.273	16.982
428.042	15.8145
429.812	15.4411
431.58	18.0052
433.35	16.9037
435.118	16.5036
436.885	16.9545
438.653	16.7254
440.42	18.8299
442.188	19.6454
443.954	20.7935
445.719	21.6064
447.486	20.6203
449.251	20.9402
451.015	20.7169
452.781	19.2288
454.545	19.7401
456.308	20.8426
458.073	21.9873
459.836	21.1004
461.598	21.9398
463.362	21.9644
465.124	23.09
466.885	23.925
468.648	24.2058
470.408	23.6729
472.169	23.7388
473.929	23.7446
475.69	25.4437
477.45	26.3956
479.208	26.0232
480.967	26.2217
482.727	26.8061
484.485	28.5917
486.243	29.0216
488	29.6585
489.759	30.7348
491.515	31.0518
493.272	32.137
495.028	31.3886
496.783	31.6547
498.54	32.6499
500.295	32.804
502.05	32.6942
503.804	32.5428
505.558	32.2865
507.311	32.1727
509.064	32.9443
510.819	32.0421
512.572	31.8738
514.324	31.2242
516.076	30.5272
517.827	30.8539
519.578	31.3434
521.329	30.7762
523.08	30.0197
524.83	29.1742
526.58	30.2753
528.329	29.7545
530.08	29.7017
531.829	29.136
533.578	28.2417
535.326	27.5422
537.074	26.8733
538.821	26.131
540.568	24.6504
542.315	25.1707
544.062	23.6888
545.808	21.2013
547.554	20.5578
549.299	20.3371
551.044	18.8234
552.789	18.1929
554.533	16.6381
556.278	15.4726
558.019	13.8723
559.763	13.8904
561.506	14.0298
563.249	14.5161
564.991	13.0862
566.733	11.8572
568.475	12.0598
570.217	12.2233
571.958	12.0103
573.699	9.91891
575.439	9.79461
577.177	9.44659
578.917	8.78382
580.656	8.78897
582.396	8.37517
584.134	8.15723
585.873	8.4878
587.609	7.52951
589.347	7.06284
591.084	7.72959
592.822	7.32407
594.558	6.46035
596.295	6.54325
598.029	5.58204
599.765	7.12503
601.5	7.18256
603.235	7.3091
604.968	8.22111
606.703	8.78209
608.437	9.84737
610.171	9.59684
611.902	10.0377
613.635	11.1471
615.368	10.6217
617.099	11.2449
618.831	11.0304
620.563	10.074
622.294	10.1836
624.024	9.9614
625.755	10.7008
627.485	10.1862
629.213	10.5237
630.943	9.4766
632.673	8.95919
634.4	9.56948
636.129	7.96164
637.855	7.07936
639.584	7.01017
641.312	6.205
643.037	6.28498
644.764	5.96958
646.491	6.76318
648.216	7.6363
649.942	7.38199
651.666	6.8218
653.392	7.45072
655.115	7.983
656.84	7.76883
658.563	7.31039
660.287	7.93385
662.011	8.41128
663.732	7.85998
665.456	7.48173
667.177	8.72381
668.899	8.5628
670.62	9.82033
672.342	10.5362
674.061	9.59522
675.781	10.8838
677.502	11.2788
679.22	11.7262
680.941	12.1607
682.659	13.7224
684.379	14.8286
686.096	16.873
687.815	18.8014
689.532	21.033
691.248	22.4847
692.966	23.5821
694.682	25.8546
696.4	26.6573
698.115	27.7771
699.829	30.4532
701.546	32.075
703.26	33.2469
704.974	35.0508
706.689	36.7711
708.402	38.7459
710.115	40.5525
711.83	41.6828
713.542	41.0879
715.254	41.4824
716.967	41.9643
718.679	43.4846
720.39	43.4788
722.102	43.6695
723.812	45.0042
725.522	45.2184
727.232	45.8343
728.943	46.605
730.652	48.0301
732.361	48.7616
734.069	49.2422
735.779	49.1035
737.487	49.2711
739.194	49.607
740.901	49.3635
742.608	49.2188
744.316	48.7473
746.022	50.0144
747.728	49.2569
749.433	51.3983
751.138	51.2326
752.843	52.7517
754.549	52.3868
756.254	52.9377
757.957	52.8034
759.661	54.2773
761.364	56.0471
763.067	57.2465
764.769	58.5198
766.471	59.2983
768.175	60.9062
769.877	61.8091
771.578	63.0926
773.279	64.4253
774.98	64.8731
776.68	64.2306
778.38	64.4478
780.079	65.0165
781.779	65.6919
783.478	66.3128
785.176	67.5622
786.875	67.1149
788.573	66.416
790.27	68.3451
791.968	68.4484
793.665	67.2609
795.361	68.6018
797.058	68.9998
798.754	68.6588
800.45	69.7328
802.145	69.2162
803.84	70.209
805.535	70.2829
807.23	70.688
808.922	70.4853
810.616	70.0551
812.309	70.8952
814.002	69.7506
815.695	68.9247
817.388	67.3916
819.08	67.0947
820.772	65.2154
822.464	64.7624
824.153	64.8101
825.844	64.0684
827.535	63.6484
829.225	62.7967
830.915	63.3724
832.605	62.0506
834.292	61.7373
835.981	59.7826
837.67	59.5297
839.359	58.9191
841.047	58.6561
842.732	58.4959
844.42	57.4418
846.107	55.6095
847.794	54.8008
849.479	52.6513
851.165	51.1971
852.851	50.1447
854.534	48.4363
856.22	48.3926
857.905	46.5483
859.589	45.8698
861.272	44.5031
862.956	45.1311
864.639	44.5099
866.321	44.5443
868.004	43.9703
869.687	43.9041
871.367	42.9849
873.049	42.982
874.731	43.575
876.41	42.7569
878.092	42.1527
879.771	42.5842
881.451	42.1468
883.131	41.6786
884.809	42.0254
886.489	41.1221
888.166	42.0659
889.845	41.6847
891.522	40.658
893.2	39.5883
894.878	39.4851
896.554	38.5833
898.231	37.6039
899.906	38.5081
901.583	39.1828
903.258	39.8549
904.934	39.6433
906.608	40.5217
908.283	40.6006
909.956	40.3991
911.631	41.3199
913.304	41.4563
914.976	42.3413
916.65	41.5183
918.322	40.9352
919.995	40.4574
921.666	40.6343
923.339	41.619
925.009	40.5691
926.679	40.9019
928.351	40.566
930.021	39.9495
931.692	39.7603
933.361	39.2832
935.029	38.894
936.699	39.3883
938.367	39.5293
940.035	39.9896
941.704	39.2399
943.371	39.2127
945.038	38.4037
946.706	37.8287
948.372	37.4808
950.038	38.2531
951.705	37.9155
953.37	38.4057
955.035	38.298
956.7	39.1065
958.366	38.3153
960.03	38.3079
961.693	37.4808
963.357	38.0628
965.021	38.9564
966.684	40.0415
968.346	39.6767
970.008	38.673
971.67	38.9914
973.334	38.5795
974.995	39.8545
976.655	39.6908
978.316	41.0432
979.976	41.0656
981.638	42.6519
983.297	43.7025
984.957	43.0813
986.616	42.3439
988.274	41.0599
989.932	40.1478
991.59	39.3251
993.248	37.3506
994.907	34.4653
996.565	32.4042
998.221	29.6241
999.878	25.6289
1001.53	23.3537
1003.19	20.6836
1004.85	17.9464
1006.5	18.8188
1008.16	21.1337
1009.81	27.7677
1011.46	34.9082
1013.12	45.9009
1014.77	58.5199
1016.43	72.7088
1018.08	87.8688
1019.73	103.273
1021.38	117.893
1023.04	131.644
1024.69	144.578
1026.34	157.252
1027.99	169.726
1029.64	181.509
1031.29	192.567
1032.94	201.42
1034.59	209.793
1036.24	216.701
1037.89	222.892
1039.54	227.023
1041.19	230.849
1042.84	234.213
1044.48	235.824
1046.13	237.868
1047.78	237.643
1049.42	235.603
1051.07	231.95
1052.72	228.705
1054.36	224.322
1056.01	218.814
1057.66	212.965
1059.3	204.195
1060.94	194.43
1062.59	183.314
1064.23	172.351
1065.88	159.421
1067.52	144.583
1069.16	130.594
1070.81	116.725
1072.45	101.854
1074.09	85.352
1075.73	70.1726
1077.38	56.3455
1079.02	44.1263
1080.66	30.4054
1082.3	20.3437
1083.94	13.1615
1085.58	7.35244
1087.22	5.72894
1088.86	7.66633
1090.5	9.49061
1092.13	12.7439
1093.77	16.3763
1095.41	20.5117
1097.05	23.6405
1098.68	26.0552
1100.32	28.1706
1101.96	29.1514
1103.6	29.7224
1105.23	30.6349
1106.87	31.4278
1108.5	31.4966
1110.14	31.9378
1111.77	31.5519
1113.41	32.2286
1115.04	32.9047
1116.67	31.8285
1118.31	31.1359
1119.94	31.7856
1121.58	31.7939
1123.21	32.2464
1124.84	32.6993
1126.47	33.4462
1128.1	34.3222
1129.73	34.0654
1131.37	33.1266
1133	32.3977
1134.63	31.7174
1136.26	30.5143
1137.89	30.0772
1139.52	28.4495
1141.14	26.361
1142.77	24.7046
1144.4	24.3632
1146.03	24.4625
1147.66	24.863
1149.29	23.1069
1150.91	22.8613
1152.54	21.6236
1154.17	18.7052
1155.79	17.4325
1157.42	17.1944
1159.04	16.1936
1160.67	15.1937
1162.3	13.5596
1163.92	13.3434
1165.55	12.548
1167.17	11.779
1168.79	11.4902
1170.42	9.90247
1172.04	9.59097
1173.66	9.25354
1175.28	9.45676
1176.91	9.29994
1178.53	8.80851
1180.15	7.79901
1181.77	7.44645
1183.39	6.13018
1185.01	4.85543
1186.63	4.95373
1188.25	5.18983
1189.87	4.82293
1191.49	4.60525
1193.11	4.72625
1194.73	5.49079
1196.35	5.42594
1197.97	5.88881
1199.59	8.22642
1201.2	10.3539
1202.82	12.4391
1204.44	14.5841
1206.05	17.1648
1207.67	18.1794
1209.29	18.5046
1210.9	19.8894
1212.52	20.0003
1214.13	21.6415
1215.75	23.8076
1217.36	26.016
1218.97	28.7229
1220.59	29.8322
1222.2	32.7257
1223.82	34.9244
1225.43	36.1239
1227.04	38.9843
1228.65	40.2937
1230.26	40.6005
1231.88	43.5904
1233.49	45.6571
1235.1	48.5773
1236.71	51.2595
1238.32	53.9023
1239.93	56.9456
1241.54	59.4477
1243.15	61.2727
1244.76	64.0273
1246.37	66.4319
1247.97	69.0165
1249.58	70.8019
1251.19	71.1713
1252.8	72.5531
1254.41	74.1185
1256.01	74.5876
1257.62	76.1693
1259.23	76.6446
1260.83	77.2151
1262.44	77.8785
1264.04	78.3507
1265.65	81.0216
1267.25	83.7376
1268.86	84.5515
1270.46	85.232
1272.07	85.6268
1273.67	87.5676
1275.27	88.8277
1276.88	90.323
1278.48	91.3109
1280.08	92.5291
1281.68	94.0627
1283.28	95.3823
1284.89	95.4356
1286.49	94.7255
1288.09	94.2747
1289.69	95.0687
1291.29	96.5253
1292.89	96.7825
1294.49	98.723
1296.09	99.6102
1297.69	99.6865
1299.29	100.824
1300.88	100.558
1302.48	101.813
1304.08	101.825
1305.68	102.575
1307.27	103.333
1308.87	104.047
1310.47	105.634
1312.06	107.232
1313.66	107.897
1315.25	109.137
1316.85	109.058
1318.44	110.204
1320.04	110.088
1321.63	111.129
1323.23	109.931
1324.82	110.427
1326.41	110.612
1328.01	110.326
1329.6	108.696
1331.19	107.029
1332.78	106.542
1334.38	105.981
1335.97	104.011
1337.56	103.755
1339.15	102.597
1340.74	100.907
1342.33	100.18
1343.92	99.1374
1345.51	98.8464
1347.1	96.576
1348.69	94.8961
1350.28	94.1864
1351.87	92.2642
1353.46	91.3912
1355.04	88.7562
1356.63	87.5203
1358.22	85.5037
1359.81	83.6231
1361.39	82.0532
1362.98	79.8139
1364.57	77.1211
1366.15	75.4889
1367.74	73.7031
1369.32	72.339
1370.91	69.9251
1372.49	67.1805
1374.07	65.619
1375.66	63.7764
1377.24	62.9158
1378.83	61.6638
1380.41	59.203
1381.99	57.4524
1383.57	56.3973
1385.16	55.9719
1386.74	54.6968
1388.32	54.7323
1389.9	54.3352
1391.48	53.0052
1393.06	52.0733
1394.64	52.0464
1396.22	51.7174
1397.8	51.3984
1399.38	50.9335
1400.96	50.4187
1402.54	49.8127
1404.12	51.1885
1405.7	51.3298
1407.28	51.7182
1408.85	52.3717
1410.43	53.3859
1412.01	54.9862
1413.58	56.0929
1415.16	58.268
1416.74	60.8304
1418.31	62.9913
1419.89	65.1235
1421.46	69.0195
1423.04	72.3348
1424.61	76.1798
1426.19	79.8506
1427.76	83.5073
1429.33	86.873
1430.91	90.4931
1432.48	94.2478
1434.05	96.997
1435.63	100.874
1437.2	103.223
1438.77	105.157
1440.34	107.553
1441.91	108.765
1443.49	110.557
1445.05	111.568
1446.63	112.33
1448.2	112.596
1449.77	112.741
1451.34	112.943
1452.91	113.314
1454.47	113.667
1456.04	114.21
1457.61	112.211
1459.18	111.414
1460.75	110.167
1462.31	109.481
1463.88	107.525
1465.45	105.387
1467.01	103.597
1468.58	102.014
1470.15	99.4077
1471.71	97.7311
1473.28	95.9185
1474.84	94.5119
1476.41	92.1182
1477.97	89.4153
1479.54	87.2453
1481.1	85.2431
1482.66	81.8793
1484.23	79.1863
1485.79	76.1683
1487.35	73.5598
1488.91	71.2628
1490.48	68.3074
1492.04	65.5296
1493.6	63.0608
1495.16	60.8094
1496.72	58.7952
1498.28	57.6313
1499.84	55.6279
1501.4	52.8057
1502.96	51.7385
1504.52	49.6306
1506.08	47.5382
1507.64	46.9127
1509.2	45.1555
1510.76	43.1977
1512.31	40.8842
1513.87	39.6161
1515.43	37.0798
1516.99	35.1801
1518.54	34.1108
1520.1	33.3572
1521.66	33.4747
1523.21	32.8062
1524.77	32.7109
1526.32	31.2492
1527.88	31.1125
1529.43	31.2394
1530.99	31.5571
1532.54	32.4768
1534.09	33.0237
1535.65	32.9134
1537.2	34.4643
1538.75	34.8552
1540.31	36.4846
1541.86	37.7675
1543.41	39.2556
1544.96	41.0685
1546.51	42.855
1548.06	44.3957
1549.62	46.4513
1551.17	46.8837
1552.72	48.2369
1554.27	48.6141
1555.82	49.0657
1557.36	49.5995
1558.91	50.0673
1560.46	50.8669
1562.01	51.5263
1563.56	51.7859
1565.11	53.1958
1566.66	53.4904
1568.2	53.7891
1569.75	54.9167
1571.3	55.8072
1572.84	57.616
1574.39	58.5656
1575.93	59.3528
1577.48	59.7545
1579.02	61.0639
1580.57	63.8862
1582.11	64.2933
1583.66	65.4183
1585.2	66.0636
1586.75	66.146
1588.29	66.9736
1589.83	67.7848
1591.38	68.4744
1592.92	68.2579
1594.46	69.383
1596	70.0995
1597.54	70.7384
1599.09	70.6345
1600.63	71.5994
1602.17	72.2198
1603.71	71.6266
1605.25	71.2459
1606.79	71.539
1608.33	71.666
1609.87	71.8998
1611.41	72.8197
1612.95	73.0043
1614.48	73.0046
1616.02	73.4048
1617.56	73.9766
1619.1	74.3643
1620.64	74.5247
1622.17	75.8991
1623.71	75.6617
1625.25	76.5085
1626.78	77.4765
1628.32	77.9679
1629.86	81.2233
1631.39	82.9847
1632.92	84.2217
1634.46	86.5183
1635.99	88.4402
1637.53	89.5866
1639.06	91.1001
1640.59	94.1295
1642.13	96.9417
1643.66	98.0845
1645.19	99.5032
1646.73	101.421
1648.26	102.325
1649.79	103.868
1651.32	105.02
1652.85	105.443
1654.38	107.242
1655.92	107.927
1657.45	107.832
1658.98	106.521
1660.51	105.962
1662.04	105.226
1663.57	104.772
1665.09	103.103
1666.62	100.727
1668.15	98.946
1669.68	96.6655
1671.21	95.131
1672.73	92.7843
1674.26	90.1312
1675.79	87.795
1677.31	85.5561
1678.84	81.64
1680.37	76.7789
1681.89	73.1567
1683.42	70.0833
1684.94	66.8587
1686.47	62.7539
1687.99	59.528
1689.52	56.1176
1691.04	52.1548
1692.57	48.2977
1694.09	44.1231
1695.61	41.5226
1697.14	38.1185
1698.66	35.161
1700.18	32.5006
1701.7	31.1001
1703.22	29.2369
1704.75	26.8015
1706.27	25.8489
1707.79	23.4751
1709.31	21.8567
1710.83	20.6634
1712.35	18.7184
1713.87	17.1035
1715.39	16.2187
1716.91	14.7773
1718.43	12.8959
1719.95	10.7086
1721.46	9.91508
1722.98	10.2669
1724.5	10.2053
1726.02	10.1538
1727.53	8.87926
1729.05	8.05812
1730.57	7.73573
1732.08	6.19702
1733.6	6.12971
1735.12	6.17174
1736.63	5.76068
1738.15	5.90204
1739.66	5.82681
1741.18	5.68738
1742.69	5.57099
1744.21	6.53415
1745.72	6.72048
1747.23	6.79263
1748.74	6.97135
1750.26	7.39809
1751.77	7.73048
1753.28	7.50588
1754.8	7.75262
1756.31	7.56605
1757.82	8.17111
1759.33	7.91375
1760.84	8.12702
1762.35	7.66517
1763.86	8.83283
1765.37	7.91203
1766.88	7.16958
1768.39	6.64712
1769.9	6.99169
1771.41	7.28551
1772.92	6.12004
1774.43	5.83715
1775.93	6.97064
1777.44	6.86306
1778.95	7.24142
1780.46	6.98934
1781.96	7.48988
1783.47	6.80765
1784.98	7.28224
1786.48	6.62401
1787.99	5.76926
1789.49	5.11512
1791	4.87175
1792.5	4.0146
1794.01	4.56705
1795.51	4.5992
1797.02	5.06015
1798.52	5.20197
1800.03	4.01724
1801.53	3.09645
1803.03	2.30379
1804.53	3.02344
1806.04	3.36624
1807.54	3.53595
1809.04	4.16217
1810.54	3.59233
1812.04	3.83122
1813.54	4.51997
1815.05	5.0684
1816.55	4.7331
1818.05	5.14369
1819.55	5.31014
1821.05	5.36132
1822.55	5.46258
1824.05	6.35474
1825.54	5.86358
1827.04	5.65643
1828.54	5.4072
1830.04	4.96543
1831.54	4.5658
1833.03	4.0267
1834.53	3.90854
1836.03	4.08342
1837.52	3.93564
1839.02	4.0159
1840.52	3.14474
1842.01	3.95034
1843.51	3.52503
1845	3.89392
1846.5	3.42938
1847.99	3.51874
1849.49	3.98066
1850.98	4.42404
1852.47	4.14497
1853.97	4.71999
1855.46	3.81558
1856.95	3.64794
1858.45	3.35705
1859.94	3.85369
1861.43	3.54632
1862.92	3.95609
1864.41	4.51643
1865.91	4.96426
1867.4	5.33868
1868.89	6.76068
1870.38	6.63787
1871.87	7.24885
1873.36	7.99399
1874.85	7.88032
1876.34	8.22094
1877.83	8.61822
1879.31	9.41923
1880.8	9.65356
1882.29	9.38605
1882.56	9.30149
1884.05	9.54826
1885.54	9.87945
1887.04	10.6077
1888.53	10.5681
1890.03	10.3023
1891.52	10.4729
1893.01	10.2693
1894.5	10.0577
1895.99	9.94286
1897.49	9.56814
1898.98	8.82461
1900.47	9.24299
1901.96	9.03236
1903.45	8.70649
1904.94	9.48731
1906.43	8.88521
1907.92	9.53048
1909.41	10.2941
1910.9	10.4706
1912.39	9.88719
1913.88	9.55094
1915.37	9.7112
1916.86	8.36647
1918.35	7.66961
1919.84	7.39924
1921.32	6.95122
1922.81	6.09231
1924.3	5.35305
1925.78	5.70869
1927.27	5.05293
1928.76	3.69994
1930.24	3.50679
1931.73	3.59648
1933.21	4.04174
1934.7	4.33407
1936.18	4.80337
1937.67	4.40172
1939.15	4.40532
1940.64	4.41229
1942.12	3.99685
1943.6	3.40669
1945.09	3.22631
1946.57	2.73251
1948.05	1.77835
1949.54	1.56087
1951.02	2.1332
1952.5	1.49234
1953.98	-0.0748307
1955.46	-0.661564
1956.94	-0.321238
1958.42	1.38309
1959.91	2.47808
1961.39	3.84917
1962.87	3.97378
1964.34	3.91839
1965.82	5.05884
1967.3	6.15199
1968.78	7.01351
1970.26	8.70878
1971.74	9.95022
1973.22	10.9776
1974.7	12.1676
1976.17	12.3648
1977.65	13.0534
1979.13	13.5418
1980.6	13.651
1982.08	13.8752
1983.56	13.4607
1985.03	13.5336
1986.51	13.306
1987.98	13.6079
1989.46	13.9686
1990.93	12.6445
1992.41	12.8055
1993.88	13.1262
1995.36	13.1433
1996.83	14.3019
1998.3	15.2833
1999.78	15.2061
2001.25	14.4962
2002.72	14.5683
2004.2	14.9623
2005.67	15.4412
2007.14	15.9679
2008.61	16.0744
2010.08	14.8382
2011.55	14.001
2013.02	13.9255
2014.49	13.8955
2015.97	13.2918
2017.43	13.6713
2018.9	13.6173
2020.37	13.8516
2021.84	13.8196
2023.31	14.0075
2024.78	14.7025
2026.25	14.7715
2027.72	15.6622
2029.19	17.0529
2030.65	18.5372
2032.12	20.0869
2033.59	19.9512
2035.05	19.4058
2036.52	19.2954
2037.98	19.6146
2039.45	20.4973
2040.92	21.0196
2042.38	22.3116
2043.85	22.9798
2045.31	23.3783
2046.78	24.0831
2048.24	24.5611
2049.71	24.6772
2051.17	25.0011
2052.63	25.3079
2054.1	25.1967
2055.56	24.4754
2057.02	24.7752
2058.48	25.9526
2059.95	25.9456
2061.41	25.9905
2062.87	26.5551
2064.33	26.6605
2065.79	27.5761
2067.25	28.2009
2068.71	28.928
2070.17	29.7594
2071.63	29.8184
2073.09	29.1552
2074.55	29.9163
2076.01	31.0159
2077.47	32.3279
2078.93	33.3595
2080.39	33.8855
2081.85	34.6326
2083.3	35.7929
2084.76	38.0049
2086.22	39.1899
2087.68	40.5542
2089.13	41.2911
2090.59	42.6451
2092.05	43.8926
2093.5	44.7963
2094.96	45.907
2096.41	47.5572
2097.87	49.9417
2099.32	50.4357
2100.78	51.7997
2102.23	52.3714
2103.69	54.0303
2105.14	56.1859
2106.59	57.4213
2108.05	58.6678
2109.5	60.8487
2110.95	63.3552
2112.41	65.3302
2113.86	68.5152
2115.31	70.9061
2116.76	72.6369
2118.21	74.5469
2119.67	76.7583
2121.12	79.576
2122.57	81.76
2124.02	83.5693
2125.47	86.5423
2126.92	88.286
2128.37	91.1071
2129.82	94.4651
2131.27	98.0599
2132.71	99.732
2134.16	101.886
2135.61	104.751
2137.06	107.044
2138.51	108.895
2139.95	112.169
2141.4	115.3
2142.85	118.16
2144.29	121.208
2145.74	123.913
2147.19	128.439
2148.63	131.379
2150.08	133.496
2151.52	136.356
2152.97	138.282
2154.42	141.278
2155.86	143.924
2157.3	145.557
2158.75	147.555
2160.19	148.727
2161.64	149.174
2163.08	150.783
2164.52	152.581
2165.96	153.488
2167.41	154.864
2168.85	154.943
2170.29	155.38
2171.73	154.707
2173.17	155.222
2174.61	154.893
2176.06	154.915
2177.5	154.288
2178.94	152.085
2180.38	150.377
2181.82	149.762
2183.26	148.333
2184.7	146.6
2186.14	145.423
2187.57	143.312
2189.01	140.769
2190.45	139.943
2191.89	138.256
2193.33	136.59
2194.76	134.138
2196.2	131.669
2197.64	130.014
2199.08	127.416
2200.51	125.389
2201.95	122.58
2203.38	119.095
2204.82	116.041
2206.25	114.028
2207.69	111.159
2209.12	108.864
2210.56	106.47
2211.99	104.617
2213.43	102.065
2214.86	99.5232
2216.3	97.4961
2217.73	94.665
2219.16	92.2831
2220.59	88.5724
2222.03	86.4486
2223.46	84.5597
2224.89	81.2657
2226.32	79.1569
2227.75	76.6765
2229.19	73.7116
2230.62	71.1637
2232.05	68.3739
2233.48	65.8058
2234.91	64.7575
2236.34	62.8902
2237.77	60.2696
2239.2	57.9414
2240.63	55.0887
2242.06	53.3767
2243.48	50.8225
2244.91	48.2681
2246.34	46.7042
2247.77	44.4052
2249.2	42.1182
2250.62	40.6762
2252.05	40.1449
2253.48	39.673
2254.9	37.9698
2256.33	37.0875
2257.76	36.3608
2259.18	35.5825
2260.61	34.5859
2262.03	34.5546
2263.46	33.44
2264.88	33.3734
2266.31	33.2112
2267.73	32.3653
2269.16	32.3494
2270.58	32.534
2272	31.4092
2273.43	30.4247
2274.85	30.2647
2276.27	30.3494
2277.69	30.1837
2279.12	30.1388
2280.54	31.1207
2281.96	30.9751
2283.38	30.7185
2284.8	30.5102
2286.22	29.9383
2287.64	29.7027
2289.07	28.0632
2290.49	27.1989
2291.91	26.2534
2293.32	24.4425
2294.74	23.8329
2296.16	22.5502
2297.58	22.0068
2299	21.5745
2300.42	21.0085
2301.84	21.1896
2303.26	20.9013
2304.67	20.0344
2306.09	19.6902
2307.51	18.3517
2308.92	17.1629
2310.34	16.5406
2311.76	16.0764
2313.17	15.1898
2314.59	14.9686
2316	14.6636
2317.42	14.2655
2318.83	13.8746
2320.25	13.7292
2321.66	13.6515
2323.08	13.3697
2324.49	12.4976
2325.91	12.1158
2327.32	12.398
2328.73	11.8133
2330.15	11.2932
2331.56	10.9233
2332.97	11.1947
2334.38	11.5809
2335.79	11.6392
2337.21	11.8712
2338.62	11.5919
2340.03	11.4979
2341.44	11.4977
2342.85	10.7424
2344.26	10.9579
2345.67	11.2314
2347.08	11.3112
2348.49	11.0181
2349.9	11.4247
2351.31	11.4171
2352.72	10.806
2354.13	9.64972
2355.53	8.37275
2356.94	7.66605
2358.35	6.33007
2359.76	5.00781
2361.17	4.09757
2362.57	4.02201
2363.98	3.07748
2365.39	3.88207
2366.79	3.19501
2368.2	3.49511
2369.6	3.40921
2371.01	3.47569
2372.42	3.83936
2373.82	3.01727
2375.22	2.6826
2376.63	2.16691
2378.03	1.46775
2379.44	2.54971
2380.84	2.35039
2382.25	2.17943
2383.65	2.17849
2385.05	3.0806
2386.45	3.06798
2387.86	3.16334
2389.26	4.07093
2390.66	4.28963
2392.06	4.24298
2393.46	4.86016
2394.87	5.3795
2396.27	6.06223
2397.67	6.49226
2399.07	6.92964
2400.47	7.27413
2401.87	8.31036
2403.27	8.85427
2404.67	8.89728
2406.07	9.31995
2407.47	9.43608
2408.86	9.79993
2410.26	10.1288
2411.66	10.4169
2413.06	10.8796
2414.46	11.0301
2415.85	11.3617
2417.25	11.4971
2418.65	12.072
2420.05	12.6406
2421.44	11.7756
2422.84	11.5776
2424.23	11.7453
2425.63	11.281
2427.03	12.2159
2428.42	11.847
2429.82	12.0904
2431.21	12.0407
2432.6	13.0973
2434	12.8084
2435.39	13.3444
2436.79	12.9225
2438.18	12.7974
2439.57	12.0529
2440.97	11.6958
2442.36	11.6939
2443.75	11.3191
2445.14	11.1627
2446.54	11.0011
2447.93	10.6057
2449.32	10.866
2450.71	9.74216
2452.1	9.68637
2453.49	10.0636
2454.88	9.94138
2456.27	9.27787
2457.66	8.72588
2459.05	8.57124
2460.44	8.32921
2461.83	7.73517
2463.22	8.27541
2464.61	7.82244
2466	7.22986
2467.39	7.14954
2468.77	7.3341
2470.16	7.08553
2471.55	7.53157
2472.94	6.80578
2474.32	6.43737
2475.71	6.47902
2477.1	5.85847
2478.48	5.31259
2479.87	4.8194
2481.25	4.16602
2482.64	4.55684
2484.02	4.25228
2485.41	3.73652
2486.8	3.26413
2488.18	3.43369
2489.56	3.20589
2490.95	2.93366
2492.33	3.25532
2493.72	2.81793
2495.1	3.02998
2496.48	4.0943
2497.86	3.76651
2499.25	3.69089
2500.63	3.38102
2502.01	2.90995
2503.39	2.01728
2504.77	1.60645
2506.16	1.38556
2507.54	1.71782
2508.92	1.22329
2510.3	1.21538
2511.68	1.71775
2513.06	1.49552
2514.44	0.931763
2515.82	0.846424
2517.2	0.532212
2518.58	0.387203
2519.95	0.739845
2521.33	0.568416
2522.71	0.699032
2524.09	0.83448
2525.47	1.06148
2526.84	0.787005
2528.22	1.70477
2529.6	2.25196
2530.98	3.12151
2532.35	4.52891
2533.73	4.79554
2535.11	5.17512
2536.48	6.38941
2537.86	6.91392
2539.23	6.81488
2540.61	7.02752
2541.98	6.69072
2543.36	6.95379
2544.73	6.8147
2546.1	7.07354
2547.48	6.82029
2548.85	7.69785
2550.23	8.00174
2551.6	8.39382
2552.97	7.92658
2554.34	7.7207
2555.72	7.79621
2557.09	8.55675
2558.46	8.0178
2559.83	7.76861
2561.2	7.91527
2562.58	8.06909
2563.95	8.10948
2565.32	6.7161
2566.69	5.8576
2568.06	5.64574
2569.43	5.03498
2570.8	4.38775
2572.17	4.02776
2573.54	3.97906
2574.91	3.73609
2576.27	3.26788
2577.64	2.6203
2579.01	2.29226
2580.38	2.61044
2581.75	2.38427
2583.11	1.68192
2584.48	1.26174
2585.85	0.829073
2587.21	0.677416
2588.58	0.641775
2589.95	0.604153
2591.31	1.4727
2592.68	1.96391
2594.04	1.97781
2595.41	2.36788
2596.78	3.02988
2598.14	3.29485
2599.51	3.82899
2600.87	3.55996
2602.23	3.6216
2603.6	4.07993
2604.96	4.32839
2606.32	4.20996
2607.69	3.83546
2609.05	4.63189
2610.41	4.43566
2611.77	4.67997
2613.14	5.18268
2614.5	5.42517
2615.86	5.43493
2617.22	6.81711
2618.58	6.30668
2619.94	6.29579
2621.3	6.40227
2622.67	6.3343
2624.03	6.00705
2625.39	5.68698
2626.75	4.77175
2628.1	5.27669
2629.46	4.91449
2630.82	3.91221
2632.18	2.36801
2633.54	2.00292
2634.9	2.53443
2636.26	2.31094
2637.61	1.83363
2638.97	1.69896
2640.33	1.86163
2641.69	1.99377
2643.04	1.91764
2644.4	1.60943
2645.76	1.16074
2647.11	1.01257
2648.47	1.72903
2649.82	1.65415
2651.18	1.36326
2652.53	1.622
2653.89	2.28521
2655.24	3.18491
2656.6	3.43804
2657.95	3.64924
2659.31	4.102
2660.66	3.25483
2662.01	3.10905
2663.37	3.52873
2664.72	3.99643
2666.07	4.14471
2667.43	4.70329
2668.78	5.21038
2670.13	6.42058
2671.48	6.44846
2672.83	5.85546
2674.18	5.89066
2675.53	5.69833
2676.89	6.70518
2678.24	6.08784
2679.59	6.33469
2680.94	6.51091
2682.29	6.05491
2683.64	5.7424
2684.99	5.80715
2686.34	4.64805
2687.68	4.82422
2689.03	4.61501
2690.38	4.75724
2691.73	5.15418
2693.08	5.51544
2694.43	5.99905
2695.77	5.87779
2697.12	5.04086
2698.47	4.94008
2699.81	5.2654
2701.16	6.11489
2702.51	6.21222
2703.85	6.41689
2705.2	7.28187
2706.54	7.78523
2707.89	7.79317
2709.23	7.60703
2710.58	8.31063
2711.92	8.29435
2713.27	8.44389
2714.61	9.08803
2715.96	8.89597
2717.3	9.02537
2718.64	9.37545
2719.99	9.76311
2721.33	10.2677
2722.67	9.76873
2724.01	9.85055
2725.36	9.91183
2726.7	10.6377
2728.04	10.226
2729.38	11.0723
2730.72	11.1685
2732.06	11.5259
2733.41	11.0261
2734.75	11.5044
2736.09	10.8445
2737.43	11.2618
2738.77	10.5235
2740.11	10.5313
2741.44	10.3767
2742.78	10.5979
2744.12	10.2905
2745.46	10.0801
2746.8	9.96988
2748.14	10.1177
2749.48	10.1347
2750.81	9.86236
2752.15	10.8288
2753.49	11.2041
2754.83	11.2584
2756.16	11.4963
2757.5	11.836
2758.84	11.2815
2760.17	11.3459
2761.51	11.2607
2762.84	10.2761
2764.18	10.3888
2765.51	10.0178
2766.85	9.0711
2768.18	8.74751
2769.52	8.40485
2770.85	8.30934
2772.19	7.07607
2773.52	6.07183
2774.85	5.73035
2776.19	5.90233
2777.52	6.09022
2778.85	5.79464
2780.18	5.73311
2781.52	5.70923
2782.85	4.97619
2784.18	5.41552
2785.51	5.343
2786.84	4.90805
2788.17	5.14653
2789.51	4.41683
2790.84	4.44426
2792.17	3.93592
2793.5	4.13513
2794.83	3.31006
2796.16	2.57934
2797.48	2.5725
2798.81	3.15057
2800.14	2.71233
2801.47	2.60704
2802.8	2.72867
2804.13	3.23385
2805.46	2.10603
2806.79	2.08729
2808.11	1.88081
2809.44	2.13114
2810.77	1.48755
2812.09	1.31607
2813.42	1.00268
2814.75	1.3376
2816.07	1.25433
2817.4	1.33563
2818.73	2.49619
2820.05	3.4502
2821.38	4.35693
2822.7	6.0939
2824.03	8.08745
2825.35	10.2247
2826.67	12.5502
2828	14.3612
2829.32	16.2087
2830.65	18.8348
2831.97	20.7703
2833.29	23.2229
2834.62	26.734
2835.94	30.0287
2837.26	32.7669
2838.58	36.7381
2839.9	42.1037
2841.23	47.3114
2842.55	52.1198
2843.87	56.2343
2845.19	60.1592
2846.51	64.5653
2847.83	68.988
2849.15	73.9616
2850.47	79.2334
2851.79	84.6947
2853.11	89.5291
2854.43	94.2231
2855.75	98.174
2857.07	103.463
2858.39	108.645
2859.71	113.212
2861.02	117.295
2862.34	121.796
2863.66	126.725
2864.98	129.821
2866.3	132.779
2867.61	136.831
2868.93	140.965
2870.25	143.084
2871.56	145.967
2872.88	149.344
2874.19	151.897
2875.51	154.027
2876.83	156.641
2878.14	159.634
2879.46	162.258
2880.77	164.876
2882.09	167.353
2883.4	170.576
2884.71	174.092
2886.03	177.504
2887.34	180.113
2888.65	183.364
2889.97	187.316
2891.28	191.429
2892.59	195.457
2893.91	198.731
2895.22	202.105
2896.53	205.8
2897.84	209.905
2899.15	214.907
2900.46	220.323
2901.78	226.322
2903.09	232.878
2904.4	240.363
2905.71	247.521
2907.02	253.829
2908.33	260.551
2909.64	266.597
2910.95	274.278
2912.26	283.635
2913.57	291.358
2914.87	299.185
2916.18	306.471
2917.49	313.687
2918.8	320.56
2920.11	327.733
2921.42	334.863
2922.72	340.805
2924.03	346.271
2925.34	351.642
2926.64	356.921
2927.95	360.607
2929.26	363.49
2930.56	365.797
2931.87	368.528
2933.17	369.93
2934.48	370.435
2935.78	369.689
2937.09	369.462
2938.39	368.352
2939.7	366.462
2941	364.229
2942.31	360.724
2943.61	356.648
2944.91	351.913
2946.22	347.062
2947.52	341.953
2948.82	337.305
2950.13	331.523
2951.43	324.797
2952.73	316.971
2954.03	310.328
2955.33	303.201
2956.64	296.667
2957.94	288.326
2959.24	279.531
2960.54	271.644
2961.84	264.549
2963.14	257.406
2964.44	250.397
2965.74	243.373
2967.04	236.857
2968.34	229.674
2969.64	221.576
2970.94	213.638
2972.24	206.148
2973.53	199.883
2974.83	192.896
2976.13	186.585
2977.43	179.463
2978.73	171.332
2980.02	164.895
2981.32	158.334
2982.62	152.046
2983.91	145.836
2985.21	139.36
2986.51	132.097
2987.8	125.508
2989.1	119.387
2990.4	113.356
2991.69	107.294
2992.99	100.449
2994.28	95.0986
2995.57	89.721
2996.87	84.3872
2998.16	79.1454
2999.46	75.0217
3000.75	70.4219
3002.05	66.1521
3003.34	62.1115
3004.63	56.8891
3005.92	52.832
3007.22	48.5297
3008.51	45.5537
3009.8	41.9628
3011.09	38.7093
3012.39	35.6769
3013.68	32.6354
3014.97	29.1237
3016.26	25.5541
3017.55	23.1569
3018.84	21.4725
3020.13	19.8893
3021.42	18.2803
3022.71	16.5216
3024	15.0984
3025.29	14.0694
3026.58	13.7739
3027.87	13.268
3029.16	12.3925
3030.45	11.9982
3031.73	12.441
3033.02	12.0281
3034.31	12.2383
3035.6	12.6241
3036.89	13.6638
3038.17	13.4041
3039.46	12.7142
3040.75	12.9701
3042.03	13.1501
3043.32	13.0296
3044.61	13.3087
3045.89	13.1791
3047.18	13.5819
3048.46	13.7714
3049.75	14.0246
3051.03	14.3615
3052.32	14.5958
3053.6	14.1531
3054.89	15.3098
3056.17	14.9922
3057.45	14.7909
3058.74	15.5149
3060.02	15.6892
3061.31	15.8751
3062.59	15.6892
3063.87	15.2038
3065.15	14.8067
3066.44	14.2893
3067.72	13.6913
3069	12.7938
3070.28	12.7343
3071.56	11.8154
3072.84	10.954
3074.13	9.55696
3075.41	8.29359
3076.69	7.22891
3077.97	6.51019
3079.25	5.39237
3080.53	4.88956
3081.81	3.68394
3083.09	2.53733
3084.37	2.3106
3085.64	1.99409
3086.92	1.66183
3088.2	0.43593
3089.48	0.620688
3090.76	0.571821
3092.04	0.524797
3093.31	0.702361
3094.59	1.26161
3095.87	1.70894
3097.14	1.07352
3098.42	1.53674
3099.7	0.882689
3100.97	0.544648
3102.25	-0.30591
3103.53	0.196435
3104.8	0.45781
3106.08	0.0643867
3107.35	-0.144879
3108.63	0.861873
3109.9	1.58542
3111.18	2.10657
3112.45	2.5976
3113.73	3.10051
3115	3.69461
3116.27	4.05158
3117.55	5.2828
3118.82	6.1263
3120.09	6.05949
3121.37	7.19729
3122.64	8.03963
3123.91	8.36228
3125.18	8.53504
3126.45	8.9607
3127.73	9.94814
3129	11.065
3130.27	11.4332
3131.54	11.5957
3132.81	11.6382
3134.08	12.021
3135.35	12.3125
3136.62	12.4989
3137.89	12.7225
3139.16	13.0471
3140.43	13.2853
3141.7	12.9253
3142.97	12.4199
3144.24	11.9878
3145.51	11.7772
3146.78	10.9231
3148.04	9.60519
3149.31	8.45916
