#Acq. time (s)=	45
#Accumulations=	2
#Range (cm-¹)=	200...3150
#Windows=	2
#Auto scanning=	Off
#Autofocus=	Off
#Macrospot=	Off
#AutoExposure=	Off
#Spike filter=	Multiple accum.
#Delay time (s)=	0
#Binning=	1
#Readout mode=	Signal
#DeNoise=	Off
#ICS correction=	On
#Dark correction=	Off
#Inst. Process=	Off
#Detector Gain=	Best Dynamic Range
#Detector ADC=	20 kHz       
#Detector temperature (°C)=	-70.08
#Instrument=	LabRAM HR Evol
#Detector=	Synapse
#Objective=	x100
#Grating=	600 gr/mm
#ND Filter=	100%
#Laser (nm)=	532 
#Hole=	100.021
#Range=	Auto
#Laser Pol.=	No
#Raman. Pol.=	No
#Laser Pol. (°)=	-0.0007625
#Raman Pol. (°)=	89.9995
#Collection=	Microscope
#StageXY=	Marzhauser
#StageZ=	Marzhauser
#X (µm)=	-2518.2
#Y (µm)=	-108.9
#Z (µm)=	-10.7
#Full time(mm:ss)=	3:18
#Project=	
#Sample=	
#Site=	
#Title=	Mb_40_24_21_2x_45s_532 nm_x100_100%_600 gr_mm
#Remark=	
#Date=	14.07.2022 12:15
#Acquired=	14.07.2022 12:15:49
#Base:Fit=	10.08.2022 10:47:00
#Base:Sub=	10.08.2022 10:47:12
#Filter:Polynom=	16.08.2022 10:11:48
#AxisType[0]=Intens
#AxisUnit[0]=Cnt
#AxisType[1]=Spectr
#AxisUnit[1]=1/cm
200.554	10.0137
202.369	11.8862
204.183	11.968
205.999	10.3696
207.813	9.05793
209.626	8.09336
211.439	7.52773
213.253	6.61323
215.065	6.56292
216.877	7.11892
218.688	7.61422
220.5	8.00325
222.312	7.65404
224.123	8.22641
225.933	8.87284
227.742	8.56534
229.552	10.7218
231.361	10.0563
233.171	9.76779
234.98	10.0513
236.787	9.93108
238.595	10.3347
240.402	10.5835
242.209	10.2462
244.015	8.92279
245.822	8.72456
247.627	7.6318
249.435	8.35032
251.24	7.6994
253.045	8.35673
254.849	9.3319
256.653	9.09128
258.457	8.04582
260.26	7.39018
262.063	7.4995
263.866	7.53608
265.668	8.16873
267.47	9.35226
269.271	8.52377
271.073	6.95177
272.873	8.60296
274.674	8.11448
276.474	8.97171
278.274	9.07102
280.073	10.4046
281.872	9.56095
283.671	8.99804
285.47	8.9653
287.268	7.10031
289.065	7.10589
290.863	8.44666
292.66	7.7721
294.456	8.36168
296.253	9.00906
298.049	9.27753
299.844	11.4498
301.637	11.7218
303.432	13.2463
305.227	15.1064
307.021	16.0343
308.815	16.6169
310.609	17.4561
312.402	18.6533
314.195	20.3211
315.987	21.9913
317.777	23.4911
319.569	25.1032
321.36	24.9641
323.151	26.0177
324.942	26.6377
326.733	27.1336
328.521	27.3993
330.31	26.7091
332.1	26.3478
333.889	26.6451
335.677	27.4544
337.464	27.6653
339.252	28.1277
341.039	26.1648
342.826	26.2546
344.611	26.5162
346.398	25.5054
348.184	26.4829
349.97	26.0677
351.754	25.4708
353.539	25.7137
355.324	26.4711
357.106	25.7797
358.89	24.7626
360.674	24.5268
362.455	25.3068
364.239	23.2443
366.021	22.7715
367.804	21.3958
369.584	20.1998
371.366	17.7559
373.145	17.2808
374.926	17.7832
376.707	16.3055
378.485	15.546
380.265	13.6525
382.045	12.7037
383.822	11.687
385.601	11.5605
387.378	11.6632
389.156	12.1704
390.934	11.4392
392.71	10.1091
394.487	9.37488
396.262	8.26948
398.038	7.51616
399.813	6.70655
401.588	6.64688
403.362	7.16352
405.137	8.72774
406.912	8.65756
408.685	8.85945
410.459	8.56348
412.23	7.03979
414.004	5.26416
415.775	4.87643
417.548	5.42784
419.318	6.30477
421.089	7.65665
422.86	7.74124
424.63	8.12748
426.401	8.5568
428.17	8.82713
429.94	9.84361
431.708	11.1589
433.478	12.0057
435.245	13.2707
437.012	14.4334
438.781	14.0687
440.547	15.3048
442.315	16.6061
444.081	16.1194
445.846	16.3808
447.613	17.8951
449.378	17.6366
451.142	17.3039
452.908	16.8756
454.672	17.9584
456.435	16.9004
458.2	17.8492
459.963	17.8865
461.725	19.508
463.489	20.1809
465.251	20.5941
467.012	20.7964
468.775	21.4832
470.536	21.713
472.296	22.0016
474.056	23.9229
475.817	23.826
477.576	25.3771
479.335	24.6738
481.094	26.1559
482.854	28.0234
484.612	28.9825
486.37	30.3631
488.127	31.7224
489.886	32.6091
491.642	35.1268
493.398	35.7203
495.154	34.5142
496.91	35.7409
498.667	35.2515
500.422	35.3468
502.176	36.5317
503.93	38.4961
505.684	40.4814
507.438	40.1819
509.191	40.6558
510.946	40.8366
512.698	40.4729
514.45	39.6944
516.202	39.3683
517.954	39.7605
519.705	38.3334
521.456	37.7383
523.206	37.4526
524.956	35.3501
526.706	34.2079
528.456	33.71
530.207	32.8098
531.956	30.7604
533.704	29.8389
535.452	27.0674
537.2	25.5251
538.947	24.3394
540.694	23.2884
542.441	22.2208
544.188	19.8198
545.934	19.321
547.68	18.2515
549.425	18.6454
551.17	16.2866
552.915	15.3559
554.659	15.125
556.403	15.1958
558.145	15.2702
559.889	15.4144
561.632	15.4563
563.375	14.7284
565.117	14.7817
566.859	12.6936
568.601	12.9825
570.342	12.3057
572.083	11.2682
573.824	10.645
575.565	9.39607
577.303	7.65667
579.043	8.03076
580.782	6.53745
582.521	5.69984
584.26	6.26132
585.998	6.0794
587.734	6.0597
589.472	5.83159
591.21	6.07943
592.947	6.01187
594.684	6.22511
596.418	6.96482
598.154	6.28114
599.89	6.16709
601.626	6.69768
603.361	7.10433
605.094	7.60132
606.828	5.99338
608.562	6.67075
610.296	6.15931
612.027	5.53308
613.761	5.79407
615.493	5.59103
617.224	5.12184
618.956	4.73789
620.688	4.15176
622.419	3.86494
624.149	5.61271
625.879	5.46213
627.61	6.25555
629.338	6.49238
631.068	7.09113
632.797	9.14358
634.525	9.81172
636.254	10.4024
637.98	9.73679
639.708	11.0354
641.436	11.0103
643.162	11.0607
644.889	10.4973
646.614	10.736
648.34	10.7211
650.067	10.9102
651.791	10.5418
653.516	10.2431
655.239	10.554
656.964	10.7853
658.687	9.93098
660.411	10.7783
662.133	10.7673
663.857	11.2989
665.58	12.0595
667.301	12.5385
669.024	13.0918
670.744	13.406
672.464	14.5129
674.186	14.7299
675.905	14.9063
677.626	15.6163
679.345	16.0532
681.065	16.8806
682.783	16.4677
684.503	16.6154
686.22	17.4383
687.939	17.5785
689.656	18.0247
691.372	18.6748
693.09	19.2137
694.806	19.887
696.523	19.9373
698.239	19.8945
699.953	18.9535
701.67	18.0488
703.384	17.57
705.098	16.5846
706.813	17.6063
708.526	19.3034
710.239	20.3431
711.954	20.6859
713.666	21.0304
715.378	21.0318
717.091	21.9797
718.802	21.0344
720.513	21.2748
722.226	22.4825
723.936	23.1497
725.646	23.7331
727.355	23.804
729.067	25.2626
730.776	26.1674
732.484	28.2572
734.192	29.0393
735.902	30.5725
737.61	31.3554
739.317	32.3369
741.024	33.2535
742.731	34.6639
744.439	36.2817
746.145	38.6332
747.851	38.933
749.556	39.4538
751.262	40.0941
752.966	40.6978
754.673	41.2748
756.377	43.4015
758.081	46.1098
759.784	47.2408
761.487	47.8719
763.19	49.114
764.892	49.9977
766.594	51.2282
768.296	53.5796
770	55.1685
771.701	56.8217
773.402	57.0778
775.102	57.8044
776.803	58.2496
778.503	58.0019
780.202	57.4374
781.901	57.2344
783.6	56.8917
785.299	57.3146
786.997	58.7187
788.695	58.8427
790.393	59.8037
792.09	61.8983
793.787	62.1425
795.484	61.8054
797.18	61.5232
798.877	60.7451
800.572	62.5218
802.268	62.8223
803.963	62.629
805.658	63.1299
807.35	62.5168
809.044	63.109
810.738	63.0048
812.432	63.6273
814.125	64.7579
815.818	65.9486
817.51	66.6227
819.202	65.416
820.894	65.2328
822.584	64.9403
824.275	64.5472
825.966	64.7692
827.657	65.8708
829.347	66.1223
831.037	66.2707
832.725	65.4498
834.414	65.9392
836.103	65.2792
837.792	65.2685
839.481	66.015
841.167	65.9165
842.854	64.7206
844.542	62.776
846.229	62.363
847.914	62.6056
849.6	62.6774
851.287	62.6171
852.973	61.8238
854.656	60.4631
856.341	59.5566
858.026	58.6465
859.711	58.2415
861.393	57.8923
863.077	57.0383
864.761	57.4134
866.442	57.3253
868.125	56.9896
869.808	55.9617
871.489	54.4672
873.171	52.9186
874.85	52.7509
876.532	50.9262
878.213	48.6249
879.892	46.1337
881.572	44.5777
883.251	43.8408
884.931	43.8852
886.61	41.5193
888.287	40.5702
889.966	39.709
891.643	40.9699
893.321	41.2229
894.997	41.1603
896.675	40.5413
898.352	40.3554
900.028	40.303
901.704	39.1394
903.379	38.7486
905.055	39.8452
906.729	40.0237
908.404	40.2633
910.077	40.9284
911.75	42.0468
913.425	42.4601
915.097	42.7181
916.771	42.5119
918.443	43.8377
920.116	44.0855
921.787	43.4502
923.46	43.468
925.13	42.7081
926.8	43.527
928.472	43.463
930.141	44.8999
931.813	44.2511
933.481	44.3768
935.15	45.0263
936.82	45.104
938.488	45.4637
940.156	45.4008
941.825	45.1995
943.492	44.0145
945.158	42.9323
946.827	41.4894
948.493	42.1575
950.158	41.8296
951.824	40.0471
953.491	40.7959
955.156	40.2501
956.82	39.2244
958.486	37.562
960.15	36.6019
961.814	36.2417
963.477	35.4793
965.142	36.9191
966.804	38.0984
968.467	38.2637
970.129	39.4774
971.79	40.1071
973.454	40.6243
975.115	42.4071
976.776	42.6846
978.436	44.0771
980.096	44.7821
981.756	45.8407
983.417	46.0305
985.077	46.3479
986.736	47.262
988.394	47.3265
990.052	48.2489
991.71	48.4582
993.368	49.3793
995.025	49.8793
996.682	49.4801
998.341	48.8297
999.998	49.2775
1001.65	48.8168
1003.31	48.2254
1004.97	47.5451
1006.62	48.0541
1008.28	47.9951
1009.93	48.8044
1011.58	49.0166
1013.24	49.8313
1014.89	49.6831
1016.54	50.8287
1018.2	50.5091
1019.85	49.2154
1021.5	49.1558
1023.16	48.5653
1024.81	48.4928
1026.46	49.0471
1028.11	48.6
1029.76	50.127
1031.41	52.4268
1033.06	53.7158
1034.71	54.4734
1036.36	55.9075
1038.01	55.3288
1039.66	54.7616
1041.31	56.1297
1042.95	57.5507
1044.6	58.2495
1046.25	59.4035
1047.9	60.7618
1049.54	60.9565
1051.19	61.2274
1052.84	61.261
1054.48	60.9851
1056.13	60.6501
1057.77	61.6471
1059.42	59.5302
1061.06	57.9318
1062.71	55.9934
1064.35	54.7653
1066	52.3888
1067.64	51.4272
1069.28	50.2918
1070.93	48.8629
1072.57	46.5699
1074.21	43.9947
1075.85	42.8279
1077.49	41.0827
1079.13	40.4229
1080.78	39.9881
1082.42	39.6245
1084.06	38.5743
1085.7	38.2678
1087.34	36.4599
1088.97	35.039
1090.61	36.0711
1092.25	35.7027
1093.89	35.3994
1095.53	35.155
1097.17	34.3872
1098.8	33.8231
1100.44	33.4675
1102.08	33.2505
1103.71	34.3653
1105.35	34.958
1106.99	35.0639
1108.62	35.3664
1110.26	35.5466
1111.89	37.7765
1113.52	38.222
1115.16	38.6109
1116.79	38.3055
1118.43	38.5486
1120.06	38.8937
1121.69	38.3306
1123.32	39.5953
1124.96	38.7001
1126.59	37.5239
1128.22	36.9374
1129.85	34.9817
1131.48	33.7255
1133.11	31.957
1134.75	31.1561
1136.37	29.9012
1138	28.1039
1139.63	26.4813
1141.26	23.5014
1142.89	22.542
1144.52	22.2048
1146.15	20.5967
1147.78	18.3928
1149.4	17.7795
1151.03	15.7827
1152.66	13.8435
1154.28	12.2471
1155.91	11.4164
1157.54	9.80245
1159.16	9.14003
1160.79	7.71677
1162.41	7.41492
1164.04	5.75382
1165.66	4.22438
1167.29	3.10572
1168.91	2.29411
1170.53	2.46754
1172.16	3.6593
1173.78	3.43646
1175.4	4.7095
1177.02	4.85716
1178.65	4.74979
1180.27	4.63524
1181.89	5.69289
1183.51	7.22419
1185.13	8.80608
1186.75	9.21511
1188.37	9.02206
1189.99	10.022
1191.61	11.6433
1193.23	13.4674
1194.85	15.032
1196.47	17.3188
1198.08	19.9281
1199.7	22.3282
1201.32	23.8089
1202.94	26.3003
1204.55	28.2999
1206.17	29.9098
1207.79	32.1326
1209.4	34.7054
1211.02	36.9672
1212.63	39.9641
1214.25	43.1416
1215.86	45.8558
1217.48	47.072
1219.09	49.8922
1220.71	52.0361
1222.32	54.7331
1223.93	57.8445
1225.54	60.1612
1227.16	61.9848
1228.77	64.0246
1230.38	65.3456
1231.99	66.7364
1233.6	69.1503
1235.22	71.2632
1236.83	72.2777
1238.44	76.2772
1240.05	78.6097
1241.66	80.9715
1243.26	84.061
1244.87	85.0634
1246.48	88.3379
1248.09	89.8964
1249.7	91.7081
1251.31	93.5889
1252.92	95.2257
1254.52	96.9925
1256.13	98.0791
1257.74	98.8267
1259.34	99.6521
1260.95	100.362
1262.55	101.911
1264.16	102.58
1265.76	103.325
1267.37	103.928
1268.97	105.11
1270.58	107.421
1272.18	110.561
1273.78	112.192
1275.39	113.78
1276.99	115.703
1278.59	118.089
1280.2	118.72
1281.8	119.93
1283.4	121.464
1285	121.806
1286.6	123.49
1288.2	123.704
1289.8	124.635
1291.4	125.255
1293	125.53
1294.6	126.554
1296.2	126.578
1297.8	126.623
1299.4	126.694
1301	126.94
1302.6	127.565
1304.19	128.932
1305.79	128.228
1307.39	128.298
1308.99	127.695
1310.58	128.68
1312.18	129.199
1313.77	129.846
1315.37	129.278
1316.96	129.582
1318.56	130.003
1320.15	128.363
1321.75	129.521
1323.34	128.856
1324.94	127.887
1326.53	127.382
1328.12	125.057
1329.72	125.732
1331.31	124.298
1332.9	123.187
1334.49	122.183
1336.08	120.341
1337.67	119.645
1339.27	117.49
1340.86	116.39
1342.45	114.966
1344.04	113.042
1345.63	111.783
1347.22	109.691
1348.8	108.656
1350.39	107.284
1351.98	105.865
1353.57	104.081
1355.16	102.994
1356.75	101.704
1358.33	99.1767
1359.92	96.7325
1361.51	95.3645
1363.09	94.5287
1364.68	93.222
1366.27	91.5219
1367.85	89.5661
1369.44	89.2585
1371.02	88.0841
1372.61	87.3583
1374.19	86.9188
1375.77	86.0458
1377.36	85.5803
1378.94	85.042
1380.52	85.9394
1382.11	86.5682
1383.69	87.0425
1385.27	85.4012
1386.85	85.8597
1388.43	86.6638
1390.02	87.3888
1391.6	87.4428
1393.18	88.0504
1394.76	89.3457
1396.34	91.5311
1397.92	92.3227
1399.5	93.9543
1401.08	94.7483
1402.65	95.7298
1404.23	97.5415
1405.81	99.6366
1407.39	101.833
1408.97	104.939
1410.54	105.975
1412.12	108.867
1413.7	111.611
1415.27	115.193
1416.85	118.51
1418.43	121.365
1420	125.211
1421.58	127.751
1423.15	132.162
1424.73	135.189
1426.3	139.461
1427.87	144.596
1429.45	148.795
1431.02	153.067
1432.6	157.167
1434.17	160.356
1435.74	163.099
1437.31	165.635
1438.89	168.845
1440.46	171.27
1442.03	173.289
1443.6	174.453
1445.17	173.947
1446.74	174.83
1448.31	175.772
1449.88	175.823
1451.45	175.032
1453.02	173.922
1454.59	171.958
1456.16	170.33
1457.72	167.36
1459.29	165.779
1460.86	163.204
1462.43	159.046
1463.99	154.204
1465.56	150.623
1467.13	146.497
1468.69	140.946
1470.26	136.63
1471.83	132.102
1473.39	126.924
1474.95	121.874
1476.52	116.464
1478.08	111.633
1479.65	106.625
1481.21	102.57
1482.78	97.6952
1484.34	92.9035
1485.9	88.5236
1487.47	84.5353
1489.03	80.4025
1490.59	76.9332
1492.15	74.2825
1493.71	70.6839
1495.27	67.5938
1496.84	64.6391
1498.39	62.804
1499.96	60.3241
1501.52	59.4809
1503.07	57.0468
1504.64	57.0093
1506.19	56.0102
1507.75	54.6414
1509.31	53.4218
1510.87	51.444
1512.43	50.3487
1513.98	49.9607
1515.54	49.7129
1517.1	48.9516
1518.65	49.576
1520.21	50.4501
1521.77	50.496
1523.32	50.9395
1524.88	51.5705
1526.44	53.1865
1527.99	52.6569
1529.54	52.9474
1531.1	53.5142
1532.65	54.2262
1534.21	55.1992
1535.76	54.4887
1537.31	55.8206
1538.87	55.9535
1540.42	57.3226
1541.97	58.3729
1543.52	59.7912
1545.07	60.4718
1546.63	61.2518
1548.18	63.7856
1549.73	65.0578
1551.28	65.5632
1552.83	67.3146
1554.38	68.1974
1555.93	69.2886
1557.48	70.4031
1559.03	72.0952
1560.57	72.614
1562.12	73.2983
1563.67	74.4893
1565.22	76.1396
1566.77	77.6835
1568.31	78.5338
1569.86	80.8076
1571.41	82.3689
1572.95	85.7541
1574.5	88.2171
1576.05	91.2115
1577.59	94.0627
1579.14	96.6465
1580.68	98.8243
1582.23	101.458
1583.77	103.141
1585.31	103.476
1586.86	104.721
1588.4	106.784
1589.95	108.82
1591.49	110.783
1593.03	112.561
1594.57	114.477
1596.11	115.901
1597.66	116.375
1599.2	117.199
1600.74	118.214
1602.28	118.618
1603.82	119.257
1605.36	119.074
1606.9	120.214
1608.44	120.27
1609.98	120.167
1611.52	120.109
1613.06	120.562
1614.6	121.883
1616.13	121.387
1617.67	122.222
1619.21	122.512
1620.75	123.086
1622.28	123.491
1623.82	125.201
1625.36	126.087
1626.89	126.986
1628.43	127.385
1629.96	129.441
1631.5	131.22
1633.04	133.034
1634.57	134.647
1636.11	136.699
1637.64	137.112
1639.17	138.719
1640.71	139.943
1642.24	141.989
1643.77	143.012
1645.31	145.402
1646.84	147.776
1648.37	147.905
1649.9	149.029
1651.43	149.177
1652.96	148.655
1654.5	148.343
1656.03	146.427
1657.56	144.042
1659.09	141.496
1660.62	138.169
1662.15	135.769
1663.67	135.189
1665.2	132.562
1666.73	129.418
1668.26	126.312
1669.79	121.954
1671.32	117.803
1672.84	114.028
1674.37	111.405
1675.9	108.394
1677.43	104.029
1678.95	99.6433
1680.48	94.8646
1682	90.7356
1683.53	85.8311
1685.05	81.4234
1686.58	76.5333
1688.1	73.0826
1689.63	69.545
1691.15	66.1364
1692.68	62.2973
1694.2	60.1019
1695.72	57.3095
1697.25	53.8368
1698.77	50.6843
1700.29	48.3799
1701.81	46.3088
1703.33	45.7921
1704.86	43.6416
1706.38	42.8125
1707.9	41.5889
1709.42	40.0111
1710.94	39.0654
1712.46	37.0204
1713.98	34.8945
1715.5	33.6623
1717.02	32.4966
1718.54	32.8214
1720.06	31.1789
1721.57	31.0996
1723.09	29.5589
1724.61	28.1233
1726.13	28.0173
1727.64	26.4066
1729.16	25.2012
1730.68	23.8953
1732.19	23.3882
1733.71	22.531
1735.23	22.649
1736.74	21.9711
1738.26	22.163
1739.77	21.5862
1741.29	20.0127
1742.8	19.5152
1744.31	18.943
1745.83	18.4121
1747.34	18.8329
1748.85	18.8746
1750.37	18.6647
1751.88	18.1686
1753.39	17.297
1754.91	16.9185
1756.42	16.0538
1757.93	14.8772
1759.44	13.8663
1760.95	13.475
1762.46	12.4152
1763.97	11.9191
1765.48	11.3253
1766.99	11.067
1768.5	9.78629
1770.01	9.0509
1771.52	8.14275
1773.03	7.65805
1774.54	7.60431
1776.04	8.17072
1777.55	8.13415
1779.06	8.19979
1780.57	7.13914
1782.07	6.92061
1783.58	6.90548
1785.09	7.16539
1786.59	7.32111
1788.1	6.72736
1789.6	6.81828
1791.11	6.12009
1792.61	6.59002
1794.12	7.44714
1795.62	6.69613
1797.13	7.6343
1798.63	7.35434
1800.13	6.8369
1801.64	6.76226
1803.14	6.81611
1804.64	7.23218
1806.15	6.71916
1807.65	7.42751
1809.15	7.19171
1810.65	7.79409
1812.15	8.17423
1813.65	9.00338
1815.16	8.89764
1816.66	8.75168
1818.15	8.94657
1819.66	9.24529
1821.16	8.98733
1822.65	8.94629
1824.15	8.70817
1825.65	9.56889
1827.15	9.78418
1828.65	9.31365
1830.15	8.61191
1831.64	8.4301
1833.14	8.29309
1834.64	7.98546
1836.14	7.961
1837.63	7.74271
1839.13	7.74025
1840.62	8.84803
1842.12	8.79268
1843.62	8.22479
1845.11	8.05315
1846.61	8.16199
1848.1	7.59188
1849.6	7.62034
1851.09	6.5398
1852.58	5.6857
1854.08	6.08649
1855.57	5.83909
1857.06	5.20922
1858.55	5.72934
1860.05	5.77024
1861.54	4.64653
1863.03	4.10732
1864.52	3.7334
1866.01	3.54959
1867.5	3.2373
1869	3.04978
1870.49	2.16611
1871.98	2.62975
1873.47	2.05504
1874.96	1.52576
1876.44	1.87915
1877.93	2.10143
1879.42	2.20068
1880.91	2.2988
1882.4	2.82187
1882.47	2.90818
1883.96	3.23484
1885.46	2.88749
1886.95	2.54952
1888.44	1.84174
1889.94	1.84916
1891.43	2.26652
1892.93	3.02941
1894.42	3.47526
1895.91	3.50753
1897.4	4.1563
1898.89	5.26659
1900.39	5.03368
1901.88	5.487
1903.37	5.89467
1904.86	8.0216
1906.35	8.08456
1907.84	8.40634
1909.33	8.826
1910.82	9.50428
1912.31	9.81456
1913.8	10.4783
1915.29	9.1735
1916.77	8.85414
1918.26	8.66868
1919.75	8.73738
1921.24	8.85362
1922.73	9.22272
1924.21	9.03014
1925.7	9.46165
1927.19	9.41701
1928.67	8.93887
1930.16	8.46877
1931.64	8.44013
1933.13	8.24971
1934.61	7.70896
1936.1	7.38386
1937.58	6.83386
1939.07	6.55841
1940.55	6.88383
1942.04	6.91674
1943.52	7.02172
1945	6.8644
1946.49	5.81421
1947.97	5.2577
1949.45	5.54647
1950.93	4.61553
1952.42	3.34287
1953.9	2.9889
1955.38	2.57098
1956.86	2.46218
1958.34	1.97
1959.82	1.92005
1961.3	1.67519
1962.78	1.62039
1964.26	1.7492
1965.74	1.56162
1967.22	1.65757
1968.7	1.67664
1970.18	1.53458
1971.65	2.3902
1973.13	2.04026
1974.61	1.62633
1976.09	1.72271
1977.57	1.82593
1979.04	2.68574
1980.52	1.91421
1982	2.68887
1983.47	2.61277
1984.95	3.39534
1986.42	3.50207
1987.9	3.92019
1989.37	3.98634
1990.85	4.65705
1992.32	4.89316
1993.8	5.31721
1995.27	5.04939
1996.75	5.14036
1998.22	5.00496
1999.69	4.774
2001.17	5.14974
2002.64	5.96453
2004.11	7.17503
2005.58	7.7476
2007.05	8.25159
2008.53	8.35007
2010	8.30076
2011.47	9.21524
2012.94	9.91807
2014.41	10.4421
2015.88	10.1994
2017.35	10.9576
2018.82	11.0214
2020.29	11.5393
2021.76	12.4644
2023.23	13.361
2024.7	13.5873
2026.16	13.7608
2027.63	14.9389
2029.1	14.9154
2030.57	15.8003
2032.03	15.7672
2033.5	17.3022
2034.97	18.0262
2036.44	18.5542
2037.9	18.3718
2039.37	18.4202
2040.83	18.248
2042.3	18.6497
2043.76	18.5626
2045.23	18.2411
2046.69	17.7449
2048.16	18.0382
2049.62	18.7336
2051.08	19.6629
2052.55	20.7384
2054.01	21.1762
2055.47	22.8479
2056.94	23.5731
2058.4	23.9915
2059.86	24.8368
2061.32	25.3412
2062.79	25.7603
2064.25	25.5391
2065.71	26.4973
2067.17	27.2876
2068.63	27.7501
2070.09	28.9689
2071.55	29.0211
2073.01	29.77
2074.47	30.6143
2075.93	31.3887
2077.39	32.1859
2078.85	32.6002
2080.31	33.5339
2081.76	34.789
2083.22	35.0258
2084.68	36.3139
2086.13	37.3443
2087.59	38.2823
2089.05	39.635
2090.51	41.2975
2091.96	42.1517
2093.42	43.6145
2094.87	44.6202
2096.33	45.3917
2097.78	46.4227
2099.24	47.4965
2100.69	49.4416
2102.15	51.1379
2103.6	52.9194
2105.06	54.2838
2106.51	55.8192
2107.96	55.5438
2109.42	54.7863
2110.87	56.1066
2112.32	57.8106
2113.77	58.9766
2115.23	61.4788
2116.68	62.6448
2118.13	64.2233
2119.58	65.5982
2121.03	67.3003
2122.48	70.2027
2123.93	73.1854
2125.38	76.0903
2126.83	79.6635
2128.28	82.9072
2129.73	84.2672
2131.18	86.3824
2132.63	89.7014
2134.08	91.8918
2135.53	94.467
2136.97	97.5755
2138.42	100.727
2139.87	103.725
2141.32	106.485
2142.76	109.905
2144.21	113.171
2145.66	116.697
2147.1	120.23
2148.55	123.74
2150	126.331
2151.44	129.159
2152.89	132.235
2154.33	134.044
2155.78	136.054
2157.22	138.482
2158.66	141.228
2160.11	143.17
2161.55	145.65
2163	147.798
2164.44	149.149
2165.88	150.857
2167.32	152.202
2168.77	152.108
2170.21	152.842
2171.65	152.814
2173.09	152.877
2174.53	152.106
2175.97	150.945
2177.41	149.914
2178.85	147.564
2180.29	145.409
2181.73	144.376
2183.17	144.138
2184.61	142.115
2186.05	139.715
2187.49	137.515
2188.93	134.719
2190.37	132.597
2191.81	130.242
2193.24	128.904
2194.68	127.061
2196.12	124.699
2197.56	122.522
2198.99	119.748
2200.43	116.227
2201.87	113.822
2203.3	111.054
2204.74	108.527
2206.17	105.602
2207.61	102.642
2209.04	99.8906
2210.48	97.1746
2211.91	96.3054
2213.35	93.814
2214.78	91.8917
2216.21	89.02
2217.65	86.1658
2219.08	83.6023
2220.51	80.9318
2221.95	78.9302
2223.38	76.9696
2224.81	74.5875
2226.24	72.0558
2227.67	70.363
2229.1	67.9273
2230.54	66.743
2231.97	64.5477
2233.4	62.2467
2234.83	60.2414
2236.26	58.4448
2237.69	56.2785
2239.11	54.4503
2240.54	52.0685
2241.97	50.5865
2243.4	48.4536
2244.83	46.7052
2246.26	45.6884
2247.69	44.4742
2249.11	42.4524
2250.54	41.1928
2251.97	40.8236
2253.4	40.2975
2254.82	39.383
2256.25	38.2051
2257.67	37.416
2259.1	36.5149
2260.53	36.2554
2261.95	35.7656
2263.38	35.0357
2264.8	33.7985
2266.23	32.9294
2267.65	31.952
2269.07	31.1711
2270.5	30.2509
2271.92	29.5404
2273.34	28.4022
2274.77	26.9435
2276.19	26.382
2277.61	25.2615
2279.03	25.5733
2280.46	26.0756
2281.88	26.0445
2283.3	25.0167
2284.72	23.5905
2286.14	22.948
2287.56	21.3481
2288.98	20.6821
2290.4	19.0898
2291.82	18.111
2293.24	17.0954
2294.66	15.8012
2296.08	15.1289
2297.5	14.9845
2298.92	14.565
2300.34	13.656
2301.76	13.2852
2303.17	12.4266
2304.59	11.9648
2306.01	12.0399
2307.43	11.5746
2308.84	10.8951
2310.26	11.0447
2311.68	11.1339
2313.09	11.1238
2314.51	11.8518
2315.92	12.2793
2317.34	12.3293
2318.75	11.5969
2320.17	10.8902
2321.58	11.9152
2323	11.7445
2324.41	11.5811
2325.82	11.5393
2327.24	11.3796
2328.65	11.4184
2330.06	10.7627
2331.48	10.6261
2332.89	9.90804
2334.3	9.89278
2335.71	9.7685
2337.12	10.2903
2338.54	10.3905
2339.95	10.7009
2341.36	10.4785
2342.77	9.68694
2344.18	9.36288
2345.59	8.83425
2347	8.89102
2348.41	9.54663
2349.82	9.21182
2351.23	7.89046
2352.64	6.50852
2354.04	6.32988
2355.45	5.96225
2356.86	5.68009
2358.27	5.37779
2359.68	5.40781
2361.08	5.02185
2362.49	6.05928
2363.9	6.83899
2365.3	7.40984
2366.71	7.92275
2368.12	8.16714
2369.52	7.70818
2370.93	6.87532
2372.33	7.52219
2373.74	7.5919
2375.14	7.70076
2376.55	7.99624
2377.95	8.39052
2379.36	9.61015
2380.76	10.0494
2382.16	10.4266
2383.57	10.7309
2384.97	10.3802
2386.37	9.4862
2387.78	9.04602
2389.18	8.8338
2390.58	8.90128
2391.98	9.46007
2393.38	8.75838
2394.79	8.12276
2396.19	7.56637
2397.59	6.40769
2398.99	5.75536
2400.39	5.86007
2401.79	5.90153
2403.19	6.52193
2404.59	7.08185
2405.99	7.37409
2407.39	7.38086
2408.78	7.66026
2410.18	7.02798
2411.58	6.84457
2412.98	7.03896
2414.38	6.85832
2415.77	6.71186
2417.17	7.13793
2418.57	7.6743
2419.97	7.58876
2421.36	7.98266
2422.76	8.9275
2424.15	9.50658
2425.55	9.73782
2426.95	10.6769
2428.34	11.2416
2429.74	11.4106
2431.13	12.1485
2432.52	12.5957
2433.92	12.566
2435.31	12.3535
2436.71	12.7353
2438.1	12.293
2439.49	12.5589
2440.89	12.8509
2442.28	13.388
2443.67	12.2401
2445.06	12.0986
2446.46	11.6168
2447.85	11.2017
2449.24	9.89854
2450.63	9.13963
2452.02	8.8347
2453.41	7.81633
2454.8	6.66074
2456.19	6.16036
2457.58	5.42567
2458.97	4.29275
2460.36	3.67181
2461.75	2.97262
2463.14	1.29509
2464.53	0.618682
2465.92	-0.278213
2467.31	-0.857744
2468.69	-0.670803
2470.08	0.37923
2471.47	-0.0952341
2472.86	-0.454283
2474.24	-1.51052
2475.63	-1.53571
2477.02	-1.35166
2478.4	-0.982988
2479.79	-1.75908
2481.17	-0.877555
2482.56	-0.377528
2483.94	0.0187721
2485.33	0.238986
2486.72	0.5246
2488.1	1.01222
2489.48	1.88742
2490.87	1.9449
2492.25	2.29854
2493.64	2.66395
2495.02	2.92609
2496.4	3.61434
2497.79	4.13231
2499.17	4.63499
2500.55	4.67644
2501.93	4.37406
2503.31	4.23998
2504.69	4.42567
2506.08	4.27172
2507.46	3.63695
2508.84	3.85465
2510.22	3.44482
2511.6	3.48647
2512.98	3.07941
2514.36	2.71319
2515.74	2.52346
2517.12	2.15493
2518.5	2.58004
2519.88	3.43887
2521.25	3.87381
2522.63	3.61933
2524.01	3.24429
2525.39	2.91467
2526.77	2.26879
2528.14	1.87664
2529.52	2.06937
2530.9	2.31797
2532.27	1.85787
2533.65	2.21546
2535.03	2.24082
2536.4	3.16581
2537.78	4.17708
2539.15	5.22707
2540.53	5.13538
2541.9	5.95168
2543.28	6.74969
2544.65	8.19665
2546.03	9.34822
2547.4	10.1166
2548.77	10.5082
2550.15	11.8046
2551.52	11.5945
2552.89	11.2401
2554.27	10.684
2555.64	11.0039
2557.01	10.9559
2558.38	11.4639
2559.75	11.1559
2561.12	10.6893
2562.5	11.2976
2563.87	11.2379
2565.24	11.483
2566.61	11.7082
2567.98	11.6769
2569.35	10.8983
2570.72	10.5698
2572.09	10.5491
2573.46	10.6259
2574.83	9.95263
2576.19	10.1487
2577.56	10.4076
2578.93	9.91364
2580.3	9.38894
2581.67	8.85342
2583.04	8.37168
2584.4	7.64117
2585.77	6.96808
2587.14	7.34729
2588.5	6.78038
2589.87	6.53652
2591.23	5.18572
2592.6	4.80818
2593.97	4.77023
2595.33	4.26286
2596.7	4.3254
2598.06	4.41776
2599.43	4.57122
2600.79	5.14455
2602.15	5.60476
2603.52	5.8976
2604.88	6.48141
2606.25	6.45064
2607.61	6.5912
2608.97	6.52752
2610.33	6.69475
2611.7	6.5305
2613.06	6.44988
2614.42	6.33997
2615.78	6.34569
2617.15	5.86846
2618.51	6.2658
2619.87	5.79664
2621.23	6.07353
2622.59	5.91963
2623.95	5.66645
2625.31	5.94713
2626.67	6.45279
2628.03	6.48177
2629.39	6.36381
2630.75	7.69295
2632.1	7.55363
2633.46	7.3194
2634.82	7.33573
2636.18	7.10088
2637.54	7.35441
2638.89	7.20713
2640.25	6.88807
2641.61	6.71383
2642.97	6.04918
2644.32	6.21564
2645.68	6.42238
2647.03	5.89621
2648.39	6.59656
2649.75	6.64755
2651.1	6.23731
2652.46	5.60686
2653.81	6.45146
2655.17	6.8196
2656.52	6.67203
2657.88	6.75708
2659.23	6.58007
2660.58	7.30551
2661.94	7.30115
2663.29	7.45924
2664.64	7.82092
2666	7.83361
2667.35	7.72322
2668.7	7.73774
2670.05	7.57409
2671.4	7.75566
2672.76	7.77351
2674.11	7.19222
2675.46	7.03741
2676.81	6.46997
2678.16	6.48076
2679.51	6.75888
2680.86	6.99992
2682.21	7.11592
2683.56	7.39659
2684.91	7.49965
2686.26	7.82761
2687.61	7.37893
2688.96	7.25608
2690.3	7.39621
2691.65	7.14147
2693	7.63434
2694.35	7.54445
2695.7	6.75776
2697.04	6.70451
2698.39	6.5781
2699.74	5.46106
2701.08	5.45493
2702.43	5.00786
2703.77	5.02849
2705.12	4.99631
2706.47	4.40122
2707.81	4.02664
2709.16	4.53967
2710.5	4.64891
2711.85	5.2494
2713.19	5.4554
2714.53	5.46193
2715.88	5.7125
2717.22	4.9462
2718.57	4.64341
2719.91	4.59327
2721.25	5.88818
2722.59	5.93464
2723.94	5.80399
2725.28	5.19764
2726.62	5.1059
2727.96	5.72553
2729.3	5.76039
2730.65	6.18633
2731.99	5.79526
2733.33	5.59273
2734.67	6.09115
2736.01	6.5473
2737.35	6.43262
2738.69	6.45154
2740.03	5.62919
2741.37	5.51153
2742.71	5.86452
2744.05	6.85827
2745.38	7.41722
2746.72	7.09409
2748.06	7.35234
2749.4	6.93035
2750.74	7.20423
2752.07	7.49248
2753.41	8.20639
2754.75	8.3049
2756.09	7.32867
2757.42	7.00938
2758.76	6.40194
2760.09	6.67169
2761.43	5.6757
2762.77	4.58186
2764.1	4.44821
2765.44	3.92715
2766.77	3.60962
2768.11	3.05546
2769.44	2.53405
2770.77	2.77701
2772.11	2.18685
2773.44	1.79419
2774.77	1.66177
2776.11	1.46178
2777.44	0.930347
2778.77	0.529013
2780.11	0.135779
2781.44	-0.61331
2782.77	-1.58656
2784.1	-2.19812
2785.43	-2.32714
2786.77	-2.68555
2788.1	-2.66377
2789.43	-3.34591
2790.76	-3.88788
2792.09	-3.47931
2793.42	-2.27245
2794.75	-1.62193
2796.08	-1.24689
2797.41	-1.45972
2798.74	-1.78593
2800.07	-0.886952
2801.4	-0.556635
2802.72	-0.868312
2804.05	-1.02297
2805.38	-0.815627
2806.71	-0.874669
2808.04	-0.262332
2809.36	0.192411
2810.69	0.092623
2812.02	0.0135117
2813.34	-0.00410326
2814.67	0.846029
2816	1.20954
2817.32	2.79945
2818.65	4.61256
2819.97	6.05732
2821.3	7.20016
2822.62	8.73175
2823.95	11.0881
2825.27	12.9169
2826.6	15.3876
2827.92	17.8312
2829.25	20.929
2830.57	23.9295
2831.89	27.5063
2833.22	31.1537
2834.54	34.0857
2835.86	38.626
2837.18	42.8338
2838.51	47.1248
2839.83	52.3142
2841.15	57.8627
2842.47	62.5668
2843.79	67.6938
2845.11	72.8988
2846.43	78.6023
2847.76	84.5867
2849.08	90.704
2850.4	96.5537
2851.72	102.829
2853.04	109.004
2854.36	115.655
2855.67	121.241
2856.99	127.282
2858.31	133.903
2859.63	139.865
2860.95	145.508
2862.27	151.091
2863.58	156.596
2864.9	162.111
2866.22	166.923
2867.54	170.242
2868.85	175.074
2870.17	179.51
2871.49	184.208
2872.8	188.656
2874.12	192.732
2875.43	197.004
2876.75	201.381
2878.07	206.127
2879.38	209.325
2880.7	214.266
2882.01	218.237
2883.32	222.572
2884.64	226.379
2885.95	231.1
2887.27	236.36
2888.58	240.828
2889.89	245.506
2891.21	251.021
2892.52	257.201
2893.83	263.47
2895.14	269.631
2896.46	276.29
2897.77	283.166
2899.08	290.456
2900.39	298.15
2901.7	307.405
2903.01	316.491
2904.32	325.198
2905.63	335.03
2906.94	344.735
2908.25	353.337
2909.56	364.166
2910.87	374.139
2912.18	384.259
2913.49	394.453
2914.8	403.993
2916.11	413.719
2917.42	422.251
2918.72	431.192
2920.03	439.064
2921.34	446.225
2922.65	452.854
2923.95	458.509
2925.26	462.317
2926.57	466.78
2927.88	469.454
2929.18	471.213
2930.49	472.445
2931.79	472.491
2933.1	471.557
2934.4	471.886
2935.71	470.396
2937.01	468.156
2938.32	463.994
2939.62	459.009
2940.93	452.498
2942.23	446.046
2943.54	438.87
2944.84	430.163
2946.14	422.574
2947.45	413.567
2948.75	404.647
2950.05	395.877
2951.35	386.552
2952.66	376.027
2953.96	365.865
2955.26	356.206
2956.56	346.946
2957.86	337.412
2959.16	327.894
2960.46	318.209
2961.77	308.141
2963.07	298.734
2964.37	289.493
2965.66	280.567
2966.96	272.692
2968.26	263.963
2969.56	255.763
2970.86	248.791
2972.16	241.021
2973.46	233.156
2974.76	225.961
2976.06	218.137
2977.35	211.122
2978.65	204.255
2979.95	196.683
2981.25	188.707
2982.54	180.856
2983.84	174.106
2985.14	165.999
2986.43	158.45
2987.73	151.306
2989.02	144.32
2990.32	136.96
2991.62	130.874
2992.91	123.622
2994.21	117.698
2995.5	111.504
2996.8	104.297
2998.09	98.1159
2999.38	92.6951
3000.68	86.2804
3001.97	80.2783
3003.26	73.415
3004.56	67.6321
3005.85	62.2135
3007.14	57.7021
3008.43	53.4401
3009.73	47.8586
3011.02	43.7156
3012.31	39.196
3013.6	35.0161
3014.89	31.6255
3016.19	28.415
3017.48	25.8315
3018.77	23.2793
3020.06	20.6286
3021.35	18.6492
3022.64	15.9545
3023.93	13.4989
3025.22	11.2061
3026.5	8.6897
3027.79	6.8131
3029.08	5.38046
3030.37	4.12672
3031.66	3.95593
3032.95	3.18277
3034.24	2.52174
3035.52	1.93393
3036.81	1.52707
3038.1	1.66339
3039.39	1.71415
3040.67	2.28708
3041.96	2.19481
3043.25	2.47204
3044.53	2.91805
3045.82	3.48423
3047.1	4.21686
3048.39	4.71529
3049.67	5.43042
3050.96	6.21457
3052.24	7.00739
3053.53	7.44167
3054.81	7.5942
3056.1	8.39324
3057.38	8.84708
3058.67	9.28849
3059.95	9.40615
3061.23	9.65143
3062.52	10.2298
3063.8	10.7653
3065.08	11.2536
3066.36	11.1866
3067.65	10.6535
3068.93	10.7802
3070.21	10.4583
3071.49	10.2136
3072.77	10.5075
3074.05	8.97974
3075.33	8.78347
3076.61	8.38152
3077.89	8.11621
3079.17	8.12696
3080.45	7.90507
3081.73	6.87361
3083.01	5.38819
3084.29	4.71879
3085.57	4.32007
3086.85	2.7505
3088.13	1.77705
3089.41	0.844102
3090.68	0.117636
3091.96	-0.291923
3093.24	-0.394062
3094.52	-0.862831
3095.79	-1.15704
3097.07	-1.08116
3098.35	-1.43368
3099.62	-0.743354
3100.9	-0.30742
3102.18	-0.342866
3103.45	-0.895335
3104.73	-0.508129
3106	-0.318427
3107.28	0.144399
3108.55	0.798425
3109.83	1.6208
3111.1	1.89443
3112.38	3.58298
3113.65	4.65345
3114.93	5.51969
3116.2	6.63451
3117.47	6.99271
3118.75	7.45707
3120.02	8.72218
3121.29	9.6933
3122.57	10.7847
3123.84	11.6573
3125.11	12.6692
3126.38	13.6889
3127.65	14.7642
3128.92	15.5232
3130.2	16.1425
3131.47	17.3928
3132.74	18.5196
3134.01	19.598
3135.28	21.0038
3136.55	22.2481
3137.82	22.6957
3139.09	24.0208
3140.36	25.0262
3141.63	25.6996
3142.9	26.1216
3144.17	26.2532
3145.43	26.609
3146.7	27.1003
3147.97	26.7187
3149.24	26.5271
