#Acq. time (s)=	45
#Accumulations=	2
#Range (cm-¹)=	200...3150
#Windows=	2
#Auto scanning=	Off
#Autofocus=	Off
#Macrospot=	Off
#AutoExposure=	Off
#Spike filter=	Multiple accum.
#Delay time (s)=	0
#Binning=	1
#Readout mode=	Signal
#DeNoise=	Off
#ICS correction=	On
#Dark correction=	Off
#Inst. Process=	Off
#Detector Gain=	Best Dynamic Range
#Detector ADC=	20 kHz       
#Detector temperature (°C)=	-69.85
#Instrument=	LabRAM HR Evol
#Detector=	Synapse
#Objective=	x100
#Grating=	600 gr/mm
#ND Filter=	100%
#Laser (nm)=	532 
#Hole=	100.021
#Range=	Auto
#Laser Pol.=	No
#Raman. Pol.=	No
#Laser Pol. (°)=	-0.0007625
#Raman Pol. (°)=	89.9995
#Collection=	Microscope
#StageXY=	Marzhauser
#StageZ=	Marzhauser
#X (µm)=	-1110.8
#Y (µm)=	584.4
#Z (µm)=	584.15
#Full time(mm:ss)=	3:18
#Project=	
#Sample=	
#Site=	
#Title=	Mb_40_y_34_2x_45s_532 nm_x100_100%_600 gr_mm
#Remark=	
#Date=	19.07.2022 12:11
#Acquired=	19.07.2022 12:11:53
#Base:Fit=	10.08.2022 10:52:48
#Base:Sub=	10.08.2022 10:52:53
#Filter:Polynom=	16.08.2022 10:09:04
#AxisType[0]=Intens
#AxisUnit[0]=Cnt
#AxisType[1]=Spectr
#AxisUnit[1]=1/cm
200.423	16.8008
202.238	13.4454
204.052	11.4075
205.868	9.29066
207.682	7.84251
209.495	6.82958
211.308	5.92887
213.12	4.65853
214.935	3.11638
216.746	2.07445
218.558	0.651423
220.369	1.19127
222.18	1.34668
223.992	2.08451
225.802	2.85228
227.612	2.24092
229.421	2.93225
231.23	3.44376
233.039	4.53841
234.849	5.50719
236.657	6.61761
238.465	6.83819
240.272	7.23431
242.079	7.01795
243.885	8.59056
245.691	8.42289
247.497	8.10911
249.305	9.66197
251.11	10.2935
252.915	11.1728
254.719	11.7685
256.523	11.9802
258.327	13.1156
260.13	14.1725
261.933	14.7409
263.736	15.8949
265.538	16.985
267.34	17.0184
269.141	16.9933
270.943	17.5587
272.744	17.8312
274.544	18.6072
276.344	18.8327
278.144	18.095
279.944	17.5902
281.743	18.4263
283.542	18.5945
285.34	18.4283
287.138	18.2257
288.936	18.1937
290.733	17.8469
292.53	17.247
294.327	16.8358
296.123	16.9318
297.919	16.7767
299.715	16.3442
301.508	16.4096
303.303	15.8079
305.098	16.3542
306.892	17.4367
308.686	17.7093
310.479	18.9445
312.273	19.5894
314.065	19.7606
315.858	19.8423
317.648	19.8121
319.44	20.4869
321.231	20.2438
323.022	20.1408
324.813	20.3482
326.604	20.5034
328.392	19.896
330.181	19.995
331.971	19.7796
333.76	20.5811
335.548	19.5586
337.335	20.42
339.123	21.7931
340.91	20.8069
342.698	20.9964
344.483	21.3768
346.269	22.1901
348.055	22.5398
349.841	22.5909
351.625	23.3214
353.41	23.4582
355.195	22.7725
356.977	21.4047
358.762	20.8078
360.545	20.0777
362.329	20.3805
364.11	19.6094
365.893	18.3242
367.675	18.049
369.455	18.5328
371.237	19.3553
373.017	18.3053
374.798	18.1115
376.578	17.5874
378.357	16.229
380.137	15.859
381.917	15.8661
383.694	15.6404
385.473	16.5835
387.249	15.7831
389.028	15.1001
390.806	14.1946
392.581	13.4729
394.359	13.6511
396.134	13.5024
397.91	13.048
399.684	13.1665
401.46	13.0267
403.234	11.7512
405.009	12.0514
406.784	10.5214
408.557	10.086
410.331	9.3882
412.103	8.9604
413.876	9.20364
415.647	8.73122
417.42	7.57656
419.191	7.76166
420.961	7.6196
422.733	7.55481
424.502	7.44848
426.273	6.99978
428.042	6.48313
429.812	6.33671
431.58	6.62863
433.35	5.61388
435.118	5.0613
436.885	4.64574
438.653	3.94303
440.42	3.9984
442.188	3.33925
443.954	3.73408
445.719	4.08251
447.486	4.9423
449.251	5.8942
451.015	6.1565
452.781	6.30925
454.545	7.21113
456.308	8.28842
458.073	9.5069
459.836	9.71551
461.598	9.67829
463.362	9.69763
465.124	8.88665
466.885	8.92511
468.648	8.80039
470.408	9.23483
472.169	9.50923
473.929	10.4132
475.69	9.23828
477.45	10.3087
479.208	10.7471
480.967	12.3654
482.727	13.1817
484.485	13.2417
486.243	14.3771
488	14.2336
489.759	14.4914
491.515	14.7952
493.272	15.4275
495.028	14.3404
496.783	14.9927
498.54	15.4923
500.295	15.9746
502.05	15.9668
503.804	16.4076
505.558	15.6774
507.311	16.4922
509.064	16.4997
510.819	16.1933
512.572	15.3055
514.324	14.4252
516.076	13.9637
517.827	13.496
519.578	11.8464
521.329	10.3033
523.08	10.9221
524.83	10.7967
526.58	11.8533
528.329	12.5371
530.08	12.8704
531.829	12.6339
533.578	12.2332
535.326	12.3617
537.074	11.5057
538.821	10.6123
540.568	10.0033
542.315	9.10274
544.062	8.69598
545.808	7.61038
547.554	7.11606
549.299	6.00311
551.044	5.25373
552.789	4.66083
554.533	4.47454
556.278	3.57312
558.019	3.69306
559.763	3.07633
561.506	3.66771
563.249	3.56399
564.991	4.91759
566.733	4.4584
568.475	4.73734
570.217	3.57508
571.958	3.49133
573.699	3.97275
575.439	3.42535
577.177	4.06575
578.917	4.3211
580.656	4.48646
582.396	4.58083
584.134	5.37449
585.873	5.66038
587.609	5.53665
589.347	5.37954
591.084	6.14104
592.822	5.79099
594.558	6.20522
596.295	5.33519
598.029	4.5323
599.765	3.91312
601.5	4.2188
603.235	4.4805
604.968	4.16467
606.703	3.40629
608.437	4.50782
610.171	5.49873
611.902	5.04091
613.635	5.8237
615.368	4.39497
617.099	5.06687
618.831	4.59334
620.563	4.76917
622.294	5.24742
624.024	5.23372
625.755	5.22213
627.485	5.78465
629.213	5.82025
630.943	5.87076
632.673	5.06091
634.4	5.49944
636.129	5.40243
637.855	5.63831
639.584	5.03061
641.312	4.74171
643.037	4.98469
644.764	5.23289
646.491	4.49102
648.216	4.83938
649.942	4.78691
651.666	5.14664
653.392	4.15712
655.115	3.92326
656.84	3.9978
658.563	4.58611
660.287	4.5071
662.011	4.75878
663.732	4.48754
665.456	4.58857
667.177	4.391
668.899	4.88552
670.62	5.05139
672.342	6.37264
674.061	7.67182
675.781	8.26409
677.502	8.88366
679.22	9.10709
680.941	9.69116
682.659	11.131
684.379	11.9583
686.096	12.276
687.815	12.4947
689.532	13.1916
691.248	13.4805
692.966	14.1072
694.682	15.454
696.4	15.7136
698.115	16.1775
699.829	18.3132
701.546	19.0192
703.26	20.9299
704.974	21.6334
706.689	23.2335
708.402	24.6476
710.115	25.047
711.83	25.5132
713.542	25.6458
715.254	25.3773
716.967	26.4038
718.679	27.3289
720.39	29.0017
722.102	30.207
723.812	30.1048
725.522	29.7097
727.232	29.9915
728.943	31.0494
730.652	31.468
732.361	31.6762
734.069	32.4207
735.779	32.9428
737.487	33.8015
739.194	34.6547
740.901	35.8342
742.608	36.5939
744.316	36.4631
746.022	37.5279
747.728	38.9442
749.433	40.4406
751.138	41.9059
752.843	44.0771
754.549	46.3902
756.254	47.7887
757.957	50.0635
759.661	50.8963
761.364	51.5037
763.067	52.4579
764.769	53.6931
766.471	54.6743
768.175	55.2772
769.877	55.5636
771.578	56.1507
773.279	57.2155
774.98	58.8645
776.68	58.8996
778.38	60.1508
780.079	61.5636
781.779	62.1088
783.478	62.8352
785.176	64.675
786.875	65.8916
788.573	66.4545
790.27	67.2791
791.968	67.8597
793.665	68.8576
795.361	68.9935
797.058	69.2222
798.754	69.6418
800.45	70.6585
802.145	71.2289
803.84	71.8507
805.535	71.7007
807.23	71.3019
808.922	70.2952
810.616	69.8707
812.309	69.9083
814.002	69.3913
815.695	69.9089
817.388	70.1
819.08	69.8812
820.772	69.6366
822.464	69.5064
824.153	68.8428
825.844	67.325
827.535	66.3085
829.225	66.4271
830.915	67.52
832.605	66.5803
834.292	66.1783
835.981	65.1386
837.67	64.2247
839.359	63.2452
841.047	61.9019
842.732	60.4291
844.42	59.1407
846.107	57.1693
847.794	56.3479
849.479	55.342
851.165	53.8755
852.851	52.804
854.534	51.5249
856.22	50.2445
857.905	50.0081
859.589	49.3079
861.272	48.1057
862.956	47.2189
864.639	46.1539
866.321	45.5018
868.004	46.3046
869.687	46.3729
871.367	45.5086
873.049	43.6719
874.731	43.6869
876.41	42.8368
878.092	41.6286
879.771	40.8215
881.451	41.2563
883.131	40.8128
884.809	39.9687
886.489	39.5882
888.166	39.6608
889.845	38.8199
891.522	38.6815
893.2	37.6456
894.878	37.4593
896.554	37.3185
898.231	37.0034
899.906	37.1385
901.583	36.7933
903.258	35.9747
904.934	35.8262
906.608	37.4735
908.283	38.4877
909.956	39.2037
911.631	40.6494
913.304	41.5144
914.976	42.2593
916.65	42.3898
918.322	42.9847
919.995	43.1275
921.666	43.6414
923.339	43.1846
925.009	42.1915
926.679	41.979
928.351	42.7041
930.021	41.7679
931.692	42.0957
933.361	40.8925
935.029	40.085
936.699	40.5485
938.367	40.6258
940.035	40.7983
941.704	40.2015
943.371	39.5077
945.038	39.3565
946.706	38.247
948.372	38.357
950.038	37.3893
951.705	36.8588
953.37	34.9297
955.035	33.3438
956.7	33.0281
958.366	31.747
960.03	30.1922
961.693	29.7033
963.357	30.1154
965.021	29.3664
966.684	26.9783
968.346	25.7896
970.008	24.7003
971.67	23.721
973.334	21.8579
974.995	21.1303
976.655	19.3277
978.316	19.2015
979.976	18.6624
981.638	18.6669
983.297	18.7142
984.957	18.7281
986.616	18.2607
988.274	18.5889
989.932	18.2911
991.59	17.7966
993.248	16.3801
994.907	15.767
996.565	14.9559
998.221	13.3374
999.878	11.5766
1001.53	9.99251
1003.19	8.75678
1004.85	7.70795
1006.5	6.98831
1008.16	8.99649
1009.81	10.7206
1011.46	13.6383
1013.12	16.5845
1014.77	20.2189
1016.43	24.0708
1018.08	28.5607
1019.73	33.0605
1021.38	37.2793
1023.04	41.8951
1024.69	46.2143
1026.34	51.0554
1027.99	54.7461
1029.64	56.9391
1031.29	59.8519
1032.94	62.6075
1034.59	65.8252
1036.24	68.1987
1037.89	69.8305
1039.54	71.7759
1041.19	72.5815
1042.84	74.1812
1044.48	74.5967
1046.13	74.9226
1047.78	73.893
1049.42	73.1882
1051.07	72.4503
1052.72	71.8347
1054.36	70.54
1056.01	68.8974
1057.66	66.1319
1059.3	63.1541
1060.94	60.4615
1062.59	57.0532
1064.23	54.0055
1065.88	48.919
1067.52	45.0189
1069.16	41.4326
1070.81	36.6322
1072.45	32.0401
1074.09	28.2073
1075.73	23.2567
1077.38	19.3537
1079.02	14.2083
1080.66	8.87695
1082.3	4.93144
1083.94	2.63196
1085.58	2.30081
1087.22	2.98447
1088.86	4.28866
1090.5	6.16206
1092.13	7.2372
1093.77	9.26656
1095.41	10.7226
1097.05	11.6985
1098.68	13.1538
1100.32	14.5807
1101.96	16.9771
1103.6	17.9863
1105.23	18.1442
1106.87	17.9901
1108.5	18.4817
1110.14	18.0211
1111.77	17.8549
1113.41	19.2607
1115.04	19.7877
1116.67	20.4322
1118.31	21.0059
1119.94	20.4295
1121.58	20.6609
1123.21	21.2514
1124.84	20.8652
1126.47	20.683
1128.1	21.63
1129.73	20.8739
1131.37	20.5782
1133	19.8504
1134.63	19.692
1136.26	18.7293
1137.89	17.4545
1139.52	15.7923
1141.14	15.1052
1142.77	13.8295
1144.4	14.2554
1146.03	13.333
1147.66	11.3872
1149.29	11.5867
1150.91	10.5208
1152.54	8.70696
1154.17	7.47458
1155.79	5.80399
1157.42	3.68068
1159.04	2.45551
1160.67	1.54876
1162.3	1.20153
1163.92	2.27624
1165.55	3.21076
1167.17	4.08507
1168.79	4.35054
1170.42	3.68355
1172.04	4.33242
1173.66	4.58616
1175.28	4.20912
1176.91	4.07944
1178.53	3.43921
1180.15	3.96766
1181.77	4.63377
1183.39	4.16872
1185.01	3.04426
1186.63	2.63515
1188.25	3.29589
1189.87	3.7917
1191.49	4.08654
1193.11	5.46804
1194.73	6.68315
1196.35	6.93324
1197.97	8.0735
1199.59	8.21111
1201.2	9.01001
1202.82	10.0572
1204.44	10.873
1206.05	11.1318
1207.67	11.886
1209.29	12.1441
1210.9	12.472
1212.52	14.0214
1214.13	15.1056
1215.75	15.6077
1217.36	15.8221
1218.97	15.8506
1220.59	16.5507
1222.2	16.839
1223.82	18.223
1225.43	18.52
1227.04	17.1342
1228.65	16.4515
1230.26	17.8853
1231.88	17.9066
1233.49	18.4409
1235.1	19.2619
1236.71	19.6632
1238.32	20.085
1239.93	21.376
1241.54	22.2474
1243.15	22.7217
1244.76	23.3886
1246.37	23.7291
1247.97	24.9737
1249.58	25.7968
1251.19	26.3413
1252.8	27.7504
1254.41	27.0995
1256.01	27.4175
1257.62	28.0764
1259.23	28.699
1260.83	30.2542
1262.44	30.6091
1264.04	30.6478
1265.65	30.617
1267.25	31.1139
1268.86	32.0417
1270.46	32.1621
1272.07	32.6895
1273.67	33.1079
1275.27	33.4508
1276.88	33.673
1278.48	34.4424
1280.08	34.8681
1281.68	35.7788
1283.28	35.6508
1284.89	36.4773
1286.49	37.1364
1288.09	37.34
1289.69	37.6834
1291.29	38.5764
1292.89	39.2044
1294.49	38.9599
1296.09	39.1195
1297.69	40.3382
1299.29	41.3497
1300.88	42.0015
1302.48	41.9405
1304.08	42.1007
1305.68	41.7028
1307.27	42.1802
1308.87	43.3279
1310.47	44.7382
1312.06	44.7119
1313.66	45.1273
1315.25	44.7585
1316.85	44.4414
1318.44	44.6411
1320.04	45.9877
1321.63	45.9116
1323.23	45.8226
1324.82	45.9125
1326.41	46.1883
1328.01	46.0509
1329.6	44.1896
1331.19	42.3534
1332.78	41.0724
1334.38	41.0368
1335.97	42.3488
1337.56	42.7675
1339.15	43.2184
1340.74	43.5122
1342.33	43.5237
1343.92	42.6568
1345.51	41.9547
1347.1	42.0199
1348.69	41.5303
1350.28	41.1151
1351.87	41.3543
1353.46	41.1923
1355.04	41.3724
1356.63	40.2825
1358.22	40.411
1359.81	39.3723
1361.39	38.9674
1362.98	38.2656
1364.57	37.3515
1366.15	36.6539
1367.74	36.1559
1369.32	35.5444
1370.91	34.9473
1372.49	34.7582
1374.07	34.271
1375.66	34.3038
1377.24	34.5883
1378.83	34.2925
1380.41	32.6892
1381.99	31.595
1383.57	30.4226
1385.16	29.6267
1386.74	28.1441
1388.32	28.3115
1389.9	27.8334
1391.48	27.5967
1393.06	27.6492
1394.64	27.061
1396.22	26.7957
1397.8	27.4693
1399.38	27.6654
1400.96	26.5865
1402.54	27.1293
1404.12	26.7128
1405.7	26.2424
1407.28	25.3475
1408.85	24.7132
1410.43	26.4496
1412.01	29.0691
1413.58	31.6291
1415.16	32.4194
1416.74	33.7303
1418.31	34.1088
1419.89	35.3746
1421.46	35.7491
1423.04	36.2545
1424.61	37.9874
1426.19	39.5462
1427.76	40.851
1429.33	42.7734
1430.91	44.219
1432.48	44.9904
1434.05	46.2851
1435.63	46.8889
1437.2	48.3838
1438.77	48.5188
1440.34	49.8951
1441.91	49.6626
1443.49	50.0905
1445.05	50.4686
1446.63	50.2606
1448.2	50.327
1449.77	50.639
1451.34	50.0178
1452.91	49.3525
1454.47	49.0881
1456.04	48.0403
1457.61	47.3827
1459.18	45.8495
1460.75	45.0499
1462.31	45.2075
1463.88	44.9364
1465.45	44.5926
1467.01	44.9388
1468.58	44.3
1470.15	43.4547
1471.71	42.6371
1473.28	42.111
1474.84	41.5472
1476.41	40.6809
1477.97	39.0979
1479.54	37.9429
1481.1	37.412
1482.66	36.1185
1484.23	35.1073
1485.79	34.0118
1487.35	33.2573
1488.91	32.2922
1490.48	31.2795
1492.04	30.3938
1493.6	29.4775
1495.16	29.114
1496.72	28.9554
1498.28	28.5144
1499.84	27.9119
1501.4	28.5001
1502.96	29.1567
1504.52	28.8877
1506.08	28.4317
1507.64	27.336
1509.2	25.81
1510.76	25.0173
1512.31	24.7248
1513.87	23.5921
1515.43	23.1314
1516.99	22.288
1518.54	21.9346
1520.1	20.7115
1521.66	20.18
1523.21	19.6343
1524.77	18.5804
1526.32	18.5983
1527.88	17.3156
1529.43	16.6931
1530.99	15.9275
1532.54	16.3844
1534.09	16.0349
1535.65	15.8414
1537.2	15.4917
1538.75	15.2283
1540.31	15.7491
1541.86	15.2359
1543.41	15.8956
1544.96	16.2184
1546.51	16.7924
1548.06	17.0521
1549.62	17.7938
1551.17	18.1479
1552.72	18.1202
1554.27	18.4223
1555.82	18.8252
1557.36	18.9652
1558.91	19.2385
1560.46	19.7363
1562.01	20.4525
1563.56	21.6177
1565.11	22.0617
1566.66	22.7196
1568.2	22.8092
1569.75	22.9128
1571.3	23.4016
1572.84	23.6568
1574.39	25.0287
1575.93	25.2038
1577.48	26.2758
1579.02	27.3133
1580.57	28.3744
1582.11	26.8426
1583.66	26.5262
1585.2	26.5467
1586.75	27.1008
1588.29	28.1947
1589.83	28.8061
1591.38	28.6983
1592.92	29.4057
1594.46	29.3869
1596	29.8956
1597.54	30.0962
1599.09	30.6345
1600.63	30.8749
1602.17	30.3498
1603.71	30.8757
1605.25	29.7211
1606.79	30.1172
1608.33	30.007
1609.87	30.6264
1611.41	29.7792
1612.95	29.8852
1614.48	30.2333
1616.02	30.553
1617.56	31.1103
1619.1	31.9407
1620.64	32.5502
1622.17	33.0408
1623.71	34.1539
1625.25	34.3833
1626.78	34.6149
1628.32	34.8539
1629.86	35.6019
1631.39	36.0747
1632.92	36.3329
1634.46	36.8348
1635.99	37.3963
1637.53	38.0762
1639.06	37.7024
1640.59	37.78
1642.13	37.3262
1643.66	37.4045
1645.19	37.4904
1646.73	38.5824
1648.26	39.5694
1649.79	40.6985
1651.32	41.7509
1652.85	41.8322
1654.38	41.7185
1655.92	41.7845
1657.45	41.5132
1658.98	40.0969
1660.51	40.8249
1662.04	40.9661
1663.57	40.082
1665.09	40.2144
1666.62	39.69
1668.15	39.3998
1669.68	38.9392
1671.21	37.891
1672.73	37.0172
1674.26	35.5811
1675.79	33.9946
1677.31	32.1819
1678.84	30.4693
1680.37	29.3658
1681.89	27.8602
1683.42	26.8567
1684.94	24.802
1686.47	22.935
1687.99	21.1565
1689.52	19.7975
1691.04	18.8552
1692.57	17.5098
1694.09	16.2092
1695.61	15.6157
1697.14	14.5584
1698.66	13.9529
1700.18	12.9214
1701.7	12.0227
1703.22	10.9072
1704.75	9.44002
1706.27	8.43216
1707.79	7.65286
1709.31	6.4741
1710.83	5.57039
1712.35	4.77117
1713.87	4.1877
1715.39	4.16037
1716.91	4.24706
1718.43	4.05518
1719.95	3.63068
1721.46	3.96713
1722.98	3.82904
1724.5	4.13254
1726.02	4.51821
1727.53	3.7839
1729.05	3.48289
1730.57	3.64385
1732.08	4.05431
1733.6	3.81833
1735.12	3.99974
1736.63	4.49775
1738.15	4.85676
1739.66	4.94851
1741.18	5.67769
1742.69	5.67591
1744.21	5.46266
1745.72	4.82356
1747.23	4.46604
1748.74	4.4675
1750.26	4.30317
1751.77	4.31152
1753.28	4.58015
1754.8	4.66974
1756.31	4.1106
1757.82	3.56013
1759.33	3.1846
1760.84	3.02899
1762.35	2.91167
1763.86	2.61239
1765.37	2.23763
1766.88	2.97205
1768.39	2.26205
1769.9	2.41454
1771.41	2.91594
1772.92	2.41779
1774.43	2.18082
1775.93	1.69721
1777.44	1.45028
1778.95	0.479125
1780.46	0.751604
1781.96	1.04024
1783.47	0.910707
1784.98	0.431521
1786.48	0.445283
1787.99	0.591657
1789.49	0.946857
1791	0.828658
1792.5	0.130276
1794.01	0.290346
1795.51	0.184587
1797.02	0.599772
1798.52	0.683608
1800.03	0.728142
1801.53	0.0348087
1803.03	-0.262314
1804.53	0.126484
1806.04	0.460537
1807.54	0.612584
1809.04	0.804217
1810.54	1.38141
1812.04	1.21691
1813.54	1.31173
1815.05	1.37681
1816.55	1.38508
1818.05	1.47695
1819.55	1.23463
1821.05	1.31948
1822.55	1.5608
1824.05	1.90158
1825.54	1.94062
1827.04	2.13123
1828.54	2.3031
1830.04	2.22751
1831.54	1.74276
1833.03	2.14701
1834.53	2.43052
1836.03	2.50379
1837.52	2.5594
1839.02	2.80679
1840.52	2.8946
1842.01	3.58364
1843.51	3.11276
1845	3.20201
1846.5	3.32305
1847.99	2.80684
1849.49	2.96536
1850.98	3.04926
1852.47	3.52146
1853.97	3.56176
1855.46	3.31749
1856.95	2.71825
1858.45	2.84036
1859.94	2.53648
1861.43	2.44271
1862.92	2.38741
1864.41	2.57561
1865.91	2.40728
1867.4	2.82964
1868.89	3.10464
1870.38	3.16365
1871.87	2.99478
1873.36	2.88438
1874.85	2.34281
1876.34	2.23338
1877.83	2.31532
1879.31	1.89206
1880.8	1.89411
1882.29	1.27038
1882.56	0.840722
1884.05	0.501742
1885.54	0.26955
1887.04	0.451186
1888.53	0.308161
1890.03	0.0683849
1891.52	0.384181
1893.01	0.605388
1894.5	1.52398
1895.99	1.5331
1897.49	1.55028
1898.98	1.83097
1900.47	1.75451
1901.96	1.9782
1903.45	1.84924
1904.94	2.42784
1906.43	2.77726
1907.92	2.76907
1909.41	3.23417
1910.9	3.44948
1912.39	3.91808
1913.88	3.8024
1915.37	3.814
1916.86	3.63314
1918.35	3.07876
1919.84	3.02736
1921.32	2.73698
1922.81	2.59644
1924.3	3.03257
1925.78	3.28468
1927.27	3.3986
1928.76	2.81036
1930.24	3.16241
1931.73	3.97959
1933.21	3.63051
1934.7	3.80585
1936.18	3.9496
1937.67	4.11859
1939.15	3.85091
1940.64	3.5161
1942.12	3.62862
1943.6	3.34548
1945.09	2.88688
1946.57	2.52756
1948.05	3.09037
1949.54	3.1486
1951.02	2.42938
1952.5	2.08871
1953.98	2.29028
1955.46	1.65736
1956.94	2.01066
1958.42	3.03816
1959.91	3.62639
1961.39	4.33665
1962.87	4.2992
1964.34	4.62691
1965.82	5.11031
1967.3	5.23303
1968.78	5.48469
1970.26	5.16642
1971.74	5.35681
1973.22	5.96662
1974.7	6.15048
1976.17	6.49723
1977.65	6.68152
1979.13	7.04306
1980.6	7.51726
1982.08	7.42103
1983.56	7.91125
1985.03	7.69417
1986.51	7.91356
1987.98	7.68952
1989.46	8.4874
1990.93	8.17909
1992.41	8.27143
1993.88	8.30181
1995.36	7.84563
1996.83	8.17107
1998.3	8.31987
1999.78	8.50307
2001.25	8.20168
2002.72	8.10551
2004.2	8.53979
2005.67	8.44858
2007.14	8.12278
2008.61	7.62555
2010.08	7.11623
2011.55	6.38999
2013.02	6.41146
2014.49	6.80862
2015.97	6.51398
2017.43	6.0849
2018.9	6.38217
2020.37	6.2269
2021.84	6.33679
2023.31	5.63449
2024.78	5.17084
2026.25	5.96146
2027.72	6.71284
2029.19	6.68437
2030.65	7.15189
2032.12	7.26355
2033.59	7.0009
2035.05	7.05103
2036.52	6.75844
2037.98	6.91973
2039.45	7.2237
2040.92	7.68209
2042.38	7.94399
2043.85	7.87462
2045.31	8.3773
2046.78	8.90041
2048.24	8.6946
2049.71	9.01737
2051.17	8.9585
2052.63	9.16753
2054.1	9.40417
2055.56	9.49811
2057.02	10.1312
2058.48	10.3905
2059.95	10.8233
2061.41	11.0744
2062.87	11.3335
2064.33	10.3343
2065.79	10.7104
2067.25	10.7882
2068.71	11.794
2070.17	12.7411
2071.63	13.2644
2073.09	13.6666
2074.55	14.0039
2076.01	14.6629
2077.47	14.7293
2078.93	14.7493
2080.39	15.0705
2081.85	14.9598
2083.3	15.1497
2084.76	15.8227
2086.22	16.5212
2087.68	16.9453
2089.13	17.4192
2090.59	18.609
2092.05	18.9199
2093.5	18.9763
2094.96	19.5187
2096.41	20.0306
2097.87	20.6747
2099.32	21.3868
2100.78	21.9648
2102.23	22.4114
2103.69	23.3161
2105.14	23.67
2106.59	24.2147
2108.05	24.6096
2109.5	24.7954
2110.95	24.9497
2112.41	25.5681
2113.86	26.7742
2115.31	27.4123
2116.76	28.1092
2118.21	29.0679
2119.67	29.7354
2121.12	30.7519
2122.57	31.4414
2124.02	31.6669
2125.47	32.5807
2126.92	33.262
2128.37	34.4012
2129.82	35.3435
2131.27	36.4956
2132.71	37.3861
2134.16	38.3459
2135.61	38.9897
2137.06	39.8123
2138.51	41.341
2139.95	42.5975
2141.4	44.2543
2142.85	45.5488
2144.29	46.5622
2145.74	47.4052
2147.19	48.9177
2148.63	50.6836
2150.08	51.4028
2151.52	52.4326
2152.97	53.5938
2154.42	54.1738
2155.86	54.5005
2157.3	55.4865
2158.75	56.1105
2160.19	57.4341
2161.64	58.3541
2163.08	58.2342
2164.52	58.5679
2165.96	59.0589
2167.41	59.8403
2168.85	60.369
2170.29	60.9294
2171.73	61.4377
2173.17	61.45
2174.61	61.3472
2176.06	61.0023
2177.5	60.6314
2178.94	59.9251
2180.38	59.9854
2181.82	59.7345
2183.26	59.4264
2184.7	59.2661
2186.14	59.0317
2187.57	58.4326
2189.01	57.8283
2190.45	57.2831
2191.89	56.7922
2193.33	55.5854
2194.76	53.9888
2196.2	53.3082
2197.64	52.4331
2199.08	51.2756
2200.51	50.8426
2201.95	50.3201
2203.38	49.5632
2204.82	48.1329
2206.25	47.3004
2207.69	45.7516
2209.12	44.8714
2210.56	44.4706
2211.99	43.9312
2213.43	42.8343
2214.86	41.7478
2216.3	40.9351
2217.73	39.9205
2219.16	39.0663
2220.59	38.1094
2222.03	36.3982
2223.46	35.611
2224.89	34.3099
2226.32	33.3198
2227.75	32.9045
2229.19	32.4191
2230.62	31.3478
2232.05	30.3432
2233.48	29.12
2234.91	27.8135
2236.34	27.6147
2237.77	26.5922
2239.2	25.8028
2240.63	24.9649
2242.06	24.3738
2243.48	23.5934
2244.91	22.6019
2246.34	22.4044
2247.77	21.4713
2249.2	20.8045
2250.62	19.8619
2252.05	19.6854
2253.48	19.0082
2254.9	18.736
2256.33	18.5681
2257.76	18.0181
2259.18	17.681
2260.61	17.1502
2262.03	16.5599
2263.46	16.5001
2264.88	16.0289
2266.31	16.4373
2267.73	16.7008
2269.16	16.4877
2270.58	16.072
2272	16.429
2273.43	15.8839
2274.85	15.6799
2276.27	14.9745
2277.69	15.2034
2279.12	14.7135
2280.54	14.8876
2281.96	15.2684
2283.38	14.9728
2284.8	14.4221
2286.22	14.2866
2287.64	13.9136
2289.07	13.4132
2290.49	13.0669
2291.91	12.2263
2293.32	11.0922
2294.74	10.9849
2296.16	11.0933
2297.58	11.0985
2299	11.0886
2300.42	10.8035
2301.84	10.8474
2303.26	11.4846
2304.67	11.5546
2306.09	11.4986
2307.51	11.8607
2308.92	12.0043
2310.34	12.6164
2311.76	13.3072
2313.17	13.2104
2314.59	13.0415
2316	13.0589
2317.42	12.7704
2318.83	12.5076
2320.25	12.6801
2321.66	12.4568
2323.08	12.6511
2324.49	12.861
2325.91	13.1563
2327.32	13.4742
2328.73	13.0172
2330.15	13.1683
2331.56	13.121
2332.97	13.0576
2334.38	12.949
2335.79	12.4135
2337.21	12.3186
2338.62	11.7255
2340.03	11.4013
2341.44	10.5681
2342.85	10.2806
2344.26	9.7636
2345.67	9.81907
2347.08	9.17508
2348.49	8.72342
2349.9	7.701
2351.31	6.99311
2352.72	6.1349
2354.13	5.33243
2355.53	4.12042
2356.94	3.0397
2358.35	2.77959
2359.76	2.25196
2361.17	1.27102
2362.57	1.40221
2363.98	1.3774
2365.39	2.21894
2366.79	2.01115
2368.2	2.02514
2369.6	2.32258
2371.01	2.19312
2372.42	2.33313
2373.82	2.12093
2375.22	2.03657
2376.63	2.49232
2378.03	2.52974
2379.44	2.93779
2380.84	3.34353
2382.25	3.51416
2383.65	3.31977
2385.05	3.45143
2386.45	3.39422
2387.86	3.23014
2389.26	3.72602
2390.66	3.75525
2392.06	3.9937
2393.46	4.19684
2394.87	3.85381
2396.27	3.89312
2397.67	3.34423
2399.07	2.65675
2400.47	2.64537
2401.87	2.73175
2403.27	3.13159
2404.67	2.93793
2406.07	2.93849
2407.47	3.22847
2408.86	3.49134
2410.26	3.57611
2411.66	3.37451
2413.06	3.48911
2414.46	4.14477
2415.85	3.96751
2417.25	3.85647
2418.65	3.69444
2420.05	3.57555
2421.44	3.81331
2422.84	4.03155
2424.23	4.12056
2425.63	4.15433
2427.03	4.63146
2428.42	4.8579
2429.82	4.89396
2431.21	5.06143
2432.6	6.01929
2434	5.61584
2435.39	5.77952
2436.79	6.5989
2438.18	7.18418
2439.57	7.46284
2440.97	7.56145
2442.36	8.23739
2443.75	8.24049
2445.14	8.79147
2446.54	8.84581
2447.93	8.89537
2449.32	9.32886
2450.71	9.27527
2452.1	9.37656
2453.49	8.75524
2454.88	8.55802
2456.27	8.68396
2457.66	8.24337
2459.05	8.13811
2460.44	7.4653
2461.83	7.46365
2463.22	7.30446
2464.61	7.11522
2466	7.99902
2467.39	7.84821
2468.77	7.8413
2470.16	8.09794
2471.55	8.27716
2472.94	8.1925
2474.32	7.89536
2475.71	7.94499
2477.1	8.46459
2478.48	8.86197
2479.87	8.77536
2481.25	8.39716
2482.64	8.29079
2484.02	8.31907
2485.41	7.73027
2486.8	7.76102
2488.18	7.49107
2489.56	7.5656
2490.95	7.978
2492.33	7.82299
2493.72	7.81114
2495.1	8.04294
2496.48	7.98691
2497.86	8.02212
2499.25	8.45678
2500.63	8.37034
2502.01	8.45523
2503.39	7.69214
2504.77	7.95912
2506.16	7.96906
2507.54	7.30586
2508.92	7.2318
2510.3	6.8716
2511.68	6.46332
2513.06	5.80026
2514.44	5.65184
2515.82	5.37953
2517.2	4.80454
2518.58	4.74029
2519.95	4.96245
2521.33	5.096
2522.71	4.3905
2524.09	4.62663
2525.47	4.1252
2526.84	3.72349
2528.22	3.8484
2529.6	3.50629
2530.98	4.14427
2532.35	4.14854
2533.73	3.88971
2535.11	4.11619
2536.48	3.78777
2537.86	3.77563
2539.23	4.31809
2540.61	4.60852
2541.98	4.83094
2543.36	5.2382
2544.73	5.22388
2546.1	5.54982
2547.48	5.74397
2548.85	5.78514
2550.23	6.18389
2551.6	6.64409
2552.97	6.76654
2554.34	6.6519
2555.72	6.6144
2557.09	6.74526
2558.46	6.80274
2559.83	7.00381
2561.2	6.85624
2562.58	7.46025
2563.95	7.50079
2565.32	7.48908
2566.69	7.42139
2568.06	7.10504
2569.43	6.73273
2570.8	6.30189
2572.17	6.01072
2573.54	5.96065
2574.91	5.63694
2576.27	5.43763
2577.64	4.77531
2579.01	3.98473
2580.38	3.41882
2581.75	3.19525
2583.11	3.21163
2584.48	2.91604
2585.85	2.94314
2587.21	2.93959
2588.58	2.40825
2589.95	1.94098
2591.31	1.30851
2592.68	1.09482
2594.04	0.629906
2595.41	0.761137
2596.78	0.696414
2598.14	0.653962
2599.51	0.899951
2600.87	0.444307
2602.23	0.398523
2603.6	0.661622
2604.96	0.913352
2606.32	1.05161
2607.69	1.63151
2609.05	1.94452
2610.41	2.60595
2611.77	2.6692
2613.14	2.74112
2614.5	3.1936
2615.86	3.42405
2617.22	3.79162
2618.58	3.48018
2619.94	3.4977
2621.3	2.87598
2622.67	2.8406
2624.03	3.16843
2625.39	3.72828
2626.75	3.8573
2628.1	4.45404
2629.46	4.47305
2630.82	4.93924
2632.18	4.5008
2633.54	4.87359
2634.9	4.97747
2636.26	5.0945
2637.61	4.83159
2638.97	4.49246
2640.33	4.74248
2641.69	4.61458
2643.04	4.87951
2644.4	4.94884
2645.76	5.1304
2647.11	5.07499
2648.47	4.98414
2649.82	5.08682
2651.18	5.19803
2652.53	4.82718
2653.89	5.06942
2655.24	4.68815
2656.6	4.57364
2657.95	4.98435
2659.31	5.04489
2660.66	5.21384
2662.01	5.11032
2663.37	5.18813
2664.72	4.81138
2666.07	4.60203
2667.43	4.48893
2668.78	4.87051
2670.13	5.13121
2671.48	5.30152
2672.83	5.31996
2674.18	5.11635
2675.53	5.18194
2676.89	5.28103
2678.24	5.43256
2679.59	4.71728
2680.94	4.61627
2682.29	4.56833
2683.64	4.55578
2684.99	4.46145
2686.34	4.37667
2687.68	4.53203
2689.03	4.39689
2690.38	5.0849
2691.73	4.97268
2693.08	5.13235
2694.43	4.70761
2695.77	4.68085
2697.12	4.23829
2698.47	4.12503
2699.81	3.84532
2701.16	4.10012
2702.51	3.50126
2703.85	3.83301
2705.2	3.47847
2706.54	3.50802
2707.89	3.45809
2709.23	3.3512
2710.58	3.78384
2711.92	3.8554
2713.27	3.297
2714.61	3.22045
2715.96	3.73809
2717.3	3.53654
2718.64	3.49997
2719.99	3.60666
2721.33	3.61897
2722.67	3.06567
2724.01	2.99929
2725.36	3.25735
2726.7	2.60969
2728.04	2.38275
2729.38	2.29318
2730.72	2.48386
2732.06	1.9776
2733.41	1.8457
2734.75	1.8064
2736.09	1.42724
2737.43	1.08877
2738.77	1.09387
2740.11	1.1866
2741.44	1.47434
2742.78	1.27537
2744.12	1.13237
2745.46	0.666526
2746.8	0.495725
2748.14	0.658685
2749.48	0.834118
2750.81	0.612841
2752.15	0.564238
2753.49	0.753172
2754.83	0.377341
2756.16	0.353532
2757.5	0.65524
2758.84	0.0729727
2760.17	0.130188
2761.51	-0.231742
2762.84	-0.208177
2764.18	-0.504276
2765.51	-0.531409
2766.85	-0.173048
2768.18	0.0623834
2769.52	-0.135768
2770.85	0.196081
2772.19	-0.0166996
2773.52	0.354761
2774.85	0.319366
2776.19	0.952017
2777.52	0.895893
2778.85	1.22618
2780.18	1.26161
2781.52	1.56446
2782.85	1.2037
2784.18	0.8408
2785.51	0.992043
2786.84	1.19716
2788.17	0.897174
2789.51	0.563604
2790.84	0.897306
2792.17	1.0837
2793.5	0.75488
2794.83	1.00072
2796.16	0.863807
2797.48	0.944645
2798.81	0.384949
2800.14	0.399485
2801.47	0.655016
2802.8	0.953259
2804.13	1.07094
2805.46	0.863575
2806.79	0.547285
2808.11	0.180715
2809.44	-0.504993
2810.77	-0.533712
2812.09	-0.6287
2813.42	-0.236439
2814.75	-0.179923
2816.07	-0.221916
2817.4	-0.391844
2818.73	0.771953
2820.05	1.68897
2821.38	2.74576
2822.7	4.0734
2824.03	5.14349
2825.35	5.4314
2826.67	6.74099
2828	7.90068
2829.32	9.39036
2830.65	10.454
2831.97	12.1815
2833.29	13.4368
2834.62	15.4015
2835.94	16.8823
2837.26	18.4688
2838.58	20.2226
2839.9	21.803
2841.23	23.2906
2842.55	25.1927
2843.87	26.5425
2845.19	28.8489
2846.51	30.2461
2847.83	31.824
2849.15	34.1066
2850.47	36.051
2851.79	38.6883
2853.11	40.431
2854.43	42.3481
2855.75	44.4524
2857.07	46.8565
2858.39	48.7396
2859.71	50.5105
2861.02	52.6874
2862.34	54.4906
2863.66	56.0764
2864.98	57.1565
2866.3	58.422
2867.61	60.2076
2868.93	61.2815
2870.25	61.7224
2871.56	62.6462
2872.88	63.7656
2874.19	65.065
2875.51	65.9345
2876.83	67.3343
2878.14	68.5923
2879.46	69.7026
2880.77	70.4568
2882.09	71.7265
2883.4	73.0964
2884.71	74.4333
2886.03	75.011
2887.34	76.3615
2888.65	76.8686
2889.97	77.9146
2891.28	79.2301
2892.59	80.367
2893.91	81.5379
2895.22	82.6675
2896.53	83.1657
2897.84	85.1144
2899.15	86.5283
2900.46	88.686
2901.78	89.5097
2903.09	90.3225
2904.4	91.7346
2905.71	94.1539
2907.02	95.6236
2908.33	97.9218
2909.64	100.208
2910.95	102.631
2912.26	105.087
2913.57	107.734
2914.87	110.787
2916.18	113.509
2917.49	115.992
2918.8	117.791
2920.11	120.451
2921.42	122.41
2922.72	123.978
2924.03	125.658
2925.34	127.151
2926.64	128.137
2927.95	128.86
2929.26	129.375
2930.56	129.694
2931.87	130.236
2933.17	130.347
2934.48	129.863
2935.78	129.346
2937.09	128.788
2938.39	128.417
2939.7	127.93
2941	127.042
2942.31	125.786
2943.61	124.45
2944.91	122.158
2946.22	120.055
2947.52	118.087
2948.82	115.913
2950.13	113.705
2951.43	111.517
2952.73	109.38
2954.03	106.275
2955.33	104.092
2956.64	101.178
2957.94	98.4356
2959.24	95.638
2960.54	92.8183
2961.84	90.0666
2963.14	88.0632
2964.44	85.3489
2965.74	82.6866
2967.04	79.9051
2968.34	77.42
2969.64	75.7066
2970.94	74.005
2972.24	71.6387
2973.53	69.4126
2974.83	67.3243
2976.13	64.7992
2977.43	62.6837
2978.73	60.1979
2980.02	58.119
2981.32	55.8351
2982.62	52.97
2983.91	50.9448
2985.21	48.2871
2986.51	45.6998
2987.8	43.1339
2989.1	40.9208
2990.4	38.1758
2991.69	35.3884
2992.99	33.0207
2994.28	30.5447
2995.57	28.7057
2996.87	27.0287
2998.16	25.0201
2999.46	23.0905
3000.75	21.229
3002.05	19.7256
3003.34	18.371
3004.63	16.4803
3005.92	14.9159
3007.22	13.1972
3008.51	11.8012
3009.8	9.86208
3011.09	9.27071
3012.39	8.56528
3013.68	7.67571
3014.97	6.45686
3016.26	5.58312
3017.55	4.35237
3018.84	3.27684
3020.13	3.16357
3021.42	2.20437
3022.71	2.17371
3024	1.60939
3025.29	1.53246
3026.58	1.43394
3027.87	1.4326
3029.16	1.24597
3030.45	1.07431
3031.73	1.20347
3033.02	1.25957
3034.31	1.39972
3035.6	1.88629
3036.89	2.08105
3038.17	1.72544
3039.46	2.40799
3040.75	1.93917
3042.03	2.45025
3043.32	2.81696
3044.61	3.21379
3045.89	3.43146
3047.18	3.47636
3048.46	3.84987
3049.75	3.93716
3051.03	4.07599
3052.32	4.2342
3053.6	4.76904
3054.89	4.71008
3056.17	4.89008
3057.45	4.81103
3058.74	4.97644
3060.02	4.9459
3061.31	4.7561
3062.59	4.35184
3063.87	3.99648
3065.15	3.93032
3066.44	3.77025
3067.72	3.46203
3069	3.17514
3070.28	3.42237
3071.56	3.03131
3072.84	3.08263
3074.13	3.28064
3075.41	3.64196
3076.69	3.23108
3077.97	2.70972
3079.25	2.3031
3080.53	1.80971
3081.81	1.04074
3083.09	1.25842
3084.37	1.37801
3085.64	0.714134
3086.92	1.08558
3088.2	0.734904
3089.48	0.806366
3090.76	0.649704
3092.04	0.47481
3093.31	0.337372
3094.59	0.860451
3095.87	1.12249
3097.14	0.94565
3098.42	0.851582
3099.7	0.767907
3100.97	0.496345
3102.25	0.684663
3103.53	1.06562
3104.8	0.97252
3106.08	1.86372
3107.35	2.19198
3108.63	2.16241
3109.9	2.40353
3111.18	2.76975
3112.45	2.99189
3113.73	3.27738
3115	3.46506
3116.27	3.65761
3117.55	3.97186
3118.82	3.71334
3120.09	3.80856
3121.37	3.64245
3122.64	4.12993
3123.91	4.25173
3125.18	4.63799
3126.45	4.73983
3127.73	5.16831
3129	5.35043
3130.27	5.74097
3131.54	6.00145
3132.81	6.2759
3134.08	6.91284
3135.35	7.37827
3136.62	8.03973
3137.89	8.09055
3139.16	8.12616
3140.43	8.01798
3141.7	8.14192
3142.97	8.30518
3144.24	8.54232
3145.51	8.66471
3146.78	8.52354
3148.04	8.50257
3149.31	8.23395
