#Acq. time (s)=	45
#Accumulations=	2
#Range (cm-¹)=	200...3150
#Windows=	2
#Auto scanning=	Off
#Autofocus=	Off
#Macrospot=	Off
#AutoExposure=	Off
#Spike filter=	Multiple accum.
#Delay time (s)=	0
#Binning=	1
#Readout mode=	Signal
#DeNoise=	Off
#ICS correction=	On
#Dark correction=	Off
#Inst. Process=	Off
#Detector Gain=	Best Dynamic Range
#Detector ADC=	20 kHz       
#Detector temperature (°C)=	-69.85
#Instrument=	LabRAM HR Evol
#Detector=	Synapse
#Objective=	x100
#Grating=	600 gr/mm
#ND Filter=	100%
#Laser (nm)=	532 
#Hole=	100.021
#Range=	Auto
#Laser Pol.=	No
#Raman. Pol.=	No
#Laser Pol. (°)=	-0.0007625
#Raman Pol. (°)=	89.9995
#Collection=	Microscope
#StageXY=	Marzhauser
#StageZ=	Marzhauser
#X (µm)=	-1025.3
#Y (µm)=	658
#Z (µm)=	584.35
#Full time(mm:ss)=	3:18
#Project=	
#Sample=	
#Site=	
#Title=	Mb_40_y_21_2x_45s_532 nm_x100_100%_600 gr_mm
#Remark=	
#Date=	19.07.2022 10:40
#Acquired=	19.07.2022 10:40:51
#Base:Fit=	10.08.2022 10:52:48
#Base:Sub=	10.08.2022 10:52:53
#Filter:Polynom=	16.08.2022 10:09:04
#AxisType[0]=Intens
#AxisUnit[0]=Cnt
#AxisType[1]=Spectr
#AxisUnit[1]=1/cm
200.423	39.9339
202.238	38.1028
204.052	34.8499
205.868	32.4269
207.682	30.0387
209.495	27.4595
211.308	24.8435
213.12	23.4948
214.935	22.0706
216.746	19.8794
218.558	18.7307
220.369	17.2801
222.18	15.4035
223.992	14.001
225.802	12.9813
227.612	11.4625
229.421	10.25
231.23	9.71456
233.039	8.29482
234.849	6.51608
236.657	6.17309
238.465	5.46411
240.272	5.42237
242.079	5.39085
243.885	5.16048
245.691	4.94611
247.497	2.88715
249.305	2.61308
251.11	1.29461
252.915	1.1499
254.719	1.24652
256.523	0.936416
258.327	1.30576
260.13	0.285797
261.933	-0.212234
263.736	0.116676
265.538	-0.247236
267.34	1.84559
269.141	3.02624
270.943	2.93299
272.744	3.77789
274.544	3.42512
276.344	3.18313
278.144	2.61108
279.944	3.01285
281.743	4.47094
283.542	4.32796
285.34	4.63241
287.138	5.17098
288.936	6.11894
290.733	6.7621
292.53	7.67159
294.327	7.88316
296.123	8.3315
297.919	8.70603
299.715	10.2291
301.508	12.0141
303.303	13.5867
305.098	13.9188
306.892	14.222
308.686	15.2775
310.479	15.0864
312.273	15.7981
314.065	16.1793
315.858	16.9786
317.648	16.7397
319.44	17.1105
321.231	16.4766
323.022	16.8175
324.813	17.1523
326.604	18.5494
328.392	17.8737
330.181	18.3293
331.971	17.6413
333.76	16.1664
335.548	15.4346
337.335	14.1668
339.123	14.8691
340.91	13.5712
342.698	13.7992
344.483	13.7574
346.269	13.0356
348.055	12.3944
349.841	10.8485
351.625	10.8925
353.41	11.0977
355.195	11.621
356.977	11.9782
358.762	11.469
360.545	11.9276
362.329	11.5167
364.11	11.9028
365.893	11.9047
367.675	10.7824
369.455	11.0409
371.237	12.3992
373.017	11.6001
374.798	12.2711
376.578	13.34
378.357	13.1887
380.137	14.0238
381.917	13.3988
383.694	13.5815
385.473	14.6066
387.249	14.2309
389.028	15.7773
390.806	16.1682
392.581	16.6261
394.359	17.2699
396.134	18.1847
397.91	18.4705
399.684	18.5927
401.46	19.0569
403.234	19.5406
405.009	20.175
406.784	20.2641
408.557	20.5068
410.331	20.5235
412.103	21.4042
413.876	20.6509
415.647	19.6148
417.42	19.1263
419.191	18.6391
420.961	18.1294
422.733	17.2939
424.502	17.3281
426.273	16.4297
428.042	16.1492
429.812	15.3308
431.58	14.7317
433.35	14.1057
435.118	13.0527
436.885	11.6663
438.653	11.5426
440.42	11.6523
442.188	12.2713
443.954	12.3246
445.719	11.6836
447.486	11.2998
449.251	10.8159
451.015	10.9172
452.781	11.7854
454.545	11.5492
456.308	11.8347
458.073	11.6148
459.836	12.3959
461.598	12.5616
463.362	12.1191
465.124	11.9402
466.885	11.2538
468.648	12.0359
470.408	12.9457
472.169	13.5612
473.929	15.1549
475.69	16.2108
477.45	18.8705
479.208	19.6187
480.967	21.4827
482.727	23.0506
484.485	24.4432
486.243	25.1051
488	26.2726
489.759	27.4237
491.515	28.8789
493.272	30.2336
495.028	31.5562
496.783	31.9879
498.54	32.4609
500.295	32.7685
502.05	33.4711
503.804	33.8599
505.558	35.2619
507.311	35.6974
509.064	36.245
510.819	36.0838
512.572	35.8672
514.324	36.0022
516.076	36.4426
517.827	36.2597
519.578	36.5959
521.329	36.9894
523.08	36.6886
524.83	36.2051
526.58	36.3475
528.329	36.157
530.08	35.5306
531.829	34.4553
533.578	33.7155
535.326	33.0508
537.074	32.4202
538.821	31.044
540.568	30.6551
542.315	29.7408
544.062	27.5678
545.808	26.3174
547.554	26.5357
549.299	24.6643
551.044	22.9169
552.789	22.5633
554.533	21.6546
556.278	21.0322
558.019	20.835
559.763	19.1145
561.506	19.7388
563.249	18.0356
564.991	17.2034
566.733	16.7056
568.475	16.5959
570.217	15.6811
571.958	15.0577
573.699	14.4212
575.439	14.1991
577.177	13.6811
578.917	14.4495
580.656	14.1419
582.396	12.787
584.134	11.457
585.873	10.3512
587.609	9.85138
589.347	8.75867
591.084	7.2313
592.822	7.37199
594.558	7.22628
596.295	6.44551
598.029	6.49254
599.765	7.07114
601.5	7.28764
603.235	7.03129
604.968	7.0076
606.703	7.53899
608.437	7.39429
610.171	6.18403
611.902	5.63809
613.635	5.36953
615.368	4.7042
617.099	4.08857
618.831	3.8909
620.563	3.72908
622.294	4.77237
624.024	5.00557
625.755	5.45694
627.485	5.67392
629.213	5.89606
630.943	7.36038
632.673	7.78046
634.4	7.1065
636.129	6.94911
637.855	8.47162
639.584	8.95133
641.312	9.18856
643.037	9.94432
644.764	11.0449
646.491	10.6118
648.216	11.6779
649.942	10.7588
651.666	11.1118
653.392	12.0576
655.115	11.8274
656.84	11.4865
658.563	11.0695
660.287	10.5072
662.011	10.4158
663.732	9.81377
665.456	9.28159
667.177	7.93503
668.899	7.35169
670.62	6.58003
672.342	7.34022
674.061	8.45335
675.781	9.04792
677.502	10.5343
679.22	11.4493
680.941	11.3792
682.659	11.3629
684.379	11.2237
686.096	11.7525
687.815	11.8455
689.532	12.8656
691.248	13.8383
692.966	14.2639
694.682	13.8733
696.4	12.872
698.115	14.3902
699.829	15.3574
701.546	16.2784
703.26	18.1978
704.974	20.5184
706.689	23.1119
708.402	24.8754
710.115	25.9367
711.83	28.4316
713.542	29.6351
715.254	32.6841
716.967	33.6887
718.679	34.7145
720.39	35.8394
722.102	36.5409
723.812	37.6636
725.522	37.6078
727.232	38.5504
728.943	37.839
730.652	38.0306
732.361	37.8984
734.069	37.8161
735.779	37.7641
737.487	38.0823
739.194	38.5632
740.901	37.4437
742.608	36.7977
744.316	36.8311
746.022	37.5784
747.728	37.9109
749.433	38.2185
751.138	38.2778
752.843	39.4684
754.549	39.2787
756.254	39.7161
757.957	41.9811
759.661	42.2781
761.364	41.6552
763.067	42.1236
764.769	42.0634
766.471	43.2636
768.175	44.2798
769.877	44.8007
771.578	45.2723
773.279	45.8988
774.98	45.6788
776.68	45.792
778.38	45.3316
780.079	46.7215
781.779	47.6164
783.478	50.3501
785.176	52.085
786.875	54.1699
788.573	56.2004
790.27	57.2293
791.968	58.6996
793.665	58.3954
795.361	59.8106
797.058	60.657
798.754	60.1711
800.45	60.3661
802.145	60.1163
803.84	60.4243
805.535	59.084
807.23	58.657
808.922	58.9217
810.616	58.7008
812.309	58.5947
814.002	58.8554
815.695	59.3254
817.388	59.5932
819.08	59.5476
820.772	60.7921
822.464	61.2496
824.153	61.0954
825.844	59.7886
827.535	60.2725
829.225	60.4376
830.915	59.9349
832.605	59.3507
834.292	59.0733
835.981	58.3666
837.67	57.2583
839.359	55.3623
841.047	55.1503
842.732	54.8709
844.42	52.9265
846.107	51.5709
847.794	51.0764
849.479	50.4543
851.165	49.5726
852.851	47.4428
854.534	45.6923
856.22	45.1497
857.905	44.3185
859.589	43.015
861.272	42.0183
862.956	40.3075
864.639	40.2
866.321	38.7388
868.004	38.1536
869.687	36.1269
871.367	34.6254
873.049	34.1551
874.731	32.7749
876.41	32.6462
878.092	31.2142
879.771	31.1999
881.451	29.7796
883.131	28.5641
884.809	27.8791
886.489	27.4466
888.166	27.0795
889.845	25.5768
891.522	25.4636
893.2	26.0634
894.878	25.9949
896.554	25.6122
898.231	25.8728
899.906	25.9523
901.583	26.4193
903.258	26.9888
904.934	28.0296
906.608	27.213
908.283	26.3334
909.956	25.9075
911.631	25.8565
913.304	26.7524
914.976	26.4422
916.65	25.9863
918.322	25.2126
919.995	25.6887
921.666	25.4628
923.339	25.4555
925.009	26.113
926.679	26.3472
928.351	26.4714
930.021	27.0908
931.692	26.1435
933.361	26.499
935.029	25.8495
936.699	24.852
938.367	25.189
940.035	25.5491
941.704	24.5008
943.371	24.4631
945.038	24.6575
946.706	24.3959
948.372	24.7269
950.038	24.8655
951.705	25.2543
953.37	25.0946
955.035	25.3965
956.7	26.0579
958.366	24.9828
960.03	24.2095
961.693	22.1069
963.357	21.0472
965.021	20.628
966.684	19.993
968.346	20.2257
970.008	19.8606
971.67	20.1158
973.334	19.7869
974.995	21.1526
976.655	21.5839
978.316	21.5492
979.976	22.438
981.638	23.7671
983.297	25.2358
984.957	24.3599
986.616	24.8055
988.274	24.8657
989.932	24.2173
991.59	23.938
993.248	22.5262
994.907	21.2304
996.565	19.3229
998.221	16.0451
999.878	11.2192
1001.53	8.49055
1003.19	6.67443
1004.85	3.45876
1006.5	3.61229
1008.16	6.02929
1009.81	11.5799
1011.46	20.4503
1013.12	30.6905
1014.77	43.1227
1016.43	59.37
1018.08	75.1168
1019.73	90.8127
1021.38	108.591
1023.04	124.73
1024.69	139.55
1026.34	154.412
1027.99	167.983
1029.64	179.641
1031.29	190.411
1032.94	200.266
1034.59	209.017
1036.24	215.78
1037.89	221.991
1039.54	228.209
1041.19	231.141
1042.84	233.854
1044.48	236.04
1046.13	238.233
1047.78	238.825
1049.42	237.497
1051.07	235.842
1052.72	232.337
1054.36	227.953
1056.01	221.166
1057.66	214.731
1059.3	206.986
1060.94	197.638
1062.59	187.339
1064.23	174.811
1065.88	161.64
1067.52	147.395
1069.16	133.394
1070.81	118.488
1072.45	102.782
1074.09	86.1619
1075.73	69.1462
1077.38	54.4655
1079.02	38.5521
1080.66	23.9635
1082.3	10.0425
1083.94	0.778655
1085.58	-5.2048
1087.22	-9.51063
1088.86	-9.60133
1090.5	-7.73562
1092.13	-4.1724
1093.77	0.221365
1095.41	3.26232
1097.05	7.09834
1098.68	10.9581
1100.32	13.5939
1101.96	15.22
1103.6	16.7437
1105.23	16.909
1106.87	16.6845
1108.5	17.5626
1110.14	17.4401
1111.77	17.8474
1113.41	17.7388
1115.04	18.1489
1116.67	18.2203
1118.31	17.6489
1119.94	18.0066
1121.58	17.9278
1123.21	16.6622
1124.84	16.0503
1126.47	15.8683
1128.1	15.4111
1129.73	16.0954
1131.37	15.9582
1133	15.7914
1134.63	16.0096
1136.26	15.6231
1137.89	15.3108
1139.52	16.1555
1141.14	15.2034
1142.77	14.2255
1144.4	13.6803
1146.03	12.4315
1147.66	12.5469
1149.29	13.2397
1150.91	12.9676
1152.54	13.0162
1154.17	12.7481
1155.79	11.0098
1157.42	11.1406
1159.04	9.80939
1160.67	7.33979
1162.3	6.79485
1163.92	7.28477
1165.55	7.99688
1167.17	8.33985
1168.79	7.22437
1170.42	8.37164
1172.04	7.98938
1173.66	7.65125
1175.28	7.09504
1176.91	5.47159
1178.53	5.53838
1180.15	5.54355
1181.77	4.2469
1183.39	3.12378
1185.01	2.31527
1186.63	2.10463
1188.25	1.96824
1189.87	1.92808
1191.49	1.97997
1193.11	2.76144
1194.73	1.84178
1196.35	2.25239
1197.97	2.55029
1199.59	3.47475
1201.2	4.64369
1202.82	4.32099
1204.44	5.30184
1206.05	6.41719
1207.67	9.49573
1209.29	11.193
1210.9	13.2172
1212.52	14.5652
1214.13	16.7827
1215.75	18.5821
1217.36	19.5496
1218.97	21.2163
1220.59	22.0694
1222.2	22.5184
1223.82	24.2753
1225.43	25.7718
1227.04	28.4387
1228.65	31.7809
1230.26	34.9089
1231.88	36.2502
1233.49	37.8266
1235.1	40.1478
1236.71	41.8564
1238.32	43.8273
1239.93	45.3894
1241.54	48.1619
1243.15	50.2216
1244.76	50.9095
1246.37	51.1347
1247.97	51.1573
1249.58	53.0483
1251.19	55.3931
1252.8	55.3729
1254.41	56.5914
1256.01	57.0658
1257.62	57.8499
1259.23	59.2488
1260.83	60.8278
1262.44	61.7536
1264.04	63.5144
1265.65	64.2192
1267.25	65.4851
1268.86	66.9975
1270.46	67.1435
1272.07	69.6083
1273.67	70.7857
1275.27	72.0553
1276.88	73.7407
1278.48	74.8393
1280.08	76.5513
1281.68	78.0651
1283.28	77.977
1284.89	79.468
1286.49	78.8123
1288.09	80.4671
1289.69	81.0927
1291.29	82.2116
1292.89	83.0871
1294.49	83.0299
1296.09	82.7232
1297.69	82.7737
1299.29	83.5354
1300.88	83.4797
1302.48	84.1507
1304.08	85.3648
1305.68	86.004
1307.27	87.7851
1308.87	88.5341
1310.47	88.5926
1312.06	87.4077
1313.66	87.5016
1315.25	88.1504
1316.85	87.3296
1318.44	87.4014
1320.04	88.2812
1321.63	87.5569
1323.23	87.5284
1324.82	86.9323
1326.41	87.6032
1328.01	87.9534
1329.6	88.7586
1331.19	87.7352
1332.78	86.6297
1334.38	86.4561
1335.97	85.0522
1337.56	84.6689
1339.15	85.0463
1340.74	84.8864
1342.33	82.8538
1343.92	81.5279
1345.51	79.9955
1347.1	78.6331
1348.69	77.0361
1350.28	75.4705
1351.87	73.8736
1353.46	71.7627
1355.04	69.5684
1356.63	67.0443
1358.22	65.7166
1359.81	63.4955
1361.39	61.2274
1362.98	58.0062
1364.57	57.3418
1366.15	55.4413
1367.74	55.9151
1369.32	53.8286
1370.91	51.8586
1372.49	49.7481
1374.07	47.9631
1375.66	47.1969
1377.24	45.9208
1378.83	44.9203
1380.41	44.8414
1381.99	45.0861
1383.57	45.5268
1385.16	44.8358
1386.74	45.6171
1388.32	45.7571
1389.9	44.5891
1391.48	44.6396
1393.06	45.3408
1394.64	46.2059
1396.22	46.049
1397.8	47.5505
1399.38	48.9404
1400.96	49.4787
1402.54	51.2807
1404.12	52.192
1405.7	54.462
1407.28	56.1292
1408.85	57.3177
1410.43	59.8159
1412.01	61.3274
1413.58	63.6507
1415.16	66.376
1416.74	70.2083
1418.31	72.7523
1419.89	75.0955
1421.46	77.9211
1423.04	82.287
1424.61	86.2285
1426.19	88.6544
1427.76	92.5918
1429.33	96.0314
1430.91	98.4788
1432.48	102.489
1434.05	105.306
1435.63	109.794
1437.2	113.307
1438.77	115.322
1440.34	118.402
1441.91	120.781
1443.49	122.754
1445.05	123.695
1446.63	126.264
1448.2	127.087
1449.77	126.917
1451.34	127.144
1452.91	127.387
1454.47	127.609
1456.04	127.6
1457.61	127.493
1459.18	126.68
1460.75	126.082
1462.31	124.695
1463.88	122.671
1465.45	121.874
1467.01	119.717
1468.58	116.565
1470.15	114.715
1471.71	111.629
1473.28	109.211
1474.84	106.872
1476.41	103.469
1477.97	98.6998
1479.54	95.5588
1481.1	92.6026
1482.66	89.1875
1484.23	86.3905
1485.79	83.158
1487.35	79.2754
1488.91	76.7459
1490.48	72.7248
1492.04	70.9554
1493.6	68.4438
1495.16	65.4277
1496.72	62.911
1498.28	60.9616
1499.84	59.4891
1501.4	58.029
1502.96	55.4379
1504.52	52.7039
1506.08	51.0406
1507.64	48.3663
1509.2	46.3502
1510.76	45.3016
1512.31	43.8411
1513.87	43.9328
1515.43	41.4788
1516.99	39.3661
1518.54	38.3934
1520.1	37.0093
1521.66	36.0086
1523.21	36.5688
1524.77	36.3725
1526.32	34.2255
1527.88	33.3202
1529.43	33.1071
1530.99	33.0836
1532.54	33.3153
1534.09	33.9465
1535.65	34.6431
1537.2	35.5796
1538.75	37.5542
1540.31	38.9754
1541.86	40.0618
1543.41	40.8676
1544.96	41.1502
1546.51	41.769
1548.06	42.9492
1549.62	43.3281
1551.17	44.2695
1552.72	44.7553
1554.27	44.2502
1555.82	45.2653
1557.36	47.9381
1558.91	47.4636
1560.46	47.8172
1562.01	48.5736
1563.56	48.9116
1565.11	48.7909
1566.66	49.7911
1568.2	50.1399
1569.75	50.9844
1571.3	51.9096
1572.84	53.5658
1574.39	54.8449
1575.93	56.0404
1577.48	56.9981
1579.02	57.8173
1580.57	58.8917
1582.11	59.5115
1583.66	61.1812
1585.2	62.6198
1586.75	63.9823
1588.29	65.1198
1589.83	66.4673
1591.38	67.2771
1592.92	66.4244
1594.46	66.4236
1596	66.532
1597.54	66.5098
1599.09	66.8688
1600.63	67.1049
1602.17	65.6815
1603.71	65.1659
1605.25	65.3316
1606.79	64.4313
1608.33	64.7393
1609.87	64.9284
1611.41	66.2577
1612.95	66.4147
1614.48	66.995
1616.02	66.7984
1617.56	67.2662
1619.1	66.7295
1620.64	66.6203
1622.17	67.2305
1623.71	68.3288
1625.25	69.0103
1626.78	69.9428
1628.32	70.7585
1629.86	71.962
1631.39	72.5813
1632.92	72.8031
1634.46	73.9548
1635.99	74.3991
1637.53	76.4756
1639.06	77.6162
1640.59	78.9298
1642.13	80.0683
1643.66	81.0328
1645.19	82.7684
1646.73	84.9068
1648.26	86.1668
1649.79	87.7983
1651.32	88.5938
1652.85	89.3241
1654.38	90.3393
1655.92	91.2523
1657.45	92.0888
1658.98	91.9516
1660.51	91.8682
1662.04	91.0137
1663.57	89.5791
1665.09	87.5631
1666.62	86.55
1668.15	84.5389
1669.68	82.7226
1671.21	80.6158
1672.73	78.5404
1674.26	76.8173
1675.79	74.6323
1677.31	72.5778
1678.84	69.7685
1680.37	66.8806
1681.89	64.4201
1683.42	61.1305
1684.94	58.0406
1686.47	55.5288
1687.99	52.6501
1689.52	48.9119
1691.04	45.5177
1692.57	41.7941
1694.09	39.3377
1695.61	36.3387
1697.14	33.9713
1698.66	31.4263
1700.18	29.3404
1701.7	27.5044
1703.22	25.0003
1704.75	22.2771
1706.27	20.9073
1707.79	19.2082
1709.31	17.1957
1710.83	16.5256
1712.35	15.7657
1713.87	15.1287
1715.39	13.1548
1716.91	12.8327
1718.43	12.6406
1719.95	11.8068
1721.46	12.3354
1722.98	11.8178
1724.5	11.4084
1726.02	11.2408
1727.53	10.5781
1729.05	10.1275
1730.57	9.59673
1732.08	8.80859
1733.6	8.40724
1735.12	7.79047
1736.63	7.2063
1738.15	7.13725
1739.66	6.28343
1741.18	6.55882
1742.69	7.85116
1744.21	7.69425
1745.72	7.3521
1747.23	7.4209
1748.74	7.55176
1750.26	7.87635
1751.77	7.61348
1753.28	7.51492
1754.8	7.49456
1756.31	6.99204
1757.82	7.00148
1759.33	6.0795
1760.84	6.34875
1762.35	5.93824
1763.86	5.22864
1765.37	4.82887
1766.88	4.06134
1768.39	3.43729
1769.9	3.43552
1771.41	3.06435
1772.92	2.82062
1774.43	2.26762
1775.93	2.47242
1777.44	2.19202
1778.95	1.37459
1780.46	2.45009
1781.96	3.43039
1783.47	3.56092
1784.98	3.57127
1786.48	5.1443
1787.99	5.63581
1789.49	6.22822
1791	6.20583
1792.5	7.00728
1794.01	7.35067
1795.51	6.71306
1797.02	7.36117
1798.52	7.06174
1800.03	7.15878
1801.53	7.19197
1803.03	6.79431
1804.53	6.80231
1806.04	6.27975
1807.54	6.00794
1809.04	6.92335
1810.54	6.81715
1812.04	6.03221
1813.54	5.69676
1815.05	5.64745
1816.55	5.89939
1818.05	5.9833
1819.55	5.6363
1821.05	5.85492
1822.55	6.11657
1824.05	5.74778
1825.54	5.87497
1827.04	5.90377
1828.54	5.86182
1830.04	6.15655
1831.54	5.52946
1833.03	5.95235
1834.53	6.54461
1836.03	6.50288
1837.52	5.98826
1839.02	5.64348
1840.52	5.72849
1842.01	5.59153
1843.51	6.21203
1845	6.42431
1846.5	6.01856
1847.99	6.70634
1849.49	7.53237
1850.98	7.81445
1852.47	8.74157
1853.97	9.62374
1855.46	10.3152
1856.95	10.6599
1858.45	10.4249
1859.94	11.1027
1861.43	11.2482
1862.92	11.3134
1864.41	12.2818
1865.91	12.1017
1867.4	12.0451
1868.89	11.7702
1870.38	11.5987
1871.87	12.0318
1873.36	12.2856
1874.85	12.6956
1876.34	12.4792
1877.83	12.0218
1879.31	12.3618
1880.8	12.2473
1882.29	12.0426
1882.56	12.0558
1884.05	11.1148
1885.54	10.5764
1887.04	10.8675
1888.53	10.7069
1890.03	10.3486
1891.52	10.0802
1893.01	9.80075
1894.5	9.79602
1895.99	9.95044
1897.49	9.52266
1898.98	9.45815
1900.47	9.42221
1901.96	9.66937
1903.45	10.6447
1904.94	10.2811
1906.43	10.7126
1907.92	10.2404
1909.41	9.66443
1910.9	9.37054
1912.39	9.15309
1913.88	9.59245
1915.37	10.6757
1916.86	10.3554
1918.35	9.59362
1919.84	9.30285
1921.32	9.24377
1922.81	9.11185
1924.3	8.57393
1925.78	8.32597
1927.27	7.4372
1928.76	6.61313
1930.24	6.43811
1931.73	5.38674
1933.21	5.36927
1934.7	5.60309
1936.18	6.30154
1937.67	5.60828
1939.15	5.23193
1940.64	4.79768
1942.12	4.30675
1943.6	4.31258
1945.09	4.27441
1946.57	3.53396
1948.05	3.52471
1949.54	3.24004
1951.02	3.46352
1952.5	3.62796
1953.98	3.02708
1955.46	2.29695
1956.94	2.72443
1958.42	2.38976
1959.91	1.92297
1961.39	1.99483
1962.87	2.16499
1964.34	1.89519
1965.82	2.85089
1967.3	4.02596
1968.78	4.13496
1970.26	4.95566
1971.74	4.85527
1973.22	5.21295
1974.7	5.56556
1976.17	6.03363
1977.65	5.5533
1979.13	5.34002
1980.6	5.72923
1982.08	5.29993
1983.56	5.48097
1985.03	5.73161
1986.51	5.77956
1987.98	6.16249
1989.46	5.87936
1990.93	5.38124
1992.41	5.36338
1993.88	5.16882
1995.36	5.68901
1996.83	6.87252
1998.3	6.68597
1999.78	6.92535
2001.25	7.43488
2002.72	8.04159
2004.2	8.26179
2005.67	8.88022
2007.14	9.25761
2008.61	9.62269
2010.08	9.27865
2011.55	8.58933
2013.02	9.07098
2014.49	8.48604
2015.97	8.76845
2017.43	8.54627
2018.9	9.12311
2020.37	9.70588
2021.84	11.05
2023.31	11.0751
2024.78	11.3054
2026.25	11.1381
2027.72	10.5458
2029.19	11.1239
2030.65	11.3881
2032.12	11.3763
2033.59	12.2055
2035.05	13.1339
2036.52	13.3724
2037.98	13.1661
2039.45	14.0575
2040.92	13.5913
2042.38	12.937
2043.85	12.9035
2045.31	12.8384
2046.78	13.0261
2048.24	13.8052
2049.71	14.3297
2051.17	14.274
2052.63	14.4415
2054.1	14.2677
2055.56	13.6586
2057.02	14.1113
2058.48	14.557
2059.95	15.0579
2061.41	16.462
2062.87	17.4111
2064.33	18.4379
2065.79	18.2053
2067.25	19.1058
2068.71	19.7362
2070.17	20.2317
2071.63	20.3013
2073.09	20.4073
2074.55	20.6095
2076.01	21.0135
2077.47	21.4753
2078.93	22.236
2080.39	22.7341
2081.85	23.9297
2083.3	24.2439
2084.76	25.5753
2086.22	26.8226
2087.68	27.4461
2089.13	28.4519
2090.59	28.9536
2092.05	30.0308
2093.5	30.9042
2094.96	31.3791
2096.41	31.8864
2097.87	32.0873
2099.32	32.5657
2100.78	33.6118
2102.23	35.5099
2103.69	35.7727
2105.14	36.6088
2106.59	37.9287
2108.05	38.742
2109.5	39.5966
2110.95	41.2558
2112.41	43.4664
2113.86	44.8646
2115.31	46.5929
2116.76	48.4023
2118.21	50.7349
2119.67	52.8094
2121.12	54.3968
2122.57	56.3231
2124.02	58.0804
2125.47	59.8553
2126.92	62.6403
2128.37	64.923
2129.82	67.5774
2131.27	70.3027
2132.71	72.1733
2134.16	74.5405
2135.61	75.79
2137.06	77.1894
2138.51	79.2
2139.95	81.2338
2141.4	82.5861
2142.85	85.1702
2144.29	87.387
2145.74	89.004
2147.19	91.3879
2148.63	93.7142
2150.08	96.0204
2151.52	98.4051
2152.97	100.273
2154.42	101.901
2155.86	103.576
2157.3	105.875
2158.75	106.744
2160.19	108.062
2161.64	109.498
2163.08	109.893
2164.52	110.401
2165.96	111.998
2167.41	111.982
2168.85	112.473
2170.29	112.907
2171.73	113.49
2173.17	114.208
2174.61	114.117
2176.06	113.143
2177.5	113.384
2178.94	113.372
2180.38	112.445
2181.82	112.355
2183.26	111.767
2184.7	111.365
2186.14	109.648
2187.57	108.788
2189.01	107.611
2190.45	106.582
2191.89	106.128
2193.33	104.363
2194.76	103.662
2196.2	101.433
2197.64	98.9198
2199.08	97.3032
2200.51	94.6765
2201.95	92.297
2203.38	89.813
2204.82	87.5536
2206.25	85.6511
2207.69	83.703
2209.12	82.5895
2210.56	80.6303
2211.99	78.6369
2213.43	76.3153
2214.86	74.0615
2216.3	72.0953
2217.73	69.9081
2219.16	68.2256
2220.59	66.5939
2222.03	64.7547
2223.46	63.0905
2224.89	60.8711
2226.32	59.0881
2227.75	57.2856
2229.19	54.923
2230.62	52.9021
2232.05	51.7655
2233.48	49.3398
2234.91	47.0896
2236.34	45.1691
2237.77	43.8741
2239.2	42.0873
2240.63	40.6765
2242.06	39.1977
2243.48	37.2366
2244.91	35.9669
2246.34	33.9893
2247.77	32.8844
2249.2	31.9571
2250.62	31.4253
2252.05	30.6427
2253.48	30.0492
2254.9	29.292
2256.33	28.9297
2257.76	27.8045
2259.18	27.5667
2260.61	27.8617
2262.03	27.5674
2263.46	27.1719
2264.88	25.7912
2266.31	25.2723
2267.73	24.0914
2269.16	23.5449
2270.58	23.5485
2272	23.5331
2273.43	23.544
2274.85	23.0148
2276.27	23.0439
2277.69	22.717
2279.12	23.6863
2280.54	23.0393
2281.96	21.9864
2283.38	20.9348
2284.8	20.0761
2286.22	19.2813
2287.64	18.9367
2289.07	18.0866
2290.49	17.66
2291.91	16.641
2293.32	16.1534
2294.74	15.6259
2296.16	14.4548
2297.58	14.0661
2299	13.4834
2300.42	13.5951
2301.84	13.1954
2303.26	12.8765
2304.67	12.2374
2306.09	11.8869
2307.51	11.9362
2308.92	12.1123
2310.34	11.3319
2311.76	11.318
2313.17	11.2305
2314.59	10.2907
2316	10.6066
2317.42	10.7044
2318.83	11.2133
2320.25	10.8214
2321.66	10.5014
2323.08	9.47819
2324.49	9.08787
2325.91	9.24393
2327.32	8.64483
2328.73	8.0787
2330.15	8.30498
2331.56	8.53482
2332.97	7.4452
2334.38	6.9173
2335.79	6.46473
2337.21	6.46665
2338.62	6.52896
2340.03	6.22868
2341.44	5.79129
2342.85	6.34351
2344.26	5.3573
2345.67	5.44514
2347.08	5.58195
2348.49	5.64595
2349.9	5.54691
2351.31	4.4147
2352.72	4.07612
2354.13	3.50229
2355.53	3.44556
2356.94	2.84249
2358.35	3.55979
2359.76	3.66225
2361.17	3.05542
2362.57	3.17844
2363.98	3.29996
2365.39	2.79742
2366.79	2.71095
2368.2	2.99301
2369.6	3.29638
2371.01	3.27812
2372.42	2.81746
2373.82	3.82962
2375.22	3.97205
2376.63	3.49874
2378.03	3.74627
2379.44	3.89041
2380.84	3.34236
2382.25	3.91009
2383.65	2.89349
2385.05	3.01947
2386.45	3.87732
2387.86	3.18975
2389.26	2.46819
2390.66	1.88741
2392.06	2.29249
2393.46	2.1784
2394.87	3.00973
2396.27	3.509
2397.67	2.95544
2399.07	3.48742
2400.47	4.15214
2401.87	4.14319
2403.27	3.62916
2404.67	3.9093
2406.07	4.45467
2407.47	4.21748
2408.86	4.57883
2410.26	3.96465
2411.66	3.66287
2413.06	4.39266
2414.46	4.69857
2415.85	5.57456
2417.25	5.47564
2418.65	5.30219
2420.05	5.73163
2421.44	5.473
2422.84	5.58891
2424.23	5.5598
2425.63	5.8549
2427.03	5.92536
2428.42	6.45022
2429.82	5.97556
2431.21	6.07764
2432.6	7.27091
2434	6.98695
2435.39	6.75402
2436.79	7.10355
2438.18	6.40104
2439.57	6.81749
2440.97	6.28544
2442.36	6.91141
2443.75	6.91203
2445.14	6.36147
2446.54	6.12435
2447.93	6.43033
2449.32	6.27374
2450.71	5.63346
2452.1	5.86857
2453.49	6.12308
2454.88	6.44473
2456.27	6.44665
2457.66	6.62673
2459.05	7.14613
2460.44	7.41202
2461.83	7.74591
2463.22	7.6877
2464.61	7.92053
2466	7.46981
2467.39	6.8607
2468.77	6.3889
2470.16	5.8186
2471.55	5.03795
2472.94	4.56187
2474.32	4.22952
2475.71	3.76473
2477.1	3.37099
2478.48	3.2988
2479.87	2.42976
2481.25	2.86314
2482.64	3.49171
2484.02	3.98534
2485.41	3.22497
2486.8	2.51131
2488.18	2.47618
2489.56	2.85123
2490.95	2.27271
2492.33	3.29646
2493.72	2.96001
2495.1	3.31127
2496.48	3.09521
2497.86	3.45858
2499.25	3.23857
2500.63	2.57994
2502.01	2.76807
2503.39	1.85871
2504.77	1.04438
2506.16	1.64063
2507.54	0.866398
2508.92	2.23764
2510.3	2.00307
2511.68	2.16912
2513.06	2.20361
2514.44	1.85413
2515.82	1.55266
2517.2	1.82146
2518.58	2.21219
2519.95	2.96264
2521.33	3.70425
2522.71	4.08393
2524.09	3.87661
2525.47	4.00059
2526.84	4.18227
2528.22	3.76909
2529.6	4.2572
2530.98	4.66638
2532.35	4.79103
2533.73	5.14582
2535.11	4.92827
2536.48	4.36355
2537.86	4.05343
2539.23	4.15062
2540.61	4.30932
2541.98	5.14512
2543.36	5.11202
2544.73	5.56539
2546.1	6.47083
2547.48	6.10785
2548.85	6.29858
2550.23	7.07749
2551.6	7.21323
2552.97	6.95135
2554.34	6.43777
2555.72	6.72266
2557.09	7.46985
2558.46	7.01793
2559.83	7.34919
2561.2	7.64793
2562.58	6.38902
2563.95	7.13993
2565.32	6.91453
2566.69	7.24362
2568.06	7.65061
2569.43	7.35795
2570.8	8.24531
2572.17	8.14476
2573.54	8.18117
2574.91	9.31952
2576.27	9.48489
2577.64	10.4155
2579.01	9.90189
2580.38	9.69021
2581.75	9.65787
2583.11	9.86138
2584.48	10.5732
2585.85	11.1452
2587.21	12.2518
2588.58	12.2212
2589.95	12.3512
2591.31	11.8676
2592.68	11.6314
2594.04	11.3853
2595.41	11.5574
2596.78	11.225
2598.14	11.7855
2599.51	11.4992
2600.87	11.3913
2602.23	10.9595
2603.6	9.78782
2604.96	9.53065
2606.32	9.09652
2607.69	9.19129
2609.05	9.15078
2610.41	8.80024
2611.77	7.92539
2613.14	8.421
2614.5	8.07877
2615.86	7.24662
2617.22	7.15299
2618.58	7.18881
2619.94	7.29507
2621.3	6.4245
2622.67	7.00839
2624.03	7.03887
2625.39	6.9978
2626.75	6.76595
2628.1	7.34184
2629.46	6.36322
2630.82	6.84519
2632.18	7.37182
2633.54	7.01294
2634.9	7.0758
2636.26	7.98214
2637.61	7.93438
2638.97	8.42629
2640.33	8.63056
2641.69	9.04242
2643.04	9.69262
2644.4	9.99438
2645.76	9.87624
2647.11	10.5266
2648.47	11.0152
2649.82	11.6066
2651.18	12.7234
2652.53	12.9075
2653.89	13.5583
2655.24	14.4424
2656.6	13.8549
2657.95	14.0773
2659.31	13.1815
2660.66	13.0881
2662.01	12.6272
2663.37	13.1085
2664.72	13.1638
2666.07	13.7302
2667.43	13.1304
2668.78	13.0834
2670.13	12.8286
2671.48	12.6157
2672.83	12.7481
2674.18	12.8927
2675.53	13.1781
2676.89	12.7275
2678.24	12.7976
2679.59	13.7276
2680.94	14.0275
2682.29	13.4375
2683.64	14.0449
2684.99	13.6766
2686.34	14.319
2687.68	14.5199
2689.03	14.0914
2690.38	14.3274
2691.73	13.8421
2693.08	13.7869
2694.43	13.4868
2695.77	12.9557
2697.12	12.7871
2698.47	13.2451
2699.81	12.8859
2701.16	12.6316
2702.51	13.0575
2703.85	12.6995
2705.2	12.1731
2706.54	11.6475
2707.89	11.5275
2709.23	12.1093
2710.58	12.4249
2711.92	13.0532
2713.27	12.8005
2714.61	13.4915
2715.96	13.2527
2717.3	13.3988
2718.64	14.3655
2719.99	14.334
2721.33	14.3337
2722.67	14.1532
2724.01	13.8021
2725.36	14.1049
2726.7	13.9959
2728.04	14.2148
2729.38	14.3014
2730.72	14.8693
2732.06	14.2538
2733.41	14.2829
2734.75	14.2542
2736.09	14.4287
2737.43	14.0184
2738.77	13.8548
2740.11	13.7037
2741.44	13.905
2742.78	13.5347
2744.12	13.0865
2745.46	12.9513
2746.8	13.0826
2748.14	12.4397
2749.48	11.824
2750.81	11.8892
2752.15	11.4
2753.49	11.4257
2754.83	10.5302
2756.16	10.0041
2757.5	9.42624
2758.84	9.46554
2760.17	8.83447
2761.51	8.21443
2762.84	7.92648
2764.18	7.32134
2765.51	6.07826
2766.85	5.28355
2768.18	3.94243
2769.52	3.53329
2770.85	3.14666
2772.19	3.43367
2773.52	3.22373
2774.85	3.26473
2776.19	3.71363
2777.52	3.38474
2778.85	3.20075
2780.18	2.81718
2781.52	3.32098
2782.85	4.03408
2784.18	4.05528
2785.51	3.72572
2786.84	3.10615
2788.17	2.43313
2789.51	2.37805
2790.84	2.12879
2792.17	1.70427
2793.5	1.20079
2794.83	1.37298
2796.16	1.13103
2797.48	0.942721
2798.81	0.919049
2800.14	0.926055
2801.47	1.15025
2802.8	0.616734
2804.13	0.320232
2805.46	0.481597
2806.79	-0.654378
2808.11	-0.701993
2809.44	-1.62736
2810.77	-1.84736
2812.09	-1.90068
2813.42	-1.22144
2814.75	-0.649924
2816.07	-0.533385
2817.4	0.975332
2818.73	2.8447
2820.05	4.96464
2821.38	7.15216
2822.7	9.95911
2824.03	12.4486
2825.35	15.388
2826.67	18.2041
2828	21.3582
2829.32	25.4334
2830.65	28.8127
2831.97	32.7812
2833.29	36.8048
2834.62	41.0257
2835.94	45.7199
2837.26	50.5515
2838.58	54.9298
2839.9	59.8687
2841.23	64.7845
2842.55	69.5508
2843.87	74.3657
2845.19	79.5048
2846.51	84.1744
2847.83	89.2455
2849.15	93.7676
2850.47	98.1488
2851.79	103.664
2853.11	110.031
2854.43	115.339
2855.75	120.875
2857.07	126.723
2858.39	131.882
2859.71	137.327
2861.02	142.021
2862.34	146.46
2863.66	149.873
2864.98	153.696
2866.3	156.568
2867.61	159.84
2868.93	162.693
2870.25	164.942
2871.56	166.781
2872.88	168.577
2874.19	170.882
2875.51	172.969
2876.83	175.445
2878.14	177.728
2879.46	180.337
2880.77	182.761
2882.09	185.259
2883.4	187.891
2884.71	190.052
2886.03	192.42
2887.34	194.868
2888.65	197.767
2889.97	199.966
2891.28	202.657
2892.59	205.123
2893.91	207.798
2895.22	210.801
2896.53	213.4
2897.84	215.951
2899.15	218.488
2900.46	222.048
2901.78	225.44
2903.09	229.743
2904.4	234.458
2905.71	238.952
2907.02	243.176
2908.33	247.903
2909.64	252.727
2910.95	258.552
2912.26	264.28
2913.57	270.304
2914.87	276.806
2916.18	283.744
2917.49	289.83
2918.8	295.447
2920.11	300.84
2921.42	305.561
2922.72	310.396
2924.03	313.299
2925.34	317.274
2926.64	320.629
2927.95	323.604
2929.26	325.276
2930.56	328.473
2931.87	329.509
2933.17	330.271
2934.48	330.113
2935.78	328.347
2937.09	327.554
2938.39	326.515
2939.7	324.662
2941	322.931
2942.31	320.075
2943.61	316.391
2944.91	312.021
2946.22	308.17
2947.52	302.411
2948.82	297.039
2950.13	291.713
2951.43	286.467
2952.73	279.947
2954.03	273.407
2955.33	266.644
2956.64	260.543
2957.94	253.698
2959.24	246.934
2960.54	239.775
2961.84	233.23
2963.14	225.232
2964.44	218.315
2965.74	211.776
2967.04	205.295
2968.34	198.84
2969.64	192.085
2970.94	185.35
2972.24	178.884
2973.53	172.438
2974.83	166.394
2976.13	161.17
2977.43	155.045
2978.73	149.155
2980.02	143.659
2981.32	137.52
2982.62	131.501
2983.91	125.108
2985.21	119.769
2986.51	113.384
2987.8	107.992
2989.1	101.949
2990.4	96.9621
2991.69	91.4218
2992.99	86.0223
2994.28	81.2337
2995.57	76.8491
2996.87	71.0744
2998.16	66.2859
2999.46	61.7675
3000.75	58.0628
3002.05	54.3576
3003.34	50.51
3004.63	46.3796
3005.92	42.364
3007.22	38.8772
3008.51	34.8203
3009.8	31.7949
3011.09	28.4384
3012.39	24.9687
3013.68	22.5748
3014.97	19.7666
3016.26	17.6515
3017.55	15.3603
3018.84	13.9931
3020.13	12.6221
3021.42	11.1324
3022.71	8.76096
3024	7.51847
3025.29	6.78851
3026.58	5.66015
3027.87	4.30683
3029.16	3.70679
3030.45	2.7652
3031.73	2.27461
3033.02	1.72181
3034.31	1.51691
3035.6	1.21572
3036.89	0.858539
3038.17	0.0662273
3039.46	0.830696
3040.75	1.21014
3042.03	1.035
3043.32	0.718664
3044.61	0.444219
3045.89	0.0448264
3047.18	-0.213349
3048.46	-0.525814
3049.75	-0.384389
3051.03	-0.928476
3052.32	-0.554103
3053.6	-0.735544
3054.89	-0.720588
3056.17	-0.338724
3057.45	0.149712
3058.74	0.426884
3060.02	0.550032
3061.31	0.424226
3062.59	0.836345
3063.87	0.786902
3065.15	1.02798
3066.44	0.589381
3067.72	0.686284
3069	0.840614
3070.28	0.983647
3071.56	0.733054
3072.84	0.204708
3074.13	0.418138
3075.41	0.0213668
3076.69	0.435426
3077.97	-0.319893
3079.25	0.330898
3080.53	0.396545
3081.81	0.369749
3083.09	0.86813
3084.37	0.75712
3085.64	0.616197
3086.92	0.637013
3088.2	0.727114
3089.48	0.912686
3090.76	0.0707807
3092.04	0.118507
3093.31	-0.431793
3094.59	-0.182512
3095.87	-0.058841
3097.14	0.334706
3098.42	-0.0654783
3099.7	-0.61355
3100.97	-0.203498
3102.25	-0.470408
3103.53	0.225813
3104.8	-0.612983
3106.08	-1.34277
3107.35	-1.13465
3108.63	-0.423241
3109.9	-0.318306
3111.18	-0.0798091
3112.45	0.893837
3113.73	1.05468
3115	1.9618
3116.27	3.10691
3117.55	3.28034
3118.82	3.73433
3120.09	4.70146
3121.37	5.5106
3122.64	6.04392
3123.91	6.95231
3125.18	7.71379
3126.45	8.29251
3127.73	8.82434
3129	10.0181
3130.27	10.6609
3131.54	11.6679
3132.81	12.7865
3134.08	13.2037
3135.35	14.2203
3136.62	15.619
3137.89	16.6029
3139.16	17.5881
3140.43	18.5912
3141.7	19.5456
3142.97	20.7619
3144.24	21.4053
3145.51	21.9035
3146.78	22.0046
3148.04	22.5347
3149.31	21.8244
