#Acq. time (s)=	45
#Accumulations=	2
#Range (cm-¹)=	200...3150
#Windows=	2
#Auto scanning=	Off
#Autofocus=	Off
#Macrospot=	Off
#AutoExposure=	Off
#Spike filter=	Multiple accum.
#Delay time (s)=	0
#Binning=	1
#Readout mode=	Signal
#DeNoise=	Off
#ICS correction=	On
#Dark correction=	Off
#Inst. Process=	Off
#Detector Gain=	Best Dynamic Range
#Detector ADC=	20 kHz       
#Detector temperature (°C)=	-70.08
#Instrument=	LabRAM HR Evol
#Detector=	Synapse
#Objective=	x100
#Grating=	600 gr/mm
#ND Filter=	100%
#Laser (nm)=	532 
#Hole=	100.021
#Range=	Auto
#Laser Pol.=	No
#Raman. Pol.=	No
#Laser Pol. (°)=	-0.0007625
#Raman Pol. (°)=	89.9995
#Collection=	Microscope
#StageXY=	Marzhauser
#StageZ=	Marzhauser
#X (µm)=	-2470.6
#Y (µm)=	-28.8
#Z (µm)=	-10.25
#Full time(mm:ss)=	3:19
#Project=	
#Sample=	
#Site=	
#Title=	Mb_40_24_45_2x_45s_532 nm_x100_100%_600 gr_mm
#Remark=	
#Date=	14.07.2022 14:12
#Acquired=	14.07.2022 14:12:06
#Base:Fit=	10.08.2022 10:47:00
#Base:Sub=	10.08.2022 10:47:12
#Filter:Polynom=	16.08.2022 10:11:48
#AxisType[0]=Intens
#AxisUnit[0]=Cnt
#AxisType[1]=Spectr
#AxisUnit[1]=1/cm
200.554	22.6019
202.369	17.4277
204.183	17.1851
205.999	16.4217
207.813	15.4571
209.626	14.5453
211.439	13.1821
213.253	11.8361
215.065	11.3729
216.877	10.4624
218.688	8.95048
220.5	7.75448
222.312	7.02573
224.123	7.46566
225.933	6.17053
227.742	6.06488
229.552	6.02808
231.361	5.2995
233.171	3.99119
234.98	3.89903
236.787	3.80219
238.595	4.60835
240.402	4.95625
242.209	5.28638
244.015	5.4701
245.822	5.77401
247.627	5.36462
249.435	5.02132
251.24	5.83862
253.045	5.60723
254.849	5.9994
256.653	5.68918
258.457	5.81244
260.26	5.62178
262.063	7.65361
263.866	7.71285
265.668	8.05307
267.47	8.31816
269.271	9.77689
271.073	10.3541
272.873	9.40944
274.674	9.52427
276.474	10.3747
278.274	10.8391
280.073	10.2703
281.872	10.9313
283.671	12.8182
285.47	12.0519
287.268	12.0622
289.065	12.8785
290.863	14.7898
292.66	16.4743
294.456	15.913
296.253	15.9342
298.049	15.4925
299.844	15.6266
301.637	16.9402
303.432	17.6521
305.227	18.1735
307.021	17.9648
308.815	17.8253
310.609	18.6674
312.402	19.3193
314.195	19.7771
315.987	19.2682
317.777	19.694
319.569	19.6101
321.36	18.7191
323.151	19.3074
324.942	21.1871
326.733	21.2988
328.521	20.7404
330.31	19.4085
332.1	18.8539
333.889	17.8247
335.677	16.5528
337.464	15.6814
339.252	14.6569
341.039	12.969
342.826	10.6467
344.611	10.1362
346.398	9.2498
348.184	9.82493
349.97	9.85641
351.754	9.70147
353.539	9.19419
355.324	9.14209
357.106	8.82584
358.89	8.51165
360.674	7.46899
362.455	7.01921
364.239	8.22797
366.021	8.54788
367.804	8.66348
369.584	8.52817
371.366	10.3082
373.145	10.491
374.926	9.91282
376.707	11.7457
378.485	13.2196
380.265	13.7162
382.045	14.0534
383.822	13.916
385.601	14.4313
387.378	15.9058
389.156	17.9972
390.934	19.5058
392.71	19.1291
394.487	19.8217
396.262	19.7584
398.038	19.7321
399.813	20.5552
401.588	21.0844
403.362	22.5633
405.137	23.1791
406.912	23.1117
408.685	23.8599
410.459	25.2854
412.23	26.298
414.004	25.892
415.775	23.962
417.548	22.1463
419.318	22.6776
421.089	22.2891
422.86	21.6136
424.63	20.8153
426.401	21.1528
428.17	20.8972
429.94	20.9167
431.708	21.8963
433.478	23.4735
435.245	23.6623
437.012	24.085
438.781	23.8844
440.547	23.178
442.315	23.2005
444.081	21.7187
445.846	21.1779
447.613	20.674
449.378	20.6638
451.142	20.2448
452.908	20.91
454.672	20.7294
456.435	20.1587
458.2	20.7009
459.963	20.0564
461.725	19.2605
463.489	18.6622
465.251	18.4554
467.012	18.2047
468.775	18.3448
470.536	18.7057
472.296	18.8248
474.056	19.437
475.817	19.3924
477.576	19.5838
479.335	18.3982
481.094	17.9791
482.854	18.5498
484.612	18.0772
486.37	17.9073
488.127	19.1685
489.886	18.7998
491.642	19.536
493.398	18.9533
495.154	18.4642
496.91	19.1944
498.667	19.9542
500.422	18.89
502.176	18.5764
503.93	19.3773
505.684	20.2802
507.438	22.1424
509.191	22.2832
510.946	23.8717
512.698	24.9957
514.45	25.7368
516.202	26.9846
517.954	27.6845
519.705	28.7415
521.456	29.83
523.206	30.334
524.956	30.7524
526.706	30.0108
528.456	31.0914
530.207	31.3713
531.956	29.9527
533.704	29.7233
535.452	29.9921
537.2	29.8694
538.947	29.6562
540.694	30.0129
542.441	29.0117
544.188	27.6876
545.934	26.9337
547.68	25.5198
549.425	25.3219
551.17	26.0448
552.915	25.8527
554.659	26.0382
556.403	25.9505
558.145	26.1816
559.889	25.0064
561.632	24.1444
563.375	23.3391
565.117	22.0036
566.859	20.7375
568.601	19.7579
570.342	18.3677
572.083	16.2619
573.824	15.1919
575.565	15.5657
577.303	13.6337
579.043	13.4336
580.782	13.0857
582.521	12.9971
584.26	13.7514
585.998	13.1133
587.734	11.7546
589.472	12.7248
591.21	13.0392
592.947	11.9881
594.684	12.2987
596.418	12.7868
598.154	12.0152
599.89	12.0242
601.626	11.0291
603.361	12.0543
605.094	11.1209
606.828	10.6459
608.562	9.2649
610.296	8.53526
612.027	7.25986
613.761	7.91659
615.493	8.88852
617.224	6.98074
618.956	5.5962
620.688	5.68661
622.419	5.93961
624.149	5.03936
625.879	3.53084
627.61	3.30847
629.338	2.89692
631.068	3.08827
632.797	3.11055
634.525	2.97456
636.254	4.07768
637.98	4.86913
639.708	4.19183
641.436	4.59455
643.162	5.1147
644.889	5.76287
646.614	4.00326
648.34	3.66148
650.067	3.60858
651.791	2.91062
653.516	3.12522
655.239	2.99313
656.964	2.76134
658.687	2.2111
660.411	3.20836
662.133	3.22945
663.857	2.54953
665.58	3.46052
667.301	4.01199
669.024	4.55351
670.744	4.3105
672.464	4.54042
674.186	6.03373
675.905	7.12775
677.626	6.07966
679.345	6.47216
681.065	6.90476
682.783	7.24026
684.503	7.00766
686.22	8.33209
687.939	7.53238
689.656	8.62907
691.372	7.76467
693.09	8.55477
694.806	8.47698
696.523	10.7966
698.239	12.4809
699.953	13.0299
701.67	13.1363
703.384	13.2683
705.098	14.1482
706.813	15.2624
708.526	16.16
710.239	16.4198
711.954	16.0487
713.666	17.0232
715.378	17.3013
717.091	16.779
718.802	16.444
720.513	17.0812
722.226	17.889
723.936	17.8375
725.646	17.1498
727.355	16.7521
729.067	16.8165
730.776	15.8146
732.484	14.3334
734.192	14.0315
735.902	14.2923
737.61	14.7364
739.317	14.6353
741.024	15.6763
742.731	16.0653
744.439	16.9849
746.145	18.0642
747.851	19.4514
749.556	19.9839
751.262	21.6157
752.966	23.8276
754.673	25.5268
756.377	26.7064
758.081	29.1583
759.784	30.5273
761.487	31.3794
763.19	32.6973
764.892	35.1073
766.594	36.7948
768.296	38.5163
770	39.9461
771.701	40.5895
773.402	41.3185
775.102	42.8285
776.803	44.2871
778.503	45.8679
780.202	47.7443
781.901	49.4581
783.6	50.3394
785.299	51.6635
786.997	52.9606
788.695	53.807
790.393	54.792
792.09	55.1791
793.787	54.9326
795.484	54.3987
797.18	54.2729
798.877	54.3175
800.572	53.2755
802.268	53.7254
803.963	53.5394
805.658	53.1703
807.35	52.1045
809.044	51.1787
810.738	49.2294
812.432	49.276
814.125	47.8088
815.818	47.7799
817.51	48.1826
819.202	48.1655
820.894	48.5065
822.584	48.5488
824.275	47.5491
825.966	48.3728
827.657	47.6377
829.347	47.7556
831.037	47.296
832.725	47.7101
834.414	46.837
836.103	47.5552
837.792	48.3301
839.481	47.3725
841.167	47.0741
842.854	47.2461
844.542	46.7289
846.229	45.8197
847.914	43.9273
849.6	43.6911
851.287	42.2088
852.973	40.675
854.656	39.1962
856.341	37.5
858.026	37.6289
859.711	37.3828
861.393	36.3621
863.077	34.7927
864.761	35.2052
866.442	34.5557
868.125	34.4093
869.808	33.5395
871.489	31.5717
873.171	31.7879
874.85	30.8469
876.532	30.8831
878.213	31.1421
879.892	31.179
881.572	31.1327
883.251	30.2863
884.931	30.1657
886.61	30.76
888.287	29.6075
889.966	29.5648
891.643	29.2978
893.321	29.4978
894.997	29.6245
896.675	29.3342
898.352	27.9278
900.028	29.5285
901.704	29.8096
903.379	30.4926
905.055	30.5574
906.729	29.8153
908.404	29.6296
910.077	30.3565
911.75	30.7893
913.425	30.9357
915.097	30.2609
916.771	30.5719
918.443	30.449
920.116	31.4217
921.787	31.0989
923.46	30.6587
925.13	30.6491
926.8	30.8005
928.472	30.1365
930.141	29.1306
931.813	28.5888
933.481	28.7272
935.15	27.7451
936.82	28.0743
938.488	27.8074
940.156	27.8076
941.825	28.6552
943.492	27.6327
945.158	26.2477
946.827	27.0062
948.493	26.6865
950.158	25.5848
951.824	25.5029
953.491	25.0533
955.156	24.7852
956.82	25.2503
958.486	24.6486
960.15	25.6111
961.814	25.4865
963.477	24.4636
965.142	25.4666
966.804	25.5783
968.467	26.0313
970.129	25.7891
971.79	25.2006
973.454	24.2501
975.115	23.5666
976.776	22.6523
978.436	22.5045
980.096	21.0792
981.756	21.4404
983.417	20.9675
985.077	20.4894
986.736	19.4386
988.394	17.6409
990.052	16.1691
991.71	16.0129
993.368	14.524
995.025	13.1177
996.682	12.4741
998.341	11.9083
999.998	10.6401
1001.65	10.6912
1003.31	10.3004
1004.97	7.95153
1006.62	8.02678
1008.28	8.18881
1009.93	9.45958
1011.58	10.4734
1013.24	12.3706
1014.89	13.8339
1016.54	14.7508
1018.2	17.7151
1019.85	20.2427
1021.5	21.9385
1023.16	23.5159
1024.81	26.3115
1026.46	26.8122
1028.11	28.8332
1029.76	31.7846
1031.41	34.4063
1033.06	37.2404
1034.71	40.9931
1036.36	42.1742
1038.01	44.0591
1039.66	45.7035
1041.31	47.4111
1042.95	49.7944
1044.6	51
1046.25	50.6529
1047.9	51.7344
1049.54	52.3402
1051.19	53.1049
1052.84	52.387
1054.48	52.0173
1056.13	50.9023
1057.77	50.8714
1059.42	49.9761
1061.06	49.095
1062.71	47.0247
1064.35	45.1956
1066	43.1222
1067.64	41.0123
1069.28	38.4803
1070.93	36.325
1072.57	33.647
1074.21	31.7422
1075.85	29.585
1077.49	28.5067
1079.13	27.6477
1080.78	24.8879
1082.42	22.8549
1084.06	20.6641
1085.7	18.6405
1087.34	17.2024
1088.97	17.1095
1090.61	17.9234
1092.25	17.9489
1093.89	17.6836
1095.53	17.788
1097.17	16.5599
1098.8	16.867
1100.44	18.6659
1102.08	18.5704
1103.71	17.6315
1105.35	17.8242
1106.99	19.98
1108.62	20.2051
1110.26	22.2584
1111.89	23.307
1113.52	23.7701
1115.16	23.744
1116.79	23.2956
1118.43	22.646
1120.06	23.3011
1121.69	23.5102
1123.32	23.5732
1124.96	23.253
1126.59	23.2132
1128.22	22.6231
1129.85	23.9964
1131.48	23.8187
1133.11	24.0968
1134.75	23.0925
1136.37	22.0888
1138	20.8575
1139.63	20.907
1141.26	19.4856
1142.89	18.823
1144.52	17.7401
1146.15	17.0214
1147.78	16.4737
1149.4	15.0393
1151.03	14.8407
1152.66	13.3678
1154.28	12.498
1155.91	11.7188
1157.54	10.6074
1159.16	8.82667
1160.79	6.7444
1162.41	6.20133
1164.04	5.52872
1165.66	4.91031
1167.29	4.64792
1168.91	3.65695
1170.53	3.18387
1172.16	2.27276
1173.78	1.56681
1175.4	1.30593
1177.02	-0.0519506
1178.65	-0.913273
1180.27	-1.28861
1181.89	-0.949741
1183.51	-0.619555
1185.13	0.841472
1186.75	2.73987
1188.37	4.71679
1189.99	4.29577
1191.61	5.61506
1193.23	5.95286
1194.85	6.64212
1196.47	7.10557
1198.08	7.70934
1199.7	9.59989
1201.32	9.97144
1202.94	10.8976
1204.55	11.9138
1206.17	12.885
1207.79	14.8755
1209.4	15.6835
1211.02	17.2134
1212.63	17.4871
1214.25	19.2248
1215.86	19.4262
1217.48	20.1528
1219.09	22.3616
1220.71	24.6156
1222.32	25.9255
1223.93	28.476
1225.54	28.9748
1227.16	29.1997
1228.77	30.3715
1230.38	31.7588
1231.99	32.7262
1233.6	34.7434
1235.22	37.4879
1236.83	38.948
1238.44	41.0506
1240.05	42.5186
1241.66	44.7567
1243.26	47.4332
1244.87	48.0307
1246.48	48.871
1248.09	48.6616
1249.7	48.9602
1251.31	49.9968
1252.92	50.8558
1254.52	52.5485
1256.13	53.8335
1257.74	55.6733
1259.34	58.3858
1260.95	60.3099
1262.55	62.149
1264.16	64.9543
1265.76	66.5143
1267.37	67.2007
1268.97	70.0996
1270.58	71.3471
1272.18	74.0473
1273.78	74.7534
1275.39	76.8784
1276.99	77.8298
1278.59	80.1428
1280.2	80.7528
1281.8	82.2494
1283.4	83.9559
1285	85.1778
1286.6	85.9662
1288.2	87.1644
1289.8	87.5578
1291.4	88.8078
1293	88.8723
1294.6	89.1801
1296.2	90.0885
1297.8	90.1778
1299.4	90.6382
1301	90.4961
1302.6	90.37
1304.19	90.4757
1305.79	88.3543
1307.39	88.4272
1308.99	88.3912
1310.58	88.0568
1312.18	88.3255
1313.77	88.3944
1315.37	87.3658
1316.96	85.8945
1318.56	84.5002
1320.15	82.3452
1321.75	82.0366
1323.34	80.7778
1324.94	78.3601
1326.53	77.2259
1328.12	75.3394
1329.72	74.2347
1331.31	73.6277
1332.9	72.4581
1334.49	71.3939
1336.08	71.0485
1337.67	69.6419
1339.27	68.4772
1340.86	67.4571
1342.45	67.7431
1344.04	69.0033
1345.63	68.8225
1347.22	69.5447
1348.8	69.9102
1350.39	69.3879
1351.98	69.4872
1353.57	69.2704
1355.16	70.0332
1356.75	70.1179
1358.33	70.9913
1359.92	71.6168
1361.51	72.7502
1363.09	72.2327
1364.68	72.0114
1366.27	70.5753
1367.85	70.4164
1369.44	70.1688
1371.02	70.6108
1372.61	69.8692
1374.19	69.6029
1375.77	69.6959
1377.36	69.1186
1378.94	69.2667
1380.52	69.3532
1382.11	68.4878
1383.69	68.3603
1385.27	67.1312
1386.85	67.444
1388.43	67.6291
1390.02	68.6656
1391.6	68.812
1393.18	67.7627
1394.76	66.9248
1396.34	66.2264
1397.92	65.8146
1399.5	66.2073
1401.08	67.1904
1402.65	66.3651
1404.23	67.5915
1405.81	69.244
1407.39	69.8618
1408.97	70.8962
1410.54	72.3327
1412.12	74.0904
1413.7	77.6648
1415.27	80.5689
1416.85	83.8794
1418.43	88.1975
1420	91.1401
1421.58	94.3016
1423.15	96.4565
1424.73	98.947
1426.3	102.235
1427.87	105.357
1429.45	109.373
1431.02	113.732
1432.6	116.748
1434.17	119.068
1435.74	121.84
1437.31	123.296
1438.89	124.504
1440.46	124.82
1442.03	125.386
1443.6	125.296
1445.17	125.754
1446.74	126.958
1448.31	126.86
1449.88	126.273
1451.45	124.477
1453.02	123.613
1454.59	121.513
1456.16	119.623
1457.72	117.878
1459.29	114.375
1460.86	110.481
1462.43	107.518
1463.99	104.285
1465.56	101.163
1467.13	97.4586
1468.69	93.2773
1470.26	88.5072
1471.83	84.982
1473.39	80.2672
1474.95	76.5025
1476.52	73.188
1478.08	70.4915
1479.65	66.9179
1481.21	62.9809
1482.78	59.4309
1484.34	55.6701
1485.9	52.2821
1487.47	48.978
1489.03	46.8145
1490.59	45.6127
1492.15	43.4424
1493.71	40.7991
1495.27	39.1735
1496.84	36.8543
1498.39	34.0586
1499.96	33.3153
1501.52	31.0055
1503.07	30.4949
1504.64	30.5493
1506.19	30.6666
1507.75	30.5679
1509.31	30.5018
1510.87	29.018
1512.43	28.2892
1513.98	27.8297
1515.54	26.7945
1517.1	27.3027
1518.65	27.8391
1520.21	27.9462
1521.77	28.1286
1523.32	29.2733
1524.88	29.4026
1526.44	29.7644
1527.99	30.2635
1529.54	31.747
1531.1	33.0681
1532.65	32.7299
1534.21	33.8355
1535.76	34.0256
1537.31	34.6638
1538.87	36.5064
1540.42	37.9932
1541.97	39.6922
1543.52	40.3715
1545.07	41.2405
1546.63	43.1012
1548.18	43.8937
1549.73	44.9548
1551.28	45.38
1552.83	46.9383
1554.38	48.8199
1555.93	49.1898
1557.48	48.5787
1559.03	48.9538
1560.57	50.0521
1562.12	51.6692
1563.67	52.1816
1565.22	52.7501
1566.77	53.7178
1568.31	54.7727
1569.86	54.5436
1571.41	55.8295
1572.95	56.7004
1574.5	57.2261
1576.05	58.2261
1577.59	60.1393
1579.14	60.4164
1580.68	62.2681
1582.23	63.7056
1583.77	64.3316
1585.31	64.3756
1586.86	65.0693
1588.4	65.7715
1589.95	65.883
1591.49	66.2577
1593.03	67.0679
1594.57	68.0169
1596.11	67.9186
1597.66	67.8365
1599.2	68.104
1600.74	67.3552
1602.28	67.6763
1603.82	68.0368
1605.36	68.304
1606.9	68.4644
1608.44	68.716
1609.98	68.9884
1611.52	69.8673
1613.06	70.2169
1614.6	71.4181
1616.13	71.3669
1617.67	72.3206
1619.21	72.4064
1620.75	73.2656
1622.28	74.4415
1623.82	75.5952
1625.36	75.0687
1626.89	75.6206
1628.43	76.2343
1629.96	76.5806
1631.5	77.2806
1633.04	77.0294
1634.57	78.0911
1636.11	77.7106
1637.64	77.7717
1639.17	78.0848
1640.71	77.9105
1642.24	78.4196
1643.77	78.935
1645.31	79.3339
1646.84	79.0968
1648.37	79.5357
1649.9	80.6751
1651.43	80.3282
1652.96	80.4032
1654.5	80.329
1656.03	78.7061
1657.56	77.7131
1659.09	77.3066
1660.62	76.0049
1662.15	75.1637
1663.67	74.5108
1665.2	73.1479
1666.73	70.7032
1668.26	69.6665
1669.79	67.9454
1671.32	66.4004
1672.84	64.4861
1674.37	62.9091
1675.9	60.1241
1677.43	58.0808
1678.95	56.4016
1680.48	53.6347
1682	51.1909
1683.53	48.7685
1685.05	46.6223
1686.58	43.8839
1688.1	41.6275
1689.63	39.1373
1691.15	37.0569
1692.68	34.7962
1694.2	33.5204
1695.72	31.9006
1697.25	31.2753
1698.77	29.6988
1700.29	27.958
1701.81	26.4546
1703.33	25.8017
1704.86	24.7564
1706.38	23.6715
1707.9	22.0826
1709.42	21.9585
1710.94	20.7134
1712.46	19.5259
1713.98	19.7323
1715.5	19.9647
1717.02	20.2005
1718.54	20.1754
1720.06	20.0446
1721.57	19.122
1723.09	18.485
1724.61	18.7267
1726.13	18.879
1727.64	17.8265
1729.16	17.2847
1730.68	17.1008
1732.19	16.393
1733.71	16.5555
1735.23	16.953
1736.74	16.5035
1738.26	15.6994
1739.77	15.6343
1741.29	15.1711
1742.8	14.5292
1744.31	14.1871
1745.83	13.382
1747.34	12.9913
1748.85	11.581
1750.37	10.6938
1751.88	8.83757
1753.39	8.46851
1754.91	7.30132
1756.42	6.36078
1757.93	5.83522
1759.44	5.47848
1760.95	4.55662
1762.46	3.59159
1763.97	3.46681
1765.48	3.11851
1766.99	3.45564
1768.5	3.66179
1770.01	4.26652
1771.52	4.6562
1773.03	4.25536
1774.54	4.21763
1776.04	4.51838
1777.55	4.33819
1779.06	4.1976
1780.57	3.79077
1782.07	3.97143
1783.58	4.60177
1785.09	5.98045
1786.59	5.54348
1788.1	6.6252
1789.6	7.03674
1791.11	7.71523
1792.61	7.712
1794.12	6.98077
1795.62	6.79224
1797.13	6.16549
1798.63	6.58625
1800.13	6.90388
1801.64	6.49708
1803.14	6.67564
1804.64	5.74609
1806.15	5.87771
1807.65	5.21929
1809.15	5.45661
1810.65	4.98935
1812.15	4.53742
1813.65	3.8262
1815.16	3.66507
1816.66	2.98574
1818.15	2.99377
1819.66	2.89534
1821.16	2.99299
1822.65	2.5728
1824.15	2.91843
1825.65	3.45818
1827.15	3.03896
1828.65	2.58651
1830.15	2.07781
1831.64	1.68976
1833.14	1.44793
1834.64	1.02642
1836.14	0.773546
1837.63	0.630627
1839.13	1.3772
1840.62	1.65212
1842.12	2.27383
1843.62	2.08678
1845.11	2.70905
1846.61	2.91347
1848.1	3.17039
1849.6	3.35893
1851.09	3.04989
1852.58	2.67921
1854.08	2.39925
1855.57	2.14931
1857.06	3.01999
1858.55	2.94421
1860.05	2.73589
1861.54	3.48792
1863.03	3.60097
1864.52	3.30129
1866.01	2.93555
1867.5	3.61367
1869	3.76243
1870.49	4.4856
1871.98	4.81791
1873.47	5.6672
1874.96	5.06836
1876.44	4.93969
1877.93	4.86349
1879.42	4.45024
1880.91	4.85528
1882.4	4.35223
1882.47	4.27455
1883.96	3.79545
1885.46	4.2688
1886.95	4.55481
1888.44	5.03027
1889.94	5.66826
1891.43	6.63162
1892.93	6.78423
1894.42	6.59194
1895.91	6.43836
1897.4	6.82961
1898.89	5.97175
1900.39	5.26545
1901.88	4.87436
1903.37	5.8412
1904.86	6.18921
1906.35	6.23716
1907.84	6.28071
1909.33	6.68982
1910.82	6.67148
1912.31	8.1665
1913.8	8.32272
1915.29	8.1906
1916.77	7.81147
1918.26	7.84654
1919.75	8.34283
1921.24	8.73418
1922.73	8.16065
1924.21	7.66809
1925.7	6.60649
1927.19	6.14635
1928.67	6.51663
1930.16	6.38989
1931.64	5.58298
1933.13	5.45887
1934.61	6.21023
1936.1	5.48339
1937.58	5.65407
1939.07	5.25339
1940.55	5.596
1942.04	5.22297
1943.52	5.41388
1945	5.30893
1946.49	5.3057
1947.97	4.54137
1949.45	5.54748
1950.93	4.7514
1952.42	5.0855
1953.9	5.13265
1955.38	4.61648
1956.86	5.03811
1958.34	5.39219
1959.82	5.54387
1961.3	5.78399
1962.78	5.4397
1964.26	4.47221
1965.74	3.70792
1967.22	3.27256
1968.7	3.06224
1970.18	3.28958
1971.65	3.60903
1973.13	3.10438
1974.61	2.94768
1976.09	2.69222
1977.57	3.09205
1979.04	2.88129
1980.52	2.75294
1982	3.17343
1983.47	3.42125
1984.95	3.63598
1986.42	4.34783
1987.9	3.28765
1989.37	3.40364
1990.85	3.53602
1992.32	3.47295
1993.8	4.38414
1995.27	3.87416
1996.75	2.93974
1998.22	3.15121
1999.69	2.61528
2001.17	2.99112
2002.64	3.48522
2004.11	3.63108
2005.58	3.03289
2007.05	3.44637
2008.53	3.66372
2010	3.36035
2011.47	4.01993
2012.94	4.00047
2014.41	3.42364
2015.88	4.0617
2017.35	4.60926
2018.82	5.30338
2020.29	5.82006
2021.76	6.54663
2023.23	7.02452
2024.7	6.92938
2026.16	7.53578
2027.63	8.33025
2029.1	8.30866
2030.57	9.96515
2032.03	10.3989
2033.5	10.9101
2034.97	11.8848
2036.44	12.1027
2037.9	12.3795
2039.37	13.1513
2040.83	13.6405
2042.3	14.2931
2043.76	14.6736
2045.23	14.9236
2046.69	14.9172
2048.16	15.3318
2049.62	15.5592
2051.08	15.6554
2052.55	16.3719
2054.01	16.977
2055.47	17.5745
2056.94	18.5022
2058.4	19.5002
2059.86	20.2515
2061.32	20.1469
2062.79	20.9194
2064.25	21.259
2065.71	21.7144
2067.17	22.6205
2068.63	22.569
2070.09	23.2015
2071.55	23.8968
2073.01	24.0745
2074.47	24.0279
2075.93	24.6795
2077.39	25.6104
2078.85	25.5695
2080.31	26.5087
2081.76	26.6458
2083.22	27.4687
2084.68	28.2198
2086.13	28.7789
2087.59	29.5175
2089.05	32.0031
2090.51	33.7876
2091.96	35.3907
2093.42	37.0686
2094.87	38.4306
2096.33	40.2639
2097.78	42.2003
2099.24	43.8673
2100.69	45.3917
2102.15	46.4296
2103.6	48.3553
2105.06	49.4883
2106.51	51.7266
2107.96	52.9672
2109.42	53.8596
2110.87	55.2394
2112.32	56.6218
2113.77	58.0244
2115.23	60.1423
2116.68	61.5886
2118.13	62.689
2119.58	64.9065
2121.03	66.5533
2122.48	67.9744
2123.93	70.7077
2125.38	73.6077
2126.83	75.575
2128.28	77.1093
2129.73	78.9655
2131.18	80.5158
2132.63	82.3388
2134.08	84.029
2135.53	85.9044
2136.97	87.7919
2138.42	89.5049
2139.87	91.4758
2141.32	93.1548
2142.76	94.3335
2144.21	95.2539
2145.66	96.8139
2147.1	98.2109
2148.55	99.6671
2150	101.623
2151.44	102.473
2152.89	103.53
2154.33	105.31
2155.78	106.185
2157.22	106.68
2158.66	107.864
2160.11	108.546
2161.55	110.009
2163	110.944
2164.44	110.833
2165.88	110.714
2167.32	110.519
2168.77	110.327
2170.21	109.553
2171.65	109.482
2173.09	108.347
2174.53	107.876
2175.97	107.691
2177.41	106.863
2178.85	105.173
2180.29	103.59
2181.73	101.986
2183.17	100.649
2184.61	99.1105
2186.05	97.6509
2187.49	96.177
2188.93	94.3367
2190.37	92.821
2191.81	91.294
2193.24	88.8376
2194.68	87.5351
2196.12	85.4876
2197.56	83.746
2198.99	81.4228
2200.43	78.8908
2201.87	77.2724
2203.3	75.6098
2204.74	73.3505
2206.17	71.3135
2207.61	68.7903
2209.04	66.4169
2210.48	64.59
2211.91	62.9901
2213.35	60.6857
2214.78	58.3136
2216.21	57.1762
2217.65	56.032
2219.08	54.0336
2220.51	52.2516
2221.95	51.4902
2223.38	50.2845
2224.81	48.2724
2226.24	47.129
2227.67	45.2689
2229.1	44.4521
2230.54	43.9229
2231.97	42.6534
2233.4	41.6922
2234.83	40.4108
2236.26	39.1154
2237.69	38.7391
2239.11	37.9974
2240.54	37.2148
2241.97	36.7072
2243.4	35.8905
2244.83	34.8243
2246.26	34.0137
2247.69	33.1498
2249.11	31.1367
2250.54	30.1246
2251.97	29.715
2253.4	28.6336
2254.82	27.8606
2256.25	26.6277
2257.67	25.8091
2259.1	25.1308
2260.53	24.234
2261.95	23.181
2263.38	22.0906
2264.8	21.6661
2266.23	21.6217
2267.65	20.4575
2269.07	20.1647
2270.5	19.5715
2271.92	18.869
2273.34	18.7326
2274.77	17.9778
2276.19	17.3883
2277.61	16.7779
2279.03	16.0384
2280.46	15.7617
2281.88	15.8367
2283.3	15.3034
2284.72	14.433
2286.14	14.1633
2287.56	14.3431
2288.98	13.605
2290.4	12.6998
2291.82	12.5263
2293.24	12.2629
2294.66	12.2298
2296.08	12.0551
2297.5	13.1173
2298.92	13.1482
2300.34	13.6999
2301.76	13.9615
2303.17	13.8828
2304.59	14.3407
2306.01	14.4289
2307.43	14.3844
2308.84	14.499
2310.26	13.8513
2311.68	13.9741
2313.09	13.4532
2314.51	12.7462
2315.92	12.5074
2317.34	11.2
2318.75	10.5748
2320.17	10.102
2321.58	10.359
2323	9.91969
2324.41	9.8067
2325.82	9.22437
2327.24	9.33387
2328.65	10.0092
2330.06	9.98498
2331.48	9.59663
2332.89	9.39271
2334.3	9.53327
2335.71	9.60729
2337.12	10.1179
2338.54	9.42635
2339.95	9.64994
2341.36	9.68241
2342.77	8.86078
2344.18	8.29825
2345.59	7.82293
2347	7.47923
2348.41	7.10155
2349.82	7.45517
2351.23	7.39839
2352.64	7.24316
2354.04	7.46268
2355.45	7.33367
2356.86	7.45216
2358.27	6.95791
2359.68	5.95437
2361.08	5.35178
2362.49	5.40695
2363.9	5.63458
2365.3	5.89805
2366.71	6.4407
2368.12	6.92307
2369.52	6.47892
2370.93	6.41449
2372.33	6.09181
2373.74	5.45624
2375.14	5.69291
2376.55	5.30139
2377.95	5.27194
2379.36	5.05547
2380.76	4.72256
2382.16	4.41232
2383.57	3.78621
2384.97	3.30346
2386.37	3.5487
2387.78	3.5002
2389.18	3.85546
2390.58	4.25514
2391.98	4.41941
2393.38	4.48345
2394.79	5.64825
2396.19	5.48079
2397.59	5.44818
2398.99	4.95741
2400.39	4.77393
2401.79	4.60034
2403.19	4.37083
2404.59	4.68877
2405.99	4.96026
2407.39	5.59689
2408.78	5.25988
2410.18	5.7437
2411.58	6.14233
2412.98	6.0381
2414.38	6.06894
2415.77	5.87071
2417.17	6.59064
2418.57	6.90568
2419.97	6.67505
2421.36	6.2013
2422.76	5.88377
2424.15	5.86498
2425.55	5.73668
2426.95	5.05644
2428.34	4.55708
2429.74	4.03309
2431.13	4.27995
2432.52	4.70125
2433.92	4.88838
2435.31	5.38848
2436.71	5.31126
2438.1	5.22678
2439.49	5.41366
2440.89	5.85341
2442.28	5.65757
2443.67	5.50118
2445.06	5.82824
2446.46	5.2338
2447.85	5.34258
2449.24	5.16055
2450.63	4.86883
2452.02	4.54497
2453.41	4.74176
2454.8	4.75621
2456.19	4.15045
2457.58	3.79803
2458.97	3.71301
2460.36	3.58001
2461.75	3.65618
2463.14	3.73903
2464.53	3.23559
2465.92	2.05221
2467.31	1.88506
2468.69	1.83854
2470.08	2.29479
2471.47	2.0709
2472.86	1.77642
2474.24	2.39628
2475.63	2.04432
2477.02	2.18536
2478.4	1.90067
2479.79	2.1369
2481.17	2.2518
2482.56	1.30446
2483.94	0.494757
2485.33	0.497244
2486.72	1.4878
2488.1	0.963781
2489.48	0.64074
2490.87	1.41099
2492.25	2.25149
2493.64	2.91344
2495.02	3.47673
2496.4	3.49869
2497.79	4.14908
2499.17	4.40264
2500.55	4.6292
2501.93	5.06534
2503.31	5.15409
2504.69	5.83476
2506.08	5.27489
2507.46	5.45691
2508.84	5.92131
2510.22	5.32721
2511.6	4.92055
2512.98	4.65988
2514.36	4.47177
2515.74	4.5192
2517.12	4.80075
2518.5	4.21536
2519.88	4.006
2521.25	4.03031
2522.63	3.73936
2524.01	3.2887
2525.39	2.78477
2526.77	3.24159
2528.14	2.93285
2529.52	2.73016
2530.9	2.73234
2532.27	2.12717
2533.65	1.89212
2535.03	2.00864
2536.4	1.89331
2537.78	2.21764
2539.15	2.00569
2540.53	2.02131
2541.9	1.99576
2543.28	2.69656
2544.65	2.31622
2546.03	2.9857
2547.4	2.96538
2548.77	3.10608
2550.15	3.25738
2551.52	2.94402
2552.89	3.66772
2554.27	5.29649
2555.64	5.58759
2557.01	6.24219
2558.38	6.74337
2559.75	7.47401
2561.12	7.45284
2562.5	7.63051
2563.87	8.49353
2565.24	8.06626
2566.61	8.09646
2567.98	7.88471
2569.35	7.74575
2570.72	8.72402
2572.09	9.04487
2573.46	9.1217
2574.83	8.81697
2576.19	9.29389
2577.56	9.13527
2578.93	8.12832
2580.3	7.94815
2581.67	7.52888
2583.04	7.77413
2584.4	7.71544
2585.77	7.02767
2587.14	6.63334
2588.5	6.7078
2589.87	6.66965
2591.23	6.08792
2592.6	5.77359
2593.97	5.44561
2595.33	4.99085
2596.7	4.71829
2598.06	5.15253
2599.43	5.09834
2600.79	5.00342
2602.15	5.10718
2603.52	4.95452
2604.88	4.97801
2606.25	5.55863
2607.61	4.93421
2608.97	5.15675
2610.33	4.89733
2611.7	5.27107
2613.06	5.11737
2614.42	5.59003
2615.78	5.28826
2617.15	5.8537
2618.51	5.54577
2619.87	5.19097
2621.23	5.27962
2622.59	5.22987
2623.95	4.74803
2625.31	4.55885
2626.67	3.99142
2628.03	4.35875
2629.39	4.13402
2630.75	4.22933
2632.1	4.0574
2633.46	3.31511
2634.82	3.82073
2636.18	3.78247
2637.54	4.19286
2638.89	4.34343
2640.25	3.89179
2641.61	3.03285
2642.97	2.6973
2644.32	2.0744
2645.68	1.38972
2647.03	1.21118
2648.39	1.26538
2649.75	0.755892
2651.1	0.35491
2652.46	0.709954
2653.81	0.817522
2655.17	1.26096
2656.52	1.50518
2657.88	1.18706
2659.23	1.24524
2660.58	1.00353
2661.94	1.41938
2663.29	1.02286
2664.64	1.16937
2666	1.80035
2667.35	1.95849
2668.7	2.51907
2670.05	2.77229
2671.4	2.76352
2672.76	2.75881
2674.11	3.58555
2675.46	3.6532
2676.81	4.30947
2678.16	5.00462
2679.51	5.91376
2680.86	6.17049
2682.21	6.88828
2683.56	6.38098
2684.91	6.72506
2686.26	6.65586
2687.61	7.15195
2688.96	7.14369
2690.3	7.89036
2691.65	7.56131
2693	7.45245
2694.35	7.78898
2695.7	8.51641
2697.04	8.59662
2698.39	9.30803
2699.74	10.0223
2701.08	10.9482
2702.43	11.6056
2703.77	11.9352
2705.12	12.3016
2706.47	12.2725
2707.81	13.1284
2709.16	13.3182
2710.5	14.1958
2711.85	14.6654
2713.19	15.14
2714.53	15.3667
2715.88	15.6747
2717.22	15.5683
2718.57	16.6855
2719.91	16.7487
2721.25	16.2776
2722.59	15.9003
2723.94	15.1617
2725.28	14.5292
2726.62	14.5076
2727.96	13.8296
2729.3	13.9088
2730.65	13.6623
2731.99	14.1526
2733.33	14.4521
2734.67	13.9143
2736.01	13.3561
2737.35	12.2933
2738.69	11.2448
2740.03	11.3347
2741.37	11.4619
2742.71	10.9483
2744.05	10.5212
2745.38	10.5499
2746.72	9.73474
2748.06	8.88055
2749.4	8.33574
2750.74	7.42386
2752.07	6.99534
2753.41	6.30823
2754.75	5.49691
2756.09	4.61367
2757.42	4.50626
2758.76	3.37343
2760.09	3.53933
2761.43	3.73418
2762.77	3.99639
2764.1	3.68292
2765.44	3.32634
2766.77	3.49074
2768.11	3.59513
2769.44	3.12558
2770.77	2.98294
2772.11	2.96223
2773.44	2.94918
2774.77	3.65475
2776.11	3.48304
2777.44	4.19878
2778.77	4.19357
2780.11	4.43775
2781.44	4.25893
2782.77	4.23345
2784.1	3.87077
2785.43	3.49587
2786.77	2.96589
2788.1	3.5134
2789.43	3.43863
2790.76	2.45815
2792.09	3.06804
2793.42	3.0009
2794.75	2.70607
2796.08	2.58223
2797.41	2.47845
2798.74	1.7699
2800.07	0.774052
2801.4	0.557107
2802.72	0.270605
2804.05	-0.621782
2805.38	-1.31346
2806.71	-0.893418
2808.04	-1.45444
2809.36	-1.97635
2810.69	-2.02856
2812.02	-1.82518
2813.34	-2.28827
2814.67	-1.65682
2816	-0.77556
2817.32	1.11486
2818.65	2.20946
2819.97	3.98951
2821.3	5.94258
2822.62	8.8206
2823.95	11.4304
2825.27	14.2267
2826.6	18.0519
2827.92	21.6068
2829.25	26.1923
2830.57	30.4202
2831.89	34.7469
2833.22	39.3363
2834.54	43.875
2835.86	48.7519
2837.18	53.74
2838.51	59.6613
2839.83	65.1208
2841.15	70.3497
2842.47	75.5501
2843.79	81.7259
2845.11	86.9551
2846.43	93.0356
2847.76	99.3636
2849.08	105.508
2850.4	111.56
2851.72	117.325
2853.04	124.861
2854.36	130.799
2855.67	135.692
2856.99	141.045
2858.31	147.39
2859.63	152.203
2860.95	157.488
2862.27	161.797
2863.58	166.878
2864.9	172.122
2866.22	176.577
2867.54	181.246
2868.85	185.307
2870.17	188.531
2871.49	192.909
2872.8	196.544
2874.12	199.681
2875.43	203.263
2876.75	207.302
2878.07	210.791
2879.38	214.926
2880.7	219.491
2882.01	223.304
2883.32	227.425
2884.64	229.987
2885.95	234.214
2887.27	238.749
2888.58	243.498
2889.89	247.495
2891.21	252.058
2892.52	256.721
2893.83	260.805
2895.14	265.128
2896.46	268.356
2897.77	273.015
2899.08	278.534
2900.39	283.371
2901.7	287.615
2903.01	292.899
2904.32	297.966
2905.63	302.831
2906.94	308.434
2908.25	314.998
2909.56	321.336
2910.87	327.429
2912.18	333.634
2913.49	339.287
2914.8	344.29
2916.11	349.731
2917.42	355.378
2918.72	360.304
2920.03	363.335
2921.34	365.706
2922.65	369.016
2923.95	371.451
2925.26	373.032
2926.57	374.48
2927.88	375.401
2929.18	375.854
2930.49	375.823
2931.79	373.672
2933.1	372.146
2934.4	370.916
2935.71	367.655
2937.01	364.992
2938.32	360.865
2939.62	357.215
2940.93	353.277
2942.23	349.059
2943.54	343.707
2944.84	338.569
2946.14	332.585
2947.45	325.743
2948.75	319.233
2950.05	311.528
2951.35	304.461
2952.66	298.007
2953.96	290.472
2955.26	282.639
2956.56	275.632
2957.86	268.282
2959.16	260.901
2960.46	253.27
2961.77	245.417
2963.07	238.381
2964.37	230.908
2965.66	222.507
2966.96	215.584
2968.26	209.505
2969.56	203.039
2970.86	197.02
2972.16	191.318
2973.46	185.389
2974.76	179.135
2976.06	172.915
2977.35	166.772
2978.65	161.333
2979.95	155.752
2981.25	150.125
2982.54	144.066
2983.84	137.047
2985.14	131.521
2986.43	125.618
2987.73	120.702
2989.02	115.199
2990.32	109.397
2991.62	103.997
2992.91	98.2256
2994.21	92.1985
2995.5	88.2433
2996.8	82.9425
2998.09	79.3043
2999.38	75.3216
3000.68	70.3749
3001.97	66.5057
3003.26	62.0684
3004.56	58.0657
3005.85	54.1768
3007.14	50.7262
3008.43	46.6169
3009.73	43.2814
3011.02	39.7012
3012.31	36.1284
3013.6	33.0209
3014.89	30.1608
3016.19	27.9678
3017.48	26.4609
3018.77	23.7497
3020.06	21.5161
3021.35	19.2708
3022.64	16.3401
3023.93	13.6953
3025.22	11.0642
3026.5	9.479
3027.79	8.16903
3029.08	7.32359
3030.37	5.90508
3031.66	5.57362
3032.95	4.74463
3034.24	4.18761
3035.52	3.38061
3036.81	3.34033
3038.1	2.70792
3039.39	2.43361
3040.67	2.55565
3041.96	2.9193
3043.25	2.90499
3044.53	2.68301
3045.82	3.13347
3047.1	3.46624
3048.39	4.31897
3049.67	4.93599
3050.96	4.81391
3052.24	5.12699
3053.53	5.3233
3054.81	5.30462
3056.1	5.66923
3057.38	5.9713
3058.67	6.64486
3059.95	7.5626
3061.23	7.31559
3062.52	8.37911
3063.8	8.69632
3065.08	9.35674
3066.36	10.0277
3067.65	9.66133
3068.93	10.2623
3070.21	11.0106
3071.49	11.2982
3072.77	11.8334
3074.05	12.3463
3075.33	12.9651
3076.61	13.5664
3077.89	13.9415
3079.17	14.0323
3080.45	14.3385
3081.73	14.2968
3083.01	14.4156
3084.29	14.2642
3085.57	14.1778
3086.85	14.7492
3088.13	15.289
3089.41	16.4317
3090.68	17.0075
3091.96	17.337
3093.24	18.1258
3094.52	18.0728
3095.79	18.9873
3097.07	19.0325
3098.35	19.96
3099.62	20.8454
3100.9	21.631
3102.18	22.3103
3103.45	23.4325
3104.73	23.9466
3106	25.0395
3107.28	26.0121
3108.55	27.0959
3109.83	28.6482
3111.1	29.7657
3112.38	31.4253
3113.65	32.8769
3114.93	34.4326
3116.2	36.2036
3117.47	37.4352
3118.75	38.6044
3120.02	40.0574
3121.29	41.6103
3122.57	43.1801
3123.84	44.5469
3125.11	46.0276
3126.38	48.1962
3127.65	49.5239
3128.92	50.8134
3130.2	51.9755
3131.47	52.8717
3132.74	55.1814
3134.01	56.7784
3135.28	58.3891
3136.55	60.5409
3137.82	61.6514
3139.09	63.3362
3140.36	64.5991
3141.63	65.8417
3142.9	67.2525
3144.17	68.6118
3145.43	70.0205
3146.7	70.9744
3147.97	72.0225
3149.24	72.4096
