#Acq. time (s)=	45
#Accumulations=	2
#Range (cm-¹)=	200...3150
#Windows=	2
#Auto scanning=	Off
#Autofocus=	Off
#Macrospot=	Off
#AutoExposure=	Off
#Spike filter=	Multiple accum.
#Delay time (s)=	0
#Binning=	1
#Readout mode=	Signal
#DeNoise=	Off
#ICS correction=	On
#Dark correction=	Off
#Inst. Process=	Off
#Detector Gain=	Best Dynamic Range
#Detector ADC=	20 kHz       
#Detector temperature (°C)=	-69.85
#Instrument=	LabRAM HR Evol
#Detector=	Synapse
#Objective=	x100
#Grating=	600 gr/mm
#ND Filter=	100%
#Laser (nm)=	532 
#Hole=	100.021
#Range=	Auto
#Laser Pol.=	No
#Raman. Pol.=	No
#Laser Pol. (°)=	-0.0007625
#Raman Pol. (°)=	89.9995
#Collection=	Microscope
#StageXY=	Marzhauser
#StageZ=	Marzhauser
#X (µm)=	-1074.2
#Y (µm)=	596.9
#Z (µm)=	584.6
#Full time(mm:ss)=	3:18
#Project=	
#Sample=	
#Site=	
#Title=	Mb_40_y_41_2x_45s_532 nm_x100_100%_600 gr_mm
#Remark=	
#Date=	19.07.2022 12:48
#Acquired=	19.07.2022 12:48:25
#Base:Fit=	10.08.2022 10:52:48
#Base:Sub=	10.08.2022 10:52:53
#Filter:Polynom=	16.08.2022 10:09:04
#AxisType[0]=Intens
#AxisUnit[0]=Cnt
#AxisType[1]=Spectr
#AxisUnit[1]=1/cm
200.423	22.145
202.238	20.0229
204.052	18.2247
205.868	15.4458
207.682	13.7287
209.495	12.3468
211.308	10.8505
213.12	10.4637
214.935	10.3347
216.746	9.64397
218.558	9.05159
220.369	8.59723
222.18	8.69427
223.992	8.25237
225.802	8.08532
227.612	7.14582
229.421	4.89474
231.23	5.25766
233.039	3.77192
234.849	2.88872
236.657	3.87968
238.465	4.711
240.272	4.26464
242.079	4.43416
243.885	4.35904
245.691	4.17016
247.497	3.55002
249.305	3.50445
251.11	4.45994
252.915	4.92363
254.719	5.21641
256.523	4.15285
258.327	3.90034
260.13	4.25792
261.933	5.09674
263.736	4.78581
265.538	5.42075
267.34	5.17696
269.141	5.31613
270.943	5.22233
272.744	4.76556
274.544	5.5612
276.344	6.36875
278.144	6.26352
279.944	6.43219
281.743	6.2271
283.542	6.11834
285.34	6.01538
287.138	7.01396
288.936	7.95265
290.733	7.25898
292.53	7.35568
294.327	7.45045
296.123	7.44992
297.919	7.02769
299.715	6.86401
301.508	7.49263
303.303	9.55785
305.098	9.5153
306.892	9.99841
308.686	9.67035
310.479	10.7614
312.273	10.3244
314.065	9.73918
315.858	9.60086
317.648	8.49081
319.44	7.8082
321.231	9.43165
323.022	10.0575
324.813	11.2801
326.604	12.0452
328.392	12.7302
330.181	13.3158
331.971	13.8811
333.76	13.6654
335.548	13.9484
337.335	14.5673
339.123	15.5045
340.91	15.767
342.698	14.8618
344.483	14.7273
346.269	14.8645
348.055	13.988
349.841	12.5701
351.625	12.1053
353.41	11.9811
355.195	12.4436
356.977	12.6751
358.762	13.4046
360.545	13.1121
362.329	12.5306
364.11	11.7527
365.893	11.3223
367.675	11.5296
369.455	11.5882
371.237	11.4313
373.017	11.5347
374.798	11.6042
376.578	10.8761
378.357	10.4752
380.137	8.75918
381.917	8.20949
383.694	7.60635
385.473	7.54059
387.249	8.70405
389.028	9.28265
390.806	10.0642
392.581	11.3867
394.359	10.7722
396.134	10.1767
397.91	9.3408
399.684	9.62675
401.46	8.08063
403.234	8.79053
405.009	8.33616
406.784	8.18629
408.557	9.11068
410.331	10.7753
412.103	10.6645
413.876	9.98637
415.647	9.95976
417.42	10.8066
419.191	9.47373
420.961	8.09502
422.733	8.51872
424.502	8.96917
426.273	8.2281
428.042	7.61605
429.812	7.0636
431.58	6.61668
433.35	5.45234
435.118	5.04876
436.885	4.42552
438.653	4.52785
440.42	5.34245
442.188	5.14413
443.954	5.43516
445.719	4.34183
447.486	4.69337
449.251	4.64647
451.015	4.21062
452.781	4.64802
454.545	5.89845
456.308	6.47016
458.073	7.17318
459.836	8.13266
461.598	8.58423
463.362	8.6797
465.124	8.25937
466.885	9.24097
468.648	9.48568
470.408	9.98609
472.169	10.5062
473.929	11.4243
475.69	11.8992
477.45	12.5224
479.208	13.0149
480.967	12.9055
482.727	12.7161
484.485	12.9625
486.243	13.6183
488	14.1105
489.759	13.9598
491.515	14.5501
493.272	14.243
495.028	14.3363
496.783	14.2271
498.54	14.6766
500.295	14.0485
502.05	14.0621
503.804	14.1783
505.558	14.2393
507.311	14.2173
509.064	15.391
510.819	15.9351
512.572	15.3626
514.324	14.5519
516.076	14.8612
517.827	15.1372
519.578	14.8963
521.329	13.7308
523.08	14.0334
524.83	13.7851
526.58	13.1954
528.329	12.7818
530.08	13.16
531.829	12.8365
533.578	11.9522
535.326	13.0638
537.074	12.7431
538.821	12.3996
540.568	11.6803
542.315	11.2705
544.062	10.7083
545.808	10.5924
547.554	9.71465
549.299	10.3512
551.044	11.8246
552.789	13.4988
554.533	14.9993
556.278	15.4654
558.019	15.8104
559.763	16.7558
561.506	17.8693
563.249	18.2138
564.991	18.7672
566.733	19.1889
568.475	18.9952
570.217	20.5181
571.958	21.4627
573.699	21.4726
575.439	22.1038
577.177	22.157
578.917	22.8676
580.656	22.6089
582.396	22.35
584.134	23.3594
585.873	23.3172
587.609	23.5927
589.347	22.5095
591.084	21.5052
592.822	20.899
594.558	20.6404
596.295	19.2387
598.029	17.6695
599.765	17.1367
601.5	16.277
603.235	15.6927
604.968	14.3909
606.703	12.0561
608.437	10.5772
610.171	9.97931
611.902	9.7552
613.635	9.42942
615.368	8.51943
617.099	8.76126
618.831	6.97552
620.563	6.20851
622.294	6.19751
624.024	4.87393
625.755	3.53233
627.485	2.29871
629.213	3.87431
630.943	4.69815
632.673	5.87673
634.4	7.44502
636.129	9.21496
637.855	10.4625
639.584	11.4555
641.312	11.4973
643.037	12.2909
644.764	11.9986
646.491	12.8735
648.216	12.7631
649.942	12.9245
651.666	13.7613
653.392	14.9702
655.115	14.5969
656.84	15.9862
658.563	15.6241
660.287	15.557
662.011	16.0779
663.732	15.7587
665.456	16.1256
667.177	17.125
668.899	17.9598
670.62	18.2574
672.342	17.1522
674.061	17.5934
675.781	17.7608
677.502	18.9676
679.22	19.9676
680.941	20.1137
682.659	21.0664
684.379	22.19
686.096	21.9634
687.815	21.3658
689.532	22.3122
691.248	23.3309
692.966	24.5345
694.682	26.0039
696.4	26.9619
698.115	28.4973
699.829	29.0991
701.546	29.6471
703.26	31.4046
704.974	31.3193
706.689	31.851
708.402	32.8565
710.115	33.8208
711.83	35.2673
713.542	36.5874
715.254	37.055
716.967	36.7811
718.679	36.945
720.39	37.6782
722.102	38.1186
723.812	39.4129
725.522	39.3522
727.232	39.3007
728.943	39.7118
730.652	40.1689
732.361	41.0541
734.069	42.4028
735.779	43.7982
737.487	44.5405
739.194	44.5734
740.901	44.6149
742.608	45.4368
744.316	46.2999
746.022	47.6138
747.728	49.0245
749.433	50.0396
751.138	51.7915
752.843	52.997
754.549	52.593
756.254	53.4269
757.957	54.6663
759.661	56.5273
761.364	57.7426
763.067	57.8156
764.769	57.9601
766.471	59.1628
768.175	60.6965
769.877	60.1677
771.578	60.7969
773.279	62.0382
774.98	63.4622
776.68	63.7171
778.38	63.9261
780.079	64.7263
781.779	65.1442
783.478	66.363
785.176	67.0435
786.875	66.9868
788.573	67.6418
790.27	67.6026
791.968	66.5537
793.665	66.8802
795.361	65.9635
797.058	65.397
798.754	64.392
800.45	63.8465
802.145	64.2057
803.84	64.8362
805.535	64.8785
807.23	65.6567
808.922	66.2027
810.616	66.0405
812.309	66.6826
814.002	66.1477
815.695	66.3208
817.388	65.7305
819.08	66.5241
820.772	65.6488
822.464	65.2369
824.153	64.8627
825.844	64.47
827.535	64.3444
829.225	64.4525
830.915	64.0501
832.605	63.2236
834.292	61.8316
835.981	61.066
837.67	60.6102
839.359	60.0054
841.047	59.2374
842.732	58.224
844.42	57.097
846.107	55.6443
847.794	55.0874
849.479	53.7161
851.165	53.6662
852.851	52.1418
854.534	51.1506
856.22	50.5023
857.905	49.7656
859.589	50.3598
861.272	50.6061
862.956	50.6352
864.639	50.2614
866.321	49.5239
868.004	48.8294
869.687	47.7075
871.367	46.7803
873.049	46.6677
874.731	45.4324
876.41	43.8697
878.092	44.0081
879.771	43.8929
881.451	44.6243
883.131	44.796
884.809	45.6404
886.489	44.4997
888.166	44.8091
889.845	44.8812
891.522	45.5112
893.2	45.0507
894.878	45.1786
896.554	44.9323
898.231	44.7292
899.906	44.8963
901.583	45.0581
903.258	45.3885
904.934	45.3768
906.608	46.2354
908.283	45.7859
909.956	45.3237
911.631	45.7564
913.304	44.9592
914.976	44.5268
916.65	43.3147
918.322	44.221
919.995	44.8281
921.666	44.8256
923.339	44.5765
925.009	44.1203
926.679	44.2655
928.351	44.6505
930.021	44.6621
931.692	45.5247
933.361	45.4223
935.029	45.8944
936.699	45.8119
938.367	46.4536
940.035	46.3471
941.704	47.1442
943.371	47.1144
945.038	46.4609
946.706	46.1586
948.372	45.0867
950.038	44.9061
951.705	44.0752
953.37	43.893
955.035	43.4098
956.7	41.7919
958.366	40.2057
960.03	38.831
961.693	38.2691
963.357	37.2914
965.021	35.5743
966.684	33.7964
968.346	32.4709
970.008	31.8842
971.67	31.6773
973.334	30.7917
974.995	29.7649
976.655	28.5754
978.316	27.2101
979.976	25.8701
981.638	24.4215
983.297	23.858
984.957	23.9647
986.616	23.5819
988.274	23.0258
989.932	21.8818
991.59	19.9036
993.248	18.6425
994.907	16.0271
996.565	14.6531
998.221	12.9561
999.878	11.5064
1001.53	10.2079
1003.19	8.52666
1004.85	8.29728
1006.5	10.1403
1008.16	11.9237
1009.81	15.2951
1011.46	19.7061
1013.12	24.3661
1014.77	30.212
1016.43	35.892
1018.08	42.2923
1019.73	48.0325
1021.38	53.4971
1023.04	59.4764
1024.69	65.2229
1026.34	71.0852
1027.99	76.7296
1029.64	82.0545
1031.29	86.6034
1032.94	91.8391
1034.59	95.3335
1036.24	97.7303
1037.89	100.263
1039.54	102.02
1041.19	103.98
1042.84	105.33
1044.48	106.787
1046.13	107.741
1047.78	107.83
1049.42	108.118
1051.07	108.502
1052.72	106.745
1054.36	103.755
1056.01	101.827
1057.66	98.823
1059.3	94.3004
1060.94	90.9217
1062.59	86.668
1064.23	82.3265
1065.88	77.6022
1067.52	72.0877
1069.16	65.385
1070.81	58.4168
1072.45	51.2096
1074.09	44.7938
1075.73	37.3703
1077.38	31.0216
1079.02	26.1261
1080.66	20.3845
1082.3	16.1449
1083.94	12.0475
1085.58	9.48784
1087.22	8.11267
1088.86	8.27038
1090.5	9.06261
1092.13	10.5334
1093.77	11.7356
1095.41	13.361
1097.05	15.337
1098.68	16.4049
1100.32	17.1203
1101.96	17.5409
1103.6	18.4076
1105.23	19.1151
1106.87	20.5734
1108.5	21.7982
1110.14	22.8176
1111.77	24.1144
1113.41	24.5838
1115.04	24.8879
1116.67	24.8245
1118.31	24.5041
1119.94	25.0959
1121.58	25.041
1123.21	25.0585
1124.84	24.8296
1126.47	24.5686
1128.1	23.766
1129.73	22.2922
1131.37	21.1029
1133	19.675
1134.63	17.7343
1136.26	17.4959
1137.89	16.8395
1139.52	15.8048
1141.14	15.1699
1142.77	15.0524
1144.4	13.6464
1146.03	13.0448
1147.66	11.6915
1149.29	10.5582
1150.91	9.03445
1152.54	7.98833
1154.17	7.43851
1155.79	6.82169
1157.42	4.89518
1159.04	5.11503
1160.67	4.13757
1162.3	2.16661
1163.92	1.70953
1165.55	0.591616
1167.17	0.740681
1168.79	1.55275
1170.42	2.6887
1172.04	3.56883
1173.66	3.55552
1175.28	4.08917
1176.91	4.3061
1178.53	4.69067
1180.15	3.99437
1181.77	4.22841
1183.39	3.91582
1185.01	3.68032
1186.63	4.70416
1188.25	6.21857
1189.87	6.23435
1191.49	6.85312
1193.11	6.74206
1194.73	6.298
1196.35	6.64366
1197.97	6.8709
1199.59	6.78565
1201.2	6.8133
1202.82	6.57279
1204.44	6.41967
1206.05	5.12929
1207.67	4.10466
1209.29	3.98542
1210.9	3.93375
1212.52	4.56989
1214.13	5.4046
1215.75	6.02452
1217.36	6.53731
1218.97	6.91224
1220.59	7.0358
1222.2	7.29331
1223.82	7.42822
1225.43	7.12893
1227.04	7.72241
1228.65	7.60548
1230.26	7.54491
1231.88	7.53134
1233.49	7.74927
1235.1	8.91863
1236.71	9.33269
1238.32	9.71459
1239.93	10.5599
1241.54	10.112
1243.15	9.98621
1244.76	11.5058
1246.37	11.0205
1247.97	10.9745
1249.58	10.6473
1251.19	11.4199
1252.8	11.7127
1254.41	11.2077
1256.01	11.1142
1257.62	12.7843
1259.23	15.9089
1260.83	17.9383
1262.44	19.6685
1264.04	21.7427
1265.65	24.3991
1267.25	26.1407
1268.86	27.5885
1270.46	29.3921
1272.07	31.6512
1273.67	33.3039
1275.27	35.4006
1276.88	37.0026
1278.48	37.6774
1280.08	38.2779
1281.68	39.1629
1283.28	40.0173
1284.89	40.9009
1286.49	41.1214
1288.09	42.5285
1289.69	44.1672
1291.29	44.3852
1292.89	45.677
1294.49	46.3069
1296.09	46.1688
1297.69	46.3063
1299.29	46.6239
1300.88	46.9859
1302.48	46.8554
1304.08	46.4412
1305.68	45.7909
1307.27	45.6731
1308.87	45.8227
1310.47	46.3251
1312.06	46.0716
1313.66	45.4252
1315.25	44.2825
1316.85	42.6681
1318.44	41.4116
1320.04	39.7727
1321.63	38.5625
1323.23	37.6459
1324.82	36.428
1326.41	34.7811
1328.01	33.185
1329.6	32.3591
1331.19	30.838
1332.78	29.6575
1334.38	29.3286
1335.97	30.5275
1337.56	31.6271
1339.15	31.9485
1340.74	30.0056
1342.33	29.5301
1343.92	29.1574
1345.51	27.9719
1347.1	27.1569
1348.69	27.296
1350.28	27.0439
1351.87	26.9452
1353.46	26.0148
1355.04	25.6528
1356.63	24.3165
1358.22	22.7839
1359.81	21.7755
1361.39	21.8644
1362.98	20.9268
1364.57	20.1564
1366.15	19.3127
1367.74	18.515
1369.32	18.3298
1370.91	17.4398
1372.49	17.0588
1374.07	16.7855
1375.66	16.2639
1377.24	16.2259
1378.83	16.0913
1380.41	15.9024
1381.99	15.7873
1383.57	16.1255
1385.16	16.2418
1386.74	16.424
1388.32	17.032
1389.9	17.0634
1391.48	16.3124
1393.06	16.3866
1394.64	15.7711
1396.22	16.8415
1397.8	16.9939
1399.38	18.0309
1400.96	18.8903
1402.54	20.1562
1404.12	21.954
1405.7	24.3317
1407.28	27.0915
1408.85	30.4939
1410.43	33.0854
1412.01	36.5654
1413.58	39.6212
1415.16	43.0652
1416.74	45.3811
1418.31	48.6493
1419.89	51.9789
1421.46	55.9105
1423.04	59.3857
1424.61	64.1777
1426.19	68.4372
1427.76	72.3499
1429.33	76.4201
1430.91	79.4193
1432.48	82.7346
1434.05	85.3682
1435.63	87.5382
1437.2	89.3559
1438.77	92.5316
1440.34	95.6315
1441.91	97.0653
1443.49	99.0748
1445.05	101.011
1446.63	101.914
1448.2	102.63
1449.77	102.469
1451.34	102.768
1452.91	104.017
1454.47	102.842
1456.04	101.853
1457.61	100.225
1459.18	99.0968
1460.75	97.6304
1462.31	95.7224
1463.88	92.8771
1465.45	89.3877
1467.01	86.2664
1468.58	83.1285
1470.15	79.6552
1471.71	76.4209
1473.28	72.8863
1474.84	69.9221
1476.41	67.1023
1477.97	65.226
1479.54	62.7944
1481.1	60.1667
1482.66	57.4404
1484.23	55.0386
1485.79	51.7684
1487.35	47.9513
1488.91	44.2347
1490.48	41.5978
1492.04	39.1535
1493.6	36.7145
1495.16	34.7015
1496.72	33.3334
1498.28	31.7104
1499.84	29.5494
1501.4	28.5635
1502.96	26.6427
1504.52	24.4897
1506.08	23.3802
1507.64	21.677
1509.2	20.0723
1510.76	19.9032
1512.31	18.1332
1513.87	17.6587
1515.43	17.6812
1516.99	18.6614
1518.54	18.5866
1520.1	17.927
1521.66	17.5934
1523.21	17.16
1524.77	16.8676
1526.32	17.0656
1527.88	17.8319
1529.43	17.8373
1530.99	17.6847
1532.54	17.2776
1534.09	17.3206
1535.65	16.965
1537.2	17.6164
1538.75	17.4299
1540.31	18.4295
1541.86	18.3942
1543.41	19.3745
1544.96	20.2872
1546.51	21.4965
1548.06	21.8142
1549.62	22.0556
1551.17	22.1613
1552.72	21.6772
1554.27	23.0313
1555.82	22.9682
1557.36	22.8565
1558.91	21.9782
1560.46	22.7645
1562.01	22.6325
1563.56	22.5253
1565.11	22.3241
1566.66	23.7042
1568.2	24.0466
1569.75	24.2487
1571.3	23.9706
1572.84	24.2122
1574.39	24.1132
1575.93	24.0116
1577.48	24.0605
1579.02	24.465
1580.57	24.0867
1582.11	24.3849
1583.66	25.2545
1585.2	24.9188
1586.75	25.4075
1588.29	25.9157
1589.83	26.2506
1591.38	27.274
1592.92	27.9866
1594.46	27.811
1596	27.8669
1597.54	27.0581
1599.09	27.469
1600.63	27.9022
1602.17	28.3315
1603.71	28.3125
1605.25	28.5417
1606.79	28.1274
1608.33	27.9801
1609.87	28.7687
1611.41	28.4842
1612.95	28.8863
1614.48	29.3518
1616.02	29.1006
1617.56	29.3144
1619.1	28.7404
1620.64	29.0887
1622.17	28.8934
1623.71	29.3197
1625.25	29.3317
1626.78	29.576
1628.32	29.0484
1629.86	28.6029
1631.39	29.1434
1632.92	28.2464
1634.46	27.8265
1635.99	28.4278
1637.53	28.6084
1639.06	27.9103
1640.59	28.1287
1642.13	27.5399
1643.66	27.9291
1645.19	27.8647
1646.73	27.8842
1648.26	28.5585
1649.79	29.1904
1651.32	29.3273
1652.85	29.0869
1654.38	28.5467
1655.92	28.7096
1657.45	28.6025
1658.98	28.2369
1660.51	28.1428
1662.04	27.5171
1663.57	27.4537
1665.09	28.1143
1666.62	27.8159
1668.15	27.4663
1669.68	26.5404
1671.21	25.9652
1672.73	25.227
1674.26	24.0654
1675.79	23.8572
1677.31	23.0798
1678.84	22.2059
1680.37	21.4409
1681.89	20.5396
1683.42	20.0816
1684.94	19.5018
1686.47	19.1696
1687.99	17.6495
1689.52	16.7528
1691.04	15.9542
1692.57	14.7917
1694.09	14.7926
1695.61	13.9746
1697.14	13.0712
1698.66	11.5318
1700.18	10.8569
1701.7	9.91072
1703.22	8.7576
1704.75	7.89375
1706.27	7.41423
1707.79	6.73485
1709.31	6.16264
1710.83	6.12502
1712.35	5.89443
1713.87	4.54297
1715.39	3.63975
1716.91	3.13852
1718.43	3.19436
1719.95	2.74039
1721.46	3.04147
1722.98	1.95656
1724.5	2.04608
1726.02	1.51273
1727.53	1.12478
1729.05	1.0566
1730.57	1.10746
1732.08	1.37277
1733.6	0.672281
1735.12	0.167397
1736.63	-0.0413743
1738.15	0.501123
1739.66	0.943393
1741.18	1.63156
1742.69	1.73474
1744.21	1.68707
1745.72	1.63043
1747.23	1.92938
1748.74	1.62795
1750.26	1.90067
1751.77	2.57273
1753.28	2.91782
1754.8	3.69637
1756.31	4.58369
1757.82	5.29857
1759.33	6.13849
1760.84	6.221
1762.35	6.16137
1763.86	5.64638
1765.37	5.85627
1766.88	5.41234
1768.39	5.59086
1769.9	5.56616
1771.41	4.78312
1772.92	4.63662
1774.43	4.87942
1775.93	5.6022
1777.44	4.97273
1778.95	5.14878
1780.46	4.90009
1781.96	4.91552
1783.47	4.57813
1784.98	5.03254
1786.48	4.66594
1787.99	3.88993
1789.49	3.47472
1791	3.3399
1792.5	3.30838
1794.01	3.23448
1795.51	2.5994
1797.02	3.3577
1798.52	3.008
1800.03	3.26175
1801.53	3.22517
1803.03	2.53372
1804.53	2.06564
1806.04	2.25704
1807.54	1.56931
1809.04	1.22741
1810.54	1.35654
1812.04	1.53559
1813.54	2.40147
1815.05	2.76711
1816.55	2.9183
1818.05	2.96301
1819.55	2.18327
1821.05	2.1861
1822.55	2.04053
1824.05	2.03105
1825.54	2.41419
1827.04	2.91219
1828.54	2.83445
1830.04	3.64307
1831.54	3.62693
1833.03	3.51884
1834.53	3.36962
1836.03	3.01426
1837.52	2.22399
1839.02	1.88631
1840.52	2.02401
1842.01	2.03097
1843.51	1.87279
1845	1.53293
1846.5	1.79616
1847.99	2.12004
1849.49	2.31164
1850.98	2.38149
1852.47	2.46008
1853.97	3.07512
1855.46	2.75045
1856.95	2.79603
1858.45	2.61588
1859.94	3.0239
1861.43	2.81564
1862.92	2.52931
1864.41	3.29037
1865.91	2.76447
1867.4	2.72935
1868.89	2.35617
1870.38	2.65112
1871.87	2.02135
1873.36	1.33458
1874.85	1.3429
1876.34	0.968905
1877.83	1.25956
1879.31	1.56505
1880.8	1.6397
1882.29	1.2284
1882.56	1.13069
1884.05	1.14679
1885.54	1.38713
1887.04	1.65214
1888.53	1.13843
1890.03	1.15453
1891.52	1.02762
1893.01	0.918384
1894.5	1.33225
1895.99	1.62251
1897.49	1.89282
1898.98	2.01816
1900.47	2.65788
1901.96	2.29875
1903.45	2.4947
1904.94	1.97421
1906.43	1.90297
1907.92	1.80016
1909.41	1.85257
1910.9	1.74286
1912.39	1.75698
1913.88	1.76258
1915.37	2.06052
1916.86	2.19053
1918.35	2.74639
1919.84	2.97986
1921.32	3.35579
1922.81	2.92005
1924.3	3.90805
1925.78	4.34097
1927.27	4.92447
1928.76	4.27097
1930.24	4.18636
1931.73	4.38377
1933.21	4.60768
1934.7	4.11271
1936.18	3.96257
1937.67	3.7554
1939.15	2.90507
1940.64	3.62701
1942.12	3.26979
1943.6	3.58578
1945.09	4.01201
1946.57	4.2426
1948.05	4.4998
1949.54	4.28517
1951.02	4.73399
1952.5	4.35533
1953.98	4.81912
1955.46	5.15525
1956.94	4.70057
1958.42	5.25222
1959.91	5.21427
1961.39	5.27457
1962.87	5.3282
1964.34	5.94697
1965.82	5.39901
1967.3	5.09454
1968.78	5.25582
1970.26	5.19583
1971.74	5.66292
1973.22	5.575
1974.7	5.73336
1976.17	4.87181
1977.65	5.12242
1979.13	5.20417
1980.6	5.49868
1982.08	5.28154
1983.56	5.18003
1985.03	5.17499
1986.51	5.45007
1987.98	6.18478
1989.46	6.70436
1990.93	6.60745
1992.41	7.18602
1993.88	8.09267
1995.36	8.54664
1996.83	8.51993
1998.3	9.55738
1999.78	8.41366
2001.25	8.00378
2002.72	7.60031
2004.2	8.21905
2005.67	8.57011
2007.14	9.356
2008.61	9.40772
2010.08	10.3112
2011.55	10.1954
2013.02	10.7112
2014.49	10.9944
2015.97	10.1194
2017.43	10.6461
2018.9	10.9393
2020.37	10.0814
2021.84	10.0494
2023.31	9.85108
2024.78	9.93873
2026.25	10.4991
2027.72	10.596
2029.19	10.5668
2030.65	10.4238
2032.12	11.079
2033.59	10.378
2035.05	10.2351
2036.52	9.94188
2037.98	10.4324
2039.45	10.5612
2040.92	11.2363
2042.38	11.8003
2043.85	11.7119
2045.31	12.2842
2046.78	11.7047
2048.24	12.1506
2049.71	12.3246
2051.17	13.1876
2052.63	13.4856
2054.1	14.1946
2055.56	14.6327
2057.02	15.0304
2058.48	15.7957
2059.95	15.9863
2061.41	16.2767
2062.87	16.5153
2064.33	16.7245
2065.79	17.5341
2067.25	17.7573
2068.71	16.9095
2070.17	17.0068
2071.63	16.9033
2073.09	16.6064
2074.55	17.0935
2076.01	16.9327
2077.47	16.895
2078.93	17.1187
2080.39	17.5454
2081.85	16.574
2083.3	16.3822
2084.76	15.5252
2086.22	15.5976
2087.68	14.8133
2089.13	14.3907
2090.59	14.9213
2092.05	14.6585
2093.5	14.5767
2094.96	14.6496
2096.41	14.8859
2097.87	15.4774
2099.32	16.2015
2100.78	15.8557
2102.23	16.1898
2103.69	16.146
2105.14	16.0527
2106.59	15.9571
2108.05	17.0965
2109.5	18.3862
2110.95	19.8368
2112.41	21.0525
2113.86	21.5289
2115.31	22.1075
2116.76	22.9473
2118.21	24.5003
2119.67	25.1251
2121.12	26.0922
2122.57	27.2249
2124.02	28.5153
2125.47	29.7987
2126.92	31.0029
2128.37	31.4442
2129.82	31.6603
2131.27	32.3328
2132.71	33.2926
2134.16	34.5257
2135.61	35.2968
2137.06	36.0524
2138.51	36.7671
2139.95	37.0513
2141.4	37.9411
2142.85	39.4784
2144.29	40.2289
2145.74	41.0786
2147.19	41.9278
2148.63	42.4345
2150.08	43.8664
2151.52	44.274
2152.97	45.087
2154.42	45.7491
2155.86	47.0763
2157.3	47.3213
2158.75	47.7735
2160.19	47.4774
2161.64	48.4364
2163.08	49.114
2164.52	49.0905
2165.96	49.5748
2167.41	49.8401
2168.85	50.0731
2170.29	50.3416
2171.73	49.6094
2173.17	49.5113
2174.61	49.7168
2176.06	49.8588
2177.5	49.993
2178.94	50.2733
2180.38	50.6247
2181.82	51.0287
2183.26	51.0935
2184.7	50.9377
2186.14	49.4508
2187.57	50.0389
2189.01	49.2949
2190.45	49.4128
2191.89	49.1797
2193.33	49.0612
2194.76	49.0926
2196.2	48.2027
2197.64	47.2379
2199.08	46.7115
2200.51	46.1064
2201.95	45.484
2203.38	44.9236
2204.82	44.5069
2206.25	43.7879
2207.69	42.795
2209.12	41.9605
2210.56	41.0599
2211.99	40.0475
2213.43	39.3969
2214.86	38.52
2216.3	37.4866
2217.73	36.4199
2219.16	35.4767
2220.59	34.4095
2222.03	33.4636
2223.46	32.342
2224.89	31.5382
2226.32	29.8268
2227.75	28.5811
2229.19	26.9841
2230.62	26.4788
2232.05	25.9703
2233.48	25.2532
2234.91	23.6529
2236.34	22.6268
2237.77	22.4913
2239.2	21.7543
2240.63	20.6186
2242.06	20.3581
2243.48	19.5144
2244.91	19.4251
2246.34	18.8994
2247.77	18.1586
2249.2	18.3872
2250.62	17.8645
2252.05	18.0708
2253.48	18.0452
2254.9	17.5765
2256.33	16.9087
2257.76	16.5627
2259.18	16.6035
2260.61	15.6167
2262.03	16.1752
2263.46	15.9622
2264.88	15.233
2266.31	15.2486
2267.73	15.1443
2269.16	15.1343
2270.58	15.0126
2272	14.5439
2273.43	14.1552
2274.85	13.8926
2276.27	14.0528
2277.69	14.3576
2279.12	13.6112
2280.54	13.087
2281.96	12.298
2283.38	11.7213
2284.8	11.2009
2286.22	10.7725
2287.64	10.2546
2289.07	9.82966
2290.49	8.54529
2291.91	7.63331
2293.32	6.77952
2294.74	5.69889
2296.16	5.3398
2297.58	6.41179
2299	7.17396
2300.42	7.35514
2301.84	7.94054
2303.26	8.00624
2304.67	8.0441
2306.09	8.46715
2307.51	9.27245
2308.92	9.55967
2310.34	9.64037
2311.76	9.78421
2313.17	10.3695
2314.59	9.94638
2316	10.1611
2317.42	10.3536
2318.83	10.5644
2320.25	11.0755
2321.66	10.5999
2323.08	10.8202
2324.49	10.3958
2325.91	10.4565
2327.32	10.6778
2328.73	10.8675
2330.15	11.18
2331.56	11.6336
2332.97	12.461
2334.38	12.2319
2335.79	12.5073
2337.21	12.7237
2338.62	12.6114
2340.03	12.0886
2341.44	11.5468
2342.85	11.5268
2344.26	11.4504
2345.67	10.858
2347.08	10.0465
2348.49	8.9546
2349.9	7.198
2351.31	6.47207
2352.72	5.97155
2354.13	4.76957
2355.53	4.04977
2356.94	3.67438
2358.35	3.51381
2359.76	2.60099
2361.17	1.66633
2362.57	2.05886
2363.98	1.84703
2365.39	1.60584
2366.79	2.55793
2368.2	3.12365
2369.6	1.94721
2371.01	1.76764
2372.42	1.48699
2373.82	1.37315
2375.22	1.59592
2376.63	1.15844
2378.03	0.981882
2379.44	0.718219
2380.84	0.121847
2382.25	-0.244687
2383.65	-0.241903
2385.05	-0.37558
2386.45	-0.30132
2387.86	0.0950562
2389.26	-0.34195
2390.66	-0.585401
2392.06	-0.11694
2393.46	0.11617
2394.87	0.357506
2396.27	1.31452
2397.67	1.50933
2399.07	1.81539
2400.47	1.89054
2401.87	2.35565
2403.27	2.33528
2404.67	1.49119
2406.07	1.70668
2407.47	1.27207
2408.86	1.30673
2410.26	0.843636
2411.66	1.1184
2413.06	1.18578
2414.46	1.48871
2415.85	1.3268
2417.25	1.44712
2418.65	1.5267
2420.05	2.27208
2421.44	3.70694
2422.84	3.89498
2424.23	3.792
2425.63	4.82537
2427.03	4.85868
2428.42	5.00332
2429.82	4.56969
2431.21	5.32362
2432.6	5.28105
2434	4.81895
2435.39	5.13645
2436.79	5.29952
2438.18	5.36383
2439.57	5.41244
2440.97	6.06838
2442.36	6.40876
2443.75	6.3841
2445.14	6.69515
2446.54	6.12645
2447.93	6.09805
2449.32	5.78993
2450.71	5.31487
2452.1	5.44
2453.49	5.47162
2454.88	5.37337
2456.27	5.32802
2457.66	5.35023
2459.05	4.69853
2460.44	5.06653
2461.83	4.45664
2463.22	4.10175
2464.61	3.92375
2466	3.83781
2467.39	3.74561
2468.77	3.34668
2470.16	3.20609
2471.55	3.4339
2472.94	2.73773
2474.32	2.21715
2475.71	2.02884
2477.1	2.4453
2478.48	3.08432
2479.87	2.77656
2481.25	2.77805
2482.64	2.88564
2484.02	3.5512
2485.41	3.87757
2486.8	3.61017
2488.18	3.80068
2489.56	4.55161
2490.95	4.40883
2492.33	3.55151
2493.72	3.675
2495.1	3.48217
2496.48	2.73963
2497.86	3.33484
2499.25	3.7001
2500.63	4.30116
2502.01	4.22135
2503.39	4.6009
2504.77	5.56855
2506.16	5.65699
2507.54	6.04925
2508.92	6.59374
2510.3	6.35622
2511.68	5.95873
2513.06	5.54993
2514.44	5.8278
2515.82	5.15198
2517.2	5.25431
2518.58	5.25214
2519.95	5.05345
2521.33	4.84115
2522.71	4.68938
2524.09	4.16864
2525.47	4.03256
2526.84	3.80103
2528.22	3.56945
2529.6	3.48941
2530.98	2.92328
2532.35	3.61563
2533.73	3.56709
2535.11	3.61599
2536.48	3.89447
2537.86	3.75069
2539.23	3.61059
2540.61	2.78273
2541.98	2.95572
2543.36	2.53779
2544.73	3.03917
2546.1	3.09426
2547.48	3.27206
2548.85	2.74954
2550.23	2.83187
2551.6	3.12018
2552.97	2.6837
2554.34	2.61699
2555.72	2.80807
2557.09	2.93033
2558.46	2.82761
2559.83	2.27682
2561.2	2.17653
2562.58	2.60319
2563.95	2.91149
2565.32	3.63276
2566.69	4.4995
2568.06	4.08209
2569.43	4.43923
2570.8	4.3901
2572.17	3.96161
2573.54	3.94597
2574.91	3.22259
2576.27	3.22765
2577.64	3.14425
2579.01	3.45608
2580.38	3.19792
2581.75	2.81861
2583.11	3.14078
2584.48	2.92659
2585.85	3.27135
2587.21	3.34489
2588.58	3.34684
2589.95	3.20517
2591.31	3.66834
2592.68	3.50079
2594.04	3.52056
2595.41	3.2707
2596.78	3.53029
2598.14	3.35885
2599.51	3.07892
2600.87	3.31298
2602.23	2.85618
2603.6	2.48053
2604.96	2.44564
2606.32	2.0874
2607.69	1.70975
2609.05	2.00645
2610.41	2.64094
2611.77	1.97545
2613.14	2.38874
2614.5	2.86666
2615.86	3.99643
2617.22	3.50356
2618.58	3.49252
2619.94	4.03178
2621.3	4.24072
2622.67	4.94967
2624.03	4.37067
2625.39	3.81698
2626.75	3.5538
2628.1	3.78734
2629.46	3.99671
2630.82	4.34191
2632.18	4.23912
2633.54	4.15875
2634.9	4.08341
2636.26	4.44541
2637.61	4.50648
2638.97	4.61326
2640.33	4.8072
2641.69	5.19486
2643.04	5.4741
2644.4	6.04204
2645.76	6.1333
2647.11	6.35597
2648.47	5.56947
2649.82	6.03886
2651.18	6.44021
2652.53	5.83213
2653.89	5.90193
2655.24	5.46689
2656.6	4.9535
2657.95	4.03617
2659.31	4.12043
2660.66	3.76667
2662.01	3.83335
2663.37	4.28068
2664.72	4.19107
2666.07	4.09555
2667.43	3.73841
2668.78	3.76146
2670.13	3.81319
2671.48	3.79985
2672.83	3.90417
2674.18	4.47779
2675.53	4.79289
2676.89	5.32375
2678.24	5.97424
2679.59	6.19335
2680.94	6.92943
2682.29	6.98601
2683.64	6.77055
2684.99	6.16348
2686.34	6.19592
2687.68	6.11968
2689.03	5.95966
2690.38	6.22066
2691.73	6.06604
2693.08	6.68828
2694.43	7.70695
2695.77	8.17846
2697.12	8.57566
2698.47	9.8923
2699.81	10.8772
2701.16	11.8294
2702.51	13.2086
2703.85	14.001
2705.2	14.5722
2706.54	15.9323
2707.89	16.2679
2709.23	16.6073
2710.58	17.0799
2711.92	17.2771
2713.27	17.4308
2714.61	17.5951
2715.96	17.8009
2717.3	18.378
2718.64	17.8845
2719.99	17.6524
2721.33	18.082
2722.67	17.761
2724.01	18.2065
2725.36	17.9588
2726.7	18.2745
2728.04	17.9883
2729.38	17.7463
2730.72	17.1544
2732.06	16.475
2733.41	16.5207
2734.75	16.0959
2736.09	15.7133
2737.43	14.8402
2738.77	14.1207
2740.11	13.7173
2741.44	13.9487
2742.78	13.2536
2744.12	12.9901
2745.46	12.5597
2746.8	11.5272
2748.14	10.1731
2749.48	8.75236
2750.81	7.86847
2752.15	6.91696
2753.49	6.14062
2754.83	5.89574
2756.16	5.42138
2757.5	4.85462
2758.84	4.53683
2760.17	4.04975
2761.51	4.0701
2762.84	2.74939
2764.18	2.43744
2765.51	2.34597
2766.85	2.33267
2768.18	2.47311
2769.52	3.01328
2770.85	2.53599
2772.19	2.35508
2773.52	2.17866
2774.85	1.54914
2776.19	1.37686
2777.52	1.70217
2778.85	1.30492
2780.18	1.20489
2781.52	0.741498
2782.85	1.46616
2784.18	1.79274
2785.51	1.25801
2786.84	1.66311
2788.17	1.64485
2789.51	1.46453
2790.84	1.45288
2792.17	0.715053
2793.5	1.16998
2794.83	1.42436
2796.16	1.90033
2797.48	2.67771
2798.81	3.44358
2800.14	3.83707
2801.47	3.89444
2802.8	3.27301
2804.13	2.93111
2805.46	2.57865
2806.79	1.86007
2808.11	1.19118
2809.44	0.448717
2810.77	-0.0449959
2812.09	-0.0613375
2813.42	0.0957705
2814.75	1.65774
2816.07	5.05815
2817.4	8.98337
2818.73	13.4338
2820.05	18.1753
2821.38	24.2452
2822.7	29.688
2824.03	35.7319
2825.35	42.5764
2826.67	49.2175
2828	56.5392
2829.32	63.3712
2830.65	71.027
2831.97	79.4844
2833.29	88.1599
2834.62	95.5116
2835.94	103.055
2837.26	110.175
2838.58	117.733
2839.9	124.279
2841.23	130.514
2842.55	136.381
2843.87	142.108
2845.19	146.607
2846.51	151.608
2847.83	156.367
2849.15	163.973
2850.47	170.35
2851.79	177.705
2853.11	186.397
2854.43	194.672
2855.75	202.614
2857.07	210.276
2858.39	217.28
2859.71	223.767
2861.02	230.085
2862.34	235.883
2863.66	240.119
2864.98	242.314
2866.3	243.975
2867.61	245.695
2868.93	246.356
2870.25	247.337
2871.56	247.165
2872.88	247.714
2874.19	248.255
2875.51	249.445
2876.83	249.973
2878.14	251.126
2879.46	252.876
2880.77	254.81
2882.09	255.312
2883.4	255.309
2884.71	254.627
2886.03	254.309
2887.34	253.87
2888.65	251.594
2889.97	249.525
2891.28	247.766
2892.59	245.063
2893.91	242.321
2895.22	238.659
2896.53	235.675
2897.84	232.638
2899.15	228.279
2900.46	223.368
2901.78	219.298
2903.09	214.778
2904.4	210.45
2905.71	206.188
2907.02	202.557
2908.33	199.198
2909.64	196.939
2910.95	194.927
2912.26	194.995
2913.57	196.209
2914.87	198.892
2916.18	200.555
2917.49	202.144
2918.8	203.611
2920.11	204.428
2921.42	204.944
2922.72	205.341
2924.03	204.728
2925.34	204.203
2926.64	204.303
2927.95	203.185
2929.26	201.465
2930.56	199.37
2931.87	198.27
2933.17	197.162
2934.48	195.352
2935.78	193.661
2937.09	191.563
2938.39	189.576
2939.7	186.62
2941	183.494
2942.31	180.167
2943.61	177.066
2944.91	174.004
2946.22	169.962
2947.52	165.651
2948.82	162.019
2950.13	157.66
2951.43	154.076
2952.73	148.935
2954.03	143.926
2955.33	139.698
2956.64	135.445
2957.94	130.867
2959.24	126.373
2960.54	122.031
2961.84	118.155
2963.14	113.486
2964.44	109.412
2965.74	106.36
2967.04	103.185
2968.34	99.7806
2969.64	95.9073
2970.94	91.8709
2972.24	88.2996
2973.53	85.1052
2974.83	81.9758
2976.13	78.6503
2977.43	75.562
2978.73	72.3274
2980.02	69.7089
2981.32	67.452
2982.62	63.7494
2983.91	61.6939
2985.21	59.37
2986.51	56.6161
2987.8	53.539
2989.1	51.0012
2990.4	48.4002
2991.69	46.2645
2992.99	43.3954
2994.28	40.7187
2995.57	38.4851
2996.87	36.3229
2998.16	34.0947
2999.46	32.2461
3000.75	30.4977
3002.05	28.4503
3003.34	25.9529
3004.63	24.5023
3005.92	23.4295
3007.22	22.1271
3008.51	20.5668
3009.8	19.1811
3011.09	17.1304
3012.39	15.8613
3013.68	14.7184
3014.97	13.2739
3016.26	11.8851
3017.55	10.304
3018.84	9.74812
3020.13	9.61047
3021.42	8.99478
3022.71	7.88528
3024	7.07508
3025.29	6.90081
3026.58	6.50051
3027.87	5.83143
3029.16	5.66989
3030.45	5.06418
3031.73	4.14111
3033.02	3.26005
3034.31	2.73723
3035.6	2.81037
3036.89	3.05065
3038.17	2.85609
3039.46	2.68224
3040.75	2.89405
3042.03	2.89544
3043.32	3.02288
3044.61	3.49357
3045.89	3.49683
3047.18	2.89315
3048.46	3.36061
3049.75	2.62838
3051.03	2.27313
3052.32	2.38392
3053.6	2.31679
3054.89	2.27463
3056.17	2.46901
3057.45	2.51479
3058.74	3.11044
3060.02	3.50393
3061.31	3.85393
3062.59	4.54628
3063.87	5.21511
3065.15	5.09221
3066.44	4.91304
3067.72	4.54181
3069	4.9995
3070.28	4.96466
3071.56	4.65733
3072.84	4.94617
3074.13	4.90058
3075.41	4.68285
3076.69	5.35313
3077.97	5.23028
3079.25	5.30089
3080.53	5.1173
3081.81	5.35891
3083.09	5.06074
3084.37	4.81766
3085.64	4.30651
3086.92	3.85099
3088.2	3.39982
3089.48	2.97032
3090.76	2.21861
3092.04	1.69932
3093.31	1.31099
3094.59	1.77462
3095.87	2.20001
3097.14	2.02779
3098.42	1.87876
3099.7	2.01997
3100.97	2.60441
3102.25	2.95577
3103.53	3.44272
3104.8	3.7667
3106.08	3.14484
3107.35	2.94165
3108.63	3.51267
3109.9	3.27895
3111.18	3.37938
3112.45	3.66552
3113.73	3.67081
3115	4.90701
3116.27	5.70051
3117.55	5.89442
3118.82	6.54419
3120.09	6.85942
3121.37	7.50958
3122.64	8.0907
3123.91	8.35385
3125.18	8.89966
3126.45	8.94339
3127.73	9.01081
3129	9.03981
3130.27	9.56091
3131.54	10.1596
3132.81	11.3348
3134.08	11.7797
3135.35	11.9287
3136.62	12.0724
3137.89	11.6517
3139.16	11.664
3140.43	11.6855
3141.7	11.2986
3142.97	10.9199
3144.24	10.5437
3145.51	10.4138
3146.78	10.5751
3148.04	10.3243
3149.31	10.2518
