#Acq. time (s)=	45
#Accumulations=	2
#Range (cm-¹)=	200...3150
#Windows=	2
#Auto scanning=	Off
#Autofocus=	Off
#Macrospot=	Off
#AutoExposure=	Off
#Spike filter=	Multiple accum.
#Delay time (s)=	0
#Binning=	1
#Readout mode=	Signal
#DeNoise=	Off
#ICS correction=	On
#Dark correction=	Off
#Inst. Process=	Off
#Detector Gain=	Best Dynamic Range
#Detector ADC=	20 kHz       
#Detector temperature (°C)=	-69.85
#Instrument=	LabRAM HR Evol
#Detector=	Synapse
#Objective=	x100
#Grating=	600 gr/mm
#ND Filter=	100%
#Laser (nm)=	532 
#Hole=	100.021
#Range=	Auto
#Laser Pol.=	No
#Raman. Pol.=	No
#Laser Pol. (°)=	-0.0007625
#Raman Pol. (°)=	89.9995
#Collection=	Microscope
#StageXY=	Marzhauser
#StageZ=	Marzhauser
#X (µm)=	-1074.4
#Y (µm)=	643.8
#Z (µm)=	584.35
#Full time(mm:ss)=	3:18
#Project=	
#Sample=	
#Site=	
#Title=	Mb_40_y_17_2x_45s_532 nm_x100_100%_600 gr_mm
#Remark=	
#Date=	19.07.2022 10:24
#Acquired=	19.07.2022 10:24:50
#Base:Fit=	10.08.2022 10:52:48
#Base:Sub=	10.08.2022 10:52:53
#Filter:Polynom=	16.08.2022 10:09:04
#AxisType[0]=Intens
#AxisUnit[0]=Cnt
#AxisType[1]=Spectr
#AxisUnit[1]=1/cm
200.423	57.3605
202.238	49.235
204.052	45.3124
205.868	41.2794
207.682	38.0215
209.495	35.0036
211.308	32.9617
213.12	30.9315
214.935	28.8699
216.746	26.5852
218.558	24.5807
220.369	22.5427
222.18	21.3947
223.992	19.6778
225.802	18.4935
227.612	15.7747
229.421	14.3141
231.23	14.7453
233.039	14.0592
234.849	13.992
236.657	12.7964
238.465	11.931
240.272	11.0442
242.079	10.6353
243.885	8.69712
245.691	8.23027
247.497	8.1229
249.305	7.26027
251.11	6.71708
252.915	6.09553
254.719	5.68643
256.523	4.76072
258.327	5.3336
260.13	6.10284
261.933	6.77612
263.736	7.42064
265.538	6.63179
267.34	6.97597
269.141	5.10944
270.943	4.66812
272.744	3.42206
274.544	3.27949
276.344	3.11097
278.144	3.45523
279.944	4.40323
281.743	5.3914
283.542	5.58597
285.34	5.17156
287.138	4.93847
288.936	4.92754
290.733	6.21403
292.53	7.69705
294.327	8.14473
296.123	8.85816
297.919	9.08652
299.715	9.6919
301.508	11.095
303.303	8.78031
305.098	7.80057
306.892	8.34161
308.686	9.42378
310.479	10.8273
312.273	11.6652
314.065	12.745
315.858	13.2372
317.648	13.7068
319.44	15.5512
321.231	16.8782
323.022	16.5527
324.813	17.3376
326.604	16.9417
328.392	16.9634
330.181	17.5553
331.971	17.3157
333.76	16.5093
335.548	17.6944
337.335	17.6228
339.123	15.7938
340.91	16.1987
342.698	16.9244
344.483	17.1972
346.269	16.2036
348.055	16.5676
349.841	16.4201
351.625	16.2098
353.41	14.6802
355.195	13.6116
356.977	13.0699
358.762	11.7122
360.545	11.7869
362.329	11.7862
364.11	12.9347
365.893	12.9872
367.675	13.5571
369.455	13.0604
371.237	11.3756
373.017	11.3471
374.798	10.9299
376.578	11.4174
378.357	12.43
380.137	13.4944
381.917	13.782
383.694	14.008
385.473	14.0198
387.249	14.7457
389.028	14.7972
390.806	15.1063
392.581	13.6718
394.359	15.1579
396.134	15.9907
397.91	16.9651
399.684	17.0806
401.46	16.7471
403.234	17.06
405.009	16.6957
406.784	16.6446
408.557	17.1092
410.331	17.5282
412.103	17.8848
413.876	18.0133
415.647	16.8695
417.42	17.2863
419.191	17.5784
420.961	16.9005
422.733	16.3483
424.502	16.3496
426.273	14.9096
428.042	13.2961
429.812	13.2096
431.58	12.3765
433.35	11.8728
435.118	10.8379
436.885	10.0432
438.653	9.37791
440.42	8.53381
442.188	6.45075
443.954	5.90227
445.719	5.87806
447.486	5.27379
449.251	5.09854
451.015	5.25325
452.781	4.68557
454.545	4.68259
456.308	3.93171
458.073	3.51334
459.836	4.32004
461.598	5.77873
463.362	5.91518
465.124	6.19284
466.885	6.71517
468.648	7.43778
470.408	7.65914
472.169	8.20081
473.929	8.07459
475.69	8.28185
477.45	8.24166
479.208	8.31189
480.967	8.69441
482.727	9.49512
484.485	10.7723
486.243	13.0014
488	12.1275
489.759	13.0842
491.515	14.4902
493.272	15.4756
495.028	17.0522
496.783	17.9605
498.54	17.8311
500.295	18.7433
502.05	18.3527
503.804	19.3334
505.558	20.1169
507.311	20.334
509.064	21.447
510.819	21.3399
512.572	22.4871
514.324	22.8226
516.076	23.0073
517.827	23.0024
519.578	22.8723
521.329	22.7736
523.08	22.11
524.83	22.7306
526.58	22.3505
528.329	22.1234
530.08	21.3256
531.829	22.2338
533.578	22.0497
535.326	21.7581
537.074	21.2023
538.821	21.1038
540.568	20.9376
542.315	21.454
544.062	21.3149
545.808	21.1844
547.554	20.6659
549.299	19.3431
551.044	18.2655
552.789	18.3079
554.533	19.2409
556.278	18.1631
558.019	17.6761
559.763	17.7777
561.506	16.8469
563.249	16.7099
564.991	16.893
566.733	15.3498
568.475	14.42
570.217	13.1836
571.958	12.2008
573.699	11.1323
575.439	9.75158
577.177	10.6444
578.917	10.4332
580.656	9.13579
582.396	8.11747
584.134	6.27049
585.873	5.7214
587.609	5.821
589.347	4.52942
591.084	5.19602
592.822	4.65189
594.558	5.20797
596.295	4.88986
598.029	4.96824
599.765	5.17009
601.5	4.97421
603.235	5.03182
604.968	5.57484
606.703	5.65587
608.437	6.53233
610.171	7.4505
611.902	7.37622
613.635	6.08834
615.368	7.17427
617.099	7.37276
618.831	8.77327
620.563	9.56616
622.294	8.74194
624.024	8.86034
625.755	8.72567
627.485	8.80719
629.213	9.96988
630.943	10.1799
632.673	9.43199
634.4	10.1092
636.129	10.3424
637.855	11.2324
639.584	12.4723
641.312	12.7958
643.037	13.0069
644.764	13.294
646.491	13.7011
648.216	13.4162
649.942	14.7148
651.666	15.036
653.392	14.5262
655.115	15.6819
656.84	16.5325
658.563	17.4218
660.287	18.0736
662.011	18.7013
663.732	18.1051
665.456	18.2656
667.177	18.1369
668.899	18.6056
670.62	19.4679
672.342	19.5773
674.061	20.4774
675.781	21.7019
677.502	23.0849
679.22	24.0231
680.941	25.2414
682.659	26.1201
684.379	27.7598
686.096	27.8797
687.815	29.866
689.532	31.1095
691.248	30.9804
692.966	31.5064
694.682	32.6184
696.4	32.5462
698.115	31.8805
699.829	32.838
701.546	33.7629
703.26	33.7464
704.974	34.3888
706.689	34.1876
708.402	33.5088
710.115	34.8603
711.83	35.7156
713.542	37.9384
715.254	38.377
716.967	39.0213
718.679	39.2263
720.39	40.5472
722.102	40.9787
723.812	41.5359
725.522	41.6265
727.232	41.4492
728.943	42.2278
730.652	41.5728
732.361	42.0441
734.069	42.543
735.779	43.1855
737.487	42.6491
739.194	43.3426
740.901	43.7174
742.608	42.9794
744.316	44.0427
746.022	44.6201
747.728	45.9492
749.433	45.6839
751.138	47.2901
752.843	48.757
754.549	49.8614
756.254	50.1421
757.957	50.4901
759.661	51.4085
761.364	52.8278
763.067	52.9179
764.769	53.8963
766.471	54.8491
768.175	55.4898
769.877	57.0083
771.578	58.3688
773.279	59.4896
774.98	60.2435
776.68	61.7527
778.38	63.7874
780.079	64.3868
781.779	65.5191
783.478	66.7022
785.176	69.0802
786.875	69.4067
788.573	71.4275
790.27	71.9596
791.968	73.8097
793.665	74.7545
795.361	75.4685
797.058	77.4104
798.754	78.2307
800.45	77.3907
802.145	78.9654
803.84	78.8062
805.535	79.2131
807.23	79.4205
808.922	78.644
810.616	78.3827
812.309	78.5479
814.002	78.5264
815.695	77.2484
817.388	77.2
819.08	77.4019
820.772	77.4433
822.464	76.5959
824.153	75.9967
825.844	75.6372
827.535	75.1054
829.225	75.211
830.915	73.7719
832.605	72.6427
834.292	71.6311
835.981	71.2813
837.67	71.2024
839.359	69.1684
841.047	67.7612
842.732	67.2644
844.42	66.6038
846.107	66.2993
847.794	65.0017
849.479	64.7078
851.165	64.7801
852.851	63.4799
854.534	63.2022
856.22	61.3708
857.905	59.4518
859.589	59.5583
861.272	59.1542
862.956	57.5314
864.639	56.262
866.321	56.5456
868.004	55.3002
869.687	54.8579
871.367	53.3711
873.049	53.5686
874.731	52.6446
876.41	52.5328
878.092	51.7428
879.771	52.2235
881.451	53.0571
883.131	51.8668
884.809	51.3481
886.489	51.0392
888.166	49.8774
889.845	49.2988
891.522	47.7809
893.2	46.3757
894.878	46.1607
896.554	45.5115
898.231	45.2372
899.906	44.5067
901.583	44.6514
903.258	43.7493
904.934	43.8313
906.608	43.3555
908.283	43.3844
909.956	43.5948
911.631	42.7606
913.304	42.9943
914.976	42.9466
916.65	42.6603
918.322	43.1163
919.995	43.4117
921.666	45.1184
923.339	45.7387
925.009	46.4884
926.679	46.3016
928.351	46.9477
930.021	45.6482
931.692	45.3935
933.361	44.9811
935.029	44.8398
936.699	44.1781
938.367	44.0479
940.035	42.7726
941.704	42.8131
943.371	42.6638
945.038	41.9188
946.706	41.611
948.372	40.9729
950.038	40.7749
951.705	40.2673
953.37	39.9056
955.035	39.5185
956.7	39.9015
958.366	40.0907
960.03	39.2099
961.693	39.4056
963.357	39.2411
965.021	37.6069
966.684	36.0587
968.346	35.3031
970.008	33.8885
971.67	32.9953
973.334	31.3807
974.995	29.7964
976.655	30.4118
978.316	29.8579
979.976	29.0443
981.638	28.3062
983.297	27.634
984.957	27.0834
986.616	26.3152
988.274	26.205
989.932	25.2134
991.59	23.697
993.248	22.6684
994.907	21.0337
996.565	20.5099
998.221	18.0409
999.878	16.9887
1001.53	16.266
1003.19	16.86
1004.85	16.0983
1006.5	16.3326
1008.16	18.0004
1009.81	20.6648
1011.46	25.0329
1013.12	29.6055
1014.77	36.331
1016.43	42.179
1018.08	49.6087
1019.73	56.8937
1021.38	63.3068
1023.04	70.0085
1024.69	76.586
1026.34	82.4695
1027.99	88.979
1029.64	94.3309
1031.29	98.6784
1032.94	104.004
1034.59	109.386
1036.24	112.602
1037.89	115.643
1039.54	118.872
1041.19	120.113
1042.84	120.622
1044.48	121.891
1046.13	121.791
1047.78	120.975
1049.42	120.553
1051.07	118.716
1052.72	116.401
1054.36	113.686
1056.01	110.494
1057.66	107.521
1059.3	103.648
1060.94	98.4137
1062.59	92.9402
1064.23	88.0338
1065.88	82.0273
1067.52	75.4737
1069.16	68.1429
1070.81	60.4057
1072.45	53.2549
1074.09	45.5344
1075.73	37.9784
1077.38	31.6419
1079.02	25.6128
1080.66	19.0388
1082.3	15.1733
1083.94	11.4505
1085.58	10.2875
1087.22	7.64934
1088.86	8.71502
1090.5	9.80267
1092.13	10.6807
1093.77	12.1766
1095.41	13.7351
1097.05	14.9181
1098.68	16.1397
1100.32	17.658
1101.96	18.5454
1103.6	19.0223
1105.23	19.6634
1106.87	19.7071
1108.5	20.1749
1110.14	20.4905
1111.77	20.1077
1113.41	21.3784
1115.04	21.8364
1116.67	21.702
1118.31	20.6288
1119.94	20.7462
1121.58	20.721
1123.21	19.0742
1124.84	18.1131
1126.47	17.6482
1128.1	16.5913
1129.73	15.8206
1131.37	14.3312
1133	13.7765
1134.63	13.1826
1136.26	12.2928
1137.89	11.7194
1139.52	11.1204
1141.14	10.932
1142.77	10.9719
1144.4	10.8344
1146.03	10.8168
1147.66	9.44923
1149.29	8.67328
1150.91	7.83441
1152.54	7.33522
1154.17	6.99751
1155.79	6.7286
1157.42	6.56716
1159.04	6.57572
1160.67	5.8162
1162.3	4.8763
1163.92	4.86393
1165.55	3.82623
1167.17	3.99091
1168.79	3.77281
1170.42	4.59139
1172.04	4.99676
1173.66	5.24018
1175.28	5.6574
1176.91	5.56812
1178.53	5.1516
1180.15	5.01709
1181.77	5.11641
1183.39	5.57664
1185.01	5.24798
1186.63	4.90066
1188.25	4.53123
1189.87	4.47821
1191.49	4.54258
1193.11	5.21585
1194.73	6.69981
1196.35	5.78585
1197.97	6.07473
1199.59	7.05834
1201.2	7.263
1202.82	6.88613
1204.44	6.38685
1206.05	7.92534
1207.67	9.55772
1209.29	11.133
1210.9	11.7413
1212.52	13.4482
1214.13	15.0221
1215.75	15.2417
1217.36	17.3686
1218.97	18.8297
1220.59	19.9805
1222.2	21.1634
1223.82	22.5538
1225.43	23.1656
1227.04	23.7813
1228.65	25.1935
1230.26	26.6201
1231.88	27.8205
1233.49	29.2489
1235.1	29.3787
1236.71	29.8775
1238.32	29.4955
1239.93	30.1434
1241.54	30.7953
1243.15	31.2583
1244.76	30.9845
1246.37	31.8428
1247.97	32.9123
1249.58	32.7563
1251.19	32.3716
1252.8	32.2706
1254.41	32.1955
1256.01	32.4599
1257.62	32.8238
1259.23	33.4284
1260.83	34.5341
1262.44	34.3355
1264.04	34.3414
1265.65	34.2983
1267.25	35.2043
1268.86	36.681
1270.46	38.1652
1272.07	39.9414
1273.67	41.6156
1275.27	42.6152
1276.88	42.8806
1278.48	44.1216
1280.08	45.4427
1281.68	45.2813
1283.28	46.5731
1284.89	47.7278
1286.49	50.1338
1288.09	51.109
1289.69	51.8443
1291.29	51.307
1292.89	53.0415
1294.49	52.9619
1296.09	53.6348
1297.69	55.4251
1299.29	54.917
1300.88	55.1389
1302.48	55.4396
1304.08	55.7856
1305.68	55.3449
1307.27	56.2447
1308.87	56.4338
1310.47	56.1228
1312.06	55.7757
1313.66	55.1688
1315.25	53.2628
1316.85	52.6131
1318.44	51.3931
1320.04	51.2335
1321.63	50.4534
1323.23	49.6963
1324.82	47.9669
1326.41	48.2863
1328.01	47.0229
1329.6	45.224
1331.19	45.0385
1332.78	44.4159
1334.38	44.4796
1335.97	44.6163
1337.56	44.4839
1339.15	43.007
1340.74	42.0619
1342.33	40.5631
1343.92	40.1193
1345.51	39.9891
1347.1	40.4294
1348.69	39.8161
1350.28	38.385
1351.87	37.774
1353.46	36.8732
1355.04	35.7278
1356.63	34.3331
1358.22	33.4418
1359.81	33.1465
1361.39	32.4748
1362.98	32.7267
1364.57	31.4687
1366.15	30.7418
1367.74	29.0984
1369.32	27.791
1370.91	27.0146
1372.49	26.9415
1374.07	25.6661
1375.66	25.6615
1377.24	24.9437
1378.83	23.8997
1380.41	24.0569
1381.99	24.6913
1383.57	24.4351
1385.16	24.3173
1386.74	24.2083
1388.32	23.754
1389.9	24.1261
1391.48	24.2063
1393.06	23.9887
1394.64	23.9774
1396.22	24.6572
1397.8	25.4146
1399.38	26.7144
1400.96	27.0041
1402.54	27.8698
1404.12	28.1949
1405.7	30.1098
1407.28	31.3338
1408.85	32.5237
1410.43	35.0292
1412.01	36.3178
1413.58	38.6997
1415.16	39.973
1416.74	41.3548
1418.31	42.9927
1419.89	44.524
1421.46	46.2667
1423.04	48.1175
1424.61	49.9133
1426.19	52.314
1427.76	53.3494
1429.33	55.001
1430.91	57.2377
1432.48	58.857
1434.05	60.719
1435.63	62.0716
1437.2	63.8516
1438.77	65.1491
1440.34	65.4679
1441.91	65.3408
1443.49	65.6438
1445.05	66.6749
1446.63	66.1723
1448.2	66.5313
1449.77	65.9267
1451.34	65.0477
1452.91	64.319
1454.47	64.336
1456.04	63.164
1457.61	62.7502
1459.18	62.0831
1460.75	60.4754
1462.31	58.2421
1463.88	56.9226
1465.45	56.473
1467.01	55.7688
1468.58	55.2562
1470.15	53.719
1471.71	51.7415
1473.28	50.077
1474.84	48.291
1476.41	46.2633
1477.97	44.5611
1479.54	42.5704
1481.1	41.5739
1482.66	39.5151
1484.23	37.5626
1485.79	35.6693
1487.35	33.4966
1488.91	31.8368
1490.48	29.5087
1492.04	27.4924
1493.6	25.1662
1495.16	23.7523
1496.72	22.2785
1498.28	19.9692
1499.84	18.5578
1501.4	17.0899
1502.96	16.4164
1504.52	15.721
1506.08	13.6161
1507.64	12.8802
1509.2	12.7355
1510.76	12.3769
1512.31	12.563
1513.87	11.4063
1515.43	10.9548
1516.99	10.2665
1518.54	9.88324
1520.1	10.1398
1521.66	10.6896
1523.21	10.1449
1524.77	9.56869
1526.32	10.4199
1527.88	11.0144
1529.43	12.5836
1530.99	14.1451
1532.54	15.1037
1534.09	15.3503
1535.65	16.0058
1537.2	17.43
1538.75	18.5328
1540.31	19.7357
1541.86	21.9257
1543.41	23.0745
1544.96	23.8715
1546.51	24.5727
1548.06	24.7018
1549.62	24.8939
1551.17	25.3739
1552.72	25.9523
1554.27	26.2371
1555.82	26.5785
1557.36	27.2038
1558.91	27.3533
1560.46	26.6789
1562.01	26.1733
1563.56	26.8816
1565.11	26.0655
1566.66	25.545
1568.2	25.6508
1569.75	25.8054
1571.3	25.3534
1572.84	25.1502
1574.39	25.227
1575.93	25.0706
1577.48	25.4551
1579.02	25.5329
1580.57	26.0042
1582.11	26.4236
1583.66	26.5448
1585.2	27.7261
1586.75	28.0365
1588.29	28.1331
1589.83	28.3927
1591.38	28.6812
1592.92	29.7102
1594.46	29.745
1596	31.0381
1597.54	32.0491
1599.09	32.0425
1600.63	31.9667
1602.17	31.9712
1603.71	32.1287
1605.25	32.4769
1606.79	31.8395
1608.33	31.3708
1609.87	31.2462
1611.41	31.0511
1612.95	31.493
1614.48	32.5828
1616.02	33.2129
1617.56	34.4207
1619.1	35.1501
1620.64	34.7211
1622.17	35.3
1623.71	35.6803
1625.25	36.7795
1626.78	36.9829
1628.32	37.4188
1629.86	38.5581
1631.39	38.8436
1632.92	39.5099
1634.46	39.9712
1635.99	39.9818
1637.53	41.0059
1639.06	42.2645
1640.59	43.1984
1642.13	43.4996
1643.66	45.3143
1645.19	46.5002
1646.73	46.7141
1648.26	47.252
1649.79	48.4485
1651.32	49.0869
1652.85	50.0694
1654.38	50.6161
1655.92	50.1802
1657.45	50.539
1658.98	50.0413
1660.51	48.8833
1662.04	48.2534
1663.57	46.7808
1665.09	45.6568
1666.62	44.9231
1668.15	43.9804
1669.68	42.3063
1671.21	40.3487
1672.73	39.641
1674.26	37.7022
1675.79	34.9917
1677.31	32.7951
1678.84	30.9118
1680.37	29.9781
1681.89	27.692
1683.42	25.5364
1684.94	24.1024
1686.47	22.6512
1687.99	19.9444
1689.52	19.22
1691.04	17.8986
1692.57	17.0083
1694.09	15.4224
1695.61	13.5513
1697.14	12.0533
1698.66	10.3793
1700.18	9.56879
1701.7	8.86342
1703.22	7.82005
1704.75	7.03518
1706.27	6.12501
1707.79	5.31908
1709.31	5.28459
1710.83	5.45034
1712.35	6.04432
1713.87	6.57856
1715.39	6.65
1716.91	6.56753
1718.43	6.46069
1719.95	6.8621
1721.46	6.60244
1722.98	6.89328
1724.5	7.57409
1726.02	7.41969
1727.53	7.08421
1729.05	7.42382
1730.57	6.65926
1732.08	6.12293
1733.6	6.23436
1735.12	5.54716
1736.63	5.48367
1738.15	5.51208
1739.66	5.14616
1741.18	5.01099
1742.69	5.82776
1744.21	5.04322
1745.72	4.99614
1747.23	4.92857
1748.74	4.99921
1750.26	4.47671
1751.77	3.77814
1753.28	3.5314
1754.8	3.4131
1756.31	2.76431
1757.82	1.45426
1759.33	1.0991
1760.84	0.449415
1762.35	0.153587
1763.86	-0.063745
1765.37	0.898106
1766.88	0.283657
1768.39	0.0697217
1769.9	-0.769274
1771.41	-0.655861
1772.92	-1.36313
1774.43	-1.11628
1775.93	-0.300021
1777.44	-0.320282
1778.95	-0.829205
1780.46	-1.06353
1781.96	-0.684086
1783.47	0.172218
1784.98	0.459034
1786.48	0.934196
1787.99	0.877229
1789.49	1.26454
1791	1.48553
1792.5	1.22919
1794.01	0.817612
1795.51	1.21065
1797.02	1.40264
1798.52	1.58106
1800.03	1.60515
1801.53	1.42906
1803.03	1.7177
1804.53	2.16685
1806.04	2.26089
1807.54	2.6782
1809.04	2.49357
1810.54	2.30558
1812.04	2.91561
1813.54	2.52733
1815.05	2.44302
1816.55	2.59908
1818.05	2.66943
1819.55	2.02811
1821.05	2.21918
1822.55	2.35679
1824.05	2.75324
1825.54	2.54237
1827.04	2.17018
1828.54	1.95775
1830.04	1.64809
1831.54	1.51924
1833.03	1.03796
1834.53	0.508086
1836.03	0.212011
1837.52	0.700531
1839.02	0.522584
1840.52	0.546242
1842.01	0.156715
1843.51	0.367223
1845	-0.0881901
1846.5	-0.196947
1847.99	-0.0773017
1849.49	0.303615
1850.98	0.494566
1852.47	1.18777
1853.97	1.71331
1855.46	2.52582
1856.95	3.07016
1858.45	3.37991
1859.94	3.63269
1861.43	3.99159
1862.92	4.21772
1864.41	4.32628
1865.91	4.022
1867.4	3.65677
1868.89	4.24521
1870.38	4.87637
1871.87	5.305
1873.36	5.43204
1874.85	5.71055
1876.34	6.37779
1877.83	6.9486
1879.31	6.92868
1880.8	7.02516
1882.29	7.26088
1882.56	6.93896
1884.05	7.22065
1885.54	7.94593
1887.04	7.804
1888.53	7.94883
1890.03	8.07153
1891.52	7.51453
1893.01	7.21185
1894.5	7.62125
1895.99	7.56914
1897.49	7.43889
1898.98	6.32497
1900.47	5.45486
1901.96	5.10027
1903.45	4.61984
1904.94	4.50837
1906.43	3.75484
1907.92	4.05834
1909.41	4.43915
1910.9	5.37639
1912.39	4.37636
1913.88	4.18851
1915.37	3.53291
1916.86	2.76604
1918.35	2.46679
1919.84	2.53564
1921.32	3.09595
1922.81	2.11296
1924.3	2.60213
1925.78	2.73549
1927.27	2.15985
1928.76	2.73682
1930.24	2.55667
1931.73	1.86171
1933.21	1.00797
1934.7	0.722292
1936.18	0.918153
1937.67	0.846303
1939.15	1.21017
1940.64	1.31766
1942.12	1.37893
1943.6	1.78604
1945.09	2.00476
1946.57	1.9294
1948.05	2.06839
1949.54	2.10497
1951.02	1.2878
1952.5	0.512609
1953.98	0.471909
1955.46	0.215963
1956.94	0.487659
1958.42	0.88425
1959.91	1.21468
1961.39	0.858816
1962.87	0.430752
1964.34	0.312021
1965.82	0.570857
1967.3	0.982362
1968.78	1.09525
1970.26	1.56852
1971.74	1.21525
1973.22	0.818561
1974.7	1.37178
1976.17	2.31577
1977.65	2.60616
1979.13	2.58457
1980.6	2.36909
1982.08	1.96773
1983.56	1.61627
1985.03	1.48422
1986.51	1.24163
1987.98	2.06434
1989.46	2.34737
1990.93	2.31443
1992.41	2.48998
1993.88	3.0489
1995.36	2.5235
1996.83	2.62354
1998.3	3.62233
1999.78	3.96033
2001.25	4.04998
2002.72	4.51686
2004.2	4.06738
2005.67	3.64262
2007.14	4.07672
2008.61	5.24612
2010.08	5.11786
2011.55	4.59608
2013.02	4.68628
2014.49	4.63012
2015.97	5.17988
2017.43	5.73518
2018.9	5.59816
2020.37	5.1845
2021.84	5.20622
2023.31	5.26963
2024.78	5.18307
2026.25	5.54945
2027.72	5.84265
2029.19	6.54046
2030.65	6.92486
2032.12	6.97593
2033.59	6.97584
2035.05	7.16823
2036.52	7.33665
2037.98	7.67632
2039.45	8.58076
2040.92	8.57819
2042.38	8.31046
2043.85	8.35792
2045.31	8.21754
2046.78	8.6528
2048.24	8.76562
2049.71	8.44229
2051.17	8.17452
2052.63	8.55462
2054.1	8.69026
2055.56	9.17317
2057.02	10.3041
2058.48	10.8475
2059.95	11.6697
2061.41	11.8522
2062.87	11.9854
2064.33	11.8246
2065.79	12.6198
2067.25	12.5487
2068.71	11.692
2070.17	12.2768
2071.63	12.1024
2073.09	12.3567
2074.55	12.2123
2076.01	12.9542
2077.47	13.2702
2078.93	13.6398
2080.39	14.0333
2081.85	14.0915
2083.3	13.8449
2084.76	14.9006
2086.22	15.8777
2087.68	16.0117
2089.13	16.805
2090.59	16.8032
2092.05	16.5965
2093.5	16.8714
2094.96	17.1783
2096.41	17.1431
2097.87	17.6977
2099.32	18.3409
2100.78	19.1642
2102.23	19.8305
2103.69	20.1299
2105.14	21.2511
2106.59	22.4162
2108.05	23.6495
2109.5	24.5635
2110.95	25.0298
2112.41	25.8082
2113.86	25.8657
2115.31	26.3227
2116.76	28.3197
2118.21	30.4479
2119.67	30.8763
2121.12	32.0298
2122.57	33.5424
2124.02	35.1068
2125.47	36.2741
2126.92	37.3966
2128.37	38.7404
2129.82	40.6231
2131.27	41.4871
2132.71	42.8751
2134.16	44.5864
2135.61	46.4957
2137.06	47.313
2138.51	47.9526
2139.95	48.3212
2141.4	50.0264
2142.85	51.2545
2144.29	52.1669
2145.74	53.6398
2147.19	54.2322
2148.63	55.8521
2150.08	56.1623
2151.52	56.3886
2152.97	56.8359
2154.42	57.7991
2155.86	58.5236
2157.3	58.716
2158.75	58.8085
2160.19	58.7542
2161.64	58.8893
2163.08	58.5549
2164.52	59.3813
2165.96	60.4121
2167.41	60.1683
2168.85	60.9223
2170.29	61.2304
2171.73	61.7219
2173.17	62.2897
2174.61	62.1505
2176.06	62.5747
2177.5	62.4155
2178.94	61.7675
2180.38	60.8665
2181.82	59.9717
2183.26	59.2765
2184.7	58.5918
2186.14	58.6305
2187.57	59.2209
2189.01	59.2802
2190.45	58.0763
2191.89	56.8765
2193.33	56.4889
2194.76	55.7526
2196.2	55.5785
2197.64	55.0078
2199.08	54.2628
2200.51	53.9801
2201.95	53.7295
2203.38	52.2837
2204.82	51.7068
2206.25	51.1445
2207.69	49.9502
2209.12	47.6084
2210.56	46.0888
2211.99	45.3253
2213.43	44.7438
2214.86	43.3942
2216.3	42.5787
2217.73	41.8657
2219.16	40.6268
2220.59	39.9756
2222.03	38.2565
2223.46	37.3451
2224.89	36.8816
2226.32	35.7663
2227.75	34.8417
2229.19	34.0485
2230.62	33.2113
2232.05	32.4764
2233.48	31.9008
2234.91	31.1416
2236.34	30.8753
2237.77	29.2432
2239.2	27.9113
2240.63	27.2322
2242.06	26.2227
2243.48	25.0998
2244.91	23.9573
2246.34	22.676
2247.77	22.1228
2249.2	20.9486
2250.62	20.2461
2252.05	19.8805
2253.48	19.3797
2254.9	19.0189
2256.33	18.3147
2257.76	18.1896
2259.18	17.9021
2260.61	17.0938
2262.03	16.5073
2263.46	16.3849
2264.88	16.3779
2266.31	15.763
2267.73	15.3147
2269.16	14.2176
2270.58	13.6802
2272	13.8688
2273.43	13.3749
2274.85	13.0175
2276.27	12.5623
2277.69	12.6839
2279.12	12.2906
2280.54	12.1292
2281.96	12.307
2283.38	12.5125
2284.8	13.2909
2286.22	13.0637
2287.64	13.5984
2289.07	13.4477
2290.49	13.3446
2291.91	12.7296
2293.32	12.9169
2294.74	12.3999
2296.16	12.2268
2297.58	12.5127
2299	12.8633
2300.42	12.911
2301.84	13.138
2303.26	13.6361
2304.67	14.0921
2306.09	13.4409
2307.51	12.9584
2308.92	12.7095
2310.34	12.4811
2311.76	12.2639
2313.17	12.2701
2314.59	11.6017
2316	11.7392
2317.42	12.0698
2318.83	12.5646
2320.25	11.8746
2321.66	12.193
2323.08	12.0467
2324.49	11.6594
2325.91	11.765
2327.32	11.3347
2328.73	11.6513
2330.15	11.6294
2331.56	11.3535
2332.97	11.0031
2334.38	10.4251
2335.79	9.78659
2337.21	9.13021
2338.62	8.69708
2340.03	7.92827
2341.44	7.95677
2342.85	7.48441
2344.26	7.61986
2345.67	7.71897
2347.08	7.35745
2348.49	6.81577
2349.9	6.49433
2351.31	6.3814
2352.72	5.87648
2354.13	5.5907
2355.53	5.80004
2356.94	5.18992
2358.35	5.09957
2359.76	4.62716
2361.17	4.11867
2362.57	4.31017
2363.98	4.71277
2365.39	4.38335
2366.79	4.81271
2368.2	5.64375
2369.6	5.4967
2371.01	5.74919
2372.42	5.98511
2373.82	5.79281
2375.22	5.32734
2376.63	4.38455
2378.03	4.42003
2379.44	4.61541
2380.84	4.72353
2382.25	4.34743
2383.65	3.83403
2385.05	4.09342
2386.45	4.60502
2387.86	5.20187
2389.26	5.02927
2390.66	4.51332
2392.06	5.31989
2393.46	5.53179
2394.87	5.74439
2396.27	6.22106
2397.67	6.23648
2399.07	6.96411
2400.47	6.50318
2401.87	7.04983
2403.27	6.86346
2404.67	6.58639
2406.07	6.82962
2407.47	6.98978
2408.86	6.99837
2410.26	7.36002
2411.66	8.55143
2413.06	9.34195
2414.46	10.2829
2415.85	10.7881
2417.25	10.5624
2418.65	10.757
2420.05	11.7184
2421.44	11.6152
2422.84	11.6561
2424.23	11.8394
2425.63	12.0834
2427.03	11.789
2428.42	12.086
2429.82	12.1677
2431.21	11.9928
2432.6	12.5065
2434	12.0741
2435.39	12.2912
2436.79	12.6878
2438.18	13.2561
2439.57	12.9241
2440.97	12.8133
2442.36	11.9043
2443.75	11.7793
2445.14	11.4836
2446.54	11.2355
2447.93	11.0011
2449.32	10.7244
2450.71	10.4112
2452.1	9.88808
2453.49	9.79716
2454.88	9.85402
2456.27	9.40989
2457.66	9.01259
2459.05	8.5747
2460.44	8.74978
2461.83	8.81985
2463.22	8.31628
2464.61	8.42579
2466	8.58501
2467.39	8.43134
2468.77	8.33106
2470.16	8.41953
2471.55	8.54418
2472.94	7.32169
2474.32	7.26174
2475.71	7.6554
2477.1	7.48266
2478.48	7.38314
2479.87	7.13259
2481.25	6.61318
2482.64	5.89041
2484.02	5.49741
2485.41	5.353
2486.8	4.49692
2488.18	3.98744
2489.56	3.33906
2490.95	3.29545
2492.33	3.4158
2493.72	3.09742
2495.1	3.12701
2496.48	2.52736
2497.86	2.71511
2499.25	2.52429
2500.63	2.47891
2502.01	3.00641
2503.39	2.79215
2504.77	3.65919
2506.16	3.4036
2507.54	3.15278
2508.92	2.66106
2510.3	2.63089
2511.68	2.94978
2513.06	3.70824
2514.44	3.18669
2515.82	3.13304
2517.2	3.10338
2518.58	3.6171
2519.95	4.02475
2521.33	4.65247
2522.71	5.17669
2524.09	5.8228
2525.47	6.0841
2526.84	6.28975
2528.22	6.75859
2529.6	7.3035
2530.98	7.34254
2532.35	7.58508
2533.73	8.41477
2535.11	8.00263
2536.48	7.71764
2537.86	7.31104
2539.23	7.4671
2540.61	6.98522
2541.98	6.8634
2543.36	6.72809
2544.73	5.9233
2546.1	5.50122
2547.48	4.73852
2548.85	3.88878
2550.23	3.30827
2551.6	3.48139
2552.97	3.29373
2554.34	2.81058
2555.72	2.45221
2557.09	2.42449
2558.46	2.78279
2559.83	3.27989
2561.2	2.41144
2562.58	2.01596
2563.95	2.13314
2565.32	1.78027
2566.69	1.93269
2568.06	1.64651
2569.43	1.82924
2570.8	1.95688
2572.17	1.70482
2573.54	2.33062
2574.91	1.53972
2576.27	1.58885
2577.64	1.79194
2579.01	2.52314
2580.38	2.9476
2581.75	2.8979
2583.11	3.12288
2584.48	4.28693
2585.85	5.06172
2587.21	5.81656
2588.58	6.07847
2589.95	6.57296
2591.31	6.72598
2592.68	6.2953
2594.04	6.07567
2595.41	6.03537
2596.78	5.98493
2598.14	6.27388
2599.51	5.89753
2600.87	5.87045
2602.23	5.89867
2603.6	5.91531
2604.96	5.6846
2606.32	5.89317
2607.69	5.94416
2609.05	5.53975
2610.41	5.00152
2611.77	4.50245
2613.14	4.28886
2614.5	4.42819
2615.86	4.3542
2617.22	4.39702
2618.58	4.54676
2619.94	4.95383
2621.3	4.93369
2622.67	5.18812
2624.03	5.55922
2625.39	5.99287
2626.75	6.16387
2628.1	5.96573
2629.46	5.63044
2630.82	6.21
2632.18	5.8297
2633.54	5.3264
2634.9	4.83231
2636.26	4.91235
2637.61	4.8905
2638.97	4.59821
2640.33	5.33274
2641.69	5.92646
2643.04	5.80525
2644.4	6.23306
2645.76	6.94495
2647.11	7.41442
2648.47	7.39957
2649.82	7.41179
2651.18	7.27595
2652.53	7.14306
2653.89	6.645
2655.24	6.64938
2656.6	6.29471
2657.95	6.34342
2659.31	5.8111
2660.66	5.46552
2662.01	5.2808
2663.37	4.92758
2664.72	5.68707
2666.07	5.81767
2667.43	5.78043
2668.78	5.92026
2670.13	5.48066
2671.48	5.30528
2672.83	5.27357
2674.18	4.96343
2675.53	4.88636
2676.89	4.80245
2678.24	4.91058
2679.59	5.25807
2680.94	5.41756
2682.29	5.55385
2683.64	6.08524
2684.99	5.93538
2686.34	6.56994
2687.68	6.99753
2689.03	7.24075
2690.38	7.01069
2691.73	7.46415
2693.08	7.98042
2694.43	7.56982
2695.77	7.62655
2697.12	7.58735
2698.47	8.12085
2699.81	7.41366
2701.16	7.81454
2702.51	7.86949
2703.85	8.40499
2705.2	8.47135
2706.54	8.78946
2707.89	9.37513
2709.23	9.443
2710.58	9.17969
2711.92	9.02178
2713.27	9.33368
2714.61	9.34723
2715.96	9.76362
2717.3	9.34543
2718.64	9.44465
2719.99	9.43604
2721.33	9.06301
2722.67	9.09013
2724.01	8.51355
2725.36	8.53903
2726.7	8.05826
2728.04	8.28601
2729.38	8.64377
2730.72	8.76441
2732.06	8.82535
2733.41	8.47004
2734.75	8.73085
2736.09	7.83521
2737.43	7.52743
2738.77	7.32662
2740.11	7.57933
2741.44	6.86329
2742.78	7.22004
2744.12	6.3196
2745.46	5.5203
2746.8	5.20573
2748.14	4.97306
2749.48	4.8315
2750.81	4.68718
2752.15	4.66113
2753.49	4.42489
2754.83	3.89337
2756.16	3.80524
2757.5	3.48724
2758.84	3.9225
2760.17	3.98587
2761.51	4.00233
2762.84	4.01534
2764.18	3.84186
2765.51	4.12825
2766.85	4.1406
2768.18	4.79095
2769.52	4.35535
2770.85	4.08616
2772.19	4.07938
2773.52	4.60857
2774.85	5.10138
2776.19	5.40881
2777.52	4.88659
2778.85	5.28606
2780.18	6.05953
2781.52	6.18862
2782.85	6.4042
2784.18	5.51625
2785.51	5.15592
2786.84	4.54038
2788.17	4.71581
2789.51	5.09325
2790.84	5.10721
2792.17	5.35859
2793.5	5.8307
2794.83	6.34417
2796.16	5.89629
2797.48	5.45723
2798.81	5.66468
2800.14	5.6318
2801.47	5.28196
2802.8	4.2848
2804.13	3.85101
2805.46	3.02608
2806.79	2.66449
2808.11	2.30241
2809.44	1.69126
2810.77	1.35238
2812.09	1.51343
2813.42	2.32831
2814.75	2.94648
2816.07	2.90136
2817.4	3.12234
2818.73	4.00979
2820.05	4.33143
2821.38	5.25648
2822.7	6.5177
2824.03	7.64547
2825.35	8.93298
2826.67	9.83112
2828	10.8129
2829.32	11.7867
2830.65	13.3085
2831.97	14.9421
2833.29	16.2729
2834.62	17.2827
2835.94	18.3124
2837.26	20.1646
2838.58	22.961
2839.9	25.1656
2841.23	26.8902
2842.55	28.4376
2843.87	30.6108
2845.19	32.9861
2846.51	34.638
2847.83	36.6327
2849.15	38.596
2850.47	40.3233
2851.79	42.3794
2853.11	45.3346
2854.43	47.9126
2855.75	50.6761
2857.07	52.9299
2858.39	55.6935
2859.71	58.0018
2861.02	59.8204
2862.34	61.2747
2863.66	63.745
2864.98	66.1842
2866.3	67.4437
2867.61	68.5056
2868.93	70.0061
2870.25	71.5666
2871.56	73.2661
2872.88	74.8399
2874.19	76.3072
2875.51	77.7218
2876.83	79.7725
2878.14	80.8651
2879.46	81.788
2880.77	82.5042
2882.09	83.0078
2883.4	84.4622
2884.71	84.9573
2886.03	86.3189
2887.34	87.4539
2888.65	88.2154
2889.97	88.5208
2891.28	89.7057
2892.59	90.522
2893.91	91.5837
2895.22	92.8985
2896.53	93.8422
2897.84	94.2203
2899.15	95.702
2900.46	97.4132
2901.78	99.8827
2903.09	102.411
2904.4	104.307
2905.71	105.484
2907.02	107.556
2908.33	109.763
2909.64	112.661
2910.95	115.737
2912.26	118.817
2913.57	122.225
2914.87	125.166
2916.18	128.262
2917.49	131.517
2918.8	134.569
2920.11	137.418
2921.42	139.83
2922.72	141.396
2924.03	143.435
2925.34	144.959
2926.64	146.851
2927.95	148.418
2929.26	149.478
2930.56	149.998
2931.87	150.369
2933.17	150.693
2934.48	151.419
2935.78	151.475
2937.09	151.361
2938.39	150.679
2939.7	150.103
2941	149.269
2942.31	147.899
2943.61	145.582
2944.91	143.197
2946.22	140.996
2947.52	139.106
2948.82	136.644
2950.13	133.699
2951.43	131.651
2952.73	127.896
2954.03	124.942
2955.33	121.65
2956.64	118.963
2957.94	115.516
2959.24	112.011
2960.54	108.726
2961.84	105.266
2963.14	102.41
2964.44	100.302
2965.74	97.4106
2967.04	94.6647
2968.34	91.4048
2969.64	87.9216
2970.94	85.4365
2972.24	83.2866
2973.53	80.7642
2974.83	78.6025
2976.13	76.0813
2977.43	73.0114
2978.73	70.1477
2980.02	67.2546
2981.32	64.2236
2982.62	61.2615
2983.91	58.1593
2985.21	55.4285
2986.51	52.2225
2987.8	49.7672
2989.1	47.676
2990.4	45.5221
2991.69	43.1576
2992.99	40.7682
2994.28	38.0046
2995.57	36.2897
2996.87	34.5126
2998.16	32.4728
2999.46	30.5356
3000.75	28.2478
3002.05	25.9237
3003.34	23.8977
3004.63	21.7192
3005.92	19.4955
3007.22	18.1869
3008.51	15.6923
3009.8	14.1123
3011.09	12.6831
3012.39	11.415
3013.68	9.57796
3014.97	8.61181
3016.26	7.53549
3017.55	6.24605
3018.84	5.88883
3020.13	4.94285
3021.42	4.78542
3022.71	4.21369
3024	3.72155
3025.29	3.64901
3026.58	3.70372
3027.87	3.65428
3029.16	3.46298
3030.45	3.06058
3031.73	3.30439
3033.02	3.22903
3034.31	3.25205
3035.6	3.13513
3036.89	2.96199
3038.17	3.52753
3039.46	3.91491
3040.75	3.70059
3042.03	3.96017
3043.32	4.1228
3044.61	4.85
3045.89	4.8717
3047.18	5.40166
3048.46	5.36589
3049.75	5.53054
3051.03	6.03616
3052.32	6.09845
3053.6	5.56487
3054.89	5.53834
3056.17	5.30203
3057.45	5.5863
3058.74	5.09587
3060.02	5.42327
3061.31	5.59263
3062.59	5.28672
3063.87	4.90595
3065.15	4.669
3066.44	4.60543
3067.72	4.53999
3069	4.1217
3070.28	4.06236
3071.56	3.59909
3072.84	2.90054
3074.13	2.96651
3075.41	2.67231
3076.69	2.50391
3077.97	1.94486
3079.25	1.91581
3080.53	1.91016
3081.81	1.81493
3083.09	1.82757
3084.37	1.98953
3085.64	2.00581
3086.92	1.6053
3088.2	1.77578
3089.48	1.79215
3090.76	1.61205
3092.04	1.50326
3093.31	1.3465
3094.59	1.63067
3095.87	2.17814
3097.14	2.16884
3098.42	2.57463
3099.7	2.84483
3100.97	3.37599
3102.25	3.9946
3103.53	4.02209
3104.8	3.98715
3106.08	4.77549
3107.35	5.22531
3108.63	5.51324
3109.9	5.29145
3111.18	6.09935
3112.45	6.29525
3113.73	7.03058
3115	7.63669
3116.27	8.12039
3117.55	8.70052
3118.82	9.69594
3120.09	10.2462
3121.37	11.1249
3122.64	11.4536
3123.91	12.475
3125.18	13.0609
3126.45	13.1071
3127.73	13.6969
3129	14.1317
3130.27	14.3375
3131.54	14.6187
3132.81	14.5863
3134.08	14.8082
3135.35	14.9024
3136.62	15.6145
3137.89	15.4423
3139.16	15.5128
3140.43	15.4951
3141.7	15.2352
3142.97	15.1223
3144.24	14.5769
3145.51	13.8737
3146.78	12.8875
3148.04	11.5913
3149.31	10.949
