#Acq. time (s)=	45
#Accumulations=	2
#Range (cm-¹)=	200...3150
#Windows=	2
#Auto scanning=	Off
#Autofocus=	Off
#Macrospot=	Off
#AutoExposure=	Off
#Spike filter=	Multiple accum.
#Delay time (s)=	0
#Binning=	1
#Readout mode=	Signal
#DeNoise=	Off
#ICS correction=	On
#Dark correction=	Off
#Inst. Process=	Off
#Detector Gain=	Best Dynamic Range
#Detector ADC=	20 kHz       
#Detector temperature (°C)=	-70.08
#Instrument=	LabRAM HR Evol
#Detector=	Synapse
#Objective=	x100
#Grating=	600 gr/mm
#ND Filter=	100%
#Laser (nm)=	532 
#Hole=	100.021
#Range=	Auto
#Laser Pol.=	No
#Raman. Pol.=	No
#Laser Pol. (°)=	-0.0007625
#Raman Pol. (°)=	89.9995
#Collection=	Microscope
#StageXY=	Marzhauser
#StageZ=	Marzhauser
#X (µm)=	-2513.1
#Y (µm)=	-39.8
#Z (µm)=	-10.2
#Full time(mm:ss)=	3:18
#Project=	
#Sample=	
#Site=	
#Title=	Mb_40_24_08_2x_45s_532 nm_x100_100%_600 gr_mm
#Remark=	
#Date=	14.07.2022 11:18
#Acquired=	14.07.2022 11:18:07
#Base:Fit=	10.08.2022 10:47:00
#Base:Sub=	10.08.2022 10:47:12
#Filter:Polynom=	16.08.2022 10:11:48
#AxisType[0]=Intens
#AxisUnit[0]=Cnt
#AxisType[1]=Spectr
#AxisUnit[1]=1/cm
200.554	13.3266
202.369	16.8026
204.183	17.3871
205.999	16.9998
207.813	17.0434
209.626	16.9355
211.439	16.4907
213.253	16.7251
215.065	16.528
216.877	17.2317
218.688	16.2777
220.5	15.9665
222.312	16.0271
224.123	15.7528
225.933	15.7101
227.742	14.5995
229.552	14.1884
231.361	14.9112
233.171	14.2547
234.98	13.0292
236.787	12.8332
238.595	12.6401
240.402	11.6256
242.209	10.7308
244.015	10.9836
245.822	9.96915
247.627	8.85779
249.435	7.27793
251.24	5.7067
253.045	5.29146
254.849	4.81289
256.653	4.65673
258.457	5.66553
260.26	6.30437
262.063	6.92083
263.866	7.76983
265.668	7.50892
267.47	6.90508
269.271	6.3491
271.073	5.66504
272.873	5.08537
274.674	5.21563
276.474	3.56075
278.274	2.3448
280.073	2.60859
281.872	1.96322
283.671	1.05213
285.47	0.456747
287.268	0.0469771
289.065	-0.29439
290.863	0.0306305
292.66	0.568554
294.456	1.45015
296.253	2.05912
298.049	2.6263
299.844	3.65668
301.637	4.01761
303.432	4.95952
305.227	5.34958
307.021	5.77558
308.815	6.3211
310.609	7.92817
312.402	9.12937
314.195	9.67778
315.987	10.1483
317.777	10.6676
319.569	10.7024
321.36	11.4002
323.151	10.6191
324.942	10.5791
326.733	11.0352
328.521	11.9078
330.31	11.5821
332.1	12.9329
333.889	13.5741
335.677	12.027
337.464	12.5847
339.252	12.8461
341.039	12.8815
342.826	13.279
344.611	11.8189
346.398	11.8315
348.184	12.0042
349.97	10.6054
351.754	9.61868
353.539	8.75253
355.324	7.15286
357.106	6.274
358.89	7.16579
360.674	7.10903
362.455	6.53537
364.239	6.1078
366.021	5.37944
367.804	5.5509
369.584	5.13365
371.366	3.41333
373.145	3.31248
374.926	3.83929
376.707	3.77536
378.485	3.94635
380.265	3.69537
382.045	3.26993
383.822	3.89711
385.601	4.68043
387.378	5.02378
389.156	5.59664
390.934	5.47233
392.71	5.89863
394.487	6.28094
396.262	5.75085
398.038	6.73862
399.813	6.71734
401.588	6.73658
403.362	6.58622
405.137	5.74847
406.912	5.37434
408.685	5.88903
410.459	7.06831
412.23	6.83871
414.004	7.10995
415.775	7.77665
417.548	8.69202
419.318	7.97843
421.089	7.88327
422.86	6.26652
424.63	6.703
426.401	7.75215
428.17	8.14748
429.94	7.2561
431.708	8.27781
433.478	8.36933
435.245	8.5196
437.012	7.49202
438.781	8.53125
440.547	9.00378
442.315	10.7374
444.081	11.1701
445.846	12.1059
447.613	12.8143
449.378	13.7735
451.142	13.6635
452.908	14.0582
454.672	13.8941
456.435	13.4761
458.2	13.0748
459.963	12.965
461.725	13.7898
463.489	13.3306
465.251	12.9016
467.012	13.733
468.775	14.3483
470.536	15.1414
472.296	17.5054
474.056	18.0383
475.817	19.121
477.576	19.1093
479.335	19.3348
481.094	19.629
482.854	19.7488
484.612	19.5223
486.37	21.0385
488.127	20.8579
489.886	21.9054
491.642	23.5438
493.398	24.1587
495.154	25.3205
496.91	26.4774
498.667	26.4277
500.422	26.9165
502.176	27.7376
503.93	29.056
505.684	29.2701
507.438	29.6045
509.191	29.6807
510.946	30.977
512.698	32.7694
514.45	32.7933
516.202	33.0942
517.954	32.5822
519.705	33.6981
521.456	33.637
523.206	33.268
524.956	34.1368
526.706	35.3431
528.456	34.8272
530.207	35.2483
531.956	33.3103
533.704	32.5877
535.452	31.8486
537.2	31.8888
538.947	30.1029
540.694	29.3343
542.441	28.6241
544.188	27.7731
545.934	26.9466
547.68	26.2142
549.425	24.615
551.17	23.6389
552.915	23.3065
554.659	22.2125
556.403	21.6429
558.145	21.0303
559.889	20.2826
561.632	18.3304
563.375	16.6801
565.117	13.4996
566.859	12.4763
568.601	10.9322
570.342	9.08298
572.083	8.03396
573.824	8.221
575.565	6.69569
577.303	6.94412
579.043	6.75561
580.782	5.41823
582.521	5.07645
584.26	5.3791
585.998	4.88969
587.734	5.05807
589.472	5.37568
591.21	5.78164
592.947	5.52635
594.684	5.98321
596.418	6.07867
598.154	6.13899
599.89	6.99921
601.626	7.04801
603.361	7.32086
605.094	8.03348
606.828	9.48718
608.562	10.7481
610.296	12.0515
612.027	12.4248
613.761	13.1956
615.493	14.5766
617.224	15.0117
618.956	15.5589
620.688	16.3976
622.419	17.5684
624.149	18.5468
625.879	19.7779
627.61	19.9228
629.338	20.3582
631.068	20.2812
632.797	20.5594
634.525	20.3915
636.254	20.3433
637.98	20.2838
639.708	19.361
641.436	20.0064
643.162	20.4833
644.889	19.5999
646.614	18.8859
648.34	18.2404
650.067	17.808
651.791	16.8534
653.516	16.2988
655.239	15.5521
656.964	14.169
658.687	15.1151
660.411	14.7838
662.133	14.2354
663.857	14.0504
665.58	14.1206
667.301	13.3574
669.024	12.6105
670.744	12.6053
672.464	13.5346
674.186	14.364
675.905	15.6839
677.626	16.458
679.345	16.8051
681.065	16.5607
682.783	16.6599
684.503	17.4652
686.22	17.8217
687.939	18.2497
689.656	18.2597
691.372	18.3858
693.09	18.5812
694.806	18.6474
696.523	18.6579
698.239	18.0053
699.953	18.9964
701.67	19.6942
703.384	19.2597
705.098	19.8178
706.813	19.8137
708.526	21.008
710.239	21.9015
711.954	22.1395
713.666	22.3153
715.378	24.2346
717.091	25.4723
718.802	25.9459
720.513	25.8688
722.226	25.9642
723.936	25.8754
725.646	26.3507
727.355	28.0481
729.067	27.0217
730.776	27.4448
732.484	27.9097
734.192	28.7715
735.902	29.6211
737.61	28.8395
739.317	29.4323
741.024	31.0386
742.731	31.4685
744.439	33.614
746.145	34.0036
747.851	35.7444
749.556	37.6337
751.262	39.9286
752.966	41.0475
754.673	42.9022
756.377	46.5676
758.081	49.1835
759.784	50.0472
761.487	52.6287
763.19	54.0553
764.892	55.2443
766.594	56.1134
768.296	56.8221
770	58.0266
771.701	58.1225
773.402	59.4052
775.102	59.1878
776.803	58.6211
778.503	59.0809
780.202	60.1408
781.901	60.9054
783.6	61.5006
785.299	61.8715
786.997	62.0828
788.695	61.8184
790.393	62.3246
792.09	61.9646
793.787	63.4016
795.484	63.472
797.18	62.9389
798.877	63.7855
800.572	63.682
802.268	62.5183
803.963	61.3118
805.658	60.572
807.35	60.7444
809.044	61.5377
810.738	61.5038
812.432	61.8805
814.125	62.1154
815.818	63.1162
817.51	63.3274
819.202	63.6399
820.894	62.8497
822.584	62.7371
824.275	64.5507
825.966	64.7855
827.657	64.5178
829.347	66.3436
831.037	67.0447
832.725	68.3771
834.414	68.3172
836.103	68.1797
837.792	68.4631
839.481	70.6519
841.167	72.5199
842.854	72.2058
844.542	72.6298
846.229	73.0602
847.914	73.3137
849.6	72.832
851.287	72.8792
852.973	73.0832
854.656	72.7342
856.341	71.598
858.026	70.2591
859.711	68.5048
861.393	66.5757
863.077	67.0807
864.761	66.5311
866.442	65.1071
868.125	64.0875
869.808	63.5769
871.489	62.5329
873.171	61.7182
874.85	61.0536
876.532	59.9581
878.213	59.4361
879.892	57.1536
881.572	56.7722
883.251	56.5494
884.931	55.4989
886.61	54.4278
888.287	54.0701
889.966	53.7543
891.643	53.0672
893.321	51.2489
894.997	50.4398
896.675	50.6091
898.352	50.114
900.028	49.5636
901.704	48.6685
903.379	47.7823
905.055	47.1904
906.729	47.9801
908.404	47.619
910.077	47.31
911.75	46.8414
913.425	47.6685
915.097	46.9703
916.771	47.0838
918.443	46.9794
920.116	47.0161
921.787	47.0876
923.46	47.5206
925.13	46.3118
926.8	45.0781
928.472	44.9284
930.141	44.8158
931.813	44.4671
933.481	44.4923
935.15	44.1821
936.82	43.9551
938.488	42.8955
940.156	42.4467
941.825	40.472
943.492	39.4953
945.158	38.3166
946.827	37.7831
948.493	36.8561
950.158	36.0097
951.824	35.2151
953.491	34.565
955.156	33.5324
956.82	32.7165
958.486	31.287
960.15	29.4257
961.814	29.0852
963.477	30.4991
965.142	30.4467
966.804	30.7306
968.467	31.7881
970.129	33.8241
971.79	34.7104
973.454	36.0203
975.115	36.6669
976.776	38.2115
978.436	40.1374
980.096	41.0993
981.756	42.3132
983.417	42.7401
985.077	42.7249
986.736	44.1323
988.394	44.7831
990.052	45.5763
991.71	45.2365
993.368	45.9622
995.025	46.2639
996.682	47.5387
998.341	46.6716
999.998	46.8819
1001.65	47.2388
1003.31	47.1399
1004.97	48.0715
1006.62	47.8593
1008.28	48.4326
1009.93	49.8184
1011.58	51.352
1013.24	53.6476
1014.89	54.958
1016.54	57.1455
1018.2	59.3612
1019.85	60.9564
1021.5	61.2838
1023.16	62.3525
1024.81	62.7184
1026.46	64.7266
1028.11	65.3798
1029.76	67.1733
1031.41	68.139
1033.06	67.5803
1034.71	68.1662
1036.36	68.8906
1038.01	69.1933
1039.66	69.6369
1041.31	70.5621
1042.95	71.153
1044.6	72.5963
1046.25	74.0523
1047.9	73.8977
1049.54	75.2446
1051.19	75.7974
1052.84	75.2505
1054.48	73.4445
1056.13	73.7549
1057.77	72.1995
1059.42	71.224
1061.06	69.8571
1062.71	69.0002
1064.35	66.9476
1066	63.4867
1067.64	62.1059
1069.28	59.9154
1070.93	57.8579
1072.57	56.383
1074.21	53.561
1075.85	51.9826
1077.49	49.6353
1079.13	46.6191
1080.78	44.7911
1082.42	43.6959
1084.06	43.705
1085.7	42.9315
1087.34	42.0556
1088.97	41.6415
1090.61	43.1043
1092.25	43.2627
1093.89	43.8353
1095.53	44.057
1097.17	43.9711
1098.8	44.6034
1100.44	45.2554
1102.08	44.7841
1103.71	45.316
1105.35	45.3844
1106.99	44.4503
1108.62	43.7834
1110.26	42.4571
1111.89	41.1303
1113.52	40.0216
1115.16	39.1798
1116.79	39.2951
1118.43	38.0948
1120.06	36.7515
1121.69	35.5439
1123.32	33.9883
1124.96	33.3117
1126.59	32.4914
1128.22	31.8993
1129.85	29.7394
1131.48	28.1357
1133.11	27.1113
1134.75	25.1375
1136.37	23.7764
1138	22.6734
1139.63	21.1265
1141.26	19.9946
1142.89	18.0861
1144.52	16.2612
1146.15	14.2655
1147.78	12.7715
1149.4	11.2121
1151.03	9.03195
1152.66	8.49808
1154.28	6.3934
1155.91	3.45226
1157.54	2.87051
1159.16	2.28337
1160.79	2.04537
1162.41	2.45227
1164.04	2.7029
1165.66	2.49037
1167.29	1.60518
1168.91	1.06976
1170.53	1.69654
1172.16	1.98416
1173.78	1.71152
1175.4	2.41505
1177.02	2.29154
1178.65	3.36093
1180.27	4.7921
1181.89	5.47643
1183.51	6.64662
1185.13	7.27662
1186.75	8.00963
1188.37	9.17526
1189.99	9.50883
1191.61	10.4639
1193.23	10.7291
1194.85	13.2368
1196.47	14.4159
1198.08	16.4174
1199.7	17.1897
1201.32	18.9576
1202.94	19.9189
1204.55	20.8578
1206.17	23.4129
1207.79	24.362
1209.4	26.7363
1211.02	27.89
1212.63	30.01
1214.25	31.8849
1215.86	33.3715
1217.48	36.3662
1219.09	39.0767
1220.71	41.5367
1222.32	42.4785
1223.93	44.818
1225.54	46.3027
1227.16	48.1425
1228.77	49.701
1230.38	51.6816
1231.99	53.7712
1233.6	56.0591
1235.22	56.5427
1236.83	58.7543
1238.44	61.9954
1240.05	64.8978
1241.66	66.0169
1243.26	68.0697
1244.87	68.8655
1246.48	70.5476
1248.09	72.3045
1249.7	75.5391
1251.31	77.8065
1252.92	79.6463
1254.52	81.0879
1256.13	82.5246
1257.74	84.3848
1259.34	86.6339
1260.95	88.9351
1262.55	91.5858
1264.16	92.8363
1265.76	94.3907
1267.37	95.7903
1268.97	97.8755
1270.58	98.4861
1272.18	100.546
1273.78	102.949
1275.39	105.65
1276.99	106.839
1278.59	107.833
1280.2	108.313
1281.8	109.822
1283.4	110.544
1285	112.508
1286.6	114.917
1288.2	115.637
1289.8	116.825
1291.4	116.97
1293	117.698
1294.6	119.232
1296.2	119.584
1297.8	120.548
1299.4	120.491
1301	120.24
1302.6	120.46
1304.19	121.042
1305.79	121.347
1307.39	122.326
1308.99	122.37
1310.58	121.293
1312.18	121.056
1313.77	121.198
1315.37	119.881
1316.96	120.07
1318.56	120.015
1320.15	118.679
1321.75	116.725
1323.34	115.045
1324.94	113.096
1326.53	112.757
1328.12	110.711
1329.72	109.793
1331.31	107.916
1332.9	106.697
1334.49	106.127
1336.08	105.456
1337.67	104.856
1339.27	103.285
1340.86	102.455
1342.45	100.963
1344.04	97.9167
1345.63	97.0306
1347.22	95.7185
1348.8	95.6245
1350.39	93.0866
1351.98	92.3951
1353.57	91.9893
1355.16	90.4527
1356.75	88.3759
1358.33	86.4814
1359.92	85.3655
1361.51	84.5341
1363.09	82.5249
1364.68	81.8414
1366.27	80.8425
1367.85	80.0704
1369.44	79.3311
1371.02	78.5251
1372.61	78.4726
1374.19	78.7111
1375.77	78.5772
1377.36	79.9532
1378.94	80.6077
1380.52	81.6998
1382.11	83.8266
1383.69	84.4427
1385.27	86.2603
1386.85	86.4909
1388.43	86.6165
1390.02	87.3138
1391.6	89.1384
1393.18	89.6217
1394.76	89.7002
1396.34	90.7901
1397.92	91.8857
1399.5	92.1179
1401.08	92.5687
1402.65	93.789
1404.23	95.7491
1405.81	97.2811
1407.39	99.5596
1408.97	102.166
1410.54	105.202
1412.12	108.06
1413.7	110.798
1415.27	113.522
1416.85	116.826
1418.43	119.974
1420	123.534
1421.58	128.545
1423.15	133.435
1424.73	138.967
1426.3	144.949
1427.87	149.292
1429.45	154.027
1431.02	158.891
1432.6	162.828
1434.17	165.918
1435.74	168.819
1437.31	172.683
1438.89	176.079
1440.46	179.188
1442.03	180.951
1443.6	182.555
1445.17	184.053
1446.74	184.503
1448.31	183.623
1449.88	183.413
1451.45	182.707
1453.02	181.911
1454.59	180.537
1456.16	178.155
1457.72	174.63
1459.29	170.161
1460.86	166.518
1462.43	161.281
1463.99	157.676
1465.56	152.347
1467.13	147.24
1468.69	140.992
1470.26	134.837
1471.83	127.792
1473.39	121.026
1474.95	114.096
1476.52	107.253
1478.08	100.294
1479.65	92.6477
1481.21	86.5769
1482.78	79.4434
1484.34	73.7085
1485.9	68.4193
1487.47	63.5448
1489.03	58.3428
1490.59	54.7439
1492.15	51.5237
1493.71	47.9666
1495.27	44.8926
1496.84	41.8859
1498.39	41.2585
1499.96	40.5142
1501.52	38.7642
1503.07	37.6841
1504.64	36.9586
1506.19	34.3586
1507.75	33.2219
1509.31	31.231
1510.87	30.5307
1512.43	29.7189
1513.98	29.2435
1515.54	28.8111
1517.1	28.4312
1518.65	27.7224
1520.21	27.1991
1521.77	26.6814
1523.32	27.0034
1524.88	26.0611
1526.44	26.4819
1527.99	27.5403
1529.54	28.1319
1531.1	28.4724
1532.65	28.3835
1534.21	28.9396
1535.76	29.166
1537.31	31.1278
1538.87	32.6988
1540.42	34.3083
1541.97	35.9927
1543.52	36.1877
1545.07	36.7112
1546.63	37.9787
1548.18	39.7197
1549.73	40.6958
1551.28	41.9533
1552.83	42.5663
1554.38	44.0553
1555.93	45.8607
1557.48	48.226
1559.03	50.4561
1560.57	52.6298
1562.12	55.3633
1563.67	57.2009
1565.22	59.3763
1566.77	62.1481
1568.31	65.4324
1569.86	68.5651
1571.41	70.9985
1572.95	74.7878
1574.5	77.5027
1576.05	81.2594
1577.59	83.2477
1579.14	86.539
1580.68	89.9485
1582.23	92.7952
1583.77	94.2715
1585.31	96.5111
1586.86	99.1593
1588.4	101.41
1589.95	103.398
1591.49	105.369
1593.03	106.768
1594.57	108.483
1596.11	110.326
1597.66	111.431
1599.2	112.004
1600.74	111.386
1602.28	111.632
1603.82	112.029
1605.36	111.895
1606.9	111.191
1608.44	110.808
1609.98	110.579
1611.52	110.264
1613.06	110.537
1614.6	110.803
1616.13	110.459
1617.67	110.981
1619.21	110.856
1620.75	110.832
1622.28	111.522
1623.82	112.813
1625.36	113.648
1626.89	113.697
1628.43	114.027
1629.96	114.952
1631.5	116.82
1633.04	118.84
1634.57	120.268
1636.11	121.717
1637.64	123.712
1639.17	125.385
1640.71	126.873
1642.24	129.124
1643.77	131.892
1645.31	133.793
1646.84	136.838
1648.37	137.484
1649.9	138.772
1651.43	139.814
1652.96	141.01
1654.5	141.629
1656.03	142.362
1657.56	142.911
1659.09	141.854
1660.62	140.165
1662.15	139.283
1663.67	138.386
1665.2	136.802
1666.73	134.583
1668.26	131.897
1669.79	129.753
1671.32	127.688
1672.84	124.506
1674.37	120.074
1675.9	115.823
1677.43	110.668
1678.95	107.075
1680.48	103.321
1682	99.2944
1683.53	94.8463
1685.05	91.5105
1686.58	87.5415
1688.1	83.1119
1689.63	79.1271
1691.15	75.1374
1692.68	71.9502
1694.2	67.5999
1695.72	64.3714
1697.25	60.3338
1698.77	57.0203
1700.29	54.5079
1701.81	51.6802
1703.33	48.3382
1704.86	46.1652
1706.38	43.9225
1707.9	42.2453
1709.42	39.7083
1710.94	37.5367
1712.46	35.2146
1713.98	33.2799
1715.5	32.1543
1717.02	30.2421
1718.54	29.0732
1720.06	28.194
1721.57	27.8644
1723.09	26.9658
1724.61	25.8756
1726.13	26.0962
1727.64	25.9515
1729.16	25.1527
1730.68	24.7493
1732.19	24.4163
1733.71	23.9238
1735.23	22.8804
1736.74	22.56
1738.26	22.1955
1739.77	21.3634
1741.29	21.1736
1742.8	20.8563
1744.31	21.089
1745.83	20.448
1747.34	20.1389
1748.85	18.8285
1750.37	17.6686
1751.88	16.5259
1753.39	16.1003
1754.91	15.9554
1756.42	15.6071
1757.93	15.0251
1759.44	15.0175
1760.95	14.0449
1762.46	13.0854
1763.97	11.4789
1765.48	11.1937
1766.99	10.7676
1768.5	9.254
1770.01	7.86408
1771.52	7.56197
1773.03	7.22593
1774.54	7.82527
1776.04	7.87751
1777.55	6.92025
1779.06	6.05852
1780.57	5.15026
1782.07	4.38303
1783.58	3.71821
1785.09	3.08735
1786.59	3.36336
1788.1	2.86905
1789.6	3.59118
1791.11	2.72761
1792.61	2.19551
1794.12	2.68533
1795.62	2.94636
1797.13	2.57095
1798.63	2.21018
1800.13	2.73732
1801.64	2.33812
1803.14	1.80902
1804.64	1.09597
1806.15	0.891734
1807.65	1.10901
1809.15	1.25165
1810.65	1.5322
1812.15	2.00541
1813.65	2.13741
1815.16	2.95611
1816.66	3.33434
1818.15	3.20946
1819.66	3.49213
1821.16	2.93947
1822.65	3.44562
1824.15	3.45681
1825.65	3.99992
1827.15	4.26903
1828.65	4.75333
1830.15	4.257
1831.64	5.00397
1833.14	5.71319
1834.64	6.14311
1836.14	5.96817
1837.63	6.13901
1839.13	6.0598
1840.62	6.32182
1842.12	6.56006
1843.62	6.24944
1845.11	7.1732
1846.61	8.07062
1848.1	8.37212
1849.6	7.92089
1851.09	7.36975
1852.58	6.93159
1854.08	6.0798
1855.57	5.2525
1857.06	4.87438
1858.55	4.38647
1860.05	3.98396
1861.54	3.49085
1863.03	2.96397
1864.52	2.48052
1866.01	1.41914
1867.5	1.51723
1869	0.895261
1870.49	0.637615
1871.98	1.16943
1873.47	1.46286
1874.96	1.34323
1876.44	0.764952
1877.93	0.771796
1879.42	1.18292
1880.91	1.6226
1882.4	1.94804
1882.47	2.09675
1883.96	2.75309
1885.46	3.18503
1886.95	2.96393
1888.44	2.51522
1889.94	2.41838
1891.43	3.06058
1892.93	3.75867
1894.42	3.25439
1895.91	3.07254
1897.4	3.47342
1898.89	3.53688
1900.39	3.72304
1901.88	4.24597
1903.37	4.75184
1904.86	5.99705
1906.35	6.79764
1907.84	6.72106
1909.33	6.52151
1910.82	6.52185
1912.31	6.55816
1913.8	6.81793
1915.29	6.87251
1916.77	6.19843
1918.26	6.89591
1919.75	6.33862
1921.24	5.73875
1922.73	4.53987
1924.21	4.70406
1925.7	4.31391
1927.19	3.37547
1928.67	4.23926
1930.16	4.85343
1931.64	4.67477
1933.13	4.83365
1934.61	4.82631
1936.1	4.38258
1937.58	3.7803
1939.07	3.5974
1940.55	3.24026
1942.04	3.54181
1943.52	3.79943
1945	3.7259
1946.49	3.01504
1947.97	3.29678
1949.45	3.12883
1950.93	3.69876
1952.42	4.33598
1953.9	3.75014
1955.38	3.48015
1956.86	3.50406
1958.34	3.23598
1959.82	2.28084
1961.3	1.45898
1962.78	0.999882
1964.26	1.27507
1965.74	1.57444
1967.22	1.01858
1968.7	0.0555258
1970.18	0.132911
1971.65	0.479012
1973.13	1.01228
1974.61	0.989641
1976.09	1.17325
1977.57	1.53257
1979.04	1.51354
1980.52	1.60165
1982	1.30668
1983.47	1.07365
1984.95	0.786308
1986.42	0.853282
1987.9	0.87853
1989.37	0.724441
1990.85	0.558946
1992.32	1.18018
1993.8	1.26039
1995.27	1.42625
1996.75	1.61388
1998.22	2.33397
1999.69	3.02957
2001.17	3.79184
2002.64	4.77277
2004.11	4.8956
2005.58	4.73763
2007.05	4.89455
2008.53	5.73118
2010	6.48341
2011.47	6.48252
2012.94	6.7241
2014.41	7.26841
2015.88	8.311
2017.35	8.8727
2018.82	9.99904
2020.29	10.0322
2021.76	10.5443
2023.23	10.8016
2024.7	11.2861
2026.16	11.3054
2027.63	11.5737
2029.1	11.6018
2030.57	12.0552
2032.03	12.0197
2033.5	12.2126
2034.97	12.698
2036.44	12.4491
2037.9	13.7012
2039.37	13.6605
2040.83	13.0951
2042.3	13.3311
2043.76	13.4069
2045.23	13.152
2046.69	13.6754
2048.16	13.4118
2049.62	13.2634
2051.08	13.3838
2052.55	13.2876
2054.01	13.6823
2055.47	13.741
2056.94	13.8194
2058.4	13.8825
2059.86	14.8988
2061.32	14.6296
2062.79	14.6004
2064.25	14.5575
2065.71	15.1173
2067.17	14.9292
2068.63	15.072
2070.09	15.0218
2071.55	15.6258
2073.01	15.7722
2074.47	15.6181
2075.93	16.6093
2077.39	17.524
2078.85	17.639
2080.31	18.7474
2081.76	19.1838
2083.22	19.1915
2084.68	19.1147
2086.13	20.5007
2087.59	21.3758
2089.05	23.3242
2090.51	24.2045
2091.96	25.4265
2093.42	25.8323
2094.87	27.3354
2096.33	29.4621
2097.78	30.7794
2099.24	31.9878
2100.69	33.862
2102.15	35.2035
2103.6	37.5226
2105.06	38.7345
2106.51	40.736
2107.96	42.5561
2109.42	44.102
2110.87	46.6963
2112.32	47.8323
2113.77	50.4795
2115.23	53.6708
2116.68	55.0521
2118.13	57.4267
2119.58	60.429
2121.03	62.8399
2122.48	65.7378
2123.93	69.0192
2125.38	72.0214
2126.83	75.4065
2128.28	77.6854
2129.73	80.1257
2131.18	83.1163
2132.63	85.2679
2134.08	87.5699
2135.53	90.5052
2136.97	92.2022
2138.42	94.4359
2139.87	96.9835
2141.32	99.3658
2142.76	101.451
2144.21	104.248
2145.66	106.65
2147.1	109.084
2148.55	111.533
2150	113.504
2151.44	115.168
2152.89	117.7
2154.33	119.553
2155.78	122.158
2157.22	124.012
2158.66	126.593
2160.11	129.208
2161.55	131.279
2163	131.36
2164.44	132.91
2165.88	134.538
2167.32	135.498
2168.77	136.343
2170.21	136.592
2171.65	136.414
2173.09	136.557
2174.53	136.501
2175.97	136.175
2177.41	135.137
2178.85	134.743
2180.29	133.444
2181.73	132.401
2183.17	131.04
2184.61	129.45
2186.05	128.567
2187.49	126.873
2188.93	123.986
2190.37	123.181
2191.81	121.165
2193.24	119.289
2194.68	117.05
2196.12	115.33
2197.56	113.249
2198.99	110.646
2200.43	107.386
2201.87	104.977
2203.3	101.996
2204.74	98.1616
2206.17	96.3899
2207.61	92.4333
2209.04	89.1132
2210.48	86.9407
2211.91	85.2934
2213.35	82.5323
2214.78	80.9257
2216.21	79.0671
2217.65	77.0507
2219.08	75.6301
2220.51	73.7686
2221.95	72.7814
2223.38	71.4538
2224.81	69.6416
2226.24	67.4469
2227.67	65.0748
2229.1	63.2662
2230.54	61.6113
2231.97	59.6347
2233.4	57.6358
2234.83	56.0543
2236.26	55.5044
2237.69	53.4655
2239.11	51.1092
2240.54	49.334
2241.97	47.5215
2243.4	45.964
2244.83	44.7776
2246.26	43.8292
2247.69	42.5124
2249.11	40.6076
2250.54	39.363
2251.97	37.5675
2253.4	36.54
2254.82	35.1815
2256.25	33.9181
2257.67	32.9039
2259.1	31.3912
2260.53	30.0766
2261.95	29.3581
2263.38	27.9693
2264.8	26.6726
2266.23	24.9197
2267.65	24.4692
2269.07	22.4777
2270.5	21.189
2271.92	20.6698
2273.34	19.278
2274.77	18.5853
2276.19	18.592
2277.61	18.4907
2279.03	16.9762
2280.46	17.3013
2281.88	17.7006
2283.3	17.737
2284.72	17.2052
2286.14	16.9583
2287.56	16.7897
2288.98	16.631
2290.4	16.0441
2291.82	14.643
2293.24	13.8082
2294.66	13.0299
2296.08	12.2472
2297.5	12.5073
2298.92	12.9431
2300.34	13.6054
2301.76	14.3232
2303.17	15.7678
2304.59	16.6514
2306.01	16.8898
2307.43	15.9763
2308.84	15.3461
2310.26	15.6563
2311.68	15.724
2313.09	15.7797
2314.51	16.3374
2315.92	16.5363
2317.34	15.9592
2318.75	14.8341
2320.17	13.4744
2321.58	13.2474
2323	12.5898
2324.41	12.6794
2325.82	11.6588
2327.24	11.4263
2328.65	11.1748
2330.06	10.1748
2331.48	9.75832
2332.89	9.48947
2334.3	8.77668
2335.71	8.11174
2337.12	7.93812
2338.54	8.10018
2339.95	7.07007
2341.36	6.43899
2342.77	6.42541
2344.18	5.75836
2345.59	5.72973
2347	5.06942
2348.41	3.89559
2349.82	2.90889
2351.23	2.94825
2352.64	2.94906
2354.04	2.30092
2355.45	1.8285
2356.86	1.15311
2358.27	0.806176
2359.68	0.0392656
2361.08	-0.498387
2362.49	-0.0968328
2363.9	0.394809
2365.3	2.49054
2366.71	3.17929
2368.12	3.5153
2369.52	3.56088
2370.93	3.99561
2372.33	4.38419
2373.74	4.70776
2375.14	4.41048
2376.55	4.39255
2377.95	3.81068
2379.36	5.61244
2380.76	5.42972
2382.16	5.6574
2383.57	5.89277
2384.97	5.76129
2386.37	5.41904
2387.78	4.77106
2389.18	4.76802
2390.58	4.87404
2391.98	6.32012
2393.38	6.31311
2394.79	6.42413
2396.19	6.17004
2397.59	6.38829
2398.99	6.51507
2400.39	6.53199
2401.79	6.85796
2403.19	7.06989
2404.59	7.23187
2405.99	7.6935
2407.39	7.75864
2408.78	7.69948
2410.18	7.70727
2411.58	8.00015
2412.98	8.64023
2414.38	8.19368
2415.77	7.51643
2417.17	7.83741
2418.57	6.98819
2419.97	6.60888
2421.36	6.8378
2422.76	6.88976
2424.15	6.57937
2425.55	6.13187
2426.95	6.48685
2428.34	6.14478
2429.74	5.78655
2431.13	5.84517
2432.52	6.32107
2433.92	6.85488
2435.31	6.92331
2436.71	6.74492
2438.1	7.08402
2439.49	7.58378
2440.89	7.89205
2442.28	7.87398
2443.67	8.13043
2445.06	8.09609
2446.46	8.01078
2447.85	8.13551
2449.24	8.55552
2450.63	7.48375
2452.02	7.41354
2453.41	7.9615
2454.8	7.47736
2456.19	7.64393
2457.58	7.30589
2458.97	7.04293
2460.36	6.65886
2461.75	6.84914
2463.14	5.80618
2464.53	5.39056
2465.92	5.58147
2467.31	5.16944
2468.69	5.40161
2470.08	4.81011
2471.47	4.52993
2472.86	4.43008
2474.24	4.77975
2475.63	4.30088
2477.02	4.25788
2478.4	3.8204
2479.79	3.06539
2481.17	2.50793
2482.56	2.4018
2483.94	1.74095
2485.33	1.86514
2486.72	2.24005
2488.1	0.938202
2489.48	1.46236
2490.87	1.6784
2492.25	1.77288
2493.64	2.05268
2495.02	1.83979
2496.4	2.38399
2497.79	1.52139
2499.17	1.68155
2500.55	2.07011
2501.93	2.0689
2503.31	2.06725
2504.69	1.8315
2506.08	1.8669
2507.46	0.925569
2508.84	0.892543
2510.22	0.175825
2511.6	-0.160521
2512.98	0.0556697
2514.36	0.37087
2515.74	0.84994
2517.12	1.25214
2518.5	0.908068
2519.88	0.525017
2521.25	0.954501
2522.63	1.95401
2524.01	1.14107
2525.39	0.938971
2526.77	1.10898
2528.14	1.42237
2529.52	0.995442
2530.9	1.05639
2532.27	2.21267
2533.65	2.59394
2535.03	3.54058
2536.4	3.75075
2537.78	4.35967
2539.15	4.86058
2540.53	4.70639
2541.9	5.01296
2543.28	5.50609
2544.65	5.31478
2546.03	5.53786
2547.4	4.97747
2548.77	4.77104
2550.15	5.52264
2551.52	6.23529
2552.89	6.55911
2554.27	7.18586
2555.64	6.83971
2557.01	6.29775
2558.38	6.65448
2559.75	6.36593
2561.12	6.49447
2562.5	6.5959
2563.87	6.0658
2565.24	6.45266
2566.61	5.42657
2567.98	5.20072
2569.35	5.06313
2570.72	5.7022
2572.09	4.99952
2573.46	4.79022
2574.83	4.99858
2576.19	4.3921
2577.56	4.62785
2578.93	4.29788
2580.3	4.73575
2581.67	5.19398
2583.04	5.49812
2584.4	5.30168
2585.77	4.89271
2587.14	5.16921
2588.5	5.3836
2589.87	6.13929
2591.23	5.69773
2592.6	5.81827
2593.97	6.14271
2595.33	6.59557
2596.7	6.77371
2598.06	6.85342
2599.43	7.5622
2600.79	8.64875
2602.15	7.83782
2603.52	8.1757
2604.88	7.65447
2606.25	7.36206
2607.61	7.42431
2608.97	6.71424
2610.33	6.9602
2611.7	6.4837
2613.06	6.07235
2614.42	5.57438
2615.78	5.11439
2617.15	5.16673
2618.51	5.38356
2619.87	5.129
2621.23	4.8296
2622.59	4.55469
2623.95	4.08947
2625.31	3.94221
2626.67	4.26259
2628.03	3.85695
2629.39	3.98916
2630.75	4.02032
2632.1	4.32743
2633.46	4.52314
2634.82	3.9837
2636.18	4.29839
2637.54	4.66066
2638.89	4.55669
2640.25	3.66004
2641.61	4.87119
2642.97	4.80343
2644.32	4.17337
2645.68	4.62522
2647.03	5.1108
2648.39	4.99248
2649.75	4.36373
2651.1	3.95117
2652.46	4.11937
2653.81	3.78181
2655.17	4.35141
2656.52	4.12799
2657.88	4.55063
2659.23	4.81669
2660.58	5.7037
2661.94	5.63825
2663.29	5.79965
2664.64	6.45952
2666	6.41711
2667.35	6.47601
2668.7	6.70709
2670.05	6.98821
2671.4	7.38629
2672.76	7.38641
2674.11	7.84202
2675.46	8.55176
2676.81	8.77761
2678.16	9.22621
2679.51	9.71082
2680.86	9.80962
2682.21	9.97678
2683.56	9.74563
2684.91	10.3496
2686.26	10.5713
2687.61	10.2869
2688.96	11.1702
2690.3	11.4913
2691.65	11.36
2693	11.6134
2694.35	12.3861
2695.7	12.715
2697.04	13.1233
2698.39	13.7883
2699.74	14.3439
2701.08	14.0963
2702.43	14.391
2703.77	15.2239
2705.12	15.651
2706.47	15.5071
2707.81	15.7441
2709.16	16.149
2710.5	15.5237
2711.85	15.7903
2713.19	16.1591
2714.53	16.2552
2715.88	16.1856
2717.22	16.0826
2718.57	16.8217
2719.91	17.4391
2721.25	17.749
2722.59	18.4306
2723.94	18.2309
2725.28	18.6639
2726.62	19.1218
2727.96	19.2148
2729.3	19.3335
2730.65	19.228
2731.99	19.2348
2733.33	18.2652
2734.67	17.965
2736.01	17.6378
2737.35	17.8606
2738.69	17.6926
2740.03	17.4492
2741.37	17.4188
2742.71	17.6084
2744.05	17.2966
2745.38	17.0736
2746.72	16.5937
2748.06	15.9318
2749.4	15.7991
2750.74	15.7074
2752.07	15.4186
2753.41	14.6065
2754.75	14.1182
2756.09	14.3302
2757.42	13.5446
2758.76	12.6757
2760.09	12.0504
2761.43	11.4347
2762.77	10.599
2764.1	9.49408
2765.44	8.85763
2766.77	7.81169
2768.11	7.16114
2769.44	6.62497
2770.77	6.28267
2772.11	5.23573
2773.44	4.18813
2774.77	4.34478
2776.11	4.1781
2777.44	3.88515
2778.77	4.18887
2780.11	3.27229
2781.44	3.12032
2782.77	2.90934
2784.1	2.53257
2785.43	2.81794
2786.77	2.20561
2788.1	1.81282
2789.43	1.10037
2790.76	1.31234
2792.09	1.25911
2793.42	0.87517
2794.75	0.464001
2796.08	0.512213
2797.41	0.284479
2798.74	0.352877
2800.07	0.531412
2801.4	0.731166
2802.72	0.853524
2804.05	1.56589
2805.38	1.81757
2806.71	2.14036
2808.04	2.59417
2809.36	2.63273
2810.69	2.89606
2812.02	3.06976
2813.34	3.20515
2814.67	3.73371
2816	4.28462
2817.32	5.46874
2818.65	6.43695
2819.97	8.39701
2821.3	10.0804
2822.62	12.5869
2823.95	14.9807
2825.27	17.0844
2826.6	20.1128
2827.92	23.9162
2829.25	28.7571
2830.57	33.1424
2831.89	37.4449
2833.22	42.9529
2834.54	48.8883
2835.86	54.0271
2837.18	59.8723
2838.51	65.9414
2839.83	72.3083
2841.15	78.6841
2842.47	85.7919
2843.79	92.3988
2845.11	100.225
2846.43	107.24
2847.76	115.786
2849.08	123.412
2850.4	131.945
2851.72	140.035
2853.04	148.127
2854.36	156.943
2855.67	165.228
2856.99	174.469
2858.31	182.624
2859.63	190.549
2860.95	199.466
2862.27	207.683
2863.58	215.211
2864.9	223.134
2866.22	230.249
2867.54	236.398
2868.85	243.22
2870.17	248.896
2871.49	254.887
2872.8	260.09
2874.12	265.451
2875.43	270.708
2876.75	276.506
2878.07	281.891
2879.38	286.068
2880.7	292.109
2882.01	298.69
2883.32	304.736
2884.64	310.516
2885.95	316.48
2887.27	322.55
2888.58	329.282
2889.89	335.76
2891.21	341.978
2892.52	349.484
2893.83	356.742
2895.14	364.631
2896.46	370.967
2897.77	378.038
2899.08	386.079
2900.39	393.997
2901.7	401.733
2903.01	410.752
2904.32	420.756
2905.63	430.913
2906.94	441.536
2908.25	452.881
2909.56	463.444
2910.87	476.529
2912.18	487.036
2913.49	499.336
2914.8	509.786
2916.11	520.633
2917.42	530.515
2918.72	540.077
2920.03	549.791
2921.34	558.594
2922.65	566.776
2923.95	572.506
2925.26	577.775
2926.57	583.162
2927.88	586.162
2929.18	589.028
2930.49	590.853
2931.79	591.438
2933.1	589.99
2934.4	588.266
2935.71	584.827
2937.01	582.35
2938.32	577.878
2939.62	572.574
2940.93	565.296
2942.23	557.373
2943.54	548.819
2944.84	540.405
2946.14	532.169
2947.45	522.099
2948.75	511.141
2950.05	500.048
2951.35	489.144
2952.66	476.608
2953.96	464.636
2955.26	452.792
2956.56	440.701
2957.86	428.19
2959.16	415.838
2960.46	403.946
2961.77	391.636
2963.07	380.631
2964.37	370.481
2965.66	360.221
2966.96	349.674
2968.26	340.53
2969.56	331.675
2970.86	322.784
2972.16	313.616
2973.46	305.444
2974.76	297.397
2976.06	289.61
2977.35	279.878
2978.65	271.147
2979.95	261.341
2981.25	252.72
2982.54	243.684
2983.84	234.86
2985.14	226.758
2986.43	217.117
2987.73	208.167
2989.02	198.712
2990.32	189.7
2991.62	181.03
2992.91	171.806
2994.21	163.529
2995.5	155.114
2996.8	146.939
2998.09	137.812
2999.38	129.813
3000.68	121.83
3001.97	114.655
3003.26	106.028
3004.56	98.2696
3005.85	90.7077
3007.14	84.2005
3008.43	78.5328
3009.73	72.869
3011.02	66.0064
3012.31	60.7325
3013.6	55.6486
3014.89	50.5943
3016.19	46.669
3017.48	41.9296
3018.77	39.4996
3020.06	35.7986
3021.35	32.5208
3022.64	29.2026
3023.93	27.2667
3025.22	25.0139
3026.5	23.0349
3027.79	21.4892
3029.08	20.2235
3030.37	18.345
3031.66	17.0075
3032.95	16.7386
3034.24	15.8539
3035.52	15.5753
3036.81	14.9073
3038.1	14.8189
3039.39	14.1359
3040.67	14.1726
3041.96	12.9814
3043.25	12.5452
3044.53	12.205
3045.82	12.425
3047.1	12.6456
3048.39	13.2707
3049.67	13.1775
3050.96	12.9742
3052.24	13.598
3053.53	12.9874
3054.81	13.2879
3056.1	13.7721
3057.38	13.6947
3058.67	14.6477
3059.95	14.6321
3061.23	15.0591
3062.52	14.2387
3063.8	13.8177
3065.08	13.7752
3066.36	13.5621
3067.65	13.0812
3068.93	13.2219
3070.21	12.8426
3071.49	12.8202
3072.77	12.2699
3074.05	11.2493
3075.33	10.6263
3076.61	10.6778
3077.89	10.0428
3079.17	9.4542
3080.45	8.17348
3081.73	7.39729
3083.01	6.92469
3084.29	5.47498
3085.57	4.50543
3086.85	3.56521
3088.13	3.16541
3089.41	2.21406
3090.68	1.93582
3091.96	1.34295
3093.24	0.8395
3094.52	0.299413
3095.79	0.121427
3097.07	0.355056
3098.35	-0.227421
3099.62	0.0950467
3100.9	0.483955
3102.18	0.897842
3103.45	0.856488
3104.73	1.13816
3106	0.672584
3107.28	1.08313
3108.55	1.3632
3109.83	2.43808
3111.1	3.45343
3112.38	4.61198
3113.65	5.26626
3114.93	6.8634
3116.2	7.53622
3117.47	8.16195
3118.75	9.26643
3120.02	10.054
3121.29	10.842
3122.57	12.0594
3123.84	12.5889
3125.11	13.668
3126.38	13.9134
3127.65	15.4125
3128.92	16.9912
3130.2	18.073
3131.47	19.4849
3132.74	20.5131
3134.01	21.393
3135.28	22.246
3136.55	23.0197
3137.82	24.272
3139.09	25.5729
3140.36	26.1746
3141.63	26.7113
3142.9	27.339
3144.17	28.1304
3145.43	28.6838
3146.7	29.4951
3147.97	31.0365
3149.24	32.1778
