#Acq. time (s)=	45
#Accumulations=	2
#Range (cm-¹)=	200...3150
#Windows=	2
#Auto scanning=	Off
#Autofocus=	Off
#Macrospot=	Off
#AutoExposure=	Off
#Spike filter=	Multiple accum.
#Delay time (s)=	0
#Binning=	1
#Readout mode=	Signal
#DeNoise=	Off
#ICS correction=	On
#Dark correction=	Off
#Inst. Process=	Off
#Detector Gain=	Best Dynamic Range
#Detector ADC=	20 kHz       
#Detector temperature (°C)=	-70.31
#Instrument=	LabRAM HR Evol
#Detector=	Synapse
#Objective=	x100
#Grating=	600 gr/mm
#ND Filter=	100%
#Laser (nm)=	532 
#Hole=	100.021
#Range=	Auto
#Laser Pol.=	No
#Raman. Pol.=	No
#Laser Pol. (°)=	-0.0007625
#Raman Pol. (°)=	89.9995
#Collection=	Microscope
#StageXY=	Marzhauser
#StageZ=	Marzhauser
#X (µm)=	-2481.5
#Y (µm)=	-112.4
#Z (µm)=	-10.05
#Full time(mm:ss)=	3:08
#Project=	
#Sample=	
#Site=	
#Title=	Mb_40_24_28_2x_45s_532 nm_x100_100%_600 gr_mm
#Remark=	
#Date=	14.07.2022 12:46
#Acquired=	14.07.2022 12:46:49
#Base:Fit=	10.08.2022 10:47:00
#Base:Sub=	10.08.2022 10:47:12
#Filter:Polynom=	16.08.2022 10:11:48
#AxisType[0]=Intens
#AxisUnit[0]=Cnt
#AxisType[1]=Spectr
#AxisUnit[1]=1/cm
200.554	19.2717
202.369	21.1008
204.183	19.5826
205.999	19.5425
207.813	19.4099
209.626	19.4343
211.439	19.3831
213.253	19.1408
215.065	18.6151
216.877	17.9165
218.688	17.0066
220.5	15.3043
222.312	14.3076
224.123	12.8955
225.933	12.6958
227.742	12.0732
229.552	12.0094
231.361	11.7129
233.171	11.1552
234.98	10.2594
236.787	9.58967
238.595	9.43154
240.402	9.77903
242.209	9.33248
244.015	8.8803
245.822	8.80753
247.627	7.62705
249.435	6.33063
251.24	5.85754
253.045	6.3725
254.849	5.73934
256.653	6.45304
258.457	7.2774
260.26	6.25377
262.063	6.34134
263.866	6.12879
265.668	6.43848
267.47	5.28222
269.271	5.48148
271.073	6.25083
272.873	6.71426
274.674	6.22404
276.474	5.29494
278.274	4.34119
280.073	4.041
281.872	5.16298
283.671	5.95414
285.47	5.06213
287.268	4.93217
289.065	5.04025
290.863	5.6754
292.66	5.17477
294.456	6.86855
296.253	6.87261
298.049	6.68403
299.844	7.42948
301.637	7.14741
303.432	6.24561
305.227	6.91176
307.021	6.7956
308.815	6.6041
310.609	7.20804
312.402	7.51377
314.195	8.05704
315.987	8.87084
317.777	7.94113
319.569	8.36453
321.36	8.35841
323.151	8.67116
324.942	8.95253
326.733	8.51293
328.521	10.3482
330.31	10.6407
332.1	10.7426
333.889	11.6218
335.677	12.8227
337.464	12.6712
339.252	12.365
341.039	12.8766
342.826	11.6972
344.611	11.2
346.398	11.7095
348.184	11.4221
349.97	10.9466
351.754	11.4989
353.539	10.8532
355.324	10.5936
357.106	9.68882
358.89	9.83583
360.674	9.57695
362.455	8.91802
364.239	8.91555
366.021	7.95602
367.804	7.42333
369.584	8.43267
371.366	8.27607
373.145	6.85455
374.926	5.20317
376.707	6.58221
378.485	6.73391
380.265	6.51006
382.045	5.89452
383.822	6.02785
385.601	5.00119
387.378	4.88882
389.156	5.87164
390.934	4.61519
392.71	4.27722
394.487	4.58198
396.262	3.35504
398.038	3.64005
399.813	3.53386
401.588	2.26798
403.362	2.01588
405.137	1.64144
406.912	1.19076
408.685	2.42185
410.459	2.41586
412.23	2.14103
414.004	1.53178
415.775	1.61581
417.548	2.09953
419.318	1.46352
421.089	1.85471
422.86	2.44244
424.63	1.93781
426.401	0.161925
428.17	-0.131004
429.94	0.196193
431.708	0.410651
433.478	1.33342
435.245	2.07077
437.012	1.87904
438.781	1.69996
440.547	1.3785
442.315	1.33667
444.081	1.88268
445.846	2.14805
447.613	2.0521
449.378	2.95019
451.142	3.25228
452.908	3.62558
454.672	3.98249
456.435	4.16889
458.2	4.93763
459.963	4.22939
461.725	5.48687
463.489	6.62186
465.251	7.76025
467.012	6.96655
468.775	7.01609
470.536	8.22485
472.296	8.84974
474.056	9.82278
475.817	10.5775
477.576	10.1734
479.335	10.9002
481.094	10.8975
482.854	11.587
484.612	12.6884
486.37	14.0139
488.127	14.7171
489.886	15.8509
491.642	17.1891
493.398	18.7763
495.154	19.7653
496.91	19.7906
498.667	20.2111
500.422	20.6884
502.176	22.0106
503.93	22.7381
505.684	22.9729
507.438	24.7191
509.191	25.5491
510.946	26.2049
512.698	26.2639
514.45	26.1893
516.202	27.536
517.954	27.519
519.705	28.2413
521.456	28.1854
523.206	28.5318
524.956	28.3687
526.706	28.0398
528.456	28.0269
530.207	27.345
531.956	27.709
533.704	26.8233
535.452	26.3606
537.2	27.2875
538.947	26.2181
540.694	25.8629
542.441	25.0516
544.188	23.488
545.934	23.8974
547.68	23.1612
549.425	23.3662
551.17	21.824
552.915	21.1718
554.659	20.7653
556.403	20.0859
558.145	19.0498
559.889	17.5397
561.632	16.75
563.375	15.8015
565.117	14.5975
566.859	14.7561
568.601	13.1692
570.342	13.4226
572.083	13.3047
573.824	12.8787
575.565	12.176
577.303	10.5891
579.043	9.4528
580.782	8.36832
582.521	7.84511
584.26	7.03242
585.998	6.62382
587.734	7.07655
589.472	6.93475
591.21	5.39231
592.947	5.00333
594.684	5.77332
596.418	6.34675
598.154	6.6738
599.89	6.93071
601.626	7.7138
603.361	8.46095
605.094	8.55089
606.828	8.87387
608.562	9.22949
610.296	9.12812
612.027	9.11448
613.761	8.16636
615.493	8.48262
617.224	8.90501
618.956	9.50186
620.688	9.76515
622.419	10.3921
624.149	11.8307
625.879	12.4154
627.61	13.7342
629.338	14.7224
631.068	14.9546
632.797	17.0937
634.525	16.8817
636.254	17.0511
637.98	18.0364
639.708	18.2132
641.436	18.6441
643.162	18.0371
644.889	17.731
646.614	18.3806
648.34	18.1372
650.067	18.427
651.791	18.2377
653.516	18.8417
655.239	17.9377
656.964	17.1294
658.687	16.4419
660.411	16.4241
662.133	16.7175
663.857	16.8167
665.58	17.6846
667.301	18.4351
669.024	19.0615
670.744	18.8338
672.464	18.9156
674.186	21.4581
675.905	21.8009
677.626	22.611
679.345	25.0191
681.065	27.7029
682.783	29.1467
684.503	30.0772
686.22	30.6587
687.939	30.7974
689.656	30.7956
691.372	31.3062
693.09	32.5811
694.806	33.5189
696.523	33.8255
698.239	34.4671
699.953	35.6974
701.67	37.4642
703.384	38.504
705.098	39.213
706.813	40.512
708.526	41.1408
710.239	41.9594
711.954	42.253
713.666	42.7381
715.378	43.1934
717.091	43.376
718.802	45.14
720.513	45.1137
722.226	46.0413
723.936	46.0029
725.646	44.6571
727.355	44.5052
729.067	43.6794
730.776	43.91
732.484	44.882
734.192	43.4672
735.902	43.7235
737.61	44.1446
739.317	43.5576
741.024	42.924
742.731	43.3068
744.439	45.1218
746.145	46.9921
747.851	47.9441
749.556	49.1093
751.262	49.9304
752.966	50.9122
754.673	52.9187
756.377	54.7626
758.081	57.5739
759.784	60.6585
761.487	62.3924
763.19	64.515
764.892	66.405
766.594	67.7632
768.296	67.7839
770	68.8686
771.701	70.142
773.402	71.4859
775.102	72.96
776.803	74.944
778.503	77.4572
780.202	78.4084
781.901	79.1304
783.6	80.3852
785.299	81.9302
786.997	82.675
788.695	84.0358
790.393	84.2297
792.09	85.3959
793.787	85.4266
795.484	85.4055
797.18	86.4671
798.877	87.5154
800.572	87.6871
802.268	87.3957
803.963	88.0585
805.658	86.3196
807.35	85.3247
809.044	84.6911
810.738	85.0323
812.432	84.3762
814.125	84.2028
815.818	83.3418
817.51	83.0956
819.202	82.4735
820.894	83.235
822.584	82.1814
824.275	80.5393
825.966	81.1118
827.657	81.2104
829.347	82.1296
831.037	81.6394
832.725	81.4055
834.414	81.2116
836.103	80.1142
837.792	80.2004
839.481	80.1768
841.167	79.5352
842.854	79.4904
844.542	78.3831
846.229	77.4873
847.914	76.5559
849.6	74.9031
851.287	73.948
852.973	72.5548
854.656	72.681
856.341	70.6521
858.026	70.265
859.711	68.3119
861.393	68.9983
863.077	68.1217
864.761	67.2622
866.442	66.255
868.125	66.5206
869.808	65.975
871.489	65.3245
873.171	64.2465
874.85	62.5355
876.532	61.9527
878.213	61.0076
879.892	61.2384
881.572	63.0961
883.251	63.2273
884.931	62.204
886.61	61.5338
888.287	62.0278
889.966	60.9798
891.643	61.1316
893.321	61.2984
894.997	60.0508
896.675	59.2007
898.352	60.3784
900.028	60.1582
901.704	59.6433
903.379	59.3189
905.055	59.3232
906.729	58.9562
908.404	59.3031
910.077	59.7583
911.75	58.8077
913.425	59.0949
915.097	57.786
916.771	57.6584
918.443	56.8574
920.116	56.2772
921.787	56.4743
923.46	55.5192
925.13	55.1191
926.8	53.7144
928.472	52.6886
930.141	52.811
931.813	51.623
933.481	49.9505
935.15	48.1091
936.82	47.7712
938.488	47.4877
940.156	46.3469
941.825	45.7725
943.492	43.7293
945.158	43.1913
946.827	41.4188
948.493	41.0293
950.158	40.6163
951.824	40.2805
953.491	39.7542
955.156	39.5396
956.82	39.568
958.486	39.3872
960.15	39.5362
961.814	39.7638
963.477	40.2706
965.142	40.3611
966.804	38.9239
968.467	39.3204
970.129	39.9516
971.79	40.6592
973.454	40.2685
975.115	39.894
976.776	41.0385
978.436	41.8988
980.096	43.4168
981.756	44.0583
983.417	43.5711
985.077	43.6119
986.736	44.7971
988.394	45.5754
990.052	45.622
991.71	46.044
993.368	46.4253
995.025	46.0494
996.682	47.0762
998.341	46.3155
999.998	46.3254
1001.65	47.3046
1003.31	48.3469
1004.97	48.6772
1006.62	48.8891
1008.28	49.0321
1009.93	49.916
1011.58	50.9086
1013.24	52.2855
1014.89	52.7819
1016.54	53.3589
1018.2	55.4201
1019.85	56.8423
1021.5	57.4516
1023.16	57.3315
1024.81	57.1818
1026.46	57.4503
1028.11	58.2123
1029.76	58.676
1031.41	60.3604
1033.06	61.4098
1034.71	62.6597
1036.36	62.7043
1038.01	62.3476
1039.66	61.9819
1041.31	61.4012
1042.95	61.3545
1044.6	61.2688
1046.25	61.6475
1047.9	60.926
1049.54	61.1829
1051.19	60.9487
1052.84	59.95
1054.48	59.2396
1056.13	58.9652
1057.77	58.7287
1059.42	58.9572
1061.06	58.2488
1062.71	57.5744
1064.35	56.3986
1066	55.0365
1067.64	54.1194
1069.28	53.1384
1070.93	51.3321
1072.57	49.4772
1074.21	48.166
1075.85	45.8142
1077.49	42.9706
1079.13	42.4758
1080.78	40.2859
1082.42	39.5138
1084.06	38.9144
1085.7	37.5637
1087.34	35.9662
1088.97	35.2608
1090.61	33.6736
1092.25	33.6592
1093.89	32.649
1095.53	32.4865
1097.17	31.8812
1098.8	31.0365
1100.44	30.5152
1102.08	29.1981
1103.71	28.4508
1105.35	27.2619
1106.99	26.3896
1108.62	25.3044
1110.26	25.1031
1111.89	24.3007
1113.52	24.8611
1115.16	24.0339
1116.79	24.0285
1118.43	22.0276
1120.06	21.171
1121.69	20.346
1123.32	19.5313
1124.96	18.4079
1126.59	17.9058
1128.22	18.3794
1129.85	17.3636
1131.48	16.6575
1133.11	16.1984
1134.75	16.253
1136.37	16.1619
1138	15.9399
1139.63	15.2363
1141.26	13.9219
1142.89	13.4205
1144.52	13.2832
1146.15	12.2355
1147.78	11.4038
1149.4	10.9362
1151.03	9.44536
1152.66	8.17787
1154.28	7.76098
1155.91	6.14686
1157.54	4.35206
1159.16	3.99227
1160.79	4.78682
1162.41	3.56586
1164.04	3.08245
1165.66	2.4613
1167.29	1.71867
1168.91	1.13874
1170.53	0.665863
1172.16	0.0175435
1173.78	0.667387
1175.4	1.09314
1177.02	2.20323
1178.65	2.32425
1180.27	2.15012
1181.89	1.63624
1183.51	1.95223
1185.13	2.43263
1186.75	3.0018
1188.37	3.66866
1189.99	4.17924
1191.61	5.13446
1193.23	5.61244
1194.85	5.73272
1196.47	6.11773
1198.08	6.52819
1199.7	6.09177
1201.32	6.53495
1202.94	7.46682
1204.55	8.66215
1206.17	9.94968
1207.79	11.0684
1209.4	12.2388
1211.02	13.3858
1212.63	14.555
1214.25	16.2969
1215.86	17.7893
1217.48	21.0755
1219.09	22.8657
1220.71	24.4332
1222.32	25.6898
1223.93	28.4394
1225.54	30.9991
1227.16	32.4017
1228.77	34.5971
1230.38	36.6088
1231.99	38.6878
1233.6	40.9064
1235.22	42.8934
1236.83	44.3603
1238.44	47.2404
1240.05	49.4547
1241.66	51.4038
1243.26	52.9769
1244.87	55.7456
1246.48	57.1626
1248.09	58.6798
1249.7	60.3487
1251.31	61.1021
1252.92	63.4434
1254.52	65.6802
1256.13	66.6656
1257.74	68.1332
1259.34	68.0755
1260.95	68.8661
1262.55	70.5184
1264.16	72.4258
1265.76	74.8798
1267.37	75.9044
1268.97	77.8978
1270.58	79.0798
1272.18	79.9685
1273.78	80.1418
1275.39	80.6858
1276.99	82.0927
1278.59	82.6584
1280.2	83.7502
1281.8	85.2893
1283.4	85.8234
1285	85.5141
1286.6	85.4526
1288.2	85.2594
1289.8	86.2487
1291.4	86.6008
1293	85.7329
1294.6	86.1496
1296.2	87.0429
1297.8	87.9295
1299.4	86.3404
1301	86.0826
1302.6	86.1913
1304.19	86.4265
1305.79	86.1863
1307.39	84.8217
1308.99	84.4938
1310.58	84.1792
1312.18	84.1909
1313.77	84.0338
1315.37	84.3299
1316.96	83.537
1318.56	83.1813
1320.15	82.1902
1321.75	81.2484
1323.34	79.987
1324.94	77.897
1326.53	74.5018
1328.12	73.1383
1329.72	70.9104
1331.31	70.2683
1332.9	69.4152
1334.49	68.3477
1336.08	66.8194
1337.67	65.5932
1339.27	64.3361
1340.86	63.8585
1342.45	63.07
1344.04	61.5531
1345.63	60.2012
1347.22	57.4301
1348.8	56.0031
1350.39	54.2315
1351.98	51.8712
1353.57	50.6371
1355.16	48.9185
1356.75	47.3895
1358.33	44.5935
1359.92	43.0775
1361.51	41.3163
1363.09	39.351
1364.68	38.2562
1366.27	37.2258
1367.85	36.5864
1369.44	36.0488
1371.02	34.934
1372.61	34.7913
1374.19	35.1768
1375.77	35.2876
1377.36	34.932
1378.94	34.5958
1380.52	34.897
1382.11	35.1292
1383.69	35.107
1385.27	35.6726
1386.85	36.533
1388.43	38.5524
1390.02	39.9738
1391.6	40.6609
1393.18	40.9376
1394.76	41.1269
1396.34	40.7387
1397.92	41.2632
1399.5	40.9601
1401.08	41.915
1402.65	42.1437
1404.23	43.3884
1405.81	44.379
1407.39	46.4709
1408.97	47.0923
1410.54	49.5493
1412.12	51.2502
1413.7	53.359
1415.27	55.0616
1416.85	57.19
1418.43	60.0768
1420	62.1821
1421.58	64.6147
1423.15	67.8627
1424.73	70.7246
1426.3	73.6586
1427.87	77.664
1429.45	80.8243
1431.02	83.4788
1432.6	86.1608
1434.17	88.1233
1435.74	90.9221
1437.31	92.8214
1438.89	95.939
1440.46	97.8641
1442.03	100.219
1443.6	100.823
1445.17	101.882
1446.74	102.439
1448.31	102.268
1449.88	101.5
1451.45	101.24
1453.02	99.8783
1454.59	98.5945
1456.16	97.0675
1457.72	95.3846
1459.29	92.9406
1460.86	90.7143
1462.43	87.1907
1463.99	84.9476
1465.56	82.066
1467.13	77.6909
1468.69	73.2102
1470.26	68.9482
1471.83	65.2987
1473.39	61.6271
1474.95	57.372
1476.52	53.4356
1478.08	48.9702
1479.65	45.2481
1481.21	41.1625
1482.78	37.6302
1484.34	33.6084
1485.9	30.5528
1487.47	27.3104
1489.03	25.2012
1490.59	22.8911
1492.15	20.5548
1493.71	18.7448
1495.27	17.6264
1496.84	15.6725
1498.39	14.8318
1499.96	14.3962
1501.52	13.7708
1503.07	13.2828
1504.64	13.2662
1506.19	13.4121
1507.75	13.6084
1509.31	12.7527
1510.87	11.8303
1512.43	11.9919
1513.98	11.6655
1515.54	11.2531
1517.1	11.0792
1518.65	11.0962
1520.21	11.0153
1521.77	10.0883
1523.32	10.4265
1524.88	10.2779
1526.44	10.1588
1527.99	10.2628
1529.54	10.8981
1531.1	10.7586
1532.65	11.1206
1534.21	11.9958
1535.76	12.449
1537.31	13.3272
1538.87	13.6788
1540.42	14.6417
1541.97	17.1451
1543.52	18.1962
1545.07	18.7073
1546.63	20.6869
1548.18	22.083
1549.73	23.2778
1551.28	24.5579
1552.83	25.6168
1554.38	26.5279
1555.93	28.4376
1557.48	29.768
1559.03	31.3583
1560.57	32.5753
1562.12	34.7986
1563.67	34.6467
1565.22	35.9454
1566.77	37.0695
1568.31	38.6907
1569.86	39.6413
1571.41	41.6291
1572.95	43.5152
1574.5	45.4029
1576.05	47.9508
1577.59	49.661
1579.14	51.67
1580.68	54.3862
1582.23	55.6239
1583.77	56.1147
1585.31	56.9238
1586.86	57.5369
1588.4	58.8601
1589.95	59.7747
1591.49	60.4409
1593.03	61.4665
1594.57	62.4594
1596.11	62.3909
1597.66	61.578
1599.2	61.1918
1600.74	62.2068
1602.28	62.5886
1603.82	62.2242
1605.36	63.094
1606.9	63.4439
1608.44	63.0801
1609.98	63.5641
1611.52	63.1203
1613.06	63.1387
1614.6	64.1217
1616.13	65.2851
1617.67	66.6884
1619.21	67.3709
1620.75	68.5262
1622.28	69.8102
1623.82	71.0871
1625.36	71.986
1626.89	73.2412
1628.43	74.3749
1629.96	75.6285
1631.5	76.8567
1633.04	79.1572
1634.57	79.9564
1636.11	81.7991
1637.64	83.6458
1639.17	85.1746
1640.71	85.6885
1642.24	89.248
1643.77	91.3271
1645.31	93.8519
1646.84	95.6242
1648.37	98.0873
1649.9	99.7663
1651.43	101.431
1652.96	102.176
1654.5	102.98
1656.03	104.61
1657.56	104.052
1659.09	103.485
1660.62	103.45
1662.15	103.599
1663.67	103.004
1665.2	102.153
1666.73	100.907
1668.26	99.3758
1669.79	97.1439
1671.32	94.7044
1672.84	90.7719
1674.37	88.469
1675.9	86.6245
1677.43	84.5521
1678.95	81.3444
1680.48	78.6017
1682	74.7414
1683.53	71.3683
1685.05	68.0234
1686.58	64.8825
1688.1	61.0764
1689.63	59.3074
1691.15	55.8474
1692.68	52.4584
1694.2	48.3355
1695.72	45.8361
1697.25	42.9174
1698.77	39.6814
1700.29	36.7307
1701.81	33.832
1703.33	31.5975
1704.86	29.6136
1706.38	27.7793
1707.9	26.1045
1709.42	24.8098
1710.94	22.9619
1712.46	22.2865
1713.98	21.1134
1715.5	20.0688
1717.02	19.4022
1718.54	18.8668
1720.06	17.5742
1721.57	16.6558
1723.09	15.6396
1724.61	15.0222
1726.13	14.2025
1727.64	12.8456
1729.16	12.5666
1730.68	11.7108
1732.19	11.921
1733.71	11.0082
1735.23	11.6879
1736.74	11.8887
1738.26	11.7285
1739.77	11.6104
1741.29	12.0577
1742.8	11.6846
1744.31	10.9073
1745.83	10.6795
1747.34	10.4899
1748.85	10.1178
1750.37	10.4269
1751.88	11.0566
1753.39	11.1655
1754.91	11.0656
1756.42	10.7224
1757.93	9.68685
1759.44	10.5312
1760.95	9.85319
1762.46	8.70337
1763.97	7.82199
1765.48	7.59532
1766.99	6.38246
1768.5	6.26697
1770.01	5.97646
1771.52	6.08655
1773.03	5.41024
1774.54	5.59641
1776.04	4.99733
1777.55	4.75737
1779.06	4.29615
1780.57	4.09367
1782.07	4.07239
1783.58	4.19204
1785.09	3.8334
1786.59	3.35846
1788.1	3.74836
1789.6	3.15214
1791.11	2.99357
1792.61	2.85197
1794.12	2.73051
1795.62	2.43912
1797.13	2.32869
1798.63	2.10166
1800.13	2.05658
1801.64	2.22147
1803.14	1.90918
1804.64	2.22961
1806.15	1.89485
1807.65	2.67624
1809.15	2.34496
1810.65	2.71544
1812.15	2.7405
1813.65	2.46355
1815.16	2.1924
1816.66	2.40486
1818.15	2.20055
1819.66	2.3422
1821.16	2.27618
1822.65	2.55117
1824.15	2.49537
1825.65	2.36892
1827.15	2.70593
1828.65	3.1052
1830.15	2.98542
1831.64	3.02212
1833.14	2.96118
1834.64	3.12419
1836.14	3.25107
1837.63	3.15683
1839.13	2.90969
1840.62	2.9059
1842.12	2.9659
1843.62	3.04981
1845.11	3.35825
1846.61	3.51122
1848.1	3.19641
1849.6	3.24488
1851.09	2.89019
1852.58	3.31223
1854.08	3.34308
1855.57	4.18722
1857.06	4.47478
1858.55	4.51751
1860.05	4.84669
1861.54	5.17428
1863.03	6.55395
1864.52	6.57363
1866.01	6.59818
1867.5	6.38256
1869	6.25994
1870.49	5.3398
1871.98	5.12741
1873.47	4.41098
1874.96	4.78364
1876.44	4.59287
1877.93	4.13885
1879.42	4.49497
1880.91	4.42983
1882.4	4.23592
1882.47	4.07624
1883.96	4.15637
1885.46	3.36781
1886.95	3.4114
1888.44	3.63916
1889.94	3.66774
1891.43	3.20414
1892.93	3.54685
1894.42	3.73224
1895.91	4.06801
1897.4	4.45726
1898.89	4.83853
1900.39	4.77547
1901.88	4.62972
1903.37	3.72199
1904.86	3.34569
1906.35	3.34481
1907.84	3.53083
1909.33	3.52993
1910.82	3.27169
1912.31	3.60545
1913.8	4.30961
1915.29	4.73152
1916.77	5.2002
1918.26	5.04284
1919.75	5.25416
1921.24	5.30457
1922.73	6.06082
1924.21	6.6908
1925.7	7.92199
1927.19	8.38057
1928.67	8.56534
1930.16	8.54006
1931.64	8.79238
1933.13	9.05472
1934.61	9.51539
1936.1	9.76731
1937.58	8.9858
1939.07	8.85527
1940.55	8.72341
1942.04	9.17817
1943.52	9.20924
1945	10.0054
1946.49	11.0852
1947.97	11.7891
1949.45	11.938
1950.93	11.9311
1952.42	12.0446
1953.9	11.2086
1955.38	10.9769
1956.86	10.7669
1958.34	10.5757
1959.82	10.7445
1961.3	11.1461
1962.78	10.8687
1964.26	10.7389
1965.74	11.562
1967.22	11.9296
1968.7	11.5759
1970.18	11.3925
1971.65	11.3415
1973.13	10.9659
1974.61	10.3729
1976.09	10.522
1977.57	10.5863
1979.04	11.0841
1980.52	11.6155
1982	12.2611
1983.47	12.5667
1984.95	12.6744
1986.42	12.8243
1987.9	12.4803
1989.37	12.4837
1990.85	12.5666
1992.32	12.6715
1993.8	13.6497
1995.27	13.9613
1996.75	14.4305
1998.22	14.8484
1999.69	15.4346
2001.17	15.3708
2002.64	16.0344
2004.11	16.1141
2005.58	16.5044
2007.05	17.2533
2008.53	17.9363
2010	17.7487
2011.47	17.787
2012.94	18.2135
2014.41	18.3076
2015.88	18.0681
2017.35	17.9056
2018.82	17.8233
2020.29	17.9005
2021.76	17.4891
2023.23	17.4858
2024.7	17.2111
2026.16	17.411
2027.63	16.9772
2029.1	16.9469
2030.57	16.9948
2032.03	16.6383
2033.5	16.1961
2034.97	15.5319
2036.44	15.6099
2037.9	15.8327
2039.37	15.501
2040.83	15.0665
2042.3	15.5623
2043.76	16.2105
2045.23	16.4191
2046.69	16.122
2048.16	16.999
2049.62	17.4609
2051.08	17.5321
2052.55	18.6483
2054.01	19.5819
2055.47	20.2543
2056.94	20.538
2058.4	20.3355
2059.86	21.2166
2061.32	21.5124
2062.79	22.0018
2064.25	22.9068
2065.71	23.6865
2067.17	24.2189
2068.63	24.6861
2070.09	25.4306
2071.55	26.4608
2073.01	27.4593
2074.47	27.761
2075.93	28.3537
2077.39	28.7453
2078.85	29.8695
2080.31	30.5839
2081.76	31.0505
2083.22	31.596
2084.68	32.045
2086.13	33.0303
2087.59	33.4017
2089.05	34.3166
2090.51	35.4088
2091.96	37.0044
2093.42	38.5189
2094.87	39.9201
2096.33	40.7323
2097.78	42.194
2099.24	42.8369
2100.69	42.9811
2102.15	43.6709
2103.6	44.8638
2105.06	45.8382
2106.51	47.189
2107.96	48.6407
2109.42	50.2593
2110.87	51.8982
2112.32	53.5378
2113.77	54.7012
2115.23	56.7663
2116.68	57.9147
2118.13	59.7192
2119.58	61.0995
2121.03	63.8094
2122.48	64.8374
2123.93	66.7824
2125.38	68.4689
2126.83	69.6531
2128.28	71.0352
2129.73	72.5068
2131.18	72.9353
2132.63	74.7488
2134.08	76.2915
2135.53	78.9022
2136.97	80.8831
2138.42	82.1194
2139.87	84.2997
2141.32	86.1085
2142.76	88.4506
2144.21	91.1398
2145.66	93.5341
2147.1	95.2904
2148.55	97.2914
2150	99.5627
2151.44	101.474
2152.89	103.425
2154.33	106.09
2155.78	107.672
2157.22	109.085
2158.66	111.237
2160.11	113.228
2161.55	114.987
2163	116.224
2164.44	117.179
2165.88	117.582
2167.32	117.805
2168.77	118.474
2170.21	119.273
2171.65	119.058
2173.09	119.496
2174.53	119.648
2175.97	120.201
2177.41	119.551
2178.85	118.935
2180.29	117.915
2181.73	117.068
2183.17	115.801
2184.61	113.499
2186.05	112.449
2187.49	111.888
2188.93	110.149
2190.37	108.41
2191.81	106
2193.24	103.966
2194.68	101.335
2196.12	99.0409
2197.56	96.8252
2198.99	94.8994
2200.43	92.2911
2201.87	89.5945
2203.3	87.6307
2204.74	85.7038
2206.17	83.8339
2207.61	81.6027
2209.04	79.1912
2210.48	77.3045
2211.91	75.7617
2213.35	73.7695
2214.78	72.2069
2216.21	70.3987
2217.65	68.1593
2219.08	66.3744
2220.51	64.1551
2221.95	62.3593
2223.38	60.9007
2224.81	59.6867
2226.24	57.774
2227.67	55.1773
2229.1	53.9356
2230.54	52.4693
2231.97	50.9605
2233.4	49.4259
2234.83	47.9287
2236.26	47.0521
2237.69	45.8276
2239.11	45.1303
2240.54	45.2298
2241.97	43.9878
2243.4	42.1597
2244.83	40.7152
2246.26	39.4551
2247.69	38.4977
2249.11	37.0737
2250.54	36.1752
2251.97	35.044
2253.4	34.5993
2254.82	33.5824
2256.25	33.2345
2257.67	33.5891
2259.1	32.7161
2260.53	31.7806
2261.95	30.5249
2263.38	29.9376
2264.8	29.3695
2266.23	29.3473
2267.65	28.6725
2269.07	28.2031
2270.5	27.5574
2271.92	26.5513
2273.34	26.5301
2274.77	25.6853
2276.19	24.5071
2277.61	24.7378
2279.03	24.4299
2280.46	24.293
2281.88	24.2552
2283.3	24.1902
2284.72	23.2777
2286.14	22.8561
2287.56	21.9953
2288.98	21.1607
2290.4	20.3684
2291.82	19.3261
2293.24	18.8518
2294.66	18.7955
2296.08	18.1384
2297.5	17.7357
2298.92	18.2895
2300.34	18.4518
2301.76	18.8236
2303.17	19.3118
2304.59	19.2601
2306.01	18.8636
2307.43	18.7046
2308.84	17.9787
2310.26	18.1387
2311.68	17.8515
2313.09	17.4195
2314.51	16.8063
2315.92	16.3168
2317.34	16.5381
2318.75	16.5042
2320.17	16.2844
2321.58	15.5089
2323	15.1667
2324.41	14.687
2325.82	14.3592
2327.24	13.7541
2328.65	13.6905
2330.06	13.0476
2331.48	12.6627
2332.89	12.328
2334.3	12.3204
2335.71	11.5261
2337.12	10.5604
2338.54	9.28695
2339.95	8.73203
2341.36	7.8032
2342.77	7.60124
2344.18	7.13971
2345.59	6.81037
2347	7.22606
2348.41	6.90388
2349.82	6.65298
2351.23	6.65167
2352.64	7.09858
2354.04	6.22125
2355.45	4.73927
2356.86	4.74086
2358.27	4.52847
2359.68	4.59144
2361.08	4.20551
2362.49	4.4005
2363.9	5.07569
2365.3	5.98652
2366.71	6.10021
2368.12	6.43908
2369.52	6.41688
2370.93	6.15532
2372.33	6.79466
2373.74	6.18722
2375.14	6.3172
2376.55	6.44427
2377.95	7.03837
2379.36	7.35643
2380.76	7.60641
2382.16	7.97032
2383.57	7.74827
2384.97	7.02908
2386.37	6.77714
2387.78	6.86341
2389.18	6.83006
2390.58	5.86771
2391.98	5.88474
2393.38	5.75576
2394.79	5.34139
2396.19	5.17621
2397.59	4.96366
2398.99	5.51124
2400.39	5.11787
2401.79	5.0814
2403.19	5.08959
2404.59	4.76024
2405.99	3.8351
2407.39	3.81497
2408.78	4.11326
2410.18	4.84864
2411.58	4.64351
2412.98	5.25587
2414.38	4.64487
2415.77	5.50934
2417.17	6.24796
2418.57	6.2242
2419.97	6.20797
2421.36	5.98021
2422.76	5.93177
2424.15	5.4295
2425.55	5.13993
2426.95	5.33334
2428.34	4.9362
2429.74	4.33667
2431.13	3.60886
2432.52	3.72245
2433.92	3.18167
2435.31	2.4379
2436.71	1.7081
2438.1	1.6228
2439.49	2.50372
2440.89	2.84998
2442.28	2.76071
2443.67	2.49163
2445.06	2.68623
2446.46	2.71436
2447.85	3.15119
2449.24	3.1288
2450.63	3.25994
2452.02	2.7409
2453.41	2.58622
2454.8	3.0711
2456.19	2.70884
2457.58	2.38114
2458.97	2.62458
2460.36	2.49135
2461.75	2.74309
2463.14	2.48728
2464.53	2.94802
2465.92	3.07642
2467.31	3.89264
2468.69	3.4833
2470.08	3.77421
2471.47	3.50933
2472.86	3.50817
2474.24	3.32753
2475.63	3.35747
2477.02	3.58119
2478.4	3.75824
2479.79	3.61743
2481.17	3.83183
2482.56	4.9924
2483.94	5.16587
2485.33	5.27906
2486.72	4.87452
2488.1	4.05416
2489.48	3.33371
2490.87	3.16006
2492.25	3.52776
2493.64	3.08691
2495.02	2.99234
2496.4	2.42766
2497.79	1.94598
2499.17	1.59669
2500.55	1.49897
2501.93	1.66769
2503.31	1.20288
2504.69	1.54203
2506.08	1.59124
2507.46	2.17675
2508.84	2.29324
2510.22	1.4932
2511.6	1.01301
2512.98	1.06631
2514.36	0.979711
2515.74	0.976251
2517.12	0.885565
2518.5	0.600772
2519.88	0.478052
2521.25	0.188821
2522.63	0.950511
2524.01	0.777237
2525.39	0.549655
2526.77	1.04288
2528.14	1.12275
2529.52	1.27585
2530.9	0.919564
2532.27	1.05128
2533.65	1.47189
2535.03	1.77259
2536.4	1.81164
2537.78	1.27728
2539.15	1.66216
2540.53	1.26099
2541.9	1.92938
2543.28	2.55284
2544.65	2.53418
2546.03	2.3459
2547.4	2.77859
2548.77	2.63854
2550.15	3.23885
2551.52	3.00053
2552.89	2.92899
2554.27	2.57316
2555.64	3.15
2557.01	2.76559
2558.38	2.5776
2559.75	2.82133
2561.12	3.20522
2562.5	3.14789
2563.87	2.83594
2565.24	2.46822
2566.61	2.50416
2567.98	2.01669
2569.35	1.84332
2570.72	1.21905
2572.09	1.24286
2573.46	1.41659
2574.83	1.28092
2576.19	1.49866
2577.56	1.00604
2578.93	0.875857
2580.3	0.447173
2581.67	0.147116
2583.04	0.188728
2584.4	0.0274089
2585.77	0.27796
2587.14	0.107472
2588.5	0.260385
2589.87	0.338543
2591.23	0.96688
2592.6	0.934894
2593.97	1.45529
2595.33	1.26275
2596.7	0.643188
2598.06	0.655807
2599.43	0.835378
2600.79	1.33841
2602.15	2.37837
2603.52	1.83499
2604.88	1.41749
2606.25	1.51922
2607.61	1.59784
2608.97	1.62336
2610.33	1.5875
2611.7	1.14496
2613.06	0.515673
2614.42	0.487895
2615.78	1.11809
2617.15	0.471923
2618.51	1.15977
2619.87	1.51522
2621.23	1.88315
2622.59	1.35266
2623.95	1.68742
2625.31	0.989682
2626.67	1.56258
2628.03	1.82238
2629.39	1.65198
2630.75	1.95392
2632.1	1.62503
2633.46	2.08635
2634.82	1.70549
2636.18	1.48149
2637.54	1.56984
2638.89	1.52402
2640.25	2.32131
2641.61	1.86187
2642.97	1.62993
2644.32	1.58442
2645.68	0.972836
2647.03	1.09952
2648.39	1.0406
2649.75	1.35162
2651.1	1.41879
2652.46	1.27111
2653.81	1.39244
2655.17	1.6058
2656.52	1.81325
2657.88	2.5416
2659.23	2.87033
2660.58	2.95227
2661.94	2.98833
2663.29	2.65842
2664.64	2.94073
2666	3.42417
2667.35	3.78073
2668.7	3.87049
2670.05	4.04574
2671.4	3.7335
2672.76	4.06517
2674.11	4.54941
2675.46	4.40973
2676.81	4.2951
2678.16	4.23884
2679.51	4.19837
2680.86	5.13742
2682.21	5.8732
2683.56	5.90155
2684.91	5.55779
2686.26	6.57196
2687.61	6.99828
2688.96	7.32853
2690.3	7.18899
2691.65	7.78241
2693	8.01024
2694.35	8.95765
2695.7	9.00132
2697.04	9.43991
2698.39	10.2395
2699.74	10.0547
2701.08	9.96338
2702.43	9.89715
2703.77	10.2684
2705.12	10.8006
2706.47	11.2544
2707.81	11.708
2709.16	11.5883
2710.5	11.8984
2711.85	11.9553
2713.19	11.9867
2714.53	12.2606
2715.88	11.7234
2717.22	11.4174
2718.57	10.8179
2719.91	11.0441
2721.25	10.6517
2722.59	10.8259
2723.94	10.8289
2725.28	10.67
2726.62	10.6183
2727.96	10.4339
2729.3	9.96356
2730.65	9.92187
2731.99	9.87261
2733.33	9.02828
2734.67	8.56525
2736.01	8.17329
2737.35	7.98519
2738.69	7.37219
2740.03	6.53131
2741.37	6.2337
2742.71	5.78618
2744.05	5.05546
2745.38	4.73147
2746.72	4.72891
2748.06	4.45773
2749.4	3.30494
2750.74	2.70434
2752.07	1.99748
2753.41	2.12091
2754.75	1.75361
2756.09	1.61613
2757.42	1.7296
2758.76	2.14303
2760.09	2.05998
2761.43	1.82148
2762.77	1.917
2764.1	2.15122
2765.44	2.03011
2766.77	2.06526
2768.11	1.99167
2769.44	2.34617
2770.77	2.5506
2772.11	2.43549
2773.44	1.86737
2774.77	1.62911
2776.11	1.1811
2777.44	1.02615
2778.77	0.916176
2780.11	1.16458
2781.44	1.72726
2782.77	2.10619
2784.1	2.18667
2785.43	3.14317
2786.77	3.739
2788.1	3.98172
2789.43	5.04507
2790.76	4.98438
2792.09	4.72282
2793.42	4.47447
2794.75	3.97471
2796.08	3.81846
2797.41	3.68786
2798.74	3.09322
2800.07	2.58033
2801.4	2.82591
2802.72	2.92764
2804.05	2.73564
2805.38	2.29825
2806.71	2.19366
2808.04	1.95194
2809.36	1.3281
2810.69	0.88134
2812.02	1.75064
2813.34	1.84038
2814.67	2.00345
2816	2.93966
2817.32	4.02943
2818.65	5.00886
2819.97	6.90727
2821.3	8.50823
2822.62	11.2059
2823.95	13.5154
2825.27	15.3377
2826.6	17.9459
2827.92	21.0301
2829.25	24.1011
2830.57	27.155
2831.89	30.5597
2833.22	34.108
2834.54	37.1996
2835.86	41.3885
2837.18	45.6005
2838.51	49.0278
2839.83	53.3994
2841.15	58.9063
2842.47	63.7666
2843.79	69.4195
2845.11	74.8853
2846.43	80.4519
2847.76	85.9859
2849.08	91.1565
2850.4	96.08
2851.72	102.267
2853.04	106.979
2854.36	111.811
2855.67	116.521
2856.99	120.916
2858.31	125.405
2859.63	130.466
2860.95	134.663
2862.27	138.935
2863.58	142.925
2864.9	146.601
2866.22	150.451
2867.54	154.061
2868.85	156.782
2870.17	159.742
2871.49	162.235
2872.8	164.748
2874.12	167.543
2875.43	169.951
2876.75	173.539
2878.07	176.019
2879.38	178.481
2880.7	181.655
2882.01	184.299
2883.32	187.317
2884.64	191.212
2885.95	195.3
2887.27	198.879
2888.58	202.167
2889.89	205.425
2891.21	208.859
2892.52	212.59
2893.83	216.641
2895.14	221.036
2896.46	226.029
2897.77	230.906
2899.08	236.107
2900.39	241.075
2901.7	246.314
2903.01	251.72
2904.32	257.112
2905.63	263.843
2906.94	270.918
2908.25	277.739
2909.56	284.771
2910.87	292.199
2912.18	298.621
2913.49	305.763
2914.8	312.677
2916.11	319.621
2917.42	325.637
2918.72	331.717
2920.03	336.823
2921.34	342.43
2922.65	347.335
2923.95	351.086
2925.26	354.142
2926.57	355.994
2927.88	357.752
2929.18	358.158
2930.49	358.378
2931.79	357.79
2933.1	356.397
2934.4	354.034
2935.71	351.817
2937.01	348.878
2938.32	345.748
2939.62	342.812
2940.93	338.663
2942.23	334.981
2943.54	329.262
2944.84	324.307
2946.14	318.345
2947.45	312.351
2948.75	305.657
2950.05	298.95
2951.35	291.571
2952.66	283.765
2953.96	276
2955.26	268.783
2956.56	260.905
2957.86	253.695
2959.16	246.633
2960.46	239.26
2961.77	231.697
2963.07	224.516
2964.37	217.555
2965.66	210.737
2966.96	203.706
2968.26	197.261
2969.56	191.019
2970.86	185.332
2972.16	180.05
2973.46	174.922
2974.76	169.425
2976.06	164.724
2977.35	159.452
2978.65	154.729
2979.95	149.758
2981.25	144.694
2982.54	139.369
2983.84	135.127
2985.14	129.546
2986.43	125.082
2987.73	119.255
2989.02	113.22
2990.32	107.405
2991.62	102.051
2992.91	96.0227
2994.21	90.7466
2995.5	86.2918
2996.8	81.6452
2998.09	76.8362
2999.38	72.7856
3000.68	69.4775
3001.97	65.9082
3003.26	61.9877
3004.56	58.5849
3005.85	54.5561
3007.14	51.2342
3008.43	47.1895
3009.73	44.0818
3011.02	41.4346
3012.31	38.6117
3013.6	35.1877
3014.89	33.0843
3016.19	30.9021
3017.48	28.5848
3018.77	26.2852
3020.06	24.5301
3021.35	22.559
3022.64	20.8656
3023.93	19.515
3025.22	18.4858
3026.5	17.9381
3027.79	17.2015
3029.08	16.1459
3030.37	15.1277
3031.66	13.9331
3032.95	13.4089
3034.24	13.2751
3035.52	13.3843
3036.81	13.8011
3038.1	14.3254
3039.39	14.1566
3040.67	14.3819
3041.96	14.6114
3043.25	14.4725
3044.53	15.0177
3045.82	15.3283
3047.1	15.3102
3048.39	15.2169
3049.67	14.8351
3050.96	14.6503
3052.24	13.3867
3053.53	13.174
3054.81	12.8368
3056.1	12.4912
3057.38	12.1687
3058.67	11.8875
3059.95	11.6772
3061.23	11.3092
3062.52	10.3697
3063.8	10.4344
3065.08	10.0357
3066.36	9.68021
3067.65	9.49828
3068.93	8.86613
3070.21	8.86903
3071.49	8.39394
3072.77	7.8167
3074.05	7.8964
3075.33	7.57438
3076.61	6.43241
3077.89	6.20568
3079.17	6.02174
3080.45	5.69027
3081.73	5.30392
3083.01	5.08159
3084.29	4.43126
3085.57	3.86493
3086.85	3.62992
3088.13	3.51592
3089.41	2.5137
3090.68	2.1632
3091.96	1.62705
3093.24	0.880158
3094.52	0.395942
3095.79	0.868406
3097.07	0.856833
3098.35	1.45777
3099.62	1.71817
3100.9	2.16775
3102.18	2.20133
3103.45	2.27781
3104.73	2.6632
3106	3.13608
3107.28	3.33839
3108.55	4.05084
3109.83	3.96338
3111.1	3.88122
3112.38	4.42027
3113.65	4.96947
3114.93	5.59392
3116.2	5.46324
3117.47	5.8806
3118.75	5.88369
3120.02	6.26363
3121.29	6.60202
3122.57	6.69866
3123.84	7.27953
3125.11	7.73294
3126.38	8.08124
3127.65	9.1273
3128.92	9.89477
3130.2	10.5103
3131.47	10.8298
3132.74	10.9328
3134.01	11.8628
3135.28	11.8976
3136.55	12.298
3137.82	12.4222
3139.09	12.1489
3140.36	12.1777
3141.63	11.9919
3142.9	11.3967
3144.17	10.7209
3145.43	9.86664
3146.7	9.03884
3147.97	8.89047
3149.24	7.97927
