#Acq. time (s)=	45
#Accumulations=	2
#Range (cm-¹)=	200...3150
#Windows=	2
#Auto scanning=	Off
#Autofocus=	Off
#Macrospot=	Off
#AutoExposure=	Off
#Spike filter=	Multiple accum.
#Delay time (s)=	0
#Binning=	1
#Readout mode=	Signal
#DeNoise=	Off
#ICS correction=	On
#Dark correction=	Off
#Inst. Process=	Off
#Detector Gain=	Best Dynamic Range
#Detector ADC=	20 kHz       
#Detector temperature (°C)=	-70.08
#Instrument=	LabRAM HR Evol
#Detector=	Synapse
#Objective=	x100
#Grating=	600 gr/mm
#ND Filter=	100%
#Laser (nm)=	532 
#Hole=	100.021
#Range=	Auto
#Laser Pol.=	No
#Raman. Pol.=	No
#Laser Pol. (°)=	-0.0007625
#Raman Pol. (°)=	89.9995
#Collection=	Microscope
#StageXY=	Marzhauser
#StageZ=	Marzhauser
#X (µm)=	-2504.3
#Y (µm)=	-108.7
#Z (µm)=	-10.95
#Full time(mm:ss)=	3:18
#Project=	
#Sample=	
#Site=	
#Title=	Mb_40_24_26_2x_45s_532 nm_x100_100%_600 gr_mm
#Remark=	
#Date=	14.07.2022 12:38
#Acquired=	14.07.2022 12:38:26
#Base:Fit=	10.08.2022 10:47:00
#Base:Sub=	10.08.2022 10:47:12
#Filter:Polynom=	16.08.2022 10:11:48
#AxisType[0]=Intens
#AxisUnit[0]=Cnt
#AxisType[1]=Spectr
#AxisUnit[1]=1/cm
200.554	3.07341
202.369	3.92868
204.183	4.47942
205.999	3.88009
207.813	3.08604
209.626	2.85702
211.439	3.3646
213.253	3.5397
215.065	4.68173
216.877	4.78223
218.688	4.11742
220.5	3.52342
222.312	4.32302
224.123	4.36337
225.933	5.38617
227.742	6.47751
229.552	8.07199
231.361	8.49551
233.171	10.1535
234.98	11.7718
236.787	12.5297
238.595	11.79
240.402	13.1457
242.209	13.6466
244.015	13.9055
245.822	14.7809
247.627	15.3133
249.435	15.4386
251.24	16.006
253.045	16.6758
254.849	16.8795
256.653	17.3173
258.457	17.2926
260.26	18.9328
262.063	20.3835
263.866	21.6499
265.668	21.461
267.47	22.7165
269.271	23.5772
271.073	24.453
272.873	24.8588
274.674	25.6403
276.474	25.1305
278.274	23.9176
280.073	24.0738
281.872	22.8643
283.671	22.1452
285.47	22.7713
287.268	22.4891
289.065	22.4223
290.863	21.7139
292.66	21.5134
294.456	21.9912
296.253	22.7987
298.049	23.8873
299.844	23.22
301.637	23.0806
303.432	21.418
305.227	21.1713
307.021	20.3733
308.815	20.2934
310.609	20.5664
312.402	20.1868
314.195	19.4676
315.987	19.6004
317.777	19.6349
319.569	19.5285
321.36	19.4449
323.151	19.3865
324.942	19.1448
326.733	18.0552
328.521	17.6707
330.31	19.1725
332.1	20.0373
333.889	20.0604
335.677	20.5194
337.464	20.0088
339.252	20.625
341.039	20.8341
342.826	20.7117
344.611	19.9163
346.398	20.2223
348.184	20.4373
349.97	20.5294
351.754	20.3399
353.539	19.5069
355.324	19.3266
357.106	19.5932
358.89	18.1793
360.674	16.2517
362.455	14.3425
364.239	13.5491
366.021	12.3669
367.804	11.4826
369.584	12.1233
371.366	12.7646
373.145	12.9871
374.926	12.4211
376.707	13.4243
378.485	14.065
380.265	13.6755
382.045	13.3353
383.822	13.8651
385.601	14.4341
387.378	14.2819
389.156	13.1283
390.934	13.6937
392.71	14.3998
394.487	15.0574
396.262	15.4078
398.038	14.8978
399.813	14.628
401.588	14.1764
403.362	15.5153
405.137	16.4023
406.912	17.3224
408.685	17.9394
410.459	18.3693
412.23	17.9072
414.004	18.6409
415.775	18.8659
417.548	19.8463
419.318	20.9742
421.089	22.3017
422.86	21.7897
424.63	22.0809
426.401	21.7113
428.17	21.7785
429.94	21.0621
431.708	20.2752
433.478	19.1218
435.245	19.5745
437.012	18.673
438.781	18.3386
440.547	18.2228
442.315	16.1914
444.081	15.6698
445.846	14.232
447.613	12.9081
449.378	12.4236
451.142	12.1765
452.908	13.0446
454.672	13.8417
456.435	14
458.2	14.3984
459.963	14.6656
461.725	14.1482
463.489	14.0322
465.251	15.4463
467.012	14.6921
468.775	14.2893
470.536	15.0225
472.296	15.395
474.056	15.3266
475.817	15.2542
477.576	15.9309
479.335	16.7964
481.094	17.6047
482.854	17.1471
484.612	17.6133
486.37	17.7687
488.127	18.6681
489.886	19.0805
491.642	19.0086
493.398	18.9419
495.154	18.831
496.91	19.3289
498.667	19.8518
500.422	20.0803
502.176	21.6242
503.93	23.2002
505.684	24.2639
507.438	25.0137
509.191	25.5497
510.946	24.7722
512.698	24.2395
514.45	24.5431
516.202	23.6447
517.954	24.5926
519.705	24.5028
521.456	24.7906
523.206	24.8461
524.956	24.6417
526.706	24.2702
528.456	23.731
530.207	22.3271
531.956	22.4182
533.704	20.9125
535.452	20.9112
537.2	20.0729
538.947	20.5308
540.694	20.3476
542.441	19.7601
544.188	17.7496
545.934	17.4241
547.68	17.4133
549.425	17.1055
551.17	16.3169
552.915	15.4466
554.659	13.5658
556.403	12.7039
558.145	11.6331
559.889	10.8761
561.632	10.6665
563.375	10.3966
565.117	9.40072
566.859	8.89669
568.601	8.40631
570.342	7.08907
572.083	6.24084
573.824	5.00885
575.565	4.22406
577.303	4.28176
579.043	3.45345
580.782	3.89003
582.521	4.53114
584.26	4.03566
585.998	3.44706
587.734	3.24134
589.472	3.65236
591.21	2.93339
592.947	2.69787
594.684	1.33989
596.418	1.50074
598.154	1.53368
599.89	1.27817
601.626	1.65266
603.361	1.14676
605.094	2.18403
606.828	1.19416
608.562	0.710856
610.296	1.00224
612.027	0.797747
613.761	0.377061
615.493	0.180534
617.224	-0.177544
618.956	-0.366076
620.688	0.324943
622.419	1.3926
624.149	1.14044
625.879	1.73986
627.61	1.29435
629.338	1.16009
631.068	1.767
632.797	3.37188
634.525	3.90336
636.254	3.85134
637.98	3.32833
639.708	3.61828
641.436	4.65948
643.162	4.40646
644.889	4.68751
646.614	4.74314
648.34	4.44768
650.067	4.77416
651.791	5.42784
653.516	6.28694
655.239	6.18327
656.964	6.17935
658.687	7.25857
660.411	8.16105
662.133	9.86667
663.857	11.0843
665.58	10.8652
667.301	12.2037
669.024	12.8929
670.744	12.757
672.464	13.6528
674.186	15.1081
675.905	15.5773
677.626	16.5726
679.345	17.8299
681.065	17.715
682.783	19.7881
684.503	19.8608
686.22	19.7585
687.939	20.2844
689.656	20.0003
691.372	20.9379
693.09	21.2072
694.806	21.6024
696.523	22.529
698.239	22.5246
699.953	23.0717
701.67	22.762
703.384	22.8729
705.098	22.2172
706.813	23.1337
708.526	21.7827
710.239	21.1336
711.954	20.982
713.666	21.2334
715.378	21.2199
717.091	22.0214
718.802	21.5506
720.513	19.8526
722.226	19.718
723.936	19.829
725.646	19.8553
727.355	19.5026
729.067	18.6097
730.776	18.8594
732.484	18.9454
734.192	19.1075
735.902	19.3853
737.61	20.913
739.317	21.5123
741.024	22.6388
742.731	23.5963
744.439	24.1948
746.145	25.032
747.851	25.7404
749.556	27.3165
751.262	28.4957
752.966	30.1885
754.673	31.07
756.377	33.1462
758.081	34.2891
759.784	37.3637
761.487	38.6697
763.19	40.5818
764.892	41.8851
766.594	42.8237
768.296	44.3594
770	45.3664
771.701	46.8548
773.402	48.1801
775.102	50.0889
776.803	52.0859
778.503	51.9989
780.202	54.141
781.901	55.3116
783.6	55.8571
785.299	57.1736
786.997	57.611
788.695	58.5105
790.393	58.2711
792.09	58.9219
793.787	57.5988
795.484	58.8531
797.18	59.2234
798.877	59.181
800.572	58.1618
802.268	58.7823
803.963	58.6555
805.658	58.5593
807.35	59.4773
809.044	59.368
810.738	58.3467
812.432	58.1162
814.125	58.588
815.818	59.3337
817.51	60.0681
819.202	60.6134
820.894	61.1098
822.584	62.6727
824.275	62.7268
825.966	62.4272
827.657	60.785
829.347	59.9373
831.037	60.3249
832.725	59.7133
834.414	59.8722
836.103	58.8737
837.792	58.2494
839.481	57.8594
841.167	57.7608
842.854	56.6422
844.542	56.5053
846.229	54.8919
847.914	53.874
849.6	53.5238
851.287	52.5312
852.973	52.0184
854.656	51.5266
856.341	50.1713
858.026	49.3958
859.711	49.1077
861.393	48.1328
863.077	48.1134
864.761	49.3057
866.442	48.5377
868.125	49.1527
869.808	48.6666
871.489	47.1021
873.171	46.6039
874.85	44.9476
876.532	45.1688
878.213	44.4448
879.892	44.7718
881.572	43.2459
883.251	43.1486
884.931	43.1721
886.61	44.3528
888.287	44.4567
889.966	44.6928
891.643	45.0853
893.321	45.3436
894.997	45.7445
896.675	46.1483
898.352	47.2677
900.028	48.3013
901.704	48.0026
903.379	47.4323
905.055	47.2985
906.729	47.0323
908.404	45.8305
910.077	44.9362
911.75	44.1477
913.425	44.1546
915.097	44.7393
916.771	44.2051
918.443	43.3605
920.116	42.721
921.787	42.2322
923.46	42.9705
925.13	42.366
926.8	42.0586
928.472	41.7528
930.141	41.357
931.813	40.6208
933.481	39.789
935.15	38.2493
936.82	37.5841
938.488	36.6747
940.156	35.4522
941.825	35.3057
943.492	35.1551
945.158	35.2938
946.827	35.9766
948.493	35.0454
950.158	34.7662
951.824	34.4941
953.491	32.4683
955.156	31.4956
956.82	30.2116
958.486	29.5656
960.15	28.9752
961.814	27.8777
963.477	27.2066
965.142	26.1876
966.804	26.8201
968.467	26.5057
970.129	27.2021
971.79	26.2686
973.454	25.3668
975.115	25.6226
976.776	26.0339
978.436	26.3234
980.096	25.7774
981.756	26.6912
983.417	27.0172
985.077	25.0253
986.736	24.775
988.394	24.6322
990.052	23.9203
991.71	24.6966
993.368	25.2022
995.025	25.0841
996.682	25.2378
998.341	25.6827
999.998	24.7
1001.65	24.7166
1003.31	24.9836
1004.97	24.3421
1006.62	24.8657
1008.28	24.5653
1009.93	25.3734
1011.58	24.8624
1013.24	25.4975
1014.89	24.8938
1016.54	24.4825
1018.2	25.1787
1019.85	25.5237
1021.5	25.5313
1023.16	26.5821
1024.81	28.354
1026.46	30.2727
1028.11	32.1755
1029.76	33.495
1031.41	33.9486
1033.06	35.4448
1034.71	35.1993
1036.36	35.1466
1038.01	36.226
1039.66	37.4879
1041.31	39.2148
1042.95	39.6397
1044.6	41.7054
1046.25	43.0029
1047.9	43.3911
1049.54	45.0376
1051.19	45.5268
1052.84	45.5048
1054.48	45.9984
1056.13	46.1221
1057.77	46.8937
1059.42	45.1619
1061.06	44.3149
1062.71	43.1328
1064.35	42.1818
1066	41.2099
1067.64	39.2426
1069.28	39.071
1070.93	38.4786
1072.57	38.5576
1074.21	37.9339
1075.85	36.0778
1077.49	34.6822
1079.13	32.7265
1080.78	30.3627
1082.42	28.4708
1084.06	27.3999
1085.7	25.0031
1087.34	23.0094
1088.97	22.8851
1090.61	21.262
1092.25	20.5118
1093.89	20.1838
1095.53	20.3003
1097.17	19.4076
1098.8	19.2636
1100.44	19.401
1102.08	19.4191
1103.71	20.6073
1105.35	22.7641
1106.99	23.2434
1108.62	23.7209
1110.26	23.6937
1111.89	24.0834
1113.52	24.0294
1115.16	23.9183
1116.79	23.445
1118.43	23.8311
1120.06	24.3486
1121.69	25.0768
1123.32	25.0209
1124.96	23.8453
1126.59	24.1952
1128.22	22.5294
1129.85	22.5061
1131.48	22.1524
1133.11	21.7291
1134.75	22.0705
1136.37	23.152
1138	22.6916
1139.63	22.2038
1141.26	21.9154
1142.89	22.27
1144.52	22.0397
1146.15	21.3552
1147.78	21.0014
1149.4	20.6428
1151.03	19.9298
1152.66	19.7505
1154.28	18.4624
1155.91	15.3565
1157.54	13.728
1159.16	12.4792
1160.79	11.4248
1162.41	10.4609
1164.04	9.47713
1165.66	7.53573
1167.29	6.37629
1168.91	6.53715
1170.53	7.23496
1172.16	7.76462
1173.78	9.10919
1175.4	9.45262
1177.02	8.61757
1178.65	7.97116
1180.27	6.85203
1181.89	7.08229
1183.51	7.47774
1185.13	7.53499
1186.75	7.79594
1188.37	7.08763
1189.99	7.34027
1191.61	7.41448
1193.23	7.035
1194.85	6.77656
1196.47	6.65744
1198.08	7.43888
1199.7	8.79185
1201.32	9.30444
1202.94	9.90907
1204.55	10.8391
1206.17	11.535
1207.79	13.479
1209.4	14.2053
1211.02	16.6146
1212.63	17.4989
1214.25	19.2226
1215.86	20.992
1217.48	22.43
1219.09	23.0213
1220.71	24.1206
1222.32	25.8008
1223.93	26.8208
1225.54	28.2624
1227.16	28.3441
1228.77	30.243
1230.38	31.1602
1231.99	31.1881
1233.6	31.722
1235.22	32.3552
1236.83	33.7329
1238.44	35.7934
1240.05	36.8166
1241.66	37.5777
1243.26	37.1037
1244.87	36.858
1246.48	38.9308
1248.09	41.0925
1249.7	41.5649
1251.31	40.9177
1252.92	40.5736
1254.52	40.4021
1256.13	39.5246
1257.74	40.2376
1259.34	41.771
1260.95	42.7808
1262.55	44.7742
1264.16	46.7233
1265.76	48.6081
1267.37	51.3227
1268.97	52.3899
1270.58	53.7484
1272.18	55.0522
1273.78	56.5614
1275.39	58.7388
1276.99	60.5942
1278.59	62.4822
1280.2	63.0781
1281.8	63.7776
1283.4	65.0035
1285	66.0035
1286.6	66.4763
1288.2	67.3761
1289.8	67.8181
1291.4	68.8261
1293	70.0746
1294.6	70.2937
1296.2	70.7778
1297.8	71.1074
1299.4	71.3146
1301	72.006
1302.6	71.4367
1304.19	70.3187
1305.79	69.5746
1307.39	69.066
1308.99	69.2324
1310.58	68.4055
1312.18	68.3773
1313.77	67.6132
1315.37	67.4096
1316.96	65.6873
1318.56	64.4509
1320.15	62.0336
1321.75	60.792
1323.34	59.2129
1324.94	58.2474
1326.53	57.5657
1328.12	55.2221
1329.72	53.2473
1331.31	51.9949
1332.9	52.385
1334.49	52.0022
1336.08	52.5251
1337.67	54.0093
1339.27	53.832
1340.86	54.3552
1342.45	55.442
1344.04	55.4501
1345.63	55.4358
1347.22	55.3128
1348.8	54.897
1350.39	55.3624
1351.98	55.2212
1353.57	55.2809
1355.16	54.7754
1356.75	54.3806
1358.33	53.3499
1359.92	52.145
1361.51	51.4439
1363.09	50.7682
1364.68	49.9817
1366.27	50.4698
1367.85	49.7464
1369.44	50.0638
1371.02	49.164
1372.61	48.815
1374.19	47.5886
1375.77	47.8964
1377.36	48.1158
1378.94	48.788
1380.52	48.5304
1382.11	48.2484
1383.69	47.5036
1385.27	47.2559
1386.85	47.588
1388.43	47.8558
1390.02	47.593
1391.6	47.9756
1393.18	47.5332
1394.76	47.0086
1396.34	46.592
1397.92	47.4209
1399.5	46.9186
1401.08	49.107
1402.65	52.1013
1404.23	53.69
1405.81	56.1135
1407.39	58.9479
1408.97	61.4803
1410.54	64.3867
1412.12	68.2984
1413.7	70.8364
1415.27	75.0714
1416.85	78.8304
1418.43	82.5896
1420	86.6546
1421.58	89.4755
1423.15	92.0881
1424.73	96.2455
1426.3	99.7607
1427.87	103.817
1429.45	106.9
1431.02	109.431
1432.6	112.683
1434.17	115.091
1435.74	117.398
1437.31	119.867
1438.89	122.466
1440.46	125.011
1442.03	127.274
1443.6	128.728
1445.17	130.055
1446.74	129.472
1448.31	130.353
1449.88	130.047
1451.45	129.973
1453.02	128.863
1454.59	127.587
1456.16	124.791
1457.72	121.956
1459.29	118.632
1460.86	114.634
1462.43	109.834
1463.99	106.644
1465.56	102.812
1467.13	98.7128
1468.69	93.9514
1470.26	89.5706
1471.83	83.5412
1473.39	79.0785
1474.95	76.0646
1476.52	72.5603
1478.08	69.02
1479.65	66.1631
1481.21	63.8724
1482.78	58.6465
1484.34	55.0114
1485.9	50.9251
1487.47	47.1987
1489.03	44.0981
1490.59	41.8154
1492.15	38.6542
1493.71	36.9594
1495.27	34.4129
1496.84	31.7453
1498.39	29.6539
1499.96	27.7251
1501.52	26.9062
1503.07	26.6215
1504.64	25.8732
1506.19	25.4088
1507.75	25.1672
1509.31	25.0805
1510.87	25.2449
1512.43	24.7113
1513.98	25.2544
1515.54	26.1006
1517.1	26.3687
1518.65	26.8536
1520.21	26.703
1521.77	26.9191
1523.32	26.9742
1524.88	27.4136
1526.44	28.2719
1527.99	28.8161
1529.54	27.9367
1531.1	27.9456
1532.65	28.3331
1534.21	28.1429
1535.76	28.3943
1537.31	28.4957
1538.87	28.3025
1540.42	28.5036
1541.97	28.8375
1543.52	28.3614
1545.07	28.3583
1546.63	29.1897
1548.18	29.9773
1549.73	30.6749
1551.28	32.488
1552.83	32.4591
1554.38	32.2719
1555.93	32.8395
1557.48	32.9638
1559.03	33.9161
1560.57	33.3648
1562.12	33.1436
1563.67	33.7532
1565.22	35.0652
1566.77	35.4692
1568.31	36.3196
1569.86	36.5351
1571.41	36.6654
1572.95	37.3234
1574.5	38.8109
1576.05	40.096
1577.59	41.5877
1579.14	41.8471
1580.68	43.0605
1582.23	43.7197
1583.77	44.6656
1585.31	46.0276
1586.86	45.7274
1588.4	46.1244
1589.95	47.1141
1591.49	47.9472
1593.03	48.7944
1594.57	49.6057
1596.11	50.8693
1597.66	50.5836
1599.2	51.3027
1600.74	52.3955
1602.28	52.4969
1603.82	52.9295
1605.36	53.6444
1606.9	53.6905
1608.44	54.4449
1609.98	54.7879
1611.52	54.9859
1613.06	55.2091
1614.6	55.8133
1616.13	55.6049
1617.67	55.5951
1619.21	56.5893
1620.75	57.3322
1622.28	57.7332
1623.82	59.5988
1625.36	59.258
1626.89	59.4187
1628.43	59.7782
1629.96	59.5649
1631.5	59.799
1633.04	59.9848
1634.57	59.8627
1636.11	60.6517
1637.64	60.879
1639.17	60.7136
1640.71	61.1413
1642.24	61.01
1643.77	60.1233
1645.31	60.2081
1646.84	60.0875
1648.37	60.356
1649.9	60.5813
1651.43	60.7299
1652.96	59.7402
1654.5	59.0987
1656.03	57.3916
1657.56	57.5766
1659.09	55.9739
1660.62	55.4148
1662.15	53.996
1663.67	52.1531
1665.2	51.8148
1666.73	50.7919
1668.26	49.6182
1669.79	48.9367
1671.32	47.9393
1672.84	46.6012
1674.37	44.5629
1675.9	43.4193
1677.43	42.459
1678.95	41.52
1680.48	41.1793
1682	40.4537
1683.53	39.0173
1685.05	38.0062
1686.58	35.9758
1688.1	35.2031
1689.63	33.7176
1691.15	32.9291
1692.68	31.8649
1694.2	31.1035
1695.72	30.6802
1697.25	29.7895
1698.77	29.5294
1700.29	28.9265
1701.81	27.5225
1703.33	26.6539
1704.86	25.956
1706.38	24.3357
1707.9	24.0663
1709.42	24.3894
1710.94	24.4272
1712.46	24.0248
1713.98	23.5983
1715.5	22.303
1717.02	21.7698
1718.54	20.9577
1720.06	20.488
1721.57	20.1039
1723.09	19.1209
1724.61	18.6019
1726.13	17.9422
1727.64	17.3755
1729.16	16.3682
1730.68	15.8341
1732.19	14.9314
1733.71	14.2164
1735.23	13.8562
1736.74	13.0875
1738.26	11.8302
1739.77	11.6198
1741.29	11.7778
1742.8	11.1916
1744.31	11.4058
1745.83	11.1487
1747.34	10.4628
1748.85	10.1905
1750.37	10.0448
1751.88	10.3824
1753.39	11.1531
1754.91	10.9197
1756.42	9.77939
1757.93	9.43952
1759.44	8.95058
1760.95	9.25005
1762.46	8.43201
1763.97	9.22602
1765.48	9.06504
1766.99	9.3289
1768.5	9.53587
1770.01	9.11944
1771.52	9.11452
1773.03	9.16566
1774.54	8.89483
1776.04	8.2774
1777.55	8.40403
1779.06	8.05997
1780.57	8.20438
1782.07	8.55884
1783.58	9.20797
1785.09	8.94547
1786.59	8.06115
1788.1	7.66965
1789.6	7.10123
1791.11	6.20499
1792.61	6.22385
1794.12	5.78336
1795.62	5.36402
1797.13	5.3855
1798.63	5.2336
1800.13	5.06367
1801.64	5.76815
1803.14	5.92352
1804.64	5.70461
1806.15	5.41578
1807.65	4.95315
1809.15	5.01245
1810.65	5.22666
1812.15	4.61815
1813.65	4.81571
1815.16	5.09905
1816.66	5.10722
1818.15	4.50894
1819.66	4.0098
1821.16	3.28827
1822.65	3.44747
1824.15	3.83742
1825.65	3.75852
1827.15	3.34319
1828.65	3.484
1830.15	3.34148
1831.64	3.05878
1833.14	3.25496
1834.64	2.77539
1836.14	2.44289
1837.63	2.19602
1839.13	2.37717
1840.62	2.28524
1842.12	2.55846
1843.62	2.20211
1845.11	1.5642
1846.61	1.38039
1848.1	1.51783
1849.6	1.99042
1851.09	1.23251
1852.58	0.815627
1854.08	0.978957
1855.57	0.793424
1857.06	1.03101
1858.55	1.29026
1860.05	1.64315
1861.54	1.77438
1863.03	2.35274
1864.52	1.78481
1866.01	2.08188
1867.5	2.57033
1869	3.17916
1870.49	3.91256
1871.98	5.00123
1873.47	4.91067
1874.96	5.22513
1876.44	5.87158
1877.93	5.77804
1879.42	5.52692
1880.91	5.71232
1882.4	5.41199
1882.47	5.35578
1883.96	5.24952
1885.46	4.86659
1886.95	5.10293
1888.44	4.61716
1889.94	4.40827
1891.43	4.02636
1892.93	3.57332
1894.42	3.69118
1895.91	3.85105
1897.4	3.26515
1898.89	3.40956
1900.39	3.20161
1901.88	3.79561
1903.37	3.22947
1904.86	2.75624
1906.35	3.42279
1907.84	3.36042
1909.33	3.23509
1910.82	3.86445
1912.31	4.26396
1913.8	4.2159
1915.29	4.27634
1916.77	4.11241
1918.26	4.32926
1919.75	4.9317
1921.24	5.89123
1922.73	6.1915
1924.21	5.0709
1925.7	5.47789
1927.19	5.87341
1928.67	5.49122
1930.16	5.90052
1931.64	6.0379
1933.13	5.71828
1934.61	5.50489
1936.1	4.90997
1937.58	4.311
1939.07	5.22131
1940.55	5.51831
1942.04	5.43719
1943.52	5.42638
1945	5.00902
1946.49	4.45164
1947.97	4.04536
1949.45	4.36075
1950.93	4.56362
1952.42	3.65414
1953.9	3.65465
1955.38	2.71645
1956.86	2.80736
1958.34	2.8097
1959.82	2.19708
1961.3	1.58534
1962.78	1.23451
1964.26	0.654169
1965.74	0.0435752
1967.22	0.162445
1968.7	-0.0256386
1970.18	-0.125877
1971.65	-0.434826
1973.13	0.158973
1974.61	-0.0749186
1976.09	-0.0975581
1977.57	-0.698856
1979.04	-0.306317
1980.52	0.180583
1982	0.103289
1983.47	0.380815
1984.95	1.00231
1986.42	1.00891
1987.9	0.892797
1989.37	0.97628
1990.85	0.934564
1992.32	1.42811
1993.8	1.78968
1995.27	1.22188
1996.75	0.0955141
1998.22	0.312775
1999.69	0.255296
2001.17	0.846568
2002.64	1.09768
2004.11	0.986693
2005.58	0.835347
2007.05	0.792317
2008.53	0.201048
2010	0.160762
2011.47	0.678986
2012.94	1.11039
2014.41	0.636627
2015.88	0.92294
2017.35	1.46931
2018.82	1.36549
2020.29	1.43121
2021.76	1.437
2023.23	1.78214
2024.7	1.57557
2026.16	0.646215
2027.63	0.98515
2029.1	0.369909
2030.57	0.41894
2032.03	0.569725
2033.5	0.449372
2034.97	1.27018
2036.44	1.74813
2037.9	1.40873
2039.37	1.99372
2040.83	2.13287
2042.3	1.63226
2043.76	2.08642
2045.23	2.30636
2046.69	2.83819
2048.16	3.12696
2049.62	3.50615
2051.08	3.75952
2052.55	3.94869
2054.01	4.22118
2055.47	4.80438
2056.94	4.96422
2058.4	5.47503
2059.86	5.40018
2061.32	5.70512
2062.79	5.6566
2064.25	6.56143
2065.71	7.1549
2067.17	7.23657
2068.63	7.16178
2070.09	7.75026
2071.55	8.23131
2073.01	8.89774
2074.47	9.67772
2075.93	9.58958
2077.39	9.31757
2078.85	10.0189
2080.31	9.89176
2081.76	10.2534
2083.22	10.4992
2084.68	10.5946
2086.13	9.78804
2087.59	9.87956
2089.05	10.1283
2090.51	9.97817
2091.96	9.99835
2093.42	10.4554
2094.87	10.9583
2096.33	11.8047
2097.78	12.7322
2099.24	13.2372
2100.69	14.4655
2102.15	15.3864
2103.6	16.7646
2105.06	18.7621
2106.51	19.2094
2107.96	20.1991
2109.42	20.5472
2110.87	20.8306
2112.32	21.5781
2113.77	22.233
2115.23	23.4468
2116.68	24.5241
2118.13	25.3937
2119.58	26.1039
2121.03	27.3913
2122.48	27.9029
2123.93	29.227
2125.38	30.5467
2126.83	31.8221
2128.28	32.9362
2129.73	34.1223
2131.18	35.7371
2132.63	36.0948
2134.08	37.7674
2135.53	38.9866
2136.97	40.0931
2138.42	41.4157
2139.87	42.9497
2141.32	43.6308
2142.76	45.2328
2144.21	46.0917
2145.66	47.302
2147.1	47.0263
2148.55	47.7757
2150	48.5339
2151.44	49.0291
2152.89	49.2731
2154.33	50.0441
2155.78	50.2577
2157.22	51.5138
2158.66	51.73
2160.11	53.1337
2161.55	53.9508
2163	54.5174
2164.44	54.9303
2165.88	55.6592
2167.32	56.6407
2168.77	56.9585
2170.21	57.4952
2171.65	57.3066
2173.09	57.2527
2174.53	56.5403
2175.97	55.5834
2177.41	54.763
2178.85	53.5111
2180.29	52.7035
2181.73	51.7687
2183.17	50.3094
2184.61	49.7347
2186.05	48.8934
2187.49	48.229
2188.93	47.3521
2190.37	46.3799
2191.81	45.0857
2193.24	43.7928
2194.68	42.4441
2196.12	42.2496
2197.56	40.7767
2198.99	39.1476
2200.43	38.6705
2201.87	37.8564
2203.3	36.8138
2204.74	35.2278
2206.17	34.5625
2207.61	33.5118
2209.04	32.2281
2210.48	31.2599
2211.91	29.5216
2213.35	27.9347
2214.78	26.9186
2216.21	25.3526
2217.65	23.9839
2219.08	23.3504
2220.51	23.1265
2221.95	22.8437
2223.38	22.402
2224.81	22.6878
2226.24	21.9483
2227.67	21.3983
2229.1	20.5736
2230.54	19.3906
2231.97	19.0168
2233.4	18.8199
2234.83	18.4762
2236.26	18.4165
2237.69	18.6273
2239.11	17.65
2240.54	16.7932
2241.97	16.6667
2243.4	15.7378
2244.83	14.948
2246.26	13.9915
2247.69	13.6686
2249.11	13.7823
2250.54	13.2485
2251.97	13.3792
2253.4	12.9568
2254.82	12.2032
2256.25	12.0381
2257.67	11.4635
2259.1	10.8725
2260.53	10.8735
2261.95	10.2683
2263.38	10.0164
2264.8	10.0447
2266.23	10.0606
2267.65	10.287
2269.07	9.54661
2270.5	9.69204
2271.92	9.42314
2273.34	9.12294
2274.77	9.21734
2276.19	8.42025
2277.61	8.10692
2279.03	7.85416
2280.46	7.26068
2281.88	7.02193
2283.3	6.92151
2284.72	6.9669
2286.14	6.69679
2287.56	6.44914
2288.98	6.11685
2290.4	6.42797
2291.82	5.64302
2293.24	5.25881
2294.66	4.58678
2296.08	4.47809
2297.5	3.97779
2298.92	3.9775
2300.34	3.55335
2301.76	3.56803
2303.17	4.23614
2304.59	4.57526
2306.01	5.06082
2307.43	4.95555
2308.84	4.52971
2310.26	4.20422
2311.68	4.55281
2313.09	4.61089
2314.51	4.67804
2315.92	4.32164
2317.34	4.53242
2318.75	5.01994
2320.17	4.77483
2321.58	4.65334
2323	4.87901
2324.41	4.00129
2325.82	3.49182
2327.24	3.95459
2328.65	4.27323
2330.06	4.70953
2331.48	4.92342
2332.89	4.67558
2334.3	4.47697
2335.71	4.72135
2337.12	4.49945
2338.54	4.55957
2339.95	4.46644
2341.36	4.35645
2342.77	3.75398
2344.18	4.258
2345.59	3.71767
2347	3.36715
2348.41	4.00325
2349.82	4.18561
2351.23	3.96946
2352.64	3.60654
2354.04	3.04178
2355.45	2.18513
2356.86	1.33394
2358.27	0.732749
2359.68	0.614281
2361.08	0.693806
2362.49	1.28631
2363.9	1.30315
2365.3	1.31605
2366.71	1.92595
2368.12	1.58538
2369.52	1.31902
2370.93	1.35514
2372.33	1.82605
2373.74	2.97772
2375.14	2.83878
2376.55	2.78418
2377.95	2.465
2379.36	2.59721
2380.76	2.90194
2382.16	2.76485
2383.57	3.08375
2384.97	3.27832
2386.37	3.45949
2387.78	3.79302
2389.18	3.54657
2390.58	3.06607
2391.98	2.71616
2393.38	2.5728
2394.79	2.51451
2396.19	2.66261
2397.59	2.97044
2398.99	2.86892
2400.39	2.87357
2401.79	2.37143
2403.19	3.01524
2404.59	3.21922
2405.99	3.33758
2407.39	2.80411
2408.78	3.18299
2410.18	3.83504
2411.58	3.85168
2412.98	4.1376
2414.38	4.49667
2415.77	4.24088
2417.17	4.60398
2418.57	4.83483
2419.97	4.00556
2421.36	3.86992
2422.76	4.53429
2424.15	4.36671
2425.55	4.53584
2426.95	5.09981
2428.34	5.50021
2429.74	6.30249
2431.13	6.5202
2432.52	6.31522
2433.92	5.25363
2435.31	5.93344
2436.71	5.99593
2438.1	5.21251
2439.49	5.00574
2440.89	5.42919
2442.28	5.88292
2443.67	6.06807
2445.06	5.53699
2446.46	5.76891
2447.85	5.60872
2449.24	5.68795
2450.63	5.32147
2452.02	5.19283
2453.41	5.36262
2454.8	5.03784
2456.19	5.13782
2457.58	4.59352
2458.97	4.79611
2460.36	4.51634
2461.75	3.73803
2463.14	3.5446
2464.53	2.93438
2465.92	1.89346
2467.31	1.4546
2468.69	1.57574
2470.08	1.19924
2471.47	0.953608
2472.86	1.20598
2474.24	0.617997
2475.63	0.305922
2477.02	-0.404089
2478.4	-0.662855
2479.79	-1.0718
2481.17	-1.52112
2482.56	-1.89768
2483.94	-1.86189
2485.33	-1.51721
2486.72	-1.00371
2488.1	-0.748698
2489.48	-0.682763
2490.87	-0.0141297
2492.25	0.847684
2493.64	0.808724
2495.02	0.941611
2496.4	0.417688
2497.79	0.59208
2499.17	0.741952
2500.55	0.671925
2501.93	0.582368
2503.31	1.31997
2504.69	1.91146
2506.08	1.52169
2507.46	2.11436
2508.84	2.70084
2510.22	4.33182
2511.6	4.81011
2512.98	5.05707
2514.36	5.42386
2515.74	5.70796
2517.12	5.91516
2518.5	6.61941
2519.88	6.65768
2521.25	7.10925
2522.63	7.30108
2524.01	7.08892
2525.39	7.12762
2526.77	7.05257
2528.14	6.57829
2529.52	5.59758
2530.9	5.083
2532.27	4.97533
2533.65	4.72098
2535.03	4.15904
2536.4	4.28152
2537.78	4.48244
2539.15	4.38649
2540.53	4.68302
2541.9	4.24862
2543.28	4.88993
2544.65	4.83238
2546.03	4.56011
2547.4	5.09168
2548.77	5.69274
2550.15	6.05381
2551.52	7.24694
2552.89	8.11856
2554.27	8.54455
2555.64	8.80578
2557.01	9.35677
2558.38	9.98779
2559.75	10.1118
2561.12	10.6958
2562.5	10.6829
2563.87	10.3211
2565.24	10.2932
2566.61	11.3011
2567.98	11.6867
2569.35	12.2098
2570.72	12.4471
2572.09	13.0775
2573.46	13.0952
2574.83	13.6436
2576.19	14.1982
2577.56	14.6782
2578.93	15.0905
2580.3	14.9438
2581.67	15.0546
2583.04	15.1287
2584.4	15.2289
2585.77	15.4742
2587.14	15.6301
2588.5	15.8093
2589.87	14.5511
2591.23	14.7908
2592.6	14.0711
2593.97	13.5493
2595.33	13.4732
2596.7	12.6272
2598.06	12.4749
2599.43	12.0519
2600.79	12.1571
2602.15	12.0681
2603.52	11.7157
2604.88	11.5198
2606.25	11.6593
2607.61	11.9635
2608.97	12.0639
2610.33	12.0472
2611.7	12.3377
2613.06	11.4684
2614.42	11.8336
2615.78	12.1478
2617.15	12.8802
2618.51	13.3211
2619.87	13.7548
2621.23	12.8969
2622.59	12.9166
2623.95	13.1666
2625.31	13.1847
2626.67	12.6447
2628.03	12.185
2629.39	13.0852
2630.75	13.4311
2632.1	13.4651
2633.46	13.55
2634.82	13.7714
2636.18	13.9506
2637.54	13.9839
2638.89	14.414
2640.25	14.7331
2641.61	15.1729
2642.97	15.6373
2644.32	15.8964
2645.68	16.6288
2647.03	16.8386
2648.39	17.2935
2649.75	17.4414
2651.1	17.3821
2652.46	17.3113
2653.81	17.5291
2655.17	17.182
2656.52	16.7342
2657.88	15.9696
2659.23	16.9244
2660.58	16.5306
2661.94	16.3729
2663.29	16.7343
2664.64	16.6523
2666	17.2545
2667.35	17.3117
2668.7	17.1521
2670.05	16.7575
2671.4	16.405
2672.76	16.5502
2674.11	17.2831
2675.46	17.3328
2676.81	17.3125
2678.16	17.2257
2679.51	17.1192
2680.86	17.4589
2682.21	17.729
2683.56	18.0564
2684.91	18.4576
2686.26	18.3553
2687.61	18.5459
2688.96	18.8711
2690.3	19.8828
2691.65	20.5869
2693	21.0333
2694.35	21.9534
2695.7	22.8187
2697.04	23.8428
2698.39	24.2579
2699.74	24.6765
2701.08	25.2574
2702.43	25.5829
2703.77	26.3325
2705.12	27.5392
2706.47	28.846
2707.81	29.5921
2709.16	30.3561
2710.5	31.1111
2711.85	31.4628
2713.19	32.0272
2714.53	32.5892
2715.88	33.2124
2717.22	33.2866
2718.57	33.3338
2719.91	33.8764
2721.25	34.0442
2722.59	34.184
2723.94	33.9397
2725.28	34.1664
2726.62	34.0428
2727.96	33.9953
2729.3	33.3064
2730.65	33.5609
2731.99	33.1043
2733.33	32.1215
2734.67	30.9867
2736.01	30.423
2737.35	30.3635
2738.69	29.6172
2740.03	29.2538
2741.37	28.2519
2742.71	27.4714
2744.05	27.0266
2745.38	26.491
2746.72	25.7798
2748.06	24.83
2749.4	24.2326
2750.74	23.8113
2752.07	23.1447
2753.41	22.2982
2754.75	21.6595
2756.09	21.0191
2757.42	20.4981
2758.76	19.8255
2760.09	19.0898
2761.43	18.8629
2762.77	18.0151
2764.1	17.6895
2765.44	16.8484
2766.77	16.425
2768.11	15.6123
2769.44	14.955
2770.77	14.8733
2772.11	14.8135
2773.44	14.5264
2774.77	13.9778
2776.11	13.5775
2777.44	13.4343
2778.77	13.4906
2780.11	13.5508
2781.44	13.2
2782.77	12.7626
2784.1	12.6537
2785.43	12.5278
2786.77	12.6196
2788.1	12.5351
2789.43	12.6156
2790.76	12.1706
2792.09	12.5902
2793.42	12.2644
2794.75	12.5634
2796.08	12.5442
2797.41	12.6297
2798.74	12.2709
2800.07	12.2603
2801.4	12.337
2802.72	12.1489
2804.05	12.1575
2805.38	11.529
2806.71	10.9074
2808.04	10.1255
2809.36	9.27252
2810.69	8.33189
2812.02	7.952
2813.34	8.24957
2814.67	9.48211
2816	12.1742
2817.32	15.3693
2818.65	19.8672
2819.97	24.6849
2821.3	30.9558
2822.62	37.1335
2823.95	43.7393
2825.27	51.08
2826.6	58.393
2827.92	66.3441
2829.25	74.5496
2830.57	82.5452
2831.89	90.4902
2833.22	99.536
2834.54	107.751
2835.86	116.701
2837.18	125.352
2838.51	134.016
2839.83	142.706
2841.15	150.722
2842.47	158.534
2843.79	166.435
2845.11	173.515
2846.43	180.122
2847.76	186.153
2849.08	193.737
2850.4	201.043
2851.72	208.714
2853.04	217.127
2854.36	225.814
2855.67	235.139
2856.99	243.546
2858.31	252.109
2859.63	259.743
2860.95	266.997
2862.27	273.254
2863.58	278.515
2864.9	283.555
2866.22	287.51
2867.54	290.355
2868.85	293.438
2870.17	295.894
2871.49	297.47
2872.8	299.665
2874.12	301.621
2875.43	302.993
2876.75	305.547
2878.07	308.068
2879.38	311.832
2880.7	315.129
2882.01	318.421
2883.32	321.055
2884.64	323.458
2885.95	325.048
2887.27	326.607
2888.58	327.341
2889.89	328.187
2891.21	329.156
2892.52	329.315
2893.83	329.012
2895.14	327.936
2896.46	325.529
2897.77	323.639
2899.08	321.561
2900.39	319.331
2901.7	317.438
2903.01	314.782
2904.32	313.159
2905.63	310.798
2906.94	309.449
2908.25	307.711
2909.56	306.505
2910.87	305.619
2912.18	305.773
2913.49	306.836
2914.8	309.168
2916.11	311.56
2917.42	314.581
2918.72	316.307
2920.03	318.724
2921.34	320.003
2922.65	319.627
2923.95	319.715
2925.26	318.629
2926.57	317.495
2927.88	315.879
2929.18	314.084
2930.49	311.823
2931.79	309.032
2933.1	305.918
2934.4	302.663
2935.71	299.3
2937.01	295.179
2938.32	290.11
2939.62	284.871
2940.93	279.918
2942.23	275.235
2943.54	269.457
2944.84	264.656
2946.14	258.173
2947.45	251.591
2948.75	244.541
2950.05	237.76
2951.35	230.768
2952.66	223.892
2953.96	216.993
2955.26	209.969
2956.56	202.68
2957.86	194.973
2959.16	187.748
2960.46	180.501
2961.77	173.505
2963.07	167.469
2964.37	161.683
2965.66	156.272
2966.96	151.011
2968.26	146.127
2969.56	141.529
2970.86	136.942
2972.16	132.432
2973.46	127.265
2974.76	123.197
2976.06	119.254
2977.35	114.659
2978.65	110.869
2979.95	106.78
2981.25	102.763
2982.54	97.8736
2983.84	93.0516
2985.14	88.7172
2986.43	83.6933
2987.73	78.9334
2989.02	74.8571
2990.32	70.1813
2991.62	66.2811
2992.91	61.9205
2994.21	57.7624
2995.5	53.6655
2996.8	49.6396
2998.09	45.7598
2999.38	42.7865
3000.68	39.7538
3001.97	35.7145
3003.26	32.6249
3004.56	30.3161
3005.85	27.9372
3007.14	25.0528
3008.43	22.0632
3009.73	20.0288
3011.02	17.5918
3012.31	15.2252
3013.6	12.8446
3014.89	11.777
3016.19	10.3885
3017.48	8.92572
3018.77	7.68182
3020.06	6.1722
3021.35	4.64901
3022.64	3.90005
3023.93	2.8361
3025.22	1.90906
3026.5	1.80754
3027.79	1.56716
3029.08	1.28386
3030.37	1.64652
3031.66	1.65596
3032.95	1.39754
3034.24	1.05249
3035.52	1.50704
3036.81	1.1284
3038.1	1.50657
3039.39	1.82763
3040.67	1.79587
3041.96	1.52468
3043.25	2.25483
3044.53	2.24392
3045.82	2.04424
3047.1	1.72154
3048.39	1.63154
3049.67	1.27698
3050.96	1.23379
3052.24	1.23388
3053.53	1.74649
3054.81	1.52294
3056.1	1.43664
3057.38	1.20387
3058.67	1.8043
3059.95	2.4915
3061.23	2.77341
3062.52	3.12624
3063.8	3.66867
3065.08	3.02981
3066.36	2.91595
3067.65	3.0582
3068.93	2.60197
3070.21	2.82748
3071.49	2.22
3072.77	2.32334
3074.05	2.62132
3075.33	3.07349
3076.61	2.56334
3077.89	2.76026
3079.17	2.59461
3080.45	1.98753
3081.73	1.46979
3083.01	1.6036
3084.29	1.50599
3085.57	1.46249
3086.85	1.51414
3088.13	1.25519
3089.41	1.62746
3090.68	1.56663
3091.96	1.15109
3093.24	1.0636
3094.52	1.02657
3095.79	0.203996
3097.07	0.520187
3098.35	0.928585
3099.62	0.892095
3100.9	0.759153
3102.18	0.92622
3103.45	0.719027
3104.73	0.987739
3106	1.30173
3107.28	1.27488
3108.55	1.26894
3109.83	1.09797
3111.1	0.931906
3112.38	0.78116
3113.65	0.954491
3114.93	1.4386
3116.2	1.84416
3117.47	2.25353
3118.75	2.28359
3120.02	2.7451
3121.29	3.53982
3122.57	4.48936
3123.84	4.94451
3125.11	5.05894
3126.38	5.43961
3127.65	6.26227
3128.92	6.3471
3130.2	7.31147
3131.47	7.88631
3132.74	8.71482
3134.01	10.0359
3135.28	10.5577
3136.55	11.8804
3137.82	13.0161
3139.09	13.934
3140.36	14.3411
3141.63	15.3119
3142.9	16.0832
3144.17	17.0177
3145.43	17.7171
3146.7	18.0758
3147.97	19.0006
3149.24	20.5127
