#Acq. time (s)=	45
#Accumulations=	2
#Range (cm-¹)=	200...3150
#Windows=	2
#Auto scanning=	Off
#Autofocus=	Off
#Macrospot=	Off
#AutoExposure=	Off
#Spike filter=	Multiple accum.
#Delay time (s)=	0
#Binning=	1
#Readout mode=	Signal
#DeNoise=	Off
#ICS correction=	On
#Dark correction=	Off
#Inst. Process=	Off
#Detector Gain=	Best Dynamic Range
#Detector ADC=	20 kHz       
#Detector temperature (°C)=	-70.08
#Instrument=	LabRAM HR Evol
#Detector=	Synapse
#Objective=	x100
#Grating=	600 gr/mm
#ND Filter=	100%
#Laser (nm)=	532 
#Hole=	100.021
#Range=	Auto
#Laser Pol.=	No
#Raman. Pol.=	No
#Laser Pol. (°)=	-0.0007625
#Raman Pol. (°)=	89.9995
#Collection=	Microscope
#StageXY=	Marzhauser
#StageZ=	Marzhauser
#X (µm)=	-2469.5
#Y (µm)=	-41.1
#Z (µm)=	-10.1
#Full time(mm:ss)=	3:19
#Project=	
#Sample=	
#Site=	
#Title=	Mb_40_24_44_2x_45s_532 nm_x100_100%_600 gr_mm
#Remark=	
#Date=	14.07.2022 14:07
#Acquired=	14.07.2022 14:07:58
#Base:Fit=	10.08.2022 10:47:00
#Base:Sub=	10.08.2022 10:47:12
#Filter:Polynom=	16.08.2022 10:11:48
#AxisType[0]=Intens
#AxisUnit[0]=Cnt
#AxisType[1]=Spectr
#AxisUnit[1]=1/cm
200.554	17.9409
202.369	18.2487
204.183	18.6731
205.999	18.6571
207.813	18.5945
209.626	17.444
211.439	16.3213
213.253	15.0265
215.065	13.1299
216.877	11.6849
218.688	9.9069
220.5	8.89153
222.312	7.49965
224.123	8.8086
225.933	8.0911
227.742	9.10892
229.552	8.55243
231.361	8.2214
233.171	8.59907
234.98	9.03176
236.787	8.21902
238.595	7.27769
240.402	6.53587
242.209	6.92085
244.015	6.36468
245.822	6.68838
247.627	6.66172
249.435	7.08098
251.24	7.49672
253.045	7.85606
254.849	8.96747
256.653	9.84472
258.457	9.71393
260.26	9.93906
262.063	11.0978
263.866	13.0325
265.668	12.7482
267.47	12.9881
269.271	14.2859
271.073	15.1249
272.873	15.8165
274.674	15.8329
276.474	15.0154
278.274	14.6232
280.073	15.4495
281.872	15.5861
283.671	15.1598
285.47	15.5095
287.268	15.0368
289.065	13.9254
290.863	13.8656
292.66	12.6398
294.456	12.7229
296.253	11.1295
298.049	10.5853
299.844	10.218
301.637	11.1883
303.432	11.2134
305.227	11.1996
307.021	11.5897
308.815	12.1025
310.609	13.1007
312.402	14.548
314.195	15.0742
315.987	13.4226
317.777	13.4347
319.569	13.1537
321.36	12.7242
323.151	13.2795
324.942	13.2319
326.733	13.0634
328.521	12.3496
330.31	12.7965
332.1	13.4846
333.889	13.2579
335.677	14.1382
337.464	14.1941
339.252	14.7586
341.039	14.4766
342.826	14.5442
344.611	13.9811
346.398	14.6977
348.184	14.0524
349.97	13.5009
351.754	14.2325
353.539	14.4183
355.324	12.4962
357.106	12.4144
358.89	11.8308
360.674	10.6791
362.455	8.79099
364.239	8.76335
366.021	7.9873
367.804	7.59281
369.584	6.37611
371.366	5.48219
373.145	5.29646
374.926	4.84447
376.707	4.47657
378.485	4.20221
380.265	4.00834
382.045	4.54113
383.822	5.59397
385.601	4.55383
387.378	5.05752
389.156	5.37722
390.934	5.54526
392.71	5.67557
394.487	5.19269
396.262	5.27998
398.038	5.51997
399.813	5.26576
401.588	4.93663
403.362	4.36815
405.137	4.7291
406.912	5.58784
408.685	5.71161
410.459	5.42772
412.23	6.29214
414.004	6.3678
415.775	5.94071
417.548	4.67882
419.318	5.71738
421.089	5.29189
422.86	5.80176
424.63	5.46122
426.401	5.58593
428.17	4.92498
429.94	4.33481
431.708	4.45487
433.478	4.79365
435.245	5.27276
437.012	4.90237
438.781	5.50798
440.547	4.2028
442.315	4.09154
444.081	3.00495
445.846	2.73037
447.613	2.222
449.378	1.3035
451.142	1.59779
452.908	2.85122
454.672	1.41625
456.435	1.64299
458.2	2.61331
459.963	3.29028
461.725	4.33034
463.489	4.55459
465.251	5.06732
467.012	6.46602
468.775	7.15452
470.536	7.96387
472.296	7.97156
474.056	7.77224
475.817	8.3258
477.576	9.29985
479.335	9.3326
481.094	10.5399
482.854	10.7419
484.612	12.2602
486.37	12.7598
488.127	13.5581
489.886	14.354
491.642	15.1422
493.398	15.0368
495.154	15.748
496.91	16.0035
498.667	17.495
500.422	18.4683
502.176	19.8902
503.93	20.8329
505.684	21.5224
507.438	22.1068
509.191	22.716
510.946	23.7922
512.698	23.5246
514.45	24.3819
516.202	24.4544
517.954	25.7478
519.705	26.1888
521.456	27.4527
523.206	27.7453
524.956	28.0495
526.706	27.7394
528.456	27.5644
530.207	27.832
531.956	27.2978
533.704	27.1438
535.452	27.3341
537.2	26.6488
538.947	26.1151
540.694	25.5339
542.441	25.3695
544.188	26.2574
545.934	26.2538
547.68	26.3537
549.425	26.1555
551.17	25.1957
552.915	24.835
554.659	23.6459
556.403	22.4893
558.145	21.4739
559.889	20.1035
561.632	18.655
563.375	17.586
565.117	16.8833
566.859	16.2236
568.601	16.0526
570.342	14.5827
572.083	13.8621
573.824	12.0907
575.565	11.6248
577.303	10.584
579.043	10.3453
580.782	10.1632
582.521	9.50924
584.26	8.74572
585.998	8.25432
587.734	7.3289
589.472	6.66083
591.21	6.00304
592.947	4.69696
594.684	3.6163
596.418	4.37547
598.154	3.93953
599.89	2.84389
601.626	2.69577
603.361	3.24334
605.094	4.39053
606.828	4.86868
608.562	6.32092
610.296	6.02957
612.027	6.52439
613.761	6.5555
615.493	6.79132
617.224	6.18889
618.956	6.5558
620.688	7.13677
622.419	8.22709
624.149	8.4968
625.879	9.18851
627.61	9.80319
629.338	11.7504
631.068	12.206
632.797	12.8959
634.525	13.229
636.254	12.5156
637.98	13.1579
639.708	14.3146
641.436	14.5615
643.162	15.6835
644.889	15.5572
646.614	15.6305
648.34	16.1521
650.067	16.9115
651.791	18.601
653.516	18.91
655.239	19.534
656.964	19.2704
658.687	19.118
660.411	19.3129
662.133	19.2266
663.857	18.7255
665.58	18.7168
667.301	18.1112
669.024	17.1763
670.744	16.5787
672.464	15.2143
674.186	15.0769
675.905	14.8188
677.626	14.7057
679.345	14.4737
681.065	13.9401
682.783	14.0464
684.503	14.2689
686.22	14.0653
687.939	14.9307
689.656	16.1939
691.372	16.7892
693.09	15.8682
694.806	16.5418
696.523	16.9595
698.239	17.2279
699.953	16.9551
701.67	17.8634
703.384	17.5892
705.098	19.3615
706.813	20.4898
708.526	22.5191
710.239	23.808
711.954	24.6008
713.666	25.5196
715.378	27.1604
717.091	26.8384
718.802	28.015
720.513	28.0323
722.226	28.5255
723.936	29.545
725.646	30.881
727.355	30.9608
729.067	31.7104
730.776	32.4714
732.484	32.5277
734.192	33.161
735.902	33.2175
737.61	33.7838
739.317	34.7314
741.024	35.4669
742.731	35.9143
744.439	36.5143
746.145	37.54
747.851	38.2698
749.556	38.4519
751.262	38.8331
752.966	39.1922
754.673	39.7006
756.377	39.9776
758.081	41.5101
759.784	42.6981
761.487	42.9555
763.19	44.3729
764.892	45.8157
766.594	45.4675
768.296	47.1898
770	49.4578
771.701	50.4688
773.402	52.286
775.102	53.9254
776.803	55.2007
778.503	56.2782
780.202	58.6668
781.901	59.6488
783.6	60.2959
785.299	61.9176
786.997	63.77
788.695	64.1064
790.393	65.5851
792.09	65.6142
793.787	67.3424
795.484	67.2738
797.18	66.786
798.877	67.6955
800.572	67.8875
802.268	67.745
803.963	68.7952
805.658	68.8635
807.35	69.3755
809.044	69.345
810.738	69.8378
812.432	69.3614
814.125	69.5104
815.818	69.3112
817.51	67.8319
819.202	67.2967
820.894	68.0967
822.584	69.2455
824.275	69.4566
825.966	67.1045
827.657	66.102
829.347	65.4129
831.037	64.5278
832.725	64.1834
834.414	63.8998
836.103	64.7173
837.792	64.3232
839.481	64.9103
841.167	63.9477
842.854	63.2075
844.542	61.4873
846.229	60.68
847.914	60.4456
849.6	58.5911
851.287	56.9134
852.973	56.9361
854.656	55.0641
856.341	53.5323
858.026	51.9136
859.711	50.5397
861.393	49.47
863.077	47.9076
864.761	46.1305
866.442	45.2546
868.125	44.0252
869.808	42.6832
871.489	41.3211
873.171	39.4626
874.85	39.3769
876.532	39.3528
878.213	39.4291
879.892	38.9635
881.572	38.2374
883.251	37.9655
884.931	37.4127
886.61	37.5542
888.287	36.741
889.966	36.2136
891.643	35.4805
893.321	35.3263
894.997	35.823
896.675	36.1538
898.352	36.2468
900.028	35.2615
901.704	34.1318
903.379	35.0764
905.055	35.9024
906.729	35.5427
908.404	35.5307
910.077	35.5255
911.75	37.0159
913.425	38.14
915.097	38.4098
916.771	39.2291
918.443	39.2843
920.116	38.5664
921.787	37.8356
923.46	37.883
925.13	36.8204
926.8	35.9466
928.472	35.3881
930.141	34.2703
931.813	33.152
933.481	31.4714
935.15	32.2715
936.82	31.0823
938.488	30.0159
940.156	30.4914
941.825	30.0101
943.492	30.035
945.158	29.773
946.827	29.6258
948.493	30.0332
950.158	29.7315
951.824	28.4128
953.491	27.8935
955.156	27.8907
956.82	27.5918
958.486	26.7836
960.15	25.9787
961.814	25.0463
963.477	25.0466
965.142	23.979
966.804	24.1386
968.467	24.3396
970.129	24.1857
971.79	23.9752
973.454	24.3084
975.115	24.0082
976.776	23.6709
978.436	23.0111
980.096	22.5232
981.756	21.7122
983.417	20.7712
985.077	21.0987
986.736	21.397
988.394	21.6293
990.052	21.5435
991.71	21.4906
993.368	21.2888
995.025	20.7821
996.682	20.0351
998.341	19.0578
999.998	18.7304
1001.65	17.9018
1003.31	17.5812
1004.97	17.6019
1006.62	17.9286
1008.28	17.9281
1009.93	17.7762
1011.58	17.5399
1013.24	17.4212
1014.89	18.4194
1016.54	18.2376
1018.2	18.9263
1019.85	18.0155
1021.5	19.6312
1023.16	21.5081
1024.81	22.1193
1026.46	23.5482
1028.11	24.5546
1029.76	25.6931
1031.41	25.7619
1033.06	25.9432
1034.71	27.624
1036.36	28.9906
1038.01	29.4383
1039.66	29.7729
1041.31	30.0735
1042.95	30.549
1044.6	31.1166
1046.25	31.7125
1047.9	31.6414
1049.54	31.694
1051.19	31.5811
1052.84	30.6038
1054.48	30.0778
1056.13	28.9739
1057.77	29.0028
1059.42	28.2636
1061.06	28.2481
1062.71	27.9597
1064.35	27.6352
1066	26.7977
1067.64	25.9444
1069.28	25.328
1070.93	25.8064
1072.57	24.4263
1074.21	23.6549
1075.85	21.7381
1077.49	19.8491
1079.13	19.1293
1080.78	17.871
1082.42	17.0604
1084.06	16.6688
1085.7	16.3139
1087.34	15.6736
1088.97	15.2611
1090.61	13.9576
1092.25	13.0372
1093.89	12.3279
1095.53	12.4751
1097.17	11.9472
1098.8	12.1118
1100.44	12.5277
1102.08	13.3522
1103.71	14.3354
1105.35	14.422
1106.99	15.017
1108.62	15.5596
1110.26	15.2169
1111.89	15.6834
1113.52	14.7172
1115.16	15.9671
1116.79	16.2309
1118.43	15.3186
1120.06	14.7796
1121.69	14.3082
1123.32	14.5121
1124.96	13.9952
1126.59	14.63
1128.22	14.1328
1129.85	13.6918
1131.48	12.9566
1133.11	12.2926
1134.75	11.9135
1136.37	12.0078
1138	11.5806
1139.63	12.2982
1141.26	11.2241
1142.89	11.2134
1144.52	10.7194
1146.15	9.94357
1147.78	9.27629
1149.4	9.78097
1151.03	9.42803
1152.66	8.98495
1154.28	7.39399
1155.91	7.09501
1157.54	5.3831
1159.16	5.0995
1160.79	4.63241
1162.41	3.79781
1164.04	3.2767
1165.66	2.76584
1167.29	2.21806
1168.91	1.99794
1170.53	2.2054
1172.16	2.2042
1173.78	3.00806
1175.4	3.24937
1177.02	3.00512
1178.65	2.62501
1180.27	3.13445
1181.89	2.12593
1183.51	2.65708
1185.13	3.50274
1186.75	3.74231
1188.37	4.35567
1189.99	4.37173
1191.61	5.2159
1193.23	6.83919
1194.85	7.04056
1196.47	8.4819
1198.08	8.59776
1199.7	8.95154
1201.32	9.67449
1202.94	9.94492
1204.55	11.6636
1206.17	11.2816
1207.79	11.9258
1209.4	11.1621
1211.02	11.6607
1212.63	12.2699
1214.25	13.2459
1215.86	14.3323
1217.48	15.2411
1219.09	15.2941
1220.71	15.6144
1222.32	16.7078
1223.93	17.5856
1225.54	18.7073
1227.16	19.6023
1228.77	20.8446
1230.38	21.5836
1231.99	22.0022
1233.6	22.9101
1235.22	23.9505
1236.83	25.5796
1238.44	26.6542
1240.05	28.8599
1241.66	30.1219
1243.26	30.8974
1244.87	31.7407
1246.48	32.9193
1248.09	34.5052
1249.7	36.2144
1251.31	37.0281
1252.92	37.0437
1254.52	37.6238
1256.13	37.4924
1257.74	38.5265
1259.34	39.4628
1260.95	41.2522
1262.55	43.2636
1264.16	45.2375
1265.76	46.8486
1267.37	47.9346
1268.97	48.6505
1270.58	50.396
1272.18	51.1739
1273.78	51.4804
1275.39	52.3344
1276.99	53.7156
1278.59	54.4678
1280.2	55.543
1281.8	56.0437
1283.4	56.4034
1285	56.8273
1286.6	57.4747
1288.2	58.7641
1289.8	59.537
1291.4	61.0015
1293	60.8897
1294.6	60.6293
1296.2	60.7081
1297.8	59.9976
1299.4	59.4541
1301	60.6094
1302.6	61.4762
1304.19	60.6524
1305.79	61.0125
1307.39	60.6571
1308.99	60.6197
1310.58	61.0346
1312.18	61.3512
1313.77	60.7979
1315.37	61.3051
1316.96	60.4544
1318.56	59.4532
1320.15	57.7342
1321.75	56.5726
1323.34	54.9683
1324.94	54.0872
1326.53	52.9961
1328.12	52.366
1329.72	51.2351
1331.31	50.0859
1332.9	48.7572
1334.49	48.4955
1336.08	47.6394
1337.67	48.1767
1339.27	48.5181
1340.86	48.9636
1342.45	49.0402
1344.04	48.7321
1345.63	48.4902
1347.22	48.4499
1348.8	48.0581
1350.39	49.2715
1351.98	48.482
1353.57	48.496
1355.16	50.0256
1356.75	49.8546
1358.33	50.423
1359.92	50.6285
1361.51	50.8392
1363.09	50.9624
1364.68	52.1851
1366.27	53.251
1367.85	52.6855
1369.44	52.804
1371.02	52.5127
1372.61	51.8716
1374.19	51.7065
1375.77	51.3626
1377.36	50.0989
1378.94	51.3346
1380.52	52.4936
1382.11	52.3075
1383.69	52.1234
1385.27	52.1692
1386.85	52.3026
1388.43	52.3616
1390.02	52.7565
1391.6	52.3404
1393.18	51.851
1394.76	51.0739
1396.34	50.0584
1397.92	49.8393
1399.5	49.3845
1401.08	49.6276
1402.65	49.3818
1404.23	49.4272
1405.81	50.4772
1407.39	50.8227
1408.97	51.0234
1410.54	51.6423
1412.12	52.8295
1413.7	53.9287
1415.27	56.0059
1416.85	57.5363
1418.43	59.5798
1420	61.2047
1421.58	62.7944
1423.15	64.7064
1424.73	66.7318
1426.3	68.8095
1427.87	70.5135
1429.45	73.4192
1431.02	74.8036
1432.6	77.2903
1434.17	80.7963
1435.74	82.9937
1437.31	84.6971
1438.89	86.192
1440.46	88.154
1442.03	88.9651
1443.6	90.7332
1445.17	91.4113
1446.74	91.9842
1448.31	92.8635
1449.88	92.4829
1451.45	92.8617
1453.02	92.9815
1454.59	92.8325
1456.16	92.97
1457.72	93.5664
1459.29	92.5147
1460.86	90.6371
1462.43	89.7089
1463.99	87.8908
1465.56	86.4291
1467.13	84.899
1468.69	82.6426
1470.26	80.5586
1471.83	77.4468
1473.39	74.9656
1474.95	73.0309
1476.52	70.091
1478.08	68.1376
1479.65	65.9146
1481.21	63.4406
1482.78	60.805
1484.34	58.2704
1485.9	55.3061
1487.47	53.4933
1489.03	51.1604
1490.59	49.2288
1492.15	46.0266
1493.71	44.5365
1495.27	41.9958
1496.84	41.5154
1498.39	39.2883
1499.96	37.6023
1501.52	36.9726
1503.07	35.5131
1504.64	34.4063
1506.19	34.2005
1507.75	33.8723
1509.31	32.3641
1510.87	31.8964
1512.43	31.7001
1513.98	31.2296
1515.54	30.3146
1517.1	29.961
1518.65	29.2234
1520.21	28.965
1521.77	28.9679
1523.32	28.8061
1524.88	29.0915
1526.44	29.3827
1527.99	28.6621
1529.54	29.9857
1531.1	29.9352
1532.65	30.8731
1534.21	31.6626
1535.76	32.3083
1537.31	32.9283
1538.87	34.6461
1540.42	36.2006
1541.97	36.4398
1543.52	38.4494
1545.07	40.1974
1546.63	41.3424
1548.18	42.0639
1549.73	42.2281
1551.28	43.2742
1552.83	43.9873
1554.38	44.8487
1555.93	46.591
1557.48	46.9841
1559.03	46.993
1560.57	46.6448
1562.12	46.8173
1563.67	47.8131
1565.22	48.6812
1566.77	49.2016
1568.31	49.7134
1569.86	51.2558
1571.41	53.1494
1572.95	54.2737
1574.5	56.0907
1576.05	55.5891
1577.59	57.6053
1579.14	58.2898
1580.68	58.5474
1582.23	59.9455
1583.77	61.5385
1585.31	61.9098
1586.86	62.5851
1588.4	63.8407
1589.95	65.4224
1591.49	65.7878
1593.03	65.71
1594.57	65.8763
1596.11	66.858
1597.66	67.5945
1599.2	68.3356
1600.74	68.7981
1602.28	69.0997
1603.82	68.9185
1605.36	68.4924
1606.9	69.8162
1608.44	70.5885
1609.98	72.0148
1611.52	72.582
1613.06	72.9523
1614.6	73.7333
1616.13	74.312
1617.67	74.0425
1619.21	74.5958
1620.75	75.4391
1622.28	75.0573
1623.82	74.2353
1625.36	73.861
1626.89	74.5169
1628.43	74.6069
1629.96	74.44
1631.5	74.7218
1633.04	75.1811
1634.57	75.0798
1636.11	74.6623
1637.64	74.715
1639.17	75.3107
1640.71	75.7909
1642.24	76.2331
1643.77	76.2777
1645.31	76.6312
1646.84	77.129
1648.37	76.0904
1649.9	75.7859
1651.43	75.1036
1652.96	73.4509
1654.5	73.8432
1656.03	71.8194
1657.56	71.1415
1659.09	70.3501
1660.62	69.5474
1662.15	67.7112
1663.67	66.5997
1665.2	65.3545
1666.73	62.6005
1668.26	59.6376
1669.79	58.2955
1671.32	56.8151
1672.84	55.0791
1674.37	53.5336
1675.9	51.578
1677.43	49.4747
1678.95	47.2777
1680.48	45.0198
1682	43.1051
1683.53	42.3448
1685.05	41.1005
1686.58	38.7857
1688.1	35.9021
1689.63	33.6625
1691.15	32.6088
1692.68	31.4316
1694.2	30.2206
1695.72	29.1538
1697.25	27.5897
1698.77	26.8797
1700.29	25.5188
1701.81	25.9925
1703.33	25.077
1704.86	24.7114
1706.38	23.7446
1707.9	23.462
1709.42	23.2106
1710.94	22.2647
1712.46	20.8668
1713.98	19.8785
1715.5	20.0749
1717.02	19.9064
1718.54	20.1322
1720.06	20.0451
1721.57	19.5795
1723.09	19.3149
1724.61	18.8422
1726.13	19.2662
1727.64	19.0434
1729.16	19.5493
1730.68	19.651
1732.19	18.927
1733.71	18.9145
1735.23	18.654
1736.74	19.149
1738.26	18.8715
1739.77	18.4786
1741.29	18.1033
1742.8	17.4222
1744.31	18.125
1745.83	18.2355
1747.34	18.2475
1748.85	17.8923
1750.37	17.3577
1751.88	16.1573
1753.39	15.5627
1754.91	14.8011
1756.42	14.5834
1757.93	14.6261
1759.44	14.3487
1760.95	13.8366
1762.46	13.1516
1763.97	13.0977
1765.48	13.4235
1766.99	13.611
1768.5	12.8112
1770.01	12.2758
1771.52	12.3867
1773.03	12.1632
1774.54	11.7582
1776.04	11.2853
1777.55	11.7856
1779.06	10.9761
1780.57	11.1778
1782.07	10.5588
1783.58	10.3674
1785.09	10.0345
1786.59	9.59696
1788.1	8.9962
1789.6	8.84833
1791.11	9.19256
1792.61	8.50219
1794.12	8.16531
1795.62	7.73377
1797.13	7.31997
1798.63	7.43097
1800.13	7.30824
1801.64	7.9461
1803.14	8.34132
1804.64	8.52022
1806.15	8.0385
1807.65	8.10474
1809.15	8.16554
1810.65	8.30683
1812.15	8.55116
1813.65	8.58989
1815.16	8.59074
1816.66	8.80423
1818.15	8.32275
1819.66	8.34125
1821.16	8.46119
1822.65	8.76048
1824.15	9.1939
1825.65	8.92523
1827.15	9.61564
1828.65	10.2855
1830.15	10.5279
1831.64	10.6161
1833.14	10.8711
1834.64	10.692
1836.14	11.0162
1837.63	11.0847
1839.13	11.0086
1840.62	10.4321
1842.12	10.5068
1843.62	10.2711
1845.11	11.044
1846.61	11.5075
1848.1	11.8457
1849.6	11.9453
1851.09	12.5786
1852.58	11.7474
1854.08	12.7295
1855.57	12.3892
1857.06	11.203
1858.55	10.3941
1860.05	10.0766
1861.54	9.20225
1863.03	8.28715
1864.52	7.93766
1866.01	7.39798
1867.5	6.11695
1869	5.54015
1870.49	4.75129
1871.98	4.74029
1873.47	4.37583
1874.96	4.287
1876.44	3.9295
1877.93	3.34876
1879.42	3.08442
1880.91	2.371
1882.4	2.62306
1882.47	2.58274
1883.96	2.79231
1885.46	2.71918
1886.95	2.62096
1888.44	2.25061
1889.94	2.69487
1891.43	3.63304
1892.93	3.93085
1894.42	5.14111
1895.91	5.4426
1897.4	5.60129
1898.89	5.47281
1900.39	5.31923
1901.88	5.39737
1903.37	5.97308
1904.86	6.59642
1906.35	7.50249
1907.84	7.64044
1909.33	8.35439
1910.82	8.30755
1912.31	8.67669
1913.8	9.09119
1915.29	10.4862
1916.77	11.4531
1918.26	12.1564
1919.75	12.3553
1921.24	12.8661
1922.73	12.9982
1924.21	13.433
1925.7	12.7856
1927.19	13.9604
1928.67	12.7555
1930.16	12.2587
1931.64	12.3671
1933.13	11.9217
1934.61	11.4361
1936.1	11.3283
1937.58	11.1358
1939.07	10.5563
1940.55	9.37281
1942.04	9.99607
1943.52	9.16766
1945	8.48566
1946.49	7.96562
1947.97	7.12852
1949.45	7.45546
1950.93	7.42788
1952.42	7.8495
1953.9	7.47463
1955.38	7.85977
1956.86	8.15497
1958.34	8.37066
1959.82	8.33889
1961.3	8.94337
1962.78	9.00832
1964.26	9.75701
1965.74	9.84513
1967.22	9.2119
1968.7	9.4898
1970.18	8.64266
1971.65	7.87243
1973.13	7.23856
1974.61	6.90141
1976.09	7.30169
1977.57	7.61558
1979.04	7.36062
1980.52	7.87634
1982	7.86103
1983.47	8.44066
1984.95	8.59476
1986.42	8.99812
1987.9	9.22302
1989.37	10.5136
1990.85	10.6735
1992.32	10.4957
1993.8	10.1692
1995.27	10.6859
1996.75	11.1223
1998.22	11.2164
1999.69	11.9949
2001.17	12.4984
2002.64	12.6375
2004.11	12.8835
2005.58	12.8762
2007.05	13.0494
2008.53	14.1781
2010	14.0988
2011.47	13.8265
2012.94	13.8373
2014.41	13.2001
2015.88	13.3541
2017.35	12.5894
2018.82	13.0146
2020.29	14.3022
2021.76	14.2326
2023.23	15.9695
2024.7	15.399
2026.16	15.8937
2027.63	15.8607
2029.1	16.2844
2030.57	16.7041
2032.03	16.0851
2033.5	15.491
2034.97	15.3083
2036.44	14.3954
2037.9	14.3293
2039.37	13.8051
2040.83	12.9502
2042.3	12.063
2043.76	11.709
2045.23	11.3288
2046.69	11.0009
2048.16	11.4217
2049.62	11.7095
2051.08	12.6179
2052.55	13.2282
2054.01	13.2906
2055.47	13.8032
2056.94	13.6967
2058.4	13.0668
2059.86	12.8358
2061.32	12.7682
2062.79	13.48
2064.25	13.2488
2065.71	13.4178
2067.17	13.9388
2068.63	15.9688
2070.09	17.0211
2071.55	17.6609
2073.01	18.5323
2074.47	18.2811
2075.93	18.7048
2077.39	19.4778
2078.85	19.5003
2080.31	20.5734
2081.76	21.1826
2083.22	21.6848
2084.68	22.6089
2086.13	23.1397
2087.59	22.775
2089.05	23.464
2090.51	23.9977
2091.96	24.7233
2093.42	25.16
2094.87	25.1426
2096.33	26.0002
2097.78	26.0305
2099.24	25.7239
2100.69	25.7265
2102.15	26.4033
2103.6	26.3525
2105.06	26.3104
2106.51	26.7159
2107.96	26.9627
2109.42	27.6984
2110.87	28.178
2112.32	29.3589
2113.77	30.1097
2115.23	31.3441
2116.68	32.5029
2118.13	32.7466
2119.58	33.3713
2121.03	34.592
2122.48	35.5658
2123.93	36.7368
2125.38	37.5984
2126.83	38.082
2128.28	39.5392
2129.73	39.952
2131.18	40.7333
2132.63	42.319
2134.08	43.7636
2135.53	45.8956
2136.97	47.1137
2138.42	48.5538
2139.87	49.7118
2141.32	51.5406
2142.76	51.8381
2144.21	53.0501
2145.66	53.9443
2147.1	54.6067
2148.55	56.2224
2150	57.0407
2151.44	57.6911
2152.89	59.0468
2154.33	59.87
2155.78	61.5852
2157.22	61.3199
2158.66	61.2204
2160.11	61.7909
2161.55	62.7054
2163	63.1002
2164.44	63.6857
2165.88	63.2899
2167.32	63.4785
2168.77	64.161
2170.21	64.1365
2171.65	62.929
2173.09	63.417
2174.53	62.9239
2175.97	61.9079
2177.41	61.6427
2178.85	61.1441
2180.29	60.5152
2181.73	60.1698
2183.17	59.1321
2184.61	58.9161
2186.05	57.6662
2187.49	56.486
2188.93	55.1431
2190.37	54.6844
2191.81	54.2914
2193.24	53.4193
2194.68	52.2584
2196.12	51.1884
2197.56	50.0231
2198.99	49.1909
2200.43	48.3798
2201.87	47.6568
2203.3	46.7304
2204.74	46.0482
2206.17	44.3018
2207.61	43.1555
2209.04	42.3541
2210.48	41.8121
2211.91	40.799
2213.35	40.125
2214.78	39.2369
2216.21	39.0241
2217.65	38.1942
2219.08	37.6317
2220.51	37.0628
2221.95	36.034
2223.38	35.3951
2224.81	34.3502
2226.24	33.6468
2227.67	33.1781
2229.1	31.614
2230.54	31.5651
2231.97	31.3952
2233.4	30.4041
2234.83	29.7677
2236.26	28.5921
2237.69	27.2317
2239.11	27.2494
2240.54	26.4389
2241.97	25.0237
2243.4	24.0292
2244.83	23.3042
2246.26	22.6191
2247.69	21.6533
2249.11	20.7741
2250.54	20.2819
2251.97	19.7878
2253.4	19.6474
2254.82	19.4814
2256.25	19.2622
2257.67	18.849
2259.1	18.0445
2260.53	17.1221
2261.95	16.5966
2263.38	15.3974
2264.8	14.5305
2266.23	13.8929
2267.65	13.8596
2269.07	14.1074
2270.5	14.143
2271.92	13.6198
2273.34	13.5469
2274.77	13.2973
2276.19	13.2952
2277.61	12.7714
2279.03	13.0858
2280.46	14.0833
2281.88	13.4494
2283.3	13.3267
2284.72	13.2777
2286.14	12.6512
2287.56	12.2906
2288.98	11.9309
2290.4	11.1907
2291.82	9.708
2293.24	8.64963
2294.66	8.52956
2296.08	9.38912
2297.5	10.4323
2298.92	11.3219
2300.34	11.8693
2301.76	12.2395
2303.17	12.1577
2304.59	11.9103
2306.01	12.1133
2307.43	11.4937
2308.84	11.7565
2310.26	12.1891
2311.68	12.0338
2313.09	12.4294
2314.51	12.7547
2315.92	12.7051
2317.34	13.2693
2318.75	13.4367
2320.17	13.9001
2321.58	14.9169
2323	14.5093
2324.41	14.4749
2325.82	14.2148
2327.24	13.1816
2328.65	11.974
2330.06	10.9049
2331.48	10.2837
2332.89	10.5127
2334.3	10.9393
2335.71	10.5352
2337.12	10.0358
2338.54	9.84572
2339.95	9.02675
2341.36	8.08082
2342.77	7.2892
2344.18	7.21959
2345.59	6.56969
2347	6.31754
2348.41	5.25753
2349.82	4.86732
2351.23	5.03611
2352.64	4.43317
2354.04	4.49405
2355.45	3.62849
2356.86	2.58423
2358.27	2.51904
2359.68	2.28151
2361.08	1.7354
2362.49	1.43884
2363.9	2.55767
2365.3	3.79355
2366.71	4.20325
2368.12	4.01021
2369.52	3.41722
2370.93	3.04107
2372.33	2.89731
2373.74	3.55045
2375.14	3.97972
2376.55	4.02589
2377.95	3.79958
2379.36	4.30435
2380.76	4.94932
2382.16	5.75466
2383.57	6.1255
2384.97	6.51892
2386.37	6.99372
2387.78	7.43602
2389.18	7.69841
2390.58	7.18246
2391.98	7.94867
2393.38	6.98791
2394.79	7.57513
2396.19	6.93627
2397.59	6.37373
2398.99	6.76387
2400.39	7.34872
2401.79	7.77261
2403.19	7.73614
2404.59	7.79629
2405.99	6.88737
2407.39	6.62683
2408.78	6.33071
2410.18	6.17401
2411.58	6.49609
2412.98	6.10936
2414.38	6.14719
2415.77	6.48407
2417.17	7.01162
2418.57	6.75324
2419.97	6.91251
2421.36	6.98073
2422.76	6.53676
2424.15	6.34064
2425.55	5.49702
2426.95	5.62577
2428.34	5.29908
2429.74	5.46883
2431.13	4.78944
2432.52	4.763
2433.92	4.56629
2435.31	4.13392
2436.71	3.86048
2438.1	3.76859
2439.49	3.74858
2440.89	4.2866
2442.28	5.06321
2443.67	5.49406
2445.06	5.42351
2446.46	4.71565
2447.85	4.35905
2449.24	4.94888
2450.63	4.93798
2452.02	4.74973
2453.41	4.17912
2454.8	4.37554
2456.19	4.01803
2457.58	4.06467
2458.97	4.18548
2460.36	3.76907
2461.75	3.67748
2463.14	2.83403
2464.53	2.44077
2465.92	2.09599
2467.31	2.34388
2468.69	2.71236
2470.08	2.28913
2471.47	2.02302
2472.86	1.65842
2474.24	2.40503
2475.63	2.3932
2477.02	2.74716
2478.4	2.68348
2479.79	2.98907
2481.17	2.99374
2482.56	2.66491
2483.94	3.27145
2485.33	3.96647
2486.72	3.28057
2488.1	3.09563
2489.48	2.84186
2490.87	2.74241
2492.25	2.99712
2493.64	3.31131
2495.02	2.98407
2496.4	3.55526
2497.79	2.88925
2499.17	3.42683
2500.55	2.714
2501.93	2.80714
2503.31	2.7396
2504.69	3.11616
2506.08	3.79098
2507.46	4.40701
2508.84	4.93365
2510.22	5.70597
2511.6	6.08872
2512.98	5.52268
2514.36	5.17394
2515.74	5.18
2517.12	5.17756
2518.5	5.40079
2519.88	5.10514
2521.25	5.33658
2522.63	4.56905
2524.01	4.97556
2525.39	4.90585
2526.77	4.98444
2528.14	4.37194
2529.52	4.63417
2530.9	4.21219
2532.27	4.53183
2533.65	4.64552
2535.03	5.36027
2536.4	5.21377
2537.78	5.30456
2539.15	5.74819
2540.53	6.082
2541.9	5.81235
2543.28	6.52927
2544.65	6.51547
2546.03	6.36556
2547.4	5.34724
2548.77	5.6297
2550.15	4.80663
2551.52	4.65984
2552.89	4.25185
2554.27	3.49038
2555.64	2.62275
2557.01	2.20661
2558.38	1.49357
2559.75	1.29869
2561.12	1.21947
2562.5	0.768789
2563.87	0.171766
2565.24	-0.028427
2566.61	-0.698292
2567.98	-0.974242
2569.35	-1.33934
2570.72	-1.08102
2572.09	-1.46347
2573.46	-1.28777
2574.83	-1.32907
2576.19	-1.00788
2577.56	-1.13477
2578.93	-0.748404
2580.3	-1.25913
2581.67	-1.69457
2583.04	-1.91677
2584.4	-1.74594
2585.77	-2.46259
2587.14	-2.12605
2588.5	-1.61942
2589.87	-1.35413
2591.23	-1.97641
2592.6	-0.941856
2593.97	-0.862207
2595.33	-0.788649
2596.7	-0.597221
2598.06	-0.057518
2599.43	-0.219405
2600.79	0.384957
2602.15	0.997125
2603.52	1.7167
2604.88	2.30105
2606.25	2.91441
2607.61	3.27205
2608.97	3.04193
2610.33	3.48938
2611.7	4.11506
2613.06	3.9972
2614.42	3.86846
2615.78	3.8248
2617.15	4.0429
2618.51	3.61062
2619.87	3.26675
2621.23	2.63858
2622.59	2.9507
2623.95	3.33821
2625.31	3.32221
2626.67	3.62825
2628.03	4.36539
2629.39	4.20341
2630.75	4.21537
2632.1	4.10209
2633.46	4.22078
2634.82	4.27216
2636.18	4.77911
2637.54	4.92277
2638.89	4.8395
2640.25	4.77306
2641.61	5.32243
2642.97	4.91977
2644.32	4.91386
2645.68	4.30898
2647.03	4.48468
2648.39	3.61855
2649.75	3.46428
2651.1	3.38776
2652.46	3.21861
2653.81	3.09382
2655.17	3.76253
2656.52	3.8915
2657.88	3.31022
2659.23	2.98277
2660.58	3.76309
2661.94	3.60555
2663.29	3.48983
2664.64	3.95338
2666	4.08502
2667.35	4.37382
2668.7	4.6837
2670.05	4.64406
2671.4	4.65595
2672.76	4.42269
2674.11	4.80383
2675.46	4.52233
2676.81	4.28462
2678.16	4.66252
2679.51	4.36949
2680.86	4.79969
2682.21	4.58433
2683.56	4.25242
2684.91	4.56196
2686.26	5.24918
2687.61	4.8327
2688.96	4.95229
2690.3	5.24499
2691.65	5.52184
2693	5.40589
2694.35	5.70246
2695.7	5.94669
2697.04	5.96392
2698.39	6.57522
2699.74	7.06898
2701.08	7.75972
2702.43	8.12074
2703.77	8.26504
2705.12	7.85661
2706.47	7.86029
2707.81	8.16305
2709.16	8.20029
2710.5	7.99893
2711.85	8.39682
2713.19	8.45837
2714.53	8.16065
2715.88	7.43529
2717.22	7.32514
2718.57	7.3113
2719.91	7.11212
2721.25	7.06703
2722.59	6.7853
2723.94	6.23039
2725.28	6.27005
2726.62	6.34051
2727.96	6.49777
2729.3	6.62404
2730.65	7.02457
2731.99	7.16139
2733.33	7.22182
2734.67	7.22305
2736.01	7.20939
2737.35	6.45898
2738.69	6.89355
2740.03	6.95955
2741.37	6.88315
2742.71	6.227
2744.05	6.36377
2745.38	6.81333
2746.72	6.78654
2748.06	6.73482
2749.4	6.26667
2750.74	5.86022
2752.07	5.68136
2753.41	5.73595
2754.75	5.14403
2756.09	4.77714
2757.42	5.30093
2758.76	5.91395
2760.09	5.40124
2761.43	5.39086
2762.77	5.79165
2764.1	6.35023
2765.44	6.73701
2766.77	6.73778
2768.11	6.32027
2769.44	6.04968
2770.77	6.75386
2772.11	6.23801
2773.44	6.06672
2774.77	5.71157
2776.11	4.96941
2777.44	3.97112
2778.77	3.63984
2780.11	3.13069
2781.44	2.44764
2782.77	2.28227
2784.1	2.3216
2785.43	1.80127
2786.77	1.06471
2788.1	1.42547
2789.43	1.19263
2790.76	1.53
2792.09	2.19882
2793.42	2.01378
2794.75	2.57854
2796.08	2.42934
2797.41	1.96418
2798.74	1.40187
2800.07	1.01298
2801.4	0.808137
2802.72	0.523404
2804.05	0.370582
2805.38	0.326133
2806.71	0.358348
2808.04	0.151338
2809.36	0.0645978
2810.69	0.0573622
2812.02	-0.154033
2813.34	-0.243336
2814.67	-0.397355
2816	-0.193907
2817.32	0.327345
2818.65	1.12162
2819.97	2.06086
2821.3	2.57788
2822.62	3.41912
2823.95	5.4703
2825.27	6.86227
2826.6	8.12853
2827.92	10.3657
2829.25	12.0624
2830.57	14.6376
2831.89	16.2521
2833.22	18.2673
2834.54	20.5456
2835.86	22.2059
2837.18	24.2379
2838.51	25.536
2839.83	28.2293
2841.15	31.1385
2842.47	34.1997
2843.79	37.0173
2845.11	40.4532
2846.43	43.2563
2847.76	45.6875
2849.08	49.0712
2850.4	52.3668
2851.72	55.0532
2853.04	58.3339
2854.36	62.1563
2855.67	64.2835
2856.99	67.6789
2858.31	70.6386
2859.63	73.6585
2860.95	76.1793
2862.27	78.4288
2863.58	81.5953
2864.9	84.0457
2866.22	86.5982
2867.54	89.3337
2868.85	91.5451
2870.17	93.736
2871.49	95.9061
2872.8	99.0083
2874.12	100.495
2875.43	102.618
2876.75	104.283
2878.07	105.986
2879.38	107.681
2880.7	110.323
2882.01	112.851
2883.32	115.488
2884.64	117.69
2885.95	120.421
2887.27	123.833
2888.58	126.31
2889.89	129.007
2891.21	131.155
2892.52	133.769
2893.83	136.127
2895.14	139.206
2896.46	142.464
2897.77	144.756
2899.08	147.929
2900.39	150.689
2901.7	154.209
2903.01	158.152
2904.32	161.321
2905.63	164.722
2906.94	168.691
2908.25	172.975
2909.56	176.394
2910.87	180.248
2912.18	184.344
2913.49	188.199
2914.8	192.214
2916.11	195.619
2917.42	198.603
2918.72	201.395
2920.03	204.268
2921.34	206.448
2922.65	209.364
2923.95	210.656
2925.26	212.091
2926.57	212.582
2927.88	213.759
2929.18	214.466
2930.49	214.308
2931.79	214.299
2933.1	213.719
2934.4	213.158
2935.71	211.483
2937.01	209.68
2938.32	207.568
2939.62	204.218
2940.93	201.821
2942.23	198.697
2943.54	195.66
2944.84	192.464
2946.14	189.395
2947.45	185.529
2948.75	181.594
2950.05	177.821
2951.35	173.904
2952.66	169.332
2953.96	164.508
2955.26	160.317
2956.56	155.835
2957.86	151.68
2959.16	147.367
2960.46	142.676
2961.77	137.889
2963.07	134.092
2964.37	130.484
2965.66	126.123
2966.96	122.751
2968.26	117.988
2969.56	114.644
2970.86	111.424
2972.16	109.614
2973.46	106.614
2974.76	102.968
2976.06	99.7093
2977.35	96.8919
2978.65	93.2505
2979.95	89.5505
2981.25	86.4074
2982.54	82.5038
2983.84	78.7733
2985.14	75.2247
2986.43	71.6497
2987.73	68.0545
2989.02	64.1503
2990.32	60.5773
2991.62	57.0711
2992.91	54.2346
2994.21	50.8195
2995.5	47.8071
2996.8	45.0767
2998.09	41.9629
2999.38	39.0427
3000.68	36.0584
3001.97	33.1408
3003.26	30.3954
3004.56	27.9054
3005.85	25.7921
3007.14	22.907
3008.43	21.0624
3009.73	18.8356
3011.02	16.7503
3012.31	14.8824
3013.6	13.2916
3014.89	12.0155
3016.19	9.65591
3017.48	8.17445
3018.77	7.1677
3020.06	5.90119
3021.35	4.4448
3022.64	3.6368
3023.93	2.35405
3025.22	1.57327
3026.5	1.80527
3027.79	1.58663
3029.08	1.19244
3030.37	0.683114
3031.66	1.20168
3032.95	1.15355
3034.24	1.98418
3035.52	2.30805
3036.81	2.82794
3038.1	2.64322
3039.39	2.24968
3040.67	2.1893
3041.96	2.22143
3043.25	1.84985
3044.53	1.75662
3045.82	2.01339
3047.1	1.98684
3048.39	1.7053
3049.67	1.40158
3050.96	1.86293
3052.24	1.79715
3053.53	2.34915
3054.81	1.98107
3056.1	2.15729
3057.38	2.71122
3058.67	2.29235
3059.95	2.38909
3061.23	2.56507
3062.52	2.88245
3063.8	3.10067
3065.08	2.87097
3066.36	2.35062
3067.65	2.4187
3068.93	2.66608
3070.21	2.43522
3071.49	2.3514
3072.77	2.1768
3074.05	1.32291
3075.33	1.29136
3076.61	1.31361
3077.89	1.233
3079.17	1.25032
3080.45	0.774517
3081.73	1.33863
3083.01	1.25947
3084.29	0.891791
3085.57	0.795667
3086.85	1.4937
3088.13	1.00981
3089.41	1.48944
3090.68	1.54641
3091.96	1.92441
3093.24	2.53842
3094.52	2.65386
3095.79	3.10992
3097.07	4.08466
3098.35	4.40266
3099.62	4.30145
3100.9	3.97227
3102.18	4.24128
3103.45	4.11872
3104.73	4.58246
3106	4.97474
3107.28	5.33603
3108.55	6.01405
3109.83	6.75657
3111.1	7.3304
3112.38	7.05101
3113.65	7.57795
3114.93	8.36845
3116.2	8.49564
3117.47	9.82148
3118.75	9.84845
3120.02	10.6573
3121.29	11.7353
3122.57	12.295
3123.84	13.6602
3125.11	15.0485
3126.38	15.9575
3127.65	16.0243
3128.92	16.7231
3130.2	17.7464
3131.47	19.0173
3132.74	19.983
3134.01	20.9546
3135.28	22.0748
3136.55	22.977
3137.82	24.3999
3139.09	25.8476
3140.36	27.0606
3141.63	28.3202
3142.9	29.6734
3144.17	30.8554
3145.43	32.0896
3146.7	33.7498
3147.97	35.5884
3149.24	36.4735
