#Acq. time (s)=	45
#Accumulations=	2
#Range (cm-¹)=	200...3150
#Windows=	2
#Auto scanning=	Off
#Autofocus=	Off
#Macrospot=	Off
#AutoExposure=	Off
#Spike filter=	Multiple accum.
#Delay time (s)=	0
#Binning=	1
#Readout mode=	Signal
#DeNoise=	Off
#ICS correction=	On
#Dark correction=	Off
#Inst. Process=	Off
#Detector Gain=	Best Dynamic Range
#Detector ADC=	20 kHz       
#Detector temperature (°C)=	-70.08
#Instrument=	LabRAM HR Evol
#Detector=	Synapse
#Objective=	x100
#Grating=	600 gr/mm
#ND Filter=	100%
#Laser (nm)=	532 
#Hole=	100.021
#Range=	Auto
#Laser Pol.=	No
#Raman. Pol.=	No
#Laser Pol. (°)=	-0.0007625
#Raman Pol. (°)=	89.9995
#Collection=	Microscope
#StageXY=	Marzhauser
#StageZ=	Marzhauser
#X (µm)=	-2453
#Y (µm)=	-49.2
#Z (µm)=	-10.05
#Full time(mm:ss)=	3:19
#Project=	
#Sample=	
#Site=	
#Title=	Mb_40_24_48_2x_45s_532 nm_x100_100%_600 gr_mm
#Remark=	
#Date=	14.07.2022 14:24
#Acquired=	14.07.2022 14:24:21
#Base:Fit=	10.08.2022 10:47:00
#Base:Sub=	10.08.2022 10:47:12
#Filter:Polynom=	16.08.2022 10:11:48
#AxisType[0]=Intens
#AxisUnit[0]=Cnt
#AxisType[1]=Spectr
#AxisUnit[1]=1/cm
200.554	1.87985
202.369	2.73938
204.183	4.13124
205.999	4.55799
207.813	3.96731
209.626	3.15337
211.439	2.54014
213.253	2.01534
215.065	1.40663
216.877	2.39733
218.688	3.60569
220.5	3.33077
222.312	2.80308
224.123	2.3861
225.933	2.65424
227.742	2.66402
229.552	1.66667
231.361	1.21185
233.171	1.33171
234.98	2.12982
236.787	1.96282
238.595	2.28415
240.402	2.25176
242.209	2.91971
244.015	3.45836
245.822	4.23564
247.627	5.13991
249.435	5.51094
251.24	6.55926
253.045	6.53828
254.849	6.81582
256.653	5.55881
258.457	6.31397
260.26	6.23099
262.063	6.73807
263.866	7.42888
265.668	7.64663
267.47	7.78515
269.271	7.85776
271.073	7.57698
272.873	8.37499
274.674	8.60948
276.474	8.49234
278.274	9.41724
280.073	9.74754
281.872	10.2728
283.671	10.9815
285.47	10.9516
287.268	11.352
289.065	10.7734
290.863	10.576
292.66	10.2204
294.456	9.17476
296.253	8.64373
298.049	8.55197
299.844	7.89456
301.637	8.71092
303.432	8.4201
305.227	8.84057
307.021	9.63606
308.815	7.60203
310.609	5.98777
312.402	5.78268
314.195	5.82578
315.987	6.93054
317.777	6.25957
319.569	5.82899
321.36	6.2121
323.151	6.53412
324.942	7.12426
326.733	7.32002
328.521	7.25112
330.31	6.76574
332.1	6.55266
333.889	6.0155
335.677	6.39511
337.464	5.7152
339.252	5.07388
341.039	5.61219
342.826	4.60607
344.611	5.3976
346.398	4.92527
348.184	4.82055
349.97	4.73886
351.754	4.91382
353.539	5.95853
355.324	6.24369
357.106	6.55446
358.89	6.91379
360.674	6.73463
362.455	7.13999
364.239	7.71012
366.021	8.09098
367.804	8.54548
369.584	8.7076
371.366	8.5119
373.145	7.59045
374.926	6.98548
376.707	7.84964
378.485	7.35601
380.265	7.93773
382.045	6.38022
383.822	5.09896
385.601	4.68839
387.378	4.86969
389.156	5.50128
390.934	5.32176
392.71	5.22536
394.487	5.13312
396.262	4.00866
398.038	3.08283
399.813	4.67625
401.588	5.5196
403.362	6.84831
405.137	6.64587
406.912	5.71594
408.685	6.14733
410.459	5.99816
412.23	5.92516
414.004	5.58118
415.775	4.69871
417.548	3.5841
419.318	4.1177
421.089	4.09155
422.86	4.64805
424.63	4.804
426.401	4.16018
428.17	4.72671
429.94	4.78748
431.708	4.21479
433.478	4.54882
435.245	3.41722
437.012	3.54516
438.781	4.62278
440.547	4.7972
442.315	5.6727
444.081	6.39423
445.846	6.24501
447.613	6.29838
449.378	6.64724
451.142	7.35186
452.908	7.49005
454.672	7.23954
456.435	6.59385
458.2	6.39637
459.963	6.71976
461.725	6.75191
463.489	7.28694
465.251	7.49902
467.012	6.32827
468.775	6.23976
470.536	5.21129
472.296	5.75206
474.056	5.63069
475.817	6.0755
477.576	6.09479
479.335	6.18985
481.094	5.99428
482.854	5.36862
484.612	5.88166
486.37	7.11782
488.127	7.59784
489.886	7.77913
491.642	7.21515
493.398	5.80773
495.154	6.81265
496.91	6.82029
498.667	6.50189
500.422	5.83636
502.176	5.82659
503.93	5.60354
505.684	6.17881
507.438	7.05115
509.191	6.2854
510.946	6.09704
512.698	5.55032
514.45	6.50764
516.202	7.44847
517.954	7.42967
519.705	7.92613
521.456	8.17547
523.206	8.44869
524.956	9.46653
526.706	10.2617
528.456	9.63484
530.207	10.1465
531.956	9.9821
533.704	9.60557
535.452	9.91172
537.2	9.51921
538.947	9.68998
540.694	9.5153
542.441	8.81623
544.188	7.99756
545.934	9.16955
547.68	9.3721
549.425	9.00407
551.17	8.50899
552.915	8.63559
554.659	7.9505
556.403	8.25806
558.145	8.16427
559.889	7.83917
561.632	7.78673
563.375	7.41279
565.117	6.88626
566.859	6.33114
568.601	5.30929
570.342	5.64483
572.083	5.91254
573.824	5.87408
575.565	4.50296
577.303	4.32528
579.043	3.72392
580.782	4.08418
582.521	4.68908
584.26	4.75059
585.998	4.20819
587.734	3.28103
589.472	3.67967
591.21	4.53533
592.947	5.07123
594.684	5.41967
596.418	5.58127
598.154	6.67184
599.89	7.85318
601.626	8.83301
603.361	9.09127
605.094	9.61229
606.828	10.3847
608.562	10.734
610.296	11.447
612.027	11.4758
613.761	11.0862
615.493	11.37
617.224	12.0591
618.956	11.6766
620.688	12.0495
622.419	12.6006
624.149	13.3415
625.879	14.6022
627.61	15.009
629.338	14.8187
631.068	15.7768
632.797	17.2314
634.525	17.6103
636.254	18.4967
637.98	17.9759
639.708	18.5641
641.436	18.6267
643.162	18.1705
644.889	17.8286
646.614	16.7097
648.34	17.1503
650.067	16.764
651.791	17.1845
653.516	17.1343
655.239	17.1113
656.964	16.188
658.687	15.6652
660.411	15.958
662.133	15.7717
663.857	16.7605
665.58	16.9739
667.301	17.6107
669.024	18.4356
670.744	18.8989
672.464	19.1155
674.186	19.6029
675.905	20.7835
677.626	22.9815
679.345	23.4121
681.065	24.4813
682.783	25.7503
684.503	26.6357
686.22	27.0503
687.939	28.0874
689.656	29.9815
691.372	30.7195
693.09	30.7073
694.806	31.5434
696.523	32.4456
698.239	32.3532
699.953	33.0857
701.67	34.4555
703.384	35.5902
705.098	36.5863
706.813	38.956
708.526	40.1346
710.239	42.0307
711.954	42.972
713.666	43.6943
715.378	44.0493
717.091	45.7123
718.802	46.5607
720.513	46.5136
722.226	46.3624
723.936	46.1468
725.646	47.1684
727.355	46.1717
729.067	45.3089
730.776	45.6888
732.484	46.0719
734.192	46.32
735.902	45.3015
737.61	45.3537
739.317	45.3375
741.024	45.826
742.731	47.0511
744.439	48.1608
746.145	49.1039
747.851	49.84
749.556	50.8069
751.262	50.7481
752.966	51.5946
754.673	52.5479
756.377	53.5589
758.081	54.7962
759.784	54.6266
761.487	55.8902
763.19	58.4845
764.892	58.501
766.594	59.7007
768.296	61.168
770	62.9279
771.701	64.0691
773.402	65.6869
775.102	66.7687
776.803	67.4436
778.503	68.9123
780.202	70.9153
781.901	72.2914
783.6	72.8711
785.299	75.2281
786.997	77.0035
788.695	78.1925
790.393	79.7953
792.09	81.5684
793.787	81.9022
795.484	83.0254
797.18	82.6252
798.877	83.2
800.572	82.3346
802.268	82.1701
803.963	81.9366
805.658	81.917
807.35	82.1324
809.044	81.8071
810.738	81.7265
812.432	81.287
814.125	82.4919
815.818	82.1647
817.51	81.7229
819.202	80.5823
820.894	80.7314
822.584	81.6772
824.275	81.75
825.966	81.5919
827.657	80.5689
829.347	79.3174
831.037	79.5526
832.725	77.775
834.414	76.6349
836.103	75.1397
837.792	75.3914
839.481	75.2655
841.167	74.4124
842.854	73.7114
844.542	72.9145
846.229	73.8378
847.914	74.1381
849.6	73.7452
851.287	73.4277
852.973	71.8241
854.656	71.4813
856.341	70.8445
858.026	70.3705
859.711	69.7451
861.393	68.5523
863.077	68.1237
864.761	66.9426
866.442	65.5649
868.125	64.4349
869.808	64.2336
871.489	63.2645
873.171	62.47
874.85	61.9118
876.532	60.5193
878.213	58.5394
879.892	57.7926
881.572	56.5385
883.251	56.5715
884.931	56.0726
886.61	56.1452
888.287	55.9253
889.966	54.7009
891.643	54.5559
893.321	55.1859
894.997	55.8045
896.675	55.4104
898.352	55.1495
900.028	54.17
901.704	53.9529
903.379	54.2173
905.055	54.6297
906.729	53.682
908.404	52.5808
910.077	52.5193
911.75	51.522
913.425	51.9599
915.097	51.6437
916.771	50.7538
918.443	51.7036
920.116	51.2729
921.787	51.2883
923.46	50.8826
925.13	50.0693
926.8	50.4811
928.472	49.9888
930.141	49.8089
931.813	49.1449
933.481	48.9994
935.15	46.7964
936.82	45.7225
938.488	45.9478
940.156	45.5835
941.825	44.5231
943.492	42.69
945.158	40.6637
946.827	40.3193
948.493	39.252
950.158	39.0325
951.824	39.242
953.491	37.5358
955.156	36.9918
956.82	36.2273
958.486	34.0531
960.15	33.2788
961.814	32.5595
963.477	32.4921
965.142	31.8622
966.804	30.7101
968.467	29.6431
970.129	29.1683
971.79	28.5135
973.454	28.4477
975.115	28.0336
976.776	28.2116
978.436	27.268
980.096	27.2256
981.756	27.6341
983.417	27.4833
985.077	27.3941
986.736	27.9516
988.394	26.9473
990.052	26.5387
991.71	26.5551
993.368	26.8802
995.025	26.2593
996.682	26.6752
998.341	25.1723
999.998	24.1835
1001.65	24.1208
1003.31	23.5419
1004.97	23.5106
1006.62	22.9935
1008.28	22.8279
1009.93	23.5972
1011.58	23.4145
1013.24	24.5726
1014.89	25.0255
1016.54	24.8273
1018.2	24.2354
1019.85	25.2042
1021.5	26.4767
1023.16	26.6675
1024.81	26.0698
1026.46	25.2434
1028.11	26.2765
1029.76	27.4597
1031.41	28.3065
1033.06	28.679
1034.71	27.817
1036.36	27.0101
1038.01	28.3893
1039.66	28.683
1041.31	27.8699
1042.95	29.0435
1044.6	29.2185
1046.25	28.8556
1047.9	29.0647
1049.54	28.5673
1051.19	27.9166
1052.84	27.4075
1054.48	26.8462
1056.13	27.3707
1057.77	27.1446
1059.42	27.9942
1061.06	28.0781
1062.71	28.3954
1064.35	28.8896
1066	28.6446
1067.64	28.271
1069.28	27.5975
1070.93	26.2828
1072.57	26.1164
1074.21	25.3112
1075.85	24.7238
1077.49	23.3291
1079.13	22.0882
1080.78	20.9228
1082.42	20.7856
1084.06	20.916
1085.7	19.5101
1087.34	18.7179
1088.97	18.7025
1090.61	18.5172
1092.25	18.9157
1093.89	18.9945
1095.53	19.2972
1097.17	18.5955
1098.8	18.6917
1100.44	19.2886
1102.08	19.6093
1103.71	18.8751
1105.35	17.9765
1106.99	17.1697
1108.62	17.6747
1110.26	18.4883
1111.89	18.1863
1113.52	17.2772
1115.16	16.7031
1116.79	15.9227
1118.43	16.9773
1120.06	17.1054
1121.69	16.4552
1123.32	15.6989
1124.96	15.9254
1126.59	15.6941
1128.22	15.6671
1129.85	14.8694
1131.48	13.2046
1133.11	13.307
1134.75	13.6751
1136.37	14.9102
1138	15.6505
1139.63	15.8878
1141.26	15.3726
1142.89	16.0516
1144.52	15.566
1146.15	15.3972
1147.78	14.3649
1149.4	13.9582
1151.03	13.4065
1152.66	13.2203
1154.28	12.5766
1155.91	11.8828
1157.54	11.6914
1159.16	11.0393
1160.79	10.3943
1162.41	10.5702
1164.04	9.97594
1165.66	8.99012
1167.29	8.17122
1168.91	7.72153
1170.53	7.37209
1172.16	6.8565
1173.78	6.98146
1175.4	6.32058
1177.02	5.75695
1178.65	5.62091
1180.27	5.68861
1181.89	5.05266
1183.51	4.48389
1185.13	4.05456
1186.75	4.42657
1188.37	4.39052
1189.99	5.5367
1191.61	5.69282
1193.23	4.72958
1194.85	4.3582
1196.47	5.91739
1198.08	5.47032
1199.7	6.20867
1201.32	5.25745
1202.94	5.60049
1204.55	5.45237
1206.17	6.13452
1207.79	6.55039
1209.4	7.23827
1211.02	6.68135
1212.63	7.70918
1214.25	9.75852
1215.86	10.2982
1217.48	11.883
1219.09	11.9969
1220.71	12.0835
1222.32	12.794
1223.93	13.5071
1225.54	13.8712
1227.16	15.6937
1228.77	17.6024
1230.38	19.0399
1231.99	19.9357
1233.6	21.3412
1235.22	22.1681
1236.83	23.0789
1238.44	23.4499
1240.05	23.8372
1241.66	24.6868
1243.26	25.4016
1244.87	25.0276
1246.48	25.6507
1248.09	26.6369
1249.7	27.3306
1251.31	28.0464
1252.92	28.7007
1254.52	29.4654
1256.13	30.7374
1257.74	32.1625
1259.34	32.9303
1260.95	33.425
1262.55	33.1452
1264.16	33.2594
1265.76	33.766
1267.37	33.7821
1268.97	34.1214
1270.58	34.1572
1272.18	33.5552
1273.78	33.8227
1275.39	34.212
1276.99	34.6505
1278.59	33.5578
1280.2	33.7088
1281.8	33.7213
1283.4	34.56
1285	34.4883
1286.6	35.5886
1288.2	35.1327
1289.8	35.2845
1291.4	34.8999
1293	35.6199
1294.6	36.495
1296.2	37.1027
1297.8	37.3947
1299.4	37.8578
1301	38.5532
1302.6	39.2976
1304.19	38.388
1305.79	39.728
1307.39	40.3391
1308.99	40.0225
1310.58	39.7374
1312.18	38.7023
1313.77	38.5655
1315.37	37.9647
1316.96	37.8763
1318.56	38.0415
1320.15	38.2382
1321.75	38.3978
1323.34	37.3987
1324.94	37.2346
1326.53	37.3668
1328.12	36.4506
1329.72	35.8891
1331.31	34.7522
1332.9	34.4111
1334.49	34.1977
1336.08	34.7572
1337.67	33.7532
1339.27	32.7748
1340.86	31.9264
1342.45	31.7041
1344.04	31.9612
1345.63	32.3587
1347.22	32.0728
1348.8	32.0437
1350.39	32.5374
1351.98	33.016
1353.57	33.8927
1355.16	33.1918
1356.75	33.5322
1358.33	33.0556
1359.92	33.4574
1361.51	33.6994
1363.09	33.8986
1364.68	34.2072
1366.27	35.2547
1367.85	35.649
1369.44	36.2868
1371.02	37.3494
1372.61	39.1003
1374.19	39.9027
1375.77	40.2448
1377.36	40.3738
1378.94	40.4765
1380.52	40.2581
1382.11	39.6775
1383.69	39.1561
1385.27	39.3004
1386.85	39.3379
1388.43	39.6881
1390.02	39.6053
1391.6	39.5282
1393.18	39.4223
1394.76	39.4815
1396.34	40.2824
1397.92	40.1386
1399.5	40.5795
1401.08	40.6226
1402.65	40.4361
1404.23	40.118
1405.81	40.0026
1407.39	40.1111
1408.97	40.4482
1410.54	41.0528
1412.12	42.131
1413.7	43.2852
1415.27	44.8688
1416.85	45.3369
1418.43	46.3437
1420	47.1928
1421.58	49.218
1423.15	50.521
1424.73	51.9723
1426.3	53.1171
1427.87	54.0837
1429.45	55.9316
1431.02	56.6942
1432.6	57.802
1434.17	58.6726
1435.74	60.4395
1437.31	60.3424
1438.89	61.3325
1440.46	61.6831
1442.03	62.6406
1443.6	63.7597
1445.17	64.115
1446.74	64.6296
1448.31	64.8683
1449.88	64.4353
1451.45	64.1474
1453.02	63.5462
1454.59	62.1834
1456.16	61.2753
1457.72	59.7213
1459.29	58.7219
1460.86	57.0796
1462.43	56.2149
1463.99	55.6722
1465.56	55.2371
1467.13	53.4317
1468.69	51.3545
1470.26	50.1969
1471.83	47.5399
1473.39	47.1382
1474.95	44.9432
1476.52	42.5824
1478.08	40.7905
1479.65	38.7385
1481.21	36.857
1482.78	34.8317
1484.34	33.2022
1485.9	32.7621
1487.47	31.3256
1489.03	30.3662
1490.59	28.5303
1492.15	26.8704
1493.71	25.9596
1495.27	24.948
1496.84	24.3765
1498.39	23.8111
1499.96	23.8501
1501.52	23.5476
1503.07	22.8244
1504.64	22.2117
1506.19	21.989
1507.75	21.8116
1509.31	21.5059
1510.87	21.6113
1512.43	21.0836
1513.98	20.906
1515.54	19.6858
1517.1	19.711
1518.65	19.3532
1520.21	19.6732
1521.77	20.0079
1523.32	19.6308
1524.88	20.4809
1526.44	19.9965
1527.99	19.2842
1529.54	19.8497
1531.1	19.1552
1532.65	19.0736
1534.21	20.1197
1535.76	20.1
1537.31	19.9271
1538.87	19.5792
1540.42	20.9148
1541.97	21.7957
1543.52	21.8679
1545.07	21.597
1546.63	21.8985
1548.18	22.2131
1549.73	22.3506
1551.28	22.9991
1552.83	22.7661
1554.38	24.6247
1555.93	25.5976
1557.48	26.0776
1559.03	26.6823
1560.57	26.815
1562.12	26.8248
1563.67	27.2487
1565.22	26.6607
1566.77	27.9599
1568.31	28.6401
1569.86	30.7996
1571.41	32.884
1572.95	33.7598
1574.5	34.9604
1576.05	35.2422
1577.59	36.7516
1579.14	37.8424
1580.68	38.8711
1582.23	40.2016
1583.77	41.0799
1585.31	41.5628
1586.86	42.377
1588.4	42.8971
1589.95	43.3192
1591.49	43.6806
1593.03	43.1786
1594.57	43.8679
1596.11	43.3971
1597.66	44.1904
1599.2	44.2338
1600.74	44.0493
1602.28	44.0126
1603.82	43.0908
1605.36	42.9245
1606.9	42.5506
1608.44	42.0227
1609.98	41.9839
1611.52	41.934
1613.06	41.3783
1614.6	40.909
1616.13	41.2442
1617.67	41.9266
1619.21	41.3491
1620.75	40.6953
1622.28	40.6503
1623.82	41.3076
1625.36	40.7085
1626.89	41.1885
1628.43	40.9375
1629.96	40.808
1631.5	40.1054
1633.04	38.7862
1634.57	38.1344
1636.11	38.297
1637.64	38.1969
1639.17	38.5593
1640.71	38.9655
1642.24	40.4812
1643.77	42.0169
1645.31	41.9836
1646.84	42.7807
1648.37	42.258
1649.9	41.775
1651.43	42.084
1652.96	41.6099
1654.5	42.3268
1656.03	41.7491
1657.56	41.7768
1659.09	41.9514
1660.62	41.7058
1662.15	41.3514
1663.67	40.2633
1665.2	39.3878
1666.73	38.4719
1668.26	37.7558
1669.79	37.5856
1671.32	37.2648
1672.84	36.4674
1674.37	36.3215
1675.9	35.1504
1677.43	34.0671
1678.95	32.9554
1680.48	32.1203
1682	31.5314
1683.53	30.499
1685.05	29.3157
1686.58	27.9925
1688.1	27.2474
1689.63	25.405
1691.15	23.5285
1692.68	22.4217
1694.2	20.8471
1695.72	19.3437
1697.25	18.092
1698.77	17.085
1700.29	16.0487
1701.81	14.4748
1703.33	14.3129
1704.86	12.9634
1706.38	12.0619
1707.9	11.231
1709.42	11.2175
1710.94	11.5304
1712.46	11.4443
1713.98	11.4399
1715.5	11.2791
1717.02	10.9611
1718.54	10.6679
1720.06	9.88407
1721.57	9.36467
1723.09	9.234
1724.61	8.23663
1726.13	8.13938
1727.64	7.97388
1729.16	8.01391
1730.68	7.85649
1732.19	7.37828
1733.71	7.51881
1735.23	7.54217
1736.74	7.37906
1738.26	6.9659
1739.77	6.19276
1741.29	6.26564
1742.8	6.59189
1744.31	7.16342
1745.83	7.20927
1747.34	6.88278
1748.85	6.49552
1750.37	5.86769
1751.88	5.65054
1753.39	5.25786
1754.91	5.14075
1756.42	5.28347
1757.93	5.01399
1759.44	4.69677
1760.95	3.89988
1762.46	3.54707
1763.97	3.84128
1765.48	3.60929
1766.99	3.33989
1768.5	3.23373
1770.01	3.25819
1771.52	3.23106
1773.03	3.29408
1774.54	3.96002
1776.04	4.43698
1777.55	4.50837
1779.06	4.76663
1780.57	4.98311
1782.07	5.07266
1783.58	5.00192
1785.09	5.08995
1786.59	5.24573
1788.1	5.41752
1789.6	6.11084
1791.11	5.81183
1792.61	5.55627
1794.12	5.71534
1795.62	6.19177
1797.13	7.0651
1798.63	7.44882
1800.13	7.34682
1801.64	7.72453
1803.14	7.15253
1804.64	6.92381
1806.15	6.28766
1807.65	6.22434
1809.15	5.67033
1810.65	5.77386
1812.15	5.32477
1813.65	4.64296
1815.16	4.12793
1816.66	4.63308
1818.15	4.26512
1819.66	3.94019
1821.16	3.51144
1822.65	3.27995
1824.15	2.94914
1825.65	3.13089
1827.15	3.42096
1828.65	3.30311
1830.15	3.24823
1831.64	3.83162
1833.14	3.54573
1834.64	4.24566
1836.14	3.87662
1837.63	3.74911
1839.13	3.81609
1840.62	3.7749
1842.12	3.28304
1843.62	3.52211
1845.11	3.35303
1846.61	3.10667
1848.1	2.98922
1849.6	3.25768
1851.09	2.81061
1852.58	2.5054
1854.08	2.42569
1855.57	2.53584
1857.06	1.64789
1858.55	1.90193
1860.05	2.07431
1861.54	2.40355
1863.03	2.52299
1864.52	2.82541
1866.01	2.83844
1867.5	3.0098
1869	3.05361
1870.49	3.34029
1871.98	3.64876
1873.47	3.40535
1874.96	2.94469
1876.44	2.80832
1877.93	2.62499
1879.42	2.90734
1880.91	2.50281
1882.4	2.56343
1882.47	2.29425
1883.96	2.73152
1885.46	2.30586
1886.95	2.32653
1888.44	2.72751
1889.94	3.10971
1891.43	3.24024
1892.93	4.06926
1894.42	4.66416
1895.91	4.69537
1897.4	4.89796
1898.89	4.98299
1900.39	5.37208
1901.88	5.47068
1903.37	6.16241
1904.86	6.2592
1906.35	5.74929
1907.84	6.47181
1909.33	5.07777
1910.82	4.90089
1912.31	4.81935
1913.8	4.81629
1915.29	4.97714
1916.77	5.32113
1918.26	5.26288
1919.75	5.34482
1921.24	4.59153
1922.73	4.88047
1924.21	5.10813
1925.7	4.98593
1927.19	5.21673
1928.67	5.28731
1930.16	4.69821
1931.64	5.58144
1933.13	5.5232
1934.61	5.00713
1936.1	4.95355
1937.58	5.18621
1939.07	4.96131
1940.55	4.12659
1942.04	4.40456
1943.52	4.71869
1945	4.00343
1946.49	3.42903
1947.97	3.81371
1949.45	3.51504
1950.93	3.46841
1952.42	3.26765
1953.9	2.80487
1955.38	3.50289
1956.86	3.33256
1958.34	3.43389
1959.82	3.68375
1961.3	4.73191
1962.78	4.92162
1964.26	5.21834
1965.74	5.11827
1967.22	4.76367
1968.7	4.59646
1970.18	4.59736
1971.65	5.08649
1973.13	5.35725
1974.61	5.50649
1976.09	5.03249
1977.57	4.99465
1979.04	4.55067
1980.52	4.02858
1982	4.3282
1983.47	3.41691
1984.95	3.73009
1986.42	4.12439
1987.9	4.4379
1989.37	4.78173
1990.85	4.72906
1992.32	4.82325
1993.8	4.3828
1995.27	3.92104
1996.75	4.50744
1998.22	4.3399
1999.69	4.51037
2001.17	5.11649
2002.64	5.20317
2004.11	5.2321
2005.58	5.34195
2007.05	5.00374
2008.53	4.9821
2010	5.29339
2011.47	4.85275
2012.94	4.82714
2014.41	4.3012
2015.88	4.66338
2017.35	4.48783
2018.82	3.72869
2020.29	4.16304
2021.76	4.75238
2023.23	4.48888
2024.7	4.78983
2026.16	4.8247
2027.63	4.93477
2029.1	5.23504
2030.57	5.6451
2032.03	6.19282
2033.5	6.70538
2034.97	7.03498
2036.44	6.66885
2037.9	7.17408
2039.37	7.58563
2040.83	8.22453
2042.3	8.50677
2043.76	9.0691
2045.23	9.05925
2046.69	8.95893
2048.16	8.67526
2049.62	9.13283
2051.08	9.60864
2052.55	8.86041
2054.01	8.814
2055.47	9.61615
2056.94	9.44091
2058.4	10.3174
2059.86	10.6312
2061.32	10.9218
2062.79	11.0394
2064.25	11.1412
2065.71	11.1347
2067.17	10.7107
2068.63	11.3307
2070.09	11.9666
2071.55	12.3475
2073.01	12.6097
2074.47	13.0344
2075.93	13.1093
2077.39	13.0917
2078.85	13.5643
2080.31	14.1771
2081.76	14.5501
2083.22	14.6014
2084.68	13.94
2086.13	14.5663
2087.59	14.4659
2089.05	15.1204
2090.51	15.0046
2091.96	15.1916
2093.42	16.1363
2094.87	16.6504
2096.33	16.6896
2097.78	17.0841
2099.24	16.9945
2100.69	17.5649
2102.15	18.1405
2103.6	18.9439
2105.06	19.0885
2106.51	19.57
2107.96	20.1178
2109.42	20.6597
2110.87	21.4911
2112.32	22.0153
2113.77	22.4422
2115.23	22.9059
2116.68	23.7059
2118.13	24.1869
2119.58	24.7676
2121.03	25.6463
2122.48	26.0951
2123.93	27.1428
2125.38	28.1094
2126.83	29.027
2128.28	30.3332
2129.73	30.8787
2131.18	31.1913
2132.63	31.8552
2134.08	32.7448
2135.53	33.4696
2136.97	33.7703
2138.42	34.5751
2139.87	35.4546
2141.32	36.6816
2142.76	37.0542
2144.21	37.5299
2145.66	38.1497
2147.1	39.3792
2148.55	39.7362
2150	40.3577
2151.44	41.8499
2152.89	42.0288
2154.33	42.4522
2155.78	42.5845
2157.22	42.8399
2158.66	43.461
2160.11	43.4873
2161.55	43.5842
2163	43.3393
2164.44	43.794
2165.88	44.1467
2167.32	43.9974
2168.77	43.8575
2170.21	44.1125
2171.65	43.6361
2173.09	43.9793
2174.53	43.8546
2175.97	43.8541
2177.41	43.0892
2178.85	43.0345
2180.29	42.7011
2181.73	42.2725
2183.17	41.2561
2184.61	40.9215
2186.05	40.5083
2187.49	39.8559
2188.93	39.3187
2190.37	38.3591
2191.81	37.7384
2193.24	37.0893
2194.68	36.2121
2196.12	35.7283
2197.56	34.5884
2198.99	33.6004
2200.43	33.4112
2201.87	32.4652
2203.3	31.2887
2204.74	31.7472
2206.17	31.1227
2207.61	30.7276
2209.04	29.3388
2210.48	28.6985
2211.91	28.1929
2213.35	27.0245
2214.78	26.0481
2216.21	25.3068
2217.65	25.1105
2219.08	24.9719
2220.51	23.536
2221.95	22.9615
2223.38	22.3494
2224.81	21.5117
2226.24	21.2544
2227.67	21.4737
2229.1	20.9563
2230.54	19.8578
2231.97	19.2878
2233.4	18.9304
2234.83	18.3462
2236.26	18.0478
2237.69	18.1964
2239.11	17.9056
2240.54	17.1994
2241.97	16.7926
2243.4	16.6041
2244.83	15.4656
2246.26	14.7602
2247.69	14.7116
2249.11	14.1873
2250.54	14.8934
2251.97	14.0304
2253.4	13.3931
2254.82	13.0688
2256.25	12.7644
2257.67	12.5074
2259.1	11.944
2260.53	11.7903
2261.95	10.9342
2263.38	10.7245
2264.8	10.3548
2266.23	9.92731
2267.65	9.89703
2269.07	9.8571
2270.5	10.0633
2271.92	10.3474
2273.34	10.0058
2274.77	9.39524
2276.19	9.81312
2277.61	8.99973
2279.03	8.03624
2280.46	7.13176
2281.88	7.10896
2283.3	7.18262
2284.72	6.70672
2286.14	6.50633
2287.56	6.48817
2288.98	6.57688
2290.4	6.08017
2291.82	5.55973
2293.24	5.80473
2294.66	5.87525
2296.08	6.43305
2297.5	6.50216
2298.92	7.14
2300.34	6.5565
2301.76	6.80136
2303.17	7.31969
2304.59	8.27878
2306.01	8.79267
2307.43	9.56189
2308.84	10.4412
2310.26	10.577
2311.68	11.1675
2313.09	11.7296
2314.51	11.9307
2315.92	11.2902
2317.34	11.9958
2318.75	12.1258
2320.17	12.0633
2321.58	11.9221
2323	10.4789
2324.41	10.3494
2325.82	10.5078
2327.24	10.2411
2328.65	10.7313
2330.06	10.3204
2331.48	9.68155
2332.89	9.28377
2334.3	9.0091
2335.71	9.09491
2337.12	8.60121
2338.54	8.26894
2339.95	7.86801
2341.36	7.5648
2342.77	6.3999
2344.18	5.47691
2345.59	4.87995
2347	4.66371
2348.41	4.04998
2349.82	3.55183
2351.23	3.43788
2352.64	3.09553
2354.04	2.80518
2355.45	2.68364
2356.86	2.56006
2358.27	3.39973
2359.68	3.71084
2361.08	3.57316
2362.49	3.9077
2363.9	4.08942
2365.3	4.87196
2366.71	5.30527
2368.12	5.19272
2369.52	5.90558
2370.93	6.38716
2372.33	7.18326
2373.74	7.02637
2375.14	7.88772
2376.55	7.95781
2377.95	7.90192
2379.36	8.07896
2380.76	7.71273
2382.16	7.491
2383.57	6.90766
2384.97	7.56368
2386.37	7.0575
2387.78	7.19324
2389.18	7.072
2390.58	6.72668
2391.98	5.88461
2393.38	5.26691
2394.79	6.30837
2396.19	6.38061
2397.59	5.71817
2398.99	5.66659
2400.39	5.39793
2401.79	5.07816
2403.19	5.24731
2404.59	4.79181
2405.99	4.66046
2407.39	3.93935
2408.78	3.31451
2410.18	3.2974
2411.58	2.83399
2412.98	2.97646
2414.38	2.97516
2415.77	2.26094
2417.17	2.35042
2418.57	2.04568
2419.97	2.04302
2421.36	2.35424
2422.76	2.31076
2424.15	2.95858
2425.55	3.35386
2426.95	3.39031
2428.34	3.91366
2429.74	3.29097
2431.13	2.90548
2432.52	2.62767
2433.92	2.29527
2435.31	1.96346
2436.71	1.66008
2438.1	1.63696
2439.49	2.45332
2440.89	2.46287
2442.28	2.29675
2443.67	1.91945
2445.06	2.37746
2446.46	2.22333
2447.85	1.79909
2449.24	2.03751
2450.63	2.36447
2452.02	3.00152
2453.41	3.7031
2454.8	4.35821
2456.19	3.94432
2457.58	3.94613
2458.97	3.98018
2460.36	4.15482
2461.75	5.07553
2463.14	5.25931
2464.53	6.24579
2465.92	5.58759
2467.31	5.71013
2468.69	5.89841
2470.08	6.27588
2471.47	6.20313
2472.86	5.84619
2474.24	5.87357
2475.63	5.81618
2477.02	5.6694
2478.4	6.00456
2479.79	6.23628
2481.17	5.98672
2482.56	6.18464
2483.94	5.75899
2485.33	6.13672
2486.72	6.73589
2488.1	6.62212
2489.48	6.92108
2490.87	6.97647
2492.25	6.91352
2493.64	6.88103
2495.02	6.45583
2496.4	5.8178
2497.79	5.77393
2499.17	5.11318
2500.55	4.91882
2501.93	4.69729
2503.31	4.35831
2504.69	4.42745
2506.08	4.29119
2507.46	3.73445
2508.84	3.56429
2510.22	2.75921
2511.6	2.73608
2512.98	2.16357
2514.36	2.17592
2515.74	2.05273
2517.12	2.13382
2518.5	2.94936
2519.88	3.48415
2521.25	3.73578
2522.63	3.86784
2524.01	3.98869
2525.39	3.80206
2526.77	3.92942
2528.14	4.07249
2529.52	4.38799
2530.9	4.86284
2532.27	4.20208
2533.65	4.36134
2535.03	3.78478
2536.4	4.4003
2537.78	4.3128
2539.15	4.6715
2540.53	4.91759
2541.9	5.2426
2543.28	5.50852
2544.65	6.12684
2546.03	6.30134
2547.4	7.00306
2548.77	7.08964
2550.15	7.38919
2551.52	7.70452
2552.89	8.12541
2554.27	8.65221
2555.64	8.91406
2557.01	8.74998
2558.38	8.73334
2559.75	8.94057
2561.12	9.29081
2562.5	9.48415
2563.87	9.53737
2565.24	9.48163
2566.61	10.0704
2567.98	9.60004
2569.35	9.68374
2570.72	9.80222
2572.09	9.23919
2573.46	9.69533
2574.83	9.6847
2576.19	9.14538
2577.56	9.2418
2578.93	8.86126
2580.3	9.24325
2581.67	9.01183
2583.04	9.28525
2584.4	9.79239
2585.77	9.85022
2587.14	9.60494
2588.5	9.5732
2589.87	9.16458
2591.23	8.95301
2592.6	8.80162
2593.97	8.23272
2595.33	8.1598
2596.7	7.48922
2598.06	7.62074
2599.43	6.97012
2600.79	6.30465
2602.15	5.69634
2603.52	6.13457
2604.88	6.09995
2606.25	5.88414
2607.61	5.69949
2608.97	5.40396
2610.33	4.61922
2611.7	4.20527
2613.06	4.70757
2614.42	4.47532
2615.78	5.33878
2617.15	4.97715
2618.51	5.7349
2619.87	6.21799
2621.23	7.06048
2622.59	7.68017
2623.95	7.83334
2625.31	7.95007
2626.67	8.75588
2628.03	9.16516
2629.39	9.27761
2630.75	9.23808
2632.1	8.80658
2633.46	9.3413
2634.82	9.83642
2636.18	10.0381
2637.54	10.9331
2638.89	11.0952
2640.25	10.8546
2641.61	10.8571
2642.97	11.1782
2644.32	10.8114
2645.68	11.4011
2647.03	11.6064
2648.39	11.6469
2649.75	11.8609
2651.1	12.1919
2652.46	12.2489
2653.81	11.4141
2655.17	11.1027
2656.52	11.3624
2657.88	11.1914
2659.23	11.3045
2660.58	10.6992
2661.94	10.2869
2663.29	10.1985
2664.64	9.77964
2666	9.48557
2667.35	9.05967
2668.7	9.06467
2670.05	9.00631
2671.4	9.47406
2672.76	8.9229
2674.11	8.91957
2675.46	8.01571
2676.81	8.13981
2678.16	8.17537
2679.51	8.15682
2680.86	9.06618
2682.21	9.01805
2683.56	9.56139
2684.91	9.21085
2686.26	9.7908
2687.61	9.53088
2688.96	9.55159
2690.3	9.02545
2691.65	8.26508
2693	8.37993
2694.35	8.34432
2695.7	8.05426
2697.04	8.16434
2698.39	8.53405
2699.74	8.95594
2701.08	10.4194
2702.43	11.0318
2703.77	10.5619
2705.12	9.97985
2706.47	10.366
2707.81	10.3359
2709.16	10.918
2710.5	11.7135
2711.85	11.7449
2713.19	11.7332
2714.53	11.8423
2715.88	12.1333
2717.22	12.8674
2718.57	12.5438
2719.91	12.5474
2721.25	12.5722
2722.59	13.4632
2723.94	14.1992
2725.28	14.3661
2726.62	13.9742
2727.96	13.8935
2729.3	13.6923
2730.65	13.4357
2731.99	13.3678
2733.33	12.8065
2734.67	13.4535
2736.01	13.5295
2737.35	12.9414
2738.69	12.8117
2740.03	12.7042
2741.37	12.3409
2742.71	11.9758
2744.05	12.2154
2745.38	12.0035
2746.72	11.4249
2748.06	11.4233
2749.4	10.7648
2750.74	10.3611
2752.07	9.77914
2753.41	9.69923
2754.75	9.97245
2756.09	9.63802
2757.42	9.2128
2758.76	8.85241
2760.09	9.38574
2761.43	9.29872
2762.77	8.76907
2764.1	8.49012
2765.44	8.55501
2766.77	8.21894
2768.11	7.70921
2769.44	6.09069
2770.77	5.05936
2772.11	4.9625
2773.44	5.20471
2774.77	4.90992
2776.11	4.81186
2777.44	4.83825
2778.77	5.04924
2780.11	4.71112
2781.44	4.61404
2782.77	4.36862
2784.1	3.72167
2785.43	2.51364
2786.77	2.66486
2788.1	1.95608
2789.43	2.08752
2790.76	1.70084
2792.09	1.35578
2793.42	1.20332
2794.75	0.933632
2796.08	0.576273
2797.41	1.25595
2798.74	1.74557
2800.07	1.6032
2801.4	2.46898
2802.72	2.31458
2804.05	2.31198
2805.38	2.86728
2806.71	2.92243
2808.04	2.69296
2809.36	2.88297
2810.69	2.66939
2812.02	2.96037
2813.34	3.23282
2814.67	3.6101
2816	4.57646
2817.32	5.24386
2818.65	6.47143
2819.97	7.78827
2821.3	8.85402
2822.62	9.66181
2823.95	10.85
2825.27	11.4133
2826.6	12.6735
2827.92	13.4955
2829.25	14.5171
2830.57	16.0416
2831.89	17.5752
2833.22	19.0074
2834.54	20.4941
2835.86	22.7095
2837.18	25.2967
2838.51	27.7236
2839.83	30.0969
2841.15	32.1121
2842.47	34.4673
2843.79	37.3284
2845.11	38.9746
2846.43	40.8402
2847.76	43.2171
2849.08	45.5836
2850.4	47.2965
2851.72	49.724
2853.04	53.1543
2854.36	55.8446
2855.67	58.414
2856.99	60.6059
2858.31	62.8345
2859.63	65.2605
2860.95	67.0763
2862.27	69.5109
2863.58	71.3165
2864.9	72.2819
2866.22	73.7231
2867.54	75.684
2868.85	76.8013
2870.17	77.455
2871.49	78.4965
2872.8	79.7129
2874.12	81.0008
2875.43	82.3209
2876.75	83.1257
2878.07	84.1113
2879.38	85.5385
2880.7	86.6153
2882.01	88.4002
2883.32	89.6207
2884.64	91.0535
2885.95	91.5724
2887.27	92.1271
2888.58	92.9677
2889.89	93.1036
2891.21	93.4144
2892.52	95.2212
2893.83	96.9734
2895.14	98.3981
2896.46	100.692
2897.77	102.182
2899.08	104.234
2900.39	106.147
2901.7	108.271
2903.01	109.698
2904.32	111.385
2905.63	113.357
2906.94	115.425
2908.25	118.309
2909.56	120.443
2910.87	122.404
2912.18	124.864
2913.49	127.061
2914.8	129.14
2916.11	131.428
2917.42	133.732
2918.72	135.321
2920.03	136.749
2921.34	137.88
2922.65	139.53
2923.95	141.14
2925.26	141.699
2926.57	142.029
2927.88	142.336
2929.18	142.617
2930.49	142.286
2931.79	142.408
2933.1	142.19
2934.4	141.282
2935.71	140.359
2937.01	139.39
2938.32	137.514
2939.62	136.273
2940.93	134.38
2942.23	132.666
2943.54	130.849
2944.84	129.642
2946.14	127.047
2947.45	124.679
2948.75	121.567
2950.05	118.594
2951.35	115.304
2952.66	112.542
2953.96	109.833
2955.26	107.333
2956.56	104.826
2957.86	102.524
2959.16	100.008
2960.46	97.0858
2961.77	94.4632
2963.07	90.9369
2964.37	88.316
2965.66	85.2764
2966.96	82.1643
2968.26	79.5388
2969.56	77.0822
2970.86	74.8432
2972.16	72.3822
2973.46	70.375
2974.76	67.9577
2976.06	65.5934
2977.35	63.0982
2978.65	60.9892
2979.95	58.7339
2981.25	56.6336
2982.54	54.0969
2983.84	51.3727
2985.14	49.6072
2986.43	47.2405
2987.73	45.1353
2989.02	42.8076
2990.32	40.2969
2991.62	37.8341
2992.91	35.6454
2994.21	33.3801
2995.5	30.8139
2996.8	29.0579
2998.09	27.4452
2999.38	25.1971
3000.68	23.1023
3001.97	20.9893
3003.26	19.6727
3004.56	18.7515
3005.85	16.9763
3007.14	15.7457
3008.43	14.3545
3009.73	13.0016
3011.02	11.514
3012.31	10.3722
3013.6	9.18149
3014.89	8.40477
3016.19	7.29466
3017.48	6.37536
3018.77	5.57343
3020.06	4.88572
3021.35	3.67609
3022.64	3.24596
3023.93	3.02261
3025.22	2.25191
3026.5	1.87912
3027.79	1.27737
3029.08	0.879305
3030.37	0.265617
3031.66	0.455337
3032.95	0.683252
3034.24	0.341912
3035.52	0.925751
3036.81	0.546524
3038.1	0.914111
3039.39	0.822546
3040.67	0.775494
3041.96	1.08581
3043.25	1.66707
3044.53	1.77288
3045.82	1.88954
3047.1	1.42334
3048.39	1.58427
3049.67	2.10834
3050.96	2.15367
3052.24	2.32537
3053.53	2.02174
3054.81	1.39848
3056.1	1.09792
3057.38	1.50481
3058.67	1.44261
3059.95	1.75148
3061.23	1.9137
3062.52	1.79702
3063.8	1.32721
3065.08	1.41275
3066.36	1.45389
3067.65	1.67512
3068.93	1.59196
3070.21	1.12663
3071.49	1.56329
3072.77	1.17863
3074.05	0.762775
3075.33	0.86802
3076.61	0.82241
3077.89	1.0322
3079.17	0.338044
3080.45	-0.0832639
3081.73	0.194084
3083.01	-0.415677
3084.29	-0.418111
3085.57	-0.804097
3086.85	-0.502022
3088.13	-0.533134
3089.41	-0.805815
3090.68	-0.953842
3091.96	-0.96776
3093.24	-0.490379
3094.52	-0.187187
3095.79	0.266749
3097.07	-0.234994
3098.35	-0.0322445
3099.62	0.0477222
3100.9	-0.547659
3102.18	-0.417665
3103.45	-0.120053
3104.73	0.41872
3106	0.723653
3107.28	0.669247
3108.55	0.544834
3109.83	0.584274
3111.1	0.575783
3112.38	0.788493
3113.65	0.926074
3114.93	0.732753
3116.2	0.616687
3117.47	0.499613
3118.75	0.623558
3120.02	1.296
3121.29	1.5565
3122.57	1.68913
3123.84	1.82224
3125.11	1.6666
3126.38	1.82189
3127.65	2.08198
3128.92	2.32789
3130.2	2.34455
3131.47	2.43159
3132.74	2.63864
3134.01	2.40481
3135.28	3.01366
3136.55	2.6925
3137.82	3.02525
3139.09	3.41444
3140.36	3.59173
3141.63	3.7732
3142.9	4.06014
3144.17	4.59366
3145.43	5.12873
3146.7	6.43882
3147.97	6.87483
3149.24	8.13743
