#Acq. time (s)=	45
#Accumulations=	2
#Range (cm-¹)=	200...3150
#Windows=	2
#Auto scanning=	Off
#Autofocus=	Off
#Macrospot=	Off
#AutoExposure=	Off
#Spike filter=	Multiple accum.
#Delay time (s)=	0
#Binning=	1
#Readout mode=	Signal
#DeNoise=	Off
#ICS correction=	On
#Dark correction=	Off
#Inst. Process=	Off
#Detector Gain=	Best Dynamic Range
#Detector ADC=	20 kHz       
#Detector temperature (°C)=	-69.85
#Instrument=	LabRAM HR Evol
#Detector=	Synapse
#Objective=	x100
#Grating=	600 gr/mm
#ND Filter=	100%
#Laser (nm)=	532 
#Hole=	100.021
#Range=	Auto
#Laser Pol.=	No
#Raman. Pol.=	No
#Laser Pol. (°)=	-0.0007625
#Raman Pol. (°)=	89.9995
#Collection=	Microscope
#StageXY=	Marzhauser
#StageZ=	Marzhauser
#X (µm)=	-1064.4
#Y (µm)=	650.5
#Z (µm)=	584.55
#Full time(mm:ss)=	3:18
#Project=	
#Sample=	
#Site=	
#Title=	Mb_40_y_16_2x_45s_532 nm_x100_100%_600 gr_mm
#Remark=	
#Date=	19.07.2022 10:20
#Acquired=	19.07.2022 10:20:52
#Base:Fit=	10.08.2022 10:52:48
#Base:Sub=	10.08.2022 10:52:53
#Filter:Polynom=	16.08.2022 10:09:04
#AxisType[0]=Intens
#AxisUnit[0]=Cnt
#AxisType[1]=Spectr
#AxisUnit[1]=1/cm
200.423	12.8926
202.238	12.2174
204.052	13.9414
205.868	14.866
207.682	14.774
209.495	14.3815
211.308	13.5177
213.12	11.8174
214.935	11.403
216.746	11.6113
218.558	12.0544
220.369	10.2917
222.18	9.60445
223.992	9.30843
225.802	9.79085
227.612	9.94395
229.421	11.0468
231.23	10.6135
233.039	10.6535
234.849	9.77216
236.657	10.8086
238.465	11.2802
240.272	11.1367
242.079	11.0272
243.885	10.4752
245.691	9.37195
247.497	8.81915
249.305	8.38476
251.11	8.19246
252.915	8.681
254.719	8.43315
256.523	7.69233
258.327	8.91347
260.13	8.45599
261.933	7.73638
263.736	7.63038
265.538	7.01478
267.34	7.06861
269.141	6.68779
270.943	7.28841
272.744	8.70536
274.544	7.85215
276.344	8.23567
278.144	8.7635
279.944	8.19334
281.743	8.41457
283.542	8.83083
285.34	8.80592
287.138	7.79112
288.936	7.46594
290.733	7.84376
292.53	7.98347
294.327	6.06399
296.123	5.88833
297.919	6.31044
299.715	6.55951
301.508	6.98757
303.303	7.24161
305.098	8.60893
306.892	8.39622
308.686	7.89678
310.479	7.44195
312.273	8.59519
314.065	10.2573
315.858	10.697
317.648	10.6377
319.44	11.5256
321.231	11.0544
323.022	11.9235
324.813	12.4508
326.604	13.3546
328.392	12.4369
330.181	11.5562
331.971	11.4194
333.76	11.1177
335.548	10.7855
337.335	10.6327
339.123	10.51
340.91	10.4931
342.698	9.44857
344.483	9.29482
346.269	9.004
348.055	9.42054
349.841	9.66363
351.625	9.55475
353.41	9.13922
355.195	8.43841
356.977	7.59335
358.762	6.72974
360.545	6.26831
362.329	6.20462
364.11	5.21263
365.893	5.06999
367.675	4.05408
369.455	2.437
371.237	2.50506
373.017	2.3688
374.798	2.02766
376.578	1.43237
378.357	1.77276
380.137	1.44523
381.917	0.950289
383.694	1.69645
385.473	2.36566
387.249	2.63125
389.028	3.66723
390.806	3.62738
392.581	3.81009
394.359	4.37546
396.134	4.66365
397.91	5.57732
399.684	6.02462
401.46	7.31615
403.234	7.95223
405.009	7.79924
406.784	8.28332
408.557	9.66026
410.331	10.3193
412.103	10.5736
413.876	11.188
415.647	10.479
417.42	10.4521
419.191	10.5001
420.961	10.7543
422.733	11.2866
424.502	11.1335
426.273	11.8512
428.042	12.6441
429.812	12.6527
431.58	12.3119
433.35	12.4477
435.118	12.4352
436.885	11.955
438.653	11.7547
440.42	11.2507
442.188	10.8617
443.954	9.9227
445.719	9.80992
447.486	10.4707
449.251	9.69726
451.015	9.72714
452.781	8.85588
454.545	8.97259
456.308	8.88096
458.073	9.18461
459.836	10.1266
461.598	10.4097
463.362	9.90772
465.124	9.71179
466.885	10.6146
468.648	9.70678
470.408	10.1192
472.169	10.9878
473.929	10.5086
475.69	10.8755
477.45	11.364
479.208	11.4677
480.967	11.5152
482.727	11.5808
484.485	11.7592
486.243	11.8325
488	11.1739
489.759	12.0273
491.515	11.7757
493.272	11.7293
495.028	12.537
496.783	13.6936
498.54	14.0794
500.295	14.2908
502.05	15.1605
503.804	14.984
505.558	15.2327
507.311	15.3738
509.064	15.932
510.819	16.603
512.572	17.2884
514.324	18.5939
516.076	18.1167
517.827	18.3642
519.578	18.7102
521.329	18.9015
523.08	18.9374
524.83	19.3267
526.58	20.2177
528.329	20.2264
530.08	19.8929
531.829	19.8738
533.578	20.1265
535.326	20.3875
537.074	19.3398
538.821	19.7435
540.568	18.7673
542.315	18.4097
544.062	17.0972
545.808	16.3353
547.554	14.5048
549.299	13.0118
551.044	11.7479
552.789	11.3218
554.533	10.1933
556.278	9.20198
558.019	9.49393
559.763	8.71841
561.506	7.28534
563.249	6.41691
564.991	6.09066
566.733	5.56372
568.475	4.11366
570.217	3.60363
571.958	3.41756
573.699	2.19881
575.439	2.16169
577.177	3.18848
578.917	2.47763
580.656	1.76998
582.396	2.13806
584.134	2.07224
585.873	1.68774
587.609	1.38185
589.347	0.536166
591.084	0.512072
592.822	-0.417067
594.558	-0.171033
596.295	1.61094
598.029	1.94394
599.765	2.6158
601.5	2.78532
603.235	3.04969
604.968	3.96022
606.703	5.1655
608.437	6.64586
610.171	7.71485
611.902	8.20005
613.635	9.27803
615.368	9.65787
617.099	10.0126
618.831	10.8539
620.563	11.5723
622.294	12.3933
624.024	12.3374
625.755	12.2803
627.485	12.1024
629.213	12.8134
630.943	13.1592
632.673	13.2134
634.4	13.9079
636.129	15.7496
637.855	15.9763
639.584	15.078
641.312	15.4024
643.037	15.8739
644.764	15.8262
646.491	15.3848
648.216	15.9552
649.942	15.8806
651.666	16.2238
653.392	16.3266
655.115	15.534
656.84	15.9873
658.563	15.6162
660.287	15.0683
662.011	14.842
663.732	14.436
665.456	13.4113
667.177	12.6994
668.899	12.9833
670.62	12.7943
672.342	12.3325
674.061	12.1178
675.781	12.4572
677.502	13.1017
679.22	12.7347
680.941	13.845
682.659	14.8806
684.379	15.0491
686.096	16.6613
687.815	18.4868
689.532	19.8832
691.248	19.6391
692.966	21.5838
694.682	23.1222
696.4	23.9293
698.115	25.1046
699.829	27.191
701.546	28.1417
703.26	29.9164
704.974	31.5005
706.689	31.9083
708.402	33.65
710.115	34.5151
711.83	35.5287
713.542	37.0681
715.254	38.8359
716.967	39.9659
718.679	40.4455
720.39	40.4184
722.102	40.0543
723.812	39.3857
725.522	39.0668
727.232	39.7403
728.943	39.9615
730.652	40.9144
732.361	41.184
734.069	42.1987
735.779	42.2636
737.487	43.0513
739.194	43.9567
740.901	44.3121
742.608	45.2953
744.316	45.7105
746.022	46.401
747.728	47.6049
749.433	48.8055
751.138	49.2029
752.843	50.1687
754.549	52.452
756.254	53.1213
757.957	54.1783
759.661	55.7181
761.364	57.5347
763.067	58.6574
764.769	59.9934
766.471	61.2722
768.175	63.1545
769.877	64.9624
771.578	65.8053
773.279	67.1245
774.98	67.8896
776.68	68.9786
778.38	71.7246
780.079	71.9734
781.779	72.3985
783.478	73.7332
785.176	74.4631
786.875	74.8513
788.573	75.8527
790.27	76.0988
791.968	75.5418
793.665	76.9308
795.361	75.9276
797.058	75.8251
798.754	75.439
800.45	75.2591
802.145	73.6317
803.84	73.2601
805.535	71.7443
807.23	72.5502
808.922	71.9492
810.616	71.4942
812.309	72.0925
814.002	72.4959
815.695	73.5863
817.388	72.6934
819.08	72.13
820.772	72.3017
822.464	72.5873
824.153	72.3702
825.844	71.7697
827.535	71.5003
829.225	72.0255
830.915	71.7396
832.605	72.2291
834.292	71.5682
835.981	71.6785
837.67	71.6977
839.359	71.2919
841.047	69.7503
842.732	70.0532
844.42	70.731
846.107	70.9681
847.794	70.3022
849.479	69.4306
851.165	68.6308
852.851	68.7049
854.534	67.9953
856.22	67.9707
857.905	67.1746
859.589	65.1494
861.272	64.4366
862.956	62.847
864.639	61.1257
866.321	60.8203
868.004	60.8353
869.687	59.7701
871.367	58.948
873.049	58.2572
874.731	57.3452
876.41	56.3312
878.092	56.5841
879.771	55.4844
881.451	55.7342
883.131	55.6392
884.809	55.6307
886.489	54.8159
888.166	55.4684
889.845	55.0792
891.522	55.9497
893.2	55.3315
894.878	56.0382
896.554	55.8297
898.231	55.6385
899.906	56.0943
901.583	55.1552
903.258	55.9709
904.934	56.4376
906.608	54.7541
908.283	53.8732
909.956	54.0497
911.631	54.0663
913.304	54.0387
914.976	53.2195
916.65	52.9416
918.322	52.716
919.995	52.2739
921.666	51.4218
923.339	51.2542
925.009	51.5166
926.679	52.1464
928.351	51.2812
930.021	50.0173
931.692	48.2936
933.361	48.3314
935.029	47.5322
936.699	46.9481
938.367	45.9973
940.035	44.8856
941.704	44.0656
943.371	43.6712
945.038	43.9349
946.706	43.3434
948.372	42.8022
950.038	43.8972
951.705	44.3653
953.37	44.1606
955.035	43.9817
956.7	44.8193
958.366	45.9002
960.03	46.5422
961.693	46.1987
963.357	46.8026
965.021	47.3996
966.684	47.5998
968.346	47.4914
970.008	47.3219
971.67	47.162
973.334	47.3252
974.995	48.3588
976.655	48.7659
978.316	49.3861
979.976	48.7622
981.638	48.3719
983.297	48.3209
984.957	47.2543
986.616	45.8413
988.274	44.1858
989.932	42.2144
991.59	42.3672
993.248	41.7681
994.907	40.519
996.565	39.3674
998.221	36.8967
999.878	34.8606
1001.53	32.5303
1003.19	30.351
1004.85	28.7022
1006.5	29.261
1008.16	31.3498
1009.81	34.1111
1011.46	38.6712
1013.12	44.4769
1014.77	52.451
1016.43	60.3344
1018.08	68.1549
1019.73	77.2986
1021.38	85.0538
1023.04	92.6274
1024.69	101.875
1026.34	109.603
1027.99	117.016
1029.64	124.625
1031.29	130.97
1032.94	137.547
1034.59	141.439
1036.24	145.178
1037.89	148.976
1039.54	152.057
1041.19	154.038
1042.84	153.872
1044.48	154.489
1046.13	155.193
1047.78	154.695
1049.42	153.161
1051.07	151.116
1052.72	149.215
1054.36	146.979
1056.01	144.106
1057.66	140.356
1059.3	135.132
1060.94	129.089
1062.59	122.018
1064.23	114.481
1065.88	106.813
1067.52	98.2878
1069.16	90.2227
1070.81	82.3272
1072.45	72.8729
1074.09	65.2371
1075.73	56.4769
1077.38	48.6372
1079.02	40.8244
1080.66	33.3715
1082.3	26.9885
1083.94	21.9423
1085.58	19.3445
1087.22	17.8028
1088.86	18.8012
1090.5	20.4338
1092.13	21.724
1093.77	23.7087
1095.41	25.8094
1097.05	27.238
1098.68	27.7942
1100.32	29.5177
1101.96	31.2214
1103.6	31.9834
1105.23	33.8592
1106.87	35.8
1108.5	37.0376
1110.14	37.4373
1111.77	37.7484
1113.41	36.8948
1115.04	35.4908
1116.67	34.7839
1118.31	33.9063
1119.94	33.318
1121.58	31.4914
1123.21	31.4733
1124.84	29.9104
1126.47	30.0436
1128.1	29.4271
1129.73	28.9842
1131.37	27.8761
1133	27.7281
1134.63	27.1464
1136.26	26.994
1137.89	26.0488
1139.52	25.2475
1141.14	23.7853
1142.77	22.6263
1144.4	21.2656
1146.03	19.4996
1147.66	17.7723
1149.29	16.8645
1150.91	15.9794
1152.54	15.0387
1154.17	13.682
1155.79	13.486
1157.42	11.971
1159.04	10.9979
1160.67	9.66962
1162.3	9.04401
1163.92	8.35934
1165.55	8.82488
1167.17	9.34252
1168.79	9.05294
1170.42	10.1547
1172.04	9.5843
1173.66	8.31881
1175.28	9.43229
1176.91	10.5206
1178.53	10.2964
1180.15	11.363
1181.77	12.958
1183.39	14.2321
1185.01	14.7516
1186.63	14.8227
1188.25	14.3681
1189.87	15.789
1191.49	16.3955
1193.11	15.8347
1194.73	15.8429
1196.35	16.0439
1197.97	16.6038
1199.59	15.9599
1201.2	16.9141
1202.82	16.8258
1204.44	17.9618
1206.05	18.6311
1207.67	20.5212
1209.29	21.931
1210.9	23.6215
1212.52	25.4485
1214.13	27.1267
1215.75	27.7448
1217.36	29.7932
1218.97	30.1504
1220.59	31.089
1222.2	32.1875
1223.82	33.3843
1225.43	34.2729
1227.04	35.0531
1228.65	37.054
1230.26	39.5558
1231.88	40.5366
1233.49	42.2118
1235.1	43.4375
1236.71	44.6955
1238.32	46.6533
1239.93	48.5803
1241.54	50.2132
1243.15	51.1096
1244.76	52.1031
1246.37	53.8406
1247.97	55.2758
1249.58	56.1773
1251.19	58.2128
1252.8	58.2705
1254.41	59.4628
1256.01	61.4714
1257.62	62.4977
1259.23	63.1288
1260.83	65.3886
1262.44	67.0296
1264.04	67.8414
1265.65	68.6593
1267.25	68.3041
1268.86	69.1833
1270.46	70.3072
1272.07	70.8245
1273.67	70.0031
1275.27	70.8108
1276.88	70.1595
1278.48	69.8478
1280.08	69.8473
1281.68	70.3547
1283.28	70.8837
1284.89	72.9883
1286.49	74.1348
1288.09	74.0335
1289.69	74.091
1291.29	74.6271
1292.89	74.4831
1294.49	73.7716
1296.09	73.5086
1297.69	73.7016
1299.29	73.1744
1300.88	73.8121
1302.48	73.7376
1304.08	73.2764
1305.68	73.2621
1307.27	72.9263
1308.87	73.2115
1310.47	72.4611
1312.06	71.8395
1313.66	72.6042
1315.25	71.9127
1316.85	71.2363
1318.44	72.1511
1320.04	71.6193
1321.63	71.2652
1323.23	71.7187
1324.82	71.5565
1326.41	71.6853
1328.01	71.2569
1329.6	70.1181
1331.19	69.4221
1332.78	68.0458
1334.38	67.8012
1335.97	67.2606
1337.56	66.6912
1339.15	66.4332
1340.74	65.6654
1342.33	64.1633
1343.92	63.1853
1345.51	62.1771
1347.1	61.1304
1348.69	61.0085
1350.28	59.4568
1351.87	58.6521
1353.46	57.8333
1355.04	57.5855
1356.63	56.7981
1358.22	56.5449
1359.81	55.7173
1361.39	54.8892
1362.98	55.0305
1364.57	54.5147
1366.15	53.6083
1367.74	53.055
1369.32	52.5454
1370.91	52.2743
1372.49	51.2193
1374.07	50.163
1375.66	50.0852
1377.24	48.9003
1378.83	48.8941
1380.41	47.5483
1381.99	46.6223
1383.57	45.4122
1385.16	45.7314
1386.74	45.7003
1388.32	46.011
1389.9	45.65
1391.48	46.3854
1393.06	47.2061
1394.64	47.4418
1396.22	48.0436
1397.8	48.7452
1399.38	48.418
1400.96	48.8873
1402.54	48.9948
1404.12	49.0225
1405.7	50.2287
1407.28	50.3059
1408.85	50.1512
1410.43	51.656
1412.01	53.2357
1413.58	54.4695
1415.16	54.7303
1416.74	56.1826
1418.31	58.6967
1419.89	60.7705
1421.46	62.5106
1423.04	63.8011
1424.61	65.4391
1426.19	67.4759
1427.76	70.1803
1429.33	72.3947
1430.91	75.8441
1432.48	78.9176
1434.05	81.7512
1435.63	83.9523
1437.2	85.8096
1438.77	87.2675
1440.34	88.6878
1441.91	90.6025
1443.49	92.207
1445.05	93.0887
1446.63	92.7979
1448.2	92.6418
1449.77	93.3081
1451.34	92.8308
1452.91	92.5429
1454.47	92.4251
1456.04	91.43
1457.61	90.6846
1459.18	89.1497
1460.75	89.0052
1462.31	88.1922
1463.88	87.4859
1465.45	85.6943
1467.01	84.5166
1468.58	82.4544
1470.15	80.74
1471.71	78.8308
1473.28	76.9283
1474.84	74.459
1476.41	71.8131
1477.97	69.4763
1479.54	67.2963
1481.1	64.3947
1482.66	62.6118
1484.23	59.3333
1485.79	56.6391
1487.35	54.4202
1488.91	52.2687
1490.48	49.8469
1492.04	46.9979
1493.6	44.8936
1495.16	42.8832
1496.72	40.8203
1498.28	38.2412
1499.84	35.9831
1501.4	35.5536
1502.96	35.2858
1504.52	35.1862
1506.08	34.6802
1507.64	34.5609
1509.2	33.6924
1510.76	33.11
1512.31	32.7163
1513.87	31.246
1515.43	30.0062
1516.99	28.5913
1518.54	28.1427
1520.1	28.4142
1521.66	27.8115
1523.21	27.0205
1524.77	27.0492
1526.32	27.9096
1527.88	28.7151
1529.43	28.6848
1530.99	28.9549
1532.54	29.9097
1534.09	29.1579
1535.65	28.6948
1537.2	28.9116
1538.75	28.6336
1540.31	28.9593
1541.86	28.5578
1543.41	29.3482
1544.96	29.9437
1546.51	30.3157
1548.06	31.1469
1549.62	32.2854
1551.17	32.4023
1552.72	32.3504
1554.27	32.7463
1555.82	33.299
1557.36	33.6554
1558.91	33.4818
1560.46	34.4808
1562.01	33.9585
1563.56	34.4732
1565.11	34.4296
1566.66	35.1166
1568.2	35.8665
1569.75	35.7909
1571.3	36.5015
1572.84	36.5807
1574.39	38.3036
1575.93	39.7054
1577.48	41.3291
1579.02	42.8501
1580.57	43.4061
1582.11	44.7786
1583.66	45.8481
1585.2	46.9975
1586.75	47.8496
1588.29	48.9961
1589.83	49.4213
1591.38	49.4492
1592.92	50.0911
1594.46	50.9668
1596	52.4774
1597.54	53.125
1599.09	52.5875
1600.63	53.4672
1602.17	53.3619
1603.71	52.6558
1605.25	52.022
1606.79	51.403
1608.33	50.9006
1609.87	50.1477
1611.41	49.2151
1612.95	49.3818
1614.48	49.8253
1616.02	49.8258
1617.56	50.8367
1619.1	51.6946
1620.64	52.3061
1622.17	52.134
1623.71	52.644
1625.25	53.1245
1626.78	53.7217
1628.32	54.3227
1629.86	55.3004
1631.39	55.3483
1632.92	56.1833
1634.46	56.5262
1635.99	57.402
1637.53	58.8022
1639.06	58.9671
1640.59	60.4193
1642.13	61.4319
1643.66	62.2572
1645.19	62.7854
1646.73	62.7799
1648.26	63.8949
1649.79	64.5077
1651.32	64.9086
1652.85	64.7514
1654.38	64.9687
1655.92	65.1844
1657.45	65.4063
1658.98	65.2959
1660.51	65.337
1662.04	64.3329
1663.57	64.1063
1665.09	62.9858
1666.62	62.4632
1668.15	60.8797
1669.68	59.5909
1671.21	58.0804
1672.73	55.6159
1674.26	52.8913
1675.79	50.0266
1677.31	48.174
1678.84	45.1369
1680.37	43.3498
1681.89	41.995
1683.42	39.7138
1684.94	37.4246
1686.47	35.6378
1687.99	34.3766
1689.52	32.0345
1691.04	30.3149
1692.57	27.7941
1694.09	26.0677
1695.61	23.6923
1697.14	21.8653
1698.66	20.4382
1700.18	18.9747
1701.7	17.7214
1703.22	16.1157
1704.75	14.4091
1706.27	12.9104
1707.79	12.2344
1709.31	12.5967
1710.83	10.6725
1712.35	10.4602
1713.87	10.0567
1715.39	9.32376
1716.91	8.75035
1718.43	7.35893
1719.95	6.44503
1721.46	5.54938
1722.98	4.76875
1724.5	4.83581
1726.02	4.24392
1727.53	4.41821
1729.05	4.4566
1730.57	4.11956
1732.08	3.87151
1733.6	3.71396
1735.12	3.60387
1736.63	3.76223
1738.15	2.7281
1739.66	2.8858
1741.18	2.95219
1742.69	2.95457
1744.21	2.17126
1745.72	2.13832
1747.23	2.12674
1748.74	2.31111
1750.26	2.79476
1751.77	3.0135
1753.28	3.80818
1754.8	3.15224
1756.31	3.19377
1757.82	2.46906
1759.33	1.45913
1760.84	1.33044
1762.35	1.4488
1763.86	1.3283
1765.37	0.556672
1766.88	0.914483
1768.39	-0.0411525
1769.9	0.209294
1771.41	-0.287087
1772.92	0.391385
1774.43	-0.0101124
1775.93	0.0578635
1777.44	0.13781
1778.95	-0.0566561
1780.46	0.103952
1781.96	0.503119
1783.47	1.35916
1784.98	1.03263
1786.48	0.231105
1787.99	0.681236
1789.49	0.350824
1791	-0.0579886
1792.5	-0.730713
1794.01	-0.501715
1795.51	-0.526289
1797.02	-0.651529
1798.52	-0.625069
1800.03	-0.12052
1801.53	-0.133164
1803.03	0.392387
1804.53	0.155088
1806.04	-0.190043
1807.54	-0.0682789
1809.04	0.08696
1810.54	0.521248
1812.04	0.340345
1813.54	0.542969
1815.05	1.21848
1816.55	1.80882
1818.05	2.00904
1819.55	1.92119
1821.05	1.93591
1822.55	2.10997
1824.05	2.65843
1825.54	2.57699
1827.04	2.12592
1828.54	1.43397
1830.04	0.429889
1831.54	0.558186
1833.03	0.969252
1834.53	0.928194
1836.03	1.54675
1837.52	1.78338
1839.02	1.51662
1840.52	1.43428
1842.01	1.45576
1843.51	0.942325
1845	1.5409
1846.5	1.60401
1847.99	1.61127
1849.49	0.860813
1850.98	0.776106
1852.47	0.406622
1853.97	0.38195
1855.46	0.255719
1856.95	0.601936
1858.45	0.796246
1859.94	0.483737
1861.43	1.17372
1862.92	0.741962
1864.41	0.738983
1865.91	0.87065
1867.4	0.993132
1868.89	1.82065
1870.38	1.73607
1871.87	1.88394
1873.36	2.16088
1874.85	2.56992
1876.34	2.33447
1877.83	3.43236
1879.31	3.22123
1880.8	3.26135
1882.29	3.65986
1882.56	3.51072
1884.05	3.57144
1885.54	3.74155
1887.04	3.82708
1888.53	3.62044
1890.03	3.53734
1891.52	3.7497
1893.01	3.81557
1894.5	3.94728
1895.99	4.14719
1897.49	3.86545
1898.98	3.47202
1900.47	3.3613
1901.96	3.06008
1903.45	3.22497
1904.94	3.4119
1906.43	4.20434
1907.92	3.85204
1909.41	4.3826
1910.9	4.54115
1912.39	4.68324
1913.88	4.90535
1915.37	4.32189
1916.86	4.35812
1918.35	4.18992
1919.84	3.38616
1921.32	2.53213
1922.81	2.95503
1924.3	3.04163
1925.78	2.71799
1927.27	3.35802
1928.76	3.54212
1930.24	4.26752
1931.73	4.68552
1933.21	4.53461
1934.7	4.5533
1936.18	3.80658
1937.67	4.5694
1939.15	4.05174
1940.64	4.19553
1942.12	4.05999
1943.6	4.0879
1945.09	3.90473
1946.57	4.04888
1948.05	3.96752
1949.54	4.34718
1951.02	5.4691
1952.5	4.6792
1953.98	5.0511
1955.46	4.94553
1956.94	4.83328
1958.42	4.77917
1959.91	4.91529
1961.39	4.70295
1962.87	5.02008
1964.34	5.76767
1965.82	5.92063
1967.3	5.57274
1968.78	5.74632
1970.26	5.01775
1971.74	4.28839
1973.22	4.76974
1974.7	4.81848
1976.17	4.36136
1977.65	4.4425
1979.13	4.33387
1980.6	5.20757
1982.08	4.95483
1983.56	5.13677
1985.03	4.87756
1986.51	4.40149
1987.98	3.66458
1989.46	3.13884
1990.93	3.01396
1992.41	2.57958
1993.88	1.73794
1995.36	2.56817
1996.83	3.30755
1998.3	2.42675
1999.78	2.59664
2001.25	3.26911
2002.72	3.01753
2004.2	3.3331
2005.67	3.36553
2007.14	2.80524
2008.61	3.5791
2010.08	4.10006
2011.55	4.62981
2013.02	4.99565
2014.49	5.65545
2015.97	6.52199
2017.43	7.12107
2018.9	7.38483
2020.37	8.78198
2021.84	10.0352
2023.31	10.9969
2024.78	11.7659
2026.25	11.8034
2027.72	12.3961
2029.19	12.485
2030.65	12.4253
2032.12	12.2553
2033.59	12.8231
2035.05	13.7013
2036.52	13.914
2037.98	13.8161
2039.45	13.7597
2040.92	13.9405
2042.38	13.7735
2043.85	12.9134
2045.31	13.576
2046.78	13.7055
2048.24	13.4337
2049.71	12.6165
2051.17	12.9298
2052.63	13.0597
2054.1	14.1448
2055.56	13.8292
2057.02	13.2575
2058.48	13.0086
2059.95	13.0055
2061.41	12.4391
2062.87	12.1771
2064.33	12.424
2065.79	13.0624
2067.25	13.8323
2068.71	14.3075
2070.17	14.1423
2071.63	14.2579
2073.09	14.5204
2074.55	15.7719
2076.01	16.4377
2077.47	17.0928
2078.93	17.5603
2080.39	17.937
2081.85	18.8572
2083.3	19.3216
2084.76	20.4586
2086.22	21.3729
2087.68	21.6991
2089.13	22.9547
2090.59	23.3015
2092.05	24.1044
2093.5	24.7133
2094.96	25.2745
2096.41	25.9725
2097.87	26.9005
2099.32	27.4746
2100.78	27.996
2102.23	28.5487
2103.69	29.2218
2105.14	30.058
2106.59	31.8141
2108.05	33.1124
2109.5	32.8839
2110.95	33.992
2112.41	35.0002
2113.86	35.4184
2115.31	35.767
2116.76	36.4807
2118.21	37.8526
2119.67	37.972
2121.12	39.4678
2122.57	40.7985
2124.02	43.3878
2125.47	44.6175
2126.92	46.0132
2128.37	46.8236
2129.82	48.1755
2131.27	50.2041
2132.71	51.9545
2134.16	53.5279
2135.61	55.5719
2137.06	57.4149
2138.51	59.0063
2139.95	60.5268
2141.4	61.7388
2142.85	63.1783
2144.29	64.7628
2145.74	65.6944
2147.19	67.8433
2148.63	68.7417
2150.08	70.1252
2151.52	71.3876
2152.97	72.6382
2154.42	74.204
2155.86	75.9301
2157.3	77.154
2158.75	78.0562
2160.19	78.9406
2161.64	80.2754
2163.08	81.5393
2164.52	83.002
2165.96	83.9412
2167.41	84.918
2168.85	85.009
2170.29	85.5514
2171.73	85.1309
2173.17	85.287
2174.61	84.8335
2176.06	84.6785
2177.5	83.9604
2178.94	84.4282
2180.38	82.8445
2181.82	81.2582
2183.26	80.0745
2184.7	79.1363
2186.14	77.8571
2187.57	76.7913
2189.01	75.4699
2190.45	74.1982
2191.89	73.3419
2193.33	72.3164
2194.76	71.2921
2196.2	69.9713
2197.64	68.2245
2199.08	66.265
2200.51	65.0776
2201.95	63.6999
2203.38	62.2916
2204.82	60.5494
2206.25	58.6125
2207.69	56.477
2209.12	55.4724
2210.56	54.6452
2211.99	53.5904
2213.43	51.6547
2214.86	50.0377
2216.3	49.2052
2217.73	48.3529
2219.16	47.3349
2220.59	45.6725
2222.03	44.5252
2223.46	43.363
2224.89	43.2254
2226.32	43.579
2227.75	42.5426
2229.19	41.462
2230.62	41.3308
2232.05	40.578
2233.48	39.6023
2234.91	38.7284
2236.34	37.2401
2237.77	35.7053
2239.2	34.9103
2240.63	33.5292
2242.06	32.3406
2243.48	30.7506
2244.91	30.0796
2246.34	29.3815
2247.77	28.5302
2249.2	27.9147
2250.62	28.0509
2252.05	26.3359
2253.48	25.8023
2254.9	25.5128
2256.33	25.0374
2257.76	24.0273
2259.18	23.3426
2260.61	22.361
2262.03	21.9481
2263.46	21.4662
2264.88	20.6181
2266.31	20.64
2267.73	19.4076
2269.16	19.0566
2270.58	18.0359
2272	18.1302
2273.43	18.1871
2274.85	18.5621
2276.27	18.4289
2277.69	18.3934
2279.12	18.7644
2280.54	18.7739
2281.96	18.5685
2283.38	18.4864
2284.8	18.4802
2286.22	18.6534
2287.64	17.897
2289.07	17.9715
2290.49	17.1851
2291.91	16.3098
2293.32	16.3304
2294.74	16.6577
2296.16	17.1202
2297.58	16.9074
2299	16.1161
2300.42	16.7163
2301.84	16.8171
2303.26	16.694
2304.67	15.8996
2306.09	15.9802
2307.51	15.6819
2308.92	15.4367
2310.34	15.4887
2311.76	15.1477
2313.17	15.2731
2314.59	15.3594
2316	15.8637
2317.42	16.0713
2318.83	15.5648
2320.25	15.6079
2321.66	14.9605
2323.08	14.7304
2324.49	14.4759
2325.91	13.9748
2327.32	13.0679
2328.73	12.7073
2330.15	12.119
2331.56	11.5543
2332.97	11.3824
2334.38	11.2982
2335.79	11.7619
2337.21	11.4423
2338.62	11.3541
2340.03	12.4926
2341.44	11.6155
2342.85	11.6764
2344.26	11.3992
2345.67	10.8312
2347.08	9.73523
2348.49	8.99549
2349.9	8.71337
2351.31	8.49044
2352.72	9.18042
2354.13	8.73139
2355.53	8.19407
2356.94	6.99286
2358.35	6.72032
2359.76	7.0209
2361.17	6.8978
2362.57	6.54141
2363.98	7.22682
2365.39	8.17775
2366.79	8.70803
2368.2	8.88952
2369.6	9.25164
2371.01	9.17661
2372.42	8.10386
2373.82	8.11123
2375.22	6.80486
2376.63	6.46463
2378.03	6.2198
2379.44	5.66185
2380.84	5.45058
2382.25	4.72581
2383.65	4.2246
2385.05	3.91846
2386.45	3.69196
2387.86	3.38388
2389.26	3.40935
2390.66	2.60067
2392.06	2.57012
2393.46	2.4461
2394.87	1.85983
2396.27	1.67896
2397.67	1.68621
2399.07	1.86508
2400.47	2.13782
2401.87	2.43195
2403.27	3.06602
2404.67	3.45089
2406.07	3.43305
2407.47	2.74384
2408.86	2.83345
2410.26	2.90612
2411.66	2.22069
2413.06	2.31387
2414.46	2.30416
2415.85	2.52051
2417.25	3.08154
2418.65	3.90002
2420.05	4.61501
2421.44	5.30689
2422.84	6.28214
2424.23	6.08055
2425.63	6.97354
2427.03	7.48244
2428.42	8.75826
2429.82	9.47829
2431.21	9.5487
2432.6	9.46795
2434	10.3926
2435.39	10.6845
2436.79	10.5091
2438.18	9.8542
2439.57	9.69409
2440.97	9.28042
2442.36	9.04141
2443.75	9.28034
2445.14	8.73133
2446.54	8.68814
2447.93	8.90893
2449.32	9.13118
2450.71	8.78859
2452.1	8.91364
2453.49	9.16875
2454.88	9.1734
2456.27	9.02982
2457.66	9.27282
2459.05	9.0942
2460.44	8.68782
2461.83	9.21425
2463.22	8.98928
2464.61	8.99994
2466	8.57774
2467.39	8.73985
2468.77	8.36425
2470.16	8.07643
2471.55	7.95231
2472.94	7.63067
2474.32	7.52799
2475.71	7.19631
2477.1	6.63553
2478.48	6.24764
2479.87	5.59598
2481.25	5.49802
2482.64	5.22928
2484.02	5.44855
2485.41	5.22506
2486.8	5.20153
2488.18	4.60791
2489.56	3.91198
2490.95	3.34379
2492.33	3.01505
2493.72	2.40868
2495.1	2.66598
2496.48	2.66014
2497.86	2.34034
2499.25	1.58058
2500.63	1.31301
2502.01	1.61847
2503.39	1.82636
2504.77	1.4026
2506.16	0.855918
2507.54	0.996477
2508.92	0.814009
2510.3	1.82364
2511.68	2.00215
2513.06	2.17779
2514.44	2.35345
2515.82	2.8581
2517.2	3.51264
2518.58	3.18931
2519.95	2.99342
2521.33	3.50707
2522.71	3.92973
2524.09	4.96601
2525.47	4.95785
2526.84	5.46459
2528.22	5.95831
2529.6	5.99712
2530.98	6.27585
2532.35	6.60583
2533.73	6.93423
2535.11	7.12339
2536.48	7.62569
2537.86	7.43115
2539.23	7.88262
2540.61	8.20089
2541.98	8.59693
2543.36	8.8074
2544.73	8.47518
2546.1	8.35122
2547.48	8.53721
2548.85	9.06517
2550.23	9.82479
2551.6	9.43528
2552.97	9.04639
2554.34	8.06757
2555.72	7.44413
2557.09	7.47528
2558.46	7.01249
2559.83	7.23352
2561.2	7.58595
2562.58	7.24705
2563.95	7.05171
2565.32	6.69467
2566.69	6.08886
2568.06	5.63283
2569.43	5.92535
2570.8	5.42228
2572.17	5.41006
2573.54	4.91229
2574.91	4.58431
2576.27	4.81994
2577.64	4.76007
2579.01	5.33113
2580.38	4.33877
2581.75	3.90513
2583.11	3.26043
2584.48	3.08349
2585.85	2.35102
2587.21	2.21366
2588.58	2.43313
2589.95	2.29143
2591.31	2.5501
2592.68	2.37381
2594.04	1.72305
2595.41	1.93943
2596.78	1.70314
2598.14	1.51012
2599.51	1.47125
2600.87	1.44864
2602.23	1.82751
2603.6	1.90472
2604.96	1.96189
2606.32	2.00401
2607.69	2.36127
2609.05	2.73893
2610.41	3.12229
2611.77	3.24045
2613.14	3.46332
2614.5	3.91685
2615.86	3.96391
2617.22	4.13139
2618.58	4.16244
2619.94	4.15168
2621.3	4.30077
2622.67	4.56176
2624.03	4.97173
2625.39	5.04883
2626.75	4.92274
2628.1	5.08088
2629.46	5.02604
2630.82	4.51298
2632.18	4.40617
2633.54	4.58978
2634.9	5.31579
2636.26	5.3782
2637.61	5.90806
2638.97	5.66464
2640.33	5.87758
2641.69	5.75412
2643.04	6.15869
2644.4	5.64461
2645.76	5.71396
2647.11	5.38159
2648.47	5.20427
2649.82	4.86142
2651.18	4.84999
2652.53	5.55303
2653.89	5.40798
2655.24	5.35426
2656.6	5.16222
2657.95	4.95833
2659.31	5.38532
2660.66	5.33328
2662.01	5.39917
2663.37	5.08034
2664.72	5.34058
2666.07	5.26601
2667.43	5.03515
2668.78	5.69391
2670.13	5.23079
2671.48	4.86816
2672.83	4.73147
2674.18	5.02929
2675.53	5.18766
2676.89	5.43493
2678.24	5.51534
2679.59	5.42473
2680.94	5.8076
2682.29	6.18697
2683.64	6.59269
2684.99	6.97436
2686.34	7.35154
2687.68	7.141
2689.03	7.58307
2690.38	7.64835
2691.73	7.592
2693.08	8.11295
2694.43	8.9465
2695.77	8.64914
2697.12	8.77768
2698.47	8.56415
2699.81	8.93866
2701.16	9.58138
2702.51	9.65299
2703.85	9.40924
2705.2	9.9446
2706.54	10.0947
2707.89	10.113
2709.23	10.343
2710.58	10.3493
2711.92	9.7779
2713.27	10.0745
2714.61	10.0883
2715.96	10.015
2717.3	10.3432
2718.64	9.87773
2719.99	9.82252
2721.33	9.6195
2722.67	9.81345
2724.01	9.91492
2725.36	9.69829
2726.7	9.64071
2728.04	9.234
2729.38	8.73301
2730.72	8.37399
2732.06	8.1563
2733.41	7.89512
2734.75	7.7566
2736.09	7.94042
2737.43	7.04531
2738.77	7.54972
2740.11	7.51028
2741.44	7.28615
2742.78	7.53403
2744.12	8.08487
2745.46	8.30308
2746.8	8.52447
2748.14	9.08612
2749.48	9.1137
2750.81	8.75359
2752.15	8.02502
2753.49	8.19987
2754.83	8.0576
2756.16	8.61878
2757.5	8.29986
2758.84	8.31669
2760.17	7.77425
2761.51	7.01099
2762.84	6.87245
2764.18	7.02762
2765.51	6.95591
2766.85	7.11334
2768.18	7.26045
2769.52	7.32292
2770.85	6.99033
2772.19	7.22334
2773.52	6.29112
2774.85	5.60216
2776.19	5.42311
2777.52	5.51197
2778.85	5.10197
2780.18	4.6164
2781.52	4.11406
2782.85	3.49716
2784.18	2.8592
2785.51	1.72922
2786.84	2.40677
2788.17	1.95593
2789.51	1.34229
2790.84	1.18935
2792.17	0.770829
2793.5	0.276718
2794.83	-0.0791948
2796.16	-0.898725
2797.48	-0.717052
2798.81	-0.923576
2800.14	-0.418459
2801.47	-0.749604
2802.8	-0.627219
2804.13	-1.41893
2805.46	-1.38805
2806.79	-1.2999
2808.11	-0.978318
2809.44	-0.445406
2810.77	-0.466217
2812.09	-0.491002
2813.42	0.0292384
2814.75	0.882167
2816.07	1.70375
2817.4	2.10807
2818.73	4.18918
2820.05	6.13675
2821.38	7.71282
2822.7	9.58668
2824.03	11.1214
2825.35	13.4064
2826.67	15.8181
2828	19.0595
2829.32	22.1843
2830.65	24.6798
2831.97	27.0602
2833.29	29.6652
2834.62	32.4185
2835.94	35.0708
2837.26	37.5797
2838.58	40.7423
2839.9	43.4262
2841.23	46.8268
2842.55	50.0324
2843.87	52.9043
2845.19	55.2815
2846.51	58.3791
2847.83	61.5234
2849.15	64.5782
2850.47	68.5615
2851.79	72.129
2853.11	76.1768
2854.43	79.5256
2855.75	82.8314
2857.07	85.8864
2858.39	88.6985
2859.71	92.0966
2861.02	95.4176
2862.34	98.6001
2863.66	101.762
2864.98	104.066
2866.3	106.654
2867.61	108.041
2868.93	110.371
2870.25	112.085
2871.56	114.373
2872.88	116.587
2874.19	118.644
2875.51	120.671
2876.83	122.066
2878.14	123.844
2879.46	125.235
2880.77	126.529
2882.09	127.616
2883.4	128.938
2884.71	130.151
2886.03	131.557
2887.34	132.398
2888.65	133.178
2889.97	134.518
2891.28	135.856
2892.59	137.408
2893.91	138.499
2895.22	139.543
2896.53	140.631
2897.84	141.517
2899.15	142.632
2900.46	144.796
2901.78	146.593
2903.09	148.356
2904.4	150.446
2905.71	152.847
2907.02	155.524
2908.33	157.79
2909.64	161.063
2910.95	164.37
2912.26	167.652
2913.57	170.767
2914.87	174.008
2916.18	177.74
2917.49	180.45
2918.8	183.095
2920.11	185.878
2921.42	187.863
2922.72	190.043
2924.03	192.62
2925.34	194.403
2926.64	196.354
2927.95	197.55
2929.26	198.751
2930.56	198.819
2931.87	198.483
2933.17	198.635
2934.48	199.09
2935.78	198.178
2937.09	197.464
2938.39	195.949
2939.7	193.723
2941	192.316
2942.31	190.195
2943.61	187.907
2944.91	185.226
2946.22	182.297
2947.52	179.413
2948.82	176.035
2950.13	172.064
2951.43	168.839
2952.73	164.503
2954.03	161.034
2955.33	157.2
2956.64	153.114
2957.94	148.838
2959.24	144.738
2960.54	140.561
2961.84	136.551
2963.14	132.842
2964.44	129.177
2965.74	126.459
2967.04	122.773
2968.34	119.523
2969.64	115.89
2970.94	112.558
2972.24	109.045
2973.53	105.38
2974.83	102.124
2976.13	97.7294
2977.43	94.0725
2978.73	90.1779
2980.02	86.9059
2981.32	83.4971
2982.62	79.9228
2983.91	76.4716
2985.21	73.3527
2986.51	69.1345
2987.8	65.8013
2989.1	62.9379
2990.4	59.742
2991.69	57.1247
2992.99	53.2307
2994.28	49.9719
2995.57	46.5059
2996.87	43.7319
2998.16	41.466
2999.46	38.5761
3000.75	35.9469
3002.05	33.6901
3003.34	30.9901
3004.63	29.163
3005.92	28.1823
3007.22	25.7843
3008.51	23.871
3009.8	22.332
3011.09	20.3065
3012.39	19.0075
3013.68	17.1476
3014.97	15.995
3016.26	15.2651
3017.55	14.3828
3018.84	13.338
3020.13	12.5663
3021.42	12.6312
3022.71	11.8857
3024	11.8863
3025.29	11.3294
3026.58	11.1319
3027.87	10.5848
3029.16	10.2942
3030.45	10.4738
3031.73	10.6457
3033.02	10.4484
3034.31	9.96454
3035.6	9.8586
3036.89	10.2538
3038.17	10.6083
3039.46	10.8195
3040.75	11.2576
3042.03	11.8516
3043.32	12.3962
3044.61	13.1511
3045.89	13.0746
3047.18	13.2908
3048.46	12.6118
3049.75	12.3912
3051.03	11.7001
3052.32	11.7938
3053.6	11.5063
3054.89	10.9381
3056.17	10.7549
3057.45	9.9021
3058.74	10.0925
3060.02	9.8842
3061.31	9.70554
3062.59	9.46851
3063.87	9.02536
3065.15	8.86447
3066.44	8.9268
3067.72	8.93815
3069	9.08817
3070.28	9.23796
3071.56	8.95192
3072.84	8.96697
3074.13	8.28858
3075.41	7.56223
3076.69	7.21742
3077.97	6.79819
3079.25	6.35433
3080.53	6.03709
3081.81	5.07908
3083.09	4.38619
3084.37	4.28304
3085.64	3.7935
3086.92	2.8443
3088.2	2.6004
3089.48	2.35866
3090.76	1.87711
3092.04	1.73759
3093.31	2.01199
3094.59	2.25846
3095.87	2.26915
3097.14	1.83596
3098.42	2.30682
3099.7	2.74552
3100.97	3.31262
3102.25	3.29524
3103.53	3.56696
3104.8	3.98549
3106.08	3.76571
3107.35	4.0424
3108.63	3.50628
3109.9	3.37389
3111.18	2.86925
3112.45	2.53724
3113.73	3.08673
3115	2.71968
3116.27	3.10025
3117.55	3.62586
3118.82	4.00735
3120.09	4.55756
3121.37	4.77654
3122.64	5.69491
3123.91	6.13378
3125.18	6.43056
3126.45	6.50889
3127.73	6.9834
3129	7.93899
3130.27	8.74728
3131.54	8.89984
3132.81	9.19696
3134.08	9.32213
3135.35	9.40321
3136.62	9.58802
3137.89	9.59653
3139.16	9.98908
3140.43	10.4085
3141.7	10.8095
3142.97	11.1849
3144.24	11.8021
3145.51	12.7371
3146.78	13.485
3148.04	14.0652
3149.31	15.313
