#Acq. time (s)=	45
#Accumulations=	2
#Range (cm-¹)=	200...3150
#Windows=	2
#Auto scanning=	Off
#Autofocus=	Off
#Macrospot=	Off
#AutoExposure=	Off
#Spike filter=	Multiple accum.
#Delay time (s)=	0
#Binning=	1
#Readout mode=	Signal
#DeNoise=	Off
#ICS correction=	On
#Dark correction=	Off
#Inst. Process=	Off
#Detector Gain=	Best Dynamic Range
#Detector ADC=	20 kHz       
#Detector temperature (°C)=	-70.08
#Instrument=	LabRAM HR Evol
#Detector=	Synapse
#Objective=	x100
#Grating=	600 gr/mm
#ND Filter=	100%
#Laser (nm)=	532 
#Hole=	100.021
#Range=	Auto
#Laser Pol.=	No
#Raman. Pol.=	No
#Laser Pol. (°)=	-0.0007625
#Raman Pol. (°)=	89.9995
#Collection=	Microscope
#StageXY=	Marzhauser
#StageZ=	Marzhauser
#X (µm)=	-2492.9
#Y (µm)=	-45.6
#Z (µm)=	-10.55
#Full time(mm:ss)=	3:19
#Project=	
#Sample=	
#Site=	
#Title=	Mb_40_24_41_2x_45s_532 nm_x100_100%_600 gr_mm
#Remark=	
#Date=	14.07.2022 13:56
#Acquired=	14.07.2022 13:56:33
#Edit:Spike=	14.07.2022 13:57:53
#Base:Fit=	10.08.2022 10:47:00
#Base:Sub=	10.08.2022 10:47:12
#Filter:Polynom=	16.08.2022 10:11:48
#AxisType[0]=Intens
#AxisUnit[0]=Cnt
#AxisType[1]=Spectr
#AxisUnit[1]=1/cm
200.554	42.3254
202.369	36.6186
204.183	33.0461
205.999	30.9942
207.813	28.0275
209.626	24.7635
211.439	21.9332
213.253	19.4193
215.065	17.6016
216.877	16.8594
218.688	14.208
220.5	13.5071
222.312	10.8779
224.123	9.58786
225.933	9.29071
227.742	8.93011
229.552	6.64257
231.361	5.43993
233.171	4.83653
234.98	4.51592
236.787	3.0784
238.595	1.63858
240.402	2.00721
242.209	2.37684
244.015	2.0649
245.822	1.87518
247.627	1.96057
249.435	2.96725
251.24	3.26453
253.045	2.72229
254.849	1.92749
256.653	2.47314
258.457	4.14268
260.26	5.156
262.063	6.79084
263.866	7.62739
265.668	8.05384
267.47	9.73667
269.271	11.3192
271.073	11.5129
272.873	11.9376
274.674	13.255
276.474	13.6626
278.274	15.1565
280.073	15.7013
281.872	15.2756
283.671	16.0377
285.47	15.3141
287.268	15.6839
289.065	15.1443
290.863	17.6972
292.66	17.2845
294.456	17.7677
296.253	18.3633
298.049	18.9225
299.844	20.2342
301.637	22.1037
303.432	23.1535
305.227	23.5303
307.021	23.838
308.815	23.7582
310.609	24.58
312.402	23.6201
314.195	24.9717
315.987	25.4739
317.777	25.7909
319.569	25.6728
321.36	27.0436
323.151	27.2542
324.942	26.7312
326.733	27.9762
328.521	27.8846
330.31	28.5338
332.1	28.0808
333.889	29.4295
335.677	29.1586
337.464	28.575
339.252	28.6687
341.039	28.6453
342.826	27.9954
344.611	27.5877
346.398	28.7489
348.184	28.4256
349.97	28.2685
351.754	27.5228
353.539	25.7906
355.324	25.2637
357.106	23.6703
358.89	21.8412
360.674	20.172
362.455	20.0214
364.239	19.7819
366.021	18.7083
367.804	16.9694
369.584	14.3899
371.366	13.2601
373.145	12.8657
374.926	12.4002
376.707	11.8251
378.485	11.6379
380.265	11.1984
382.045	9.43768
383.822	10.343
385.601	10.1354
387.378	9.51758
389.156	10.6209
390.934	11.1629
392.71	10.4167
394.487	9.29103
396.262	10.4138
398.038	10.5193
399.813	10.7148
401.588	11.5412
403.362	12.6994
405.137	12.3676
406.912	12.4697
408.685	11.3729
410.459	10.8684
412.23	10.0818
414.004	10.336
415.775	10.5783
417.548	8.87877
419.318	10.0228
421.089	10.6617
422.86	11.4671
424.63	10.3591
426.401	10.0706
428.17	9.8324
429.94	8.61081
431.708	7.5037
433.478	8.0801
435.245	9.0618
437.012	7.81863
438.781	7.47765
440.547	6.50915
442.315	7.96464
444.081	8.1944
445.846	7.20569
447.613	7.12019
449.378	7.5006
451.142	8.99366
452.908	8.27759
454.672	9.43471
456.435	9.50548
458.2	8.96192
459.963	9.6315
461.725	9.61385
463.489	10.4256
465.251	11.0174
467.012	11.5816
468.775	12.5258
470.536	13.351
472.296	14.2929
474.056	15.5868
475.817	17.6164
477.576	18.6648
479.335	18.8327
481.094	20.2394
482.854	20.6449
484.612	21.7248
486.37	22.3784
488.127	23.3458
489.886	23.5868
491.642	24.2518
493.398	23.9013
495.154	25.6432
496.91	26.4694
498.667	27.4025
500.422	28.9108
502.176	29.5606
503.93	29.3909
505.684	29.7245
507.438	30.4418
509.191	31.2031
510.946	31.2782
512.698	31.1771
514.45	31.0191
516.202	30.736
517.954	32.3431
519.705	33.9181
521.456	35.7528
523.206	35.5264
524.956	36.1558
526.706	36.9322
528.456	38.0545
530.207	39.1126
531.956	38.1486
533.704	37.3221
535.452	37.6515
537.2	37.7402
538.947	38.5037
540.694	36.8337
542.441	38.3917
544.188	37.9278
545.934	38.1355
547.68	38.7104
549.425	37.1094
551.17	36.9863
552.915	37.307
554.659	36.1537
556.403	36.939
558.145	36.0066
559.889	35.0629
561.632	35.5548
563.375	35.4749
565.117	33.9604
566.859	33.7299
568.601	33.2678
570.342	32.8973
572.083	32.8101
573.824	32.2369
575.565	30.8081
577.303	30.5956
579.043	31.0953
580.782	29.3232
582.521	28.9481
584.26	26.6055
585.998	24.5532
587.734	23.4705
589.472	21.2803
591.21	19.9704
592.947	20.0957
594.684	20.7471
596.418	20.4322
598.154	18.8927
599.89	18.2724
601.626	18.7573
603.361	18.1916
605.094	18.0951
606.828	16.2018
608.562	16.7964
610.296	14.6403
612.027	14.8594
613.761	15.282
615.493	14.6309
617.224	13.6489
618.956	13.2411
620.688	12.9151
622.419	12.5879
624.149	13.6457
625.879	13.1216
627.61	13.4057
629.338	14.6284
631.068	12.8789
632.797	12.9488
634.525	12.2765
636.254	11.1212
637.98	12.6856
639.708	12.9464
641.436	11.4496
643.162	11.5484
644.889	9.75597
646.614	9.59439
648.34	9.50578
650.067	9.16387
651.791	8.73902
653.516	9.22701
655.239	7.53568
656.964	8.02256
658.687	6.9805
660.411	7.13425
662.133	6.22468
663.857	5.9664
665.58	5.42733
667.301	3.66129
669.024	4.76354
670.744	3.9161
672.464	4.46137
674.186	5.03918
675.905	4.55251
677.626	5.00789
679.345	6.35335
681.065	6.52458
682.783	6.76649
684.503	7.47833
686.22	8.26651
687.939	9.54463
689.656	9.2623
691.372	9.53445
693.09	10.3244
694.806	12.0494
696.523	13.0846
698.239	14.4479
699.953	16.0805
701.67	16.5079
703.384	17.4154
705.098	17.8311
706.813	17.0345
708.526	17.6657
710.239	17.6712
711.954	17.0659
713.666	17.1225
715.378	15.967
717.091	14.6028
718.802	15.78
720.513	15.5975
722.226	14.3093
723.936	14.6947
725.646	13.0982
727.355	13.4691
729.067	13.1963
730.776	12.9528
732.484	13.433
734.192	12.8288
735.902	14.5773
737.61	16.1788
739.317	16.7472
741.024	17.0022
742.731	18.7528
744.439	20.2926
746.145	21.4373
747.851	21.7888
749.556	23.7504
751.262	26.0461
752.966	28.1968
754.673	31.2582
756.377	32.5633
758.081	34.3059
759.784	34.8311
761.487	37.2298
763.19	40.5748
764.892	42.5123
766.594	44.0864
768.296	45.59
770	47.3681
771.701	48.1732
773.402	50.0339
775.102	50.6805
776.803	52.3511
778.503	54.0899
780.202	55.7409
781.901	57.873
783.6	57.971
785.299	57.8741
786.997	57.575
788.695	57.4636
790.393	57.252
792.09	57.8406
793.787	59.56
795.484	59.7145
797.18	60.995
798.877	59.9884
800.572	60.6819
802.268	61.1344
803.963	61.5456
805.658	61.2887
807.35	61.0457
809.044	61.5299
810.738	61.121
812.432	62.5861
814.125	61.2622
815.818	61.4855
817.51	61.8881
819.202	62.6072
820.894	64.7555
822.584	64.4807
824.275	65.7234
825.966	67.8155
827.657	68.5694
829.347	70.2512
831.037	70.7296
832.725	71.7685
834.414	71.8866
836.103	72.9715
837.792	72.673
839.481	72.263
841.167	71.4947
842.854	69.8508
844.542	69.402
846.229	68.2992
847.914	67.5014
849.6	65.131
851.287	63.9954
852.973	63.3751
854.656	63.1028
856.341	60.8108
858.026	60.1288
859.711	59.1098
861.393	59.5526
863.077	59.2476
864.761	57.886
866.442	58.0946
868.125	57.5097
869.808	55.7313
871.489	55.3505
873.171	55.7064
874.85	54.7912
876.532	53.6211
878.213	52.0798
879.892	50.8703
881.572	48.9752
883.251	47.0865
884.931	46.9341
886.61	45.3352
888.287	46.3757
889.966	46.0241
891.643	45.1712
893.321	44.8692
894.997	44.8517
896.675	45.559
898.352	45.2606
900.028	46.4894
901.704	47.7064
903.379	49.1422
905.055	50.0526
906.729	50.7247
908.404	51.9591
910.077	52.225
911.75	51.8426
913.425	53.3302
915.097	54.4497
916.771	55.2051
918.443	53.7005
920.116	53.4098
921.787	52.0964
923.46	50.9149
925.13	52.2036
926.8	51.0717
928.472	50.7223
930.141	50.1544
931.813	50.022
933.481	48.644
935.15	48.784
936.82	47.6773
938.488	46.8352
940.156	46.7868
941.825	46.9243
943.492	44.8721
945.158	42.9574
946.827	41.0912
948.493	40.2172
950.158	39.6746
951.824	38.7034
953.491	36.6636
955.156	36.9665
956.82	35.2499
958.486	32.0559
960.15	30.1176
961.814	29.9924
963.477	32.1053
965.142	33.201
966.804	35.0547
968.467	36.9399
970.129	39.7279
971.79	42.2813
973.454	43.0007
975.115	44.5166
976.776	47.0484
978.436	49.1166
980.096	49.4444
981.756	50.1473
983.417	50.9086
985.077	50.8544
986.736	51.821
988.394	52.9888
990.052	54.1173
991.71	54.228
993.368	55.075
995.025	55.4464
996.682	56.4532
998.341	55.6085
999.998	54.5044
1001.65	53.5496
1003.31	53.7366
1004.97	54.2135
1006.62	56.4026
1008.28	59.6622
1009.93	59.62
1011.58	60.5089
1013.24	61.2681
1014.89	63.1365
1016.54	64.6523
1018.2	65.7944
1019.85	67.6743
1021.5	70.9443
1023.16	71.6343
1024.81	71.5262
1026.46	73.1917
1028.11	74.6893
1029.76	76.5493
1031.41	78.034
1033.06	78.5059
1034.71	80.1754
1036.36	79.9192
1038.01	80.1685
1039.66	78.9223
1041.31	80.0637
1042.95	82.3838
1044.6	85.0475
1046.25	87.1143
1047.9	88.0633
1049.54	87.6073
1051.19	87.5248
1052.84	87.5903
1054.48	86.2475
1056.13	85.4787
1057.77	84.1565
1059.42	82.4201
1061.06	78.7684
1062.71	75.4612
1064.35	74.7457
1066	71.0419
1067.64	68.7836
1069.28	66.9837
1070.93	64.8871
1072.57	61.6674
1074.21	57.9781
1075.85	55.2583
1077.49	52.0282
1079.13	48.7158
1080.78	47.0142
1082.42	45.1145
1084.06	44.0975
1085.7	43.572
1087.34	42.9725
1088.97	42.1776
1090.61	41.8592
1092.25	41.15
1093.89	40.3273
1095.53	40.3914
1097.17	40.3178
1098.8	39.9941
1100.44	39.9702
1102.08	39.7835
1103.71	40.292
1105.35	39.5709
1106.99	41.1623
1108.62	41.8262
1110.26	40.2729
1111.89	40.8129
1113.52	40.1164
1115.16	40.6251
1116.79	42.1402
1118.43	40.9844
1120.06	40.9799
1121.69	40.2429
1123.32	39.8873
1124.96	39.8745
1126.59	39.2847
1128.22	39.0577
1129.85	39.5479
1131.48	38.7519
1133.11	39.3707
1134.75	38.4037
1136.37	37.994
1138	36.9599
1139.63	34.4657
1141.26	32.7835
1142.89	31.3366
1144.52	30.807
1146.15	29.3427
1147.78	27.1896
1149.4	26.0684
1151.03	24.7166
1152.66	23.0321
1154.28	20.6089
1155.91	17.4573
1157.54	15.6209
1159.16	15.002
1160.79	14.3673
1162.41	13.446
1164.04	11.0108
1165.66	10.1671
1167.29	8.9168
1168.91	8.13864
1170.53	7.77691
1172.16	9.22085
1173.78	8.76885
1175.4	9.06483
1177.02	9.41147
1178.65	10.3356
1180.27	11.559
1181.89	11.3566
1183.51	12.1011
1185.13	15.3077
1186.75	16.6977
1188.37	19.1554
1189.99	19.8926
1191.61	21.3488
1193.23	22.8461
1194.85	24.1572
1196.47	26.8339
1198.08	29.1944
1199.7	29.4992
1201.32	30.9119
1202.94	32.9397
1204.55	35.2381
1206.17	37.1598
1207.79	40.1855
1209.4	42.6965
1211.02	44.6992
1212.63	46.2404
1214.25	48.2495
1215.86	49.4678
1217.48	51.9595
1219.09	53.4384
1220.71	54.5531
1222.32	57.9131
1223.93	59.0854
1225.54	61.0678
1227.16	62.5314
1228.77	63.9018
1230.38	66.0512
1231.99	68.6276
1233.6	69.6013
1235.22	71.5599
1236.83	72.827
1238.44	74.7559
1240.05	77.0576
1241.66	79.0364
1243.26	79.6169
1244.87	82.0028
1246.48	84.3944
1248.09	86.2854
1249.7	89.044
1251.31	91.2424
1252.92	94.8393
1254.52	97.542
1256.13	100.281
1257.74	101.423
1259.34	103.962
1260.95	106.501
1262.55	109.039
1264.16	113.065
1265.76	118.739
1267.37	122.406
1268.97	125.457
1270.58	128.658
1272.18	131.727
1273.78	134.722
1275.39	137.497
1276.99	140.202
1278.59	142.343
1280.2	142.939
1281.8	145.354
1283.4	148.666
1285	151.105
1286.6	153.914
1288.2	157.11
1289.8	157.946
1291.4	158.833
1293	160.909
1294.6	163.014
1296.2	164.261
1297.8	166.835
1299.4	168.483
1301	168.989
1302.6	170.23
1304.19	169.774
1305.79	170.611
1307.39	170.899
1308.99	170.749
1310.58	171.881
1312.18	170.317
1313.77	168.376
1315.37	167.634
1316.96	165.317
1318.56	163.751
1320.15	162.87
1321.75	160.832
1323.34	157.752
1324.94	157.412
1326.53	155.492
1328.12	154.42
1329.72	154.109
1331.31	152.289
1332.9	152.038
1334.49	150.452
1336.08	147.952
1337.67	146.467
1339.27	144.624
1340.86	144.495
1342.45	143.059
1344.04	143.004
1345.63	142.124
1347.22	140.024
1348.8	137.383
1350.39	137.062
1351.98	134.972
1353.57	132.646
1355.16	130.994
1356.75	129.713
1358.33	128.954
1359.92	130.128
1361.51	131.59
1363.09	132.192
1364.68	132.278
1366.27	130.671
1367.85	129.2
1369.44	128.044
1371.02	128.103
1372.61	129.571
1374.19	130.679
1375.77	130.345
1377.36	130.697
1378.94	130.284
1380.52	130.343
1382.11	130.771
1383.69	132.038
1385.27	132.638
1386.85	133.437
1388.43	132.642
1390.02	132.256
1391.6	132.156
1393.18	132.464
1394.76	135.169
1396.34	137.236
1397.92	138.943
1399.5	141.621
1401.08	144.133
1402.65	148.489
1404.23	152.995
1405.81	157.231
1407.39	161.668
1408.97	166.588
1410.54	171.495
1412.12	177.711
1413.7	182.417
1415.27	186.29
1416.85	192.492
1418.43	197.293
1420	204.096
1421.58	208.771
1423.15	215.914
1424.73	221.609
1426.3	226.574
1427.87	231.404
1429.45	238.073
1431.02	241.772
1432.6	245.94
1434.17	251.654
1435.74	256.083
1437.31	259.233
1438.89	262.957
1440.46	263.985
1442.03	264.215
1443.6	263.115
1445.17	261.361
1446.74	260.892
1448.31	258.504
1449.88	256.587
1451.45	253.793
1453.02	251.166
1454.59	246.062
1456.16	242.143
1457.72	237.139
1459.29	231.644
1460.86	225.574
1462.43	219.559
1463.99	211.761
1465.56	205.576
1467.13	197.416
1468.69	190.386
1470.26	184.035
1471.83	177.76
1473.39	170.903
1474.95	164.17
1476.52	157.014
1478.08	151.401
1479.65	146.157
1481.21	141.033
1482.78	135.352
1484.34	130.432
1485.9	124.915
1487.47	121.247
1489.03	117.317
1490.59	112.891
1492.15	108.283
1493.71	104.111
1495.27	101.591
1496.84	98.464
1498.39	96.5089
1499.96	95.0415
1501.52	93.2198
1503.07	91.1664
1504.64	88.8439
1506.19	87.8968
1507.75	86.4746
1509.31	84.7464
1510.87	84.8213
1512.43	84.353
1513.98	83.4381
1515.54	81.7886
1517.1	81.5459
1518.65	79.0173
1520.21	78.0042
1521.77	77.8689
1523.32	78.9241
1524.88	78.6953
1526.44	78.5158
1527.99	79.6116
1529.54	80.0953
1531.1	82.5575
1532.65	82.3981
1534.21	83.0329
1535.76	83.9577
1537.31	85.4489
1538.87	86.7346
1540.42	88.8662
1541.97	90.2085
1543.52	90.9007
1545.07	91.5755
1546.63	92.6902
1548.18	93.7949
1549.73	95.3706
1551.28	95.786
1552.83	98.8212
1554.38	99.8599
1555.93	101.678
1557.48	103.078
1559.03	104.936
1560.57	106.495
1562.12	108.118
1563.67	110.562
1565.22	112.536
1566.77	114.774
1568.31	116.934
1569.86	119.89
1571.41	122.245
1572.95	126.659
1574.5	130.065
1576.05	132.326
1577.59	135.281
1579.14	138.727
1580.68	142.219
1582.23	145.069
1583.77	149.512
1585.31	153.011
1586.86	157.169
1588.4	160.349
1589.95	162.074
1591.49	164.507
1593.03	165.453
1594.57	166.955
1596.11	168.581
1597.66	171.895
1599.2	173.672
1600.74	175.343
1602.28	176.524
1603.82	178.319
1605.36	179.882
1606.9	180.546
1608.44	182.088
1609.98	181.271
1611.52	181.891
1613.06	182.768
1614.6	183.201
1616.13	183.755
1617.67	184.935
1619.21	183.766
1620.75	183.944
1622.28	184.536
1623.82	183.961
1625.36	183.587
1626.89	184.871
1628.43	184.086
1629.96	183.755
1631.5	182.827
1633.04	182.71
1634.57	181.9
1636.11	181.281
1637.64	180.038
1639.17	178.865
1640.71	179.391
1642.24	178.583
1643.77	179.755
1645.31	180.525
1646.84	180.258
1648.37	179.336
1649.9	180.907
1651.43	179.373
1652.96	178.285
1654.5	178.669
1656.03	177.008
1657.56	175.206
1659.09	173.758
1660.62	172.058
1662.15	168.92
1663.67	165.789
1665.2	161.558
1666.73	157.443
1668.26	153.631
1669.79	149.555
1671.32	146.639
1672.84	143.141
1674.37	140.439
1675.9	135.18
1677.43	130.24
1678.95	125.879
1680.48	119.561
1682	114.31
1683.53	108.965
1685.05	105.312
1686.58	101.04
1688.1	96.9858
1689.63	93.0686
1691.15	88.8812
1692.68	85.5258
1694.2	81.6742
1695.72	77.6835
1697.25	74.4273
1698.77	71.2457
1700.29	67.6069
1701.81	65.0531
1703.33	62.8386
1704.86	58.5342
1706.38	55.7295
1707.9	53.1072
1709.42	50.8892
1710.94	48.5744
1712.46	45.7206
1713.98	43.752
1715.5	42.6437
1717.02	42.1113
1718.54	40.5119
1720.06	38.794
1721.57	37.5333
1723.09	36.0636
1724.61	35.1379
1726.13	34.7596
1727.64	32.7541
1729.16	31.2363
1730.68	30.5959
1732.19	29.6369
1733.71	29.4483
1735.23	28.9991
1736.74	28.5938
1738.26	28.6129
1739.77	28.0762
1741.29	27.509
1742.8	27.3166
1744.31	27.0068
1745.83	26.4788
1747.34	26.3772
1748.85	26.1572
1750.37	25.1513
1751.88	22.9951
1753.39	22.7805
1754.91	22.9191
1756.42	21.8685
1757.93	22.048
1759.44	21.8494
1760.95	21.5418
1762.46	20.601
1763.97	20.1976
1765.48	19.5593
1766.99	19.0442
1768.5	19.27
1770.01	18.6367
1771.52	18.798
1773.03	18.5624
1774.54	18.9185
1776.04	18.094
1777.55	17.9376
1779.06	17.281
1780.57	15.5534
1782.07	14.0406
1783.58	13.1338
1785.09	12.8182
1786.59	12.2369
1788.1	11.0645
1789.6	11.0412
1791.11	11.2149
1792.61	10.3713
1794.12	9.56321
1795.62	8.97408
1797.13	9.34541
1798.63	9.04319
1800.13	8.64353
1801.64	8.42104
1803.14	7.7345
1804.64	7.51703
1806.15	7.65757
1807.65	7.65755
1809.15	7.66782
1810.65	8.31316
1812.15	8.82031
1813.65	8.81269
1815.16	7.92631
1816.66	8.26624
1818.15	7.90131
1819.66	8.47176
1821.16	8.40976
1822.65	8.40932
1824.15	8.08252
1825.65	6.9889
1827.15	7.40379
1828.65	7.04992
1830.15	6.56405
1831.64	6.25952
1833.14	5.29811
1834.64	5.00881
1836.14	5.46805
1837.63	5.24357
1839.13	4.80247
1840.62	4.69876
1842.12	4.99202
1843.62	5.00447
1845.11	4.03131
1846.61	3.63846
1848.1	2.57205
1849.6	3.29353
1851.09	3.33584
1852.58	3.32347
1854.08	2.97439
1855.57	2.27259
1857.06	1.84735
1858.55	2.89868
1860.05	3.7939
1861.54	4.30293
1863.03	4.85157
1864.52	5.32255
1866.01	6.43883
1867.5	5.77465
1869	6.31318
1870.49	6.67337
1871.98	7.0645
1873.47	7.6414
1874.96	7.95679
1876.44	8.81259
1877.93	9.22034
1879.42	10.1023
1880.91	10.4467
1882.4	10.6365
1882.47	10.895
1883.96	11.5411
1885.46	11.6217
1886.95	11.2862
1888.44	11.836
1889.94	11.971
1891.43	11.1412
1892.93	10.6774
1894.42	9.46926
1895.91	8.58426
1897.4	8.16768
1898.89	6.99008
1900.39	6.33072
1901.88	5.72897
1903.37	5.50889
1904.86	4.93347
1906.35	4.40004
1907.84	4.78194
1909.33	4.83573
1910.82	4.50959
1912.31	5.47525
1913.8	5.73001
1915.29	5.41808
1916.77	4.77286
1918.26	5.23287
1919.75	5.87507
1921.24	6.56766
1922.73	7.98777
1924.21	7.80871
1925.7	8.09884
1927.19	8.06711
1928.67	8.32609
1930.16	8.90506
1931.64	10.7381
1933.13	11.2468
1934.61	12.831
1936.1	13.0417
1937.58	12.839
1939.07	12.5966
1940.55	12.3465
1942.04	12.1961
1943.52	12.0159
1945	12.4722
1946.49	12.321
1947.97	13.131
1949.45	13.2527
1950.93	12.4385
1952.42	12.6728
1953.9	12.4801
1955.38	12.4019
1956.86	12.8177
1958.34	13.0423
1959.82	12.0487
1961.3	11.9158
1962.78	10.9712
1964.26	9.68019
1965.74	8.96386
1967.22	8.18636
1968.7	7.39375
1970.18	6.26475
1971.65	5.01991
1973.13	4.76773
1974.61	4.97494
1976.09	4.99877
1977.57	3.96284
1979.04	3.3531
1980.52	3.9076
1982	3.38123
1983.47	4.29087
1984.95	4.3648
1986.42	4.43583
1987.9	3.21278
1989.37	4.26883
1990.85	3.94842
1992.32	4.80448
1993.8	4.68836
1995.27	5.07773
1996.75	6.17894
1998.22	6.80484
1999.69	7.75612
2001.17	8.22114
2002.64	8.29228
2004.11	9.26415
2005.58	9.728
2007.05	9.5388
2008.53	9.64793
2010	9.59462
2011.47	10.8138
2012.94	11.2258
2014.41	11.7863
2015.88	12.0003
2017.35	13.1214
2018.82	13.1684
2020.29	14.4327
2021.76	15.7477
2023.23	15.9364
2024.7	16.9067
2026.16	17.6115
2027.63	17.2042
2029.1	17.0592
2030.57	16.9594
2032.03	17.4256
2033.5	17.4046
2034.97	18.678
2036.44	17.6483
2037.9	17.3473
2039.37	18.1207
2040.83	18.6577
2042.3	19.2524
2043.76	19.1888
2045.23	19.8544
2046.69	20.5725
2048.16	20.014
2049.62	20.2969
2051.08	20.5079
2052.55	20.7575
2054.01	21.8542
2055.47	21.3648
2056.94	22.4246
2058.4	22.1376
2059.86	22.7241
2061.32	23.1865
2062.79	24.5315
2064.25	24.1542
2065.71	24.834
2067.17	25.2024
2068.63	25.7127
2070.09	26.7593
2071.55	27.4294
2073.01	28.5975
2074.47	29.2559
2075.93	29.7855
2077.39	30.4058
2078.85	30.6373
2080.31	31.0017
2081.76	32.5666
2083.22	34.8913
2084.68	35.5837
2086.13	35.8201
2087.59	36.339
2089.05	36.9081
2090.51	38.2659
2091.96	38.8431
2093.42	39.7645
2094.87	39.5617
2096.33	40.2203
2097.78	40.1247
2099.24	41.3306
2100.69	41.9944
2102.15	43.2684
2103.6	44.7635
2105.06	46.5568
2106.51	47.3268
2107.96	48.501
2109.42	49.6004
2110.87	52.0499
2112.32	54.2696
2113.77	56.1881
2115.23	57.7244
2116.68	58.5919
2118.13	60.3493
2119.58	61.8236
2121.03	62.8586
2122.48	64.9468
2123.93	67.1924
2125.38	69.1704
2126.83	71.457
2128.28	72.8795
2129.73	75.5112
2131.18	77.94
2132.63	79.913
2134.08	82.6037
2135.53	84.7173
2136.97	86.2928
2138.42	89.3934
2139.87	92.3749
2141.32	95.617
2142.76	99.2117
2144.21	101.308
2145.66	103.22
2147.1	105.922
2148.55	107.57
2150	109.05
2151.44	112.446
2152.89	114.601
2154.33	116.888
2155.78	118.933
2157.22	119.641
2158.66	120.02
2160.11	121.456
2161.55	121.753
2163	123.33
2164.44	122.502
2165.88	124.338
2167.32	125.003
2168.77	126.318
2170.21	127.288
2171.65	128.588
2173.09	127.553
2174.53	126.881
2175.97	126.247
2177.41	125.366
2178.85	124.568
2180.29	124.726
2181.73	125.367
2183.17	124.24
2184.61	122.378
2186.05	120.489
2187.49	118.447
2188.93	115.451
2190.37	113.916
2191.81	111.826
2193.24	108.849
2194.68	106.884
2196.12	104.753
2197.56	101.897
2198.99	100.224
2200.43	98.1043
2201.87	96.5444
2203.3	94.1664
2204.74	91.9519
2206.17	90.3859
2207.61	87.2612
2209.04	85.3646
2210.48	84.1889
2211.91	80.8873
2213.35	79.4685
2214.78	77.6253
2216.21	74.6559
2217.65	72.4308
2219.08	71.1647
2220.51	69.1756
2221.95	67.721
2223.38	66.1615
2224.81	63.3896
2226.24	61.5894
2227.67	60.2433
2229.1	58.4131
2230.54	57.0477
2231.97	56.4129
2233.4	54.8642
2234.83	53.9377
2236.26	52.6232
2237.69	53.0439
2239.11	51.3442
2240.54	50.7702
2241.97	49.5832
2243.4	46.7918
2244.83	44.4711
2246.26	43.5045
2247.69	41.9871
2249.11	41.0421
2250.54	40.2082
2251.97	38.8641
2253.4	36.8834
2254.82	35.0082
2256.25	33.1625
2257.67	31.8041
2259.1	30.7024
2260.53	28.9255
2261.95	29.0676
2263.38	27.4294
2264.8	26.1252
2266.23	25.5921
2267.65	25.5573
2269.07	25.1112
2270.5	25.2063
2271.92	23.8377
2273.34	23.5201
2274.77	22.8166
2276.19	21.5556
2277.61	21.4014
2279.03	20.8936
2280.46	20.6192
2281.88	20.0893
2283.3	19.8397
2284.72	20.9131
2286.14	19.987
2287.56	18.9291
2288.98	18.7553
2290.4	18.3301
2291.82	17.6194
2293.24	16.2827
2294.66	16.4898
2296.08	16.8803
2297.5	17.2914
2298.92	17.5179
2300.34	18.3707
2301.76	18.1029
2303.17	18.1798
2304.59	18.2773
2306.01	17.7912
2307.43	16.2718
2308.84	16.5853
2310.26	14.6816
2311.68	13.4025
2313.09	12.9416
2314.51	11.5941
2315.92	11.5461
2317.34	11.2065
2318.75	10.5454
2320.17	10.8146
2321.58	9.47593
2323	9.37588
2324.41	9.48989
2325.82	9.80955
2327.24	8.8035
2328.65	7.94095
2330.06	7.51648
2331.48	7.66881
2332.89	8.46558
2334.3	7.91268
2335.71	8.12823
2337.12	7.80714
2338.54	7.55532
2339.95	7.98374
2341.36	8.82313
2342.77	9.06889
2344.18	9.45335
2345.59	9.2397
2347	9.00322
2348.41	9.83431
2349.82	8.71298
2351.23	7.50878
2352.64	6.99129
2354.04	6.56259
2355.45	6.18561
2356.86	5.82619
2358.27	5.67141
2359.68	6.16264
2361.08	6.45305
2362.49	6.63456
2363.9	7.51669
2365.3	8.55312
2366.71	7.8666
2368.12	7.74302
2369.52	7.77854
2370.93	7.46596
2372.33	6.79542
2373.74	6.70624
2375.14	6.82731
2376.55	5.90402
2377.95	5.79743
2379.36	6.97616
2380.76	5.93758
2382.16	6.70078
2383.57	6.86339
2384.97	6.07905
2386.37	5.97084
2387.78	5.20356
2389.18	5.13516
2390.58	4.62857
2391.98	5.1427
2393.38	5.1051
2394.79	4.92196
2396.19	4.91484
2397.59	4.51731
2398.99	4.98437
2400.39	4.86901
2401.79	5.50768
2403.19	5.89994
2404.59	5.10732
2405.99	4.55197
2407.39	4.75246
2408.78	4.96946
2410.18	5.76598
2411.58	5.69973
2412.98	5.36962
2414.38	4.72161
2415.77	4.36385
2417.17	4.48044
2418.57	3.58615
2419.97	3.31846
2421.36	3.34116
2422.76	4.07592
2424.15	4.9362
2425.55	5.99771
2426.95	6.35918
2428.34	7.25134
2429.74	7.27873
2431.13	6.49988
2432.52	6.8864
2433.92	7.71969
2435.31	7.29037
2436.71	8.06968
2438.1	8.63711
2439.49	8.79897
2440.89	9.60498
2442.28	10.2033
2443.67	10.488
2445.06	11.2029
2446.46	10.7351
2447.85	11.4225
2449.24	10.2949
2450.63	9.69309
2452.02	10.0138
2453.41	10.1894
2454.8	10.2514
2456.19	10.7804
2457.58	11.0421
2458.97	11.1792
2460.36	11.0592
2461.75	11.8043
2463.14	10.2818
2464.53	10.8815
2465.92	11.0606
2467.31	10.9825
2468.69	11.1647
2470.08	9.76109
2471.47	10.2221
2472.86	9.62422
2474.24	9.21875
2475.63	9.03703
2477.02	8.39489
2478.4	7.87383
2479.79	6.98319
2481.17	6.5194
2482.56	6.45428
2483.94	5.76459
2485.33	5.75398
2486.72	4.88569
2488.1	4.75743
2489.48	4.54007
2490.87	4.35453
2492.25	5.3742
2493.64	5.04627
2495.02	4.843
2496.4	4.89872
2497.79	4.76555
2499.17	3.8754
2500.55	3.49592
2501.93	4.12062
2503.31	3.23014
2504.69	1.91271
2506.08	2.50977
2507.46	2.33514
2508.84	2.0943
2510.22	2.35239
2511.6	1.3178
2512.98	1.8478
2514.36	2.3019
2515.74	1.54399
2517.12	1.61223
2518.5	1.39779
2519.88	2.74567
2521.25	4.3936
2522.63	5.35219
2524.01	5.21379
2525.39	5.8993
2526.77	5.82935
2528.14	5.75303
2529.52	6.10721
2530.9	6.58899
2532.27	5.38857
2533.65	5.78267
2535.03	5.77304
2536.4	5.91295
2537.78	5.9981
2539.15	5.64438
2540.53	6.70525
2541.9	6.51264
2543.28	6.69356
2544.65	6.91795
2546.03	6.63254
2547.4	7.85876
2548.77	8.13745
2550.15	9.43032
2551.52	9.69048
2552.89	9.36549
2554.27	10.1773
2555.64	10.2785
2557.01	11.7158
2558.38	12.3772
2559.75	12.9679
2561.12	13.8998
2562.5	12.6153
2563.87	13.3451
2565.24	14.0422
2566.61	14.1678
2567.98	14.3572
2569.35	14.0986
2570.72	14.2703
2572.09	13.2888
2573.46	13.526
2574.83	14.8058
2576.19	14.2013
2577.56	13.8168
2578.93	14.4611
2580.3	15.4129
2581.67	15.821
2583.04	15.9693
2584.4	16.758
2585.77	17.3686
2587.14	17.2005
2588.5	17.6646
2589.87	17.7323
2591.23	17.5071
2592.6	16.4716
2593.97	15.5892
2595.33	14.6549
2596.7	13.4032
2598.06	12.3458
2599.43	11.6102
2600.79	10.4122
2602.15	10.5147
2603.52	10.1121
2604.88	10.5373
2606.25	10.2073
2607.61	9.6651
2608.97	9.38592
2610.33	9.34302
2611.7	9.4618
2613.06	9.27708
2614.42	8.34797
2615.78	8.0139
2617.15	7.59122
2618.51	7.43248
2619.87	6.72436
2621.23	6.57209
2622.59	6.43189
2623.95	5.34831
2625.31	5.16526
2626.67	5.17621
2628.03	3.76939
2629.39	3.74392
2630.75	2.4846
2632.1	3.10748
2633.46	2.76437
2634.82	1.59953
2636.18	1.111
2637.54	1.03949
2638.89	1.03431
2640.25	0.96419
2641.61	2.11019
2642.97	1.6223
2644.32	1.82052
2645.68	2.83361
2647.03	3.32432
2648.39	3.77718
2649.75	3.74446
2651.1	4.83947
2652.46	4.52103
2653.81	4.16069
2655.17	4.15656
2656.52	5.10008
2657.88	5.24228
2659.23	4.87285
2660.58	4.7507
2661.94	4.63441
2663.29	4.85108
2664.64	5.00707
2666	5.19904
2667.35	5.22581
2668.7	5.88368
2670.05	6.56213
2671.4	7.18349
2672.76	8.30062
2674.11	7.40541
2675.46	7.37009
2676.81	8.17865
2678.16	7.87177
2679.51	7.54524
2680.86	7.40615
2682.21	7.26015
2683.56	7.00917
2684.91	8.21847
2686.26	8.96832
2687.61	9.73797
2688.96	10.2329
2690.3	10.4453
2691.65	10.8717
2693	11.7086
2694.35	12.1004
2695.7	12.8145
2697.04	14.0035
2698.39	14.8076
2699.74	15.938
2701.08	16.577
2702.43	16.8202
2703.77	18.3819
2705.12	19.4794
2706.47	19.8535
2707.81	20.1126
2709.16	20.9131
2710.5	21.6161
2711.85	22.2171
2713.19	22.6034
2714.53	23.1615
2715.88	23.3236
2717.22	23.7595
2718.57	24.3578
2719.91	23.7596
2721.25	24.4666
2722.59	24.3253
2723.94	24.0602
2725.28	23.1644
2726.62	22.6345
2727.96	22.4159
2729.3	21.5376
2730.65	21.3899
2731.99	20.5316
2733.33	18.4694
2734.67	18.006
2736.01	17.3078
2737.35	15.3555
2738.69	14.0232
2740.03	12.8673
2741.37	10.9303
2742.71	10.6468
2744.05	10.2276
2745.38	8.88593
2746.72	7.86623
2748.06	7.06621
2749.4	6.11481
2750.74	5.36426
2752.07	6.06921
2753.41	6.59457
2754.75	6.54766
2756.09	5.74337
2757.42	5.18533
2758.76	4.729
2760.09	4.52429
2761.43	4.06378
2762.77	3.35959
2764.1	2.68343
2765.44	2.08199
2766.77	1.58943
2768.11	0.993505
2769.44	0.818789
2770.77	1.59006
2772.11	1.84773
2773.44	1.4604
2774.77	1.91202
2776.11	2.75607
2777.44	2.92463
2778.77	2.49446
2780.11	3.89131
2781.44	4.33779
2782.77	4.5635
2784.1	5.52485
2785.43	5.29442
2786.77	4.21531
2788.1	4.35734
2789.43	4.03921
2790.76	3.40102
2792.09	2.65523
2793.42	2.7271
2794.75	2.88517
2796.08	2.62853
2797.41	2.48471
2798.74	1.76276
2800.07	2.03066
2801.4	1.96039
2802.72	1.59234
2804.05	1.62721
2805.38	2.24595
2806.71	2.53118
2808.04	2.21572
2809.36	1.30458
2810.69	1.36214
2812.02	0.346082
2813.34	-0.513299
2814.67	-0.0837559
2816	0.476004
2817.32	2.65851
2818.65	4.87015
2819.97	7.35081
2821.3	7.91014
2822.62	9.49565
2823.95	12.743
2825.27	16.3231
2826.6	20.1598
2827.92	24.3392
2829.25	29.2581
2830.57	36.0752
2831.89	41.9715
2833.22	49.1669
2834.54	56.5134
2835.86	64.7328
2837.18	72.6399
2838.51	81.0236
2839.83	89.6724
2841.15	98.6357
2842.47	107.882
2843.79	117.009
2845.11	126.377
2846.43	136.741
2847.76	145.829
2849.08	155.977
2850.4	166.124
2851.72	175.927
2853.04	186.014
2854.36	196.763
2855.67	206.827
2856.99	216.603
2858.31	226.589
2859.63	236.806
2860.95	245.873
2862.27	255.045
2863.58	264.416
2864.9	272.76
2866.22	280.669
2867.54	288.294
2868.85	295.87
2870.17	303.67
2871.49	309.213
2872.8	314.779
2874.12	320.266
2875.43	325.335
2876.75	332.081
2878.07	337.067
2879.38	342.187
2880.7	348.629
2882.01	355.397
2883.32	361.747
2884.64	368.362
2885.95	376.185
2887.27	382.749
2888.58	390.671
2889.89	398.403
2891.21	404.984
2892.52	413.237
2893.83	421.6
2895.14	429.768
2896.46	438.738
2897.77	447.49
2899.08	456.208
2900.39	465.172
2901.7	475.681
2903.01	486.288
2904.32	497.871
2905.63	510.253
2906.94	521.206
2908.25	533.493
2909.56	545.79
2910.87	558.045
2912.18	569.904
2913.49	581.404
2914.8	592.601
2916.11	603.43
2917.42	613.424
2918.72	622.714
2920.03	631.828
2921.34	639.415
2922.65	646.195
2923.95	652.147
2925.26	657.194
2926.57	660.753
2927.88	663.159
2929.18	664.256
2930.49	663.047
2931.79	660.617
2933.1	658.028
2934.4	654.352
2935.71	649.015
2937.01	641.498
2938.32	634.552
2939.62	626.341
2940.93	616.998
2942.23	607.448
2943.54	596.383
2944.84	584.753
2946.14	573.09
2947.45	561.14
2948.75	548.05
2950.05	536.116
2951.35	522.45
2952.66	507.858
2953.96	493.197
2955.26	478.217
2956.56	464.547
2957.86	452.05
2959.16	438.295
2960.46	425.118
2961.77	412.271
2963.07	400.102
2964.37	388.777
2965.66	378.709
2966.96	369.188
2968.26	358.512
2969.56	348.652
2970.86	338.942
2972.16	328.135
2973.46	319.001
2974.76	309.71
2976.06	300.154
2977.35	291.046
2978.65	281.593
2979.95	272.195
2981.25	264.045
2982.54	254.49
2983.84	246.275
2985.14	237.105
2986.43	227.27
2987.73	217.784
2989.02	208.624
2990.32	198.368
2991.62	187.964
2992.91	178.622
2994.21	169.338
2995.5	158.966
2996.8	150.166
2998.09	141.63
2999.38	132.125
3000.68	121.354
3001.97	112.748
3003.26	103.998
3004.56	95.3948
3005.85	87.3694
3007.14	79.374
3008.43	70.9517
3009.73	63.7466
3011.02	56.9362
3012.31	51.3011
3013.6	45.0313
3014.89	40.2954
3016.19	34.875
3017.48	30.379
3018.77	25.3844
3020.06	20.6623
3021.35	18.0915
3022.64	14.4165
3023.93	11.6181
3025.22	9.22892
3026.5	7.2195
3027.79	5.34627
3029.08	3.81215
3030.37	2.47664
3031.66	1.26565
3032.95	-0.157235
3034.24	-0.726098
3035.52	-0.990438
3036.81	-0.584899
3038.1	-1.17208
3039.39	-0.654591
3040.67	-0.134849
3041.96	0.756421
3043.25	1.24181
3044.53	2.98813
3045.82	4.5461
3047.1	5.13567
3048.39	7.01975
3049.67	7.01185
3050.96	7.51179
3052.24	7.91376
3053.53	8.17161
3054.81	8.65587
3056.1	10.0027
3057.38	10.8895
3058.67	10.7286
3059.95	10.7589
3061.23	10.8976
3062.52	11.122
3063.8	11.2942
3065.08	11.4294
3066.36	11.5022
3067.65	11.7037
3068.93	11.4717
3070.21	11.1229
3071.49	10.2358
3072.77	9.77083
3074.05	9.5691
3075.33	8.6528
3076.61	8.32646
3077.89	7.88675
3079.17	7.15663
3080.45	6.23819
3081.73	5.33309
3083.01	4.41621
3084.29	3.32997
3085.57	3.35128
3086.85	2.68903
3088.13	2.38582
3089.41	1.82368
3090.68	1.84298
3091.96	1.32342
3093.24	1.74954
3094.52	2.64408
3095.79	2.81017
3097.07	2.82002
3098.35	3.09
3099.62	3.57522
3100.9	4.24127
3102.18	4.35766
3103.45	6.09346
3104.73	7.24922
3106	8.03959
3107.28	8.92478
3108.55	10.2479
3109.83	11.4319
3111.1	12.6414
3112.38	13.7288
3113.65	14.4989
3114.93	16.1139
3116.2	17.3893
3117.47	19.2014
3118.75	21.5425
3120.02	23.2374
3121.29	25.0008
3122.57	26.9028
3123.84	28.9613
3125.11	31.1702
3126.38	34.1394
3127.65	35.7734
3128.92	37.2693
3130.2	39.0455
3131.47	41.8242
3132.74	42.9396
3134.01	44.9233
3135.28	47.0668
3136.55	49.2473
3137.82	51.3754
3139.09	53.8733
3140.36	56.4738
3141.63	58.9338
3142.9	61.2115
3144.17	63.6697
3145.43	66.1731
3146.7	68.6902
3147.97	72.5286
3149.24	74.9444
