#Acq. time (s)=	45
#Accumulations=	2
#Range (cm-¹)=	200...3150
#Windows=	2
#Auto scanning=	Off
#Autofocus=	Off
#Macrospot=	Off
#AutoExposure=	Off
#Spike filter=	Multiple accum.
#Delay time (s)=	0
#Binning=	1
#Readout mode=	Signal
#DeNoise=	Off
#ICS correction=	On
#Dark correction=	Off
#Inst. Process=	Off
#Detector Gain=	Best Dynamic Range
#Detector ADC=	20 kHz       
#Detector temperature (°C)=	-69.85
#Instrument=	LabRAM HR Evol
#Detector=	Synapse
#Objective=	x100
#Grating=	600 gr/mm
#ND Filter=	100%
#Laser (nm)=	532 
#Hole=	100.021
#Range=	Auto
#Laser Pol.=	No
#Raman. Pol.=	No
#Laser Pol. (°)=	-0.0007625
#Raman Pol. (°)=	89.9995
#Collection=	Microscope
#StageXY=	Marzhauser
#StageZ=	Marzhauser
#X (µm)=	-1141.9
#Y (µm)=	679.4
#Z (µm)=	584.35
#Full time(mm:ss)=	3:18
#Project=	
#Sample=	
#Site=	
#Title=	Mb_40_y_49_2x_45s_532 nm_x100_100%_600 gr_mm
#Remark=	
#Date=	19.07.2022 13:44
#Acquired=	19.07.2022 13:44:29
#Edit:Spike=	19.07.2022 13:46:35
#Edit:Spike=	19.07.2022 13:46:36
#Edit:Spike=	19.07.2022 13:46:37
#Base:Fit=	10.08.2022 10:52:48
#Base:Sub=	10.08.2022 10:52:53
#Filter:Polynom=	16.08.2022 10:09:04
#AxisType[0]=Intens
#AxisUnit[0]=Cnt
#AxisType[1]=Spectr
#AxisUnit[1]=1/cm
200.423	86.8629
202.238	85.9705
204.052	84.4718
205.868	82.0499
207.682	79.8481
209.495	77.1986
211.308	74.7182
213.12	70.9808
214.935	68.1283
216.746	66.6344
218.558	65.1307
220.369	63.6609
222.18	61.9393
223.992	58.2654
225.802	53.9157
227.612	51.7948
229.421	49.6733
231.23	48.1519
233.039	47.2108
234.849	45.7869
236.657	43.143
238.465	39.4443
240.272	37.8468
242.079	36.6202
243.885	34.9579
245.691	33.7048
247.497	32.0675
249.305	30.0623
251.11	29.109
252.915	29.4144
254.719	28.0164
256.523	26.4795
258.327	25.6256
260.13	23.626
261.933	23.1133
263.736	22.4461
265.538	22.2316
267.34	19.7484
269.141	18.4818
270.943	18.2176
272.744	16.7057
274.544	15.8904
276.344	14.703
278.144	15.3075
279.944	15.2571
281.743	15.2233
283.542	13.7368
285.34	13.3351
287.138	11.2652
288.936	11.1309
290.733	11.2679
292.53	11.7427
294.327	10.8792
296.123	10.8033
297.919	9.8825
299.715	9.8212
301.508	9.63845
303.303	9.18142
305.098	10.8142
306.892	11.0312
308.686	11.2688
310.479	10.5945
312.273	9.8218
314.065	9.05782
315.858	9.81861
317.648	10.2776
319.44	9.82907
321.231	9.32444
323.022	9.02483
324.813	8.40311
326.604	7.22886
328.392	5.97015
330.181	7.8738
331.971	8.74618
333.76	9.62383
335.548	10.1631
337.335	10.1088
339.123	10.09
340.91	9.86982
342.698	8.94763
344.483	8.90215
346.269	7.79869
348.055	7.43237
349.841	6.08311
351.625	6.08073
353.41	5.68239
355.195	4.98558
356.977	3.49253
358.762	3.51168
360.545	3.5005
362.329	2.97136
364.11	2.91939
365.893	3.14072
367.675	4.00029
369.455	2.97539
371.237	3.52554
373.017	3.86675
374.798	3.77717
376.578	3.85574
378.357	5.2001
380.137	5.79566
381.917	5.45905
383.694	4.76801
385.473	5.59985
387.249	5.84452
389.028	5.64826
390.806	6.02209
392.581	6.6327
394.359	6.36016
396.134	6.6569
397.91	7.05732
399.684	6.39976
401.46	5.79777
403.234	6.22162
405.009	6.41483
406.784	5.6706
408.557	5.80231
410.331	6.19091
412.103	6.80313
413.876	7.67198
415.647	8.00404
417.42	9.49648
419.191	11.118
420.961	11.6486
422.733	12.4594
424.502	11.7008
426.273	11.4715
428.042	11.463
429.812	11.67
431.58	12.5181
433.35	12.2538
435.118	11.0381
436.885	10.1636
438.653	9.83885
440.42	10.0375
442.188	9.54068
443.954	9.24535
445.719	9.82716
447.486	10.3267
449.251	10.6164
451.015	10.1691
452.781	10.0162
454.545	10.4385
456.308	10.9144
458.073	11.3897
459.836	12.2984
461.598	11.7772
463.362	11.8498
465.124	12.9031
466.885	14.0139
468.648	15.4044
470.408	15.5733
472.169	16.571
473.929	18.0838
475.69	19.2295
477.45	20.6817
479.208	21.34
480.967	22.1947
482.727	22.6049
484.485	25.1537
486.243	26.0722
488	27.321
489.759	27.9631
491.515	29.4414
493.272	30.1192
495.028	31.2836
496.783	33.3139
498.54	35.492
500.295	37.027
502.05	38.4242
503.804	39.1772
505.558	40.0689
507.311	39.232
509.064	39.5537
510.819	40.313
512.572	39.4814
514.324	39.0184
516.076	39.3733
517.827	39.1157
519.578	38.7003
521.329	36.7734
523.08	35.281
524.83	35.8029
526.58	36.0564
528.329	35.2373
530.08	34.0816
531.829	33.4328
533.578	32.3912
535.326	30.9005
537.074	29.1811
538.821	29.3248
540.568	28.5928
542.315	27.5638
544.062	26.9163
545.808	27.2595
547.554	27.44
549.299	26.089
551.044	25.0746
552.789	26.5264
554.533	25.9554
556.278	24.2914
558.019	23.7999
559.763	22.294
561.506	22.665
563.249	21.7085
564.991	19.718
566.733	17.2734
568.475	17.1518
570.217	16.3241
571.958	15.2168
573.699	13.0408
575.439	12.9539
577.177	12.2633
578.917	12.3275
580.656	13.2726
582.396	13.6299
584.134	14.0637
585.873	12.3068
587.609	11.0806
589.347	10.7747
591.084	10.1455
592.822	10.0227
594.558	9.19868
596.295	9.95673
598.029	10.0744
599.765	11.0491
601.5	11.6038
603.235	11.0238
604.968	10.023
606.703	10.0774
608.437	9.36472
610.171	10.7984
611.902	12.1272
613.635	11.6999
615.368	12.4005
617.099	13.5068
618.831	14.5747
620.563	15.9747
622.294	16.9516
624.024	18.7689
625.755	20.2913
627.485	20.9927
629.213	21.765
630.943	22.4906
632.673	23.8011
634.4	21.0696
636.129	19.2457
637.855	18.9674
639.584	19.1105
641.312	17.8893
643.037	17.917
644.764	19.0058
646.491	18.9606
648.216	19.6059
649.942	17.9115
651.666	17.4619
653.392	17.2811
655.115	17.8326
656.84	17.3466
658.563	16.091
660.287	16.0949
662.011	17.1063
663.732	15.4056
665.456	14.9577
667.177	14.8852
668.899	14.5093
670.62	15.2751
672.342	14.522
674.061	15.8535
675.781	17.092
677.502	17.778
679.22	19.1677
680.941	20.0098
682.659	21.1255
684.379	22.6162
686.096	24.2148
687.815	23.7239
689.532	23.6201
691.248	25.6472
692.966	26.736
694.682	28.7804
696.4	30.1297
698.115	31.308
699.829	33.0396
701.546	35.5798
703.26	37.1079
704.974	39.0609
706.689	40.7386
708.402	43.7086
710.115	46.084
711.83	46.3244
713.542	48.3691
715.254	49.2726
716.967	49.5781
718.679	49.7472
720.39	49.5376
722.102	51.679
723.812	52.2617
725.522	53.8927
727.232	55.4951
728.943	56.3687
730.652	56.6806
732.361	56.6494
734.069	56.3213
735.779	55.5647
737.487	55.5846
739.194	54.739
740.901	54.7364
742.608	53.8049
744.316	52.7869
746.022	53.3048
747.728	53.4828
749.433	53.8473
751.138	55.1488
752.843	57.5977
754.549	59.0758
756.254	60.2673
757.957	61.0751
759.661	62.2899
761.364	62.2452
763.067	63.2449
764.769	64.7306
766.471	64.8808
768.175	64.8482
769.877	66.4934
771.578	65.9469
773.279	65.8469
774.98	65.9443
776.68	66.7434
778.38	66.5233
780.079	68.4237
781.779	69.0647
783.478	69.6348
785.176	71.8117
786.875	73.5961
788.573	73.9315
790.27	75.125
791.968	76.8081
793.665	78.5361
795.361	77.813
797.058	77.8039
798.754	79.938
800.45	80.6485
802.145	79.6448
803.84	80.4023
805.535	80.7922
807.23	81.7072
808.922	80.7012
810.616	81.3307
812.309	80.57
814.002	80.6259
815.695	81.0467
817.388	79.8177
819.08	78.8007
820.772	78.222
822.464	78.5454
824.153	78.1157
825.844	78.0235
827.535	76.8432
829.225	77.0918
830.915	76.7492
832.605	76.3415
834.292	76.97
835.981	76.471
837.67	76.8997
839.359	74.9271
841.047	74.367
842.732	73.482
844.42	72.8203
846.107	71.6231
847.794	71.5023
849.479	70.4178
851.165	68.1813
852.851	67.2128
854.534	67.9919
856.22	67.1845
857.905	66.5066
859.589	65.715
861.272	65.6017
862.956	64.7448
864.639	65.4876
866.321	64.6514
868.004	64.5942
869.687	65.1331
871.367	63.4016
873.049	62.2859
874.731	62.4911
876.41	63.2876
878.092	62.3851
879.771	62.1928
881.451	60.5641
883.131	57.5827
884.809	56.3568
886.489	53.1038
888.166	54.5969
889.845	54.7984
891.522	55.6072
893.2	55.836
894.878	57.1293
896.554	57.3685
898.231	59.1941
899.906	58.7328
901.583	57.8656
903.258	58.3445
904.934	58.4064
906.608	58.0292
908.283	57.2708
909.956	57.4489
911.631	56.9556
913.304	58.1983
914.976	57.5065
916.65	58.2462
918.322	58.4177
919.995	58.7429
921.666	58.9139
923.339	59.1782
925.009	60.0531
926.679	61.189
928.351	62.5358
930.021	62.7639
931.692	63.4851
933.361	64.5251
935.029	65.57
936.699	66.5636
938.367	68.2931
940.035	68.9298
941.704	68.9042
943.371	67.404
945.038	67.4518
946.706	66.9413
948.372	66.8529
950.038	66.7593
951.705	67.1097
953.37	65.8375
955.035	64.8692
956.7	65.0004
958.366	64.9876
960.03	63.085
961.693	60.8753
963.357	60.7738
965.021	60.4054
966.684	61.3492
968.346	63.1291
970.008	65.0168
971.67	68.0023
973.334	66.9928
974.995	66.6655
976.655	66.5312
978.316	66.4791
979.976	66.9852
981.638	66.6208
983.297	64.6413
984.957	63.0707
986.616	61.5953
988.274	59.0174
989.932	57.0539
991.59	54.6398
993.248	51.3231
994.907	47.0928
996.565	43.8912
998.221	39.9911
999.878	35.2746
1001.53	29.9985
1003.19	26.9855
1004.85	24.8946
1006.5	27.5555
1008.16	33.974
1009.81	44.835
1011.46	59.9211
1013.12	78.0393
1014.77	96.4113
1016.43	115.92
1018.08	137.173
1019.73	158.208
1021.38	178.713
1023.04	199.379
1024.69	219.385
1026.34	236.922
1027.99	256.334
1029.64	273.634
1031.29	289.054
1032.94	303.373
1034.59	315.152
1036.24	325.29
1037.89	334.163
1039.54	341.602
1041.19	347.858
1042.84	351.591
1044.48	355.793
1046.13	357.83
1047.78	357.385
1049.42	354.31
1051.07	349.024
1052.72	343.158
1054.36	334.131
1056.01	324.03
1057.66	313.275
1059.3	301.191
1060.94	287.2
1062.59	270.844
1064.23	252.367
1065.88	232.355
1067.52	211.246
1069.16	189.423
1070.81	166.788
1072.45	144.832
1074.09	122.681
1075.73	101.017
1077.38	79.6461
1079.02	59.9398
1080.66	41.2291
1082.3	25.2298
1083.94	13.8171
1085.58	7.61423
1087.22	4.57778
1088.86	5.52574
1090.5	9.00072
1092.13	13.0192
1093.77	19.1222
1095.41	22.2499
1097.05	23.4194
1098.68	26.668
1100.32	29.8637
1101.96	31.4195
1103.6	31.8676
1105.23	34.488
1106.87	35.603
1108.5	34.9066
1110.14	35.5551
1111.77	35.1246
1113.41	34.5276
1115.04	34.6524
1116.67	34.0038
1118.31	34.9647
1119.94	35.0953
1121.58	35.0627
1123.21	35.8923
1124.84	34.337
1126.47	34.3549
1128.1	34.3447
1129.73	33.7717
1131.37	32.9806
1133	31.7199
1134.63	30.8889
1136.26	30.0368
1137.89	30.463
1139.52	29.614
1141.14	28.5761
1142.77	27.8271
1144.4	26.6881
1146.03	25.7376
1147.66	23.7509
1149.29	22.5366
1150.91	20.5367
1152.54	20.9827
1154.17	19.944
1155.79	19.1725
1157.42	17.7181
1159.04	16.4759
1160.67	15.0981
1162.3	13.7114
1163.92	13.6704
1165.55	11.9436
1167.17	11.6464
1168.79	10.2116
1170.42	9.78493
1172.04	9.70464
1173.66	7.99409
1175.28	8.66853
1176.91	8.12688
1178.53	8.4884
1180.15	8.91473
1181.77	8.11514
1183.39	8.09615
1185.01	8.25529
1186.63	8.24174
1188.25	7.99227
1189.87	9.02864
1191.49	9.63948
1193.11	9.306
1194.73	9.3017
1196.35	10.7037
1197.97	11.9911
1199.59	13.6109
1201.2	13.8497
1202.82	14.8844
1204.44	16.4606
1206.05	18.5163
1207.67	21.8885
1209.29	24.068
1210.9	25.0195
1212.52	26.9998
1214.13	28.3595
1215.75	30.9946
1217.36	33.5576
1218.97	35.016
1220.59	36.231
1222.2	38.0144
1223.82	40.3429
1225.43	42.5785
1227.04	44.1277
1228.65	45.8801
1230.26	48.3477
1231.88	51.8673
1233.49	56.0544
1235.1	58.8977
1236.71	61.3269
1238.32	63.9978
1239.93	66.2927
1241.54	67.7497
1243.15	69.7644
1244.76	72.5832
1246.37	73.4556
1247.97	76.0285
1249.58	77.1815
1251.19	79.003
1252.8	81.2138
1254.41	83.3822
1256.01	86.3274
1257.62	87.9741
1259.23	88.3024
1260.83	89.1839
1262.44	91.2311
1264.04	92.2831
1265.65	94.1537
1267.25	94.5077
1268.86	97.6963
1270.46	98.973
1272.07	100.532
1273.67	101.465
1275.27	103.553
1276.88	105.984
1278.48	107.688
1280.08	109.761
1281.68	111.676
1283.28	113.088
1284.89	115.203
1286.49	116.207
1288.09	116.565
1289.69	116.314
1291.29	117.347
1292.89	118.666
1294.49	118.826
1296.09	121.149
1297.69	121.537
1299.29	120.463
1300.88	122.186
1302.48	122.144
1304.08	123.366
1305.68	124.872
1307.27	124.711
1308.87	125.7
1310.47	127.164
1312.06	127.626
1313.66	126.49
1315.25	125.46
1316.85	125.019
1318.44	124.477
1320.04	123.397
1321.63	121.702
1323.23	120.878
1324.82	119.086
1326.41	117.401
1328.01	115.608
1329.6	114.38
1331.19	113.595
1332.78	112.781
1334.38	111.166
1335.97	110.127
1337.56	108.81
1339.15	107.258
1340.74	107.565
1342.33	105.917
1343.92	102.922
1345.51	102.765
1347.1	100.72
1348.69	100.021
1350.28	97.5965
1351.87	97.1089
1353.46	95.3839
1355.04	94.2966
1356.63	92.7081
1358.22	90.9019
1359.81	89.0643
1361.39	86.2184
1362.98	83.4706
1364.57	81.6962
1366.15	78.825
1367.74	76.7538
1369.32	75.5331
1370.91	74.5641
1372.49	72.6245
1374.07	71.569
1375.66	70.6964
1377.24	68.2063
1378.83	66.6138
1380.41	66.5398
1381.99	65.2672
1383.57	63.5015
1385.16	63.2503
1386.74	63.1399
1388.32	62.7149
1389.9	62.7363
1391.48	62.232
1393.06	62.2742
1394.64	63.7795
1396.22	64.7499
1397.8	65.3512
1399.38	67.7369
1400.96	69.6866
1402.54	72.1563
1404.12	74.3015
1405.7	78.0779
1407.28	81.3616
1408.85	85.6029
1410.43	88.8471
1412.01	91.7496
1413.58	94.8234
1415.16	99.4499
1416.74	102.846
1418.31	105.495
1419.89	110.158
1421.46	114.467
1423.04	119.075
1424.61	124.376
1426.19	128.672
1427.76	133.279
1429.33	137.885
1430.91	142.588
1432.48	148.495
1434.05	153.203
1435.63	156.639
1437.2	159.408
1438.77	162.62
1440.34	164.31
1441.91	166.089
1443.49	167.903
1445.05	168.684
1446.63	168.587
1448.2	168.296
1449.77	168.492
1451.34	167.971
1452.91	166.788
1454.47	164.288
1456.04	163.397
1457.61	160.185
1459.18	156.972
1460.75	153.717
1462.31	150.156
1463.88	147.597
1465.45	142.763
1467.01	138.541
1468.58	135.146
1470.15	131.582
1471.71	127.674
1473.28	124.389
1474.84	119.562
1476.41	114.706
1477.97	110.098
1479.54	104.181
1481.1	99.1569
1482.66	95.1294
1484.23	89.5233
1485.79	84.3112
1487.35	79.6446
1488.91	75.1386
1490.48	70.9474
1492.04	67.9178
1493.6	64.737
1495.16	60.0705
1496.72	57.9718
1498.28	58.127
1499.84	56.5529
1501.4	53.8063
1502.96	52.2307
1504.52	51.0735
1506.08	49.5783
1507.64	49.0459
1509.2	48.6032
1510.76	49.4097
1512.31	47.9191
1513.87	46.7198
1515.43	45.5581
1516.99	46.0411
1518.54	45.8377
1520.1	45.7336
1521.66	45.2134
1523.21	45.4094
1524.77	45.5609
1526.32	45.8053
1527.88	45.7981
1529.43	45.3977
1530.99	45.6145
1532.54	46.2173
1534.09	47.2564
1535.65	47.2876
1537.2	47.4627
1538.75	48.6569
1540.31	49.6229
1541.86	50.1838
1543.41	50.8595
1544.96	52.7649
1546.51	53.1991
1548.06	54.6931
1549.62	55.1352
1551.17	55.1128
1552.72	55.7523
1554.27	56.1666
1555.82	56.9333
1557.36	57.8321
1558.91	59.977
1560.46	60.6661
1562.01	61.4612
1563.56	62.6507
1565.11	64.5754
1566.66	65.6141
1568.2	66.6865
1569.75	69.1841
1571.3	71.5787
1572.84	74.2024
1574.39	76.5721
1575.93	77.5333
1577.48	78.0976
1579.02	79.1258
1580.57	81.5698
1582.11	84.01
1583.66	86.435
1585.2	88.8688
1586.75	91.1936
1588.29	92.8459
1589.83	94.1057
1591.38	95.6657
1592.92	96.8725
1594.46	99.2448
1596	100.129
1597.54	100.551
1599.09	100.863
1600.63	101.731
1602.17	102.176
1603.71	101.302
1605.25	101.317
1606.79	102.784
1608.33	102.672
1609.87	101.921
1611.41	101.675
1612.95	101.497
1614.48	100.981
1616.02	102.31
1617.56	101.318
1619.1	101.604
1620.64	101.902
1622.17	103.328
1623.71	104.467
1625.25	105.09
1626.78	105.489
1628.32	105.95
1629.86	107.617
1631.39	109.783
1632.92	110.728
1634.46	112.477
1635.99	113.459
1637.53	113.022
1639.06	114.889
1640.59	116.47
1642.13	118.93
1643.66	119.983
1645.19	120.885
1646.73	121.51
1648.26	122.488
1649.79	122.705
1651.32	122.962
1652.85	124.721
1654.38	124.904
1655.92	126.021
1657.45	127.006
1658.98	127.17
1660.51	126.783
1662.04	125.521
1663.57	125.015
1665.09	123.5
1666.62	122.683
1668.15	120.819
1669.68	118.292
1671.21	115.566
1672.73	112.069
1674.26	108.491
1675.79	104.197
1677.31	101.051
1678.84	96.8252
1680.37	91.9536
1681.89	87.8052
1683.42	82.9648
1684.94	77.5862
1686.47	72.9652
1687.99	69.2852
1689.52	65.4489
1691.04	60.6998
1692.57	56.5383
1694.09	52.101
1695.61	48.9713
1697.14	45.0823
1698.66	41.5273
1700.18	37.1053
1701.7	34.2312
1703.22	31.7142
1704.75	28.7996
1706.27	26.4246
1707.79	24.3046
1709.31	19.821
1710.83	16.8329
1712.35	14.9738
1713.87	13.6135
1715.39	11.9314
1716.91	9.98341
1718.43	8.55891
1719.95	6.92704
1721.46	5.87604
1722.98	5.31643
1724.5	5.90538
1726.02	5.27443
1727.53	5.34105
1729.05	5.77362
1730.57	5.1155
1732.08	5.97609
1733.6	6.07098
1735.12	6.4739
1736.63	6.21145
1738.15	6.0795
1739.66	5.85704
1741.18	5.23956
1742.69	4.90716
1744.21	4.02969
1745.72	4.70516
1747.23	5.467
1748.74	5.65079
1750.26	5.61962
1751.77	5.25383
1753.28	4.85866
1754.8	4.59122
1756.31	4.19031
1757.82	3.41728
1759.33	3.18013
1760.84	3.56882
1762.35	3.83524
1763.86	4.29274
1765.37	4.051
1766.88	3.21999
1768.39	3.59703
1769.9	3.96516
1771.41	4.17117
1772.92	4.38822
1774.43	4.25119
1775.93	4.18402
1777.44	4.66126
1778.95	3.88695
1780.46	3.27975
1781.96	3.13564
1783.47	3.61557
1784.98	3.68259
1786.48	4.45316
1787.99	4.895
1789.49	4.85661
1791	3.99492
1792.5	4.69473
1794.01	4.58191
1795.51	4.09851
1797.02	3.5326
1798.52	3.39458
1800.03	3.33752
1801.53	3.77442
1803.03	3.77981
1804.53	2.97812
1806.04	2.43719
1807.54	2.4381
1809.04	2.32483
1810.54	2.17644
1812.04	1.60644
1813.54	1.48594
1815.05	1.291
1816.55	1.37287
1818.05	1.36275
1819.55	0.84858
1821.05	1.55007
1822.55	1.26023
1824.05	0.619194
1825.54	-0.0474474
1827.04	-0.0887538
1828.54	-0.819579
1830.04	-0.440814
1831.54	-0.29449
1833.03	-0.728382
1834.53	-0.98248
1836.03	-1.24591
1837.52	-1.0848
1839.02	-1.43653
1840.52	-1.82419
1842.01	-1.71597
1843.51	-1.16309
1845	-0.817234
1846.5	-0.742944
1847.99	-0.817306
1849.49	-1.10035
1850.98	-1.45714
1852.47	-1.86733
1853.97	-1.4467
1855.46	-0.104721
1856.95	0.409232
1858.45	0.718459
1859.94	1.16807
1861.43	0.896554
1862.92	0.353816
1864.41	0.720802
1865.91	0.445438
1867.4	0.624509
1868.89	1.34482
1870.38	2.69146
1871.87	3.36861
1873.36	4.1845
1874.85	4.64484
1876.34	5.40387
1877.83	6.10809
1879.31	6.1404
1880.8	6.84439
1882.29	8.17099
1882.56	8.75426
1884.05	9.4159
1885.54	9.6555
1887.04	9.41074
1888.53	9.65158
1890.03	9.62284
1891.52	9.8786
1893.01	9.84252
1894.5	10.4156
1895.99	10.1183
1897.49	10.3466
1898.98	10.323
1900.47	10.3896
1901.96	10.2799
1903.45	11.177
1904.94	11.1491
1906.43	11.0131
1907.92	11.5339
1909.41	12.323
1910.9	13.1134
1912.39	12.291
1913.88	12.4867
1915.37	13.0789
1916.86	12.8929
1918.35	12.9382
1919.84	12.8302
1921.32	12.5089
1922.81	13.5618
1924.3	14.355
1925.78	14.9354
1927.27	15.2579
1928.76	15.4577
1930.24	14.5236
1931.73	14.1362
1933.21	14.4164
1934.7	14.3978
1936.18	14.9725
1937.67	14.5383
1939.15	15.0064
1940.64	15.326
1942.12	15.885
1943.6	15.8482
1945.09	16.0509
1946.57	15.9353
1948.05	16.0511
1949.54	16.3225
1951.02	15.985
1952.5	15.2178
1953.98	15.0217
1955.46	15.4414
1956.94	14.4121
1958.42	13.0131
1959.91	11.8633
1961.39	10.5462
1962.87	10.6211
1964.34	10.3874
1965.82	10.6208
1967.3	10.3363
1968.78	10.1007
1970.26	9.8701
1971.74	10.427
1973.22	9.95677
1974.7	10.136
1976.17	10.7687
1977.65	11.6357
1979.13	11.7242
1980.6	12.2541
1982.08	12.4745
1983.56	12.0765
1985.03	12.612
1986.51	12.9181
1987.98	13.8796
1989.46	15.2633
1990.93	15.2431
1992.41	15.7775
1993.88	15.9585
1995.36	16.468
1996.83	15.7838
1998.3	14.9497
1999.78	14.546
2001.25	13.6687
2002.72	14.4611
2004.2	14.0489
2005.67	13.9197
2007.14	14.1357
2008.61	14.4378
2010.08	14.3165
2011.55	13.3945
2013.02	14.6731
2014.49	13.8875
2015.97	13.9625
2017.43	13.8517
2018.9	13.7898
2020.37	13.2736
2021.84	14.062
2023.31	14.3767
2024.78	14.4436
2026.25	15.1673
2027.72	14.8593
2029.19	15.1311
2030.65	14.0459
2032.12	14.3137
2033.59	14.105
2035.05	14.7896
2036.52	16.251
2037.98	16.9083
2039.45	17.7653
2040.92	18.3944
2042.38	18.7107
2043.85	19.8182
2045.31	21.0067
2046.78	21.3862
2048.24	22.0484
2049.71	22.5935
2051.17	23.572
2052.63	24.2621
2054.1	24.7575
2055.56	25.4643
2057.02	26.1226
2058.48	27.7067
2059.95	28.1197
2061.41	28.594
2062.87	30.1297
2064.33	30.5589
2065.79	30.6953
2067.25	31.3256
2068.71	32.0299
2070.17	31.8386
2071.63	33.9006
2073.09	34.859
2074.55	36.4369
2076.01	38.3002
2077.47	39.2336
2078.93	40.3934
2080.39	41.0893
2081.85	42.4935
2083.3	43.536
2084.76	44.5601
2086.22	45.8606
2087.68	46.3688
2089.13	47.8586
2090.59	48.9605
2092.05	50.3145
2093.5	52.7313
2094.96	54.8273
2096.41	55.708
2097.87	57.5155
2099.32	58.5318
2100.78	58.2156
2102.23	59.2915
2103.69	60.6922
2105.14	63.2092
2106.59	64.8715
2108.05	67.4942
2109.5	67.5907
2110.95	68.6355
2112.41	70.15
2113.86	71.6401
2115.31	72.4588
2116.76	74.3135
2118.21	76.913
2119.67	79.2738
2121.12	81.7058
2122.57	83.8037
2124.02	86.1727
2125.47	87.8111
2126.92	89.6004
2128.37	91.9574
2129.82	94.7285
2131.27	97.6708
2132.71	100.37
2134.16	103.373
2135.61	107.022
2137.06	109.558
2138.51	111.646
2139.95	114.311
2141.4	118.309
2142.85	121.482
2144.29	124.795
2145.74	127.903
2147.19	131.642
2148.63	133.484
2150.08	136.721
2151.52	139.534
2152.97	142.261
2154.42	145.875
2155.86	148.322
2157.3	149.659
2158.75	151.746
2160.19	153.974
2161.64	156.268
2163.08	158.905
2164.52	160.916
2165.96	163.026
2167.41	163.632
2168.85	164.6
2170.29	165.535
2171.73	164.975
2173.17	164.674
2174.61	165.179
2176.06	164.793
2177.5	164.635
2178.94	163.927
2180.38	163.027
2181.82	161.707
2183.26	160.92
2184.7	159.926
2186.14	158.286
2187.57	156.884
2189.01	155.862
2190.45	154.574
2191.89	152.514
2193.33	150.665
2194.76	147.245
2196.2	144.936
2197.64	143.218
2199.08	141.13
2200.51	138.544
2201.95	136.575
2203.38	133.987
2204.82	131.393
2206.25	129.351
2207.69	126.875
2209.12	123.606
2210.56	120.432
2211.99	118.667
2213.43	117.499
2214.86	114.78
2216.3	112.926
2217.73	110.724
2219.16	108.408
2220.59	106.694
2222.03	105.277
2223.46	103.62
2224.89	100.859
2226.32	99.0001
2227.75	97.1194
2229.19	95.1564
2230.62	93.9936
2232.05	92.1987
2233.48	90.4818
2234.91	88.6855
2236.34	86.5193
2237.77	84.2365
2239.2	81.5901
2240.63	78.9121
2242.06	75.8866
2243.48	73.3254
2244.91	71.1368
2246.34	69.2269
2247.77	66.905
2249.2	64.1676
2250.62	61.0024
2252.05	58.3171
2253.48	54.8885
2254.9	51.9888
2256.33	49.8629
2257.76	47.262
2259.18	45.7542
2260.61	44.4565
2262.03	42.9509
2263.46	41.5233
2264.88	39.2496
2266.31	36.6499
2267.73	36.4213
2269.16	35.1076
2270.58	33.4995
2272	32.7881
2273.43	31.972
2274.85	31.0551
2276.27	30.7106
2277.69	29.8978
2279.12	28.4395
2280.54	28.3623
2281.96	27.3694
2283.38	27.4282
2284.8	26.9542
2286.22	27.0504
2287.64	26.4118
2289.07	25.4966
2290.49	25.9828
2291.91	26.2902
2293.32	25.3916
2294.74	25.2216
2296.16	24.8604
2297.58	26.6942
2299	27.3969
2300.42	27.4429
2301.84	27.6527
2303.26	27.484
2304.67	27.7994
2306.09	27.7412
2307.51	27.9337
2308.92	27.0465
2310.34	27.0448
2311.76	26.51
2313.17	26.7174
2314.59	26.396
2316	25.8135
2317.42	23.9654
2318.83	22.9993
2320.25	21.9218
2321.66	21.6341
2323.08	20.2659
2324.49	19.4239
2325.91	20.081
2327.32	20.0696
2328.73	20.5027
2330.15	21.1027
2331.56	21.159
2332.97	21.0491
2334.38	19.4286
2335.79	18.494
2337.21	18.2559
2338.62	18.5147
2340.03	17.0268
2341.44	16.0337
2342.85	14.839
2344.26	13.4777
2345.67	13.1179
2347.08	12.6872
2348.49	11.7036
2349.9	9.80887
2351.31	9.08916
2352.72	8.29852
2354.13	8.01516
2355.53	7.68158
2356.94	7.80123
2358.35	7.80825
2359.76	7.39369
2361.17	6.75871
2362.57	5.86971
2363.98	5.73079
2365.39	6.81827
2366.79	7.37337
2368.2	7.55217
2369.6	6.58713
2371.01	6.41469
2372.42	5.8517
2373.82	5.98109
2375.22	6.25342
2376.63	6.60947
2378.03	6.58217
2379.44	6.06717
2380.84	6.14217
2382.25	6.00981
2383.65	6.62781
2385.05	6.70024
2386.45	7.3106
2387.86	7.1068
2389.26	8.45282
2390.66	8.44368
2392.06	8.98632
2393.46	9.4124
2394.87	10.8754
2396.27	11.267
2397.67	10.5948
2399.07	10.4169
2400.47	10.2795
2401.87	9.72586
2403.27	9.09373
2404.67	8.15257
2406.07	8.23646
2407.47	7.95929
2408.86	7.21362
2410.26	6.09999
2411.66	6.52376
2413.06	8.07846
2414.46	8.3102
2415.85	9.51757
2417.25	9.43942
2418.65	9.3328
2420.05	9.46524
2421.44	10.5564
2422.84	11.5023
2424.23	10.2399
2425.63	10.6817
2427.03	10.2313
2428.42	10.6986
2429.82	9.98368
2431.21	9.75402
2432.6	10.2825
2434	10.247
2435.39	9.38139
2436.79	8.74716
2438.18	9.23406
2439.57	9.53782
2440.97	9.84517
2442.36	9.32764
2443.75	9.65726
2445.14	9.1613
2446.54	8.41203
2447.93	8.05304
2449.32	7.69119
2450.71	7.69799
2452.1	7.38288
2453.49	7.6194
2454.88	7.19886
2456.27	7.26759
2457.66	6.57638
2459.05	5.31642
2460.44	4.73056
2461.83	3.9987
2463.22	3.69248
2464.61	2.90939
2466	2.03469
2467.39	1.56179
2468.77	1.29773
2470.16	0.786881
2471.55	-0.10936
2472.94	0.158213
2474.32	0.367809
2475.71	0.114089
2477.1	0.850436
2478.48	1.06554
2479.87	1.99763
2481.25	3.44503
2482.64	4.55934
2484.02	3.19964
2485.41	3.42958
2486.8	2.62773
2488.18	2.58361
2489.56	1.63346
2490.95	1.35221
2492.33	1.19762
2493.72	1.29681
2495.1	2.18842
2496.48	2.95814
2497.86	4.44982
2499.25	3.83367
2500.63	3.64491
2502.01	4.12978
2503.39	4.02663
2504.77	4.94003
2506.16	6.02686
2507.54	5.67124
2508.92	5.42509
2510.3	5.20294
2511.68	5.02092
2513.06	5.36432
2514.44	5.17187
2515.82	4.89942
2517.2	5.47215
2518.58	5.81761
2519.95	6.66955
2521.33	7.27554
2522.71	7.95885
2524.09	7.9406
2525.47	7.26543
2526.84	6.99063
2528.22	6.37877
2529.6	7.39133
2530.98	7.04114
2532.35	6.99948
2533.73	6.60393
2535.11	6.47364
2536.48	6.98592
2537.86	7.44367
2539.23	7.85399
2540.61	8.24359
2541.98	8.49469
2543.36	8.57706
2544.73	8.62137
2546.1	8.4583
2547.48	7.97439
2548.85	8.1965
2550.23	8.31277
2551.6	7.59342
2552.97	6.0767
2554.34	6.04833
2555.72	6.03177
2557.09	6.02504
2558.46	5.57824
2559.83	6.52261
2561.2	6.9336
2562.58	6.85625
2563.95	5.52301
2565.32	5.11046
2566.69	4.63809
2568.06	4.0427
2569.43	4.53258
2570.8	4.39684
2572.17	3.52725
2573.54	3.66378
2574.91	2.59674
2576.27	1.60759
2577.64	2.48292
2579.01	2.55882
2580.38	2.51351
2581.75	1.89247
2583.11	1.1943
2584.48	0.723927
2585.85	1.48614
2587.21	1.51133
2588.58	0.710844
2589.95	0.569967
2591.31	-0.299868
2592.68	-0.944277
2594.04	-1.90235
2595.41	-0.869392
2596.78	-1.62095
2598.14	-0.786213
2599.51	-1.20914
2600.87	-0.944271
2602.23	-0.946534
2603.6	-1.18841
2604.96	-0.529849
2606.32	-0.395631
2607.69	-0.796965
2609.05	-0.864263
2610.41	-1.35503
2611.77	-0.113499
2613.14	0.161279
2614.5	0.0532744
2615.86	0.775322
2617.22	1.21446
2618.58	1.46934
2619.94	1.05307
2621.3	0.959319
2622.67	1.76628
2624.03	2.23486
2625.39	2.46968
2626.75	2.56871
2628.1	3.63355
2629.46	3.54761
2630.82	2.90164
2632.18	3.89175
2633.54	4.896
2634.9	5.62665
2636.26	6.47579
2637.61	7.32696
2638.97	7.70544
2640.33	7.835
2641.69	8.38392
2643.04	8.5244
2644.4	8.94243
2645.76	10.0569
2647.11	9.62427
2648.47	9.491
2649.82	9.48224
2651.18	9.6722
2652.53	9.91144
2653.89	10.1586
2655.24	9.48188
2656.6	9.32573
2657.95	9.31512
2659.31	8.83379
2660.66	8.67979
2662.01	8.81022
2663.37	9.46583
2664.72	8.64235
2666.07	8.84996
2667.43	7.53018
2668.78	7.58371
2670.13	7.3172
2671.48	7.68645
2672.83	7.98901
2674.18	8.18188
2675.53	7.6058
2676.89	6.66379
2678.24	6.73285
2679.59	7.34281
2680.94	6.57228
2682.29	6.68628
2683.64	6.76373
2684.99	6.33768
2686.34	6.13797
2687.68	5.91105
2689.03	5.84142
2690.38	6.92625
2691.73	7.04599
2693.08	6.87824
2694.43	6.56095
2695.77	7.20933
2697.12	6.82707
2698.47	7.67529
2699.81	9.00272
2701.16	8.74247
2702.51	8.89883
2703.85	9.81218
2705.2	9.6695
2706.54	8.74341
2707.89	7.7665
2709.23	7.77291
2710.58	8.70327
2711.92	8.97397
2713.27	9.10117
2714.61	8.9005
2715.96	9.36157
2717.3	10.1881
2718.64	10.32
2719.99	10.3646
2721.33	10.7128
2722.67	11.2161
2724.01	11.7716
2725.36	12.5183
2726.7	13.3868
2728.04	13.4424
2729.38	13.7152
2730.72	13.9513
2732.06	14.0692
2733.41	14.4004
2734.75	14.8298
2736.09	15.0921
2737.43	14.8475
2738.77	14.3906
2740.11	14.1946
2741.44	14.0055
2742.78	12.4788
2744.12	12.019
2745.46	12.5687
2746.8	12.4944
2748.14	12.1212
2749.48	12.3858
2750.81	11.6981
2752.15	10.6308
2753.49	9.78194
2754.83	9.6853
2756.16	8.92297
2757.5	8.28564
2758.84	7.15347
2760.17	6.46197
2761.51	6.32967
2762.84	6.31762
2764.18	5.08148
2765.51	4.88764
2766.85	3.78882
2768.18	3.02893
2769.52	2.22914
2770.85	1.29243
2772.19	-0.32015
2773.52	-0.515402
2774.85	0.145053
2776.19	0.607643
2777.52	0.625107
2778.85	0.0261824
2780.18	-0.426023
2781.52	-0.600039
2782.85	-0.10592
2784.18	0.047383
2785.51	-1.04874
2786.84	-0.826693
2788.17	-0.809242
2789.51	-0.515196
2790.84	-0.393978
2792.17	-0.0778235
2793.5	-0.27929
2794.83	-0.412822
2796.16	0.845514
2797.48	0.881357
2798.81	1.36499
2800.14	1.59512
2801.47	2.00018
2802.8	2.75549
2804.13	3.51511
2805.46	4.12479
2806.79	4.21183
2808.11	3.88284
2809.44	3.32384
2810.77	4.0519
2812.09	4.71353
2813.42	5.42867
2814.75	6.3472
2816.07	8.09055
2817.4	9.48195
2818.73	11.6146
2820.05	15.4259
2821.38	19.0271
2822.7	21.209
2824.03	24.9692
2825.35	30.267
2826.67	35.0516
2828	40.0472
2829.32	43.8062
2830.65	47.9448
2831.97	52.9598
2833.29	57.8454
2834.62	62.6684
2835.94	67.387
2837.26	72.6682
2838.58	77.3078
2839.9	82.582
2841.23	87.5061
2842.55	91.269
2843.87	95.9643
2845.19	101.312
2846.51	107.159
2847.83	112.682
2849.15	118.857
2850.47	125.114
2851.79	131.891
2853.11	139.738
2854.43	146.872
2855.75	154.123
2857.07	161.433
2858.39	168.432
2859.71	175.187
2861.02	182.372
2862.34	189.264
2863.66	195.226
2864.98	200.909
2866.3	205.874
2867.61	210.363
2868.93	213.909
2870.25	216.569
2871.56	220.209
2872.88	223.414
2874.19	226.399
2875.51	229.047
2876.83	232.462
2878.14	235.565
2879.46	239.253
2880.77	242.652
2882.09	245.796
2883.4	249.106
2884.71	252.46
2886.03	256.675
2887.34	259.121
2888.65	261.829
2889.97	265.884
2891.28	269.088
2892.59	271.088
2893.91	274.798
2895.22	277.718
2896.53	281.171
2897.84	285.148
2899.15	288.835
2900.46	292.833
2901.78	296.961
2903.09	300.75
2904.4	304.67
2905.71	309.783
2907.02	316.565
2908.33	323.151
2909.64	330.86
2910.95	339.082
2912.26	347.448
2913.57	355.416
2914.87	365.051
2916.18	374.035
2917.49	382.729
2918.8	391.582
2920.11	399.963
2921.42	406.862
2922.72	414.198
2924.03	420.322
2925.34	426.748
2926.64	431.83
2927.95	436.098
2929.26	438.544
2930.56	439.826
2931.87	442.039
2933.17	442.649
2934.48	443.305
2935.78	443.825
2937.09	443.743
2938.39	442.066
2939.7	439.122
2941	436.154
2942.31	432.594
2943.61	428.487
2944.91	423.618
2946.22	417.196
2947.52	411.332
2948.82	404.685
2950.13	397.503
2951.43	390.521
2952.73	381.392
2954.03	372.967
2955.33	364.084
2956.64	354.903
2957.94	346.16
2959.24	338.014
2960.54	327.891
2961.84	318.745
2963.14	310.034
2964.44	300.397
2965.74	291.698
2967.04	282.884
2968.34	274.513
2969.64	266.862
2970.94	259.136
2972.24	252.442
2973.53	244.249
2974.83	236.627
2976.13	229.287
2977.43	221.942
2978.73	214.999
2980.02	208.201
2981.32	200.694
2982.62	192.984
2983.91	186.386
2985.21	179.085
2986.51	170.715
2987.8	163.737
2989.1	156.474
2990.4	149.417
2991.69	142.516
2992.99	136.449
2994.28	129.732
2995.57	124.4
2996.87	118.953
2998.16	112.973
2999.46	107.954
3000.75	102.27
3002.05	97.3506
3003.34	92.4572
3004.63	87.2687
3005.92	82.2047
3007.22	76.5654
3008.51	72.4184
3009.8	68.2853
3011.09	64.8203
3012.39	60.6729
3013.68	56.3298
3014.97	53.4924
3016.26	50.2198
3017.55	46.6959
3018.84	42.8636
3020.13	40.2273
3021.42	37.7258
3022.71	35.1175
3024	33.0027
3025.29	31.0281
3026.58	30.0143
3027.87	28.0428
3029.16	26.3636
3030.45	25.7553
3031.73	25.2447
3033.02	24.2566
3034.31	23.2936
3035.6	22.8727
3036.89	23.3001
3038.17	23.2748
3039.46	23.5496
3040.75	23.7229
3042.03	24.6669
3043.32	25.0859
3044.61	24.4402
3045.89	24.5926
3047.18	24.4229
3048.46	25.6333
3049.75	25.1378
3051.03	25.4054
3052.32	25.7665
3053.6	26.1609
3054.89	26.9028
3056.17	28.0487
3057.45	27.7581
3058.74	27.6034
3060.02	27.6034
3061.31	27.4884
3062.59	27.3438
3063.87	27.5172
3065.15	27.0333
3066.44	26.6288
3067.72	25.9498
3069	24.7944
3070.28	24.465
3071.56	23.3484
3072.84	23.4385
3074.13	22.0746
3075.41	20.8543
3076.69	18.754
3077.97	17.8602
3079.25	17.3656
3080.53	14.8861
3081.81	13.2388
3083.09	11.2025
3084.37	10.3963
3085.64	8.31977
3086.92	7.48878
3088.2	6.85097
3089.48	5.23442
3090.76	4.23055
3092.04	2.67139
3093.31	2.13842
3094.59	2.18187
3095.87	1.23975
3097.14	0.779027
3098.42	1.17087
3099.7	1.0924
3100.97	1.08009
3102.25	1.32242
3103.53	1.22689
3104.8	0.670224
3106.08	0.15738
3107.35	0.132696
3108.63	-0.401519
3109.9	-0.308901
3111.18	0.620416
3112.45	1.05075
3113.73	1.41372
3115	1.90304
3116.27	1.98161
3117.55	2.83929
3118.82	3.46949
3120.09	3.70912
3121.37	3.66551
3122.64	4.43362
3123.91	4.55659
3125.18	4.85655
3126.45	4.92803
3127.73	5.09769
3129	4.53756
3130.27	4.74397
3131.54	5.50383
3132.81	5.7915
3134.08	6.28654
3135.35	5.55704
3136.62	5.90341
3137.89	5.72169
3139.16	5.99382
3140.43	5.9509
3141.7	6.00258
3142.97	5.84217
3144.24	5.76383
3145.51	5.73039
3146.78	6.06221
3148.04	6.13536
3149.31	6.60212
