#Acq. time (s)=	45
#Accumulations=	2
#Range (cm-¹)=	200...3150
#Windows=	2
#Auto scanning=	Off
#Autofocus=	Off
#Macrospot=	Off
#AutoExposure=	Off
#Spike filter=	Multiple accum.
#Delay time (s)=	0
#Binning=	1
#Readout mode=	Signal
#DeNoise=	Off
#ICS correction=	On
#Dark correction=	Off
#Inst. Process=	Off
#Detector Gain=	Best Dynamic Range
#Detector ADC=	20 kHz       
#Detector temperature (°C)=	-69.85
#Instrument=	LabRAM HR Evol
#Detector=	Synapse
#Objective=	x100
#Grating=	600 gr/mm
#ND Filter=	100%
#Laser (nm)=	532 
#Hole=	100.021
#Range=	Auto
#Laser Pol.=	No
#Raman. Pol.=	No
#Laser Pol. (°)=	-0.0007625
#Raman Pol. (°)=	89.9995
#Collection=	Microscope
#StageXY=	Marzhauser
#StageZ=	Marzhauser
#X (µm)=	-1152.4
#Y (µm)=	674.7
#Z (µm)=	584.9
#Full time(mm:ss)=	3:18
#Project=	
#Sample=	
#Site=	
#Title=	Mb_40_y_44_2x_45s_532 nm_x100_100%_600 gr_mm
#Remark=	
#Date=	19.07.2022 13:10
#Acquired=	19.07.2022 13:10:04
#Base:Fit=	10.08.2022 10:52:48
#Base:Sub=	10.08.2022 10:52:53
#Filter:Polynom=	16.08.2022 10:09:04
#AxisType[0]=Intens
#AxisUnit[0]=Cnt
#AxisType[1]=Spectr
#AxisUnit[1]=1/cm
200.423	29.826
202.238	24.7255
204.052	23.6914
205.868	21.253
207.682	19.0146
209.495	16.3238
211.308	13.8882
213.12	11.713
214.935	10.7808
216.746	10.5628
218.558	9.9041
220.369	8.24146
222.18	8.10751
223.992	6.70742
225.802	6.34676
227.612	6.58821
229.421	7.24524
231.23	7.06881
233.039	5.72242
234.849	5.4755
236.657	4.56909
238.465	4.92237
240.272	4.60761
242.079	3.50188
243.885	2.23034
245.691	2.26924
247.497	1.68897
249.305	2.12844
251.11	2.42939
252.915	1.993
254.719	3.65366
256.523	4.39563
258.327	4.72585
260.13	6.30134
261.933	5.71117
263.736	5.62118
265.538	6.47736
267.34	6.88763
269.141	7.75399
270.943	7.28142
272.744	6.9884
274.544	6.7524
276.344	8.00889
278.144	8.37531
279.944	10.2971
281.743	11.5429
283.542	10.7204
285.34	10.0316
287.138	10.1572
288.936	11.6665
290.733	12.8485
292.53	13.6974
294.327	13.2925
296.123	14.2618
297.919	15.6274
299.715	17.5758
301.508	19.1904
303.303	21.435
305.098	22.5408
306.892	23.2713
308.686	22.1572
310.479	23.1387
312.273	24.41
314.065	25.4444
315.858	26.7495
317.648	27.0316
319.44	26.9102
321.231	25.9117
323.022	25.3337
324.813	26.0144
326.604	25.0069
328.392	25.2029
330.181	24.5274
331.971	23.543
333.76	23.8928
335.548	24.97
337.335	24.5385
339.123	25.213
340.91	23.7711
342.698	23.313
344.483	23.8041
346.269	23.2529
348.055	22.1365
349.841	21.5426
351.625	20.9236
353.41	20.3338
355.195	20.3451
356.977	19.9764
358.762	20.0547
360.545	20.5437
362.329	21.3028
364.11	21.0885
365.893	20.7519
367.675	21.8113
369.455	21.1504
371.237	21.3352
373.017	21.0914
374.798	22.2749
376.578	22.9252
378.357	23.5714
380.137	23.8945
381.917	23.8484
383.694	24.5765
385.473	25.0541
387.249	26.7116
389.028	27.238
390.806	27.3777
392.581	27.7716
394.359	27.1098
396.134	27.2028
397.91	26.6321
399.684	27.1545
401.46	27.0387
403.234	26.3517
405.009	25.9431
406.784	25.4449
408.557	24.8033
410.331	24.9847
412.103	25.2771
413.876	24.9955
415.647	24.6469
417.42	24.5737
419.191	23.4547
420.961	22.057
422.733	21.9779
424.502	20.5552
426.273	18.5837
428.042	18.5341
429.812	17.022
431.58	16.2985
433.35	14.8645
435.118	13.8527
436.885	12.5679
438.653	12.2485
440.42	11.2478
442.188	10.8641
443.954	11.3235
445.719	10.8573
447.486	11.0406
449.251	10.712
451.015	9.76107
452.781	8.78345
454.545	8.87554
456.308	9.98009
458.073	9.87032
459.836	10.7549
461.598	11.4956
463.362	11.9334
465.124	11.5267
466.885	12.4803
468.648	12.9709
470.408	13.7025
472.169	13.2376
473.929	15.0814
475.69	16.9475
477.45	18.1192
479.208	19.2864
480.967	18.9943
482.727	20.3349
484.485	20.3416
486.243	20.5922
488	22.0835
489.759	23.0281
491.515	23.3815
493.272	24.7512
495.028	25.3773
496.783	25.4677
498.54	26.4715
500.295	26.7542
502.05	27.1631
503.804	26.9262
505.558	26.3022
507.311	26.8135
509.064	27.3653
510.819	27.8884
512.572	26.548
514.324	26.7349
516.076	27.0305
517.827	25.8685
519.578	25.3086
521.329	25.6606
523.08	26.2434
524.83	26.0664
526.58	27.1652
528.329	26.9325
530.08	27.2947
531.829	26.7942
533.578	26.5378
535.326	26.2728
537.074	25.5173
538.821	25.0992
540.568	24.5577
542.315	23.7967
544.062	23.4028
545.808	22.9059
547.554	22.211
549.299	21.1489
551.044	19.9055
552.789	18.5286
554.533	18.5664
556.278	17.7823
558.019	17.9485
559.763	17.28
561.506	18.4678
563.249	18.1213
564.991	17.6292
566.733	16.6515
568.475	15.3806
570.217	14.7883
571.958	13.7582
573.699	12.8733
575.439	11.7951
577.177	10.8978
578.917	10.0913
580.656	9.60118
582.396	10.0826
584.134	9.32496
585.873	9.82628
587.609	10.2256
589.347	9.67698
591.084	9.70347
592.822	9.75102
594.558	9.30604
596.295	8.84863
598.029	8.05007
599.765	6.70951
601.5	6.89649
603.235	6.6052
604.968	6.51544
606.703	7.60476
608.437	8.15797
610.171	8.42254
611.902	7.81326
613.635	7.70462
615.368	7.21509
617.099	6.92401
618.831	6.64522
620.563	6.74616
622.294	5.65506
624.024	4.54973
625.755	4.06011
627.485	3.97566
629.213	3.87311
630.943	4.07081
632.673	3.74105
634.4	3.29027
636.129	3.1226
637.855	3.14194
639.584	2.90332
641.312	3.41334
643.037	4.15721
644.764	4.10974
646.491	4.32694
648.216	4.88141
649.942	5.68251
651.666	5.65922
653.392	5.1444
655.115	5.72715
656.84	4.56728
658.563	4.12325
660.287	3.51316
662.011	3.15381
663.732	4.22437
665.456	4.18797
667.177	4.68499
668.899	5.51764
670.62	6.38713
672.342	7.79394
674.061	9.0079
675.781	9.33675
677.502	10.3347
679.22	11.1348
680.941	12.3487
682.659	13.2795
684.379	13.5429
686.096	14.8818
687.815	16.1068
689.532	17.5241
691.248	18.8227
692.966	19.332
694.682	19.8931
696.4	20.485
698.115	20.8666
699.829	22.6007
701.546	24.9153
703.26	26.1607
704.974	28.0229
706.689	28.6575
708.402	29.9436
710.115	31.0258
711.83	31.7622
713.542	32.9455
715.254	33.9761
716.967	34.7255
718.679	35.3451
720.39	37.0435
722.102	38.3158
723.812	38.9721
725.522	39.3517
727.232	40.9994
728.943	41.9533
730.652	42.3237
732.361	44.1494
734.069	44.2903
735.779	44.4586
737.487	43.9296
739.194	43.135
740.901	43.3131
742.608	42.5606
744.316	43.6598
746.022	44.007
747.728	44.5778
749.433	46.8135
751.138	47.1167
752.843	47.9205
754.549	49.4394
756.254	51.2855
757.957	51.7996
759.661	52.7102
761.364	53.3313
763.067	53.3676
764.769	53.8666
766.471	54.6497
768.175	54.8545
769.877	55.1498
771.578	56.2461
773.279	56.92
774.98	57.1899
776.68	57.673
778.38	58.1159
780.079	59.2344
781.779	60.1987
783.478	61.5944
785.176	63.2582
786.875	63.4749
788.573	63.2885
790.27	63.1374
791.968	63.1697
793.665	62.7655
795.361	62.1256
797.058	61.9254
798.754	62.9398
800.45	63.1762
802.145	63.693
803.84	63.4339
805.535	63.0996
807.23	62.7287
808.922	61.6957
810.616	62.1908
812.309	63.0969
814.002	62.4909
815.695	60.7128
817.388	60.3314
819.08	58.2132
820.772	57.2851
822.464	56.4474
824.153	56.3226
825.844	56.4829
827.535	56.5676
829.225	55.9523
830.915	54.7198
832.605	53.6481
834.292	53.8631
835.981	53.1623
837.67	53.3205
839.359	52.9837
841.047	52.8665
842.732	52.1354
844.42	51.7224
846.107	50.4827
847.794	49.4038
849.479	49.0385
851.165	49.3812
852.851	48.2379
854.534	47.4934
856.22	47.1074
857.905	45.9908
859.589	45.6064
861.272	44.9505
862.956	44.2565
864.639	42.5147
866.321	42.4217
868.004	40.4467
869.687	39.1531
871.367	38.0303
873.049	37.6193
874.731	36.8452
876.41	36.8896
878.092	35.9039
879.771	36.4555
881.451	35.6496
883.131	35.8709
884.809	36.0842
886.489	36.1337
888.166	35.6725
889.845	36.7413
891.522	37.1619
893.2	36.915
894.878	36.3213
896.554	35.4953
898.231	34.7693
899.906	34.6569
901.583	36.3123
903.258	35.2064
904.934	35.2678
906.608	35.4562
908.283	36.7191
909.956	36.0468
911.631	36.4373
913.304	35.9001
914.976	36.5522
916.65	37.0867
918.322	37.7654
919.995	36.6333
921.666	36.0437
923.339	36.093
925.009	36.0225
926.679	35.993
928.351	36.1169
930.021	36.1699
931.692	36.201
933.361	36.3333
935.029	36.7014
936.699	36.6801
938.367	36.1622
940.035	35.26
941.704	34.903
943.371	33.6172
945.038	32.6274
946.706	32.5705
948.372	32.1609
950.038	32.1544
951.705	31.5733
953.37	32.36
955.035	32.0925
956.7	30.8754
958.366	30.3509
960.03	29.9505
961.693	30.001
963.357	30.0599
965.021	30.1647
966.684	31.0694
968.346	31.1855
970.008	31.5036
971.67	31.701
973.334	31.9048
974.995	31.058
976.655	30.8219
978.316	31.0683
979.976	31.0165
981.638	31.6705
983.297	31.2632
984.957	30.4211
986.616	28.4379
988.274	28.1308
989.932	27.648
991.59	26.3695
993.248	23.7618
994.907	21.8035
996.565	19.0551
998.221	16.3718
999.878	12.1891
1001.53	8.22187
1003.19	6.53422
1004.85	7.67209
1006.5	9.33587
1008.16	12.9986
1009.81	19.5035
1011.46	27.0665
1013.12	37.2341
1014.77	47.6131
1016.43	59.3638
1018.08	71.0113
1019.73	82.8248
1021.38	93.9104
1023.04	104.748
1024.69	115.256
1026.34	125.513
1027.99	136.556
1029.64	145.535
1031.29	153.079
1032.94	159.799
1034.59	165.92
1036.24	170.972
1037.89	175.829
1039.54	178.772
1041.19	182.52
1042.84	184.971
1044.48	186.524
1046.13	186.351
1047.78	186.112
1049.42	185.272
1051.07	183.381
1052.72	181.263
1054.36	177.588
1056.01	172.279
1057.66	166.479
1059.3	160.243
1060.94	152.757
1062.59	145.031
1064.23	136.473
1065.88	126.048
1067.52	115.443
1069.16	104.14
1070.81	93.2265
1072.45	81.1801
1074.09	67.8374
1075.73	55.0987
1077.38	43.8644
1079.02	33.2172
1080.66	23.8513
1082.3	14.8104
1083.94	9.18618
1085.58	6.4035
1087.22	5.80203
1088.86	5.78126
1090.5	8.5602
1092.13	11.9165
1093.77	14.8654
1095.41	18.9811
1097.05	20.1771
1098.68	22.088
1100.32	23.3225
1101.96	24.1458
1103.6	24.5903
1105.23	25.3513
1106.87	25.953
1108.5	26.4747
1110.14	26.5383
1111.77	26.4827
1113.41	25.4817
1115.04	25.638
1116.67	25.0659
1118.31	24.6508
1119.94	24.4758
1121.58	22.769
1123.21	22.1852
1124.84	21.3868
1126.47	21.0638
1128.1	20.8252
1129.73	20.817
1131.37	20.456
1133	19.6011
1134.63	19.3146
1136.26	18.1763
1137.89	16.8375
1139.52	17.3404
1141.14	16.8525
1142.77	16.1299
1144.4	16.1751
1146.03	15.2221
1147.66	15.4269
1149.29	15.0137
1150.91	14.6422
1152.54	13.6979
1154.17	11.2285
1155.79	10.2562
1157.42	9.45327
1159.04	8.7181
1160.67	7.557
1162.3	6.74282
1163.92	5.59251
1165.55	6.78353
1167.17	6.99148
1168.79	7.99428
1170.42	8.10403
1172.04	7.99315
1173.66	7.89844
1175.28	8.19613
1176.91	7.22204
1178.53	6.38789
1180.15	5.71108
1181.77	6.17188
1183.39	6.11463
1185.01	6.51608
1186.63	6.83571
1188.25	6.85827
1189.87	7.11787
1191.49	7.84594
1193.11	9.31369
1194.73	10.3687
1196.35	11.3391
1197.97	11.9241
1199.59	13.1533
1201.2	13.8588
1202.82	14.1718
1204.44	15.8598
1206.05	16.8178
1207.67	18.4037
1209.29	19.3583
1210.9	21.4281
1212.52	22.5052
1214.13	24.3875
1215.75	26.1964
1217.36	27.72
1218.97	29.8156
1220.59	33.1884
1222.2	34.6494
1223.82	36.275
1225.43	37.4304
1227.04	39.1978
1228.65	41.3816
1230.26	41.616
1231.88	42.5771
1233.49	42.2569
1235.1	43.0133
1236.71	44.8403
1238.32	45.2924
1239.93	46.7755
1241.54	48.0675
1243.15	48.9824
1244.76	49.6548
1246.37	50.8947
1247.97	51.834
1249.58	53.3643
1251.19	54.5423
1252.8	55.0264
1254.41	57.2615
1256.01	57.6614
1257.62	57.8921
1259.23	59.7378
1260.83	59.8591
1262.44	61.9513
1264.04	62.0626
1265.65	63.3516
1267.25	64.176
1268.86	65.6372
1270.46	66.9508
1272.07	67.749
1273.67	68.9398
1275.27	68.4391
1276.88	69.1569
1278.48	70.1039
1280.08	70.9433
1281.68	72.5937
1283.28	73.965
1284.89	75.2894
1286.49	75.1114
1288.09	76.4618
1289.69	76.397
1291.29	77.8875
1292.89	78.5474
1294.49	79.2762
1296.09	78.9748
1297.69	79.5851
1299.29	80.5033
1300.88	81.5674
1302.48	80.5384
1304.08	81.1789
1305.68	80.365
1307.27	81.6225
1308.87	82.524
1310.47	81.5147
1312.06	81.8776
1313.66	82.3051
1315.25	83.9927
1316.85	84.3051
1318.44	84.6552
1320.04	85.1475
1321.63	85.7789
1323.23	86.4596
1324.82	87.2776
1326.41	88.9937
1328.01	89.4529
1329.6	89.3576
1331.19	89.2882
1332.78	87.742
1334.38	87.3109
1335.97	86.4644
1337.56	84.6558
1339.15	83.7904
1340.74	81.5687
1342.33	81.5743
1343.92	79.1262
1345.51	78.8972
1347.1	77.6682
1348.69	75.9754
1350.28	74.6523
1351.87	73.4912
1353.46	72.9153
1355.04	71.3409
1356.63	71.4612
1358.22	69.8342
1359.81	68.8206
1361.39	67.5183
1362.98	66.2819
1364.57	63.9652
1366.15	62.1568
1367.74	62.1257
1369.32	60.8507
1370.91	59.8964
1372.49	58.6839
1374.07	56.5746
1375.66	55.6182
1377.24	56.2726
1378.83	55.154
1380.41	54.0107
1381.99	53.3048
1383.57	53.5069
1385.16	52.0501
1386.74	53.4479
1388.32	53.0362
1389.9	52.1753
1391.48	54.7407
1393.06	55.3206
1394.64	55.8055
1396.22	56.456
1397.8	56.7521
1399.38	58.487
1400.96	58.5726
1402.54	59.7467
1404.12	61.0438
1405.7	61.8413
1407.28	63.2509
1408.85	64.2039
1410.43	66.1052
1412.01	68.1903
1413.58	70.4143
1415.16	73.3588
1416.74	74.4821
1418.31	78.0136
1419.89	80.3759
1421.46	83.356
1423.04	85.1178
1424.61	88.6068
1426.19	90.9312
1427.76	93.0785
1429.33	96.739
1430.91	99.8683
1432.48	101.386
1434.05	103.176
1435.63	104.989
1437.2	106.736
1438.77	108.552
1440.34	109.909
1441.91	111.615
1443.49	111.492
1445.05	112.392
1446.63	112.911
1448.2	112.536
1449.77	112.852
1451.34	113.178
1452.91	111.708
1454.47	110.671
1456.04	109.486
1457.61	107.205
1459.18	105.694
1460.75	104.952
1462.31	102.573
1463.88	100.599
1465.45	99.6922
1467.01	97.8205
1468.58	96.8781
1470.15	95.8752
1471.71	91.3411
1473.28	89.2438
1474.84	87.3701
1476.41	85.0747
1477.97	82.5879
1479.54	80.0018
1481.1	79.307
1482.66	76.9005
1484.23	74.3995
1485.79	72.9842
1487.35	71.2002
1488.91	70.1379
1490.48	68.2603
1492.04	66.3306
1493.6	64.9588
1495.16	61.6849
1496.72	60.6868
1498.28	59.215
1499.84	57.339
1501.4	56.2707
1502.96	55.1304
1504.52	54.4505
1506.08	53.5192
1507.64	53.7018
1509.2	52.5916
1510.76	50.9138
1512.31	50.8638
1513.87	50.4446
1515.43	50.2564
1516.99	49.9048
1518.54	49.6178
1520.1	48.9387
1521.66	49.1056
1523.21	47.6312
1524.77	47.8151
1526.32	47.5807
1527.88	46.7643
1529.43	46.1424
1530.99	45.3403
1532.54	45.2472
1534.09	45.816
1535.65	45.7175
1537.2	45.681
1538.75	47.0292
1540.31	47.1205
1541.86	47.6553
1543.41	48.7603
1544.96	48.7814
1546.51	48.9166
1548.06	48.6961
1549.62	49.1411
1551.17	49.9984
1552.72	50.1667
1554.27	49.4828
1555.82	49.2472
1557.36	49.7801
1558.91	49.3709
1560.46	49.7331
1562.01	50.0984
1563.56	50.9174
1565.11	51.2678
1566.66	50.8694
1568.2	51.2238
1569.75	51.5846
1571.3	52.9403
1572.84	52.9907
1574.39	54.9787
1575.93	55.7231
1577.48	56.595
1579.02	58.3152
1580.57	58.5911
1582.11	60.1986
1583.66	60.9878
1585.2	62.1702
1586.75	62.3893
1588.29	63.272
1589.83	64.5248
1591.38	65.8415
1592.92	66.4295
1594.46	68.5787
1596	68.5552
1597.54	68.8796
1599.09	69.5282
1600.63	69.3966
1602.17	69.8082
1603.71	70.3911
1605.25	71.3415
1606.79	73.183
1608.33	72.9468
1609.87	73.4055
1611.41	73.1973
1612.95	72.9677
1614.48	73.0443
1616.02	73.5107
1617.56	72.9739
1619.1	72.6234
1620.64	72.9231
1622.17	71.7282
1623.71	71.4686
1625.25	71.9894
1626.78	72.4472
1628.32	72.1855
1629.86	72.3882
1631.39	72.9755
1632.92	74.2951
1634.46	74.3123
1635.99	75.3716
1637.53	76.2537
1639.06	77.2235
1640.59	77.2877
1642.13	77.4255
1643.66	78.3871
1645.19	78.5676
1646.73	78.9753
1648.26	79.8898
1649.79	79.3901
1651.32	81.0131
1652.85	81.1378
1654.38	81.2888
1655.92	80.8387
1657.45	79.606
1658.98	79.4843
1660.51	78.2217
1662.04	77.4959
1663.57	75.9697
1665.09	75.3461
1666.62	74.9256
1668.15	74.4381
1669.68	73.9588
1671.21	72.3684
1672.73	69.1159
1674.26	66.8968
1675.79	64.565
1677.31	62.5171
1678.84	60.1134
1680.37	58.2609
1681.89	55.9372
1683.42	53.1792
1684.94	49.8884
1686.47	48.0737
1687.99	45.5428
1689.52	43.3039
1691.04	41.1018
1692.57	38.9279
1694.09	36.6653
1695.61	35.085
1697.14	32.7974
1698.66	31.4542
1700.18	30.9905
1701.7	30.5619
1703.22	29.2582
1704.75	27.7998
1706.27	27.177
1707.79	26.9334
1709.31	25.9998
1710.83	25.2031
1712.35	24.8309
1713.87	23.7467
1715.39	23.8715
1716.91	22.6311
1718.43	22.3749
1719.95	21.9769
1721.46	20.77
1722.98	21.0728
1724.5	20.7931
1726.02	20.9591
1727.53	21.0548
1729.05	20.0769
1730.57	19.3387
1732.08	18.2668
1733.6	17.6385
1735.12	16.7298
1736.63	15.8348
1738.15	15.569
1739.66	14.7728
1741.18	15.1854
1742.69	15.1437
1744.21	14.3523
1745.72	13.5221
1747.23	11.558
1748.74	11.1248
1750.26	10.7199
1751.77	9.86039
1753.28	8.97671
1754.8	8.36822
1756.31	7.91173
1757.82	8.32465
1759.33	8.54886
1760.84	9.15859
1762.35	8.9844
1763.86	8.11442
1765.37	7.98158
1766.88	7.58049
1768.39	7.27096
1769.9	6.88984
1771.41	6.81289
1772.92	6.50969
1774.43	7.12453
1775.93	7.45619
1777.44	7.96986
1778.95	7.88509
1780.46	8.44673
1781.96	9.32879
1783.47	9.40055
1784.98	8.90603
1786.48	9.35064
1787.99	8.87823
1789.49	8.74378
1791	9.27068
1792.5	9.23172
1794.01	9.43356
1795.51	9.13106
1797.02	9.41838
1798.52	9.86708
1800.03	9.89738
1801.53	10.4469
1803.03	10.4908
1804.53	10.1364
1806.04	9.80836
1807.54	9.57533
1809.04	9.16761
1810.54	9.6693
1812.04	10.1858
1813.54	10.6311
1815.05	10.5601
1816.55	10.8562
1818.05	10.5901
1819.55	9.82773
1821.05	9.56438
1822.55	9.77316
1824.05	9.23559
1825.54	8.43347
1827.04	7.5001
1828.54	7.4217
1830.04	7.65445
1831.54	7.75551
1833.03	7.99453
1834.53	7.72147
1836.03	7.33524
1837.52	6.82461
1839.02	6.65945
1840.52	6.72873
1842.01	6.85176
1843.51	7.04842
1845	7.27543
1846.5	7.68011
1847.99	7.62318
1849.49	8.12413
1850.98	8.52005
1852.47	8.84945
1853.97	8.47889
1855.46	8.79083
1856.95	7.97057
1858.45	7.8745
1859.94	7.66979
1861.43	7.44477
1862.92	6.74355
1864.41	6.79949
1865.91	7.39132
1867.4	7.71392
1868.89	8.05104
1870.38	8.45487
1871.87	8.61934
1873.36	8.62937
1874.85	9.30532
1876.34	10.2885
1877.83	9.7623
1879.31	9.16642
1880.8	10.1446
1882.29	10.3757
1882.56	10.7648
1884.05	11.5515
1885.54	10.9122
1887.04	10.9795
1888.53	10.8872
1890.03	10.6802
1891.52	10.6285
1893.01	9.96089
1894.5	9.36804
1895.99	8.90447
1897.49	8.39514
1898.98	7.45477
1900.47	7.81539
1901.96	7.4872
1903.45	7.71981
1904.94	7.89277
1906.43	8.14024
1907.92	7.5114
1909.41	7.655
1910.9	7.03775
1912.39	6.50408
1913.88	6.63218
1915.37	6.64399
1916.86	6.43272
1918.35	6.57293
1919.84	6.16021
1921.32	6.19587
1922.81	6.2685
1924.3	5.63976
1925.78	4.94967
1927.27	3.8308
1928.76	2.65739
1930.24	1.7213
1931.73	1.54195
1933.21	0.747084
1934.7	0.342317
1936.18	0.532088
1937.67	0.646772
1939.15	0.19849
1940.64	0.321676
1942.12	0.646918
1943.6	1.25879
1945.09	1.35032
1946.57	1.13359
1948.05	1.22833
1949.54	1.04969
1951.02	-0.0626787
1952.5	0.569569
1953.98	1.83402
1955.46	1.34684
1956.94	2.06398
1958.42	2.18931
1959.91	2.1783
1961.39	2.50587
1962.87	2.46085
1964.34	2.46594
1965.82	2.16666
1967.3	1.70686
1968.78	1.95275
1970.26	3.10396
1971.74	3.50732
1973.22	3.88554
1974.7	4.22272
1976.17	4.40969
1977.65	4.47716
1979.13	4.96429
1980.6	4.55666
1982.08	3.88436
1983.56	4.06565
1985.03	4.00101
1986.51	4.77084
1987.98	5.8717
1989.46	5.27881
1990.93	6.36184
1992.41	6.93561
1993.88	7.23554
1995.36	7.4018
1996.83	6.92131
1998.3	6.39345
1999.78	6.61204
2001.25	6.7282
2002.72	7.00984
2004.2	7.50316
2005.67	7.77866
2007.14	7.93534
2008.61	8.20197
2010.08	8.48416
2011.55	8.61164
2013.02	9.15927
2014.49	10.2567
2015.97	10.513
2017.43	10.5956
2018.9	10.4044
2020.37	9.9328
2021.84	10.3429
2023.31	10.7692
2024.78	10.5297
2026.25	11.7109
2027.72	12.2164
2029.19	12.705
2030.65	13.3483
2032.12	12.9223
2033.59	13.3933
2035.05	13.6842
2036.52	13.3826
2037.98	13.7033
2039.45	14.543
2040.92	15.3385
2042.38	15.0193
2043.85	14.7802
2045.31	15.0373
2046.78	15.5305
2048.24	14.8521
2049.71	15.0687
2051.17	14.9148
2052.63	15.6546
2054.1	15.1525
2055.56	15.6754
2057.02	15.7528
2058.48	16.3054
2059.95	16.3274
2061.41	16.8262
2062.87	17.1492
2064.33	17.8745
2065.79	17.9063
2067.25	17.7245
2068.71	16.9926
2070.17	16.8247
2071.63	17.0979
2073.09	17.9488
2074.55	17.426
2076.01	17.7848
2077.47	17.7699
2078.93	17.9568
2080.39	18.7698
2081.85	19.5392
2083.3	20.7932
2084.76	21.5905
2086.22	22.1374
2087.68	22.6335
2089.13	23.7828
2090.59	25.125
2092.05	26.4475
2093.5	27.3444
2094.96	28.8877
2096.41	30.1523
2097.87	31.0168
2099.32	33.0646
2100.78	34.2022
2102.23	35.5668
2103.69	36.22
2105.14	37.6862
2106.59	39.9577
2108.05	41.3646
2109.5	42.515
2110.95	44.4099
2112.41	46.3089
2113.86	47.3694
2115.31	48.0687
2116.76	50.0457
2118.21	52.0998
2119.67	53.9006
2121.12	54.8783
2122.57	56.4842
2124.02	58.8539
2125.47	60.5729
2126.92	61.6728
2128.37	63.5019
2129.82	64.8932
2131.27	67.0053
2132.71	68.8244
2134.16	70.5874
2135.61	71.127
2137.06	72.6186
2138.51	73.734
2139.95	74.9357
2141.4	75.5874
2142.85	77.0192
2144.29	79.0241
2145.74	79.6574
2147.19	80.5766
2148.63	81.3441
2150.08	82.7465
2151.52	84.583
2152.97	86.0661
2154.42	86.781
2155.86	88.4008
2157.3	89.4068
2158.75	90.593
2160.19	92.0015
2161.64	93.8135
2163.08	94.4334
2164.52	94.5808
2165.96	94.9206
2167.41	95.7478
2168.85	95.9917
2170.29	96.1007
2171.73	96.0703
2173.17	96.6858
2174.61	96.535
2176.06	96.126
2177.5	95.9341
2178.94	95.1374
2180.38	94.4953
2181.82	93.2278
2183.26	92.9518
2184.7	92.2645
2186.14	90.8158
2187.57	89.9529
2189.01	89.3039
2190.45	89.3204
2191.89	89.0045
2193.33	86.9482
2194.76	85.8262
2196.2	84.5782
2197.64	82.8009
2199.08	80.8664
2200.51	79.5278
2201.95	77.3434
2203.38	74.8868
2204.82	73.7236
2206.25	71.6152
2207.69	70.3023
2209.12	68.8988
2210.56	67.0174
2211.99	65.1382
2213.43	63.4015
2214.86	61.5895
2216.3	59.5039
2217.73	57.442
2219.16	55.8902
2220.59	54.0492
2222.03	53.7406
2223.46	51.8883
2224.89	50.2807
2226.32	48.9719
2227.75	47.4772
2229.19	46.0364
2230.62	44.2344
2232.05	43.5662
2233.48	42.232
2234.91	39.8639
2236.34	37.8391
2237.77	36.2986
2239.2	35.0949
2240.63	33.1281
2242.06	31.2218
2243.48	30.0722
2244.91	29.6635
2246.34	27.8907
2247.77	26.4376
2249.2	25.733
2250.62	25.2102
2252.05	25.2949
2253.48	23.7094
2254.9	23.1368
2256.33	21.7311
2257.76	21.7016
2259.18	20.669
2260.61	20.1047
2262.03	19.3694
2263.46	18.4077
2264.88	17.084
2266.31	16.8309
2267.73	16.7136
2269.16	15.989
2270.58	15.3555
2272	14.5638
2273.43	14.1668
2274.85	13.4543
2276.27	14.7365
2277.69	13.351
2279.12	12.8018
2280.54	12.2441
2281.96	11.9107
2283.38	11.1913
2284.8	11.4524
2286.22	10.0828
2287.64	9.42227
2289.07	9.40738
2290.49	8.34218
2291.91	7.5657
2293.32	6.93283
2294.74	6.34226
2296.16	6.32122
2297.58	5.78878
2299	5.93028
2300.42	6.44561
2301.84	6.17829
2303.26	6.26746
2304.67	6.16001
2306.09	6.12135
2307.51	5.92537
2308.92	5.82015
2310.34	6.4285
2311.76	6.37132
2313.17	6.66802
2314.59	7.55763
2316	7.64842
2317.42	7.54116
2318.83	8.03779
2320.25	8.44818
2321.66	8.32947
2323.08	7.86915
2324.49	7.47565
2325.91	7.41464
2327.32	7.97594
2328.73	8.2139
2330.15	7.57423
2331.56	8.25951
2332.97	8.44425
2334.38	8.96399
2335.79	8.59857
2337.21	7.9424
2338.62	7.36388
2340.03	6.8682
2341.44	6.60806
2342.85	6.48397
2344.26	5.87465
2345.67	5.12809
2347.08	5.34081
2348.49	4.8527
2349.9	5.00028
2351.31	4.74058
2352.72	4.01044
2354.13	3.39058
2355.53	3.21943
2356.94	3.19017
2358.35	2.37881
2359.76	1.63556
2361.17	1.34342
2362.57	1.35224
2363.98	1.73515
2365.39	2.01169
2366.79	2.53682
2368.2	2.38689
2369.6	2.80445
2371.01	2.35032
2372.42	2.34072
2373.82	2.29465
2375.22	2.33823
2376.63	1.5751
2378.03	0.669605
2379.44	0.449657
2380.84	0.655488
2382.25	0.561575
2383.65	0.797487
2385.05	0.320196
2386.45	-0.0618998
2387.86	0.233789
2389.26	0.334786
2390.66	0.0369116
2392.06	0.606034
2393.46	0.472143
2394.87	1.26723
2396.27	0.569987
2397.67	0.737483
2399.07	0.0952512
2400.47	0.591056
2401.87	1.23834
2403.27	1.80909
2404.67	1.65856
2406.07	1.76354
2407.47	1.80316
2408.86	2.35478
2410.26	2.75985
2411.66	2.85584
2413.06	3.18347
2414.46	3.68417
2415.85	4.32564
2417.25	4.28678
2418.65	4.57583
2420.05	4.19285
2421.44	4.12949
2422.84	4.47329
2424.23	4.7254
2425.63	4.95667
2427.03	4.32405
2428.42	3.39126
2429.82	3.55965
2431.21	4.08445
2432.6	4.04318
2434	4.07031
2435.39	4.00552
2436.79	4.46033
2438.18	4.21661
2439.57	3.86221
2440.97	2.98108
2442.36	3.21645
2443.75	2.39723
2445.14	1.73783
2446.54	1.49252
2447.93	1.40778
2449.32	1.40286
2450.71	1.90845
2452.1	2.34042
2453.49	2.15486
2454.88	1.91888
2456.27	2.83826
2457.66	2.32986
2459.05	2.3268
2460.44	2.43484
2461.83	2.91558
2463.22	2.41078
2464.61	2.53408
2466	1.93199
2467.39	2.3766
2468.77	2.65231
2470.16	3.33544
2471.55	3.78258
2472.94	4.08488
2474.32	3.8973
2475.71	3.97486
2477.1	3.88587
2478.48	3.92646
2479.87	3.69579
2481.25	3.7158
2482.64	3.65274
2484.02	3.58674
2485.41	3.14152
2486.8	3.04959
2488.18	3.61525
2489.56	3.61168
2490.95	3.10079
2492.33	2.98677
2493.72	2.99267
2495.1	2.84229
2496.48	2.76553
2497.86	2.74596
2499.25	2.54333
2500.63	3.01027
2502.01	2.89401
2503.39	3.16116
2504.77	2.66231
2506.16	2.57414
2507.54	1.87917
2508.92	1.73279
2510.3	1.96069
2511.68	2.17363
2513.06	1.86527
2514.44	1.7206
2515.82	2.07901
2517.2	2.31483
2518.58	1.84616
2519.95	2.13745
2521.33	1.9884
2522.71	2.08383
2524.09	2.57484
2525.47	2.58812
2526.84	1.86603
2528.22	2.97691
2529.6	2.31763
2530.98	2.52178
2532.35	2.07425
2533.73	2.13326
2535.11	2.40399
2536.48	2.79635
2537.86	2.62043
2539.23	2.6379
2540.61	2.46591
2541.98	1.5799
2543.36	1.2301
2544.73	1.79787
2546.1	1.81966
2547.48	1.90613
2548.85	2.10669
2550.23	2.44038
2551.6	3.1243
2552.97	3.13914
2554.34	3.00846
2555.72	2.71865
2557.09	2.20318
2558.46	1.83238
2559.83	1.93422
2561.2	2.42475
2562.58	2.33374
2563.95	1.51202
2565.32	1.46127
2566.69	1.41646
2568.06	2.15494
2569.43	2.68124
2570.8	1.68928
2572.17	1.96196
2573.54	1.68761
2574.91	1.68374
2576.27	2.18123
2577.64	2.70642
2579.01	2.20233
2580.38	2.4023
2581.75	2.76329
2583.11	2.76517
2584.48	2.78136
2585.85	2.33428
2587.21	2.02335
2588.58	2.52231
2589.95	2.91239
2591.31	3.07806
2592.68	2.94291
2594.04	2.99919
2595.41	2.84523
2596.78	3.34363
2598.14	2.36404
2599.51	2.31337
2600.87	1.70804
2602.23	1.9538
2603.6	1.87866
2604.96	0.897111
2606.32	0.461956
2607.69	0.680961
2609.05	0.877108
2610.41	0.97623
2611.77	1.60424
2613.14	1.70921
2614.5	1.07654
2615.86	1.23857
2617.22	1.20985
2618.58	1.48995
2619.94	1.13764
2621.3	0.908113
2622.67	0.730857
2624.03	0.539649
2625.39	0.866609
2626.75	1.41602
2628.1	1.82477
2629.46	1.72736
2630.82	1.49335
2632.18	1.66856
2633.54	2.71924
2634.9	3.22753
2636.26	3.89077
2637.61	4.31419
2638.97	4.40743
2640.33	5.77299
2641.69	5.61867
2643.04	5.71865
2644.4	5.98151
2645.76	5.87453
2647.11	6.66956
2648.47	7.09119
2649.82	6.7111
2651.18	6.33872
2652.53	6.0051
2653.89	5.86302
2655.24	6.35145
2656.6	6.54438
2657.95	6.87388
2659.31	6.95453
2660.66	7.02362
2662.01	6.89989
2663.37	6.27369
2664.72	6.82856
2666.07	6.16331
2667.43	6.13957
2668.78	6.2215
2670.13	6.99658
2671.48	6.41922
2672.83	6.04062
2674.18	6.90206
2675.53	6.8265
2676.89	6.925
2678.24	6.91415
2679.59	6.91616
2680.94	7.07955
2682.29	7.27751
2683.64	7.39349
2684.99	7.74018
2686.34	8.06079
2687.68	7.13668
2689.03	7.46555
2690.38	7.88847
2691.73	8.6285
2693.08	8.97141
2694.43	9.22849
2695.77	10.4644
2697.12	10.155
2698.47	10.2555
2699.81	10.8039
2701.16	11.7846
2702.51	12.3064
2703.85	12.844
2705.2	13.0514
2706.54	12.7751
2707.89	12.8317
2709.23	12.4296
2710.58	12.6687
2711.92	13.3282
2713.27	13.9469
2714.61	14.201
2715.96	13.2595
2717.3	13.6979
2718.64	13.7234
2719.99	14.333
2721.33	14.7822
2722.67	15.1028
2724.01	14.8826
2725.36	14.7768
2726.7	15.4492
2728.04	15.0434
2729.38	14.8839
2730.72	15.2533
2732.06	15.1212
2733.41	14.2546
2734.75	13.8882
2736.09	13.4793
2737.43	13.0001
2738.77	11.697
2740.11	11.862
2741.44	11.6284
2742.78	10.9464
2744.12	10.5651
2745.46	9.44946
2746.8	8.34259
2748.14	7.49647
2749.48	6.95163
2750.81	6.35802
2752.15	6.09044
2753.49	5.25549
2754.83	4.70396
2756.16	4.76987
2757.5	4.31184
2758.84	3.44917
2760.17	2.51492
2761.51	2.12086
2762.84	1.83208
2764.18	1.57988
2765.51	2.03485
2766.85	2.33232
2768.18	2.74348
2769.52	3.33444
2770.85	3.40932
2772.19	3.14197
2773.52	3.20112
2774.85	3.44799
2776.19	3.11314
2777.52	2.97432
2778.85	3.57997
2780.18	3.15122
2781.52	3.728
2782.85	4.2615
2784.18	4.78743
2785.51	4.79962
2786.84	5.196
2788.17	5.00646
2789.51	4.66144
2790.84	5.16771
2792.17	5.80467
2793.5	6.69794
2794.83	6.3356
2796.16	6.90825
2797.48	7.25848
2798.81	7.36591
2800.14	7.48251
2801.47	7.39672
2802.8	7.53548
2804.13	8.00173
2805.46	8.32966
2806.79	8.23783
2808.11	7.87391
2809.44	7.67746
2810.77	7.21125
2812.09	6.90539
2813.42	7.43178
2814.75	8.1693
2816.07	8.23854
2817.4	8.77919
2818.73	9.44657
2820.05	11.0245
2821.38	12.5169
2822.7	14.889
2824.03	16.3811
2825.35	18.8955
2826.67	21.1552
2828	23.7996
2829.32	26.4698
2830.65	29.3683
2831.97	31.4265
2833.29	34.2144
2834.62	36.3966
2835.94	39.5783
2837.26	41.375
2838.58	43.9595
2839.9	47.0661
2841.23	50.335
2842.55	53.599
2843.87	57.4584
2845.19	60.9511
2846.51	64.6176
2847.83	68.6622
2849.15	71.9741
2850.47	74.894
2851.79	78.4238
2853.11	81.8463
2854.43	85.5178
2855.75	89.6127
2857.07	93.4809
2858.39	97.2332
2859.71	101.029
2861.02	104.172
2862.34	107.48
2863.66	110.747
2864.98	114.163
2866.3	116.392
2867.61	118.657
2868.93	120.869
2870.25	123.168
2871.56	124.77
2872.88	126.478
2874.19	128.844
2875.51	130.602
2876.83	132.271
2878.14	134.548
2879.46	136.643
2880.77	137.862
2882.09	139.292
2883.4	141.586
2884.71	143.622
2886.03	145.834
2887.34	147.422
2888.65	149.33
2889.97	150.435
2891.28	152.426
2892.59	154.16
2893.91	156.189
2895.22	158.701
2896.53	161.299
2897.84	163.022
2899.15	165.26
2900.46	167.951
2901.78	171.704
2903.09	173.736
2904.4	177.048
2905.71	180.834
2907.02	184.151
2908.33	187.561
2909.64	191.61
2910.95	195.021
2912.26	198.822
2913.57	202.478
2914.87	206.41
2916.18	209.741
2917.49	213.542
2918.8	216.947
2920.11	220.228
2921.42	223.59
2922.72	225.857
2924.03	228.898
2925.34	230.888
2926.64	232.134
2927.95	234.153
2929.26	235.265
2930.56	235.579
2931.87	235.482
2933.17	235.906
2934.48	235.951
2935.78	236.093
2937.09	235.253
2938.39	233.423
2939.7	231.337
2941	228.842
2942.31	226.055
2943.61	222.986
2944.91	219.143
2946.22	215.537
2947.52	211.702
2948.82	207.887
2950.13	204.047
2951.43	199.209
2952.73	195.117
2954.03	190.596
2955.33	186.623
2956.64	182.138
2957.94	177.58
2959.24	173.137
2960.54	168.142
2961.84	162.714
2963.14	157.797
2964.44	153.914
2965.74	149.594
2967.04	144.636
2968.34	139.628
2969.64	135.407
2970.94	131.862
2972.24	127.325
2973.53	123.045
2974.83	118.777
2976.13	114.122
2977.43	110.254
2978.73	106.127
2980.02	101.985
2981.32	97.326
2982.62	93.4609
2983.91	89.7678
2985.21	85.7915
2986.51	82.3256
2987.8	78.1397
2989.1	74.702
2990.4	70.6597
2991.69	67.0863
2992.99	63.8461
2994.28	60.2403
2995.57	57.3728
2996.87	54.6247
2998.16	51.2992
2999.46	48.0671
3000.75	45.6749
3002.05	42.1521
3003.34	38.88
3004.63	36.3063
3005.92	34.0957
3007.22	31.8173
3008.51	29.5088
3009.8	27.244
3011.09	25.6085
3012.39	23.5749
3013.68	22.2208
3014.97	20.5
3016.26	18.7044
3017.55	18.4684
3018.84	17.2201
3020.13	16.6886
3021.42	15.1866
3022.71	13.4923
3024	12.6451
3025.29	11.1641
3026.58	10.3264
3027.87	9.34379
3029.16	8.84304
3030.45	8.17257
3031.73	7.50998
3033.02	6.98971
3034.31	6.98509
3035.6	6.92849
3036.89	6.42568
3038.17	6.47843
3039.46	6.80704
3040.75	7.19424
3042.03	7.71174
3043.32	7.53329
3044.61	7.75667
3045.89	8.31886
3047.18	8.28166
3048.46	8.87792
3049.75	8.72894
3051.03	8.57479
3052.32	8.05105
3053.6	7.81886
3054.89	7.3099
3056.17	7.25845
3057.45	7.0885
3058.74	7.47611
3060.02	7.49062
3061.31	6.86347
3062.59	6.36673
3063.87	6.34883
3065.15	5.9356
3066.44	5.02286
3067.72	4.51648
3069	4.89753
3070.28	5.06928
3071.56	4.72675
3072.84	4.21111
3074.13	3.82167
3075.41	3.8366
3076.69	3.5179
3077.97	3.04984
3079.25	2.55014
3080.53	2.26398
3081.81	2.39044
3083.09	1.54101
3084.37	0.861422
3085.64	-0.0618826
3086.92	-0.667104
3088.2	-0.427718
3089.48	-0.869391
3090.76	-0.894487
3092.04	-1.00664
3093.31	-0.335938
3094.59	-0.479332
3095.87	-0.497874
3097.14	-0.0614613
3098.42	0.40204
3099.7	0.565093
3100.97	1.13863
3102.25	1.43035
3103.53	1.74231
3104.8	2.3729
3106.08	2.90357
3107.35	3.13175
3108.63	4.03561
3109.9	5.2104
3111.18	5.43175
3112.45	5.99841
3113.73	5.88489
3115	5.7685
3116.27	6.11352
3117.55	6.23383
3118.82	6.8501
3120.09	7.56799
3121.37	8.04973
3122.64	8.4595
3123.91	8.565
3125.18	8.69577
3126.45	9.06942
3127.73	9.59778
3129	10.1188
3130.27	11.0308
3131.54	11.8183
3132.81	12.9317
3134.08	13.0296
3135.35	13.1329
3136.62	13.3198
3137.89	13.8141
3139.16	14.3226
3140.43	14.6555
3141.7	14.9613
3142.97	15.3853
3144.24	15.6594
3145.51	15.8186
3146.78	16.3585
3148.04	16.7515
3149.31	17.0891
