#Acq. time (s)=	45
#Accumulations=	2
#Range (cm-¹)=	200...3150
#Windows=	2
#Auto scanning=	Off
#Autofocus=	Off
#Macrospot=	Off
#AutoExposure=	Off
#Spike filter=	Multiple accum.
#Delay time (s)=	0
#Binning=	1
#Readout mode=	Signal
#DeNoise=	Off
#ICS correction=	On
#Dark correction=	Off
#Inst. Process=	Off
#Detector Gain=	Best Dynamic Range
#Detector ADC=	20 kHz       
#Detector temperature (°C)=	-69.85
#Instrument=	LabRAM HR Evol
#Detector=	Synapse
#Objective=	x100
#Grating=	600 gr/mm
#ND Filter=	100%
#Laser (nm)=	532 
#Hole=	100.021
#Range=	Auto
#Laser Pol.=	No
#Raman. Pol.=	No
#Laser Pol. (°)=	-0.0007625
#Raman Pol. (°)=	89.9995
#Collection=	Microscope
#StageXY=	Marzhauser
#StageZ=	Marzhauser
#X (µm)=	-1148.1
#Y (µm)=	681.8
#Z (µm)=	584.65
#Full time(mm:ss)=	3:19
#Project=	
#Sample=	
#Site=	
#Title=	Mb_40_y_48_2x_45s_532 nm_x100_100%_600 gr_mm
#Remark=	
#Date=	19.07.2022 13:34
#Acquired=	19.07.2022 13:34:44
#Base:Fit=	10.08.2022 10:52:48
#Base:Sub=	10.08.2022 10:52:53
#Filter:Polynom=	16.08.2022 10:09:04
#AxisType[0]=Intens
#AxisUnit[0]=Cnt
#AxisType[1]=Spectr
#AxisUnit[1]=1/cm
200.423	75.3659
202.238	73.4385
204.052	71.6137
205.868	67.6909
207.682	64.1935
209.495	61.2768
211.308	58.6637
213.12	56.4246
214.935	54.305
216.746	51.6621
218.558	49.8645
220.369	47.4812
222.18	45.2369
223.992	43.5202
225.802	40.4292
227.612	38.2838
229.421	35.9977
231.23	34.4638
233.039	33.2761
234.849	31.334
236.657	29.9016
238.465	27.6763
240.272	26.7193
242.079	25.4006
243.885	24.1586
245.691	22.4196
247.497	20.1118
249.305	18.9856
251.11	17.8702
252.915	16.3105
254.719	15.2293
256.523	14.4623
258.327	12.6458
260.13	11.9902
261.933	12.1757
263.736	10.65
265.538	9.2955
267.34	8.03907
269.141	7.73788
270.943	6.35409
272.744	6.34898
274.544	4.04259
276.344	4.01798
278.144	4.26879
279.944	3.87976
281.743	2.97892
283.542	3.36153
285.34	2.91792
287.138	1.95966
288.936	2.08597
290.733	1.03454
292.53	0.129202
294.327	1.52194
296.123	2.67224
297.919	3.71396
299.715	3.17316
301.508	3.05941
303.303	3.44097
305.098	3.23458
306.892	2.65321
308.686	2.62348
310.479	2.1592
312.273	2.27865
314.065	2.62693
315.858	2.70741
317.648	4.32915
319.44	5.14586
321.231	5.34091
323.022	5.75982
324.813	5.25403
326.604	5.32606
328.392	5.11132
330.181	5.96551
331.971	5.35087
333.76	4.71754
335.548	4.49008
337.335	5.25024
339.123	6.15915
340.91	5.93377
342.698	5.26561
344.483	5.26201
346.269	5.75304
348.055	4.92066
349.841	4.37699
351.625	3.32357
353.41	3.53245
355.195	3.03783
356.977	2.13505
358.762	1.79875
360.545	0.855589
362.329	1.1305
364.11	1.73777
365.893	1.83245
367.675	2.19455
369.455	2.76741
371.237	2.81645
373.017	2.62827
374.798	1.59411
376.578	1.73686
378.357	1.76049
380.137	1.7952
381.917	2.23035
383.694	4.42846
385.473	3.50167
387.249	3.92782
389.028	2.35915
390.806	2.93014
392.581	3.42642
394.359	3.32519
396.134	4.16152
397.91	5.53926
399.684	7.3315
401.46	8.27571
403.234	9.67472
405.009	10.566
406.784	11.3859
408.557	12.2824
410.331	12.4784
412.103	13.2809
413.876	13.7673
415.647	13.8791
417.42	14.4023
419.191	14.9085
420.961	14.3019
422.733	15.2594
424.502	15.2095
426.273	15.2606
428.042	14.5225
429.812	14.0416
431.58	13.4064
433.35	13.4977
435.118	13.915
436.885	13.5923
438.653	13.5619
440.42	12.6956
442.188	12.5648
443.954	11.0885
445.719	10.2674
447.486	9.90542
449.251	10.912
451.015	9.74737
452.781	9.03092
454.545	7.95272
456.308	7.56429
458.073	6.7272
459.836	5.39858
461.598	4.05277
463.362	3.7853
465.124	4.11574
466.885	3.76829
468.648	4.15233
470.408	4.67136
472.169	5.95907
473.929	5.52153
475.69	6.17608
477.45	6.48261
479.208	7.93036
480.967	9.78409
482.727	11.8564
484.485	13.0716
486.243	14.7481
488	15.1628
489.759	16.7289
491.515	18.2435
493.272	19.6007
495.028	20.366
496.783	21.4267
498.54	21.498
500.295	22.5222
502.05	22.7695
503.804	23.0239
505.558	24.3875
507.311	25.0724
509.064	25.9932
510.819	26.9496
512.572	27.6539
514.324	29.4318
516.076	29.6375
517.827	29.6918
519.578	30.9098
521.329	31.8088
523.08	32.1744
524.83	31.3252
526.58	30.1799
528.329	29.1461
530.08	29.5652
531.829	28.3479
533.578	27.121
535.326	26.024
537.074	25.4308
538.821	22.991
540.568	22.1712
542.315	21.7443
544.062	20.2218
545.808	19.5111
547.554	18.23
549.299	18.4097
551.044	18.3586
552.789	17.6095
554.533	16.7401
556.278	17.0455
558.019	16.9531
559.763	15.6183
561.506	15.1956
563.249	14.1611
564.991	13.0474
566.733	12.0266
568.475	12.3587
570.217	11.8118
571.958	10.6394
573.699	9.87904
575.439	9.37663
577.177	9.20838
578.917	7.57068
580.656	7.25048
582.396	6.53742
584.134	6.23307
585.873	6.01243
587.609	6.32478
589.347	5.57167
591.084	5.72943
592.822	6.07474
594.558	6.27121
596.295	7.26255
598.029	7.89905
599.765	9.16017
601.5	8.94107
603.235	7.9638
604.968	8.99292
606.703	10.1192
608.437	9.47803
610.171	8.9635
611.902	9.63522
613.635	9.79554
615.368	9.65874
617.099	9.93552
618.831	8.95549
620.563	8.24473
622.294	8.14435
624.024	7.85374
625.755	7.48956
627.485	7.81342
629.213	8.17362
630.943	7.47755
632.673	7.41832
634.4	7.4199
636.129	7.80112
637.855	6.9556
639.584	8.04512
641.312	8.04681
643.037	7.71171
644.764	6.21413
646.491	5.71912
648.216	6.09825
649.942	5.36477
651.666	5.00135
653.392	4.8169
655.115	5.07983
656.84	4.21535
658.563	4.09742
660.287	2.61802
662.011	2.74544
663.732	1.73269
665.456	1.2935
667.177	1.66683
668.899	0.893236
670.62	1.53707
672.342	2.15629
674.061	2.64678
675.781	4.08824
677.502	5.25908
679.22	7.15818
680.941	9.4575
682.659	10.954
684.379	11.643
686.096	11.8131
687.815	12.9095
689.532	14.3262
691.248	15.8486
692.966	16.3135
694.682	16.4752
696.4	17.2201
698.115	18.5113
699.829	18.8787
701.546	20.3832
703.26	21.24
704.974	22.3493
706.689	23.4397
708.402	24.8846
710.115	25.6365
711.83	27.3921
713.542	28.1993
715.254	28.5618
716.967	29.2019
718.679	29.6081
720.39	29.5225
722.102	29.9612
723.812	30.4247
725.522	31.3956
727.232	30.6533
728.943	30.1881
730.652	30.618
732.361	30.2276
734.069	30.6118
735.779	31.5929
737.487	30.5153
739.194	29.5874
740.901	29.4845
742.608	28.2053
744.316	28.0406
746.022	27.1782
747.728	27.3261
749.433	27.4555
751.138	27.9104
752.843	29.0629
754.549	29.1626
756.254	30.79
757.957	31.189
759.661	32.8081
761.364	34.0385
763.067	34.6294
764.769	36.4384
766.471	37.7667
768.175	37.3645
769.877	37.9915
771.578	39.727
773.279	40.3668
774.98	40.0933
776.68	39.7964
778.38	40.1168
780.079	41.4349
781.779	42.7453
783.478	44.8262
785.176	46.0367
786.875	47.6326
788.573	47.7872
790.27	47.9329
791.968	48.036
793.665	48.8835
795.361	49.2947
797.058	50.1372
798.754	49.3519
800.45	50.0113
802.145	50.4871
803.84	50.2433
805.535	50.4321
807.23	50.7794
808.922	50.4551
810.616	49.8505
812.309	49.6414
814.002	48.7688
815.695	49.1106
817.388	48.1616
819.08	48.2547
820.772	47.4179
822.464	45.5941
824.153	45.2739
825.844	45.3267
827.535	44.7275
829.225	44.6922
830.915	44.0019
832.605	44.4637
834.292	44.1728
835.981	43.8927
837.67	43.0511
839.359	43.1639
841.047	43.3901
842.732	42.3172
844.42	42.3039
846.107	41.3387
847.794	40.6757
849.479	39.9093
851.165	38.7995
852.851	37.7617
854.534	37.3695
856.22	37.2253
857.905	36.1956
859.589	35.9161
861.272	35.8036
862.956	35.435
864.639	36.1761
866.321	36.3253
868.004	36.5516
869.687	35.6587
871.367	34.6321
873.049	33.586
874.731	32.9843
876.41	32.8722
878.092	32.9188
879.771	32.3158
881.451	32.23
883.131	31.9661
884.809	31.3505
886.489	30.7858
888.166	29.358
889.845	29.631
891.522	28.5338
893.2	27.0106
894.878	25.5541
896.554	26.6664
898.231	27.5827
899.906	27.7126
901.583	26.453
903.258	27.1033
904.934	26.4379
906.608	26.8301
908.283	26.8068
909.956	28.2033
911.631	28.2147
913.304	27.9639
914.976	28.7632
916.65	29.9817
918.322	30.3978
919.995	32.1031
921.666	33.8825
923.339	36.3728
925.009	38.0595
926.679	38.9658
928.351	40.8683
930.021	41.7085
931.692	42.8292
933.361	45.4842
935.029	46.6502
936.699	48.496
938.367	49.9484
940.035	51.298
941.704	51.9346
943.371	52.2635
945.038	52.3057
946.706	52.5656
948.372	54.0477
950.038	54.7284
951.705	55.4864
953.37	55.7038
955.035	55.3287
956.7	55.1897
958.366	55.049
960.03	54.1926
961.693	53.8538
963.357	54.7101
965.021	55.8287
966.684	57.5632
968.346	57.1089
970.008	57.9124
971.67	58.0513
973.334	58.8777
974.995	58.112
976.655	58.4007
978.316	58.8232
979.976	59.6955
981.638	58.1825
983.297	57.0737
984.957	56.3319
986.616	56.2667
988.274	54.0157
989.932	52.749
991.59	50.0353
993.248	49.0049
994.907	46.2469
996.565	43.814
998.221	41.6318
999.878	39.287
1001.53	36.5509
1003.19	34.976
1004.85	35.0284
1006.5	37.2442
1008.16	43.6191
1009.81	51.3626
1011.46	62.918
1013.12	75.4203
1014.77	90.4537
1016.43	106.423
1018.08	121.927
1019.73	138.506
1021.38	153.009
1023.04	168.736
1024.69	183.692
1026.34	197.957
1027.99	210.654
1029.64	223.276
1031.29	235.699
1032.94	245.953
1034.59	254.752
1036.24	261.434
1037.89	267.948
1039.54	273.921
1041.19	278.795
1042.84	282.884
1044.48	286.983
1046.13	289.621
1047.78	290.601
1049.42	288.983
1051.07	285.084
1052.72	281.908
1054.36	277.261
1056.01	270.814
1057.66	262.098
1059.3	252.363
1060.94	241.54
1062.59	229.927
1064.23	216.908
1065.88	204.365
1067.52	187.86
1069.16	171.762
1070.81	154.694
1072.45	138.317
1074.09	120.222
1075.73	103.65
1077.38	86.2909
1079.02	70.4784
1080.66	57.0264
1082.3	45.7978
1083.94	37.2837
1085.58	31.6852
1087.22	29.3464
1088.86	29.5989
1090.5	32.2664
1092.13	34.2271
1093.77	37.0253
1095.41	39.3563
1097.05	42.3685
1098.68	44.1491
1100.32	45.567
1101.96	46.1581
1103.6	46.8377
1105.23	47.9392
1106.87	47.9101
1108.5	47.8391
1110.14	46.9803
1111.77	46.848
1113.41	46.8732
1115.04	46.6914
1116.67	45.9862
1118.31	45.4501
1119.94	45.6387
1121.58	45.4912
1123.21	44.6783
1124.84	44.954
1126.47	44.4922
1128.1	42.4017
1129.73	41.2846
1131.37	38.457
1133	38.7972
1134.63	37.7127
1136.26	36.352
1137.89	34.497
1139.52	32.829
1141.14	30.7018
1142.77	29.1759
1144.4	26.8698
1146.03	25.5102
1147.66	23.8911
1149.29	20.2935
1150.91	18.6506
1152.54	16.1967
1154.17	13.9378
1155.79	10.7391
1157.42	9.96017
1159.04	8.76806
1160.67	7.56778
1162.3	5.9349
1163.92	4.55011
1165.55	3.39727
1167.17	2.56186
1168.79	3.16517
1170.42	3.82185
1172.04	5.01425
1173.66	6.36413
1175.28	7.16979
1176.91	8.64002
1178.53	9.1643
1180.15	10.0321
1181.77	10.7189
1183.39	11.6063
1185.01	14.0408
1186.63	14.4898
1188.25	16.3559
1189.87	17.3906
1191.49	18.4361
1193.11	20.4661
1194.73	21.8035
1196.35	23.3396
1197.97	24.563
1199.59	26.1236
1201.2	27.2271
1202.82	29.0922
1204.44	30.7149
1206.05	32.6919
1207.67	33.9732
1209.29	36.0926
1210.9	39.5432
1212.52	42.6269
1214.13	46.2979
1215.75	48.7521
1217.36	51.4444
1218.97	54.4965
1220.59	57.1541
1222.2	59.4946
1223.82	62.1387
1225.43	64.4904
1227.04	68.3266
1228.65	71.951
1230.26	74.8389
1231.88	77.9959
1233.49	82.207
1235.1	85.1104
1236.71	87.7868
1238.32	90.8061
1239.93	93.6222
1241.54	96.723
1243.15	100.057
1244.76	103.397
1246.37	106.082
1247.97	109.615
1249.58	112.54
1251.19	115.891
1252.8	120.392
1254.41	123.578
1256.01	125.398
1257.62	128.406
1259.23	130.767
1260.83	134.17
1262.44	137.538
1264.04	140.671
1265.65	145.297
1267.25	147.174
1268.86	150.063
1270.46	152.387
1272.07	154.913
1273.67	157.407
1275.27	159.097
1276.88	161.365
1278.48	164.11
1280.08	166.283
1281.68	168.441
1283.28	172.223
1284.89	174.266
1286.49	175.55
1288.09	178.089
1289.69	180.975
1291.29	181.569
1292.89	184.022
1294.49	184.825
1296.09	186.527
1297.69	186.786
1299.29	187.092
1300.88	186.979
1302.48	187.326
1304.08	187.535
1305.68	188.26
1307.27	188.977
1308.87	189.313
1310.47	187.131
1312.06	187.664
1313.66	186.938
1315.25	184.101
1316.85	183.241
1318.44	180.966
1320.04	178.734
1321.63	177.785
1323.23	176.138
1324.82	174.027
1326.41	171.411
1328.01	169.556
1329.6	167.004
1331.19	165.773
1332.78	163.621
1334.38	161.226
1335.97	158.99
1337.56	158.085
1339.15	156.203
1340.74	155.126
1342.33	152.553
1343.92	150.48
1345.51	149.355
1347.1	145.914
1348.69	143.236
1350.28	141.534
1351.87	139.161
1353.46	137.907
1355.04	136.085
1356.63	134.165
1358.22	132.914
1359.81	131.227
1361.39	129.367
1362.98	126.878
1364.57	124.485
1366.15	122.54
1367.74	121.466
1369.32	118.768
1370.91	116.233
1372.49	115.269
1374.07	113.388
1375.66	112.62
1377.24	111.716
1378.83	111.806
1380.41	111.6
1381.99	111.888
1383.57	112.06
1385.16	111.835
1386.74	111.857
1388.32	112.664
1389.9	112.268
1391.48	113.623
1393.06	112.804
1394.64	113.027
1396.22	114.063
1397.8	115.427
1399.38	118.26
1400.96	121.6
1402.54	122.86
1404.12	125.183
1405.7	128.583
1407.28	133.138
1408.85	137.951
1410.43	142.894
1412.01	146.877
1413.58	151.874
1415.16	156.07
1416.74	160.785
1418.31	166.01
1419.89	171.986
1421.46	177.948
1423.04	184.574
1424.61	191.813
1426.19	197.737
1427.76	204.968
1429.33	211.921
1430.91	218.522
1432.48	225.246
1434.05	229.753
1435.63	234.256
1437.2	239.102
1438.77	242.362
1440.34	245.478
1441.91	247.922
1443.49	248.696
1445.05	248.961
1446.63	248.949
1448.2	248.118
1449.77	247.78
1451.34	246.756
1452.91	244.952
1454.47	242.042
1456.04	238.3
1457.61	233.39
1459.18	227.458
1460.75	222.203
1462.31	215.557
1463.88	207.722
1465.45	200.782
1467.01	191.96
1468.58	183.175
1470.15	174.485
1471.71	164.897
1473.28	155.13
1474.84	146.781
1476.41	138.519
1477.97	129.796
1479.54	121.528
1481.1	113.369
1482.66	106.852
1484.23	100.777
1485.79	94.1044
1487.35	87.6555
1488.91	81.2705
1490.48	74.7456
1492.04	69.6379
1493.6	65.2622
1495.16	62.0249
1496.72	59.5154
1498.28	57.2144
1499.84	55.006
1501.4	53.4279
1502.96	53.3993
1504.52	52.6518
1506.08	52.4759
1507.64	52.662
1509.2	52.9042
1510.76	52.4383
1512.31	53.3063
1513.87	54.4314
1515.43	55.7457
1516.99	56.2096
1518.54	58.1844
1520.1	58.6935
1521.66	57.8811
1523.21	60.3547
1524.77	61.3936
1526.32	63.1546
1527.88	65.4251
1529.43	67.4044
1530.99	68.1806
1532.54	70.1999
1534.09	70.8798
1535.65	73.0959
1537.2	75.4147
1538.75	77.9633
1540.31	79.797
1541.86	82.4227
1543.41	83.8532
1544.96	85.0896
1546.51	87.9941
1548.06	89.2631
1549.62	91.8729
1551.17	94.7302
1552.72	97.4516
1554.27	99.3491
1555.82	101.971
1557.36	105.188
1558.91	107.276
1560.46	109.918
1562.01	112.227
1563.56	113.145
1565.11	116.031
1566.66	118.832
1568.2	120.877
1569.75	124.493
1571.3	127.747
1572.84	130.44
1574.39	133.025
1575.93	135.665
1577.48	138.424
1579.02	142.09
1580.57	144.473
1582.11	146.681
1583.66	149.263
1585.2	152.427
1586.75	154.517
1588.29	157.012
1589.83	160.201
1591.38	160.825
1592.92	162.503
1594.46	163.609
1596	165.628
1597.54	166.292
1599.09	166.496
1600.63	168.33
1602.17	168.915
1603.71	169.821
1605.25	170.902
1606.79	171.502
1608.33	171.662
1609.87	172.583
1611.41	173.248
1612.95	174.641
1614.48	175.146
1616.02	175.807
1617.56	175.998
1619.1	176.676
1620.64	176.692
1622.17	179.546
1623.71	180.624
1625.25	181.897
1626.78	183.492
1628.32	184.409
1629.86	185.584
1631.39	186.335
1632.92	187.936
1634.46	189.279
1635.99	190.82
1637.53	192.393
1639.06	193.8
1640.59	195.446
1642.13	198.61
1643.66	199.606
1645.19	199.887
1646.73	201.355
1648.26	202.187
1649.79	202.863
1651.32	203.754
1652.85	203.137
1654.38	204.332
1655.92	204.094
1657.45	203.584
1658.98	203.053
1660.51	202.271
1662.04	200.621
1663.57	198.377
1665.09	195.982
1666.62	193.449
1668.15	190.393
1669.68	187.843
1671.21	183.435
1672.73	179.227
1674.26	174.263
1675.79	169.103
1677.31	164.159
1678.84	158.426
1680.37	152.74
1681.89	147.107
1683.42	141.272
1684.94	134.732
1686.47	128.18
1687.99	122.84
1689.52	117.65
1691.04	112.318
1692.57	106.147
1694.09	101.578
1695.61	98.3209
1697.14	93.2571
1698.66	88.9621
1700.18	83.6395
1701.7	78.8202
1703.22	74.08
1704.75	70.0873
1706.27	65.9181
1707.79	60.8624
1709.31	57.9622
1710.83	54.1029
1712.35	50.8308
1713.87	47.6147
1715.39	45.5486
1716.91	43.2383
1718.43	41.1595
1719.95	38.8767
1721.46	37.3452
1722.98	36.5555
1724.5	34.9441
1726.02	34.0516
1727.53	33.0893
1729.05	32.3737
1730.57	32.245
1732.08	31.0625
1733.6	30.1378
1735.12	29.0134
1736.63	28.4582
1738.15	28.087
1739.66	27.2509
1741.18	26.8728
1742.69	26.7664
1744.21	26.4154
1745.72	25.5012
1747.23	24.566
1748.74	24.5791
1750.26	24.1823
1751.77	23.5925
1753.28	23.0464
1754.8	22.8831
1756.31	23.1182
1757.82	23.1252
1759.33	23.5613
1760.84	22.3123
1762.35	22.3755
1763.86	22.659
1765.37	22.0665
1766.88	21.3361
1768.39	20.6707
1769.9	21.0777
1771.41	20.1589
1772.92	18.4235
1774.43	17.5673
1775.93	16.5794
1777.44	15.795
1778.95	14.7038
1780.46	14.059
1781.96	12.8681
1783.47	11.566
1784.98	11.3806
1786.48	10.6522
1787.99	10.3205
1789.49	9.95437
1791	9.76717
1792.5	8.66024
1794.01	7.76005
1795.51	6.89133
1797.02	6.81614
1798.52	6.49665
1800.03	5.89085
1801.53	5.45701
1803.03	4.18724
1804.53	3.34612
1806.04	2.94674
1807.54	2.5984
1809.04	1.43207
1810.54	1.59067
1812.04	1.12526
1813.54	1.22959
1815.05	1.5164
1816.55	1.84119
1818.05	2.11573
1819.55	2.26858
1821.05	2.43926
1822.55	2.40816
1824.05	2.27577
1825.54	2.50513
1827.04	3.17958
1828.54	3.99176
1830.04	4.21046
1831.54	4.46494
1833.03	3.99515
1834.53	4.24926
1836.03	3.79198
1837.52	4.41382
1839.02	4.46517
1840.52	4.6994
1842.01	4.79738
1843.51	4.2323
1845	4.50003
1846.5	4.61117
1847.99	4.46479
1849.49	3.97902
1850.98	4.26993
1852.47	4.5466
1853.97	3.38621
1855.46	2.76855
1856.95	1.75461
1858.45	2.529
1859.94	3.46816
1861.43	3.52056
1862.92	2.49879
1864.41	0.971449
1865.91	1.31015
1867.4	1.05463
1868.89	1.06421
1870.38	1.59922
1871.87	1.96942
1873.36	1.54504
1874.85	1.31713
1876.34	1.2857
1877.83	0.772684
1879.31	1.96679
1880.8	3.27986
1882.29	4.05122
1882.56	4.04672
1884.05	4.20183
1885.54	4.71466
1887.04	5.04906
1888.53	5.2681
1890.03	5.25548
1891.52	7.16931
1893.01	8.61509
1894.5	8.96724
1895.99	9.27031
1897.49	9.63419
1898.98	10.4838
1900.47	9.68975
1901.96	10.2881
1903.45	10.9295
1904.94	11.4717
1906.43	11.9249
1907.92	13.0516
1909.41	12.7884
1910.9	13.3931
1912.39	13.7266
1913.88	13.2316
1915.37	12.8421
1916.86	13.0063
1918.35	12.8726
1919.84	12.2403
1921.32	12.1579
1922.81	11.7862
1924.3	11.5928
1925.78	10.8318
1927.27	9.19395
1928.76	8.8971
1930.24	9.45621
1931.73	9.24689
1933.21	8.88285
1934.7	8.14837
1936.18	7.06648
1937.67	7.1931
1939.15	8.111
1940.64	9.13515
1942.12	8.93919
1943.6	9.46201
1945.09	8.13401
1946.57	7.25458
1948.05	7.61839
1949.54	7.93347
1951.02	7.58483
1952.5	8.69143
1953.98	9.10289
1955.46	8.17791
1956.94	7.08903
1958.42	6.61626
1959.91	6.04406
1961.39	4.91109
1962.87	5.68209
1964.34	6.27565
1965.82	6.54757
1967.3	5.37036
1968.78	4.4819
1970.26	4.32195
1971.74	4.31016
1973.22	4.5981
1974.7	3.84724
1976.17	5.13403
1977.65	4.3711
1979.13	4.67539
1980.6	5.07522
1982.08	5.70466
1983.56	5.09285
1985.03	5.85414
1986.51	5.97639
1987.98	5.79512
1989.46	5.45065
1990.93	5.60321
1992.41	6.1324
1993.88	6.17123
1995.36	5.99324
1996.83	5.4434
1998.3	6.09671
1999.78	6.36997
2001.25	7.07478
2002.72	8.16764
2004.2	8.68599
2005.67	9.46179
2007.14	10.533
2008.61	11.18
2010.08	11.4482
2011.55	11.813
2013.02	12.3153
2014.49	13.5486
2015.97	13.2565
2017.43	12.9153
2018.9	12.1165
2020.37	13.0615
2021.84	13.7289
2023.31	13.231
2024.78	12.9184
2026.25	13.2791
2027.72	14.1432
2029.19	13.326
2030.65	13.123
2032.12	13.6558
2033.59	14.0949
2035.05	14.4302
2036.52	14.1408
2037.98	14.4178
2039.45	14.4934
2040.92	15.2735
2042.38	16.8386
2043.85	17.6486
2045.31	17.9726
2046.78	18.1227
2048.24	17.8492
2049.71	18.6125
2051.17	20.1331
2052.63	21.4839
2054.1	20.8794
2055.56	21.1034
2057.02	21.5234
2058.48	21.6994
2059.95	21.4321
2061.41	21.9117
2062.87	21.5358
2064.33	23.0636
2065.79	24.4441
2067.25	24.7711
2068.71	25.9212
2070.17	28.4027
2071.63	29.6274
2073.09	31.3879
2074.55	32.0734
2076.01	33.8564
2077.47	34.5812
2078.93	36.5078
2080.39	36.3414
2081.85	37.6377
2083.3	39.7285
2084.76	41.5223
2086.22	43.5017
2087.68	44.5091
2089.13	46.2011
2090.59	47.8295
2092.05	49.198
2093.5	50.4714
2094.96	52.2555
2096.41	54.2187
2097.87	56.6406
2099.32	59.1983
2100.78	61.9971
2102.23	64.2355
2103.69	66.984
2105.14	69.7431
2106.59	71.4238
2108.05	73.5755
2109.5	76.4589
2110.95	78.9658
2112.41	81.6255
2113.86	84.4885
2115.31	85.5916
2116.76	85.7978
2118.21	87.4896
2119.67	89.6027
2121.12	91.9307
2122.57	95.3443
2124.02	98.1492
2125.47	99.4868
2126.92	102.713
2128.37	106.585
2129.82	109.29
2131.27	112.371
2132.71	116.363
2134.16	120.328
2135.61	123.882
2137.06	128.404
2138.51	132.921
2139.95	137.597
2141.4	142.005
2142.85	146.159
2144.29	148.355
2145.74	152.891
2147.19	155.498
2148.63	159.341
2150.08	162.441
2151.52	166.046
2152.97	169.914
2154.42	174.678
2155.86	178.363
2157.3	181.278
2158.75	184.29
2160.19	188.111
2161.64	192.328
2163.08	195.638
2164.52	198.436
2165.96	201.402
2167.41	204.133
2168.85	206.189
2170.29	208.877
2171.73	210.716
2173.17	211.472
2174.61	212.326
2176.06	211.894
2177.5	211.471
2178.94	209.882
2180.38	208.464
2181.82	205.327
2183.26	202.225
2184.7	200.618
2186.14	197.601
2187.57	194.283
2189.01	192.779
2190.45	191.414
2191.89	189.135
2193.33	186.239
2194.76	183.236
2196.2	178.745
2197.64	175.96
2199.08	173.097
2200.51	168.784
2201.95	164.936
2203.38	161.498
2204.82	156.536
2206.25	152.797
2207.69	148.71
2209.12	144.967
2210.56	141.599
2211.99	137.346
2213.43	133.218
2214.86	128.826
2216.3	124.383
2217.73	120.981
2219.16	117.354
2220.59	113.882
2222.03	111.87
2223.46	109.287
2224.89	107.557
2226.32	104.657
2227.75	101.448
2229.19	99.1886
2230.62	97.1038
2232.05	95.1022
2233.48	92.6618
2234.91	89.8806
2236.34	87.3181
2237.77	84.5429
2239.2	82.199
2240.63	80.6837
2242.06	77.8175
2243.48	74.8221
2244.91	73.1274
2246.34	70.811
2247.77	66.9796
2249.2	64.1012
2250.62	61.1835
2252.05	59.7705
2253.48	58.3778
2254.9	56.963
2256.33	55.7766
2257.76	54.6997
2259.18	53.4201
2260.61	51.9456
2262.03	50.0274
2263.46	47.9471
2264.88	46.2314
2266.31	44.8792
2267.73	42.1762
2269.16	41.1288
2270.58	38.732
2272	36.4056
2273.43	33.8932
2274.85	31.8171
2276.27	29.13
2277.69	28.7549
2279.12	27.7655
2280.54	27.2341
2281.96	25.7405
2283.38	24.1722
2284.8	23.2451
2286.22	21.2854
2287.64	19.2605
2289.07	18.487
2290.49	17.8908
2291.91	16.4585
2293.32	16.274
2294.74	15.6951
2296.16	15.3009
2297.58	14.5383
2299	13.5888
2300.42	13.9263
2301.84	13.401
2303.26	13.3848
2304.67	12.7966
2306.09	13.0162
2307.51	13.9572
2308.92	14.1161
2310.34	14.6988
2311.76	13.8869
2313.17	13.3589
2314.59	12.9425
2316	12.8161
2317.42	11.5331
2318.83	11.7264
2320.25	13.4838
2321.66	14.4812
2323.08	14.9239
2324.49	15.1606
2325.91	15.5867
2327.32	16.0542
2328.73	15.0743
2330.15	15.1003
2331.56	14.4936
2332.97	14.8035
2334.38	14.3973
2335.79	14.4597
2337.21	12.8747
2338.62	11.6795
2340.03	11.6294
2341.44	10.4663
2342.85	10.2493
2344.26	9.75314
2345.67	9.11006
2347.08	8.03948
2348.49	7.7747
2349.9	7.18684
2351.31	5.84465
2352.72	3.9266
2354.13	3.89728
2355.53	3.89664
2356.94	2.64003
2358.35	2.96671
2359.76	2.76526
2361.17	2.44586
2362.57	2.66628
2363.98	3.73581
2365.39	4.4594
2366.79	3.8855
2368.2	3.50183
2369.6	3.62972
2371.01	4.11196
2372.42	4.18805
2373.82	4.76545
2375.22	5.37369
2376.63	6.52954
2378.03	6.80372
2379.44	6.52325
2380.84	6.13988
2382.25	5.33075
2383.65	6.15101
2385.05	6.31317
2386.45	7.32413
2387.86	8.1037
2389.26	8.53994
2390.66	8.11094
2392.06	7.76798
2393.46	7.88412
2394.87	8.46123
2396.27	8.92254
2397.67	7.86568
2399.07	7.50572
2400.47	7.50764
2401.87	6.37614
2403.27	6.46531
2404.67	6.32707
2406.07	6.15057
2407.47	5.22473
2408.86	5.29727
2410.26	5.26261
2411.66	5.35466
2413.06	4.88194
2414.46	4.50299
2415.85	4.95342
2417.25	4.9401
2418.65	5.04591
2420.05	5.87775
2421.44	6.37622
2422.84	6.73877
2424.23	6.81658
2425.63	7.03176
2427.03	6.1752
2428.42	6.69678
2429.82	6.46633
2431.21	6.65229
2432.6	6.31959
2434	6.67437
2435.39	5.98432
2436.79	6.03431
2438.18	6.43132
2439.57	7.4335
2440.97	6.74981
2442.36	6.67176
2443.75	6.40605
2445.14	6.26296
2446.54	6.06934
2447.93	5.91183
2449.32	6.42438
2450.71	6.16262
2452.1	5.79702
2453.49	5.78182
2454.88	5.69596
2456.27	5.60668
2457.66	5.37829
2459.05	4.07849
2460.44	3.46971
2461.83	3.76912
2463.22	3.74078
2464.61	3.99775
2466	3.20883
2467.39	2.15716
2468.77	2.39539
2470.16	1.66899
2471.55	1.88314
2472.94	2.341
2474.32	2.86432
2475.71	2.46367
2477.1	2.78543
2478.48	2.76896
2479.87	2.53318
2481.25	2.65209
2482.64	3.03009
2484.02	3.74407
2485.41	2.97512
2486.8	1.58385
2488.18	1.8064
2489.56	2.04766
2490.95	2.53077
2492.33	2.04219
2493.72	1.31142
2495.1	2.66366
2496.48	1.85435
2497.86	2.16111
2499.25	3.15863
2500.63	2.24993
2502.01	2.27861
2503.39	2.35271
2504.77	2.06339
2506.16	1.88853
2507.54	0.561616
2508.92	1.58843
2510.3	0.790799
2511.68	0.972431
2513.06	0.612794
2514.44	1.65719
2515.82	2.70836
2517.2	2.97479
2518.58	3.40682
2519.95	2.4735
2521.33	2.59725
2522.71	3.07616
2524.09	3.05885
2525.47	3.10885
2526.84	2.78693
2528.22	3.16789
2529.6	3.04833
2530.98	4.09613
2532.35	4.97015
2533.73	4.97901
2535.11	4.99785
2536.48	5.09585
2537.86	4.9285
2539.23	4.16646
2540.61	4.6906
2541.98	3.78675
2543.36	3.64857
2544.73	4.01694
2546.1	3.91734
2547.48	3.92359
2548.85	4.51186
2550.23	4.33164
2551.6	4.63049
2552.97	4.24661
2554.34	4.34245
2555.72	5.30308
2557.09	6.6158
2558.46	6.75831
2559.83	7.79622
2561.2	7.91594
2562.58	7.2101
2563.95	8.09855
2565.32	8.17437
2566.69	9.01776
2568.06	8.8215
2569.43	8.77606
2570.8	9.13017
2572.17	9.44475
2573.54	9.24401
2574.91	8.72957
2576.27	9.35556
2577.64	10.878
2579.01	10.5371
2580.38	10.4792
2581.75	12.1495
2583.11	12.6121
2584.48	12.9799
2585.85	12.3186
2587.21	12.6789
2588.58	12.6703
2589.95	12.7831
2591.31	12.7395
2592.68	12.9239
2594.04	12.9511
2595.41	13.0746
2596.78	12.9591
2598.14	12.2691
2599.51	12.6016
2600.87	12.7038
2602.23	12.2351
2603.6	11.6078
2604.96	10.3731
2606.32	9.41919
2607.69	8.58983
2609.05	8.39976
2610.41	7.52179
2611.77	8.02275
2613.14	8.28486
2614.5	7.26116
2615.86	6.36823
2617.22	5.56531
2618.58	4.904
2619.94	5.56353
2621.3	5.50802
2622.67	5.2386
2624.03	4.69011
2625.39	4.1046
2626.75	3.35751
2628.1	3.39699
2629.46	2.90572
2630.82	3.02774
2632.18	3.75265
2633.54	3.58826
2634.9	3.41147
2636.26	3.06097
2637.61	3.77328
2638.97	2.77345
2640.33	3.139
2641.69	3.39547
2643.04	4.58934
2644.4	5.67887
2645.76	6.43659
2647.11	6.74895
2648.47	7.68019
2649.82	8.23698
2651.18	7.87648
2652.53	8.77379
2653.89	8.46791
2655.24	9.50331
2656.6	9.99143
2657.95	10.1822
2659.31	11.0159
2660.66	10.9899
2662.01	11.3883
2663.37	11.9681
2664.72	12.5895
2666.07	12.4776
2667.43	12.6087
2668.78	13.7268
2670.13	13.2103
2671.48	12.8263
2672.83	12.4524
2674.18	11.7081
2675.53	12.7135
2676.89	12.8444
2678.24	13.4332
2679.59	13.9368
2680.94	14.7499
2682.29	15.4776
2683.64	15.7361
2684.99	16.5061
2686.34	16.7233
2687.68	16.396
2689.03	16.0862
2690.38	15.7168
2691.73	15.0987
2693.08	15.4626
2694.43	16.7486
2695.77	17.7009
2697.12	18.5777
2698.47	18.7135
2699.81	19.252
2701.16	19.6939
2702.51	20.941
2703.85	21.8315
2705.2	22.7144
2706.54	23.6224
2707.89	24.8548
2709.23	25.8333
2710.58	26.4885
2711.92	26.5398
2713.27	26.4173
2714.61	26.8221
2715.96	26.994
2717.3	27.0179
2718.64	26.8826
2719.99	26.6345
2721.33	26.6733
2722.67	26.5917
2724.01	26.4929
2725.36	26.1177
2726.7	25.4063
2728.04	24.7184
2729.38	25.5265
2730.72	24.5977
2732.06	24.3342
2733.41	23.6368
2734.75	24.4491
2736.09	24.4901
2737.43	22.9703
2738.77	22.0527
2740.11	21.7612
2741.44	21.6584
2742.78	21.7031
2744.12	20.8777
2745.46	20.8385
2746.8	20.1825
2748.14	19.4084
2749.48	18.5547
2750.81	16.1789
2752.15	14.9528
2753.49	13.2077
2754.83	11.503
2756.16	10.8392
2757.5	10.3564
2758.84	10.1613
2760.17	10.059
2761.51	9.5448
2762.84	8.52994
2764.18	7.71769
2765.51	6.53721
2766.85	6.9131
2768.18	6.3405
2769.52	6.37828
2770.85	5.58339
2772.19	4.91611
2773.52	3.86958
2774.85	3.35622
2776.19	2.94817
2777.52	2.39341
2778.85	1.33539
2780.18	1.07813
2781.52	1.57844
2782.85	0.983116
2784.18	0.65862
2785.51	0.566024
2786.84	0.285624
2788.17	-0.51999
2789.51	-0.809494
2790.84	-0.00735393
2792.17	0.112596
2793.5	-0.225174
2794.83	1.09942
2796.16	2.16062
2797.48	2.08095
2798.81	3.33839
2800.14	4.30347
2801.47	3.64317
2802.8	3.75103
2804.13	3.59101
2805.46	3.71122
2806.79	4.12289
2808.11	3.7645
2809.44	3.61734
2810.77	2.90888
2812.09	3.44
2813.42	4.55573
2814.75	5.00233
2816.07	5.80794
2817.4	6.46027
2818.73	9.93854
2820.05	12.8715
2821.38	17.3378
2822.7	22.4411
2824.03	27.959
2825.35	33.4488
2826.67	39.3013
2828	46.3671
2829.32	52.9232
2830.65	59.7588
2831.97	66.914
2833.29	76.0793
2834.62	84.0136
2835.94	93.0407
2837.26	101.686
2838.58	110.137
2839.9	118.806
2841.23	127.789
2842.55	137.178
2843.87	147.063
2845.19	155.951
2846.51	166.223
2847.83	175.755
2849.15	185.782
2850.47	195.983
2851.79	206.714
2853.11	217.193
2854.43	227.123
2855.75	239.001
2857.07	249.979
2858.39	259.799
2859.71	269.28
2861.02	278.347
2862.34	286.982
2863.66	294.924
2864.98	302.46
2866.3	308.36
2867.61	315.077
2868.93	321.602
2870.25	326.358
2871.56	331.627
2872.88	336.041
2874.19	339.793
2875.51	344.483
2876.83	347.365
2878.14	351.968
2879.46	355.775
2880.77	359.855
2882.09	364.463
2883.4	368.443
2884.71	374.185
2886.03	379.389
2887.34	384.079
2888.65	388.447
2889.97	393.448
2891.28	398.001
2892.59	402.641
2893.91	407.817
2895.22	413.303
2896.53	419.357
2897.84	425.679
2899.15	432.552
2900.46	438.573
2901.78	445.848
2903.09	452.484
2904.4	460.734
2905.71	469.917
2907.02	478.365
2908.33	487.49
2909.64	497.9
2910.95	508.715
2912.26	521.609
2913.57	533.737
2914.87	545.723
2916.18	557.557
2917.49	568.883
2918.8	579.412
2920.11	588.53
2921.42	598.24
2922.72	605.364
2924.03	612.852
2925.34	618.463
2926.64	624.506
2927.95	629.904
2929.26	633.056
2930.56	636.701
2931.87	639.382
2933.17	640.237
2934.48	638.717
2935.78	635.906
2937.09	632.572
2938.39	627.196
2939.7	622.26
2941	616.029
2942.31	607.697
2943.61	599.717
2944.91	591.464
2946.22	581.677
2947.52	570.792
2948.82	560.538
2950.13	550.946
2951.43	537.883
2952.73	523.575
2954.03	510.133
2955.33	496.406
2956.64	482.355
2957.94	468.648
2959.24	456.158
2960.54	441.49
2961.84	427.367
2963.14	413.573
2964.44	400.547
2965.74	387.232
2967.04	375.199
2968.34	363.416
2969.64	351.776
2970.94	339.579
2972.24	328.087
2973.53	318.052
2974.83	307.883
2976.13	297.271
2977.43	286.991
2978.73	275.193
2980.02	264.647
2981.32	254.25
2982.62	243.528
2983.91	233.48
2985.21	223.023
2986.51	212.3
2987.8	202.442
2989.1	193.572
2990.4	184.908
2991.69	176.037
2992.99	166.988
2994.28	158.416
2995.57	151.461
2996.87	142.541
2998.16	132.44
2999.46	124.104
3000.75	115.706
3002.05	109.432
3003.34	102.179
3004.63	96.0865
3005.92	89.6044
3007.22	82.8041
3008.51	77.2128
3009.8	72.2116
3011.09	66.8002
3012.39	62.1231
3013.68	56.9666
3014.97	51.4492
3016.26	45.5048
3017.55	41.9162
3018.84	38.0482
3020.13	34.7391
3021.42	31.3154
3022.71	28.9471
3024	26.2701
3025.29	22.5596
3026.58	21.0669
3027.87	18.6443
3029.16	17.7828
3030.45	16.1024
3031.73	16.0704
3033.02	14.6805
3034.31	13.3632
3035.6	12.8844
3036.89	13.082
3038.17	12.0114
3039.46	11.6631
3040.75	11.902
3042.03	12.3627
3043.32	12.444
3044.61	13.6794
3045.89	13.7838
3047.18	14.1993
3048.46	14.7212
3049.75	13.9264
3051.03	14.9145
3052.32	16.0557
3053.6	17.3359
3054.89	18.0666
3056.17	17.5282
3057.45	18.0009
3058.74	18.7367
3060.02	18.7501
3061.31	17.7477
3062.59	17.2274
3063.87	17.7438
3065.15	17.2288
3066.44	17.1686
3067.72	16.4298
3069	16.3672
3070.28	15.3886
3071.56	14.7251
3072.84	14.5389
3074.13	13.7137
3075.41	12.8741
3076.69	11.5197
3077.97	10.0492
3079.25	9.51704
3080.53	8.34872
3081.81	7.12003
3083.09	6.14328
3084.37	5.11241
3085.64	3.93097
3086.92	3.51725
3088.2	2.25402
3089.48	1.13524
3090.76	1.14777
3092.04	0.459053
3093.31	0.751821
3094.59	0.319053
3095.87	0.211539
3097.14	-1.19596
3098.42	-1.30189
3099.7	-0.872291
3100.97	-0.0657842
3102.25	-0.56205
3103.53	0.418453
3104.8	1.64174
3106.08	2.80719
3107.35	3.62335
3108.63	5.33473
3109.9	5.4395
3111.18	6.37693
3112.45	7.43992
3113.73	8.55844
3115	10.3853
3116.27	10.9875
3117.55	12.7655
3118.82	13.4695
3120.09	14.6192
3121.37	15.9405
3122.64	17.4735
3123.91	18.3966
3125.18	20.1281
3126.45	21.9336
3127.73	23.5438
3129	25.0487
3130.27	27.6923
3131.54	29.6104
3132.81	31.4923
3134.08	33.2515
3135.35	35.4512
3136.62	36.5882
3137.89	38.4432
3139.16	40.0711
3140.43	41.707
3141.7	43.5469
3142.97	45.1441
3144.24	46.785
3145.51	48.2957
3146.78	49.4363
3148.04	51.44
3149.31	52.0783
