#Acq. time (s)=	45
#Accumulations=	2
#Range (cm-¹)=	200...3150
#Windows=	2
#Auto scanning=	Off
#Autofocus=	Off
#Macrospot=	Off
#AutoExposure=	Off
#Spike filter=	Multiple accum.
#Delay time (s)=	0
#Binning=	1
#Readout mode=	Signal
#DeNoise=	Off
#ICS correction=	On
#Dark correction=	Off
#Inst. Process=	Off
#Detector Gain=	Best Dynamic Range
#Detector ADC=	20 kHz       
#Detector temperature (°C)=	-70.08
#Instrument=	LabRAM HR Evol
#Detector=	Synapse
#Objective=	x100
#Grating=	600 gr/mm
#ND Filter=	100%
#Laser (nm)=	532 
#Hole=	100.021
#Range=	Auto
#Laser Pol.=	No
#Raman. Pol.=	No
#Laser Pol. (°)=	-0.0007625
#Raman Pol. (°)=	89.9995
#Collection=	Microscope
#StageXY=	Marzhauser
#StageZ=	Marzhauser
#X (µm)=	-2527.7
#Y (µm)=	-36.9
#Z (µm)=	-10.05
#Full time(mm:ss)=	3:18
#Project=	
#Sample=	
#Site=	
#Title=	Mb_40_24_05_2x_45s_532 nm_x100_100%_600 gr_mm
#Remark=	
#Date=	14.07.2022 11:04
#Acquired=	14.07.2022 11:04:46
#Base:Fit=	10.08.2022 10:47:00
#Base:Sub=	10.08.2022 10:47:12
#Filter:Polynom=	16.08.2022 10:11:48
#AxisType[0]=Intens
#AxisUnit[0]=Cnt
#AxisType[1]=Spectr
#AxisUnit[1]=1/cm
200.554	43.0434
202.369	40.7557
204.183	36.0829
205.999	32.5147
207.813	30.1622
209.626	27.8002
211.439	25.7739
213.253	24.6748
215.065	23.5123
216.877	21.4272
218.688	19.4864
220.5	19.0483
222.312	15.9985
224.123	16.882
225.933	14.6326
227.742	13.087
229.552	11.5305
231.361	11.1856
233.171	11.7482
234.98	11.2708
236.787	11.2286
238.595	11.7582
240.402	11.7588
242.209	12.4975
244.015	11.7606
245.822	11.6231
247.627	10.2283
249.435	10.3109
251.24	10.0101
253.045	11.0422
254.849	11.3238
256.653	11.6999
258.457	11.7044
260.26	12.8346
262.063	14.8251
263.866	14.6092
265.668	15.9142
267.47	15.988
269.271	16.4197
271.073	14.2802
272.873	13.2051
274.674	11.6811
276.474	10.7832
278.274	10.8277
280.073	10.2384
281.872	9.25702
283.671	9.82244
285.47	9.93305
287.268	9.25683
289.065	9.72629
290.863	10.2597
292.66	10.0263
294.456	11.0751
296.253	11.8691
298.049	11.1539
299.844	12.4656
301.637	13.0058
303.432	14.0247
305.227	12.9279
307.021	11.7868
308.815	12.0121
310.609	11.6196
312.402	10.7557
314.195	13.0214
315.987	11.6582
317.777	11.5504
319.569	11.9728
321.36	12.5225
323.151	11.7917
324.942	11.4702
326.733	12.4358
328.521	11.8041
330.31	11.329
332.1	10.5112
333.889	10.1375
335.677	10.155
337.464	8.34653
339.252	9.39716
341.039	7.57029
342.826	7.27628
344.611	6.47564
346.398	6.05146
348.184	6.27706
349.97	6.37238
351.754	5.07287
353.539	4.34647
355.324	4.35732
357.106	3.50214
358.89	2.35437
360.674	1.55795
362.455	2.03963
364.239	0.110547
366.021	-0.211128
367.804	0.124994
369.584	1.80149
371.366	3.40181
373.145	3.45681
374.926	4.284
376.707	5.75778
378.485	7.4612
380.265	8.09051
382.045	8.07159
383.822	8.75169
385.601	9.52886
387.378	9.1813
389.156	9.89881
390.934	9.52365
392.71	10.1633
394.487	10.1782
396.262	10.9948
398.038	11.0805
399.813	11.5899
401.588	12.0648
403.362	12.7034
405.137	11.0679
406.912	10.6612
408.685	9.84537
410.459	9.99668
412.23	9.93936
414.004	12.2478
415.775	12.3614
417.548	11.1588
419.318	10.2211
421.089	10.1992
422.86	10.3579
424.63	9.09639
426.401	8.6828
428.17	9.51195
429.94	7.70697
431.708	8.52736
433.478	8.11833
435.245	8.05813
437.012	6.85482
438.781	5.84485
440.547	4.78755
442.315	6.09931
444.081	6.53344
445.846	6.87857
447.613	6.64718
449.378	8.85753
451.142	9.61746
452.908	10.4066
454.672	12.254
456.435	12.836
458.2	13.5442
459.963	14.3314
461.725	15.7772
463.489	17.2029
465.251	18.4629
467.012	19.168
468.775	19.1236
470.536	18.6176
472.296	19.3696
474.056	19.6341
475.817	21.2931
477.576	22.4551
479.335	23.5238
481.094	25.3671
482.854	25.8466
484.612	24.7256
486.37	23.6877
488.127	24.1609
489.886	24.1051
491.642	24.407
493.398	24.283
495.154	25.198
496.91	25.0232
498.667	27.1922
500.422	27.5199
502.176	28.2216
503.93	26.7192
505.684	25.9021
507.438	24.4103
509.191	25.0998
510.946	24.5723
512.698	24.1733
514.45	23.9806
516.202	23.4722
517.954	22.49
519.705	23.2911
521.456	23.3406
523.206	23.9093
524.956	23.4819
526.706	25.7869
528.456	26.5533
530.207	27.7528
531.956	28.8285
533.704	30.1592
535.452	31.0003
537.2	31.2225
538.947	31.6269
540.694	32.2203
542.441	33.5055
544.188	33.7705
545.934	34.1995
547.68	35.4517
549.425	35.979
551.17	35.0216
552.915	34.3257
554.659	33.5429
556.403	32.5217
558.145	32.0304
559.889	31.3214
561.632	31.1284
563.375	31.565
565.117	28.9344
566.859	28.1802
568.601	26.8371
570.342	25.6315
572.083	23.7901
573.824	23.549
575.565	23.3819
577.303	22.7653
579.043	21.4767
580.782	19.8748
582.521	19.1348
584.26	17.058
585.998	15.7544
587.734	13.4863
589.472	12.1626
591.21	9.7548
592.947	7.44204
594.684	5.84837
596.418	6.45423
598.154	6.51069
599.89	6.82437
601.626	6.9461
603.361	6.7287
605.094	6.83974
606.828	7.82055
608.562	7.86128
610.296	8.5105
612.027	8.32393
613.761	9.39509
615.493	9.26862
617.224	9.23428
618.956	9.65632
620.688	9.69116
622.419	10.6995
624.149	11.6357
625.879	13.0919
627.61	12.3572
629.338	11.5489
631.068	11.7041
632.797	10.9562
634.525	10.8021
636.254	10.8542
637.98	10.2084
639.708	10.6831
641.436	9.9051
643.162	11.0818
644.889	9.84155
646.614	10.4418
648.34	9.86987
650.067	10.2132
651.791	9.14117
653.516	9.029
655.239	7.70072
656.964	8.03177
658.687	7.55019
660.411	6.88127
662.133	5.74157
663.857	4.32358
665.58	2.53276
667.301	1.23421
669.024	1.07627
670.744	-0.179269
672.464	-0.429045
674.186	-0.409096
675.905	-0.570086
677.626	-0.658567
679.345	0.368086
681.065	1.78014
682.783	3.34124
684.503	3.82774
686.22	4.68987
687.939	5.12162
689.656	6.45801
691.372	8.67423
693.09	10.5781
694.806	11.3935
696.523	13.4081
698.239	12.739
699.953	14.2229
701.67	15.8664
703.384	17.5411
705.098	18.1657
706.813	19.1173
708.526	20.393
710.239	21.0114
711.954	19.9896
713.666	20.1129
715.378	22.5781
717.091	24.5458
718.802	23.9624
720.513	24.7809
722.226	25.4481
723.936	26.1688
725.646	25.4588
727.355	24.351
729.067	25.3141
730.776	25.2052
732.484	26.9045
734.192	26.6732
735.902	27.7846
737.61	26.8979
739.317	27.2082
741.024	28.6785
742.731	29.8253
744.439	30.7923
746.145	32.6345
747.851	33.2823
749.556	33.9589
751.262	34.7654
752.966	35.8221
754.673	36.4005
756.377	38.3707
758.081	39.9279
759.784	41.873
761.487	43.5181
763.19	46.0847
764.892	47.2199
766.594	48.7212
768.296	50.8999
770	51.9815
771.701	54.5433
773.402	55.7408
775.102	57.0283
776.803	58.1553
778.503	59.1499
780.202	59.3416
781.901	59.8822
783.6	60.1392
785.299	63.0809
786.997	64.5071
788.695	64.1169
790.393	63.4323
792.09	64.9117
793.787	66.411
795.484	66.9512
797.18	66.3184
798.877	67.8024
800.572	67.662
802.268	66.0752
803.963	66.2165
805.658	66.4594
807.35	66.4146
809.044	68.1689
810.738	67.7305
812.432	68.3301
814.125	68.8372
815.818	68.3723
817.51	68.1023
819.202	67.4228
820.894	68.3279
822.584	69.644
824.275	70.8368
825.966	72.706
827.657	74.5719
829.347	76.7553
831.037	76.9246
832.725	76.2213
834.414	76.9987
836.103	77.5855
837.792	78.9398
839.481	79.1091
841.167	81.3216
842.854	81.3019
844.542	80.914
846.229	81.4432
847.914	80.959
849.6	80.291
851.287	80.179
852.973	80.8415
854.656	80.0417
856.341	80.0847
858.026	79.0846
859.711	78.8924
861.393	77.9488
863.077	77.6125
864.761	76.6355
866.442	76.3285
868.125	75.9814
869.808	76.143
871.489	74.4056
873.171	73.4975
874.85	73.2991
876.532	73.6182
878.213	72.6779
879.892	71.7949
881.572	70.2598
883.251	68.9829
884.931	67.0897
886.61	65.3571
888.287	64.8581
889.966	62.9078
891.643	59.9902
893.321	58.8802
894.997	55.8461
896.675	53.4254
898.352	51.566
900.028	51.2806
901.704	52.0678
903.379	53.8838
905.055	55.4351
906.729	55.1379
908.404	55.4699
910.077	56.325
911.75	56.4723
913.425	55.5516
915.097	56.0645
916.771	55.6087
918.443	55.3923
920.116	55.4694
921.787	55.6127
923.46	52.5885
925.13	53.3702
926.8	52.9395
928.472	53.2788
930.141	54.214
931.813	54.0769
933.481	53.9394
935.15	53.4802
936.82	53.7582
938.488	52.5612
940.156	51.9417
941.825	49.4483
943.492	47.487
945.158	45.0155
946.827	43.6941
948.493	42.6007
950.158	42.6452
951.824	41.4511
953.491	40.6878
955.156	39.6755
956.82	39.4757
958.486	39.1428
960.15	37.472
961.814	37.5136
963.477	37.3626
965.142	37.5223
966.804	37.2833
968.467	38.6706
970.129	39.7081
971.79	40.9741
973.454	41.2032
975.115	41.4917
976.776	43.6047
978.436	44.768
980.096	44.9542
981.756	45.4582
983.417	46.438
985.077	45.5972
986.736	45.6033
988.394	45.1215
990.052	43.926
991.71	44.7022
993.368	44.6313
995.025	44.4631
996.682	42.4095
998.341	42.2127
999.998	40.2316
1001.65	40.2323
1003.31	40.3767
1004.97	39.4261
1006.62	37.9642
1008.28	39.8854
1009.93	41.2146
1011.58	43.0544
1013.24	43.8435
1014.89	45.3038
1016.54	45.6727
1018.2	47.3012
1019.85	48.6413
1021.5	49.2647
1023.16	49.3539
1024.81	50.3589
1026.46	52.5738
1028.11	54.1138
1029.76	56.1975
1031.41	57.7843
1033.06	59.4687
1034.71	60.6522
1036.36	62.176
1038.01	66.0089
1039.66	68.1364
1041.31	71.5219
1042.95	72.5136
1044.6	74.6695
1046.25	73.9926
1047.9	74.9446
1049.54	75.4747
1051.19	76.5535
1052.84	76.5925
1054.48	77.391
1056.13	77.1286
1057.77	76.8336
1059.42	76.3848
1061.06	75.644
1062.71	74.1604
1064.35	72.4938
1066	70.2481
1067.64	68.2661
1069.28	67.9379
1070.93	65.2266
1072.57	62.9917
1074.21	61.9508
1075.85	58.7121
1077.49	54.4282
1079.13	50.2336
1080.78	49.2283
1082.42	47.2864
1084.06	45.1957
1085.7	45.1618
1087.34	43.8333
1088.97	44.3018
1090.61	45.692
1092.25	46.4643
1093.89	45.6831
1095.53	45.4915
1097.17	44.726
1098.8	43.5913
1100.44	43.0376
1102.08	41.6475
1103.71	40.5678
1105.35	40.6739
1106.99	41.4508
1108.62	39.8397
1110.26	38.2655
1111.89	36.7348
1113.52	34.6874
1115.16	33.9589
1116.79	33.0607
1118.43	31.9571
1120.06	31.7698
1121.69	29.7205
1123.32	27.4887
1124.96	24.5335
1126.59	23.3794
1128.22	23.3427
1129.85	24.2077
1131.48	24.1588
1133.11	24.0989
1134.75	23.143
1136.37	22.8838
1138	20.7384
1139.63	20.0614
1141.26	19.521
1142.89	18.682
1144.52	17.4955
1146.15	15.7016
1147.78	14.7598
1149.4	14.4268
1151.03	13.4095
1152.66	11.7812
1154.28	12.7053
1155.91	12.3134
1157.54	10.2654
1159.16	8.35176
1160.79	8.71425
1162.41	10.0948
1164.04	11.229
1165.66	9.90708
1167.29	11.0452
1168.91	11.0669
1170.53	11.7517
1172.16	11.8182
1173.78	11.2267
1175.4	11.1696
1177.02	12.096
1178.65	11.356
1180.27	12.3275
1181.89	13.951
1183.51	15.6525
1185.13	17.3901
1186.75	19.3318
1188.37	19.9253
1189.99	20.4396
1191.61	21.6237
1193.23	22.4933
1194.85	24.449
1196.47	25.9685
1198.08	27.1274
1199.7	28.5218
1201.32	29.548
1202.94	29.3626
1204.55	29.2804
1206.17	30.3391
1207.79	31.0993
1209.4	31.4142
1211.02	31.7458
1212.63	33.0487
1214.25	34.6214
1215.86	34.9973
1217.48	37.994
1219.09	39.428
1220.71	40.802
1222.32	41.9013
1223.93	44.2436
1225.54	46.8537
1227.16	48.559
1228.77	49.7802
1230.38	51.3782
1231.99	53.4559
1233.6	54.6503
1235.22	56.7418
1236.83	56.5609
1238.44	57.4075
1240.05	59.1347
1241.66	60.1556
1243.26	62.127
1244.87	63.1871
1246.48	63.7761
1248.09	65.5105
1249.7	67.1089
1251.31	68.1778
1252.92	68.8045
1254.52	69.7474
1256.13	71.3229
1257.74	72.6753
1259.34	74.2719
1260.95	75.9252
1262.55	78.5591
1264.16	78.9905
1265.76	79.9328
1267.37	80.5155
1268.97	82.2265
1270.58	84.2957
1272.18	85.2371
1273.78	86.9959
1275.39	88.9583
1276.99	89.3262
1278.59	90.8515
1280.2	91.8659
1281.8	92.7555
1283.4	95.1592
1285	97.4178
1286.6	100.453
1288.2	102.63
1289.8	105.317
1291.4	107.964
1293	111.147
1294.6	113.989
1296.2	116.843
1297.8	118.576
1299.4	120.075
1301	122.384
1302.6	123.329
1304.19	126.767
1305.79	127.318
1307.39	127.426
1308.99	127.326
1310.58	128.595
1312.18	128.78
1313.77	126.984
1315.37	126.965
1316.96	125.502
1318.56	126.305
1320.15	124.788
1321.75	123.107
1323.34	123.788
1324.94	122.898
1326.53	120.64
1328.12	117.906
1329.72	117.728
1331.31	116.898
1332.9	115.254
1334.49	114.136
1336.08	111.911
1337.67	110.182
1339.27	108.556
1340.86	107.063
1342.45	106.717
1344.04	105.105
1345.63	104.04
1347.22	102.636
1348.8	102.859
1350.39	102.147
1351.98	101.584
1353.57	102.639
1355.16	101.603
1356.75	102.089
1358.33	102.188
1359.92	102.923
1361.51	104.861
1363.09	106.178
1364.68	106.649
1366.27	107.782
1367.85	108.121
1369.44	108.865
1371.02	108.921
1372.61	110.2
1374.19	111.822
1375.77	113.27
1377.36	112.568
1378.94	114.823
1380.52	115.666
1382.11	117.23
1383.69	119.424
1385.27	119.686
1386.85	120.433
1388.43	120.813
1390.02	121.053
1391.6	121.88
1393.18	121.318
1394.76	122.622
1396.34	124.094
1397.92	125.057
1399.5	124.936
1401.08	126.511
1402.65	128.633
1404.23	130.387
1405.81	132.948
1407.39	136.827
1408.97	140.259
1410.54	142.855
1412.12	146.411
1413.7	150.926
1415.27	153.802
1416.85	157.599
1418.43	162.142
1420	167.424
1421.58	172.006
1423.15	176.93
1424.73	181.704
1426.3	188.484
1427.87	194.3
1429.45	200.403
1431.02	206.08
1432.6	212.256
1434.17	217.164
1435.74	222.075
1437.31	226.075
1438.89	230.24
1440.46	232.421
1442.03	233.742
1443.6	235.878
1445.17	236.145
1446.74	237.409
1448.31	236.277
1449.88	236.224
1451.45	236.539
1453.02	236.801
1454.59	234.466
1456.16	232.021
1457.72	230.922
1459.29	227.577
1460.86	224.102
1462.43	218.281
1463.99	212.507
1465.56	206.169
1467.13	199.541
1468.69	192.079
1470.26	186.58
1471.83	179.014
1473.39	171.865
1474.95	164.678
1476.52	157.157
1478.08	149.865
1479.65	144.187
1481.21	137.927
1482.78	131.264
1484.34	125.216
1485.9	119.24
1487.47	112.965
1489.03	108.471
1490.59	103.893
1492.15	99.3993
1493.71	93.2607
1495.27	89.9256
1496.84	88.2028
1498.39	85.6217
1499.96	83.1936
1501.52	79.6371
1503.07	77.4723
1504.64	76.5847
1506.19	73.7638
1507.75	72.7646
1509.31	71.142
1510.87	70.5287
1512.43	68.8297
1513.98	66.2182
1515.54	65.7204
1517.1	63.6667
1518.65	61.8752
1520.21	60.9766
1521.77	60.1226
1523.32	59.6554
1524.88	59.9053
1526.44	59.7076
1527.99	59.6683
1529.54	60.062
1531.1	60.396
1532.65	59.4742
1534.21	60.5509
1535.76	60.4136
1537.31	59.8782
1538.87	59.379
1540.42	58.6079
1541.97	59.5954
1543.52	59.6687
1545.07	59.8035
1546.63	59.7437
1548.18	61.2214
1549.73	61.5801
1551.28	62.4428
1552.83	62.9647
1554.38	64.253
1555.93	65.5965
1557.48	67.7276
1559.03	69.3755
1560.57	70.4831
1562.12	73.4535
1563.67	75.328
1565.22	77.4006
1566.77	79.9363
1568.31	82.6555
1569.86	86.2366
1571.41	88.8558
1572.95	93.0505
1574.5	97.4333
1576.05	100.648
1577.59	105.096
1579.14	107.52
1580.68	113.119
1582.23	117.914
1583.77	120.58
1585.31	123.862
1586.86	127.346
1588.4	132.003
1589.95	135.033
1591.49	138.481
1593.03	141.671
1594.57	143.67
1596.11	146.54
1597.66	147.641
1599.2	149.919
1600.74	152.907
1602.28	154.259
1603.82	156.093
1605.36	156.451
1606.9	159.205
1608.44	159.952
1609.98	160.762
1611.52	162.62
1613.06	162.954
1614.6	163.141
1616.13	162.626
1617.67	162.472
1619.21	163.104
1620.75	162.103
1622.28	162.304
1623.82	162.615
1625.36	163.536
1626.89	163.204
1628.43	162.864
1629.96	162.167
1631.5	161.953
1633.04	161.399
1634.57	159.674
1636.11	158.719
1637.64	157.6
1639.17	157.819
1640.71	155.916
1642.24	155.067
1643.77	154.212
1645.31	153.224
1646.84	152.663
1648.37	150.9
1649.9	149.59
1651.43	148.278
1652.96	145.716
1654.5	143.41
1656.03	140.847
1657.56	139.046
1659.09	136.198
1660.62	131.916
1662.15	128.662
1663.67	126.469
1665.2	124.16
1666.73	119.586
1668.26	115.524
1669.79	111.257
1671.32	107.833
1672.84	105.164
1674.37	101.845
1675.9	99.9398
1677.43	96.9649
1678.95	92.6088
1680.48	89.76
1682	85.6288
1683.53	83.1039
1685.05	79.4239
1686.58	76.9685
1688.1	74.5774
1689.63	71.4682
1691.15	67.981
1692.68	65.6136
1694.2	63.7835
1695.72	62.533
1697.25	61.3754
1698.77	59.5305
1700.29	58.1962
1701.81	56.817
1703.33	55.2668
1704.86	54.2638
1706.38	52.7173
1707.9	50.001
1709.42	48.9766
1710.94	47.6126
1712.46	46.7236
1713.98	45.1979
1715.5	43.5449
1717.02	41.2261
1718.54	39.8706
1720.06	38.7573
1721.57	36.9679
1723.09	36.2665
1724.61	34.7347
1726.13	33.8347
1727.64	33.0219
1729.16	31.8398
1730.68	31.4413
1732.19	30.3136
1733.71	28.3962
1735.23	26.7099
1736.74	25.6979
1738.26	25.1224
1739.77	25.5052
1741.29	25.1541
1742.8	24.0476
1744.31	23.5477
1745.83	23.376
1747.34	22.609
1748.85	22.8197
1750.37	21.7923
1751.88	20.8151
1753.39	19.9283
1754.91	18.844
1756.42	18.7244
1757.93	17.8886
1759.44	18.1781
1760.95	17.7725
1762.46	17.9887
1763.97	17.2637
1765.48	16.5556
1766.99	15.7391
1768.5	15.6349
1770.01	14.6019
1771.52	14.3241
1773.03	13.8784
1774.54	12.5942
1776.04	13.0164
1777.55	12.9127
1779.06	12.285
1780.57	11.2784
1782.07	10.7029
1783.58	9.99357
1785.09	10.0547
1786.59	8.49739
1788.1	7.75293
1789.6	6.78268
1791.11	6.08571
1792.61	5.51484
1794.12	5.30757
1795.62	5.16066
1797.13	4.63901
1798.63	5.08801
1800.13	5.12916
1801.64	4.04005
1803.14	4.32726
1804.64	4.35784
1806.15	3.6836
1807.65	2.88849
1809.15	2.24929
1810.65	1.88975
1812.15	2.28618
1813.65	1.9193
1815.16	2.06182
1816.66	0.949863
1818.15	0.501293
1819.66	-0.0673117
1821.16	0.410442
1822.65	1.45254
1824.15	1.71322
1825.65	1.064
1827.15	0.0711047
1828.65	-0.0127173
1830.15	-0.157315
1831.64	-0.368668
1833.14	0.691056
1834.64	1.35768
1836.14	1.8712
1837.63	1.99182
1839.13	2.15793
1840.62	2.07226
1842.12	2.58004
1843.62	2.70812
1845.11	3.33714
1846.61	4.22025
1848.1	4.72776
1849.6	4.8985
1851.09	5.56432
1852.58	5.73435
1854.08	5.28496
1855.57	5.49057
1857.06	5.17347
1858.55	4.9773
1860.05	3.98817
1861.54	3.70135
1863.03	4.33911
1864.52	4.44505
1866.01	5.17372
1867.5	5.84035
1869	6.29873
1870.49	6.11927
1871.98	5.80931
1873.47	6.87954
1874.96	7.28024
1876.44	7.72672
1877.93	7.9944
1879.42	7.36769
1880.91	6.59841
1882.4	6.18234
1882.47	6.14313
1883.96	6.22457
1885.46	5.91615
1886.95	5.96218
1888.44	5.82254
1889.94	6.21299
1891.43	7.17688
1892.93	7.48672
1894.42	7.44492
1895.91	6.48502
1897.4	5.91568
1898.89	5.39102
1900.39	5.01479
1901.88	5.66303
1903.37	5.56763
1904.86	6.20628
1906.35	6.48091
1907.84	5.43513
1909.33	5.00097
1910.82	5.06667
1912.31	5.55962
1913.8	5.57827
1915.29	5.64471
1916.77	5.06902
1918.26	5.49432
1919.75	5.58096
1921.24	5.57065
1922.73	4.82595
1924.21	4.30429
1925.7	4.55135
1927.19	4.18058
1928.67	3.80687
1930.16	3.195
1931.64	3.47101
1933.13	3.66792
1934.61	4.3945
1936.1	4.50094
1937.58	4.98535
1939.07	5.10307
1940.55	5.12052
1942.04	5.29699
1943.52	5.25109
1945	5.66817
1946.49	7.5833
1947.97	7.47617
1949.45	7.29771
1950.93	6.00512
1952.42	6.73516
1953.9	6.7171
1955.38	7.0406
1956.86	6.56885
1958.34	6.91248
1959.82	7.53549
1961.3	7.70945
1962.78	7.95117
1964.26	7.99363
1965.74	7.5258
1967.22	7.34947
1968.7	6.89086
1970.18	7.09562
1971.65	7.19843
1973.13	6.04543
1974.61	5.80582
1976.09	5.52012
1977.57	4.85226
1979.04	4.72416
1980.52	3.43183
1982	3.27103
1983.47	4.12682
1984.95	3.31848
1986.42	3.47461
1987.9	2.90222
1989.37	2.09952
1990.85	2.3437
1992.32	3.26904
1993.8	3.43173
1995.27	2.92832
1996.75	3.06997
1998.22	4.0927
1999.69	5.23723
2001.17	5.77872
2002.64	5.9922
2004.11	6.9396
2005.58	7.72756
2007.05	8.42145
2008.53	8.22188
2010	7.61989
2011.47	8.34746
2012.94	7.65226
2014.41	8.74993
2015.88	9.6293
2017.35	10.1635
2018.82	10.5632
2020.29	11.2894
2021.76	11.1981
2023.23	10.6184
2024.7	10.5191
2026.16	11.5315
2027.63	11.0541
2029.1	11.2496
2030.57	11.2981
2032.03	12.195
2033.5	12.27
2034.97	12.323
2036.44	13.411
2037.9	13.4043
2039.37	14.3755
2040.83	15.2737
2042.3	16.3076
2043.76	16.6708
2045.23	16.0236
2046.69	15.7859
2048.16	15.3218
2049.62	16.1984
2051.08	16.1645
2052.55	16.392
2054.01	16.0753
2055.47	17.0051
2056.94	17.6271
2058.4	17.0148
2059.86	18.0182
2061.32	18.0778
2062.79	18.3614
2064.25	19.6122
2065.71	19.7214
2067.17	20.411
2068.63	21.8429
2070.09	22.8913
2071.55	23.4785
2073.01	23.2344
2074.47	22.5473
2075.93	21.95
2077.39	22.0498
2078.85	22.4112
2080.31	22.2027
2081.76	22.2792
2083.22	22.7167
2084.68	23.5644
2086.13	23.5318
2087.59	23.417
2089.05	23.3416
2090.51	23.1177
2091.96	22.4876
2093.42	21.5776
2094.87	21.7487
2096.33	21.8517
2097.78	22.8103
2099.24	22.927
2100.69	23.5025
2102.15	24.0785
2103.6	24.7712
2105.06	25.3437
2106.51	25.7659
2107.96	26.6237
2109.42	28.3042
2110.87	29.8488
2112.32	31.2914
2113.77	31.5691
2115.23	31.8071
2116.68	31.3781
2118.13	32.3962
2119.58	33.946
2121.03	35.8887
2122.48	37.1297
2123.93	37.2738
2125.38	37.5963
2126.83	39.5059
2128.28	40.4834
2129.73	41.7972
2131.18	42.1301
2132.63	43.0475
2134.08	44.5029
2135.53	45.4467
2136.97	46.972
2138.42	48.3605
2139.87	49.7658
2141.32	50.9581
2142.76	50.9612
2144.21	52.0027
2145.66	52.5261
2147.1	53.9457
2148.55	56.1891
2150	58.1652
2151.44	59.824
2152.89	61.0402
2154.33	61.9085
2155.78	63.0693
2157.22	63.751
2158.66	64.3532
2160.11	64.833
2161.55	66.6122
2163	66.0031
2164.44	66.4201
2165.88	67.2011
2167.32	69.1326
2168.77	69.396
2170.21	68.6043
2171.65	68.4802
2173.09	68.7674
2174.53	68.3151
2175.97	66.7563
2177.41	65.7857
2178.85	65.1603
2180.29	65.2236
2181.73	65.0129
2183.17	63.9173
2184.61	61.4657
2186.05	60.5917
2187.49	60.7554
2188.93	60.063
2190.37	59.7977
2191.81	57.8246
2193.24	57.3269
2194.68	55.9064
2196.12	55.1867
2197.56	53.7847
2198.99	52.7896
2200.43	50.0093
2201.87	49.2579
2203.3	47.0068
2204.74	46.4014
2206.17	45.2681
2207.61	43.7643
2209.04	42.4928
2210.48	41.4533
2211.91	39.694
2213.35	39.4197
2214.78	39.1839
2216.21	38.9208
2217.65	38.8337
2219.08	38.3424
2220.51	38.119
2221.95	37.7911
2223.38	36.9987
2224.81	35.8847
2226.24	34.9598
2227.67	34.5632
2229.1	34.1012
2230.54	33.1618
2231.97	32.2804
2233.4	30.2841
2234.83	29.5571
2236.26	29.6544
2237.69	27.9309
2239.11	27.0488
2240.54	25.3548
2241.97	24.2223
2243.4	23.1413
2244.83	21.6326
2246.26	20.0751
2247.69	18.8809
2249.11	19.3652
2250.54	19.2933
2251.97	18.7245
2253.4	18.0822
2254.82	17.0499
2256.25	16.8964
2257.67	17.781
2259.1	16.9754
2260.53	15.8952
2261.95	15.8803
2263.38	14.66
2264.8	14.8383
2266.23	13.5265
2267.65	12.903
2269.07	11.9176
2270.5	11.691
2271.92	10.7933
2273.34	11.174
2274.77	11.1479
2276.19	10.792
2277.61	10.4993
2279.03	9.74694
2280.46	8.90531
2281.88	8.96841
2283.3	8.61731
2284.72	8.99051
2286.14	9.18071
2287.56	9.61732
2288.98	9.39513
2290.4	8.89526
2291.82	8.95966
2293.24	7.58948
2294.66	6.46823
2296.08	5.9462
2297.5	6.77533
2298.92	7.26294
2300.34	7.99675
2301.76	6.86592
2303.17	6.63008
2304.59	6.12249
2306.01	7.03454
2307.43	6.91803
2308.84	6.80241
2310.26	7.97538
2311.68	7.35796
2313.09	7.26562
2314.51	7.91946
2315.92	8.11422
2317.34	8.08229
2318.75	8.96388
2320.17	9.60337
2321.58	8.07985
2323	7.84083
2324.41	7.799
2325.82	7.75497
2327.24	7.72528
2328.65	7.40972
2330.06	7.8656
2331.48	7.58734
2332.89	7.2279
2334.3	7.1599
2335.71	7.83733
2337.12	7.58791
2338.54	8.10418
2339.95	7.26238
2341.36	7.41563
2342.77	7.1861
2344.18	6.98088
2345.59	6.01131
2347	5.14584
2348.41	4.26162
2349.82	2.6853
2351.23	2.20158
2352.64	2.55936
2354.04	2.47499
2355.45	2.22254
2356.86	1.75179
2358.27	1.62204
2359.68	0.452561
2361.08	0.885055
2362.49	0.960664
2363.9	0.584107
2365.3	1.26238
2366.71	2.47835
2368.12	2.68513
2369.52	2.43883
2370.93	1.73646
2372.33	1.62105
2373.74	2.20112
2375.14	1.92423
2376.55	2.09198
2377.95	2.46711
2379.36	2.60996
2380.76	2.63549
2382.16	2.4716
2383.57	2.81979
2384.97	3.25398
2386.37	2.50884
2387.78	2.33861
2389.18	2.98961
2390.58	2.60234
2391.98	2.19029
2393.38	2.50289
2394.79	2.59508
2396.19	2.79755
2397.59	3.04196
2398.99	3.61643
2400.39	4.18145
2401.79	4.09184
2403.19	4.44205
2404.59	5.3705
2405.99	5.18504
2407.39	5.44171
2408.78	5.70788
2410.18	6.10518
2411.58	6.40862
2412.98	5.52837
2414.38	4.53614
2415.77	4.92851
2417.17	5.77471
2418.57	6.35332
2419.97	6.75549
2421.36	7.16231
2422.76	7.6452
2424.15	7.91188
2425.55	8.0497
2426.95	7.97087
2428.34	8.42041
2429.74	8.43559
2431.13	8.19746
2432.52	7.94416
2433.92	7.24473
2435.31	7.29215
2436.71	7.05352
2438.1	6.51004
2439.49	6.85387
2440.89	6.99049
2442.28	7.35896
2443.67	6.99166
2445.06	7.02296
2446.46	7.35222
2447.85	7.7078
2449.24	7.46243
2450.63	6.72125
2452.02	6.82887
2453.41	6.12453
2454.8	5.57103
2456.19	4.68182
2457.58	4.34297
2458.97	3.89362
2460.36	2.68106
2461.75	2.24345
2463.14	1.45843
2464.53	1.99954
2465.92	2.13615
2467.31	2.01451
2468.69	2.32297
2470.08	1.78302
2471.47	2.38545
2472.86	1.61757
2474.24	1.76405
2475.63	1.32466
2477.02	1.151
2478.4	0.650603
2479.79	1.244
2481.17	0.94851
2482.56	1.01512
2483.94	2.55359
2485.33	3.67263
2486.72	4.22529
2488.1	3.6481
2489.48	2.70508
2490.87	2.30872
2492.25	1.65089
2493.64	0.919157
2495.02	-0.0101477
2496.4	-0.243461
2497.79	1.04784
2499.17	1.88396
2500.55	2.81172
2501.93	4.11932
2503.31	4.80013
2504.69	6.04715
2506.08	6.64594
2507.46	7.72953
2508.84	8.08737
2510.22	9.86638
2511.6	10.3936
2512.98	10.8306
2514.36	11.0792
2515.74	12.3601
2517.12	11.9925
2518.5	11.8831
2519.88	11.9659
2521.25	12.7909
2522.63	12.5102
2524.01	12.6929
2525.39	13.3764
2526.77	13.7488
2528.14	13.7756
2529.52	14.2053
2530.9	14.33
2532.27	14.8185
2533.65	15.0858
2535.03	14
2536.4	13.1896
2537.78	13.3492
2539.15	12.4913
2540.53	12.669
2541.9	11.5739
2543.28	11.5878
2544.65	10.734
2546.03	9.80547
2547.4	9.8164
2548.77	10.5663
2550.15	10.5736
2551.52	10.5945
2552.89	10.7786
2554.27	9.05109
2555.64	8.00222
2557.01	6.91926
2558.38	6.75172
2559.75	6.39434
2561.12	6.35286
2562.5	6.56626
2563.87	6.7799
2565.24	7.7525
2566.61	7.67084
2567.98	7.41101
2569.35	6.95855
2570.72	7.15166
2572.09	6.81104
2573.46	6.61753
2574.83	6.09466
2576.19	5.83778
2577.56	5.96626
2578.93	7.14825
2580.3	5.31912
2581.67	4.71347
2583.04	5.12521
2584.4	5.17743
2585.77	3.69675
2587.14	4.3777
2588.5	4.79375
2589.87	6.05058
2591.23	5.50339
2592.6	5.87395
2593.97	5.42818
2595.33	5.46126
2596.7	5.48272
2598.06	5.5169
2599.43	5.52589
2600.79	5.92712
2602.15	5.61824
2603.52	5.66021
2604.88	6.68616
2606.25	7.34408
2607.61	8.06911
2608.97	8.86043
2610.33	8.40186
2611.7	8.77805
2613.06	8.64951
2614.42	8.9752
2615.78	9.65161
2617.15	10.4051
2618.51	10.1617
2619.87	10.5973
2621.23	10.6709
2622.59	10.5162
2623.95	10.9967
2625.31	11.5384
2626.67	11.9748
2628.03	11.6814
2629.39	11.6329
2630.75	11.7007
2632.1	12.361
2633.46	12.7764
2634.82	12.9708
2636.18	13.0493
2637.54	13.0912
2638.89	12.7334
2640.25	11.3646
2641.61	11.5185
2642.97	10.9534
2644.32	10.7749
2645.68	10.8596
2647.03	10.1239
2648.39	8.02052
2649.75	8.84623
2651.1	8.66607
2652.46	8.06793
2653.81	7.48525
2655.17	7.38914
2656.52	7.17979
2657.88	7.03118
2659.23	5.51553
2660.58	5.10769
2661.94	4.05883
2663.29	4.60563
2664.64	4.61692
2666	4.07319
2667.35	3.27074
2668.7	3.19474
2670.05	3.18559
2671.4	2.50194
2672.76	2.63918
2674.11	2.25485
2675.46	2.0081
2676.81	1.17898
2678.16	0.418031
2679.51	0.732623
2680.86	0.785044
2682.21	1.31748
2683.56	1.85483
2684.91	3.53982
2686.26	4.21166
2687.61	5.41352
2688.96	6.07577
2690.3	6.57247
2691.65	8.03598
2693	9.32792
2694.35	10.594
2695.7	11.8405
2697.04	13.6065
2698.39	15.1919
2699.74	15.9815
2701.08	16.6546
2702.43	17.5931
2703.77	18.2442
2705.12	18.9345
2706.47	19.4793
2707.81	19.7037
2709.16	20.8064
2710.5	21.2102
2711.85	22.0956
2713.19	22.4143
2714.53	22.8699
2715.88	23.3748
2717.22	25.0494
2718.57	25.2672
2719.91	26.0695
2721.25	26.4615
2722.59	26.4163
2723.94	27.4151
2725.28	26.793
2726.62	25.6441
2727.96	25.8221
2729.3	25.8134
2730.65	26.3172
2731.99	25.2673
2733.33	24.6083
2734.67	24.239
2736.01	24.1327
2737.35	23.3528
2738.69	22.7068
2740.03	22.8694
2741.37	22.2842
2742.71	22.3222
2744.05	21.898
2745.38	21.5485
2746.72	20.9131
2748.06	21.4158
2749.4	21.7928
2750.74	21.1814
2752.07	21.3197
2753.41	20.77
2754.75	21.2598
2756.09	21.1116
2757.42	21.6199
2758.76	21.8309
2760.09	21.0771
2761.43	21.115
2762.77	20.3891
2764.1	20.2569
2765.44	19.7877
2766.77	18.7226
2768.11	18.5526
2769.44	18.0792
2770.77	16.8717
2772.11	15.574
2773.44	15.375
2774.77	14.5944
2776.11	14.4634
2777.44	13.9566
2778.77	13.5806
2780.11	12.6998
2781.44	12.4562
2782.77	11.8119
2784.1	11.6814
2785.43	11.3941
2786.77	10.4345
2788.1	9.65802
2789.43	8.96978
2790.76	9.54606
2792.09	9.46306
2793.42	9.10086
2794.75	9.62823
2796.08	9.28284
2797.41	8.48028
2798.74	8.53812
2800.07	8.69766
2801.4	8.38922
2802.72	7.88636
2804.05	7.4977
2805.38	7.54759
2806.71	7.28167
2808.04	7.82389
2809.36	7.24528
2810.69	6.84581
2812.02	6.81173
2813.34	7.4126
2814.67	8.64276
2816	9.51691
2817.32	10.547
2818.65	12.8724
2819.97	15.0821
2821.3	17.8086
2822.62	20.3972
2823.95	24.4049
2825.27	27.3833
2826.6	31.3055
2827.92	36.1849
2829.25	41.5287
2830.57	48.1856
2831.89	53.6393
2833.22	59.3952
2834.54	66.3012
2835.86	72.7749
2837.18	79.3734
2838.51	86.4584
2839.83	95.2207
2841.15	103.365
2842.47	111.226
2843.79	120.213
2845.11	129.192
2846.43	137.924
2847.76	147.267
2849.08	156.982
2850.4	166.227
2851.72	176.87
2853.04	186.672
2854.36	196.527
2855.67	205.859
2856.99	215.293
2858.31	225.095
2859.63	234.123
2860.95	242.697
2862.27	250.875
2863.58	259.309
2864.9	267.474
2866.22	275.261
2867.54	282.696
2868.85	290.09
2870.17	297.224
2871.49	303.861
2872.8	310.062
2874.12	316.347
2875.43	321.478
2876.75	326.66
2878.07	332.585
2879.38	339.882
2880.7	346.54
2882.01	352.587
2883.32	359.66
2884.64	366.057
2885.95	373.455
2887.27	380.579
2888.58	387.087
2889.89	394.417
2891.21	401.451
2892.52	409.149
2893.83	416.87
2895.14	425.812
2896.46	433.684
2897.77	440.662
2899.08	448.08
2900.39	456.914
2901.7	465.932
2903.01	476.622
2904.32	485.935
2905.63	496.404
2906.94	505.708
2908.25	515.814
2909.56	526.286
2910.87	535.973
2912.18	545.822
2913.49	556.156
2914.8	566.383
2916.11	575.896
2917.42	585.672
2918.72	592.974
2920.03	600.209
2921.34	606.807
2922.65	613.489
2923.95	619.412
2925.26	623.481
2926.57	626.271
2927.88	628.844
2929.18	629.401
2930.49	629.272
2931.79	628.617
2933.1	626.338
2934.4	622.622
2935.71	616.327
2937.01	609.717
2938.32	602.788
2939.62	595.091
2940.93	586.102
2942.23	576.976
2943.54	568.102
2944.84	557.822
2946.14	545.131
2947.45	533.179
2948.75	520.223
2950.05	505.821
2951.35	493.522
2952.66	479.408
2953.96	466.027
2955.26	453.399
2956.56	440.798
2957.86	428.34
2959.16	415.753
2960.46	404.025
2961.77	392.103
2963.07	380.631
2964.37	369.351
2965.66	359.656
2966.96	350.948
2968.26	341.246
2969.56	330.531
2970.86	321.563
2972.16	312.679
2973.46	305.041
2974.76	296.895
2976.06	288.726
2977.35	281.107
2978.65	273.974
2979.95	265.871
2981.25	257.993
2982.54	249.925
2983.84	242.378
2985.14	234.356
2986.43	226.549
2987.73	219.113
2989.02	211.413
2990.32	202.628
2991.62	194.116
2992.91	185.004
2994.21	176.582
2995.5	169.022
2996.8	160.928
2998.09	152.843
2999.38	143.589
3000.68	135.452
3001.97	128.104
3003.26	120.876
3004.56	113.399
3005.85	105.787
3007.14	98.422
3008.43	91.3955
3009.73	84.0769
3011.02	77.3196
3012.31	71.8436
3013.6	66.2999
3014.89	61.6816
3016.19	58.17
3017.48	53.263
3018.77	49.9199
3020.06	46.0309
3021.35	42.2389
3022.64	38.626
3023.93	34.3163
3025.22	31.1606
3026.5	28.3644
3027.79	25.7308
3029.08	23.4068
3030.37	21.2777
3031.66	19.3716
3032.95	16.9915
3034.24	15.38
3035.52	13.6526
3036.81	12.4752
3038.1	12.1234
3039.39	11.1825
3040.67	10.4336
3041.96	9.79078
3043.25	8.8514
3044.53	8.59798
3045.82	8.45426
3047.1	8.40231
3048.39	8.33354
3049.67	7.89145
3050.96	7.42881
3052.24	7.79321
3053.53	7.64866
3054.81	7.00766
3056.1	8.23956
3057.38	8.43803
3058.67	8.6201
3059.95	8.56255
3061.23	9.12134
3062.52	8.45264
3063.8	7.9419
3065.08	8.16914
3066.36	7.86834
3067.65	8.85966
3068.93	8.53751
3070.21	8.33354
3071.49	7.76179
3072.77	7.93961
3074.05	7.52489
3075.33	7.89129
3076.61	8.26352
3077.89	7.98449
3079.17	6.57596
3080.45	6.30817
3081.73	5.5052
3083.01	5.00505
3084.29	4.04386
3085.57	3.03912
3086.85	2.80409
3088.13	2.3761
3089.41	1.89206
3090.68	1.8859
3091.96	2.27948
3093.24	1.69018
3094.52	1.13454
3095.79	1.33564
3097.07	1.61251
3098.35	1.26844
3099.62	1.65193
3100.9	2.31551
3102.18	3.35129
3103.45	3.74918
3104.73	4.47207
3106	4.97611
3107.28	6.27716
3108.55	7.85283
3109.83	8.17725
3111.1	9.28817
3112.38	10.3607
3113.65	11.4249
3114.93	12.9295
3116.2	14.427
3117.47	15.2038
3118.75	16.2696
3120.02	17.8657
3121.29	18.1086
3122.57	18.9651
3123.84	20.5241
3125.11	22.1048
3126.38	22.6923
3127.65	24.2329
3128.92	26.0467
3130.2	27.6155
3131.47	29.4657
3132.74	29.5674
3134.01	30.8594
3135.28	32.1102
3136.55	33.8726
3137.82	34.9426
3139.09	36.4621
3140.36	37.3812
3141.63	38.0989
3142.9	39.1281
3144.17	39.919
3145.43	40.4383
3146.7	40.7242
3147.97	40.9922
3149.24	42.2509
