#Acq. time (s)=	45
#Accumulations=	2
#Range (cm-¹)=	200...3150
#Windows=	2
#Auto scanning=	Off
#Autofocus=	Off
#Macrospot=	Off
#AutoExposure=	Off
#Spike filter=	Multiple accum.
#Delay time (s)=	0
#Binning=	1
#Readout mode=	Signal
#DeNoise=	Off
#ICS correction=	On
#Dark correction=	Off
#Inst. Process=	Off
#Detector Gain=	Best Dynamic Range
#Detector ADC=	20 kHz       
#Detector temperature (°C)=	-70.08
#Instrument=	LabRAM HR Evol
#Detector=	Synapse
#Objective=	x100
#Grating=	600 gr/mm
#ND Filter=	100%
#Laser (nm)=	532 
#Hole=	100.021
#Range=	Auto
#Laser Pol.=	No
#Raman. Pol.=	No
#Laser Pol. (°)=	-0.0007625
#Raman Pol. (°)=	89.9995
#Collection=	Microscope
#StageXY=	Marzhauser
#StageZ=	Marzhauser
#X (µm)=	-2498
#Y (µm)=	-71.4
#Z (µm)=	-10.4
#Full time(mm:ss)=	3:18
#Project=	
#Sample=	
#Site=	
#Title=	Mb_40_24_37_2x_45s_532 nm_x100_100%_600 gr_mm
#Remark=	
#Date=	14.07.2022 13:28
#Acquired=	14.07.2022 13:28:40
#Base:Fit=	10.08.2022 10:47:00
#Base:Sub=	10.08.2022 10:47:12
#Filter:Polynom=	16.08.2022 10:11:48
#AxisType[0]=Intens
#AxisUnit[0]=Cnt
#AxisType[1]=Spectr
#AxisUnit[1]=1/cm
200.554	20.1071
202.369	17.6675
204.183	16.067
205.999	15.1638
207.813	14.1937
209.626	13.6052
211.439	13.1424
213.253	12.7526
215.065	12.0055
216.877	12.6684
218.688	12.4008
220.5	12.7772
222.312	12.1856
224.123	12.1838
225.933	10.6922
227.742	11.5251
229.552	11.3245
231.361	11.1512
233.171	10.1365
234.98	10.4037
236.787	11.0758
238.595	11.1766
240.402	11.4841
242.209	12.2611
244.015	12.2476
245.822	12.7256
247.627	12.77
249.435	12.758
251.24	13.0846
253.045	13.6127
254.849	13.4856
256.653	14.288
258.457	15.0227
260.26	17.0818
262.063	17.1298
263.866	16.414
265.668	16.7531
267.47	17.8895
269.271	17.7248
271.073	17.7673
272.873	18.2161
274.674	18.0965
276.474	17.3127
278.274	17.4066
280.073	16.2808
281.872	15.6865
283.671	14.6867
285.47	13.7383
287.268	12.1119
289.065	12.2112
290.863	12.0932
292.66	12.3105
294.456	12.6289
296.253	12.0923
298.049	13.0552
299.844	12.7745
301.637	13.1669
303.432	13.697
305.227	13.2481
307.021	13.9072
308.815	13.5765
310.609	14.6497
312.402	14.5094
314.195	14.8537
315.987	15.2552
317.777	16.6099
319.569	16.0004
321.36	16.507
323.151	16.7011
324.942	17.9493
326.733	17.6238
328.521	18.1699
330.31	18.5106
332.1	19.3818
333.889	19.0491
335.677	20.3778
337.464	21.0747
339.252	21.3846
341.039	21.9629
342.826	22.801
344.611	22.9786
346.398	22.9246
348.184	23.6758
349.97	23.1381
351.754	22.7011
353.539	21.7797
355.324	22.4658
357.106	22.4336
358.89	22.8135
360.674	22.0743
362.455	21.7704
364.239	22.4858
366.021	23.4543
367.804	23.4443
369.584	23.2567
371.366	23.2944
373.145	22.9193
374.926	23.9108
376.707	25.1188
378.485	24.7583
380.265	23.7856
382.045	24.2792
383.822	25.5615
385.601	25.8774
387.378	26.2362
389.156	25.7084
390.934	26.529
392.71	27.323
394.487	27.6396
396.262	28.8524
398.038	28.7691
399.813	28.4918
401.588	27.4396
403.362	27.3684
405.137	26.0256
406.912	25.8126
408.685	25.5971
410.459	25.2034
412.23	25.8011
414.004	25.6189
415.775	24.8463
417.548	24.4017
419.318	22.9893
421.089	22.9373
422.86	22.3377
424.63	22.8559
426.401	21.6795
428.17	20.8898
429.94	19.9412
431.708	19.3233
433.478	18.422
435.245	17.2618
437.012	16.6408
438.781	15.4902
440.547	14.8446
442.315	13.5572
444.081	14.8995
445.846	15.334
447.613	14.9509
449.378	14.4331
451.142	13.8837
452.908	15.7198
454.672	16.2622
456.435	17.4707
458.2	17.4981
459.963	18.4252
461.725	19.3982
463.489	20.0467
465.251	19.6053
467.012	18.4992
468.775	19.0982
470.536	20.7173
472.296	22.0624
474.056	23.0126
475.817	23.5725
477.576	25.4987
479.335	26.7423
481.094	27.4706
482.854	27.59
484.612	26.8187
486.37	27.035
488.127	28.3139
489.886	28.2625
491.642	29.0665
493.398	29.7139
495.154	31.3876
496.91	31.8433
498.667	32.0533
500.422	32.6867
502.176	31.5926
503.93	31.9495
505.684	31.9852
507.438	32.0116
509.191	32.4055
510.946	33.4716
512.698	32.6655
514.45	31.7015
516.202	31.3519
517.954	30.6287
519.705	30.3841
521.456	30.6792
523.206	30.2274
524.956	30.5912
526.706	31.8436
528.456	31.6986
530.207	31.7899
531.956	32.9346
533.704	32.2083
535.452	30.643
537.2	30.8957
538.947	30.6488
540.694	31.8724
542.441	31.2151
544.188	30.078
545.934	28.1677
547.68	27.2605
549.425	25.2537
551.17	23.6206
552.915	21.5187
554.659	21.3445
556.403	20.5271
558.145	20.329
559.889	19.2622
561.632	19.0508
563.375	17.1031
565.117	15.338
566.859	13.4834
568.601	12.8045
570.342	12.114
572.083	10.8762
573.824	10.8641
575.565	9.96894
577.303	8.51978
579.043	8.92947
580.782	8.79449
582.521	7.75371
584.26	7.40517
585.998	5.87758
587.734	5.08811
589.472	5.01597
591.21	4.97843
592.947	3.86419
594.684	3.65394
596.418	4.78247
598.154	4.83296
599.89	4.56586
601.626	4.90691
603.361	6.06138
605.094	7.46463
606.828	8.61267
608.562	9.46326
610.296	10.1675
612.027	11.1954
613.761	11.7468
615.493	12.6934
617.224	13.2214
618.956	14.0047
620.688	13.1856
622.419	13.1218
624.149	13.9239
625.879	13.9041
627.61	13.8992
629.338	13.8857
631.068	12.7074
632.797	12.8223
634.525	12.2488
636.254	11.7764
637.98	12.02
639.708	12.1239
641.436	12.1579
643.162	11.6748
644.889	12.0128
646.614	11.3159
648.34	10.782
650.067	9.57442
651.791	9.32577
653.516	9.81915
655.239	10.1568
656.964	10.3668
658.687	10.5964
660.411	11.7476
662.133	11.8567
663.857	11.782
665.58	11.2538
667.301	10.7632
669.024	9.9151
670.744	9.99924
672.464	10.1075
674.186	11.2907
675.905	12.3172
677.626	13.4961
679.345	15.1763
681.065	17.7151
682.783	19.3321
684.503	19.8171
686.22	21.8396
687.939	22.3379
689.656	24.5842
691.372	26.1889
693.09	26.6709
694.806	26.9449
696.523	28.7775
698.239	30.1097
699.953	31.8616
701.67	34.0825
703.384	34.5574
705.098	36.6835
706.813	37.8022
708.526	38.3278
710.239	39.3839
711.954	39.495
713.666	39.3676
715.378	39.5981
717.091	38.2677
718.802	39.2252
720.513	39.0998
722.226	38.8337
723.936	38.7653
725.646	39.2712
727.355	38.4219
729.067	37.6267
730.776	37.1058
732.484	36.2742
734.192	36.3997
735.902	36.45
737.61	36.2013
739.317	36.261
741.024	37.6251
742.731	38.4842
744.439	39.2189
746.145	39.0369
747.851	38.3816
749.556	38.6082
751.262	39.4889
752.966	41.0234
754.673	42.1589
756.377	44.6091
758.081	45.9761
759.784	47.3461
761.487	48.6464
763.19	50.0942
764.892	52.0017
766.594	53.2456
768.296	53.1654
770	53.4285
771.701	54.1308
773.402	55.0652
775.102	56.2059
776.803	56.5715
778.503	57.6055
780.202	58.2564
781.901	60.2008
783.6	61.3052
785.299	62.4088
786.997	64.144
788.695	64.748
790.393	65.4524
792.09	64.3915
793.787	64.8757
795.484	65.2808
797.18	64.271
798.877	64.5277
800.572	63.4993
802.268	63.6893
803.963	64.7593
805.658	64.4515
807.35	64.6546
809.044	64.6402
810.738	65.4582
812.432	65.3888
814.125	65.2458
815.818	65.5747
817.51	65.9754
819.202	66.3798
820.894	66.5943
822.584	67.512
824.275	68.7593
825.966	70.8581
827.657	71.774
829.347	72.4269
831.037	73.0579
832.725	74.3421
834.414	75.2897
836.103	76.3876
837.792	76.9083
839.481	76.4369
841.167	76.7757
842.854	76.4971
844.542	75.7998
846.229	75.6505
847.914	74.7255
849.6	74.4318
851.287	73.5611
852.973	72.593
854.656	71.7897
856.341	70.3513
858.026	69.9073
859.711	68.5365
861.393	67.8816
863.077	67.8718
864.761	66.0481
866.442	65.6511
868.125	64.6534
869.808	63.886
871.489	62.3662
873.171	59.166
874.85	57.9007
876.532	56.4927
878.213	57.0554
879.892	54.2672
881.572	53.213
883.251	52.6197
884.931	52.0999
886.61	52.9895
888.287	51.676
889.966	52.0674
891.643	52.5052
893.321	51.8067
894.997	52.8198
896.675	51.6215
898.352	51.4166
900.028	52.0661
901.704	53.4834
903.379	53.3846
905.055	54.6814
906.729	55.1713
908.404	55.3042
910.077	55.4118
911.75	56.1704
913.425	56.417
915.097	56.6405
916.771	56.347
918.443	56.486
920.116	56.4861
921.787	56.1159
923.46	55.7288
925.13	56.9137
926.8	56.9309
928.472	55.8211
930.141	55.534
931.813	53.502
933.481	53.241
935.15	52.8259
936.82	51.6629
938.488	50.4845
940.156	49.6995
941.825	49.0958
943.492	47.2141
945.158	46.3815
946.827	44.9503
948.493	43.9872
950.158	44.1662
951.824	42.8868
953.491	41.6697
955.156	40.9351
956.82	40.4525
958.486	40.4921
960.15	39.1952
961.814	39.0506
963.477	37.3241
965.142	37.7242
966.804	37.8966
968.467	38.9809
970.129	39.5581
971.79	39.8948
973.454	41.1087
975.115	41.6203
976.776	41.42
978.436	42.3155
980.096	42.5641
981.756	43.5011
983.417	43.8366
985.077	43.8168
986.736	44.6523
988.394	46.2378
990.052	47.1848
991.71	48.1977
993.368	48.9186
995.025	50.1482
996.682	50.4035
998.341	49.4637
999.998	49.2867
1001.65	50.3849
1003.31	50.2269
1004.97	50.4406
1006.62	50.8306
1008.28	50.1852
1009.93	50.5003
1011.58	51.5832
1013.24	52.6542
1014.89	53.5029
1016.54	56.4746
1018.2	58.2789
1019.85	59.3202
1021.5	61.0196
1023.16	61.6194
1024.81	62.757
1026.46	64.7802
1028.11	66.4941
1029.76	68.2364
1031.41	69.9458
1033.06	71.0028
1034.71	70.0297
1036.36	69.7805
1038.01	69.488
1039.66	69.54
1041.31	70.1077
1042.95	70.4545
1044.6	71.3344
1046.25	71.4102
1047.9	71.6259
1049.54	71.6054
1051.19	71.5932
1052.84	70.3185
1054.48	69.103
1056.13	67.5962
1057.77	66.4195
1059.42	64.8341
1061.06	63.9498
1062.71	62.384
1064.35	60.2009
1066	59.4477
1067.64	57.858
1069.28	56.6399
1070.93	53.7226
1072.57	51.9423
1074.21	49.3178
1075.85	46.9088
1077.49	44.4443
1079.13	42.2898
1080.78	39.788
1082.42	39.1372
1084.06	37.4845
1085.7	35.6266
1087.34	34.8682
1088.97	34.4263
1090.61	35.1064
1092.25	37.1352
1093.89	37.3562
1095.53	37.5825
1097.17	36.6214
1098.8	37.4299
1100.44	36.7577
1102.08	36.789
1103.71	37.7547
1105.35	37.3768
1106.99	38.1934
1108.62	37.9263
1110.26	36.5381
1111.89	36.0634
1113.52	34.7413
1115.16	34.3566
1116.79	33.1914
1118.43	32.6997
1120.06	32.4771
1121.69	32.5453
1123.32	31.5908
1124.96	30.3588
1126.59	29.221
1128.22	27.9843
1129.85	27.3648
1131.48	26.4064
1133.11	24.5506
1134.75	22.5634
1136.37	21.6995
1138	20.6842
1139.63	18.6007
1141.26	18.2291
1142.89	17.6266
1144.52	15.9291
1146.15	14.8345
1147.78	14.2701
1149.4	13.0042
1151.03	11.5807
1152.66	10.3901
1154.28	10.0368
1155.91	8.21901
1157.54	6.84011
1159.16	5.33323
1160.79	4.18673
1162.41	3.37419
1164.04	2.84267
1165.66	2.10783
1167.29	2.36058
1168.91	1.96241
1170.53	2.44362
1172.16	3.4509
1173.78	2.65118
1175.4	1.82188
1177.02	2.32933
1178.65	1.97027
1180.27	3.52963
1181.89	4.34435
1183.51	5.22801
1185.13	5.32982
1186.75	4.4794
1188.37	4.80265
1189.99	5.15165
1191.61	6.16962
1193.23	7.41022
1194.85	8.18625
1196.47	10.3093
1198.08	10.138
1199.7	10.8325
1201.32	12.1108
1202.94	14.4564
1204.55	15.737
1206.17	16.8744
1207.79	19.0509
1209.4	20.8287
1211.02	22.2443
1212.63	23.5351
1214.25	25.3691
1215.86	27.9234
1217.48	30.5121
1219.09	31.6685
1220.71	33.2103
1222.32	36.1686
1223.93	37.5644
1225.54	39.0719
1227.16	41.2076
1228.77	42.6049
1230.38	43.9212
1231.99	45.2935
1233.6	47.0057
1235.22	48.0225
1236.83	49.0833
1238.44	50.6895
1240.05	51.9957
1241.66	52.9742
1243.26	54.8571
1244.87	56.7944
1246.48	58.0303
1248.09	59.0781
1249.7	61.2113
1251.31	62.9465
1252.92	63.7864
1254.52	63.9294
1256.13	66.6413
1257.74	68.1973
1259.34	69.2552
1260.95	70.8393
1262.55	70.9735
1264.16	72.0427
1265.76	72.625
1267.37	74.08
1268.97	75.9552
1270.58	77.3325
1272.18	78.5229
1273.78	80.7175
1275.39	81.6505
1276.99	82.3128
1278.59	82.4945
1280.2	84.0569
1281.8	86.5215
1283.4	88.4707
1285	89.047
1286.6	90.5826
1288.2	91.3089
1289.8	91.3785
1291.4	92.1593
1293	92.2942
1294.6	92.0878
1296.2	91.5435
1297.8	91.1793
1299.4	91.2333
1301	91.2423
1302.6	91.1645
1304.19	91.2421
1305.79	91.2821
1307.39	89.9635
1308.99	89.354
1310.58	89.1201
1312.18	88.899
1313.77	88.432
1315.37	87.5287
1316.96	87.8047
1318.56	86.7461
1320.15	85.7629
1321.75	84.7983
1323.34	85.3841
1324.94	84.5234
1326.53	83.6138
1328.12	83.601
1329.72	82.3597
1331.31	80.7855
1332.9	80.6271
1334.49	79.8759
1336.08	79.9241
1337.67	78.0421
1339.27	77.9767
1340.86	76.9628
1342.45	75.6451
1344.04	75.9823
1345.63	74.1493
1347.22	73.692
1348.8	73.0336
1350.39	73.0204
1351.98	72.456
1353.57	72.2618
1355.16	70.4103
1356.75	69.9023
1358.33	70.5481
1359.92	70.454
1361.51	70.7037
1363.09	69.6227
1364.68	68.5672
1366.27	67.4707
1367.85	65.2743
1369.44	64.5837
1371.02	64.3144
1372.61	63.7071
1374.19	63.5599
1375.77	64.261
1377.36	63.4468
1378.94	62.9994
1380.52	61.9522
1382.11	62.429
1383.69	63.0632
1385.27	62.9268
1386.85	62.6971
1388.43	63.1793
1390.02	63.1407
1391.6	63.9412
1393.18	64.6944
1394.76	64.6371
1396.34	65.3765
1397.92	65.3266
1399.5	65.9152
1401.08	66.3092
1402.65	67.0515
1404.23	67.2455
1405.81	68.6151
1407.39	70.2178
1408.97	70.7759
1410.54	72.6828
1412.12	74.8446
1413.7	76.5343
1415.27	79.0355
1416.85	80.9669
1418.43	83.8948
1420	85.3383
1421.58	88.4037
1423.15	92.4161
1424.73	95.7821
1426.3	99.6635
1427.87	102.791
1429.45	106.075
1431.02	108.739
1432.6	112.547
1434.17	116.155
1435.74	119.914
1437.31	123.198
1438.89	124.701
1440.46	126.123
1442.03	128.532
1443.6	128.781
1445.17	130.12
1446.74	130.682
1448.31	131.688
1449.88	132.248
1451.45	132.511
1453.02	131.387
1454.59	130.791
1456.16	129.03
1457.72	128.499
1459.29	127.005
1460.86	126.259
1462.43	123.736
1463.99	120.569
1465.56	117.117
1467.13	113.451
1468.69	110.575
1470.26	106.797
1471.83	102.644
1473.39	98.0971
1474.95	94.0792
1476.52	89.2089
1478.08	83.6609
1479.65	78.9267
1481.21	74.9013
1482.78	71.6116
1484.34	67.8076
1485.9	64.9554
1487.47	61.0895
1489.03	58.2008
1490.59	54.3842
1492.15	50.5483
1493.71	47.0094
1495.27	43.7276
1496.84	40.6965
1498.39	37.3312
1499.96	36.0918
1501.52	33.6675
1503.07	30.9112
1504.64	28.5796
1506.19	26.4353
1507.75	25.236
1509.31	24.0347
1510.87	22.849
1512.43	21.2801
1513.98	19.7568
1515.54	18.0252
1517.1	15.3647
1518.65	14.6936
1520.21	13.7499
1521.77	13.2719
1523.32	13.9808
1524.88	13.4918
1526.44	13.1657
1527.99	13.5574
1529.54	14.6785
1531.1	14.3143
1532.65	15.003
1534.21	15.817
1535.76	16.2823
1537.31	16.6423
1538.87	17.9078
1540.42	18.6224
1541.97	19.7233
1543.52	20.1968
1545.07	22.4046
1546.63	24.0642
1548.18	24.8936
1549.73	26.7357
1551.28	28.8319
1552.83	30.0497
1554.38	31.324
1555.93	32.9621
1557.48	36.311
1559.03	38.9538
1560.57	40.8297
1562.12	42.0845
1563.67	44.3866
1565.22	45.0133
1566.77	46.3241
1568.31	47.4452
1569.86	49.5863
1571.41	51.583
1572.95	54.0956
1574.5	55.9116
1576.05	57.9639
1577.59	60.3039
1579.14	61.7474
1580.68	63.7767
1582.23	65.9587
1583.77	68.0885
1585.31	69.5261
1586.86	69.962
1588.4	70.8877
1589.95	71.7902
1591.49	72.7041
1593.03	72.6731
1594.57	72.524
1596.11	72.9209
1597.66	73.1953
1599.2	73.7993
1600.74	72.3786
1602.28	71.7107
1603.82	70.9913
1605.36	70.6234
1606.9	71.1831
1608.44	70.879
1609.98	70.2827
1611.52	70.7455
1613.06	70.033
1614.6	70.1601
1616.13	70.8957
1617.67	70.8406
1619.21	70.9763
1620.75	71.1359
1622.28	72.6731
1623.82	72.9712
1625.36	73.6548
1626.89	74.4533
1628.43	76.0364
1629.96	76.4354
1631.5	78.5376
1633.04	79.8004
1634.57	80.9824
1636.11	82.0748
1637.64	83.595
1639.17	85.0586
1640.71	87.137
1642.24	89.2069
1643.77	91.6839
1645.31	93.4155
1646.84	94.7944
1648.37	96.6659
1649.9	98.1062
1651.43	98.8515
1652.96	99.1159
1654.5	100.38
1656.03	101.064
1657.56	101.982
1659.09	101.999
1660.62	101.073
1662.15	99.3016
1663.67	97.7035
1665.2	96.5504
1666.73	94.3103
1668.26	92.0038
1669.79	89.1329
1671.32	87.1674
1672.84	84.8751
1674.37	82.7373
1675.9	79.4428
1677.43	76.6167
1678.95	72.9486
1680.48	69.8819
1682	66.502
1683.53	64.6232
1685.05	61.1095
1686.58	57.7887
1688.1	54.7097
1689.63	51.0382
1691.15	48.4194
1692.68	46.3205
1694.2	42.9021
1695.72	40.9624
1697.25	38.5031
1698.77	36.2581
1700.29	33.1732
1701.81	31.1974
1703.33	29.4406
1704.86	28.6077
1706.38	26.5218
1707.9	24.9625
1709.42	23.2968
1710.94	22.0968
1712.46	21.3614
1713.98	20.2806
1715.5	19.5189
1717.02	19.0334
1718.54	18.3398
1720.06	17.6283
1721.57	16.4924
1723.09	15.5022
1724.61	14.8297
1726.13	14.2682
1727.64	13.9427
1729.16	13.6662
1730.68	14.3751
1732.19	14.2085
1733.71	14.2718
1735.23	13.5208
1736.74	13.6143
1738.26	13.4396
1739.77	14.0679
1741.29	13.7989
1742.8	13.7643
1744.31	13.9811
1745.83	13.7751
1747.34	14.1025
1748.85	13.4107
1750.37	13.0075
1751.88	12.5483
1753.39	12.7054
1754.91	12.3634
1756.42	13.3375
1757.93	13.5607
1759.44	14.1647
1760.95	13.0169
1762.46	12.1221
1763.97	11.0132
1765.48	10.8977
1766.99	11.1167
1768.5	10.7182
1770.01	10.0741
1771.52	10.4291
1773.03	9.76152
1774.54	9.20347
1776.04	9.13736
1777.55	9.39172
1779.06	9.24889
1780.57	9.16709
1782.07	8.68826
1783.58	7.88948
1785.09	7.89456
1786.59	7.46013
1788.1	6.68738
1789.6	6.06484
1791.11	5.06843
1792.61	3.75006
1794.12	3.02409
1795.62	2.65672
1797.13	1.69231
1798.63	1.16292
1800.13	0.672342
1801.64	1.53228
1803.14	1.75273
1804.64	1.7629
1806.15	1.8804
1807.65	2.05384
1809.15	1.86387
1810.65	1.4374
1812.15	1.8032
1813.65	1.9518
1815.16	2.13999
1816.66	1.3436
1818.15	1.51956
1819.66	1.80975
1821.16	1.6025
1822.65	1.86647
1824.15	1.90556
1825.65	2.52773
1827.15	2.65108
1828.65	2.96199
1830.15	3.09743
1831.64	3.3945
1833.14	3.34393
1834.64	3.26062
1836.14	2.85029
1837.63	3.07129
1839.13	3.17212
1840.62	3.6883
1842.12	3.85137
1843.62	4.27405
1845.11	4.40514
1846.61	4.42812
1848.1	4.43215
1849.6	4.42396
1851.09	5.10825
1852.58	5.35288
1854.08	4.97868
1855.57	4.75073
1857.06	4.67202
1858.55	4.02989
1860.05	4.18613
1861.54	3.25021
1863.03	2.49961
1864.52	2.16863
1866.01	1.97609
1867.5	1.74125
1869	2.31478
1870.49	2.12488
1871.98	1.76637
1873.47	1.13554
1874.96	1.62011
1876.44	2.19949
1877.93	1.72309
1879.42	1.62567
1880.91	1.65086
1882.4	1.70971
1882.47	1.66423
1883.96	1.28685
1885.46	2.08642
1886.95	2.94672
1888.44	2.87769
1889.94	3.15403
1891.43	3.75321
1892.93	4.30762
1894.42	3.71135
1895.91	3.75179
1897.4	4.00953
1898.89	3.71029
1900.39	3.85699
1901.88	4.25776
1903.37	3.83573
1904.86	3.864
1906.35	3.77579
1907.84	3.86186
1909.33	3.83703
1910.82	3.24331
1912.31	3.06815
1913.8	3.30392
1915.29	3.26543
1916.77	3.52258
1918.26	3.1231
1919.75	2.76689
1921.24	2.99124
1922.73	3.16559
1924.21	3.34822
1925.7	2.44862
1927.19	2.70368
1928.67	3.03315
1930.16	2.7929
1931.64	2.64443
1933.13	2.60235
1934.61	1.88377
1936.1	2.56219
1937.58	2.64579
1939.07	2.79256
1940.55	2.9233
1942.04	3.25886
1943.52	2.61367
1945	2.23691
1946.49	1.80311
1947.97	2.18829
1949.45	1.56695
1950.93	1.73326
1952.42	2.42656
1953.9	2.52756
1955.38	2.64407
1956.86	2.84939
1958.34	2.83687
1959.82	3.75129
1961.3	4.28964
1962.78	3.8988
1964.26	4.41265
1965.74	4.39456
1967.22	4.23737
1968.7	3.94452
1970.18	4.29875
1971.65	4.56388
1973.13	4.81123
1974.61	5.54926
1976.09	5.68178
1977.57	6.32479
1979.04	7.00477
1980.52	7.46557
1982	7.87305
1983.47	7.91334
1984.95	8.08949
1986.42	8.32498
1987.9	8.77277
1989.37	8.76511
1990.85	8.79795
1992.32	8.49111
1993.8	8.90483
1995.27	9.47637
1996.75	10.0158
1998.22	9.64313
1999.69	9.33757
2001.17	10.3895
2002.64	9.92312
2004.11	9.38812
2005.58	10.1194
2007.05	10.2471
2008.53	10.083
2010	10.4998
2011.47	10.3712
2012.94	10.7333
2014.41	10.3203
2015.88	9.56317
2017.35	8.65547
2018.82	8.64237
2020.29	8.67379
2021.76	9.47215
2023.23	9.39329
2024.7	9.51897
2026.16	9.05969
2027.63	8.65111
2029.1	8.16882
2030.57	8.19886
2032.03	8.07288
2033.5	8.78323
2034.97	9.37186
2036.44	9.07463
2037.9	9.71174
2039.37	10.3219
2040.83	10.2115
2042.3	10.1871
2043.76	10.9039
2045.23	11.4817
2046.69	12.5153
2048.16	13.3263
2049.62	13.6598
2051.08	14.3382
2052.55	14.1645
2054.01	15.04
2055.47	15.7079
2056.94	16.2461
2058.4	17.0735
2059.86	17.3433
2061.32	18.5835
2062.79	19.2555
2064.25	20.1802
2065.71	21.3379
2067.17	22.1157
2068.63	22.7099
2070.09	23.1965
2071.55	23.8387
2073.01	25.1105
2074.47	25.5907
2075.93	26.2134
2077.39	26.7714
2078.85	28.0884
2080.31	28.5402
2081.76	29.0681
2083.22	30.063
2084.68	31.0469
2086.13	31.085
2087.59	30.9139
2089.05	31.3962
2090.51	32.2039
2091.96	32.9587
2093.42	32.8665
2094.87	33.3508
2096.33	33.0406
2097.78	33.4813
2099.24	34.7366
2100.69	35.5665
2102.15	36.2855
2103.6	36.8001
2105.06	37.6072
2106.51	38.5762
2107.96	39.0952
2109.42	39.5597
2110.87	40.7073
2112.32	42.2075
2113.77	42.455
2115.23	44.0773
2116.68	45.2544
2118.13	46.3143
2119.58	47.382
2121.03	48.9462
2122.48	49.3353
2123.93	51.6005
2125.38	53.1127
2126.83	55.5501
2128.28	56.9557
2129.73	58.179
2131.18	60.4561
2132.63	62.2178
2134.08	64.5818
2135.53	66.8276
2136.97	69.1301
2138.42	71.5745
2139.87	73.3648
2141.32	75.7902
2142.76	77.4165
2144.21	80.0211
2145.66	81.5622
2147.1	83.2724
2148.55	85.4415
2150	87.3709
2151.44	88.4527
2152.89	89.6889
2154.33	91.1876
2155.78	92.8978
2157.22	93.6013
2158.66	93.7949
2160.11	94.9654
2161.55	96.928
2163	97.8995
2164.44	97.7522
2165.88	98.5766
2167.32	98.8892
2168.77	98.9474
2170.21	99.3126
2171.65	99.7582
2173.09	98.9907
2174.53	98.8215
2175.97	98.2733
2177.41	97.8748
2178.85	97.6002
2180.29	97.1996
2181.73	96.4324
2183.17	96.424
2184.61	95.3879
2186.05	94.0712
2187.49	93.475
2188.93	91.8698
2190.37	91.406
2191.81	89.7673
2193.24	88.8102
2194.68	87.3321
2196.12	86.5322
2197.56	84.6963
2198.99	83.4962
2200.43	82.1666
2201.87	81.2425
2203.3	80.3491
2204.74	78.9858
2206.17	77.7714
2207.61	76.8152
2209.04	75.5124
2210.48	73.5182
2211.91	72.1797
2213.35	70.9346
2214.78	69.6077
2216.21	68.1197
2217.65	66.1572
2219.08	64.832
2220.51	63.3062
2221.95	61.8526
2223.38	60.2693
2224.81	58.6483
2226.24	56.763
2227.67	55.0661
2229.1	52.701
2230.54	50.8359
2231.97	50.0116
2233.4	48.8428
2234.83	46.6178
2236.26	44.5242
2237.69	42.9851
2239.11	41.295
2240.54	40.687
2241.97	39.4647
2243.4	38.6577
2244.83	37.957
2246.26	37.2621
2247.69	36.4046
2249.11	35.4774
2250.54	35.1099
2251.97	34.3433
2253.4	33.6761
2254.82	33.205
2256.25	31.7931
2257.67	31.3669
2259.1	30.5845
2260.53	29.5027
2261.95	29.4732
2263.38	28.3327
2264.8	28.4425
2266.23	26.995
2267.65	26.3076
2269.07	26.0287
2270.5	25.6968
2271.92	25.2477
2273.34	24.3751
2274.77	23.6251
2276.19	22.9633
2277.61	22.6752
2279.03	22.6332
2280.46	21.8459
2281.88	21.495
2283.3	21.4502
2284.72	20.2127
2286.14	19.557
2287.56	18.9811
2288.98	18.6086
2290.4	17.9189
2291.82	16.4167
2293.24	15.3157
2294.66	14.5837
2296.08	13.6569
2297.5	13.7511
2298.92	14.3008
2300.34	14.2451
2301.76	14.3704
2303.17	15.5614
2304.59	15.3084
2306.01	15.3067
2307.43	14.9023
2308.84	14.9531
2310.26	15.0226
2311.68	15.1923
2313.09	15.203
2314.51	16.0936
2315.92	16.0696
2317.34	15.7867
2318.75	15.8263
2320.17	15.7563
2321.58	15.6606
2323	15.517
2324.41	15.4348
2325.82	15.6886
2327.24	15.6758
2328.65	16.0725
2330.06	16.315
2331.48	15.9972
2332.89	16.0349
2334.3	16.0059
2335.71	15.4115
2337.12	14.5666
2338.54	15.3997
2339.95	14.958
2341.36	14.8579
2342.77	14.0969
2344.18	13.4642
2345.59	13.0859
2347	12.4797
2348.41	12.375
2349.82	11.3966
2351.23	10.5763
2352.64	10.1328
2354.04	9.52842
2355.45	8.94812
2356.86	8.92692
2358.27	8.56641
2359.68	7.80932
2361.08	7.66003
2362.49	7.86366
2363.9	8.80865
2365.3	8.67851
2366.71	9.64546
2368.12	9.54472
2369.52	9.56468
2370.93	9.39878
2372.33	9.76305
2373.74	10.1544
2375.14	9.70037
2376.55	9.72528
2377.95	9.4754
2379.36	9.78361
2380.76	9.53706
2382.16	10.4679
2383.57	10.708
2384.97	10.7218
2386.37	10.7606
2387.78	11.2571
2389.18	11.766
2390.58	11.729
2391.98	12.0092
2393.38	12.2444
2394.79	12.8472
2396.19	13.5183
2397.59	13.499
2398.99	13.7749
2400.39	13.6949
2401.79	13.5644
2403.19	13.6058
2404.59	13.4263
2405.99	12.3358
2407.39	11.6275
2408.78	11.1216
2410.18	10.4641
2411.58	9.87997
2412.98	8.61475
2414.38	8.29389
2415.77	8.21134
2417.17	7.56978
2418.57	7.46309
2419.97	7.15784
2421.36	6.71834
2422.76	6.74431
2424.15	6.26299
2425.55	5.69002
2426.95	5.28913
2428.34	5.43204
2429.74	5.0527
2431.13	4.56249
2432.52	3.46676
2433.92	2.96406
2435.31	2.42313
2436.71	2.65833
2438.1	1.91364
2439.49	2.07333
2440.89	2.21069
2442.28	2.772
2443.67	2.20723
2445.06	1.77656
2446.46	1.59418
2447.85	2.29439
2449.24	2.30351
2450.63	2.04855
2452.02	2.41487
2453.41	2.75502
2454.8	3.4489
2456.19	4.18083
2457.58	3.92197
2458.97	4.15238
2460.36	4.19252
2461.75	4.51728
2463.14	4.78307
2464.53	4.93562
2465.92	5.22556
2467.31	5.015
2468.69	5.66457
2470.08	5.13368
2471.47	4.61579
2472.86	4.68004
2474.24	4.05561
2475.63	4.06595
2477.02	4.18151
2478.4	5.00522
2479.79	5.46465
2481.17	5.02947
2482.56	4.80007
2483.94	5.58043
2485.33	5.942
2486.72	5.99233
2488.1	6.12402
2489.48	5.70847
2490.87	4.93186
2492.25	4.88685
2493.64	4.97323
2495.02	4.92958
2496.4	4.62332
2497.79	4.08919
2499.17	2.39371
2500.55	2.08956
2501.93	1.64914
2503.31	1.66597
2504.69	1.01016
2506.08	1.28178
2507.46	0.923609
2508.84	0.922225
2510.22	0.121823
2511.6	-0.315594
2512.98	-1.42703
2514.36	-1.65548
2515.74	-1.21507
2517.12	-1.4524
2518.5	-2.4707
2519.88	-2.22625
2521.25	-2.07035
2522.63	-1.65412
2524.01	-1.94697
2525.39	-2.22661
2526.77	-2.69135
2528.14	-1.89777
2529.52	-1.43316
2530.9	-1.19795
2532.27	-0.589511
2533.65	-0.100465
2535.03	0.534987
2536.4	0.571452
2537.78	1.36139
2539.15	1.60337
2540.53	2.5259
2541.9	3.35182
2543.28	3.07928
2544.65	3.84681
2546.03	3.67508
2547.4	4.1755
2548.77	4.69679
2550.15	4.50494
2551.52	4.92333
2552.89	5.65609
2554.27	6.19942
2555.64	6.28706
2557.01	6.17967
2558.38	6.2726
2559.75	6.31594
2561.12	6.82711
2562.5	7.08907
2563.87	6.44331
2565.24	5.94296
2566.61	5.53799
2567.98	5.77281
2569.35	5.89343
2570.72	5.71968
2572.09	5.87736
2573.46	5.6974
2574.83	5.80701
2576.19	4.70608
2577.56	4.11498
2578.93	3.81265
2580.3	3.76739
2581.67	3.36261
2583.04	3.44224
2584.4	3.71854
2585.77	3.14886
2587.14	2.92392
2588.5	3.04359
2589.87	2.64203
2591.23	2.72656
2592.6	2.68968
2593.97	2.95797
2595.33	2.99697
2596.7	3.14481
2598.06	3.37961
2599.43	2.71573
2600.79	2.37979
2602.15	2.34883
2603.52	2.36968
2604.88	2.23759
2606.25	2.01866
2607.61	1.70809
2608.97	1.56099
2610.33	1.20467
2611.7	0.330725
2613.06	0.694342
2614.42	0.853496
2615.78	1.07751
2617.15	1.28359
2618.51	0.638817
2619.87	0.814089
2621.23	1.13624
2622.59	1.77657
2623.95	1.8445
2625.31	1.7422
2626.67	1.68079
2628.03	1.91847
2629.39	1.93233
2630.75	1.68678
2632.1	1.74038
2633.46	1.50093
2634.82	1.45392
2636.18	1.80625
2637.54	1.36493
2638.89	1.97162
2640.25	1.74885
2641.61	1.4357
2642.97	1.09019
2644.32	1.16103
2645.68	1.83398
2647.03	2.38584
2648.39	2.01591
2649.75	2.05725
2651.1	2.04999
2652.46	1.93969
2653.81	1.38592
2655.17	1.39024
2656.52	1.68389
2657.88	1.88605
2659.23	1.99944
2660.58	1.87137
2661.94	2.10776
2663.29	2.13331
2664.64	2.26202
2666	2.02478
2667.35	1.54007
2668.7	1.96461
2670.05	2.78426
2671.4	2.66819
2672.76	2.31894
2674.11	2.26129
2675.46	2.67325
2676.81	2.53149
2678.16	2.26095
2679.51	1.92995
2680.86	2.05858
2682.21	1.93567
2683.56	1.78337
2684.91	2.09543
2686.26	1.83547
2687.61	2.22698
2688.96	2.25192
2690.3	2.24043
2691.65	2.19891
2693	2.69365
2694.35	3.29682
2695.7	3.92945
2697.04	4.33011
2698.39	4.29768
2699.74	4.43182
2701.08	4.98016
2702.43	5.65097
2703.77	5.56365
2705.12	5.40314
2706.47	5.80906
2707.81	5.73089
2709.16	6.10161
2710.5	6.58167
2711.85	6.46316
2713.19	6.34037
2714.53	6.68766
2715.88	6.75248
2717.22	7.01411
2718.57	6.63246
2719.91	7.14862
2721.25	7.45745
2722.59	7.86938
2723.94	8.37025
2725.28	8.1467
2726.62	7.58965
2727.96	7.68212
2729.3	7.38766
2730.65	7.32264
2731.99	7.17073
2733.33	7.01805
2734.67	7.35158
2736.01	7.73316
2737.35	7.31641
2738.69	6.87923
2740.03	6.77318
2741.37	6.33317
2742.71	5.56579
2744.05	4.84495
2745.38	4.53864
2746.72	4.07171
2748.06	3.80989
2749.4	3.86254
2750.74	3.70992
2752.07	3.15264
2753.41	3.07967
2754.75	3.84035
2756.09	3.93182
2757.42	4.46058
2758.76	4.62839
2760.09	4.32609
2761.43	4.12647
2762.77	3.34862
2764.1	2.76558
2765.44	1.25949
2766.77	1.85023
2768.11	2.16252
2769.44	1.28947
2770.77	0.248396
2772.11	0.651788
2773.44	0.542314
2774.77	0.328785
2776.11	0.10818
2777.44	0.445258
2778.77	-0.293878
2780.11	0.79189
2781.44	1.51534
2782.77	1.03299
2784.1	0.846277
2785.43	0.353067
2786.77	0.911062
2788.1	0.281504
2789.43	-0.00942115
2790.76	-0.369141
2792.09	-0.845176
2793.42	-0.965707
2794.75	-0.451934
2796.08	-0.674913
2797.41	-0.293806
2798.74	-0.306074
2800.07	0.168692
2801.4	0.380766
2802.72	0.783902
2804.05	0.307034
2805.38	0.549034
2806.71	0.91576
2808.04	0.596927
2809.36	0.623659
2810.69	1.37455
2812.02	1.59441
2813.34	2.01471
2814.67	2.25906
2816	3.18594
2817.32	3.80252
2818.65	4.98426
2819.97	6.81152
2821.3	8.39151
2822.62	9.42183
2823.95	11.232
2825.27	12.3487
2826.6	14.5219
2827.92	16.9168
2829.25	19.3015
2830.57	22.4333
2831.89	25.8433
2833.22	29.7835
2834.54	32.4071
2835.86	35.9995
2837.18	39.78
2838.51	43.602
2839.83	47.3485
2841.15	51.3734
2842.47	55.1956
2843.79	59.7433
2845.11	63.5324
2846.43	68.7292
2847.76	73.4223
2849.08	78.0044
2850.4	83.1065
2851.72	88.3568
2853.04	93.502
2854.36	98.8076
2855.67	103.889
2856.99	108.503
2858.31	113.728
2859.63	119.009
2860.95	123.666
2862.27	127.89
2863.58	132.751
2864.9	137.523
2866.22	141.676
2867.54	145.64
2868.85	149.294
2870.17	152.181
2871.49	156.854
2872.8	160.566
2874.12	163.352
2875.43	166.269
2876.75	168.754
2878.07	171.405
2879.38	174.371
2880.7	177.64
2882.01	181.567
2883.32	184.536
2884.64	187.649
2885.95	190.514
2887.27	193.792
2888.58	196.951
2889.89	200.19
2891.21	203.112
2892.52	206.759
2893.83	210.692
2895.14	214.831
2896.46	218.16
2897.77	221.507
2899.08	225.656
2900.39	229.925
2901.7	234.865
2903.01	239.451
2904.32	244.615
2905.63	251.094
2906.94	256.484
2908.25	262.852
2909.56	269.915
2910.87	276.706
2912.18	283.706
2913.49	290.355
2914.8	296.364
2916.11	302.323
2917.42	307.834
2918.72	312.978
2920.03	318.346
2921.34	322.537
2922.65	326.861
2923.95	330.606
2925.26	333.737
2926.57	335.235
2927.88	336.843
2929.18	338.133
2930.49	338.809
2931.79	338.054
2933.1	337.406
2934.4	335.746
2935.71	334.243
2937.01	332.557
2938.32	328.724
2939.62	325.068
2940.93	320.624
2942.23	316.231
2943.54	311.513
2944.84	306.305
2946.14	301.08
2947.45	294.532
2948.75	287.786
2950.05	281.174
2951.35	274.645
2952.66	267.458
2953.96	260.457
2955.26	253.992
2956.56	247.522
2957.86	241.217
2959.16	234.433
2960.46	227.326
2961.77	220.281
2963.07	214.392
2964.37	209.117
2965.66	203.867
2966.96	198.5
2968.26	193.29
2969.56	188.977
2970.86	184.233
2972.16	179.276
2973.46	174.846
2974.76	170.252
2976.06	164.624
2977.35	159.747
2978.65	154.903
2979.95	149.431
2981.25	144.59
2982.54	139.24
2983.84	134.416
2985.14	129.586
2986.43	124.595
2987.73	119.295
2989.02	114.217
2990.32	109.495
2991.62	104.054
2992.91	99.3707
2994.21	94.4887
2995.5	89.3404
2996.8	84.2434
2998.09	79.797
2999.38	75.0543
3000.68	70.8091
3001.97	65.7553
3003.26	60.8267
3004.56	56.6229
3005.85	52.1356
3007.14	48.2549
3008.43	44.1815
3009.73	40.6913
3011.02	36.9808
3012.31	33.2005
3013.6	30.2704
3014.89	27.7272
3016.19	25.2637
3017.48	23.0946
3018.77	21.6563
3020.06	19.4794
3021.35	17.3411
3022.64	15.3673
3023.93	13.9553
3025.22	12.825
3026.5	12.1756
3027.79	11.4965
3029.08	11.2594
3030.37	11.488
3031.66	10.6402
3032.95	10.8257
3034.24	10.7194
3035.52	10.0493
3036.81	10.1168
3038.1	9.30437
3039.39	9.69208
3040.67	9.24833
3041.96	10.6089
3043.25	11.2863
3044.53	11.1786
3045.82	11.4945
3047.1	11.5202
3048.39	12.4938
3049.67	12.9189
3050.96	12.8602
3052.24	13.0243
3053.53	13.4823
3054.81	13.4725
3056.1	13.3845
3057.38	13.4705
3058.67	13.0476
3059.95	12.6751
3061.23	12.4914
3062.52	11.623
3063.8	10.5207
3065.08	10.1
3066.36	9.15143
3067.65	9.06568
3068.93	8.32864
3070.21	7.70922
3071.49	7.27936
3072.77	6.4512
3074.05	5.98864
3075.33	5.58826
3076.61	4.90295
3077.89	4.53662
3079.17	4.45271
3080.45	3.75084
3081.73	3.00896
3083.01	1.97772
3084.29	1.14383
3085.57	1.36774
3086.85	0.968257
3088.13	0.752947
3089.41	0.230648
3090.68	0.49707
3091.96	0.609653
3093.24	0.781985
3094.52	0.705778
3095.79	0.0412987
3097.07	-0.242815
3098.35	-0.206395
3099.62	-0.0696319
3100.9	-0.0680235
3102.18	0.291091
3103.45	0.892916
3104.73	0.867067
3106	1.19973
3107.28	0.664542
3108.55	-0.0213302
3109.83	-0.247998
3111.1	-0.1274
3112.38	0.601998
3113.65	0.422836
3114.93	0.751947
3116.2	1.2033
3117.47	1.13042
3118.75	1.21749
3120.02	1.27897
3121.29	1.21495
3122.57	1.18247
3123.84	1.27877
3125.11	1.36618
3126.38	1.41441
3127.65	1.83576
3128.92	2.69989
3130.2	2.77961
3131.47	3.22858
3132.74	3.15149
3134.01	4.14831
3135.28	4.42234
3136.55	4.54882
3137.82	5.1935
3139.09	5.35225
3140.36	5.6064
3141.63	6.27591
3142.9	6.83351
3144.17	7.5153
3145.43	8.48528
3146.7	9.81912
3147.97	10.8256
3149.24	11.3454
