#Acq. time (s)=	45
#Accumulations=	2
#Range (cm-¹)=	200...3150
#Windows=	2
#Auto scanning=	Off
#Autofocus=	Off
#Macrospot=	Off
#AutoExposure=	Off
#Spike filter=	Multiple accum.
#Delay time (s)=	0
#Binning=	1
#Readout mode=	Signal
#DeNoise=	Off
#ICS correction=	On
#Dark correction=	Off
#Inst. Process=	Off
#Detector Gain=	Best Dynamic Range
#Detector ADC=	20 kHz       
#Detector temperature (°C)=	-70.08
#Instrument=	LabRAM HR Evol
#Detector=	Synapse
#Objective=	x100
#Grating=	600 gr/mm
#ND Filter=	100%
#Laser (nm)=	532 
#Hole=	100.021
#Range=	Auto
#Laser Pol.=	No
#Raman. Pol.=	No
#Laser Pol. (°)=	-0.0007625
#Raman Pol. (°)=	89.9995
#Collection=	Microscope
#StageXY=	Marzhauser
#StageZ=	Marzhauser
#X (µm)=	-2560.4
#Y (µm)=	-110.3
#Z (µm)=	-10.65
#Full time(mm:ss)=	3:18
#Project=	
#Sample=	
#Site=	
#Title=	Mb_40_24_17_2x_45s_532 nm_x100_100%_600 gr_mm
#Remark=	
#Date=	14.07.2022 11:56
#Acquired=	14.07.2022 11:56:02
#Base:Fit=	10.08.2022 10:47:00
#Base:Sub=	10.08.2022 10:47:12
#Filter:Polynom=	16.08.2022 10:11:48
#AxisType[0]=Intens
#AxisUnit[0]=Cnt
#AxisType[1]=Spectr
#AxisUnit[1]=1/cm
200.554	41.8136
202.369	40.6809
204.183	39.4382
205.999	35.8476
207.813	33.2696
209.626	30.7579
211.439	28.3345
213.253	27.1063
215.065	26.5611
216.877	24.7214
218.688	21.8793
220.5	20.0602
222.312	19.2617
224.123	18.1061
225.933	15.6572
227.742	15.5809
229.552	15.4145
231.361	15.5801
233.171	14.4964
234.98	14.0923
236.787	13.648
238.595	14.2873
240.402	14.7149
242.209	14.2022
244.015	13.6581
245.822	12.8884
247.627	11.5344
249.435	11.232
251.24	10.6241
253.045	9.1504
254.849	9.39617
256.653	10.5652
258.457	9.96626
260.26	10.072
262.063	9.58636
263.866	8.33982
265.668	8.32664
267.47	7.32493
269.271	7.06326
271.073	7.48343
272.873	9.11397
274.674	7.72624
276.474	7.63785
278.274	7.16022
280.073	7.95762
281.872	8.4333
283.671	8.29177
285.47	6.6765
287.268	6.79457
289.065	7.53736
290.863	7.62972
292.66	8.31829
294.456	9.00681
296.253	10.4764
298.049	11.0457
299.844	13.989
301.637	16.2232
303.432	18.456
305.227	18.9685
307.021	20.6588
308.815	23.0407
310.609	25.8244
312.402	27.7905
314.195	30.179
315.987	30.4825
317.777	33.0847
319.569	33.6379
321.36	35.8729
323.151	35.9172
324.942	37.7748
326.733	38.2227
328.521	40.0804
330.31	40.0227
332.1	39.642
333.889	39.7618
335.677	39.9086
337.464	40.0101
339.252	40.6513
341.039	38.8213
342.826	37.3398
344.611	36.594
346.398	36.6595
348.184	32.7038
349.97	31.1575
351.754	29.6097
353.539	28.9583
355.324	28.265
357.106	26.3263
358.89	24.776
360.674	23.0147
362.455	20.7894
364.239	18.0245
366.021	16.6339
367.804	13.7763
369.584	13.4438
371.366	12.4505
373.145	10.4222
374.926	9.85725
376.707	9.96752
378.485	8.17723
380.265	7.31207
382.045	7.69705
383.822	7.53003
385.601	7.20346
387.378	7.72377
389.156	8.20132
390.934	6.61121
392.71	7.03389
394.487	6.37887
396.262	6.81347
398.038	5.83268
399.813	5.32061
401.588	5.34363
403.362	5.67275
405.137	5.00065
406.912	5.68354
408.685	6.35395
410.459	7.3691
412.23	7.88675
414.004	10.4985
415.775	10.4869
417.548	11.6256
419.318	12.0535
421.089	12.6326
422.86	12.9933
424.63	13.7979
426.401	14.4996
428.17	14.1626
429.94	14.2252
431.708	14.7187
433.478	16.6234
435.245	17.1822
437.012	15.9299
438.781	17.8768
440.547	18.8542
442.315	19.0944
444.081	19.913
445.846	18.0741
447.613	17.2687
449.378	16.6733
451.142	16.9029
452.908	17.8197
454.672	18.2236
456.435	19.468
458.2	20.282
459.963	20.6942
461.725	20.4303
463.489	21.9847
465.251	21.7857
467.012	22.4347
468.775	23.4715
470.536	23.5634
472.296	22.9839
474.056	23.7295
475.817	25.1471
477.576	25.1493
479.335	26.096
481.094	27.1373
482.854	27.4866
484.612	29.34
486.37	30.0804
488.127	32.0506
489.886	32.7752
491.642	33.3536
493.398	35.2636
495.154	35.6861
496.91	37.2248
498.667	38.4318
500.422	40.2874
502.176	41.4977
503.93	41.3913
505.684	43.0275
507.438	44.9275
509.191	46.3028
510.946	48.2997
512.698	50.3133
514.45	51.7377
516.202	52.9943
517.954	56.3444
519.705	57.341
521.456	58.3735
523.206	56.9408
524.956	56.893
526.706	57.6803
528.456	58.3179
530.207	58.7058
531.956	58.782
533.704	59.2772
535.452	60.2733
537.2	59.4669
538.947	61.3106
540.694	60.9063
542.441	59.2629
544.188	58.4818
545.934	57.0587
547.68	56.7596
549.425	56.6907
551.17	55.8932
552.915	54.6834
554.659	54.956
556.403	53.0505
558.145	50.8452
559.889	49.2637
561.632	46.0489
563.375	44.5885
565.117	41.0397
566.859	40.4447
568.601	36.6914
570.342	35.276
572.083	32.438
573.824	30.2858
575.565	29.158
577.303	26.1845
579.043	23.3955
580.782	22.7234
582.521	20.7827
584.26	19.2164
585.998	17.3744
587.734	15.7971
589.472	13.455
591.21	10.9872
592.947	10.6567
594.684	9.76473
596.418	9.81832
598.154	9.74882
599.89	9.64669
601.626	11.2121
603.361	12.1255
605.094	13.5458
606.828	12.7794
608.562	13.095
610.296	13.0041
612.027	12.4308
613.761	12.9408
615.493	13.7354
617.224	14.0302
618.956	14.944
620.688	16.0421
622.419	12.7779
624.149	11.4263
625.879	15.6891
627.61	16.3285
629.338	19.6122
631.068	22.6132
632.797	24.5023
634.525	26.7497
636.254	27.7834
637.98	26.8348
639.708	27.8883
641.436	29.6327
643.162	30.0437
644.889	30.0587
646.614	30.2975
648.34	31.3278
650.067	33.5239
651.791	33.1849
653.516	32.7542
655.239	31.0596
656.964	31.6427
658.687	30.792
660.411	30.1664
662.133	28.671
663.857	26.674
665.58	25.4075
667.301	25.016
669.024	23.1756
670.744	20.4731
672.464	18.8174
674.186	18.1585
675.905	15.5529
677.626	16.662
679.345	16.5339
681.065	15.0211
682.783	15.3075
684.503	13.6149
686.22	13.0121
687.939	13.9817
689.656	12.7622
691.372	11.2671
693.09	9.76108
694.806	7.27582
696.523	5.29036
698.239	4.12569
699.953	3.57247
701.67	3.07362
703.384	2.84725
705.098	2.29084
706.813	2.09484
708.526	2.59132
710.239	6.16269
711.954	9.56402
713.666	9.16421
715.378	9.87532
717.091	8.0537
718.802	7.66696
720.513	7.64375
722.226	8.17315
723.936	7.9204
725.646	9.71232
727.355	10.6811
729.067	11.1219
730.776	10.076
732.484	11.6863
734.192	12.5853
735.902	12.84
737.61	12.9259
739.317	13.6219
741.024	15.8314
742.731	16.7346
744.439	18.8947
746.145	20.1317
747.851	22.0231
749.556	24.5179
751.262	28.0408
752.966	30.2584
754.673	31.7647
756.377	32.4757
758.081	34.8464
759.784	36.8777
761.487	38.3772
763.19	41.4277
764.892	42.4695
766.594	43.9689
768.296	46.406
770	46.5365
771.701	48.9122
773.402	51.5479
775.102	52.8722
776.803	53.6564
778.503	55.15
780.202	55.471
781.901	57.0085
783.6	58.2863
785.299	58.3102
786.997	59.1566
788.695	59.6906
790.393	60.9803
792.09	62.3069
793.787	62.4496
795.484	60.8527
797.18	60.0295
798.877	60.2645
800.572	59.4462
802.268	58.4769
803.963	60.4062
805.658	61.4775
807.35	62.1614
809.044	62.1222
810.738	61.2786
812.432	59.6097
814.125	59.1292
815.818	59.4023
817.51	60.7582
819.202	60.8584
820.894	63.705
822.584	65.8857
824.275	68.1556
825.966	70.9507
827.657	73.4878
829.347	78.4845
831.037	80.391
832.725	84.9553
834.414	88.2989
836.103	89.2219
837.792	90.677
839.481	91.6787
841.167	94.6395
842.854	96.4497
844.542	99.1257
846.229	99.7148
847.914	101.121
849.6	101.713
851.287	102.768
852.973	103.011
854.656	104.471
856.341	104.883
858.026	105.55
859.711	104.453
861.393	103.325
863.077	102.562
864.761	101.527
866.442	99.638
868.125	97.2685
869.808	94.6414
871.489	92.372
873.171	90.5219
874.85	87.5059
876.532	83.2283
878.213	79.2192
879.892	74.8706
881.572	73.6325
883.251	69.943
884.931	66.0842
886.61	63.2937
888.287	60.9458
889.966	56.7929
891.643	52.9338
893.321	48.9164
894.997	46.1452
896.675	45.8571
898.352	46.3685
900.028	47.4015
901.704	47.7164
903.379	48.2549
905.055	48.8684
906.729	48.3841
908.404	50.1329
910.077	52.1844
911.75	53.9015
913.425	56.0878
915.097	55.5616
916.771	58.2491
918.443	56.6652
920.116	55.9051
921.787	58.4955
923.46	59.3317
925.13	60.5214
926.8	60.442
928.472	60.8549
930.141	59.2637
931.813	59.6529
933.481	58.5515
935.15	59.7242
936.82	58.2749
938.488	57.7935
940.156	54.8422
941.825	55.001
943.492	53.3029
945.158	51.9504
946.827	49.2829
948.493	48.0577
950.158	45.9357
951.824	44.6279
953.491	43.1481
955.156	40.8224
956.82	39.6038
958.486	36.7401
960.15	35.2026
961.814	36.0687
963.477	37.0253
965.142	40.1058
966.804	40.5519
968.467	42.6839
970.129	44.279
971.79	46.3429
973.454	48.8126
975.115	52.0246
976.776	55.2983
978.436	57.7992
980.096	59.8438
981.756	60.641
983.417	61.9425
985.077	61.7157
986.736	61.8811
988.394	63.3818
990.052	65.9705
991.71	67.4854
993.368	68.387
995.025	69.2622
996.682	69.7874
998.341	69.102
999.998	68.2993
1001.65	67.5749
1003.31	67.7574
1004.97	70.3471
1006.62	71.148
1008.28	72.1516
1009.93	73.429
1011.58	76.1968
1013.24	80.4526
1014.89	84.2459
1016.54	88.4426
1018.2	93.2567
1019.85	95.8179
1021.5	99.3353
1023.16	102.792
1024.81	106.783
1026.46	109.405
1028.11	112.878
1029.76	117.187
1031.41	121.585
1033.06	123.429
1034.71	126.193
1036.36	126.527
1038.01	127.883
1039.66	129.322
1041.31	129.591
1042.95	132.329
1044.6	135.471
1046.25	135.651
1047.9	135.762
1049.54	134.978
1051.19	136.327
1052.84	135.502
1054.48	134.695
1056.13	131.678
1057.77	129.667
1059.42	127.438
1061.06	123.937
1062.71	122.233
1064.35	118.789
1066	115.758
1067.64	110.409
1069.28	105.606
1070.93	101.873
1072.57	96.8199
1074.21	92.0827
1075.85	88.2455
1077.49	82.8337
1079.13	78.7737
1080.78	73.8673
1082.42	70.4217
1084.06	68.883
1085.7	65.6946
1087.34	65.9093
1088.97	64.6945
1090.61	64.571
1092.25	65.8116
1093.89	66.9789
1095.53	65.5461
1097.17	65.207
1098.8	65.643
1100.44	66.0021
1102.08	65.3795
1103.71	65.1389
1105.35	65.0926
1106.99	64.6626
1108.62	64.8557
1110.26	63.5794
1111.89	62.6503
1113.52	59.2153
1115.16	56.9761
1116.79	54.6876
1118.43	51.2646
1120.06	49.7727
1121.69	48.3503
1123.32	48.0892
1124.96	48.212
1126.59	46.5288
1128.22	44.9932
1129.85	45.6875
1131.48	45.9722
1133.11	45.7131
1134.75	42.8149
1136.37	42.3145
1138	41.5769
1139.63	41.9024
1141.26	41.5299
1142.89	39.738
1144.52	38.3614
1146.15	36.1193
1147.78	33.8883
1149.4	30.0179
1151.03	28.2748
1152.66	26.3198
1154.28	25.1187
1155.91	23.5024
1157.54	21.6369
1159.16	18.8818
1160.79	17.5863
1162.41	14.8057
1164.04	13.5007
1165.66	11.1148
1167.29	9.20658
1168.91	9.53693
1170.53	9.42329
1172.16	10.3919
1173.78	10.4301
1175.4	9.3805
1177.02	8.90327
1178.65	10.9798
1180.27	10.8837
1181.89	11.6244
1183.51	11.4875
1185.13	11.6383
1186.75	12.3551
1188.37	13.6684
1189.99	15.2953
1191.61	15.1148
1193.23	15.7979
1194.85	15.7933
1196.47	17.8372
1198.08	18.5352
1199.7	20.5484
1201.32	23.3978
1202.94	27.4192
1204.55	30.0967
1206.17	32.0458
1207.79	33.5664
1209.4	36.8895
1211.02	40.3048
1212.63	43.8273
1214.25	47.1506
1215.86	51.3646
1217.48	55.4611
1219.09	59.7036
1220.71	64.2515
1222.32	67.1574
1223.93	69.4179
1225.54	73.2137
1227.16	75.0865
1228.77	77.8313
1230.38	80.7032
1231.99	85.1207
1233.6	88.65
1235.22	93.9652
1236.83	96.5127
1238.44	100.526
1240.05	103.635
1241.66	106.231
1243.26	110.399
1244.87	115.283
1246.48	119.203
1248.09	123.087
1249.7	127.021
1251.31	132.023
1252.92	135.903
1254.52	138.684
1256.13	142.679
1257.74	145.854
1259.34	149.807
1260.95	152.441
1262.55	156.884
1264.16	160.242
1265.76	165.698
1267.37	170.247
1268.97	173.986
1270.58	176.991
1272.18	179.916
1273.78	183.252
1275.39	188.2
1276.99	192.87
1278.59	196.42
1280.2	199.937
1281.8	203.03
1283.4	204.918
1285	207.171
1286.6	210.463
1288.2	212.291
1289.8	214.326
1291.4	216.596
1293	219.239
1294.6	220.338
1296.2	221.902
1297.8	221.257
1299.4	223
1301	221.518
1302.6	219.328
1304.19	219.448
1305.79	219.84
1307.39	218.663
1308.99	219.18
1310.58	218.994
1312.18	218.192
1313.77	217.1
1315.37	215.628
1316.96	214.211
1318.56	212.928
1320.15	210.457
1321.75	209.495
1323.34	208.191
1324.94	204.369
1326.53	202.201
1328.12	198.77
1329.72	197.052
1331.31	196.673
1332.9	193.48
1334.49	190.378
1336.08	187.36
1337.67	184.557
1339.27	182.925
1340.86	180.914
1342.45	179.472
1344.04	177.047
1345.63	175.747
1347.22	173.456
1348.8	172.478
1350.39	172.714
1351.98	170.897
1353.57	168.685
1355.16	166.965
1356.75	162.539
1358.33	159.364
1359.92	157.297
1361.51	156.218
1363.09	155.376
1364.68	155.907
1366.27	155.079
1367.85	152.758
1369.44	152.051
1371.02	151.55
1372.61	152.587
1374.19	152.94
1375.77	152.377
1377.36	153.151
1378.94	155.567
1380.52	156.462
1382.11	158.976
1383.69	161.317
1385.27	164.086
1386.85	166.086
1388.43	169.071
1390.02	173.336
1391.6	176.354
1393.18	179.008
1394.76	181.497
1396.34	185.199
1397.92	189.014
1399.5	192.909
1401.08	196.502
1402.65	199.375
1404.23	204.497
1405.81	210.101
1407.39	213.034
1408.97	219.036
1410.54	225.128
1412.12	230.255
1413.7	236.005
1415.27	241.945
1416.85	248.616
1418.43	256.031
1420	263.193
1421.58	270.277
1423.15	278.384
1424.73	288.541
1426.3	297.312
1427.87	305.396
1429.45	311.504
1431.02	316.816
1432.6	323.444
1434.17	329.703
1435.74	336.018
1437.31	343.097
1438.89	347.543
1440.46	351.129
1442.03	352.317
1443.6	352.452
1445.17	350.77
1446.74	348.536
1448.31	347.058
1449.88	344.947
1451.45	342.726
1453.02	338.165
1454.59	333.962
1456.16	329.825
1457.72	323.972
1459.29	316.919
1460.86	309.144
1462.43	300.98
1463.99	292.446
1465.56	282.987
1467.13	274.051
1468.69	264.692
1470.26	252.644
1471.83	241.31
1473.39	229.371
1474.95	218.344
1476.52	207.008
1478.08	195.55
1479.65	183.991
1481.21	173.481
1482.78	163.033
1484.34	151.248
1485.9	140.776
1487.47	132.363
1489.03	123.363
1490.59	115.103
1492.15	107.194
1493.71	100.447
1495.27	94.8231
1496.84	90.6866
1498.39	85.2669
1499.96	80.6857
1501.52	77.5685
1503.07	74.57
1504.64	70.6974
1506.19	68.0025
1507.75	65.4257
1509.31	64.3797
1510.87	62.3479
1512.43	60.5428
1513.98	59.0131
1515.54	57.2482
1517.1	55.4705
1518.65	54.8001
1520.21	53.1312
1521.77	52.9014
1523.32	53.8265
1524.88	54.2777
1526.44	55.8285
1527.99	58.454
1529.54	59.4444
1531.1	60.888
1532.65	63.3917
1534.21	64.8646
1535.76	67.6653
1537.31	70.5239
1538.87	72.9071
1540.42	76.2688
1541.97	80.1049
1543.52	84.7781
1545.07	89.4507
1546.63	92.4594
1548.18	95.8345
1549.73	98.3149
1551.28	100.866
1552.83	106.081
1554.38	108.203
1555.93	111.703
1557.48	113.42
1559.03	117.107
1560.57	118.568
1562.12	119.507
1563.67	123.034
1565.22	126.339
1566.77	131.065
1568.31	136.25
1569.86	141.902
1571.41	146.943
1572.95	150.991
1574.5	155.028
1576.05	159.302
1577.59	164.601
1579.14	169.684
1580.68	175.414
1582.23	180.203
1583.77	183.702
1585.31	189.028
1586.86	193.196
1588.4	196.214
1589.95	199.233
1591.49	200.243
1593.03	202.327
1594.57	202.782
1596.11	203.47
1597.66	203.062
1599.2	203.799
1600.74	203.696
1602.28	204.215
1603.82	205.637
1605.36	206.388
1606.9	204.839
1608.44	205.004
1609.98	205.398
1611.52	205.256
1613.06	206.607
1614.6	205.953
1616.13	206.095
1617.67	208.676
1619.21	211.158
1620.75	211.012
1622.28	212.736
1623.82	212.985
1625.36	213.188
1626.89	213.113
1628.43	214.711
1629.96	215.046
1631.5	214.046
1633.04	216.091
1634.57	216.173
1636.11	216.914
1637.64	217.828
1639.17	220.024
1640.71	224.852
1642.24	227.435
1643.77	231.177
1645.31	233.528
1646.84	235.417
1648.37	235.718
1649.9	235.093
1651.43	235.614
1652.96	236.015
1654.5	236.659
1656.03	235.616
1657.56	233.54
1659.09	230.141
1660.62	227.187
1662.15	223.469
1663.67	217.514
1665.2	210.748
1666.73	204.19
1668.26	197.421
1669.79	190.906
1671.32	184.221
1672.84	177.605
1674.37	170.703
1675.9	164.119
1677.43	156.663
1678.95	151.405
1680.48	143.754
1682	136.192
1683.53	128.808
1685.05	123.207
1686.58	116.582
1688.1	110.755
1689.63	105.724
1691.15	100.294
1692.68	95.6948
1694.2	91.3352
1695.72	86.4727
1697.25	80.8103
1698.77	78.0161
1700.29	72.7196
1701.81	67.899
1703.33	64.6952
1704.86	61.3042
1706.38	58.0805
1707.9	55.128
1709.42	53.3864
1710.94	50.5768
1712.46	49.9625
1713.98	49.1177
1715.5	47.3513
1717.02	46.5949
1718.54	44.4664
1720.06	42.509
1721.57	43.1008
1723.09	41.0985
1724.61	39.8943
1726.13	38.9199
1727.64	38.2096
1729.16	36.9377
1730.68	36.3076
1732.19	34.3087
1733.71	32.875
1735.23	31.7174
1736.74	30.7859
1738.26	28.3885
1739.77	27.9623
1741.29	26.8159
1742.8	25.0316
1744.31	23.8225
1745.83	22.7422
1747.34	22.4105
1748.85	21.3032
1750.37	19.9096
1751.88	18.7914
1753.39	18.964
1754.91	19.1043
1756.42	18.1834
1757.93	17.3942
1759.44	16.4757
1760.95	16.1033
1762.46	13.9684
1763.97	12.516
1765.48	12.2581
1766.99	11.6836
1768.5	10.573
1770.01	10.0351
1771.52	9.09401
1773.03	8.44696
1774.54	7.94744
1776.04	7.2144
1777.55	6.55622
1779.06	5.55702
1780.57	4.36768
1782.07	3.68388
1783.58	2.94737
1785.09	2.89787
1786.59	2.16498
1788.1	2.16281
1789.6	1.27378
1791.11	1.45331
1792.61	0.836483
1794.12	0.796177
1795.62	0.165242
1797.13	0.705779
1798.63	-1.0935
1800.13	-0.374335
1801.64	-0.973567
1803.14	-1.52145
1804.64	-0.721535
1806.15	-0.382346
1807.65	-0.201558
1809.15	-0.15809
1810.65	0.142932
1812.15	0.609082
1813.65	1.38538
1815.16	2.55388
1816.66	2.37084
1818.15	1.82403
1819.66	3.10284
1821.16	3.07747
1822.65	3.66144
1824.15	3.88238
1825.65	4.57498
1827.15	5.66196
1828.65	6.61693
1830.15	6.86109
1831.64	7.70001
1833.14	8.28312
1834.64	7.92799
1836.14	8.2743
1837.63	7.69111
1839.13	7.09046
1840.62	6.5667
1842.12	6.28438
1843.62	6.40408
1845.11	7.1291
1846.61	7.76994
1848.1	7.5388
1849.6	7.22929
1851.09	6.73063
1852.58	5.72977
1854.08	5.55636
1855.57	5.09765
1857.06	6.67298
1858.55	7.18359
1860.05	6.7553
1861.54	6.61755
1863.03	6.15844
1864.52	5.91363
1866.01	5.35716
1867.5	5.41791
1869	4.52373
1870.49	4.1536
1871.98	4.90367
1873.47	4.46212
1874.96	3.86285
1876.44	3.87729
1877.93	3.98293
1879.42	3.70059
1880.91	3.14953
1882.4	3.29656
1882.47	3.14844
1883.96	3.47436
1885.46	3.51407
1886.95	4.2061
1888.44	3.99374
1889.94	3.96433
1891.43	4.46594
1892.93	4.78845
1894.42	4.57967
1895.91	4.72454
1897.4	4.08619
1898.89	5.00342
1900.39	5.00011
1901.88	5.81356
1903.37	6.01251
1904.86	5.99396
1906.35	5.38825
1907.84	4.40544
1909.33	4.37329
1910.82	3.78211
1912.31	3.38921
1913.8	4.63217
1915.29	6.99273
1916.77	7.26104
1918.26	7.97027
1919.75	7.9321
1921.24	7.14472
1922.73	7.75626
1924.21	6.46696
1925.7	5.84832
1927.19	5.68955
1928.67	5.66875
1930.16	6.03845
1931.64	5.0469
1933.13	4.66763
1934.61	5.10311
1936.1	6.05537
1937.58	6.57034
1939.07	5.8722
1940.55	6.21287
1942.04	5.53699
1943.52	6.66677
1945	6.74241
1946.49	4.96787
1947.97	5.15658
1949.45	5.71397
1950.93	4.91963
1952.42	5.33323
1953.9	5.71751
1955.38	5.002
1956.86	5.21516
1958.34	5.615
1959.82	5.83357
1961.3	6.83854
1962.78	5.7116
1964.26	5.19186
1965.74	5.70364
1967.22	5.44326
1968.7	5.74265
1970.18	5.84671
1971.65	6.7877
1973.13	7.60741
1974.61	8.28512
1976.09	9.55347
1977.57	9.30583
1979.04	9.70475
1980.52	10.1178
1982	12.2624
1983.47	12.9241
1984.95	13.1964
1986.42	14.8532
1987.9	15.5778
1989.37	15.6792
1990.85	15.6654
1992.32	16.404
1993.8	16.2251
1995.27	16.4625
1996.75	16.4843
1998.22	16.4508
1999.69	16.8389
2001.17	17.4712
2002.64	18.3513
2004.11	18.8839
2005.58	20.9246
2007.05	22.5351
2008.53	21.4948
2010	22.3132
2011.47	22.0487
2012.94	22.3463
2014.41	23.7559
2015.88	24.0851
2017.35	24.8969
2018.82	24.1326
2020.29	23.893
2021.76	24.6668
2023.23	24.5719
2024.7	23.9313
2026.16	24.6782
2027.63	24.1468
2029.1	23.6321
2030.57	24.8063
2032.03	24.1691
2033.5	25.2186
2034.97	24.5917
2036.44	23.3431
2037.9	24.5647
2039.37	25.1072
2040.83	23.9791
2042.3	24.7061
2043.76	26.6809
2045.23	29.1129
2046.69	30.5213
2048.16	31.8954
2049.62	31.8441
2051.08	32.7645
2052.55	34.203
2054.01	35.939
2055.47	37.1081
2056.94	36.3541
2058.4	37.2242
2059.86	38.5228
2061.32	38.5531
2062.79	39.4885
2064.25	39.8041
2065.71	40.1723
2067.17	41.6395
2068.63	42.859
2070.09	43.0742
2071.55	44.4047
2073.01	45.7254
2074.47	48.3448
2075.93	49.9671
2077.39	51.7641
2078.85	52.3095
2080.31	52.8999
2081.76	53.722
2083.22	56.5863
2084.68	58.8383
2086.13	60.4517
2087.59	62.3803
2089.05	62.7178
2090.51	64.2918
2091.96	66.1779
2093.42	67.4673
2094.87	69.3182
2096.33	71.9121
2097.78	74.5874
2099.24	76.9687
2100.69	78.3433
2102.15	81.0548
2103.6	83.8559
2105.06	84.6562
2106.51	86.8784
2107.96	89.2218
2109.42	91.6291
2110.87	94.7201
2112.32	97.6256
2113.77	101.095
2115.23	105.629
2116.68	108.731
2118.13	110.85
2119.58	112.256
2121.03	115.464
2122.48	119.089
2123.93	122.972
2125.38	125.111
2126.83	127.91
2128.28	129.797
2129.73	132.983
2131.18	136.966
2132.63	140.707
2134.08	144.485
2135.53	148.102
2136.97	152.701
2138.42	157.046
2139.87	161.392
2141.32	165.05
2142.76	170.129
2144.21	175.611
2145.66	178.987
2147.1	182.482
2148.55	185.63
2150	188.947
2151.44	193.339
2152.89	198.75
2154.33	204.767
2155.78	208.644
2157.22	211.94
2158.66	214.318
2160.11	217.258
2161.55	219.387
2163	222.586
2164.44	224.505
2165.88	226.772
2167.32	229.647
2168.77	231.33
2170.21	231.707
2171.65	231.779
2173.09	232.198
2174.53	232.912
2175.97	231.889
2177.41	229.633
2178.85	229.605
2180.29	227.944
2181.73	225.465
2183.17	223.787
2184.61	220.275
2186.05	218.274
2187.49	214.556
2188.93	211.185
2190.37	207.597
2191.81	204.324
2193.24	201.686
2194.68	197.476
2196.12	192.259
2197.56	187.483
2198.99	184.081
2200.43	180.396
2201.87	176.673
2203.3	171.955
2204.74	167.671
2206.17	163.64
2207.61	159.5
2209.04	155.659
2210.48	150.75
2211.91	147.596
2213.35	144.212
2214.78	141.192
2216.21	137.007
2217.65	132.886
2219.08	130.147
2220.51	127.2
2221.95	124.664
2223.38	122.201
2224.81	118.752
2226.24	115.411
2227.67	111.195
2229.1	107.876
2230.54	104.661
2231.97	101.954
2233.4	98.9955
2234.83	96.7118
2236.26	94.2088
2237.69	92.7536
2239.11	89.5933
2240.54	86.1547
2241.97	83.6639
2243.4	81.6039
2244.83	79.1529
2246.26	76.3443
2247.69	73.3814
2249.11	70.0297
2250.54	68.3377
2251.97	65.7524
2253.4	65.11
2254.82	63.2285
2256.25	61.2358
2257.67	60.8221
2259.1	58.2584
2260.53	57.2979
2261.95	55.4459
2263.38	54.607
2264.8	53.4786
2266.23	51.491
2267.65	50.3402
2269.07	50.0242
2270.5	48.8975
2271.92	47.0996
2273.34	45.1161
2274.77	44.0806
2276.19	43.434
2277.61	43.0898
2279.03	41.8642
2280.46	40.2367
2281.88	40.1964
2283.3	39.3839
2284.72	37.9263
2286.14	37.9803
2287.56	36.5169
2288.98	34.0925
2290.4	31.8754
2291.82	30.4195
2293.24	28.2823
2294.66	26.4761
2296.08	26.1103
2297.5	25.7183
2298.92	25.6174
2300.34	24.8597
2301.76	22.9601
2303.17	22.1136
2304.59	22.2654
2306.01	21.8738
2307.43	21.0156
2308.84	21.572
2310.26	20.8765
2311.68	20.4433
2313.09	20.6848
2314.51	19.9178
2315.92	19.0457
2317.34	18.0945
2318.75	17.0429
2320.17	16.5445
2321.58	16.7045
2323	16.9403
2324.41	17.2922
2325.82	16.9589
2327.24	18.0281
2328.65	17.6156
2330.06	16.7512
2331.48	16.5439
2332.89	16.1555
2334.3	16.4098
2335.71	16.4275
2337.12	15.3691
2338.54	14.9302
2339.95	14.2432
2341.36	12.8129
2342.77	12.1085
2344.18	11.3072
2345.59	9.87691
2347	9.19033
2348.41	8.22574
2349.82	6.82182
2351.23	6.22998
2352.64	6.61893
2354.04	5.43962
2355.45	5.00416
2356.86	4.9918
2358.27	3.26563
2359.68	2.06187
2361.08	2.81956
2362.49	3.42012
2363.9	3.57634
2365.3	4.47507
2366.71	4.74034
2368.12	5.10536
2369.52	5.09814
2370.93	4.74051
2372.33	4.68569
2373.74	4.79297
2375.14	5.75335
2376.55	6.0636
2377.95	6.0248
2379.36	5.85025
2380.76	5.0951
2382.16	4.77606
2383.57	5.32513
2384.97	4.63152
2386.37	4.11844
2387.78	3.62827
2389.18	4.67258
2390.58	5.43721
2391.98	5.61649
2393.38	5.97688
2394.79	6.60028
2396.19	6.60426
2397.59	8.03462
2398.99	6.79195
2400.39	7.1693
2401.79	7.49558
2403.19	7.54475
2404.59	7.8189
2405.99	6.9336
2407.39	5.91968
2408.78	5.76115
2410.18	5.53939
2411.58	5.43384
2412.98	5.3042
2414.38	5.12111
2415.77	5.85279
2417.17	6.71002
2418.57	7.08157
2419.97	8.17138
2421.36	8.94177
2422.76	8.7574
2424.15	8.07775
2425.55	8.3701
2426.95	9.22102
2428.34	9.99516
2429.74	10.2792
2431.13	10.3938
2432.52	10.4662
2433.92	10.3665
2435.31	10.4136
2436.71	10.4725
2438.1	10.7804
2439.49	10.6274
2440.89	10.4348
2442.28	10.0654
2443.67	10.1646
2445.06	10.7549
2446.46	11.4039
2447.85	10.7497
2449.24	10.7977
2450.63	11.2178
2452.02	10.7389
2453.41	10.9333
2454.8	9.9297
2456.19	9.69681
2457.58	9.71773
2458.97	9.58976
2460.36	8.25058
2461.75	7.96346
2463.14	7.82722
2464.53	8.62286
2465.92	8.48014
2467.31	8.93926
2468.69	8.47475
2470.08	8.34067
2471.47	8.21373
2472.86	7.89649
2474.24	7.34433
2475.63	6.75822
2477.02	7.26778
2478.4	6.46211
2479.79	5.82568
2481.17	5.53249
2482.56	5.44408
2483.94	4.06685
2485.33	4.21002
2486.72	3.26535
2488.1	3.90438
2489.48	3.78709
2490.87	2.73405
2492.25	2.51335
2493.64	3.12973
2495.02	4.23438
2496.4	4.48107
2497.79	4.09608
2499.17	3.09311
2500.55	3.19477
2501.93	3.98207
2503.31	3.86096
2504.69	4.62042
2506.08	4.59972
2507.46	4.85491
2508.84	5.22012
2510.22	4.64745
2511.6	4.73399
2512.98	5.15225
2514.36	3.68233
2515.74	3.763
2517.12	3.14377
2518.5	3.10351
2519.88	3.21848
2521.25	1.82236
2522.63	1.56894
2524.01	0.727367
2525.39	0.17587
2526.77	0.124152
2528.14	0.37698
2529.52	0.560386
2530.9	1.09614
2532.27	1.44782
2533.65	1.26556
2535.03	1.51118
2536.4	1.4402
2537.78	1.32421
2539.15	0.908652
2540.53	2.07655
2541.9	1.82489
2543.28	2.18319
2544.65	2.51224
2546.03	3.16284
2547.4	2.24404
2548.77	3.2429
2550.15	4.07189
2551.52	4.46359
2552.89	4.61045
2554.27	6.89164
2555.64	7.04447
2557.01	8.64266
2558.38	8.34638
2559.75	8.0014
2561.12	9.79845
2562.5	9.84329
2563.87	10.1449
2565.24	9.87785
2566.61	10.2116
2567.98	11.047
2569.35	11.569
2570.72	11.7007
2572.09	12.0065
2573.46	11.8188
2574.83	10.822
2576.19	10.5575
2577.56	10.1027
2578.93	9.59965
2580.3	8.94111
2581.67	8.97714
2583.04	8.38157
2584.4	9.14597
2585.77	9.14554
2587.14	8.38062
2588.5	7.91063
2589.87	7.21078
2591.23	7.43273
2592.6	7.70553
2593.97	7.70192
2595.33	8.03038
2596.7	7.95271
2598.06	7.21353
2599.43	6.68396
2600.79	6.33047
2602.15	5.5522
2603.52	5.54588
2604.88	5.54817
2606.25	5.73051
2607.61	6.02173
2608.97	5.4375
2610.33	4.73533
2611.7	4.2755
2613.06	4.41199
2614.42	4.58619
2615.78	4.07948
2617.15	4.64444
2618.51	3.66264
2619.87	2.5817
2621.23	2.6747
2622.59	2.35645
2623.95	2.40979
2625.31	3.47918
2626.67	3.18922
2628.03	2.65843
2629.39	3.32663
2630.75	2.2413
2632.1	2.14186
2633.46	2.55311
2634.82	2.15247
2636.18	3.38207
2637.54	2.80593
2638.89	3.43287
2640.25	3.56646
2641.61	3.78286
2642.97	4.67268
2644.32	5.48158
2645.68	6.37202
2647.03	6.1302
2648.39	6.42012
2649.75	7.91147
2651.1	8.82942
2652.46	9.82636
2653.81	10.1038
2655.17	10.6699
2656.52	11.8818
2657.88	11.3714
2659.23	11.4068
2660.58	11.709
2661.94	11.4241
2663.29	10.4038
2664.64	9.60783
2666	9.78685
2667.35	9.41447
2668.7	9.74221
2670.05	9.25238
2671.4	10.0061
2672.76	9.80915
2674.11	8.92987
2675.46	8.83196
2676.81	8.67072
2678.16	8.89256
2679.51	8.35947
2680.86	9.09913
2682.21	8.8025
2683.56	8.46182
2684.91	8.33487
2686.26	8.12937
2687.61	8.64874
2688.96	9.42108
2690.3	10.2501
2691.65	10.5054
2693	9.97319
2694.35	9.65268
2695.7	9.48497
2697.04	10.2709
2698.39	10.894
2699.74	11.9289
2701.08	13.8503
2702.43	14.7957
2703.77	16.8406
2705.12	16.2279
2706.47	18.2615
2707.81	18.6754
2709.16	19.171
2710.5	19.8553
2711.85	20.0784
2713.19	20.5615
2714.53	20.6829
2715.88	21.5353
2717.22	21.9608
2718.57	22.7825
2719.91	21.9283
2721.25	21.1311
2722.59	21.3802
2723.94	21.2346
2725.28	20.4846
2726.62	20.3956
2727.96	19.9961
2729.3	19.3081
2730.65	18.7519
2731.99	19.4195
2733.33	19.9899
2734.67	19.4845
2736.01	19.6229
2737.35	19.4114
2738.69	19.4228
2740.03	17.3663
2741.37	16.8976
2742.71	16.7206
2744.05	15.822
2745.38	15.4345
2746.72	15.1968
2748.06	15.1712
2749.4	14.2029
2750.74	12.7103
2752.07	11.999
2753.41	10.4044
2754.75	10.0781
2756.09	9.11445
2757.42	8.41346
2758.76	7.53172
2760.09	6.78517
2761.43	6.82669
2762.77	7.00627
2764.1	6.55179
2765.44	6.89139
2766.77	6.81096
2768.11	7.13147
2769.44	6.99826
2770.77	5.90135
2772.11	5.06204
2773.44	5.1177
2774.77	4.16178
2776.11	2.96405
2777.44	3.66594
2778.77	3.21549
2780.11	2.27596
2781.44	1.39136
2782.77	1.13749
2784.1	0.954435
2785.43	0.418909
2786.77	-0.365625
2788.1	0.0627456
2789.43	0.88797
2790.76	0.506221
2792.09	-0.49893
2793.42	-0.295855
2794.75	-0.503808
2796.08	-0.613568
2797.41	-0.366551
2798.74	-0.632826
2800.07	-0.0571094
2801.4	-0.0430073
2802.72	0.352509
2804.05	0.927546
2805.38	0.291332
2806.71	-0.170126
2808.04	0.219364
2809.36	-0.118993
2810.69	-1.01223
2812.02	-1.05568
2813.34	-0.728619
2814.67	-1.41954
2816	-1.83544
2817.32	-0.349781
2818.65	3.79746
2819.97	6.5742
2821.3	11.5598
2822.62	16.4915
2823.95	22.1314
2825.27	28.3123
2826.6	35.2871
2827.92	44.4311
2829.25	53.3866
2830.57	63.3136
2831.89	72.8566
2833.22	82.9204
2834.54	94.1848
2835.86	105.007
2837.18	114.922
2838.51	126.374
2839.83	139.359
2841.15	152.082
2842.47	164.402
2843.79	178.255
2845.11	191.171
2846.43	204.787
2847.76	219.802
2849.08	235.077
2850.4	250.132
2851.72	265.585
2853.04	281.281
2854.36	296.795
2855.67	311.981
2856.99	326.43
2858.31	341.196
2859.63	357.4
2860.95	371.672
2862.27	385.853
2863.58	400.009
2864.9	413.287
2866.22	426.834
2867.54	437.997
2868.85	449.307
2870.17	460.357
2871.49	468.578
2872.8	477.606
2874.12	487.303
2875.43	496.424
2876.75	505.534
2878.07	514.549
2879.38	522.896
2880.7	531.267
2882.01	541.926
2883.32	552.595
2884.64	562.374
2885.95	571.584
2887.27	583.218
2888.58	593.265
2889.89	604.447
2891.21	615.237
2892.52	626.81
2893.83	638.197
2895.14	648.373
2896.46	660.864
2897.77	672.206
2899.08	685.412
2900.39	699.133
2901.7	712.605
2903.01	726.193
2904.32	741.678
2905.63	758.409
2906.94	772.885
2908.25	789.72
2909.56	808.526
2910.87	826.149
2912.18	843.95
2913.49	861.57
2914.8	877.966
2916.11	894.724
2917.42	911.08
2918.72	926.468
2920.03	940.097
2921.34	952.702
2922.65	963.407
2923.95	972.461
2925.26	979.754
2926.57	984.226
2927.88	986.33
2929.18	988.404
2930.49	986.981
2931.79	983.853
2933.1	979.028
2934.4	972.803
2935.71	965.028
2937.01	955.601
2938.32	945.419
2939.62	933.392
2940.93	918.374
2942.23	902.239
2943.54	885.796
2944.84	868.995
2946.14	851.787
2947.45	832.591
2948.75	813.225
2950.05	793.037
2951.35	773.979
2952.66	752.851
2953.96	732.062
2955.26	712.049
2956.56	691.803
2957.86	671.704
2959.16	651.834
2960.46	632.526
2961.77	615.326
2963.07	596.944
2964.37	578.96
2965.66	562.226
2966.96	545.859
2968.26	530.487
2969.56	516.532
2970.86	503.271
2972.16	489.7
2973.46	478.114
2974.76	466.647
2976.06	453.147
2977.35	441.344
2978.65	428.404
2979.95	415.457
2981.25	403.714
2982.54	391.184
2983.84	378.191
2985.14	364.465
2986.43	350.695
2987.73	336.462
2989.02	322.182
2990.32	308.887
2991.62	294.704
2992.91	280.693
2994.21	267.493
2995.5	253.354
2996.8	241.098
2998.09	228.721
2999.38	215.694
3000.68	204.008
3001.97	191.757
3003.26	178.761
3004.56	167.135
3005.85	155.75
3007.14	145.888
3008.43	137.058
3009.73	127.094
3011.02	117.709
3012.31	108.02
3013.6	100.099
3014.89	91.5527
3016.19	85.4953
3017.48	78.492
3018.77	72.2177
3020.06	66.1034
3021.35	61.0396
3022.64	55.472
3023.93	50.7088
3025.22	46.9012
3026.5	43.2005
3027.79	39.7833
3029.08	36.09
3030.37	34.6716
3031.66	33.2016
3032.95	31.5718
3034.24	30.6446
3035.52	29.5276
3036.81	28.7603
3038.1	28.8802
3039.39	28.6293
3040.67	28.2232
3041.96	28.1498
3043.25	27.4765
3044.53	28.4637
3045.82	29.2634
3047.1	29.0402
3048.39	28.9899
3049.67	29.3291
3050.96	28.9734
3052.24	29.6117
3053.53	30.7048
3054.81	30.9386
3056.1	30.6587
3057.38	31.1373
3058.67	30.6401
3059.95	31.4254
3061.23	31.4471
3062.52	30.4601
3063.8	29.8075
3065.08	29.6041
3066.36	28.4165
3067.65	28.4466
3068.93	27.3553
3070.21	26.3972
3071.49	25.0341
3072.77	23.1833
3074.05	20.2563
3075.33	19.1241
3076.61	17.6864
3077.89	16.6338
3079.17	15.2585
3080.45	14.5382
3081.73	12.5056
3083.01	10.9884
3084.29	10.8715
3085.57	9.46208
3086.85	8.36817
3088.13	6.45785
3089.41	5.93513
3090.68	4.868
3091.96	4.29368
3093.24	2.70699
3094.52	2.46112
3095.79	1.67081
3097.07	1.37302
3098.35	2.32967
3099.62	3.17599
3100.9	4.69931
3102.18	5.25785
3103.45	5.52249
3104.73	6.70101
3106	6.67268
3107.28	6.5764
3108.55	7.7491
3109.83	7.38908
3111.1	8.1007
3112.38	9.57274
3113.65	11.2536
3114.93	11.9183
3116.2	13.4286
3117.47	15.3201
3118.75	15.9307
3120.02	17.3734
3121.29	18.4377
3122.57	19.4704
3123.84	21.621
3125.11	22.4017
3126.38	23.7491
3127.65	25.196
3128.92	26.5808
3130.2	27.6973
3131.47	29.1533
3132.74	29.1915
3134.01	30.5011
3135.28	31.299
3136.55	33.0165
3137.82	34.4577
3139.09	36.6124
3140.36	37.6557
3141.63	38.6235
3142.9	39.8305
3144.17	41.0502
3145.43	42.1004
3146.7	43.238
3147.97	45.46
3149.24	49.4179
