#Acq. time (s)=	45
#Accumulations=	2
#Range (cm-¹)=	200...3150
#Windows=	2
#Auto scanning=	Off
#Autofocus=	Off
#Macrospot=	Off
#AutoExposure=	Off
#Spike filter=	Multiple accum.
#Delay time (s)=	0
#Binning=	1
#Readout mode=	Signal
#DeNoise=	Off
#ICS correction=	On
#Dark correction=	Off
#Inst. Process=	Off
#Detector Gain=	Best Dynamic Range
#Detector ADC=	20 kHz       
#Detector temperature (°C)=	-69.85
#Instrument=	LabRAM HR Evol
#Detector=	Synapse
#Objective=	x100
#Grating=	600 gr/mm
#ND Filter=	100%
#Laser (nm)=	532 
#Hole=	100.021
#Range=	Auto
#Laser Pol.=	No
#Raman. Pol.=	No
#Laser Pol. (°)=	-0.0007625
#Raman Pol. (°)=	89.9995
#Collection=	Microscope
#StageXY=	Marzhauser
#StageZ=	Marzhauser
#X (µm)=	-1015
#Y (µm)=	633.7
#Z (µm)=	583.85
#Full time(mm:ss)=	3:18
#Project=	
#Sample=	
#Site=	
#Title=	Mb_40_y_24_2x_45s_532 nm_x100_100%_600 gr_mm
#Remark=	
#Date=	19.07.2022 10:57
#Acquired=	19.07.2022 10:57:32
#Base:Fit=	10.08.2022 10:52:48
#Base:Sub=	10.08.2022 10:52:53
#Filter:Polynom=	16.08.2022 10:09:04
#AxisType[0]=Intens
#AxisUnit[0]=Cnt
#AxisType[1]=Spectr
#AxisUnit[1]=1/cm
200.423	5.32261
202.238	7.16123
204.052	9.01047
205.868	9.55973
207.682	10.7705
209.495	11.4616
211.308	12.43
213.12	12.806
214.935	12.6957
216.746	12.7542
218.558	13.2349
220.369	13.7081
222.18	13.754
223.992	12.6694
225.802	11.6178
227.612	12.3136
229.421	11.9192
231.23	10.7085
233.039	9.63001
234.849	8.03332
236.657	8.31158
238.465	8.34674
240.272	8.18971
242.079	6.92377
243.885	6.02504
245.691	6.17209
247.497	5.96785
249.305	6.12467
251.11	5.10725
252.915	4.60417
254.719	3.58898
256.523	3.34575
258.327	3.92539
260.13	2.21179
261.933	2.22541
263.736	2.01422
265.538	2.22747
267.34	2.0086
269.141	1.6189
270.943	1.44158
272.744	1.46898
274.544	0.997173
276.344	0.173294
278.144	1.34755
279.944	1.59568
281.743	2.68852
283.542	4.0999
285.34	4.51751
287.138	4.53529
288.936	5.56071
290.733	6.57635
292.53	6.7534
294.327	8.09176
296.123	8.46151
297.919	8.36989
299.715	9.68482
301.508	9.83839
303.303	8.93641
305.098	9.79528
306.892	11.3719
308.686	12.133
310.479	11.9662
312.273	11.591
314.065	11.6146
315.858	12.435
317.648	12.7951
319.44	11.9017
321.231	11.8006
323.022	11.4377
324.813	12.4105
326.604	13.5163
328.392	13.5184
330.181	13.5114
331.971	13.6316
333.76	14.3115
335.548	14.5739
337.335	13.6796
339.123	13.531
340.91	12.456
342.698	11.7657
344.483	11.5866
346.269	11.0159
348.055	9.78202
349.841	9.21095
351.625	8.8779
353.41	9.25744
355.195	9.20981
356.977	9.28191
358.762	8.55112
360.545	8.17573
362.329	6.91693
364.11	6.34395
365.893	7.07871
367.675	6.47004
369.455	5.86004
371.237	6.25899
373.017	6.8608
374.798	7.18937
376.578	7.17114
378.357	8.20097
380.137	8.599
381.917	8.26042
383.694	8.90314
385.473	7.81071
387.249	8.81089
389.028	9.35764
390.806	9.27708
392.581	9.80032
394.359	10.1243
396.134	10.4059
397.91	9.9596
399.684	9.34956
401.46	9.06337
403.234	9.12286
405.009	9.4592
406.784	8.50103
408.557	7.71938
410.331	7.96326
412.103	8.09819
413.876	9.4871
415.647	9.04015
417.42	9.62728
419.191	9.18466
420.961	8.57265
422.733	7.57072
424.502	7.16522
426.273	7.07652
428.042	7.1531
429.812	5.94314
431.58	4.6913
433.35	4.36183
435.118	3.9519
436.885	3.02024
438.653	4.153
440.42	4.1204
442.188	4.62018
443.954	3.94123
445.719	3.2046
447.486	3.14032
449.251	3.06806
451.015	3.04118
452.781	2.97738
454.545	3.51256
456.308	3.33627
458.073	4.85789
459.836	6.00746
461.598	6.84615
463.362	7.29896
465.124	7.9626
466.885	9.15835
468.648	10.5758
470.408	11.447
472.169	12.4989
473.929	13.4459
475.69	14.5177
477.45	15.7984
479.208	15.2729
480.967	16.1331
482.727	17.1698
484.485	19.3267
486.243	20.1345
488	20.9572
489.759	22.3114
491.515	23.4624
493.272	24.8316
495.028	24.6717
496.783	25.6314
498.54	27.3676
500.295	27.5917
502.05	28.1171
503.804	28.5408
505.558	29.7477
507.311	29.2266
509.064	28.9063
510.819	28.2949
512.572	27.2959
514.324	26.33
516.076	26.6776
517.827	26.9295
519.578	27.3827
521.329	27.192
523.08	26.3301
524.83	24.9852
526.58	25.2252
528.329	23.6964
530.08	21.7927
531.829	21.866
533.578	21.3657
535.326	20.0189
537.074	18.4113
538.821	17.5306
540.568	17.1621
542.315	16.4725
544.062	14.6083
545.808	13.6922
547.554	13.2961
549.299	12.5251
551.044	12.4872
552.789	12.248
554.533	11.8816
556.278	11.2836
558.019	9.60517
559.763	9.31278
561.506	8.87625
563.249	8.33823
564.991	8.76567
566.733	8.27714
568.475	9.22781
570.217	9.15205
571.958	9.05248
573.699	8.1851
575.439	7.48802
577.177	7.13537
578.917	6.06014
580.656	5.62446
582.396	5.64188
584.134	5.44918
585.873	5.74492
587.609	5.42395
589.347	6.80723
591.084	6.26705
592.822	5.32737
594.558	4.16229
596.295	3.73043
598.029	3.62313
599.765	3.50224
601.5	5.27571
603.235	6.88381
604.968	7.05836
606.703	6.34363
608.437	4.999
610.171	4.40599
611.902	4.93352
613.635	5.48757
615.368	4.86055
617.099	5.00959
618.831	5.36942
620.563	3.87773
622.294	3.45622
624.024	3.48959
625.755	3.40743
627.485	3.2077
629.213	2.72974
630.943	2.40935
632.673	3.86139
634.4	4.15119
636.129	3.63956
637.855	3.27762
639.584	3.00062
641.312	2.83196
643.037	3.72493
644.764	3.57377
646.491	4.64187
648.216	4.41585
649.942	4.66803
651.666	4.3647
653.392	4.51473
655.115	4.54538
656.84	5.16001
658.563	5.1021
660.287	4.71741
662.011	5.01211
663.732	5.33307
665.456	5.60572
667.177	6.31453
668.899	7.19537
670.62	6.94611
672.342	8.54105
674.061	8.85448
675.781	8.99584
677.502	7.43478
679.22	7.961
680.941	8.16531
682.659	8.72608
684.379	8.58534
686.096	9.7443
687.815	10.856
689.532	11.0708
691.248	10.7736
692.966	11.0032
694.682	11.0934
696.4	11.9104
698.115	13.378
699.829	13.8641
701.546	14.9597
703.26	15.9599
704.974	16.4589
706.689	17.2632
708.402	18.2865
710.115	19.3591
711.83	20.438
713.542	21.4902
715.254	22.1153
716.967	23.0619
718.679	24.6801
720.39	24.2832
722.102	24.4305
723.812	25.8439
725.522	27.0681
727.232	27.6726
728.943	28.2314
730.652	27.7096
732.361	27.9804
734.069	28.1144
735.779	28.0921
737.487	28.745
739.194	29.8029
740.901	30.0537
742.608	30.5474
744.316	30.0968
746.022	30.4452
747.728	30.5358
749.433	30.9404
751.138	32.3442
752.843	32.6104
754.549	33.6446
756.254	33.7147
757.957	34.8951
759.661	34.383
761.364	34.4384
763.067	35.9267
764.769	37.3432
766.471	38.0455
768.175	39.6754
769.877	40.5713
771.578	42.1255
773.279	43.9479
774.98	46.0589
776.68	47.0134
778.38	48.8131
780.079	49.9068
781.779	51.0796
783.478	52.3331
785.176	54.4531
786.875	55.6277
788.573	56.9631
790.27	58.3248
791.968	60.3494
793.665	62.8492
795.361	64.048
797.058	65.0924
798.754	66.4828
800.45	67.0155
802.145	67.4221
803.84	67.3363
805.535	67.9347
807.23	68.7047
808.922	69.0126
810.616	68.638
812.309	68.474
814.002	68.2107
815.695	67.4943
817.388	67.635
819.08	67.4866
820.772	68.0683
822.464	67.5736
824.153	66.572
825.844	65.5075
827.535	63.9048
829.225	63.0294
830.915	62.5119
832.605	61.0349
834.292	59.8064
835.981	58.5175
837.67	56.1696
839.359	55.8756
841.047	54.7348
842.732	53.9422
844.42	52.3013
846.107	50.7774
847.794	49.8345
849.479	47.6532
851.165	46.2913
852.851	44.808
854.534	43.0179
856.22	41.8413
857.905	41.4241
859.589	39.839
861.272	38.5206
862.956	37.9928
864.639	37.2236
866.321	36.6324
868.004	37.4078
869.687	39.0025
871.367	38.6107
873.049	38.2906
874.731	38.4125
876.41	38.5357
878.092	38.07
879.771	36.7777
881.451	35.8838
883.131	35.0619
884.809	34.2734
886.489	33.7299
888.166	34.0557
889.845	35.402
891.522	35.2007
893.2	35.613
894.878	36.542
896.554	36.2317
898.231	36.9862
899.906	36.8907
901.583	37.3204
903.258	37.1311
904.934	37.9181
906.608	37.0093
908.283	36.7731
909.956	36.8437
911.631	36.6501
913.304	37.2215
914.976	36.9775
916.65	35.7907
918.322	36.1149
919.995	37.096
921.666	37.138
923.339	38.2744
925.009	38.4222
926.679	37.5503
928.351	37.3292
930.021	38.0853
931.692	38.1873
933.361	37.5704
935.029	37.2567
936.699	36.9867
938.367	36.8782
940.035	36.7784
941.704	37.1764
943.371	36.6262
945.038	35.9084
946.706	35.7481
948.372	36.4319
950.038	36.2896
951.705	36.5214
953.37	35.9018
955.035	35.1225
956.7	33.7402
958.366	32.2303
960.03	30.831
961.693	29.5597
963.357	28.8166
965.021	29.184
966.684	29.3633
968.346	30.1775
970.008	29.7896
971.67	30.0841
973.334	30.498
974.995	30.0825
976.655	30.1985
978.316	29.8413
979.976	29.0795
981.638	30.4236
983.297	29.0817
984.957	29.4284
986.616	28.8144
988.274	28.5329
989.932	26.9746
991.59	26.055
993.248	25.4078
994.907	24.0693
996.565	22.4375
998.221	20.5198
999.878	18.498
1001.53	17.1225
1003.19	15.5074
1004.85	14.6433
1006.5	16.0751
1008.16	19.1989
1009.81	22.1408
1011.46	28.4748
1013.12	35.9512
1014.77	42.4769
1016.43	49.4399
1018.08	57.7668
1019.73	65.5803
1021.38	73.5306
1023.04	81.5396
1024.69	89.4279
1026.34	95.5153
1027.99	102.054
1029.64	109.405
1031.29	115.031
1032.94	119.117
1034.59	123.839
1036.24	127.662
1037.89	130.427
1039.54	132.346
1041.19	133.936
1042.84	136.186
1044.48	138.209
1046.13	139.88
1047.78	140.392
1049.42	138.718
1051.07	137.549
1052.72	134.508
1054.36	132.552
1056.01	129.798
1057.66	125.959
1059.3	120.859
1060.94	115.316
1062.59	109.457
1064.23	103.227
1065.88	94.3798
1067.52	87.0795
1069.16	78.4949
1070.81	70.3729
1072.45	61.0268
1074.09	52.2337
1075.73	44.1231
1077.38	36.031
1079.02	27.6115
1080.66	20.1545
1082.3	14.0682
1083.94	8.60563
1085.58	6.06238
1087.22	5.83806
1088.86	7.17546
1090.5	8.01011
1092.13	9.87687
1093.77	13.0483
1095.41	15.3315
1097.05	16.7499
1098.68	18.0511
1100.32	20.2617
1101.96	21.3129
1103.6	22.3872
1105.23	22.8533
1106.87	22.8356
1108.5	22.7398
1110.14	23.4667
1111.77	24.1818
1113.41	23.6074
1115.04	23.1839
1116.67	24.0224
1118.31	24.2544
1119.94	23.1019
1121.58	23.0577
1123.21	22.3394
1124.84	23.0905
1126.47	23.2244
1128.1	22.9896
1129.73	21.9424
1131.37	20.7913
1133	20.0815
1134.63	19.0781
1136.26	18.6714
1137.89	17.5671
1139.52	16.4617
1141.14	15.0327
1142.77	13.8933
1144.4	12.3304
1146.03	10.7133
1147.66	8.70012
1149.29	8.01591
1150.91	7.01305
1152.54	6.47495
1154.17	5.45938
1155.79	4.14772
1157.42	2.78388
1159.04	0.808171
1160.67	-0.907968
1162.3	-1.62067
1163.92	-2.42853
1165.55	-4.21272
1167.17	-2.95469
1168.79	-1.98325
1170.42	-1.29844
1172.04	-1.54174
1173.66	-0.130121
1175.28	1.02236
1176.91	2.00903
1178.53	2.504
1180.15	2.8344
1181.77	3.42834
1183.39	3.56742
1185.01	4.3587
1186.63	4.96082
1188.25	5.21021
1189.87	5.37414
1191.49	5.00208
1193.11	5.73251
1194.73	6.64842
1196.35	6.87563
1197.97	8.41377
1199.59	9.34224
1201.2	10.7462
1202.82	11.321
1204.44	12.657
1206.05	14.5508
1207.67	14.4507
1209.29	15.4244
1210.9	16.1976
1212.52	16.921
1214.13	17.9899
1215.75	19.1868
1217.36	21.1442
1218.97	22.338
1220.59	23.6474
1222.2	24.4073
1223.82	25.2548
1225.43	26.6402
1227.04	27.9091
1228.65	29.7485
1230.26	33.0582
1231.88	34.4249
1233.49	35.98
1235.1	36.06
1236.71	36.3425
1238.32	37.0457
1239.93	39.0493
1241.54	40.0388
1243.15	41.0753
1244.76	41.6896
1246.37	43.1746
1247.97	46.5804
1249.58	47.806
1251.19	48.6359
1252.8	49.1951
1254.41	50.7609
1256.01	52.8902
1257.62	53.8609
1259.23	54.38
1260.83	55.4301
1262.44	56.4175
1264.04	57.8671
1265.65	58.9251
1267.25	60.4448
1268.86	60.9374
1270.46	62.1787
1272.07	64.1644
1273.67	66.9469
1275.27	69.2506
1276.88	70.6245
1278.48	73.7771
1280.08	76.5442
1281.68	77.6465
1283.28	78.7038
1284.89	81.4005
1286.49	83.6498
1288.09	84.1192
1289.69	84.4337
1291.29	85.873
1292.89	86.8072
1294.49	87.4919
1296.09	88.0569
1297.69	89.1341
1299.29	89.5148
1300.88	90.1325
1302.48	90.2949
1304.08	91.4719
1305.68	92.6766
1307.27	92.9144
1308.87	94.1003
1310.47	94.5535
1312.06	93.1557
1313.66	92.7746
1315.25	91.1143
1316.85	90.8749
1318.44	90.3635
1320.04	90.4054
1321.63	89.8987
1323.23	89.6142
1324.82	89.362
1326.41	87.7874
1328.01	85.5446
1329.6	83.353
1331.19	80.5595
1332.78	79.551
1334.38	78.6957
1335.97	77.3399
1337.56	75.7438
1339.15	74.0128
1340.74	73.1386
1342.33	72.3278
1343.92	71.8111
1345.51	69.4821
1347.1	68.6217
1348.69	67.1143
1350.28	66.6779
1351.87	66.354
1353.46	65.7163
1355.04	65.6905
1356.63	63.6413
1358.22	62.8909
1359.81	61.2406
1361.39	58.965
1362.98	58.6064
1364.57	56.2997
1366.15	53.8506
1367.74	50.7711
1369.32	48.5659
1370.91	47.6442
1372.49	45.7674
1374.07	43.8248
1375.66	42.7695
1377.24	42.2031
1378.83	41.4301
1380.41	41.075
1381.99	39.8673
1383.57	38.8556
1385.16	38.2842
1386.74	38.3544
1388.32	38.1713
1389.9	37.6599
1391.48	36.8679
1393.06	36.9032
1394.64	36.7323
1396.22	37.213
1397.8	37.6999
1399.38	38.2401
1400.96	38.86
1402.54	39.0261
1404.12	39.7897
1405.7	40.2117
1407.28	42.278
1408.85	45.2232
1410.43	48.6974
1412.01	52.4927
1413.58	54.8044
1415.16	58.4137
1416.74	61.7224
1418.31	64.2582
1419.89	68.2144
1421.46	72.7646
1423.04	76.9651
1424.61	79.733
1426.19	84.8717
1427.76	89.5747
1429.33	95.2537
1430.91	99.2526
1432.48	102.432
1434.05	105.393
1435.63	107.769
1437.2	111.569
1438.77	113.42
1440.34	116.118
1441.91	118.706
1443.49	119.018
1445.05	120.608
1446.63	121.324
1448.2	121.907
1449.77	122.173
1451.34	122.828
1452.91	122.204
1454.47	120.812
1456.04	119.036
1457.61	117.507
1459.18	115.266
1460.75	112.014
1462.31	109.605
1463.88	107.594
1465.45	105.086
1467.01	101.097
1468.58	97.4412
1470.15	93.1737
1471.71	88.4533
1473.28	83.5692
1474.84	78.9679
1476.41	75.2376
1477.97	70.5542
1479.54	66.8417
1481.1	63.4034
1482.66	59.8397
1484.23	56.24
1485.79	53.1787
1487.35	50.038
1488.91	46.7996
1490.48	43.0446
1492.04	41.3271
1493.6	39.3331
1495.16	35.9095
1496.72	34.0683
1498.28	33.7466
1499.84	32.3855
1501.4	30.7011
1502.96	29.204
1504.52	28.5473
1506.08	27.4825
1507.64	27.273
1509.2	24.5068
1510.76	24.0625
1512.31	24.4542
1513.87	24.5448
1515.43	24.0508
1516.99	23.0746
1518.54	23.3716
1520.1	23.2819
1521.66	23.2021
1523.21	23.8253
1524.77	23.6338
1526.32	24.1332
1527.88	23.7159
1529.43	24.7549
1530.99	25.004
1532.54	24.8902
1534.09	25.9726
1535.65	26.272
1537.2	26.1979
1538.75	26.4155
1540.31	26.677
1541.86	27.6429
1543.41	28.0761
1544.96	27.5251
1546.51	27.1193
1548.06	27.612
1549.62	27.6975
1551.17	28.4423
1552.72	28.801
1554.27	28.6362
1555.82	28.7921
1557.36	30.1073
1558.91	30.5622
1560.46	31.0429
1562.01	32.1971
1563.56	32.8909
1565.11	33.7881
1566.66	35.669
1568.2	37.7669
1569.75	39.3675
1571.3	40.6093
1572.84	41.8204
1574.39	43.6772
1575.93	45.2182
1577.48	46.0988
1579.02	48.1382
1580.57	49.8108
1582.11	51.7278
1583.66	54.3179
1585.2	56.9296
1586.75	57.9422
1588.29	59.8776
1589.83	61.4682
1591.38	61.4827
1592.92	62.3659
1594.46	63.4523
1596	65.0113
1597.54	66.575
1599.09	67.3605
1600.63	68.0938
1602.17	68.2024
1603.71	68.8959
1605.25	69.4628
1606.79	69.901
1608.33	69.2856
1609.87	68.5234
1611.41	68.9096
1612.95	67.729
1614.48	67.6942
1616.02	67.96
1617.56	67.8683
1619.1	68.9501
1620.64	69.3708
1622.17	69.751
1623.71	69.8256
1625.25	70.6835
1626.78	71.0531
1628.32	71.354
1629.86	71.804
1631.39	72.4138
1632.92	73.7949
1634.46	75.0129
1635.99	75.2865
1637.53	75.7902
1639.06	76.6632
1640.59	77.4587
1642.13	79.595
1643.66	82.3493
1645.19	82.5541
1646.73	83.6386
1648.26	84.77
1649.79	84.7666
1651.32	85.2129
1652.85	86.5668
1654.38	87.5732
1655.92	88.343
1657.45	88.1471
1658.98	88.2676
1660.51	88.1458
1662.04	87.236
1663.57	86.2234
1665.09	84.8329
1666.62	84.1288
1668.15	81.7056
1669.68	80.1984
1671.21	78.7395
1672.73	76.9344
1674.26	74.433
1675.79	71.4828
1677.31	68.4043
1678.84	64.7527
1680.37	61.9625
1681.89	58.7454
1683.42	54.772
1684.94	51.9193
1686.47	49.4694
1687.99	46.837
1689.52	42.8388
1691.04	40.7848
1692.57	38.1486
1694.09	34.8921
1695.61	33.1629
1697.14	31.0851
1698.66	29.0121
1700.18	26.8648
1701.7	26.0654
1703.22	24.1067
1704.75	22.2619
1706.27	21.2679
1707.79	19.4131
1709.31	17.9924
1710.83	17.3408
1712.35	16.2068
1713.87	15.0713
1715.39	14.8312
1716.91	14.6235
1718.43	14.3077
1719.95	13.6452
1721.46	12.1925
1722.98	12.5492
1724.5	11.6176
1726.02	11.6173
1727.53	11.9871
1729.05	12.43
1730.57	12.0571
1732.08	11.8915
1733.6	12.2608
1735.12	13.2165
1736.63	13.1862
1738.15	12.7458
1739.66	13.0985
1741.18	12.4571
1742.69	12.2907
1744.21	11.2792
1745.72	11.0702
1747.23	10.5995
1748.74	10.0024
1750.26	9.15981
1751.77	8.10711
1753.28	7.43211
1754.8	7.10161
1756.31	6.37289
1757.82	5.63186
1759.33	4.69489
1760.84	4.56865
1762.35	4.07879
1763.86	3.00316
1765.37	1.9711
1766.88	1.86915
1768.39	1.67336
1769.9	1.70071
1771.41	2.63767
1772.92	2.87495
1774.43	3.33025
1775.93	2.88784
1777.44	2.84133
1778.95	2.83058
1780.46	2.60491
1781.96	1.85145
1783.47	1.19019
1784.98	1.54793
1786.48	1.55506
1787.99	0.69021
1789.49	0.443038
1791	0.966839
1792.5	0.99872
1794.01	0.700488
1795.51	1.05084
1797.02	1.29818
1798.52	1.72405
1800.03	1.84631
1801.53	2.268
1803.03	2.11045
1804.53	2.03898
1806.04	2.27731
1807.54	2.32609
1809.04	2.30165
1810.54	1.88446
1812.04	1.49829
1813.54	2.41407
1815.05	2.84265
1816.55	2.03252
1818.05	1.90117
1819.55	2.2638
1821.05	1.95781
1822.55	1.62453
1824.05	2.02335
1825.54	1.57594
1827.04	1.22609
1828.54	1.16284
1830.04	1.37521
1831.54	1.22207
1833.03	1.43113
1834.53	1.08886
1836.03	0.828551
1837.52	1.19794
1839.02	1.74275
1840.52	1.68212
1842.01	2.00869
1843.51	2.3917
1845	2.15078
1846.5	2.43674
1847.99	2.13563
1849.49	2.04157
1850.98	1.16328
1852.47	1.49596
1853.97	1.50901
1855.46	1.08199
1856.95	1.50548
1858.45	2.24316
1859.94	2.80062
1861.43	2.68775
1862.92	2.68138
1864.41	3.21933
1865.91	3.4677
1867.4	3.70706
1868.89	4.25563
1870.38	4.93814
1871.87	4.64554
1873.36	4.53571
1874.85	4.17368
1876.34	3.61221
1877.83	4.23966
1879.31	4.58677
1880.8	4.2517
1882.29	3.85373
1882.56	3.84789
1884.05	3.45519
1885.54	3.50967
1887.04	3.33997
1888.53	3.1321
1890.03	2.24996
1891.52	2.32751
1893.01	1.87082
1894.5	1.56594
1895.99	1.32589
1897.49	1.50453
1898.98	0.945057
1900.47	1.67074
1901.96	1.48374
1903.45	1.51891
1904.94	1.66106
1906.43	1.51562
1907.92	1.44867
1909.41	1.48581
1910.9	1.45667
1912.39	1.54763
1913.88	0.858101
1915.37	1.02833
1916.86	0.254755
1918.35	-0.00590158
1919.84	-0.530332
1921.32	-0.726335
1922.81	-0.650363
1924.3	-0.675277
1925.78	0.0238524
1927.27	0.720239
1928.76	1.24195
1930.24	1.72297
1931.73	2.02695
1933.21	1.52899
1934.7	1.91234
1936.18	2.74924
1937.67	3.42244
1939.15	4.23642
1940.64	4.69136
1942.12	4.96687
1943.6	5.04894
1945.09	4.73091
1946.57	5.41651
1948.05	6.01512
1949.54	6.48884
1951.02	7.2495
1952.5	6.77121
1953.98	6.20182
1955.46	5.99757
1956.94	6.09671
1958.42	6.64151
1959.91	6.565
1961.39	6.62003
1962.87	6.86712
1964.34	6.9037
1965.82	7.62464
1967.3	7.66142
1968.78	8.06971
1970.26	8.20421
1971.74	8.15956
1973.22	7.87367
1974.7	8.57161
1976.17	7.9395
1977.65	8.57814
1979.13	9.1399
1980.6	9.04577
1982.08	8.32352
1983.56	7.91132
1985.03	7.9442
1986.51	8.24216
1987.98	6.93305
1989.46	6.9233
1990.93	7.01535
1992.41	6.89843
1993.88	6.38242
1995.36	6.67183
1996.83	6.77664
1998.3	6.83316
1999.78	7.59273
2001.25	7.56479
2002.72	6.97716
2004.2	6.64634
2005.67	6.26393
2007.14	6.68048
2008.61	7.68353
2010.08	7.79117
2011.55	7.79199
2013.02	8.01059
2014.49	7.89247
2015.97	8.31146
2017.43	8.75607
2018.9	8.37074
2020.37	8.50711
2021.84	8.43611
2023.31	7.81398
2024.78	7.64295
2026.25	7.66971
2027.72	7.55295
2029.19	7.64389
2030.65	8.41189
2032.12	9.05671
2033.59	8.94415
2035.05	9.29914
2036.52	9.6068
2037.98	10.5161
2039.45	11.1028
2040.92	11.131
2042.38	11.9656
2043.85	13.0411
2045.31	13.7617
2046.78	14.1279
2048.24	15.3406
2049.71	15.8739
2051.17	16.4558
2052.63	16.5164
2054.1	16.5819
2055.56	16.8375
2057.02	17.995
2058.48	19.3296
2059.95	20.5107
2061.41	20.9013
2062.87	22.3838
2064.33	23.952
2065.79	24.5483
2067.25	25.0474
2068.71	25.7105
2070.17	26.1812
2071.63	26.6652
2073.09	27.7872
2074.55	28.0274
2076.01	28.3098
2077.47	29.1647
2078.93	30.0742
2080.39	31.3906
2081.85	31.4499
2083.3	32.1208
2084.76	33.4565
2086.22	34.4873
2087.68	35.3405
2089.13	36.2726
2090.59	37.1179
2092.05	37.9802
2093.5	39.1586
2094.96	40.5173
2096.41	42.0971
2097.87	44.2261
2099.32	45.7999
2100.78	47.7275
2102.23	50.1272
2103.69	52.8101
2105.14	54.2982
2106.59	56.073
2108.05	58.1
2109.5	59.94
2110.95	62.7354
2112.41	64.9339
2113.86	66.6231
2115.31	69.1011
2116.76	70.6401
2118.21	72.4418
2119.67	73.9961
2121.12	75.7599
2122.57	78.3257
2124.02	80.413
2125.47	82.8047
2126.92	85.3492
2128.37	88.5095
2129.82	91.6963
2131.27	94.1172
2132.71	96.1143
2134.16	98.2082
2135.61	101.104
2137.06	103.176
2138.51	104.497
2139.95	106.483
2141.4	108.766
2142.85	111.014
2144.29	113.394
2145.74	115.68
2147.19	117.046
2148.63	119.106
2150.08	121.24
2151.52	122.806
2152.97	124.927
2154.42	126.078
2155.86	127.912
2157.3	129.895
2158.75	131.529
2160.19	133.087
2161.64	134.293
2163.08	135.579
2164.52	135.656
2165.96	136.623
2167.41	137.451
2168.85	138.53
2170.29	139.031
2171.73	138.969
2173.17	138.887
2174.61	138.188
2176.06	137.217
2177.5	136.006
2178.94	135.342
2180.38	134.007
2181.82	132.33
2183.26	131.687
2184.7	130.095
2186.14	128.451
2187.57	127.333
2189.01	125.874
2190.45	124.448
2191.89	122.225
2193.33	120.198
2194.76	118.982
2196.2	116.972
2197.64	114.946
2199.08	112.898
2200.51	111.183
2201.95	108.844
2203.38	106.441
2204.82	103.903
2206.25	101.705
2207.69	99.2427
2209.12	96.9899
2210.56	94.7782
2211.99	92.4541
2213.43	90.0736
2214.86	87.4223
2216.3	85.3743
2217.73	82.2043
2219.16	80.1387
2220.59	78.0502
2222.03	74.9644
2223.46	72.7354
2224.89	70.5054
2226.32	68.1501
2227.75	66.2839
2229.19	64.2814
2230.62	62.2767
2232.05	59.9699
2233.48	57.5685
2234.91	55.8245
2236.34	53.5056
2237.77	52.2661
2239.2	49.5197
2240.63	47.9854
2242.06	44.9803
2243.48	42.3644
2244.91	40.5081
2246.34	39.3608
2247.77	37.6976
2249.2	36.4832
2250.62	34.9099
2252.05	33.6055
2253.48	33.2891
2254.9	32.5093
2256.33	32.0892
2257.76	31.2997
2259.18	31.2606
2260.61	30.1676
2262.03	28.7839
2263.46	27.7084
2264.88	26.5298
2266.31	26.4935
2267.73	26.595
2269.16	25.789
2270.58	25.258
2272	25.2402
2273.43	24.3026
2274.85	24.0532
2276.27	23.3391
2277.69	23.0544
2279.12	22.0446
2280.54	21.6161
2281.96	21.2195
2283.38	20.4174
2284.8	20.0407
2286.22	19.5958
2287.64	18.862
2289.07	17.8372
2290.49	17.3483
2291.91	15.56
2293.32	14.4414
2294.74	14.0734
2296.16	13.306
2297.58	13.2006
2299	12.8456
2300.42	13.293
2301.84	13.5566
2303.26	13.5217
2304.67	12.9781
2306.09	12.4863
2307.51	11.9992
2308.92	11.7241
2310.34	11.8214
2311.76	11.6305
2313.17	11.1343
2314.59	11.1648
2316	11.2755
2317.42	10.9416
2318.83	9.75981
2320.25	9.74045
2321.66	9.57914
2323.08	9.68091
2324.49	9.94519
2325.91	9.51108
2327.32	10.0948
2328.73	9.36711
2330.15	9.33925
2331.56	8.61641
2332.97	8.28742
2334.38	7.73573
2335.79	8.09763
2337.21	8.83284
2338.62	7.989
2340.03	7.39182
2341.44	6.71114
2342.85	6.45787
2344.26	5.4531
2345.67	6.00671
2347.08	5.29563
2348.49	4.66628
2349.9	3.97977
2351.31	3.91801
2352.72	3.40543
2354.13	2.62234
2355.53	2.43082
2356.94	2.68925
2358.35	1.44085
2359.76	1.10048
2361.17	1.1436
2362.57	1.3086
2363.98	2.18193
2365.39	2.60318
2366.79	3.14898
2368.2	4.66305
2369.6	5.33664
2371.01	5.83308
2372.42	6.11191
2373.82	6.72719
2375.22	6.78315
2376.63	7.02961
2378.03	7.9781
2379.44	8.53863
2380.84	8.65806
2382.25	8.65297
2383.65	9.09956
2385.05	8.49766
2386.45	8.54965
2387.86	8.23835
2389.26	8.76926
2390.66	9.30626
2392.06	9.87366
2393.46	10.1644
2394.87	10.1212
2396.27	10.2483
2397.67	10.9081
2399.07	10.6658
2400.47	11.2614
2401.87	10.9985
2403.27	10.4895
2404.67	10.3792
2406.07	10.5018
2407.47	10.0598
2408.86	9.78532
2410.26	10.6971
2411.66	10.8625
2413.06	11.427
2414.46	11.9869
2415.85	12.3381
2417.25	11.566
2418.65	11.4529
2420.05	11.61
2421.44	11.5774
2422.84	12.0505
2424.23	12.1764
2425.63	12.2038
2427.03	12.2956
2428.42	12.0165
2429.82	11.7838
2431.21	11.9264
2432.6	11.3728
2434	11.1082
2435.39	11.4102
2436.79	10.887
2438.18	11.2807
2439.57	11.0105
2440.97	11.3603
2442.36	11.266
2443.75	10.7977
2445.14	10.2736
2446.54	10.5749
2447.93	10.6893
2449.32	9.89025
2450.71	9.21135
2452.1	8.57295
2453.49	7.76711
2454.88	7.3875
2456.27	7.38319
2457.66	7.35546
2459.05	7.46346
2460.44	7.21944
2461.83	7.27806
2463.22	7.37781
2464.61	7.24122
2466	7.61893
2467.39	7.45404
2468.77	6.92574
2470.16	6.65672
2471.55	6.61299
2472.94	6.79551
2474.32	6.98828
2475.71	7.64234
2477.1	8.064
2478.48	8.58582
2479.87	9.10596
2481.25	8.81923
2482.64	8.82363
2484.02	8.43221
2485.41	7.77737
2486.8	7.74419
2488.18	7.97588
2489.56	8.05896
2490.95	7.0158
2492.33	6.93129
2493.72	6.29989
2495.1	6.12085
2496.48	6.25972
2497.86	5.39794
2499.25	4.92704
2500.63	4.687
2502.01	4.35803
2503.39	4.36892
2504.77	4.54656
2506.16	3.26746
2507.54	3.65733
2508.92	3.49347
2510.3	2.63142
2511.68	1.94907
2513.06	2.06329
2514.44	2.10316
2515.82	1.66069
2517.2	0.860066
2518.58	0.655054
2519.95	1.14261
2521.33	1.19175
2522.71	1.69324
2524.09	1.98596
2525.47	1.94039
2526.84	2.3594
2528.22	2.53551
2529.6	2.73173
2530.98	2.63118
2532.35	2.63146
2533.73	2.82595
2535.11	2.88292
2536.48	3.12823
2537.86	3.88469
2539.23	4.45113
2540.61	5.16707
2541.98	5.29409
2543.36	5.85051
2544.73	6.72844
2546.1	6.72249
2547.48	6.81238
2548.85	7.9925
2550.23	8.16569
2551.6	8.3534
2552.97	7.9115
2554.34	7.76416
2555.72	7.78032
2557.09	7.61054
2558.46	7.13841
2559.83	6.80034
2561.2	6.6451
2562.58	6.46314
2563.95	6.5331
2565.32	6.04762
2566.69	5.43323
2568.06	6.1164
2569.43	5.83218
2570.8	6.1746
2572.17	6.48967
2573.54	6.37693
2574.91	6.34757
2576.27	6.83236
2577.64	6.82963
2579.01	6.40153
2580.38	6.47936
2581.75	6.28268
2583.11	5.96985
2584.48	5.27707
2585.85	5.28246
2587.21	5.60476
2588.58	6.02981
2589.95	6.0965
2591.31	6.13273
2592.68	6.21947
2594.04	6.01635
2595.41	6.64325
2596.78	6.17434
2598.14	6.30933
2599.51	6.33168
2600.87	6.31139
2602.23	6.99379
2603.6	6.95757
2604.96	7.32497
2606.32	7.38279
2607.69	7.31452
2609.05	7.60843
2610.41	7.43514
2611.77	7.72413
2613.14	7.14159
2614.5	6.50256
2615.86	6.21438
2617.22	6.11584
2618.58	5.19478
2619.94	5.02238
2621.3	4.39238
2622.67	4.30923
2624.03	3.57525
2625.39	3.52509
2626.75	2.79768
2628.1	2.83028
2629.46	2.58798
2630.82	2.72744
2632.18	3.02355
2633.54	2.66365
2634.9	3.1433
2636.26	3.23613
2637.61	2.57404
2638.97	2.44673
2640.33	2.30995
2641.69	1.88644
2643.04	1.14749
2644.4	0.295911
2645.76	0.365301
2647.11	0.277488
2648.47	0.543936
2649.82	1.01629
2651.18	1.45629
2652.53	1.9472
2653.89	2.35844
2655.24	3.14911
2656.6	3.50574
2657.95	4.05548
2659.31	4.66197
2660.66	5.53423
2662.01	6.37993
2663.37	7.12245
2664.72	7.10465
2666.07	7.48096
2667.43	8.23548
2668.78	8.34747
2670.13	8.85883
2671.48	8.66387
2672.83	8.51531
2674.18	8.69297
2675.53	8.4578
2676.89	8.47184
2678.24	8.33325
2679.59	8.67163
2680.94	8.16586
2682.29	8.8432
2683.64	9.08572
2684.99	8.50712
2686.34	8.46242
2687.68	8.60328
2689.03	7.88694
2690.38	7.37227
2691.73	7.12124
2693.08	7.21351
2694.43	7.18375
2695.77	7.61553
2697.12	7.41125
2698.47	7.08568
2699.81	6.97797
2701.16	6.61234
2702.51	6.81356
2703.85	6.79657
2705.2	6.92362
2706.54	7.29575
2707.89	7.499
2709.23	7.66088
2710.58	7.68929
2711.92	8.39232
2713.27	9.06771
2714.61	9.28806
2715.96	9.39676
2717.3	10.0694
2718.64	10.2661
2719.99	10.927
2721.33	11.3303
2722.67	11.4666
2724.01	11.5502
2725.36	12.3959
2726.7	13.0849
2728.04	13.1136
2729.38	13.1755
2730.72	13.2021
2732.06	13.2396
2733.41	13.5777
2734.75	13.5311
2736.09	12.4728
2737.43	12.0425
2738.77	12.0746
2740.11	11.6789
2741.44	11.5799
2742.78	11.216
2744.12	11.2692
2745.46	10.9712
2746.8	10.4224
2748.14	9.55725
2749.48	9.53948
2750.81	8.16269
2752.15	7.19586
2753.49	7.33475
2754.83	7.44977
2756.16	7.03966
2757.5	7.27853
2758.84	7.56452
2760.17	6.87823
2761.51	6.62865
2762.84	5.89825
2764.18	5.62605
2765.51	5.14213
2766.85	5.00377
2768.18	5.32186
2769.52	5.40059
2770.85	4.75201
2772.19	4.45209
2773.52	3.8795
2774.85	3.61738
2776.19	3.22874
2777.52	2.7878
2778.85	2.67292
2780.18	2.13758
2781.52	1.96084
2782.85	1.77715
2784.18	1.78404
2785.51	1.32183
2786.84	1.68432
2788.17	1.07801
2789.51	0.191528
2790.84	0.808748
2792.17	0.741445
2793.5	0.484402
2794.83	0.41884
2796.16	0.58945
2797.48	0.520687
2798.81	-0.0696008
2800.14	-0.379008
2801.47	-0.834968
2802.8	-0.759321
2804.13	-0.680285
2805.46	-0.62245
2806.79	-1.26147
2808.11	-1.20483
2809.44	-1.46894
2810.77	-1.59957
2812.09	-1.49797
2813.42	-1.10434
2814.75	-1.19367
2816.07	0.024592
2817.4	1.21371
2818.73	3.58659
2820.05	5.88192
2821.38	9.13165
2822.7	12.613
2824.03	15.9981
2825.35	19.2638
2826.67	22.6208
2828	27.2048
2829.32	31.9761
2830.65	37.4132
2831.97	42.1065
2833.29	48.2035
2834.62	53.9919
2835.94	59.9698
2837.26	65.5695
2838.58	72.0098
2839.9	78.302
2841.23	85.1391
2842.55	92.1994
2843.87	99.1315
2845.19	106.618
2846.51	113.957
2847.83	122.115
2849.15	129.815
2850.47	137.267
2851.79	144.783
2853.11	152.243
2854.43	159.091
2855.75	166.797
2857.07	174.141
2858.39	180.845
2859.71	188.031
2861.02	194.937
2862.34	200.989
2863.66	207.362
2864.98	212.591
2866.3	217.576
2867.61	222.828
2868.93	226.742
2870.25	230.803
2871.56	234.103
2872.88	237.682
2874.19	241.213
2875.51	244.2
2876.83	246.825
2878.14	249.959
2879.46	253.789
2880.77	256.473
2882.09	261.207
2883.4	264.762
2884.71	268.014
2886.03	271.934
2887.34	275.409
2888.65	278.736
2889.97	281.668
2891.28	285.336
2892.59	288.317
2893.91	291.903
2895.22	295.256
2896.53	299.461
2897.84	302.93
2899.15	307.542
2900.46	311.31
2901.78	316.471
2903.09	320.94
2904.4	326.257
2905.71	331.856
2907.02	337.888
2908.33	344.504
2909.64	350.753
2910.95	357.455
2912.26	364.547
2913.57	371.25
2914.87	377.415
2916.18	383.357
2917.49	389.766
2918.8	395.385
2920.11	400.862
2921.42	405.601
2922.72	410.416
2924.03	414.668
2925.34	418.094
2926.64	420.934
2927.95	423.066
2929.26	424.663
2930.56	425.199
2931.87	426.099
2933.17	426.65
2934.48	425.899
2935.78	424.624
2937.09	423.009
2938.39	420.628
2939.7	417.685
2941	413.318
2942.31	408.88
2943.61	404.603
2944.91	399.162
2946.22	392.279
2947.52	386.516
2948.82	379.057
2950.13	371.433
2951.43	363.386
2952.73	354.687
2954.03	346.657
2955.33	337.511
2956.64	328.712
2957.94	318.907
2959.24	309.759
2960.54	300.614
2961.84	292.097
2963.14	282.131
2964.44	272.295
2965.74	263.345
2967.04	254.34
2968.34	245.46
2969.64	236.672
2970.94	228.591
2972.24	220.639
2973.53	212.841
2974.83	204.883
2976.13	197.098
2977.43	189.339
2978.73	180.467
2980.02	172.197
2981.32	164.328
2982.62	156.87
2983.91	148.867
2985.21	141.736
2986.51	134.747
2987.8	128.371
2989.1	121.342
2990.4	114.825
2991.69	108.563
2992.99	102.635
2994.28	97.6375
2995.57	92.5701
2996.87	87.4236
2998.16	81.8353
2999.46	76.7579
3000.75	71.9957
3002.05	67.7554
3003.34	62.7071
3004.63	58.4024
3005.92	53.7349
3007.22	50.0501
3008.51	46.3989
3009.8	42.8207
3011.09	39.786
3012.39	36.9128
3013.68	33.8646
3014.97	31.3717
3016.26	29.4511
3017.55	27.6066
3018.84	25.2927
3020.13	23.4966
3021.42	22.268
3022.71	20.2753
3024	18.7379
3025.29	17.46
3026.58	16.4702
3027.87	14.3748
3029.16	14.3114
3030.45	14.2614
3031.73	13.2695
3033.02	13.443
3034.31	13.7263
3035.6	13.8687
3036.89	13.3932
3038.17	13.6205
3039.46	13.7793
3040.75	13.9765
3042.03	14.1873
3043.32	13.8651
3044.61	14.5577
3045.89	14.9935
3047.18	15.016
3048.46	15.1959
3049.75	15.6723
3051.03	15.9423
3052.32	16.3272
3053.6	16.2612
3054.89	16.2461
3056.17	16.1288
3057.45	15.996
3058.74	15.6857
3060.02	15.1368
3061.31	14.4488
3062.59	13.411
3063.87	13.935
3065.15	13.363
3066.44	12.8836
3067.72	12.1241
3069	11.5331
3070.28	10.8866
3071.56	10.4113
3072.84	9.33788
3074.13	8.83538
3075.41	8.06499
3076.69	7.16414
3077.97	6.66123
3079.25	6.15322
3080.53	5.41123
3081.81	4.0559
3083.09	3.46541
3084.37	3.47262
3085.64	2.93759
3086.92	1.89438
3088.2	1.69588
3089.48	1.63108
3090.76	2.27192
3092.04	2.02587
3093.31	2.28749
3094.59	1.36273
3095.87	1.29843
3097.14	1.6141
3098.42	1.94707
3099.7	1.26178
3100.97	1.25985
3102.25	1.60242
3103.53	1.3969
3104.8	1.58977
3106.08	1.49831
3107.35	1.19815
3108.63	1.73072
3109.9	1.35942
3111.18	1.35554
3112.45	1.91395
3113.73	2.04437
3115	1.66872
3116.27	1.63529
3117.55	1.69541
3118.82	2.09235
3120.09	2.17528
3121.37	2.37327
3122.64	2.80045
3123.91	3.52481
3125.18	3.69582
3126.45	4.2976
3127.73	5.59358
3129	5.32955
3130.27	5.89355
3131.54	5.99328
3132.81	6.51066
3134.08	6.85799
3135.35	7.33238
3136.62	7.69145
3137.89	8.96801
3139.16	9.45997
3140.43	10.4544
3141.7	11.701
3142.97	13.0195
3144.24	14.5532
3145.51	16.3539
3146.78	17.6882
3148.04	18.8528
3149.31	20.6335
