#Acq. time (s)=	45
#Accumulations=	2
#Range (cm-¹)=	200...3150
#Windows=	2
#Auto scanning=	Off
#Autofocus=	Off
#Macrospot=	Off
#AutoExposure=	Off
#Spike filter=	Multiple accum.
#Delay time (s)=	0
#Binning=	1
#Readout mode=	Signal
#DeNoise=	Off
#ICS correction=	On
#Dark correction=	Off
#Inst. Process=	Off
#Detector Gain=	Best Dynamic Range
#Detector ADC=	20 kHz       
#Detector temperature (°C)=	-70.08
#Instrument=	LabRAM HR Evol
#Detector=	Synapse
#Objective=	x100
#Grating=	600 gr/mm
#ND Filter=	100%
#Laser (nm)=	532 
#Hole=	100.021
#Range=	Auto
#Laser Pol.=	No
#Raman. Pol.=	No
#Laser Pol. (°)=	-0.0007625
#Raman Pol. (°)=	89.9995
#Collection=	Microscope
#StageXY=	Marzhauser
#StageZ=	Marzhauser
#X (µm)=	-2476.2
#Y (µm)=	-37.2
#Z (µm)=	-9.9
#Full time(mm:ss)=	3:19
#Project=	
#Sample=	
#Site=	
#Title=	Mb_40_24_01_2x_45s_532 nm_x100_100%_600 gr_mm
#Remark=	
#Date=	14.07.2022 10:37
#Acquired=	14.07.2022 10:37:11
#Edit:Spike=	14.07.2022 10:38:50
#Base:Fit=	10.08.2022 10:47:00
#Base:Sub=	10.08.2022 10:47:12
#Filter:Polynom=	16.08.2022 10:11:48
#AxisType[0]=Intens
#AxisUnit[0]=Cnt
#AxisType[1]=Spectr
#AxisUnit[1]=1/cm
200.554	21.0968
202.369	19.5095
204.183	18.9102
205.999	18.7328
207.813	18.1624
209.626	17.4619
211.439	16.8497
213.253	16.0951
215.065	14.8245
216.877	13.1242
218.688	11.1877
220.5	11.3308
222.312	10.5196
224.123	10.1983
225.933	8.54937
227.742	6.29196
229.552	5.5475
231.361	4.38145
233.171	5.11677
234.98	5.41651
236.787	5.8348
238.595	5.83503
240.402	6.49259
242.209	6.05565
244.015	6.94564
245.822	6.7187
247.627	7.15836
249.435	7.38174
251.24	7.40755
253.045	6.84169
254.849	7.1748
256.653	9.13916
258.457	8.67051
260.26	9.36304
262.063	10.0508
263.866	12.1801
265.668	13.3573
267.47	12.6561
269.271	13.5343
271.073	13.5563
272.873	13.4828
274.674	13.8218
276.474	15.3467
278.274	14.8284
280.073	15.6822
281.872	15.7554
283.671	15.7516
285.47	15.1563
287.268	15.2796
289.065	14.5805
290.863	13.5883
292.66	14.3901
294.456	13.5697
296.253	12.9661
298.049	12.8397
299.844	12.4903
301.637	12.4331
303.432	11.5512
305.227	10.5722
307.021	9.19681
308.815	8.51086
310.609	7.24322
312.402	5.69028
314.195	4.27892
315.987	3.12526
317.777	3.34033
319.569	4.30419
321.36	5.06468
323.151	6.54465
324.942	6.99563
326.733	7.53856
328.521	7.48232
330.31	8.85071
332.1	8.04987
333.889	8.27871
335.677	8.30626
337.464	8.9859
339.252	8.83641
341.039	9.87097
342.826	10.4114
344.611	11.058
346.398	11.2112
348.184	11.9479
349.97	12.9645
351.754	13.1769
353.539	13.8568
355.324	11.4446
357.106	11.3475
358.89	11.6718
360.674	10.2159
362.455	9.74579
364.239	9.64649
366.021	10.258
367.804	10.3926
369.584	9.53698
371.366	8.25522
373.145	7.65035
374.926	7.78339
376.707	6.91267
378.485	7.75121
380.265	7.92365
382.045	8.00686
383.822	6.09434
385.601	6.30392
387.378	5.34811
389.156	5.08795
390.934	4.0308
392.71	3.68343
394.487	2.49204
396.262	2.97345
398.038	2.62282
399.813	2.7628
401.588	4.20728
403.362	5.0618
405.137	7.47266
406.912	8.10662
408.685	8.48269
410.459	9.00948
412.23	10.3582
414.004	11.4353
415.775	11.5191
417.548	10.802
419.318	10.8113
421.089	10.5626
422.86	11.0705
424.63	11.0044
426.401	10.2236
428.17	10.6223
429.94	11.6831
431.708	10.3864
433.478	10.6627
435.245	10.3481
437.012	10.5006
438.781	9.4502
440.547	9.64052
442.315	8.66651
444.081	8.97003
445.846	10.0506
447.613	9.23233
449.378	8.40387
451.142	7.58883
452.908	7.98759
454.672	9.0981
456.435	8.81492
458.2	7.07729
459.963	6.75288
461.725	6.947
463.489	6.51095
465.251	6.89221
467.012	6.73672
468.775	5.72377
470.536	5.95869
472.296	6.77398
474.056	7.59464
475.817	8.10484
477.576	7.85556
479.335	8.70578
481.094	10.3093
482.854	10.1957
484.612	12.2958
486.37	12.3437
488.127	13.9298
489.886	14.8906
491.642	14.8516
493.398	14.8793
495.154	14.8158
496.91	16.1213
498.667	17.1254
500.422	17.8075
502.176	17.5293
503.93	16.2215
505.684	16.7357
507.438	17.5398
509.191	17.7447
510.946	16.596
512.698	17.1746
514.45	17.5345
516.202	18.1092
517.954	19.11
519.705	19.0511
521.456	18.6593
523.206	18.2874
524.956	18.6758
526.706	18.9882
528.456	19.2729
530.207	19.1524
531.956	18.997
533.704	18.682
535.452	18.811
537.2	18.5437
538.947	19.8958
540.694	20.9551
542.441	21.5002
544.188	21.3893
545.934	21.5267
547.68	22.515
549.425	21.9905
551.17	21.1133
552.915	21.9112
554.659	21.2492
556.403	20.6595
558.145	20.3044
559.889	20.0347
561.632	20.178
563.375	20.7483
565.117	20.5871
566.859	22.4488
568.601	22.4415
570.342	20.3888
572.083	19.7931
573.824	18.5071
575.565	17.3362
577.303	17.1963
579.043	16.3292
580.782	16.8401
582.521	16.6261
584.26	15.3944
585.998	14.6564
587.734	12.5804
589.472	12.3951
591.21	11.2414
592.947	10.7388
594.684	9.11188
596.418	7.80082
598.154	7.25969
599.89	6.61925
601.626	5.34294
603.361	5.55022
605.094	5.13672
606.828	4.56083
608.562	3.24943
610.296	5.03296
612.027	5.44209
613.761	3.95408
615.493	3.50759
617.224	3.4455
618.956	2.57551
620.688	3.23471
622.419	3.26666
624.149	3.08216
625.879	4.76836
627.61	5.30841
629.338	5.2691
631.068	6.60066
632.797	6.92577
634.525	6.94057
636.254	7.7173
637.98	8.17451
639.708	9.57215
641.436	9.09013
643.162	9.02349
644.889	10.4687
646.614	11.6873
648.34	12.5314
650.067	12.4408
651.791	13.3337
653.516	14.0483
655.239	14.9516
656.964	15.5822
658.687	18.0901
660.411	19.3094
662.133	20.1846
663.857	21.0441
665.58	21.3831
667.301	21.4091
669.024	20.6222
670.744	20.8887
672.464	21.0601
674.186	21.1318
675.905	22.3021
677.626	21.1516
679.345	22.6147
681.065	22.8269
682.783	22.6741
684.503	23.5801
686.22	22.9791
687.939	24.516
689.656	25.4025
691.372	25.998
693.09	27.1643
694.806	26.2549
696.523	26.8324
698.239	25.5672
699.953	24.7816
701.67	25.1306
703.384	25.2854
705.098	26.212
706.813	26.9777
708.526	28.3322
710.239	29.8748
711.954	31.1677
713.666	32.22
715.378	31.0529
717.091	31.5423
718.802	31.1042
720.513	31.3762
722.226	32.205
723.936	31.488
725.646	31.0004
727.355	30.4959
729.067	30.4018
730.776	31.3438
732.484	32.2934
734.192	33.4413
735.902	34.576
737.61	36.3264
739.317	37.5051
741.024	38.8396
742.731	38.4796
744.439	38.5262
746.145	37.9706
747.851	38.7072
749.556	39.8318
751.262	40.9245
752.966	41.1455
754.673	42.6539
756.377	45.2756
758.081	46.9901
759.784	49.3699
761.487	50.528
763.19	52.6476
764.892	54.8809
766.594	55.8293
768.296	57.6799
770	59.4671
771.701	59.8569
773.402	63.1812
775.102	64.7259
776.803	65.6061
778.503	66.528
780.202	66.856
781.901	68.6178
783.6	70.4152
785.299	72.1244
786.997	73.3135
788.695	74.5978
790.393	74.9277
792.09	74.7661
793.787	75.1523
795.484	75.5359
797.18	76.5361
798.877	75.9063
800.572	74.854
802.268	74.8982
803.963	75.213
805.658	73.5684
807.35	72.7779
809.044	71.7144
810.738	70.7291
812.432	70.7234
814.125	69.9767
815.818	68.8746
817.51	67.2421
819.202	67.5691
820.894	66.234
822.584	66.6975
824.275	65.3113
825.966	64.9769
827.657	63.0248
829.347	62.3529
831.037	61.6585
832.725	62.3901
834.414	62.4263
836.103	61.9986
837.792	62.2935
839.481	62.6316
841.167	62.5743
842.854	61.8582
844.542	62.1999
846.229	61.1975
847.914	60.7908
849.6	60.3461
851.287	60.8737
852.973	59.1272
854.656	58.0799
856.341	58.1059
858.026	58.5599
859.711	56.4443
861.393	54.4739
863.077	54.1905
864.761	52.6098
866.442	51.9842
868.125	50.8474
869.808	50.1326
871.489	49.5083
873.171	47.9629
874.85	48.2923
876.532	47.7949
878.213	47.7814
879.892	47.032
881.572	46.8893
883.251	44.537
884.931	43.8132
886.61	43.0291
888.287	42.8083
889.966	41.8924
891.643	42.8292
893.321	42.6101
894.997	42.1552
896.675	41.8121
898.352	41.5108
900.028	41.0126
901.704	41.3642
903.379	42.3347
905.055	40.6805
906.729	42.6275
908.404	42.4064
910.077	43.3582
911.75	43.3755
913.425	43.8887
915.097	45.0204
916.771	45.2548
918.443	44.598
920.116	44.5338
921.787	43.3738
923.46	41.6867
925.13	40.8778
926.8	42.1887
928.472	41.9619
930.141	40.9652
931.813	40.8098
933.481	40.2152
935.15	39.0006
936.82	37.8382
938.488	37.4115
940.156	36.3134
941.825	35.5819
943.492	34.4747
945.158	35.4828
946.827	34.9242
948.493	34.1153
950.158	33.8197
951.824	35.1976
953.491	36.2084
955.156	35.8351
956.82	35.0964
958.486	34.0715
960.15	32.2491
961.814	31.7322
963.477	30.6378
965.142	30.5562
966.804	30.2964
968.467	30.5837
970.129	29.6116
971.79	28.9573
973.454	29.1846
975.115	27.9951
976.776	26.9433
978.436	26.2472
980.096	26.4555
981.756	25.8899
983.417	24.224
985.077	24.0104
986.736	24.493
988.394	24.2126
990.052	25.0953
991.71	24.2201
993.368	23.5308
995.025	22.7274
996.682	21.5545
998.341	19.613
999.998	18.5084
1001.65	17.225
1003.31	15.9619
1004.97	15.9777
1006.62	16.1349
1008.28	18.0385
1009.93	18.8913
1011.58	17.4369
1013.24	18.0025
1014.89	18.4
1016.54	19.4158
1018.2	19.7729
1019.85	21.0748
1021.5	21.8491
1023.16	22.2882
1024.81	24.6727
1026.46	25.2489
1028.11	26.3736
1029.76	26.2432
1031.41	26.5924
1033.06	26.7232
1034.71	27.8659
1036.36	26.5187
1038.01	26.352
1039.66	25.728
1041.31	25.328
1042.95	26.3421
1044.6	25.7526
1046.25	26.0813
1047.9	26.5607
1049.54	27.5364
1051.19	26.1088
1052.84	24.8274
1054.48	25.6817
1056.13	25.3552
1057.77	24.3088
1059.42	24.5687
1061.06	24.898
1062.71	24.8507
1064.35	23.9182
1066	22.8603
1067.64	22.33
1069.28	21.3426
1070.93	20.3441
1072.57	19.1583
1074.21	18.8746
1075.85	17.9274
1077.49	17.5201
1079.13	15.9621
1080.78	15.5966
1082.42	16.3654
1084.06	16.0916
1085.7	17.208
1087.34	17.9271
1088.97	17.5078
1090.61	18.4179
1092.25	18.5113
1093.89	18.5822
1095.53	19.8042
1097.17	20.182
1098.8	19.8858
1100.44	19.3611
1102.08	19.8494
1103.71	18.7703
1105.35	18.4991
1106.99	19.4352
1108.62	19.1254
1110.26	18.8644
1111.89	18.6393
1113.52	16.9005
1115.16	17.4536
1116.79	18.2643
1118.43	17.8725
1120.06	19.0367
1121.69	18.1266
1123.32	18.4656
1124.96	18.8455
1126.59	18.565
1128.22	19.6746
1129.85	19.4015
1131.48	18.8048
1133.11	18.138
1134.75	17.5969
1136.37	18.041
1138	16.532
1139.63	16.6386
1141.26	15.3792
1142.89	15.3931
1144.52	14.14
1146.15	13.5457
1147.78	10.9884
1149.4	9.99585
1151.03	9.84862
1152.66	8.71664
1154.28	8.05933
1155.91	8.65692
1157.54	8.78821
1159.16	8.32505
1160.79	8.45294
1162.41	8.80679
1164.04	8.68422
1165.66	8.1007
1167.29	7.52967
1168.91	7.04938
1170.53	6.20982
1172.16	5.38533
1173.78	5.07691
1175.4	4.84702
1177.02	4.60542
1178.65	3.61455
1180.27	2.48515
1181.89	2.23908
1183.51	1.66581
1185.13	1.25968
1186.75	2.04328
1188.37	2.65889
1189.99	1.816
1191.61	1.184
1193.23	0.408416
1194.85	0.585717
1196.47	1.96835
1198.08	3.252
1199.7	2.36358
1201.32	3.42055
1202.94	3.28026
1204.55	3.14453
1206.17	3.79607
1207.79	3.50085
1209.4	3.82289
1211.02	4.12371
1212.63	4.95129
1214.25	5.06331
1215.86	6.60559
1217.48	7.27173
1219.09	8.406
1220.71	8.89167
1222.32	10.326
1223.93	11.8909
1225.54	11.3287
1227.16	12.2666
1228.77	11.9349
1230.38	14.3439
1231.99	15.6155
1233.6	16.7289
1235.22	19.0297
1236.83	20.9205
1238.44	22.2329
1240.05	22.9905
1241.66	24.2672
1243.26	24.8329
1244.87	25.2038
1246.48	27.1688
1248.09	28.2617
1249.7	30.1438
1251.31	29.9456
1252.92	31.2273
1254.52	32.7502
1256.13	33.5312
1257.74	33.0856
1259.34	34.2407
1260.95	34.2406
1262.55	34.0266
1264.16	34.1512
1265.76	34.6284
1267.37	35.272
1268.97	36.5395
1270.58	35.8522
1272.18	38.2199
1273.78	39.5524
1275.39	41.6584
1276.99	41.5454
1278.59	42.7612
1280.2	41.9975
1281.8	44.7373
1283.4	45.4528
1285	46.8423
1286.6	49.5327
1288.2	50.9589
1289.8	53.1454
1291.4	54.6754
1293	57.0613
1294.6	58.4396
1296.2	60.8788
1297.8	61.0295
1299.4	63.184
1301	63.5126
1302.6	65.1374
1304.19	65.4217
1305.79	65.6479
1307.39	67.019
1308.99	67.5152
1310.58	68.2158
1312.18	68.808
1313.77	69.6145
1315.37	70.4798
1316.96	69.2347
1318.56	69.1017
1320.15	69.2153
1321.75	69.089
1323.34	68.8976
1324.94	68.8611
1326.53	69.9809
1328.12	67.8218
1329.72	66.363
1331.31	63.342
1332.9	64.3095
1334.49	62.7856
1336.08	60.26
1337.67	58.902
1339.27	58.2224
1340.86	56.5098
1342.45	56.1544
1344.04	55.7506
1345.63	55.2878
1347.22	56.2175
1348.8	55.5299
1350.39	54.5866
1351.98	55.2128
1353.57	52.8391
1355.16	52.0326
1356.75	52.3737
1358.33	53.0779
1359.92	52.9931
1361.51	54.1232
1363.09	52.897
1364.68	53.2458
1366.27	52.8548
1367.85	52.1088
1369.44	52.0098
1371.02	52.2071
1372.61	52.3996
1374.19	51.5002
1375.77	51.343
1377.36	51.1815
1378.94	51.4875
1380.52	51.0388
1382.11	49.7588
1383.69	49.628
1385.27	49.7939
1386.85	49.93
1388.43	50.1738
1390.02	50.4757
1391.6	51.0903
1393.18	51.5651
1394.76	51.1321
1396.34	50.4089
1397.92	52.2822
1399.5	52.382
1401.08	53.0344
1402.65	54.5833
1404.23	54.8508
1405.81	54.5623
1407.39	54.1102
1408.97	54.347
1410.54	55.8133
1412.12	57.2204
1413.7	56.7273
1415.27	58.1894
1416.85	60.0547
1418.43	61.1413
1420	62.0376
1421.58	63.8516
1423.15	65.3436
1424.73	67.3013
1426.3	69.7421
1427.87	71.1556
1429.45	73.5646
1431.02	75.4019
1432.6	76.9065
1434.17	80.2423
1435.74	81.8327
1437.31	82.7819
1438.89	83.1251
1440.46	83.7908
1442.03	85.3641
1443.6	86.3562
1445.17	86.6487
1446.74	87.0884
1448.31	88.6386
1449.88	88.7529
1451.45	88.6577
1453.02	88.6175
1454.59	87.6936
1456.16	87.2006
1457.72	85.849
1459.29	83.6291
1460.86	81.9719
1462.43	82.0326
1463.99	82.1381
1465.56	80.9259
1467.13	79.9975
1468.69	77.5724
1470.26	74.9849
1471.83	73.0734
1473.39	69.3377
1474.95	67.3322
1476.52	65.4765
1478.08	63.0968
1479.65	60.9934
1481.21	58.3355
1482.78	53.7267
1484.34	51.8298
1485.9	49.159
1487.47	45.7685
1489.03	43.3838
1490.59	40.4339
1492.15	38.5386
1493.71	37.039
1495.27	34.149
1496.84	32.5287
1498.39	31.696
1499.96	32.376
1501.52	31.5994
1503.07	31.0164
1504.64	30.4003
1506.19	29.3226
1507.75	27.3298
1509.31	26.5062
1510.87	25.7994
1512.43	25.2535
1513.98	23.5246
1515.54	22.7343
1517.1	21.5573
1518.65	20.9739
1520.21	21.5876
1521.77	20.8145
1523.32	20.4588
1524.88	21.2314
1526.44	20.7279
1527.99	20.4226
1529.54	20.4472
1531.1	19.9083
1532.65	19.767
1534.21	19.8984
1535.76	20.936
1537.31	22.9208
1538.87	24.4878
1540.42	25.8651
1541.97	27.0114
1543.52	25.9912
1545.07	27.3019
1546.63	28.8483
1548.18	30.4412
1549.73	33.1288
1551.28	33.9796
1552.83	35.8999
1554.38	37.2815
1555.93	38.635
1557.48	40.3426
1559.03	41.6608
1560.57	42.6826
1562.12	45.6349
1563.67	46.3228
1565.22	47.7264
1566.77	50.3838
1568.31	52.328
1569.86	54.3329
1571.41	55.6887
1572.95	56.0287
1574.5	57.8251
1576.05	59.4776
1577.59	61.2333
1579.14	61.07
1580.68	61.8628
1582.23	62.1643
1583.77	62.8254
1585.31	63.0748
1586.86	63.7354
1588.4	63.9857
1589.95	63.7338
1591.49	64.0251
1593.03	64.4467
1594.57	64.4057
1596.11	63.9856
1597.66	65.3846
1599.2	64.6715
1600.74	64.5109
1602.28	64.2943
1603.82	61.4135
1605.36	61.083
1606.9	60.6207
1608.44	59.0908
1609.98	57.8787
1611.52	58.8289
1613.06	59.8714
1614.6	58.805
1616.13	57.5311
1617.67	57.7328
1619.21	57.213
1620.75	57.2759
1622.28	57.9437
1623.82	58.0115
1625.36	57.4638
1626.89	58.198
1628.43	57.1819
1629.96	57.5415
1631.5	58.0363
1633.04	58.126
1634.57	57.5437
1636.11	57.5395
1637.64	57.5566
1639.17	57.9314
1640.71	57.5233
1642.24	57.7219
1643.77	57.4724
1645.31	57.9248
1646.84	57.1282
1648.37	56.3269
1649.9	56.652
1651.43	56.807
1652.96	56.2985
1654.5	56.8067
1656.03	56.6286
1657.56	56.8017
1659.09	56.3189
1660.62	56.1287
1662.15	54.2952
1663.67	54.442
1665.2	55.0835
1666.73	55.0246
1668.26	55.3966
1669.79	54.1569
1671.32	52.92
1672.84	52.0071
1674.37	50.8502
1675.9	49.3688
1677.43	48.7417
1678.95	46.6561
1680.48	44.8313
1682	46.0247
1683.53	45.9097
1685.05	44.5767
1686.58	43.9877
1688.1	44.2172
1689.63	42.2401
1691.15	39.9393
1692.68	39.1252
1694.2	38.2174
1695.72	36.6497
1697.25	34.8825
1698.77	32.4713
1700.29	32.1538
1701.81	30.7793
1703.33	29.7735
1704.86	28.5343
1706.38	27.6591
1707.9	26.0473
1709.42	24.9986
1710.94	23.8917
1712.46	24.2116
1713.98	23.4402
1715.5	23.156
1717.02	22.3707
1718.54	20.8082
1720.06	19.8122
1721.57	19.3655
1723.09	17.7256
1724.61	17.3039
1726.13	16.6325
1727.64	15.3595
1729.16	14.456
1730.68	14.5294
1732.19	13.6099
1733.71	12.9027
1735.23	11.4666
1736.74	10.0041
1738.26	8.59056
1739.77	9.78965
1741.29	8.90747
1742.8	7.89524
1744.31	7.02227
1745.83	5.71049
1747.34	5.4222
1748.85	4.81952
1750.37	4.66487
1751.88	4.83744
1753.39	4.28091
1754.91	3.45015
1756.42	3.28409
1757.93	3.63903
1759.44	2.48643
1760.95	1.2707
1762.46	0.313446
1763.97	0.295018
1765.48	-0.0106729
1766.99	-0.381057
1768.5	-0.671583
1770.01	-1.28638
1771.52	-2.00138
1773.03	-2.10558
1774.54	-0.989872
1776.04	0.720455
1777.55	1.47056
1779.06	2.86794
1780.57	3.84769
1782.07	4.08548
1783.58	3.88711
1785.09	4.29827
1786.59	4.43822
1788.1	5.46928
1789.6	5.52112
1791.11	5.17135
1792.61	4.13185
1794.12	4.3153
1795.62	4.99283
1797.13	5.17115
1798.63	5.04131
1800.13	5.29114
1801.64	5.35645
1803.14	5.23045
1804.64	5.57242
1806.15	5.99692
1807.65	6.39576
1809.15	6.05252
1810.65	5.04885
1812.15	5.45073
1813.65	6.36959
1815.16	6.86938
1816.66	6.0669
1818.15	5.94547
1819.66	6.22
1821.16	6.45298
1822.65	6.62491
1824.15	5.58069
1825.65	5.73798
1827.15	5.65504
1828.65	6.04367
1830.15	5.2365
1831.64	4.38489
1833.14	4.70168
1834.64	4.80719
1836.14	4.76176
1837.63	4.86188
1839.13	5.56664
1840.62	5.96884
1842.12	4.46663
1843.62	4.03723
1845.11	3.75521
1846.61	3.48103
1848.1	4.03575
1849.6	4.57852
1851.09	4.74955
1852.58	4.9274
1854.08	4.78559
1855.57	3.90218
1857.06	2.85323
1858.55	1.32241
1860.05	0.612161
1861.54	0.0734027
1863.03	0.511429
1864.52	1.02066
1866.01	2.00038
1867.5	2.86095
1869	3.94357
1870.49	4.36181
1871.98	5.41207
1873.47	6.12035
1874.96	7.38754
1876.44	8.00087
1877.93	8.96609
1879.42	10.9376
1880.91	11.2998
1882.4	11.5783
1882.47	11.1646
1883.96	12.2983
1885.46	11.9786
1886.95	12.4459
1888.44	12.387
1889.94	12.7063
1891.43	13.7805
1892.93	14.9507
1894.42	15.3909
1895.91	14.279
1897.4	14.3417
1898.89	14.5831
1900.39	14.6392
1901.88	15.0696
1903.37	14.9999
1904.86	15.3019
1906.35	15.1488
1907.84	14.7108
1909.33	14.1112
1910.82	13.7655
1912.31	12.464
1913.8	10.6373
1915.29	9.13387
1916.77	9.50729
1918.26	8.41196
1919.75	7.7887
1921.24	7.89482
1922.73	8.20501
1924.21	7.50846
1925.7	6.76809
1927.19	5.61734
1928.67	4.92257
1930.16	4.77109
1931.64	3.7122
1933.13	4.25538
1934.61	5.60221
1936.1	7.57127
1937.58	8.76588
1939.07	8.93243
1940.55	8.82031
1942.04	9.37153
1943.52	9.72616
1945	10.2322
1946.49	10.3461
1947.97	10.3365
1949.45	10.1545
1950.93	10.8816
1952.42	10.8091
1953.9	9.98551
1955.38	9.84637
1956.86	9.44809
1958.34	8.95558
1959.82	8.9139
1961.3	10.3013
1962.78	10.6758
1964.26	11.4873
1965.74	12.2206
1967.22	12.2096
1968.7	11.8096
1970.18	9.76445
1971.65	10.6343
1973.13	10.5227
1974.61	11.6418
1976.09	11.7543
1977.57	11.4023
1979.04	11.2766
1980.52	11.5085
1982	11.494
1983.47	10.4052
1984.95	9.715
1986.42	10.0892
1987.9	10.4199
1989.37	10.7133
1990.85	10.2912
1992.32	9.97511
1993.8	10.4702
1995.27	11.1305
1996.75	10.6352
1998.22	9.8037
1999.69	9.52463
2001.17	9.64966
2002.64	10.5534
2004.11	10.495
2005.58	10.268
2007.05	11.1665
2008.53	11.9117
2010	11.7297
2011.47	11.1914
2012.94	10.6696
2014.41	10.6584
2015.88	11.4685
2017.35	10.4305
2018.82	10.6354
2020.29	10.8099
2021.76	11.2336
2023.23	12.4189
2024.7	13.1012
2026.16	12.8869
2027.63	13.4833
2029.1	14.4003
2030.57	14.992
2032.03	14.9697
2033.5	16.7627
2034.97	17.062
2036.44	17.5594
2037.9	17.1911
2039.37	16.9658
2040.83	16.1503
2042.3	15.4719
2043.76	16.3396
2045.23	17.9071
2046.69	18.2039
2048.16	18.927
2049.62	18.8011
2051.08	19.5558
2052.55	20.2972
2054.01	19.6522
2055.47	18.7063
2056.94	19.1017
2058.4	20.4413
2059.86	21.1671
2061.32	20.4823
2062.79	20.6822
2064.25	21.1822
2065.71	22.3054
2067.17	22.579
2068.63	22.9654
2070.09	22.5586
2071.55	23.0385
2073.01	23.428
2074.47	23.3065
2075.93	23.0428
2077.39	21.4465
2078.85	20.7161
2080.31	20.5304
2081.76	20.1592
2083.22	19.4116
2084.68	18.9325
2086.13	19.354
2087.59	20.3205
2089.05	21.8029
2090.51	21.4822
2091.96	22.2006
2093.42	22.9992
2094.87	23.382
2096.33	23.1711
2097.78	22.7896
2099.24	22.7066
2100.69	24.0104
2102.15	23.1355
2103.6	22.9139
2105.06	23.1174
2106.51	24.3316
2107.96	23.8866
2109.42	23.8468
2110.87	24.1392
2112.32	24.8366
2113.77	25.1688
2115.23	26.0415
2116.68	27.7759
2118.13	27.7625
2119.58	28.1338
2121.03	29.6386
2122.48	30.9309
2123.93	32.2557
2125.38	33.9474
2126.83	34.3077
2128.28	35.529
2129.73	37.0921
2131.18	38.5944
2132.63	40.4449
2134.08	41.9786
2135.53	43.4143
2136.97	45.1621
2138.42	45.9165
2139.87	46.4896
2141.32	47.4858
2142.76	47.2091
2144.21	48.5379
2145.66	48.3936
2147.1	49.013
2148.55	50.124
2150	51.0951
2151.44	52.2345
2152.89	53.3698
2154.33	53.4088
2155.78	53.7077
2157.22	54.9539
2158.66	57.0603
2160.11	58.2203
2161.55	58.8794
2163	57.7907
2164.44	58.043
2165.88	59.1693
2167.32	58.919
2168.77	59.4272
2170.21	59.7587
2171.65	60.2191
2173.09	61.0686
2174.53	60.9266
2175.97	61.7959
2177.41	61.7712
2178.85	61.2661
2180.29	61.5985
2181.73	61.5088
2183.17	61.2601
2184.61	60.8074
2186.05	61.3649
2187.49	61.5336
2188.93	61.5207
2190.37	60.8247
2191.81	60.1284
2193.24	59.569
2194.68	58.9444
2196.12	58.4193
2197.56	56.6817
2198.99	54.6675
2200.43	53.5041
2201.87	52.6126
2203.3	50.9277
2204.74	49.6606
2206.17	47.6641
2207.61	46.6485
2209.04	45.661
2210.48	43.8292
2211.91	43.3737
2213.35	41.4651
2214.78	40.4707
2216.21	39.5605
2217.65	37.6984
2219.08	37.9189
2220.51	36.5602
2221.95	35.0988
2223.38	33.1206
2224.81	32.5276
2226.24	30.809
2227.67	30.4627
2229.1	30.1407
2230.54	29.9158
2231.97	28.7181
2233.4	27.5495
2234.83	27.198
2236.26	27.4225
2237.69	27.121
2239.11	25.9444
2240.54	26.0315
2241.97	25.1891
2243.4	25.3573
2244.83	24.5017
2246.26	24.388
2247.69	23.7249
2249.11	23.9326
2250.54	23.1331
2251.97	22.5397
2253.4	21.5703
2254.82	21.4537
2256.25	21.452
2257.67	22.4365
2259.1	20.938
2260.53	20.4026
2261.95	19.84
2263.38	18.9004
2264.8	18.8984
2266.23	19.2223
2267.65	18.355
2269.07	17.1749
2270.5	16.5374
2271.92	16.0242
2273.34	15.399
2274.77	13.9242
2276.19	14.4576
2277.61	13.0954
2279.03	13.6451
2280.46	12.9897
2281.88	12.8662
2283.3	12.7905
2284.72	12.1343
2286.14	12.6198
2287.56	12.1005
2288.98	12.4882
2290.4	13.2064
2291.82	11.7646
2293.24	11.0753
2294.66	10.6732
2296.08	10.8842
2297.5	10.8853
2298.92	11.9034
2300.34	12.2604
2301.76	12.9775
2303.17	14.1411
2304.59	14.273
2306.01	15.4604
2307.43	15.3432
2308.84	15.597
2310.26	14.9952
2311.68	15.2816
2313.09	14.1825
2314.51	14.6096
2315.92	13.9213
2317.34	13.8475
2318.75	12.7108
2320.17	12.4001
2321.58	11.0272
2323	10.5958
2324.41	10.6477
2325.82	10.4584
2327.24	10.8221
2328.65	11.7891
2330.06	11.1377
2331.48	11.4879
2332.89	11.2395
2334.3	10.925
2335.71	11.6636
2337.12	10.9629
2338.54	10.1565
2339.95	10.0884
2341.36	9.0323
2342.77	8.01754
2344.18	7.30919
2345.59	7.00107
2347	6.92038
2348.41	6.9621
2349.82	8.81052
2351.23	8.65702
2352.64	8.98466
2354.04	9.15238
2355.45	8.99695
2356.86	8.5059
2358.27	8.26714
2359.68	8.51399
2361.08	8.25506
2362.49	7.72524
2363.9	8.70939
2365.3	9.86395
2366.71	10.0829
2368.12	10.8692
2369.52	10.7061
2370.93	11.2466
2372.33	11.0098
2373.74	10.9258
2375.14	9.85367
2376.55	9.31573
2377.95	8.70918
2379.36	8.56977
2380.76	7.40946
2382.16	6.37714
2383.57	5.58243
2384.97	6.09672
2386.37	4.47305
2387.78	3.87888
2389.18	3.88337
2390.58	4.03937
2391.98	3.5204
2393.38	3.95426
2394.79	3.91722
2396.19	4.52539
2397.59	4.90204
2398.99	4.98959
2400.39	4.46607
2401.79	3.84518
2403.19	4.12904
2404.59	4.26362
2405.99	5.09495
2407.39	4.45213
2408.78	5.06904
2410.18	5.62278
2411.58	5.42166
2412.98	6.06956
2414.38	6.95063
2415.77	8.05775
2417.17	8.5427
2418.57	8.89872
2419.97	9.04166
2421.36	8.31581
2422.76	9.07278
2424.15	8.50339
2425.55	8.42115
2426.95	8.81836
2428.34	8.97879
2429.74	9.45871
2431.13	9.30885
2432.52	9.73121
2433.92	9.59942
2435.31	9.4943
2436.71	9.54584
2438.1	9.58444
2439.49	9.03275
2440.89	8.58158
2442.28	8.50749
2443.67	8.7175
2445.06	8.9886
2446.46	9.1795
2447.85	9.82959
2449.24	9.62527
2450.63	8.79437
2452.02	8.82475
2453.41	9.3987
2454.8	8.98906
2456.19	8.40592
2457.58	8.26537
2458.97	8.80667
2460.36	8.99979
2461.75	8.8948
2463.14	9.11513
2464.53	8.24102
2465.92	8.19079
2467.31	8.05518
2468.69	8.07615
2470.08	8.09859
2471.47	7.43039
2472.86	7.68182
2474.24	7.88963
2475.63	8.53835
2477.02	8.95167
2478.4	9.61217
2479.79	8.99535
2481.17	8.29325
2482.56	7.93898
2483.94	7.28249
2485.33	6.74777
2486.72	5.51469
2488.1	5.168
2489.48	5.12485
2490.87	5.13113
2492.25	5.00979
2493.64	3.2415
2495.02	3.52456
2496.4	2.47442
2497.79	2.40616
2499.17	2.14178
2500.55	1.88905
2501.93	1.40451
2503.31	0.988905
2504.69	0.814507
2506.08	0.499888
2507.46	-0.569062
2508.84	-0.699746
2510.22	-1.06514
2511.6	0.441606
2512.98	0.0624169
2514.36	-0.0276608
2515.74	-0.282601
2517.12	-0.49418
2518.5	-0.556531
2519.88	0.129366
2521.25	0.485253
2522.63	0.461394
2524.01	0.248283
2525.39	-0.0420602
2526.77	-0.0610091
2528.14	1.99368
2529.52	2.40618
2530.9	3.00252
2532.27	3.93747
2533.65	4.20362
2535.03	4.7737
2536.4	5.17029
2537.78	5.55682
2539.15	6.06658
2540.53	5.84495
2541.9	6.76076
2543.28	7.60201
2544.65	8.64862
2546.03	9.17829
2547.4	9.26294
2548.77	9.09923
2550.15	9.46279
2551.52	9.62901
2552.89	10.5591
2554.27	10.3187
2555.64	11.3125
2557.01	11.7038
2558.38	12.021
2559.75	12.2007
2561.12	11.5857
2562.5	11.4799
2563.87	11.4193
2565.24	10.8517
2566.61	10.7857
2567.98	9.79027
2569.35	9.29527
2570.72	9.04804
2572.09	9.29724
2573.46	8.6903
2574.83	8.01929
2576.19	8.36278
2577.56	8.39439
2578.93	7.9581
2580.3	7.96199
2581.67	6.78182
2583.04	5.81634
2584.4	5.97753
2585.77	5.83044
2587.14	5.54806
2588.5	5.77789
2589.87	4.81952
2591.23	3.80294
2592.6	3.21572
2593.97	3.9876
2595.33	4.63637
2596.7	5.52091
2598.06	4.75576
2599.43	3.84399
2600.79	3.53098
2602.15	3.05773
2603.52	1.99015
2604.88	1.70127
2606.25	1.63989
2607.61	1.49749
2608.97	1.53098
2610.33	2.11874
2611.7	3.1379
2613.06	4.5208
2614.42	3.76319
2615.78	3.96907
2617.15	4.71656
2618.51	5.29113
2619.87	5.03181
2621.23	4.82054
2622.59	4.09671
2623.95	4.14945
2625.31	3.42313
2626.67	2.9413
2628.03	3.01818
2629.39	2.69793
2630.75	3.09434
2632.1	3.97822
2633.46	4.35031
2634.82	4.84649
2636.18	4.80876
2637.54	5.80031
2638.89	6.3222
2640.25	7.31967
2641.61	7.1769
2642.97	7.22713
2644.32	8.06956
2645.68	7.59682
2647.03	7.32921
2648.39	7.4646
2649.75	8.62972
2651.1	8.43445
2652.46	9.23267
2653.81	9.02617
2655.17	9.32304
2656.52	9.81164
2657.88	9.05114
2659.23	8.66669
2660.58	8.83316
2661.94	9.03143
2663.29	8.5298
2664.64	7.65483
2666	6.87033
2667.35	6.86935
2668.7	7.36303
2670.05	6.87854
2671.4	5.98035
2672.76	5.76365
2674.11	6.74601
2675.46	7.40254
2676.81	7.69627
2678.16	8.08837
2679.51	8.30439
2680.86	8.48239
2682.21	8.21651
2683.56	9.03551
2684.91	8.73314
2686.26	7.75486
2687.61	6.80694
2688.96	6.70498
2690.3	7.55514
2691.65	7.18384
2693	7.691
2694.35	8.61653
2695.7	9.82399
2697.04	10.2611
2698.39	10.9233
2699.74	11.429
2701.08	11.4368
2702.43	11.9618
2703.77	13.0038
2705.12	14.3024
2706.47	14.1969
2707.81	15.0756
2709.16	14.3399
2710.5	15.2009
2711.85	15.4212
2713.19	16.0888
2714.53	16.5092
2715.88	16.3859
2717.22	16.4442
2718.57	14.6588
2719.91	14.2875
2721.25	14.4462
2722.59	14.6497
2723.94	14.2234
2725.28	13.1768
2726.62	12.4997
2727.96	12.5584
2729.3	12.4287
2730.65	11.9411
2731.99	11.0317
2733.33	10.5847
2734.67	9.34563
2736.01	8.62626
2737.35	7.62144
2738.69	7.73506
2740.03	8.05613
2741.37	8.22154
2742.71	7.1877
2744.05	6.62953
2745.38	7.60064
2746.72	7.01807
2748.06	6.83863
2749.4	7.20753
2750.74	6.00967
2752.07	5.98526
2753.41	5.85171
2754.75	4.88388
2756.09	5.03112
2757.42	5.13305
2758.76	4.2239
2760.09	4.91318
2761.43	4.74129
2762.77	4.40661
2764.1	4.2017
2765.44	3.63965
2766.77	3.7381
2768.11	3.86383
2769.44	4.07561
2770.77	4.30405
2772.11	4.0049
2773.44	4.53482
2774.77	5.14838
2776.11	5.28078
2777.44	5.25749
2778.77	5.27167
2780.11	6.04826
2781.44	5.48116
2782.77	5.35971
2784.1	5.30213
2785.43	5.04364
2786.77	6.66721
2788.1	7.02913
2789.43	7.32966
2790.76	7.8978
2792.09	7.7987
2793.42	8.31413
2794.75	8.51586
2796.08	8.3001
2797.41	8.13832
2798.74	8.15095
2800.07	7.86687
2801.4	8.00073
2802.72	8.62182
2804.05	8.64061
2805.38	8.97436
2806.71	8.93247
2808.04	8.72275
2809.36	8.5348
2810.69	9.34697
2812.02	10.9969
2813.34	10.0665
2814.67	10.3601
2816	10.9098
2817.32	10.6029
2818.65	11.1971
2819.97	10.8999
2821.3	10.8959
2822.62	12.4806
2823.95	13.4615
2825.27	13.9384
2826.6	15.1284
2827.92	15.3632
2829.25	15.509
2830.57	16.9162
2831.89	18.4134
2833.22	20.362
2834.54	22.3791
2835.86	23.2573
2837.18	26.1256
2838.51	29.202
2839.83	31.824
2841.15	33.247
2842.47	35.5834
2843.79	37.7605
2845.11	41.1036
2846.43	44.5139
2847.76	47.5251
2849.08	51.0102
2850.4	53.2251
2851.72	57.2391
2853.04	61.3548
2854.36	64.9455
2855.67	69.3459
2856.99	73.4216
2858.31	76.6491
2859.63	80.4275
2860.95	83.8036
2862.27	87.9564
2863.58	91.8611
2864.9	95.1285
2866.22	98.4396
2867.54	101.728
2868.85	105.309
2870.17	107.992
2871.49	110.007
2872.8	113.682
2874.12	116.327
2875.43	118.738
2876.75	121.582
2878.07	124.035
2879.38	125.008
2880.7	127.615
2882.01	129.736
2883.32	131.961
2884.64	134.447
2885.95	136.95
2887.27	140.1
2888.58	143.271
2889.89	145.361
2891.21	147.153
2892.52	150.103
2893.83	152.762
2895.14	156.088
2896.46	159.67
2897.77	162.788
2899.08	165.888
2900.39	169.266
2901.7	172.812
2903.01	177.745
2904.32	181.44
2905.63	184.825
2906.94	188.48
2908.25	193.379
2909.56	197.73
2910.87	202.196
2912.18	207.72
2913.49	212.417
2914.8	216.726
2916.11	221.033
2917.42	226.72
2918.72	230.786
2920.03	234.52
2921.34	237.705
2922.65	240.954
2923.95	243.164
2925.26	246.225
2926.57	248.183
2927.88	249.543
2929.18	250.832
2930.49	252.186
2931.79	252.887
2933.1	252.078
2934.4	251.316
2935.71	249.628
2937.01	248.535
2938.32	246.958
2939.62	244.364
2940.93	240.947
2942.23	236.954
2943.54	233.376
2944.84	230.036
2946.14	226.822
2947.45	222.303
2948.75	218.026
2950.05	213.434
2951.35	209.23
2952.66	205.004
2953.96	200.491
2955.26	195.472
2956.56	191.163
2957.86	187.221
2959.16	182.605
2960.46	177.993
2961.77	172.995
2963.07	168.796
2964.37	164.097
2965.66	159.983
2966.96	156.062
2968.26	151.923
2969.56	148.093
2970.86	143.933
2972.16	139.901
2973.46	136.572
2974.76	132.692
2976.06	128.44
2977.35	126.493
2978.65	122.21
2979.95	117.953
2981.25	114.203
2982.54	110.606
2983.84	106.184
2985.14	102.136
2986.43	98.0399
2987.73	94.0976
2989.02	89.7981
2990.32	86.1027
2991.62	81.7443
2992.91	77.5384
2994.21	74.4019
2995.5	70.2135
2996.8	65.5156
2998.09	61.8397
2999.38	58.2192
3000.68	54.1589
3001.97	49.136
3003.26	45.2056
3004.56	41.5755
3005.85	37.6817
3007.14	34.383
3008.43	32.0533
3009.73	29.3551
3011.02	26.3537
3012.31	23.2813
3013.6	21.1227
3014.89	19.0072
3016.19	17.4475
3017.48	15.6188
3018.77	13.9077
3020.06	12.2646
3021.35	10.7235
3022.64	8.5006
3023.93	7.65279
3025.22	6.98789
3026.5	5.18981
3027.79	4.25206
3029.08	3.83426
3030.37	3.66998
3031.66	3.07546
3032.95	2.35338
3034.24	1.50544
3035.52	0.767676
3036.81	0.83999
3038.1	0.902107
3039.39	0.138274
3040.67	0.220658
3041.96	0.839464
3043.25	0.0392214
3044.53	0.263029
3045.82	0.379027
3047.1	-0.121026
3048.39	-0.051203
3049.67	-0.677578
3050.96	-0.798858
3052.24	-0.772826
3053.53	-1.25976
3054.81	-0.259833
3056.1	-0.312335
3057.38	-0.554561
3058.67	-0.205516
3059.95	-0.100782
3061.23	0.55491
3062.52	0.963954
3063.8	0.288028
3065.08	0.693095
3066.36	0.289782
3067.65	0.952252
3068.93	1.45165
3070.21	1.29086
3071.49	1.51929
3072.77	1.17041
3074.05	1.40571
3075.33	1.93122
3076.61	2.38551
3077.89	2.18048
3079.17	2.32406
3080.45	2.93382
3081.73	3.57471
3083.01	3.58218
3084.29	3.87237
3085.57	3.50308
3086.85	4.19496
3088.13	5.44541
3089.41	4.67429
3090.68	4.66476
3091.96	5.1671
3093.24	5.82111
3094.52	5.72038
3095.79	4.98171
3097.07	5.22407
3098.35	4.33507
3099.62	4.34088
3100.9	4.70081
3102.18	4.10143
3103.45	3.33294
3104.73	3.80247
3106	3.41041
3107.28	2.90339
3108.55	1.97805
3109.83	2.69914
3111.1	2.37762
3112.38	2.87811
3113.65	2.86129
3114.93	3.16528
3116.2	2.71761
3117.47	2.63324
3118.75	3.27163
3120.02	2.82556
3121.29	3.16009
3122.57	3.37492
3123.84	3.61555
3125.11	3.56523
3126.38	3.26908
3127.65	3.15014
3128.92	3.36421
3130.2	2.68846
3131.47	3.46699
3132.74	4.56752
3134.01	4.17502
3135.28	5.38604
3136.55	5.87577
3137.82	7.61263
3139.09	8.48523
3140.36	9.33976
3141.63	10.165
3142.9	11.588
3144.17	12.6101
3145.43	13.6203
3146.7	14.8548
3147.97	16.1327
3149.24	17.557
