#Acq. time (s)=	45
#Accumulations=	2
#Range (cm-¹)=	200...3150
#Windows=	2
#Auto scanning=	Off
#Autofocus=	Off
#Macrospot=	Off
#AutoExposure=	Off
#Spike filter=	Multiple accum.
#Delay time (s)=	0
#Binning=	1
#Readout mode=	Signal
#DeNoise=	Off
#ICS correction=	On
#Dark correction=	Off
#Inst. Process=	Off
#Detector Gain=	Best Dynamic Range
#Detector ADC=	20 kHz       
#Detector temperature (°C)=	-70.08
#Instrument=	LabRAM HR Evol
#Detector=	Synapse
#Objective=	x100
#Grating=	600 gr/mm
#ND Filter=	100%
#Laser (nm)=	532 
#Hole=	100.021
#Range=	Auto
#Laser Pol.=	No
#Raman. Pol.=	No
#Laser Pol. (°)=	-0.0007625
#Raman Pol. (°)=	89.9995
#Collection=	Microscope
#StageXY=	Marzhauser
#StageZ=	Marzhauser
#X (µm)=	-2535.5
#Y (µm)=	-119.3
#Z (µm)=	-10.6
#Full time(mm:ss)=	3:18
#Project=	
#Sample=	
#Site=	
#Title=	Mb_40_24_18_2x_45s_532 nm_x100_100%_600 gr_mm
#Remark=	
#Date=	14.07.2022 12:00
#Acquired=	14.07.2022 12:00:06
#Base:Fit=	10.08.2022 10:47:00
#Base:Sub=	10.08.2022 10:47:12
#Filter:Polynom=	16.08.2022 10:11:48
#AxisType[0]=Intens
#AxisUnit[0]=Cnt
#AxisType[1]=Spectr
#AxisUnit[1]=1/cm
200.554	100.843
202.369	91.0723
204.183	86.7008
205.999	81.7784
207.813	77.4957
209.626	73.0833
211.439	67.7215
213.253	64.4224
215.065	61.2491
216.877	57.5855
218.688	52.7824
220.5	49.5201
222.312	46.5081
224.123	44.4467
225.933	43.7154
227.742	41.0659
229.552	38.8677
231.361	37.7304
233.171	35.0507
234.98	33.9213
236.787	34.1149
238.595	33.4907
240.402	32.9026
242.209	30.7485
244.015	29.6854
245.822	29.144
247.627	29.015
249.435	28.3803
251.24	27.8424
253.045	28.1891
254.849	28.744
256.653	28.2738
258.457	28.4268
260.26	28.3989
262.063	28.3018
263.866	26.9871
265.668	25.2191
267.47	24.8315
269.271	23.8796
271.073	23.9752
272.873	23.3939
274.674	21.2052
276.474	19.689
278.274	17.8997
280.073	17.9416
281.872	16.7642
283.671	16.7873
285.47	14.6054
287.268	13.5645
289.065	14.0914
290.863	13.9165
292.66	14.1901
294.456	10.8458
296.253	11.3697
298.049	11.239
299.844	11.2891
301.637	9.559
303.432	10.7634
305.227	10.6267
307.021	11.0313
308.815	10.4075
310.609	12.0142
312.402	12.9502
314.195	13.4959
315.987	13.8626
317.777	13.8981
319.569	15.5516
321.36	16.6583
323.151	17.1406
324.942	17.8157
326.733	18.061
328.521	17.6377
330.31	18.3113
332.1	18.5921
333.889	20.5008
335.677	21.3096
337.464	21.1874
339.252	20.4229
341.039	19.4583
342.826	19.9934
344.611	18.9964
346.398	19.0341
348.184	18.8386
349.97	16.9209
351.754	14.7992
353.539	13.8666
355.324	12.4295
357.106	12.3288
358.89	10.7418
360.674	9.75681
362.455	8.53853
364.239	7.23283
366.021	7.6223
367.804	6.50052
369.584	5.86116
371.366	4.82625
373.145	4.76089
374.926	3.8446
376.707	4.52681
378.485	4.67601
380.265	4.57389
382.045	4.29937
383.822	4.43167
385.601	6.56298
387.378	6.82463
389.156	6.67851
390.934	6.25357
392.71	8.15451
394.487	8.65193
396.262	7.8982
398.038	8.17873
399.813	9.04572
401.588	9.00814
403.362	8.56405
405.137	8.35597
406.912	9.17525
408.685	9.12471
410.459	8.65078
412.23	9.06299
414.004	9.55225
415.775	9.99094
417.548	12.093
419.318	11.5647
421.089	11.4725
422.86	11.2722
424.63	10.8384
426.401	10.128
428.17	8.80784
429.94	8.45622
431.708	9.46177
433.478	8.33101
435.245	9.55258
437.012	9.13201
438.781	8.41446
440.547	8.3606
442.315	7.87006
444.081	6.14748
445.846	6.99154
447.613	7.18662
449.378	7.84137
451.142	7.36894
452.908	7.6954
454.672	6.98817
456.435	6.25024
458.2	6.96314
459.963	6.54902
461.725	7.10194
463.489	9.20714
465.251	8.60106
467.012	10.8925
468.775	12.5899
470.536	14.5532
472.296	16.3542
474.056	15.7441
475.817	17.6067
477.576	18.7973
479.335	19.6783
481.094	20.7566
482.854	20.2477
484.612	20.4371
486.37	22.1042
488.127	22.5759
489.886	24.5389
491.642	25.9801
493.398	27.6199
495.154	30.0903
496.91	31.8726
498.667	33.6257
500.422	35.3421
502.176	36.7159
503.93	37.9886
505.684	40.0975
507.438	40.9714
509.191	43.4072
510.946	44.7904
512.698	46.2109
514.45	47.2505
516.202	48.7135
517.954	51.0135
519.705	52.3284
521.456	52.1954
523.206	54.0796
524.956	53.2437
526.706	54.3912
528.456	56.0399
530.207	57.4158
531.956	56.8631
533.704	57.6434
535.452	56.8671
537.2	55.6915
538.947	55.2011
540.694	55.4039
542.441	55.2289
544.188	55.0729
545.934	55.6438
547.68	55.9401
549.425	57.1923
551.17	57.338
552.915	55.3131
554.659	56.4113
556.403	55.576
558.145	54.3131
559.889	52.7271
561.632	52.1918
563.375	52.7636
565.117	51.4032
566.859	48.8154
568.601	45.2361
570.342	43.8382
572.083	43.1225
573.824	42.8554
575.565	42.7702
577.303	40.925
579.043	39.1813
580.782	39.0114
582.521	38.8451
584.26	38.7802
585.998	37.2798
587.734	36.3793
589.472	35.3917
591.21	35.3818
592.947	34.0698
594.684	33.5657
596.418	32.7405
598.154	33.1824
599.89	32.0202
601.626	31.391
603.361	30.9493
605.094	31.1558
606.828	31.6201
608.562	31.7648
610.296	32.4653
612.027	31.4089
613.761	32.8541
615.493	32.9367
617.224	31.6688
618.956	29.7633
620.688	30.6417
622.419	31.2689
624.149	33.9612
625.879	34.8456
627.61	35.1043
629.338	34.2815
631.068	34.2728
632.797	34.7626
634.525	33.6288
636.254	33.115
637.98	32.4667
639.708	31.3007
641.436	31.105
643.162	30.0659
644.889	29.339
646.614	28.66
648.34	28.3438
650.067	26.8373
651.791	25.3784
653.516	22.9101
655.239	21.6709
656.964	22.5602
658.687	22.9419
660.411	22.7571
662.133	22.9938
663.857	21.2302
665.58	20.525
667.301	20.734
669.024	19.5629
670.744	18.4021
672.464	17.2277
674.186	17.0772
675.905	16.8848
677.626	18.0985
679.345	18.8443
681.065	20.8577
682.783	21.5856
684.503	22.5302
686.22	22.0974
687.939	24.8174
689.656	25.822
691.372	27.2014
693.09	26.6067
694.806	26.5172
696.523	26.3715
698.239	26.9784
699.953	27.7764
701.67	28.0403
703.384	27.9688
705.098	28.4492
706.813	30.9563
708.526	32.8704
710.239	34.3716
711.954	32.4619
713.666	31.5274
715.378	31.8489
717.091	31.6284
718.802	30.3491
720.513	30.3229
722.226	30.3912
723.936	29.9158
725.646	29.1354
727.355	29.2709
729.067	28.6435
730.776	29.3427
732.484	29.5754
734.192	29.9566
735.902	30.0734
737.61	29.9338
739.317	30.5077
741.024	32.7617
742.731	34.5606
744.439	35.7981
746.145	35.6494
747.851	36.8086
749.556	37.0249
751.262	38.3071
752.966	41.073
754.673	41.0177
756.377	43.0591
758.081	45.1093
759.784	46.9032
761.487	48.5083
763.19	50.9432
764.892	51.9138
766.594	53.0708
768.296	53.2094
770	54.8317
771.701	56.5484
773.402	58.3002
775.102	57.4128
776.803	58.6837
778.503	59.4248
780.202	61.1031
781.901	60.0325
783.6	61.1176
785.299	61.8197
786.997	62.8205
788.695	63.0729
790.393	64.2623
792.09	66.2975
793.787	65.4267
795.484	64.3109
797.18	62.4456
798.877	61.713
800.572	62.4579
802.268	61.7463
803.963	62.1187
805.658	61.7701
807.35	61.165
809.044	62.2696
810.738	62.4472
812.432	61.5706
814.125	61.47
815.818	62.3316
817.51	63.8907
819.202	64.4069
820.894	64.5615
822.584	64.8517
824.275	68.0882
825.966	69.1755
827.657	70.1171
829.347	70.5554
831.037	72.4157
832.725	72.115
834.414	72.5919
836.103	73.2137
837.792	73.9338
839.481	73.6027
841.167	76.7615
842.854	77.337
844.542	78.3072
846.229	78.8981
847.914	80.2273
849.6	80.8022
851.287	83.4705
852.973	83.6026
854.656	84.0031
856.341	84.5738
858.026	82.7261
859.711	82.2363
861.393	82.4676
863.077	80.5239
864.761	77.9127
866.442	75.6046
868.125	74.6008
869.808	73.4406
871.489	71.9902
873.171	70.7639
874.85	68.6639
876.532	67.57
878.213	64.3556
879.892	62.4071
881.572	59.9697
883.251	57.9044
884.931	56.2435
886.61	52.8003
888.287	50.91
889.966	49.0703
891.643	48.1288
893.321	47.0715
894.997	45.5732
896.675	43.6636
898.352	43.2643
900.028	43.4095
901.704	43.1903
903.379	43.2149
905.055	42.0741
906.729	42.466
908.404	43.1354
910.077	41.0634
911.75	41.6208
913.425	42.4818
915.097	43.3862
916.771	43.4316
918.443	44.6954
920.116	45.3461
921.787	45.6406
923.46	46.4653
925.13	47.8199
926.8	47.2027
928.472	48.1814
930.141	48.1325
931.813	47.9564
933.481	47.5335
935.15	47.3731
936.82	45.7259
938.488	44.6426
940.156	43.058
941.825	40.3296
943.492	38.0609
945.158	34.3096
946.827	31.0754
948.493	28.7242
950.158	27.684
951.824	26.7671
953.491	25.4233
955.156	23.3335
956.82	20.9884
958.486	18.6919
960.15	18.2637
961.814	16.5331
963.477	16.6945
965.142	16.7232
966.804	17.3976
968.467	18.3474
970.129	18.7662
971.79	21.3902
973.454	21.4299
975.115	22.4612
976.776	23.2644
978.436	23.2499
980.096	22.6786
981.756	23.4433
983.417	25.0014
985.077	24.6524
986.736	24.6975
988.394	24.7638
990.052	26.0421
991.71	25.1448
993.368	25.0584
995.025	26.5675
996.682	28.2758
998.341	26.9525
999.998	26.2675
1001.65	26.4592
1003.31	26.5185
1004.97	27.8831
1006.62	29.8698
1008.28	31.6205
1009.93	34.0694
1011.58	38.7137
1013.24	41.3807
1014.89	44.4933
1016.54	48.8362
1018.2	52.221
1019.85	55.3097
1021.5	56.6734
1023.16	59.5736
1024.81	62.4799
1026.46	65.5841
1028.11	69.6231
1029.76	74.1445
1031.41	77.2629
1033.06	81.0495
1034.71	84.1261
1036.36	86.8028
1038.01	89.8603
1039.66	93.1484
1041.31	94.7827
1042.95	98.1508
1044.6	101.317
1046.25	102.594
1047.9	103.523
1049.54	104.084
1051.19	103.895
1052.84	102.065
1054.48	100.147
1056.13	96.8422
1057.77	96.1018
1059.42	93.0453
1061.06	90.2052
1062.71	86.5775
1064.35	83.2517
1066	79.5308
1067.64	74.9833
1069.28	70.1196
1070.93	67.9686
1072.57	62.7118
1074.21	57.5336
1075.85	53.439
1077.49	49.7291
1079.13	45.8629
1080.78	39.4298
1082.42	35.9076
1084.06	33.3388
1085.7	30.3437
1087.34	28.9532
1088.97	27.8903
1090.61	26.2159
1092.25	27.0748
1093.89	27.836
1095.53	27.7527
1097.17	27.416
1098.8	28.0722
1100.44	28.9988
1102.08	28.7863
1103.71	28.4802
1105.35	29.628
1106.99	29.1329
1108.62	28.9988
1110.26	29.0991
1111.89	27.9152
1113.52	27.2523
1115.16	27.3434
1116.79	27.276
1118.43	25.9396
1120.06	25.5538
1121.69	25.446
1123.32	22.904
1124.96	22.877
1126.59	22.2876
1128.22	20.5911
1129.85	21.4404
1131.48	19.4647
1133.11	18.8659
1134.75	17.7395
1136.37	16.6645
1138	17.3226
1139.63	16.4376
1141.26	15.2721
1142.89	14.1156
1144.52	14.0685
1146.15	14.4083
1147.78	14.5906
1149.4	13.518
1151.03	12.8106
1152.66	12.7561
1154.28	10.6603
1155.91	8.88514
1157.54	7.26051
1159.16	5.88841
1160.79	5.34628
1162.41	4.01424
1164.04	3.21908
1165.66	1.84984
1167.29	2.76423
1168.91	2.70193
1170.53	3.25556
1172.16	2.60032
1173.78	2.96866
1175.4	3.17757
1177.02	3.3527
1178.65	2.37533
1180.27	3.10775
1181.89	3.31421
1183.51	1.95613
1185.13	2.69129
1186.75	3.19517
1188.37	3.16978
1189.99	3.12137
1191.61	3.17941
1193.23	1.91735
1194.85	3.17207
1196.47	2.50918
1198.08	2.98196
1199.7	3.95429
1201.32	5.47453
1202.94	5.04542
1204.55	6.08704
1206.17	7.83693
1207.79	10.2105
1209.4	11.1522
1211.02	12.9938
1212.63	13.2624
1214.25	14.8958
1215.86	16.2456
1217.48	17.6649
1219.09	21.494
1220.71	23.0401
1222.32	27.514
1223.93	29.552
1225.54	33.6604
1227.16	37.0396
1228.77	39.8059
1230.38	41.6908
1231.99	46.0281
1233.6	49.7165
1235.22	53.9291
1236.83	56.3259
1238.44	60.0729
1240.05	63.9114
1241.66	68.0154
1243.26	70.5455
1244.87	72.5342
1246.48	75.0728
1248.09	78.7426
1249.7	79.8031
1251.31	81.8092
1252.92	83.0581
1254.52	84.6863
1256.13	87.1775
1257.74	89.2488
1259.34	90.7904
1260.95	94.0677
1262.55	95.877
1264.16	98.5948
1265.76	100.372
1267.37	102.103
1268.97	104.056
1270.58	107.602
1272.18	111.048
1273.78	113.376
1275.39	117.372
1276.99	119.764
1278.59	123.682
1280.2	125.994
1281.8	128.282
1283.4	129.673
1285	132.123
1286.6	134.416
1288.2	137.561
1289.8	138.95
1291.4	141.494
1293	143.798
1294.6	146.37
1296.2	149.583
1297.8	151.239
1299.4	153.962
1301	154.711
1302.6	156.15
1304.19	156.493
1305.79	157.838
1307.39	159.165
1308.99	159.456
1310.58	160.955
1312.18	161.458
1313.77	160.914
1315.37	161.107
1316.96	159.679
1318.56	159.695
1320.15	157.952
1321.75	157.172
1323.34	155.159
1324.94	153.319
1326.53	151.195
1328.12	149.203
1329.72	146.453
1331.31	143.158
1332.9	139.77
1334.49	137.871
1336.08	135.862
1337.67	134.459
1339.27	132.035
1340.86	131.371
1342.45	128.698
1344.04	127.764
1345.63	125.954
1347.22	125.44
1348.8	125.408
1350.39	125.478
1351.98	123.287
1353.57	121.94
1355.16	123.007
1356.75	122.92
1358.33	121.63
1359.92	119.926
1361.51	121.378
1363.09	120.669
1364.68	121.848
1366.27	122.481
1367.85	122.576
1369.44	123.574
1371.02	125.18
1372.61	126.259
1374.19	127.461
1375.77	128.168
1377.36	129.243
1378.94	130.866
1380.52	131.517
1382.11	132.009
1383.69	134.021
1385.27	135.686
1386.85	139.137
1388.43	141.886
1390.02	143.47
1391.6	145.439
1393.18	147.339
1394.76	149.906
1396.34	151.305
1397.92	154.157
1399.5	156.141
1401.08	160.387
1402.65	162.831
1404.23	166.74
1405.81	170.98
1407.39	174.452
1408.97	178.483
1410.54	182.339
1412.12	188.539
1413.7	194.523
1415.27	199.845
1416.85	206.844
1418.43	213.338
1420	220.38
1421.58	226.716
1423.15	233.329
1424.73	241.319
1426.3	250.109
1427.87	259.428
1429.45	266.56
1431.02	272.97
1432.6	281.155
1434.17	288.177
1435.74	293.086
1437.31	296.275
1438.89	300.373
1440.46	304.53
1442.03	306.021
1443.6	308.718
1445.17	309.43
1446.74	310.106
1448.31	310.814
1449.88	309.527
1451.45	307.868
1453.02	305.903
1454.59	302.081
1456.16	297.119
1457.72	292.425
1459.29	286.387
1460.86	279.378
1462.43	273.505
1463.99	266.814
1465.56	259.762
1467.13	251.55
1468.69	241.935
1470.26	231.701
1471.83	220.549
1473.39	211.771
1474.95	202.803
1476.52	192.002
1478.08	181.935
1479.65	173.508
1481.21	163.404
1482.78	154.039
1484.34	145.023
1485.9	135.697
1487.47	127.652
1489.03	120.264
1490.59	114.494
1492.15	106.853
1493.71	101.081
1495.27	95.6664
1496.84	90.3978
1498.39	86.3671
1499.96	82.9057
1501.52	79.4317
1503.07	78.0549
1504.64	74.7297
1506.19	71.1826
1507.75	67.3108
1509.31	65.1311
1510.87	63.1509
1512.43	60.1522
1513.98	58.0293
1515.54	55.0043
1517.1	54.0044
1518.65	52.4421
1520.21	52.4023
1521.77	53.0438
1523.32	52.6139
1524.88	53.7899
1526.44	55.3133
1527.99	55.5114
1529.54	56.3635
1531.1	57.388
1532.65	58.2853
1534.21	60.0468
1535.76	61.9146
1537.31	63.9395
1538.87	66.7218
1540.42	68.8459
1541.97	71.3599
1543.52	73.0473
1545.07	74.7257
1546.63	74.8434
1548.18	75.9672
1549.73	78.5085
1551.28	80.4026
1552.83	82.236
1554.38	83.3478
1555.93	86.9204
1557.48	88.5946
1559.03	90.7099
1560.57	93.1501
1562.12	95.9074
1563.67	98.0389
1565.22	100.869
1566.77	103.06
1568.31	106.718
1569.86	109.452
1571.41	113.743
1572.95	118.297
1574.5	123.395
1576.05	127.854
1577.59	131.72
1579.14	134.751
1580.68	139.282
1582.23	142.331
1583.77	146.4
1585.31	150.045
1586.86	152.749
1588.4	155.545
1589.95	158.091
1591.49	161.059
1593.03	163.681
1594.57	167.074
1596.11	169.751
1597.66	173.307
1599.2	174.535
1600.74	176.133
1602.28	178.716
1603.82	180.249
1605.36	182.246
1606.9	183.666
1608.44	185.02
1609.98	186.074
1611.52	187.428
1613.06	187.909
1614.6	190.385
1616.13	190.484
1617.67	189.078
1619.21	189.635
1620.75	188.425
1622.28	187.998
1623.82	187.88
1625.36	188.688
1626.89	189.999
1628.43	191.153
1629.96	191.506
1631.5	191.413
1633.04	190.651
1634.57	188.878
1636.11	189.246
1637.64	189.208
1639.17	188.531
1640.71	188.58
1642.24	188.138
1643.77	187.71
1645.31	188.147
1646.84	186.333
1648.37	185.68
1649.9	185.836
1651.43	183.308
1652.96	181.795
1654.5	179.709
1656.03	176.685
1657.56	173.729
1659.09	170.031
1660.62	165.46
1662.15	161.172
1663.67	157.237
1665.2	154.13
1666.73	150.161
1668.26	146.283
1669.79	141.52
1671.32	136.861
1672.84	131.754
1674.37	127.537
1675.9	121.849
1677.43	119.163
1678.95	114.411
1680.48	108.52
1682	104.536
1683.53	98.3091
1685.05	93.4447
1686.58	88.5838
1688.1	84.855
1689.63	80.8452
1691.15	76.4128
1692.68	72.3498
1694.2	68.7095
1695.72	66.3502
1697.25	63.7786
1698.77	62.1492
1700.29	60.0781
1701.81	57.4482
1703.33	55.735
1704.86	53.4681
1706.38	51.1455
1707.9	49.078
1709.42	47.1528
1710.94	45.4228
1712.46	44.1886
1713.98	41.6701
1715.5	39.2572
1717.02	38.2315
1718.54	36.1061
1720.06	34.8227
1721.57	33.3162
1723.09	31.6167
1724.61	32.3677
1726.13	31.6294
1727.64	29.1581
1729.16	29.2909
1730.68	28.3876
1732.19	26.8022
1733.71	26.2825
1735.23	25.7981
1736.74	25.1238
1738.26	25.3277
1739.77	24.8547
1741.29	23.7821
1742.8	22.6432
1744.31	21.3553
1745.83	20.2984
1747.34	19.4011
1748.85	18.1328
1750.37	17.1776
1751.88	15.9685
1753.39	15.7458
1754.91	14.4302
1756.42	13.668
1757.93	13.4585
1759.44	12.179
1760.95	11.3117
1762.46	10.9497
1763.97	10.8218
1765.48	9.95213
1766.99	9.0636
1768.5	9.41165
1770.01	8.76977
1771.52	8.56535
1773.03	8.02591
1774.54	7.31545
1776.04	6.72921
1777.55	6.19109
1779.06	6.66235
1780.57	6.28628
1782.07	4.86056
1783.58	3.44832
1785.09	2.79619
1786.59	2.60209
1788.1	1.9267
1789.6	1.67568
1791.11	1.46841
1792.61	1.85442
1794.12	1.4673
1795.62	1.39654
1797.13	0.428385
1798.63	0.0583446
1800.13	1.267
1801.64	0.691412
1803.14	0.368097
1804.64	1.59339
1806.15	1.51191
1807.65	1.17212
1809.15	1.28944
1810.65	1.52375
1812.15	1.43775
1813.65	0.792944
1815.16	0.340831
1816.66	0.76454
1818.15	1.00581
1819.66	0.913441
1821.16	0.69653
1822.65	0.911617
1824.15	1.15643
1825.65	1.02563
1827.15	2.00481
1828.65	1.52661
1830.15	1.52676
1831.64	0.769563
1833.14	0.132211
1834.64	-0.532113
1836.14	-0.881907
1837.63	-0.369805
1839.13	-0.290177
1840.62	-0.0720986
1842.12	0.941916
1843.62	0.979488
1845.11	1.84176
1846.61	2.41679
1848.1	2.2962
1849.6	1.84943
1851.09	1.40807
1852.58	1.23392
1854.08	2.16604
1855.57	1.53114
1857.06	1.69793
1858.55	2.48743
1860.05	3.4757
1861.54	3.64544
1863.03	3.70427
1864.52	4.29406
1866.01	4.23031
1867.5	4.71984
1869	5.73891
1870.49	6.43316
1871.98	6.69589
1873.47	7.15271
1874.96	8.06679
1876.44	7.90465
1877.93	8.47236
1879.42	9.23992
1880.91	9.58554
1882.4	10.1113
1882.47	9.5822
1883.96	9.0154
1885.46	8.75265
1886.95	9.49349
1888.44	9.45253
1889.94	9.68392
1891.43	8.8461
1892.93	8.32188
1894.42	7.94365
1895.91	7.94006
1897.4	8.19712
1898.89	8.34182
1900.39	8.81273
1901.88	8.58628
1903.37	8.88127
1904.86	9.14769
1906.35	9.42121
1907.84	10.015
1909.33	11.3355
1910.82	11.5113
1912.31	11.5456
1913.8	12.6586
1915.29	12.3408
1916.77	11.6368
1918.26	11.9857
1919.75	12.4385
1921.24	12.7865
1922.73	11.5547
1924.21	11.67
1925.7	11.9623
1927.19	12.4014
1928.67	12.0748
1930.16	11.6282
1931.64	10.6635
1933.13	10.5591
1934.61	9.54119
1936.1	9.88625
1937.58	9.55063
1939.07	9.04881
1940.55	9.64112
1942.04	10.0196
1943.52	9.49686
1945	9.52183
1946.49	9.05113
1947.97	10.2876
1949.45	9.92084
1950.93	9.67019
1952.42	9.87353
1953.9	9.09534
1955.38	7.74537
1956.86	6.21037
1958.34	5.6624
1959.82	6.59434
1961.3	5.47371
1962.78	4.77127
1964.26	4.51742
1965.74	4.22265
1967.22	4.66873
1968.7	4.76423
1970.18	4.60535
1971.65	4.73556
1973.13	3.98395
1974.61	4.45211
1976.09	4.44629
1977.57	5.29172
1979.04	5.71939
1980.52	4.82509
1982	5.52124
1983.47	6.26929
1984.95	6.43303
1986.42	7.02374
1987.9	7.66184
1989.37	6.49636
1990.85	7.31531
1992.32	7.73748
1993.8	8.66906
1995.27	8.27144
1996.75	6.54607
1998.22	6.57986
1999.69	6.91261
2001.17	6.7291
2002.64	7.15864
2004.11	6.01364
2005.58	6.90359
2007.05	7.87941
2008.53	8.77613
2010	10.046
2011.47	9.90955
2012.94	10.96
2014.41	11.9142
2015.88	12.3289
2017.35	12.9341
2018.82	14.3039
2020.29	15.2027
2021.76	16.0673
2023.23	15.9242
2024.7	16.4514
2026.16	17.2443
2027.63	17.2029
2029.1	17.4511
2030.57	17.5246
2032.03	18.166
2033.5	19.4684
2034.97	18.6319
2036.44	19.5856
2037.9	19.2063
2039.37	19.7603
2040.83	19.2433
2042.3	19.4339
2043.76	19.1827
2045.23	20.2771
2046.69	20.4582
2048.16	20.8409
2049.62	21.0388
2051.08	21.0363
2052.55	20.6858
2054.01	20.3291
2055.47	21.4322
2056.94	21.2328
2058.4	22.1255
2059.86	23.0928
2061.32	23.36
2062.79	23.7756
2064.25	24.7833
2065.71	25.1275
2067.17	26.2962
2068.63	27.0584
2070.09	27.1211
2071.55	27.7213
2073.01	28.8567
2074.47	29.4626
2075.93	30.7907
2077.39	30.8737
2078.85	33.686
2080.31	34.1734
2081.76	35.2475
2083.22	36.1105
2084.68	36.5404
2086.13	37.6478
2087.59	37.5861
2089.05	38.9944
2090.51	40.1658
2091.96	42.3102
2093.42	43.5443
2094.87	44.3634
2096.33	45.0567
2097.78	46.2078
2099.24	47.6771
2100.69	47.9724
2102.15	48.661
2103.6	50.1357
2105.06	51.922
2106.51	52.6191
2107.96	52.6563
2109.42	53.5897
2110.87	54.5391
2112.32	55.9236
2113.77	57.3756
2115.23	59.3239
2116.68	59.3011
2118.13	61.5388
2119.58	62.0803
2121.03	63.789
2122.48	66.0721
2123.93	67.0444
2125.38	69.015
2126.83	71.0829
2128.28	74.2001
2129.73	76.2399
2131.18	78.4714
2132.63	81.1472
2134.08	83.1572
2135.53	85.4219
2136.97	88.0449
2138.42	90.847
2139.87	93.5769
2141.32	95.9796
2142.76	98.351
2144.21	101.525
2145.66	105.729
2147.1	108.25
2148.55	110.575
2150	112.948
2151.44	116.082
2152.89	116.619
2154.33	118.147
2155.78	119.374
2157.22	121.108
2158.66	122.585
2160.11	123.588
2161.55	125.346
2163	127.113
2164.44	128.495
2165.88	129.468
2167.32	130.573
2168.77	131.146
2170.21	131.362
2171.65	131.25
2173.09	131.339
2174.53	131.599
2175.97	130.955
2177.41	129.835
2178.85	127.984
2180.29	127.589
2181.73	126.613
2183.17	125.827
2184.61	124.357
2186.05	122.889
2187.49	120.597
2188.93	117.592
2190.37	115.817
2191.81	113.718
2193.24	112.449
2194.68	110.258
2196.12	108.589
2197.56	107.062
2198.99	106.092
2200.43	103.782
2201.87	100.805
2203.3	98.5815
2204.74	98.3335
2206.17	95.0852
2207.61	93.5278
2209.04	91.6683
2210.48	90.0495
2211.91	87.8754
2213.35	86.569
2214.78	84.5824
2216.21	82.5394
2217.65	80.1617
2219.08	77.1903
2220.51	75.4591
2221.95	74.0893
2223.38	71.5836
2224.81	69.426
2226.24	68.1689
2227.67	66.3387
2229.1	64.4087
2230.54	62.3315
2231.97	60.3102
2233.4	58.9794
2234.83	58.2935
2236.26	56.6141
2237.69	55.1063
2239.11	53.6774
2240.54	51.52
2241.97	49.5444
2243.4	48.2913
2244.83	46.6699
2246.26	44.6359
2247.69	42.8309
2249.11	41.1246
2250.54	40.5693
2251.97	40.8798
2253.4	39.1055
2254.82	38.0458
2256.25	37.2212
2257.67	35
2259.1	33.5026
2260.53	31.6669
2261.95	31.7918
2263.38	32.495
2264.8	33.1641
2266.23	32.9356
2267.65	32.6425
2269.07	31.5925
2270.5	30.946
2271.92	30.0699
2273.34	29.3158
2274.77	27.9246
2276.19	28.0521
2277.61	26.3365
2279.03	26.0717
2280.46	25.1579
2281.88	24.7887
2283.3	24.0178
2284.72	23.6512
2286.14	22.515
2287.56	21.7674
2288.98	20.8821
2290.4	20.2661
2291.82	19.5514
2293.24	18.5273
2294.66	16.9197
2296.08	16.9996
2297.5	16.5639
2298.92	15.7328
2300.34	15.3973
2301.76	15.8158
2303.17	14.4763
2304.59	14.5095
2306.01	14.4921
2307.43	14.2315
2308.84	13.3108
2310.26	13.1479
2311.68	12.5407
2313.09	11.9095
2314.51	11.6653
2315.92	12.2522
2317.34	11.8495
2318.75	12.4222
2320.17	12.4304
2321.58	14.055
2323	13.0021
2324.41	11.0945
2325.82	10.1595
2327.24	9.20664
2328.65	8.01471
2330.06	9.2397
2331.48	10.1019
2332.89	10.9778
2334.3	11.558
2335.71	11.0824
2337.12	11.1223
2338.54	10.1276
2339.95	10.6929
2341.36	10.7011
2342.77	9.52795
2344.18	8.53046
2345.59	7.94247
2347	7.84021
2348.41	7.15108
2349.82	7.02298
2351.23	7.10877
2352.64	6.75481
2354.04	6.52187
2355.45	6.14774
2356.86	4.61312
2358.27	3.26214
2359.68	3.58181
2361.08	3.61374
2362.49	3.61589
2363.9	3.38084
2365.3	3.92694
2366.71	4.51724
2368.12	5.40642
2369.52	5.16925
2370.93	5.32089
2372.33	5.22772
2373.74	5.48546
2375.14	6.92071
2376.55	7.28562
2377.95	7.58206
2379.36	7.79294
2380.76	8.56653
2382.16	8.81757
2383.57	9.35487
2384.97	10.2569
2386.37	9.74088
2387.78	9.76001
2389.18	10.5736
2390.58	10.4085
2391.98	10.1249
2393.38	8.92743
2394.79	8.60868
2396.19	9.12165
2397.59	8.94291
2398.99	9.32425
2400.39	9.35576
2401.79	9.15794
2403.19	8.51125
2404.59	7.95821
2405.99	7.42211
2407.39	7.86296
2408.78	6.79317
2410.18	7.31351
2411.58	5.56982
2412.98	4.19423
2414.38	4.16609
2415.77	3.61954
2417.17	3.59377
2418.57	3.7719
2419.97	4.1929
2421.36	3.46193
2422.76	2.96646
2424.15	2.86508
2425.55	1.65516
2426.95	0.356111
2428.34	0.946517
2429.74	1.62856
2431.13	1.56938
2432.52	2.07184
2433.92	1.8938
2435.31	2.46341
2436.71	2.84664
2438.1	3.29626
2439.49	3.54304
2440.89	2.83001
2442.28	3.03686
2443.67	3.40769
2445.06	3.44803
2446.46	3.69633
2447.85	4.02637
2449.24	4.57614
2450.63	3.97872
2452.02	3.97688
2453.41	4.35854
2454.8	4.45752
2456.19	4.96117
2457.58	6.67129
2458.97	6.50695
2460.36	6.14219
2461.75	5.36689
2463.14	6.36783
2464.53	5.88313
2465.92	6.03229
2467.31	6.8938
2468.69	6.83079
2470.08	7.24232
2471.47	6.68516
2472.86	6.48624
2474.24	6.33065
2475.63	6.71736
2477.02	6.98264
2478.4	6.43606
2479.79	6.92625
2481.17	6.03024
2482.56	6.66569
2483.94	6.25484
2485.33	6.41256
2486.72	6.444
2488.1	7.03244
2489.48	7.32259
2490.87	7.37172
2492.25	7.02523
2493.64	7.12176
2495.02	6.19333
2496.4	5.57938
2497.79	4.87052
2499.17	4.50534
2500.55	4.28251
2501.93	3.63163
2503.31	2.55888
2504.69	2.68973
2506.08	2.5328
2507.46	2.12883
2508.84	2.11743
2510.22	1.30489
2511.6	1.62913
2512.98	1.52655
2514.36	1.10311
2515.74	1.6651
2517.12	1.60538
2518.5	1.37984
2519.88	1.10514
2521.25	2.19678
2522.63	2.33962
2524.01	2.81521
2525.39	3.00673
2526.77	2.4563
2528.14	1.52127
2529.52	1.66539
2530.9	1.45449
2532.27	2.10265
2533.65	2.34234
2535.03	2.55468
2536.4	2.97661
2537.78	1.71386
2539.15	2.53651
2540.53	1.49594
2541.9	2.48189
2543.28	3.01987
2544.65	2.74118
2546.03	3.07677
2547.4	2.889
2548.77	3.26452
2550.15	2.2718
2551.52	2.45915
2552.89	1.94545
2554.27	2.40406
2555.64	3.20707
2557.01	3.44112
2558.38	3.04966
2559.75	3.27596
2561.12	2.87814
2562.5	3.7489
2563.87	3.26484
2565.24	3.04474
2566.61	4.51647
2567.98	5.57127
2569.35	5.41421
2570.72	6.75773
2572.09	7.95109
2573.46	8.58837
2574.83	9.30907
2576.19	9.63033
2577.56	10.1943
2578.93	10.5179
2580.3	11.1868
2581.67	11.5421
2583.04	11.9712
2584.4	13.8644
2585.77	14.6282
2587.14	14.3433
2588.5	14.2833
2589.87	14.7034
2591.23	14.5793
2592.6	14.8702
2593.97	14.3582
2595.33	14.1413
2596.7	14.4067
2598.06	15.3447
2599.43	14.455
2600.79	15.3939
2602.15	14.7717
2603.52	13.1949
2604.88	13.1727
2606.25	12.1015
2607.61	11.5113
2608.97	10.3183
2610.33	9.89053
2611.7	8.42459
2613.06	6.85127
2614.42	6.64655
2615.78	5.06916
2617.15	3.76365
2618.51	2.95092
2619.87	2.82951
2621.23	2.61477
2622.59	2.23128
2623.95	2.10497
2625.31	1.36458
2626.67	1.74952
2628.03	1.87882
2629.39	2.61968
2630.75	2.08473
2632.1	2.32014
2633.46	3.2736
2634.82	3.45252
2636.18	3.21269
2637.54	2.48843
2638.89	3.8378
2640.25	3.71291
2641.61	3.50758
2642.97	4.2302
2644.32	4.52903
2645.68	5.68043
2647.03	6.34679
2648.39	7.52191
2649.75	8.57887
2651.1	9.88682
2652.46	10.5177
2653.81	10.4486
2655.17	10.5003
2656.52	11.1967
2657.88	11.9607
2659.23	11.8979
2660.58	11.3344
2661.94	10.7808
2663.29	10.8205
2664.64	10.8206
2666	10.396
2667.35	9.36764
2668.7	10.2591
2670.05	9.75948
2671.4	9.90841
2672.76	9.88442
2674.11	8.84005
2675.46	9.95072
2676.81	9.42069
2678.16	8.57191
2679.51	8.45185
2680.86	8.0413
2682.21	8.36601
2683.56	8.33179
2684.91	8.94608
2686.26	10.4756
2687.61	10.4777
2688.96	10.8161
2690.3	10.8454
2691.65	11.7201
2693	12.1709
2694.35	13.1023
2695.7	14.5571
2697.04	15.7121
2698.39	16.0053
2699.74	17.6515
2701.08	19.1006
2702.43	19.5085
2703.77	20.1557
2705.12	21.2846
2706.47	23.316
2707.81	24.0754
2709.16	25.069
2710.5	26.685
2711.85	27.6723
2713.19	29.2611
2714.53	30.0593
2715.88	31.5812
2717.22	31.7394
2718.57	31.7298
2719.91	32.0193
2721.25	32.2541
2722.59	32.6653
2723.94	32.1503
2725.28	31.2538
2726.62	30.62
2727.96	30.3988
2729.3	29.6943
2730.65	29.3618
2731.99	29.0739
2733.33	27.9974
2734.67	27.1363
2736.01	26.107
2737.35	24.7921
2738.69	22.7379
2740.03	20.6804
2741.37	18.9238
2742.71	17.732
2744.05	15.3078
2745.38	14.4391
2746.72	13.7836
2748.06	12.3476
2749.4	12.4299
2750.74	11.6703
2752.07	10.2286
2753.41	9.56427
2754.75	8.32224
2756.09	8.09109
2757.42	6.72531
2758.76	5.85912
2760.09	4.8002
2761.43	4.37556
2762.77	4.57461
2764.1	4.18929
2765.44	4.27895
2766.77	3.87059
2768.11	3.39612
2769.44	2.19251
2770.77	1.7832
2772.11	2.5885
2773.44	1.802
2774.77	1.92263
2776.11	1.73771
2777.44	1.86693
2778.77	2.02581
2780.11	1.86505
2781.44	1.59073
2782.77	2.03305
2784.1	2.22352
2785.43	2.89306
2786.77	2.73365
2788.1	2.31699
2789.43	2.24677
2790.76	1.02839
2792.09	0.80455
2793.42	1.7066
2794.75	1.78486
2796.08	0.917392
2797.41	1.26433
2798.74	0.324219
2800.07	-0.968984
2801.4	-0.789291
2802.72	-1.56473
2804.05	-1.35045
2805.38	-1.98496
2806.71	-2.67601
2808.04	-2.36293
2809.36	-2.56953
2810.69	-1.60103
2812.02	-1.75854
2813.34	-1.13013
2814.67	-0.16582
2816	2.39762
2817.32	5.03662
2818.65	8.50686
2819.97	14.0537
2821.3	19.06
2822.62	24.9369
2823.95	31.1607
2825.27	39.1384
2826.6	47.0271
2827.92	56.154
2829.25	66.1952
2830.57	74.7831
2831.89	84.4692
2833.22	96.2668
2834.54	108.631
2835.86	120.886
2837.18	132.75
2838.51	144.735
2839.83	156.884
2841.15	169.202
2842.47	181.268
2843.79	192.993
2845.11	205.762
2846.43	218.048
2847.76	231.15
2849.08	245.722
2850.4	259.235
2851.72	273.522
2853.04	288.04
2854.36	302.231
2855.67	316.865
2856.99	330.919
2858.31	345.588
2859.63	359.285
2860.95	372.129
2862.27	383.131
2863.58	394.302
2864.9	404.152
2866.22	415.186
2867.54	425.261
2868.85	433.805
2870.17	443.287
2871.49	450.312
2872.8	458.017
2874.12	465.064
2875.43	471.723
2876.75	479.523
2878.07	486.214
2879.38	494.234
2880.7	502.688
2882.01	510.83
2883.32	519.529
2884.64	526.681
2885.95	535.412
2887.27	541.905
2888.58	549.895
2889.89	557.245
2891.21	564.93
2892.52	572.378
2893.83	580.935
2895.14	589.415
2896.46	597.022
2897.77	605.684
2899.08	615.385
2900.39	623.115
2901.7	630.034
2903.01	638.544
2904.32	647.886
2905.63	658.28
2906.94	668.804
2908.25	679.751
2909.56	691.086
2910.87	703.931
2912.18	716.437
2913.49	729.037
2914.8	741.676
2916.11	753.476
2917.42	765.346
2918.72	776.009
2920.03	785.291
2921.34	793.603
2922.65	799.929
2923.95	805.73
2925.26	810.401
2926.57	812.887
2927.88	813.531
2929.18	813.841
2930.49	812.55
2931.79	809.343
2933.1	804.637
2934.4	797.813
2935.71	790.753
2937.01	781.527
2938.32	772.564
2939.62	760.06
2940.93	748.53
2942.23	735.071
2943.54	720.737
2944.84	706.323
2946.14	690.008
2947.45	672.49
2948.75	655.047
2950.05	636.338
2951.35	619.269
2952.66	600.353
2953.96	582.439
2955.26	564.721
2956.56	547.936
2957.86	531.314
2959.16	514.327
2960.46	498.017
2961.77	481.098
2963.07	465.663
2964.37	451.426
2965.66	437.053
2966.96	423.803
2968.26	412.178
2969.56	400.075
2970.86	388.735
2972.16	377.571
2973.46	367.066
2974.76	357.799
2976.06	346.845
2977.35	336.441
2978.65	326.26
2979.95	315.725
2981.25	306.091
2982.54	295.381
2983.84	285.914
2985.14	275.493
2986.43	265.136
2987.73	255.208
2989.02	244.994
2990.32	235.067
2991.62	224.293
2992.91	213.2
2994.21	202.11
2995.5	191.464
2996.8	180.125
2998.09	170.238
2999.38	159.411
3000.68	149.292
3001.97	139.015
3003.26	127.673
3004.56	117.252
3005.85	108.37
3007.14	98.4076
3008.43	89.6287
3009.73	81.2697
3011.02	72.1924
3012.31	64.7723
3013.6	58.2054
3014.89	52.6495
3016.19	47.1389
3017.48	40.7623
3018.77	35.666
3020.06	31.532
3021.35	27.0112
3022.64	22.1141
3023.93	17.8842
3025.22	14.7637
3026.5	11.6757
3027.79	8.28213
3029.08	6.65997
3030.37	4.78949
3031.66	3.26953
3032.95	1.68754
3034.24	-0.249981
3035.52	-0.333511
3036.81	-0.579629
3038.1	-0.13752
3039.39	-0.553111
3040.67	-1.74038
3041.96	-0.234131
3043.25	0.560172
3044.53	0.98415
3045.82	1.59388
3047.1	2.52588
3048.39	4.69707
3049.67	5.50651
3050.96	6.25481
3052.24	6.83171
3053.53	7.65934
3054.81	8.76871
3056.1	8.57971
3057.38	8.86501
3058.67	9.32172
3059.95	9.59275
3061.23	9.54665
3062.52	10.0067
3063.8	9.04044
3065.08	9.48475
3066.36	9.55758
3067.65	8.97613
3068.93	9.90025
3070.21	9.20242
3071.49	8.17481
3072.77	8.24422
3074.05	7.66206
3075.33	6.94209
3076.61	6.82823
3077.89	6.95657
3079.17	6.2794
3080.45	4.73876
3081.73	3.0626
3083.01	2.59532
3084.29	2.59855
3085.57	2.07888
3086.85	1.82992
3088.13	2.23954
3089.41	2.13544
3090.68	1.83896
3091.96	0.824013
3093.24	1.28363
3094.52	0.44766
3095.79	0.936109
3097.07	0.626531
3098.35	1.14249
3099.62	3.15286
3100.9	3.93398
3102.18	5.56571
3103.45	6.52525
3104.73	6.79489
3106	8.35715
3107.28	9.01261
3108.55	10.279
3109.83	11.745
3111.1	13.264
3112.38	14.9017
3113.65	16.4157
3114.93	18.2855
3116.2	19.9496
3117.47	20.7077
3118.75	22.014
3120.02	23.3608
3121.29	25.4561
3122.57	26.9349
3123.84	28.9733
3125.11	30.8945
3126.38	32.5742
3127.65	34.1555
3128.92	36.8146
3130.2	37.9153
3131.47	39.817
3132.74	42.0001
3134.01	43.3346
3135.28	45.5615
3136.55	48.2458
3137.82	50.2399
3139.09	52.8412
3140.36	55.1649
3141.63	57.3451
3142.9	59.4245
3144.17	61.9597
3145.43	64.6255
3146.7	66.6736
3147.97	67.8182
3149.24	71.0685
