#Acq. time (s)=	45
#Accumulations=	2
#Range (cm-¹)=	200...3150
#Windows=	2
#Auto scanning=	Off
#Autofocus=	Off
#Macrospot=	Off
#AutoExposure=	Off
#Spike filter=	Multiple accum.
#Delay time (s)=	0
#Binning=	1
#Readout mode=	Signal
#DeNoise=	Off
#ICS correction=	On
#Dark correction=	Off
#Inst. Process=	Off
#Detector Gain=	Best Dynamic Range
#Detector ADC=	20 kHz       
#Detector temperature (°C)=	-70.08
#Instrument=	LabRAM HR Evol
#Detector=	Synapse
#Objective=	x100
#Grating=	600 gr/mm
#ND Filter=	100%
#Laser (nm)=	532 
#Hole=	100.021
#Range=	Auto
#Laser Pol.=	No
#Raman. Pol.=	No
#Laser Pol. (°)=	-0.0007625
#Raman Pol. (°)=	89.9995
#Collection=	Microscope
#StageXY=	Marzhauser
#StageZ=	Marzhauser
#X (µm)=	-2511
#Y (µm)=	-127.6
#Z (µm)=	-10.65
#Full time(mm:ss)=	3:09
#Project=	
#Sample=	
#Site=	
#Title=	Mb_40_24_20_2x_45s_532 nm_x100_100%_600 gr_mm
#Remark=	
#Date=	14.07.2022 12:12
#Acquired=	14.07.2022 12:12:07
#Base:Fit=	10.08.2022 10:47:00
#Base:Sub=	10.08.2022 10:47:12
#Filter:Polynom=	16.08.2022 10:11:48
#AxisType[0]=Intens
#AxisUnit[0]=Cnt
#AxisType[1]=Spectr
#AxisUnit[1]=1/cm
200.554	39.5834
202.369	30.9095
204.183	26.0347
205.999	22.177
207.813	19.337
209.626	17.4001
211.439	16.216
213.253	14.9272
215.065	14.6196
216.877	14.7816
218.688	15.0301
220.5	14.3654
222.312	16.1209
224.123	16.7022
225.933	16.6049
227.742	17.438
229.552	17.7873
231.361	17.1557
233.171	16.6427
234.98	17.6109
236.787	16.133
238.595	16.8401
240.402	18.7398
242.209	18.7468
244.015	20.2712
245.822	20.6398
247.627	21.9024
249.435	22.6089
251.24	25.3455
253.045	28.9985
254.849	32.4335
256.653	35.7612
258.457	38.5764
260.26	41.4179
262.063	44.7161
263.866	47.8932
265.668	49.8257
267.47	52.9474
269.271	54.9725
271.073	57.9357
272.873	59.249
274.674	58.6485
276.474	58.872
278.274	58.8159
280.073	59.3904
281.872	59.2179
283.671	59.5938
285.47	59.926
287.268	61.886
289.065	64.2731
290.863	66.2838
292.66	68.1236
294.456	69.56
296.253	71.7693
298.049	74.8854
299.844	77.1063
301.637	78.5918
303.432	80.1186
305.227	82.6632
307.021	82.621
308.815	82.9214
310.609	83.2627
312.402	85.0294
314.195	83.9963
315.987	83.2099
317.777	83.3901
319.569	81.8734
321.36	81.509
323.151	81.0838
324.942	81.1356
326.733	79.0293
328.521	80.0386
330.31	79.8577
332.1	77.2807
333.889	76.843
335.677	75.5123
337.464	76.2192
339.252	75.8995
341.039	76.1937
342.826	73.8107
344.611	72.3109
346.398	69.4586
348.184	67.1313
349.97	66.384
351.754	62.6167
353.539	59.3516
355.324	58.443
357.106	55.2532
358.89	51.4986
360.674	48.5097
362.455	45.623
364.239	43.0796
366.021	41.6559
367.804	40.2563
369.584	38.7397
371.366	35.8269
373.145	33.4306
374.926	33.1137
376.707	33.3008
378.485	31.7132
380.265	31.5736
382.045	30.0265
383.822	30.4762
385.601	31.0429
387.378	31.3708
389.156	30.023
390.934	30.4549
392.71	29.6455
394.487	29.0986
396.262	28.1082
398.038	28.8571
399.813	28.8993
401.588	29.4756
403.362	29.1646
405.137	30.2509
406.912	30.8385
408.685	31.7256
410.459	32.2017
412.23	33.8022
414.004	33.9586
415.775	33.247
417.548	33.7074
419.318	32.3934
421.089	32.2479
422.86	33.1476
424.63	32.8842
426.401	33.3204
428.17	32.0583
429.94	31.0111
431.708	29.5827
433.478	28.7605
435.245	27.495
437.012	27.556
438.781	26.6479
440.547	24.8177
442.315	23.2809
444.081	24.1857
445.846	20.5842
447.613	19.9677
449.378	20.2632
451.142	19.6274
452.908	18.4474
454.672	16.2343
456.435	13.3813
458.2	10.7406
459.963	9.99398
461.725	10.8029
463.489	11.0294
465.251	9.75825
467.012	8.79654
468.775	8.11679
470.536	7.56067
472.296	7.9785
474.056	8.70016
475.817	7.73092
477.576	7.50479
479.335	7.27438
481.094	7.35371
482.854	7.11523
484.612	8.15392
486.37	9.94755
488.127	10.7926
489.886	13.1861
491.642	14.5754
493.398	15.7955
495.154	16.6257
496.91	18.6216
498.667	20.0105
500.422	20.1464
502.176	18.0836
503.93	19.2099
505.684	19.7505
507.438	20.539
509.191	22.373
510.946	21.5555
512.698	21.022
514.45	21.6533
516.202	20.25
517.954	20.3107
519.705	19.3712
521.456	20.2198
523.206	18.8069
524.956	18.5854
526.706	15.8355
528.456	14.7526
530.207	13.9681
531.956	15.051
533.704	14.4748
535.452	15.771
537.2	14.9145
538.947	13.8676
540.694	12.5002
542.441	10.9843
544.188	10.0822
545.934	10.8121
547.68	11.9389
549.425	12.1677
551.17	10.9428
552.915	9.59429
554.659	8.26625
556.403	7.51589
558.145	7.78116
559.889	7.05561
561.632	6.33177
563.375	5.66387
565.117	4.09276
566.859	3.8775
568.601	4.65563
570.342	3.99905
572.083	5.26802
573.824	5.03314
575.565	4.37146
577.303	5.55892
579.043	4.03018
580.782	4.64039
582.521	5.63682
584.26	5.08298
585.998	3.87725
587.734	2.00602
589.472	1.76525
591.21	2.25005
592.947	1.82633
594.684	2.02286
596.418	1.53091
598.154	1.10804
599.89	0.787713
601.626	1.12265
603.361	0.0289664
605.094	1.51196
606.828	2.22614
608.562	3.16241
610.296	2.49565
612.027	4.47746
613.761	5.14496
615.493	7.64622
617.224	8.25931
618.956	9.14065
620.688	9.54165
622.419	9.96486
624.149	10.672
625.879	10.6225
627.61	9.89118
629.338	11.3348
631.068	11.0672
632.797	12.3312
634.525	13.2107
636.254	12.8493
637.98	11.7934
639.708	10.8127
641.436	11.4128
643.162	12.099
644.889	12.4449
646.614	11.3032
648.34	11.1973
650.067	11.3034
651.791	11.2188
653.516	13.2246
655.239	13.4202
656.964	12.9436
658.687	13.059
660.411	12.2672
662.133	11.7359
663.857	11.7053
665.58	9.99254
667.301	12.2929
669.024	10.2237
670.744	8.96521
672.464	8.67217
674.186	7.64059
675.905	7.70626
677.626	9.49115
679.345	10.4727
681.065	10.3154
682.783	10.7763
684.503	11.5636
686.22	12.0435
687.939	12.3815
689.656	11.8275
691.372	13.4039
693.09	13.4914
694.806	13.6682
696.523	13.6186
698.239	14.2004
699.953	12.9257
701.67	11.8806
703.384	11.1796
705.098	12.8491
706.813	13.0273
708.526	13.5363
710.239	13.1539
711.954	12.5593
713.666	13.4569
715.378	14.3915
717.091	14.0411
718.802	14.3563
720.513	13.7168
722.226	12.7307
723.936	12.5816
725.646	12.0971
727.355	13.3117
729.067	12.4892
730.776	12.3152
732.484	12.3147
734.192	13.1782
735.902	13.4123
737.61	13.0991
739.317	12.7533
741.024	11.7997
742.731	11.6762
744.439	11.6935
746.145	11.8121
747.851	13.1835
749.556	14.7138
751.262	15.2528
752.966	17.2297
754.673	16.8678
756.377	19.6251
758.081	21.1198
759.784	22.2598
761.487	25.6202
763.19	27.1575
764.892	29.005
766.594	29.4847
768.296	30.9054
770	31.6298
771.701	32.1628
773.402	31.4162
775.102	32.6974
776.803	34.17
778.503	33.7892
780.202	33.8845
781.901	34.3778
783.6	35.6219
785.299	35.2873
786.997	37.97
788.695	39.4202
790.393	41.3757
792.09	40.463
793.787	41.3046
795.484	40.7289
797.18	40.0985
798.877	39.1538
800.572	39.4428
802.268	38.189
803.963	37.3442
805.658	37.2001
807.35	37.9497
809.044	38.1255
810.738	37.9926
812.432	38.0616
814.125	37.0855
815.818	37.5466
817.51	38.142
819.202	37.3043
820.894	35.9863
822.584	36.2203
824.275	36.2055
825.966	36.6014
827.657	37.8171
829.347	38.3175
831.037	38.551
832.725	39.2268
834.414	39.7592
836.103	39.5712
837.792	40.2578
839.481	41.1755
841.167	43.0858
842.854	43.1427
844.542	44.114
846.229	44.7473
847.914	44.7093
849.6	44.7458
851.287	43.9795
852.973	43.9058
854.656	43.6962
856.341	42.8832
858.026	42.1238
859.711	40.8424
861.393	41.0505
863.077	39.4024
864.761	38.5414
866.442	39.018
868.125	38.3882
869.808	38.1596
871.489	38.1049
873.171	35.6013
874.85	34.93
876.532	33.6065
878.213	33.2278
879.892	31.3572
881.572	30.9495
883.251	30.8994
884.931	31.6767
886.61	30.0075
888.287	31.0231
889.966	30.6701
891.643	31.3509
893.321	31.1529
894.997	31.6689
896.675	31.8703
898.352	32.5656
900.028	32.7587
901.704	31.6534
903.379	31.3243
905.055	33.2634
906.729	35.7789
908.404	34.9615
910.077	35.2252
911.75	36.0071
913.425	36.5952
915.097	36.5438
916.771	37.6916
918.443	37.7048
920.116	37.3864
921.787	38.6086
923.46	38.9007
925.13	39.1685
926.8	37.4655
928.472	37.9817
930.141	36.4897
931.813	36.9039
933.481	35.9639
935.15	35.2543
936.82	33.9411
938.488	33.1671
940.156	31.9074
941.825	31.4946
943.492	29.8667
945.158	29.9011
946.827	28.8993
948.493	29.1229
950.158	30.3168
951.824	28.9479
953.491	28.1238
955.156	25.8375
956.82	24.4723
958.486	24.8343
960.15	23.8351
961.814	24.0713
963.477	24.5023
965.142	26.1062
966.804	26.4614
968.467	26.7058
970.129	26.7212
971.79	27.9687
973.454	28.516
975.115	29.9041
976.776	30.6704
978.436	29.6646
980.096	29.9349
981.756	29.5987
983.417	29.7427
985.077	29.5739
986.736	29.7884
988.394	29.9826
990.052	27.8684
991.71	27.0016
993.368	29.477
995.025	29.8437
996.682	28.9644
998.341	28.3077
999.998	28.194
1001.65	26.9644
1003.31	27.2973
1004.97	27.1633
1006.62	26.1171
1008.28	26.7436
1009.93	27.3995
1011.58	28.3606
1013.24	29.1049
1014.89	30.1217
1016.54	29.6245
1018.2	29.2795
1019.85	30.9689
1021.5	31.9983
1023.16	33.1897
1024.81	33.6549
1026.46	33.3504
1028.11	35.4939
1029.76	37.6699
1031.41	38.0126
1033.06	38.4847
1034.71	37.4573
1036.36	38.3811
1038.01	39.6444
1039.66	41.4667
1041.31	44.3652
1042.95	44.7552
1044.6	45.3071
1046.25	45.2276
1047.9	44.9665
1049.54	43.8934
1051.19	44.8491
1052.84	45.6758
1054.48	44.2654
1056.13	43.5959
1057.77	42.4495
1059.42	40.1589
1061.06	38.812
1062.71	38.6273
1064.35	37.4
1066	35.8304
1067.64	34.4135
1069.28	32.8992
1070.93	33.2204
1072.57	32.3226
1074.21	33.1288
1075.85	31.5364
1077.49	28.9985
1079.13	27.2422
1080.78	27.1853
1082.42	26.4951
1084.06	25.946
1085.7	26.418
1087.34	26.7851
1088.97	25.55
1090.61	25.8687
1092.25	25.5866
1093.89	25.0603
1095.53	25.0789
1097.17	23.1268
1098.8	21.667
1100.44	21.3727
1102.08	22.447
1103.71	21.668
1105.35	22.0528
1106.99	22.7358
1108.62	22.2131
1110.26	22.726
1111.89	22.5628
1113.52	22.2496
1115.16	22.0525
1116.79	21.6543
1118.43	22.5717
1120.06	22.2036
1121.69	21.3956
1123.32	21.2607
1124.96	19.3111
1126.59	18.7679
1128.22	19.247
1129.85	19.9777
1131.48	20.1316
1133.11	21.0256
1134.75	20.4654
1136.37	18.971
1138	19.4217
1139.63	18.5121
1141.26	17.5281
1142.89	17.9123
1144.52	17.57
1146.15	16.0223
1147.78	14.9559
1149.4	15.0532
1151.03	15.2062
1152.66	14.7751
1154.28	12.355
1155.91	11.6265
1157.54	11.7852
1159.16	12.4168
1160.79	11.4766
1162.41	11.3315
1164.04	11.0057
1165.66	9.87575
1167.29	9.75222
1168.91	8.59782
1170.53	5.90363
1172.16	5.67306
1173.78	4.74129
1175.4	2.96444
1177.02	2.07096
1178.65	0.710412
1180.27	0.555564
1181.89	1.4981
1183.51	1.65789
1185.13	2.22383
1186.75	3.04267
1188.37	3.73531
1189.99	3.56679
1191.61	5.17062
1193.23	7.099
1194.85	8.22171
1196.47	9.9748
1198.08	12.2601
1199.7	13.5808
1201.32	16.0451
1202.94	17.9042
1204.55	19.6493
1206.17	22.098
1207.79	24.2562
1209.4	26.9677
1211.02	28.9391
1212.63	30.9668
1214.25	34.2236
1215.86	36.8276
1217.48	39.7659
1219.09	43.4941
1220.71	46.676
1222.32	49.8722
1223.93	53.0685
1225.54	56.9579
1227.16	58.2306
1228.77	62.8369
1230.38	65.4851
1231.99	67.3498
1233.6	69.5722
1235.22	72.5532
1236.83	76.6519
1238.44	80.483
1240.05	82.6598
1241.66	84.7935
1243.26	86.5527
1244.87	89.8469
1246.48	92.1876
1248.09	94.6077
1249.7	94.8125
1251.31	96.2916
1252.92	98.3708
1254.52	99.2782
1256.13	100.756
1257.74	103.324
1259.34	103.968
1260.95	106.14
1262.55	108.262
1264.16	110.109
1265.76	112.097
1267.37	113.807
1268.97	115.138
1270.58	117.534
1272.18	119.297
1273.78	121.192
1275.39	121.592
1276.99	123.588
1278.59	125.219
1280.2	124.631
1281.8	125.706
1283.4	126.755
1285	127.975
1286.6	131.259
1288.2	131.718
1289.8	133.137
1291.4	135
1293	136.523
1294.6	138.532
1296.2	140.145
1297.8	141.714
1299.4	142.517
1301	142.132
1302.6	142.545
1304.19	143.64
1305.79	143.265
1307.39	143.046
1308.99	144.207
1310.58	143.819
1312.18	146.29
1313.77	148.919
1315.37	149.627
1316.96	150.845
1318.56	150.721
1320.15	150.832
1321.75	151.036
1323.34	150.136
1324.94	151.084
1326.53	150.146
1328.12	148.843
1329.72	147.418
1331.31	146.794
1332.9	145.202
1334.49	143.955
1336.08	144.465
1337.67	142.182
1339.27	141.503
1340.86	141.592
1342.45	140.564
1344.04	138.634
1345.63	137.405
1347.22	137.115
1348.8	136.226
1350.39	135.688
1351.98	134.24
1353.57	133.087
1355.16	131.596
1356.75	132.126
1358.33	129.577
1359.92	127.646
1361.51	125.885
1363.09	125.5
1364.68	122.293
1366.27	121.29
1367.85	118.778
1369.44	118.408
1371.02	116.694
1372.61	114.753
1374.19	114.3
1375.77	112.661
1377.36	111.109
1378.94	109.906
1380.52	108.239
1382.11	109.074
1383.69	108.079
1385.27	107.788
1386.85	108.723
1388.43	109.188
1390.02	110.762
1391.6	113.024
1393.18	112.817
1394.76	112.604
1396.34	114.307
1397.92	114.743
1399.5	115.869
1401.08	117.793
1402.65	118.308
1404.23	120.819
1405.81	122.196
1407.39	124.549
1408.97	126.552
1410.54	131.097
1412.12	134.693
1413.7	137.986
1415.27	142.685
1416.85	145.488
1418.43	150.564
1420	154.525
1421.58	158.322
1423.15	163.134
1424.73	169.325
1426.3	174.257
1427.87	178.275
1429.45	183.141
1431.02	188.267
1432.6	191.736
1434.17	195.327
1435.74	197.916
1437.31	199.88
1438.89	202.319
1440.46	204.886
1442.03	205.921
1443.6	206.544
1445.17	207.749
1446.74	208.055
1448.31	207.896
1449.88	206.325
1451.45	205.539
1453.02	204.113
1454.59	200.565
1456.16	198.803
1457.72	197.69
1459.29	194.166
1460.86	190.675
1462.43	186.939
1463.99	183.713
1465.56	178.565
1467.13	173.768
1468.69	169.174
1470.26	164.534
1471.83	158.998
1473.39	153.898
1474.95	148.489
1476.52	141.348
1478.08	135.669
1479.65	131.518
1481.21	125.806
1482.78	121.266
1484.34	116.749
1485.9	113.063
1487.47	108.37
1489.03	105.035
1490.59	101.27
1492.15	97.5863
1493.71	94.8956
1495.27	90.7424
1496.84	88.0811
1498.39	85.8691
1499.96	83.1982
1501.52	84.1062
1503.07	82.8221
1504.64	79.7381
1506.19	78.6426
1507.75	77.1348
1509.31	75.3557
1510.87	73.2845
1512.43	72.5492
1513.98	71.0535
1515.54	69.3013
1517.1	68.6938
1518.65	68.4469
1520.21	66.1931
1521.77	67.5845
1523.32	68.3202
1524.88	69.359
1526.44	70.4527
1527.99	71.7571
1529.54	72.4639
1531.1	73.4507
1532.65	74.2481
1534.21	76.8276
1535.76	77.9027
1537.31	77.672
1538.87	79.7332
1540.42	82.7462
1541.97	85.3323
1543.52	87.669
1545.07	91.2369
1546.63	94.1727
1548.18	95.8367
1549.73	97.9809
1551.28	99.9802
1552.83	102.161
1554.38	103.902
1555.93	106.531
1557.48	107.555
1559.03	110.023
1560.57	112.645
1562.12	114.598
1563.67	116.818
1565.22	119.777
1566.77	122.301
1568.31	125.842
1569.86	126.448
1571.41	128.711
1572.95	131.285
1574.5	134.285
1576.05	137.023
1577.59	139.648
1579.14	143.351
1580.68	143.366
1582.23	144.67
1583.77	147.571
1585.31	148.116
1586.86	149.972
1588.4	151.486
1589.95	152.825
1591.49	154.992
1593.03	155.695
1594.57	157.767
1596.11	157.929
1597.66	157.884
1599.2	158.15
1600.74	158.515
1602.28	157.863
1603.82	156.959
1605.36	154.967
1606.9	153.695
1608.44	153.311
1609.98	152.638
1611.52	152.74
1613.06	152.172
1614.6	152.676
1616.13	152.275
1617.67	152.013
1619.21	152.302
1620.75	151.437
1622.28	151.156
1623.82	150.036
1625.36	149.243
1626.89	149.017
1628.43	148.003
1629.96	147.608
1631.5	146.001
1633.04	145.767
1634.57	146.028
1636.11	147.327
1637.64	146.546
1639.17	146.25
1640.71	148.251
1642.24	150.004
1643.77	150.438
1645.31	150.749
1646.84	150.199
1648.37	150.889
1649.9	151.846
1651.43	152.498
1652.96	152.315
1654.5	151.809
1656.03	151.673
1657.56	150.816
1659.09	149.404
1660.62	148.204
1662.15	146.392
1663.67	145.728
1665.2	142.447
1666.73	139.203
1668.26	136.26
1669.79	131.027
1671.32	127.631
1672.84	122.574
1674.37	117.24
1675.9	113.448
1677.43	108.806
1678.95	103.604
1680.48	99.4567
1682	94.348
1683.53	90.5873
1685.05	87.3181
1686.58	83.6511
1688.1	79.1905
1689.63	74.6101
1691.15	70.9755
1692.68	67.5987
1694.2	65.1123
1695.72	62.1673
1697.25	58.6254
1698.77	55.1578
1700.29	51.3323
1701.81	48.8882
1703.33	46.2232
1704.86	44.4189
1706.38	42.3674
1707.9	38.9428
1709.42	37.7449
1710.94	35.2707
1712.46	33.4503
1713.98	33.1963
1715.5	32.7066
1717.02	32.7803
1718.54	31.3626
1720.06	30.3066
1721.57	29.7249
1723.09	29.2705
1724.61	29.4696
1726.13	29.6581
1727.64	28.6889
1729.16	27.4158
1730.68	27.3252
1732.19	27.3757
1733.71	26.7896
1735.23	25.9914
1736.74	26.6898
1738.26	25.1651
1739.77	23.8987
1741.29	21.6964
1742.8	21.4024
1744.31	21.1544
1745.83	19.9515
1747.34	18.5521
1748.85	17.1043
1750.37	16.4788
1751.88	17.024
1753.39	16.3993
1754.91	16.3226
1756.42	16.1625
1757.93	15.3782
1759.44	16.3883
1760.95	16.5798
1762.46	15.1287
1763.97	13.8467
1765.48	13.5867
1766.99	13.6647
1768.5	13.3894
1770.01	12.4494
1771.52	11.8748
1773.03	11.6536
1774.54	10.8715
1776.04	10.5499
1777.55	10.3007
1779.06	9.63361
1780.57	9.20601
1782.07	8.31918
1783.58	7.70738
1785.09	8.34208
1786.59	8.06369
1788.1	8.69252
1789.6	8.73503
1791.11	7.59597
1792.61	6.57288
1794.12	6.02381
1795.62	5.74789
1797.13	4.88002
1798.63	3.61739
1800.13	4.03044
1801.64	3.52058
1803.14	3.14739
1804.64	4.03551
1806.15	4.09795
1807.65	4.03587
1809.15	3.17255
1810.65	3.01713
1812.15	2.67411
1813.65	1.64031
1815.16	2.34996
1816.66	2.55169
1818.15	2.46678
1819.66	2.39403
1821.16	2.44285
1822.65	2.97108
1824.15	3.76889
1825.65	4.24792
1827.15	5.60775
1828.65	5.48289
1830.15	6.07076
1831.64	7.52442
1833.14	7.17196
1834.64	6.98935
1836.14	6.56836
1837.63	6.69962
1839.13	6.24539
1840.62	6.53256
1842.12	6.79431
1843.62	6.60357
1845.11	6.78194
1846.61	6.54883
1848.1	6.5945
1849.6	6.10989
1851.09	5.48029
1852.58	4.97822
1854.08	4.62693
1855.57	3.802
1857.06	3.10688
1858.55	2.81114
1860.05	3.1792
1861.54	3.34379
1863.03	2.66835
1864.52	2.05599
1866.01	0.94228
1867.5	-0.391453
1869	-0.314036
1870.49	-0.184351
1871.98	0.427109
1873.47	0.406823
1874.96	1.19493
1876.44	2.29121
1877.93	2.64597
1879.42	3.73657
1880.91	3.52879
1882.4	3.44434
1882.47	2.53355
1883.96	4.06882
1885.46	4.5163
1886.95	5.41987
1888.44	6.53648
1889.94	7.99631
1891.43	8.24528
1892.93	9.12862
1894.42	9.22475
1895.91	9.64318
1897.4	8.755
1898.89	9.7485
1900.39	10.1242
1901.88	10.7191
1903.37	11.1424
1904.86	11.588
1906.35	11.0756
1907.84	12.6076
1909.33	13.4404
1910.82	14.466
1912.31	15.0827
1913.8	15.3829
1915.29	15.3496
1916.77	15.2899
1918.26	15.2878
1919.75	15.9049
1921.24	15.0375
1922.73	14.154
1924.21	13.9691
1925.7	14.1855
1927.19	14.73
1928.67	14.4203
1930.16	14.4287
1931.64	14.5759
1933.13	13.9495
1934.61	13.1791
1936.1	11.9145
1937.58	10.9738
1939.07	10.6993
1940.55	10.1497
1942.04	10.283
1943.52	10.0427
1945	8.93443
1946.49	7.96681
1947.97	7.50743
1949.45	7.18041
1950.93	5.86662
1952.42	5.53665
1953.9	5.57414
1955.38	5.38788
1956.86	5.80601
1958.34	6.3605
1959.82	4.82875
1961.3	5.08834
1962.78	4.28318
1964.26	5.18829
1965.74	4.32856
1967.22	4.19733
1968.7	3.33577
1970.18	3.01139
1971.65	3.22517
1973.13	4.43695
1974.61	4.8582
1976.09	5.59492
1977.57	6.25899
1979.04	8.42627
1980.52	8.92073
1982	9.95625
1983.47	10.121
1984.95	10.942
1986.42	10.9113
1987.9	10.9631
1989.37	12.1273
1990.85	11.7713
1992.32	11.9263
1993.8	12.3736
1995.27	12.6916
1996.75	13.6438
1998.22	14.0838
1999.69	14.5864
2001.17	14.4136
2002.64	14.1255
2004.11	14.4112
2005.58	14.5987
2007.05	14.5652
2008.53	14.6386
2010	15.0748
2011.47	15.1047
2012.94	14.8952
2014.41	14.2732
2015.88	14.9758
2017.35	15.0899
2018.82	15.2712
2020.29	15.5257
2021.76	15.97
2023.23	16.0049
2024.7	16.0764
2026.16	16.7008
2027.63	17.2324
2029.1	16.2364
2030.57	14.985
2032.03	14.8076
2033.5	14.722
2034.97	14.9036
2036.44	14.943
2037.9	16.5069
2039.37	16.1182
2040.83	15.7473
2042.3	15.3271
2043.76	15.6206
2045.23	15.5351
2046.69	15.223
2048.16	15.9271
2049.62	15.3863
2051.08	15.8787
2052.55	16.2027
2054.01	15.6554
2055.47	16.0128
2056.94	15.8159
2058.4	16.4516
2059.86	16.7591
2061.32	16.446
2062.79	16.5952
2064.25	16.1518
2065.71	18.297
2067.17	20.2902
2068.63	21.6338
2070.09	21.5629
2071.55	22.7021
2073.01	24.0852
2074.47	24.1229
2075.93	24.8366
2077.39	25.0121
2078.85	26.8271
2080.31	28.7566
2081.76	29.2927
2083.22	31.3139
2084.68	32.6969
2086.13	33.7759
2087.59	36.3706
2089.05	38.4319
2090.51	39.1511
2091.96	39.4741
2093.42	39.5514
2094.87	40.6294
2096.33	41.0321
2097.78	42.7105
2099.24	44.1095
2100.69	46.2857
2102.15	47.8638
2103.6	49.1127
2105.06	50.8945
2106.51	52.2779
2107.96	53.132
2109.42	55.1651
2110.87	56.4993
2112.32	57.3841
2113.77	59.2464
2115.23	61.0099
2116.68	62.5562
2118.13	64.6569
2119.58	66.4065
2121.03	68.2764
2122.48	70.1626
2123.93	73.5167
2125.38	76.5368
2126.83	77.8802
2128.28	79.7946
2129.73	81.9324
2131.18	84.3114
2132.63	86.8166
2134.08	88.8241
2135.53	92.6058
2136.97	95.3913
2138.42	99.5697
2139.87	101.799
2141.32	102.398
2142.76	104.066
2144.21	106.37
2145.66	107.994
2147.1	109.287
2148.55	111.507
2150	114.126
2151.44	118.101
2152.89	120.202
2154.33	122.351
2155.78	125.015
2157.22	126.979
2158.66	127.671
2160.11	130.495
2161.55	131.488
2163	132.105
2164.44	132.32
2165.88	133.862
2167.32	134.26
2168.77	134.406
2170.21	136.201
2171.65	137.295
2173.09	138.405
2174.53	137.257
2175.97	136.4
2177.41	135.859
2178.85	135.077
2180.29	135.1
2181.73	135.017
2183.17	134.366
2184.61	133.958
2186.05	132.831
2187.49	130.581
2188.93	128.357
2190.37	128.046
2191.81	125.447
2193.24	124.575
2194.68	123.256
2196.12	121.039
2197.56	118.645
2198.99	115.17
2200.43	113.399
2201.87	110.215
2203.3	108.415
2204.74	105.928
2206.17	103.005
2207.61	100.582
2209.04	97.7945
2210.48	95.1378
2211.91	91.4359
2213.35	87.8134
2214.78	85.1305
2216.21	82.7861
2217.65	79.9052
2219.08	77.9398
2220.51	76.7451
2221.95	75.3857
2223.38	73.6512
2224.81	70.2401
2226.24	68.2823
2227.67	65.5488
2229.1	62.8853
2230.54	60.5185
2231.97	58.8795
2233.4	56.3556
2234.83	53.7216
2236.26	51.4566
2237.69	49.7458
2239.11	47.3698
2240.54	47.0838
2241.97	46.123
2243.4	44.5823
2244.83	43.1092
2246.26	42.1861
2247.69	41.1028
2249.11	39.8386
2250.54	39.3304
2251.97	39.0925
2253.4	37.4292
2254.82	36.8657
2256.25	35.9692
2257.67	34.5469
2259.1	33.513
2260.53	33.1232
2261.95	33.2857
2263.38	30.9408
2264.8	29.133
2266.23	27.963
2267.65	26.6267
2269.07	25.8768
2270.5	24.5123
2271.92	24.136
2273.34	23.1533
2274.77	23.377
2276.19	21.5653
2277.61	20.1131
2279.03	19.6916
2280.46	18.3453
2281.88	17.4744
2283.3	16.7873
2284.72	15.3965
2286.14	14.0981
2287.56	14.4197
2288.98	13.8586
2290.4	14.3101
2291.82	14.2568
2293.24	12.5084
2294.66	10.3452
2296.08	10.0013
2297.5	10.1473
2298.92	9.62097
2300.34	8.94938
2301.76	9.29325
2303.17	9.33191
2304.59	9.5757
2306.01	9.43563
2307.43	9.97306
2308.84	10.469
2310.26	10.9455
2311.68	11.6354
2313.09	11.7572
2314.51	12.1708
2315.92	12.6652
2317.34	13.3327
2318.75	12.703
2320.17	12.9605
2321.58	13.4829
2323	13.4543
2324.41	12.2811
2325.82	12.1793
2327.24	11.8487
2328.65	11.4428
2330.06	11.2015
2331.48	10.8989
2332.89	10.2471
2334.3	10.1235
2335.71	9.37504
2337.12	9.30752
2338.54	8.17651
2339.95	6.91137
2341.36	6.61948
2342.77	6.96481
2344.18	5.76338
2345.59	4.44302
2347	3.41438
2348.41	2.25283
2349.82	2.1118
2351.23	1.62806
2352.64	2.30014
2354.04	1.29266
2355.45	1.53773
2356.86	1.86777
2358.27	2.47247
2359.68	1.89471
2361.08	2.05618
2362.49	1.13827
2363.9	0.67432
2365.3	0.965775
2366.71	2.31186
2368.12	2.76598
2369.52	3.16923
2370.93	4.00174
2372.33	4.4365
2373.74	3.81647
2375.14	3.74904
2376.55	4.52307
2377.95	5.10168
2379.36	5.52273
2380.76	4.95894
2382.16	5.62614
2383.57	6.20437
2384.97	6.60607
2386.37	6.52777
2387.78	6.61251
2389.18	6.38525
2390.58	6.4264
2391.98	6.14918
2393.38	6.46841
2394.79	5.65989
2396.19	5.84773
2397.59	5.1705
2398.99	4.81445
2400.39	4.23674
2401.79	3.67527
2403.19	3.63472
2404.59	4.07441
2405.99	2.30004
2407.39	2.48546
2408.78	2.87882
2410.18	3.91551
2411.58	5.27336
2412.98	4.39435
2414.38	4.36247
2415.77	5.48908
2417.17	5.51101
2418.57	5.24719
2419.97	6.66932
2421.36	7.2624
2422.76	6.69716
2424.15	5.54363
2425.55	6.39358
2426.95	6.12182
2428.34	5.83149
2429.74	4.63848
2431.13	5.2347
2432.52	5.12333
2433.92	5.57879
2435.31	5.3401
2436.71	5.11171
2438.1	4.96453
2439.49	5.2535
2440.89	5.30452
2442.28	4.98197
2443.67	3.90569
2445.06	4.32566
2446.46	5.0943
2447.85	4.49705
2449.24	3.60523
2450.63	3.43531
2452.02	4.08957
2453.41	3.90868
2454.8	2.46989
2456.19	2.01502
2457.58	2.77374
2458.97	1.75333
2460.36	1.5874
2461.75	1.47953
2463.14	1.70224
2464.53	0.630724
2465.92	0.741762
2467.31	1.63177
2468.69	2.89308
2470.08	3.57202
2471.47	4.03607
2472.86	5.34635
2474.24	6.37841
2475.63	6.60163
2477.02	8.27103
2478.4	8.6927
2479.79	8.62683
2481.17	9.24911
2482.56	8.39038
2483.94	9.73412
2485.33	9.29357
2486.72	8.00448
2488.1	9.24698
2489.48	9.11414
2490.87	7.61415
2492.25	6.90424
2493.64	6.73314
2495.02	7.65904
2496.4	6.98843
2497.79	6.8605
2499.17	6.51125
2500.55	7.4006
2501.93	7.05022
2503.31	6.45927
2504.69	5.82569
2506.08	5.72242
2507.46	5.85897
2508.84	5.948
2510.22	5.83578
2511.6	5.20775
2512.98	4.58508
2514.36	5.12817
2515.74	5.26906
2517.12	4.31312
2518.5	4.56623
2519.88	5.79238
2521.25	4.80369
2522.63	5.38869
2524.01	5.25165
2525.39	6.17305
2526.77	6.16884
2528.14	5.65867
2529.52	6.57558
2530.9	6.86407
2532.27	6.47709
2533.65	6.04758
2535.03	6.42223
2536.4	7.49631
2537.78	7.7435
2539.15	8.33626
2540.53	8.17362
2541.9	9.09108
2543.28	8.97334
2544.65	9.60319
2546.03	9.67394
2547.4	9.87496
2548.77	10.0211
2550.15	10.9922
2551.52	10.5886
2552.89	10.8759
2554.27	9.8928
2555.64	10.016
2557.01	10.8615
2558.38	10.0019
2559.75	10.1282
2561.12	10.391
2562.5	10.5565
2563.87	11.2462
2565.24	10.5866
2566.61	11.0355
2567.98	9.92792
2569.35	9.31558
2570.72	9.53016
2572.09	8.93154
2573.46	8.29056
2574.83	8.6099
2576.19	8.3345
2577.56	8.51737
2578.93	8.80422
2580.3	8.50537
2581.67	8.44487
2583.04	8.06774
2584.4	7.92182
2585.77	7.43794
2587.14	7.33739
2588.5	7.62909
2589.87	6.21171
2591.23	6.67169
2592.6	5.64197
2593.97	4.44194
2595.33	4.12543
2596.7	3.5137
2598.06	3.15981
2599.43	2.80851
2600.79	2.47486
2602.15	1.81396
2603.52	1.81348
2604.88	2.50741
2606.25	2.47731
2607.61	3.12969
2608.97	3.9389
2610.33	4.13424
2611.7	4.04947
2613.06	4.31039
2614.42	3.86402
2615.78	4.96756
2617.15	4.96854
2618.51	5.49375
2619.87	5.84175
2621.23	5.80123
2622.59	6.34787
2623.95	7.63942
2625.31	7.70589
2626.67	7.22512
2628.03	8.12502
2629.39	7.95247
2630.75	8.29901
2632.1	8.08866
2633.46	7.27936
2634.82	7.06269
2636.18	7.3148
2637.54	7.78945
2638.89	8.28255
2640.25	7.18065
2641.61	6.98497
2642.97	7.42353
2644.32	7.05709
2645.68	7.49352
2647.03	7.4811
2648.39	6.89367
2649.75	5.63808
2651.1	4.58961
2652.46	4.79444
2653.81	3.96057
2655.17	3.6873
2656.52	2.90412
2657.88	2.52415
2659.23	2.01292
2660.58	2.03075
2661.94	2.83331
2663.29	2.7321
2664.64	2.05814
2666	2.05132
2667.35	1.56882
2668.7	1.15347
2670.05	0.708988
2671.4	2.06721
2672.76	3.45359
2674.11	2.98671
2675.46	3.31605
2676.81	3.19281
2678.16	2.28628
2679.51	3.23038
2680.86	4.0573
2682.21	5.28758
2683.56	6.31274
2684.91	6.55345
2686.26	7.21178
2687.61	7.24538
2688.96	7.34329
2690.3	7.43389
2691.65	7.42322
2693	7.04289
2694.35	8.22177
2695.7	9.8
2697.04	10.0802
2698.39	10.5741
2699.74	10.4449
2701.08	10.2658
2702.43	10.9262
2703.77	11.6844
2705.12	11.3928
2706.47	11.6608
2707.81	11.7905
2709.16	11.5477
2710.5	11.8432
2711.85	12.1765
2713.19	11.8639
2714.53	11.1433
2715.88	11.537
2717.22	11.208
2718.57	12.458
2719.91	13.3272
2721.25	13.1794
2722.59	12.915
2723.94	13.1278
2725.28	14.7506
2726.62	14.4683
2727.96	14.8446
2729.3	15.0448
2730.65	13.9069
2731.99	14.384
2733.33	13.9796
2734.67	13.8831
2736.01	13.9193
2737.35	14.1699
2738.69	14.601
2740.03	13.9591
2741.37	12.5532
2742.71	12.6071
2744.05	12.6054
2745.38	12.0677
2746.72	11.8106
2748.06	11.5601
2749.4	11.5668
2750.74	10.1137
2752.07	9.21899
2753.41	8.68448
2754.75	8.55186
2756.09	8.33749
2757.42	6.91007
2758.76	7.5786
2760.09	8.13115
2761.43	8.25059
2762.77	8.16979
2764.1	7.21927
2765.44	6.43166
2766.77	5.75106
2768.11	5.40537
2769.44	5.06644
2770.77	4.0328
2772.11	3.73243
2773.44	3.46913
2774.77	2.94717
2776.11	2.56677
2777.44	3.06383
2778.77	2.09651
2780.11	1.32578
2781.44	0.959336
2782.77	0.923389
2784.1	0.931155
2785.43	1.41124
2786.77	0.665893
2788.1	0.514409
2789.43	-0.268445
2790.76	0.400759
2792.09	1.15108
2793.42	1.05725
2794.75	0.644256
2796.08	0.387149
2797.41	-0.649342
2798.74	-0.823465
2800.07	-1.31666
2801.4	-1.39815
2802.72	-2.036
2804.05	-2.27319
2805.38	-3.05269
2806.71	-3.15115
2808.04	-3.09155
2809.36	-3.02779
2810.69	-2.69786
2812.02	-3.04798
2813.34	-1.68
2814.67	-1.3859
2816	-0.869132
2817.32	0.149715
2818.65	1.24973
2819.97	3.07978
2821.3	4.88297
2822.62	6.3012
2823.95	8.82276
2825.27	12.2625
2826.6	14.5596
2827.92	17.1236
2829.25	20.8554
2830.57	23.9637
2831.89	27.1972
2833.22	30.0092
2834.54	33.7147
2835.86	36.7468
2837.18	41.4009
2838.51	46.6294
2839.83	50.972
2841.15	54.9842
2842.47	60.2452
2843.79	64.5432
2845.11	68.9923
2846.43	74.9409
2847.76	80.7133
2849.08	86.6281
2850.4	92.9794
2851.72	98.4785
2853.04	104.894
2854.36	110.626
2855.67	117.089
2856.99	122.796
2858.31	129.065
2859.63	134.017
2860.95	139.359
2862.27	144.716
2863.58	150.681
2864.9	156.481
2866.22	160.997
2867.54	165.792
2868.85	170.247
2870.17	174.501
2871.49	179.018
2872.8	183.014
2874.12	187.104
2875.43	190.934
2876.75	195.301
2878.07	199
2879.38	202.584
2880.7	206.04
2882.01	211.261
2883.32	215.373
2884.64	218.503
2885.95	222.691
2887.27	227.378
2888.58	232.139
2889.89	238.204
2891.21	243.202
2892.52	249.008
2893.83	254.311
2895.14	259.971
2896.46	266.05
2897.77	272.149
2899.08	279.241
2900.39	286.227
2901.7	292.97
2903.01	301.439
2904.32	308.441
2905.63	316.219
2906.94	325.287
2908.25	335.415
2909.56	344.163
2910.87	354.816
2912.18	365.094
2913.49	374.509
2914.8	383.416
2916.11	392.796
2917.42	401.335
2918.72	409.788
2920.03	416.927
2921.34	425.524
2922.65	431.211
2923.95	438.071
2925.26	441.821
2926.57	446.221
2927.88	449.29
2929.18	451.75
2930.49	452.057
2931.79	450.658
2933.1	449.457
2934.4	446.602
2935.71	444.324
2937.01	441.544
2938.32	435.736
2939.62	431.297
2940.93	424.286
2942.23	417.636
2943.54	409.551
2944.84	402.054
2946.14	395.093
2947.45	386.264
2948.75	376.147
2950.05	366.171
2951.35	356.476
2952.66	347.218
2953.96	337.62
2955.26	328.133
2956.56	317.636
2957.86	307.86
2959.16	298.541
2960.46	289.06
2961.77	280.92
2963.07	271.675
2964.37	262.476
2965.66	253.38
2966.96	244.945
2968.26	236.959
2969.56	228.763
2970.86	222.611
2972.16	216.117
2973.46	208.803
2974.76	201.677
2976.06	195.096
2977.35	187.806
2978.65	180.601
2979.95	173.977
2981.25	167.8
2982.54	160.497
2983.84	153.98
2985.14	147.915
2986.43	141.498
2987.73	133.499
2989.02	126.834
2990.32	118.748
2991.62	112.07
2992.91	104.691
2994.21	96.5236
2995.5	88.6739
2996.8	81.8154
2998.09	75.9365
2999.38	70.0984
3000.68	64.1038
3001.97	57.7988
3003.26	51.7336
3004.56	47.9523
3005.85	41.9253
3007.14	37.6882
3008.43	33.6315
3009.73	30.1299
3011.02	26.3763
3012.31	21.5651
3013.6	17.8089
3014.89	15.2224
3016.19	12.9657
3017.48	10.9094
3018.77	9.38506
3020.06	7.65447
3021.35	6.31099
3022.64	4.75318
3023.93	3.85806
3025.22	2.27045
3026.5	2.04708
3027.79	0.80209
3029.08	-0.158224
3030.37	-0.801342
3031.66	-0.974843
3032.95	-1.02355
3034.24	-0.17112
3035.52	0.836543
3036.81	0.790414
3038.1	1.44283
3039.39	2.75741
3040.67	3.64014
3041.96	4.05292
3043.25	5.01846
3044.53	6.1259
3045.82	6.73471
3047.1	6.86297
3048.39	8.54764
3049.67	8.9636
3050.96	8.87271
3052.24	8.99187
3053.53	8.74608
3054.81	7.76619
3056.1	7.16831
3057.38	6.94459
3058.67	7.55833
3059.95	7.72163
3061.23	8.63237
3062.52	8.45676
3063.8	8.55836
3065.08	7.85623
3066.36	8.64251
3067.65	9.39615
3068.93	9.62979
3070.21	7.72368
3071.49	8.24796
3072.77	8.14914
3074.05	7.55368
3075.33	6.87282
3076.61	6.00027
3077.89	5.75591
3079.17	6.16675
3080.45	5.32222
3081.73	4.61625
3083.01	3.80438
3084.29	2.99101
3085.57	2.57836
3086.85	1.91168
3088.13	2.45647
3089.41	2.1466
3090.68	1.79698
3091.96	2.42287
3093.24	2.03445
3094.52	3.36444
3095.79	4.39423
3097.07	4.92882
3098.35	5.88172
3099.62	6.25039
3100.9	6.85245
3102.18	8.01647
3103.45	8.99716
3104.73	10.133
3106	10.91
3107.28	12.9936
3108.55	13.9137
3109.83	14.7989
3111.1	16.2274
3112.38	17.7139
3113.65	18.978
3114.93	20.1497
3116.2	21.4816
3117.47	22.3421
3118.75	23.5487
3120.02	25.2507
3121.29	27.4883
3122.57	29.519
3123.84	30.6746
3125.11	33.128
3126.38	34.3487
3127.65	36.474
3128.92	38.1701
3130.2	41.0283
3131.47	42.8079
3132.74	43.931
3134.01	44.707
3135.28	47.7701
3136.55	49.3328
3137.82	51.356
3139.09	52.9892
3140.36	55.0176
3141.63	56.8844
3142.9	58.4651
3144.17	59.9909
3145.43	61.8137
3146.7	63.7722
3147.97	65.0056
3149.24	66.4151
