#Acq. time (s)=	45
#Accumulations=	2
#Range (cm-¹)=	200...3150
#Windows=	2
#Auto scanning=	Off
#Autofocus=	Off
#Macrospot=	Off
#AutoExposure=	Off
#Spike filter=	Multiple accum.
#Delay time (s)=	0
#Binning=	1
#Readout mode=	Signal
#DeNoise=	Off
#ICS correction=	On
#Dark correction=	Off
#Inst. Process=	Off
#Detector Gain=	Best Dynamic Range
#Detector ADC=	20 kHz       
#Detector temperature (°C)=	-70.08
#Instrument=	LabRAM HR Evol
#Detector=	Synapse
#Objective=	x100
#Grating=	600 gr/mm
#ND Filter=	100%
#Laser (nm)=	532 
#Hole=	100.021
#Range=	Auto
#Laser Pol.=	No
#Raman. Pol.=	No
#Laser Pol. (°)=	-0.0007625
#Raman Pol. (°)=	89.9995
#Collection=	Microscope
#StageXY=	Marzhauser
#StageZ=	Marzhauser
#X (µm)=	-2541.9
#Y (µm)=	-38.3
#Z (µm)=	-10.35
#Full time(mm:ss)=	3:19
#Project=	
#Sample=	
#Site=	
#Title=	Mb_40_24_03_2x_45s_532 nm_x100_100%_600 gr_mm
#Remark=	
#Date=	14.07.2022 10:54
#Acquired=	14.07.2022 10:54:32
#Base:Fit=	10.08.2022 10:47:00
#Base:Sub=	10.08.2022 10:47:12
#Filter:Polynom=	16.08.2022 10:11:48
#AxisType[0]=Intens
#AxisUnit[0]=Cnt
#AxisType[1]=Spectr
#AxisUnit[1]=1/cm
200.554	24.0366
202.369	20.7688
204.183	19.1476
205.999	17.0804
207.813	15.6851
209.626	13.8068
211.439	12.4032
213.253	11.2737
215.065	10.005
216.877	8.25663
218.688	7.49402
220.5	7.47493
222.312	5.82262
224.123	4.49406
225.933	2.84107
227.742	3.1832
229.552	2.78936
231.361	2.99076
233.171	2.72591
234.98	2.86414
236.787	3.15857
238.595	3.17386
240.402	2.96457
242.209	3.39125
244.015	3.4088
245.822	3.69848
247.627	4.64224
249.435	5.50145
251.24	6.39017
253.045	6.35793
254.849	7.03602
256.653	7.98881
258.457	9.37161
260.26	9.1365
262.063	10.0571
263.866	10.9618
265.668	10.0045
267.47	9.34818
269.271	10.1548
271.073	9.75297
272.873	9.66844
274.674	9.65394
276.474	9.63416
278.274	8.74051
280.073	7.80429
281.872	8.18921
283.671	7.94396
285.47	6.66416
287.268	5.88332
289.065	6.88611
290.863	6.12066
292.66	6.08062
294.456	5.97917
296.253	5.59467
298.049	5.06078
299.844	6.2122
301.637	6.07474
303.432	6.21373
305.227	6.18721
307.021	6.57996
308.815	7.62668
310.609	8.86014
312.402	9.82867
314.195	10.8926
315.987	13.4152
317.777	14.814
319.569	15.8372
321.36	17.6589
323.151	18.1608
324.942	19.9229
326.733	20.3823
328.521	21.1254
330.31	20.9648
332.1	21.4455
333.889	22.0982
335.677	22.4812
337.464	23.8857
339.252	23.5242
341.039	23.2497
342.826	23.0428
344.611	24.1161
346.398	24.734
348.184	24.7992
349.97	23.9179
351.754	24.6292
353.539	24.8243
355.324	23.2238
357.106	24.0491
358.89	23.6675
360.674	22.7546
362.455	21.6959
364.239	21.927
366.021	21.4261
367.804	21.1905
369.584	21.022
371.366	20.0328
373.145	18.842
374.926	18.8137
376.707	19.6067
378.485	20.3926
380.265	20.3079
382.045	20.4667
383.822	20.7836
385.601	19.8994
387.378	19.8639
389.156	20.2816
390.934	20.9603
392.71	20.7071
394.487	20.5789
396.262	21.0445
398.038	22.1265
399.813	22.6506
401.588	22.6077
403.362	21.7849
405.137	21.4963
406.912	20.1883
408.685	19.8849
410.459	19.0705
412.23	18.0067
414.004	18.1955
415.775	15.7671
417.548	15.3628
419.318	15.0667
421.089	15.4261
422.86	14.848
424.63	14.6473
426.401	14.289
428.17	13.3023
429.94	12.136
431.708	11.5794
433.478	11.2105
435.245	10.5602
437.012	9.93294
438.781	9.44805
440.547	8.967
442.315	8.72912
444.081	9.07593
445.846	9.60507
447.613	9.75352
449.378	10.3874
451.142	11.1193
452.908	11.8853
454.672	12.2269
456.435	12.9839
458.2	12.0119
459.963	11.3266
461.725	12.9937
463.489	14.977
465.251	15.2357
467.012	16.5882
468.775	16.642
470.536	17.1525
472.296	16.3947
474.056	16.3435
475.817	16.6318
477.576	17.4338
479.335	18.4396
481.094	18.2342
482.854	18.98
484.612	19.7289
486.37	19.7907
488.127	19.8549
489.886	19.9712
491.642	19.6901
493.398	20.4744
495.154	20.9446
496.91	21.306
498.667	21.6132
500.422	22.6434
502.176	23.5353
503.93	22.8678
505.684	23.9151
507.438	24.2952
509.191	23.2796
510.946	22.3349
512.698	22.1744
514.45	21.1965
516.202	20.4047
517.954	19.3751
519.705	20.2431
521.456	19.9277
523.206	19.7599
524.956	20.4986
526.706	20.4269
528.456	19.8325
530.207	19.0053
531.956	18.9095
533.704	18.1522
535.452	18.5677
537.2	18.0144
538.947	17.033
540.694	16.0946
542.441	16.1917
544.188	15.9372
545.934	15.9047
547.68	15.5461
549.425	15.5131
551.17	13.9158
552.915	12.9225
554.659	12.406
556.403	10.6838
558.145	10.3079
559.889	9.55345
561.632	8.82083
563.375	7.52859
565.117	7.30475
566.859	7.3379
568.601	5.7024
570.342	5.48896
572.083	5.20093
573.824	5.49086
575.565	6.26072
577.303	4.75709
579.043	4.93281
580.782	5.18758
582.521	4.67068
584.26	5.07984
585.998	5.41462
587.734	6.12188
589.472	5.75859
591.21	4.50509
592.947	4.70482
594.684	5.21488
596.418	4.84999
598.154	4.87987
599.89	5.93164
601.626	6.43888
603.361	6.32153
605.094	7.30232
606.828	8.63575
608.562	7.97414
610.296	8.93861
612.027	9.55106
613.761	9.3361
615.493	10.2961
617.224	10.0729
618.956	10.6586
620.688	10.4929
622.419	10.416
624.149	10.6915
625.879	10.6553
627.61	11.4648
629.338	11.4448
631.068	10.7263
632.797	9.70636
634.525	8.61985
636.254	8.5968
637.98	8.08087
639.708	8.63917
641.436	8.95245
643.162	8.47933
644.889	8.06135
646.614	7.69252
648.34	7.73816
650.067	8.16092
651.791	9.69138
653.516	10.7602
655.239	10.1637
656.964	10.6652
658.687	10.2255
660.411	10.2278
662.133	9.67273
663.857	9.00376
665.58	9.75221
667.301	9.51834
669.024	10.0531
670.744	9.91909
672.464	9.99585
674.186	9.99432
675.905	9.33959
677.626	9.71568
679.345	11.3604
681.065	12.1603
682.783	13.1434
684.503	15.1992
686.22	16.3455
687.939	16.33
689.656	16.9275
691.372	16.7614
693.09	16.7019
694.806	16.1441
696.523	16.9669
698.239	17.0653
699.953	17.7466
701.67	16.5235
703.384	15.6432
705.098	15.9714
706.813	17.3016
708.526	16.4904
710.239	18.144
711.954	17.3672
713.666	18.1239
715.378	17.3371
717.091	16.9826
718.802	16.7515
720.513	17.32
722.226	17.1702
723.936	17.0296
725.646	16.819
727.355	16.72
729.067	16.3817
730.776	17.234
732.484	18.3102
734.192	17.4309
735.902	17.9351
737.61	19.3021
739.317	19.0134
741.024	18.251
742.731	19.4608
744.439	19.2832
746.145	20.4544
747.851	20.5527
749.556	22.0183
751.262	22.88
752.966	24.6538
754.673	25.7826
756.377	26.7923
758.081	28.2259
759.784	29.6641
761.487	30.731
763.19	33.1598
764.892	34.3016
766.594	35.594
768.296	36.7213
770	38.1937
771.701	38.0179
773.402	38.7115
775.102	39.5255
776.803	40.0388
778.503	41.7698
780.202	43.1592
781.901	44.7845
783.6	46.2499
785.299	48.6852
786.997	49.3432
788.695	50.8301
790.393	51.8021
792.09	52.8711
793.787	51.9924
795.484	54.063
797.18	53.3386
798.877	55.1764
800.572	55.621
802.268	56.2895
803.963	55.9283
805.658	57.5269
807.35	57.1964
809.044	57.3307
810.738	57.6845
812.432	58.3326
814.125	58.2911
815.818	58.2856
817.51	58.4818
819.202	58.0572
820.894	58.1308
822.584	57.8223
824.275	56.4601
825.966	56.826
827.657	57.8665
829.347	57.5665
831.037	58.2978
832.725	58.9061
834.414	60.0413
836.103	59.1302
837.792	58.6015
839.481	58.4535
841.167	57.694
842.854	57.1275
844.542	56.9224
846.229	56.1723
847.914	54.6734
849.6	53.3315
851.287	53.6924
852.973	53.1114
854.656	53.3353
856.341	51.903
858.026	51.1942
859.711	49.9959
861.393	49.5639
863.077	49.0657
864.761	48.8937
866.442	48.1623
868.125	47.7865
869.808	47.2771
871.489	44.2384
873.171	42.7148
874.85	42.4465
876.532	42.1031
878.213	41.0329
879.892	41.9751
881.572	40.5123
883.251	40.3551
884.931	38.9765
886.61	38.4714
888.287	37.952
889.966	37.8564
891.643	36.286
893.321	35.23
894.997	34.9401
896.675	34.6549
898.352	34.7439
900.028	34.5629
901.704	34.9004
903.379	34.3094
905.055	35.0521
906.729	36.9235
908.404	37.4349
910.077	38.5523
911.75	39.0427
913.425	38.884
915.097	39.0838
916.771	39.0037
918.443	38.3278
920.116	38.309
921.787	38.5632
923.46	39.1918
925.13	38.6232
926.8	39.927
928.472	39.0313
930.141	38.0451
931.813	37.0914
933.481	37.6307
935.15	37.3934
936.82	35.8759
938.488	35.0834
940.156	34.4522
941.825	33.166
943.492	32.2115
945.158	31.2959
946.827	30.8387
948.493	29.6616
950.158	28.1454
951.824	27.7419
953.491	26.3263
955.156	24.9984
956.82	24.5455
958.486	23.2537
960.15	21.6424
961.814	19.7639
963.477	20.191
965.142	18.6647
966.804	19.983
968.467	20.7002
970.129	20.8715
971.79	20.5827
973.454	20.8997
975.115	21.9479
976.776	22.4812
978.436	22.7242
980.096	23.5892
981.756	23.5133
983.417	23.462
985.077	24.0875
986.736	23.573
988.394	23.6515
990.052	22.2914
991.71	22.3739
993.368	22.0587
995.025	22.2516
996.682	21.9338
998.341	21.4634
999.998	20.7071
1001.65	20.667
1003.31	20.591
1004.97	20.5998
1006.62	20.8492
1008.28	21.4457
1009.93	22.5559
1011.58	23.387
1013.24	23.9504
1014.89	26.2377
1016.54	28.1636
1018.2	30.2549
1019.85	32.8715
1021.5	34.1807
1023.16	34.92
1024.81	35.0773
1026.46	37.363
1028.11	39.0361
1029.76	40.8969
1031.41	41.6243
1033.06	42.2212
1034.71	42.5503
1036.36	43.5259
1038.01	43.5773
1039.66	43.8063
1041.31	44.3457
1042.95	45.4302
1044.6	46.0548
1046.25	47.5566
1047.9	47.4678
1049.54	48.5228
1051.19	48.2606
1052.84	48.709
1054.48	48.6303
1056.13	48.4028
1057.77	46.9026
1059.42	45.4371
1061.06	43.977
1062.71	42.5008
1064.35	40.6688
1066	39.4428
1067.64	37.0178
1069.28	35.1077
1070.93	33.7485
1072.57	32.2012
1074.21	30.936
1075.85	29.1919
1077.49	27.3943
1079.13	24.8301
1080.78	22.0867
1082.42	21.0358
1084.06	20.4598
1085.7	19.8309
1087.34	20.0277
1088.97	20.1468
1090.61	20.6852
1092.25	21.0587
1093.89	20.6291
1095.53	18.9912
1097.17	19.4551
1098.8	19.551
1100.44	19.3538
1102.08	19.4394
1103.71	18.3398
1105.35	18.3097
1106.99	19.131
1108.62	19.8924
1110.26	19.6539
1111.89	19.8678
1113.52	18.8233
1115.16	17.5748
1116.79	17.4601
1118.43	17.6976
1120.06	16.105
1121.69	15.8675
1123.32	14.979
1124.96	14.6055
1126.59	13.921
1128.22	14.5217
1129.85	14.1712
1131.48	14.0223
1133.11	13.9667
1134.75	13.7326
1136.37	11.4302
1138	11.9509
1139.63	11.9835
1141.26	11.7679
1142.89	11.0338
1144.52	10.2166
1146.15	10.2965
1147.78	9.8019
1149.4	8.62279
1151.03	9.34057
1152.66	9.03553
1154.28	8.76214
1155.91	8.48787
1157.54	7.81744
1159.16	6.61515
1160.79	5.79546
1162.41	5.67867
1164.04	6.50265
1165.66	6.0697
1167.29	5.70587
1168.91	5.12071
1170.53	4.43542
1172.16	4.23891
1173.78	2.96304
1175.4	3.42827
1177.02	4.25158
1178.65	5.48061
1180.27	6.37344
1181.89	6.82929
1183.51	7.93537
1185.13	7.71772
1186.75	8.66028
1188.37	10.1104
1189.99	10.968
1191.61	11.8978
1193.23	12.3828
1194.85	12.1271
1196.47	12.7221
1198.08	13.9228
1199.7	14.9929
1201.32	15.6367
1202.94	17.1597
1204.55	18.1116
1206.17	20.3888
1207.79	21.9959
1209.4	23.403
1211.02	25.4682
1212.63	26.6577
1214.25	28.1386
1215.86	28.9229
1217.48	29.6285
1219.09	32.7171
1220.71	34.0602
1222.32	34.8683
1223.93	36.5809
1225.54	38.9669
1227.16	40.5765
1228.77	41.4346
1230.38	42.6674
1231.99	44.6389
1233.6	45.5553
1235.22	47.1093
1236.83	47.3883
1238.44	47.9311
1240.05	48.9513
1241.66	49.9292
1243.26	50.4275
1244.87	50.4541
1246.48	50.6272
1248.09	50.5004
1249.7	50.4338
1251.31	51.2581
1252.92	51.7535
1254.52	51.8939
1256.13	53.0398
1257.74	52.6266
1259.34	52.344
1260.95	52.6095
1262.55	54.0099
1264.16	54.0344
1265.76	55.4357
1267.37	56.1124
1268.97	56.6079
1270.58	57.3437
1272.18	57.5279
1273.78	57.8026
1275.39	59.668
1276.99	61.5171
1278.59	62.998
1280.2	65.0784
1281.8	66.2842
1283.4	68.1199
1285	69.6353
1286.6	72.2288
1288.2	72.9383
1289.8	73.2781
1291.4	74.6243
1293	74.993
1294.6	76.1923
1296.2	77.0897
1297.8	78.2126
1299.4	79.5791
1301	79.9524
1302.6	79.4701
1304.19	81.4611
1305.79	82.1208
1307.39	81.6189
1308.99	81.5904
1310.58	82.4807
1312.18	83.087
1313.77	82.8898
1315.37	82.7807
1316.96	82.1133
1318.56	82.5371
1320.15	81.7694
1321.75	81.96
1323.34	82.3165
1324.94	81.7617
1326.53	81.8735
1328.12	80.5257
1329.72	79.5953
1331.31	79.899
1332.9	78.6852
1334.49	78.2597
1336.08	76.6296
1337.67	75.8699
1339.27	75.1455
1340.86	74.0393
1342.45	73.2451
1344.04	71.451
1345.63	70.9483
1347.22	68.4942
1348.8	68.1539
1350.39	67.5344
1351.98	67.032
1353.57	67.3801
1355.16	67.2885
1356.75	66.6049
1358.33	65.5495
1359.92	64.7183
1361.51	63.6187
1363.09	63.2965
1364.68	61.788
1366.27	61.2306
1367.85	59.8888
1369.44	59.5178
1371.02	60.0801
1372.61	59.8485
1374.19	59.209
1375.77	58.7251
1377.36	59.0424
1378.94	59.7585
1380.52	60.3047
1382.11	61.1965
1383.69	63.0582
1385.27	62.6518
1386.85	63.7368
1388.43	64.5149
1390.02	64.7631
1391.6	65.9557
1393.18	65.9328
1394.76	66.8321
1396.34	67.7536
1397.92	68.2338
1399.5	70.1053
1401.08	72.8176
1402.65	74.3829
1404.23	75.2912
1405.81	77.1902
1407.39	78.6136
1408.97	80.7284
1410.54	83.2608
1412.12	84.479
1413.7	87.1995
1415.27	89.0049
1416.85	91.6457
1418.43	92.9208
1420	95.1197
1421.58	97.5349
1423.15	99.3791
1424.73	102.334
1426.3	105.547
1427.87	109.184
1429.45	112.261
1431.02	114.854
1432.6	117.117
1434.17	118.461
1435.74	120.695
1437.31	121.33
1438.89	122.865
1440.46	124.259
1442.03	124.499
1443.6	125.178
1445.17	126.705
1446.74	127.903
1448.31	128.324
1449.88	127.788
1451.45	128.262
1453.02	127.912
1454.59	127.369
1456.16	127.098
1457.72	125.726
1459.29	123.716
1460.86	122.41
1462.43	121.032
1463.99	118.921
1465.56	117.283
1467.13	114.192
1468.69	111.334
1470.26	109.551
1471.83	107.156
1473.39	104.179
1474.95	101.4
1476.52	98.8446
1478.08	96.4147
1479.65	93.368
1481.21	90.2264
1482.78	87.3236
1484.34	83.5183
1485.9	79.8776
1487.47	76.4074
1489.03	73.7179
1490.59	71.1479
1492.15	69.6219
1493.71	67.1811
1495.27	64.1289
1496.84	62.0151
1498.39	59.6642
1499.96	57.779
1501.52	56.044
1503.07	54.9101
1504.64	53.2628
1506.19	51.1167
1507.75	50.1548
1509.31	47.4043
1510.87	45.6923
1512.43	42.6641
1513.98	41.0599
1515.54	39.4348
1517.1	38.8492
1518.65	36.2141
1520.21	35.7462
1521.77	36.1782
1523.32	36.0414
1524.88	35.7643
1526.44	35.1754
1527.99	35.2701
1529.54	36.4309
1531.1	36.1032
1532.65	36.4768
1534.21	36.6876
1535.76	37.2012
1537.31	38.4439
1538.87	39.1844
1540.42	39.801
1541.97	40.8003
1543.52	42.387
1545.07	43.1336
1546.63	44.3874
1548.18	45.3799
1549.73	46.4576
1551.28	46.2515
1552.83	46.9655
1554.38	47.5853
1555.93	48.5438
1557.48	48.8416
1559.03	50.2502
1560.57	50.8575
1562.12	51.6269
1563.67	53.5886
1565.22	55.0037
1566.77	57.5394
1568.31	59.9152
1569.86	61.9818
1571.41	62.8779
1572.95	64.3558
1574.5	65.9388
1576.05	66.8879
1577.59	68.935
1579.14	70.2946
1580.68	71.9181
1582.23	73.6213
1583.77	75.2513
1585.31	77.1705
1586.86	77.1536
1588.4	78.4181
1589.95	79.317
1591.49	81.0491
1593.03	82.1952
1594.57	83.2362
1596.11	83.59
1597.66	85.2188
1599.2	85.1668
1600.74	85.5261
1602.28	85.5723
1603.82	85.1157
1605.36	84.6216
1606.9	84.2796
1608.44	83.1164
1609.98	82.7257
1611.52	82.5105
1613.06	82.9205
1614.6	82.4884
1616.13	82.59
1617.67	82.8255
1619.21	83.365
1620.75	82.9407
1622.28	82.9155
1623.82	82.7464
1625.36	82.9367
1626.89	82.8435
1628.43	82.9663
1629.96	82.8541
1631.5	83.3516
1633.04	84.0265
1634.57	84.0213
1636.11	84.9143
1637.64	85.5181
1639.17	86.0472
1640.71	87.5416
1642.24	87.9117
1643.77	89.6105
1645.31	90.5789
1646.84	91.2062
1648.37	91.746
1649.9	92.4409
1651.43	92.9421
1652.96	93.2448
1654.5	93.4444
1656.03	92.8636
1657.56	92.4588
1659.09	91.6839
1660.62	90.4701
1662.15	89.6123
1663.67	86.9079
1665.2	85.5955
1666.73	84.0585
1668.26	82.9279
1669.79	80.7363
1671.32	78.4173
1672.84	75.7252
1674.37	72.7343
1675.9	70.3205
1677.43	67.3709
1678.95	63.8318
1680.48	60.3426
1682	58.1281
1683.53	55.4619
1685.05	52.7501
1686.58	50.904
1688.1	48.7582
1689.63	47.1144
1691.15	44.305
1692.68	42.3178
1694.2	39.2181
1695.72	37.7899
1697.25	35.9892
1698.77	34.2989
1700.29	32.3652
1701.81	31.186
1703.33	29.7778
1704.86	29.2359
1706.38	28.0466
1707.9	27.3694
1709.42	26.7678
1710.94	25.7847
1712.46	25.6909
1713.98	26.19
1715.5	25.4395
1717.02	25.5865
1718.54	25.3881
1720.06	25.9967
1721.57	25.6084
1723.09	24.9325
1724.61	24.2964
1726.13	23.5589
1727.64	22.7459
1729.16	21.2089
1730.68	20.6143
1732.19	19.336
1733.71	18.9912
1735.23	18.8596
1736.74	18.6091
1738.26	18.3366
1739.77	18.1969
1741.29	18.3212
1742.8	18.7402
1744.31	18.411
1745.83	17.1653
1747.34	17.2115
1748.85	16.9222
1750.37	16.4785
1751.88	16.5618
1753.39	15.271
1754.91	14.9914
1756.42	15.087
1757.93	15.4525
1759.44	15.2372
1760.95	15.2125
1762.46	15.2141
1763.97	15.3295
1765.48	14.9858
1766.99	13.8701
1768.5	13.5339
1770.01	12.828
1771.52	13.1593
1773.03	12.8827
1774.54	12.4691
1776.04	12.4288
1777.55	12.4132
1779.06	12.6495
1780.57	13.0434
1782.07	12.7169
1783.58	12.3813
1785.09	12.2129
1786.59	11.9879
1788.1	11.8552
1789.6	11.0926
1791.11	10.9368
1792.61	10.9194
1794.12	10.8002
1795.62	10.6498
1797.13	9.80634
1798.63	9.12334
1800.13	9.21854
1801.64	8.76971
1803.14	8.49698
1804.64	8.68096
1806.15	8.79884
1807.65	8.42312
1809.15	8.35603
1810.65	8.78947
1812.15	8.73912
1813.65	8.77153
1815.16	9.1826
1816.66	8.57605
1818.15	9.04819
1819.66	8.45374
1821.16	8.50619
1822.65	8.92503
1824.15	9.01488
1825.65	8.2762
1827.15	7.91231
1828.65	7.84316
1830.15	8.21329
1831.64	8.81844
1833.14	8.90611
1834.64	8.53052
1836.14	8.04687
1837.63	7.61012
1839.13	7.3877
1840.62	6.81488
1842.12	7.31986
1843.62	7.28785
1845.11	7.32127
1846.61	7.77805
1848.1	7.674
1849.6	7.29372
1851.09	7.5602
1852.58	7.4027
1854.08	7.69423
1855.57	8.13907
1857.06	7.86422
1858.55	7.83862
1860.05	8.14087
1861.54	7.15301
1863.03	7.5869
1864.52	7.74177
1866.01	8.24724
1867.5	6.9164
1869	6.84678
1870.49	6.92491
1871.98	6.72783
1873.47	6.02517
1874.96	5.84963
1876.44	5.19571
1877.93	4.65436
1879.42	4.37526
1880.91	4.2084
1882.4	4.18667
1882.47	4.18647
1883.96	4.10519
1885.46	4.33365
1886.95	4.20463
1888.44	3.90479
1889.94	3.53174
1891.43	3.19697
1892.93	3.02907
1894.42	3.3142
1895.91	3.34814
1897.4	2.61913
1898.89	1.68304
1900.39	2.25558
1901.88	2.66821
1903.37	2.68386
1904.86	2.28969
1906.35	2.04825
1907.84	2.60087
1909.33	2.67564
1910.82	3.21264
1912.31	3.60351
1913.8	4.3296
1915.29	4.81145
1916.77	4.87742
1918.26	4.81125
1919.75	4.64289
1921.24	4.61366
1922.73	4.77141
1924.21	4.55562
1925.7	4.68812
1927.19	5.78396
1928.67	6.46104
1930.16	6.58315
1931.64	6.15856
1933.13	5.27653
1934.61	4.10592
1936.1	4.25092
1937.58	3.81715
1939.07	2.96919
1940.55	1.94072
1942.04	2.41643
1943.52	1.98535
1945	1.84594
1946.49	0.989535
1947.97	1.40821
1949.45	1.08121
1950.93	0.639238
1952.42	0.733165
1953.9	0.597107
1955.38	0.519369
1956.86	0.500588
1958.34	0.229642
1959.82	0.547688
1961.3	0.308455
1962.78	0.0637494
1964.26	-0.267631
1965.74	0.0760226
1967.22	0.10946
1968.7	0.140053
1970.18	-0.214779
1971.65	-0.460673
1973.13	-0.070946
1974.61	0.488418
1976.09	0.593303
1977.57	1.23775
1979.04	0.932088
1980.52	1.30729
1982	1.71588
1983.47	1.39277
1984.95	1.33974
1986.42	1.88062
1987.9	2.3148
1989.37	2.19627
1990.85	2.35105
1992.32	2.80788
1993.8	3.63428
1995.27	3.83088
1996.75	3.98506
1998.22	4.40146
1999.69	4.96657
2001.17	5.05572
2002.64	4.53923
2004.11	3.45236
2005.58	2.36539
2007.05	1.75295
2008.53	1.98508
2010	2.14912
2011.47	2.25774
2012.94	1.78741
2014.41	2.43319
2015.88	2.65983
2017.35	2.26713
2018.82	2.35199
2020.29	2.29441
2021.76	2.29546
2023.23	1.99085
2024.7	2.15149
2026.16	2.52792
2027.63	3.06524
2029.1	3.76378
2030.57	3.8774
2032.03	3.62698
2033.5	4.2525
2034.97	4.61786
2036.44	4.45533
2037.9	4.84859
2039.37	6.24636
2040.83	5.80209
2042.3	6.31673
2043.76	6.87999
2045.23	8.25475
2046.69	9.20693
2048.16	9.41984
2049.62	10.0135
2051.08	10.6114
2052.55	10.6484
2054.01	12.0452
2055.47	13.0376
2056.94	14.1699
2058.4	14.992
2059.86	16.1885
2061.32	16.18
2062.79	16.7214
2064.25	17.3813
2065.71	18.4226
2067.17	18.0984
2068.63	17.8326
2070.09	18.1083
2071.55	18.2741
2073.01	18.2038
2074.47	18.8768
2075.93	19.1029
2077.39	18.8155
2078.85	19.463
2080.31	20.0838
2081.76	21.0242
2083.22	21.3126
2084.68	21.437
2086.13	21.141
2087.59	21.0448
2089.05	20.4104
2090.51	20.6666
2091.96	20.8126
2093.42	21.6426
2094.87	22.5249
2096.33	23.1047
2097.78	23.8003
2099.24	24.2733
2100.69	25.0313
2102.15	25.3704
2103.6	26.2083
2105.06	26.5573
2106.51	27.2698
2107.96	27.4621
2109.42	28.3752
2110.87	29.8252
2112.32	30.6432
2113.77	31.5813
2115.23	32.9369
2116.68	34.8319
2118.13	36.5622
2119.58	36.9505
2121.03	37.9907
2122.48	39.7544
2123.93	40.6689
2125.38	42.3914
2126.83	44.1184
2128.28	45.2521
2129.73	46.5785
2131.18	48.009
2132.63	49.2529
2134.08	50.1258
2135.53	51.75
2136.97	53.8098
2138.42	54.7598
2139.87	56.3663
2141.32	58.4206
2142.76	60.0252
2144.21	61.757
2145.66	63.9662
2147.1	65.4038
2148.55	66.8834
2150	67.8311
2151.44	70.1714
2152.89	71.4339
2154.33	72.2947
2155.78	72.5097
2157.22	72.9977
2158.66	73.8484
2160.11	75.3239
2161.55	76.5405
2163	77.0813
2164.44	78.2235
2165.88	79.4637
2167.32	79.5418
2168.77	79.2055
2170.21	79.3626
2171.65	79.7587
2173.09	79.5483
2174.53	78.9445
2175.97	78.6477
2177.41	78.1085
2178.85	77.6206
2180.29	77.8609
2181.73	77.777
2183.17	76.8741
2184.61	75.662
2186.05	75.2177
2187.49	73.3999
2188.93	72.8475
2190.37	71.5285
2191.81	70.0137
2193.24	68.8573
2194.68	68.255
2196.12	66.5004
2197.56	65.14
2198.99	64.014
2200.43	62.5931
2201.87	61.4785
2203.3	60.8675
2204.74	58.7963
2206.17	57.1548
2207.61	55.8722
2209.04	54.8559
2210.48	52.9584
2211.91	51.7796
2213.35	50.0744
2214.78	47.7869
2216.21	45.8764
2217.65	44.6949
2219.08	42.6884
2220.51	41.9141
2221.95	41.1561
2223.38	40.1636
2224.81	37.9454
2226.24	36.3654
2227.67	34.8714
2229.1	33.7005
2230.54	32.9196
2231.97	32.2988
2233.4	30.9009
2234.83	29.3901
2236.26	28.7717
2237.69	27.1096
2239.11	25.9436
2240.54	24.861
2241.97	24.119
2243.4	23.8165
2244.83	22.775
2246.26	21.9717
2247.69	21.9361
2249.11	20.7472
2250.54	19.9441
2251.97	18.7278
2253.4	18.0504
2254.82	17.2114
2256.25	16.4451
2257.67	15.8505
2259.1	14.7695
2260.53	14.469
2261.95	13.9724
2263.38	13.6144
2264.8	13.3297
2266.23	12.9271
2267.65	11.4927
2269.07	10.8487
2270.5	10.607
2271.92	10.2009
2273.34	10.2906
2274.77	9.45798
2276.19	7.97067
2277.61	7.48172
2279.03	7.21335
2280.46	7.01177
2281.88	6.31419
2283.3	5.80593
2284.72	5.29432
2286.14	5.25376
2287.56	5.58375
2288.98	5.5088
2290.4	4.82051
2291.82	4.8322
2293.24	3.96563
2294.66	2.90983
2296.08	3.03337
2297.5	3.63594
2298.92	3.88066
2300.34	4.64148
2301.76	5.21168
2303.17	5.16891
2304.59	5.19154
2306.01	5.47547
2307.43	5.25806
2308.84	5.63282
2310.26	5.34216
2311.68	5.94563
2313.09	6.26283
2314.51	6.27435
2315.92	6.07349
2317.34	5.30119
2318.75	5.8046
2320.17	5.35061
2321.58	6.16287
2323	6.06719
2324.41	6.80545
2325.82	5.82584
2327.24	5.29209
2328.65	5.05833
2330.06	4.74949
2331.48	4.82605
2332.89	4.76459
2334.3	4.91633
2335.71	4.9842
2337.12	4.1134
2338.54	3.68166
2339.95	3.62686
2341.36	3.62848
2342.77	3.77576
2344.18	3.00439
2345.59	2.4138
2347	2.26578
2348.41	2.13309
2349.82	1.77823
2351.23	1.56177
2352.64	1.77204
2354.04	1.45496
2355.45	0.997776
2356.86	1.51888
2358.27	1.10893
2359.68	0.577411
2361.08	0.676258
2362.49	0.97919
2363.9	1.11949
2365.3	1.8315
2366.71	2.56127
2368.12	2.43825
2369.52	2.44248
2370.93	2.71814
2372.33	2.48332
2373.74	2.30074
2375.14	2.61686
2376.55	2.50828
2377.95	2.32705
2379.36	2.91167
2380.76	2.38977
2382.16	2.68982
2383.57	2.39819
2384.97	2.58039
2386.37	2.72322
2387.78	2.93734
2389.18	4.4537
2390.58	4.502
2391.98	4.34197
2393.38	3.85749
2394.79	3.70975
2396.19	3.45936
2397.59	3.47227
2398.99	3.9754
2400.39	3.69847
2401.79	4.16363
2403.19	3.85996
2404.59	4.93997
2405.99	4.60486
2407.39	4.31618
2408.78	4.19176
2410.18	4.33161
2411.58	4.70426
2412.98	4.98855
2414.38	4.66198
2415.77	5.2208
2417.17	4.92813
2418.57	4.68876
2419.97	5.13903
2421.36	5.04957
2422.76	5.65239
2424.15	5.02885
2425.55	5.33133
2426.95	6.16766
2428.34	6.04835
2429.74	5.67006
2431.13	5.57382
2432.52	5.49939
2433.92	5.5767
2435.31	5.8349
2436.71	5.75026
2438.1	5.78195
2439.49	5.80846
2440.89	5.20981
2442.28	4.71973
2443.67	4.57257
2445.06	4.37498
2446.46	4.13441
2447.85	4.06384
2449.24	3.91389
2450.63	3.75902
2452.02	3.66046
2453.41	3.70408
2454.8	3.65384
2456.19	3.43911
2457.58	4.05862
2458.97	4.918
2460.36	3.90921
2461.75	3.63456
2463.14	3.60217
2464.53	3.55102
2465.92	3.02304
2467.31	2.43018
2468.69	2.51884
2470.08	2.12127
2471.47	2.37597
2472.86	2.28963
2474.24	2.64654
2475.63	2.13453
2477.02	2.01471
2478.4	1.67075
2479.79	2.43084
2481.17	2.05941
2482.56	1.64688
2483.94	1.31911
2485.33	1.1661
2486.72	0.220222
2488.1	0.409732
2489.48	0.434118
2490.87	0.120857
2492.25	0.726482
2493.64	0.276033
2495.02	0.826605
2496.4	0.733264
2497.79	0.7876
2499.17	0.741216
2500.55	0.661539
2501.93	0.90209
2503.31	1.11381
2504.69	1.5858
2506.08	1.2752
2507.46	2.13198
2508.84	1.80918
2510.22	1.73993
2511.6	2.14655
2512.98	2.31158
2514.36	2.54787
2515.74	3.4088
2517.12	3.93134
2518.5	3.88573
2519.88	3.93687
2521.25	3.85094
2522.63	4.64754
2524.01	5.0253
2525.39	4.88416
2526.77	5.75019
2528.14	5.72906
2529.52	4.90056
2530.9	4.39997
2532.27	4.31392
2533.65	4.13883
2535.03	4.34111
2536.4	4.40282
2537.78	4.92992
2539.15	5.03961
2540.53	5.67655
2541.9	6.07971
2543.28	5.63981
2544.65	5.80817
2546.03	5.907
2547.4	5.53061
2548.77	4.67321
2550.15	3.38025
2551.52	3.58579
2552.89	3.24915
2554.27	2.76548
2555.64	2.57436
2557.01	2.72654
2558.38	2.96947
2559.75	3.09416
2561.12	3.2026
2562.5	3.89799
2563.87	4.57725
2565.24	5.07122
2566.61	5.66648
2567.98	5.21246
2569.35	5.07285
2570.72	6.05471
2572.09	6.57324
2573.46	7.21071
2574.83	7.13992
2576.19	7.8567
2577.56	7.424
2578.93	7.85872
2580.3	7.86079
2581.67	7.92727
2583.04	8.10698
2584.4	8.48719
2585.77	8.21801
2587.14	8.10816
2588.5	7.87672
2589.87	8.67545
2591.23	8.89653
2592.6	8.52451
2593.97	8.32576
2595.33	9.35786
2596.7	8.85675
2598.06	8.61636
2599.43	8.24988
2600.79	8.57865
2602.15	8.42419
2603.52	8.35312
2604.88	7.78414
2606.25	7.47088
2607.61	7.21669
2608.97	7.61198
2610.33	7.13769
2611.7	6.68837
2613.06	6.57605
2614.42	5.8344
2615.78	4.35132
2617.15	4.21365
2618.51	4.25532
2619.87	4.64864
2621.23	4.43956
2622.59	4.16489
2623.95	4.2456
2625.31	4.35236
2626.67	4.96091
2628.03	4.69562
2629.39	5.10882
2630.75	5.43795
2632.1	4.73139
2633.46	4.211
2634.82	4.49677
2636.18	4.81255
2637.54	5.78588
2638.89	6.14413
2640.25	6.25276
2641.61	6.22464
2642.97	6.37205
2644.32	6.32398
2645.68	6.20117
2647.03	6.40285
2648.39	6.10845
2649.75	6.63838
2651.1	6.65623
2652.46	6.71668
2653.81	6.98713
2655.17	6.96488
2656.52	7.34817
2657.88	7.95089
2659.23	7.37714
2660.58	7.2497
2661.94	7.3574
2663.29	7.82817
2664.64	6.8354
2666	6.6937
2667.35	6.57582
2668.7	6.44669
2670.05	6.36168
2671.4	6.18671
2672.76	6.14883
2674.11	6.39793
2675.46	7.00824
2676.81	7.11784
2678.16	7.01594
2679.51	7.1476
2680.86	6.9929
2682.21	7.25907
2683.56	7.27568
2684.91	7.79433
2686.26	7.51597
2687.61	7.89469
2688.96	8.33296
2690.3	8.18634
2691.65	8.93133
2693	9.48829
2694.35	10.3478
2695.7	10.524
2697.04	11.0778
2698.39	11.1246
2699.74	11.8261
2701.08	12.4929
2702.43	13.1813
2703.77	13.6218
2705.12	13.7605
2706.47	13.3756
2707.81	13.5439
2709.16	13.7989
2710.5	13.9025
2711.85	13.8513
2713.19	14.4381
2714.53	15.1088
2715.88	15.3843
2717.22	15.958
2718.57	15.755
2719.91	15.6549
2721.25	15.7549
2722.59	16.0995
2723.94	16.6394
2725.28	16.5549
2726.62	16.3176
2727.96	16.1189
2729.3	16.3052
2730.65	16.5521
2731.99	15.9128
2733.33	15.6575
2734.67	15.7329
2736.01	15.2971
2737.35	14.4225
2738.69	14.3229
2740.03	13.9883
2741.37	13.5647
2742.71	14.1783
2744.05	13.6235
2745.38	13.8129
2746.72	13.656
2748.06	13.0738
2749.4	12.569
2750.74	11.5618
2752.07	11.1497
2753.41	11.0256
2754.75	10.6352
2756.09	10.2954
2757.42	9.48181
2758.76	9.50706
2760.09	9.26586
2761.43	8.43939
2762.77	7.61555
2764.1	7.47119
2765.44	6.5018
2766.77	5.78516
2768.11	4.74037
2769.44	4.12224
2770.77	3.80742
2772.11	2.89257
2773.44	1.95228
2774.77	1.52587
2776.11	1.40523
2777.44	0.509555
2778.77	0.51479
2780.11	0.889305
2781.44	0.957224
2782.77	0.835792
2784.1	0.843399
2785.43	0.466155
2786.77	0.400945
2788.1	0.943302
2789.43	1.54315
2790.76	1.12304
2792.09	0.421486
2793.42	0.314808
2794.75	1.24124
2796.08	1.18344
2797.41	1.07261
2798.74	0.757368
2800.07	0.624671
2801.4	1.05356
2802.72	0.428743
2804.05	1.02124
2805.38	1.82341
2806.71	1.59594
2808.04	2.29295
2809.36	2.75259
2810.69	2.97041
2812.02	4.01364
2813.34	4.59203
2814.67	4.62917
2816	5.6144
2817.32	6.4104
2818.65	7.73574
2819.97	9.70152
2821.3	11.3512
2822.62	13.4975
2823.95	14.7704
2825.27	16.7329
2826.6	19.2902
2827.92	21.6224
2829.25	24.0083
2830.57	26.2066
2831.89	28.4933
2833.22	31.5109
2834.54	34.4491
2835.86	37.6237
2837.18	40.456
2838.51	43.6798
2839.83	47.1585
2841.15	51.6756
2842.47	55.9036
2843.79	59.2521
2845.11	64.139
2846.43	68.7578
2847.76	72.735
2849.08	76.6712
2850.4	80.679
2851.72	85.2731
2853.04	90.1764
2854.36	94.9452
2855.67	99.0923
2856.99	103.49
2858.31	107.982
2859.63	112.5
2860.95	116.891
2862.27	119.871
2863.58	124.266
2864.9	127.971
2866.22	132.067
2867.54	135.787
2868.85	138.753
2870.17	143.282
2871.49	146.428
2872.8	149.839
2874.12	153.247
2875.43	156.285
2876.75	160.033
2878.07	162.668
2879.38	165.355
2880.7	168.215
2882.01	172.44
2883.32	175.681
2884.64	179.002
2885.95	182.1
2887.27	185.134
2888.58	187.95
2889.89	191.392
2891.21	195.603
2892.52	199.062
2893.83	201.884
2895.14	205.176
2896.46	208.786
2897.77	213.223
2899.08	217.656
2900.39	222.28
2901.7	227.383
2903.01	232.327
2904.32	237.721
2905.63	243.732
2906.94	249.854
2908.25	255.469
2909.56	260.638
2910.87	266.895
2912.18	272.621
2913.49	278.612
2914.8	284.064
2916.11	289.808
2917.42	295.589
2918.72	300.881
2920.03	304.726
2921.34	307.987
2922.65	311.172
2923.95	313.449
2925.26	315.68
2926.57	318.314
2927.88	319.694
2929.18	320.805
2930.49	320.986
2931.79	320.668
2933.1	319.363
2934.4	317.528
2935.71	315.35
2937.01	311.713
2938.32	307.71
2939.62	303.939
2940.93	299.32
2942.23	295.318
2943.54	289.48
2944.84	284.457
2946.14	278.432
2947.45	272.547
2948.75	265.114
2950.05	258.287
2951.35	251.491
2952.66	244.978
2953.96	237.92
2955.26	230.973
2956.56	223.437
2957.86	216.273
2959.16	209.573
2960.46	203.502
2961.77	197.154
2963.07	191.726
2964.37	185.967
2965.66	180.467
2966.96	175.344
2968.26	170.397
2969.56	165.534
2970.86	161.318
2972.16	155.912
2973.46	150.844
2974.76	146.225
2976.06	141.905
2977.35	137.16
2978.65	132.445
2979.95	127.83
2981.25	123.86
2982.54	119.635
2983.84	114.746
2985.14	109.554
2986.43	105.216
2987.73	101.05
2989.02	96.6392
2990.32	92.5836
2991.62	88.5716
2992.91	83.7921
2994.21	79.5443
2995.5	74.9465
2996.8	70.3195
2998.09	65.6451
2999.38	61.1142
3000.68	56.8198
3001.97	53.3805
3003.26	49.8753
3004.56	46.3233
3005.85	42.6955
3007.14	39.6486
3008.43	35.0622
3009.73	32.4583
3011.02	28.6033
3012.31	25.5097
3013.6	22.6792
3014.89	20.4581
3016.19	17.9375
3017.48	15.4088
3018.77	13.3635
3020.06	11.119
3021.35	9.31706
3022.64	7.69922
3023.93	6.44771
3025.22	5.11115
3026.5	3.73189
3027.79	2.83753
3029.08	1.96256
3030.37	1.21785
3031.66	0.637634
3032.95	0.061816
3034.24	-0.549696
3035.52	-0.808267
3036.81	-1.26852
3038.1	-1.69675
3039.39	-1.38903
3040.67	-1.87697
3041.96	-2.12508
3043.25	-1.2562
3044.53	-0.207706
3045.82	-0.254125
3047.1	-0.608345
3048.39	0.0736824
3049.67	0.730285
3050.96	0.996514
3052.24	1.04671
3053.53	1.30999
3054.81	1.73715
3056.1	2.33753
3057.38	2.59926
3058.67	2.90451
3059.95	2.65251
3061.23	2.94263
3062.52	3.32712
3063.8	3.62402
3065.08	3.80893
3066.36	3.61211
3067.65	3.27734
3068.93	2.8542
3070.21	3.01568
3071.49	2.78055
3072.77	2.26887
3074.05	2.80373
3075.33	1.88185
3076.61	2.27498
3077.89	1.92049
3079.17	1.73497
3080.45	1.4627
3081.73	1.32025
3083.01	1.7405
3084.29	0.935166
3085.57	0.742579
3086.85	0.530886
3088.13	0.5948
3089.41	-0.475155
3090.68	-0.029032
3091.96	-0.561836
3093.24	-0.936346
3094.52	-1.63054
3095.79	-1.54337
3097.07	-1.49327
3098.35	-1.22893
3099.62	-1.10743
3100.9	-1.47988
3102.18	-1.1743
3103.45	-0.433407
3104.73	-0.445192
3106	0.227116
3107.28	1.04472
3108.55	1.28702
3109.83	1.42704
3111.1	1.97609
3112.38	3.2983
3113.65	3.50168
3114.93	3.75045
3116.2	4.45445
3117.47	5.39303
3118.75	6.03926
3120.02	6.90225
3121.29	7.64544
3122.57	8.30071
3123.84	8.80094
3125.11	9.6744
3126.38	10.2963
3127.65	10.4433
3128.92	10.9704
3130.2	11.3792
3131.47	12.6193
3132.74	13.4967
3134.01	14.4743
3135.28	15.1231
3136.55	15.6514
3137.82	16.7641
3139.09	17.1124
3140.36	18.131
3141.63	18.3852
3142.9	19.1061
3144.17	19.232
3145.43	19.1456
3146.7	19.0067
3147.97	20.0936
3149.24	19.6645
