#Acq. time (s)=	45
#Accumulations=	2
#Range (cm-¹)=	200...3150
#Windows=	2
#Auto scanning=	Off
#Autofocus=	Off
#Macrospot=	Off
#AutoExposure=	Off
#Spike filter=	Multiple accum.
#Delay time (s)=	0
#Binning=	1
#Readout mode=	Signal
#DeNoise=	Off
#ICS correction=	On
#Dark correction=	Off
#Inst. Process=	Off
#Detector Gain=	Best Dynamic Range
#Detector ADC=	20 kHz       
#Detector temperature (°C)=	-70.08
#Instrument=	LabRAM HR Evol
#Detector=	Synapse
#Objective=	x100
#Grating=	600 gr/mm
#ND Filter=	100%
#Laser (nm)=	532 
#Hole=	100.021
#Range=	Auto
#Laser Pol.=	No
#Raman. Pol.=	No
#Laser Pol. (°)=	-0.0007625
#Raman Pol. (°)=	89.9995
#Collection=	Microscope
#StageXY=	Marzhauser
#StageZ=	Marzhauser
#X (µm)=	-2560
#Y (µm)=	-84.4
#Z (µm)=	-10.6
#Full time(mm:ss)=	3:19
#Project=	
#Sample=	
#Site=	
#Title=	Mb_40_24_15_2x_45s_532 nm_x100_100%_600 gr_mm
#Remark=	
#Date=	14.07.2022 11:47
#Acquired=	14.07.2022 11:47:23
#Base:Fit=	10.08.2022 10:47:00
#Base:Sub=	10.08.2022 10:47:12
#Filter:Polynom=	16.08.2022 10:11:48
#AxisType[0]=Intens
#AxisUnit[0]=Cnt
#AxisType[1]=Spectr
#AxisUnit[1]=1/cm
200.554	24.156
202.369	22.9892
204.183	20.7575
205.999	19.0968
207.813	17.448
209.626	15.6187
211.439	14.7244
213.253	13.8872
215.065	13.4299
216.877	12.5098
218.688	12.7156
220.5	14.0049
222.312	12.7627
224.123	12.9847
225.933	13.6648
227.742	13.1351
229.552	13.3819
231.361	13.9341
233.171	13.8462
234.98	13.1124
236.787	12.4054
238.595	10.219
240.402	10.0852
242.209	10.7577
244.015	11.5939
245.822	11.0513
247.627	11.0344
249.435	8.8602
251.24	8.49671
253.045	8.64716
254.849	9.66076
256.653	10.6269
258.457	11.4862
260.26	12.2796
262.063	12.7054
263.866	12.2111
265.668	12.5145
267.47	10.6723
269.271	9.38172
271.073	8.63282
272.873	7.73568
274.674	6.57117
276.474	6.9281
278.274	6.70373
280.073	8.16899
281.872	6.92321
283.671	5.99642
285.47	5.72019
287.268	5.18178
289.065	4.74248
290.863	5.79656
292.66	6.38884
294.456	7.50532
296.253	6.715
298.049	7.25795
299.844	9.30529
301.637	11.0961
303.432	11.9587
305.227	13.4942
307.021	14.3865
308.815	16.9868
310.609	17.8538
312.402	17.7415
314.195	18.9241
315.987	20.3188
317.777	20.8686
319.569	22.4126
321.36	23.2919
323.151	22.9473
324.942	22.9409
326.733	22.2514
328.521	22.6682
330.31	24.3801
332.1	24.7726
333.889	23.8226
335.677	23.4395
337.464	23.4111
339.252	22.2928
341.039	23.2171
342.826	22.7203
344.611	22.4039
346.398	20.8111
348.184	20.1122
349.97	18.7971
351.754	16.6303
353.539	13.7421
355.324	12.273
357.106	11.201
358.89	10.7644
360.674	9.50867
362.455	7.7053
364.239	7.0913
366.021	6.83561
367.804	5.05258
369.584	3.16936
371.366	1.88696
373.145	2.37466
374.926	0.88776
376.707	0.197688
378.485	-0.302503
380.265	0.81512
382.045	-0.388088
383.822	-0.646826
385.601	-0.81062
387.378	0.834957
389.156	2.51301
390.934	4.15223
392.71	5.30881
394.487	4.87088
396.262	5.35579
398.038	5.98156
399.813	6.12796
401.588	7.73434
403.362	8.56612
405.137	9.95374
406.912	10.7505
408.685	13.2748
410.459	12.8994
412.23	13.6107
414.004	14.8757
415.775	14.9695
417.548	16.7474
419.318	17.9817
421.089	18.3736
422.86	19.1083
424.63	18.4072
426.401	17.5281
428.17	17.5655
429.94	17.1818
431.708	16.2992
433.478	16.4615
435.245	16.1343
437.012	17.1483
438.781	17.6973
440.547	16.9211
442.315	16.543
444.081	16.5539
445.846	16.5311
447.613	17.7815
449.378	18.137
451.142	18.2699
452.908	17.9235
454.672	17.6305
456.435	15.6456
458.2	14.2232
459.963	14.6327
461.725	15.2176
463.489	14.3809
465.251	14.0409
467.012	13.0025
468.775	12.1121
470.536	11.7985
472.296	13.1089
474.056	13.1796
475.817	13.2136
477.576	14.2217
479.335	14.889
481.094	14.2061
482.854	14.685
484.612	15.9145
486.37	16.2552
488.127	17.2742
489.886	18.3305
491.642	18.6765
493.398	19.2425
495.154	20.1182
496.91	20.6721
498.667	20.6918
500.422	23.2377
502.176	24.0181
503.93	25.2653
505.684	26.8458
507.438	27.3346
509.191	27.8166
510.946	28.4533
512.698	29.8922
514.45	33.3872
516.202	36.989
517.954	39.9612
519.705	41.9902
521.456	44.7515
523.206	46.4507
524.956	48.7763
526.706	50.3937
528.456	50.4992
530.207	50.5978
531.956	50.3664
533.704	51.6982
535.452	51.8425
537.2	50.4953
538.947	49.4475
540.694	48.4023
542.441	47.2641
544.188	46.1358
545.934	45.8227
547.68	44.9933
549.425	43.7613
551.17	41.9136
552.915	39.9788
554.659	38.4458
556.403	37.0927
558.145	35.7866
559.889	34.4924
561.632	32.1084
563.375	30.6455
565.117	28.3103
566.859	25.9422
568.601	23.65
570.342	21.5295
572.083	17.8269
573.824	14.8721
575.565	11.8625
577.303	10.302
579.043	8.87494
580.782	7.47926
582.521	6.49036
584.26	5.56015
585.998	5.83577
587.734	5.53288
589.472	4.02418
591.21	2.60353
592.947	1.26264
594.684	1.27744
596.418	1.57567
598.154	2.60955
599.89	5.16596
601.626	5.84528
603.361	6.21547
605.094	5.20141
606.828	4.75511
608.562	6.19957
610.296	7.67098
612.027	8.98269
613.761	9.58869
615.493	9.16074
617.224	9.45004
618.956	11.1352
620.688	12.268
622.419	13.0487
624.149	13.3637
625.879	14.6523
627.61	15.3324
629.338	17.1098
631.068	17.8602
632.797	18.6045
634.525	18.771
636.254	19.956
637.98	18.9867
639.708	17.7485
641.436	16.5989
643.162	16.449
644.889	17.0828
646.614	16.4462
648.34	16.6589
650.067	16.3687
651.791	15.5972
653.516	14.9211
655.239	13.8349
656.964	12.1374
658.687	11.6935
660.411	10.8062
662.133	10.7483
663.857	10.7774
665.58	10.1358
667.301	8.63389
669.024	7.92527
670.744	6.92557
672.464	7.47267
674.186	7.17559
675.905	5.97964
677.626	5.57407
679.345	6.8277
681.065	8.21777
682.783	9.62921
684.503	10.9034
686.22	12.1961
687.939	13.2592
689.656	13.1093
691.372	13.5618
693.09	14.4221
694.806	17.2835
696.523	16.8166
698.239	16.4515
699.953	15.8825
701.67	16.9941
703.384	18.2531
705.098	19.4368
706.813	20.2256
708.526	22.8498
710.239	23.465
711.954	24.7991
713.666	25.6922
715.378	26.4232
717.091	25.7592
718.802	26.1871
720.513	25.6146
722.226	25.4367
723.936	23.9879
725.646	23.6891
727.355	23.7818
729.067	22.9775
730.776	23.7599
732.484	22.9628
734.192	22.9592
735.902	23.0234
737.61	22.9898
739.317	23.8558
741.024	25.2252
742.731	26.245
744.439	27.8004
746.145	28.8298
747.851	29.3492
749.556	31.5076
751.262	34.3472
752.966	36.0044
754.673	38.1955
756.377	40.8455
758.081	42.2625
759.784	44.7849
761.487	46.8301
763.19	48.8514
764.892	51.6112
766.594	54.4479
768.296	56.2948
770	57.842
771.701	59.916
773.402	60.2566
775.102	60.2861
776.803	61.1532
778.503	62.9456
780.202	64.5001
781.901	63.8545
783.6	65.345
785.299	67.2006
786.997	69.3996
788.695	70.9759
790.393	73.4378
792.09	75.2509
793.787	76.7553
795.484	77.5565
797.18	78.2135
798.877	78.5225
800.572	78.7776
802.268	77.6334
803.963	77.5472
805.658	76.1744
807.35	74.589
809.044	73.8148
810.738	73.1919
812.432	72.2349
814.125	72.4357
815.818	72.9101
817.51	71.6717
819.202	71.5139
820.894	73.3573
822.584	74.7306
824.275	76.6259
825.966	77.4671
827.657	80.5116
829.347	83.3081
831.037	85.8124
832.725	87.7737
834.414	91.7134
836.103	93.1699
837.792	94.0225
839.481	95.7099
841.167	97.2834
842.854	97.579
844.542	100.152
846.229	100.926
847.914	101.209
849.6	102.664
851.287	102.074
852.973	101.327
854.656	100.285
856.341	99.5023
858.026	97.9645
859.711	96.4036
861.393	94.2346
863.077	93.9496
864.761	92.4915
866.442	90.2117
868.125	89.1189
869.808	89.1977
871.489	88.5834
873.171	88.4439
874.85	87.3014
876.532	83.9815
878.213	81.4509
879.892	78.6838
881.572	75.1951
883.251	71.1502
884.931	68.9484
886.61	64.8841
888.287	62.0243
889.966	58.0356
891.643	55.2158
893.321	52.7887
894.997	50.6275
896.675	49.6258
898.352	49.6938
900.028	48.1535
901.704	49.0187
903.379	50.7917
905.055	53.848
906.729	55.1351
908.404	56.5785
910.077	58.3486
911.75	60.4154
913.425	61.4714
915.097	62.3146
916.771	64.1242
918.443	64.6549
920.116	64.8726
921.787	64.9899
923.46	65.0016
925.13	66.6768
926.8	67.7504
928.472	67.9263
930.141	67.7659
931.813	67.3129
933.481	66.4925
935.15	65.7893
936.82	67.0716
938.488	66.7399
940.156	66.2857
941.825	62.7963
943.492	60.5437
945.158	58.1408
946.827	56.4718
948.493	54.0942
950.158	52.7083
951.824	52.5989
953.491	50.6247
955.156	47.6407
956.82	46.1971
958.486	42.8537
960.15	39.977
961.814	39.1747
963.477	39.2082
965.142	39.2985
966.804	39.725
968.467	40.7762
970.129	41.382
971.79	41.996
973.454	42.2578
975.115	44.3178
976.776	46.0122
978.436	48.5413
980.096	50.1839
981.756	50.6477
983.417	50.9859
985.077	52.255
986.736	52.8995
988.394	53.1221
990.052	52.4069
991.71	52.4363
993.368	52.1441
995.025	52.8882
996.682	53.7606
998.341	53.8569
999.998	54.2654
1001.65	52.0505
1003.31	51.8307
1004.97	51.9919
1006.62	53.6912
1008.28	55.857
1009.93	57.0586
1011.58	59.2561
1013.24	62.3948
1014.89	66.2526
1016.54	68.5889
1018.2	72.7694
1019.85	74.7864
1021.5	76.4986
1023.16	78.18
1024.81	79.6468
1026.46	83.4046
1028.11	86.0798
1029.76	91.9765
1031.41	96.492
1033.06	99.2826
1034.71	101.557
1036.36	104.436
1038.01	107.263
1039.66	110.836
1041.31	112.982
1042.95	116.618
1044.6	121.062
1046.25	125.017
1047.9	125.921
1049.54	127.57
1051.19	127.375
1052.84	127.982
1054.48	127.644
1056.13	127.564
1057.77	126.781
1059.42	125.399
1061.06	123.259
1062.71	121.923
1064.35	119.074
1066	116.566
1067.64	113.256
1069.28	110.524
1070.93	106.785
1072.57	101.333
1074.21	96.4051
1075.85	92.748
1077.49	89.364
1079.13	85.6685
1080.78	81.1888
1082.42	77.1956
1084.06	73.3602
1085.7	70.4915
1087.34	69.2952
1088.97	68.3888
1090.61	67.7227
1092.25	67.6774
1093.89	67.5115
1095.53	67.4176
1097.17	67.9313
1098.8	66.7112
1100.44	68.3204
1102.08	67.4306
1103.71	69.472
1105.35	68.4923
1106.99	69.0252
1108.62	70.2644
1110.26	70.3108
1111.89	71.0094
1113.52	69.5359
1115.16	67.9851
1116.79	67.2263
1118.43	65.8853
1120.06	64.7564
1121.69	63.6976
1123.32	62.0687
1124.96	61.1572
1126.59	59.9594
1128.22	57.8076
1129.85	54.296
1131.48	53.4693
1133.11	51.9398
1134.75	51.4265
1136.37	50.5802
1138	48.6514
1139.63	46.5609
1141.26	45.7518
1142.89	43.778
1144.52	42.8488
1146.15	40.3417
1147.78	38.6346
1149.4	35.9959
1151.03	32.8792
1152.66	28.5538
1154.28	24.993
1155.91	23.1017
1157.54	21.2606
1159.16	18.5489
1160.79	16.1202
1162.41	13.7389
1164.04	11.5286
1165.66	10.2609
1167.29	10.0656
1168.91	9.13781
1170.53	8.97125
1172.16	8.45475
1173.78	7.26407
1175.4	7.07076
1177.02	7.37254
1178.65	7.99551
1180.27	7.73052
1181.89	8.30356
1183.51	8.24581
1185.13	9.85601
1186.75	7.87205
1188.37	8.64503
1189.99	8.45839
1191.61	8.22426
1193.23	8.5914
1194.85	9.68175
1196.47	10.4624
1198.08	10.4542
1199.7	10.8272
1201.32	12.5014
1202.94	14.3489
1204.55	15.9219
1206.17	18.8102
1207.79	21.1094
1209.4	23.7331
1211.02	26.6083
1212.63	30.968
1214.25	35.2706
1215.86	37.4496
1217.48	41.126
1219.09	43.9016
1220.71	47.318
1222.32	51.7546
1223.93	55.9554
1225.54	59.2681
1227.16	62.1981
1228.77	64.2654
1230.38	66.3436
1231.99	68.2999
1233.6	71.8099
1235.22	74.9056
1236.83	78.243
1238.44	80.3336
1240.05	82.8331
1241.66	86.8237
1243.26	89.8135
1244.87	92.7368
1246.48	95.8658
1248.09	97.0241
1249.7	97.2688
1251.31	100.062
1252.92	100.862
1254.52	100.806
1256.13	102.176
1257.74	105.102
1259.34	107.883
1260.95	110.501
1262.55	112.43
1264.16	115.535
1265.76	118.295
1267.37	120.661
1268.97	124.684
1270.58	127.901
1272.18	132.423
1273.78	135.421
1275.39	140.12
1276.99	143.507
1278.59	147.099
1280.2	151.426
1281.8	157.487
1283.4	161.305
1285	164.478
1286.6	168.031
1288.2	170.939
1289.8	174.287
1291.4	177.615
1293	179.734
1294.6	182.325
1296.2	183.878
1297.8	186.123
1299.4	187.708
1301	189.367
1302.6	191.006
1304.19	191.73
1305.79	191.287
1307.39	191.599
1308.99	190.344
1310.58	190.188
1312.18	188.744
1313.77	188.16
1315.37	186.369
1316.96	184.249
1318.56	182.041
1320.15	179.61
1321.75	178.831
1323.34	175.349
1324.94	171.572
1326.53	166.361
1328.12	162.512
1329.72	157.911
1331.31	154.231
1332.9	150.164
1334.49	146.528
1336.08	145.49
1337.67	144.397
1339.27	142.395
1340.86	139.729
1342.45	136.825
1344.04	136.28
1345.63	135.488
1347.22	133.282
1348.8	132.461
1350.39	131.575
1351.98	132.02
1353.57	129.901
1355.16	129.93
1356.75	128.201
1358.33	127.807
1359.92	126.277
1361.51	124.555
1363.09	123.33
1364.68	123.695
1366.27	123.85
1367.85	124.473
1369.44	125.182
1371.02	125.467
1372.61	124.71
1374.19	124.783
1375.77	125.253
1377.36	126.26
1378.94	128.304
1380.52	128.756
1382.11	131.295
1383.69	133.053
1385.27	133.798
1386.85	136.073
1388.43	138.427
1390.02	141.046
1391.6	142.606
1393.18	145.984
1394.76	149.015
1396.34	150.403
1397.92	153.481
1399.5	155.381
1401.08	159.023
1402.65	161.94
1404.23	166.518
1405.81	171.609
1407.39	177.839
1408.97	183.266
1410.54	191.198
1412.12	198.567
1413.7	206.175
1415.27	214.975
1416.85	223.268
1418.43	231.734
1420	240.842
1421.58	249.629
1423.15	259.527
1424.73	268.623
1426.3	277.89
1427.87	286.974
1429.45	293.447
1431.02	301.012
1432.6	306.665
1434.17	313.367
1435.74	318.936
1437.31	323.946
1438.89	326.611
1440.46	330.147
1442.03	332.041
1443.6	332.097
1445.17	331.247
1446.74	329.717
1448.31	327.567
1449.88	324.395
1451.45	320.995
1453.02	316.27
1454.59	312.026
1456.16	305.764
1457.72	298.384
1459.29	290.518
1460.86	282.574
1462.43	272.518
1463.99	262.5
1465.56	253.503
1467.13	242.859
1468.69	229.903
1470.26	217.995
1471.83	206.691
1473.39	194.398
1474.95	182.088
1476.52	171.342
1478.08	160.407
1479.65	150.922
1481.21	142.637
1482.78	132.824
1484.34	124.067
1485.9	114.75
1487.47	107.135
1489.03	99.9802
1490.59	92.6336
1492.15	85.8065
1493.71	79.8346
1495.27	73.6962
1496.84	69.1525
1498.39	65.3437
1499.96	60.9124
1501.52	58.0404
1503.07	55.1124
1504.64	52.0147
1506.19	49.0683
1507.75	47.0002
1509.31	47.2603
1510.87	45.4069
1512.43	44.0987
1513.98	42.7507
1515.54	42.1166
1517.1	41.2425
1518.65	42.1344
1520.21	41.2339
1521.77	42.7437
1523.32	44.4336
1524.88	46.3604
1526.44	47.6067
1527.99	48.4608
1529.54	49.5913
1531.1	49.3049
1532.65	51.2179
1534.21	52.4123
1535.76	54.1987
1537.31	55.9687
1538.87	58.2703
1540.42	60.1737
1541.97	62.4357
1543.52	64.0374
1545.07	65.1815
1546.63	66.3718
1548.18	68.7242
1549.73	70.4855
1551.28	72.0439
1552.83	73.36
1554.38	74.9356
1555.93	77.5658
1557.48	78.9803
1559.03	80.7602
1560.57	81.9215
1562.12	84.2567
1563.67	85.5492
1565.22	87.4325
1566.77	89.5278
1568.31	91.2835
1569.86	94.2577
1571.41	97.5214
1572.95	100.347
1574.5	104.189
1576.05	107.698
1577.59	111.082
1579.14	114.553
1580.68	118.313
1582.23	122.779
1583.77	126.49
1585.31	129.699
1586.86	133.575
1588.4	136.489
1589.95	139.578
1591.49	142.178
1593.03	145.514
1594.57	147.84
1596.11	150.929
1597.66	152.788
1599.2	155.495
1600.74	157.717
1602.28	159.2
1603.82	160.177
1605.36	161.055
1606.9	161.886
1608.44	163.747
1609.98	165.23
1611.52	166.547
1613.06	168.186
1614.6	169.09
1616.13	170.007
1617.67	169.965
1619.21	170.738
1620.75	171.002
1622.28	171.064
1623.82	171.161
1625.36	171.838
1626.89	173.053
1628.43	173.463
1629.96	173.622
1631.5	173.674
1633.04	173.807
1634.57	173.428
1636.11	173.906
1637.64	174.54
1639.17	174.797
1640.71	175.292
1642.24	175.292
1643.77	177.23
1645.31	177.314
1646.84	179.061
1648.37	178.289
1649.9	177.74
1651.43	177.316
1652.96	176.275
1654.5	174.561
1656.03	173.195
1657.56	171.673
1659.09	169.594
1660.62	166.494
1662.15	163.588
1663.67	160.174
1665.2	155.945
1666.73	151.206
1668.26	146.903
1669.79	142.792
1671.32	137.878
1672.84	133.134
1674.37	128.2
1675.9	123.861
1677.43	118.012
1678.95	111.821
1680.48	106.762
1682	101.449
1683.53	97.5167
1685.05	93.1506
1686.58	87.9734
1688.1	84.0368
1689.63	79.11
1691.15	74.4189
1692.68	70.437
1694.2	65.7416
1695.72	62.2566
1697.25	59.3567
1698.77	55.9232
1700.29	53.6202
1701.81	51.3757
1703.33	48.2877
1704.86	45.3457
1706.38	42.5846
1707.9	40.82
1709.42	39.6856
1710.94	37.3145
1712.46	36.2735
1713.98	36.1151
1715.5	34.9314
1717.02	34.3957
1718.54	34.2585
1720.06	33.8902
1721.57	33.4429
1723.09	32.7162
1724.61	30.5161
1726.13	30.288
1727.64	29.651
1729.16	29.514
1730.68	28.7547
1732.19	27.7766
1733.71	26.9826
1735.23	25.8068
1736.74	24.6546
1738.26	23.4071
1739.77	22.5781
1741.29	21.8963
1742.8	20.4569
1744.31	19.1396
1745.83	17.7334
1747.34	17.1216
1748.85	16.6459
1750.37	15.8204
1751.88	15.1725
1753.39	13.7584
1754.91	13.3249
1756.42	13.2221
1757.93	12.656
1759.44	11.9314
1760.95	10.447
1762.46	9.8913
1763.97	9.20523
1765.48	8.4074
1766.99	8.15443
1768.5	7.68316
1770.01	6.48467
1771.52	6.83317
1773.03	6.51009
1774.54	5.04414
1776.04	4.68801
1777.55	3.99568
1779.06	3.31445
1780.57	2.8987
1782.07	2.38218
1783.58	2.53974
1785.09	1.71238
1786.59	1.28029
1788.1	2.39581
1789.6	2.0658
1791.11	1.16012
1792.61	1.22663
1794.12	0.818458
1795.62	0.10393
1797.13	-0.837801
1798.63	-1.77054
1800.13	-1.62573
1801.64	-1.23058
1803.14	-1.33281
1804.64	-1.28248
1806.15	-1.45497
1807.65	-1.61245
1809.15	-1.20071
1810.65	-1.14106
1812.15	-1.80923
1813.65	-1.62981
1815.16	-1.80853
1816.66	-2.16949
1818.15	-2.56255
1819.66	-2.41498
1821.16	-1.60669
1822.65	-1.3278
1824.15	-0.631269
1825.65	-0.345699
1827.15	-0.0339654
1828.65	-0.316175
1830.15	-0.730051
1831.64	0.254597
1833.14	0.746378
1834.64	0.753391
1836.14	1.5287
1837.63	1.64481
1839.13	2.28371
1840.62	2.61449
1842.12	1.57752
1843.62	1.2956
1845.11	1.06554
1846.61	1.28466
1848.1	1.70408
1849.6	2.47506
1851.09	2.76307
1852.58	3.30509
1854.08	3.6559
1855.57	5.07024
1857.06	5.09759
1858.55	5.22224
1860.05	5.02479
1861.54	5.24521
1863.03	5.432
1864.52	5.09352
1866.01	5.32157
1867.5	5.94826
1869	5.808
1870.49	6.10416
1871.98	5.56351
1873.47	6.5432
1874.96	7.1456
1876.44	7.4166
1877.93	7.69678
1879.42	7.85277
1880.91	6.97596
1882.4	6.38925
1882.47	5.85388
1883.96	6.02555
1885.46	6.07204
1886.95	7.07282
1888.44	7.27346
1889.94	7.62741
1891.43	8.48685
1892.93	9.36677
1894.42	9.75908
1895.91	9.38835
1897.4	9.60453
1898.89	8.67648
1900.39	8.72851
1901.88	8.24485
1903.37	8.0562
1904.86	8.59868
1906.35	6.68464
1907.84	6.29864
1909.33	6.57648
1910.82	6.08822
1912.31	6.3281
1913.8	6.19049
1915.29	5.8466
1916.77	7.54838
1918.26	8.05124
1919.75	8.76065
1921.24	9.25038
1922.73	8.80794
1924.21	7.26499
1925.7	7.65889
1927.19	7.66734
1928.67	7.48916
1930.16	6.753
1931.64	6.83809
1933.13	7.02378
1934.61	6.96611
1936.1	7.29299
1937.58	7.51741
1939.07	7.29335
1940.55	6.48408
1942.04	5.84038
1943.52	5.77298
1945	6.62068
1946.49	7.32711
1947.97	7.44433
1949.45	7.38844
1950.93	7.00664
1952.42	6.39114
1953.9	5.90484
1955.38	7.37083
1956.86	7.81112
1958.34	8.27884
1959.82	8.26102
1961.3	8.00979
1962.78	7.67969
1964.26	7.90848
1965.74	8.58257
1967.22	8.00214
1968.7	8.34668
1970.18	8.30832
1971.65	8.89663
1973.13	8.82832
1974.61	9.2605
1976.09	8.20832
1977.57	8.56947
1979.04	8.81342
1980.52	9.47137
1982	10.3982
1983.47	10.9203
1984.95	10.956
1986.42	11.5995
1987.9	12.4603
1989.37	12.075
1990.85	11.7452
1992.32	11.2792
1993.8	11.4939
1995.27	11.5251
1996.75	11.0259
1998.22	10.3848
1999.69	9.93058
2001.17	9.76681
2002.64	9.07259
2004.11	9.74829
2005.58	9.58703
2007.05	9.44116
2008.53	9.32398
2010	9.7252
2011.47	8.63225
2012.94	9.00789
2014.41	8.6848
2015.88	8.70865
2017.35	9.13244
2018.82	10.1575
2020.29	10.1349
2021.76	10.4855
2023.23	10.3582
2024.7	10.109
2026.16	10.4528
2027.63	10.7578
2029.1	10.3555
2030.57	9.6329
2032.03	9.33072
2033.5	9.90827
2034.97	11.1056
2036.44	12.2761
2037.9	13.09
2039.37	14.2189
2040.83	14.784
2042.3	16.0152
2043.76	17.2833
2045.23	17.7322
2046.69	18.0982
2048.16	18.204
2049.62	17.584
2051.08	18.2701
2052.55	18.8849
2054.01	19.4113
2055.47	20.1786
2056.94	20.9474
2058.4	20.8825
2059.86	21.7367
2061.32	21.7091
2062.79	21.6369
2064.25	22.9885
2065.71	22.9136
2067.17	23.5824
2068.63	23.6081
2070.09	23.7253
2071.55	24.0574
2073.01	24.7966
2074.47	26.6718
2075.93	27.3191
2077.39	28.7725
2078.85	28.8378
2080.31	29.996
2081.76	30.9562
2083.22	32.6686
2084.68	33.4927
2086.13	35.5127
2087.59	36.2357
2089.05	37.8339
2090.51	39.4869
2091.96	40.9422
2093.42	41.9087
2094.87	43.0436
2096.33	44.0886
2097.78	45.3663
2099.24	46.8879
2100.69	47.7872
2102.15	49.885
2103.6	52.4875
2105.06	54.991
2106.51	58.4545
2107.96	61.4886
2109.42	63.0624
2110.87	64.3084
2112.32	66.3371
2113.77	67.9687
2115.23	70.5985
2116.68	72.5457
2118.13	72.967
2119.58	74.515
2121.03	74.8668
2122.48	77.5482
2123.93	80.8661
2125.38	83.3083
2126.83	85.9813
2128.28	89.4247
2129.73	91.1934
2131.18	92.9089
2132.63	96.9168
2134.08	99.7589
2135.53	102.72
2136.97	105.181
2138.42	107.619
2139.87	111.289
2141.32	114.098
2142.76	117.138
2144.21	119.085
2145.66	122.24
2147.1	125.35
2148.55	127.512
2150	130.334
2151.44	133.45
2152.89	136.378
2154.33	138.567
2155.78	142.277
2157.22	144.406
2158.66	146.305
2160.11	147.873
2161.55	149.839
2163	151.862
2164.44	152.946
2165.88	153.701
2167.32	154.916
2168.77	156.348
2170.21	157.401
2171.65	158.193
2173.09	158.246
2174.53	158.597
2175.97	158.828
2177.41	158.793
2178.85	157.469
2180.29	154.642
2181.73	152.022
2183.17	150.285
2184.61	148.942
2186.05	147.665
2187.49	146.017
2188.93	143.654
2190.37	140.997
2191.81	138.643
2193.24	136.529
2194.68	135.248
2196.12	132.391
2197.56	129.114
2198.99	126.366
2200.43	123.562
2201.87	119.959
2203.3	116.939
2204.74	115.317
2206.17	112.032
2207.61	108.02
2209.04	105.982
2210.48	103.092
2211.91	99.9945
2213.35	96.6618
2214.78	93.4824
2216.21	90.2687
2217.65	87.9609
2219.08	85.7345
2220.51	83.4446
2221.95	80.7898
2223.38	78.3399
2224.81	75.4493
2226.24	73.6059
2227.67	71.7282
2229.1	68.7028
2230.54	65.8878
2231.97	63.7623
2233.4	63.0307
2234.83	61.3208
2236.26	58.7631
2237.69	57.0108
2239.11	55.8974
2240.54	54.2828
2241.97	52.079
2243.4	50.2478
2244.83	48.2373
2246.26	47.6059
2247.69	46.2653
2249.11	44.2614
2250.54	42.9506
2251.97	42.2001
2253.4	42.1576
2254.82	41.6413
2256.25	40.8131
2257.67	39.6864
2259.1	38.3136
2260.53	37.435
2261.95	36.1562
2263.38	35.4965
2264.8	34.934
2266.23	34.0959
2267.65	33.7099
2269.07	33.0187
2270.5	32.2377
2271.92	31.8439
2273.34	31.5013
2274.77	31.3691
2276.19	31.3542
2277.61	29.7667
2279.03	28.4228
2280.46	28.424
2281.88	26.2043
2283.3	25.7458
2284.72	24.5495
2286.14	24.2668
2287.56	23.6593
2288.98	22.2528
2290.4	21.2306
2291.82	19.7626
2293.24	17.3896
2294.66	16.996
2296.08	16.5767
2297.5	15.7026
2298.92	15.1641
2300.34	15.5808
2301.76	16.5625
2303.17	17.2067
2304.59	17.6927
2306.01	17.2843
2307.43	15.8276
2308.84	15.8209
2310.26	15.2747
2311.68	14.7346
2313.09	14.2046
2314.51	13.9075
2315.92	13.8516
2317.34	13.9034
2318.75	12.9762
2320.17	13.1803
2321.58	12.3394
2323	12.0375
2324.41	11.5529
2325.82	11.2823
2327.24	11.3043
2328.65	10.7472
2330.06	10.5314
2331.48	10.8899
2332.89	11.1783
2334.3	11.0318
2335.71	10.6404
2337.12	10.1894
2338.54	9.66095
2339.95	9.53034
2341.36	8.9094
2342.77	8.35912
2344.18	7.74759
2345.59	7.13308
2347	5.81467
2348.41	3.99183
2349.82	3.48411
2351.23	2.68521
2352.64	1.33115
2354.04	1.06516
2355.45	0.242976
2356.86	-0.0658711
2358.27	-1.22919
2359.68	-1.97355
2361.08	-1.39504
2362.49	-2.07887
2363.9	-1.79956
2365.3	-0.450934
2366.71	-0.129325
2368.12	0.174919
2369.52	0.418218
2370.93	1.68287
2372.33	1.91897
2373.74	1.51125
2375.14	1.48684
2376.55	1.81132
2377.95	1.92644
2379.36	2.24561
2380.76	1.75205
2382.16	2.35491
2383.57	3.08386
2384.97	4.21178
2386.37	4.57137
2387.78	4.06064
2389.18	4.5573
2390.58	5.63525
2391.98	5.94197
2393.38	7.13665
2394.79	7.90432
2396.19	8.87868
2397.59	9.18753
2398.99	8.80651
2400.39	9.40477
2401.79	10.1834
2403.19	10.5435
2404.59	10.6513
2405.99	10.54
2407.39	10.8004
2408.78	11.4005
2410.18	11.3722
2411.58	10.6605
2412.98	9.57039
2414.38	9.11517
2415.77	8.94127
2417.17	8.51477
2418.57	8.62833
2419.97	8.14536
2421.36	8.5124
2422.76	9.05041
2424.15	9.32891
2425.55	9.79239
2426.95	9.16591
2428.34	8.67483
2429.74	8.64425
2431.13	7.96412
2432.52	7.4987
2433.92	8.50717
2435.31	8.4106
2436.71	7.63451
2438.1	8.01827
2439.49	8.29064
2440.89	9.26563
2442.28	8.47478
2443.67	8.60903
2445.06	9.11986
2446.46	9.38779
2447.85	9.08722
2449.24	8.35104
2450.63	8.90857
2452.02	9.4489
2453.41	9.2237
2454.8	8.81428
2456.19	8.41741
2457.58	8.11436
2458.97	9.24785
2460.36	9.39721
2461.75	9.08514
2463.14	8.31876
2464.53	8.4196
2465.92	7.31497
2467.31	6.74589
2468.69	6.61384
2470.08	7.10051
2471.47	6.76624
2472.86	6.51642
2474.24	6.25353
2475.63	5.45874
2477.02	4.97041
2478.4	5.0243
2479.79	4.1419
2481.17	4.11163
2482.56	4.22359
2483.94	4.21559
2485.33	4.91822
2486.72	5.22929
2488.1	5.88157
2489.48	6.00961
2490.87	6.23507
2492.25	5.5376
2493.64	4.23974
2495.02	3.41901
2496.4	2.82044
2497.79	2.70298
2499.17	3.11642
2500.55	3.16992
2501.93	3.58719
2503.31	3.89021
2504.69	3.65549
2506.08	3.42516
2507.46	4.05462
2508.84	3.78409
2510.22	3.65988
2511.6	3.42343
2512.98	3.53694
2514.36	3.23349
2515.74	2.77567
2517.12	1.89296
2518.5	1.68313
2519.88	1.60684
2521.25	1.40726
2522.63	1.00165
2524.01	1.74461
2525.39	1.79281
2526.77	2.25839
2528.14	2.28529
2529.52	1.46014
2530.9	1.37201
2532.27	1.31326
2533.65	1.48894
2535.03	1.26271
2536.4	1.8919
2537.78	1.78309
2539.15	1.60376
2540.53	1.64833
2541.9	2.21391
2543.28	3.08747
2544.65	3.14734
2546.03	3.85092
2547.4	5.35029
2548.77	6.02081
2550.15	6.02304
2551.52	6.37117
2552.89	6.7106
2554.27	7.74432
2555.64	7.9437
2557.01	7.90272
2558.38	7.42988
2559.75	7.69194
2561.12	7.99157
2562.5	8.16684
2563.87	8.2366
2565.24	8.445
2566.61	8.10778
2567.98	8.70726
2569.35	8.03292
2570.72	8.50011
2572.09	8.34623
2573.46	8.46558
2574.83	7.97026
2576.19	7.97043
2577.56	7.51955
2578.93	7.25183
2580.3	6.91079
2581.67	6.05346
2583.04	6.47619
2584.4	5.97123
2585.77	6.13422
2587.14	6.21599
2588.5	6.69236
2589.87	6.82587
2591.23	6.9717
2592.6	7.694
2593.97	7.57649
2595.33	7.66055
2596.7	7.14809
2598.06	7.41319
2599.43	7.76645
2600.79	8.30307
2602.15	7.92724
2603.52	8.53327
2604.88	8.66929
2606.25	8.37331
2607.61	9.15711
2608.97	9.92973
2610.33	10.1323
2611.7	10.4418
2613.06	10.463
2614.42	11.1648
2615.78	11.4572
2617.15	10.7754
2618.51	10.8166
2619.87	11.5295
2621.23	12.0812
2622.59	11.7873
2623.95	11.8286
2625.31	11.7469
2626.67	12.2181
2628.03	11.7012
2629.39	11.0375
2630.75	10.6797
2632.1	9.8566
2633.46	9.94059
2634.82	9.82512
2636.18	10.2532
2637.54	9.67516
2638.89	9.87335
2640.25	9.64449
2641.61	9.72965
2642.97	9.76851
2644.32	9.95985
2645.68	9.04504
2647.03	9.10507
2648.39	8.72987
2649.75	8.59335
2651.1	9.26616
2652.46	8.69014
2653.81	9.70183
2655.17	9.55298
2656.52	9.66252
2657.88	8.62988
2659.23	8.34312
2660.58	8.54576
2661.94	8.43062
2663.29	8.169
2664.64	9.29069
2666	9.62997
2667.35	9.90252
2668.7	10.0581
2670.05	9.64967
2671.4	10.5135
2672.76	10.5156
2674.11	11.0785
2675.46	12.072
2676.81	11.941
2678.16	12.1516
2679.51	12.9383
2680.86	13.1341
2682.21	12.7743
2683.56	12.9495
2684.91	13.5012
2686.26	14.2733
2687.61	14.7784
2688.96	15.3266
2690.3	15.4791
2691.65	16.6318
2693	17.438
2694.35	18.2116
2695.7	19.2423
2697.04	20.349
2698.39	21.0977
2699.74	21.8547
2701.08	23.3866
2702.43	24.4124
2703.77	25.4256
2705.12	26.0523
2706.47	26.684
2707.81	28.3876
2709.16	28.9845
2710.5	29.7163
2711.85	29.6875
2713.19	30.7683
2714.53	31.6091
2715.88	32.2408
2717.22	33.1076
2718.57	34.1184
2719.91	34.5073
2721.25	35.0979
2722.59	34.6318
2723.94	34.7678
2725.28	33.9556
2726.62	34.4296
2727.96	34.8692
2729.3	35.4024
2730.65	35.2389
2731.99	36.0633
2733.33	35.0859
2734.67	34.7872
2736.01	34.0313
2737.35	33.0489
2738.69	32.7084
2740.03	31.9844
2741.37	31.2491
2742.71	29.5261
2744.05	28.4684
2745.38	26.7452
2746.72	25.398
2748.06	24.2987
2749.4	22.9531
2750.74	22.06
2752.07	21.4557
2753.41	20.1203
2754.75	19.0338
2756.09	18.1628
2757.42	16.611
2758.76	16.0685
2760.09	14.4991
2761.43	12.9671
2762.77	11.6017
2764.1	10.4697
2765.44	9.89927
2766.77	8.81295
2768.11	7.90213
2769.44	5.97799
2770.77	4.75219
2772.11	3.73187
2773.44	3.28599
2774.77	3.55889
2776.11	3.20717
2777.44	1.98413
2778.77	1.74954
2780.11	1.35869
2781.44	0.482917
2782.77	0.186957
2784.1	0.463071
2785.43	0.342969
2786.77	-0.167877
2788.1	-0.0437687
2789.43	-0.0182273
2790.76	0.781426
2792.09	0.789479
2793.42	1.79545
2794.75	3.57902
2796.08	4.75138
2797.41	4.53053
2798.74	5.4751
2800.07	5.97777
2801.4	6.25089
2802.72	6.19842
2804.05	6.41888
2805.38	7.75079
2806.71	8.10089
2808.04	6.69178
2809.36	5.87281
2810.69	5.79226
2812.02	5.52053
2813.34	6.80313
2814.67	8.79597
2816	10.8945
2817.32	14.642
2818.65	19.2975
2819.97	25.1784
2821.3	32.2726
2822.62	39.7462
2823.95	47.8826
2825.27	58.3393
2826.6	68.9022
2827.92	80.304
2829.25	92.4502
2830.57	105.652
2831.89	118.02
2833.22	131.35
2834.54	145.49
2835.86	159.275
2837.18	174.202
2838.51	188.219
2839.83	202.663
2841.15	216.791
2842.47	230.597
2843.79	243.323
2845.11	257.497
2846.43	271.295
2847.76	285.75
2849.08	299.496
2850.4	316.107
2851.72	332.09
2853.04	349.162
2854.36	367.066
2855.67	384.475
2856.99	402.047
2858.31	417.913
2859.63	433.714
2860.95	448.207
2862.27	460.395
2863.58	472.794
2864.9	485.136
2866.22	496.287
2867.54	504.768
2868.85	513.184
2870.17	520.837
2871.49	528.613
2872.8	535.363
2874.12	540.438
2875.43	547.248
2876.75	553.258
2878.07	559.504
2879.38	565.66
2880.7	572.196
2882.01	578.674
2883.32	585.78
2884.64	593.251
2885.95	600.74
2887.27	606.814
2888.58	613.927
2889.89	620.766
2891.21	626.512
2892.52	631.887
2893.83	637.839
2895.14	643.109
2896.46	648.776
2897.77	653.907
2899.08	659.18
2900.39	665.105
2901.7	669.874
2903.01	675.783
2904.32	681.898
2905.63	689.087
2906.94	696.805
2908.25	704.441
2909.56	712.903
2910.87	723.107
2912.18	734.748
2913.49	745.891
2914.8	758.658
2916.11	771.256
2917.42	782.888
2918.72	794.161
2920.03	804.135
2921.34	812.914
2922.65	819.536
2923.95	824.764
2925.26	828.164
2926.57	830.227
2927.88	832.613
2929.18	833.429
2930.49	832.539
2931.79	830.082
2933.1	824.716
2934.4	818.986
2935.71	811.553
2937.01	803.338
2938.32	792.721
2939.62	779.95
2940.93	767.36
2942.23	753.656
2943.54	739.539
2944.84	724.444
2946.14	709.793
2947.45	694.099
2948.75	678.389
2950.05	661.582
2951.35	644.279
2952.66	626.833
2953.96	608.184
2955.26	588.52
2956.56	570.493
2957.86	553.155
2959.16	537.136
2960.46	519.589
2961.77	502.97
2963.07	485.997
2964.37	470.759
2965.66	457.239
2966.96	443.106
2968.26	429.421
2969.56	416.946
2970.86	404.25
2972.16	392.507
2973.46	380.675
2974.76	370.697
2976.06	360.549
2977.35	350.765
2978.65	339.844
2979.95	330.043
2981.25	318.97
2982.54	309.412
2983.84	298.798
2985.14	288.513
2986.43	277.634
2987.73	266.702
2989.02	255.933
2990.32	244.449
2991.62	233.906
2992.91	223.298
2994.21	212.108
2995.5	200.039
2996.8	189.07
2998.09	177.003
2999.38	166.575
3000.68	155.485
3001.97	144.693
3003.26	134.14
3004.56	124.427
3005.85	115.609
3007.14	107.722
3008.43	100.292
3009.73	93.7036
3011.02	87.8625
3012.31	81.2036
3013.6	75.3558
3014.89	69.7857
3016.19	64.5807
3017.48	58.9249
3018.77	52.8063
3020.06	49.8265
3021.35	46.1794
3022.64	42.5505
3023.93	40.1242
3025.22	35.7249
3026.5	32.7464
3027.79	29.7037
3029.08	28.9851
3030.37	27.1436
3031.66	25.7757
3032.95	24.0787
3034.24	24.5829
3035.52	24.032
3036.81	24.3451
3038.1	24.3454
3039.39	24.768
3040.67	24.9508
3041.96	24.9722
3043.25	24.9255
3044.53	26.1437
3045.82	26.9032
3047.1	27.3482
3048.39	28.1255
3049.67	27.971
3050.96	28.1481
3052.24	28.0451
3053.53	27.8938
3054.81	28.0599
3056.1	27.6601
3057.38	27.3592
3058.67	26.5783
3059.95	25.2189
3061.23	25.7143
3062.52	24.2788
3063.8	23.5603
3065.08	21.9439
3066.36	20.94
3067.65	20.2163
3068.93	19.8831
3070.21	19.2698
3071.49	19.1471
3072.77	18.2039
3074.05	17.5661
3075.33	16.6754
3076.61	14.8996
3077.89	13.7609
3079.17	12.7206
3080.45	10.5262
3081.73	9.10631
3083.01	7.71475
3084.29	7.15986
3085.57	5.63369
3086.85	4.71888
3088.13	3.15551
3089.41	1.29104
3090.68	0.329569
3091.96	-0.137976
3093.24	0.227853
3094.52	-0.184252
3095.79	-0.510174
3097.07	-0.628357
3098.35	-0.791938
3099.62	-1.57814
3100.9	-1.04654
3102.18	-0.545188
3103.45	-0.11499
3104.73	0.386149
3106	0.62584
3107.28	2.08654
3108.55	3.00102
3109.83	3.4658
3111.1	4.47498
3112.38	4.96625
3113.65	5.8192
3114.93	7.52705
3116.2	8.52262
3117.47	10.5619
3118.75	11.3008
3120.02	11.9125
3121.29	13.1722
3122.57	14.3563
3123.84	16.0958
3125.11	17.9595
3126.38	18.5696
3127.65	19.5903
3128.92	20.4644
3130.2	21.4537
3131.47	23.0638
3132.74	24.9441
3134.01	26.1147
3135.28	27.7654
3136.55	28.9724
3137.82	30.9177
3139.09	31.8987
3140.36	32.6572
3141.63	34.0347
3142.9	35.0566
3144.17	36.0655
3145.43	36.7102
3146.7	37.4419
3147.97	38.1382
3149.24	39.0815
