#Acq. time (s)=	45
#Accumulations=	2
#Range (cm-¹)=	200...3150
#Windows=	2
#Auto scanning=	Off
#Autofocus=	Off
#Macrospot=	Off
#AutoExposure=	Off
#Spike filter=	Multiple accum.
#Delay time (s)=	0
#Binning=	1
#Readout mode=	Signal
#DeNoise=	Off
#ICS correction=	On
#Dark correction=	Off
#Inst. Process=	Off
#Detector Gain=	Best Dynamic Range
#Detector ADC=	20 kHz       
#Detector temperature (°C)=	-69.85
#Instrument=	LabRAM HR Evol
#Detector=	Synapse
#Objective=	x100
#Grating=	600 gr/mm
#ND Filter=	100%
#Laser (nm)=	532 
#Hole=	100.021
#Range=	Auto
#Laser Pol.=	No
#Raman. Pol.=	No
#Laser Pol. (°)=	-0.0007625
#Raman Pol. (°)=	89.9995
#Collection=	Microscope
#StageXY=	Marzhauser
#StageZ=	Marzhauser
#X (µm)=	-1250.4
#Y (µm)=	2709
#Z (µm)=	587.1
#Full time(mm:ss)=	3:18
#Project=	
#Sample=	
#Site=	
#Title=	Mb_40_y_03_2x_45s_532 nm_x100_100%_600 gr_mm
#Remark=	
#Date=	18.07.2022 15:18
#Acquired=	18.07.2022 15:18:54
#Base:Fit=	10.08.2022 10:52:48
#Base:Sub=	10.08.2022 10:52:53
#Filter:Polynom=	16.08.2022 10:09:04
#AxisType[0]=Intens
#AxisUnit[0]=Cnt
#AxisType[1]=Spectr
#AxisUnit[1]=1/cm
200.419	4.51475
202.234	4.60286
204.048	5.86152
205.862	4.94737
207.678	4.64785
209.491	4.4882
211.304	4.61994
213.116	4.95197
214.928	4.90913
216.742	4.64257
218.554	5.08228
220.365	4.0865
222.176	3.80177
223.986	2.70009
225.798	1.95327
227.608	3.26244
229.417	2.95718
231.226	2.80094
233.035	2.7729
234.843	2.38709
236.653	2.69172
238.46	2.96653
240.268	3.21487
242.074	3.2467
243.881	3.61773
245.687	4.18201
247.493	3.5785
249.298	3.32094
251.103	3.70638
252.908	3.73702
254.715	3.74839
256.519	4.08694
258.322	4.09291
260.126	4.64644
261.929	5.27464
263.731	6.12453
265.534	6.91902
267.336	7.22078
269.137	7.20338
270.938	6.31542
272.739	6.73793
274.54	6.83429
276.34	7.33528
278.14	7.20403
279.939	6.87311
281.739	7.86257
283.537	8.07428
285.336	7.91802
287.134	7.57708
288.932	7.32068
290.729	7.43362
292.526	6.84486
294.323	7.62734
296.117	8.23708
297.913	7.72279
299.709	7.36102
301.504	7.09029
303.299	7.63454
305.093	7.43908
306.888	7.90284
308.682	7.7482
310.475	6.95224
312.268	7.16611
314.059	6.74333
315.852	7.66231
317.644	8.25594
319.436	7.65474
321.227	7.47
323.018	7.11626
324.807	7.09463
326.597	6.78482
328.387	6.4065
330.177	5.57005
331.967	5.02161
333.753	5.38045
335.542	4.92089
337.331	4.27282
339.119	4.63041
340.906	5.85599
342.691	5.81653
344.478	5.22487
346.265	5.67698
348.051	5.75724
349.835	5.58936
351.621	6.51422
353.406	6.94708
355.189	6.41654
356.973	6.1572
358.757	4.98367
360.541	4.52407
362.323	5.70316
364.106	6.12348
365.889	6.55793
367.669	6.84809
369.451	7.34328
371.233	8.22157
373.012	8.24463
374.793	7.63561
376.574	7.18457
378.353	7.51517
380.133	7.63912
381.91	7.68514
383.69	8.20001
385.469	6.83934
387.245	6.98503
389.024	7.39341
390.8	8.85257
392.577	9.92494
394.353	10.1508
396.129	10.6376
397.906	10.4192
399.68	10.6569
401.456	10.683
403.23	10.813
405.005	11.4113
406.778	11.0989
408.552	11.2297
410.325	10.4405
412.099	9.83284
413.87	10.0389
415.643	9.48334
417.414	9.63934
419.187	9.30855
420.957	10.2391
422.728	10.8345
424.498	10.9039
426.269	10.8356
428.038	10.7414
429.806	11.3137
431.576	10.077
433.344	10.819
435.114	11.9303
436.881	11.6028
438.649	11.7827
440.416	12.3535
442.182	11.782
443.949	11.963
445.715	12.2267
447.48	12.0629
449.247	12.149
451.011	11.63
452.777	11.136
454.541	11.6444
456.304	11.9818
458.069	11.176
459.832	11.55
461.594	11.2715
463.358	10.2696
465.119	9.71662
466.881	9.53063
468.642	9.50828
470.404	9.5604
472.165	9.74622
473.925	9.02871
475.684	9.79561
477.445	10.4364
479.204	11.4842
480.963	11.0962
482.721	10.5271
484.481	10.0868
486.239	10.0797
487.996	9.24691
489.753	9.78418
491.511	10.3525
493.268	10.374
495.023	10.5097
496.779	10.5623
498.534	10.7647
500.289	11.4604
502.046	12.3396
503.8	12.7159
505.554	12.9169
507.307	13.5385
509.06	14.7022
510.813	15.3625
512.566	16.1613
514.32	16.0789
516.072	16.9895
517.823	17.4349
519.574	18.0117
521.325	19.6121
523.076	20.1357
524.826	19.7376
526.576	20.0464
528.325	19.882
530.074	19.6248
531.823	20.6882
533.572	20.9593
535.32	19.9624
537.068	20.0438
538.815	20.0752
540.562	20.9542
542.309	21.2876
544.056	20.5978
545.802	20.0014
547.547	20.4278
549.293	19.6212
551.038	18.0962
552.783	16.9264
554.527	16.5481
556.271	15.7982
558.015	14.7889
559.759	14.0095
561.502	12.7078
563.245	12.2303
564.987	12.1555
566.729	11.3342
568.471	9.71458
570.213	9.18348
571.954	9.48435
573.693	9.25556
575.433	8.30427
577.173	8.47078
578.913	7.17891
580.652	6.48612
582.392	6.26339
584.13	5.69056
585.867	5.57719
587.605	5.03939
589.343	5.21069
591.08	4.76749
592.817	4.24831
594.552	5.04515
596.289	4.99376
598.025	5.72803
599.761	5.79706
601.496	5.51667
603.229	5.07336
604.964	5.69001
606.699	6.69207
608.433	7.46539
610.165	7.97931
611.898	8.00782
613.631	9.31329
615.364	9.82881
617.095	11.1657
618.827	12.304
620.559	12.807
622.288	12.4792
624.02	12.6972
625.75	12.9267
627.479	13.8499
629.209	13.2948
630.939	13.8662
632.667	13.7983
634.396	14.3041
636.125	14.1208
637.851	13.0448
639.58	13.9795
641.305	14.6873
643.033	15.5572
644.76	16.4189
646.485	16.6665
648.212	16.9406
649.936	17.8133
651.662	18.5863
653.388	17.8298
655.111	18.1046
656.836	18.0057
658.558	18.6953
660.283	18.3085
662.005	18.5575
663.728	18.808
665.45	19.6036
667.173	20.3437
668.893	20.5942
670.616	20.7371
672.336	21.2979
674.057	22.0479
675.777	23.1659
677.498	23.1789
679.216	24.4528
680.937	25.6687
682.655	26.6766
684.375	28.3736
686.092	28.0377
687.809	28.3178
689.528	29.3346
691.244	31.2267
692.962	32.0872
694.678	32.458
696.393	33.0647
698.111	33.9271
699.825	35.6251
701.54	35.8052
703.256	36.2701
704.97	36.6386
706.685	37.9467
708.398	38.555
710.111	39.2079
711.826	40.8967
713.538	42.2491
715.25	42.9161
716.961	43.9715
718.675	43.6544
720.386	44.7664
722.096	45.228
723.808	44.9045
725.518	46.7482
727.228	46.5834
728.937	46.9061
730.648	47.2016
732.357	46.6298
734.065	46.4512
735.773	46.3815
737.483	46.3768
739.19	46.4842
740.897	47.1315
742.604	47.6084
744.31	48.5335
746.018	48.657
747.724	50.3846
749.429	51.3228
751.134	51.8348
752.839	52.2464
754.544	52.0882
756.248	52.7844
757.953	54.518
759.657	55.6655
761.36	57.2826
763.063	58.3166
764.765	60.0041
766.468	61.2431
768.169	61.8877
769.871	62.5139
771.572	62.5832
773.273	63.9615
774.976	64.3174
776.676	65.1832
778.376	65.6666
780.075	66.6408
781.775	68.1176
783.474	70.098
785.172	71.6766
786.871	71.7227
788.569	72.8975
790.266	74.3334
791.964	75.9226
793.661	75.6693
795.358	75.8785
797.054	76.704
798.75	77.7606
800.446	78.7841
802.141	79.2821
803.834	79.1779
805.529	79.2488
807.224	78.4002
808.918	77.9013
810.612	78.4875
812.305	77.2044
813.998	77.4017
815.691	77.7226
817.384	76.2109
819.076	76.0348
820.766	76.4297
822.458	76.4578
824.149	76.0318
825.84	75.5624
827.531	75.3184
829.221	74.8295
830.909	74.292
832.599	74.2202
834.288	73.1354
835.977	71.7414
837.666	71.0124
839.353	69.9396
841.041	70.3375
842.729	69.2454
844.416	67.8375
846.103	66.5381
847.788	64.9326
849.475	63.7307
851.161	62.4338
852.845	60.7015
854.53	59.8085
856.216	57.945
857.901	56.9445
859.583	55.3175
861.268	55.1768
862.952	53.4856
864.633	52.4
866.317	50.7331
868	50.1235
869.681	49.0948
871.363	47.9592
873.045	47.451
874.725	47.2567
876.406	46.8463
878.088	46.4764
879.767	46.3936
881.447	47.0752
883.125	47.374
884.805	47.3438
886.483	46.0423
888.162	44.8809
889.841	44.9818
891.518	45.3088
893.196	45.8461
894.872	46.5456
896.55	46.434
898.225	47.6677
899.902	48.0073
901.577	47.6419
903.254	48.6819
904.928	49.328
906.604	49.6657
908.277	50.0413
909.952	50.2154
911.625	50.8385
913.3	50.8485
914.972	51.6272
916.646	51.876
918.318	51.1696
919.991	50.7056
921.662	50.8701
923.333	50.5007
925.005	50.5444
926.675	49.3535
928.347	49.0464
930.017	48.1349
931.686	47.7779
933.357	47.3317
935.025	47.4535
936.693	46.1764
938.363	45.5332
940.031	45.081
941.698	43.9169
943.367	41.9831
945.034	40.9313
946.7	39.8466
948.368	39.4707
950.034	39.2587
951.699	39.1296
953.367	38.6183
955.031	37.1248
956.696	36.4442
958.36	36.1646
960.026	35.2751
961.689	34.4011
963.353	33.3644
965.016	33.1814
966.68	32.3138
968.343	31.2524
970.005	30.4673
971.666	30.1154
973.328	29.4302
974.991	29.0002
976.652	28.2206
978.312	27.6707
979.972	27.2503
981.632	27.1336
983.292	26.7639
984.953	26.8548
986.612	26.2218
988.27	25.6824
989.929	25.2457
991.587	24.8182
993.244	24.0692
994.902	23.3401
996.559	21.7985
998.216	21.0781
999.872	18.8582
1001.53	16.6829
1003.19	16.5586
1004.84	15.9745
1006.5	15.7961
1008.15	16.8014
1009.81	17.7564
1011.46	21.2914
1013.11	24.6452
1014.77	28.4618
1016.42	31.6255
1018.07	35.71
1019.73	38.7311
1021.38	43.6013
1023.03	47.4063
1024.68	49.6939
1026.34	54.5003
1027.99	58.9371
1029.64	62.98
1031.29	66.3371
1032.94	68.3123
1034.59	70.5359
1036.24	72.4563
1037.89	73.9256
1039.53	75.8476
1041.18	76.7341
1042.83	77.1302
1044.48	77.9801
1046.13	78.1548
1047.77	77.5695
1049.42	76.3547
1051.07	75.6237
1052.71	74.9146
1054.36	73.1836
1056	71.4091
1057.65	69.4842
1059.3	67.1931
1060.94	65.0462
1062.59	62.4305
1064.23	58.8767
1065.87	54.7984
1067.52	50.5056
1069.16	45.3993
1070.8	40.8965
1072.44	36.2458
1074.09	31.4415
1075.73	26.3358
1077.37	21.7739
1079.01	15.9696
1080.65	12.771
1082.29	8.85574
1083.93	6.09047
1085.57	5.72066
1087.21	5.00039
1088.85	5.48355
1090.49	6.55788
1092.13	8.12148
1093.77	9.83293
1095.41	9.40461
1097.04	9.42635
1098.68	9.87582
1100.32	10.2696
1101.95	10.4626
1103.59	10.7554
1105.23	10.2945
1106.86	10.5886
1108.5	11.2219
1110.13	10.8391
1111.77	10.6996
1113.4	10.0355
1115.04	9.62717
1116.67	9.9815
1118.31	9.6916
1119.94	9.38138
1121.57	9.0321
1123.2	8.48324
1124.84	8.85144
1126.47	9.41862
1128.1	9.32335
1129.73	9.1952
1131.36	9.49136
1132.99	10.7829
1134.62	11.222
1136.25	11.6573
1137.88	11.3737
1139.51	10.8426
1141.14	10.8374
1142.77	10.5288
1144.4	10.3749
1146.03	10.1013
1147.66	9.78088
1149.28	10.0644
1150.91	9.19276
1152.54	8.88563
1154.16	8.77147
1155.79	8.36203
1157.42	7.87388
1159.04	7.6
1160.67	6.80456
1162.29	7.9878
1163.92	7.39077
1165.54	7.96699
1167.17	7.95487
1168.79	8.17736
1170.41	8.14714
1172.04	8.62207
1173.66	8.252
1175.28	7.76897
1176.9	7.01372
1178.53	6.79447
1180.15	5.8795
1181.77	5.22197
1183.39	5.2164
1185.01	5.55238
1186.63	5.07341
1188.25	4.65782
1189.87	3.40305
1191.49	3.76135
1193.11	3.58818
1194.73	2.81793
1196.35	3.14204
1197.96	2.13978
1199.58	1.90423
1201.2	1.13744
1202.82	1.45329
1204.43	1.57295
1206.05	2.58817
1207.66	2.86664
1209.28	2.67016
1210.9	3.64513
1212.51	4.43167
1214.13	5.75121
1215.74	6.03516
1217.36	7.11201
1218.97	6.52423
1220.58	7.34965
1222.2	8.01405
1223.81	8.9925
1225.42	9.58368
1227.04	9.90481
1228.65	10.4445
1230.26	10.9481
1231.87	10.5513
1233.48	12.1237
1235.1	12.463
1236.71	13.0349
1238.32	13.5027
1239.93	14.1875
1241.53	14.4152
1243.14	14.457
1244.75	15.0975
1246.36	16.0936
1247.97	16.5804
1249.58	18.0278
1251.19	19.5159
1252.8	20.8461
1254.4	20.5944
1256.01	21.5355
1257.62	21.7825
1259.22	21.9109
1260.83	22.6631
1262.43	23.5553
1264.04	24.1753
1265.64	24.6206
1267.25	23.706
1268.85	24.1957
1270.46	25.1271
1272.06	26.5319
1273.66	26.8079
1275.27	26.8149
1276.87	28.2269
1278.48	28.2718
1280.08	28.6651
1281.68	29.2779
1283.28	31.1878
1284.88	32.1461
1286.48	33.6483
1288.08	34.3313
1289.68	35.4172
1291.28	37.4484
1292.88	38.2132
1294.48	39.7352
1296.08	39.7937
1297.68	40.6125
1299.28	40.6716
1300.88	40.8329
1302.48	40.8501
1304.07	40.9509
1305.67	41.4486
1307.27	41.6137
1308.87	41.9188
1310.46	41.8431
1312.06	41.9806
1313.65	41.9785
1315.25	40.8444
1316.85	40.2659
1318.44	39.4693
1320.03	39.2029
1321.63	38.7425
1323.22	38.4422
1324.82	38.8309
1326.41	38.8901
1328	38.4764
1329.6	38.3568
1331.19	38.2425
1332.78	36.7135
1334.37	35.595
1335.96	34.871
1337.56	34.1156
1339.15	33.0164
1340.74	32.2461
1342.33	30.1874
1343.92	29.3815
1345.51	27.975
1347.1	27.5558
1348.69	27.0747
1350.28	27.4947
1351.86	27.1542
1353.45	26.7274
1355.04	26.89
1356.63	26.821
1358.21	26.6529
1359.8	26.9618
1361.39	27.0875
1362.97	26.8069
1364.56	27.2885
1366.15	27.7189
1367.73	27.3842
1369.32	27.6904
1370.9	27.8566
1372.49	27.5332
1374.07	27.4013
1375.65	27.1262
1377.24	27.8183
1378.82	27.4713
1380.41	27.5285
1381.99	28.0162
1383.57	28.1612
1385.15	28.9827
1386.73	28.9747
1388.32	29.1917
1389.9	29.3275
1391.48	28.7146
1393.06	28.1557
1394.64	27.727
1396.22	28.3082
1397.8	28.6039
1399.38	28.8806
1400.96	29.4973
1402.54	29.27
1404.11	29.8311
1405.69	29.8442
1407.27	28.3734
1408.85	27.6883
1410.43	26.4528
1412	25.9703
1413.58	26.293
1415.16	25.987
1416.73	26.9263
1418.31	26.2772
1419.88	27.0452
1421.46	28.2796
1423.03	30.6029
1424.61	31.7483
1426.18	33.7045
1427.76	35.241
1429.33	37.7209
1430.9	38.6384
1432.48	40.0812
1434.05	41.2572
1435.62	41.6239
1437.2	42.975
1438.77	44.0881
1440.34	44.0782
1441.91	45.1481
1443.48	47.089
1445.05	46.7026
1446.62	46.5245
1448.19	46.8233
1449.76	46.9243
1451.33	47.3611
1452.9	48.0311
1454.47	48.1841
1456.04	48.5137
1457.61	48.1353
1459.17	47.6509
1460.74	47.116
1462.31	46.5888
1463.88	46.5734
1465.44	45.7431
1467.01	45.3505
1468.58	44.3191
1470.14	42.131
1471.71	42.2562
1473.27	41.4247
1474.84	41.6272
1476.4	39.5328
1477.97	38.1124
1479.53	37.1401
1481.1	35.5043
1482.66	34.1762
1484.22	31.9244
1485.78	30.5901
1487.35	29.5272
1488.91	28.6771
1490.47	28.6592
1492.03	27.2277
1493.59	26.6234
1495.16	26.4455
1496.72	25.5299
1498.28	26.5915
1499.84	26.4198
1501.4	26.1371
1502.96	25.814
1504.52	26.7366
1506.08	27.1837
1507.64	27.09
1509.19	26.6744
1510.75	25.9538
1512.31	25.3899
1513.87	24.6922
1515.42	24.9076
1516.98	24.3565
1518.54	23.051
1520.1	22.8199
1521.65	22.5568
1523.21	22.023
1524.76	21.8746
1526.32	22.0234
1527.87	22.5605
1529.43	23.0557
1530.98	23.75
1532.54	24.0151
1534.09	24.0502
1535.64	24.5473
1537.2	24.1105
1538.75	24.3878
1540.3	24.6389
1541.85	25.4012
1543.41	25.022
1544.96	25.4625
1546.51	24.7705
1548.06	25.3633
1549.61	26.0546
1551.16	25.138
1552.71	25.2622
1554.26	24.4825
1555.81	25.4024
1557.36	26.3375
1558.91	25.5324
1560.46	24.9509
1562.01	24.855
1563.56	25.3224
1565.1	24.7888
1566.65	25.1028
1568.2	25.0216
1569.75	25.6847
1571.29	26.5549
1572.84	26.7097
1574.38	27.6544
1575.93	28.6945
1577.48	28.9242
1579.02	28.8605
1580.57	29.446
1582.11	29.9419
1583.65	30.255
1585.2	29.4823
1586.74	29.3076
1588.29	28.9553
1589.83	29.9829
1591.37	30.5514
1592.92	31.4869
1594.46	31.735
1596	32.8687
1597.54	33.5814
1599.08	34.0416
1600.62	34.3424
1602.16	34.571
1603.7	34.9169
1605.24	35.2486
1606.78	35.8266
1608.32	35.4598
1609.86	35.1543
1611.4	34.9187
1612.94	34.7705
1614.48	34.0974
1616.02	34.6312
1617.56	35.5281
1619.09	35.1261
1620.63	34.9493
1622.17	35.7011
1623.71	35.421
1625.24	36.0112
1626.78	36.2723
1628.31	36.8745
1629.85	37.7362
1631.39	38.1202
1632.92	38.7072
1634.46	38.6562
1635.99	38.8171
1637.52	40.0947
1639.06	40.2121
1640.59	40.8892
1642.12	40.4902
1643.66	40.5221
1645.19	40.9838
1646.72	41.4967
1648.25	40.5005
1649.79	40.2223
1651.32	40.5268
1652.85	40.2333
1654.38	39.3281
1655.91	38.1356
1657.44	38.5632
1658.97	37.8231
1660.5	37.3809
1662.03	36.4602
1663.56	36.3675
1665.09	35.7815
1666.62	35.8318
1668.15	35.3158
1669.67	34.5649
1671.2	33.7875
1672.73	32.8638
1674.26	31.3553
1675.79	29.773
1677.31	29.3424
1678.84	28.6621
1680.36	27.5116
1681.89	26.702
1683.42	25.8563
1684.94	24.6839
1686.47	23.8033
1687.99	22.6964
1689.51	21.9234
1691.04	21.5397
1692.56	20.6372
1694.08	19.3233
1695.61	17.7081
1697.13	17.5284
1698.65	17.1223
1700.18	16.0057
1701.7	15.2798
1703.22	14.5805
1704.74	13.6291
1706.26	12.937
1707.78	12.4118
1709.3	11.7042
1710.82	11.1149
1712.35	11.4785
1713.86	10.563
1715.39	9.65118
1716.9	9.52499
1718.42	9.32621
1719.94	9.123
1721.46	9.01488
1722.98	7.96963
1724.5	7.13714
1726.01	7.21953
1727.53	7.54739
1729.05	7.18373
1730.56	5.99384
1732.08	5.84967
1733.6	5.49952
1735.11	4.4951
1736.63	4.30677
1738.14	4.12486
1739.66	4.17113
1741.17	3.95877
1742.69	4.29138
1744.2	4.09698
1745.71	4.13695
1747.23	4.27434
1748.74	4.42357
1750.25	4.74326
1751.77	5.00477
1753.28	5.62732
1754.79	5.45102
1756.3	5.85919
1757.81	6.00305
1759.33	6.31102
1760.84	6.373
1762.35	5.78406
1763.86	5.96659
1765.37	6.30832
1766.88	5.84406
1768.39	5.65357
1769.9	5.88909
1771.41	6.03782
1772.91	6.69786
1774.42	6.74985
1775.93	6.46333
1777.44	6.42018
1778.95	6.59859
1780.45	6.86196
1781.96	6.93801
1783.47	7.27807
1784.97	7.72429
1786.48	8.36647
1787.99	8.57329
1789.49	8.42267
1791	8.17786
1792.5	8.61699
1794.01	8.23026
1795.51	7.456
1797.01	7.77395
1798.52	7.40185
1800.02	7.45361
1801.52	7.80537
1803.03	7.24101
1804.53	6.73257
1806.03	5.81424
1807.54	5.62629
1809.04	4.97155
1810.54	4.6485
1812.04	4.627
1813.54	4.59774
1815.04	4.53396
1816.54	4.5193
1818.04	4.5256
1819.54	4.22949
1821.04	4.67262
1822.54	4.64033
1824.04	4.45121
1825.54	4.66533
1827.04	4.85883
1828.54	5.01915
1830.03	5.57833
1831.53	6.05174
1833.03	6.31503
1834.53	6.31601
1836.02	6.52682
1837.52	6.33232
1839.02	6.62664
1840.51	6.79509
1842.01	6.47734
1843.5	6.40082
1845	6.43903
1846.49	6.2876
1847.99	6.4785
1849.48	6.45415
1850.98	5.65727
1852.47	5.10777
1853.96	4.97191
1855.46	5.37068
1856.95	5.0222
1858.44	4.413
1859.94	3.86758
1861.43	3.17275
1862.92	2.56653
1864.41	2.11987
1865.9	2.11951
1867.39	2.22966
1868.88	1.81561
1870.37	1.65053
1871.86	2.05137
1873.35	1.49602
1874.84	1.11549
1876.33	0.986134
1877.82	0.30458
1879.31	0.642702
1880.8	0.399325
1882.29	0.365854
1882.58	0.230322
1884.08	0.0980034
1885.57	0.568093
1887.06	0.689076
1888.56	0.8119
1890.05	0.840787
1891.54	1.04567
1893.04	1.18139
1894.53	1.91132
1896.02	1.95951
1897.51	3.00299
1899	3.64456
1900.5	4.59668
1901.99	5.39182
1903.48	6.30924
1904.97	6.57119
1906.46	6.88719
1907.95	6.56727
1909.44	6.74908
1910.93	6.89154
1912.42	6.98659
1913.91	7.07427
1915.4	7.22515
1916.88	7.2648
1918.37	7.57771
1919.86	7.50267
1921.35	7.79293
1922.84	7.36341
1924.32	7.25791
1925.81	7.58751
1927.3	7.87764
1928.78	7.94404
1930.27	8.02528
1931.75	7.7738
1933.24	7.85726
1934.72	7.7857
1936.21	7.70217
1937.69	7.9941
1939.18	8.06673
1940.66	7.59431
1942.15	7.55077
1943.63	7.34837
1945.11	7.65717
1946.6	7.44363
1948.08	7.47546
1949.56	7.39255
1951.04	7.17338
1952.53	6.96387
1954.01	6.04291
1955.49	5.3738
1956.97	5.41247
1958.45	5.60007
1959.93	6.10828
1961.41	5.72368
1962.89	5.7097
1964.37	5.58568
1965.85	5.73383
1967.33	5.17657
1968.81	5.69126
1970.29	5.57574
1971.77	5.82118
1973.24	5.5724
1974.72	5.93349
1976.2	5.31035
1977.68	5.57814
1979.15	5.48517
1980.63	4.89425
1982.11	4.2914
1983.58	4.41252
1985.06	5.03474
1986.53	5.13739
1988.01	5.66684
1989.48	5.36181
1990.96	5.07068
1992.43	5.19964
1993.91	5.25363
1995.38	5.85162
1996.86	6.0725
1998.33	6.70444
1999.8	6.82183
2001.27	7.03716
2002.75	7.44425
2004.22	7.531
2005.69	7.05236
2007.16	7.29042
2008.64	6.89859
2010.11	7.06281
2011.58	6.98657
2013.05	6.78906
2014.52	6.91065
2015.99	6.72508
2017.46	6.48483
2018.93	6.57322
2020.4	6.75319
2021.87	6.764
2023.34	7.321
2024.8	7.39114
2026.27	7.38144
2027.74	6.73329
2029.21	7.04993
2030.68	7.54012
2032.14	7.99818
2033.61	7.80745
2035.08	7.39123
2036.54	7.12682
2038.01	6.95534
2039.48	7.17203
2040.94	7.37523
2042.41	7.74532
2043.87	7.39
2045.34	8.22608
2046.8	8.46198
2048.27	8.85045
2049.73	9.28943
2051.19	9.65957
2052.66	9.51282
2054.12	9.09597
2055.58	9.78259
2057.05	10.368
2058.51	10.6961
2059.97	10.9004
2061.43	10.7739
2062.9	10.7475
2064.36	11.3254
2065.82	11.7551
2067.28	12.1743
2068.74	12.9671
2070.2	13.402
2071.66	13.1357
2073.12	13.2419
2074.58	13.5058
2076.04	13.4212
2077.5	13.2759
2078.95	14.02
2080.41	14.3927
2081.87	14.15
2083.33	15.0784
2084.79	15.0042
2086.24	15.2487
2087.7	15.4087
2089.16	15.7399
2090.61	16.1968
2092.07	17.1344
2093.53	17.5404
2094.98	18.4618
2096.44	19.0884
2097.89	18.8124
2099.35	18.8595
2100.8	18.9559
2102.26	19.7937
2103.71	20.1761
2105.16	20.5351
2106.62	21.0032
2108.07	21.6595
2109.53	22.1059
2110.98	22.3405
2112.43	22.6099
2113.88	23.3677
2115.33	23.8104
2116.79	25.4093
2118.24	26.4508
2119.69	26.7877
2121.14	27.2793
2122.59	27.8698
2124.04	28.5376
2125.49	29.4362
2126.94	30.5507
2128.39	31.1931
2129.84	31.8933
2131.29	32.2866
2132.74	33.5957
2134.19	34.3339
2135.63	35.2365
2137.08	36.0752
2138.53	36.7474
2139.98	37.6845
2141.43	38.6347
2142.87	39.6882
2144.32	40.2666
2145.77	41.8328
2147.21	42.8976
2148.66	43.5612
2150.1	44.1927
2151.55	44.9773
2152.99	45.4488
2154.44	45.8617
2155.88	46.869
2157.33	47.0257
2158.77	47.4967
2160.21	48.54
2161.66	49.5759
2163.1	50.4103
2164.55	51.4143
2165.99	52.2341
2167.43	53.1887
2168.87	53.6559
2170.31	53.2457
2171.76	52.9506
2173.2	53.1906
2174.64	52.8483
2176.08	52.8048
2177.52	53.4575
2178.96	53.9262
2180.4	53.6435
2181.84	53.3551
2183.28	52.8353
2184.72	53.1264
2186.16	53.0883
2187.6	52.9668
2189.04	52.5327
2190.47	51.2737
2191.91	51.2064
2193.35	50.5718
2194.79	50.5077
2196.23	49.8061
2197.66	48.76
2199.1	48.4717
2200.54	47.2842
2201.97	46.6571
2203.41	45.0935
2204.84	44.5633
2206.28	42.8351
2207.71	41.9902
2209.15	41.1062
2210.58	40.2023
2212.02	39.3255
2213.45	38.3583
2214.89	37.3531
2216.32	36.0899
2217.75	35.5505
2219.19	33.6988
2220.62	32.7367
2222.05	31.3587
2223.48	30.9479
2224.92	29.9144
2226.35	28.8355
2227.78	27.926
2229.21	27.0426
2230.64	26.1911
2232.07	25.9092
2233.5	25.1543
2234.93	24.1056
2236.36	23.1628
2237.79	22.3876
2239.22	21.5363
2240.65	20.4738
2242.08	19.2777
2243.51	19.1522
2244.94	18.6739
2246.37	18.2145
2247.79	18.6068
2249.22	18.9381
2250.65	17.8201
2252.08	17.0715
2253.5	16.2612
2254.93	15.3321
2256.36	14.9196
2257.78	14.2002
2259.21	14.1251
2260.63	13.574
2262.06	13.8333
2263.48	13.3808
2264.91	12.4895
2266.33	11.9703
2267.76	10.9666
2269.18	10.7267
2270.6	10.5309
2272.03	9.96726
2273.45	9.98331
2274.87	10.0195
2276.3	9.85857
2277.72	9.74821
2279.14	9.66814
2280.56	9.1793
2281.98	8.7913
2283.41	8.14696
2284.83	7.69035
2286.25	7.5352
2287.67	7.59537
2289.09	7.56928
2290.51	6.44986
2291.93	6.20719
2293.35	5.04
2294.77	4.98891
2296.19	4.91419
2297.61	5.67125
2299.02	5.96799
2300.44	6.29236
2301.86	6.70113
2303.28	7.06259
2304.7	7.02764
2306.11	7.09956
2307.53	7.23194
2308.95	7.38678
2310.36	7.30267
2311.78	7.5937
2313.2	8.14996
2314.61	8.55304
2316.03	8.33362
2317.44	8.62273
2318.86	8.72338
2320.27	8.08659
2321.69	7.57378
2323.1	7.76238
2324.51	7.55512
2325.93	7.14546
2327.34	6.79154
2328.76	7.47589
2330.17	7.2235
2331.58	7.28878
2332.99	7.29844
2334.41	6.68079
2335.82	6.89384
2337.23	6.86022
2338.64	7.18604
2340.05	7.1212
2341.46	7.17017
2342.87	7.03687
2344.28	7.00419
2345.69	6.39674
2347.1	5.15953
2348.51	4.67857
2349.92	3.93875
2351.33	4.02866
2352.74	3.91267
2354.15	3.48603
2355.56	3.28338
2356.97	3.43925
2358.37	3.23925
2359.78	2.82063
2361.19	2.26814
2362.6	2.60851
2364	2.55156
2365.41	3.19547
2366.82	3.32433
2368.22	2.98164
2369.63	2.38519
2371.03	2.27657
2372.44	2.43428
2373.84	2.16354
2375.25	1.83775
2376.65	1.67942
2378.06	1.31071
2379.46	1.68741
2380.86	1.38619
2382.27	1.41223
2383.67	1.3388
2385.07	1.10051
2386.48	0.775272
2387.88	1.26715
2389.28	1.51255
2390.69	1.20005
2392.09	1.27225
2393.49	1.55086
2394.89	2.06773
2396.29	1.93792
2397.69	2.38351
2399.09	3.32095
2400.49	3.30822
2401.89	3.93968
2403.29	4.42707
2404.69	4.90365
2406.09	5.00093
2407.49	5.45968
2408.89	5.50411
2410.29	4.94101
2411.69	5.51922
2413.08	5.55633
2414.48	6.04433
2415.88	5.80173
2417.28	5.7015
2418.67	6.15483
2420.07	6.65339
2421.47	7.20199
2422.86	7.25823
2424.26	6.78118
2425.65	6.697
2427.05	6.98356
2428.45	6.55025
2429.84	6.16914
2431.23	5.77174
2432.63	5.19551
2434.02	4.57643
2435.42	4.67508
2436.81	4.63229
2438.2	4.63114
2439.6	4.5574
2440.99	4.54054
2442.38	4.77671
2443.78	4.49821
2445.17	4.30808
2446.56	4.54256
2447.95	4.8128
2449.34	4.86285
2450.73	4.82322
2452.13	5.28666
2453.52	5.42768
2454.91	5.15783
2456.3	5.18023
2457.69	5.16457
2459.08	4.91044
2460.47	4.31232
2461.85	4.13879
2463.24	4.63936
2464.63	4.44469
2466.02	4.17125
2467.41	4.59566
2468.8	4.51179
2470.19	5.1297
2471.57	4.80935
2472.96	5.09432
2474.35	4.96952
2475.73	4.4173
2477.12	4.28965
2478.51	3.63974
2479.89	3.38306
2481.28	3.61445
2482.66	3.58871
2484.05	3.54878
2485.43	3.20048
2486.82	3.37181
2488.2	3.98844
2489.59	4.10552
2490.97	4.05359
2492.35	3.93131
2493.74	4.17825
2495.12	4.38391
2496.5	4.1331
2497.89	4.02488
2499.27	4.10858
2500.65	4.32175
2502.03	4.22605
2503.42	4.17148
2504.8	4.27491
2506.18	4.36212
2507.56	4.11604
2508.94	4.27571
2510.32	4.00177
2511.7	4.00551
2513.08	4.24529
2514.46	4.60508
2515.84	4.74453
2517.22	4.81432
2518.6	4.6915
2519.98	5.2714
2521.36	4.87794
2522.73	4.7323
2524.11	4.5836
2525.49	4.41953
2526.87	4.22855
2528.25	4.4264
2529.62	4.05101
2531	4.37385
2532.38	4.4836
2533.75	3.85698
2535.13	3.83967
2536.5	3.914
2537.88	4.28681
2539.25	4.50376
2540.63	4.00316
2542.01	4.15583
2543.38	4.24715
2544.75	3.61896
2546.13	3.09359
2547.5	3.24306
2548.88	3.42753
2550.25	3.68003
2551.62	3.52595
2553	3.53523
2554.37	3.51907
2555.74	4.18263
2557.11	4.35963
2558.49	4.06811
2559.86	3.87063
2561.23	3.98282
2562.6	3.6769
2563.97	2.99749
2565.34	2.73271
2566.71	2.6615
2568.08	2.80865
2569.45	3.08316
2570.82	2.79869
2572.19	2.59074
2573.56	2.99079
2574.93	3.5903
2576.3	3.43252
2577.67	3.76382
2579.03	3.55492
2580.4	4.0037
2581.77	4.56972
2583.14	4.27126
2584.5	4.44147
2585.87	4.62917
2587.24	4.78721
2588.6	5.13155
2589.97	4.59681
2591.34	4.38339
2592.7	3.69934
2594.07	3.7168
2595.43	4.21482
2596.8	4.14496
2598.16	3.91525
2599.53	3.59645
2600.89	3.34245
2602.26	3.16222
2603.62	3.30181
2604.98	3.53927
2606.35	3.15439
2607.71	3.04629
2609.07	2.67611
2610.44	2.36499
2611.8	1.98049
2613.16	1.98745
2614.52	2.11142
2615.88	2.49265
2617.25	2.78518
2618.61	2.56023
2619.97	2.51751
2621.33	2.13932
2622.69	1.54258
2624.05	1.45972
2625.41	0.813651
2626.77	0.319061
2628.13	-0.105676
2629.49	0.127408
2630.85	0.0496302
2632.21	0.626727
2633.56	0.882912
2634.92	1.07903
2636.28	1.49622
2637.64	1.64653
2639	1.53478
2640.35	1.97388
2641.71	2.5408
2643.07	2.83694
2644.42	2.62759
2645.78	2.88455
2647.14	2.55647
2648.49	2.64192
2649.85	2.76517
2651.2	2.66485
2652.56	3.35584
2653.91	3.26924
2655.27	2.98319
2656.62	3.24908
2657.98	3.17305
2659.33	3.27755
2660.68	3.55874
2662.04	4.04033
2663.39	3.95156
2664.74	3.89365
2666.1	3.81073
2667.45	3.45041
2668.8	3.41531
2670.15	3.28429
2671.5	3.44699
2672.86	3.43101
2674.21	3.79477
2675.56	4.27469
2676.91	3.92713
2678.26	4.43801
2679.61	4.96584
2680.96	5.66468
2682.31	5.3089
2683.66	5.58435
2685.01	5.28786
2686.36	4.49055
2687.71	4.21589
2689.06	3.63731
2690.4	4.12284
2691.75	3.93513
2693.1	3.60537
2694.45	3.54575
2695.8	3.77906
2697.14	4.18594
2698.49	3.93897
2699.84	4.17328
2701.18	3.78936
2702.53	3.74682
2703.88	3.52396
2705.22	4.34868
2706.57	4.2015
2707.91	4.09632
2709.26	3.94792
2710.6	3.765
2711.95	3.87827
2713.29	3.98774
2714.64	3.80217
2715.98	4.00919
2717.32	3.81309
2718.67	3.65685
2720.01	3.50899
2721.35	2.96163
2722.7	2.99969
2724.04	3.17387
2725.38	3.55138
2726.72	3.13653
2728.06	2.85166
2729.4	2.72044
2730.75	2.9662
2732.09	2.96284
2733.43	2.52121
2734.77	2.68972
2736.11	2.85329
2737.45	3.14752
2738.79	3.20543
2740.13	3.06178
2741.47	3.11961
2742.81	2.82227
2744.15	2.80297
2745.48	3.02315
2746.82	3.28943
2748.16	2.97645
2749.5	2.65793
2750.84	2.50277
2752.17	2.27865
2753.51	2.11445
2754.85	2.34472
2756.19	2.4652
2757.52	2.21995
2758.86	1.62909
2760.19	1.61076
2761.53	1.48573
2762.86	1.33068
2764.2	1.1979
2765.54	0.941678
2766.87	0.53823
2768.2	0.620759
2769.54	0.541231
2770.87	0.619697
2772.21	0.996957
2773.54	0.11221
2774.88	0.364578
2776.21	0.504868
2777.54	0.582499
2778.87	0.565377
2780.21	0.115933
2781.54	-0.215363
2782.87	-0.0894138
2784.2	-0.404615
2785.53	-0.392336
2786.87	-0.0331791
2788.2	0.0453624
2789.53	0.103169
2790.86	0.043559
2792.19	-0.0659179
2793.52	-0.52187
2794.85	-0.635928
2796.18	-0.226295
2797.51	0.105965
2798.84	-0.301915
2800.17	-0.250763
2801.49	-0.0416966
2802.82	-0.332599
2804.15	-0.430316
2805.48	-0.755238
2806.81	-1.08281
2808.13	-1.30147
2809.46	-1.50726
2810.79	-1.12227
2812.12	-1.15435
2813.44	-0.521531
2814.77	-0.50689
2816.09	-0.330314
2817.42	0.151485
2818.75	0.560626
2820.07	0.76534
2821.4	1.6284
2822.72	2.32309
2824.05	3.20281
2825.37	4.52589
2826.7	5.53099
2828.02	6.76607
2829.35	8.12658
2830.67	9.3151
2831.99	10.2525
2833.31	11.9916
2834.64	13.5705
2835.96	14.7121
2837.28	16.3531
2838.61	17.8551
2839.93	18.9507
2841.25	20.1414
2842.57	20.8769
2843.89	22.3201
2845.21	23.806
2846.53	25.4121
2847.85	27.401
2849.17	28.89
2850.49	30.2374
2851.81	31.8193
2853.13	33.8409
2854.45	35.3442
2855.77	37.4661
2857.09	39.2536
2858.41	41.1196
2859.73	43.3608
2861.05	44.8311
2862.36	46.8583
2863.68	48.6155
2865	49.7168
2866.32	51.5655
2867.64	52.627
2868.95	53.5866
2870.27	54.5851
2871.59	56.0664
2872.9	57.2117
2874.22	58.4062
2875.53	59.6587
2876.85	61.2109
2878.16	62.0049
2879.48	63.3717
2880.79	64.3408
2882.11	65.1149
2883.42	65.948
2884.74	67.1625
2886.05	68.3354
2887.36	69.6879
2888.68	70.9431
2889.99	72.5344
2891.3	73.753
2892.62	74.5803
2893.93	75.699
2895.24	77.2238
2896.55	77.799
2897.86	78.6467
2899.18	80.1362
2900.49	81.0386
2901.8	82.4026
2903.11	84.2563
2904.42	85.6701
2905.73	86.9564
2907.04	88.0338
2908.35	90.6199
2909.66	93.1197
2910.97	95.5752
2912.28	97.9431
2913.59	99.72
2914.9	101.652
2916.21	103.848
2917.51	106.288
2918.82	108.518
2920.13	110.551
2921.44	112.454
2922.74	114.189
2924.05	115.771
2925.36	117.095
2926.67	118.062
2927.97	119.125
2929.28	119.985
2930.59	120.508
2931.89	120.911
2933.2	120.674
2934.5	120.913
2935.81	120.64
2937.11	120.519
2938.42	119.455
2939.72	118.928
2941.02	118.002
2942.33	116.943
2943.63	115.473
2944.94	113.947
2946.24	111.765
2947.54	109.379
2948.85	107.403
2950.15	105.489
2951.45	103.153
2952.75	100.925
2954.05	98.9092
2955.36	97.1132
2956.66	94.3635
2957.96	91.9501
2959.26	89.4479
2960.56	87.0294
2961.86	84.0586
2963.16	82.2544
2964.46	80.6067
2965.76	78.3216
2967.06	75.9993
2968.36	74.0533
2969.66	71.9208
2970.96	69.5663
2972.26	67.2587
2973.56	65.6683
2974.85	63.2331
2976.15	60.9222
2977.45	58.7721
2978.75	56.4664
2980.05	54.3516
2981.34	52.2703
2982.64	50.0894
2983.94	47.908
2985.23	45.9907
2986.53	44.1763
2987.83	41.959
2989.12	39.7525
2990.42	37.8407
2991.71	35.7698
2993.01	34.3303
2994.3	32.4002
2995.6	30.6079
2996.89	28.8826
2998.19	27.2148
2999.48	25.846
3000.77	24.2812
3002.07	23.3199
3003.36	21.9283
3004.65	20.9947
3005.95	19.3295
3007.24	17.7113
3008.53	16.2306
3009.82	15.4462
3011.12	14.1237
3012.41	13.6036
3013.7	13.0295
3014.99	12.3024
3016.28	11.9836
3017.57	11.2589
3018.86	10.8372
3020.15	10.3965
3021.44	9.57664
3022.73	9.39812
3024.02	8.72241
3025.31	8.68401
3026.6	7.92114
3027.89	7.68682
3029.18	7.28799
3030.47	6.88203
3031.76	7.07433
3033.04	7.02681
3034.33	6.97991
3035.62	6.66771
3036.91	6.54231
3038.19	6.82526
3039.48	7.33777
3040.77	7.81646
3042.05	7.94666
3043.34	7.48278
3044.63	7.34574
3045.91	7.66725
3047.2	7.75649
3048.48	8.48212
3049.77	8.6997
3051.05	8.58666
3052.34	8.97833
3053.62	8.86863
3054.91	8.36145
3056.19	8.16841
3057.48	7.95972
3058.76	7.64277
3060.04	7.55436
3061.33	7.61887
3062.61	7.1385
3063.89	7.19864
3065.17	6.99431
3066.46	6.93301
3067.74	6.5849
3069.02	6.70323
3070.3	6.51731
3071.59	6.65737
3072.87	6.90471
3074.15	7.0829
3075.43	6.32547
3076.71	6.63143
3077.99	6.45976
3079.27	6.05581
3080.55	6.07217
3081.83	6.11951
3083.11	5.99814
3084.39	6.08924
3085.67	6.30807
3086.94	6.32252
3088.22	6.40918
3089.5	6.54566
3090.78	6.63749
3092.06	7.41528
3093.34	8.0283
3094.61	8.71109
3095.89	9.26728
3097.17	9.20773
3098.44	10.204
3099.72	11.0066
3101	12.136
3102.27	12.9932
3103.55	14.1701
3104.82	14.4561
3106.1	14.7611
3107.38	15.3642
3108.65	16.4512
3109.93	17.1593
3111.2	17.2555
3112.47	17.6159
3113.75	17.7195
3115.02	17.7321
3116.3	18.3007
3117.57	17.9955
3118.84	18.4362
3120.12	19.1449
3121.39	19.6014
3122.66	20.0912
3123.93	20.291
3125.2	20.8218
3126.48	20.8114
3127.75	21.6783
3129.02	22.2336
3130.29	22.789
3131.56	23.3968
3132.83	23.9431
3134.1	24.2947
3135.37	24.7984
3136.64	25.2272
3137.91	25.6117
3139.18	25.8864
3140.45	26.6603
3141.72	27.1507
3142.99	27.8838
3144.26	28.5965
3145.53	29.2918
3146.8	30.4464
3148.07	31.114
3149.33	31.8855
