#Acq. time (s)=	45
#Accumulations=	2
#Range (cm-¹)=	200...3150
#Windows=	2
#Auto scanning=	Off
#Autofocus=	Off
#Macrospot=	Off
#AutoExposure=	Off
#Spike filter=	Multiple accum.
#Delay time (s)=	0
#Binning=	1
#Readout mode=	Signal
#DeNoise=	Off
#ICS correction=	On
#Dark correction=	Off
#Inst. Process=	Off
#Detector Gain=	Best Dynamic Range
#Detector ADC=	20 kHz       
#Detector temperature (°C)=	-70.08
#Instrument=	LabRAM HR Evol
#Detector=	Synapse
#Objective=	x100
#Grating=	600 gr/mm
#ND Filter=	100%
#Laser (nm)=	532 
#Hole=	100.021
#Range=	Auto
#Laser Pol.=	No
#Raman. Pol.=	No
#Laser Pol. (°)=	-0.0007625
#Raman Pol. (°)=	89.9995
#Collection=	Microscope
#StageXY=	Marzhauser
#StageZ=	Marzhauser
#X (µm)=	-2462.3
#Y (µm)=	-29.2
#Z (µm)=	-10.25
#Full time(mm:ss)=	3:18
#Project=	
#Sample=	
#Site=	
#Title=	Mb_40_24_46_2x_45s_532 nm_x100_100%_600 gr_mm
#Remark=	
#Date=	14.07.2022 14:16
#Acquired=	14.07.2022 14:16:06
#Base:Fit=	10.08.2022 10:47:00
#Base:Sub=	10.08.2022 10:47:12
#Filter:Polynom=	16.08.2022 10:11:48
#AxisType[0]=Intens
#AxisUnit[0]=Cnt
#AxisType[1]=Spectr
#AxisUnit[1]=1/cm
200.554	44.8926
202.369	43.4315
204.183	41.2019
205.999	39.0146
207.813	35.7189
209.626	32.1637
211.439	29.4902
213.253	26.9214
215.065	25.92
216.877	24.5427
218.688	22.1933
220.5	21.0926
222.312	21.2419
224.123	20.1308
225.933	19.455
227.742	16.8103
229.552	16.2243
231.361	15.9437
233.171	15.0893
234.98	15.1774
236.787	14.4226
238.595	13.2457
240.402	12.9599
242.209	12.4146
244.015	12.2173
245.822	12.001
247.627	12.1885
249.435	12.8113
251.24	13.619
253.045	12.7705
254.849	11.4594
256.653	11.2301
258.457	9.93841
260.26	10.2559
262.063	10.6921
263.866	11.1448
265.668	11.4657
267.47	11.901
269.271	12.1109
271.073	12.1295
272.873	13.3305
274.674	13.5285
276.474	14.2935
278.274	14.054
280.073	13.7066
281.872	11.1538
283.671	11.4572
285.47	11.1081
287.268	11.5596
289.065	10.5816
290.863	9.91574
292.66	10.141
294.456	10.6268
296.253	10.3072
298.049	11.6966
299.844	12.8228
301.637	13.613
303.432	13.1507
305.227	14.0728
307.021	13.4162
308.815	13.5266
310.609	13.4317
312.402	14.1031
314.195	12.7943
315.987	12.0897
317.777	11.7927
319.569	13.1774
321.36	13.2883
323.151	12.5022
324.942	12.8361
326.733	12.9859
328.521	13.0428
330.31	14.4528
332.1	14.9209
333.889	15.3807
335.677	15.9703
337.464	16.7396
339.252	17.4938
341.039	17.2117
342.826	17.2432
344.611	17.1163
346.398	17.3837
348.184	17.8823
349.97	19.1089
351.754	18.4821
353.539	17.6087
355.324	16.6213
357.106	16.3476
358.89	15.0841
360.674	14.7251
362.455	14.999
364.239	13.9404
366.021	13.7234
367.804	11.9753
369.584	10.8516
371.366	9.40438
373.145	9.6022
374.926	9.1926
376.707	8.87799
378.485	9.08003
380.265	7.96216
382.045	7.48325
383.822	7.9635
385.601	6.337
387.378	6.23687
389.156	4.62921
390.934	4.2954
392.71	4.369
394.487	4.86663
396.262	4.40202
398.038	3.57053
399.813	2.28931
401.588	3.17098
403.362	2.02185
405.137	1.738
406.912	2.21241
408.685	2.72045
410.459	2.72589
412.23	3.31743
414.004	3.9435
415.775	4.0712
417.548	4.39631
419.318	5.63845
421.089	5.2145
422.86	6.34916
424.63	6.85317
426.401	6.93494
428.17	6.31207
429.94	6.10008
431.708	7.20208
433.478	6.90644
435.245	6.35479
437.012	6.70134
438.781	6.8357
440.547	6.37935
442.315	6.45132
444.081	6.25067
445.846	5.93887
447.613	5.10691
449.378	5.57341
451.142	6.10748
452.908	5.26411
454.672	5.09543
456.435	4.19924
458.2	4.42672
459.963	3.96292
461.725	4.23809
463.489	5.09684
465.251	5.35774
467.012	5.68801
468.775	6.15606
470.536	7.62668
472.296	8.03749
474.056	7.24005
475.817	7.90001
477.576	8.84729
479.335	9.71781
481.094	11.3952
482.854	12.5619
484.612	12.2384
486.37	12.1115
488.127	13.0128
489.886	14.5079
491.642	14.8689
493.398	16.3621
495.154	18.7193
496.91	18.8531
498.667	18.3012
500.422	19.148
502.176	19.1556
503.93	20.4232
505.684	21.7828
507.438	22.1459
509.191	22.7225
510.946	23.368
512.698	22.6675
514.45	23.1098
516.202	21.8258
517.954	21.9922
519.705	21.8814
521.456	21.4131
523.206	21.7827
524.956	22.3597
526.706	22.6549
528.456	23.0501
530.207	22.5756
531.956	21.6899
533.704	20.4703
535.452	20.6171
537.2	20.2999
538.947	20.4584
540.694	19.2537
542.441	19.0862
544.188	18.8338
545.934	18.8587
547.68	18.274
549.425	18.6437
551.17	18.9561
552.915	17.9621
554.659	16.862
556.403	16.3297
558.145	15.2463
559.889	14.6817
561.632	14.4834
563.375	14.7388
565.117	15.7983
566.859	15.1849
568.601	15.1213
570.342	15.3152
572.083	14.3885
573.824	15.0583
575.565	15.0697
577.303	14.0926
579.043	12.9674
580.782	12.2846
582.521	10.6966
584.26	8.84047
585.998	8.8932
587.734	9.80476
589.472	9.49356
591.21	9.04531
592.947	9.09484
594.684	8.08809
596.418	7.41184
598.154	5.9086
599.89	6.09208
601.626	6.50569
603.361	5.03155
605.094	5.67725
606.828	4.66399
608.562	5.57366
610.296	5.76874
612.027	5.82442
613.761	6.38783
615.493	5.47963
617.224	5.20255
618.956	6.01401
620.688	5.87421
622.419	6.27247
624.149	5.7504
625.879	6.14618
627.61	6.13953
629.338	6.80218
631.068	7.19903
632.797	6.23359
634.525	5.19192
636.254	5.06869
637.98	5.16925
639.708	4.9054
641.436	4.34959
643.162	5.36487
644.889	5.33978
646.614	7.25093
648.34	7.63907
650.067	7.8312
651.791	8.37181
653.516	8.73903
655.239	10.1938
656.964	12.7239
658.687	12.2833
660.411	12.5983
662.133	11.0249
663.857	11.1254
665.58	11.7685
667.301	12.7292
669.024	13.2965
670.744	14.6182
672.464	14.4419
674.186	14.8772
675.905	15.5199
677.626	14.8636
679.345	15.0906
681.065	14.2016
682.783	14.8933
684.503	15.1105
686.22	15.4701
687.939	16.1421
689.656	15.7809
691.372	16.7108
693.09	17.1273
694.806	19.004
696.523	19.2504
698.239	18.6777
699.953	17.7187
701.67	17.0732
703.384	18.4043
705.098	19.0163
706.813	18.7739
708.526	18.1229
710.239	18.3543
711.954	18.5432
713.666	18.8871
715.378	18.1904
717.091	17.3165
718.802	16.6109
720.513	16.2739
722.226	17.109
723.936	18.0189
725.646	17.9336
727.355	18.3353
729.067	19.2089
730.776	20.2924
732.484	22.1112
734.192	22.2127
735.902	23.4151
737.61	24.772
739.317	26.4453
741.024	26.8314
742.731	28.243
744.439	27.2232
746.145	28.2462
747.851	29.6789
749.556	31.797
751.262	32.8474
752.966	34.2827
754.673	34.8241
756.377	35.6388
758.081	36.788
759.784	39.1655
761.487	40.1999
763.19	40.6083
764.892	42.1363
766.594	45.2541
768.296	47.1555
770	48.0523
771.701	50.5231
773.402	53.0713
775.102	54.5579
776.803	54.7235
778.503	55.3824
780.202	56.1099
781.901	55.7176
783.6	56.4126
785.299	58.1102
786.997	59.2477
788.695	59.9202
790.393	60.6683
792.09	60.2119
793.787	59.2344
795.484	59.8978
797.18	59.5936
798.877	59.0808
800.572	58.9188
802.268	59.6584
803.963	59.5578
805.658	60.2245
807.35	60.3021
809.044	61.4993
810.738	61.4723
812.432	60.9027
814.125	60.9773
815.818	61.6957
817.51	62.6008
819.202	63.9641
820.894	64.5855
822.584	64.2962
824.275	65.6067
825.966	66.5921
827.657	67.9428
829.347	67.5496
831.037	69.0607
832.725	69.2007
834.414	68.7437
836.103	68.0268
837.792	68.644
839.481	67.2101
841.167	68.2638
842.854	68.8001
844.542	69.2381
846.229	68.8193
847.914	68.8102
849.6	68.7387
851.287	69.8149
852.973	68.3258
854.656	68.3656
856.341	67.3244
858.026	66.5429
859.711	64.6207
861.393	62.4922
863.077	61.2429
864.761	61.1954
866.442	60.233
868.125	59.9424
869.808	58.1422
871.489	55.7847
873.171	53.6902
874.85	52.0865
876.532	49.5336
878.213	47.8978
879.892	45.9049
881.572	44.0377
883.251	42.4888
884.931	42.7931
886.61	41.3998
888.287	38.8576
889.966	38.0362
891.643	36.8509
893.321	36.7789
894.997	34.7426
896.675	33.691
898.352	33.4852
900.028	33.887
901.704	34.7841
903.379	34.8092
905.055	33.4128
906.729	32.8213
908.404	33.6149
910.077	33.3992
911.75	33.3116
913.425	32.0665
915.097	30.67
916.771	30.8873
918.443	30.7927
920.116	30.6453
921.787	31.86
923.46	31.0622
925.13	32.2771
926.8	32.2207
928.472	31.8187
930.141	31.4048
931.813	30.8266
933.481	31.8874
935.15	32.3963
936.82	31.6227
938.488	31.4458
940.156	30.7788
941.825	30.4065
943.492	29.0232
945.158	29.3937
946.827	29.2448
948.493	29.6927
950.158	28.116
951.824	27.6811
953.491	26.7098
955.156	25.7449
956.82	23.9621
958.486	23.6139
960.15	22.5129
961.814	22.5962
963.477	21.6614
965.142	22.5344
966.804	22.3127
968.467	21.4022
970.129	19.8824
971.79	19.0926
973.454	20.0493
975.115	20.3374
976.776	20.5886
978.436	19.5484
980.096	19.9496
981.756	19.5274
983.417	19.7633
985.077	18.1306
986.736	17.5646
988.394	16.0073
990.052	15.5634
991.71	16.3803
993.368	16.7106
995.025	16.3646
996.682	14.7351
998.341	14.2075
999.998	14.4831
1001.65	14.2211
1003.31	13.1726
1004.97	12.8815
1006.62	11.5954
1008.28	11.1678
1009.93	10.8782
1011.58	11.2366
1013.24	13.3114
1014.89	13.5752
1016.54	14.3224
1018.2	14.2978
1019.85	15.9183
1021.5	17.6399
1023.16	18.0985
1024.81	18.924
1026.46	20.4043
1028.11	22.7957
1029.76	23.7572
1031.41	25.2967
1033.06	25.9848
1034.71	27.2348
1036.36	27.4605
1038.01	28.4236
1039.66	29.2169
1041.31	31.0501
1042.95	31.4543
1044.6	31.7722
1046.25	32.1924
1047.9	33.2667
1049.54	32.3711
1051.19	31.9528
1052.84	33.4974
1054.48	34.304
1056.13	34.4894
1057.77	34.1073
1059.42	33.6007
1061.06	33.0767
1062.71	32.9234
1064.35	31.7092
1066	30.9806
1067.64	29.9531
1069.28	29.7077
1070.93	28.7398
1072.57	27.4091
1074.21	27.0503
1075.85	24.8565
1077.49	22.8406
1079.13	21.3467
1080.78	19.5327
1082.42	17.4066
1084.06	17.443
1085.7	15.9388
1087.34	14.9775
1088.97	13.8256
1090.61	13.9844
1092.25	13.5479
1093.89	14.4884
1095.53	14.0914
1097.17	12.6688
1098.8	12.3846
1100.44	13.1805
1102.08	13.9591
1103.71	13.6367
1105.35	12.7825
1106.99	11.9528
1108.62	11.9837
1110.26	12.83
1111.89	11.6317
1113.52	11.3368
1115.16	10.5998
1116.79	10.2745
1118.43	9.46803
1120.06	9.30505
1121.69	8.1572
1123.32	8.19532
1124.96	6.86264
1126.59	6.8297
1128.22	7.00507
1129.85	6.21559
1131.48	6.45796
1133.11	6.88664
1134.75	7.33346
1136.37	6.88542
1138	7.48829
1139.63	7.88319
1141.26	8.12397
1142.89	8.55305
1144.52	8.30019
1146.15	7.90999
1147.78	7.35573
1149.4	6.65989
1151.03	6.02968
1152.66	4.94904
1154.28	5.02531
1155.91	4.63189
1157.54	4.318
1159.16	4.02033
1160.79	3.31252
1162.41	2.5647
1164.04	2.27222
1165.66	4.00773
1167.29	3.90217
1168.91	3.7797
1170.53	4.47764
1172.16	4.99162
1173.78	5.90403
1175.4	6.29896
1177.02	6.74916
1178.65	6.89739
1180.27	7.29324
1181.89	8.2866
1183.51	7.20138
1185.13	6.46201
1186.75	5.4089
1188.37	4.38422
1189.99	6.59294
1191.61	6.85196
1193.23	6.30203
1194.85	6.46152
1196.47	6.94683
1198.08	7.68957
1199.7	7.70746
1201.32	8.11426
1202.94	9.42183
1204.55	9.20542
1206.17	8.38576
1207.79	9.02521
1209.4	9.39458
1211.02	10.9765
1212.63	11.5322
1214.25	12.9011
1215.86	13.7669
1217.48	15.0357
1219.09	17.481
1220.71	17.7736
1222.32	18.7569
1223.93	20.2912
1225.54	21.2598
1227.16	22.2578
1228.77	22.3829
1230.38	23.2547
1231.99	23.8381
1233.6	25.8393
1235.22	26.412
1236.83	26.7414
1238.44	28.0039
1240.05	28.8298
1241.66	30.0104
1243.26	30.1479
1244.87	31.8182
1246.48	33.7207
1248.09	34.251
1249.7	35.5416
1251.31	36.2514
1252.92	37.6163
1254.52	38.2651
1256.13	38.5202
1257.74	39.4965
1259.34	39.2175
1260.95	39.4525
1262.55	39.9737
1264.16	39.5054
1265.76	41.5973
1267.37	43.538
1268.97	43.8038
1270.58	45.4182
1272.18	45.5635
1273.78	45.8215
1275.39	47.3063
1276.99	49.0434
1278.59	49.932
1280.2	50.393
1281.8	52.4282
1283.4	54.6769
1285	54.2816
1286.6	57.0541
1288.2	59.1559
1289.8	60.8597
1291.4	61.7646
1293	63.3858
1294.6	65.6624
1296.2	66.7765
1297.8	67.8309
1299.4	68.8261
1301	69.0496
1302.6	70.0489
1304.19	71.6767
1305.79	72.3258
1307.39	72.4094
1308.99	72.8194
1310.58	73.4311
1312.18	73.498
1313.77	73.5436
1315.37	71.7376
1316.96	72.0625
1318.56	71.5845
1320.15	71.4698
1321.75	71.4284
1323.34	71.0408
1324.94	72.3474
1326.53	71.196
1328.12	71.1143
1329.72	70.877
1331.31	69.4476
1332.9	68.6692
1334.49	68.0921
1336.08	67.5772
1337.67	65.5208
1339.27	64.7523
1340.86	64.5254
1342.45	64.541
1344.04	63.7443
1345.63	63.6331
1347.22	62.0033
1348.8	61.118
1350.39	61.2537
1351.98	61.6906
1353.57	61.6208
1355.16	62.0384
1356.75	61.9591
1358.33	62.0636
1359.92	62.6922
1361.51	63.4565
1363.09	62.6752
1364.68	62.4713
1366.27	62.2656
1367.85	61.6329
1369.44	60.9361
1371.02	61.2826
1372.61	61.0191
1374.19	60.2634
1375.77	59.6701
1377.36	58.8322
1378.94	59.8396
1380.52	60.0342
1382.11	59.551
1383.69	59.169
1385.27	58.3608
1386.85	57.7755
1388.43	57.2471
1390.02	55.4803
1391.6	55.3608
1393.18	55.6877
1394.76	55.1167
1396.34	54.3438
1397.92	54.184
1399.5	54.457
1401.08	55.1501
1402.65	56.136
1404.23	56.7083
1405.81	57.0953
1407.39	59.083
1408.97	60.8288
1410.54	61.7929
1412.12	63.8118
1413.7	66.5862
1415.27	68.4825
1416.85	71.9479
1418.43	75.2659
1420	78.0217
1421.58	80.7688
1423.15	84.3357
1424.73	88.217
1426.3	91.4782
1427.87	95.7892
1429.45	99.3205
1431.02	103.141
1432.6	105.254
1434.17	106.977
1435.74	110.496
1437.31	112.455
1438.89	113.648
1440.46	115.055
1442.03	115.671
1443.6	118.048
1445.17	117.524
1446.74	118.537
1448.31	118.738
1449.88	119.838
1451.45	119.768
1453.02	120.058
1454.59	120.692
1456.16	118.423
1457.72	118.085
1459.29	115.483
1460.86	113.481
1462.43	111.078
1463.99	108.724
1465.56	105.895
1467.13	102.472
1468.69	98.9583
1470.26	95.7065
1471.83	91.8167
1473.39	87.5874
1474.95	83.7211
1476.52	81.3206
1478.08	79.4161
1479.65	76.4833
1481.21	73.2409
1482.78	69.1481
1484.34	66.0721
1485.9	63.7511
1487.47	60.5616
1489.03	57.4548
1490.59	55.0853
1492.15	52.7355
1493.71	50.8528
1495.27	48.7141
1496.84	46.7269
1498.39	45.2734
1499.96	44.4006
1501.52	43.1089
1503.07	40.5387
1504.64	38.5428
1506.19	37.1604
1507.75	35.7785
1509.31	33.2435
1510.87	31.0732
1512.43	29.276
1513.98	28.4644
1515.54	26.2728
1517.1	25.8534
1518.65	26.2146
1520.21	25.7861
1521.77	26.1562
1523.32	26.0438
1524.88	27.0145
1526.44	27.8025
1527.99	28.8571
1529.54	29.4454
1531.1	29.4467
1532.65	30.2397
1534.21	29
1535.76	30.7393
1537.31	30.9614
1538.87	30.934
1540.42	31.7843
1541.97	31.8908
1543.52	32.5225
1545.07	33.4499
1546.63	34.3019
1548.18	35.445
1549.73	35.9466
1551.28	37.052
1552.83	37.8432
1554.38	39.4697
1555.93	40.523
1557.48	40.6393
1559.03	40.7754
1560.57	41.9918
1562.12	43.33
1563.67	44.3036
1565.22	45.0293
1566.77	47.3466
1568.31	47.7708
1569.86	50.0349
1571.41	51.7598
1572.95	53.6027
1574.5	55.2208
1576.05	56.4505
1577.59	57.5755
1579.14	58.6269
1580.68	60.288
1582.23	62.783
1583.77	64.3637
1585.31	65.6405
1586.86	65.9005
1588.4	66.9855
1589.95	68.1138
1591.49	69.7154
1593.03	71.6676
1594.57	72.9576
1596.11	73.9419
1597.66	73.696
1599.2	74.7155
1600.74	75.1844
1602.28	74.8574
1603.82	75.0646
1605.36	74.0535
1606.9	74.179
1608.44	73.8019
1609.98	73.7358
1611.52	73.6377
1613.06	73.6373
1614.6	73.7985
1616.13	73.4888
1617.67	74.1863
1619.21	73.7929
1620.75	74.6085
1622.28	75.2073
1623.82	74.6728
1625.36	73.6663
1626.89	73.0642
1628.43	73.8272
1629.96	73.791
1631.5	74.1311
1633.04	74.7531
1634.57	73.9049
1636.11	73.995
1637.64	74.8096
1639.17	74.5027
1640.71	75.2556
1642.24	75.0612
1643.77	75.0107
1645.31	73.8525
1646.84	73.4157
1648.37	73.287
1649.9	73.0129
1651.43	72.0525
1652.96	71.4806
1654.5	70.0655
1656.03	69.8839
1657.56	69.1937
1659.09	68.6243
1660.62	66.6516
1662.15	64.9087
1663.67	63.3084
1665.2	62.1355
1666.73	60.6771
1668.26	58.3218
1669.79	56.3731
1671.32	53.9313
1672.84	51.7256
1674.37	48.8843
1675.9	47.7319
1677.43	45.3289
1678.95	42.7845
1680.48	41.1698
1682	38.6243
1683.53	37.9501
1685.05	36.5627
1686.58	35.4392
1688.1	33.5206
1689.63	31.7791
1691.15	31.0533
1692.68	29.7243
1694.2	28.7625
1695.72	27.905
1697.25	27.1208
1698.77	25.6953
1700.29	24.5503
1701.81	23.8771
1703.33	23.8648
1704.86	23.8497
1706.38	24.0412
1707.9	23.6715
1709.42	23.7218
1710.94	22.5946
1712.46	23.1243
1713.98	22.8178
1715.5	21.642
1717.02	22.0014
1718.54	20.9518
1720.06	20.4326
1721.57	20.0582
1723.09	20.3793
1724.61	20.7067
1726.13	20.5288
1727.64	19.8047
1729.16	19.3285
1730.68	19.6674
1732.19	19.7817
1733.71	19.4063
1735.23	18.5355
1736.74	17.8543
1738.26	17.1212
1739.77	16.8677
1741.29	16.3203
1742.8	15.8236
1744.31	14.9888
1745.83	14.6565
1747.34	14.3283
1748.85	13.234
1750.37	12.7211
1751.88	12.0412
1753.39	10.6593
1754.91	9.73608
1756.42	9.31169
1757.93	8.28111
1759.44	7.95644
1760.95	6.93538
1762.46	5.88462
1763.97	4.73601
1765.48	4.35276
1766.99	3.66317
1768.5	2.59252
1770.01	2.24931
1771.52	1.5255
1773.03	1.18534
1774.54	1.07014
1776.04	1.92493
1777.55	2.13754
1779.06	2.11406
1780.57	2.39423
1782.07	2.64699
1783.58	1.9442
1785.09	1.90568
1786.59	1.7149
1788.1	1.92155
1789.6	1.53803
1791.11	1.37695
1792.61	2.56705
1794.12	1.73869
1795.62	1.01796
1797.13	1.31222
1798.63	1.69111
1800.13	1.79638
1801.64	2.31883
1803.14	1.90583
1804.64	2.74754
1806.15	2.85224
1807.65	2.07606
1809.15	2.25268
1810.65	2.5896
1812.15	3.47357
1813.65	3.11275
1815.16	2.89897
1816.66	3.03631
1818.15	2.65277
1819.66	2.35133
1821.16	2.42206
1822.65	1.95189
1824.15	1.30089
1825.65	1.69548
1827.15	1.22714
1828.65	1.39119
1830.15	1.04456
1831.64	1.28164
1833.14	0.296731
1834.64	0.296746
1836.14	0.742917
1837.63	0.663936
1839.13	0.612398
1840.62	0.818624
1842.12	1.04772
1843.62	1.15978
1845.11	1.4331
1846.61	1.77067
1848.1	2.76799
1849.6	3.18376
1851.09	3.66753
1852.58	3.27648
1854.08	2.89915
1855.57	3.4053
1857.06	3.73945
1858.55	3.37985
1860.05	4.28769
1861.54	4.52501
1863.03	4.19956
1864.52	4.05802
1866.01	3.83567
1867.5	3.44373
1869	2.67698
1870.49	3.24548
1871.98	3.75235
1873.47	4.70589
1874.96	5.25784
1876.44	4.49806
1877.93	4.35873
1879.42	4.34161
1880.91	4.46706
1882.4	5.00262
1882.47	5.5702
1883.96	5.56962
1885.46	4.91193
1886.95	5.28995
1888.44	5.19643
1889.94	6.33474
1891.43	6.17747
1892.93	6.59188
1894.42	6.54113
1895.91	6.36992
1897.4	6.67316
1898.89	7.50079
1900.39	7.76026
1901.88	7.65281
1903.37	7.27619
1904.86	7.7953
1906.35	7.80092
1907.84	8.56853
1909.33	8.04564
1910.82	7.49996
1912.31	7.87399
1913.8	8.09962
1915.29	8.27956
1916.77	7.78207
1918.26	8.11344
1919.75	8.62961
1921.24	8.53036
1922.73	8.20993
1924.21	7.79626
1925.7	7.85476
1927.19	8.2219
1928.67	8.76483
1930.16	8.36171
1931.64	8.24904
1933.13	7.89289
1934.61	6.53745
1936.1	6.38298
1937.58	6.34677
1939.07	5.83863
1940.55	5.36412
1942.04	5.53473
1943.52	6.0431
1945	6.33364
1946.49	6.76134
1947.97	6.45034
1949.45	6.65672
1950.93	7.57533
1952.42	7.74727
1953.9	8.28872
1955.38	8.65002
1956.86	8.25555
1958.34	8.99252
1959.82	9.35309
1961.3	10.017
1962.78	9.73204
1964.26	9.19179
1965.74	8.37754
1967.22	8.35607
1968.7	7.69619
1970.18	8.55627
1971.65	9.07358
1973.13	9.46463
1974.61	9.69906
1976.09	10.5339
1977.57	10.6263
1979.04	10.7224
1980.52	10.5086
1982	9.66804
1983.47	9.62844
1984.95	10.1083
1986.42	9.65742
1987.9	8.94758
1989.37	8.91717
1990.85	8.24346
1992.32	8.57749
1993.8	8.60386
1995.27	8.17704
1996.75	7.51887
1998.22	7.56016
1999.69	7.63904
2001.17	7.45277
2002.64	7.65444
2004.11	7.16968
2005.58	7.44757
2007.05	7.52151
2008.53	8.49382
2010	9.18844
2011.47	9.2098
2012.94	9.90729
2014.41	10.4361
2015.88	10.2235
2017.35	10.6896
2018.82	11.4982
2020.29	12.071
2021.76	12.499
2023.23	13.2758
2024.7	12.9383
2026.16	13.1746
2027.63	13.5573
2029.1	13.4193
2030.57	13.2884
2032.03	13.5704
2033.5	13.3602
2034.97	13.4182
2036.44	13.8034
2037.9	13.571
2039.37	14.1118
2040.83	15.6039
2042.3	15.9545
2043.76	17.0636
2045.23	17.3475
2046.69	18.077
2048.16	18.1412
2049.62	17.9105
2051.08	17.3194
2052.55	17.441
2054.01	17.5082
2055.47	17.55
2056.94	17.6203
2058.4	17.4717
2059.86	17.5251
2061.32	17.4203
2062.79	17.9312
2064.25	18.0968
2065.71	18.7464
2067.17	19.2365
2068.63	19.2193
2070.09	19.1116
2071.55	19.979
2073.01	19.9741
2074.47	20.5541
2075.93	20.8901
2077.39	21.2839
2078.85	22.4111
2080.31	22.5543
2081.76	22.8144
2083.22	22.8654
2084.68	22.5485
2086.13	22.7483
2087.59	23.164
2089.05	23.5584
2090.51	24.7866
2091.96	25.8663
2093.42	26.5581
2094.87	27.0062
2096.33	27.9668
2097.78	28.1975
2099.24	28.6901
2100.69	28.8923
2102.15	29.4125
2103.6	30.4817
2105.06	31.0963
2106.51	31.7524
2107.96	32.1638
2109.42	32.5735
2110.87	32.5555
2112.32	32.8608
2113.77	35.0077
2115.23	34.342
2116.68	34.4343
2118.13	35.455
2119.58	35.9912
2121.03	36.9819
2122.48	39.3974
2123.93	40.5787
2125.38	40.7954
2126.83	42.2438
2128.28	42.778
2129.73	43.8068
2131.18	45.1142
2132.63	45.5838
2134.08	46.3083
2135.53	48.4093
2136.97	49.6812
2138.42	51.2029
2139.87	52.2941
2141.32	53.9284
2142.76	54.6836
2144.21	55.7701
2145.66	56.6551
2147.1	58.3181
2148.55	59.8153
2150	60.9054
2151.44	62.0862
2152.89	63.1063
2154.33	64.8404
2155.78	66.2427
2157.22	66.897
2158.66	69.1152
2160.11	70.3154
2161.55	70.6713
2163	72.0925
2164.44	73.2411
2165.88	73.6935
2167.32	73.6337
2168.77	73.5564
2170.21	73.7875
2171.65	73.9187
2173.09	74.7105
2174.53	74.5307
2175.97	73.9652
2177.41	72.9854
2178.85	72.2101
2180.29	71.9971
2181.73	70.5876
2183.17	70.1431
2184.61	69.5998
2186.05	68.9662
2187.49	66.7382
2188.93	66.2872
2190.37	65.7206
2191.81	64.2734
2193.24	63.1228
2194.68	61.0686
2196.12	59.0886
2197.56	56.8328
2198.99	55.9142
2200.43	53.5361
2201.87	52.5421
2203.3	51.4611
2204.74	50.1934
2206.17	49.1713
2207.61	48.2015
2209.04	47.1332
2210.48	46.4725
2211.91	44.9532
2213.35	44.315
2214.78	42.3397
2216.21	41.243
2217.65	40.6773
2219.08	40.1599
2220.51	39.1741
2221.95	38.2834
2223.38	37.7375
2224.81	36.9792
2226.24	36.048
2227.67	35.0567
2229.1	34.2353
2230.54	34.0359
2231.97	32.9915
2233.4	31.9498
2234.83	32.2317
2236.26	30.4603
2237.69	30.4009
2239.11	30.4834
2240.54	30.6805
2241.97	30.8812
2243.4	30.7709
2244.83	29.7762
2246.26	29.0246
2247.69	28.3792
2249.11	28.4726
2250.54	28.0512
2251.97	27.3166
2253.4	26.8086
2254.82	26.068
2256.25	25.2119
2257.67	24.2423
2259.1	23.4148
2260.53	23.194
2261.95	21.7286
2263.38	20.6109
2264.8	19.544
2266.23	18.82
2267.65	18.7957
2269.07	17.1983
2270.5	17.9738
2271.92	17.7044
2273.34	17.6521
2274.77	17.4067
2276.19	17.0179
2277.61	16.8379
2279.03	16.7614
2280.46	16.7233
2281.88	16.8488
2283.3	16.0206
2284.72	15.6081
2286.14	15.903
2287.56	15.546
2288.98	15.3858
2290.4	14.2951
2291.82	13.3334
2293.24	13.1244
2294.66	12.5951
2296.08	12.578
2297.5	12.8366
2298.92	12.6878
2300.34	12.6369
2301.76	12.7494
2303.17	12.6217
2304.59	12.6717
2306.01	13.8083
2307.43	12.9532
2308.84	13.3787
2310.26	13.0121
2311.68	12.1982
2313.09	12.0397
2314.51	12.042
2315.92	11.9423
2317.34	12.4546
2318.75	12.2354
2320.17	12.4392
2321.58	12.025
2323	11.6168
2324.41	11.5283
2325.82	10.2543
2327.24	10.0831
2328.65	10.3818
2330.06	10.425
2331.48	10.516
2332.89	9.45935
2334.3	9.73106
2335.71	9.92808
2337.12	10.0506
2338.54	10.4762
2339.95	9.88777
2341.36	10.1572
2342.77	9.27739
2344.18	8.62527
2345.59	8.86642
2347	9.11352
2348.41	8.64151
2349.82	7.92421
2351.23	7.78906
2352.64	7.45866
2354.04	6.62673
2355.45	5.78437
2356.86	5.11704
2358.27	4.1104
2359.68	3.51298
2361.08	4.1244
2362.49	3.87853
2363.9	4.62721
2365.3	4.44051
2366.71	5.07693
2368.12	4.5729
2369.52	4.27337
2370.93	4.79357
2372.33	4.49245
2373.74	4.39173
2375.14	4.1186
2376.55	4.53531
2377.95	3.9508
2379.36	4.97712
2380.76	5.50594
2382.16	5.66149
2383.57	6.35009
2384.97	7.14693
2386.37	7.38902
2387.78	7.6546
2389.18	7.95414
2390.58	7.55735
2391.98	7.06459
2393.38	6.59763
2394.79	6.54565
2396.19	6.12029
2397.59	6.72668
2398.99	7.7928
2400.39	7.92527
2401.79	8.4555
2403.19	8.3416
2404.59	8.45757
2405.99	8.1937
2407.39	7.70857
2408.78	7.51153
2410.18	7.04651
2411.58	7.20401
2412.98	6.55494
2414.38	6.16289
2415.77	6.17804
2417.17	6.02752
2418.57	5.33003
2419.97	4.91676
2421.36	4.52538
2422.76	4.09676
2424.15	3.70519
2425.55	3.0965
2426.95	2.79371
2428.34	3.10171
2429.74	2.8126
2431.13	3.53212
2432.52	3.19173
2433.92	3.85481
2435.31	3.28969
2436.71	3.25943
2438.1	2.65718
2439.49	2.98632
2440.89	3.22134
2442.28	2.87544
2443.67	3.5507
2445.06	3.7714
2446.46	4.36584
2447.85	4.44777
2449.24	4.58492
2450.63	4.58947
2452.02	4.83892
2453.41	5.04859
2454.8	5.57548
2456.19	5.4893
2457.58	5.36801
2458.97	5.15729
2460.36	4.63588
2461.75	4.45947
2463.14	4.59335
2464.53	5.00873
2465.92	5.39028
2467.31	5.64485
2468.69	5.87349
2470.08	6.23771
2471.47	6.34761
2472.86	6.17679
2474.24	5.78738
2475.63	5.63668
2477.02	5.38155
2478.4	5.21377
2479.79	5.54113
2481.17	4.8048
2482.56	4.43321
2483.94	4.57654
2485.33	4.28752
2486.72	4.19288
2488.1	3.08943
2489.48	2.50187
2490.87	1.75662
2492.25	2.04952
2493.64	1.59213
2495.02	1.24196
2496.4	0.747678
2497.79	1.17454
2499.17	1.54212
2500.55	1.69139
2501.93	1.2382
2503.31	0.831888
2504.69	0.14781
2506.08	0.265537
2507.46	0.832812
2508.84	0.697394
2510.22	0.607722
2511.6	0.260147
2512.98	0.716625
2514.36	0.809419
2515.74	0.490343
2517.12	1.30219
2518.5	1.6432
2519.88	1.88234
2521.25	1.59105
2522.63	1.52719
2524.01	0.809033
2525.39	0.622313
2526.77	-0.0840871
2528.14	0.572726
2529.52	0.541231
2530.9	0.689001
2532.27	1.19964
2533.65	1.61321
2535.03	1.52107
2536.4	1.66087
2537.78	2.32478
2539.15	2.68824
2540.53	2.43191
2541.9	2.29805
2543.28	1.88884
2544.65	2.1767
2546.03	3.02713
2547.4	2.80943
2548.77	3.29217
2550.15	3.02368
2551.52	3.77998
2552.89	3.56845
2554.27	3.95393
2555.64	4.91257
2557.01	4.69472
2558.38	5.69475
2559.75	5.67859
2561.12	5.57248
2562.5	5.44373
2563.87	6.246
2565.24	7.27296
2566.61	8.223
2567.98	7.92593
2569.35	7.92
2570.72	7.78852
2572.09	8.13327
2573.46	7.51728
2574.83	7.40616
2576.19	6.90729
2577.56	6.051
2578.93	6.19034
2580.3	6.06528
2581.67	6.41934
2583.04	5.88435
2584.4	5.92697
2585.77	6.69942
2587.14	6.16651
2588.5	4.79201
2589.87	5.05702
2591.23	4.81775
2592.6	4.39765
2593.97	5.09302
2595.33	4.8305
2596.7	4.84392
2598.06	4.50161
2599.43	4.04689
2600.79	3.36248
2602.15	3.15162
2603.52	2.5007
2604.88	2.51151
2606.25	2.10415
2607.61	1.69387
2608.97	1.67593
2610.33	1.54065
2611.7	1.26171
2613.06	1.31576
2614.42	1.27898
2615.78	0.0505853
2617.15	0.44296
2618.51	0.991929
2619.87	0.863184
2621.23	0.86465
2622.59	1.41618
2623.95	1.81159
2625.31	2.12855
2626.67	2.43664
2628.03	2.3241
2629.39	2.85351
2630.75	3.76237
2632.1	4.25283
2633.46	4.84557
2634.82	4.57885
2636.18	4.1977
2637.54	4.60788
2638.89	4.83967
2640.25	4.6786
2641.61	4.29004
2642.97	5.38803
2644.32	5.70171
2645.68	6.09086
2647.03	6.26335
2648.39	6.70575
2649.75	6.76594
2651.1	6.88235
2652.46	7.69651
2653.81	7.66974
2655.17	6.97859
2656.52	6.72295
2657.88	6.94507
2659.23	6.45079
2660.58	6.4763
2661.94	6.24395
2663.29	5.66199
2664.64	5.8678
2666	6.66475
2667.35	6.28826
2668.7	5.98847
2670.05	5.73683
2671.4	5.25986
2672.76	5.65426
2674.11	5.26755
2675.46	4.73497
2676.81	4.70995
2678.16	4.28718
2679.51	4.3272
2680.86	4.53349
2682.21	4.3271
2683.56	4.73523
2684.91	5.87779
2686.26	6.31752
2687.61	6.14736
2688.96	6.27761
2690.3	6.85386
2691.65	7.68737
2693	8.05354
2694.35	8.12665
2695.7	8.85573
2697.04	9.15716
2698.39	9.026
2699.74	10.0505
2701.08	10.6449
2702.43	10.8971
2703.77	11.6134
2705.12	11.3805
2706.47	11.862
2707.81	11.8773
2709.16	12.9134
2710.5	13.4062
2711.85	13.0221
2713.19	13.1624
2714.53	13.6696
2715.88	14.6732
2717.22	14.908
2718.57	15.5258
2719.91	15.4446
2721.25	15.1134
2722.59	14.745
2723.94	15.0027
2725.28	14.5053
2726.62	15.557
2727.96	15.3173
2729.3	15.2103
2730.65	16.082
2731.99	16.7572
2733.33	15.911
2734.67	15.3858
2736.01	15.3714
2737.35	15.2402
2738.69	15.5871
2740.03	15.5441
2741.37	15.4902
2742.71	14.9677
2744.05	15.3911
2745.38	15.0485
2746.72	15.5349
2748.06	14.9351
2749.4	14.4124
2750.74	14.0854
2752.07	13.5246
2753.41	12.7496
2754.75	12.2627
2756.09	11.8229
2757.42	12.0536
2758.76	11.4945
2760.09	10.9365
2761.43	9.86594
2762.77	8.8856
2764.1	8.67951
2765.44	7.88526
2766.77	7.8878
2768.11	7.11449
2769.44	6.9824
2770.77	6.20151
2772.11	5.10431
2773.44	5.19466
2774.77	5.18614
2776.11	5.36056
2777.44	4.60033
2778.77	4.39828
2780.11	4.04152
2781.44	4.45458
2782.77	4.28647
2784.1	3.62157
2785.43	2.95814
2786.77	2.22689
2788.1	1.69142
2789.43	1.55914
2790.76	1.73663
2792.09	2.25216
2793.42	2.43042
2794.75	2.07705
2796.08	2.45975
2797.41	2.72223
2798.74	2.74846
2800.07	2.78098
2801.4	3.39817
2802.72	3.67963
2804.05	3.74505
2805.38	4.42773
2806.71	4.92234
2808.04	5.309
2809.36	5.06597
2810.69	5.618
2812.02	4.91396
2813.34	5.37846
2814.67	5.26163
2816	6.49894
2817.32	7.5453
2818.65	8.58215
2819.97	9.35458
2821.3	10.6047
2822.62	12.427
2823.95	14.1099
2825.27	15.9931
2826.6	19.2956
2827.92	21.7464
2829.25	25.3228
2830.57	29.1869
2831.89	32.2769
2833.22	35.7877
2834.54	39.5226
2835.86	43.6876
2837.18	47.0284
2838.51	51.251
2839.83	55.7379
2841.15	60.1762
2842.47	64.5788
2843.79	69.0322
2845.11	74.3092
2846.43	80.0498
2847.76	85.7457
2849.08	90.3689
2850.4	94.9624
2851.72	100.215
2853.04	106.239
2854.36	111.443
2855.67	116.935
2856.99	122.112
2858.31	126.389
2859.63	130.443
2860.95	134.926
2862.27	138.909
2863.58	143.037
2864.9	146.589
2866.22	150.494
2867.54	154
2868.85	157.557
2870.17	161.134
2871.49	163.356
2872.8	166.564
2874.12	168.881
2875.43	171.158
2876.75	174.069
2878.07	176.536
2879.38	179.832
2880.7	183.509
2882.01	186.676
2883.32	189.788
2884.64	192.902
2885.95	197.327
2887.27	200.982
2888.58	204.543
2889.89	207.847
2891.21	211.115
2892.52	214.663
2893.83	217.85
2895.14	222.143
2896.46	226.026
2897.77	229.938
2899.08	233.624
2900.39	237.887
2901.7	242.582
2903.01	246.999
2904.32	252.582
2905.63	257.017
2906.94	262.143
2908.25	267.864
2909.56	273.046
2910.87	278.796
2912.18	283.618
2913.49	287.902
2914.8	292.603
2916.11	297.527
2917.42	302.512
2918.72	306.877
2920.03	310.04
2921.34	312.68
2922.65	315.081
2923.95	317.331
2925.26	319.654
2926.57	320.612
2927.88	321.743
2929.18	322.162
2930.49	321.897
2931.79	321.51
2933.1	320.017
2934.4	318.437
2935.71	316.112
2937.01	312.685
2938.32	310.129
2939.62	306.19
2940.93	302.098
2942.23	298.395
2943.54	294.012
2944.84	289.545
2946.14	285.36
2947.45	279.955
2948.75	274.936
2950.05	269.248
2951.35	263.401
2952.66	256.242
2953.96	250.014
2955.26	244.117
2956.56	237.981
2957.86	232.204
2959.16	226.84
2960.46	221.136
2961.77	215.586
2963.07	210.094
2964.37	204.016
2965.66	198.648
2966.96	193.191
2968.26	188.114
2969.56	183.439
2970.86	177.243
2972.16	173.017
2973.46	168.46
2974.76	163.631
2976.06	159.378
2977.35	153.96
2978.65	149.316
2979.95	144.92
2981.25	140.062
2982.54	135.417
2983.84	130.748
2985.14	125.982
2986.43	120.555
2987.73	115.271
2989.02	110.351
2990.32	104.517
2991.62	99.272
2992.91	94.3649
2994.21	89.7309
2995.5	84.7294
2996.8	79.8432
2998.09	75.393
2999.38	70.9266
3000.68	65.8317
3001.97	61.4855
3003.26	57.392
3004.56	54.0993
3005.85	50.3289
3007.14	46.8014
3008.43	43.6101
3009.73	40.2561
3011.02	36.978
3012.31	33.705
3013.6	30.9679
3014.89	28.1804
3016.19	25.2695
3017.48	22.6297
3018.77	20.5534
3020.06	18.1775
3021.35	16.172
3022.64	14.3939
3023.93	13.0315
3025.22	11.5116
3026.5	9.6018
3027.79	7.88897
3029.08	6.65248
3030.37	5.83253
3031.66	4.98083
3032.95	4.22902
3034.24	2.96387
3035.52	1.58939
3036.81	1.54575
3038.1	1.36979
3039.39	1.05601
3040.67	0.521185
3041.96	-0.0373324
3043.25	0.229468
3044.53	0.311362
3045.82	0.724367
3047.1	0.144404
3048.39	-0.253713
3049.67	-0.0888309
3050.96	-0.384864
3052.24	-0.687931
3053.53	-0.0636718
3054.81	0.238486
3056.1	1.06402
3057.38	1.58682
3058.67	2.30988
3059.95	2.11043
3061.23	2.15489
3062.52	2.57903
3063.8	2.85758
3065.08	2.7746
3066.36	3.30314
3067.65	3.71926
3068.93	3.67223
3070.21	3.50362
3071.49	3.4051
3072.77	3.51489
3074.05	3.47115
3075.33	3.54801
3076.61	3.21507
3077.89	3.50237
3079.17	2.75507
3080.45	2.1546
3081.73	2.09451
3083.01	2.09745
3084.29	1.59229
3085.57	1.79379
3086.85	1.07808
3088.13	0.681802
3089.41	0.215599
3090.68	0.0838584
3091.96	0.40655
3093.24	0.14793
3094.52	0.148633
3095.79	-0.142951
3097.07	0.0675563
3098.35	0.381039
3099.62	0.994971
3100.9	1.51799
3102.18	2.46721
3103.45	2.27976
3104.73	2.31981
3106	2.82087
3107.28	3.43449
3108.55	3.3575
3109.83	3.54754
3111.1	3.59676
3112.38	4.4724
3113.65	5.4757
3114.93	5.60959
3116.2	5.92658
3117.47	6.31301
3118.75	6.92511
3120.02	7.54434
3121.29	8.05812
3122.57	8.51107
3123.84	8.82504
3125.11	9.45723
3126.38	10.3422
3127.65	10.8086
3128.92	11.2717
3130.2	12.0534
3131.47	12.8371
3132.74	13.0182
3134.01	14.1204
3135.28	14.4955
3136.55	14.9048
3137.82	15.6193
3139.09	15.4674
3140.36	15.495
3141.63	15.9546
3142.9	15.94
3144.17	16.3865
3145.43	16.7708
3146.7	17.3325
3147.97	18.1654
3149.24	18.4967
