#Acq. time (s)=	45
#Accumulations=	2
#Range (cm-¹)=	200...3150
#Windows=	2
#Auto scanning=	Off
#Autofocus=	Off
#Macrospot=	Off
#AutoExposure=	Off
#Spike filter=	Multiple accum.
#Delay time (s)=	0
#Binning=	1
#Readout mode=	Signal
#DeNoise=	Off
#ICS correction=	On
#Dark correction=	Off
#Inst. Process=	Off
#Detector Gain=	Best Dynamic Range
#Detector ADC=	20 kHz       
#Detector temperature (°C)=	-69.85
#Instrument=	LabRAM HR Evol
#Detector=	Synapse
#Objective=	x100
#Grating=	600 gr/mm
#ND Filter=	100%
#Laser (nm)=	532 
#Hole=	100.021
#Range=	Auto
#Laser Pol.=	No
#Raman. Pol.=	No
#Laser Pol. (°)=	-0.0007625
#Raman Pol. (°)=	89.9995
#Collection=	Microscope
#StageXY=	Marzhauser
#StageZ=	Marzhauser
#X (µm)=	-1068.4
#Y (µm)=	686.6
#Z (µm)=	584.55
#Full time(mm:ss)=	3:19
#Project=	
#Sample=	
#Site=	
#Title=	Mb_40_y_13_2x_45s_532 nm_x100_100%_600 gr_mm
#Remark=	
#Date=	19.07.2022 09:57
#Acquired=	19.07.2022 09:57:07
#Base:Fit=	10.08.2022 10:52:48
#Base:Sub=	10.08.2022 10:52:53
#Filter:Polynom=	16.08.2022 10:09:04
#AxisType[0]=Intens
#AxisUnit[0]=Cnt
#AxisType[1]=Spectr
#AxisUnit[1]=1/cm
200.423	9.35762
202.238	10.2955
204.052	11.3752
205.868	12.1154
207.682	12.9281
209.495	13.6811
211.308	13.7123
213.12	13.8258
214.935	13.0499
216.746	13.0089
218.558	12.0995
220.369	11.6909
222.18	10.9173
223.992	10.1026
225.802	9.19431
227.612	7.68172
229.421	8.24004
231.23	7.79647
233.039	6.71518
234.849	6.82435
236.657	5.59023
238.465	5.99365
240.272	6.2854
242.079	6.67816
243.885	6.30226
245.691	6.47253
247.497	5.82633
249.305	4.99787
251.11	3.90629
252.915	3.9908
254.719	3.80943
256.523	4.66156
258.327	5.00967
260.13	5.76407
261.933	6.83729
263.736	7.93237
265.538	8.58879
267.34	8.62315
269.141	10.2967
270.943	10.6893
272.744	9.81066
274.544	10.1326
276.344	9.44512
278.144	9.63787
279.944	10.4493
281.743	11.29
283.542	11.6313
285.34	12.5578
287.138	11.8396
288.936	11.4441
290.733	11.446
292.53	12.124
294.327	11.5195
296.123	11.1673
297.919	11.1085
299.715	10.0119
301.508	9.5341
303.303	9.44771
305.098	9.19274
306.892	9.49868
308.686	8.39605
310.479	8.40752
312.273	8.55792
314.065	8.9145
315.858	9.19318
317.648	9.52025
319.44	10.1899
321.231	9.67317
323.022	9.40726
324.813	10.4994
326.604	10.2994
328.392	11.0023
330.181	11.0038
331.971	10.937
333.76	10.7999
335.548	11.053
337.335	10.874
339.123	10.7906
340.91	10.9958
342.698	11.6214
344.483	11.2425
346.269	11.8208
348.055	11.4339
349.841	11.9266
351.625	12.9289
353.41	13.1941
355.195	13.1311
356.977	12.1837
358.762	11.3432
360.545	10.8376
362.329	10.2373
364.11	10.2169
365.893	9.68032
367.675	9.3992
369.455	9.20882
371.237	7.78267
373.017	6.88278
374.798	5.68052
376.578	5.09182
378.357	4.57671
380.137	4.74719
381.917	4.02923
383.694	3.48553
385.473	3.47966
387.249	3.48914
389.028	2.92507
390.806	4.11301
392.581	4.88558
394.359	5.29389
396.134	4.99089
397.91	5.11599
399.684	6.60917
401.46	7.50875
403.234	7.29728
405.009	6.83662
406.784	6.76535
408.557	7.05341
410.331	7.43405
412.103	7.30092
413.876	7.57907
415.647	6.72409
417.42	7.37215
419.191	7.70727
420.961	7.58422
422.733	7.75447
424.502	7.04026
426.273	7.30346
428.042	7.04394
429.812	7.66336
431.58	8.05507
433.35	8.42829
435.118	9.18703
436.885	8.89679
438.653	9.34911
440.42	9.07733
442.188	8.14525
443.954	7.02635
445.719	6.94738
447.486	7.78458
449.251	7.9055
451.015	7.86574
452.781	7.54154
454.545	7.03793
456.308	5.8703
458.073	5.56428
459.836	5.04317
461.598	5.53929
463.362	5.66797
465.124	6.12041
466.885	7.31261
468.648	7.26218
470.408	7.24353
472.169	7.03519
473.929	6.95744
475.69	7.72975
477.45	8.40766
479.208	9.29722
480.967	9.24703
482.727	10.3765
484.485	10.832
486.243	11.401
488	11.6641
489.759	11.9971
491.515	12.2121
493.272	13.6836
495.028	14.183
496.783	15.1885
498.54	16.0888
500.295	16.4207
502.05	17.7199
503.804	18.2919
505.558	18.9301
507.311	18.5987
509.064	19.0756
510.819	19.5825
512.572	20.2401
514.324	21.1147
516.076	22.2628
517.827	23.2364
519.578	23.2168
521.329	23.6989
523.08	23.8701
524.83	24.116
526.58	24.3125
528.329	24.1105
530.08	24.8322
531.829	25.2846
533.578	26.1574
535.326	26.1372
537.074	24.8797
538.821	23.9987
540.568	22.3097
542.315	21.2115
544.062	20.0356
545.808	19.4149
547.554	18.9505
549.299	17.947
551.044	17.6326
552.789	16.846
554.533	17.1269
556.278	14.4647
558.019	13.5439
559.763	12.2597
561.506	11.8244
563.249	11.2964
564.991	11.1678
566.733	11.463
568.475	11.4667
570.217	10.5829
571.958	8.89384
573.699	8.02776
575.439	8.69837
577.177	8.95533
578.917	8.55956
580.656	8.65588
582.396	8.28491
584.134	8.38246
585.873	7.81297
587.609	7.42256
589.347	7.29493
591.084	6.93835
592.822	6.6095
594.558	7.51722
596.295	8.60711
598.029	8.95888
599.765	9.61013
601.5	9.67752
603.235	9.77847
604.968	9.3996
606.703	9.86148
608.437	10.6149
610.171	10.9181
611.902	11.4077
613.635	11.2825
615.368	11.7888
617.099	12.549
618.831	12.4584
620.563	12.1307
622.294	11.0429
624.024	9.76072
625.755	9.33775
627.485	9.5256
629.213	9.87486
630.943	9.44454
632.673	9.86575
634.4	10.5741
636.129	9.90874
637.855	9.78298
639.584	10.3376
641.312	10.8337
643.037	9.83618
644.764	10.7504
646.491	10.9902
648.216	11.0628
649.942	11.7545
651.666	12.9161
653.392	13.0039
655.115	12.4169
656.84	13.4051
658.563	13.8832
660.287	14.7033
662.011	15.6645
663.732	16.0284
665.456	16.4702
667.177	17.1956
668.899	17.8054
670.62	18.159
672.342	19.0525
674.061	20.9127
675.781	21.9811
677.502	23.9018
679.22	25.0972
680.941	26.5384
682.659	26.3931
684.379	26.3626
686.096	27.3559
687.815	27.9625
689.532	28.848
691.248	30.1904
692.966	30.6726
694.682	31.4763
696.4	31.6596
698.115	33.0137
699.829	33.9631
701.546	34.8177
703.26	35.329
704.974	35.6296
706.689	35.8013
708.402	36.7556
710.115	37.8117
711.83	38.9549
713.542	40.7233
715.254	41.2428
716.967	41.822
718.679	43.0963
720.39	42.9418
722.102	43.2969
723.812	43.963
725.522	44.5603
727.232	44.4075
728.943	44.8852
730.652	46.0872
732.361	46.531
734.069	47.3968
735.779	49.8627
737.487	49.9349
739.194	49.651
740.901	50.4741
742.608	51.7253
744.316	51.087
746.022	52.5903
747.728	53.3814
749.433	54.7911
751.138	55.6827
752.843	56.8378
754.549	57.8005
756.254	58.6448
757.957	59.9128
759.661	61.2318
761.364	61.2243
763.067	61.5231
764.769	62.3173
766.471	62.5853
768.175	63.0156
769.877	64.4244
771.578	66.0743
773.279	67.2513
774.98	68.6502
776.68	69.401
778.38	70.3135
780.079	72.008
781.779	72.8779
783.478	74.2542
785.176	75.1604
786.875	76.1326
788.573	77.1564
790.27	77.8857
791.968	78.8346
793.665	79.0835
795.361	79.4431
797.058	80.2934
798.754	80.651
800.45	80.3136
802.145	80.1098
803.84	79.9049
805.535	79.5209
807.23	79.7836
808.922	79.8799
810.616	80.5255
812.309	80.5905
814.002	81.2648
815.695	80.5594
817.388	79.6996
819.08	79.769
820.772	78.2888
822.464	76.5036
824.153	75.9081
825.844	75.534
827.535	74.657
829.225	73.7689
830.915	73.864
832.605	72.5916
834.292	71.9422
835.981	71.2779
837.67	69.3963
839.359	67.9453
841.047	66.8937
842.732	65.575
844.42	64.5148
846.107	64.4405
847.794	63.7678
849.479	63.7144
851.165	62.9812
852.851	63.1933
854.534	63.3668
856.22	63.5618
857.905	63.1459
859.589	62.6534
861.272	61.4195
862.956	60.0781
864.639	58.8845
866.321	58.3963
868.004	58.2864
869.687	58.0651
871.367	57.1662
873.049	57.2028
874.731	56.1323
876.41	56.7373
878.092	56.4881
879.771	56.6942
881.451	55.9031
883.131	55.4425
884.809	55.2162
886.489	55.3703
888.166	56.0569
889.845	55.8187
891.522	55.5546
893.2	55.7163
894.878	55.6292
896.554	54.9508
898.231	54.7616
899.906	54.3818
901.583	54.2808
903.258	54.6686
904.934	54.2884
906.608	55.0521
908.283	54.3353
909.956	53.9409
911.631	53.6706
913.304	53.4788
914.976	53.3201
916.65	52.2652
918.322	52.8212
919.995	52.506
921.666	51.9799
923.339	51.8779
925.009	52.0823
926.679	52.252
928.351	52.6151
930.021	52.1358
931.692	50.5788
933.361	51.2199
935.029	50.5734
936.699	50.1008
938.367	49.5252
940.035	49.3773
941.704	48.5994
943.371	47.5632
945.038	46.5234
946.706	46.0264
948.372	45.2946
950.038	44.5099
951.705	44.2966
953.37	43.4465
955.035	42.9853
956.7	42.3758
958.366	40.6834
960.03	40.2579
961.693	39.4021
963.357	38.0231
965.021	37.8273
966.684	37.9847
968.346	38.157
970.008	38.6651
971.67	38.2218
973.334	38.4518
974.995	38.8644
976.655	38.4988
978.316	38.8922
979.976	38.5945
981.638	38.2897
983.297	37.9528
984.957	37.5349
986.616	37.4721
988.274	37.0108
989.932	36.2141
991.59	35.055
993.248	34.4537
994.907	33.7361
996.565	32.6055
998.221	31.4504
999.878	30.0473
1001.53	30.22
1003.19	29.2621
1004.85	29.1268
1006.5	28.6921
1008.16	30.3413
1009.81	33.2651
1011.46	36.2381
1013.12	39.9426
1014.77	43.9799
1016.43	49.0675
1018.08	53.3861
1019.73	58.9869
1021.38	64.7296
1023.04	69.7147
1024.69	74.0633
1026.34	78.6338
1027.99	81.7701
1029.64	84.4333
1031.29	87.2574
1032.94	90.5098
1034.59	93.8776
1036.24	95.2009
1037.89	96.6534
1039.54	97.3712
1041.19	98.3696
1042.84	99.7995
1044.48	100.187
1046.13	99.3672
1047.78	100.427
1049.42	99.9299
1051.07	99.0908
1052.72	97.1031
1054.36	95.3
1056.01	93.0469
1057.66	89.3884
1059.3	86.3839
1060.94	83.8812
1062.59	80.1832
1064.23	75.9363
1065.88	71.1562
1067.52	66.7886
1069.16	61.1708
1070.81	55.1785
1072.45	49.6728
1074.09	44.0323
1075.73	38.1507
1077.38	33.2669
1079.02	28.8012
1080.66	25.3847
1082.3	22.1514
1083.94	21.1286
1085.58	20.1245
1087.22	18.7584
1088.86	19.5416
1090.5	21.1569
1092.13	22.2381
1093.77	22.8616
1095.41	24.6897
1097.05	25.2631
1098.68	26.2416
1100.32	26.6344
1101.96	27.7883
1103.6	28.295
1105.23	28.2146
1106.87	27.783
1108.5	26.6693
1110.14	25.8581
1111.77	26.3806
1113.41	27.0754
1115.04	26.4819
1116.67	25.984
1118.31	25.3268
1119.94	24.4716
1121.58	23.7348
1123.21	23.0972
1124.84	22.2852
1126.47	20.1616
1128.1	20.4537
1129.73	20.3965
1131.37	19.5398
1133	18.1315
1134.63	16.9419
1136.26	17.0281
1137.89	15.9738
1139.52	14.9325
1141.14	14.7588
1142.77	14.6241
1144.4	13.9295
1146.03	12.739
1147.66	12.7787
1149.29	12.3838
1150.91	11.0536
1152.54	10.3588
1154.17	11.1764
1155.79	10.5314
1157.42	10.6818
1159.04	11.0825
1160.67	10.0274
1162.3	9.72257
1163.92	9.40845
1165.55	9.22263
1167.17	8.03725
1168.79	7.22199
1170.42	7.69453
1172.04	7.4152
1173.66	7.93484
1175.28	8.42558
1176.91	8.28214
1178.53	6.77448
1180.15	6.40435
1181.77	6.54942
1183.39	6.38752
1185.01	6.33727
1186.63	6.93876
1188.25	6.72824
1189.87	7.72088
1191.49	8.54272
1193.11	8.91335
1194.73	9.4251
1196.35	9.3972
1197.97	9.9417
1199.59	10.4397
1201.2	11.165
1202.82	12.4074
1204.44	13.388
1206.05	14.4118
1207.67	15.2508
1209.29	17.0871
1210.9	17.1809
1212.52	18.5857
1214.13	18.5905
1215.75	20.5827
1217.36	22.1679
1218.97	23.1419
1220.59	23.919
1222.2	25.7405
1223.82	27.5725
1225.43	28.5304
1227.04	29.4009
1228.65	30.6668
1230.26	31.2558
1231.88	31.9493
1233.49	32.7261
1235.1	33.3366
1236.71	33.1567
1238.32	33.9512
1239.93	34.0765
1241.54	34.0243
1243.15	33.8607
1244.76	34.2646
1246.37	35.3129
1247.97	36.0522
1249.58	37.085
1251.19	36.7942
1252.8	37.7507
1254.41	38.2061
1256.01	38.0662
1257.62	38.2211
1259.23	38.3883
1260.83	39.9762
1262.44	41.6226
1264.04	42.6656
1265.65	44.7926
1267.25	44.8001
1268.86	45.3791
1270.46	46.9202
1272.07	47.7855
1273.67	48.3857
1275.27	49.1517
1276.88	49.8902
1278.48	51.2763
1280.08	52.2302
1281.68	54.1718
1283.28	54.628
1284.89	55.2553
1286.49	55.739
1288.09	56.914
1289.69	57.0287
1291.29	57.5985
1292.89	58.9165
1294.49	59.0729
1296.09	60.2445
1297.69	60.9511
1299.29	60.4734
1300.88	60.9385
1302.48	62.1845
1304.08	62.8109
1305.68	62.8624
1307.27	62.8617
1308.87	62.5293
1310.47	62.2721
1312.06	62.3894
1313.66	62.7547
1315.25	62.086
1316.85	61.6724
1318.44	60.5668
1320.04	59.5757
1321.63	59.4005
1323.23	59.0275
1324.82	59.3468
1326.41	58.4919
1328.01	56.6621
1329.6	55.7604
1331.19	53.8982
1332.78	54.9152
1334.38	54.3508
1335.97	53.9937
1337.56	53.4376
1339.15	52.7234
1340.74	52.6742
1342.33	51.8193
1343.92	51.0866
1345.51	49.967
1347.1	48.8962
1348.69	48.5855
1350.28	47.3444
1351.87	46.4311
1353.46	45.3563
1355.04	44.4964
1356.63	43.8911
1358.22	43.4592
1359.81	42.3414
1361.39	41.9082
1362.98	40.866
1364.57	40.623
1366.15	39.8127
1367.74	38.4179
1369.32	37.2998
1370.91	37.0262
1372.49	36.9925
1374.07	36.5429
1375.66	36.0242
1377.24	35.9755
1378.83	34.6309
1380.41	35.0333
1381.99	35.0222
1383.57	34.5716
1385.16	34.3591
1386.74	34.1672
1388.32	34.1127
1389.9	35.2131
1391.48	35.2771
1393.06	34.1068
1394.64	32.5049
1396.22	33.1753
1397.8	33.0499
1399.38	33.9157
1400.96	33.8643
1402.54	32.7516
1404.12	32.9469
1405.7	33.3356
1407.28	34.3429
1408.85	35.7132
1410.43	36.3848
1412.01	38.7784
1413.58	38.8808
1415.16	40.9058
1416.74	42.5428
1418.31	44.0351
1419.89	45.9114
1421.46	47.8913
1423.04	49.9251
1424.61	50.9598
1426.19	52.2101
1427.76	53.4141
1429.33	55.0416
1430.91	56.5485
1432.48	57.9028
1434.05	58.2595
1435.63	60.0899
1437.2	61.3429
1438.77	62.5567
1440.34	63.3445
1441.91	63.939
1443.49	64.1723
1445.05	64.3215
1446.63	64.9613
1448.2	65.7357
1449.77	66.0611
1451.34	65.7701
1452.91	64.629
1454.47	63.9388
1456.04	63.4092
1457.61	62.0278
1459.18	61.2404
1460.75	60.0049
1462.31	58.2312
1463.88	57.0412
1465.45	55.5343
1467.01	54.2686
1468.58	52.6117
1470.15	49.5842
1471.71	48.0708
1473.28	45.9406
1474.84	44.739
1476.41	41.8568
1477.97	41.0176
1479.54	38.9206
1481.1	37.4297
1482.66	36.6467
1484.23	35.4271
1485.79	34.301
1487.35	33.287
1488.91	31.7652
1490.48	31.1038
1492.04	29.751
1493.6	29.3527
1495.16	27.7266
1496.72	26.8707
1498.28	25.7522
1499.84	24.4382
1501.4	22.8772
1502.96	21.539
1504.52	21.2925
1506.08	21.3505
1507.64	20.2747
1509.2	20.1105
1510.76	19.9818
1512.31	19.4433
1513.87	19.6696
1515.43	19.21
1516.99	19.5081
1518.54	19.3536
1520.1	20.3479
1521.66	20.6477
1523.21	20.9517
1524.77	21.2713
1526.32	21.1611
1527.88	20.9135
1529.43	20.5938
1530.99	21.4386
1532.54	22.0604
1534.09	22.0845
1535.65	22.6688
1537.2	24.1646
1538.75	25.3476
1540.31	26.6546
1541.86	28.3994
1543.41	29.2448
1544.96	30.1254
1546.51	30.4575
1548.06	31.7455
1549.62	33.574
1551.17	33.5019
1552.72	35.3611
1554.27	36.1653
1555.82	38.4564
1557.36	38.5024
1558.91	38.8109
1560.46	39.3237
1562.01	39.9118
1563.56	39.7747
1565.11	40.0879
1566.66	39.7584
1568.2	40.0076
1569.75	40.4572
1571.3	40.874
1572.84	41.2118
1574.39	40.8944
1575.93	40.9818
1577.48	41.0848
1579.02	41.5791
1580.57	43.0009
1582.11	43.1312
1583.66	43.5598
1585.2	43.9188
1586.75	44.6217
1588.29	44.9907
1589.83	44.7435
1591.38	44.7013
1592.92	45.2109
1594.46	45.9034
1596	45.873
1597.54	45.4311
1599.09	44.5356
1600.63	44.3813
1602.17	44.1674
1603.71	44.0886
1605.25	44.3693
1606.79	44.4049
1608.33	43.9307
1609.87	43.0815
1611.41	43.8038
1612.95	44.6099
1614.48	45.1935
1616.02	44.4835
1617.56	44.3641
1619.1	44.2414
1620.64	43.4032
1622.17	43.9284
1623.71	44.3178
1625.25	44.7738
1626.78	44.6454
1628.32	43.6755
1629.86	44.3299
1631.39	43.9029
1632.92	44.2866
1634.46	43.5743
1635.99	43.2924
1637.53	43.6825
1639.06	44.1514
1640.59	43.9268
1642.13	45.2807
1643.66	45.8388
1645.19	46.1097
1646.73	46.6194
1648.26	46.8084
1649.79	47.3072
1651.32	47.6815
1652.85	48.1268
1654.38	47.4264
1655.92	48.0911
1657.45	48.1246
1658.98	47.7119
1660.51	47.8927
1662.04	47.6251
1663.57	47.2277
1665.09	47.0165
1666.62	46.3481
1668.15	44.9409
1669.68	43.6715
1671.21	42.8244
1672.73	40.6723
1674.26	39.0846
1675.79	37.526
1677.31	36.7224
1678.84	35.6462
1680.37	34.36
1681.89	33.0358
1683.42	30.811
1684.94	29.1256
1686.47	27.7013
1687.99	27.39
1689.52	26.2486
1691.04	24.7055
1692.57	22.9516
1694.09	22.0897
1695.61	20.6332
1697.14	19.4658
1698.66	19.186
1700.18	17.6595
1701.7	16.7242
1703.22	15.6604
1704.75	14.2877
1706.27	14.0378
1707.79	13.5662
1709.31	12.7817
1710.83	11.9496
1712.35	11.4048
1713.87	10.8667
1715.39	10.3387
1716.91	9.80906
1718.43	10.4358
1719.95	9.61744
1721.46	8.78069
1722.98	8.86519
1724.5	9.18629
1726.02	9.02082
1727.53	8.66581
1729.05	8.09909
1730.57	8.55235
1732.08	9.08461
1733.6	9.09701
1735.12	9.06849
1736.63	9.14064
1738.15	9.45762
1739.66	9.24948
1741.18	9.09314
1742.69	8.38828
1744.21	7.05048
1745.72	7.52472
1747.23	7.80849
1748.74	6.85534
1750.26	6.93335
1751.77	7.07607
1753.28	7.45856
1754.8	7.01286
1756.31	6.60462
1757.82	5.94609
1759.33	5.27465
1760.84	4.8575
1762.35	4.71147
1763.86	5.35096
1765.37	5.04856
1766.88	4.76001
1768.39	4.66357
1769.9	4.66748
1771.41	4.41582
1772.92	4.60827
1774.43	4.7419
1775.93	4.57152
1777.44	4.28367
1778.95	3.77105
1780.46	3.6085
1781.96	3.29168
1783.47	2.55564
1784.98	2.29006
1786.48	2.25661
1787.99	2.00076
1789.49	1.64043
1791	1.96595
1792.5	2.42815
1794.01	2.49633
1795.51	2.02627
1797.02	2.33654
1798.52	2.61968
1800.03	3.04946
1801.53	2.71344
1803.03	2.86409
1804.53	2.99691
1806.04	3.36897
1807.54	3.4419
1809.04	3.49896
1810.54	3.12932
1812.04	3.34598
1813.54	3.36309
1815.05	3.04589
1816.55	2.71056
1818.05	2.34771
1819.55	2.4256
1821.05	3.02882
1822.55	2.84647
1824.05	2.32968
1825.54	1.88548
1827.04	1.99587
1828.54	1.6235
1830.04	1.41182
1831.54	0.857104
1833.03	1.19104
1834.53	1.4016
1836.03	1.94049
1837.52	2.50852
1839.02	2.84549
1840.52	2.50546
1842.01	2.24965
1843.51	1.95183
1845	1.66487
1846.5	1.52446
1847.99	1.75876
1849.49	1.56207
1850.98	1.61915
1852.47	1.77891
1853.97	1.68022
1855.46	1.64779
1856.95	1.44764
1858.45	1.30962
1859.94	1.9799
1861.43	1.31287
1862.92	1.20219
1864.41	1.8792
1865.91	2.42515
1867.4	2.67675
1868.89	2.80077
1870.38	2.95761
1871.87	3.0925
1873.36	2.81398
1874.85	2.93861
1876.34	3.01553
1877.83	3.2248
1879.31	3.2333
1880.8	3.61081
1882.29	3.66064
1882.56	3.47064
1884.05	3.60823
1885.54	3.73179
1887.04	3.67058
1888.53	3.7765
1890.03	4.53724
1891.52	4.9456
1893.01	5.06381
1894.5	5.44393
1895.99	4.89529
1897.49	4.68401
1898.98	5.56351
1900.47	5.79227
1901.96	6.10631
1903.45	6.36127
1904.94	6.5378
1906.43	7.90313
1907.92	8.65647
1909.41	8.68661
1910.9	8.72033
1912.39	8.19949
1913.88	8.13386
1915.37	8.34486
1916.86	8.66088
1918.35	8.40225
1919.84	8.19662
1921.32	8.36736
1922.81	8.16085
1924.3	8.38868
1925.78	7.97884
1927.27	6.70648
1928.76	6.64459
1930.24	6.32529
1931.73	5.79178
1933.21	5.54255
1934.7	5.06207
1936.18	4.99424
1937.67	5.12101
1939.15	4.49789
1940.64	4.26852
1942.12	4.35172
1943.6	3.77059
1945.09	3.46258
1946.57	3.35384
1948.05	3.40398
1949.54	2.91376
1951.02	2.32309
1952.5	2.2497
1953.98	2.15486
1955.46	1.61928
1956.94	1.4475
1958.42	1.16372
1959.91	1.19207
1961.39	1.21772
1962.87	1.14833
1964.34	0.862996
1965.82	0.471468
1967.3	0.571844
1968.78	0.481406
1970.26	0.316342
1971.74	0.638717
1973.22	1.12798
1974.7	0.719077
1976.17	1.2242
1977.65	1.85896
1979.13	2.63598
1980.6	3.69516
1982.08	3.79039
1983.56	3.09786
1985.03	3.67653
1986.51	3.45497
1987.98	4.05612
1989.46	4.46981
1990.93	4.53334
1992.41	4.02896
1993.88	4.05371
1995.36	4.44887
1996.83	4.52611
1998.3	4.85211
1999.78	5.05819
2001.25	4.8157
2002.72	4.99465
2004.2	4.38843
2005.67	4.18321
2007.14	4.86035
2008.61	4.85388
2010.08	4.18147
2011.55	3.86446
2013.02	3.64813
2014.49	3.83384
2015.97	4.15927
2017.43	3.64502
2018.9	3.77311
2020.37	3.92885
2021.84	4.06494
2023.31	3.396
2024.78	3.3295
2026.25	3.20985
2027.72	2.95901
2029.19	3.1184
2030.65	3.29575
2032.12	2.87057
2033.59	3.17908
2035.05	2.80501
2036.52	2.29784
2037.98	2.55971
2039.45	3.63978
2040.92	3.64635
2042.38	3.08376
2043.85	3.54994
2045.31	4.31457
2046.78	4.71591
2048.24	5.20394
2049.71	6.6545
2051.17	7.5039
2052.63	8.09484
2054.1	8.21835
2055.56	8.70807
2057.02	9.53195
2058.48	10.4265
2059.95	10.4873
2061.41	10.9683
2062.87	11.0984
2064.33	11.2699
2065.79	11.3597
2067.25	12.1913
2068.71	12.6553
2070.17	13.2988
2071.63	13.9173
2073.09	14.0057
2074.55	13.9717
2076.01	14.0137
2077.47	14.5242
2078.93	15.1402
2080.39	15.741
2081.85	15.6607
2083.3	16.0168
2084.76	16.7896
2086.22	17.564
2087.68	18.3923
2089.13	19.1925
2090.59	20.2857
2092.05	20.6082
2093.5	20.9804
2094.96	21.2538
2096.41	21.2505
2097.87	21.6664
2099.32	22.4923
2100.78	23.5061
2102.23	24.0551
2103.69	24.6353
2105.14	25.0673
2106.59	25.7444
2108.05	25.5328
2109.5	26.1486
2110.95	27.1084
2112.41	27.795
2113.86	27.7572
2115.31	27.9982
2116.76	29.2704
2118.21	30.1229
2119.67	30.8242
2121.12	31.5593
2122.57	32.5365
2124.02	32.9742
2125.47	34.0051
2126.92	34.6762
2128.37	36.2034
2129.82	37.4018
2131.27	37.4221
2132.71	37.9825
2134.16	39.1202
2135.61	40.1748
2137.06	41.2969
2138.51	42.0962
2139.95	43.2599
2141.4	44.6157
2142.85	45.6208
2144.29	46.5295
2145.74	47.3133
2147.19	48.2361
2148.63	49.1816
2150.08	50.0071
2151.52	50.4528
2152.97	51.7319
2154.42	52.332
2155.86	53.0212
2157.3	53.7546
2158.75	54.7434
2160.19	55.8933
2161.64	56.9358
2163.08	57.5318
2164.52	57.1656
2165.96	57.5947
2167.41	58.142
2168.85	58.1939
2170.29	58.3363
2171.73	58.5995
2173.17	58.3585
2174.61	57.8474
2176.06	58.3934
2177.5	58.0783
2178.94	57.0634
2180.38	56.8582
2181.82	56.9143
2183.26	56.3434
2184.7	55.725
2186.14	55.6319
2187.57	55.6645
2189.01	55.0784
2190.45	54.7004
2191.89	53.8482
2193.33	52.5188
2194.76	51.7736
2196.2	51.5204
2197.64	50.6969
2199.08	49.5782
2200.51	48.5695
2201.95	47.2329
2203.38	45.4589
2204.82	44.8918
2206.25	44.0909
2207.69	43.0572
2209.12	42.3268
2210.56	40.8629
2211.99	40.1218
2213.43	39.0115
2214.86	37.6605
2216.3	36.3362
2217.73	34.646
2219.16	33.5998
2220.59	31.9662
2222.03	30.9492
2223.46	29.945
2224.89	29.467
2226.32	28.2379
2227.75	27.3101
2229.19	26.6725
2230.62	25.9042
2232.05	24.5967
2233.48	23.8835
2234.91	22.9272
2236.34	22.7971
2237.77	21.4851
2239.2	21.0549
2240.63	20.1407
2242.06	19.2942
2243.48	19.0323
2244.91	18.8185
2246.34	18.2985
2247.77	17.7533
2249.2	15.6887
2250.62	15.3418
2252.05	15.5636
2253.48	14.58
2254.9	14.1883
2256.33	13.9669
2257.76	14.0043
2259.18	13.3398
2260.61	12.4903
2262.03	12.3376
2263.46	11.0828
2264.88	11.4126
2266.31	11.5662
2267.73	11.5852
2269.16	11.1457
2270.58	10.6521
2272	10.5658
2273.43	10.4648
2274.85	10.5874
2276.27	10.6701
2277.69	10.5207
2279.12	10.4867
2280.54	10.4202
2281.96	10.4305
2283.38	10.8537
2284.8	10.7372
2286.22	10.2366
2287.64	9.35349
2289.07	9.48095
2290.49	9.38296
2291.91	8.74771
2293.32	8.58301
2294.74	8.4522
2296.16	9.46778
2297.58	9.81978
2299	10.3205
2300.42	10.7319
2301.84	11.0543
2303.26	11.3025
2304.67	11.9625
2306.09	12.0599
2307.51	12.1275
2308.92	11.2966
2310.34	11.8993
2311.76	12.0858
2313.17	12.0064
2314.59	12.0154
2316	11.5363
2317.42	11.3869
2318.83	11.9045
2320.25	11.5254
2321.66	12.6736
2323.08	12.1882
2324.49	11.7338
2325.91	11.6914
2327.32	11.6086
2328.73	11.4399
2330.15	11.2955
2331.56	11.2805
2332.97	11.0762
2334.38	10.6933
2335.79	10.8664
2337.21	9.86633
2338.62	8.97369
2340.03	8.74778
2341.44	7.69688
2342.85	7.84537
2344.26	6.87404
2345.67	6.29603
2347.08	6.06816
2348.49	5.98339
2349.9	5.97257
2351.31	5.65491
2352.72	5.28572
2354.13	5.26113
2355.53	4.57776
2356.94	3.99727
2358.35	4.03712
2359.76	4.44305
2361.17	4.01293
2362.57	3.53583
2363.98	3.91231
2365.39	4.60808
2366.79	5.02224
2368.2	4.69931
2369.6	4.65212
2371.01	4.49379
2372.42	4.85375
2373.82	5.06362
2375.22	5.23398
2376.63	4.98595
2378.03	4.81849
2379.44	4.60766
2380.84	4.37048
2382.25	4.72657
2383.65	4.71107
2385.05	5.073
2386.45	5.36537
2387.86	5.67306
2389.26	5.28381
2390.66	4.30089
2392.06	4.69649
2393.46	4.55645
2394.87	4.77122
2396.27	4.67135
2397.67	4.99696
2399.07	4.65999
2400.47	4.53902
2401.87	4.42638
2403.27	3.98925
2404.67	3.65889
2406.07	3.12686
2407.47	2.55189
2408.86	2.26583
2410.26	2.13162
2411.66	1.86208
2413.06	2.1743
2414.46	1.54293
2415.85	1.9278
2417.25	2.33576
2418.65	2.40319
2420.05	2.66679
2421.44	3.04997
2422.84	3.5351
2424.23	3.24058
2425.63	2.73279
2427.03	2.57652
2428.42	3.06212
2429.82	2.84154
2431.21	1.98818
2432.6	1.74095
2434	2.3156
2435.39	2.27506
2436.79	2.71468
2438.18	3.25113
2439.57	3.53498
2440.97	3.85534
2442.36	3.6885
2443.75	3.57088
2445.14	3.15469
2446.54	2.83029
2447.93	3.0826
2449.32	3.19342
2450.71	3.11217
2452.1	3.45313
2453.49	3.11398
2454.88	2.72357
2456.27	2.61383
2457.66	2.83387
2459.05	3.00963
2460.44	3.61507
2461.83	4.18487
2463.22	4.36123
2464.61	4.37323
2466	3.65351
2467.39	3.31918
2468.77	2.94226
2470.16	3.07217
2471.55	3.28813
2472.94	2.58728
2474.32	2.24012
2475.71	1.68249
2477.1	1.62517
2478.48	1.79323
2479.87	1.86965
2481.25	1.79377
2482.64	1.81689
2484.02	1.6934
2485.41	1.72492
2486.8	1.64417
2488.18	1.82064
2489.56	1.42811
2490.95	1.30854
2492.33	0.449714
2493.72	-0.272439
2495.1	0.392681
2496.48	0.183885
2497.86	0.443336
2499.25	0.270724
2500.63	-0.00427588
2502.01	0.424246
2503.39	0.938437
2504.77	1.33421
2506.16	1.72151
2507.54	2.02874
2508.92	1.85544
2510.3	1.47756
2511.68	1.61442
2513.06	2.5847
2514.44	2.75282
2515.82	2.59911
2517.2	3.13734
2518.58	3.47366
2519.95	3.34359
2521.33	4.0052
2522.71	3.99998
2524.09	4.34648
2525.47	5.45209
2526.84	6.08281
2528.22	6.4365
2529.6	6.54282
2530.98	6.4732
2532.35	6.77146
2533.73	6.79102
2535.11	6.40718
2536.48	6.94954
2537.86	7.23148
2539.23	7.34897
2540.61	7.14458
2541.98	6.55006
2543.36	6.68096
2544.73	6.98597
2546.1	7.1795
2547.48	7.11418
2548.85	6.82127
2550.23	6.37727
2551.6	6.12119
2552.97	5.57099
2554.34	5.57643
2555.72	4.71396
2557.09	4.09633
2558.46	3.87009
2559.83	3.51604
2561.2	2.72713
2562.58	2.96059
2563.95	2.87676
2565.32	2.57346
2566.69	2.41701
2568.06	2.51434
2569.43	2.10742
2570.8	2.30824
2572.17	2.33458
2573.54	2.0905
2574.91	1.84306
2576.27	2.09216
2577.64	1.74446
2579.01	1.80927
2580.38	2.17219
2581.75	2.11581
2583.11	1.6312
2584.48	1.47838
2585.85	1.82304
2587.21	1.89467
2588.58	1.55848
2589.95	1.93719
2591.31	1.6547
2592.68	2.52242
2594.04	2.84183
2595.41	2.87808
2596.78	2.76832
2598.14	2.95803
2599.51	3.02628
2600.87	3.12039
2602.23	3.06622
2603.6	3.15446
2604.96	3.40836
2606.32	3.42603
2607.69	3.30894
2609.05	3.23064
2610.41	3.05102
2611.77	3.53504
2613.14	3.35916
2614.5	3.26443
2615.86	3.04115
2617.22	3.08045
2618.58	2.76707
2619.94	2.78683
2621.3	3.13313
2622.67	3.55651
2624.03	3.79036
2625.39	3.88322
2626.75	4.51268
2628.1	4.22389
2629.46	4.58524
2630.82	4.81964
2632.18	4.57065
2633.54	4.3439
2634.9	3.97929
2636.26	3.88926
2637.61	3.54453
2638.97	3.38083
2640.33	3.03343
2641.69	2.80833
2643.04	2.79086
2644.4	2.6485
2645.76	2.80788
2647.11	3.18305
2648.47	2.72228
2649.82	2.89785
2651.18	3.06603
2652.53	3.31219
2653.89	3.80529
2655.24	4.10926
2656.6	4.45251
2657.95	4.56332
2659.31	4.4969
2660.66	4.76148
2662.01	4.59917
2663.37	4.70514
2664.72	5.18731
2666.07	5.28913
2667.43	5.34694
2668.78	5.22615
2670.13	5.42348
2671.48	4.97098
2672.83	4.62549
2674.18	4.63567
2675.53	4.39057
2676.89	4.18135
2678.24	3.76855
2679.59	3.82108
2680.94	3.78886
2682.29	4.70475
2683.64	5.26347
2684.99	5.46419
2686.34	5.73243
2687.68	6.22432
2689.03	6.80081
2690.38	7.04368
2691.73	7.1015
2693.08	6.63817
2694.43	6.60494
2695.77	6.29902
2697.12	6.29088
2698.47	5.933
2699.81	5.7962
2701.16	5.59013
2702.51	5.62735
2703.85	5.77011
2705.2	6.11637
2706.54	6.3791
2707.89	6.16983
2709.23	6.57425
2710.58	6.67666
2711.92	6.55443
2713.27	7.24168
2714.61	7.19121
2715.96	7.41351
2717.3	8.00638
2718.64	8.34766
2719.99	8.29989
2721.33	8.56254
2722.67	8.36685
2724.01	8.23667
2725.36	8.38064
2726.7	8.22637
2728.04	8.40241
2729.38	8.5526
2730.72	8.4363
2732.06	8.4942
2733.41	7.84964
2734.75	7.42016
2736.09	7.08127
2737.43	6.82339
2738.77	6.26283
2740.11	6.16674
2741.44	5.96387
2742.78	5.67955
2744.12	5.66055
2745.46	5.99884
2746.8	5.96973
2748.14	6.63136
2749.48	6.22276
2750.81	5.67525
2752.15	5.09649
2753.49	4.97246
2754.83	4.54683
2756.16	4.20845
2757.5	3.53694
2758.84	3.14091
2760.17	2.62387
2761.51	2.36856
2762.84	2.78298
2764.18	2.78943
2765.51	2.58181
2766.85	2.36416
2768.18	2.33995
2769.52	2.61896
2770.85	2.91309
2772.19	2.81699
2773.52	2.27063
2774.85	1.80872
2776.19	1.83642
2777.52	1.63454
2778.85	1.81493
2780.18	1.93161
2781.52	1.8743
2782.85	2.20138
2784.18	2.10053
2785.51	1.83239
2786.84	1.47636
2788.17	2.02709
2789.51	1.99115
2790.84	2.45807
2792.17	2.7106
2793.5	2.70332
2794.83	3.34712
2796.16	3.26653
2797.48	3.06701
2798.81	3.14642
2800.14	3.29795
2801.47	3.72915
2802.8	3.78624
2804.13	3.98177
2805.46	4.09613
2806.79	3.8402
2808.11	3.52779
2809.44	3.10078
2810.77	2.84601
2812.09	2.69721
2813.42	2.40976
2814.75	3.20342
2816.07	2.54409
2817.4	2.72935
2818.73	3.18679
2820.05	3.80004
2821.38	4.41817
2822.7	5.57674
2824.03	6.32521
2825.35	7.49326
2826.67	8.81175
2828	10.4605
2829.32	11.9161
2830.65	13.2326
2831.97	14.4048
2833.29	16.1809
2834.62	17.7601
2835.94	19.6042
2837.26	21.057
2838.58	22.4053
2839.9	24.2294
2841.23	26.3514
2842.55	28.0784
2843.87	30.222
2845.19	32.3674
2846.51	33.9429
2847.83	36.1329
2849.15	38.4662
2850.47	40.7951
2851.79	43.2396
2853.11	46.4059
2854.43	49.0409
2855.75	51.0998
2857.07	53.471
2858.39	55.6505
2859.71	57.6044
2861.02	59.3629
2862.34	61.2501
2863.66	62.939
2864.98	64.8589
2866.3	66.365
2867.61	67.5243
2868.93	68.6733
2870.25	69.7674
2871.56	70.2997
2872.88	71.0346
2874.19	71.9972
2875.51	72.6615
2876.83	73.9777
2878.14	75.5098
2879.46	76.4711
2880.77	78.0409
2882.09	78.6754
2883.4	79.6009
2884.71	80.8238
2886.03	81.2703
2887.34	82.0084
2888.65	82.9785
2889.97	83.7127
2891.28	85.0811
2892.59	85.6281
2893.91	86.4779
2895.22	87.4275
2896.53	88.7825
2897.84	89.799
2899.15	91.1892
2900.46	92.3431
2901.78	93.93
2903.09	94.7723
2904.4	96.1747
2905.71	98.0175
2907.02	99.7582
2908.33	101.671
2909.64	104.238
2910.95	106.381
2912.26	108.668
2913.57	111.344
2914.87	114.17
2916.18	116.542
2917.49	118.677
2918.8	120.637
2920.11	121.551
2921.42	123.524
2922.72	124.811
2924.03	125.958
2925.34	126.737
2926.64	127.992
2927.95	129.117
2929.26	129.436
2930.56	130.15
2931.87	130.071
2933.17	130.528
2934.48	130.344
2935.78	129.774
2937.09	129.501
2938.39	129.178
2939.7	127.8
2941	126.883
2942.31	125.806
2943.61	124.907
2944.91	123.126
2946.22	121.539
2947.52	119.009
2948.82	116.266
2950.13	114.264
2951.43	111.868
2952.73	109.598
2954.03	107.082
2955.33	104.727
2956.64	101.932
2957.94	99.1106
2959.24	96.6731
2960.54	93.9627
2961.84	91.0881
2963.14	88.3282
2964.44	85.8535
2965.74	83.7567
2967.04	81.5243
2968.34	79.2355
2969.64	77.2492
2970.94	75.2781
2972.24	73.6722
2973.53	71.6886
2974.83	69.504
2976.13	67.2059
2977.43	64.8246
2978.73	62.5786
2980.02	60.113
2981.32	57.5378
2982.62	55.5215
2983.91	53.112
2985.21	50.3018
2986.51	48.143
2987.8	45.4463
2989.1	43.4039
2990.4	41.411
2991.69	39.2815
2992.99	37.2469
2994.28	34.9504
2995.57	32.9934
2996.87	30.7925
2998.16	29.2249
2999.46	27.5097
3000.75	26.1479
3002.05	24.4495
3003.34	22.5381
3004.63	20.2361
3005.92	19.0068
3007.22	17.2887
3008.51	16.4517
3009.8	14.9337
3011.09	13.5998
3012.39	12.2546
3013.68	11.2093
3014.97	10.2978
3016.26	9.12597
3017.55	7.76799
3018.84	6.73242
3020.13	6.07388
3021.42	5.09436
3022.71	3.99143
3024	3.07213
3025.29	2.8473
3026.58	2.6257
3027.87	2.44669
3029.16	2.63744
3030.45	2.48202
3031.73	2.33367
3033.02	1.64334
3034.31	1.48305
3035.6	1.63793
3036.89	1.95706
3038.17	1.31538
3039.46	1.13093
3040.75	1.67147
3042.03	1.65294
3043.32	2.00312
3044.61	1.9997
3045.89	2.22397
3047.18	2.91025
3048.46	2.67746
3049.75	2.45666
3051.03	2.68618
3052.32	3.01974
3053.6	3.03722
3054.89	2.83383
3056.17	2.59686
3057.45	2.93366
3058.74	3.21222
3060.02	3.18516
3061.31	3.48274
3062.59	3.7019
3063.87	3.84934
3065.15	3.56908
3066.44	3.23183
3067.72	3.60271
3069	3.07781
3070.28	3.34379
3071.56	3.37505
3072.84	3.46478
3074.13	2.96522
3075.41	2.64988
3076.69	2.38866
3077.97	2.12082
3079.25	1.88607
3080.53	1.8611
3081.81	1.4985
3083.09	1.26267
3084.37	1.02396
3085.64	0.689646
3086.92	0.72547
3088.2	0.689422
3089.48	0.454923
3090.76	0.184637
3092.04	0.0140164
3093.31	0.363439
3094.59	0.050242
3095.87	0.318121
3097.14	-0.010928
3098.42	0.126135
3099.7	-0.00883709
3100.97	0.507662
3102.25	0.289426
3103.53	0.465439
3104.8	0.799327
3106.08	0.336135
3107.35	0.388632
3108.63	0.506338
3109.9	0.56261
3111.18	1.09462
3112.45	0.91191
3113.73	1.08483
3115	1.46507
3116.27	1.75338
3117.55	1.76427
3118.82	1.8892
3120.09	2.38617
3121.37	2.70399
3122.64	2.85318
3123.91	2.92138
3125.18	3.43917
3126.45	3.45161
3127.73	3.83966
3129	3.96266
3130.27	4.15677
3131.54	4.55874
3132.81	3.9408
3134.08	4.7923
3135.35	5.04345
3136.62	5.27527
3137.89	5.53819
3139.16	6.04711
3140.43	6.28353
3141.7	6.48814
3142.97	6.62699
3144.24	6.58817
3145.51	6.72011
3146.78	6.85397
3148.04	6.82361
3149.31	6.07019
