#Acq. time (s)=	45
#Accumulations=	2
#Range (cm-¹)=	200...3150
#Windows=	2
#Auto scanning=	Off
#Autofocus=	Off
#Macrospot=	Off
#AutoExposure=	Off
#Spike filter=	Multiple accum.
#Delay time (s)=	0
#Binning=	1
#Readout mode=	Signal
#DeNoise=	Off
#ICS correction=	On
#Dark correction=	Off
#Inst. Process=	Off
#Detector Gain=	Best Dynamic Range
#Detector ADC=	20 kHz       
#Detector temperature (°C)=	-70.08
#Instrument=	LabRAM HR Evol
#Detector=	Synapse
#Objective=	x100
#Grating=	600 gr/mm
#ND Filter=	100%
#Laser (nm)=	532 
#Hole=	100.021
#Range=	Auto
#Laser Pol.=	No
#Raman. Pol.=	No
#Laser Pol. (°)=	-0.0007625
#Raman Pol. (°)=	89.9995
#Collection=	Microscope
#StageXY=	Marzhauser
#StageZ=	Marzhauser
#X (µm)=	-2543
#Y (µm)=	-28.5
#Z (µm)=	-10.35
#Full time(mm:ss)=	3:18
#Project=	
#Sample=	
#Site=	
#Title=	Mb_40_24_02_2x_45s_532 nm_x100_100%_600 gr_mm
#Remark=	
#Date=	14.07.2022 10:49
#Acquired=	14.07.2022 10:49:18
#Base:Fit=	10.08.2022 10:47:00
#Base:Sub=	10.08.2022 10:47:12
#Filter:Polynom=	16.08.2022 10:11:48
#AxisType[0]=Intens
#AxisUnit[0]=Cnt
#AxisType[1]=Spectr
#AxisUnit[1]=1/cm
200.554	48.8682
202.369	40.3303
204.183	34.3443
205.999	29.4971
207.813	25.4202
209.626	21.7622
211.439	18.2293
213.253	15.9149
215.065	14.0254
216.877	10.9715
218.688	9.19358
220.5	8.00376
222.312	8.10245
224.123	6.80382
225.933	6.92421
227.742	5.94767
229.552	6.51912
231.361	5.37628
233.171	4.39215
234.98	3.41619
236.787	3.53236
238.595	3.09678
240.402	3.67179
242.209	3.9419
244.015	3.82187
245.822	4.02723
247.627	3.83535
249.435	3.86863
251.24	4.77149
253.045	5.07745
254.849	5.82959
256.653	5.60854
258.457	6.70408
260.26	6.95613
262.063	5.74969
263.866	7.31118
265.668	7.37359
267.47	9.53928
269.271	8.24888
271.073	7.94412
272.873	7.33069
274.674	7.25314
276.474	7.00872
278.274	6.02656
280.073	5.55296
281.872	3.8081
283.671	3.0023
285.47	2.15361
287.268	1.70575
289.065	2.33112
290.863	2.83505
292.66	4.23934
294.456	4.72518
296.253	4.61111
298.049	4.49827
299.844	5.52662
301.637	7.22911
303.432	8.43144
305.227	9.13739
307.021	9.75004
308.815	11.327
310.609	13.8788
312.402	15.8467
314.195	15.904
315.987	17.473
317.777	18.6043
319.569	20.093
321.36	20.3953
323.151	21.6081
324.942	23.3574
326.733	26.1802
328.521	26.9552
330.31	28.4889
332.1	28.2619
333.889	28.3733
335.677	29.1654
337.464	29.5009
339.252	30.6291
341.039	31.7691
342.826	32.0307
344.611	32.5639
346.398	34.2477
348.184	34.1444
349.97	35.4637
351.754	35.8842
353.539	38.4235
355.324	37.911
357.106	36.9786
358.89	34.3174
360.674	33.7206
362.455	32.0822
364.239	29.9376
366.021	29.0544
367.804	27.767
369.584	27.3202
371.366	26.2476
373.145	25.8085
374.926	24.5577
376.707	25.4888
378.485	25.2647
380.265	24.3538
382.045	23.6762
383.822	23.3073
385.601	22.3298
387.378	21.9903
389.156	21.8415
390.934	22.087
392.71	20.6885
394.487	19.491
396.262	18.4844
398.038	18.4461
399.813	18.6955
401.588	17.2137
403.362	15.5081
405.137	15.1896
406.912	15.1036
408.685	14.5242
410.459	13.9073
412.23	14.2072
414.004	14.3852
415.775	13.7616
417.548	13.1411
419.318	12.5024
421.089	12.7569
422.86	14.4196
424.63	15.7558
426.401	16.2444
428.17	17.1235
429.94	17.5682
431.708	17.1572
433.478	18.0858
435.245	19.037
437.012	19.303
438.781	20.663
440.547	19.7124
442.315	19.7829
444.081	17.1914
445.846	16.3543
447.613	16.5658
449.378	17.1956
451.142	15.7754
452.908	16.0854
454.672	17.5356
456.435	17.277
458.2	17.1746
459.963	17.7971
461.725	17.9765
463.489	19.2092
465.251	19.8732
467.012	20.3099
468.775	20.3581
470.536	20.9944
472.296	20.6854
474.056	20.4331
475.817	20.2643
477.576	20.9384
479.335	21.6242
481.094	21.3002
482.854	21.5697
484.612	23.3729
486.37	23.6286
488.127	24.5093
489.886	24.7654
491.642	24.7926
493.398	25.676
495.154	27.2362
496.91	28.5964
498.667	29.1165
500.422	30.5164
502.176	31.969
503.93	32.144
505.684	33.3672
507.438	33.1532
509.191	34.2664
510.946	35.1491
512.698	35.444
514.45	35.0389
516.202	36.2263
517.954	35.8953
519.705	35.6052
521.456	36.4417
523.206	35.9177
524.956	35.2182
526.706	35.6021
528.456	35.5767
530.207	36.5596
531.956	35.9213
533.704	35.9406
535.452	34.6822
537.2	33.9369
538.947	32.4736
540.694	32.5228
542.441	32.9424
544.188	31.7128
545.934	31.0692
547.68	31.2011
549.425	30.6179
551.17	29.7296
552.915	28.4402
554.659	28.4226
556.403	26.7925
558.145	24.9974
559.889	24.3775
561.632	23.6011
563.375	23.3559
565.117	22.4215
566.859	21.0084
568.601	20.6702
570.342	18.3567
572.083	17.9012
573.824	16.6802
575.565	16.6705
577.303	16.2308
579.043	16.7782
580.782	17.5312
582.521	18.0008
584.26	17.1952
585.998	16.8522
587.734	16.8438
589.472	15.5534
591.21	13.4171
592.947	13.645
594.684	13.3572
596.418	12.5117
598.154	12.1156
599.89	11.3896
601.626	10.4192
603.361	10.7202
605.094	9.32697
606.828	9.88124
608.562	9.96672
610.296	10.9342
612.027	13.1021
613.761	14.5262
615.493	13.5229
617.224	12.6174
618.956	11.5832
620.688	11.9373
622.419	12.627
624.149	13.7014
625.879	13.8889
627.61	13.8131
629.338	13.9976
631.068	14.0686
632.797	14.2464
634.525	15.9099
636.254	15.8021
637.98	15.4662
639.708	14.6498
641.436	13.6971
643.162	12.4964
644.889	11.9615
646.614	12.0915
648.34	11.2357
650.067	11.2342
651.791	11.6626
653.516	11.9891
655.239	13.2659
656.964	12.9322
658.687	14.4238
660.411	15.2271
662.133	14.9345
663.857	15.5702
665.58	15.7049
667.301	14.4481
669.024	14.7392
670.744	13.8601
672.464	13.8996
674.186	12.8004
675.905	11.9181
677.626	12.1553
679.345	12.4358
681.065	12.0613
682.783	11.704
684.503	12.575
686.22	13.2867
687.939	13.8298
689.656	14.4922
691.372	15.1571
693.09	16.9163
694.806	18.3802
696.523	20.7349
698.239	20.97
699.953	21.0799
701.67	20.5199
703.384	21.5411
705.098	22.8015
706.813	23.1522
708.526	24.0698
710.239	24.0487
711.954	24.0652
713.666	23.7742
715.378	24.6689
717.091	25.4406
718.802	25.156
720.513	25.2262
722.226	23.9352
723.936	23.1078
725.646	21.6131
727.355	22.6762
729.067	23.5144
730.776	23.2606
732.484	23.244
734.192	23.746
735.902	23.5839
737.61	24.609
739.317	23.7163
741.024	24.8196
742.731	25.5153
744.439	26.1065
746.145	26.3771
747.851	26.9159
749.556	28.3144
751.262	29.4546
752.966	30.7272
754.673	32.126
756.377	32.3242
758.081	33.3575
759.784	34.7115
761.487	35.7777
763.19	35.9596
764.892	36.5934
766.594	38.0928
768.296	39.7739
770	41.1606
771.701	42.1196
773.402	43.0109
775.102	44.1661
776.803	45.042
778.503	46.4378
780.202	47.2475
781.901	48.7207
783.6	49.4441
785.299	51.3408
786.997	52.9712
788.695	55.0727
790.393	56.3441
792.09	57.4382
793.787	59.3515
795.484	60.1143
797.18	60.7054
798.877	61.5699
800.572	62.9218
802.268	64.3063
803.963	63.9659
805.658	64.877
807.35	65.7863
809.044	66.309
810.738	66.0962
812.432	67.5522
814.125	68.1267
815.818	68.973
817.51	69.0422
819.202	69.4776
820.894	69.0867
822.584	69.7699
824.275	71.2364
825.966	72.3103
827.657	72.4616
829.347	71.7857
831.037	73.9753
832.725	74.6697
834.414	74.7549
836.103	74.9133
837.792	75.3941
839.481	74.6788
841.167	75.2125
842.854	75.4849
844.542	75.2855
846.229	74.5679
847.914	73.7079
849.6	74.6889
851.287	75.5586
852.973	73.7356
854.656	71.4022
856.341	70.6886
858.026	68.9875
859.711	68.6789
861.393	68.0199
863.077	68.4508
864.761	67.5251
866.442	68.1755
868.125	66.7645
869.808	65.3016
871.489	65.2106
873.171	64.1946
874.85	62.8513
876.532	62.0783
878.213	61.3255
879.892	60.7143
881.572	60.0528
883.251	59.6018
884.931	58.612
886.61	58.0729
888.287	55.5888
889.966	55.2694
891.643	54.2334
893.321	53.0316
894.997	52.7246
896.675	52.9048
898.352	52.0088
900.028	50.5866
901.704	48.1917
903.379	46.6076
905.055	46.3038
906.729	45.9139
908.404	46.9783
910.077	45.8426
911.75	46.2148
913.425	46.1419
915.097	46.6887
916.771	46.376
918.443	46.5285
920.116	46.4287
921.787	46.79
923.46	46.3166
925.13	46.3085
926.8	45.6939
928.472	44.9749
930.141	43.9359
931.813	42.5755
933.481	43.2401
935.15	41.3795
936.82	39.8298
938.488	39.5654
940.156	39.2378
941.825	36.182
943.492	34.8177
945.158	32.8317
946.827	31.5094
948.493	30.1925
950.158	29.7539
951.824	29.437
953.491	29.8648
955.156	31.134
956.82	29.709
958.486	28.4059
960.15	28.6795
961.814	28.3405
963.477	28.7214
965.142	28.6019
966.804	29.7829
968.467	30.4859
970.129	32.284
971.79	33.3118
973.454	35.9009
975.115	37.3646
976.776	39.5606
978.436	40.4932
980.096	40.7548
981.756	41.4498
983.417	42.1049
985.077	42.0487
986.736	41.41
988.394	41.8945
990.052	41.5688
991.71	41.976
993.368	41.7599
995.025	41.6948
996.682	41.8508
998.341	42.3957
999.998	43.203
1001.65	41.0349
1003.31	40.628
1004.97	40.6235
1006.62	41.4818
1008.28	41.8277
1009.93	42.2811
1011.58	41.765
1013.24	42.1513
1014.89	44.0624
1016.54	45.5271
1018.2	46.4594
1019.85	48.3808
1021.5	49.2427
1023.16	50.0854
1024.81	50.5739
1026.46	52.8275
1028.11	55.3431
1029.76	57.5946
1031.41	58.3667
1033.06	59.2499
1034.71	59.9374
1036.36	59.908
1038.01	59.4147
1039.66	59.0891
1041.31	59.679
1042.95	62.2222
1044.6	64.0268
1046.25	64.8221
1047.9	65.1576
1049.54	66.9723
1051.19	66.789
1052.84	67.462
1054.48	67.715
1056.13	67.7313
1057.77	67.42
1059.42	66.0192
1061.06	63.6375
1062.71	61.8143
1064.35	59.9128
1066	56.4773
1067.64	52.8453
1069.28	50.5733
1070.93	49.2932
1072.57	47.8295
1074.21	46.3718
1075.85	44.0889
1077.49	41.6807
1079.13	39.9653
1080.78	37.7356
1082.42	35.1139
1084.06	33.3177
1085.7	32.9251
1087.34	32.3374
1088.97	31.9249
1090.61	31.2093
1092.25	30.7587
1093.89	30.5095
1095.53	32.7157
1097.17	32.9211
1098.8	33.4962
1100.44	34.9627
1102.08	33.4154
1103.71	33.1348
1105.35	32.5358
1106.99	32.4886
1108.62	32.7473
1110.26	31.7827
1111.89	29.7596
1113.52	28.0876
1115.16	28.1775
1116.79	27.2881
1118.43	26.3146
1120.06	25.5497
1121.69	24.4559
1123.32	24.1054
1124.96	24.3311
1126.59	23.2987
1128.22	21.3415
1129.85	21.3218
1131.48	21.5985
1133.11	20.3189
1134.75	19.9062
1136.37	19.6167
1138	18.5126
1139.63	17.507
1141.26	15.7788
1142.89	14.8564
1144.52	13.1399
1146.15	12.2804
1147.78	11.1702
1149.4	10.5994
1151.03	10.4334
1152.66	9.79391
1154.28	8.70298
1155.91	6.93952
1157.54	5.44585
1159.16	4.72047
1160.79	3.23258
1162.41	3.09872
1164.04	3.36325
1165.66	3.7544
1167.29	3.02821
1168.91	2.0284
1170.53	1.99541
1172.16	2.2479
1173.78	3.14157
1175.4	3.89
1177.02	4.05452
1178.65	4.12943
1180.27	5.03719
1181.89	5.43317
1183.51	4.75375
1185.13	5.36581
1186.75	6.1544
1188.37	6.9098
1189.99	6.30477
1191.61	6.90608
1193.23	7.81798
1194.85	9.47761
1196.47	10.5146
1198.08	10.5895
1199.7	11.938
1201.32	12.5317
1202.94	13.3573
1204.55	15.9272
1206.17	16.5302
1207.79	18.7295
1209.4	19.9896
1211.02	21.2853
1212.63	22.5048
1214.25	24.2105
1215.86	24.9511
1217.48	25.6818
1219.09	26.6461
1220.71	28.667
1222.32	29.8333
1223.93	30.7144
1225.54	32.0365
1227.16	34.0925
1228.77	36.1114
1230.38	37.8754
1231.99	40.5169
1233.6	43.0411
1235.22	45.1702
1236.83	46.7789
1238.44	50.1662
1240.05	52.1828
1241.66	54.9133
1243.26	58.1231
1244.87	60.3281
1246.48	62.5251
1248.09	64.7284
1249.7	66.6498
1251.31	69.8922
1252.92	72.1282
1254.52	74.0645
1256.13	75.216
1257.74	76.5223
1259.34	78.9761
1260.95	79.9914
1262.55	81.4236
1264.16	82.991
1265.76	85.5528
1267.37	88.8037
1268.97	89.4009
1270.58	90.8761
1272.18	93.2375
1273.78	93.6877
1275.39	94.5764
1276.99	95.061
1278.59	96.3578
1280.2	96.983
1281.8	96.75
1283.4	98.1409
1285	99.5888
1286.6	99.4775
1288.2	100.152
1289.8	100.467
1291.4	99.9569
1293	100.229
1294.6	99.0197
1296.2	98.9995
1297.8	98.8247
1299.4	99.6867
1301	99.1557
1302.6	98.6856
1304.19	98.0455
1305.79	97.5856
1307.39	98.1898
1308.99	98.9975
1310.58	98.934
1312.18	99.8175
1313.77	98.9328
1315.37	99.3481
1316.96	98.6682
1318.56	98.8101
1320.15	98.2318
1321.75	98.9718
1323.34	98.6345
1324.94	99.1359
1326.53	98.0278
1328.12	97.579
1329.72	97.2833
1331.31	97.0468
1332.9	96.7397
1334.49	95.7406
1336.08	94.8184
1337.67	93.3305
1339.27	93.2536
1340.86	92.6513
1342.45	92.658
1344.04	93.2347
1345.63	92.2035
1347.22	90.8265
1348.8	88.4453
1350.39	87.9098
1351.98	86.8796
1353.57	85.279
1355.16	84.6357
1356.75	84.1571
1358.33	83.2536
1359.92	81.1147
1361.51	80.2613
1363.09	79.7244
1364.68	79.2629
1366.27	78.1871
1367.85	78.4011
1369.44	79.4839
1371.02	79.0169
1372.61	78.9368
1374.19	77.8166
1375.77	78.6769
1377.36	78.1267
1378.94	79.2226
1380.52	79.0008
1382.11	80.3612
1383.69	80.1376
1385.27	81.6682
1386.85	84.0157
1388.43	85.0432
1390.02	85.6904
1391.6	86.1061
1393.18	86.163
1394.76	88.1176
1396.34	88.7308
1397.92	90.8281
1399.5	91.8944
1401.08	93.4875
1402.65	95.6003
1404.23	96.4367
1405.81	96.8187
1407.39	98.9872
1408.97	100.516
1410.54	103.033
1412.12	105.396
1413.7	107.746
1415.27	110.684
1416.85	113.989
1418.43	118.307
1420	121.53
1421.58	124.283
1423.15	127.866
1424.73	130.4
1426.3	133.833
1427.87	137.175
1429.45	140.348
1431.02	143.047
1432.6	146.259
1434.17	149.414
1435.74	151.02
1437.31	152.41
1438.89	154.826
1440.46	157.701
1442.03	158.872
1443.6	160.036
1445.17	159.356
1446.74	159.768
1448.31	160.855
1449.88	160.284
1451.45	158.755
1453.02	157.442
1454.59	157.014
1456.16	155.101
1457.72	152.487
1459.29	148.842
1460.86	145.83
1462.43	142.315
1463.99	139.388
1465.56	134.978
1467.13	128.425
1468.69	122.996
1470.26	117.159
1471.83	112.492
1473.39	108.044
1474.95	102.748
1476.52	97.7985
1478.08	93.2301
1479.65	88.059
1481.21	83.6599
1482.78	77.9238
1484.34	73.9044
1485.9	71.504
1487.47	68.2371
1489.03	64.7493
1490.59	61.158
1492.15	58.2309
1493.71	54.9446
1495.27	53.0185
1496.84	50.3065
1498.39	47.4826
1499.96	45.8474
1501.52	44.5918
1503.07	43.2839
1504.64	41.2017
1506.19	39.0328
1507.75	37.9683
1509.31	36.0121
1510.87	34.8475
1512.43	33.4772
1513.98	32.2971
1515.54	32.5677
1517.1	31.9401
1518.65	30.6229
1520.21	29.0088
1521.77	29.2344
1523.32	28.9188
1524.88	30.531
1526.44	30.9391
1527.99	30.8675
1529.54	30.6348
1531.1	30.7994
1532.65	30.9802
1534.21	31.2813
1535.76	31.5408
1537.31	32.5417
1538.87	33.2685
1540.42	33.5636
1541.97	33.8458
1543.52	34.3107
1545.07	35.3432
1546.63	37.4421
1548.18	39.2715
1549.73	41.6141
1551.28	43.7582
1552.83	45.25
1554.38	47.0055
1555.93	47.6067
1557.48	47.7062
1559.03	49.5987
1560.57	50.5484
1562.12	52.5851
1563.67	53.8662
1565.22	55.6971
1566.77	57.6389
1568.31	60.0086
1569.86	62.4874
1571.41	64.6063
1572.95	67.0399
1574.5	68.8702
1576.05	71.4868
1577.59	73.8862
1579.14	75.9908
1580.68	77.411
1582.23	79.0881
1583.77	82.0806
1585.31	84.7126
1586.86	85.7563
1588.4	88.0004
1589.95	89.8393
1591.49	90.4175
1593.03	91.7681
1594.57	92.5493
1596.11	92.7998
1597.66	93.514
1599.2	94.5959
1600.74	94.1177
1602.28	94.7548
1603.82	94.7921
1605.36	95.5281
1606.9	94.6769
1608.44	94.6104
1609.98	95.5264
1611.52	95.4511
1613.06	94.8532
1614.6	96.1461
1616.13	94.9329
1617.67	96.0824
1619.21	97.8139
1620.75	98.8001
1622.28	98.3874
1623.82	98.3211
1625.36	98.5181
1626.89	98.344
1628.43	98.1955
1629.96	97.9975
1631.5	97.6661
1633.04	97.218
1634.57	98.5478
1636.11	99.8794
1637.64	102.044
1639.17	103.801
1640.71	105.389
1642.24	107.861
1643.77	108.273
1645.31	108.901
1646.84	109.77
1648.37	110.157
1649.9	110.183
1651.43	110.107
1652.96	110.007
1654.5	109.737
1656.03	109.555
1657.56	109.246
1659.09	109.731
1660.62	108.377
1662.15	106.411
1663.67	104.644
1665.2	102.43
1666.73	100.281
1668.26	99.0308
1669.79	96.4867
1671.32	93.6482
1672.84	90.4039
1674.37	87.8223
1675.9	84.5067
1677.43	81.5636
1678.95	79.6111
1680.48	75.6771
1682	72.1497
1683.53	69.6313
1685.05	67.125
1686.58	64.7847
1688.1	60.8128
1689.63	58.5445
1691.15	56.5815
1692.68	52.5286
1694.2	50.9884
1695.72	47.8346
1697.25	44.2792
1698.77	41.5536
1700.29	40.254
1701.81	37.9227
1703.33	35.9323
1704.86	34.8458
1706.38	33.341
1707.9	32.5042
1709.42	32.1076
1710.94	31.5515
1712.46	30.9214
1713.98	30.1474
1715.5	28.9941
1717.02	28.0338
1718.54	26.2692
1720.06	25.0533
1721.57	24.6288
1723.09	24.2141
1724.61	23.8852
1726.13	22.7848
1727.64	22.8804
1729.16	22.35
1730.68	21.6901
1732.19	21.4329
1733.71	20.6921
1735.23	19.919
1736.74	18.7637
1738.26	18.6751
1739.77	18.3118
1741.29	17.6206
1742.8	17.032
1744.31	16.0691
1745.83	14.6299
1747.34	14.7737
1748.85	14.1553
1750.37	13.2556
1751.88	12.9235
1753.39	13.3477
1754.91	12.6981
1756.42	11.549
1757.93	11.2437
1759.44	11.0015
1760.95	9.77537
1762.46	8.79313
1763.97	7.72615
1765.48	7.68091
1766.99	7.04323
1768.5	6.12196
1770.01	5.85183
1771.52	5.52174
1773.03	5.09222
1774.54	4.68196
1776.04	4.1211
1777.55	3.62216
1779.06	3.41655
1780.57	3.65498
1782.07	3.37467
1783.58	3.45555
1785.09	3.13566
1786.59	2.15464
1788.1	1.52169
1789.6	1.46416
1791.11	1.44488
1792.61	1.2012
1794.12	1.69199
1795.62	2.43707
1797.13	2.29753
1798.63	1.58869
1800.13	1.79098
1801.64	1.70088
1803.14	1.7284
1804.64	0.977898
1806.15	0.981991
1807.65	0.88681
1809.15	0.875519
1810.65	1.12391
1812.15	0.661075
1813.65	1.41198
1815.16	1.85332
1816.66	2.176
1818.15	2.46291
1819.66	2.73138
1821.16	2.65155
1822.65	2.25534
1824.15	2.304
1825.65	2.26926
1827.15	3.07832
1828.65	3.32114
1830.15	3.34931
1831.64	3.77179
1833.14	3.26481
1834.64	3.48992
1836.14	3.44105
1837.63	4.1245
1839.13	4.3844
1840.62	4.1792
1842.12	3.45859
1843.62	2.86796
1845.11	2.83472
1846.61	2.84476
1848.1	2.87851
1849.6	2.53566
1851.09	2.3772
1852.58	1.87021
1854.08	1.80816
1855.57	1.66666
1857.06	1.67805
1858.55	1.02984
1860.05	0.429172
1861.54	-0.239358
1863.03	-0.629063
1864.52	0.175822
1866.01	0.279195
1867.5	0.469083
1869	0.996914
1870.49	1.54909
1871.98	1.29135
1873.47	2.10121
1874.96	2.53157
1876.44	2.682
1877.93	2.72566
1879.42	3.18494
1880.91	3.5874
1882.4	3.97084
1882.47	3.97506
1883.96	5.15755
1885.46	6.3281
1886.95	7.32172
1888.44	7.48042
1889.94	7.57174
1891.43	8.43572
1892.93	8.74853
1894.42	9.71428
1895.91	11.1513
1897.4	12.4148
1898.89	13.3288
1900.39	13.6201
1901.88	14.0163
1903.37	14.5845
1904.86	14.418
1906.35	14.9472
1907.84	16.611
1909.33	16.3906
1910.82	17.2317
1912.31	16.7092
1913.8	17.1755
1915.29	16.5776
1916.77	16.4992
1918.26	17.2959
1919.75	17.3647
1921.24	17.6227
1922.73	17.3025
1924.21	17.2967
1925.7	17.233
1927.19	17.1943
1928.67	16.6302
1930.16	16.5245
1931.64	15.9
1933.13	15.416
1934.61	15.0164
1936.1	15.4275
1937.58	15.4127
1939.07	15.54
1940.55	15.0116
1942.04	15.1882
1943.52	15.1481
1945	14.0714
1946.49	13.9247
1947.97	14.4248
1949.45	14.6911
1950.93	14.3396
1952.42	14.5414
1953.9	14.3018
1955.38	13.6621
1956.86	13.5415
1958.34	14.2973
1959.82	13.8362
1961.3	12.8879
1962.78	13.1496
1964.26	13.33
1965.74	13.0734
1967.22	12.4849
1968.7	12.5244
1970.18	12.1626
1971.65	11.9646
1973.13	11.7249
1974.61	11.4767
1976.09	11.4382
1977.57	11.0705
1979.04	10.7119
1980.52	11.2768
1982	10.6006
1983.47	9.86567
1984.95	9.98435
1986.42	9.51241
1987.9	9.48755
1989.37	9.27814
1990.85	9.88002
1992.32	9.97426
1993.8	8.83347
1995.27	9.29594
1996.75	9.29081
1998.22	9.39169
1999.69	8.90392
2001.17	9.09404
2002.64	9.92401
2004.11	9.94329
2005.58	10.2587
2007.05	10.4998
2008.53	10.7669
2010	11.7413
2011.47	11.6714
2012.94	11.35
2014.41	10.5188
2015.88	11.3279
2017.35	11.068
2018.82	11.2203
2020.29	11.8067
2021.76	12.5198
2023.23	11.7043
2024.7	11.9078
2026.16	12.2965
2027.63	12.2886
2029.1	12.2791
2030.57	13.7864
2032.03	14.3657
2033.5	13.9393
2034.97	14.239
2036.44	15.0798
2037.9	14.3467
2039.37	14.4137
2040.83	14.9206
2042.3	14.7242
2043.76	15.6428
2045.23	14.9742
2046.69	15.8314
2048.16	16.0434
2049.62	16.0811
2051.08	16.2781
2052.55	16.3316
2054.01	17.2552
2055.47	16.8801
2056.94	16.9641
2058.4	16.9114
2059.86	17.3534
2061.32	17.774
2062.79	17.8887
2064.25	18.2486
2065.71	18.4045
2067.17	19.2411
2068.63	20.8642
2070.09	20.6128
2071.55	20.8518
2073.01	20.7303
2074.47	21.9862
2075.93	22.1356
2077.39	22.0981
2078.85	22.0339
2080.31	22.706
2081.76	23.1502
2083.22	23.6121
2084.68	23.7586
2086.13	23.655
2087.59	24.6069
2089.05	25.4705
2090.51	25.3377
2091.96	26.0716
2093.42	26.1889
2094.87	26.7328
2096.33	28.2259
2097.78	29.532
2099.24	30.9455
2100.69	32.0091
2102.15	33.2052
2103.6	34.3877
2105.06	34.0291
2106.51	34.6269
2107.96	35.8841
2109.42	37.1134
2110.87	37.0971
2112.32	39.6689
2113.77	41.4086
2115.23	43.4406
2116.68	45.1289
2118.13	46.2309
2119.58	48.1924
2121.03	49.0409
2122.48	51.2007
2123.93	53.1116
2125.38	54.7167
2126.83	56.7604
2128.28	58.3848
2129.73	60.0259
2131.18	62.6489
2132.63	65.0623
2134.08	66.4619
2135.53	68.5652
2136.97	70.6595
2138.42	72.3936
2139.87	73.3803
2141.32	75.2792
2142.76	75.7994
2144.21	78.1327
2145.66	79.8508
2147.1	81.9911
2148.55	83.3438
2150	84.7872
2151.44	86.3536
2152.89	88.1277
2154.33	89.2421
2155.78	90.6395
2157.22	91.3596
2158.66	92.0593
2160.11	93.3111
2161.55	94.1897
2163	94.5414
2164.44	95.4914
2165.88	96.3137
2167.32	97.7101
2168.77	98.1085
2170.21	98.0958
2171.65	98.1085
2173.09	97.1797
2174.53	96.2156
2175.97	94.5608
2177.41	93.3368
2178.85	93.3354
2180.29	93.27
2181.73	92.286
2183.17	91.0701
2184.61	90
2186.05	87.9475
2187.49	86.446
2188.93	84.7826
2190.37	84.1104
2191.81	82.4245
2193.24	81.9007
2194.68	81.0052
2196.12	78.6483
2197.56	75.5863
2198.99	73.2663
2200.43	71.0684
2201.87	68.8863
2203.3	66.9349
2204.74	64.3454
2206.17	62.3283
2207.61	60.4782
2209.04	59.2417
2210.48	57.3111
2211.91	54.9651
2213.35	53.5136
2214.78	51.1139
2216.21	50.0144
2217.65	47.8706
2219.08	46.6889
2220.51	45.617
2221.95	44.4039
2223.38	43.2369
2224.81	42.4481
2226.24	41.9215
2227.67	40.7535
2229.1	39.1314
2230.54	38.3148
2231.97	37.7859
2233.4	37.3052
2234.83	36.7594
2236.26	36.5752
2237.69	35.4783
2239.11	34.4719
2240.54	32.2802
2241.97	32.0967
2243.4	30.523
2244.83	28.914
2246.26	27.8312
2247.69	27.1526
2249.11	27.2685
2250.54	26.4025
2251.97	25.8566
2253.4	24.9654
2254.82	24.4607
2256.25	23.7997
2257.67	23.9245
2259.1	23.1679
2260.53	22.6101
2261.95	21.5254
2263.38	20.8872
2264.8	20.1981
2266.23	18.6287
2267.65	16.9626
2269.07	16.3881
2270.5	15.99
2271.92	15.8568
2273.34	15.1154
2274.77	13.4766
2276.19	12.8543
2277.61	12.6714
2279.03	12.4499
2280.46	12.4533
2281.88	10.8796
2283.3	9.97365
2284.72	8.7307
2286.14	8.57727
2287.56	8.51226
2288.98	8.9135
2290.4	8.28923
2291.82	7.2281
2293.24	6.26695
2294.66	5.99699
2296.08	6.05284
2297.5	5.1552
2298.92	5.34353
2300.34	5.38727
2301.76	6.08677
2303.17	6.33311
2304.59	6.09126
2306.01	5.37948
2307.43	4.71307
2308.84	4.29762
2310.26	4.39274
2311.68	3.59279
2313.09	3.82103
2314.51	3.92005
2315.92	4.27171
2317.34	4.76773
2318.75	4.53059
2320.17	4.38718
2321.58	3.8468
2323	4.82535
2324.41	5.01506
2325.82	4.14393
2327.24	4.40886
2328.65	3.78312
2330.06	3.92317
2331.48	4.08381
2332.89	4.02282
2334.3	4.74563
2335.71	4.21508
2337.12	3.67637
2338.54	3.88516
2339.95	3.44512
2341.36	3.11098
2342.77	3.51841
2344.18	3.17643
2345.59	3.72662
2347	4.39852
2348.41	4.48163
2349.82	4.62403
2351.23	4.14405
2352.64	3.88042
2354.04	4.51303
2355.45	3.76357
2356.86	4.39883
2358.27	4.04562
2359.68	3.44065
2361.08	2.79095
2362.49	3.19305
2363.9	3.1567
2365.3	3.16791
2366.71	2.66009
2368.12	2.68905
2369.52	3.52437
2370.93	2.72301
2372.33	2.42519
2373.74	2.67904
2375.14	2.10473
2376.55	2.91079
2377.95	3.21257
2379.36	2.99832
2380.76	2.67515
2382.16	2.55298
2383.57	2.82067
2384.97	2.77343
2386.37	2.19778
2387.78	1.56869
2389.18	1.05228
2390.58	0.36078
2391.98	0.272507
2393.38	0.590091
2394.79	0.0428199
2396.19	-0.141708
2397.59	0.875701
2398.99	0.773088
2400.39	1.41601
2401.79	0.976014
2403.19	1.36164
2404.59	2.18391
2405.99	1.479
2407.39	2.4739
2408.78	3.11668
2410.18	3.04875
2411.58	4.17623
2412.98	4.61046
2414.38	5.33824
2415.77	5.80981
2417.17	4.85706
2418.57	4.37126
2419.97	5.04329
2421.36	5.20443
2422.76	4.97119
2424.15	5.37283
2425.55	4.9928
2426.95	4.90103
2428.34	4.92877
2429.74	5.22245
2431.13	5.71613
2432.52	5.62082
2433.92	5.67733
2435.31	6.01937
2436.71	5.9144
2438.1	5.95509
2439.49	5.69347
2440.89	5.3157
2442.28	5.66855
2443.67	5.85651
2445.06	5.72522
2446.46	6.31302
2447.85	5.46162
2449.24	5.39755
2450.63	5.39291
2452.02	5.21561
2453.41	4.2724
2454.8	4.33651
2456.19	4.66251
2457.58	4.1938
2458.97	3.99856
2460.36	4.03536
2461.75	4.23725
2463.14	4.18446
2464.53	4.03517
2465.92	4.06118
2467.31	3.96399
2468.69	3.43324
2470.08	3.70049
2471.47	3.12461
2472.86	3.22944
2474.24	3.62019
2475.63	2.85194
2477.02	3.26984
2478.4	2.9465
2479.79	2.58857
2481.17	2.8353
2482.56	2.43957
2483.94	2.424
2485.33	1.0859
2486.72	-0.239705
2488.1	-0.134258
2489.48	0.623287
2490.87	0.454377
2492.25	1.02079
2493.64	1.60253
2495.02	2.25619
2496.4	1.96675
2497.79	2.69125
2499.17	2.27825
2500.55	2.12881
2501.93	2.49351
2503.31	1.93272
2504.69	0.487267
2506.08	0.594595
2507.46	0.484496
2508.84	0.781787
2510.22	1.28334
2511.6	1.53045
2512.98	2.57102
2514.36	2.92852
2515.74	2.53822
2517.12	2.94359
2518.5	3.63265
2519.88	3.08151
2521.25	3.80347
2522.63	4.52867
2524.01	5.55237
2525.39	5.78457
2526.77	5.43505
2528.14	5.51599
2529.52	5.19493
2530.9	5.20315
2532.27	5.54189
2533.65	4.99756
2535.03	4.53057
2536.4	4.15139
2537.78	4.35701
2539.15	4.50079
2540.53	4.57649
2541.9	5.14334
2543.28	5.40383
2544.65	5.74281
2546.03	6.75634
2547.4	7.1443
2548.77	6.31365
2550.15	6.34042
2551.52	5.99949
2552.89	6.70459
2554.27	6.45462
2555.64	6.61453
2557.01	7.44002
2558.38	7.86273
2559.75	7.90757
2561.12	8.12256
2562.5	7.86779
2563.87	7.56559
2565.24	6.65766
2566.61	6.60595
2567.98	6.20103
2569.35	6.42009
2570.72	6.57867
2572.09	6.60642
2573.46	6.11857
2574.83	6.94231
2576.19	6.4023
2577.56	6.5177
2578.93	6.59795
2580.3	6.2504
2581.67	6.68796
2583.04	6.19189
2584.4	6.29659
2585.77	6.34605
2587.14	6.01388
2588.5	6.36206
2589.87	6.89007
2591.23	7.03402
2592.6	6.67076
2593.97	7.04731
2595.33	6.68934
2596.7	6.77207
2598.06	6.40435
2599.43	6.34411
2600.79	6.05583
2602.15	4.97863
2603.52	5.01642
2604.88	5.62464
2606.25	5.78156
2607.61	5.20738
2608.97	6.14591
2610.33	6.28004
2611.7	6.16762
2613.06	6.76372
2614.42	7.04375
2615.78	6.60231
2617.15	6.87121
2618.51	7.37033
2619.87	7.25809
2621.23	7.73591
2622.59	7.03199
2623.95	6.43775
2625.31	6.33731
2626.67	6.26501
2628.03	5.96884
2629.39	5.67873
2630.75	5.82393
2632.1	5.48426
2633.46	6.02104
2634.82	5.74427
2636.18	6.12229
2637.54	7.18748
2638.89	7.85776
2640.25	7.95375
2641.61	7.16096
2642.97	6.65608
2644.32	6.4414
2645.68	5.91038
2647.03	6.00592
2648.39	6.28948
2649.75	6.58204
2651.1	6.56786
2652.46	6.4823
2653.81	6.95395
2655.17	7.14651
2656.52	7.41636
2657.88	7.45505
2659.23	7.69139
2660.58	8.06512
2661.94	8.58852
2663.29	7.49111
2664.64	6.25927
2666	5.38962
2667.35	5.60763
2668.7	5.66154
2670.05	5.52439
2671.4	5.85634
2672.76	6.23155
2674.11	6.35654
2675.46	7.10297
2676.81	7.66454
2678.16	7.79795
2679.51	8.01293
2680.86	8.41253
2682.21	8.50659
2683.56	8.17643
2684.91	8.35326
2686.26	7.63278
2687.61	7.10974
2688.96	7.18208
2690.3	6.50362
2691.65	7.13878
2693	7.39812
2694.35	7.45103
2695.7	6.5926
2697.04	7.38066
2698.39	7.22501
2699.74	6.84111
2701.08	7.05175
2702.43	7.18289
2703.77	7.86747
2705.12	7.2499
2706.47	6.59716
2707.81	6.51101
2709.16	6.82758
2710.5	6.20887
2711.85	6.74598
2713.19	6.69357
2714.53	7.32827
2715.88	7.69227
2717.22	7.44521
2718.57	7.54124
2719.91	7.53215
2721.25	7.22863
2722.59	6.95848
2723.94	7.38065
2725.28	7.39612
2726.62	7.71139
2727.96	8.4232
2729.3	7.81714
2730.65	7.33812
2731.99	7.54585
2733.33	8.32711
2734.67	9.37779
2736.01	9.1257
2737.35	9.42714
2738.69	9.6895
2740.03	10.0116
2741.37	10.5362
2742.71	10.3709
2744.05	9.94122
2745.38	10.0069
2746.72	9.71887
2748.06	9.12293
2749.4	9.27103
2750.74	8.53116
2752.07	8.2234
2753.41	7.3452
2754.75	7.54199
2756.09	7.53144
2757.42	6.55907
2758.76	6.70843
2760.09	5.68309
2761.43	4.89268
2762.77	4.047
2764.1	4.2785
2765.44	3.17705
2766.77	2.0996
2768.11	2.23621
2769.44	1.80643
2770.77	1.80795
2772.11	1.41176
2773.44	1.25665
2774.77	1.44689
2776.11	1.48433
2777.44	0.420045
2778.77	0.0209981
2780.11	-0.460987
2781.44	-0.696872
2782.77	-1.27643
2784.1	-2.10908
2785.43	-2.0793
2786.77	-2.1194
2788.1	-1.97046
2789.43	-1.66978
2790.76	-1.5906
2792.09	-1.23309
2793.42	-0.4171
2794.75	-0.424398
2796.08	-0.726981
2797.41	-0.392358
2798.74	0.109905
2800.07	0.341397
2801.4	0.984955
2802.72	1.06108
2804.05	1.82773
2805.38	1.84625
2806.71	1.86536
2808.04	2.80328
2809.36	2.28347
2810.69	2.96006
2812.02	3.72392
2813.34	3.88678
2814.67	4.54111
2816	4.98367
2817.32	5.27579
2818.65	6.69252
2819.97	8.26571
2821.3	10.0589
2822.62	11.3431
2823.95	12.9106
2825.27	15.8432
2826.6	18.2597
2827.92	20.3523
2829.25	23.3843
2830.57	25.8606
2831.89	29.1377
2833.22	32.6849
2834.54	36.7439
2835.86	39.6143
2837.18	44.1013
2838.51	46.8016
2839.83	50.8148
2841.15	55.4233
2842.47	59.466
2843.79	63.5502
2845.11	67.8978
2846.43	72.1308
2847.76	77.4824
2849.08	82.0194
2850.4	87.784
2851.72	93.7131
2853.04	98.8257
2854.36	104.298
2855.67	110.214
2856.99	115.457
2858.31	121.014
2859.63	125.174
2860.95	130.238
2862.27	134.791
2863.58	140.487
2864.9	145.692
2866.22	150.709
2867.54	155.874
2868.85	160.282
2870.17	163.953
2871.49	168.113
2872.8	172.985
2874.12	177.525
2875.43	179.907
2876.75	184.366
2878.07	187.881
2879.38	191.063
2880.7	194.238
2882.01	198.313
2883.32	202.692
2884.64	206.617
2885.95	210.904
2887.27	215.239
2888.58	220.331
2889.89	225.61
2891.21	230.287
2892.52	235.03
2893.83	239.563
2895.14	245.207
2896.46	250.224
2897.77	255.836
2899.08	261.713
2900.39	266.66
2901.7	272.262
2903.01	279.749
2904.32	286.247
2905.63	293.862
2906.94	300.506
2908.25	307.192
2909.56	314.569
2910.87	321.924
2912.18	329.438
2913.49	338.107
2914.8	345.653
2916.11	353.884
2917.42	360.022
2918.72	366.611
2920.03	372.479
2921.34	378.133
2922.65	382.119
2923.95	386.82
2925.26	390.118
2926.57	394.062
2927.88	395.399
2929.18	397.623
2930.49	397.733
2931.79	397.245
2933.1	395.845
2934.4	393.682
2935.71	391.369
2937.01	388.101
2938.32	383.897
2939.62	378.008
2940.93	372.122
2942.23	366.596
2943.54	359.916
2944.84	352.17
2946.14	344.99
2947.45	338.117
2948.75	329.774
2950.05	321.37
2951.35	313.603
2952.66	305.276
2953.96	296.386
2955.26	287.306
2956.56	278.463
2957.86	270
2959.16	261.213
2960.46	252.896
2961.77	244.272
2963.07	236.228
2964.37	229.417
2965.66	221.138
2966.96	214.189
2968.26	207.954
2969.56	200.807
2970.86	193.855
2972.16	187.491
2973.46	182.368
2974.76	177.593
2976.06	172.011
2977.35	167.034
2978.65	161.858
2979.95	156.476
2981.25	150.952
2982.54	145.105
2983.84	140.442
2985.14	134.618
2986.43	130.072
2987.73	124.486
2989.02	119.167
2990.32	113.326
2991.62	108.03
2992.91	101.831
2994.21	97.0823
2995.5	91.8413
2996.8	87.0158
2998.09	81.9784
2999.38	77.1518
3000.68	71.6516
3001.97	66.0594
3003.26	61.7904
3004.56	56.6475
3005.85	53.0348
3007.14	48.742
3008.43	44.7826
3009.73	40.4006
3011.02	37.3221
3012.31	32.9069
3013.6	29.1358
3014.89	25.8302
3016.19	23.8297
3017.48	20.6185
3018.77	18.7198
3020.06	16.6348
3021.35	14.5373
3022.64	11.9549
3023.93	9.6757
3025.22	8.18317
3026.5	7.19909
3027.79	5.68517
3029.08	4.42462
3030.37	3.39491
3031.66	2.97022
3032.95	2.34535
3034.24	1.81383
3035.52	1.77182
3036.81	2.18863
3038.1	2.50851
3039.39	2.27612
3040.67	1.84913
3041.96	2.50845
3043.25	2.04394
3044.53	3.20362
3045.82	3.43399
3047.1	4.29989
3048.39	4.8302
3049.67	4.82188
3050.96	5.41687
3052.24	5.04485
3053.53	5.4762
3054.81	5.53234
3056.1	5.07452
3057.38	5.37098
3058.67	5.75567
3059.95	5.84827
3061.23	5.74481
3062.52	5.58466
3063.8	6.15732
3065.08	5.71619
3066.36	6.07207
3067.65	6.32313
3068.93	6.11841
3070.21	6.47034
3071.49	5.86385
3072.77	5.04737
3074.05	4.38798
3075.33	4.6268
3076.61	4.04807
3077.89	4.1888
3079.17	4.1218
3080.45	3.84491
3081.73	2.93529
3083.01	2.37164
3084.29	1.51142
3085.57	1.06569
3086.85	0.576326
3088.13	0.165902
3089.41	0.798876
3090.68	1.13182
3091.96	0.214833
3093.24	0.256628
3094.52	0.677957
3095.79	0.473482
3097.07	-0.129458
3098.35	-0.231705
3099.62	0.173781
3100.9	0.442254
3102.18	0.896079
3103.45	0.783303
3104.73	1.29537
3106	2.06557
3107.28	2.35742
3108.55	3.79622
3109.83	3.58882
3111.1	4.07822
3112.38	4.17316
3113.65	5.46573
3114.93	5.88895
3116.2	6.63715
3117.47	7.31631
3118.75	7.89348
3120.02	8.61173
3121.29	10.1648
3122.57	10.6949
3123.84	11.8462
3125.11	13.2901
3126.38	14.6737
3127.65	16.198
3128.92	16.8632
3130.2	18.5399
3131.47	19.923
3132.74	21.1315
3134.01	22.2653
3135.28	23.1125
3136.55	24.3071
3137.82	25.9315
3139.09	27.2998
3140.36	27.9577
3141.63	28.8327
3142.9	29.9187
3144.17	31.1322
3145.43	32.2925
3146.7	33.6827
3147.97	34.0978
3149.24	35.3088
