#Acq. time (s)=	45
#Accumulations=	2
#Range (cm-¹)=	200...3150
#Windows=	2
#Auto scanning=	Off
#Autofocus=	Off
#Macrospot=	Off
#AutoExposure=	Off
#Spike filter=	Multiple accum.
#Delay time (s)=	0
#Binning=	1
#Readout mode=	Signal
#DeNoise=	Off
#ICS correction=	On
#Dark correction=	Off
#Inst. Process=	Off
#Detector Gain=	Best Dynamic Range
#Detector ADC=	20 kHz       
#Detector temperature (°C)=	-69.85
#Instrument=	LabRAM HR Evol
#Detector=	Synapse
#Objective=	x100
#Grating=	600 gr/mm
#ND Filter=	100%
#Laser (nm)=	532 
#Hole=	100.021
#Range=	Auto
#Laser Pol.=	No
#Raman. Pol.=	No
#Laser Pol. (°)=	-0.0007625
#Raman Pol. (°)=	89.9995
#Collection=	Microscope
#StageXY=	Marzhauser
#StageZ=	Marzhauser
#X (µm)=	-1021.7
#Y (µm)=	693.6
#Z (µm)=	584.55
#Full time(mm:ss)=	3:18
#Project=	
#Sample=	
#Site=	
#Title=	Mb_40_y_12_2x_45s_532 nm_x100_100%_600 gr_mm
#Remark=	
#Date=	19.07.2022 09:49
#Acquired=	19.07.2022 09:49:33
#Base:Fit=	10.08.2022 10:52:48
#Base:Sub=	10.08.2022 10:52:53
#Filter:Polynom=	16.08.2022 10:09:04
#AxisType[0]=Intens
#AxisUnit[0]=Cnt
#AxisType[1]=Spectr
#AxisUnit[1]=1/cm
200.423	46.1671
202.238	38.17
204.052	32.0079
205.868	26.4713
207.682	22.3139
209.495	19.5351
211.308	17.123
213.12	15.281
214.935	13.7637
216.746	11.921
218.558	11.2168
220.369	10.978
222.18	10.8468
223.992	10.3345
225.802	9.50221
227.612	10.3405
229.421	10.0971
231.23	11.0722
233.039	11.9534
234.849	14.2582
236.657	16.3245
238.465	18.1969
240.272	20.5677
242.079	23.2685
243.885	25.1247
245.691	26.8275
247.497	29.6304
249.305	34.0564
251.11	37.69
252.915	41.1528
254.719	43.1625
256.523	46.0764
258.327	50.4711
260.13	55.1668
261.933	57.3148
263.736	62.0113
265.538	65.0084
267.34	67.8561
269.141	71.4749
270.943	74.5883
272.744	78.1042
274.544	81.022
276.344	83.3795
278.144	85.3158
279.944	88.0232
281.743	91.7619
283.542	94.9566
285.34	97.6798
287.138	102.344
288.936	105.767
290.733	106.474
292.53	110.509
294.327	112.834
296.123	114.525
297.919	115.596
299.715	117.071
301.508	116.295
303.303	117.266
305.098	116.429
306.892	117.104
308.686	117.22
310.479	117.08
312.273	116.569
314.065	114.63
315.858	113.044
317.648	112.362
319.44	110.846
321.231	110.193
323.022	109.047
324.813	107.802
326.604	106.809
328.392	105.154
330.181	103.323
331.971	101.225
333.76	98.8969
335.548	98.0148
337.335	97.2221
339.123	96.9553
340.91	94.5346
342.698	93.5797
344.483	92.699
346.269	93.2514
348.055	93.3082
349.841	92.7657
351.625	92.4088
353.41	92.8679
355.195	92.2549
356.977	92.6605
358.762	92.0874
360.545	89.9772
362.329	90.346
364.11	90.9902
365.893	91.1359
367.675	91.8498
369.455	94.7008
371.237	95.8859
373.017	97.4375
374.798	99.2507
376.578	99.8001
378.357	98.9057
380.137	99.0267
381.917	101.918
383.694	102.938
385.473	103.559
387.249	105.216
389.028	109.048
390.806	110.803
392.581	113.445
394.359	114.465
396.134	116.847
397.91	119.213
399.684	120.634
401.46	122.032
403.234	124.909
405.009	127.264
406.784	131.316
408.557	134.539
410.331	136.649
412.103	138.817
413.876	141.242
415.647	144.578
417.42	146.89
419.191	150.329
420.961	154.007
422.733	158.138
424.502	161.838
426.273	164.831
428.042	167.784
429.812	171.359
431.58	174.98
433.35	178.631
435.118	183.165
436.885	186.9
438.653	190.17
440.42	194.35
442.188	199.249
443.954	204.272
445.719	208.655
447.486	211.812
449.251	216.712
451.015	223.294
452.781	228.255
454.545	232.051
456.308	236.944
458.073	241.386
459.836	243.487
461.598	247.544
463.362	251.351
465.124	254.629
466.885	260.595
468.648	269.077
470.408	278.667
472.169	290.768
473.929	305.85
475.69	323.071
477.45	340.837
479.208	355.207
480.967	369.04
482.727	381.929
484.485	393.176
486.243	403.342
488	410.552
489.759	416.228
491.515	420.012
493.272	419.588
495.028	420.516
496.783	418.402
498.54	413.98
500.295	408.491
502.05	402.627
503.804	394.323
505.558	383.978
507.311	373.44
509.064	360.631
510.819	347.24
512.572	332.64
514.324	317.809
516.076	301.915
517.827	285.853
519.578	268.139
521.329	251.092
523.08	233.323
524.83	214.759
526.58	196.751
528.329	178.796
530.08	160.113
531.829	140.502
533.578	120.198
535.326	100.924
537.074	82.3082
538.821	65.1901
540.568	47.5818
542.315	32.1644
544.062	18.494
545.808	5.43802
547.554	-6.17197
549.299	-13.4653
551.044	-18.8662
552.789	-22.7047
554.533	-22.5259
556.278	-20.2394
558.019	-15.4378
559.763	-9.02317
561.506	-3.30346
563.249	-0.118168
564.991	2.34167
566.733	4.47327
568.475	5.91921
570.217	5.65693
571.958	5.08823
573.699	3.98695
575.439	4.339
577.177	3.16393
578.917	3.26989
580.656	3.2876
582.396	4.94744
584.134	5.16046
585.873	4.7116
587.609	5.00427
589.347	5.2075
591.084	3.95435
592.822	5.54806
594.558	6.52452
596.295	7.18399
598.029	8.66536
599.765	10.2314
601.5	11.5474
603.235	12.15
604.968	13.3955
606.703	13.8297
608.437	14.9781
610.171	15.1302
611.902	15.6545
613.635	15.7121
615.368	15.4526
617.099	15.8629
618.831	17.5335
620.563	17.5136
622.294	19.511
624.024	19.5633
625.755	20.1537
627.485	20.3363
629.213	21.5176
630.943	21.1465
632.673	22.1949
634.4	22.4841
636.129	23.271
637.855	23.2232
639.584	23.9174
641.312	24.7108
643.037	25.0825
644.764	26.3553
646.491	26.6459
648.216	26.9427
649.942	26.9126
651.666	27.6467
653.392	27.358
655.115	25.5289
656.84	23.3164
658.563	24.1691
660.287	24.1824
662.011	26.26
663.732	25.4241
665.456	25.8637
667.177	27.2216
668.899	28.6899
670.62	29.6456
672.342	29.7209
674.061	30.0082
675.781	30.6898
677.502	33.011
679.22	34.8866
680.941	34.3863
682.659	35.6241
684.379	36.7412
686.096	37.1589
687.815	37.9609
689.532	38.4912
691.248	38.4643
692.966	38.9441
694.682	40.1989
696.4	40.614
698.115	40.9207
699.829	42.2371
701.546	44.0283
703.26	45.087
704.974	46.3139
706.689	46.0138
708.402	48.2465
710.115	48.3325
711.83	49.8588
713.542	50.6716
715.254	51.3698
716.967	51.9991
718.679	53.6948
720.39	52.8104
722.102	53.7521
723.812	53.7372
725.522	53.5704
727.232	53.9571
728.943	54.5569
730.652	55.0646
732.361	55.1268
734.069	55.9138
735.779	56.8482
737.487	57.7908
739.194	57.3934
740.901	58.9048
742.608	59.9437
744.316	62.559
746.022	63.2151
747.728	64.3901
749.433	65.2867
751.138	68.0967
752.843	69.3313
754.549	71.0708
756.254	71.5645
757.957	72.6394
759.661	74.2595
761.364	75.8108
763.067	76.6926
764.769	76.2467
766.471	78.2037
768.175	80.9375
769.877	83.1497
771.578	84.118
773.279	85.9556
774.98	87.4828
776.68	87.5989
778.38	90.4621
780.079	92.5298
781.779	94.7477
783.478	95.928
785.176	98.2581
786.875	100.545
788.573	102.044
790.27	104.078
791.968	105.485
793.665	106.854
795.361	106.856
797.058	107.615
798.754	107.249
800.45	108.639
802.145	109.312
803.84	110.153
805.535	109.555
807.23	111.645
808.922	111.15
810.616	111.846
812.309	113.169
814.002	112.677
815.695	112.786
817.388	114.221
819.08	115.102
820.772	114.501
822.464	114.17
824.153	113.394
825.844	113.158
827.535	112.694
829.225	112.858
830.915	111.446
832.605	110.683
834.292	111.41
835.981	111.55
837.67	110.005
839.359	109.709
841.047	109.121
842.732	108.66
844.42	108.422
846.107	108.234
847.794	107.696
849.479	107.94
851.165	107.794
852.851	106.803
854.534	106.535
856.22	105.609
857.905	105.879
859.589	106.478
861.272	106.759
862.956	108.862
864.639	108.936
866.321	109.202
868.004	109.227
869.687	109.395
871.367	109.246
873.049	108.916
874.731	108.977
876.41	108.831
878.092	108.67
879.771	109.204
881.451	108.637
883.131	109.177
884.809	110.084
886.489	109.979
888.166	109.506
889.845	109.086
891.522	109.87
893.2	109.64
894.878	111.671
896.554	112.22
898.231	112.358
899.906	113.178
901.583	113.685
903.258	114.064
904.934	114.18
906.608	115.729
908.283	117.244
909.956	119.499
911.631	121.979
913.304	122.585
914.976	124.238
916.65	127.865
918.322	129.681
919.995	130.272
921.666	131.771
923.339	132.992
925.009	134.501
926.679	136.008
928.351	138.526
930.021	139.361
931.692	140.141
933.361	142.004
935.029	143.343
936.699	144.873
938.367	146.487
940.035	147.255
941.704	147.761
943.371	147.764
945.038	147.539
946.706	147.015
948.372	146.273
950.038	145.141
951.705	143.601
953.37	141.317
955.035	139.795
956.7	137.706
958.366	135.312
960.03	131.952
961.693	130.195
963.357	127.84
965.021	124.543
966.684	121.051
968.346	118.375
970.008	113.562
971.67	109.512
973.334	105.097
974.995	102.098
976.655	98.5958
978.316	94.9869
979.976	89.5259
981.638	86.001
983.297	83.1405
984.957	79.3667
986.616	76.2992
988.274	72.7186
989.932	70.1026
991.59	67.3766
993.248	63.2336
994.907	58.3146
996.565	52.8692
998.221	48.881
999.878	45.4666
1001.53	40.9481
1003.19	39.2836
1004.85	37.6278
1006.5	36.8954
1008.16	38.4083
1009.81	39.5139
1011.46	41.6625
1013.12	44.1813
1014.77	47.384
1016.43	52.4974
1018.08	56.8834
1019.73	61.0989
1021.38	65.3184
1023.04	69.1628
1024.69	72.4825
1026.34	76.8544
1027.99	81.0383
1029.64	84.9834
1031.29	87.9419
1032.94	89.6547
1034.59	92.4027
1036.24	94.0749
1037.89	94.9098
1039.54	95.2629
1041.19	96.7907
1042.84	98.066
1044.48	99.3429
1046.13	98.4625
1047.78	98.1738
1049.42	96.8682
1051.07	95.6346
1052.72	92.6035
1054.36	90.9396
1056.01	87.5753
1057.66	86.2155
1059.3	82.5457
1060.94	78.625
1062.59	73.5264
1064.23	69.6821
1065.88	64.8138
1067.52	58.9046
1069.16	54.2195
1070.81	49.0879
1072.45	43.3228
1074.09	35.99
1075.73	28.8944
1077.38	22.2582
1079.02	17.2823
1080.66	13.8066
1082.3	11.1383
1083.94	8.22462
1085.58	7.47649
1087.22	7.27501
1088.86	8.34526
1090.5	8.67055
1092.13	8.56462
1093.77	9.74899
1095.41	10.2974
1097.05	10.3699
1098.68	11.2296
1100.32	11.0634
1101.96	10.7653
1103.6	11.0558
1105.23	10.7992
1106.87	11.3104
1108.5	12.5414
1110.14	12.7457
1111.77	12.7273
1113.41	12.4842
1115.04	11.8328
1116.67	11.8643
1118.31	11.552
1119.94	10.7639
1121.58	11.3356
1123.21	13.3353
1124.84	13.9917
1126.47	12.9805
1128.1	13.4215
1129.73	13.688
1131.37	13.5605
1133	13.3301
1134.63	12.8829
1136.26	12.7416
1137.89	12.5888
1139.52	12.565
1141.14	12.311
1142.77	11.775
1144.4	12.0589
1146.03	12.4328
1147.66	11.6466
1149.29	10.8271
1150.91	9.84125
1152.54	8.60661
1154.17	7.22518
1155.79	6.20815
1157.42	7.06288
1159.04	7.15359
1160.67	7.04281
1162.3	6.80283
1163.92	7.11656
1165.55	7.23981
1167.17	6.39057
1168.79	5.73232
1170.42	5.13395
1172.04	4.35877
1173.66	4.45982
1175.28	4.05619
1176.91	2.93987
1178.53	1.41003
1180.15	2.45413
1181.77	2.37397
1183.39	3.10674
1185.01	4.60878
1186.63	4.62525
1188.25	5.22146
1189.87	6.24155
1191.49	5.74311
1193.11	5.7392
1194.73	5.0515
1196.35	4.77327
1197.97	4.24803
1199.59	4.28433
1201.2	4.59763
1202.82	6.27277
1204.44	6.64651
1206.05	6.04311
1207.67	5.3802
1209.29	6.91378
1210.9	6.75611
1212.52	7.39946
1214.13	6.82871
1215.75	7.09777
1217.36	7.35582
1218.97	7.53481
1220.59	7.58135
1222.2	8.44232
1223.82	8.29179
1225.43	8.6081
1227.04	8.29186
1228.65	7.57028
1230.26	7.19955
1231.88	7.66984
1233.49	8.84625
1235.1	9.767
1236.71	11.4496
1238.32	11.2613
1239.93	11.4407
1241.54	11.3662
1243.15	12.2396
1244.76	12.5505
1246.37	11.7513
1247.97	11.2826
1249.58	12.6777
1251.19	13.0579
1252.8	14.2341
1254.41	15.2337
1256.01	14.7589
1257.62	14.4808
1259.23	15.6945
1260.83	17.129
1262.44	17.2805
1264.04	18.5419
1265.65	18.5853
1267.25	18.3723
1268.86	19.0791
1270.46	20.4715
1272.07	21.2141
1273.67	22.6064
1275.27	23.2805
1276.88	23.8788
1278.48	23.5566
1280.08	24.7176
1281.68	26.2061
1283.28	26.9345
1284.89	27.0894
1286.49	28.192
1288.09	28.0262
1289.69	29.1283
1291.29	30.4377
1292.89	31.4519
1294.49	31.6646
1296.09	32.9633
1297.69	33.442
1299.29	34.1698
1300.88	34.0647
1302.48	35.0646
1304.08	35.5698
1305.68	36.2684
1307.27	36.1822
1308.87	36.5426
1310.47	36.9054
1312.06	38.2408
1313.66	39.2097
1315.25	39.1239
1316.85	38.6955
1318.44	37.9186
1320.04	38.2227
1321.63	37.4844
1323.23	37.5705
1324.82	36.3062
1326.41	35.8735
1328.01	36.1093
1329.6	36.169
1331.19	36.6926
1332.78	36.8866
1334.38	36.2615
1335.97	36.0586
1337.56	35.6624
1339.15	35.3726
1340.74	34.6804
1342.33	34.7656
1343.92	34.7333
1345.51	33.8431
1347.1	34.1809
1348.69	33.743
1350.28	33.956
1351.87	33.568
1353.46	32.0935
1355.04	30.3101
1356.63	28.8881
1358.22	28.4531
1359.81	27.9002
1361.39	28.0132
1362.98	27.0529
1364.57	25.6492
1366.15	25.1515
1367.74	24.9979
1369.32	25.4223
1370.91	25.6146
1372.49	24.1184
1374.07	24.3054
1375.66	24.4065
1377.24	23.8787
1378.83	23.8704
1380.41	23.7298
1381.99	24.2533
1383.57	23.666
1385.16	23.1252
1386.74	22.8055
1388.32	22.4744
1389.9	22.3548
1391.48	22.3773
1393.06	21.6348
1394.64	20.7648
1396.22	20.6925
1397.8	21.7427
1399.38	21.9177
1400.96	22.2653
1402.54	22.9621
1404.12	23.0402
1405.7	23.7075
1407.28	24.2224
1408.85	23.9966
1410.43	25.1232
1412.01	26.0399
1413.58	27.569
1415.16	28.151
1416.74	28.1878
1418.31	28.8352
1419.89	29.57
1421.46	30.6393
1423.04	31.5551
1424.61	32.1199
1426.19	33.0445
1427.76	33.5254
1429.33	35.1353
1430.91	35.1344
1432.48	35.2928
1434.05	36.1355
1435.63	37.1075
1437.2	37.3735
1438.77	38.5424
1440.34	38.9852
1441.91	39.2007
1443.49	39.6323
1445.05	41.769
1446.63	43.6887
1448.2	44.5293
1449.77	45.4051
1451.34	46.4794
1452.91	47.0258
1454.47	47.2832
1456.04	47.0652
1457.61	47.5299
1459.18	47.8284
1460.75	48.0864
1462.31	47.9695
1463.88	47.2602
1465.45	46.3122
1467.01	44.9573
1468.58	44.3834
1470.15	43.2418
1471.71	42.8512
1473.28	41.7164
1474.84	41.4867
1476.41	40.4968
1477.97	39.6185
1479.54	38.9803
1481.1	37.5855
1482.66	35.6678
1484.23	33.8427
1485.79	33.1546
1487.35	31.8604
1488.91	30.8436
1490.48	29.7199
1492.04	28.9338
1493.6	28.2812
1495.16	27.5795
1496.72	26.3674
1498.28	24.519
1499.84	23.6694
1501.4	22.3506
1502.96	19.7309
1504.52	17.7798
1506.08	17.5118
1507.64	16.9279
1509.2	14.9147
1510.76	14.0802
1512.31	13.5407
1513.87	13.2873
1515.43	12.804
1516.99	12.8674
1518.54	12.2594
1520.1	12.5906
1521.66	12.7992
1523.21	13.5327
1524.77	13.7138
1526.32	13.3013
1527.88	13.6473
1529.43	14.8379
1530.99	14.7418
1532.54	14.7824
1534.09	15.2194
1535.65	15.8192
1537.2	15.9135
1538.75	15.4601
1540.31	16.0492
1541.86	16.7016
1543.41	17.382
1544.96	18.0318
1546.51	18.4791
1548.06	19.5145
1549.62	19.7281
1551.17	19.8086
1552.72	21.3712
1554.27	21.9698
1555.82	23.3492
1557.36	23.7095
1558.91	23.064
1560.46	23.8533
1562.01	24.9548
1563.56	25.9007
1565.11	26.7446
1566.66	27.9405
1568.2	29.8411
1569.75	31.6162
1571.3	31.8654
1572.84	31.6279
1574.39	31.2425
1575.93	30.8971
1577.48	31.1102
1579.02	30.7104
1580.57	30.7541
1582.11	31.7359
1583.66	33.1914
1585.2	33.8912
1586.75	34.1436
1588.29	34.404
1589.83	35.5997
1591.38	36.288
1592.92	36.1494
1594.46	35.59
1596	35.9423
1597.54	35.6121
1599.09	35.1808
1600.63	34.2758
1602.17	34.9024
1603.71	34.3114
1605.25	33.9436
1606.79	33.774
1608.33	32.3277
1609.87	31.2627
1611.41	32.1239
1612.95	32.3824
1614.48	32.4063
1616.02	32.3533
1617.56	32.4521
1619.1	32.0449
1620.64	32.1713
1622.17	33.3648
1623.71	32.6211
1625.25	33.8013
1626.78	33.3997
1628.32	33.05
1629.86	33.7852
1631.39	33.8504
1632.92	34.5545
1634.46	35.2612
1635.99	35.8091
1637.53	37.1997
1639.06	37.456
1640.59	37.74
1642.13	38.7727
1643.66	38.8969
1645.19	39.4845
1646.73	40.4588
1648.26	40.2556
1649.79	40.4768
1651.32	40.9958
1652.85	41.412
1654.38	41.6045
1655.92	42.4331
1657.45	43.2145
1658.98	44.0473
1660.51	44.7115
1662.04	44.3397
1663.57	43.7219
1665.09	42.8907
1666.62	43.0583
1668.15	41.5776
1669.68	39.5508
1671.21	38.1111
1672.73	37.2611
1674.26	35.7579
1675.79	34.227
1677.31	33.2347
1678.84	31.7758
1680.37	29.68
1681.89	28.7315
1683.42	27.1373
1684.94	24.914
1686.47	24.3605
1687.99	23.563
1689.52	22.3502
1691.04	19.8984
1692.57	19.824
1694.09	18.7662
1695.61	17.9074
1697.14	17.186
1698.66	14.8651
1700.18	12.6655
1701.7	12.5073
1703.22	11.0926
1704.75	9.99906
1706.27	9.28259
1707.79	8.32178
1709.31	7.60508
1710.83	6.58754
1712.35	5.77482
1713.87	4.88527
1715.39	4.0998
1716.91	4.07119
1718.43	4.42248
1719.95	4.04003
1721.46	4.45732
1722.98	4.7706
1724.5	4.19297
1726.02	3.88177
1727.53	3.65802
1729.05	3.03268
1730.57	2.75347
1732.08	3.06656
1733.6	3.34641
1735.12	2.90982
1736.63	2.86353
1738.15	3.04286
1739.66	3.22809
1741.18	2.66484
1742.69	2.67581
1744.21	2.38283
1745.72	2.10103
1747.23	2.5516
1748.74	2.52723
1750.26	2.64955
1751.77	2.53226
1753.28	2.05969
1754.8	1.73282
1756.31	2.00553
1757.82	2.3548
1759.33	2.48188
1760.84	2.96714
1762.35	3.74515
1763.86	3.46467
1765.37	3.29216
1766.88	3.3054
1768.39	4.44198
1769.9	4.06527
1771.41	3.77291
1772.92	3.68296
1774.43	3.80889
1775.93	4.43465
1777.44	4.14379
1778.95	4.08848
1780.46	3.28088
1781.96	2.5341
1783.47	2.94166
1784.98	2.80005
1786.48	3.0265
1787.99	3.24004
1789.49	3.02101
1791	3.39259
1792.5	2.78192
1794.01	2.24097
1795.51	1.36792
1797.02	1.30975
1798.52	0.773333
1800.03	0.40008
1801.53	0.257246
1803.03	0.249961
1804.53	0.122742
1806.04	0.388372
1807.54	0.260887
1809.04	0.407348
1810.54	-0.0109447
1812.04	0.655092
1813.54	0.0930887
1815.05	0.115255
1816.55	-0.186497
1818.05	-0.198726
1819.55	0.0161479
1821.05	0.202321
1822.55	0.584059
1824.05	1.06496
1825.54	1.24838
1827.04	1.29066
1828.54	1.99803
1830.04	2.56747
1831.54	3.05474
1833.03	3.96969
1834.53	4.03126
1836.03	4.0142
1837.52	4.02967
1839.02	4.00948
1840.52	4.6917
1842.01	5.86548
1843.51	6.20936
1845	6.18122
1846.5	5.80596
1847.99	5.96702
1849.49	6.27595
1850.98	6.50055
1852.47	6.95231
1853.97	6.48651
1855.46	5.94706
1856.95	5.87781
1858.45	6.40112
1859.94	6.24849
1861.43	6.43271
1862.92	6.1382
1864.41	5.84085
1865.91	5.68427
1867.4	5.08926
1868.89	5.01293
1870.38	5.55754
1871.87	5.66763
1873.36	5.41059
1874.85	5.58089
1876.34	5.13306
1877.83	5.02278
1879.31	5.45079
1880.8	5.40412
1882.29	5.49978
1882.56	5.90759
1884.05	5.79931
1885.54	5.97935
1887.04	5.41156
1888.53	5.40787
1890.03	5.11549
1891.52	5.53715
1893.01	6.00484
1894.5	6.22791
1895.99	6.57657
1897.49	6.13475
1898.98	5.60365
1900.47	6.54582
1901.96	6.92863
1903.45	5.73821
1904.94	5.21437
1906.43	4.98174
1907.92	5.07589
1909.41	5.08426
1910.9	5.26036
1912.39	5.55872
1913.88	5.99252
1915.37	5.65307
1916.86	5.08939
1918.35	4.53241
1919.84	3.56482
1921.32	3.78877
1922.81	4.14861
1924.3	4.21685
1925.78	3.63209
1927.27	3.46551
1928.76	3.78611
1930.24	3.75648
1931.73	3.28524
1933.21	2.96944
1934.7	2.60692
1936.18	1.43498
1937.67	1.64702
1939.15	1.76911
1940.64	1.87412
1942.12	1.49549
1943.6	1.47694
1945.09	0.884492
1946.57	0.850994
1948.05	1.51036
1949.54	2.09115
1951.02	2.2472
1952.5	1.77539
1953.98	1.81263
1955.46	2.31101
1956.94	2.29496
1958.42	1.97114
1959.91	2.02387
1961.39	1.76303
1962.87	2.47508
1964.34	2.82457
1965.82	2.79034
1967.3	2.58355
1968.78	2.3308
1970.26	1.56368
1971.74	2.12845
1973.22	2.52573
1974.7	3.08974
1976.17	2.46852
1977.65	2.32512
1979.13	3.14002
1980.6	4.04832
1982.08	4.56121
1983.56	4.65915
1985.03	5.54427
1986.51	6.27998
1987.98	7.16877
1989.46	7.39205
1990.93	7.6514
1992.41	7.32678
1993.88	7.85743
1995.36	9.44286
1996.83	9.62207
1998.3	10.1569
1999.78	9.89866
2001.25	10.4415
2002.72	10.4678
2004.2	10.1954
2005.67	10.319
2007.14	10.4846
2008.61	10.2761
2010.08	10.2916
2011.55	11.077
2013.02	11.0624
2014.49	10.935
2015.97	10.4772
2017.43	11.6274
2018.9	11.5024
2020.37	12.3344
2021.84	11.666
2023.31	10.9298
2024.78	10.2417
2026.25	10.9491
2027.72	11.261
2029.19	10.5426
2030.65	9.72521
2032.12	8.82128
2033.59	8.76936
2035.05	8.50929
2036.52	9.38075
2037.98	8.24415
2039.45	8.11084
2040.92	7.52863
2042.38	7.56343
2043.85	8.03732
2045.31	8.62078
2046.78	8.23696
2048.24	8.4388
2049.71	8.3451
2051.17	8.99086
2052.63	9.8947
2054.1	10.0948
2055.56	10.7761
2057.02	11.1039
2058.48	11.5955
2059.95	11.5092
2061.41	10.6954
2062.87	10.3636
2064.33	10.4668
2065.79	10.4409
2067.25	11.1226
2068.71	12.1186
2070.17	12.0364
2071.63	12.1888
2073.09	11.6976
2074.55	12.1111
2076.01	11.9712
2077.47	12.1798
2078.93	12.821
2080.39	13.271
2081.85	13.9241
2083.3	14.3383
2084.76	15.3768
2086.22	15.5804
2087.68	15.895
2089.13	16.6189
2090.59	17.7368
2092.05	17.3596
2093.5	17.659
2094.96	17.3887
2096.41	18.3303
2097.87	19.0417
2099.32	19.4511
2100.78	18.5843
2102.23	19.0493
2103.69	19.7084
2105.14	20.621
2106.59	21.5849
2108.05	22.2761
2109.5	23.6727
2110.95	23.6431
2112.41	24.9735
2113.86	25.5434
2115.31	27.3261
2116.76	28.7102
2118.21	29.0609
2119.67	28.7861
2121.12	29.1801
2122.57	29.5597
2124.02	30.738
2125.47	31.1811
2126.92	31.4729
2128.37	32.058
2129.82	32.8591
2131.27	33.4916
2132.71	34.0354
2134.16	34.7614
2135.61	36.0316
2137.06	36.5474
2138.51	37.4491
2139.95	38.4349
2141.4	39.1801
2142.85	39.2418
2144.29	39.9772
2145.74	40.7337
2147.19	41.6207
2148.63	43.1185
2150.08	44.9095
2151.52	46.3217
2152.97	47.5943
2154.42	48.3512
2155.86	49.471
2157.3	50.3735
2158.75	51.2824
2160.19	52.0926
2161.64	53.0159
2163.08	53.4229
2164.52	53.3373
2165.96	53.6185
2167.41	54.6111
2168.85	54.496
2170.29	55.0993
2171.73	54.7835
2173.17	54.9632
2174.61	55.4853
2176.06	55.6621
2177.5	55.2987
2178.94	56.1945
2180.38	56.3702
2181.82	56.4071
2183.26	55.7478
2184.7	55.607
2186.14	54.447
2187.57	54.1796
2189.01	53.2709
2190.45	51.4636
2191.89	50.7116
2193.33	51.4205
2194.76	51.1204
2196.2	50.9179
2197.64	49.5317
2199.08	49.0611
2200.51	49.1122
2201.95	48.8228
2203.38	47.0991
2204.82	46.1911
2206.25	45.6116
2207.69	44.4538
2209.12	42.997
2210.56	42.1935
2211.99	41.1152
2213.43	39.5182
2214.86	38.1737
2216.3	37.2936
2217.73	36.5366
2219.16	35.911
2220.59	35.1037
2222.03	34.0014
2223.46	33.0658
2224.89	31.8747
2226.32	30.5075
2227.75	29.2652
2229.19	27.6913
2230.62	27.3675
2232.05	25.7989
2233.48	24.6853
2234.91	23.3835
2236.34	22.1123
2237.77	20.7767
2239.2	19.2898
2240.63	18.1743
2242.06	17.1644
2243.48	15.6789
2244.91	14.9096
2246.34	14.2116
2247.77	13.649
2249.2	12.8025
2250.62	13.3178
2252.05	12.2771
2253.48	11.7467
2254.9	11.1506
2256.33	11.3144
2257.76	10.6219
2259.18	11.0579
2260.61	10.8177
2262.03	10.8275
2263.46	11.4314
2264.88	12.0673
2266.31	11.8905
2267.73	12.1277
2269.16	12.0045
2270.58	12.8577
2272	13.1258
2273.43	12.4066
2274.85	11.9267
2276.27	13.0245
2277.69	13.6106
2279.12	13.4802
2280.54	13.6256
2281.96	13.6183
2283.38	13.2801
2284.8	13.3041
2286.22	13.3652
2287.64	13.849
2289.07	13.5299
2290.49	13.1753
2291.91	12.8507
2293.32	12.3522
2294.74	12.0879
2296.16	11.795
2297.58	11.7379
2299	11.7224
2300.42	12.0434
2301.84	12.2711
2303.26	11.9293
2304.67	11.6605
2306.09	11.4236
2307.51	10.8663
2308.92	9.98496
2310.34	9.97223
2311.76	10.0769
2313.17	9.39587
2314.59	9.11803
2316	9.23012
2317.42	9.38649
2318.83	9.21806
2320.25	8.74833
2321.66	8.76352
2323.08	8.26128
2324.49	8.02949
2325.91	8.60904
2327.32	8.86716
2328.73	8.0254
2330.15	8.4853
2331.56	8.36303
2332.97	8.43876
2334.38	8.63991
2335.79	8.48463
2337.21	7.52514
2338.62	7.57634
2340.03	6.96651
2341.44	7.34419
2342.85	6.88003
2344.26	6.94405
2345.67	7.42956
2347.08	7.61162
2348.49	6.65505
2349.9	5.96604
2351.31	5.12258
2352.72	4.00474
2354.13	4.05683
2355.53	4.18801
2356.94	3.8433
2358.35	3.5779
2359.76	2.81109
2361.17	2.45376
2362.57	2.10111
2363.98	2.04719
2365.39	2.58481
2366.79	2.98665
2368.2	3.37754
2369.6	2.70023
2371.01	2.54692
2372.42	2.61422
2373.82	2.80689
2375.22	2.36507
2376.63	1.64563
2378.03	1.2489
2379.44	1.33432
2380.84	1.36826
2382.25	0.847164
2383.65	0.638904
2385.05	0.649282
2386.45	1.03553
2387.86	0.723343
2389.26	0.671548
2390.66	0.72757
2392.06	1.41445
2393.46	1.22047
2394.87	1.15703
2396.27	1.00679
2397.67	0.533489
2399.07	0.126699
2400.47	0.820861
2401.87	0.920806
2403.27	1.42738
2404.67	1.21042
2406.07	1.37254
2407.47	1.71932
2408.86	2.21909
2410.26	2.06939
2411.66	2.65932
2413.06	2.55464
2414.46	2.67661
2415.85	2.79762
2417.25	3.04611
2418.65	3.16952
2420.05	3.50712
2421.44	3.42188
2422.84	4.02693
2424.23	4.66495
2425.63	5.05691
2427.03	5.01513
2428.42	4.78932
2429.82	4.76546
2431.21	5.60595
2432.6	5.49178
2434	6.04377
2435.39	5.74871
2436.79	5.44686
2438.18	5.63589
2439.57	5.22156
2440.97	5.79261
2442.36	5.8805
2443.75	5.15042
2445.14	4.60465
2446.54	3.3693
2447.93	3.36592
2449.32	2.96265
2450.71	2.21022
2452.1	1.85513
2453.49	2.21743
2454.88	1.66014
2456.27	2.08111
2457.66	1.36151
2459.05	1.1973
2460.44	0.96933
2461.83	0.756475
2463.22	0.320572
2464.61	0.850154
2466	0.443643
2467.39	1.01505
2468.77	1.14933
2470.16	1.74684
2471.55	2.05557
2472.94	1.58044
2474.32	1.40422
2475.71	1.77792
2477.1	1.52476
2478.48	1.53062
2479.87	1.76684
2481.25	2.07176
2482.64	2.30817
2484.02	2.19791
2485.41	2.28779
2486.8	2.43601
2488.18	3.14303
2489.56	3.42739
2490.95	3.63949
2492.33	4.14746
2493.72	4.34403
2495.1	4.90897
2496.48	5.10445
2497.86	5.05588
2499.25	5.53584
2500.63	5.3023
2502.01	5.08549
2503.39	5.33962
2504.77	5.13752
2506.16	5.42632
2507.54	5.21699
2508.92	5.13733
2510.3	4.69272
2511.68	4.15437
2513.06	3.70053
2514.44	3.38239
2515.82	2.7367
2517.2	3.2949
2518.58	3.10296
2519.95	2.80792
2521.33	2.80542
2522.71	3.21601
2524.09	2.84391
2525.47	3.25237
2526.84	2.35107
2528.22	1.96513
2529.6	2.40157
2530.98	2.51949
2532.35	2.65882
2533.73	3.00179
2535.11	2.21223
2536.48	2.33973
2537.86	2.13331
2539.23	2.61107
2540.61	2.93072
2541.98	2.39707
2543.36	3.00185
2544.73	3.02294
2546.1	3.62801
2547.48	4.41465
2548.85	4.41503
2550.23	4.34337
2551.6	4.64675
2552.97	4.37021
2554.34	4.53769
2555.72	5.48005
2557.09	6.16498
2558.46	5.55406
2559.83	6.11456
2561.2	6.40346
2562.58	6.67028
2563.95	6.56625
2565.32	5.99859
2566.69	5.98748
2568.06	5.52425
2569.43	4.6633
2570.8	4.92729
2572.17	4.2544
2573.54	4.15861
2574.91	3.70248
2576.27	3.38285
2577.64	3.44428
2579.01	2.57427
2580.38	2.4862
2581.75	2.2176
2583.11	1.43083
2584.48	1.68794
2585.85	1.8068
2587.21	1.92901
2588.58	1.96833
2589.95	2.13637
2591.31	2.2253
2592.68	2.05401
2594.04	1.47123
2595.41	0.969528
2596.78	1.60627
2598.14	2.13761
2599.51	1.98082
2600.87	2.15039
2602.23	2.34414
2603.6	2.36121
2604.96	2.28057
2606.32	3.53884
2607.69	4.38075
2609.05	4.51011
2610.41	4.71188
2611.77	6.07575
2613.14	5.97688
2614.5	6.17451
2615.86	6.15279
2617.22	6.08107
2618.58	6.34192
2619.94	6.6521
2621.3	6.64802
2622.67	7.37929
2624.03	7.93302
2625.39	8.37077
2626.75	7.9925
2628.1	8.01504
2629.46	7.11426
2630.82	7.16108
2632.18	7.155
2633.54	7.1247
2634.9	7.00376
2636.26	6.42405
2637.61	6.31805
2638.97	6.38566
2640.33	6.4116
2641.69	7.16701
2643.04	7.38522
2644.4	7.48767
2645.76	7.20891
2647.11	7.50997
2648.47	8.28525
2649.82	7.80647
2651.18	7.4162
2652.53	8.28177
2653.89	8.30647
2655.24	8.02143
2656.6	7.90808
2657.95	8.32555
2659.31	8.19867
2660.66	7.50697
2662.01	6.6133
2663.37	6.09859
2664.72	6.76541
2666.07	6.01024
2667.43	5.5723
2668.78	5.55461
2670.13	5.8112
2671.48	5.81542
2672.83	5.44089
2674.18	6.0115
2675.53	5.27669
2676.89	4.97818
2678.24	5.56608
2679.59	5.69589
2680.94	5.03399
2682.29	4.27026
2683.64	4.81267
2684.99	5.06156
2686.34	5.03907
2687.68	4.46684
2689.03	4.64162
2690.38	4.73174
2691.73	4.64663
2693.08	4.8734
2694.43	4.62632
2695.77	4.78805
2697.12	5.35078
2698.47	6.07653
2699.81	6.33526
2701.16	6.50674
2702.51	6.46202
2703.85	7.1872
2705.2	7.66159
2706.54	8.78679
2707.89	9.58047
2709.23	10.3277
2710.58	10.9513
2711.92	10.7504
2713.27	10.5808
2714.61	11.1702
2715.96	11.6251
2717.3	11.4596
2718.64	12.0111
2719.99	12.295
2721.33	12.0542
2722.67	12.0357
2724.01	12.2162
2725.36	12.5234
2726.7	11.8945
2728.04	11.6926
2729.38	11.5407
2730.72	11.4949
2732.06	11.4922
2733.41	11.312
2734.75	11.8778
2736.09	11.9504
2737.43	11.7307
2738.77	11.0382
2740.11	10.9846
2741.44	10.6535
2742.78	10.4525
2744.12	10.4444
2745.46	10.0148
2746.8	9.45036
2748.14	8.77401
2749.48	8.78729
2750.81	9.78489
2752.15	9.48479
2753.49	9.23976
2754.83	9.22704
2756.16	9.93385
2757.5	9.75443
2758.84	9.7182
2760.17	9.0854
2761.51	9.0224
2762.84	8.86333
2764.18	9.2296
2765.51	8.98822
2766.85	8.86804
2768.18	8.51276
2769.52	8.11117
2770.85	7.92516
2772.19	7.65916
2773.52	7.46068
2774.85	6.9078
2776.19	6.75002
2777.52	6.38777
2778.85	6.10915
2780.18	5.91173
2781.52	6.09356
2782.85	6.05823
2784.18	5.77983
2785.51	5.80859
2786.84	5.71595
2788.17	5.72763
2789.51	6.23723
2790.84	5.58881
2792.17	5.13692
2793.5	4.4414
2794.83	4.13347
2796.16	4.52215
2797.48	3.87986
2798.81	3.47364
2800.14	3.82107
2801.47	3.38034
2802.8	2.62548
2804.13	2.91103
2805.46	3.10139
2806.79	3.47978
2808.11	3.44024
2809.44	3.68114
2810.77	3.95836
2812.09	4.12561
2813.42	5.08588
2814.75	5.36081
2816.07	6.03742
2817.4	5.97568
2818.73	6.04525
2820.05	6.12754
2821.38	6.4314
2822.7	6.87002
2824.03	7.92061
2825.35	8.41744
2826.67	9.33716
2828	10.6378
2829.32	11.6138
2830.65	12.0941
2831.97	12.9733
2833.29	14.4218
2834.62	15.8734
2835.94	17.5186
2837.26	18.8098
2838.58	20.6219
2839.9	21.6926
2841.23	23.7065
2842.55	25.7882
2843.87	27.7524
2845.19	29.587
2846.51	30.8032
2847.83	32.7748
2849.15	35.2784
2850.47	37.063
2851.79	39.1229
2853.11	40.8291
2854.43	42.7938
2855.75	44.5641
2857.07	45.5352
2858.39	47.168
2859.71	49.4035
2861.02	51.3794
2862.34	53.451
2863.66	53.7047
2864.98	56.0946
2866.3	57.7614
2867.61	59.3642
2868.93	60.6868
2870.25	62.0461
2871.56	62.9908
2872.88	64.2543
2874.19	65.6744
2875.51	66.4878
2876.83	67.388
2878.14	68.3512
2879.46	68.9229
2880.77	69.3929
2882.09	70.639
2883.4	71.4762
2884.71	72.3151
2886.03	73.5429
2887.34	74.8656
2888.65	76.302
2889.97	77.5555
2891.28	77.8681
2892.59	79.4654
2893.91	80.1827
2895.22	81.8909
2896.53	83.1793
2897.84	85.1087
2899.15	87.0959
2900.46	88.3908
2901.78	90.0763
2903.09	91.9717
2904.4	94.0608
2905.71	96.3129
2907.02	99.8919
2908.33	102.309
2909.64	104.909
2910.95	107.532
2912.26	109.927
2913.57	112.924
2914.87	116.126
2916.18	118.807
2917.49	121.354
2918.8	124.558
2920.11	126.687
2921.42	128.685
2922.72	130.985
2924.03	133.705
2925.34	136.007
2926.64	137.537
2927.95	138.546
2929.26	139.143
2930.56	140.163
2931.87	140.148
2933.17	140.367
2934.48	139.544
2935.78	139.238
2937.09	138.855
2938.39	138.253
2939.7	137.005
2941	135.441
2942.31	134.309
2943.61	132.888
2944.91	130.905
2946.22	129.191
2947.52	126.989
2948.82	124.497
2950.13	122.017
2951.43	119.656
2952.73	117.301
2954.03	114.503
2955.33	111.647
2956.64	108.34
2957.94	105.961
2959.24	102.671
2960.54	100.32
2961.84	97.2943
2963.14	94.9592
2964.44	92.1571
2965.74	89.4806
2967.04	87.3863
2968.34	85.3389
2969.64	82.5294
2970.94	80.2934
2972.24	78.2746
2973.53	75.5619
2974.83	73.3799
2976.13	70.9097
2977.43	68.7235
2978.73	66.9995
2980.02	65.169
2981.32	63.2124
2982.62	61.8002
2983.91	60.6484
2985.21	58.3091
2986.51	56.3222
2987.8	53.1002
2989.1	50.3064
2990.4	46.77
2991.69	43.7224
2992.99	40.8174
2994.28	38.021
2995.57	35.9326
2996.87	33.4457
2998.16	30.9476
2999.46	28.3965
3000.75	26.9299
3002.05	24.9112
3003.34	23.1658
3004.63	20.9866
3005.92	19.5433
3007.22	18.2312
3008.51	16.7267
3009.8	14.7888
3011.09	13.8694
3012.39	12.6372
3013.68	11.5492
3014.97	9.99863
3016.26	8.59201
3017.55	7.52196
3018.84	6.17309
3020.13	5.22395
3021.42	4.51875
3022.71	4.33769
3024	3.62828
3025.29	3.26642
3026.58	2.78344
3027.87	2.94673
3029.16	2.78616
3030.45	2.56976
3031.73	2.77868
3033.02	2.84121
3034.31	2.74129
3035.6	3.60675
3036.89	3.82845
3038.17	4.29954
3039.46	4.4763
3040.75	4.97324
3042.03	6.05303
3043.32	6.68065
3044.61	7.77612
3045.89	7.90589
3047.18	8.1236
3048.46	7.63855
3049.75	6.76879
3051.03	6.23666
3052.32	6.05972
3053.6	6.72854
3054.89	7.13217
3056.17	7.62435
3057.45	7.66629
3058.74	7.81177
3060.02	8.68032
3061.31	7.97789
3062.59	7.95713
3063.87	8.34484
3065.15	8.89066
3066.44	8.50222
3067.72	8.13345
3069	8.20026
3070.28	8.40665
3071.56	8.04326
3072.84	7.95789
3074.13	7.82701
3075.41	8.16327
3076.69	7.12083
3077.97	6.49146
3079.25	6.3963
3080.53	5.95228
3081.81	5.85154
3083.09	5.99787
3084.37	5.78807
3085.64	5.98065
3086.92	5.46924
3088.2	4.8113
3089.48	4.39971
3090.76	3.96501
3092.04	3.97899
3093.31	3.68799
3094.59	3.35234
3095.87	3.67799
3097.14	4.15746
3098.42	4.0156
3099.7	3.7398
3100.97	3.24129
3102.25	3.74404
3103.53	3.32234
3104.8	3.24
3106.08	3.04106
3107.35	2.30174
3108.63	2.1266
3109.9	1.93299
3111.18	2.04786
3112.45	2.07523
3113.73	2.65921
3115	3.24427
3116.27	3.00824
3117.55	2.52356
3118.82	2.53648
3120.09	2.41175
3121.37	2.37955
3122.64	2.69706
3123.91	2.99277
3125.18	2.65944
3126.45	3.3841
3127.73	3.90665
3129	3.79428
3130.27	3.46247
3131.54	3.9718
3132.81	4.91306
3134.08	4.84766
3135.35	5.42078
3136.62	6.44112
3137.89	6.9251
3139.16	7.4015
3140.43	7.5545
3141.7	8.12288
3142.97	8.69281
3144.24	9.09604
3145.51	9.47198
3146.78	9.82976
3148.04	10.9235
3149.31	12.2718
