#Acq. time (s)=	45
#Accumulations=	2
#Range (cm-¹)=	200...3150
#Windows=	2
#Auto scanning=	Off
#Autofocus=	Off
#Macrospot=	Off
#AutoExposure=	Off
#Spike filter=	Multiple accum.
#Delay time (s)=	0
#Binning=	1
#Readout mode=	Signal
#DeNoise=	Off
#ICS correction=	On
#Dark correction=	Off
#Inst. Process=	Off
#Detector Gain=	Best Dynamic Range
#Detector ADC=	20 kHz       
#Detector temperature (°C)=	-69.85
#Instrument=	LabRAM HR Evol
#Detector=	Synapse
#Objective=	x100
#Grating=	600 gr/mm
#ND Filter=	100%
#Laser (nm)=	532 
#Hole=	100.021
#Range=	Auto
#Laser Pol.=	No
#Raman. Pol.=	No
#Laser Pol. (°)=	-0.0007625
#Raman Pol. (°)=	89.9995
#Collection=	Microscope
#StageXY=	Marzhauser
#StageZ=	Marzhauser
#X (µm)=	-1149.3
#Y (µm)=	672.7
#Z (µm)=	584.4
#Full time(mm:ss)=	3:18
#Project=	
#Sample=	
#Site=	
#Title=	Mb_40_y_45_2x_45s_532 nm_x100_100%_600 gr_mm
#Remark=	
#Date=	19.07.2022 13:14
#Acquired=	19.07.2022 13:14:16
#Edit:Spike=	19.07.2022 13:18:17
#Edit:Spike=	19.07.2022 13:18:18
#Base:Fit=	10.08.2022 10:52:48
#Base:Sub=	10.08.2022 10:52:53
#Filter:Polynom=	16.08.2022 10:09:04
#AxisType[0]=Intens
#AxisUnit[0]=Cnt
#AxisType[1]=Spectr
#AxisUnit[1]=1/cm
200.423	17.4873
202.238	17.124
204.052	17.4147
205.868	17.6492
207.682	18.0157
209.495	18.5973
211.308	18.7061
213.12	18.5357
214.935	17.8926
216.746	17.9248
218.558	18.3904
220.369	18.7793
222.18	18.3602
223.992	18.5664
225.802	17.675
227.612	17.4002
229.421	15.5844
231.23	14.4353
233.039	14.2373
234.849	14.3243
236.657	13.1125
238.465	11.9432
240.272	11.5915
242.079	10.3807
243.885	9.28248
245.691	9.54759
247.497	9.4989
249.305	8.50205
251.11	7.20989
252.915	5.9939
254.719	6.81953
256.523	7.8715
258.327	7.54087
260.13	6.65153
261.933	5.78968
263.736	5.45889
265.538	5.63315
267.34	6.45971
269.141	5.45555
270.943	5.56782
272.744	4.90321
274.544	3.7881
276.344	4.54807
278.144	4.92929
279.944	5.57326
281.743	7.21735
283.542	8.44882
285.34	8.73244
287.138	8.82692
288.936	9.61263
290.733	10.2533
292.53	12.2008
294.327	13.5371
296.123	13.9773
297.919	14.9524
299.715	15.0002
301.508	15.1563
303.303	15.9066
305.098	16.3495
306.892	17.3418
308.686	17.7954
310.479	18.9001
312.273	19.4237
314.065	20.1689
315.858	19.5986
317.648	19.7686
319.44	18.7641
321.231	19.327
323.022	19.4236
324.813	19.2871
326.604	17.9114
328.392	17.8017
330.181	17.9784
331.971	16.9129
333.76	16.5194
335.548	16.9301
337.335	15.853
339.123	14.3969
340.91	14.7081
342.698	14.8623
344.483	15.6823
346.269	13.3829
348.055	13.1432
349.841	11.9895
351.625	12.0199
353.41	10.2432
355.195	9.81683
356.977	9.12198
358.762	8.98533
360.545	8.60251
362.329	7.12694
364.11	7.39057
365.893	7.31878
367.675	7.11837
369.455	6.50285
371.237	6.87995
373.017	6.01699
374.798	6.85329
376.578	7.04034
378.357	7.37854
380.137	7.79787
381.917	7.13579
383.694	7.48253
385.473	7.03004
387.249	6.28562
389.028	5.96845
390.806	6.33927
392.581	6.59047
394.359	6.75138
396.134	8.29934
397.91	9.57511
399.684	9.55799
401.46	8.84744
403.234	8.76012
405.009	8.34084
406.784	7.86075
408.557	7.23135
410.331	7.28241
412.103	7.94411
413.876	8.23875
415.647	7.51218
417.42	7.82065
419.191	7.49754
420.961	7.04026
422.733	5.71333
424.502	5.9195
426.273	5.06618
428.042	5.3492
429.812	6.24258
431.58	5.80881
433.35	5.43803
435.118	5.23429
436.885	6.10021
438.653	4.74117
440.42	3.8448
442.188	2.80835
443.954	3.22528
445.719	2.78302
447.486	2.57621
449.251	1.17448
451.015	1.4794
452.781	3.01901
454.545	2.3819
456.308	2.77946
458.073	2.52241
459.836	3.04314
461.598	3.14358
463.362	4.0746
465.124	4.10352
466.885	4.31288
468.648	3.84124
470.408	2.9059
472.169	3.24936
473.929	3.10723
475.69	2.65086
477.45	4.25259
479.208	5.40443
480.967	6.26466
482.727	5.52806
484.485	6.48129
486.243	5.67337
488	5.71866
489.759	7.4623
491.515	7.84857
493.272	7.96532
495.028	7.64003
496.783	7.84631
498.54	8.81802
500.295	8.91738
502.05	7.92524
503.804	7.77842
505.558	7.94465
507.311	7.18726
509.064	7.45355
510.819	6.24387
512.572	7.76429
514.324	7.89483
516.076	9.02121
517.827	9.3131
519.578	8.91014
521.329	9.30979
523.08	9.52705
524.83	9.01298
526.58	8.4473
528.329	9.55377
530.08	9.76834
531.829	9.32784
533.578	10.0088
535.326	10.3447
537.074	10.138
538.821	10.4941
540.568	10.5886
542.315	8.90389
544.062	9.29326
545.808	9.06857
547.554	10.066
549.299	10.4909
551.044	9.81362
552.789	9.58799
554.533	8.51933
556.278	7.61034
558.019	7.99188
559.763	8.85867
561.506	8.97148
563.249	8.4546
564.991	8.091
566.733	7.79964
568.475	7.277
570.217	5.99043
571.958	6.61971
573.699	5.62208
575.439	5.72388
577.177	5.81183
578.917	4.45822
580.656	4.42173
582.396	4.78423
584.134	4.59606
585.873	4.13524
587.609	3.34395
589.347	2.64303
591.084	2.62275
592.822	2.50024
594.558	2.4144
596.295	2.26941
598.029	2.33716
599.765	2.93283
601.5	3.47714
603.235	3.83845
604.968	4.36069
606.703	3.95644
608.437	3.99071
610.171	4.02572
611.902	4.61517
613.635	5.04168
615.368	5.25928
617.099	4.88963
618.831	5.11723
620.563	4.7233
622.294	3.32861
624.024	3.13472
625.755	3.30646
627.485	2.6506
629.213	2.80826
630.943	4.13965
632.673	4.58902
634.4	5.46971
636.129	4.81746
637.855	4.84388
639.584	5.6438
641.312	5.19539
643.037	5.40705
644.764	5.32283
646.491	6.10827
648.216	6.0549
649.942	6.02286
651.666	6.05273
653.392	6.84728
655.115	6.62264
656.84	5.60363
658.563	6.98365
660.287	7.3574
662.011	8.8278
663.732	10.2829
665.456	10.1684
667.177	10.6077
668.899	10.2557
670.62	9.23787
672.342	9.53711
674.061	9.97109
675.781	10.1345
677.502	11.1269
679.22	11.1444
680.941	10.8722
682.659	11.5387
684.379	12.9569
686.096	13.3907
687.815	14.5047
689.532	14.935
691.248	15.7529
692.966	15.6705
694.682	16.2281
696.4	16.7536
698.115	16.8685
699.829	17.9849
701.546	18.3622
703.26	19.6079
704.974	19.2948
706.689	19.9089
708.402	21.4782
710.115	21.8101
711.83	22.5694
713.542	23.2996
715.254	24.8932
716.967	26.0548
718.679	26.6503
720.39	27.2788
722.102	27.4089
723.812	27.4623
725.522	27.7968
727.232	28.7727
728.943	29.7254
730.652	30.008
732.361	31.0918
734.069	32.141
735.779	32.2918
737.487	33.5382
739.194	34.5874
740.901	35.0477
742.608	36.5899
744.316	38.8866
746.022	38.5125
747.728	40.3006
749.433	41.0498
751.138	41.0799
752.843	41.941
754.549	43.2954
756.254	44.459
757.957	45.7098
759.661	46.1214
761.364	46.848
763.067	47.6286
764.769	49.7761
766.471	51.7365
768.175	53.0597
769.877	53.6871
771.578	54.6928
773.279	55.1671
774.98	55.8756
776.68	56.5893
778.38	57.4339
780.079	58.9099
781.779	60.6533
783.478	62.4108
785.176	63.5514
786.875	63.8854
788.573	64.1252
790.27	64.3052
791.968	66.0501
793.665	66.429
795.361	66.2478
797.058	67.0501
798.754	66.1222
800.45	66.3579
802.145	66.4561
803.84	66.1489
805.535	66.3973
807.23	65.6116
808.922	65.3985
810.616	65.321
812.309	65.1828
814.002	64.2679
815.695	63.6051
817.388	63.1242
819.08	63.132
820.772	60.9999
822.464	60.596
824.153	59.0036
825.844	57.6858
827.535	56.7827
829.225	56.5293
830.915	55.676
832.605	55.7217
834.292	54.5753
835.981	53.327
837.67	52.9102
839.359	52.411
841.047	50.9162
842.732	50.4769
844.42	49.8045
846.107	49.4832
847.794	49.2365
849.479	49.4715
851.165	48.1904
852.851	48.1413
854.534	48.1287
856.22	48.3341
857.905	47.7597
859.589	48.2075
861.272	48.4629
862.956	47.998
864.639	47.6082
866.321	47.2486
868.004	46.5133
869.687	46.8511
871.367	47.7402
873.049	47.307
874.731	48.1408
876.41	48.3432
878.092	47.6976
879.771	47.3587
881.451	46.2765
883.131	46.0977
884.809	46.6121
886.489	46.8015
888.166	45.4902
889.845	45.8715
891.522	45.195
893.2	44.6819
894.878	44.411
896.554	43.754
898.231	42.2187
899.906	40.8423
901.583	39.5619
903.258	39.2308
904.934	38.2868
906.608	37.6879
908.283	37.1437
909.956	37.4568
911.631	37.4961
913.304	38.8155
914.976	38.3674
916.65	37.9672
918.322	38.0706
919.995	37.7714
921.666	38.349
923.339	38.0872
925.009	37.8409
926.679	38.5655
928.351	39.2067
930.021	39.0961
931.692	39.8496
933.361	40.8383
935.029	40.4383
936.699	40.847
938.367	40.1453
940.035	39.8687
941.704	38.1381
943.371	37.7928
945.038	36.4096
946.706	35.503
948.372	35.9484
950.038	36.2497
951.705	36.5657
953.37	36.9314
955.035	36.515
956.7	35.2848
958.366	34.2996
960.03	32.9043
961.693	32.4201
963.357	31.7452
965.021	31.347
966.684	30.7055
968.346	30.6803
970.008	30.3789
971.67	29.3486
973.334	29.7989
974.995	28.9987
976.655	27.5413
978.316	26.9015
979.976	25.3492
981.638	23.8235
983.297	23.6088
984.957	23.116
986.616	22.5402
988.274	20.9508
989.932	18.9235
991.59	17.9968
993.248	16.5375
994.907	13.6275
996.565	12.2493
998.221	8.85338
999.878	6.63391
1001.53	3.82377
1003.19	2.68282
1004.85	4.05983
1006.5	5.04626
1008.16	9.35966
1009.81	14.0623
1011.46	20.0807
1013.12	26.252
1014.77	34.2098
1016.43	42.3301
1018.08	50.2447
1019.73	58.5148
1021.38	65.5906
1023.04	73.2132
1024.69	80.6871
1026.34	88.7149
1027.99	95.4147
1029.64	101.549
1031.29	107.629
1032.94	111.991
1034.59	116.738
1036.24	119.895
1037.89	123.114
1039.54	125.342
1041.19	126.751
1042.84	129.663
1044.48	132.152
1046.13	131.558
1047.78	131.555
1049.42	130.109
1051.07	129.768
1052.72	126.933
1054.36	124.068
1056.01	120.365
1057.66	115.894
1059.3	109.917
1060.94	104.438
1062.59	97.571
1064.23	90.3151
1065.88	83.389
1067.52	74.8255
1069.16	66.4942
1070.81	57.3306
1072.45	48.0349
1074.09	39.881
1075.73	32.1149
1077.38	25.0301
1079.02	19.7996
1080.66	13.2842
1082.3	9.43521
1083.94	6.50461
1085.58	5.82504
1087.22	5.63917
1088.86	6.17045
1090.5	8.7598
1092.13	9.34639
1093.77	11.5471
1095.41	13.1268
1097.05	15.366
1098.68	16.7282
1100.32	17.3318
1101.96	17.8316
1103.6	18.9059
1105.23	19.2085
1106.87	20.2994
1108.5	19.7553
1110.14	20.3846
1111.77	20.9612
1113.41	21.4023
1115.04	21.0023
1116.67	20.6296
1118.31	19.2279
1119.94	19.1975
1121.58	18.8525
1123.21	18.9189
1124.84	19.4687
1126.47	18.6034
1128.1	17.1308
1129.73	16.4606
1131.37	15.4927
1133	14.7774
1134.63	13.9917
1136.26	12.5073
1137.89	11.6245
1139.52	10.7761
1141.14	10.3072
1142.77	9.23694
1144.4	8.84016
1146.03	8.50043
1147.66	6.96354
1149.29	7.31488
1150.91	7.10745
1152.54	6.77278
1154.17	7.94843
1155.79	8.26081
1157.42	8.35729
1159.04	8.68731
1160.67	8.81159
1162.3	7.74153
1163.92	7.86546
1165.55	7.27612
1167.17	7.5898
1168.79	7.79191
1170.42	9.0088
1172.04	9.01089
1173.66	8.98978
1175.28	9.98934
1176.91	10.0551
1178.53	11.0267
1180.15	11.7018
1181.77	11.8103
1183.39	11.6042
1185.01	12.0071
1186.63	12.0392
1188.25	12.8044
1189.87	12.0089
1191.49	12.0315
1193.11	12.0335
1194.73	11.3095
1196.35	11.0219
1197.97	10.8227
1199.59	12.4221
1201.2	13.4959
1202.82	14.5831
1204.44	15.9959
1206.05	16.1549
1207.67	15.8869
1209.29	16.3231
1210.9	17.2837
1212.52	19.0378
1214.13	19.0126
1215.75	20.2964
1217.36	20.2671
1218.97	21.4373
1220.59	22.2583
1222.2	22.9175
1223.82	23.8437
1225.43	25.8863
1227.04	26.117
1228.65	27.0641
1230.26	29.2967
1231.88	29.6194
1233.49	30.2824
1235.1	30.7387
1236.71	29.841
1238.32	29.9174
1239.93	31.5448
1241.54	32.8579
1243.15	32.9513
1244.76	34.0993
1246.37	34.4261
1247.97	35.5873
1249.58	35.0709
1251.19	35.703
1252.8	36.3127
1254.41	37.0188
1256.01	38.025
1257.62	38.2534
1259.23	38.567
1260.83	38.4356
1262.44	38.0217
1264.04	38.5383
1265.65	39.2716
1267.25	39.2164
1268.86	39.7597
1270.46	40.4633
1272.07	41.4507
1273.67	42.9241
1275.27	43.3836
1276.88	45.1896
1278.48	47.4462
1280.08	49.728
1281.68	50.3668
1283.28	50.9646
1284.89	51.2869
1286.49	50.9246
1288.09	51.6155
1289.69	52.6094
1291.29	52.5662
1292.89	53.4125
1294.49	52.9752
1296.09	53.9102
1297.69	53.6275
1299.29	53.721
1300.88	54.517
1302.48	54.0971
1304.08	53.7747
1305.68	52.0166
1307.27	51.5935
1308.87	51.2264
1310.47	50.3865
1312.06	49.5043
1313.66	48.9975
1315.25	48.4901
1316.85	48.5028
1318.44	48.1683
1320.04	48.8611
1321.63	49.0551
1323.23	47.0988
1324.82	47.0359
1326.41	45.6544
1328.01	45.7152
1329.6	45.6587
1331.19	46.8371
1332.78	46.5879
1334.38	46.7852
1335.97	47.1105
1337.56	46.9527
1339.15	46.5492
1340.74	47.1352
1342.33	47.2225
1343.92	47.0713
1345.51	46.8091
1347.1	47.4628
1348.69	48.1382
1350.28	48.6791
1351.87	49.4053
1353.46	49.1193
1355.04	49.2785
1356.63	50.0722
1358.22	49.69
1359.81	48.1124
1361.39	46.3073
1362.98	44.7744
1364.57	44.8097
1366.15	45.0154
1367.74	44.5466
1369.32	43.9101
1370.91	42.9959
1372.49	43.2084
1374.07	41.8659
1375.66	40.4244
1377.24	40.1309
1378.83	38.9242
1380.41	38.5503
1381.99	37.2068
1383.57	37.1913
1385.16	37.0852
1386.74	37.6756
1388.32	37.2991
1389.9	37.4569
1391.48	36.5815
1393.06	36.5181
1394.64	35.826
1396.22	35.5723
1397.8	35.0799
1399.38	36.1686
1400.96	36.5545
1402.54	36.8541
1404.12	37.7874
1405.7	38.0871
1407.28	40.2549
1408.85	41.9009
1410.43	42.5356
1412.01	42.9906
1413.58	45.9584
1415.16	47.4581
1416.74	49.2033
1418.31	49.939
1419.89	51.866
1421.46	53.5608
1423.04	55.078
1424.61	57.2806
1426.19	59.3136
1427.76	60.9275
1429.33	63.1313
1430.91	64.7666
1432.48	65.8294
1434.05	67.5784
1435.63	70.0548
1437.2	71.6225
1438.77	72.4776
1440.34	74.3696
1441.91	75.9456
1443.49	76.7659
1445.05	77.6493
1446.63	78.5382
1448.2	79.8348
1449.77	80.4314
1451.34	81.2494
1452.91	80.9651
1454.47	81.2398
1456.04	81.9129
1457.61	82.1566
1459.18	82.7974
1460.75	82.8875
1462.31	83.2566
1463.88	83.0327
1465.45	82.3891
1467.01	82.4314
1468.58	82.1255
1470.15	80.1019
1471.71	79.5159
1473.28	78.1409
1474.84	77.1494
1476.41	76.164
1477.97	75.26
1479.54	72.7754
1481.1	71.3753
1482.66	69.4547
1484.23	68.1468
1485.79	66.0211
1487.35	63.554
1488.91	61.3437
1490.48	61.4305
1492.04	61.5438
1493.6	59.943
1495.16	58.7763
1496.72	57.4493
1498.28	56.8858
1499.84	55.1171
1501.4	53.6074
1502.96	52.9232
1504.52	51.6364
1506.08	50.7732
1507.64	49.9055
1509.2	47.9257
1510.76	46.8848
1512.31	45.4352
1513.87	44.3925
1515.43	42.5908
1516.99	40.6296
1518.54	40.3625
1520.1	39.2324
1521.66	37.5777
1523.21	36.958
1524.77	36.811
1526.32	35.3914
1527.88	33.9743
1529.43	32.8324
1530.99	32.1757
1532.54	31.4778
1534.09	31.7355
1535.65	32.7765
1537.2	32.9177
1538.75	32.8014
1540.31	33.0752
1541.86	32.9619
1543.41	32.709
1544.96	32.9285
1546.51	32.2838
1548.06	31.2224
1549.62	31.3979
1551.17	30.8903
1552.72	30.2997
1554.27	30.099
1555.82	29.1835
1557.36	28.2305
1558.91	27.7397
1560.46	27.4104
1562.01	27.5186
1563.56	28.0857
1565.11	29.3938
1566.66	31.4555
1568.2	33.9163
1569.75	34.6744
1571.3	34.8988
1572.84	35.7138
1574.39	36.601
1575.93	37.1927
1577.48	36.5814
1579.02	38.1282
1580.57	38.2515
1582.11	38.9132
1583.66	39.8082
1585.2	40.7922
1586.75	41.2408
1588.29	41.7982
1589.83	41.2476
1591.38	42.6127
1592.92	43.8638
1594.46	44.3182
1596	45.609
1597.54	44.6704
1599.09	44.2337
1600.63	44.5272
1602.17	44.8146
1603.71	44.7475
1605.25	45.1554
1606.79	45.2167
1608.33	45.6703
1609.87	45.6457
1611.41	46.1823
1612.95	45.9969
1614.48	45.6558
1616.02	44.878
1617.56	45.3446
1619.1	44.5699
1620.64	45.5077
1622.17	45.4342
1623.71	44.7625
1625.25	44.3496
1626.78	44.1092
1628.32	44.1172
1629.86	43.7341
1631.39	43.5463
1632.92	42.8584
1634.46	42.6859
1635.99	42.1056
1637.53	42.4223
1639.06	43.1457
1640.59	43.8231
1642.13	44.6606
1643.66	46.1443
1645.19	46.1747
1646.73	46.3136
1648.26	46.2719
1649.79	47.0345
1651.32	46.6599
1652.85	46.4841
1654.38	45.7804
1655.92	46.1241
1657.45	45.5073
1658.98	45.9304
1660.51	45.4184
1662.04	45.3303
1663.57	44.6094
1665.09	43.2624
1666.62	43.3934
1668.15	42.6912
1669.68	41.2971
1671.21	39.942
1672.73	38.7302
1674.26	37.7098
1675.79	36.5966
1677.31	36.0595
1678.84	35.5621
1680.37	34.59
1681.89	32.9875
1683.42	31.0931
1684.94	30.4289
1686.47	28.6924
1687.99	27.7429
1689.52	26.9528
1691.04	25.6051
1692.57	24.9552
1694.09	23.7577
1695.61	22.7852
1697.14	22.8416
1698.66	20.9998
1700.18	19.9943
1701.7	19.6057
1703.22	18.8609
1704.75	17.9053
1706.27	17.0558
1707.79	15.6172
1709.31	14.7218
1710.83	14.1889
1712.35	14.3176
1713.87	14.8041
1715.39	15.3006
1716.91	15.0998
1718.43	14.7934
1719.95	13.9262
1721.46	13.3714
1722.98	13.5309
1724.5	12.6577
1726.02	12.4536
1727.53	11.0394
1729.05	10.7442
1730.57	9.96169
1732.08	9.02713
1733.6	8.73839
1735.12	7.98638
1736.63	7.59202
1738.15	7.84261
1739.66	7.34968
1741.18	6.74648
1742.69	7.26638
1744.21	7.00361
1745.72	7.04721
1747.23	6.9531
1748.74	6.96374
1750.26	7.41548
1751.77	6.8404
1753.28	7.28625
1754.8	6.6446
1756.31	5.99084
1757.82	6.27427
1759.33	6.05652
1760.84	6.03388
1762.35	5.42492
1763.86	5.36919
1765.37	4.89867
1766.88	4.83084
1768.39	5.17369
1769.9	4.78929
1771.41	5.63533
1772.92	6.15055
1774.43	6.29321
1775.93	7.04889
1777.44	7.33823
1778.95	7.48603
1780.46	8.00002
1781.96	8.28191
1783.47	8.29637
1784.98	9.29237
1786.48	9.76981
1787.99	10.2254
1789.49	9.8931
1791	9.51304
1792.5	9.04225
1794.01	8.9588
1795.51	8.74896
1797.02	8.91177
1798.52	8.45798
1800.03	7.41889
1801.53	7.04101
1803.03	6.63483
1804.53	6.74166
1806.04	6.26628
1807.54	6.18089
1809.04	6.47551
1810.54	6.08314
1812.04	5.88209
1813.54	5.61715
1815.05	5.19225
1816.55	4.79464
1818.05	4.21324
1819.55	3.88043
1821.05	3.16313
1822.55	3.44283
1824.05	3.37728
1825.54	2.65899
1827.04	2.46985
1828.54	2.32961
1830.04	2.7001
1831.54	3.10573
1833.03	2.96457
1834.53	1.78077
1836.03	1.78883
1837.52	2.06913
1839.02	2.2365
1840.52	2.68886
1842.01	3.23655
1843.51	3.56501
1845	3.76469
1846.5	3.79728
1847.99	4.32428
1849.49	4.43958
1850.98	4.75066
1852.47	4.8991
1853.97	5.54649
1855.46	5.78572
1856.95	6.15244
1858.45	7.06805
1859.94	7.111
1861.43	7.52909
1862.92	7.48375
1864.41	7.74764
1865.91	7.70017
1867.4	8.14565
1868.89	9.17427
1870.38	9.54761
1871.87	8.85686
1873.36	8.451
1874.85	8.02236
1876.34	8.36424
1877.83	8.88319
1879.31	8.75443
1880.8	8.9063
1882.29	8.52944
1882.56	8.40748
1884.05	7.63826
1885.54	6.78645
1887.04	6.96419
1888.53	6.77783
1890.03	6.16186
1891.52	5.77885
1893.01	6.06432
1894.5	5.68301
1895.99	4.79191
1897.49	3.63268
1898.98	3.59168
1900.47	3.66031
1901.96	3.71705
1903.45	3.97986
1904.94	3.67934
1906.43	2.60576
1907.92	2.34096
1909.41	2.27398
1910.9	1.84255
1912.39	1.82894
1913.88	1.60326
1915.37	1.67555
1916.86	1.26292
1918.35	1.0725
1919.84	0.604363
1921.32	0.362215
1922.81	-0.111049
1924.3	-0.259525
1925.78	-0.0456575
1927.27	0.534228
1928.76	0.0409986
1930.24	-0.32541
1931.73	0.0049724
1933.21	-0.93297
1934.7	-1.01728
1936.18	-1.05784
1937.67	-0.395226
1939.15	0.41329
1940.64	1.08857
1942.12	1.3599
1943.6	0.484395
1945.09	0.691338
1946.57	1.79817
1948.05	2.62651
1949.54	3.60916
1951.02	4.20029
1952.5	3.65601
1953.98	3.59533
1955.46	3.34693
1956.94	3.38724
1958.42	3.3777
1959.91	3.12121
1961.39	3.16664
1962.87	2.97819
1964.34	2.83414
1965.82	3.54184
1967.3	3.59808
1968.78	3.54903
1970.26	2.42081
1971.74	3.10359
1973.22	4.18386
1974.7	4.31433
1976.17	4.74033
1977.65	5.32876
1979.13	5.4556
1980.6	5.22611
1982.08	5.41359
1983.56	5.19425
1985.03	6.30178
1986.51	6.98415
1987.98	6.57954
1989.46	6.5887
1990.93	5.77723
1992.41	5.02684
1993.88	4.42363
1995.36	4.49708
1996.83	4.35286
1998.3	3.97019
1999.78	4.28435
2001.25	4.07288
2002.72	3.43288
2004.2	3.69934
2005.67	4.42762
2007.14	4.38699
2008.61	5.30365
2010.08	5.75969
2011.55	6.23568
2013.02	6.24429
2014.49	5.96694
2015.97	6.43779
2017.43	6.22563
2018.9	7.45505
2020.37	7.87096
2021.84	7.736
2023.31	8.32046
2024.78	7.97761
2026.25	7.74185
2027.72	8.06471
2029.19	8.71432
2030.65	9.2859
2032.12	9.34639
2033.59	8.92014
2035.05	9.53689
2036.52	10.1493
2037.98	10.4505
2039.45	10.9923
2040.92	11.1786
2042.38	11.133
2043.85	11.5043
2045.31	12.8489
2046.78	12.7349
2048.24	12.8426
2049.71	12.9832
2051.17	13.7196
2052.63	13.5215
2054.1	13.5811
2055.56	14.0863
2057.02	13.3571
2058.48	13.9215
2059.95	13.7364
2061.41	13.7274
2062.87	14.2545
2064.33	14.0701
2065.79	13.8828
2067.25	13.5871
2068.71	12.6921
2070.17	11.6943
2071.63	11.4629
2073.09	11.6761
2074.55	11.0089
2076.01	10.9184
2077.47	10.8247
2078.93	10.7771
2080.39	10.849
2081.85	11.6238
2083.3	11.8465
2084.76	11.7382
2086.22	11.9959
2087.68	13.0265
2089.13	13.005
2090.59	13.0956
2092.05	13.5757
2093.5	14.1656
2094.96	14.1931
2096.41	15.3329
2097.87	15.5767
2099.32	16.6651
2100.78	17.3645
2102.23	18.3809
2103.69	18.8377
2105.14	18.5063
2106.59	18.8521
2108.05	19.2172
2109.5	19.484
2110.95	20.2646
2112.41	20.6302
2113.86	20.7976
2115.31	20.5769
2116.76	21.2828
2118.21	21.6346
2119.67	21.4897
2121.12	22.6593
2122.57	22.7231
2124.02	23.6292
2125.47	24.1197
2126.92	23.7265
2128.37	23.7356
2129.82	22.9722
2131.27	24.4032
2132.71	24.586
2134.16	24.6755
2135.61	24.5765
2137.06	24.4981
2138.51	23.7889
2139.95	23.8246
2141.4	24.719
2142.85	25.95
2144.29	26.9909
2145.74	27.5528
2147.19	28.6343
2148.63	29.9367
2150.08	30.4954
2151.52	32.4344
2152.97	33.3703
2154.42	34.4196
2155.86	34.2166
2157.3	35.2403
2158.75	36.5312
2160.19	37.4794
2161.64	38.3157
2163.08	39.3704
2164.52	40.7686
2165.96	42.2131
2167.41	42.9973
2168.85	44.6957
2170.29	45.4884
2171.73	45.7473
2173.17	46.3581
2174.61	46.2548
2176.06	46.0968
2177.5	45.4493
2178.94	45.1907
2180.38	44.629
2181.82	44.6271
2183.26	44.5888
2184.7	43.9213
2186.14	43.1382
2187.57	43.365
2189.01	43.4684
2190.45	42.9326
2191.89	41.6619
2193.33	40.7099
2194.76	40.0233
2196.2	39.3423
2197.64	38.2096
2199.08	36.498
2200.51	35.6377
2201.95	34.3818
2203.38	34.0096
2204.82	33.1036
2206.25	32.5642
2207.69	31.5067
2209.12	31.0014
2210.56	30.0315
2211.99	30.5554
2213.43	30.1997
2214.86	28.9391
2216.3	27.4804
2217.73	27.4198
2219.16	27.0479
2220.59	25.9827
2222.03	25.068
2223.46	25.0637
2224.89	24.3154
2226.32	23.9075
2227.75	23.5872
2229.19	23.9997
2230.62	23.0604
2232.05	23.287
2233.48	23.3475
2234.91	23.1712
2236.34	23.0037
2237.77	22.3837
2239.2	22.4
2240.63	22.7943
2242.06	21.8107
2243.48	20.7478
2244.91	20.6627
2246.34	19.2985
2247.77	19.0123
2249.2	18.3326
2250.62	17.4711
2252.05	16.2542
2253.48	15.3755
2254.9	14.3951
2256.33	13.8186
2257.76	13.3953
2259.18	13.3565
2260.61	12.7112
2262.03	11.4083
2263.46	10.4532
2264.88	9.78235
2266.31	9.79777
2267.73	8.53588
2269.16	8.13421
2270.58	6.90978
2272	5.96574
2273.43	6.09033
2274.85	6.50357
2276.27	6.81349
2277.69	7.20932
2279.12	6.56795
2280.54	6.71584
2281.96	6.82794
2283.38	6.4104
2284.8	6.08173
2286.22	5.89508
2287.64	5.61792
2289.07	6.14115
2290.49	5.28253
2291.91	4.92854
2293.32	4.63705
2294.74	5.11369
2296.16	5.5552
2297.58	6.48284
2299	7.38496
2300.42	7.87166
2301.84	8.8021
2303.26	9.61709
2304.67	9.79451
2306.09	10.726
2307.51	10.7379
2308.92	11.3684
2310.34	11.3874
2311.76	11.2381
2313.17	10.7578
2314.59	11.1743
2316	11.0522
2317.42	11.1343
2318.83	11.0843
2320.25	10.3419
2321.66	9.0951
2323.08	8.31143
2324.49	8.17246
2325.91	7.74533
2327.32	8.6398
2328.73	8.517
2330.15	8.27867
2331.56	8.15017
2332.97	7.54121
2334.38	7.28717
2335.79	7.22444
2337.21	7.18382
2338.62	6.88745
2340.03	6.94445
2341.44	6.37252
2342.85	5.97026
2344.26	6.4194
2345.67	5.83649
2347.08	5.56116
2348.49	4.77083
2349.9	3.82014
2351.31	4.00057
2352.72	4.29322
2354.13	4.33857
2355.53	4.9797
2356.94	4.94259
2358.35	4.44569
2359.76	4.82128
2361.17	4.02876
2362.57	4.40165
2363.98	4.97794
2365.39	5.85197
2366.79	6.26336
2368.2	6.84905
2369.6	6.60067
2371.01	7.18489
2372.42	7.91651
2373.82	7.73169
2375.22	7.5377
2376.63	7.54459
2378.03	6.23176
2379.44	6.55169
2380.84	5.71851
2382.25	6.14033
2383.65	6.24709
2385.05	6.55045
2386.45	6.52677
2387.86	5.81183
2389.26	5.38502
2390.66	5.21549
2392.06	4.47567
2393.46	4.62099
2394.87	4.79466
2396.27	4.86156
2397.67	5.92085
2399.07	5.03822
2400.47	4.64936
2401.87	4.95429
2403.27	4.84261
2404.67	4.98261
2406.07	4.81237
2407.47	4.66856
2408.86	4.5639
2410.26	4.26362
2411.66	4.29669
2413.06	3.87187
2414.46	4.15114
2415.85	4.18695
2417.25	4.7094
2418.65	4.36627
2420.05	5.0388
2421.44	5.95542
2422.84	6.16494
2424.23	6.51497
2425.63	6.31932
2427.03	5.44514
2428.42	5.47055
2429.82	5.69976
2431.21	5.42242
2432.6	6.22415
2434	6.90194
2435.39	7.09329
2436.79	7.41013
2438.18	7.22133
2439.57	6.81637
2440.97	6.858
2442.36	5.98824
2443.75	4.78939
2445.14	4.34261
2446.54	3.6333
2447.93	3.82179
2449.32	4.7319
2450.71	4.19165
2452.1	4.47561
2453.49	4.93167
2454.88	5.59998
2456.27	5.33927
2457.66	4.46566
2459.05	5.43041
2460.44	5.03333
2461.83	4.6841
2463.22	5.7072
2464.61	5.19199
2466	5.87032
2467.39	6.30297
2468.77	5.20644
2470.16	5.21319
2471.55	6.05034
2472.94	5.63828
2474.32	5.6021
2475.71	5.09739
2477.1	5.49444
2478.48	4.7268
2479.87	3.96525
2481.25	3.96301
2482.64	4.10623
2484.02	4.68698
2485.41	4.87642
2486.8	4.3028
2488.18	3.92623
2489.56	3.93384
2490.95	4.0471
2492.33	3.46315
2493.72	3.67821
2495.1	2.94349
2496.48	3.02741
2497.86	3.78625
2499.25	3.62326
2500.63	3.79385
2502.01	4.55613
2503.39	4.55117
2504.77	3.82614
2506.16	3.22253
2507.54	2.68274
2508.92	2.5798
2510.3	2.94388
2511.68	3.02799
2513.06	3.29856
2514.44	3.80869
2515.82	4.20762
2517.2	5.19455
2518.58	5.32589
2519.95	5.0381
2521.33	5.68003
2522.71	6.00337
2524.09	5.64611
2525.47	4.84513
2526.84	5.25073
2528.22	5.31974
2529.6	5.04864
2530.98	5.44186
2532.35	5.52342
2533.73	4.45818
2535.11	4.87586
2536.48	4.09537
2537.86	3.31261
2539.23	3.85293
2540.61	4.22005
2541.98	3.60322
2543.36	4.73365
2544.73	4.89189
2546.1	4.90059
2547.48	4.2596
2548.85	4.63179
2550.23	5.72389
2551.6	6.10809
2552.97	5.48155
2554.34	5.19338
2555.72	4.67802
2557.09	4.96017
2558.46	5.22515
2559.83	6.08227
2561.2	6.03805
2562.58	6.65028
2563.95	6.68466
2565.32	7.028
2566.69	7.468
2568.06	8.0853
2569.43	8.14046
2570.8	8.29165
2572.17	8.55804
2573.54	9.38117
2574.91	10.1956
2576.27	10.3812
2577.64	10.9633
2579.01	11.1263
2580.38	11.3953
2581.75	10.5394
2583.11	10.502
2584.48	10.9864
2585.85	10.7516
2587.21	10.6385
2588.58	10.1479
2589.95	9.72695
2591.31	8.92669
2592.68	8.56762
2594.04	8.43142
2595.41	8.43325
2596.78	6.70136
2598.14	6.30014
2599.51	5.35856
2600.87	4.45993
2602.23	3.9132
2603.6	3.49263
2604.96	3.72962
2606.32	2.8234
2607.69	2.10749
2609.05	2.13551
2610.41	2.10314
2611.77	2.49805
2613.14	1.40348
2614.5	0.597421
2615.86	0.561238
2617.22	0.40475
2618.58	0.33324
2619.94	-0.149661
2621.3	-0.402107
2622.67	0.175889
2624.03	0.515238
2625.39	1.07065
2626.75	0.739856
2628.1	1.13448
2629.46	1.27097
2630.82	2.00488
2632.18	2.03718
2633.54	2.50846
2634.9	3.31191
2636.26	3.66697
2637.61	4.24782
2638.97	5.05022
2640.33	6.60665
2641.69	6.88473
2643.04	7.02857
2644.4	7.08298
2645.76	8.20027
2647.11	8.40579
2648.47	8.63965
2649.82	9.32273
2651.18	10.7111
2652.53	11.2482
2653.89	11.1706
2655.24	11.5374
2656.6	11.4697
2657.95	11.82
2659.31	12.5065
2660.66	12.7238
2662.01	13.2465
2663.37	12.5835
2664.72	12.339
2666.07	13.0927
2667.43	13.5896
2668.78	14.5484
2670.13	15.0987
2671.48	14.8627
2672.83	15.1815
2674.18	14.3839
2675.53	14.2157
2676.89	14.5759
2678.24	13.8439
2679.59	13.5637
2680.94	13.3202
2682.29	12.8673
2683.64	12.7176
2684.99	12.0653
2686.34	12.0565
2687.68	11.9342
2689.03	12.4975
2690.38	12.0167
2691.73	11.5709
2693.08	11.1773
2694.43	10.8552
2695.77	11.4891
2697.12	11.4296
2698.47	10.9443
2699.81	10.2722
2701.16	10.0882
2702.51	10.0927
2703.85	10.4886
2705.2	10.939
2706.54	10.995
2707.89	11.4896
2709.23	11.2691
2710.58	11.4927
2711.92	11.545
2713.27	11.3464
2714.61	10.8273
2715.96	10.8777
2717.3	11.9493
2718.64	11.7654
2719.99	12.1938
2721.33	12.4119
2722.67	12.2605
2724.01	12.0914
2725.36	12.4804
2726.7	12.5509
2728.04	11.8236
2729.38	12.0261
2730.72	11.6955
2732.06	12.2424
2733.41	12.4565
2734.75	12.7738
2736.09	13.0382
2737.43	12.6043
2738.77	11.7257
2740.11	10.9818
2741.44	10.8913
2742.78	10.3879
2744.12	10.2447
2745.46	9.51611
2746.8	9.09424
2748.14	8.34938
2749.48	7.82545
2750.81	7.64788
2752.15	7.55506
2753.49	7.31091
2754.83	7.12933
2756.16	6.53748
2757.5	5.44518
2758.84	6.1877
2760.17	6.29726
2761.51	5.47127
2762.84	4.95097
2764.18	4.72216
2765.51	3.93212
2766.85	4.25171
2768.18	4.00304
2769.52	4.59801
2770.85	5.13923
2772.19	5.07832
2773.52	5.16977
2774.85	5.11035
2776.19	5.23279
2777.52	4.43076
2778.85	3.9693
2780.18	4.08142
2781.52	4.62012
2782.85	5.29308
2784.18	5.94427
2785.51	5.65498
2786.84	5.6113
2788.17	4.93029
2789.51	4.89953
2790.84	5.6501
2792.17	5.90932
2793.5	5.75924
2794.83	6.16641
2796.16	6.93908
2797.48	7.20459
2798.81	7.65965
2800.14	7.80538
2801.47	8.4095
2802.8	8.45334
2804.13	8.16768
2805.46	7.73158
2806.79	7.36682
2808.11	8.03762
2809.44	7.3763
2810.77	7.68244
2812.09	7.49622
2813.42	7.5237
2814.75	7.9405
2816.07	8.91796
2817.4	9.47412
2818.73	9.53437
2820.05	10.2813
2821.38	10.8146
2822.7	11.4236
2824.03	12.2169
2825.35	13.8521
2826.67	14.6864
2828	15.0928
2829.32	16.2119
2830.65	16.9814
2831.97	17.9808
2833.29	19.8709
2834.62	20.6823
2835.94	23.2601
2837.26	25.2032
2838.58	26.5512
2839.9	27.8686
2841.23	29.357
2842.55	30.9551
2843.87	32.3797
2845.19	34.3057
2846.51	36.2223
2847.83	38.1318
2849.15	40.087
2850.47	41.9475
2851.79	43.1628
2853.11	45.3363
2854.43	48.0699
2855.75	50.5857
2857.07	52.8954
2858.39	54.6049
2859.71	56.582
2861.02	59.0779
2862.34	60.952
2863.66	62.1341
2864.98	63.961
2866.3	65.1898
2867.61	67.2055
2868.93	68.3664
2870.25	68.7723
2871.56	69.5811
2872.88	70.3687
2874.19	71.5232
2875.51	72.3024
2876.83	73.083
2878.14	73.5507
2879.46	74.1893
2880.77	75.5439
2882.09	76.1626
2883.4	76.5088
2884.71	77.1174
2886.03	77.7232
2887.34	77.8019
2888.65	78.9553
2889.97	79.7542
2891.28	80.6993
2892.59	80.3165
2893.91	80.4109
2895.22	81.3321
2896.53	82.6169
2897.84	84.4893
2899.15	85.612
2900.46	86.4063
2901.78	88.3776
2903.09	89.1789
2904.4	90.3401
2905.71	91.1479
2907.02	93.1417
2908.33	94.9647
2909.64	97.0484
2910.95	98.6566
2912.26	100.43
2913.57	102.954
2914.87	105.584
2916.18	107.801
2917.49	110.094
2918.8	112.58
2920.11	114.443
2921.42	115.903
2922.72	117.158
2924.03	118.542
2925.34	119.198
2926.64	120.155
2927.95	121.101
2929.26	121.545
2930.56	122.528
2931.87	122.388
2933.17	122.783
2934.48	121.378
2935.78	121.325
2937.09	121.127
2938.39	120.202
2939.7	118.874
2941	117.694
2942.31	116.27
2943.61	115.15
2944.91	113.426
2946.22	111.108
2947.52	109.102
2948.82	107.273
2950.13	105.711
2951.43	103.157
2952.73	101.489
2954.03	98.8718
2955.33	95.8295
2956.64	93.3739
2957.94	91.2735
2959.24	89.3623
2960.54	87.1133
2961.84	84.8869
2963.14	82.7804
2964.44	79.7677
2965.74	77.3279
2967.04	75.4624
2968.34	73.2214
2969.64	71.6071
2970.94	69.4671
2972.24	68.1535
2973.53	66.1388
2974.83	63.7562
2976.13	61.4356
2977.43	59.111
2978.73	58.0405
2980.02	56.1236
2981.32	53.3584
2982.62	51.0181
2983.91	48.5864
2985.21	46.3813
2986.51	44.4882
2987.8	42.7803
2989.1	41.0028
2990.4	38.5426
2991.69	37.3905
2992.99	36.0897
2994.28	33.484
2995.57	31.9489
2996.87	30.0641
2998.16	28.8531
2999.46	26.696
3000.75	26.7256
3002.05	24.1381
3003.34	22.4968
3004.63	21.2693
3005.92	20.0011
3007.22	19.0192
3008.51	17.4202
3009.8	15.6221
3011.09	13.9687
3012.39	13.8001
3013.68	12.3092
3014.97	11.4347
3016.26	9.76476
3017.55	9.18682
3018.84	8.14312
3020.13	8.11191
3021.42	7.89601
3022.71	7.34311
3024	6.41217
3025.29	6.18299
3026.58	5.7189
3027.87	5.24686
3029.16	4.0997
3030.45	3.97059
3031.73	3.25772
3033.02	3.30263
3034.31	2.93661
3035.6	2.42299
3036.89	2.34092
3038.17	2.60411
3039.46	2.96774
3040.75	2.83284
3042.03	3.10307
3043.32	3.10157
3044.61	2.48374
3045.89	2.25499
3047.18	2.93882
3048.46	2.97519
3049.75	3.4193
3051.03	3.5202
3052.32	3.54955
3053.6	3.46805
3054.89	3.66357
3056.17	4.31409
3057.45	4.44963
3058.74	4.47384
3060.02	4.63037
3061.31	4.21947
3062.59	3.95636
3063.87	3.70403
3065.15	4.12329
3066.44	3.29316
3067.72	3.54541
3069	3.26039
3070.28	2.62605
3071.56	2.50461
3072.84	2.40404
3074.13	2.606
3075.41	2.52252
3076.69	2.46812
3077.97	1.99134
3079.25	1.81996
3080.53	1.67914
3081.81	1.68172
3083.09	1.79952
3084.37	1.20284
3085.64	1.12658
3086.92	0.735126
3088.2	0.482974
3089.48	0.335488
3090.76	0.293912
3092.04	0.163457
3093.31	0.0763804
3094.59	0.296401
3095.87	0.852259
3097.14	1.9168
3098.42	2.05091
3099.7	3.29183
3100.97	4.69669
3102.25	4.83571
3103.53	4.96801
3104.8	5.06699
3106.08	5.58577
3107.35	5.63641
3108.63	6.20689
3109.9	7.18468
3111.18	8.21861
3112.45	8.51125
3113.73	9.42649
3115	9.82832
3116.27	10.2648
3117.55	11.2517
3118.82	11.5747
3120.09	11.8647
3121.37	11.9816
3122.64	12.1466
3123.91	12.0899
3125.18	12.7336
3126.45	13.1865
3127.73	14.0513
3129	14.5929
3130.27	14.8529
3131.54	15.0268
3132.81	14.9841
3134.08	15.2793
3135.35	15.4474
3136.62	15.6013
3137.89	15.0739
3139.16	14.4789
3140.43	14.2698
3141.7	14.2174
3142.97	13.9888
3144.24	13.7242
3145.51	13.4055
3146.78	12.8973
3148.04	13.4991
3149.31	12.4011
