#Acq. time (s)=	45
#Accumulations=	2
#Range (cm-¹)=	200...3150
#Windows=	2
#Auto scanning=	Off
#Autofocus=	Off
#Macrospot=	Off
#AutoExposure=	Off
#Spike filter=	Multiple accum.
#Delay time (s)=	0
#Binning=	1
#Readout mode=	Signal
#DeNoise=	Off
#ICS correction=	On
#Dark correction=	Off
#Inst. Process=	Off
#Detector Gain=	Best Dynamic Range
#Detector ADC=	20 kHz       
#Detector temperature (°C)=	-69.85
#Instrument=	LabRAM HR Evol
#Detector=	Synapse
#Objective=	x100
#Grating=	600 gr/mm
#ND Filter=	100%
#Laser (nm)=	532 
#Hole=	100.021
#Range=	Auto
#Laser Pol.=	No
#Raman. Pol.=	No
#Laser Pol. (°)=	-0.0007625
#Raman Pol. (°)=	89.9995
#Collection=	Microscope
#StageXY=	Marzhauser
#StageZ=	Marzhauser
#X (µm)=	-1054.1
#Y (µm)=	689.3
#Z (µm)=	584.15
#Full time(mm:ss)=	3:18
#Project=	
#Sample=	
#Site=	
#Title=	Mb_40_y_06_2x_45s_532 nm_x100_100%_600 gr_mm
#Remark=	
#Date=	19.07.2022 09:14
#Acquired=	19.07.2022 09:14:20
#Base:Fit=	10.08.2022 10:52:48
#Base:Sub=	10.08.2022 10:52:53
#Filter:Polynom=	16.08.2022 10:09:04
#AxisType[0]=Intens
#AxisUnit[0]=Cnt
#AxisType[1]=Spectr
#AxisUnit[1]=1/cm
200.423	53.5146
202.238	53.8576
204.052	52.0856
205.868	48.7553
207.682	45.466
209.495	42.0896
211.308	38.6578
213.12	35.1971
214.935	32.7245
216.746	31.0725
218.558	27.9254
220.369	24.6446
222.18	22.5605
223.992	20.1297
225.802	17.8818
227.612	16.4752
229.421	14.7072
231.23	13.3585
233.039	12.6867
234.849	11.7984
236.657	10.1419
238.465	9.44461
240.272	8.99622
242.079	9.19114
243.885	8.14995
245.691	8.24396
247.497	7.62596
249.305	7.61623
251.11	7.97812
252.915	8.50665
254.719	9.07243
256.523	9.14888
258.327	10.6547
260.13	10.3713
261.933	10.1062
263.736	9.97383
265.538	10.4536
267.34	11.3347
269.141	11.0693
270.943	11.2031
272.744	11.6937
274.544	10.6211
276.344	11.3465
278.144	13.0054
279.944	14.5836
281.743	14.2656
283.542	15.1609
285.34	15.4241
287.138	14.9216
288.936	14.3636
290.733	13.6786
292.53	13.9392
294.327	14.866
296.123	15.6529
297.919	15.197
299.715	14.1196
301.508	14.2274
303.303	13.682
305.098	13.3461
306.892	12.4398
308.686	11.5761
310.479	11.8211
312.273	12.3758
314.065	12.5839
315.858	11.4525
317.648	12.4863
319.44	12.5688
321.231	12.6755
323.022	12.839
324.813	12.4664
326.604	12.3432
328.392	13.718
330.181	14.1674
331.971	14.1741
333.76	13.6224
335.548	14.3775
337.335	13.8178
339.123	14.7656
340.91	14.7015
342.698	12.9246
344.483	12.2295
346.269	10.6111
348.055	10.0068
349.841	9.12491
351.625	8.87844
353.41	8.02697
355.195	7.96531
356.977	7.60533
358.762	8.25432
360.545	8.58155
362.329	8.61401
364.11	7.784
365.893	8.83001
367.675	9.45091
369.455	8.76514
371.237	8.73616
373.017	8.86405
374.798	8.43601
376.578	8.63785
378.357	9.43962
380.137	11.4004
381.917	11.4446
383.694	11.0109
385.473	10.1307
387.249	9.04119
389.028	8.66181
390.806	9.25242
392.581	9.66813
394.359	10.4203
396.134	10.5375
397.91	10.8213
399.684	9.89299
401.46	10.061
403.234	10.455
405.009	9.44987
406.784	11.1231
408.557	10.6862
410.331	10.1997
412.103	10.3058
413.876	10.135
415.647	10.1039
417.42	10.1382
419.191	9.90852
420.961	9.04917
422.733	9.10104
424.502	8.38514
426.273	7.24552
428.042	7.12572
429.812	5.69756
431.58	3.93712
433.35	3.06813
435.118	2.68338
436.885	2.57793
438.653	2.12069
440.42	1.14073
442.188	0.819235
443.954	1.53523
445.719	2.07008
447.486	2.07483
449.251	2.1135
451.015	1.85462
452.781	1.47994
454.545	1.85599
456.308	1.35509
458.073	0.955644
459.836	1.58177
461.598	1.76595
463.362	2.11515
465.124	3.3854
466.885	4.3711
468.648	5.41297
470.408	4.37629
472.169	5.39998
473.929	5.64388
475.69	5.95845
477.45	6.26918
479.208	7.37945
480.967	8.02599
482.727	8.2054
484.485	8.57785
486.243	9.127
488	10.2448
489.759	12.2444
491.515	13.4316
493.272	13.3177
495.028	14.1361
496.783	15.8438
498.54	16.5187
500.295	17.2517
502.05	17.6528
503.804	18.8397
505.558	20.3865
507.311	20.7807
509.064	20.4684
510.819	20.8119
512.572	19.9666
514.324	19.7876
516.076	19.1631
517.827	18.6593
519.578	17.3974
521.329	17.6315
523.08	18.1796
524.83	17.4257
526.58	16.4666
528.329	15.922
530.08	15.9932
531.829	15.5598
533.578	14.2945
535.326	13.1923
537.074	12.4698
538.821	11.8417
540.568	11.1691
542.315	11.0726
544.062	10.8873
545.808	10.6788
547.554	9.47033
549.299	9.62454
551.044	9.59956
552.789	9.36632
554.533	8.14561
556.278	6.971
558.019	5.95945
559.763	6.65993
561.506	6.1762
563.249	6.0706
564.991	6.06997
566.733	6.00832
568.475	5.86024
570.217	5.16822
571.958	5.77941
573.699	5.10478
575.439	5.74338
577.177	5.69429
578.917	5.21521
580.656	4.52355
582.396	5.09352
584.134	6.66087
585.873	5.25969
587.609	5.42958
589.347	5.58359
591.084	5.89012
592.822	5.95646
594.558	6.13492
596.295	6.0777
598.029	7.14677
599.765	6.70999
601.5	6.89194
603.235	6.74369
604.968	7.01735
606.703	6.44568
608.437	6.974
610.171	6.19383
611.902	7.17723
613.635	7.97174
615.368	8.03354
617.099	9.46201
618.831	10.0484
620.563	10.7947
622.294	11.8351
624.024	12.5599
625.755	13.4918
627.485	13.7777
629.213	14.5136
630.943	14.9597
632.673	14.6627
634.4	14.4228
636.129	15.5237
637.855	14.8776
639.584	14.0126
641.312	14.3707
643.037	14.8553
644.764	14.9366
646.491	15.5873
648.216	15.4187
649.942	15.3679
651.666	14.2894
653.392	13.7502
655.115	14.5625
656.84	13.9676
658.563	14.0862
660.287	13.3422
662.011	13.2373
663.732	13.6834
665.456	13.341
667.177	13.3556
668.899	13.7942
670.62	13.732
672.342	13.7589
674.061	15.6973
675.781	16.2574
677.502	17.2592
679.22	18.4639
680.941	20.0388
682.659	19.5202
684.379	20.9742
686.096	20.6736
687.815	21.6889
689.532	21.974
691.248	22.2129
692.966	23.0456
694.682	24.3154
696.4	25.8783
698.115	27.322
699.829	27.5096
701.546	28.7936
703.26	30.1968
704.974	30.4085
706.689	30.7351
708.402	31.7971
710.115	33.0236
711.83	34.0132
713.542	34.8685
715.254	35.0603
716.967	35.4425
718.679	35.7557
720.39	36.8646
722.102	36.9084
723.812	37.4302
725.522	38.4361
727.232	38.7667
728.943	38.9536
730.652	39.3543
732.361	40.3275
734.069	40.1485
735.779	40.3209
737.487	39.724
739.194	40.1149
740.901	40.511
742.608	39.9233
744.316	40.1207
746.022	40.5797
747.728	41.6035
749.433	42.7266
751.138	42.8146
752.843	44.0333
754.549	45.5373
756.254	46.9195
757.957	48.5563
759.661	49.2528
761.364	50.1597
763.067	51.3697
764.769	53.0766
766.471	54.528
768.175	54.5378
769.877	55.7451
771.578	55.9865
773.279	56.3161
774.98	58.009
776.68	58.8533
778.38	60.4999
780.079	61.8056
781.779	62.5673
783.478	63.0902
785.176	64.4827
786.875	65.3445
788.573	65.8709
790.27	66.3328
791.968	67.0027
793.665	68.0802
795.361	68.4115
797.058	68.3741
798.754	69.1918
800.45	70.4683
802.145	71.207
803.84	72.3462
805.535	72.8247
807.23	72.1225
808.922	72.2264
810.616	70.4514
812.309	69.5408
814.002	69.4204
815.695	69.7291
817.388	69.423
819.08	68.1009
820.772	66.8336
822.464	65.8943
824.153	65.7449
825.844	65.4517
827.535	64.7381
829.225	64.7796
830.915	64.9445
832.605	64.6017
834.292	64.0507
835.981	63.3622
837.67	63.8687
839.359	62.8525
841.047	62.3736
842.732	61.6452
844.42	60.7531
846.107	60.4861
847.794	59.5122
849.479	59.3928
851.165	58.7768
852.851	57.1705
854.534	56.6045
856.22	56.021
857.905	55.3744
859.589	53.6117
861.272	51.1602
862.956	50.2304
864.639	48.9555
866.321	48.1546
868.004	46.8188
869.687	46.4556
871.367	45.1223
873.049	44.9574
874.731	43.7674
876.41	43.5851
878.092	42.9886
879.771	42.1386
881.451	42.583
883.131	43.7543
884.809	43.895
886.489	43.6189
888.166	43.8794
889.845	42.896
891.522	42.0404
893.2	41.5008
894.878	41.7726
896.554	43.2631
898.231	43.2857
899.906	43.5651
901.583	42.5474
903.258	41.0313
904.934	41.0295
906.608	42.3401
908.283	42.5325
909.956	41.8735
911.631	41.6491
913.304	41.5885
914.976	42.4952
916.65	43.453
918.322	44.0742
919.995	44.2164
921.666	44.0845
923.339	42.4256
925.009	41.7954
926.679	41.6156
928.351	41.2591
930.021	40.3618
931.692	40.4055
933.361	41.1137
935.029	40.1727
936.699	38.4063
938.367	37.9618
940.035	37.3365
941.704	36.5414
943.371	35.8469
945.038	36.7892
946.706	36.9717
948.372	36.9435
950.038	36.4099
951.705	36.0854
953.37	36.8497
955.035	36.9366
956.7	37.2952
958.366	38.2584
960.03	38.8644
961.693	39.5418
963.357	40.1611
965.021	41.3942
966.684	41.3572
968.346	42.0236
970.008	42.9301
971.67	42.716
973.334	42.9585
974.995	43.2916
976.655	43.6406
978.316	44.4258
979.976	44.2668
981.638	44.1
983.297	43.8053
984.957	43.3394
986.616	42.971
988.274	43.2352
989.932	42.5799
991.59	42.2397
993.248	41.0337
994.907	41.0358
996.565	39.9889
998.221	38.5267
999.878	36.0773
1001.53	33.5724
1003.19	30.6904
1004.85	28.8144
1006.5	28.1228
1008.16	29.4703
1009.81	33.3032
1011.46	36.9514
1013.12	43.1491
1014.77	51.5837
1016.43	58.1913
1018.08	65.2223
1019.73	73.4123
1021.38	81.3897
1023.04	88.7037
1024.69	95.2673
1026.34	103.036
1027.99	109.54
1029.64	115.647
1031.29	120.975
1032.94	126.13
1034.59	131.452
1036.24	135.244
1037.89	138.639
1039.54	141.962
1041.19	144.823
1042.84	146.349
1044.48	147.213
1046.13	147.391
1047.78	148.123
1049.42	146.955
1051.07	145.504
1052.72	143.475
1054.36	139.958
1056.01	137.285
1057.66	133.393
1059.3	129.753
1060.94	124.951
1062.59	118.76
1064.23	112.916
1065.88	105.875
1067.52	99.5505
1069.16	91.652
1070.81	83.6469
1072.45	75.337
1074.09	67.846
1075.73	58.9401
1077.38	51.082
1079.02	42.2835
1080.66	34.9779
1082.3	29.4691
1083.94	24.68
1085.58	20.9053
1087.22	19.1005
1088.86	19.0287
1090.5	20.5467
1092.13	22.5709
1093.77	24.8713
1095.41	27.4186
1097.05	27.6401
1098.68	27.8285
1100.32	29.2101
1101.96	29.1252
1103.6	28.775
1105.23	29.5359
1106.87	30.3033
1108.5	31.2627
1110.14	29.8958
1111.77	28.9773
1113.41	28.1148
1115.04	27.1332
1116.67	26.3027
1118.31	25.3201
1119.94	24.6463
1121.58	24.3948
1123.21	22.1779
1124.84	21.2928
1126.47	19.515
1128.1	18.2182
1129.73	17.0377
1131.37	14.7719
1133	13.6788
1134.63	13.4191
1136.26	12.096
1137.89	12.7292
1139.52	12.6136
1141.14	11.9075
1142.77	10.0389
1144.4	9.26206
1146.03	8.69972
1147.66	7.09994
1149.29	7.33081
1150.91	5.6995
1152.54	4.4489
1154.17	4.36772
1155.79	3.78017
1157.42	3.34712
1159.04	2.63342
1160.67	2.23798
1162.3	1.76854
1163.92	1.73207
1165.55	2.13729
1167.17	2.65299
1168.79	2.81704
1170.42	3.16292
1172.04	3.93662
1173.66	4.3909
1175.28	5.14043
1176.91	4.80447
1178.53	4.70054
1180.15	5.46437
1181.77	5.91698
1183.39	6.37627
1185.01	8.0651
1186.63	8.85841
1188.25	9.65244
1189.87	9.85473
1191.49	9.03953
1193.11	10.2235
1194.73	10.3379
1196.35	11.3686
1197.97	12.5703
1199.59	13.6176
1201.2	14.2981
1202.82	15.0121
1204.44	15.3809
1206.05	17.5939
1207.67	18.7475
1209.29	20.4179
1210.9	22.084
1212.52	23.9018
1214.13	25.9904
1215.75	28.253
1217.36	29.9798
1218.97	32.7947
1220.59	34.0117
1222.2	34.9743
1223.82	36.4011
1225.43	38.7135
1227.04	39.5067
1228.65	41.293
1230.26	42.931
1231.88	44.3275
1233.49	45.3837
1235.1	46.9353
1236.71	48.1261
1238.32	49.3203
1239.93	50.448
1241.54	50.4428
1243.15	51.3118
1244.76	53.4969
1246.37	54.5351
1247.97	54.736
1249.58	54.7874
1251.19	55.9546
1252.8	57.4317
1254.41	57.7823
1256.01	58.3441
1257.62	58.3635
1259.23	59.25
1260.83	60.0698
1262.44	61.907
1264.04	62.9991
1265.65	63.4088
1267.25	63.7966
1268.86	64.9001
1270.46	65.5145
1272.07	65.8942
1273.67	67.2734
1275.27	67.4551
1276.88	69.0545
1278.48	69.2127
1280.08	69.6416
1281.68	70.6402
1283.28	71.5728
1284.89	72.5473
1286.49	74.1844
1288.09	74.9465
1289.69	76.117
1291.29	77.2265
1292.89	77.589
1294.49	78.5869
1296.09	79.0442
1297.69	79.2716
1299.29	79.3884
1300.88	79.7243
1302.48	80.5244
1304.08	80.3845
1305.68	80.7646
1307.27	81.3852
1308.87	81.2398
1310.47	80.7556
1312.06	80.8853
1313.66	80.3722
1315.25	80.1435
1316.85	80.7045
1318.44	79.5575
1320.04	78.5688
1321.63	78.3535
1323.23	79.0123
1324.82	78.1991
1326.41	76.5187
1328.01	75.3536
1329.6	74.8855
1331.19	74.6273
1332.78	73.6243
1334.38	72.2128
1335.97	70.7063
1337.56	69.5186
1339.15	68.5506
1340.74	66.6159
1342.33	63.9826
1343.92	61.9705
1345.51	60.2616
1347.1	59.593
1348.69	57.8925
1350.28	56.5206
1351.87	54.6202
1353.46	53.5162
1355.04	51.4938
1356.63	50.2912
1358.22	48.2561
1359.81	47.1715
1361.39	45.7638
1362.98	43.8564
1364.57	42.3337
1366.15	41.1901
1367.74	39.5011
1369.32	38.5386
1370.91	37.1975
1372.49	36.0924
1374.07	35.4948
1375.66	34.6239
1377.24	33.9366
1378.83	33.6845
1380.41	33.7302
1381.99	32.7495
1383.57	32.063
1385.16	32.266
1386.74	33.6792
1388.32	33.1942
1389.9	34.2741
1391.48	34.78
1393.06	36.6165
1394.64	37.3014
1396.22	38.992
1397.8	39.3981
1399.38	40.6576
1400.96	42.4054
1402.54	43.0092
1404.12	43.8325
1405.7	45.5487
1407.28	46.7333
1408.85	49.0408
1410.43	51.1149
1412.01	51.8889
1413.58	53.3749
1415.16	55.3429
1416.74	56.3317
1418.31	58.1967
1419.89	60.8816
1421.46	64.0834
1423.04	67.4863
1424.61	70.6864
1426.19	72.7251
1427.76	74.694
1429.33	76.9349
1430.91	79.1013
1432.48	81.1622
1434.05	82.4809
1435.63	84.3
1437.2	85.3205
1438.77	86.8682
1440.34	87.7584
1441.91	89.5226
1443.49	90.2717
1445.05	90.8935
1446.63	91.0287
1448.2	91.5224
1449.77	91.2173
1451.34	90.2265
1452.91	89.0606
1454.47	88.1614
1456.04	86.3495
1457.61	85.4809
1459.18	84.1803
1460.75	82.9937
1462.31	82.7132
1463.88	80.9333
1465.45	79.3776
1467.01	76.2017
1468.58	73.68
1470.15	70.9092
1471.71	69.4363
1473.28	66.0781
1474.84	63.3056
1476.41	59.0307
1477.97	56.6396
1479.54	54.2557
1481.1	51.7778
1482.66	49.2255
1484.23	46.4958
1485.79	43.9948
1487.35	42.8857
1488.91	41.5185
1490.48	38.4367
1492.04	37.2702
1493.6	36.2793
1495.16	34.2329
1496.72	34.0952
1498.28	33.2732
1499.84	31.74
1501.4	31.1704
1502.96	30.2035
1504.52	28.5879
1506.08	27.8821
1507.64	28.5908
1509.2	28.6445
1510.76	28.4137
1512.31	27.6274
1513.87	27.6442
1515.43	27.3141
1516.99	27.6631
1518.54	27.9301
1520.1	28.6164
1521.66	27.9369
1523.21	27.6842
1524.77	28.2374
1526.32	29.7796
1527.88	29.1561
1529.43	28.943
1530.99	29.6415
1532.54	30.1043
1534.09	30.8491
1535.65	32.2909
1537.2	32.3787
1538.75	33.3824
1540.31	33.9447
1541.86	33.6013
1543.41	34.2164
1544.96	34.0063
1546.51	34.8951
1548.06	35.0068
1549.62	35.4788
1551.17	34.1998
1552.72	34.4048
1554.27	34.5145
1555.82	35.3813
1557.36	36.2692
1558.91	36.9585
1560.46	37.7379
1562.01	38.7665
1563.56	39.6397
1565.11	40.5179
1566.66	41.0228
1568.2	40.5355
1569.75	42.2879
1571.3	43.6682
1572.84	43.8565
1574.39	45.1976
1575.93	45.8573
1577.48	47.1103
1579.02	48.3112
1580.57	49.0076
1582.11	50.7928
1583.66	51.5038
1585.2	53.0711
1586.75	53.046
1588.29	53.6006
1589.83	54.4679
1591.38	55.5402
1592.92	55.8776
1594.46	57.0193
1596	56.9211
1597.54	57.4642
1599.09	57.8615
1600.63	58.8108
1602.17	59.0379
1603.71	58.2824
1605.25	56.5699
1606.79	56.6343
1608.33	57.1109
1609.87	57.1388
1611.41	56.9819
1612.95	56.8163
1614.48	56.8489
1616.02	57.0186
1617.56	55.8571
1619.1	55.9542
1620.64	56.3088
1622.17	56.3084
1623.71	57.8844
1625.25	58.484
1626.78	59.6666
1628.32	61.1423
1629.86	62.4807
1631.39	64.5131
1632.92	66.2665
1634.46	68.3179
1635.99	69.8576
1637.53	70.8679
1639.06	71.4624
1640.59	72.605
1642.13	74.3622
1643.66	75.6624
1645.19	77.2219
1646.73	78.5307
1648.26	79.4553
1649.79	80.6957
1651.32	81.6605
1652.85	82.0121
1654.38	83.462
1655.92	84.0336
1657.45	84.5938
1658.98	84.6492
1660.51	84.0453
1662.04	83.702
1663.57	82.6126
1665.09	81.8332
1666.62	81.2666
1668.15	79.5862
1669.68	78.1683
1671.21	76.0488
1672.73	73.9808
1674.26	71.7578
1675.79	68.9868
1677.31	65.4197
1678.84	62.6847
1680.37	60.1768
1681.89	57.8046
1683.42	55.2019
1684.94	52.7496
1686.47	49.7104
1687.99	46.3721
1689.52	43.7386
1691.04	41.3797
1692.57	38.5785
1694.09	36.3426
1695.61	35.253
1697.14	33.163
1698.66	31.2421
1700.18	29.4447
1701.7	27.9083
1703.22	25.4657
1704.75	23.9503
1706.27	21.5553
1707.79	20.8664
1709.31	19.2316
1710.83	17.5889
1712.35	16.8241
1713.87	15.3341
1715.39	14.5467
1716.91	14.2854
1718.43	13.1555
1719.95	11.8217
1721.46	11.0487
1722.98	10.2345
1724.5	10.5882
1726.02	10.6426
1727.53	9.64729
1729.05	9.46652
1730.57	9.25571
1732.08	8.43558
1733.6	7.99022
1735.12	7.35352
1736.63	6.70745
1738.15	6.15878
1739.66	6.56123
1741.18	7.01171
1742.69	7.02721
1744.21	7.04644
1745.72	7.04247
1747.23	7.01236
1748.74	7.69234
1750.26	7.78898
1751.77	8.22517
1753.28	8.80883
1754.8	9.48955
1756.31	8.7415
1757.82	9.03465
1759.33	8.62999
1760.84	8.34639
1762.35	7.73883
1763.86	6.90262
1765.37	7.18793
1766.88	7.13516
1768.39	6.77561
1769.9	5.9705
1771.41	5.45052
1772.92	4.48015
1774.43	3.97844
1775.93	4.05032
1777.44	4.10758
1778.95	3.78488
1780.46	4.2807
1781.96	3.71266
1783.47	3.70428
1784.98	3.6459
1786.48	3.57345
1787.99	3.70882
1789.49	3.16622
1791	2.38951
1792.5	1.79535
1794.01	1.5963
1795.51	1.58459
1797.02	1.95356
1798.52	2.37508
1800.03	2.14292
1801.53	1.5568
1803.03	1.75128
1804.53	1.74038
1806.04	1.48662
1807.54	1.39435
1809.04	1.48023
1810.54	1.51197
1812.04	2.0794
1813.54	2.18082
1815.05	3.4573
1816.55	3.60255
1818.05	3.42342
1819.55	3.95244
1821.05	4.23236
1822.55	4.64917
1824.05	4.74937
1825.54	4.2833
1827.04	4.27013
1828.54	4.7417
1830.04	4.78383
1831.54	4.8454
1833.03	5.50716
1834.53	5.34415
1836.03	5.15737
1837.52	4.64649
1839.02	4.72313
1840.52	4.89781
1842.01	4.61846
1843.51	4.62743
1845	4.44209
1846.5	4.64365
1847.99	5.07885
1849.49	5.43055
1850.98	6.02666
1852.47	5.88407
1853.97	6.04463
1855.46	5.94208
1856.95	6.15413
1858.45	6.69278
1859.94	7.21988
1861.43	7.46462
1862.92	7.48795
1864.41	7.3011
1865.91	7.21409
1867.4	7.95074
1868.89	8.26239
1870.38	8.50452
1871.87	8.37099
1873.36	8.21301
1874.85	8.22268
1876.34	8.15796
1877.83	8.77587
1879.31	8.19611
1880.8	8.32815
1882.29	8.77476
1882.56	8.95027
1884.05	9.10624
1885.54	9.18215
1887.04	8.95616
1888.53	9.12964
1890.03	8.66158
1891.52	9.05621
1893.01	9.40879
1894.5	9.35621
1895.99	9.54825
1897.49	9.59307
1898.98	9.96915
1900.47	10.3387
1901.96	10.8341
1903.45	10.1169
1904.94	10.0982
1906.43	9.77877
1907.92	9.98585
1909.41	9.44582
1910.9	9.13948
1912.39	9.09084
1913.88	8.25465
1915.37	8.66759
1916.86	7.99776
1918.35	7.42574
1919.84	7.93505
1921.32	7.75832
1922.81	7.92983
1924.3	7.69818
1925.78	7.47257
1927.27	7.62056
1928.76	8.38066
1930.24	8.55955
1931.73	7.8247
1933.21	7.16964
1934.7	6.92206
1936.18	6.59277
1937.67	5.94676
1939.15	5.81393
1940.64	5.64237
1942.12	5.41492
1943.6	5.42072
1945.09	4.10058
1946.57	3.58949
1948.05	3.42882
1949.54	3.3254
1951.02	3.64414
1952.5	3.04335
1953.98	2.97866
1955.46	3.24581
1956.94	3.15244
1958.42	3.64474
1959.91	3.79001
1961.39	3.88646
1962.87	4.44992
1964.34	5.16085
1965.82	5.4234
1967.3	5.01783
1968.78	5.06796
1970.26	4.88718
1971.74	4.20361
1973.22	3.8052
1974.7	3.3923
1976.17	3.50614
1977.65	2.56593
1979.13	2.72562
1980.6	2.66706
1982.08	2.77124
1983.56	2.01306
1985.03	2.30528
1986.51	2.0575
1987.98	2.43387
1989.46	2.80423
1990.93	2.72538
1992.41	3.44283
1993.88	4.09079
1995.36	4.36785
1996.83	4.73443
1998.3	4.21091
1999.78	4.68165
2001.25	4.74178
2002.72	5.20834
2004.2	4.97779
2005.67	5.23691
2007.14	6.0778
2008.61	7.09206
2010.08	7.28421
2011.55	7.99821
2013.02	7.93538
2014.49	7.94554
2015.97	8.39998
2017.43	8.20536
2018.9	7.83001
2020.37	8.59403
2021.84	8.92203
2023.31	9.06954
2024.78	8.85766
2026.25	8.71414
2027.72	9.41407
2029.19	10.0126
2030.65	10.1372
2032.12	9.88119
2033.59	10.1455
2035.05	10.5607
2036.52	11.2108
2037.98	11.7627
2039.45	11.244
2040.92	11.4041
2042.38	11.3248
2043.85	11.755
2045.31	11.7873
2046.78	12.6565
2048.24	12.7913
2049.71	12.9672
2051.17	13.4187
2052.63	13.8124
2054.1	14.1513
2055.56	14.1551
2057.02	14.9333
2058.48	15.6699
2059.95	15.8055
2061.41	16.3578
2062.87	15.9869
2064.33	16.5587
2065.79	16.7688
2067.25	16.7817
2068.71	17.4606
2070.17	17.48
2071.63	17.2632
2073.09	18.3984
2074.55	19.2462
2076.01	20.7691
2077.47	22.1224
2078.93	23.1054
2080.39	23.5541
2081.85	23.8038
2083.3	23.9118
2084.76	24.4471
2086.22	24.3731
2087.68	25.5901
2089.13	25.7029
2090.59	25.4458
2092.05	25.6701
2093.5	26.0816
2094.96	26.5687
2096.41	27.8162
2097.87	28.9488
2099.32	29.6601
2100.78	30.9385
2102.23	32.1976
2103.69	33.4119
2105.14	34.8779
2106.59	36.8891
2108.05	38.6107
2109.5	40.1292
2110.95	41.7073
2112.41	42.3511
2113.86	44.2869
2115.31	45.7117
2116.76	46.8162
2118.21	47.4006
2119.67	49.1371
2121.12	49.5269
2122.57	51.2013
2124.02	52.4585
2125.47	52.9962
2126.92	54.739
2128.37	56.3788
2129.82	58.1719
2131.27	58.9623
2132.71	59.6871
2134.16	60.1563
2135.61	61.5486
2137.06	63.8696
2138.51	65.6702
2139.95	67.4508
2141.4	69.0242
2142.85	70.9483
2144.29	73.006
2145.74	75.8848
2147.19	78.0988
2148.63	79.3473
2150.08	81.6219
2151.52	82.2303
2152.97	83.4821
2154.42	85.0028
2155.86	86.8418
2157.3	88.4528
2158.75	90.2563
2160.19	91.2028
2161.64	91.6874
2163.08	93.1671
2164.52	94.9489
2165.96	96.073
2167.41	97.1553
2168.85	98.2111
2170.29	98.4174
2171.73	99.4863
2173.17	100.624
2174.61	101.165
2176.06	100.88
2177.5	101.029
2178.94	101.292
2180.38	100.92
2181.82	99.7067
2183.26	99.0715
2184.7	97.775
2186.14	96.961
2187.57	94.9656
2189.01	93.5481
2190.45	92.7395
2191.89	91.5576
2193.33	90.1008
2194.76	88.5923
2196.2	87.5135
2197.64	86.6151
2199.08	85.5449
2200.51	83.7552
2201.95	82.5619
2203.38	80.5259
2204.82	79.0173
2206.25	78.4049
2207.69	77.6836
2209.12	76.6544
2210.56	74.6472
2211.99	72.8047
2213.43	70.8953
2214.86	69.8575
2216.3	67.8688
2217.73	65.8382
2219.16	64.1463
2220.59	62.1925
2222.03	60.9315
2223.46	59.1638
2224.89	57.9652
2226.32	56.0952
2227.75	55.163
2229.19	53.2784
2230.62	51.1057
2232.05	49.6034
2233.48	48.7746
2234.91	47.7476
2236.34	46.3055
2237.77	44.5579
2239.2	43.6359
2240.63	42.237
2242.06	40.9151
2243.48	40.2059
2244.91	37.9779
2246.34	36.4106
2247.77	34.4144
2249.2	34.1661
2250.62	32.8559
2252.05	31.77
2253.48	31.0884
2254.9	30.2113
2256.33	28.939
2257.76	27.8693
2259.18	27.4631
2260.61	26.8788
2262.03	26.4543
2263.46	25.8842
2264.88	25.5303
2266.31	25.0381
2267.73	24.501
2269.16	23.6479
2270.58	22.5395
2272	21.905
2273.43	21.653
2274.85	20.6598
2276.27	20.7074
2277.69	20.0092
2279.12	18.5652
2280.54	18.4849
2281.96	17.2267
2283.38	16.6967
2284.8	16.2277
2286.22	15.3429
2287.64	14.6611
2289.07	14.7473
2290.49	13.8809
2291.91	12.6803
2293.32	11.9504
2294.74	11.9209
2296.16	11.4168
2297.58	11.8686
2299	12.1745
2300.42	12.4889
2301.84	12.9943
2303.26	14.1503
2304.67	14.3708
2306.09	14.6094
2307.51	15.0397
2308.92	15.6343
2310.34	16.0916
2311.76	15.9548
2313.17	16.5382
2314.59	16.6789
2316	16.5732
2317.42	17.3085
2318.83	17.4006
2320.25	17.7174
2321.66	16.9571
2323.08	17.0893
2324.49	16.8407
2325.91	16.0588
2327.32	15.9021
2328.73	15.725
2330.15	16.3408
2331.56	15.295
2332.97	14.9538
2334.38	14.3458
2335.79	13.8504
2337.21	12.9277
2338.62	12.1046
2340.03	11.8034
2341.44	11.4928
2342.85	11.4763
2344.26	10.7461
2345.67	10.3966
2347.08	9.19554
2348.49	8.204
2349.9	7.49837
2351.31	6.72036
2352.72	5.03599
2354.13	4.17135
2355.53	2.84349
2356.94	1.66315
2358.35	1.30947
2359.76	0.953989
2361.17	0.310537
2362.57	0.327819
2363.98	0.643071
2365.39	1.00866
2366.79	1.67222
2368.2	2.49007
2369.6	2.52315
2371.01	2.52953
2372.42	2.78525
2373.82	3.2601
2375.22	3.80139
2376.63	4.74042
2378.03	4.90051
2379.44	4.71014
2380.84	5.03276
2382.25	5.43011
2383.65	6.20933
2385.05	6.01777
2386.45	6.29045
2387.86	6.00937
2389.26	6.20018
2390.66	6.25044
2392.06	7.13532
2393.46	7.3228
2394.87	7.21883
2396.27	7.17327
2397.67	6.98584
2399.07	7.1632
2400.47	7.2686
2401.87	7.09418
2403.27	7.27373
2404.67	7.76924
2406.07	8.05836
2407.47	8.02507
2408.86	8.52793
2410.26	8.7992
2411.66	9.03918
2413.06	8.8493
2414.46	8.7122
2415.85	9.27246
2417.25	8.58543
2418.65	8.73563
2420.05	8.52767
2421.44	8.44283
2422.84	8.65698
2424.23	8.68249
2425.63	8.54913
2427.03	8.91773
2428.42	9.33674
2429.82	9.66442
2431.21	10.0883
2432.6	10.2409
2434	10.7473
2435.39	11.4474
2436.79	11.8654
2438.18	12.7022
2439.57	12.4475
2440.97	12.1266
2442.36	12.4745
2443.75	12.3502
2445.14	12.6699
2446.54	12.8925
2447.93	12.9575
2449.32	12.1994
2450.71	12.7321
2452.1	12.8234
2453.49	12.4407
2454.88	12.2935
2456.27	12.1653
2457.66	11.941
2459.05	12.3163
2460.44	12.0606
2461.83	12.6677
2463.22	11.9315
2464.61	11.2566
2466	11.5179
2467.39	11.0542
2468.77	10.6306
2470.16	10.269
2471.55	10.2413
2472.94	9.05973
2474.32	8.97061
2475.71	8.67562
2477.1	8.41311
2478.48	8.25789
2479.87	7.54267
2481.25	6.87335
2482.64	6.16374
2484.02	6.20643
2485.41	5.5044
2486.8	4.48407
2488.18	4.36023
2489.56	4.0727
2490.95	3.59274
2492.33	3.05708
2493.72	2.54785
2495.1	2.03158
2496.48	1.63874
2497.86	1.75077
2499.25	1.89163
2500.63	2.00929
2502.01	1.42779
2503.39	0.872487
2504.77	0.954326
2506.16	0.818379
2507.54	0.527654
2508.92	0.329149
2510.3	0.528395
2511.68	0.770332
2513.06	1.69107
2514.44	2.46531
2515.82	2.45341
2517.2	2.87772
2518.58	2.29613
2519.95	3.37164
2521.33	3.39482
2522.71	4.0157
2524.09	4.57417
2525.47	4.70448
2526.84	5.06548
2528.22	5.27018
2529.6	6.08234
2530.98	5.87774
2532.35	5.17723
2533.73	5.3095
2535.11	6.29059
2536.48	5.89811
2537.86	6.02749
2539.23	6.33777
2540.61	7.27969
2541.98	6.93822
2543.36	7.40927
2544.73	7.44488
2546.1	7.73943
2547.48	7.98561
2548.85	7.54929
2550.23	7.66183
2551.6	8.00462
2552.97	8.33678
2554.34	8.56483
2555.72	8.68104
2557.09	8.96197
2558.46	8.19219
2559.83	7.46829
2561.2	7.23299
2562.58	7.21722
2563.95	7.00774
2565.32	7.77316
2566.69	8.37285
2568.06	8.071
2569.43	8.13153
2570.8	7.78226
2572.17	8.17537
2573.54	9.09873
2574.91	9.07375
2576.27	9.5154
2577.64	9.95615
2579.01	9.59709
2580.38	9.64366
2581.75	9.54531
2583.11	8.73805
2584.48	7.74918
2585.85	7.54236
2587.21	6.85781
2588.58	6.45562
2589.95	5.78354
2591.31	5.45669
2592.68	5.24485
2594.04	4.85206
2595.41	4.00266
2596.78	3.14006
2598.14	3.59889
2599.51	2.6249
2600.87	2.61722
2602.23	2.59557
2603.6	2.60126
2604.96	1.82902
2606.32	1.64988
2607.69	1.10528
2609.05	1.30031
2610.41	0.286805
2611.77	-0.0786311
2613.14	-0.271356
2614.5	0.0235519
2615.86	-0.345857
2617.22	-0.986493
2618.58	-0.869137
2619.94	-0.650895
2621.3	-0.988898
2622.67	-1.09292
2624.03	-1.7569
2625.39	-1.94702
2626.75	-1.73178
2628.1	-1.22077
2629.46	-0.285735
2630.82	0.124455
2632.18	0.150817
2633.54	0.448331
2634.9	0.775462
2636.26	1.09641
2637.61	1.65886
2638.97	2.2662
2640.33	3.00707
2641.69	3.45575
2643.04	3.91215
2644.4	4.51933
2645.76	4.28948
2647.11	4.95442
2648.47	5.38895
2649.82	5.18108
2651.18	5.67593
2652.53	5.67951
2653.89	6.38719
2655.24	6.74395
2656.6	6.43148
2657.95	6.86814
2659.31	6.78637
2660.66	7.44709
2662.01	6.90589
2663.37	6.61728
2664.72	6.75288
2666.07	7.33388
2667.43	6.99266
2668.78	7.76547
2670.13	7.45539
2671.48	6.95081
2672.83	5.92305
2674.18	5.76287
2675.53	5.49852
2676.89	5.46886
2678.24	5.11733
2679.59	5.08459
2680.94	5.60018
2682.29	5.06849
2683.64	3.95352
2684.99	4.00304
2686.34	4.21384
2687.68	3.89955
2689.03	3.84277
2690.38	3.30601
2691.73	3.02644
2693.08	3.18974
2694.43	3.17584
2695.77	2.75032
2697.12	3.08566
2698.47	2.85872
2699.81	2.60731
2701.16	2.99487
2702.51	3.37821
2703.85	3.26715
2705.2	2.968
2706.54	3.83702
2707.89	3.67964
2709.23	4.22764
2710.58	4.56921
2711.92	4.5485
2713.27	4.8415
2714.61	5.40336
2715.96	5.71976
2717.3	5.71672
2718.64	5.78379
2719.99	5.25156
2721.33	5.84028
2722.67	5.29851
2724.01	5.46568
2725.36	5.57382
2726.7	5.49353
2728.04	6.40783
2729.38	6.24439
2730.72	6.26667
2732.06	6.38825
2733.41	6.58776
2734.75	6.44296
2736.09	6.37981
2737.43	5.32512
2738.77	5.48562
2740.11	6.3037
2741.44	7.15067
2742.78	7.23029
2744.12	7.56072
2745.46	7.61284
2746.8	8.27833
2748.14	8.79336
2749.48	8.09451
2750.81	8.60462
2752.15	8.68456
2753.49	8.62358
2754.83	7.94893
2756.16	8.11172
2757.5	7.65961
2758.84	7.69335
2760.17	7.43693
2761.51	7.47949
2762.84	8.05893
2764.18	8.23821
2765.51	7.58884
2766.85	7.20216
2768.18	7.48034
2769.52	7.3453
2770.85	7.35961
2772.19	7.11743
2773.52	7.34256
2774.85	6.44329
2776.19	6.60979
2777.52	6.1326
2778.85	6.07661
2780.18	5.50108
2781.52	5.3083
2782.85	4.43535
2784.18	3.82732
2785.51	3.64294
2786.84	3.36327
2788.17	3.15144
2789.51	2.49394
2790.84	2.8046
2792.17	1.90355
2793.5	1.54799
2794.83	1.34788
2796.16	0.397379
2797.48	-0.433524
2798.81	-0.796193
2800.14	-0.868693
2801.47	-1.4609
2802.8	-1.773
2804.13	-1.60047
2805.46	-1.07922
2806.79	-0.961456
2808.11	-1.30093
2809.44	-1.1688
2810.77	-0.648482
2812.09	-0.424149
2813.42	0.114017
2814.75	0.0529247
2816.07	0.262814
2817.4	0.973093
2818.73	1.90539
2820.05	3.26433
2821.38	4.58275
2822.7	5.5779
2824.03	6.5566
2825.35	7.93702
2826.67	9.55488
2828	11.5247
2829.32	13.0736
2830.65	14.2688
2831.97	15.8629
2833.29	18.134
2834.62	20.2752
2835.94	21.9833
2837.26	24.6124
2838.58	26.5522
2839.9	28.5988
2841.23	30.8239
2842.55	33.4893
2843.87	35.6558
2845.19	37.9425
2846.51	40.6129
2847.83	43.8714
2849.15	45.9533
2850.47	49.3486
2851.79	52.9766
2853.11	55.7351
2854.43	58.4646
2855.75	61.0296
2857.07	64.0187
2858.39	66.4181
2859.71	69.3151
2861.02	72.3351
2862.34	75.3269
2863.66	78.0907
2864.98	80.9838
2866.3	83.0999
2867.61	85.2284
2868.93	87.6418
2870.25	89.6074
2871.56	91.5918
2872.88	93.6448
2874.19	95.7255
2875.51	97.4589
2876.83	99.7964
2878.14	101.71
2879.46	103.768
2880.77	105.7
2882.09	107.73
2883.4	109.188
2884.71	110.865
2886.03	112.042
2887.34	114.016
2888.65	115.414
2889.97	117.702
2891.28	119.961
2892.59	121.782
2893.91	124.174
2895.22	126.624
2896.53	129.11
2897.84	132.603
2899.15	134.514
2900.46	136.903
2901.78	139.928
2903.09	143.489
2904.4	146.29
2905.71	150.299
2907.02	154.227
2908.33	158.554
2909.64	163.139
2910.95	168.405
2912.26	173.961
2913.57	178.76
2914.87	183.603
2916.18	189.865
2917.49	194.86
2918.8	198.944
2920.11	203.085
2921.42	207.362
2922.72	211.613
2924.03	215.885
2925.34	219.674
2926.64	222.851
2927.95	225.492
2929.26	227.662
2930.56	229.217
2931.87	230.926
2933.17	232.425
2934.48	233.087
2935.78	233.825
2937.09	235.238
2938.39	234.439
2939.7	233.23
2941	232.335
2942.31	231.4
2943.61	228.881
2944.91	226.4
2946.22	223.132
2947.52	220.202
2948.82	216.623
2950.13	212.605
2951.43	209.294
2952.73	205.889
2954.03	201.807
2955.33	197.254
2956.64	192.613
2957.94	187.824
2959.24	183.343
2960.54	178.353
2961.84	173.88
2963.14	169.339
2964.44	163.62
2965.74	159.831
2967.04	155.572
2968.34	151.746
2969.64	147.087
2970.94	142.614
2972.24	137.764
2973.53	134.257
2974.83	130.08
2976.13	126.075
2977.43	121.586
2978.73	117.118
2980.02	112.684
2981.32	108.662
2982.62	103.571
2983.91	99.575
2985.21	95.4348
2986.51	91.85
2987.8	88.2612
2989.1	84.6623
2990.4	80.9576
2991.69	77.3621
2992.99	73.9903
2994.28	70.4198
2995.57	66.7986
2996.87	64.0739
2998.16	60.8465
2999.46	58.0168
3000.75	55.3095
3002.05	52.1136
3003.34	47.6162
3004.63	44.6153
3005.92	42.2354
3007.22	39.1012
3008.51	35.9765
3009.8	33.1948
3011.09	31.2577
3012.39	29.1487
3013.68	26.548
3014.97	24.9601
3016.26	23.7482
3017.55	22.2611
3018.84	21.0348
3020.13	19.5322
3021.42	18.2419
3022.71	16.9921
3024	16.1014
3025.29	15.4723
3026.58	15.2358
3027.87	14.369
3029.16	13.9831
3030.45	13.4344
3031.73	13.1576
3033.02	12.4393
3034.31	11.6852
3035.6	11.3055
3036.89	11.2203
3038.17	11.4729
3039.46	10.5486
3040.75	10.4607
3042.03	10.4039
3043.32	10.8743
3044.61	11.1298
3045.89	12.0049
3047.18	12.0647
3048.46	12.5759
3049.75	13.1731
3051.03	13.7707
3052.32	13.8422
3053.6	13.906
3054.89	13.9251
3056.17	13.7256
3057.45	13.2708
3058.74	12.8822
3060.02	13.0102
3061.31	12.7312
3062.59	12.7071
3063.87	11.8218
3065.15	10.9717
3066.44	10.3773
3067.72	9.60084
3069	8.98439
3070.28	9.02609
3071.56	8.2165
3072.84	7.3639
3074.13	6.73058
3075.41	6.9899
3076.69	5.97321
3077.97	4.96163
3079.25	4.29609
3080.53	3.33414
3081.81	3.08903
3083.09	2.47901
3084.37	1.7513
3085.64	1.02892
3086.92	1.21358
3088.2	1.60618
3089.48	1.53059
3090.76	1.373
3092.04	0.744745
3093.31	0.771386
3094.59	0.156473
3095.87	0.221827
3097.14	-0.354108
3098.42	-0.205861
3099.7	-0.00293472
3100.97	-0.0210016
3102.25	-0.0344359
3103.53	-0.132455
3104.8	0.287158
3106.08	1.20153
3107.35	1.75154
3108.63	2.01694
3109.9	1.82972
3111.18	1.45145
3112.45	2.32377
3113.73	2.52651
3115	3.08459
3116.27	3.24215
3117.55	3.18272
3118.82	3.36254
3120.09	3.774
3121.37	3.98717
3122.64	4.58121
3123.91	5.06885
3125.18	5.50207
3126.45	6.18289
3127.73	5.88135
3129	6.65706
3130.27	7.13429
3131.54	7.02084
3132.81	7.18017
3134.08	8.11859
3135.35	8.06524
3136.62	8.523
3137.89	9.58223
3139.16	10.448
3140.43	10.8835
3141.7	11.6655
3142.97	13.0102
3144.24	14.2665
3145.51	15.2098
3146.78	16.2539
3148.04	16.9722
3149.31	17.9076
