#Acq. time (s)=	45
#Accumulations=	2
#Range (cm-¹)=	200...3150
#Windows=	2
#Auto scanning=	Off
#Autofocus=	Off
#Macrospot=	Off
#AutoExposure=	Off
#Spike filter=	Multiple accum.
#Delay time (s)=	0
#Binning=	1
#Readout mode=	Signal
#DeNoise=	Off
#ICS correction=	On
#Dark correction=	Off
#Inst. Process=	Off
#Detector Gain=	Best Dynamic Range
#Detector ADC=	20 kHz       
#Detector temperature (°C)=	-69.85
#Instrument=	LabRAM HR Evol
#Detector=	Synapse
#Objective=	x100
#Grating=	600 gr/mm
#ND Filter=	100%
#Laser (nm)=	532 
#Hole=	100.021
#Range=	Auto
#Laser Pol.=	No
#Raman. Pol.=	No
#Laser Pol. (°)=	-0.0007625
#Raman Pol. (°)=	89.9995
#Collection=	Microscope
#StageXY=	Marzhauser
#StageZ=	Marzhauser
#X (µm)=	-2494.2
#Y (µm)=	-112.4
#Z (µm)=	-10.6
#Full time(mm:ss)=	3:18
#Project=	
#Sample=	
#Site=	
#Title=	Mb_40_24_27_2x_45s_532 nm_x100_100%_600 gr_mm
#Remark=	
#Date=	14.07.2022 12:42
#Acquired=	14.07.2022 12:42:28
#Edit:Spike=	10.08.2022 10:43:09
#Edit:Spike=	10.08.2022 10:43:10
#Edit:Spike=	10.08.2022 10:43:12
#Edit:Spike=	10.08.2022 10:43:42
#Edit:Spike=	10.08.2022 10:43:43
#Base:Fit=	10.08.2022 10:47:00
#Base:Sub=	10.08.2022 10:47:12
#Filter:Polynom=	16.08.2022 10:11:48
#AxisType[0]=Intens
#AxisUnit[0]=Cnt
#AxisType[1]=Spectr
#AxisUnit[1]=1/cm
200.554	55.1234
202.369	52.0027
204.183	46.6575
205.999	41.4223
207.813	37.5658
209.626	33.2262
211.439	28.6044
213.253	25.7511
215.065	22.1609
216.877	20.2867
218.688	16.1804
220.5	13.8272
222.312	12.1295
224.123	11.0611
225.933	9.86492
227.742	9.90719
229.552	8.37702
231.361	6.23778
233.171	5.96413
234.98	5.15059
236.787	5.28079
238.595	5.25766
240.402	6.08433
242.209	5.55848
244.015	5.90802
245.822	6.43225
247.627	6.641
249.435	7.79093
251.24	7.04877
253.045	9.7046
254.849	10.6828
256.653	11.1739
258.457	12.6081
260.26	13.5415
262.063	13.8301
263.866	15.6517
265.668	15.9053
267.47	15.6447
269.271	15.1874
271.073	15.7077
272.873	16.6813
274.674	16.7415
276.474	17.1815
278.274	18.0044
280.073	16.9019
281.872	16.5278
283.671	14.5611
285.47	13.9426
287.268	14.2766
289.065	12.7207
290.863	12.2245
292.66	11.3092
294.456	11.3416
296.253	10.3609
298.049	8.63893
299.844	8.43625
301.637	9.69085
303.432	10.0552
305.227	9.05954
307.021	9.71589
308.815	9.32975
310.609	10.5674
312.402	11.3785
314.195	11.1764
315.987	11.1299
317.777	11.9626
319.569	11.8684
321.36	13.1828
323.151	13.8104
324.942	14.3071
326.733	14.7179
328.521	15.9172
330.31	17.1087
332.1	16.6827
333.889	17.3841
335.677	17.9893
337.464	18.342
339.252	19.5439
341.039	19.0809
342.826	20.3361
344.611	21.0068
346.398	21.4805
348.184	20.633
349.97	19.4873
351.754	18.3869
353.539	18.4178
355.324	18.1093
357.106	18.5544
358.89	17.4328
360.674	17.3809
362.455	16.9806
364.239	15.9982
366.021	15.7317
367.804	14.3343
369.584	13.312
371.366	13.1841
373.145	11.5312
374.926	10.6239
376.707	11.1686
378.485	10.3361
380.265	12.0881
382.045	10.9078
383.822	10.3493
385.601	10.0971
387.378	9.4077
389.156	9.80436
390.934	10.1707
392.71	10.2986
394.487	10.2452
396.262	10.2734
398.038	9.72487
399.813	10.0589
401.588	10.2505
403.362	11.5395
405.137	12.3954
406.912	12.9913
408.685	14.189
410.459	14.2867
412.23	13.4736
414.004	13.6369
415.775	14.0413
417.548	14.4651
419.318	13.5851
421.089	13.062
422.86	13.5302
424.63	14.3872
426.401	14.544
428.17	14.693
429.94	13.5817
431.708	13.7689
433.478	13.9928
435.245	12.626
437.012	11.1178
438.781	10.653
440.547	9.55204
442.315	9.79883
444.081	10.7381
445.846	10.4388
447.613	9.67718
449.378	9.77741
451.142	9.32182
452.908	8.86226
454.672	8.70023
456.435	8.84745
458.2	8.09736
459.963	8.30306
461.725	7.7514
463.489	6.48729
465.251	7.68361
467.012	6.87536
468.775	7.36551
470.536	6.95814
472.296	7.56591
474.056	7.35181
475.817	7.07643
477.576	8.8815
479.335	9.44202
481.094	10.8676
482.854	11.5266
484.612	13.1402
486.37	14.6951
488.127	16.9284
489.886	17.6729
491.642	19.4585
493.398	20.0784
495.154	22.0159
496.91	24.7504
498.667	25.7355
500.422	27.3788
502.176	28.9264
503.93	30.2822
505.684	30.794
507.438	31.9487
509.191	31.4666
510.946	32.4137
512.698	32.3139
514.45	32.6653
516.202	32.9334
517.954	33.6086
519.705	34.8884
521.456	34.5594
523.206	35.26
524.956	35.6848
526.706	36.4873
528.456	36.4578
530.207	37.6393
531.956	37.6596
533.704	36.085
535.452	34.7165
537.2	33.1209
538.947	32.6411
540.694	31.1813
542.441	29.9683
544.188	30.8926
545.934	28.7223
547.68	27.8429
549.425	26.5523
551.17	25.2097
552.915	26.1591
554.659	25.6702
556.403	26.1401
558.145	24.8926
559.889	23.9632
561.632	24.1234
563.375	24.9326
565.117	24.9797
566.859	24.5416
568.601	24.2335
570.342	23.5407
572.083	21.7198
573.824	21.1915
575.565	21.2689
577.303	20.5733
579.043	21.281
580.782	21.3726
582.521	21.3777
584.26	21.8724
585.998	20.4904
587.734	18.2667
589.472	16.9084
591.21	14.7304
592.947	13.1337
594.684	11.1926
596.418	9.27187
598.154	10.3357
599.89	10.3788
601.626	11.3057
603.361	11.1713
605.094	11.2926
606.828	11.5304
608.562	10.9146
610.296	11.6261
612.027	11.3704
613.761	10.3475
615.493	9.29996
617.224	7.87
618.956	8.2111
620.688	8.12827
622.419	8.08141
624.149	7.85759
625.879	8.20541
627.61	8.52695
629.338	9.21105
631.068	10.4364
632.797	8.77342
634.525	9.1426
636.254	10.5319
637.98	12.2809
639.708	13.256
641.436	13.1276
643.162	14.4537
644.889	15.4237
646.614	15.9107
648.34	15.8726
650.067	15.3847
651.791	14.6893
653.516	14.8641
655.239	13.7338
656.964	13.5343
658.687	13.4616
660.411	13.5411
662.133	13.496
663.857	13.0815
665.58	12.9944
667.301	11.7493
669.024	11.3596
670.744	11.3067
672.464	10.3538
674.186	11.0966
675.905	11.8216
677.626	10.7626
679.345	11.1175
681.065	12.3
682.783	13.4632
684.503	15.4713
686.22	16.4093
687.939	15.9607
689.656	16.7113
691.372	18.1684
693.09	17.4123
694.806	17.1654
696.523	17.1304
698.239	15.7247
699.953	15.4807
701.67	15.4152
703.384	15.914
705.098	18.8118
706.813	19.2152
708.526	20.1866
710.239	21.376
711.954	23.4208
713.666	24.5525
715.378	25.1561
717.091	26.0901
718.802	26.7134
720.513	28.1605
722.226	30.4277
723.936	31.9021
725.646	31.7958
727.355	33.1729
729.067	33.194
730.776	33.0475
732.484	31.8239
734.192	33.1236
735.902	33.8568
737.61	33.3655
739.317	33.3248
741.024	34.9114
742.731	35.9717
744.439	36.9631
746.145	38.4778
747.851	40.7011
749.556	42.8425
751.262	44.3542
752.966	46.3559
754.673	48.4874
756.377	50.4625
758.081	52.9892
759.784	54.7025
761.487	56.3771
763.19	57.857
764.892	59.9422
766.594	60.7699
768.296	62.8021
770	63.6849
771.701	65.1824
773.402	66.3716
775.102	68.7705
776.803	68.3687
778.503	67.549
780.202	69.8626
781.901	71.0125
783.6	72.8402
785.299	75.0574
786.997	76.1756
788.695	79.1774
790.393	81.5188
792.09	83.4493
793.787	85.3328
795.484	86.2677
797.18	86.3618
798.877	87.0574
800.572	86.3969
802.268	87.5239
803.963	88.3923
805.658	88.0192
807.35	87.4893
809.044	86.8045
810.738	85.5819
812.432	85.1314
814.125	82.9215
815.818	82.7158
817.51	82.3979
819.202	82.195
820.894	81.8112
822.584	81.3393
824.275	81.7299
825.966	82.1293
827.657	80.3945
829.347	80.2997
831.037	79.6982
832.725	79.3917
834.414	78.0024
836.103	76.5605
837.792	74.7347
839.481	73.1412
841.167	72.279
842.854	71.9448
844.542	69.9938
846.229	68.7971
847.914	67.3401
849.6	66.3312
851.287	65.2952
852.973	65.978
854.656	63.4887
856.341	62.5142
858.026	61.0479
859.711	59.3599
861.393	58.2174
863.077	58.6892
864.761	58.3694
866.442	57.442
868.125	56.8303
869.808	55.9006
871.489	56.2807
873.171	57.982
874.85	56.9562
876.532	56.4932
878.213	55.0669
879.892	55.2636
881.572	55.7364
883.251	56.2818
884.931	57.0298
886.61	56.7127
888.287	57.2845
889.966	55.7597
891.643	57.3418
893.321	57.7257
894.997	57.6744
896.675	58.2116
898.352	58.8246
900.028	59.7155
901.704	60.5003
903.379	60.0095
905.055	61.7442
906.729	60.6019
908.404	60.929
910.077	61.8532
911.75	62.855
913.425	63.4855
915.097	63.2778
916.771	62.7551
918.443	61.8439
920.116	62.0128
921.787	60.3918
923.46	60.7844
925.13	60.9459
926.8	60.2166
928.472	59.335
930.141	58.3141
931.813	57.7603
933.481	55.7251
935.15	54.1753
936.82	53.0023
938.488	51.0359
940.156	50.4645
941.825	49.4733
943.492	48.38
945.158	48.1686
946.827	46.1708
948.493	44.1726
950.158	43.1689
951.824	42.9032
953.491	41.3712
955.156	41.2125
956.82	40.4638
958.486	38.4678
960.15	36.9963
961.814	36.3812
963.477	37.0039
965.142	35.9323
966.804	35.735
968.467	35.6828
970.129	34.7474
971.79	36.827
973.454	36.2174
975.115	37.9574
976.776	37.6511
978.436	39.3051
980.096	40.5889
981.756	40.6697
983.417	41.1724
985.077	41.5519
986.736	41.858
988.394	43.8707
990.052	43.7317
991.71	44.4695
993.368	44.7158
995.025	45.593
996.682	44.7549
998.341	45.1999
999.998	44.9449
1001.65	44.0526
1003.31	44.0485
1004.97	42.1863
1006.62	42.7931
1008.28	43.1746
1009.93	42.8433
1011.58	43.4865
1013.24	44.9327
1014.89	46.211
1016.54	46.8845
1018.2	47.7994
1019.85	48.3368
1021.5	49.036
1023.16	50.0928
1024.81	50.2579
1026.46	51.4436
1028.11	51.575
1029.76	51.2366
1031.41	51.686
1033.06	51.5366
1034.71	51.421
1036.36	50.804
1038.01	50.9554
1039.66	49.3321
1041.31	48.0966
1042.95	48.2384
1044.6	49.4651
1046.25	50.5158
1047.9	51.1
1049.54	51.9326
1051.19	52.0805
1052.84	51.473
1054.48	51.6239
1056.13	52.1168
1057.77	52.3898
1059.42	52.5865
1061.06	52.062
1062.71	51.1335
1064.35	50.9757
1066	51.7322
1067.64	50.7151
1069.28	51.3805
1070.93	51.0438
1072.57	49.4854
1074.21	47.8167
1075.85	47.66
1077.49	47.3291
1079.13	45.4846
1080.78	42.8492
1082.42	39.5874
1084.06	38.4935
1085.7	38.0573
1087.34	37.5094
1088.97	38.9075
1090.61	38.826
1092.25	39.8981
1093.89	39.4212
1095.53	39.5625
1097.17	38.792
1098.8	39.0997
1100.44	38.8371
1102.08	39.3228
1103.71	40.3562
1105.35	40.0549
1106.99	39.6605
1108.62	39.5906
1110.26	38.8431
1111.89	38.4984
1113.52	37.7472
1115.16	37.1019
1116.79	36.5682
1118.43	34.9218
1120.06	33.9609
1121.69	33.4288
1123.32	33.4642
1124.96	33.2235
1126.59	32.831
1128.22	33.4269
1129.85	33.1127
1131.48	32.4421
1133.11	31.0335
1134.75	29.1788
1136.37	29.8427
1138	29.3872
1139.63	27.8731
1141.26	27.2385
1142.89	26.0928
1144.52	25.5828
1146.15	25.1762
1147.78	23.7654
1149.4	22.8411
1151.03	21.0068
1152.66	18.1248
1154.28	16.1861
1155.91	14.6735
1157.54	13.7852
1159.16	11.6146
1160.79	9.46145
1162.41	7.57709
1164.04	6.45523
1165.66	6.63855
1167.29	5.61915
1168.91	5.43256
1170.53	4.6075
1172.16	3.89094
1173.78	4.82363
1175.4	2.7927
1177.02	3.83585
1178.65	4.84983
1180.27	6.0283
1181.89	4.38068
1183.51	4.84258
1185.13	4.96908
1186.75	4.53101
1188.37	5.12534
1189.99	5.62011
1191.61	6.21632
1193.23	7.45464
1194.85	8.46577
1196.47	9.53077
1198.08	8.94905
1199.7	9.24929
1201.32	11.4379
1202.94	13.1988
1204.55	14.6432
1206.17	16.7207
1207.79	17.927
1209.4	20.1206
1211.02	21.493
1212.63	22.909
1214.25	24.7107
1215.86	26.5827
1217.48	28.8009
1219.09	30.4724
1220.71	31.7676
1222.32	33.2151
1223.93	36.6336
1225.54	38.7763
1227.16	41.4559
1228.77	44.4984
1230.38	47.7601
1231.99	48.7767
1233.6	51.9332
1235.22	55.2015
1236.83	58.5508
1238.44	60.6166
1240.05	62.1701
1241.66	64.1008
1243.26	65.7991
1244.87	66.1894
1246.48	68.4689
1248.09	69.4942
1249.7	70.9386
1251.31	72.9591
1252.92	74.4297
1254.52	74.8746
1256.13	75.9222
1257.74	77.4646
1259.34	78.4951
1260.95	79.6495
1262.55	80.1472
1264.16	82.714
1265.76	84.7272
1267.37	86.7542
1268.97	88.1142
1270.58	89.5225
1272.18	93.0531
1273.78	96.0343
1275.39	96.7453
1276.99	98.5825
1278.59	98.3082
1280.2	100.413
1281.8	101.763
1283.4	103.67
1285	105.293
1286.6	106.747
1288.2	107.569
1289.8	110.07
1291.4	111.208
1293	110.237
1294.6	111.012
1296.2	110.424
1297.8	111.478
1299.4	112.427
1301	112.741
1302.6	114.908
1304.19	117.077
1305.79	117.609
1307.39	119.086
1308.99	120.627
1310.58	121.382
1312.18	120.966
1313.77	122.927
1315.37	122.538
1316.96	121.895
1318.56	121.248
1320.15	120.425
1321.75	119.476
1323.34	113.913
1324.94	112.751
1326.53	112.696
1328.12	113.809
1329.72	114.689
1331.31	115.118
1332.9	112.706
1334.49	113.71
1336.08	113.681
1337.67	113.153
1339.27	112.923
1340.86	113.601
1342.45	112.363
1344.04	111.583
1345.63	111.532
1347.22	110.489
1348.8	110.15
1350.39	109.869
1351.98	112.372
1353.57	109.351
1355.16	107.068
1356.75	106.105
1358.33	102.678
1359.92	101.708
1361.51	100.111
1363.09	99.7694
1364.68	97.8921
1366.27	95.8847
1367.85	94.0132
1369.44	90.8614
1371.02	87.6448
1372.61	84.7949
1374.19	83.9723
1375.77	82.6056
1377.36	81.2379
1378.94	80.0093
1380.52	79.8577
1382.11	79.4798
1383.69	77.9571
1385.27	76.7266
1386.85	74.8235
1388.43	74.2452
1390.02	73.0126
1391.6	70.9789
1393.18	70.325
1394.76	67.8439
1396.34	67.4273
1397.92	66.62
1399.5	65.024
1401.08	65.3412
1402.65	65.7162
1404.23	70.9166
1405.81	72.5156
1407.39	74.8586
1408.97	74.4953
1410.54	74.9351
1412.12	76.887
1413.7	80.3996
1415.27	81.7637
1416.85	86.0361
1418.43	89.099
1420	93.1318
1421.58	97.2729
1423.15	102.171
1424.73	107.929
1426.3	112.722
1427.87	117.769
1429.45	122.699
1431.02	128.095
1432.6	131.246
1434.17	136.097
1435.74	139.888
1437.31	142.995
1438.89	146.642
1440.46	148.338
1442.03	150.013
1443.6	151.233
1445.17	153.348
1446.74	153.097
1448.31	153.484
1449.88	154.703
1451.45	153.811
1453.02	153.629
1454.59	152.107
1456.16	151.473
1457.72	151.449
1459.29	148.605
1460.86	145.611
1462.43	141.458
1463.99	138.274
1465.56	135.499
1467.13	132.326
1468.69	127.338
1470.26	122.301
1471.83	117.83
1473.39	113.022
1474.95	108.293
1476.52	103.066
1478.08	98.0028
1479.65	93.3105
1481.21	86.9222
1482.78	81.7587
1484.34	77.1451
1485.9	73.3819
1487.47	69.7132
1489.03	66.9622
1490.59	64.7116
1492.15	62.0133
1493.71	59.9677
1495.27	58.2011
1496.84	54.739
1498.39	53.6421
1499.96	52.3346
1501.52	50.2663
1503.07	48.8858
1504.64	46.6999
1506.19	45.0619
1507.75	44.6877
1509.31	43.1598
1510.87	41.9833
1512.43	38.49
1513.98	36.7959
1515.54	35.2621
1517.1	33.7515
1518.65	31.6046
1520.21	31.5909
1521.77	31.178
1523.32	30.1309
1524.88	29.1786
1526.44	30.091
1527.99	30.236
1529.54	28.6368
1531.1	30.097
1532.65	31.7331
1534.21	32.7521
1535.76	32.8472
1537.31	31.9702
1538.87	32.3646
1540.42	32.3003
1541.97	34.2252
1543.52	34.2372
1545.07	34.2272
1546.63	34.5115
1548.18	35.4301
1549.73	36.6146
1551.28	37.2526
1552.83	37.8455
1554.38	39.9924
1555.93	42.1241
1557.48	44.6191
1559.03	46.9363
1560.57	51.0132
1562.12	53.0532
1563.67	55.8295
1565.22	58.9247
1566.77	61.2357
1568.31	63.3286
1569.86	65.5287
1571.41	67.8371
1572.95	69.8484
1574.5	72.2551
1576.05	75.6441
1577.59	78.1918
1579.14	81.1466
1580.68	83.6233
1582.23	85.6607
1583.77	88.9417
1585.31	91.7431
1586.86	93.3186
1588.4	95.9886
1589.95	98.6041
1591.49	102.69
1593.03	104.428
1594.57	105.922
1596.11	107.401
1597.66	108.945
1599.2	109.456
1600.74	110.161
1602.28	112.105
1603.82	112.642
1605.36	113.333
1606.9	112.969
1608.44	113.774
1609.98	113.959
1611.52	112.835
1613.06	111.906
1614.6	111.57
1616.13	111.183
1617.67	110.696
1619.21	110.844
1620.75	109.782
1622.28	110.113
1623.82	110.093
1625.36	110.077
1626.89	110.925
1628.43	111.246
1629.96	113.007
1631.5	114.524
1633.04	115.216
1634.57	115.875
1636.11	116.342
1637.64	116.983
1639.17	118.212
1640.71	119.558
1642.24	120.574
1643.77	120.016
1645.31	120.904
1646.84	121.906
1648.37	123.143
1649.9	123.962
1651.43	125.155
1652.96	125.88
1654.5	126.182
1656.03	126.193
1657.56	125.928
1659.09	127.053
1660.62	128.252
1662.15	127.13
1663.67	126.203
1665.2	124.92
1666.73	122.731
1668.26	119.667
1669.79	115.629
1671.32	112.764
1672.84	109.321
1674.37	106.305
1675.9	102.475
1677.43	99.1427
1678.95	95.303
1680.48	91.8053
1682	87.9449
1683.53	83.786
1685.05	79.6768
1686.58	75.5752
1688.1	71.5402
1689.63	67.4696
1691.15	64.5067
1692.68	60.2709
1694.2	56.82
1695.72	53.9916
1697.25	50.6589
1698.77	47.8517
1700.29	44.8616
1701.81	42.8095
1703.33	40.4894
1704.86	38.2278
1706.38	36.0256
1707.9	33.5949
1709.42	30.7966
1710.94	29.0745
1712.46	27.8281
1713.98	26.8982
1715.5	26.2958
1717.02	23.8883
1718.54	22.3076
1720.06	21.1079
1721.57	20.7169
1723.09	19.3874
1724.61	19.0704
1726.13	18.8773
1727.64	18.2923
1729.16	17.289
1730.68	16.9929
1732.19	16.5193
1733.71	16.1401
1735.23	16.0114
1736.74	14.4757
1738.26	13.1956
1739.77	12.9082
1741.29	12.6668
1742.8	12.3576
1744.31	11.8617
1745.83	11.221
1747.34	11.4249
1748.85	10.4191
1750.37	10.5676
1751.88	9.83645
1753.39	9.96037
1754.91	9.90155
1756.42	10.2241
1757.93	9.73539
1759.44	9.86034
1760.95	8.96758
1762.46	8.2978
1763.97	8.59408
1765.48	8.46704
1766.99	7.5651
1768.5	6.79955
1770.01	6.71786
1771.52	6.43211
1773.03	5.95253
1774.54	5.56889
1776.04	5.55609
1777.55	5.61324
1779.06	5.2049
1780.57	4.96312
1782.07	4.16377
1783.58	3.48009
1785.09	3.13173
1786.59	3.15983
1788.1	2.60823
1789.6	2.17063
1791.11	1.34649
1792.61	1.04393
1794.12	1.34562
1795.62	1.58834
1797.13	1.65555
1798.63	1.46068
1800.13	1.35049
1801.64	1.26246
1803.14	0.641856
1804.64	0.259123
1806.15	0.652695
1807.65	0.470346
1809.15	0.690103
1810.65	1.05376
1812.15	1.02706
1813.65	1.58017
1815.16	2.40524
1816.66	2.77691
1818.15	2.42741
1819.66	2.51398
1821.16	2.51088
1822.65	3.23631
1824.15	3.0938
1825.65	4.36523
1827.15	4.02669
1828.65	3.84063
1830.15	3.62182
1831.64	3.61757
1833.14	3.67581
1834.64	4.17643
1836.14	3.67255
1837.63	4.04184
1839.13	4.95739
1840.62	4.60485
1842.12	4.76812
1843.62	4.58989
1845.11	5.23966
1846.61	5.5495
1848.1	5.45876
1849.6	5.96199
1851.09	7.03253
1852.58	6.33051
1854.08	6.23142
1855.57	5.86139
1857.06	5.79588
1858.55	5.07683
1860.05	5.22399
1861.54	4.5216
1863.03	4.48567
1864.52	4.72721
1866.01	3.8708
1867.5	3.50976
1869	3.26296
1870.49	3.25797
1871.98	2.52525
1873.47	1.53034
1874.96	1.19177
1876.44	0.291204
1877.93	0.33131
1879.42	0.372732
1880.91	0.047556
1882.4	-0.30087
1882.47	-0.29363
1883.96	-0.400928
1885.46	0.0186468
1886.95	0.208083
1888.44	0.28311
1889.94	-0.0228059
1891.43	-1.09891
1892.93	-1.19993
1894.42	-0.813257
1895.91	-0.839247
1897.4	-1.33021
1898.89	-1.04624
1900.39	-1.19862
1901.88	-0.894362
1903.37	-0.660595
1904.86	-0.435107
1906.35	-0.650192
1907.84	0.679518
1909.33	0.951612
1910.82	2.07356
1912.31	2.53909
1913.8	2.52208
1915.29	2.74436
1916.77	2.48779
1918.26	2.936
1919.75	3.03158
1921.24	3.06398
1922.73	3.2239
1924.21	3.54969
1925.7	2.65917
1927.19	3.36233
1928.67	3.17794
1930.16	3.31125
1931.64	3.13967
1933.13	2.56776
1934.61	2.3249
1936.1	2.26749
1937.58	2.67081
1939.07	2.47493
1940.55	3.46343
1942.04	4.10658
1943.52	4.08442
1945	3.73929
1946.49	3.818
1947.97	4.26025
1949.45	4.72301
1950.93	5.38916
1952.42	5.04821
1953.9	5.03994
1955.38	5.38967
1956.86	5.97883
1958.34	6.0459
1959.82	6.69116
1961.3	6.44275
1962.78	6.95546
1964.26	6.68717
1965.74	6.83737
1967.22	7.14038
1968.7	7.74999
1970.18	7.27219
1971.65	7.53585
1973.13	7.64808
1974.61	7.66164
1976.09	7.2184
1977.57	6.69497
1979.04	6.48305
1980.52	6.84503
1982	6.7099
1983.47	5.67657
1984.95	5.8856
1986.42	5.38704
1987.9	4.53973
1989.37	4.33456
1990.85	4.70936
1992.32	4.87246
1993.8	4.97713
1995.27	4.66334
1996.75	4.19762
1998.22	4.64105
1999.69	4.07704
2001.17	4.08873
2002.64	3.86023
2004.11	4.36067
2005.58	4.70265
2007.05	4.65258
2008.53	5.25855
2010	5.83944
2011.47	5.80678
2012.94	5.94884
2014.41	6.28482
2015.88	5.76205
2017.35	5.62617
2018.82	5.45253
2020.29	5.43724
2021.76	6.0063
2023.23	6.81188
2024.7	6.87932
2026.16	7.56664
2027.63	8.82528
2029.1	10.223
2030.57	10.6693
2032.03	10.9507
2033.5	11.7714
2034.97	12.0152
2036.44	13.4891
2037.9	14.0036
2039.37	14.7249
2040.83	15.3583
2042.3	16.2927
2043.76	16.1502
2045.23	17.5326
2046.69	18.1387
2048.16	18.1901
2049.62	18.4935
2051.08	19.5291
2052.55	20.7565
2054.01	21.9721
2055.47	22.1758
2056.94	23.0369
2058.4	24.4154
2059.86	24.4204
2061.32	25.4419
2062.79	26.9908
2064.25	27.9149
2065.71	28.0555
2067.17	28.7688
2068.63	29.8888
2070.09	31.2424
2071.55	32.8823
2073.01	33.6823
2074.47	36.0889
2075.93	37.5645
2077.39	38.9624
2078.85	40.9442
2080.31	41.9376
2081.76	43.0002
2083.22	44.4764
2084.68	45.7788
2086.13	47.7594
2087.59	49.6521
2089.05	51.0017
2090.51	52.1897
2091.96	53.8878
2093.42	56.5058
2094.87	58.9986
2096.33	61.5446
2097.78	63.5564
2099.24	65.7465
2100.69	68.2473
2102.15	70.2138
2103.6	71.3931
2105.06	74.8003
2106.51	77.3613
2107.96	79.9467
2109.42	82.3255
2110.87	84.7037
2112.32	87.6079
2113.77	90.3528
2115.23	93.3164
2116.68	95.8052
2118.13	98.7007
2119.58	101.007
2121.03	103.266
2122.48	106.894
2123.93	110.879
2125.38	113.811
2126.83	117.273
2128.28	120.465
2129.73	124.605
2131.18	128.223
2132.63	130.815
2134.08	135.011
2135.53	138.125
2136.97	142.603
2138.42	145.29
2139.87	149.438
2141.32	153.048
2142.76	156.372
2144.21	160.035
2145.66	162.872
2147.1	166.833
2148.55	169.774
2150	172.4
2151.44	175.224
2152.89	176.796
2154.33	178.897
2155.78	180.851
2157.22	182.363
2158.66	183.433
2160.11	184.921
2161.55	184.878
2163	185.968
2164.44	186.629
2165.88	188.061
2167.32	188.963
2168.77	189.834
2170.21	189.94
2171.65	188.901
2173.09	188.219
2174.53	186.818
2175.97	185.351
2177.41	184.473
2178.85	182.684
2180.29	180.937
2181.73	179.104
2183.17	177.591
2184.61	175.881
2186.05	173.485
2187.49	170.717
2188.93	167.671
2190.37	165.333
2191.81	163.662
2193.24	161.266
2194.68	158.926
2196.12	156.524
2197.56	153.457
2198.99	151.102
2200.43	147.993
2201.87	143.865
2203.3	139.455
2204.74	135.11
2206.17	132.307
2207.61	128.797
2209.04	126.151
2210.48	122.08
2211.91	118.784
2213.35	114.693
2214.78	111.345
2216.21	107.862
2217.65	103.909
2219.08	100.813
2220.51	97.4078
2221.95	93.6575
2223.38	90.2444
2224.81	87.4188
2226.24	83.2471
2227.67	79.2785
2229.1	75.6666
2230.54	72.6989
2231.97	70.1712
2233.4	67.1652
2234.83	65.7003
2236.26	63.6615
2237.69	62.4393
2239.11	59.9734
2240.54	57.5412
2241.97	54.355
2243.4	51.725
2244.83	49.3459
2246.26	47.4916
2247.69	46.7426
2249.11	46.1062
2250.54	45.442
2251.97	44.0578
2253.4	43.0022
2254.82	41.8549
2256.25	40.9173
2257.67	39.5819
2259.1	38.3372
2260.53	37.635
2261.95	37.3939
2263.38	36.0386
2264.8	34.0537
2266.23	32.3966
2267.65	31.9526
2269.07	30.49
2270.5	28.541
2271.92	27.7786
2273.34	27.1833
2274.77	27.3935
2276.19	26.8665
2277.61	26.7283
2279.03	25.9572
2280.46	25.531
2281.88	24.6778
2283.3	23.039
2284.72	21.6516
2286.14	20.8927
2287.56	19.7783
2288.98	18.7763
2290.4	17.9228
2291.82	16.2325
2293.24	14.7002
2294.66	13.5217
2296.08	13.3722
2297.5	12.4701
2298.92	12.9545
2300.34	13.6047
2301.76	13.786
2303.17	14.282
2304.59	14.6463
2306.01	14.6247
2307.43	14.6418
2308.84	14.0324
2310.26	13.4698
2311.68	13.5782
2313.09	13.4471
2314.51	13.707
2315.92	13.7281
2317.34	14.4384
2318.75	14.9614
2320.17	14.9421
2321.58	13.7867
2323	13.0177
2324.41	12.466
2325.82	11.9164
2327.24	11.9001
2328.65	12.3372
2330.06	11.309
2331.48	10.4368
2332.89	10.2289
2334.3	8.98905
2335.71	9.00908
2337.12	9.31226
2338.54	9.84405
2339.95	9.26778
2341.36	9.37562
2342.77	9.7259
2344.18	9.07123
2345.59	8.64791
2347	7.24689
2348.41	6.46945
2349.82	6.0228
2351.23	5.30961
2352.64	3.75406
2354.04	2.27243
2355.45	1.63693
2356.86	1.33241
2358.27	1.32475
2359.68	1.04234
2361.08	0.571236
2362.49	0.357997
2363.9	1.08612
2365.3	2.06582
2366.71	2.68525
2368.12	3.10301
2369.52	3.21325
2370.93	2.88285
2372.33	2.70336
2373.74	3.22571
2375.14	3.06527
2376.55	3.04381
2377.95	3.48554
2379.36	3.65143
2380.76	4.77577
2382.16	6.01911
2383.57	6.40533
2384.97	6.68567
2386.37	7.17441
2387.78	7.46693
2389.18	6.96242
2390.58	7.21076
2391.98	6.79811
2393.38	7.83632
2394.79	8.13491
2396.19	8.58559
2397.59	9.21278
2398.99	9.14662
2400.39	8.27053
2401.79	9.25358
2403.19	10.4319
2404.59	10.4746
2405.99	10.3153
2407.39	10.2721
2408.78	9.99341
2410.18	9.87049
2411.58	9.41408
2412.98	9.7008
2414.38	9.70264
2415.77	9.34152
2417.17	8.5295
2418.57	8.42553
2419.97	8.04651
2421.36	6.19035
2422.76	6.11648
2424.15	5.97127
2425.55	5.89472
2426.95	5.57872
2428.34	5.63428
2429.74	5.62879
2431.13	5.56916
2432.52	6.3281
2433.92	5.90836
2435.31	5.98443
2436.71	5.15045
2438.1	4.56974
2439.49	3.98112
2440.89	3.3636
2442.28	3.63036
2443.67	3.22781
2445.06	3.61958
2446.46	3.75859
2447.85	4.85756
2449.24	4.37696
2450.63	4.37267
2452.02	3.82473
2453.41	3.43444
2454.8	3.36812
2456.19	3.21536
2457.58	2.99742
2458.97	2.30047
2460.36	2.84411
2461.75	2.85132
2463.14	2.65656
2464.53	2.98891
2465.92	3.44149
2467.31	3.37838
2468.69	4.02168
2470.08	4.43152
2471.47	4.68897
2472.86	3.79771
2474.24	2.92948
2475.63	2.49021
2477.02	2.96968
2478.4	2.27184
2479.79	2.9569
2481.17	2.78327
2482.56	3.0605
2483.94	2.60542
2485.33	2.52008
2486.72	2.60752
2488.1	2.40463
2489.48	2.22181
2490.87	1.73378
2492.25	1.95191
2493.64	1.7067
2495.02	1.78499
2496.4	1.77449
2497.79	2.08244
2499.17	2.23859
2500.55	1.72665
2501.93	1.23227
2503.31	0.0444149
2504.69	-0.442385
2506.08	-0.873774
2507.46	-0.763268
2508.84	-0.770985
2510.22	-0.871922
2511.6	-0.394837
2512.98	-0.324428
2514.36	0.237565
2515.74	0.184609
2517.12	0.274947
2518.5	-0.474768
2519.88	0.110604
2521.25	0.301926
2522.63	0.420419
2524.01	0.860915
2525.39	0.960072
2526.77	1.88301
2528.14	1.70908
2529.52	2.10068
2530.9	2.45532
2532.27	2.8909
2533.65	4.04166
2535.03	4.31348
2536.4	5.05408
2537.78	5.72592
2539.15	4.71777
2540.53	3.86096
2541.9	3.56135
2543.28	3.6298
2544.65	3.5333
2546.03	4.26193
2547.4	4.2573
2548.77	5.43411
2550.15	5.3943
2551.52	5.7732
2552.89	5.79689
2554.27	5.74033
2555.64	5.63405
2557.01	5.56952
2558.38	5.48395
2559.75	5.21807
2561.12	4.80399
2562.5	4.67285
2563.87	4.43752
2565.24	4.41508
2566.61	4.39647
2567.98	4.60049
2569.35	4.17552
2570.72	4.65712
2572.09	4.93223
2573.46	4.37956
2574.83	4.51981
2576.19	4.4632
2577.56	4.65867
2578.93	4.61157
2580.3	4.48271
2581.67	4.63529
2583.04	5.17398
2584.4	5.41105
2585.77	4.80401
2587.14	4.91687
2588.5	4.39974
2589.87	4.26891
2591.23	4.50895
2592.6	4.73355
2593.97	4.37589
2595.33	4.33006
2596.7	3.4541
2598.06	2.78021
2599.43	3.06536
2600.79	3.05327
2602.15	2.9843
2603.52	2.5341
2604.88	2.64994
2606.25	1.6944
2607.61	0.870214
2608.97	0.269757
2610.33	0.285634
2611.7	0.579168
2613.06	1.3074
2614.42	2.30851
2615.78	3.28496
2617.15	4.48264
2618.51	4.77404
2619.87	4.4629
2621.23	3.83896
2622.59	3.71957
2623.95	3.7601
2625.31	4.55824
2626.67	4.2971
2628.03	4.55331
2629.39	4.81299
2630.75	4.80068
2632.1	5.45801
2633.46	5.74548
2634.82	6.34107
2636.18	6.92246
2637.54	7.28006
2638.89	7.64263
2640.25	7.27493
2641.61	7.45104
2642.97	8.30865
2644.32	9.28002
2645.68	9.2768
2647.03	9.32476
2648.39	9.55672
2649.75	10.2663
2651.1	10.0182
2652.46	8.70733
2653.81	7.47152
2655.17	7.88013
2656.52	7.10923
2657.88	7.60647
2659.23	7.38635
2660.58	6.68451
2661.94	6.06163
2663.29	5.70971
2664.64	5.25287
2666	4.28373
2667.35	4.46584
2668.7	3.81836
2670.05	4.00195
2671.4	3.84408
2672.76	3.87276
2674.11	3.32845
2675.46	3.41547
2676.81	3.60982
2678.16	4.36726
2679.51	5.09312
2680.86	5.35365
2682.21	5.5878
2683.56	5.98554
2684.91	5.79423
2686.26	4.65918
2687.61	5.5414
2688.96	5.59221
2690.3	5.9643
2691.65	6.38847
2693	6.83282
2694.35	6.75536
2695.7	6.96178
2697.04	7.51818
2698.39	8.38781
2699.74	8.79164
2701.08	10.2665
2702.43	11.6197
2703.77	12.5163
2705.12	12.9089
2706.47	13.2
2707.81	14.3926
2709.16	15.3573
2710.5	15.6102
2711.85	16.4003
2713.19	16.5557
2714.53	17.3895
2715.88	17.5934
2717.22	17.4003
2718.57	16.6325
2719.91	16.1498
2721.25	17.3694
2722.59	18.7087
2723.94	18.3201
2725.28	18.9233
2726.62	17.7874
2727.96	17.5516
2729.3	17.128
2730.65	16.6986
2731.99	16.5731
2733.33	16.1969
2734.67	15.8708
2736.01	15.4237
2737.35	15.4771
2738.69	14.5753
2740.03	13.9467
2741.37	13.328
2742.71	12.5722
2744.05	11.8985
2745.38	11.1615
2746.72	9.89094
2748.06	9.27181
2749.4	8.68318
2750.74	8.385
2752.07	7.37427
2753.41	6.57977
2754.75	6.32435
2756.09	4.86519
2757.42	4.27786
2758.76	3.95547
2760.09	3.32768
2761.43	3.16778
2762.77	3.05516
2764.1	3.02476
2765.44	2.8209
2766.77	2.5847
2768.11	2.9889
2769.44	2.31892
2770.77	1.64913
2772.11	1.18997
2773.44	1.33685
2774.77	0.751662
2776.11	0.731526
2777.44	1.04002
2778.77	1.15643
2780.11	1.1166
2781.44	1.93558
2782.77	1.63892
2784.1	1.66027
2785.43	1.34395
2786.77	1.77657
2788.1	1.80218
2789.43	1.52739
2790.76	0.783974
2792.09	0.342155
2793.42	-0.58068
2794.75	0.153619
2796.08	0.278911
2797.41	0.0818223
2798.74	0.0626419
2800.07	-0.652142
2801.4	-1.47636
2802.72	-0.988055
2804.05	-1.47536
2805.38	-1.83442
2806.71	-2.26034
2808.04	-2.18856
2809.36	-2.48689
2810.69	-2.46645
2812.02	-2.3466
2813.34	-2.11938
2814.67	-0.588003
2816	0.218849
2817.32	2.36973
2818.65	4.21045
2819.97	6.6545
2821.3	9.64069
2822.62	12.8608
2823.95	16.2912
2825.27	20.4231
2826.6	25.0056
2827.92	30.7978
2829.25	35.7959
2830.57	40.8958
2831.89	47.4061
2833.22	53.9291
2834.54	60.322
2835.86	67.3782
2837.18	74.3694
2838.51	81.7758
2839.83	89.5916
2841.15	98.373
2842.47	108.659
2843.79	118.108
2845.11	126.87
2846.43	136.384
2847.76	146.222
2849.08	154.391
2850.4	162.939
2851.72	171.504
2853.04	181.074
2854.36	190.883
2855.67	200.199
2856.99	208.812
2858.31	217.177
2859.63	226.189
2860.95	234.332
2862.27	241.174
2863.58	247.371
2864.9	254.25
2866.22	261.05
2867.54	268.36
2868.85	274.72
2870.17	279.28
2871.49	285.132
2872.8	289.323
2874.12	294.24
2875.43	298.934
2876.75	303.867
2878.07	308.181
2879.38	312.424
2880.7	317.749
2882.01	323.068
2883.32	327.918
2884.64	332.63
2885.95	337.741
2887.27	343.508
2888.58	348.888
2889.89	354.083
2891.21	360.722
2892.52	367.249
2893.83	373.322
2895.14	378.579
2896.46	384.148
2897.77	391.254
2899.08	398.033
2900.39	405.376
2901.7	413.678
2903.01	422.376
2904.32	431.841
2905.63	441.53
2906.94	451.341
2908.25	461.296
2909.56	471.258
2910.87	479.825
2912.18	489.505
2913.49	499.088
2914.8	507.968
2916.11	516.837
2917.42	525.791
2918.72	534.849
2920.03	541.994
2921.34	547.598
2922.65	553.407
2923.95	557.523
2925.26	561.3
2926.57	563.961
2927.88	566.757
2929.18	567.826
2930.49	568.239
2931.79	567.029
2933.1	565.05
2934.4	561.801
2935.71	557.287
2937.01	552.5
2938.32	546.521
2939.62	540.504
2940.93	533.452
2942.23	525.072
2943.54	516.397
2944.84	508.215
2946.14	499.04
2947.45	488.849
2948.75	477.791
2950.05	467.338
2951.35	456.553
2952.66	445.551
2953.96	433.574
2955.26	421.519
2956.56	410.476
2957.86	398.548
2959.16	386.716
2960.46	374.566
2961.77	362.519
2963.07	352.103
2964.37	340.892
2965.66	330.927
2966.96	321.351
2968.26	311.633
2969.56	301.037
2970.86	291.367
2972.16	282.551
2973.46	273.975
2974.76	264.912
2976.06	255.113
2977.35	246.863
2978.65	238.512
2979.95	229.701
2981.25	220.527
2982.54	211.867
2983.84	203.293
2985.14	193.38
2986.43	184.199
2987.73	175.062
2989.02	166.173
2990.32	158.212
2991.62	149.718
2992.91	141.512
2994.21	131.87
2995.5	123.696
2996.8	116.288
2998.09	109.324
2999.38	101.894
3000.68	93.9986
3001.97	87.2363
3003.26	81.1938
3004.56	74.506
3005.85	68.1637
3007.14	62.1765
3008.43	56.6892
3009.73	51.3794
3011.02	45.9302
3012.31	41.2471
3013.6	36.7963
3014.89	32.4312
3016.19	28.3693
3017.48	24.8049
3018.77	21.4983
3020.06	19.0064
3021.35	17.1347
3022.64	14.6374
3023.93	11.4175
3025.22	8.91584
3026.5	7.61017
3027.79	7.08848
3029.08	6.36688
3030.37	5.99775
3031.66	4.81173
3032.95	4.29961
3034.24	4.24748
3035.52	4.46932
3036.81	4.41145
3038.1	4.69976
3039.39	4.60768
3040.67	4.79823
3041.96	5.35665
3043.25	5.33849
3044.53	4.87081
3045.82	5.47129
3047.1	6.42141
3048.39	7.30061
3049.67	7.79703
3050.96	7.97579
3052.24	8.74014
3053.53	9.86342
3054.81	10.0562
3056.1	9.91624
3057.38	10.3407
3058.67	9.80142
3059.95	10.36
3061.23	11.0649
3062.52	10.9089
3063.8	10.4376
3065.08	9.96679
3066.36	10.1933
3067.65	9.63181
3068.93	8.7285
3070.21	8.4976
3071.49	7.98726
3072.77	8.16416
3074.05	7.99261
3075.33	6.70944
3076.61	6.25734
3077.89	5.4978
3079.17	4.92655
3080.45	4.96231
3081.73	5.56369
3083.01	5.50441
3084.29	4.99544
3085.57	5.10862
3086.85	4.57096
3088.13	4.49422
3089.41	5.3162
3090.68	5.62683
3091.96	5.60467
3093.24	5.55485
3094.52	5.91733
3095.79	6.15219
3097.07	7.3574
3098.35	7.60821
3099.62	7.54197
3100.9	8.6068
3102.18	9.39557
3103.45	10.3881
3104.73	11.2613
3106	12.0639
3107.28	12.9546
3108.55	13.7658
3109.83	14.9742
3111.1	16.0041
3112.38	17.4174
3113.65	18.0432
3114.93	19.0627
3116.2	20.552
3117.47	21.433
3118.75	22.1121
3120.02	23.2376
3121.29	24.419
3122.57	25.683
3123.84	27.293
3125.11	28.9938
3126.38	29.7667
3127.65	30.9019
3128.92	32.5422
3130.2	34.6028
3131.47	35.4648
3132.74	37.2283
3134.01	38.9106
3135.28	40.0242
3136.55	41.817
3137.82	42.4127
3139.09	43.4107
3140.36	45.4142
3141.63	46.7523
3142.9	48.4381
3144.17	49.8337
3145.43	51.0433
3146.7	52.5708
3147.97	54.0067
3149.24	53.857
