#Acq. time (s)=	45
#Accumulations=	2
#Range (cm-¹)=	200...3150
#Windows=	2
#Auto scanning=	Off
#Autofocus=	Off
#Macrospot=	Off
#AutoExposure=	Off
#Spike filter=	Multiple accum.
#Delay time (s)=	0
#Binning=	1
#Readout mode=	Signal
#DeNoise=	Off
#ICS correction=	On
#Dark correction=	Off
#Inst. Process=	Off
#Detector Gain=	Best Dynamic Range
#Detector ADC=	20 kHz       
#Detector temperature (°C)=	-70.08
#Instrument=	LabRAM HR Evol
#Detector=	Synapse
#Objective=	x100
#Grating=	600 gr/mm
#ND Filter=	100%
#Laser (nm)=	532 
#Hole=	100.021
#Range=	Auto
#Laser Pol.=	No
#Raman. Pol.=	No
#Laser Pol. (°)=	-0.0007625
#Raman Pol. (°)=	89.9995
#Collection=	Microscope
#StageXY=	Marzhauser
#StageZ=	Marzhauser
#X (µm)=	-2558
#Y (µm)=	-86.2
#Z (µm)=	-10.7
#Full time(mm:ss)=	3:18
#Project=	
#Sample=	
#Site=	
#Title=	Mb_40_24_13_2x_45s_532 nm_x100_100%_600 gr_mm
#Remark=	
#Date=	14.07.2022 11:38
#Acquired=	14.07.2022 11:38:36
#Edit:Spike=	14.07.2022 11:41:56
#Edit:Spike=	14.07.2022 11:41:58
#Base:Fit=	10.08.2022 10:47:00
#Base:Sub=	10.08.2022 10:47:12
#Filter:Polynom=	16.08.2022 10:11:48
#AxisType[0]=Intens
#AxisUnit[0]=Cnt
#AxisType[1]=Spectr
#AxisUnit[1]=1/cm
200.554	37.3067
202.369	40.0541
204.183	40.6089
205.999	40.3674
207.813	38.9273
209.626	37.3243
211.439	35.3143
213.253	32.3965
215.065	30.0829
216.877	28.4626
218.688	26.4256
220.5	24.3357
222.312	23.1246
224.123	21.9558
225.933	21.1201
227.742	19.2584
229.552	17.9673
231.361	16.3668
233.171	15.7337
234.98	14.4496
236.787	14.6497
238.595	13.1368
240.402	11.9267
242.209	10.6617
244.015	10.8141
245.822	10.3053
247.627	9.53382
249.435	8.1497
251.24	7.67441
253.045	7.60281
254.849	7.58512
256.653	7.87747
258.457	7.8229
260.26	7.57684
262.063	7.77515
263.866	7.47753
265.668	8.65891
267.47	10.1856
269.271	11.3557
271.073	12.3116
272.873	12.8388
274.674	12.8861
276.474	13.4917
278.274	14.6048
280.073	14.9406
281.872	14.8791
283.671	13.4872
285.47	12.2613
287.268	11.9133
289.065	11.644
290.863	10.1268
292.66	8.91342
294.456	9.62138
296.253	9.19082
298.049	9.86325
299.844	8.58484
301.637	7.92327
303.432	8.03913
305.227	9.58887
307.021	9.6793
308.815	9.99735
310.609	10.1609
312.402	10.2744
314.195	9.62507
315.987	9.45215
317.777	9.62349
319.569	10.1518
321.36	10.3178
323.151	11.3521
324.942	11.5392
326.733	11.498
328.521	9.87737
330.31	10.5938
332.1	11.7919
333.889	14.1779
335.677	14.4408
337.464	14.2542
339.252	14.292
341.039	15.0449
342.826	14.8804
344.611	14.947
346.398	14.8134
348.184	14.7078
349.97	13.44
351.754	12.9611
353.539	12.3432
355.324	13.0682
357.106	12.3702
358.89	12.9394
360.674	12.0732
362.455	11.107
364.239	10.2948
366.021	10.6563
367.804	11.095
369.584	9.39643
371.366	8.32768
373.145	6.76431
374.926	6.43461
376.707	6.83509
378.485	7.02183
380.265	7.08693
382.045	8.47444
383.822	9.27292
385.601	9.06757
387.378	9.46183
389.156	9.80365
390.934	9.9474
392.71	11.0027
394.487	11.8414
396.262	11.2186
398.038	11.6364
399.813	11.4377
401.588	12.3164
403.362	13.1321
405.137	14.0619
406.912	14.3037
408.685	13.6236
410.459	13.9469
412.23	13.5656
414.004	12.6231
415.775	12.6175
417.548	12.9718
419.318	14.4219
421.089	14.6518
422.86	14.9317
424.63	13.0069
426.401	11.7084
428.17	11.7373
429.94	11.6232
431.708	11.6371
433.478	10.0141
435.245	9.18342
437.012	8.32818
438.781	6.81872
440.547	6.49648
442.315	6.87701
444.081	7.16479
445.846	7.30125
447.613	7.82399
449.378	6.76767
451.142	6.60184
452.908	6.90142
454.672	7.83792
456.435	7.84564
458.2	6.81772
459.963	7.21945
461.725	7.74002
463.489	9.09194
465.251	8.855
467.012	9.7375
468.775	10.7523
470.536	11.9199
472.296	12.8547
474.056	14.2458
475.817	16.2437
477.576	17.0952
479.335	18.0435
481.094	20.394
482.854	22.1193
484.612	23.4248
486.37	25.7181
488.127	26.8788
489.886	27.1575
491.642	27.5696
493.398	29.1007
495.154	30.1443
496.91	32.2102
498.667	34.5337
500.422	34.9178
502.176	35.753
503.93	38.503
505.684	38.7052
507.438	40.22
509.191	40.9402
510.946	42.4834
512.698	43.4186
514.45	44.3753
516.202	45.5617
517.954	46.7031
519.705	47.4469
521.456	45.9725
523.206	47.2268
524.956	47.919
526.706	48.5183
528.456	49.2646
530.207	49.8293
531.956	49.3945
533.704	49.0811
535.452	48.3155
537.2	47.6977
538.947	47.3301
540.694	47.8207
542.441	46.6818
544.188	44.4603
545.934	42.5107
547.68	40.7229
549.425	39.1225
551.17	37.6035
552.915	35.55
554.659	35.3554
556.403	34.889
558.145	33.0719
559.889	31.1679
561.632	30.1395
563.375	29.7348
565.117	27.4623
566.859	26.2749
568.601	25.0753
570.342	23.4936
572.083	21.6491
573.824	19.245
575.565	16.4934
577.303	14.9108
579.043	14.3907
580.782	13.2353
582.521	11.9585
584.26	11.5449
585.998	10.4618
587.734	8.94313
589.472	9.43504
591.21	9.93768
592.947	8.93005
594.684	10.4615
596.418	10.4701
598.154	11.5669
599.89	11.3774
601.626	11.7079
603.361	11.6699
605.094	11.9874
606.828	12.0146
608.562	11.8173
610.296	13.5855
612.027	13.7671
613.761	15.6642
615.493	15.8135
617.224	15.1039
618.956	17.1413
620.688	18.3644
622.419	19.4401
624.149	20.2286
625.879	21.1245
627.61	21.8708
629.338	21.2943
631.068	21.9539
632.797	22.5468
634.525	22.1941
636.254	23.1791
637.98	22.6023
639.708	22.0848
641.436	23.7774
643.162	23.4284
644.889	22.7801
646.614	22.7102
648.34	22.1584
650.067	21.6695
651.791	19.6788
653.516	18.5036
655.239	17.5786
656.964	15.9384
658.687	14.6029
660.411	12.3168
662.133	10.2602
663.857	9.66472
665.58	8.19686
667.301	7.77793
669.024	8.61985
670.744	7.87325
672.464	7.05516
674.186	6.57929
675.905	6.44318
677.626	5.97574
679.345	6.80746
681.065	7.04383
682.783	6.51756
684.503	5.19226
686.22	4.42923
687.939	3.66037
689.656	1.63425
691.372	2.114
693.09	1.35194
694.806	0.996684
696.523	1.31124
698.239	1.51763
699.953	2.80824
701.67	2.38297
703.384	3.07939
705.098	5.0558
706.813	5.96298
708.526	7.97824
710.239	8.93439
711.954	10.6454
713.666	11.6128
715.378	12.5547
717.091	14.4013
718.802	14.7001
720.513	15.0303
722.226	16.4977
723.936	16.6528
725.646	17.3422
727.355	18.2146
729.067	17.3684
730.776	17.5819
732.484	17.3605
734.192	17.004
735.902	17.9119
737.61	17.3765
739.317	17.6598
741.024	17.8176
742.731	18.567
744.439	18.9518
746.145	19.3689
747.851	21.6729
749.556	22.2558
751.262	22.7014
752.966	25.1936
754.673	26.407
756.377	27.611
758.081	29.1815
759.784	30.6666
761.487	32.4549
763.19	33.4908
764.892	34.3831
766.594	35.2636
768.296	35.3942
770	35.063
771.701	36.2366
773.402	36.8944
775.102	37.1183
776.803	38.4883
778.503	37.4111
780.202	38.4587
781.901	40.0772
783.6	41.3787
785.299	43.196
786.997	45.1791
788.695	45.5417
790.393	46.3223
792.09	48.0957
793.787	47.7836
795.484	47.2446
797.18	46.8921
798.877	47.5106
800.572	47.2126
802.268	47.5947
803.963	47.4621
805.658	47.3747
807.35	47.2428
809.044	47.1055
810.738	47.0221
812.432	46.1084
814.125	46.3694
815.818	46.5405
817.51	47.143
819.202	47.083
820.894	48.422
822.584	49.1514
824.275	51.156
825.966	52.756
827.657	54.8455
829.347	55.6157
831.037	57.2585
832.725	58.403
834.414	58.4826
836.103	60.534
837.792	60.9004
839.481	61.4832
841.167	62.8082
842.854	62.5939
844.542	62.9733
846.229	63.3641
847.914	62.9355
849.6	63.1964
851.287	62.1474
852.973	61.0057
854.656	59.422
856.341	58.0535
858.026	57.5285
859.711	55.381
861.393	55.0229
863.077	52.8367
864.761	52.2937
866.442	51.0072
868.125	49.9826
869.808	49.0544
871.489	45.6379
873.171	41.9669
874.85	39.7745
876.532	38.3213
878.213	36.8386
879.892	35.1624
881.572	34.5209
883.251	33.4309
884.931	31.6709
886.61	30.4899
888.287	28.4364
889.966	26.5036
891.643	26.2006
893.321	25.6919
894.997	24.1759
896.675	23.8998
898.352	25.0805
900.028	25.9242
901.704	26.826
903.379	27.2358
905.055	29.0048
906.729	29.4841
908.404	31.0342
910.077	30.8853
911.75	32.5384
913.425	33.1502
915.097	34.6889
916.771	33.2269
918.443	33.6026
920.116	33.9541
921.787	34.2351
923.46	35.8692
925.13	35.5545
926.8	35.2477
928.472	34.9384
930.141	33.9669
931.813	33.041
933.481	31.8074
935.15	30.312
936.82	29.9014
938.488	28.3534
940.156	27.8816
941.825	27.8736
943.492	26.2808
945.158	24.5119
946.827	22.7248
948.493	22.6804
950.158	22.6234
951.824	20.9736
953.491	19.3162
955.156	15.8062
956.82	15.8975
958.486	15.6038
960.15	14.0186
961.814	14.1951
963.477	13.5991
965.142	14.6278
966.804	13.9259
968.467	15.2776
970.129	16.5038
971.79	18.0506
973.454	18.9673
975.115	21.2223
976.776	20.7719
978.436	21.2453
980.096	22.464
981.756	22.3322
983.417	22.7499
985.077	22.7587
986.736	22.9124
988.394	22.8295
990.052	22.6902
991.71	23.5889
993.368	21.7457
995.025	22.4917
996.682	20.8446
998.341	19.424
999.998	18.1929
1001.65	19.019
1003.31	19.0387
1004.97	18.5137
1006.62	19.0454
1008.28	19.319
1009.93	20.9262
1011.58	23.006
1013.24	25.3035
1014.89	28.2387
1016.54	31.4132
1018.2	34.4757
1019.85	37.8488
1021.5	41.0585
1023.16	44.1465
1024.81	47.6076
1026.46	51.0829
1028.11	53.7984
1029.76	57.9272
1031.41	60.3092
1033.06	62.2001
1034.71	63.5529
1036.36	66.0792
1038.01	67.5204
1039.66	70.5961
1041.31	72.2092
1042.95	74.0876
1044.6	77.9276
1046.25	79.4835
1047.9	81.5815
1049.54	82.3363
1051.19	84.1222
1052.84	83.287
1054.48	82.7522
1056.13	81.569
1057.77	80.9113
1059.42	79.3159
1061.06	78.3666
1062.71	76.2004
1064.35	74.318
1066	71.5176
1067.64	68.8668
1069.28	65.3007
1070.93	61.2947
1072.57	58.791
1074.21	54.7983
1075.85	50.3136
1077.49	47.9347
1079.13	44.2704
1080.78	41.482
1082.42	39.7521
1084.06	37.2707
1085.7	36.0141
1087.34	35.3958
1088.97	35.4312
1090.61	35.682
1092.25	36.3906
1093.89	37.4838
1095.53	37.5612
1097.17	37.7638
1098.8	39.1972
1100.44	39.2754
1102.08	39.5057
1103.71	38.9709
1105.35	40.096
1106.99	39.8362
1108.62	39.3919
1110.26	37.2521
1111.89	36.5589
1113.52	35.1433
1115.16	34.9711
1116.79	33.7797
1118.43	32.1212
1120.06	30.8448
1121.69	30.5414
1123.32	29.9348
1124.96	30.0825
1126.59	29.1854
1128.22	28.285
1129.85	27.9465
1131.48	26.2558
1133.11	24.8285
1134.75	22.7621
1136.37	21.872
1138	20.3397
1139.63	19.626
1141.26	18.7048
1142.89	16.5824
1144.52	15.5247
1146.15	13.9431
1147.78	12.1247
1149.4	11.5921
1151.03	10.3855
1152.66	8.7083
1154.28	8.27226
1155.91	7.03243
1157.54	6.97265
1159.16	6.06177
1160.79	5.31906
1162.41	5.11507
1164.04	5.46738
1165.66	5.14368
1167.29	5.07492
1168.91	4.69387
1170.53	5.16478
1172.16	4.93054
1173.78	4.85621
1175.4	6.29588
1177.02	6.55449
1178.65	6.26709
1180.27	7.15222
1181.89	6.28471
1183.51	6.84586
1185.13	7.54493
1186.75	8.5995
1188.37	7.44678
1189.99	7.37795
1191.61	7.9024
1193.23	9.02065
1194.85	10.4141
1196.47	11.3289
1198.08	12.954
1199.7	14.8779
1201.32	17.5583
1202.94	20.0497
1204.55	21.1981
1206.17	24.0371
1207.79	24.7928
1209.4	26.5022
1211.02	28.6506
1212.63	30.1345
1214.25	32.9002
1215.86	35.4798
1217.48	38.2284
1219.09	41.8735
1220.71	45.8467
1222.32	48.6598
1223.93	52.2538
1225.54	55.9667
1227.16	58.5877
1228.77	61.2996
1230.38	64.3895
1231.99	67.4166
1233.6	69.8972
1235.22	73.6134
1236.83	75.2673
1238.44	77.8742
1240.05	80.5849
1241.66	84.0409
1243.26	87.582
1244.87	89.3175
1246.48	90.9918
1248.09	92.5099
1249.7	95.0818
1251.31	97.7191
1252.92	99.6323
1254.52	101.806
1256.13	104.997
1257.74	106.334
1259.34	108.544
1260.95	111.667
1262.55	114.257
1264.16	116.928
1265.76	119.106
1267.37	121.317
1268.97	124.041
1270.58	127.321
1272.18	130.74
1273.78	133.245
1275.39	136.292
1276.99	139.944
1278.59	144.03
1280.2	145.681
1281.8	147.83
1283.4	149.713
1285	151.896
1286.6	154.947
1288.2	155.944
1289.8	158.335
1291.4	161.227
1293	162.506
1294.6	164.517
1296.2	166.778
1297.8	167.621
1299.4	168.274
1301	169.554
1302.6	169.637
1304.19	169.813
1305.79	168.585
1307.39	167.923
1308.99	166.888
1310.58	166.791
1312.18	165.778
1313.77	164.274
1315.37	162.427
1316.96	160.416
1318.56	160.161
1320.15	159.415
1321.75	157.58
1323.34	155.377
1324.94	151.924
1326.53	150.252
1328.12	148.924
1329.72	147.495
1331.31	145.758
1332.9	144.848
1334.49	143.047
1336.08	141.624
1337.67	139.974
1339.27	138.482
1340.86	136.735
1342.45	136.019
1344.04	134.2
1345.63	133.311
1347.22	133.023
1348.8	132.57
1350.39	132.228
1351.98	131.043
1353.57	131.451
1355.16	131.993
1356.75	133.211
1358.33	133.092
1359.92	132.989
1361.51	133.749
1363.09	133.556
1364.68	134.573
1366.27	134.74
1367.85	135.428
1369.44	136.544
1371.02	138.309
1372.61	139.025
1374.19	140.353
1375.77	140.917
1377.36	141.059
1378.94	142.355
1380.52	143.877
1382.11	145.294
1383.69	147.376
1385.27	148.828
1386.85	151.263
1388.43	153.214
1390.02	154.679
1391.6	155.697
1393.18	157.134
1394.76	159.064
1396.34	160.925
1397.92	163.58
1399.5	165.486
1401.08	166.887
1402.65	169.274
1404.23	172.642
1405.81	176.01
1407.39	179.578
1408.97	182.274
1410.54	186.157
1412.12	190.383
1413.7	193.132
1415.27	197.696
1416.85	203.906
1418.43	210.071
1420	215.729
1421.58	222.662
1423.15	228.303
1424.73	234.938
1426.3	240.921
1427.87	246.704
1429.45	252.262
1431.02	257.529
1432.6	264.072
1434.17	268.624
1435.74	273.77
1437.31	276.482
1438.89	278.8
1440.46	281.219
1442.03	282.671
1443.6	284.876
1445.17	284.614
1446.74	284.841
1448.31	284.077
1449.88	282.956
1451.45	279.39
1453.02	276.321
1454.59	272.577
1456.16	268.98
1457.72	264.138
1459.29	258.612
1460.86	252.451
1462.43	246.103
1463.99	238.191
1465.56	230.659
1467.13	222.924
1468.69	214.977
1470.26	206.953
1471.83	199.117
1473.39	191.638
1474.95	182.941
1476.52	174.858
1478.08	166.264
1479.65	158.492
1481.21	150.656
1482.78	144.064
1484.34	137.268
1485.9	131.78
1487.47	126.149
1489.03	121.342
1490.59	116.598
1492.15	111.582
1493.71	108.673
1495.27	105.915
1496.84	102.433
1498.39	99.013
1499.96	97.2634
1501.52	94.1498
1503.07	91.6601
1504.64	90.1614
1506.19	89.8474
1507.75	89.5365
1509.31	90.0318
1510.87	89.8784
1512.43	88.7121
1513.98	88.2421
1515.54	87.5702
1517.1	87.6702
1518.65	88.7865
1520.21	87.9425
1521.77	88.1609
1523.32	87.8599
1524.88	88.7618
1526.44	89.3794
1527.99	89.3454
1529.54	89.698
1531.1	90.8455
1532.65	91.3871
1534.21	92.1333
1535.76	92.8745
1537.31	93.2559
1538.87	95.6606
1540.42	98.8127
1541.97	99.7476
1543.52	102.539
1545.07	104.664
1546.63	106.269
1548.18	106.605
1549.73	107.617
1551.28	108.751
1552.83	109.254
1554.38	110.499
1555.93	112.288
1557.48	114.327
1559.03	116.399
1560.57	118.779
1562.12	120.878
1563.67	122.526
1565.22	124.888
1566.77	126.107
1568.31	128.9
1569.86	130.774
1571.41	132.412
1572.95	135.023
1574.5	137.824
1576.05	140.977
1577.59	145.438
1579.14	148.552
1580.68	151.237
1582.23	155.155
1583.77	158.243
1585.31	161.11
1586.86	164.102
1588.4	166.045
1589.95	168.562
1591.49	171.162
1593.03	174.756
1594.57	176.736
1596.11	179.608
1597.66	181.235
1599.2	183.099
1600.74	184.884
1602.28	185.803
1603.82	187.335
1605.36	187.066
1606.9	187.775
1608.44	187.943
1609.98	189.661
1611.52	190.086
1613.06	190.825
1614.6	190.087
1616.13	190.943
1617.67	190.412
1619.21	190.016
1620.75	190.241
1622.28	189.705
1623.82	189.023
1625.36	188.067
1626.89	187.956
1628.43	188.937
1629.96	188.5
1631.5	189.352
1633.04	190.21
1634.57	190.608
1636.11	190.76
1637.64	191.418
1639.17	191.777
1640.71	192.33
1642.24	192.614
1643.77	192.524
1645.31	193.638
1646.84	193.539
1648.37	194.391
1649.9	195.041
1651.43	195.834
1652.96	196.222
1654.5	195.701
1656.03	193.889
1657.56	192.176
1659.09	190.409
1660.62	187.649
1662.15	187.051
1663.67	186.656
1665.2	183.846
1666.73	181.282
1668.26	178.456
1669.79	176.462
1671.32	173.208
1672.84	169.527
1674.37	166.506
1675.9	161.593
1677.43	156.158
1678.95	151.068
1680.48	147.061
1682	141.818
1683.53	137.956
1685.05	134.677
1686.58	131.735
1688.1	126.855
1689.63	122.748
1691.15	118.515
1692.68	115.588
1694.2	111.838
1695.72	108.38
1697.25	104.534
1698.77	100.964
1700.29	97.4782
1701.81	94.3886
1703.33	91.37
1704.86	89.291
1706.38	86.3641
1707.9	85.4167
1709.42	83.2874
1710.94	81.3279
1712.46	79.9365
1713.98	77.6593
1715.5	75.7201
1717.02	74.4638
1718.54	73.9654
1720.06	73.9257
1721.57	72.9171
1723.09	71.8757
1724.61	70.7135
1726.13	69.6163
1727.64	69.74
1729.16	68.8868
1730.68	67.4968
1732.19	66.4729
1733.71	65.2624
1735.23	65.0891
1736.74	65.0105
1738.26	65.7971
1739.77	64.9905
1741.29	63.0173
1742.8	62.8363
1744.31	62.9997
1745.83	62.6774
1747.34	60.9456
1748.85	59.2709
1750.37	58.7543
1751.88	56.3876
1753.39	55.1404
1754.91	55.9575
1756.42	55.7911
1757.93	55.3586
1759.44	55.3458
1760.95	55.3627
1762.46	54.6431
1763.97	53.3532
1765.48	52.4488
1766.99	51.8172
1768.5	50.9743
1770.01	49.9163
1771.52	48.7664
1773.03	48.1343
1774.54	47.434
1776.04	46.8499
1777.55	45.8025
1779.06	45.3801
1780.57	45.6187
1782.07	45.4814
1783.58	45.4823
1785.09	44.4729
1786.59	44.0529
1788.1	43.6983
1789.6	43.0818
1791.11	43.2135
1792.61	43.06
1794.12	43.0441
1795.62	41.7357
1797.13	40.4874
1798.63	40.1472
1800.13	40.3241
1801.64	40.1656
1803.14	39.9781
1804.64	39.4936
1806.15	39.2497
1807.65	38.9149
1809.15	39.2705
1810.65	38.9084
1812.15	36.8408
1813.65	36.3826
1815.16	36.567
1816.66	36.4471
1818.15	36.2927
1819.66	35.8137
1821.16	35.0989
1822.65	34.7429
1824.15	35.3187
1825.65	35.159
1827.15	35.3683
1828.65	35.7163
1830.15	36.3449
1831.64	36.1255
1833.14	35.1945
1834.64	35.1898
1836.14	34.1269
1837.63	33.4856
1839.13	33.6283
1840.62	32.7948
1842.12	32.4049
1843.62	31.6356
1845.11	31.3598
1846.61	31.0672
1848.1	30.9387
1849.6	29.7262
1851.09	28.4261
1852.58	27.3436
1854.08	26.8323
1855.57	25.6044
1857.06	24.8418
1858.55	24.1756
1860.05	22.2112
1861.54	22.6262
1863.03	21.4902
1864.52	20.5667
1866.01	19.5989
1867.5	19.0598
1869	18.819
1870.49	17.8963
1871.98	18.2727
1873.47	18.6497
1874.96	18.392
1876.44	18.0437
1877.93	18.0353
1879.42	18.0926
1880.91	18.5318
1882.4	18.2911
1882.47	18.0934
1883.96	17.5058
1885.46	17.0383
1886.95	18.043
1888.44	19.8943
1889.94	20.1052
1891.43	21.3862
1892.93	21.6346
1894.42	22.2978
1895.91	23.0053
1897.4	23.3634
1898.89	22.9107
1900.39	23.3027
1901.88	23.5719
1903.37	24.0066
1904.86	23.6734
1906.35	23.3197
1907.84	23.6304
1909.33	23.2034
1910.82	23.5931
1912.31	22.8459
1913.8	21.021
1915.29	21.5283
1916.77	20.9264
1918.26	19.8276
1919.75	18.3702
1921.24	16.8023
1922.73	16.0658
1924.21	15.6354
1925.7	14.8674
1927.19	14.8075
1928.67	14.5297
1930.16	14.2813
1931.64	13.8343
1933.13	12.9138
1934.61	13.2657
1936.1	11.725
1937.58	11.4502
1939.07	11.2491
1940.55	10.7357
1942.04	10.7956
1943.52	10.1112
1945	11.4896
1946.49	10.1542
1947.97	9.64593
1949.45	9.63796
1950.93	9.92618
1952.42	9.82941
1953.9	9.29671
1955.38	8.28432
1956.86	7.64612
1958.34	7.78818
1959.82	8.21659
1961.3	8.90257
1962.78	9.02294
1964.26	7.82116
1965.74	7.94143
1967.22	6.80201
1968.7	6.4674
1970.18	6.39641
1971.65	5.84268
1973.13	5.6854
1974.61	5.60181
1976.09	5.14676
1977.57	4.92834
1979.04	3.66169
1980.52	2.69847
1982	1.99856
1983.47	2.29295
1984.95	1.77257
1986.42	1.16809
1987.9	0.561747
1989.37	1.09283
1990.85	0.75433
1992.32	0.190537
1993.8	1.09732
1995.27	1.26106
1996.75	1.92388
1998.22	1.52325
1999.69	1.45923
2001.17	2.09496
2002.64	2.54344
2004.11	2.28314
2005.58	2.06164
2007.05	2.33429
2008.53	3.01196
2010	3.24294
2011.47	4.20796
2012.94	3.94526
2014.41	3.96928
2015.88	4.30258
2017.35	4.52703
2018.82	3.83219
2020.29	2.42851
2021.76	2.06369
2023.23	2.05131
2024.7	2.28501
2026.16	2.26605
2027.63	2.67294
2029.1	3.05001
2030.57	2.60605
2032.03	2.88287
2033.5	2.66326
2034.97	2.48415
2036.44	2.16844
2037.9	1.89398
2039.37	2.32477
2040.83	2.29247
2042.3	1.97084
2043.76	1.99046
2045.23	1.29817
2046.69	1.10731
2048.16	0.35704
2049.62	0.213865
2051.08	0.0274191
2052.55	0.288247
2054.01	0.327471
2055.47	1.68994
2056.94	1.99729
2058.4	1.76171
2059.86	1.99468
2061.32	1.26814
2062.79	2.3288
2064.25	2.79287
2065.71	2.76772
2067.17	3.87324
2068.63	3.78291
2070.09	4.5744
2071.55	5.42342
2073.01	6.41341
2074.47	7.43259
2075.93	9.07669
2077.39	10.0927
2078.85	10.164
2080.31	11.4055
2081.76	12.1265
2083.22	12.1262
2084.68	12.8995
2086.13	13.2347
2087.59	13.9715
2089.05	14.874
2090.51	15.7453
2091.96	16.3398
2093.42	18.2154
2094.87	19.1111
2096.33	21.6605
2097.78	23.0694
2099.24	24.2147
2100.69	25.1459
2102.15	26.6233
2103.6	27.3645
2105.06	30.0645
2106.51	31.0681
2107.96	32.5242
2109.42	34.529
2110.87	35.1763
2112.32	37.134
2113.77	38.1516
2115.23	39.2186
2116.68	40.5346
2118.13	42.0455
2119.58	43.7508
2121.03	45.1851
2122.48	46.9115
2123.93	48.6683
2125.38	50.9395
2126.83	52.1633
2128.28	54.4014
2129.73	55.5572
2131.18	58.0022
2132.63	60.4293
2134.08	61.857
2135.53	64.9365
2136.97	67.3317
2138.42	70.0234
2139.87	72.3724
2141.32	73.6347
2142.76	76.5436
2144.21	79.0493
2145.66	80.7202
2147.1	82.9266
2148.55	84.6654
2150	86.1978
2151.44	86.6286
2152.89	88.8411
2154.33	90.4368
2155.78	91.6672
2157.22	93.444
2158.66	94.1518
2160.11	95.8409
2161.55	96.5224
2163	97.5229
2164.44	99.1063
2165.88	100.451
2167.32	100.387
2168.77	100.892
2170.21	101
2171.65	101.266
2173.09	102.358
2174.53	102.171
2175.97	101.912
2177.41	101.66
2178.85	100.454
2180.29	100.331
2181.73	99.1614
2183.17	96.5746
2184.61	95.9936
2186.05	93.9979
2187.49	92.8405
2188.93	91.5122
2190.37	90.4149
2191.81	88.6694
2193.24	86.9957
2194.68	85.1439
2196.12	83.7205
2197.56	82.6275
2198.99	81.6206
2200.43	80.5991
2201.87	79.1039
2203.3	78.0427
2204.74	76.3258
2206.17	74.3604
2207.61	73.0331
2209.04	70.6933
2210.48	67.8257
2211.91	64.8006
2213.35	62.8195
2214.78	61.4138
2216.21	59.1455
2217.65	57.3628
2219.08	55.4399
2220.51	54.2845
2221.95	53.0731
2223.38	50.7244
2224.81	48.8955
2226.24	47.6096
2227.67	46.3765
2229.1	44.7063
2230.54	43.0882
2231.97	40.9898
2233.4	39.2331
2234.83	38.5721
2236.26	37.2371
2237.69	35.5504
2239.11	33.2056
2240.54	31.9924
2241.97	30.4518
2243.4	28.6502
2244.83	27.7912
2246.26	26.6784
2247.69	26.4485
2249.11	24.4609
2250.54	23.9136
2251.97	22.8735
2253.4	22.6223
2254.82	22.4891
2256.25	22.808
2257.67	22.8441
2259.1	23.4225
2260.53	22.0966
2261.95	21.6486
2263.38	21.3839
2264.8	21.7642
2266.23	22.3009
2267.65	23.2315
2269.07	23.8169
2270.5	23.813
2271.92	24.2134
2273.34	23.1819
2274.77	23.8491
2276.19	22.9678
2277.61	22.4078
2279.03	21.6314
2280.46	20.9353
2281.88	20.3506
2283.3	19.8269
2284.72	20.2446
2286.14	20.4702
2287.56	21.0624
2288.98	20.5887
2290.4	20.262
2291.82	19.9516
2293.24	18.1647
2294.66	17.0175
2296.08	17.3277
2297.5	17.5502
2298.92	17.9377
2300.34	17.4887
2301.76	17.3175
2303.17	16.3887
2304.59	16.7134
2306.01	15.0368
2307.43	14.9798
2308.84	14.5363
2310.26	13.8649
2311.68	13.0388
2313.09	12.497
2314.51	12.105
2315.92	12.6324
2317.34	12.4829
2318.75	11.6433
2320.17	11.3705
2321.58	11.9254
2323	11.058
2324.41	10.9519
2325.82	9.86623
2327.24	9.29604
2328.65	8.61699
2330.06	7.62314
2331.48	6.74667
2332.89	6.41594
2334.3	6.72519
2335.71	6.44431
2337.12	5.51104
2338.54	5.14426
2339.95	4.82204
2341.36	4.25707
2342.77	3.75794
2344.18	2.81307
2345.59	2.70076
2347	1.11624
2348.41	1.02294
2349.82	0.535699
2351.23	-0.202042
2352.64	-0.845984
2354.04	-1.10785
2355.45	-0.685474
2356.86	-1.08943
2358.27	-1.10138
2359.68	-1.6586
2361.08	-1.39886
2362.49	-1.27602
2363.9	-0.555065
2365.3	0.710171
2366.71	0.996416
2368.12	0.539013
2369.52	1.55809
2370.93	1.23306
2372.33	1.56097
2373.74	0.563254
2375.14	1.21581
2376.55	1.49514
2377.95	2.20063
2379.36	2.07963
2380.76	3.36302
2382.16	3.84726
2383.57	4.38184
2384.97	5.1254
2386.37	5.9917
2387.78	6.68848
2389.18	7.23953
2390.58	7.51398
2391.98	8.46214
2393.38	8.29183
2394.79	9.12155
2396.19	9.45068
2397.59	9.10586
2398.99	9.50895
2400.39	9.91335
2401.79	10.921
2403.19	11.0512
2404.59	11.4478
2405.99	11.5771
2407.39	12.34
2408.78	13.3815
2410.18	13.4897
2411.58	13.3578
2412.98	13.5613
2414.38	14.0842
2415.77	14.1909
2417.17	14.5177
2418.57	14.2147
2419.97	14.4736
2421.36	14.4427
2422.76	14.7913
2424.15	14.5996
2425.55	14.567
2426.95	14.382
2428.34	14.0602
2429.74	13.3611
2431.13	12.9722
2432.52	13.6463
2433.92	12.8225
2435.31	11.8059
2436.71	10.8588
2438.1	11.0142
2439.49	10.9343
2440.89	9.86583
2442.28	9.13661
2443.67	7.84615
2445.06	8.50113
2446.46	8.25384
2447.85	7.64274
2449.24	7.87324
2450.63	8.44202
2452.02	7.89086
2453.41	7.4102
2454.8	7.83688
2456.19	7.55458
2457.58	7.13779
2458.97	6.73328
2460.36	6.2821
2461.75	6.55643
2463.14	5.3774
2464.53	5.4624
2465.92	5.34662
2467.31	5.46255
2468.69	6.00962
2470.08	6.39933
2471.47	6.05454
2472.86	5.539
2474.24	5.7541
2475.63	6.34403
2477.02	6.24319
2478.4	6.05286
2479.79	5.62809
2481.17	5.80938
2482.56	5.96102
2483.94	6.52057
2485.33	5.90033
2486.72	5.96898
2488.1	6.37861
2489.48	7.32211
2490.87	7.60605
2492.25	7.35962
2493.64	7.04525
2495.02	6.59551
2496.4	7.29534
2497.79	6.53763
2499.17	6.87263
2500.55	7.18563
2501.93	6.76899
2503.31	5.81119
2504.69	5.66053
2506.08	5.25517
2507.46	4.74902
2508.84	4.70852
2510.22	4.23723
2511.6	4.29779
2512.98	4.11189
2514.36	4.99599
2515.74	4.98722
2517.12	4.89933
2518.5	5.73556
2519.88	5.21855
2521.25	4.98407
2522.63	5.13129
2524.01	5.35954
2525.39	5.02686
2526.77	4.95722
2528.14	4.6713
2529.52	4.64438
2530.9	5.0359
2532.27	4.60975
2533.65	4.30108
2535.03	4.06374
2536.4	3.57812
2537.78	2.79571
2539.15	3.18398
2540.53	2.83536
2541.9	3.24696
2543.28	3.60668
2544.65	3.40022
2546.03	3.79975
2547.4	4.29408
2548.77	4.32379
2550.15	4.2017
2551.52	5.21878
2552.89	5.6326
2554.27	5.44457
2555.64	6.09598
2557.01	6.63222
2558.38	6.45281
2559.75	6.02115
2561.12	5.27947
2562.5	5.73514
2563.87	5.36358
2565.24	5.25201
2566.61	4.7187
2567.98	4.89769
2569.35	5.11555
2570.72	4.97988
2572.09	5.20291
2573.46	5.40598
2574.83	4.78212
2576.19	4.89239
2577.56	5.42191
2578.93	5.84874
2580.3	5.63544
2581.67	5.14459
2583.04	4.85183
2584.4	4.56296
2585.77	4.63279
2587.14	4.20632
2588.5	3.0006
2589.87	3.48845
2591.23	3.67233
2592.6	2.68393
2593.97	2.47859
2595.33	1.64565
2596.7	1.28368
2598.06	1.30524
2599.43	0.54465
2600.79	0.367674
2602.15	0.376504
2603.52	0.673922
2604.88	0.86487
2606.25	0.989021
2607.61	1.15882
2608.97	0.7855
2610.33	0.549275
2611.7	0.63681
2613.06	0.478683
2614.42	0.59703
2615.78	0.0848901
2617.15	0.0391271
2618.51	-0.0143242
2619.87	0.727885
2621.23	0.158611
2622.59	0.557528
2623.95	-0.10276
2625.31	-0.336475
2626.67	-0.676459
2628.03	-0.696049
2629.39	-0.43218
2630.75	-0.115487
2632.1	-0.635701
2633.46	-0.452334
2634.82	-0.00153314
2636.18	-0.467083
2637.54	-0.0831419
2638.89	-0.432466
2640.25	-0.651266
2641.61	-0.139927
2642.97	-0.270026
2644.32	0.232197
2645.68	0.63007
2647.03	0.675415
2648.39	0.215116
2649.75	0.516226
2651.1	0.547593
2652.46	1.09058
2653.81	1.09369
2655.17	1.24198
2656.52	1.41927
2657.88	1.80562
2659.23	1.98923
2660.58	2.00131
2661.94	2.31959
2663.29	2.47919
2664.64	2.89142
2666	3.04012
2667.35	3.24765
2668.7	3.39784
2670.05	2.74782
2671.4	2.36906
2672.76	1.79496
2674.11	1.84784
2675.46	1.17429
2676.81	1.64827
2678.16	2.1003
2679.51	2.58843
2680.86	2.77375
2682.21	2.67366
2683.56	2.60094
2684.91	3.18032
2686.26	3.29457
2687.61	3.83945
2688.96	4.61167
2690.3	5.12323
2691.65	4.97875
2693	6.06853
2694.35	7.69683
2695.7	7.47863
2697.04	8.06618
2698.39	8.21432
2699.74	8.65155
2701.08	9.84796
2702.43	9.63335
2703.77	10.522
2705.12	11.1048
2706.47	12.5935
2707.81	14.1156
2709.16	14.8475
2710.5	15.664
2711.85	15.7546
2713.19	16.1834
2714.53	16.902
2715.88	17.5286
2717.22	17.3058
2718.57	17.2371
2719.91	18.1809
2721.25	18.097
2722.59	18.4381
2723.94	19.3863
2725.28	18.9832
2726.62	19.4171
2727.96	19.3324
2729.3	18.8988
2730.65	18.5476
2731.99	18.0996
2733.33	17.4626
2734.67	16.0454
2736.01	15.1015
2737.35	14.493
2738.69	14.0022
2740.03	12.7281
2741.37	11.9683
2742.71	10.2494
2744.05	10.0885
2745.38	9.25923
2746.72	8.418
2748.06	7.32181
2749.4	7.04755
2750.74	6.6083
2752.07	6.45911
2753.41	6.72228
2754.75	6.02934
2756.09	5.52588
2757.42	4.92823
2758.76	4.74459
2760.09	3.73148
2761.43	3.41588
2762.77	1.98608
2764.1	2.30239
2765.44	1.22778
2766.77	1.43056
2768.11	1.41656
2769.44	0.129627
2770.77	1.09082
2772.11	1.35855
2773.44	1.40583
2774.77	0.984486
2776.11	0.556433
2777.44	0.614385
2778.77	0.699805
2780.11	0.695321
2781.44	1.86527
2782.77	1.5207
2784.1	1.83745
2785.43	2.20662
2786.77	3.22383
2788.1	2.98716
2789.43	3.91425
2790.76	4.80833
2792.09	4.42187
2793.42	4.72063
2794.75	4.78322
2796.08	4.53233
2797.41	5.20456
2798.74	4.60324
2800.07	3.45826
2801.4	3.10051
2802.72	3.1817
2804.05	2.20175
2805.38	1.58966
2806.71	-0.215749
2808.04	-0.283116
2809.36	-0.370856
2810.69	-0.128287
2812.02	-0.740867
2813.34	-1.02112
2814.67	0.0653406
2816	2.6127
2817.32	4.32376
2818.65	7.0474
2819.97	10.0819
2821.3	13.1595
2822.62	18.245
2823.95	23.6265
2825.27	28.8314
2826.6	34.8124
2827.92	42.0401
2829.25	48.716
2830.57	57.0679
2831.89	64.7537
2833.22	72.9986
2834.54	81.1129
2835.86	90.3566
2837.18	99.8092
2838.51	108.363
2839.83	118.312
2841.15	128.366
2842.47	137.561
2843.79	147.271
2845.11	157.928
2846.43	168.393
2847.76	179.055
2849.08	189.494
2850.4	200.439
2851.72	211.491
2853.04	222.135
2854.36	233.611
2855.67	244.58
2856.99	254.944
2858.31	264.826
2859.63	274.906
2860.95	284.998
2862.27	293.954
2863.58	302.297
2864.9	308.843
2866.22	316.776
2867.54	324.825
2868.85	331.988
2870.17	338.045
2871.49	344.571
2872.8	350.133
2874.12	357.265
2875.43	362.593
2876.75	368.392
2878.07	373.622
2879.38	379.799
2880.7	387.136
2882.01	393.881
2883.32	400.146
2884.64	406.54
2885.95	412.655
2887.27	418.777
2888.58	425.084
2889.89	431.847
2891.21	438.324
2892.52	445.087
2893.83	451.161
2895.14	457.25
2896.46	463.493
2897.77	469.44
2899.08	475.236
2900.39	481.913
2901.7	489.928
2903.01	497.142
2904.32	505.619
2905.63	513.898
2906.94	521.924
2908.25	531.14
2909.56	540.958
2910.87	551.077
2912.18	560.079
2913.49	570.018
2914.8	579.635
2916.11	588.677
2917.42	598.064
2918.72	605.697
2920.03	614.044
2921.34	619.383
2922.65	625.6
2923.95	630.299
2925.26	634.314
2926.57	637.044
2927.88	637.621
2929.18	637.557
2930.49	637.045
2931.79	636.402
2933.1	632.624
2934.4	627.159
2935.71	622.276
2937.01	615.295
2938.32	608.638
2939.62	599.239
2940.93	588.821
2942.23	579.457
2943.54	567.95
2944.84	556.616
2946.14	545.111
2947.45	531.419
2948.75	517.587
2950.05	502.724
2951.35	487.947
2952.66	473.941
2953.96	460.617
2955.26	446.662
2956.56	431.982
2957.86	417.517
2959.16	403.442
2960.46	390.024
2961.77	376.48
2963.07	365.027
2964.37	353.38
2965.66	342.711
2966.96	332.896
2968.26	322.192
2969.56	312.431
2970.86	302.88
2972.16	294.404
2973.46	285.998
2974.76	277.219
2976.06	269.297
2977.35	261.083
2978.65	253.869
2979.95	246.454
2981.25	239.386
2982.54	232.002
2983.84	223.64
2985.14	215.496
2986.43	206.215
2987.73	198.353
2989.02	190.202
2990.32	182.486
2991.62	174.165
2992.91	164.744
2994.21	155.888
2995.5	146.894
2996.8	138.271
2998.09	129.431
2999.38	121.947
3000.68	114.491
3001.97	106.004
3003.26	97.6954
3004.56	89.1828
3005.85	82.5979
3007.14	75.467
3008.43	68.032
3009.73	61.5837
3011.02	55.0959
3012.31	48.4791
3013.6	43.4754
3014.89	37.8316
3016.19	33.351
3017.48	29.216
3018.77	25.1409
3020.06	20.548
3021.35	17.0769
3022.64	14.3694
3023.93	11.8041
3025.22	9.22081
3026.5	6.89324
3027.79	5.79591
3029.08	4.42704
3030.37	2.72812
3031.66	1.92367
3032.95	1.43319
3034.24	1.65367
3035.52	1.49269
3036.81	1.56349
3038.1	2.05051
3039.39	2.65139
3040.67	3.63559
3041.96	4.47148
3043.25	5.57774
3044.53	6.13596
3045.82	6.15425
3047.1	6.68501
3048.39	6.70607
3049.67	7.10178
3050.96	7.80473
3052.24	9.9379
3053.53	10.7508
3054.81	10.7662
3056.1	10.0394
3057.38	9.43754
3058.67	9.19928
3059.95	9.42444
3061.23	10.1931
3062.52	10.6664
3063.8	10.4935
3065.08	10.0058
3066.36	9.9721
3067.65	9.74749
3068.93	10.6577
3070.21	10.2473
3071.49	10.101
3072.77	9.65879
3074.05	8.73236
3075.33	7.72628
3076.61	7.51677
3077.89	7.35957
3079.17	5.87362
3080.45	5.67547
3081.73	4.77854
3083.01	4.21544
3084.29	4.03183
3085.57	3.43768
3086.85	3.55061
3088.13	3.00958
3089.41	3.05755
3090.68	3.15075
3091.96	2.74726
3093.24	2.79751
3094.52	1.98447
3095.79	2.00272
3097.07	2.12686
3098.35	2.29612
3099.62	2.70726
3100.9	3.35103
3102.18	3.99285
3103.45	4.51251
3104.73	4.87986
3106	5.04724
3107.28	5.65643
3108.55	5.89646
3109.83	6.51859
3111.1	7.33302
3112.38	8.59931
3113.65	9.47916
3114.93	10.9878
3116.2	12.3834
3117.47	12.678
3118.75	13.2089
3120.02	13.7278
3121.29	15.103
3122.57	16.5077
3123.84	18.2616
3125.11	20.4598
3126.38	21.9507
3127.65	23.5737
3128.92	25.1419
3130.2	27.1182
3131.47	29.0688
3132.74	30.3106
3134.01	31.4948
3135.28	32.913
3136.55	33.8145
3137.82	35.6888
3139.09	37.7016
3140.36	39.5031
3141.63	40.9669
3142.9	42.4335
3144.17	44.1122
3145.43	45.5948
3146.7	46.8786
3147.97	47.6984
3149.24	48.9256
