#Acq. time (s)=	45
#Accumulations=	2
#Range (cm-¹)=	200...3150
#Windows=	2
#Auto scanning=	Off
#Autofocus=	Off
#Macrospot=	Off
#AutoExposure=	Off
#Spike filter=	Multiple accum.
#Delay time (s)=	0
#Binning=	1
#Readout mode=	Signal
#DeNoise=	Off
#ICS correction=	On
#Dark correction=	Off
#Inst. Process=	Off
#Detector Gain=	Best Dynamic Range
#Detector ADC=	20 kHz       
#Detector temperature (°C)=	-70.08
#Instrument=	LabRAM HR Evol
#Detector=	Synapse
#Objective=	x100
#Grating=	600 gr/mm
#ND Filter=	100%
#Laser (nm)=	532 
#Hole=	100.021
#Range=	Auto
#Laser Pol.=	No
#Raman. Pol.=	No
#Laser Pol. (°)=	-0.0007625
#Raman Pol. (°)=	89.9995
#Collection=	Microscope
#StageXY=	Marzhauser
#StageZ=	Marzhauser
#X (µm)=	-2531
#Y (µm)=	-32.9
#Z (µm)=	-10.05
#Full time(mm:ss)=	3:18
#Project=	
#Sample=	
#Site=	
#Title=	Mb_40_24_04_2x_45s_532 nm_x100_100%_600 gr_mm
#Remark=	
#Date=	14.07.2022 10:59
#Acquired=	14.07.2022 10:59:22
#Base:Fit=	10.08.2022 10:47:00
#Base:Sub=	10.08.2022 10:47:12
#Filter:Polynom=	16.08.2022 10:11:48
#AxisType[0]=Intens
#AxisUnit[0]=Cnt
#AxisType[1]=Spectr
#AxisUnit[1]=1/cm
200.554	22.1726
202.369	21.0355
204.183	20.3231
205.999	18.7019
207.813	16.6659
209.626	15.4174
211.439	14.58
213.253	12.5206
215.065	10.988
216.877	9.74404
218.688	9.51501
220.5	9.16638
222.312	7.63009
224.123	6.8182
225.933	5.7417
227.742	6.98324
229.552	6.09813
231.361	6.71377
233.171	6.65634
234.98	6.67221
236.787	6.18553
238.595	7.55681
240.402	6.40949
242.209	6.05054
244.015	5.53783
245.822	5.43207
247.627	5.27068
249.435	5.86732
251.24	5.64581
253.045	6.0799
254.849	7.70971
256.653	8.38256
258.457	9.13241
260.26	7.36042
262.063	6.36108
263.866	5.40847
265.668	7.00899
267.47	6.5774
269.271	7.74201
271.073	5.73958
272.873	6.19948
274.674	5.92425
276.474	6.0571
278.274	6.19485
280.073	5.43168
281.872	4.56173
283.671	5.68182
285.47	4.25254
287.268	4.78843
289.065	6.67257
290.863	6.29503
292.66	5.77667
294.456	6.1861
296.253	6.44637
298.049	6.73648
299.844	6.76427
301.637	5.80964
303.432	5.89593
305.227	8.34793
307.021	10.0975
308.815	10.8345
310.609	10.2312
312.402	11.0972
314.195	12.2693
315.987	13.9595
317.777	16.8332
319.569	16.946
321.36	18.2994
323.151	19.2794
324.942	19.9462
326.733	20.787
328.521	21.4076
330.31	20.8368
332.1	21.5589
333.889	22.8288
335.677	23.7834
337.464	24.0628
339.252	25.111
341.039	25.9559
342.826	26.5156
344.611	26.4235
346.398	25.5975
348.184	25.5966
349.97	24.9734
351.754	24.5912
353.539	25.0276
355.324	24.9309
357.106	23.9731
358.89	23.6456
360.674	22.1211
362.455	23.046
364.239	22.3871
366.021	23.2943
367.804	22.242
369.584	22.153
371.366	22.4333
373.145	23.6653
374.926	22.9577
376.707	23.7826
378.485	23.4104
380.265	22.5202
382.045	22.3024
383.822	21.7404
385.601	21.2884
387.378	23.0804
389.156	24.863
390.934	25.9438
392.71	26.9035
394.487	27.3265
396.262	27.3255
398.038	27.5523
399.813	27.242
401.588	29.1513
403.362	28.6618
405.137	28.7059
406.912	28.8011
408.685	28.4344
410.459	29.3887
412.23	31.1926
414.004	30.6567
415.775	31.2379
417.548	30.8451
419.318	31.3143
421.089	31.2783
422.86	32.1053
424.63	31.2414
426.401	31.552
428.17	31.9386
429.94	31.2071
431.708	30.116
433.478	28.8554
435.245	27.5165
437.012	26.3815
438.781	24.9031
440.547	23.6238
442.315	23.748
444.081	23.2991
445.846	21.9724
447.613	21.4582
449.378	20.881
451.142	20.8758
452.908	19.801
454.672	20.5549
456.435	19.5656
458.2	21.5053
459.963	21.9036
461.725	22.8487
463.489	22.4648
465.251	23.1147
467.012	24.2638
468.775	25.3738
470.536	27.1498
472.296	26.8312
474.056	30.495
475.817	31.2033
477.576	31.5485
479.335	31.3868
481.094	31.6781
482.854	32.9125
484.612	35.1616
486.37	35.5759
488.127	35.5411
489.886	37.9042
491.642	39.5929
493.398	42.335
495.154	44.5444
496.91	46.8549
498.667	47.9907
500.422	49.2067
502.176	48.8675
503.93	50.232
505.684	51.1523
507.438	52.6205
509.191	52.8817
510.946	53.274
512.698	53.6312
514.45	54.9387
516.202	55.1563
517.954	54.2596
519.705	53.8691
521.456	53.8521
523.206	53.9732
524.956	53.3116
526.706	53.931
528.456	53.595
530.207	54.4549
531.956	53.85
533.704	53.6742
535.452	53.1113
537.2	52.6575
538.947	51.7495
540.694	50.0111
542.441	48.9671
544.188	46.7738
545.934	46.2322
547.68	44.7187
549.425	43.9993
551.17	42.2275
552.915	41.1361
554.659	39.8752
556.403	38.2653
558.145	36.896
559.889	34.4749
561.632	33.2378
563.375	29.4019
565.117	29.0105
566.859	27.8801
568.601	25.7101
570.342	24.5955
572.083	23.4979
573.824	21.0793
575.565	20.1873
577.303	19.9351
579.043	18.6191
580.782	16.9738
582.521	15.0421
584.26	13.3537
585.998	10.8993
587.734	10.2482
589.472	8.53204
591.21	7.67849
592.947	7.8785
594.684	7.09695
596.418	6.02814
598.154	6.35401
599.89	7.39537
601.626	8.31666
603.361	8.07097
605.094	7.49316
606.828	7.69772
608.562	7.95592
610.296	7.65173
612.027	7.78517
613.761	10.3741
615.493	9.92752
617.224	9.46993
618.956	8.32609
620.688	8.03528
622.419	6.6757
624.149	5.76891
625.879	5.36107
627.61	4.87414
629.338	5.01758
631.068	5.85158
632.797	7.6338
634.525	7.15038
636.254	8.27868
637.98	7.87889
639.708	8.55913
641.436	7.73964
643.162	8.57164
644.889	9.01413
646.614	7.89745
648.34	6.36021
650.067	6.35881
651.791	5.56239
653.516	4.59592
655.239	3.43931
656.964	4.00088
658.687	4.35892
660.411	4.56944
662.133	4.21903
663.857	3.14523
665.58	3.13527
667.301	2.53666
669.024	3.05184
670.744	2.02488
672.464	2.23663
674.186	3.16159
675.905	2.43544
677.626	3.81341
679.345	3.49421
681.065	3.92311
682.783	4.25268
684.503	5.82636
686.22	5.35988
687.939	5.09064
689.656	5.12432
691.372	5.35106
693.09	5.15671
694.806	6.43777
696.523	6.71873
698.239	7.48072
699.953	8.68497
701.67	8.63731
703.384	7.91545
705.098	8.75522
706.813	7.80718
708.526	7.87386
710.239	7.80562
711.954	9.31077
713.666	8.85417
715.378	9.43877
717.091	9.4679
718.802	10.0729
720.513	9.08506
722.226	9.45322
723.936	7.88726
725.646	9.14214
727.355	8.34421
729.067	9.52606
730.776	9.06384
732.484	8.05136
734.192	8.51104
735.902	9.48941
737.61	10.7626
739.317	11.7967
741.024	13.8166
742.731	15.2379
744.439	16.2108
746.145	17.5264
747.851	19.3955
749.556	21.2441
751.262	24.3432
752.966	26.2181
754.673	29.2564
756.377	29.8967
758.081	31.4937
759.784	33.0581
761.487	34.7009
763.19	36.6786
764.892	37.8123
766.594	40.5081
768.296	42.1074
770	45.0218
771.701	46.1894
773.402	49.156
775.102	50.691
776.803	52.6688
778.503	54.2268
780.202	56.3924
781.901	56.8088
783.6	58.5653
785.299	59.2738
786.997	59.6668
788.695	59.0062
790.393	59.4421
792.09	59.1057
793.787	60.5765
795.484	61.0893
797.18	60.5232
798.877	60.0443
800.572	60.7467
802.268	59.5106
803.963	59.997
805.658	59.6879
807.35	58.714
809.044	58.1055
810.738	58.1885
812.432	56.2477
814.125	56.3308
815.818	55.1946
817.51	55.3026
819.202	54.8256
820.894	55.7445
822.584	57.1378
824.275	57.2533
825.966	59.4857
827.657	60.1475
829.347	61.5168
831.037	64.1911
832.725	65.3592
834.414	66.2806
836.103	67.8136
837.792	69.1507
839.481	69.9286
841.167	71.0213
842.854	72.5042
844.542	73.0886
846.229	73.4786
847.914	73.8802
849.6	74.5676
851.287	74.5064
852.973	75.8078
854.656	76.061
856.341	76.2942
858.026	76.4304
859.711	75.2743
861.393	75.3694
863.077	75.1698
864.761	74.6985
866.442	72.7093
868.125	72.5309
869.808	71.2114
871.489	70.0663
873.171	69.1562
874.85	69.1972
876.532	66.0472
878.213	63.7965
879.892	62.3402
881.572	60.4932
883.251	59.2122
884.931	57.0241
886.61	54.8602
888.287	54.7034
889.966	52.9866
891.643	49.971
893.321	48.5085
894.997	47.339
896.675	47.0351
898.352	46.7663
900.028	48.4153
901.704	49.1124
903.379	48.3834
905.055	49.5249
906.729	50.1432
908.404	50.2137
910.077	50.5581
911.75	51.3945
913.425	52.7074
915.097	53.2678
916.771	54.0117
918.443	54.5471
920.116	54.3808
921.787	54.779
923.46	54.642
925.13	54.9803
926.8	54.5757
928.472	52.7126
930.141	52.3633
931.813	52.141
933.481	50.1221
935.15	49.787
936.82	49.9283
938.488	49.4285
940.156	49.321
941.825	47.2536
943.492	45.1986
945.158	44.7307
946.827	43.9778
948.493	40.8929
950.158	39.4933
951.824	38.0299
953.491	36.7715
955.156	34.8626
956.82	33.2782
958.486	31.0259
960.15	27.962
961.814	28.0936
963.477	28.4247
965.142	29.0434
966.804	28.5483
968.467	29.6806
970.129	32.0278
971.79	33.5434
973.454	34.4887
975.115	34.2905
976.776	35.4655
978.436	36.7029
980.096	38.1724
981.756	39.1332
983.417	39.4761
985.077	37.6541
986.736	37.3071
988.394	37.3598
990.052	37.5398
991.71	36.2239
993.368	35.3989
995.025	35.6349
996.682	33.8708
998.341	32.9802
999.998	30.9898
1001.65	27.7432
1003.31	25.7817
1004.97	24.7643
1006.62	25.1094
1008.28	27.2062
1009.93	28.207
1011.58	29.7594
1013.24	32.4023
1014.89	34.652
1016.54	38.6039
1018.2	43.3015
1019.85	46.8981
1021.5	50.1476
1023.16	53.1288
1024.81	56.1963
1026.46	58.8554
1028.11	62.7458
1029.76	66.1236
1031.41	69.2442
1033.06	72.8713
1034.71	74.5056
1036.36	77.8076
1038.01	79.0972
1039.66	81.6347
1041.31	84.2153
1042.95	86.8709
1044.6	90.5177
1046.25	93.7798
1047.9	96.4757
1049.54	97.6263
1051.19	99.2266
1052.84	99.637
1054.48	100.428
1056.13	100.121
1057.77	98.9757
1059.42	98.5394
1061.06	96.724
1062.71	94.0988
1064.35	89.9892
1066	85.5176
1067.64	81.9949
1069.28	77.5677
1070.93	73.2496
1072.57	69.2943
1074.21	64.4205
1075.85	59.7274
1077.49	55.0932
1079.13	49.5378
1080.78	45.1631
1082.42	41.4534
1084.06	38.8697
1085.7	37.6777
1087.34	37.5437
1088.97	38.5819
1090.61	38.2188
1092.25	36.8825
1093.89	37.7317
1095.53	38.3861
1097.17	38.8432
1098.8	40.5315
1100.44	39.7054
1102.08	39.602
1103.71	39.9392
1105.35	40.2759
1106.99	41.694
1108.62	42.3113
1110.26	43.3049
1111.89	43.6598
1113.52	43.6858
1115.16	41.847
1116.79	41.1592
1118.43	41.8052
1120.06	41.3036
1121.69	41.8884
1123.32	41.8986
1124.96	41.7689
1126.59	42.9618
1128.22	42.2906
1129.85	41.3461
1131.48	41.3285
1133.11	41.4057
1134.75	40.9112
1136.37	41.5048
1138	40.2767
1139.63	38.3443
1141.26	36.2898
1142.89	33.5236
1144.52	31.8714
1146.15	28.7217
1147.78	26.5533
1149.4	25.2626
1151.03	23.7274
1152.66	21.4793
1154.28	19.7709
1155.91	18.3989
1157.54	15.4148
1159.16	14.9813
1160.79	12.0221
1162.41	10.9246
1164.04	10.7059
1165.66	9.44875
1167.29	8.96211
1168.91	6.89834
1170.53	6.57007
1172.16	4.33626
1173.78	4.67379
1175.4	6.23343
1177.02	5.34697
1178.65	3.01612
1180.27	2.61168
1181.89	1.44655
1183.51	0.564663
1185.13	0.670728
1186.75	1.20771
1188.37	1.38516
1189.99	0.798618
1191.61	0.737278
1193.23	2.28276
1194.85	2.06747
1196.47	2.23607
1198.08	4.82805
1199.7	5.91589
1201.32	5.38675
1202.94	5.91842
1204.55	7.62644
1206.17	9.95262
1207.79	11.3838
1209.4	12.6477
1211.02	14.5731
1212.63	16.7154
1214.25	18.2811
1215.86	19.7309
1217.48	21.6352
1219.09	23.0971
1220.71	24.2155
1222.32	26.7097
1223.93	29.7355
1225.54	33.1812
1227.16	35.2541
1228.77	39.6901
1230.38	43.1311
1231.99	45.4757
1233.6	47.9907
1235.22	50.9069
1236.83	54.6049
1238.44	56.2145
1240.05	60.3489
1241.66	62.0613
1243.26	65.5103
1244.87	68.1616
1246.48	70.0831
1248.09	71.8268
1249.7	73.4845
1251.31	76.4265
1252.92	78.4338
1254.52	81.4788
1256.13	83.1002
1257.74	82.7223
1259.34	83.8577
1260.95	86.6037
1262.55	89.0353
1264.16	90.4224
1265.76	93.0708
1267.37	96.0494
1268.97	98.288
1270.58	102.253
1272.18	105.334
1273.78	107.263
1275.39	108.576
1276.99	111.708
1278.59	112.741
1280.2	114.255
1281.8	115.186
1283.4	117.625
1285	120.383
1286.6	122.832
1288.2	125.279
1289.8	127.853
1291.4	128.695
1293	128.978
1294.6	130.15
1296.2	131.684
1297.8	132.179
1299.4	132.402
1301	133.365
1302.6	134.767
1304.19	136.026
1305.79	135.826
1307.39	135.99
1308.99	135.407
1310.58	133.791
1312.18	132.315
1313.77	131.216
1315.37	130.323
1316.96	129.014
1318.56	127.889
1320.15	127.857
1321.75	125.239
1323.34	123.141
1324.94	121.949
1326.53	119.543
1328.12	118.75
1329.72	116.773
1331.31	114.909
1332.9	113.104
1334.49	110.55
1336.08	108.644
1337.67	106.985
1339.27	105.687
1340.86	105.806
1342.45	104.733
1344.04	103.734
1345.63	103.21
1347.22	103.895
1348.8	102.723
1350.39	102.615
1351.98	101.188
1353.57	100.361
1355.16	101.68
1356.75	102.049
1358.33	101.448
1359.92	101.753
1361.51	100.837
1363.09	103.149
1364.68	103.96
1366.27	105.052
1367.85	104.826
1369.44	103.564
1371.02	102.646
1372.61	102.266
1374.19	103.856
1375.77	104.801
1377.36	104.672
1378.94	103.879
1380.52	104.561
1382.11	106.041
1383.69	106.532
1385.27	106.431
1386.85	107.173
1388.43	107.876
1390.02	108.263
1391.6	109.411
1393.18	109.809
1394.76	110.747
1396.34	111.869
1397.92	114.529
1399.5	116.114
1401.08	117.313
1402.65	118.881
1404.23	122.017
1405.81	124.652
1407.39	127.23
1408.97	129.648
1410.54	134.497
1412.12	137.741
1413.7	142.684
1415.27	148.421
1416.85	153.311
1418.43	159.351
1420	165.03
1421.58	170.479
1423.15	177.224
1424.73	183.348
1426.3	190.661
1427.87	196.861
1429.45	204.02
1431.02	209.076
1432.6	215.21
1434.17	220.293
1435.74	223.642
1437.31	227.219
1438.89	229.274
1440.46	232.475
1442.03	234.042
1443.6	234.392
1445.17	233.786
1446.74	232.89
1448.31	231.741
1449.88	229.409
1451.45	226.901
1453.02	223.713
1454.59	219.411
1456.16	214.904
1457.72	209.685
1459.29	204.556
1460.86	198.979
1462.43	192.388
1463.99	187.144
1465.56	180.064
1467.13	172.672
1468.69	164.037
1470.26	155.66
1471.83	146.035
1473.39	138.154
1474.95	130.056
1476.52	122.424
1478.08	114.698
1479.65	106.622
1481.21	98.5187
1482.78	91.9039
1484.34	84.0055
1485.9	77.1754
1487.47	72.4654
1489.03	66.0815
1490.59	59.8577
1492.15	57.2362
1493.71	54.0807
1495.27	51.0565
1496.84	49.5377
1498.39	46.3177
1499.96	45.0196
1501.52	43.3909
1503.07	41.2312
1504.64	39.5391
1506.19	37.691
1507.75	36.101
1509.31	34.8788
1510.87	34.5902
1512.43	32.9431
1513.98	32.5965
1515.54	31.9435
1517.1	32.0216
1518.65	31.8371
1520.21	31.1667
1521.77	31.9404
1523.32	30.7901
1524.88	32.1381
1526.44	32.5252
1527.99	32.315
1529.54	34.1221
1531.1	35.2962
1532.65	36.2377
1534.21	38.6573
1535.76	40.5023
1537.31	42.1844
1538.87	43.6078
1540.42	45.4788
1541.97	47.1919
1543.52	46.5916
1545.07	48.2148
1546.63	49.8121
1548.18	50.5419
1549.73	51.5218
1551.28	52.3008
1552.83	53.4225
1554.38	54.5446
1555.93	55.129
1557.48	55.3953
1559.03	56.5725
1560.57	57.8751
1562.12	58.3335
1563.67	61.0903
1565.22	62.8042
1566.77	63.8312
1568.31	68.2631
1569.86	70.3498
1571.41	73.315
1572.95	75.9838
1574.5	78.0417
1576.05	79.816
1577.59	83.2569
1579.14	85.344
1580.68	87.9456
1582.23	91.4755
1583.77	95.001
1585.31	98.5837
1586.86	101.369
1588.4	103.434
1589.95	105.997
1591.49	108.709
1593.03	111.461
1594.57	113.585
1596.11	114.77
1597.66	116.624
1599.2	117.6
1600.74	119.142
1602.28	121.775
1603.82	123.165
1605.36	125.136
1606.9	127.112
1608.44	128.851
1609.98	129.355
1611.52	131.665
1613.06	131.75
1614.6	131.998
1616.13	133.355
1617.67	133.897
1619.21	134.676
1620.75	134.843
1622.28	135.118
1623.82	135.789
1625.36	135.397
1626.89	134.322
1628.43	133.707
1629.96	134.546
1631.5	134.16
1633.04	135.241
1634.57	135.708
1636.11	136.633
1637.64	136.255
1639.17	136.123
1640.71	137.293
1642.24	137.476
1643.77	137.922
1645.31	140.27
1646.84	138.795
1648.37	141.317
1649.9	139.958
1651.43	138.467
1652.96	136.56
1654.5	136.302
1656.03	133.455
1657.56	131.484
1659.09	130.048
1660.62	128.177
1662.15	125.132
1663.67	122.254
1665.2	119.006
1666.73	116.55
1668.26	113.722
1669.79	110.652
1671.32	106.614
1672.84	103.003
1674.37	99.1644
1675.9	96.6221
1677.43	93.3786
1678.95	89.5158
1680.48	85.0718
1682	81.3214
1683.53	78.1116
1685.05	74.5432
1686.58	70.8429
1688.1	69.0318
1689.63	65.5719
1691.15	63.3024
1692.68	60.544
1694.2	56.8202
1695.72	55.8021
1697.25	53.8503
1698.77	52.3277
1700.29	51.0406
1701.81	48.9427
1703.33	47.1215
1704.86	46.2639
1706.38	46.0492
1707.9	44.7908
1709.42	43.7791
1710.94	41.9971
1712.46	41.1704
1713.98	40.2974
1715.5	40.3497
1717.02	40.039
1718.54	39.7636
1720.06	38.8259
1721.57	37.3596
1723.09	34.9283
1724.61	34.9831
1726.13	32.5979
1727.64	31.717
1729.16	30.8291
1730.68	31.2196
1732.19	29.4655
1733.71	29.2107
1735.23	28.806
1736.74	27.9356
1738.26	26.4917
1739.77	25.764
1741.29	24.2029
1742.8	23.46
1744.31	22.613
1745.83	21.0221
1747.34	19.2965
1748.85	17.9548
1750.37	17.2983
1751.88	16.5795
1753.39	14.7638
1754.91	14.1229
1756.42	13.575
1757.93	13.3527
1759.44	12.7351
1760.95	12.1163
1762.46	12.1005
1763.97	11.974
1765.48	10.4622
1766.99	10.3327
1768.5	10.0584
1770.01	9.99091
1771.52	9.78878
1773.03	8.77761
1774.54	8.18095
1776.04	6.96136
1777.55	6.82111
1779.06	6.15203
1780.57	5.72956
1782.07	6.02503
1783.58	4.68265
1785.09	4.07467
1786.59	4.45805
1788.1	4.68119
1789.6	4.60831
1791.11	4.31119
1792.61	3.72624
1794.12	2.68719
1795.62	2.6402
1797.13	1.48567
1798.63	1.57601
1800.13	1.75764
1801.64	1.52406
1803.14	2.04271
1804.64	1.97552
1806.15	1.83536
1807.65	0.819441
1809.15	0.348216
1810.65	0.00334877
1812.15	0.0867865
1813.65	-0.520907
1815.16	-0.746136
1816.66	-1.52842
1818.15	-1.12948
1819.66	-1.58767
1821.16	-1.53697
1822.65	-0.980473
1824.15	-0.524849
1825.65	-0.0719498
1827.15	-0.829796
1828.65	-0.4021
1830.15	-0.438251
1831.64	-0.554601
1833.14	-0.610708
1834.64	0.159259
1836.14	1.03861
1837.63	1.04324
1839.13	1.00245
1840.62	1.35111
1842.12	1.89759
1843.62	2.09439
1845.11	2.76694
1846.61	3.35832
1848.1	2.98791
1849.6	3.52305
1851.09	4.25718
1852.58	5.44967
1854.08	6.15158
1855.57	6.34492
1857.06	6.45728
1858.55	6.46551
1860.05	7.58151
1861.54	8.23
1863.03	8.97495
1864.52	9.44566
1866.01	9.83421
1867.5	9.7132
1869	9.65437
1870.49	10.7058
1871.98	10.0727
1873.47	11.0445
1874.96	12.0666
1876.44	12.5083
1877.93	13.0967
1879.42	13.3341
1880.91	13.6499
1882.4	13.3243
1882.47	13.5636
1883.96	13.7058
1885.46	13.8011
1886.95	13.3051
1888.44	12.9598
1889.94	12.7249
1891.43	13.4567
1892.93	13.6773
1894.42	14.629
1895.91	14.2168
1897.4	14.1509
1898.89	13.6346
1900.39	13.9843
1901.88	15.2941
1903.37	15.3647
1904.86	14.9534
1906.35	15.0644
1907.84	15.7328
1909.33	14.696
1910.82	13.1861
1912.31	12.9816
1913.8	12.458
1915.29	10.6881
1916.77	10.7665
1918.26	10.1996
1919.75	9.95644
1921.24	9.29014
1922.73	9.67616
1924.21	9.31349
1925.7	8.91543
1927.19	8.40833
1928.67	7.35831
1930.16	7.33828
1931.64	7.59049
1933.13	7.42461
1934.61	6.89528
1936.1	6.94538
1937.58	6.58754
1939.07	6.51753
1940.55	6.35351
1942.04	5.577
1943.52	5.59781
1945	4.70391
1946.49	5.55847
1947.97	5.25221
1949.45	5.02829
1950.93	4.11542
1952.42	3.80107
1953.9	3.32379
1955.38	2.79155
1956.86	2.46079
1958.34	2.37975
1959.82	2.74677
1961.3	2.098
1962.78	3.65341
1964.26	3.87418
1965.74	5.44063
1967.22	5.57301
1968.7	6.00462
1970.18	6.56547
1971.65	7.06749
1973.13	7.81151
1974.61	8.80819
1976.09	8.39858
1977.57	8.68651
1979.04	8.80649
1980.52	9.76099
1982	10.9268
1983.47	10.2625
1984.95	10.5966
1986.42	11.9099
1987.9	11.6642
1989.37	11.6013
1990.85	12.1748
1992.32	11.8564
1993.8	11.944
1995.27	11.485
1996.75	11.3064
1998.22	11.7644
1999.69	12.2061
2001.17	11.8346
2002.64	11.3471
2004.11	11.1046
2005.58	11.3896
2007.05	10.7828
2008.53	11.8185
2010	11.5903
2011.47	11.3415
2012.94	11.1787
2014.41	10.3355
2015.88	9.47379
2017.35	9.88942
2018.82	9.82125
2020.29	9.74487
2021.76	8.9573
2023.23	9.52731
2024.7	8.85382
2026.16	9.62761
2027.63	9.3828
2029.1	9.71731
2030.57	10.164
2032.03	11.1245
2033.5	10.8439
2034.97	11.2404
2036.44	12.3001
2037.9	12.4358
2039.37	14.6679
2040.83	14.4683
2042.3	15.6941
2043.76	16.2622
2045.23	17.3473
2046.69	18.4324
2048.16	19.4569
2049.62	21.0131
2051.08	23.2769
2052.55	24.5495
2054.01	26.1242
2055.47	27.5195
2056.94	28.5691
2058.4	29.6006
2059.86	30.3395
2061.32	31.3107
2062.79	32.3295
2064.25	33.5137
2065.71	34.7058
2067.17	35.6263
2068.63	37.2435
2070.09	38.7642
2071.55	40.6871
2073.01	41.7832
2074.47	43.0618
2075.93	44.5354
2077.39	46.6736
2078.85	48.8002
2080.31	49.7102
2081.76	51.5022
2083.22	52.0707
2084.68	53.4568
2086.13	54.4739
2087.59	55.5329
2089.05	56.8484
2090.51	59.3107
2091.96	61.1292
2093.42	62.0618
2094.87	63.2413
2096.33	65.2665
2097.78	65.4299
2099.24	67.7733
2100.69	68.7782
2102.15	70.6117
2103.6	71.7499
2105.06	72.9594
2106.51	74.7632
2107.96	76.9309
2109.42	78.5701
2110.87	80.8512
2112.32	82.5694
2113.77	84.4632
2115.23	86.59
2116.68	88.3516
2118.13	90.23
2119.58	91.2101
2121.03	93.8986
2122.48	96.7119
2123.93	99.7556
2125.38	102.072
2126.83	105.249
2128.28	107.523
2129.73	109.441
2131.18	111.605
2132.63	114.436
2134.08	116.543
2135.53	118.525
2136.97	121.187
2138.42	123.385
2139.87	125.333
2141.32	128.509
2142.76	130.551
2144.21	132.982
2145.66	134.793
2147.1	137.318
2148.55	138.075
2150	140.184
2151.44	141.079
2152.89	142.035
2154.33	143.031
2155.78	143.91
2157.22	144.411
2158.66	144.738
2160.11	144.668
2161.55	145.463
2163	147.354
2164.44	147.44
2165.88	147.086
2167.32	146.903
2168.77	147.309
2170.21	146.127
2171.65	146.371
2173.09	144.519
2174.53	144.095
2175.97	142.653
2177.41	142.312
2178.85	141.636
2180.29	139.918
2181.73	138.129
2183.17	136.206
2184.61	134.209
2186.05	132.359
2187.49	129.182
2188.93	126.699
2190.37	124.049
2191.81	121.752
2193.24	120.293
2194.68	118.744
2196.12	116.248
2197.56	113.169
2198.99	110.877
2200.43	107.42
2201.87	104.632
2203.3	102.826
2204.74	100.752
2206.17	98.4348
2207.61	96.9521
2209.04	94.4532
2210.48	91.8817
2211.91	89.7978
2213.35	88.039
2214.78	84.9532
2216.21	82.644
2217.65	80.2577
2219.08	78.2387
2220.51	75.2742
2221.95	73.772
2223.38	72.4976
2224.81	70.4118
2226.24	67.9344
2227.67	65.8085
2229.1	63.8966
2230.54	62.0705
2231.97	61.93
2233.4	62.1796
2234.83	60.575
2236.26	58.8001
2237.69	57.7125
2239.11	56.0257
2240.54	54.3012
2241.97	51.6981
2243.4	50.1104
2244.83	48.6694
2246.26	47.391
2247.69	45.4027
2249.11	44.8415
2250.54	42.913
2251.97	41.6672
2253.4	39.7074
2254.82	38.0942
2256.25	36.3771
2257.67	36.0218
2259.1	35.2505
2260.53	33.6986
2261.95	32.289
2263.38	31.08
2264.8	29.9806
2266.23	28.6654
2267.65	27.1675
2269.07	26.4893
2270.5	25.9359
2271.92	25.1963
2273.34	24.4314
2274.77	24.2034
2276.19	23.5345
2277.61	22.4022
2279.03	21.8291
2280.46	21.4761
2281.88	20.571
2283.3	19.5171
2284.72	18.6279
2286.14	18.1072
2287.56	17.664
2288.98	17.7449
2290.4	17.2545
2291.82	16.1879
2293.24	15.9134
2294.66	15.7797
2296.08	14.0785
2297.5	13.8475
2298.92	14.2512
2300.34	15.1184
2301.76	16.2567
2303.17	16.9345
2304.59	16.0563
2306.01	16.2202
2307.43	16.549
2308.84	16.1469
2310.26	14.9765
2311.68	14.3287
2313.09	14.0974
2314.51	13.9583
2315.92	13.9319
2317.34	13.8338
2318.75	13.4776
2320.17	13.0352
2321.58	13.1264
2323	13.4229
2324.41	12.9498
2325.82	13.3353
2327.24	13.7011
2328.65	14.1759
2330.06	13.525
2331.48	12.8054
2332.89	12.398
2334.3	11.7067
2335.71	11.2304
2337.12	10.6308
2338.54	10.8903
2339.95	10.5844
2341.36	9.59563
2342.77	8.82702
2344.18	7.69356
2345.59	7.33065
2347	7.06665
2348.41	6.8485
2349.82	6.14888
2351.23	4.96854
2352.64	3.50471
2354.04	3.56393
2355.45	3.34419
2356.86	3.25303
2358.27	3.80053
2359.68	3.84269
2361.08	3.81431
2362.49	3.8696
2363.9	4.20907
2365.3	4.95109
2366.71	5.57405
2368.12	6.64168
2369.52	6.83138
2370.93	8.10864
2372.33	8.43841
2373.74	7.5648
2375.14	8.8291
2376.55	9.9107
2377.95	9.36981
2379.36	9.72295
2380.76	9.82822
2382.16	9.46272
2383.57	9.89911
2384.97	9.57928
2386.37	10.1432
2387.78	10.7679
2389.18	11.1033
2390.58	12.0365
2391.98	13.1847
2393.38	12.8605
2394.79	12.8903
2396.19	13.0165
2397.59	13.0857
2398.99	13.0048
2400.39	12.9504
2401.79	12.2398
2403.19	12.2764
2404.59	12.1466
2405.99	12.2699
2407.39	11.8905
2408.78	12.4259
2410.18	12.3164
2411.58	13.4119
2412.98	13.6962
2414.38	14.0411
2415.77	13.7906
2417.17	14.1179
2418.57	14.4711
2419.97	14.5888
2421.36	15.3281
2422.76	15.8745
2424.15	16.8174
2425.55	16.2962
2426.95	17.6979
2428.34	18.4638
2429.74	17.4306
2431.13	16.7104
2432.52	16.4477
2433.92	16.5913
2435.31	17.0041
2436.71	16.7614
2438.1	16.9008
2439.49	15.945
2440.89	16.1318
2442.28	14.9066
2443.67	14.556
2445.06	14.7537
2446.46	13.4529
2447.85	11.9883
2449.24	11.2399
2450.63	10.6115
2452.02	9.44316
2453.41	8.54829
2454.8	7.99746
2456.19	8.06995
2457.58	7.76565
2458.97	7.15822
2460.36	6.40471
2461.75	6.23552
2463.14	5.89398
2464.53	5.98163
2465.92	5.28494
2467.31	4.87369
2468.69	4.98338
2470.08	5.03552
2471.47	5.30109
2472.86	5.09693
2474.24	4.62216
2475.63	4.82349
2477.02	4.83214
2478.4	5.7863
2479.79	5.55527
2481.17	5.67766
2482.56	5.2787
2483.94	5.43726
2485.33	5.44623
2486.72	6.55764
2488.1	6.54156
2489.48	6.91582
2490.87	7.58726
2492.25	7.37281
2493.64	8.31061
2495.02	7.67658
2496.4	8.33812
2497.79	7.97741
2499.17	7.2537
2500.55	7.99198
2501.93	8.92034
2503.31	8.47278
2504.69	7.85293
2506.08	7.76265
2507.46	7.94989
2508.84	6.24822
2510.22	6.4671
2511.6	6.00949
2512.98	6.04994
2514.36	5.54202
2515.74	4.21582
2517.12	3.15865
2518.5	3.11854
2519.88	2.87338
2521.25	2.68252
2522.63	2.45862
2524.01	3.57744
2525.39	3.62248
2526.77	3.94723
2528.14	3.07639
2529.52	2.14431
2530.9	1.87417
2532.27	2.10333
2533.65	1.4704
2535.03	1.21191
2536.4	1.03688
2537.78	1.52646
2539.15	1.23299
2540.53	0.691204
2541.9	0.641059
2543.28	1.58201
2544.65	2.55549
2546.03	3.17668
2547.4	4.42189
2548.77	3.83043
2550.15	5.23326
2551.52	6.34894
2552.89	6.85834
2554.27	7.46301
2555.64	7.85109
2557.01	7.97857
2558.38	9.81463
2559.75	10.2815
2561.12	9.61408
2562.5	9.73164
2563.87	8.85565
2565.24	9.46746
2566.61	9.94473
2567.98	9.90674
2569.35	9.43916
2570.72	9.25247
2572.09	8.53125
2573.46	9.38452
2574.83	9.82208
2576.19	9.30755
2577.56	8.41375
2578.93	8.29589
2580.3	7.7264
2581.67	7.20921
2583.04	5.72008
2584.4	5.56866
2585.77	5.28501
2587.14	5.78843
2588.5	5.25574
2589.87	5.18956
2591.23	4.25329
2592.6	4.25736
2593.97	3.50495
2595.33	3.61115
2596.7	3.1562
2598.06	3.48849
2599.43	4.18036
2600.79	4.60287
2602.15	3.28059
2603.52	3.20316
2604.88	4.07242
2606.25	5.19785
2607.61	5.79601
2608.97	6.11236
2610.33	6.67586
2611.7	7.2579
2613.06	7.92868
2614.42	7.05749
2615.78	7.23374
2617.15	6.70859
2618.51	7.43149
2619.87	7.74231
2621.23	7.39079
2622.59	7.7867
2623.95	7.09187
2625.31	7.00205
2626.67	7.39351
2628.03	6.55688
2629.39	6.19904
2630.75	6.77134
2632.1	7.21018
2633.46	7.39324
2634.82	7.93815
2636.18	7.54842
2637.54	7.41878
2638.89	7.9071
2640.25	7.71858
2641.61	8.5748
2642.97	9.20363
2644.32	8.8916
2645.68	9.01469
2647.03	8.7773
2648.39	9.20397
2649.75	8.85172
2651.1	8.58732
2652.46	9.49708
2653.81	9.21323
2655.17	9.99485
2656.52	9.98934
2657.88	10.2936
2659.23	9.88126
2660.58	10.8391
2661.94	10.9554
2663.29	11.1448
2664.64	10.8447
2666	10.4652
2667.35	10.2725
2668.7	10.8191
2670.05	10.3505
2671.4	10.964
2672.76	12.0867
2674.11	10.8329
2675.46	10.8566
2676.81	10.2406
2678.16	10.1695
2679.51	11.6834
2680.86	11.6468
2682.21	10.9703
2683.56	12.6407
2684.91	12.8033
2686.26	12.7881
2687.61	13.3255
2688.96	12.9011
2690.3	12.7574
2691.65	12.0693
2693	12.9623
2694.35	13.1897
2695.7	13.6251
2697.04	13.6503
2698.39	14.5279
2699.74	14.8432
2701.08	15.4208
2702.43	16.4403
2703.77	16.3907
2705.12	17.1497
2706.47	17.2789
2707.81	18.6027
2709.16	19.7196
2710.5	20.1196
2711.85	19.5658
2713.19	20.5673
2714.53	20.9863
2715.88	21.4522
2717.22	21.4191
2718.57	21.1882
2719.91	21.7544
2721.25	21.0462
2722.59	21.2386
2723.94	21.1965
2725.28	20.2037
2726.62	19.9615
2727.96	20.0629
2729.3	20.1495
2730.65	20.3019
2731.99	20.0375
2733.33	19.3789
2734.67	19.276
2736.01	18.8801
2737.35	18.2365
2738.69	18.0543
2740.03	17.8271
2741.37	17.1961
2742.71	17.3706
2744.05	16.5313
2745.38	16.2719
2746.72	16.3936
2748.06	15.26
2749.4	14.5608
2750.74	14.4441
2752.07	13.677
2753.41	13.1332
2754.75	12.4143
2756.09	11.0827
2757.42	10.5703
2758.76	10.1914
2760.09	9.34551
2761.43	8.01183
2762.77	7.71506
2764.1	7.48472
2765.44	7.76443
2766.77	7.1476
2768.11	6.52596
2769.44	5.21306
2770.77	4.64744
2772.11	3.69933
2773.44	3.25785
2774.77	3.49483
2776.11	2.68982
2777.44	2.00519
2778.77	1.7286
2780.11	1.49341
2781.44	1.09831
2782.77	1.20353
2784.1	1.08676
2785.43	0.0125556
2786.77	0.545587
2788.1	0.136907
2789.43	0.302684
2790.76	-0.0131158
2792.09	0.547007
2793.42	1.33638
2794.75	1.42157
2796.08	2.49891
2797.41	2.11925
2798.74	2.3494
2800.07	2.12887
2801.4	2.64315
2802.72	3.10707
2804.05	3.89379
2805.38	3.86403
2806.71	4.17799
2808.04	5.01988
2809.36	4.34613
2810.69	4.85726
2812.02	5.51088
2813.34	6.65911
2814.67	8.17311
2816	9.78544
2817.32	12.4172
2818.65	16.1026
2819.97	17.9303
2821.3	21.7578
2822.62	26.6185
2823.95	32.3638
2825.27	37.5265
2826.6	43.9409
2827.92	50.6705
2829.25	58.4652
2830.57	66.7313
2831.89	74.1053
2833.22	81.9109
2834.54	90.2387
2835.86	99.1045
2837.18	109.4
2838.51	119.396
2839.83	129.944
2841.15	140.038
2842.47	150.58
2843.79	160.923
2845.11	171.89
2846.43	182.918
2847.76	194.126
2849.08	205.75
2850.4	216.772
2851.72	227.759
2853.04	239.364
2854.36	250.143
2855.67	260.332
2856.99	271.645
2858.31	282.138
2859.63	291.146
2860.95	299.962
2862.27	309.657
2863.58	317.863
2864.9	326.143
2866.22	333.732
2867.54	341.549
2868.85	348.08
2870.17	354.969
2871.49	360.173
2872.8	366.466
2874.12	371.098
2875.43	375.564
2876.75	381.556
2878.07	386.608
2879.38	391.845
2880.7	398.373
2882.01	405.33
2883.32	411.992
2884.64	419.103
2885.95	424.788
2887.27	432.456
2888.58	440.042
2889.89	447.119
2891.21	453.949
2892.52	461.609
2893.83	468.496
2895.14	476.402
2896.46	484.318
2897.77	492.142
2899.08	500.508
2900.39	509.565
2901.7	518.358
2903.01	527.891
2904.32	535.915
2905.63	545.25
2906.94	554.083
2908.25	564.117
2909.56	573.687
2910.87	583.578
2912.18	593.947
2913.49	603.878
2914.8	613.928
2916.11	622.58
2917.42	630.087
2918.72	636.516
2920.03	642.598
2921.34	647.377
2922.65	652.162
2923.95	655.519
2925.26	658.205
2926.57	659.721
2927.88	661.283
2929.18	660.224
2930.49	658.44
2931.79	655.921
2933.1	651.43
2934.4	645.421
2935.71	639.49
2937.01	631.562
2938.32	624.091
2939.62	614.245
2940.93	604.18
2942.23	594.206
2943.54	581.843
2944.84	570.177
2946.14	559.199
2947.45	546.319
2948.75	532.561
2950.05	518.759
2951.35	504.354
2952.66	490.879
2953.96	477.675
2955.26	463.042
2956.56	449.177
2957.86	435.276
2959.16	422
2960.46	409.952
2961.77	398.042
2963.07	385.519
2964.37	373.213
2965.66	361.56
2966.96	351.093
2968.26	340.582
2969.56	329.57
2970.86	320.686
2972.16	311.022
2973.46	302.309
2974.76	293.747
2976.06	285.319
2977.35	277.225
2978.65	267.764
2979.95	259.754
2981.25	250.456
2982.54	241.769
2983.84	233.119
2985.14	225.197
2986.43	217.297
2987.73	208.851
2989.02	201.229
2990.32	192.749
2991.62	183.618
2992.91	176.246
2994.21	167.383
2995.5	159.272
2996.8	150.964
2998.09	142.259
2999.38	134.205
3000.68	126.777
3001.97	119.72
3003.26	111.705
3004.56	103.622
3005.85	95.8804
3007.14	89.1401
3008.43	81.2252
3009.73	74.5907
3011.02	68.4089
3012.31	61.9235
3013.6	56.6927
3014.89	51.3832
3016.19	46.5885
3017.48	42.5658
3018.77	38.4385
3020.06	33.8886
3021.35	30.2704
3022.64	27.2326
3023.93	24.5864
3025.22	21.9239
3026.5	18.5955
3027.79	15.5792
3029.08	13.375
3030.37	11.4817
3031.66	9.98322
3032.95	6.99419
3034.24	5.99278
3035.52	5.00302
3036.81	4.77236
3038.1	4.40581
3039.39	4.20077
3040.67	4.11456
3041.96	3.81941
3043.25	3.36094
3044.53	4.58276
3045.82	4.26941
3047.1	5.05406
3048.39	5.16641
3049.67	6.23445
3050.96	6.93904
3052.24	6.83541
3053.53	7.73632
3054.81	7.83163
3056.1	8.21037
3057.38	9.00171
3058.67	8.9857
3059.95	9.18262
3061.23	9.56469
3062.52	9.92299
3063.8	9.95061
3065.08	10.2436
3066.36	9.85584
3067.65	8.76258
3068.93	8.75368
3070.21	8.13625
3071.49	8.08078
3072.77	8.27418
3074.05	8.18157
3075.33	8.08553
3076.61	7.66474
3077.89	7.63035
3079.17	7.0581
3080.45	6.0146
3081.73	4.73606
3083.01	3.83737
3084.29	2.87412
3085.57	2.12456
3086.85	1.61682
3088.13	0.613603
3089.41	0.701126
3090.68	-0.0934944
3091.96	-0.180104
3093.24	-0.8707
3094.52	-0.729053
3095.79	-0.633074
3097.07	-0.120172
3098.35	0.934155
3099.62	1.35617
3100.9	2.12942
3102.18	2.77202
3103.45	3.19825
3104.73	4.23275
3106	4.14447
3107.28	4.30152
3108.55	5.37995
3109.83	5.65248
3111.1	6.51829
3112.38	7.75278
3113.65	8.79189
3114.93	9.12789
3116.2	9.43312
3117.47	10.5288
3118.75	11.5342
3120.02	12.4989
3121.29	13.6147
3122.57	14.7183
3123.84	15.5271
3125.11	16.9362
3126.38	17.6198
3127.65	18.7841
3128.92	19.9322
3130.2	20.784
3131.47	22.5619
3132.74	24.2629
3134.01	25.218
3135.28	26.6425
3136.55	27.318
3137.82	27.4516
3139.09	28.092
3140.36	29.3418
3141.63	30.5316
3142.9	31.8582
3144.17	33.6563
3145.43	35.9454
3146.7	37.8417
3147.97	40.669
3149.24	43.7438
