#Acq. time (s)=	45
#Accumulations=	2
#Range (cm-¹)=	200...3150
#Windows=	2
#Auto scanning=	Off
#Autofocus=	Off
#Macrospot=	Off
#AutoExposure=	Off
#Spike filter=	Multiple accum.
#Delay time (s)=	0
#Binning=	1
#Readout mode=	Signal
#DeNoise=	Off
#ICS correction=	On
#Dark correction=	Off
#Inst. Process=	Off
#Detector Gain=	Best Dynamic Range
#Detector ADC=	20 kHz       
#Detector temperature (°C)=	-69.85
#Instrument=	LabRAM HR Evol
#Detector=	Synapse
#Objective=	x100
#Grating=	600 gr/mm
#ND Filter=	100%
#Laser (nm)=	532 
#Hole=	100.021
#Range=	Auto
#Laser Pol.=	No
#Raman. Pol.=	No
#Laser Pol. (°)=	-0.0007625
#Raman Pol. (°)=	89.9995
#Collection=	Microscope
#StageXY=	Marzhauser
#StageZ=	Marzhauser
#X (µm)=	-1070.8
#Y (µm)=	605.9
#Z (µm)=	584.65
#Full time(mm:ss)=	3:18
#Project=	
#Sample=	
#Site=	
#Title=	Mb_40_y_42_2x_45s_532 nm_x100_100%_600 gr_mm
#Remark=	
#Date=	19.07.2022 12:53
#Acquired=	19.07.2022 12:53:13
#Base:Fit=	10.08.2022 10:52:48
#Base:Sub=	10.08.2022 10:52:53
#Filter:Polynom=	16.08.2022 10:09:04
#AxisType[0]=Intens
#AxisUnit[0]=Cnt
#AxisType[1]=Spectr
#AxisUnit[1]=1/cm
200.423	69.0754
202.238	62.2493
204.052	58.2523
205.868	53.5691
207.682	48.4008
209.495	43.8211
211.308	39.7116
213.12	35.4546
214.935	31.3469
216.746	27.4744
218.558	25.8267
220.369	22.0965
222.18	18.525
223.992	16.5122
225.802	14.285
227.612	11.7348
229.421	9.78871
231.23	8.11694
233.039	7.50183
234.849	6.64289
236.657	5.58495
238.465	6.0095
240.272	5.16225
242.079	4.80477
243.885	3.8467
245.691	3.15845
247.497	2.93863
249.305	3.21946
251.11	3.0476
252.915	2.80938
254.719	2.48859
256.523	2.25061
258.327	3.29154
260.13	3.60344
261.933	3.7394
263.736	3.46992
265.538	4.89131
267.34	4.83613
269.141	5.22509
270.943	5.24384
272.744	6.1825
274.544	5.81576
276.344	6.5847
278.144	7.35902
279.944	7.29002
281.743	7.10925
283.542	6.98288
285.34	7.01639
287.138	7.76552
288.936	7.94287
290.733	7.45344
292.53	8.61537
294.327	8.2193
296.123	8.7189
297.919	8.67934
299.715	9.82293
301.508	9.14593
303.303	8.58534
305.098	8.60935
306.892	7.78511
308.686	8.2518
310.479	6.33693
312.273	6.56097
314.065	5.82759
315.858	6.22565
317.648	6.05314
319.44	6.32445
321.231	6.38763
323.022	7.41677
324.813	8.02857
326.604	7.97456
328.392	8.45026
330.181	7.53052
331.971	7.59044
333.76	7.20339
335.548	7.46328
337.335	7.46605
339.123	7.02878
340.91	6.3799
342.698	6.06176
344.483	6.4192
346.269	6.93872
348.055	6.61918
349.841	7.2751
351.625	7.7315
353.41	8.01699
355.195	8.06855
356.977	7.06512
358.762	6.23685
360.545	5.49202
362.329	5.32797
364.11	5.83255
365.893	6.4645
367.675	6.4958
369.455	7.08959
371.237	8.07858
373.017	8.50168
374.798	8.14062
376.578	9.04679
378.357	8.14384
380.137	8.05685
381.917	8.48234
383.694	8.30308
385.473	7.97061
387.249	8.46249
389.028	9.43868
390.806	8.54166
392.581	7.38987
394.359	7.15897
396.134	6.35338
397.91	6.74795
399.684	6.01446
401.46	5.90515
403.234	5.28763
405.009	7.24562
406.784	7.61654
408.557	8.30371
410.331	9.39717
412.103	9.94488
413.876	10.4466
415.647	10.095
417.42	10.8029
419.191	11.3636
420.961	12.264
422.733	13.2414
424.502	13.4507
426.273	13.6283
428.042	14.6054
429.812	14.7992
431.58	15.7339
433.35	15.8041
435.118	15.3351
436.885	15.4347
438.653	16.3177
440.42	17.3165
442.188	17.6158
443.954	18.0292
445.719	18.1211
447.486	18.0836
449.251	17.9752
451.015	19.4278
452.781	20.5035
454.545	21.6579
456.308	21.98
458.073	21.7463
459.836	21.5603
461.598	21.1824
463.362	20.8655
465.124	21.778
466.885	22.0552
468.648	23.3559
470.408	24.3712
472.169	24.2905
473.929	25.423
475.69	25.6218
477.45	24.1922
479.208	23.7898
480.967	23.7896
482.727	24.7497
484.485	26.0517
486.243	26.61
488	27.045
489.759	27.8133
491.515	29.5992
493.272	30.9428
495.028	30.7174
496.783	31.0515
498.54	31.8054
500.295	32.2046
502.05	33.0367
503.804	33.5512
505.558	34.0142
507.311	34.6594
509.064	34.757
510.819	34.9786
512.572	34.7852
514.324	36.1104
516.076	36.8999
517.827	37.2527
519.578	37.6635
521.329	36.5178
523.08	35.1933
524.83	35.5877
526.58	35.1976
528.329	34.2346
530.08	31.9368
531.829	30.5138
533.578	28.9967
535.326	27.4165
537.074	26.44
538.821	25.6594
540.568	24.5074
542.315	22.4271
544.062	20.361
545.808	19.8659
547.554	19.1777
549.299	18.4767
551.044	17.3942
552.789	17.3093
554.533	16.2019
556.278	13.8678
558.019	12.7248
559.763	11.8742
561.506	10.8184
563.249	8.91011
564.991	7.74944
566.733	7.8662
568.475	8.19146
570.217	8.86678
571.958	9.12634
573.699	8.7425
575.439	8.69334
577.177	8.79933
578.917	8.98875
580.656	8.88694
582.396	9.32999
584.134	9.85177
585.873	10.8723
587.609	11.6327
589.347	11.9025
591.084	12.6495
592.822	12.5951
594.558	13.8472
596.295	13.8762
598.029	14.8613
599.765	15.5935
601.5	16.532
603.235	16.7318
604.968	17.3046
606.703	16.8101
608.437	15.8986
610.171	15.5542
611.902	16.8755
613.635	16.1242
615.368	16.1569
617.099	15.7701
618.831	16.4943
620.563	16.8099
622.294	16.4152
624.024	16.9454
625.755	16.9599
627.485	17.6363
629.213	17.3847
630.943	18.6531
632.673	18.5504
634.4	17.9899
636.129	17.5552
637.855	16.7954
639.584	15.4064
641.312	13.7872
643.037	12.9029
644.764	13.366
646.491	13.3295
648.216	12.8643
649.942	12.8394
651.666	13.1325
653.392	14.1191
655.115	14.5669
656.84	14.7977
658.563	14.3405
660.287	14.8035
662.011	14.962
663.732	15.1364
665.456	15.9122
667.177	16.412
668.899	16.091
670.62	16.9213
672.342	19.0407
674.061	21.0287
675.781	21.4933
677.502	23.0433
679.22	24.2733
680.941	26.238
682.659	26.9947
684.379	29.6529
686.096	30.8414
687.815	32.5598
689.532	34.322
691.248	36.3241
692.966	38.1223
694.682	39.3873
696.4	40.9723
698.115	41.8249
699.829	42.7275
701.546	44.5896
703.26	45.0074
704.974	47.1623
706.689	48.5346
708.402	49.0518
710.115	50.0395
711.83	51.2849
713.542	52.5694
715.254	52.5919
716.967	52.7932
718.679	52.2585
720.39	52.109
722.102	51.4108
723.812	50.9753
725.522	50.4362
727.232	50.4044
728.943	50.3259
730.652	49.6186
732.361	48.7228
734.069	48.682
735.779	48.3267
737.487	48.6402
739.194	47.9524
740.901	46.7863
742.608	46.8403
744.316	47.121
746.022	47.6876
747.728	47.2372
749.433	46.4715
751.138	46.7624
752.843	48.2054
754.549	49.6085
756.254	52.6594
757.957	54.2283
759.661	54.9711
761.364	54.4475
763.067	55.4288
764.769	55.8438
766.471	57.2598
768.175	58.3519
769.877	60.7553
771.578	60.7253
773.279	62.6334
774.98	64.3216
776.68	65.3752
778.38	65.8756
780.079	65.4699
781.779	66.393
783.478	66.8999
785.176	68.5284
786.875	69.7418
788.573	69.9611
790.27	71.7071
791.968	72.1991
793.665	72.9938
795.361	74.488
797.058	75.8072
798.754	75.6663
800.45	75.2061
802.145	75.3735
803.84	75.7798
805.535	75.5785
807.23	75.2197
808.922	74.5808
810.616	73.5932
812.309	72.0031
814.002	70.8301
815.695	71.3419
817.388	70.6023
819.08	70.5832
820.772	69.6472
822.464	69.2948
824.153	68.9558
825.844	68.1723
827.535	68.3863
829.225	68.6383
830.915	67.3279
832.605	67.0151
834.292	66.3893
835.981	66.6248
837.67	67.2989
839.359	66.0907
841.047	65.5301
842.732	63.4407
844.42	62.096
846.107	61.5494
847.794	61.4642
849.479	61.3123
851.165	62.5417
852.851	62.977
854.534	62.5439
856.22	61.2104
857.905	60.7881
859.589	60.5858
861.272	59.6718
862.956	58.7762
864.639	58.1068
866.321	56.82
868.004	55.9543
869.687	56.4453
871.367	56.2931
873.049	56.1757
874.731	56.3216
876.41	56.0597
878.092	56.2106
879.771	53.9118
881.451	52.4181
883.131	51.1382
884.809	49.8494
886.489	48.7668
888.166	47.9869
889.845	46.4102
891.522	45.5333
893.2	44.2481
894.878	42.7949
896.554	43.0246
898.231	43.7327
899.906	44.52
901.583	42.0741
903.258	41.9227
904.934	41.2436
906.608	40.5769
908.283	41.1729
909.956	40.4468
911.631	40.6687
913.304	40.4605
914.976	38.9678
916.65	39.4525
918.322	38.4101
919.995	38.9996
921.666	39.1371
923.339	38.8381
925.009	39.625
926.679	39.983
928.351	40.4331
930.021	40.7575
931.692	40.9699
933.361	41.2391
935.029	41.5648
936.699	40.7619
938.367	39.49
940.035	38.7177
941.704	38.1207
943.371	37.7929
945.038	37.0874
946.706	37.1293
948.372	37.5066
950.038	36.6521
951.705	37.8691
953.37	37.5051
955.035	36.0022
956.7	35.3591
958.366	33.8206
960.03	33.1478
961.693	32.0962
963.357	30.6713
965.021	31.3343
966.684	31.4903
968.346	31.4941
970.008	32.4892
971.67	32.868
973.334	32.9605
974.995	33.2698
976.655	32.1304
978.316	31.8874
979.976	32.7413
981.638	31.7022
983.297	31.1428
984.957	30.6375
986.616	31.134
988.274	31.4766
989.932	32.2847
991.59	31.3858
993.248	30.382
994.907	28.0757
996.565	25.4082
998.221	21.5773
999.878	19.0273
1001.53	16.4201
1003.19	14.7904
1004.85	13.2168
1006.5	15.4138
1008.16	20.9534
1009.81	28.593
1011.46	39.4798
1013.12	52.6027
1014.77	67.3058
1016.43	84.2106
1018.08	100.677
1019.73	116.493
1021.38	132.96
1023.04	148.703
1024.69	164.962
1026.34	181.043
1027.99	196.043
1029.64	209.335
1031.29	221.218
1032.94	230.749
1034.59	240.793
1036.24	248.841
1037.89	255.191
1039.54	261.205
1041.19	265.766
1042.84	269.62
1044.48	271.237
1046.13	272.049
1047.78	272.246
1049.42	269.781
1051.07	266.494
1052.72	262.249
1054.36	256.254
1056.01	250.068
1057.66	241.69
1059.3	231.21
1060.94	221.089
1062.59	209.321
1064.23	195.871
1065.88	183.064
1067.52	167.21
1069.16	150.488
1070.81	132.721
1072.45	114.255
1074.09	96.4929
1075.73	79.5454
1077.38	61.8953
1079.02	45.811
1080.66	31.5987
1082.3	19.8427
1083.94	10.9004
1085.58	3.97936
1087.22	0.427574
1088.86	2.00337
1090.5	3.2669
1092.13	6.40744
1093.77	9.8195
1095.41	12.7432
1097.05	16.5899
1098.68	19.7089
1100.32	21.2127
1101.96	23.5271
1103.6	25.5731
1105.23	27.2963
1106.87	29.5876
1108.5	31.2333
1110.14	30.8774
1111.77	30.2747
1113.41	31.1062
1115.04	31.1004
1116.67	31.7642
1118.31	32.0872
1119.94	32.6201
1121.58	32.8305
1123.21	33.9829
1124.84	34.4894
1126.47	35.3768
1128.1	34.5913
1129.73	34.4587
1131.37	33.1251
1133	32.6367
1134.63	32.475
1136.26	32.3377
1137.89	32.1535
1139.52	30.5502
1141.14	29.3465
1142.77	28.7397
1144.4	27.9917
1146.03	26.598
1147.66	25.6986
1149.29	23.1855
1150.91	21.7734
1152.54	20.8731
1154.17	20.6245
1155.79	19.9788
1157.42	17.5625
1159.04	15.1498
1160.67	13.155
1162.3	11.0628
1163.92	8.91657
1165.55	7.9921
1167.17	5.99202
1168.79	6.02112
1170.42	5.95905
1172.04	5.6299
1173.66	5.54811
1175.28	5.31998
1176.91	6.47377
1178.53	6.8344
1180.15	5.42752
1181.77	5.45093
1183.39	4.75397
1185.01	3.07671
1186.63	3.14911
1188.25	2.98226
1189.87	2.22317
1191.49	1.38044
1193.11	2.417
1194.73	4.07339
1196.35	3.10037
1197.97	2.64286
1199.59	3.382
1201.2	4.07895
1202.82	4.20436
1204.44	5.54261
1206.05	6.2097
1207.67	7.06309
1209.29	6.99545
1210.9	9.25696
1212.52	10.3001
1214.13	12.0868
1215.75	14.2193
1217.36	16.5404
1218.97	19.3095
1220.59	21.5879
1222.2	24.227
1223.82	25.9208
1225.43	28.4775
1227.04	31.0147
1228.65	33.0346
1230.26	34.3581
1231.88	36.3627
1233.49	38.8805
1235.1	40.4467
1236.71	41.5413
1238.32	43.2303
1239.93	44.2219
1241.54	46.1143
1243.15	47.2273
1244.76	49.8135
1246.37	51.2516
1247.97	52.9881
1249.58	55.4765
1251.19	56.621
1252.8	57.7361
1254.41	59.9435
1256.01	63.0816
1257.62	65.216
1259.23	65.8936
1260.83	68.7954
1262.44	72.5791
1264.04	74.48
1265.65	77.865
1267.25	80.2797
1268.86	82.5049
1270.46	84.9821
1272.07	87.2458
1273.67	89.9833
1275.27	91.1487
1276.88	91.5389
1278.48	94.1039
1280.08	97.3048
1281.68	100.56
1283.28	103.084
1284.89	104.965
1286.49	107.023
1288.09	109.035
1289.69	110.379
1291.29	111.366
1292.89	112.833
1294.49	114.917
1296.09	116.279
1297.69	118.355
1299.29	118.241
1300.88	118.188
1302.48	118.531
1304.08	118.381
1305.68	118.88
1307.27	117.931
1308.87	117.062
1310.47	116.267
1312.06	115.686
1313.66	114.84
1315.25	114.094
1316.85	112.179
1318.44	110.962
1320.04	108.721
1321.63	106.674
1323.23	104.505
1324.82	102.642
1326.41	99.7325
1328.01	98.5126
1329.6	95.5216
1331.19	93.839
1332.78	91.8122
1334.38	90.9197
1335.97	89.7896
1337.56	88.6237
1339.15	87.4808
1340.74	86.0562
1342.33	84.231
1343.92	81.5843
1345.51	79.3993
1347.1	76.8897
1348.69	75.3312
1350.28	73.9862
1351.87	71.6024
1353.46	70.0898
1355.04	68.5614
1356.63	66.4393
1358.22	66.1126
1359.81	64.8556
1361.39	63.0174
1362.98	60.8632
1364.57	59.1439
1366.15	59.3581
1367.74	58.8001
1369.32	57.5087
1370.91	56.7345
1372.49	56.4818
1374.07	56.2648
1375.66	54.6594
1377.24	53.9612
1378.83	54.1071
1380.41	54.8931
1381.99	56.1763
1383.57	57.0518
1385.16	57.8093
1386.74	58.8078
1388.32	59.7448
1389.9	60.1705
1391.48	62.41
1393.06	63.5502
1394.64	65.2705
1396.22	65.7507
1397.8	67.4222
1399.38	67.142
1400.96	69.2155
1402.54	72.2956
1404.12	75.3716
1405.7	78.3392
1407.28	81.371
1408.85	83.9486
1410.43	88.2717
1412.01	91.4448
1413.58	96.1148
1415.16	101.171
1416.74	104.751
1418.31	108.279
1419.89	112.782
1421.46	118.321
1423.04	122.288
1424.61	126.826
1426.19	131.458
1427.76	134.5
1429.33	138.342
1430.91	141.529
1432.48	144.523
1434.05	148.594
1435.63	150.642
1437.2	153.899
1438.77	155.37
1440.34	156.752
1441.91	158.005
1443.49	158.68
1445.05	160.345
1446.63	159.316
1448.2	159.254
1449.77	158.639
1451.34	157.415
1452.91	155.256
1454.47	152.247
1456.04	150.168
1457.61	148.076
1459.18	144.375
1460.75	141.837
1462.31	137.47
1463.88	132.3
1465.45	127.703
1467.01	122.261
1468.58	117.267
1470.15	112.339
1471.71	106.424
1473.28	101.501
1474.84	95.7312
1476.41	91.4125
1477.97	86.3924
1479.54	82.9785
1481.1	78.3046
1482.66	73.8474
1484.23	70.9549
1485.79	66.5337
1487.35	63.3204
1488.91	60.9433
1490.48	57.5155
1492.04	55.2223
1493.6	52.1024
1495.16	49.6814
1496.72	47.363
1498.28	45.4561
1499.84	43.2723
1501.4	41.427
1502.96	39.5504
1504.52	38.621
1506.08	36.7479
1507.64	37.3836
1509.2	37.1162
1510.76	36.805
1512.31	37.3514
1513.87	36.6424
1515.43	36.6594
1516.99	37.0601
1518.54	36.7785
1520.1	37.5149
1521.66	38.2315
1523.21	40.2776
1524.77	40.5039
1526.32	41.3189
1527.88	41.7443
1529.43	41.9759
1530.99	41.9878
1532.54	43.4538
1534.09	44.3945
1535.65	44.6387
1537.2	45.4207
1538.75	45.7001
1540.31	46.0973
1541.86	46.4357
1543.41	47.7259
1544.96	47.8112
1546.51	48.7894
1548.06	49.7428
1549.62	51.2949
1551.17	51.5386
1552.72	51.987
1554.27	52.6201
1555.82	53.3551
1557.36	54.0695
1558.91	54.5087
1560.46	54.928
1562.01	55.4006
1563.56	54.4064
1565.11	55.8414
1566.66	56.5693
1568.2	56.9294
1569.75	57.6106
1571.3	58.0371
1572.84	59.4257
1574.39	60.0801
1575.93	61.4415
1577.48	62.3596
1579.02	63.4011
1580.57	65.0403
1582.11	65.8964
1583.66	66.1737
1585.2	68.0975
1586.75	68.2667
1588.29	69.4058
1589.83	70.2397
1591.38	70.6937
1592.92	71.4273
1594.46	72.0752
1596	71.8333
1597.54	71.9975
1599.09	72.3498
1600.63	73.1297
1602.17	73.3469
1603.71	73.6279
1605.25	73.4386
1606.79	72.9831
1608.33	72.8067
1609.87	73.6411
1611.41	72.9815
1612.95	72.9449
1614.48	73.3894
1616.02	73.7875
1617.56	74.487
1619.1	74.4103
1620.64	74.9876
1622.17	75.378
1623.71	76.6578
1625.25	77.4458
1626.78	78.3328
1628.32	77.1945
1629.86	78.1474
1631.39	79.447
1632.92	80.4545
1634.46	80.8264
1635.99	81.9517
1637.53	82.6592
1639.06	84.9342
1640.59	87.0365
1642.13	89.3929
1643.66	90.0778
1645.19	91.1238
1646.73	92.0874
1648.26	94.5861
1649.79	96.1834
1651.32	96.4993
1652.85	97.1314
1654.38	96.8172
1655.92	96.7695
1657.45	96.6475
1658.98	95.0772
1660.51	95.1821
1662.04	94.1468
1663.57	92.8901
1665.09	91.2025
1666.62	89.0809
1668.15	87.5044
1669.68	86.9318
1671.21	84.4306
1672.73	82.7033
1674.26	80.5536
1675.79	78.913
1677.31	75.5376
1678.84	71.8113
1680.37	68.6019
1681.89	65.7163
1683.42	63.2825
1684.94	59.8799
1686.47	57.3517
1687.99	54.0604
1689.52	51.1498
1691.04	48.5568
1692.57	46.5526
1694.09	43.9744
1695.61	41.2669
1697.14	39.0108
1698.66	37.099
1700.18	34.7094
1701.7	31.3909
1703.22	29.3257
1704.75	26.5487
1706.27	26.7504
1707.79	24.5354
1709.31	22.9684
1710.83	21.5562
1712.35	20.6191
1713.87	18.8473
1715.39	18.4252
1716.91	17.2027
1718.43	16.1514
1719.95	14.6811
1721.46	14.4721
1722.98	14.252
1724.5	14.3199
1726.02	12.7885
1727.53	11.176
1729.05	10.6879
1730.57	10.0123
1732.08	9.34926
1733.6	9.38337
1735.12	8.67681
1736.63	8.50901
1738.15	7.57291
1739.66	7.15767
1741.18	7.24252
1742.69	7.37347
1744.21	7.61603
1745.72	7.62277
1747.23	6.41627
1748.74	6.29977
1750.26	5.638
1751.77	4.26006
1753.28	3.91862
1754.8	4.2362
1756.31	4.74834
1757.82	4.46899
1759.33	4.26705
1760.84	3.92618
1762.35	4.28429
1763.86	3.99439
1765.37	3.89184
1766.88	4.21317
1768.39	4.5588
1769.9	4.15299
1771.41	3.67158
1772.92	3.90087
1774.43	3.89852
1775.93	3.33928
1777.44	2.83491
1778.95	3.69274
1780.46	3.2967
1781.96	3.22183
1783.47	2.62538
1784.98	3.45011
1786.48	3.65818
1787.99	4.16784
1789.49	3.57382
1791	3.98352
1792.5	4.26078
1794.01	3.96497
1795.51	4.58319
1797.02	5.12994
1798.52	5.44102
1800.03	6.24904
1801.53	5.89545
1803.03	6.08511
1804.53	6.01109
1806.04	6.18751
1807.54	5.8016
1809.04	6.0552
1810.54	5.47107
1812.04	5.29154
1813.54	4.51656
1815.05	4.43677
1816.55	4.69017
1818.05	4.25791
1819.55	4.09924
1821.05	3.60842
1822.55	3.49373
1824.05	2.86933
1825.54	2.47007
1827.04	1.74587
1828.54	1.82289
1830.04	1.71946
1831.54	1.5226
1833.03	1.52061
1834.53	1.63723
1836.03	1.00889
1837.52	0.79265
1839.02	1.27586
1840.52	1.02835
1842.01	0.871245
1843.51	0.43211
1845	-0.595914
1846.5	-1.03889
1847.99	-0.715719
1849.49	-0.956041
1850.98	-0.928224
1852.47	-1.52286
1853.97	-1.0365
1855.46	-0.862295
1856.95	-0.824646
1858.45	0.109174
1859.94	-0.29213
1861.43	-0.345075
1862.92	0.37339
1864.41	0.343599
1865.91	0.282713
1867.4	0.472455
1868.89	0.426515
1870.38	1.09767
1871.87	0.921551
1873.36	1.18231
1874.85	1.67941
1876.34	0.881462
1877.83	0.728209
1879.31	0.581532
1880.8	1.3636
1882.29	1.25135
1882.56	1.11719
1884.05	1.18428
1885.54	1.6821
1887.04	1.72345
1888.53	2.12578
1890.03	2.58425
1891.52	2.28807
1893.01	2.06046
1894.5	1.83035
1895.99	1.45885
1897.49	1.30375
1898.98	2.21319
1900.47	2.95818
1901.96	3.32387
1903.45	3.86375
1904.94	3.6681
1906.43	4.00813
1907.92	4.91165
1909.41	5.10439
1910.9	5.7204
1912.39	5.63039
1913.88	5.23381
1915.37	5.39635
1916.86	5.01141
1918.35	5.39782
1919.84	5.76003
1921.32	6.46334
1922.81	6.07516
1924.3	5.44709
1925.78	5.39545
1927.27	6.12185
1928.76	6.09405
1930.24	5.7136
1931.73	5.97894
1933.21	6.47253
1934.7	6.66147
1936.18	6.96549
1937.67	6.02211
1939.15	5.68939
1940.64	6.35303
1942.12	5.94035
1943.6	6.2005
1945.09	6.90539
1946.57	7.32744
1948.05	7.261
1949.54	6.9134
1951.02	6.87473
1952.5	7.12159
1953.98	7.07061
1955.46	7.29097
1956.94	7.66929
1958.42	8.01601
1959.91	8.13629
1961.39	6.99244
1962.87	7.14879
1964.34	6.89385
1965.82	6.50406
1967.3	6.92643
1968.78	7.58877
1970.26	8.08222
1971.74	8.14919
1973.22	8.61456
1974.7	8.00605
1976.17	7.68801
1977.65	7.94633
1979.13	7.96172
1980.6	7.36608
1982.08	6.64163
1983.56	6.04595
1985.03	5.30467
1986.51	5.01117
1987.98	4.90879
1989.46	4.40947
1990.93	4.0424
1992.41	4.18783
1993.88	3.40654
1995.36	3.24638
1996.83	3.13701
1998.3	2.41116
1999.78	2.56882
2001.25	2.95116
2002.72	3.02029
2004.2	3.09033
2005.67	2.82848
2007.14	2.57925
2008.61	2.41324
2010.08	2.64532
2011.55	2.57837
2013.02	2.93614
2014.49	3.18518
2015.97	3.14116
2017.43	3.44644
2018.9	3.20345
2020.37	3.10801
2021.84	3.40441
2023.31	3.80521
2024.78	4.27211
2026.25	4.81412
2027.72	5.47323
2029.19	6.20356
2030.65	6.00248
2032.12	5.68392
2033.59	6.22213
2035.05	6.58086
2036.52	8.00149
2037.98	8.37415
2039.45	9.79582
2040.92	10.7485
2042.38	10.879
2043.85	10.6544
2045.31	10.7297
2046.78	11.6342
2048.24	11.5398
2049.71	12.2529
2051.17	12.5023
2052.63	13.0367
2054.1	12.8217
2055.56	13.8506
2057.02	14.2643
2058.48	14.7663
2059.95	15.8144
2061.41	16.2964
2062.87	16.5143
2064.33	17.8795
2065.79	18.2143
2067.25	18.6734
2068.71	19.5406
2070.17	20.2075
2071.63	20.9734
2073.09	21.9563
2074.55	22.5242
2076.01	22.5889
2077.47	22.9349
2078.93	23.8107
2080.39	24.8964
2081.85	26.3402
2083.3	26.7147
2084.76	26.6468
2086.22	27.0778
2087.68	27.9033
2089.13	28.7655
2090.59	29.4878
2092.05	29.7064
2093.5	31.1002
2094.96	31.6693
2096.41	32.3571
2097.87	33.2544
2099.32	34.226
2100.78	35.8836
2102.23	37.1197
2103.69	37.37
2105.14	38.3087
2106.59	40.2226
2108.05	41.396
2109.5	42.2698
2110.95	43.2466
2112.41	44.9797
2113.86	45.8185
2115.31	47.1091
2116.76	48.7086
2118.21	50.8345
2119.67	52.7709
2121.12	54.4248
2122.57	55.8879
2124.02	56.9925
2125.47	59.1004
2126.92	60.2217
2128.37	62.3164
2129.82	64.0782
2131.27	66.5374
2132.71	68.7091
2134.16	70.4118
2135.61	72.1581
2137.06	74.6056
2138.51	76.4134
2139.95	78.3826
2141.4	80.6729
2142.85	83.128
2144.29	85.5904
2145.74	87.3466
2147.19	89.7094
2148.63	92.3875
2150.08	94.2973
2151.52	96.0652
2152.97	97.5717
2154.42	99.3137
2155.86	101.096
2157.3	102.339
2158.75	104.319
2160.19	106.92
2161.64	108.325
2163.08	109.122
2164.52	110.635
2165.96	111.795
2167.41	113.43
2168.85	114.599
2170.29	114.999
2171.73	116.059
2173.17	116.567
2174.61	116.132
2176.06	115.406
2177.5	115.171
2178.94	116.157
2180.38	115.47
2181.82	115.469
2183.26	115.276
2184.7	114.739
2186.14	113.836
2187.57	112.949
2189.01	111.263
2190.45	109.939
2191.89	107.43
2193.33	104.748
2194.76	102.135
2196.2	100.209
2197.64	98.5534
2199.08	96.1116
2200.51	94.1054
2201.95	91.6175
2203.38	88.9192
2204.82	86.1179
2206.25	83.3148
2207.69	81.4887
2209.12	79.4862
2210.56	77.3373
2211.99	74.6877
2213.43	73.0958
2214.86	70.8186
2216.3	68.7722
2217.73	66.8865
2219.16	64.8548
2220.59	62.755
2222.03	60.82
2223.46	59.3423
2224.89	58.381
2226.32	56.4483
2227.75	55.3214
2229.19	53.7269
2230.62	53.3485
2232.05	52.0246
2233.48	49.9523
2234.91	48.4823
2236.34	47.7685
2237.77	46.3431
2239.2	46.1146
2240.63	45.0771
2242.06	44.1367
2243.48	43.4506
2244.91	42.6
2246.34	41.3181
2247.77	40.4748
2249.2	39.6808
2250.62	39.0506
2252.05	37.6277
2253.48	36.6177
2254.9	34.5922
2256.33	33.8329
2257.76	33.4721
2259.18	32.7419
2260.61	31.1526
2262.03	30.5664
2263.46	29.6266
2264.88	28.7043
2266.31	27.9842
2267.73	26.8997
2269.16	25.8322
2270.58	25.5629
2272	24.6858
2273.43	23.3471
2274.85	22.1172
2276.27	21.1131
2277.69	20.6347
2279.12	19.5252
2280.54	18.6707
2281.96	17.9319
2283.38	17.6548
2284.8	17.2564
2286.22	16.6729
2287.64	16.1684
2289.07	15.5891
2290.49	14.6547
2291.91	13.7219
2293.32	12.8876
2294.74	12.5748
2296.16	12.9853
2297.58	12.9851
2299	14.0042
2300.42	14.1179
2301.84	14.3796
2303.26	14.5482
2304.67	14.7234
2306.09	15.2786
2307.51	15.6415
2308.92	15.2854
2310.34	15.7357
2311.76	15.8305
2313.17	15.6785
2314.59	15.8143
2316	15.5839
2317.42	15.4638
2318.83	15.4095
2320.25	15.6672
2321.66	15.8965
2323.08	16.347
2324.49	16.5026
2325.91	16.4334
2327.32	17.2817
2328.73	17.3111
2330.15	16.605
2331.56	15.7908
2332.97	15.7536
2334.38	14.6999
2335.79	14.0182
2337.21	14.128
2338.62	13.3752
2340.03	13.0357
2341.44	12.7454
2342.85	11.6152
2344.26	10.3422
2345.67	8.9201
2347.08	7.96532
2348.49	7.13421
2349.9	5.7662
2351.31	5.26639
2352.72	4.48748
2354.13	3.6699
2355.53	2.45625
2356.94	1.61968
2358.35	1.09146
2359.76	0.297983
2361.17	0.327345
2362.57	0.643557
2363.98	0.8928
2365.39	1.63506
2366.79	1.85185
2368.2	1.72313
2369.6	1.29533
2371.01	0.913855
2372.42	1.10506
2373.82	1.3997
2375.22	0.851084
2376.63	0.683459
2378.03	0.391127
2379.44	0.417854
2380.84	1.07899
2382.25	1.04223
2383.65	1.38337
2385.05	1.10838
2386.45	2.05722
2387.86	3.00053
2389.26	2.95608
2390.66	3.32068
2392.06	4.30881
2393.46	4.02972
2394.87	4.55032
2396.27	4.97729
2397.67	5.66489
2399.07	5.68217
2400.47	5.83557
2401.87	6.41389
2403.27	6.89209
2404.67	7.245
2406.07	7.92494
2407.47	8.34278
2408.86	7.80247
2410.26	8.29574
2411.66	8.85195
2413.06	8.61728
2414.46	8.49692
2415.85	8.41515
2417.25	8.55325
2418.65	8.39117
2420.05	8.72301
2421.44	9.38602
2422.84	9.87109
2424.23	10.3306
2425.63	10.5659
2427.03	10.6781
2428.42	10.1477
2429.82	10.2685
2431.21	10.6746
2432.6	10.4368
2434	9.74964
2435.39	9.74908
2436.79	9.54361
2438.18	9.16523
2439.57	8.5766
2440.97	8.69379
2442.36	8.77664
2443.75	7.99237
2445.14	7.76109
2446.54	7.11666
2447.93	6.47114
2449.32	6.35967
2450.71	6.50687
2452.1	6.5354
2453.49	7.22748
2454.88	6.48156
2456.27	7.20403
2457.66	6.19953
2459.05	5.80543
2460.44	5.46534
2461.83	5.22663
2463.22	3.71517
2464.61	4.27289
2466	4.95299
2467.39	4.97753
2468.77	5.71826
2470.16	6.00478
2471.55	6.19832
2472.94	6.64407
2474.32	6.46061
2475.71	6.78768
2477.1	7.25066
2478.48	7.59459
2479.87	7.72344
2481.25	7.00244
2482.64	6.43886
2484.02	6.564
2485.41	6.43137
2486.8	6.3316
2488.18	6.4211
2489.56	6.63055
2490.95	6.49995
2492.33	6.04355
2493.72	5.49875
2495.1	5.3506
2496.48	5.24752
2497.86	5.23481
2499.25	5.4762
2500.63	4.60126
2502.01	3.70127
2503.39	3.56989
2504.77	3.44554
2506.16	2.87291
2507.54	2.12628
2508.92	2.26243
2510.3	1.82351
2511.68	1.24216
2513.06	0.461381
2514.44	0.711877
2515.82	0.192811
2517.2	0.331348
2518.58	1.15644
2519.95	1.29794
2521.33	1.40051
2522.71	1.55197
2524.09	0.818394
2525.47	0.653606
2526.84	-0.267413
2528.22	-0.390862
2529.6	-0.481058
2530.98	0.393694
2532.35	0.864814
2533.73	2.33272
2535.11	4.42032
2536.48	4.47514
2537.86	5.12399
2539.23	4.74223
2540.61	4.96034
2541.98	5.51182
2543.36	5.17854
2544.73	5.61221
2546.1	5.44475
2547.48	5.11657
2548.85	4.72588
2550.23	4.99396
2551.6	5.94265
2552.97	6.06586
2554.34	6.07749
2555.72	6.55571
2557.09	6.86152
2558.46	6.86468
2559.83	6.95643
2561.2	6.39002
2562.58	6.40508
2563.95	7.44759
2565.32	7.38074
2566.69	7.02823
2568.06	7.30663
2569.43	6.99433
2570.8	7.04305
2572.17	7.89185
2573.54	7.73046
2574.91	7.49666
2576.27	7.72267
2577.64	8.00727
2579.01	7.34658
2580.38	7.99114
2581.75	8.15954
2583.11	8.71426
2584.48	9.15697
2585.85	9.40269
2587.21	9.42403
2588.58	8.78215
2589.95	8.74996
2591.31	8.22085
2592.68	7.28201
2594.04	6.95654
2595.41	6.7608
2596.78	6.70657
2598.14	6.27223
2599.51	6.78406
2600.87	6.27046
2602.23	6.53202
2603.6	7.18445
2604.96	5.10058
2606.32	4.98917
2607.69	4.31902
2609.05	4.46543
2610.41	4.64718
2611.77	4.38627
2613.14	4.73345
2614.5	4.83718
2615.86	4.92689
2617.22	5.07124
2618.58	5.36844
2619.94	5.47715
2621.3	5.47142
2622.67	5.7991
2624.03	6.31447
2625.39	5.71858
2626.75	5.29088
2628.1	5.02693
2629.46	4.95503
2630.82	5.378
2632.18	6.28363
2633.54	6.58792
2634.9	7.02415
2636.26	7.07686
2637.61	6.42361
2638.97	6.74025
2640.33	7.35503
2641.69	7.25026
2643.04	6.91415
2644.4	7.42491
2645.76	7.2124
2647.11	6.9006
2648.47	7.45101
2649.82	7.39215
2651.18	7.32665
2652.53	7.43423
2653.89	7.02266
2655.24	6.50517
2656.6	6.2426
2657.95	6.45177
2659.31	6.14063
2660.66	6.1821
2662.01	6.05043
2663.37	5.5102
2664.72	5.479
2666.07	5.66774
2667.43	6.09188
2668.78	5.70144
2670.13	6.22434
2671.48	6.18192
2672.83	5.64835
2674.18	6.62388
2675.53	6.69894
2676.89	6.78373
2678.24	7.23985
2679.59	7.55931
2680.94	7.4753
2682.29	7.3467
2683.64	7.68497
2684.99	8.36765
2686.34	8.62149
2687.68	8.67365
2689.03	8.51286
2690.38	8.40183
2691.73	9.00211
2693.08	8.73542
2694.43	8.96166
2695.77	9.46173
2697.12	9.89856
2698.47	10.4887
2699.81	11.6162
2701.16	12.25
2702.51	12.1193
2703.85	12.0682
2705.2	12.663
2706.54	13.2074
2707.89	13.79
2709.23	13.7816
2710.58	14.2647
2711.92	15.0221
2713.27	15.0306
2714.61	15.851
2715.96	16.8769
2717.3	16.8913
2718.64	16.6999
2719.99	17.2309
2721.33	17.2987
2722.67	17.4739
2724.01	17.8714
2725.36	17.9528
2726.7	17.8422
2728.04	17.4186
2729.38	16.7557
2730.72	16.8981
2732.06	16.5577
2733.41	16.5314
2734.75	16.0013
2736.09	15.6517
2737.43	15.1792
2738.77	14.7756
2740.11	14.6077
2741.44	14.7659
2742.78	14.1718
2744.12	14.2636
2745.46	14.1528
2746.8	13.0715
2748.14	12.0772
2749.48	11.6645
2750.81	11.5389
2752.15	10.5583
2753.49	9.66687
2754.83	9.47472
2756.16	9.26586
2757.5	9.65112
2758.84	9.56687
2760.17	8.66528
2761.51	8.29622
2762.84	8.31836
2764.18	8.20006
2765.51	7.60972
2766.85	7.62557
2768.18	7.08963
2769.52	6.42567
2770.85	6.44249
2772.19	6.07337
2773.52	5.6878
2774.85	5.26454
2776.19	5.08916
2777.52	4.62046
2778.85	3.98996
2780.18	3.42454
2781.52	2.80925
2782.85	2.51388
2784.18	1.98048
2785.51	1.81257
2786.84	1.46288
2788.17	1.0953
2789.51	0.986319
2790.84	0.649646
2792.17	0.233964
2793.5	-0.0391913
2794.83	-0.333956
2796.16	-0.486734
2797.48	-0.532764
2798.81	-0.808742
2800.14	-0.631017
2801.47	-1.00694
2802.8	-1.06403
2804.13	-0.810591
2805.46	-1.17225
2806.79	-1.91174
2808.11	-2.2457
2809.44	-3.04847
2810.77	-3.03564
2812.09	-3.83216
2813.42	-2.6332
2814.75	-1.16901
2816.07	0.606707
2817.4	3.2814
2818.73	5.83863
2820.05	9.62282
2821.38	13.6448
2822.7	17.7879
2824.03	22.4709
2825.35	26.7959
2826.67	32.1458
2828	37.403
2829.32	42.9656
2830.65	48.3919
2831.97	53.8803
2833.29	60.3638
2834.62	65.8949
2835.94	71.0998
2837.26	77.5844
2838.58	83.1988
2839.9	88.4745
2841.23	93.8473
2842.55	98.5909
2843.87	102.889
2845.19	107.97
2846.51	113.104
2847.83	118.577
2849.15	124.478
2850.47	130.832
2851.79	138.286
2853.11	145.751
2854.43	153.566
2855.75	160.623
2857.07	166.941
2858.39	173.559
2859.71	179.89
2861.02	185.311
2862.34	190.095
2863.66	194.816
2864.98	198.876
2866.3	202.875
2867.61	206.381
2868.93	209.166
2870.25	211.972
2871.56	214.492
2872.88	216.579
2874.19	219.038
2875.51	221.165
2876.83	223.133
2878.14	225.566
2879.46	228.071
2880.77	229.517
2882.09	231.047
2883.4	232.5
2884.71	233.719
2886.03	235.658
2887.34	236.979
2888.65	237.195
2889.97	238.014
2891.28	238.904
2892.59	239.814
2893.91	239.902
2895.22	239.712
2896.53	239.663
2897.84	239.683
2899.15	240.099
2900.46	239.658
2901.78	240.341
2903.09	241.484
2904.4	241.789
2905.71	242.422
2907.02	243.733
2908.33	245.47
2909.64	248.965
2910.95	252.434
2912.26	256.892
2913.57	261.939
2914.87	267.059
2916.18	273.128
2917.49	278.519
2918.8	282.403
2920.11	286.752
2921.42	290.358
2922.72	293.777
2924.03	297.23
2925.34	299.707
2926.64	302.151
2927.95	304.576
2929.26	306.215
2930.56	307.583
2931.87	308.92
2933.17	309.408
2934.48	309.492
2935.78	309.202
2937.09	307.981
2938.39	305.262
2939.7	303.464
2941	300.787
2942.31	297.837
2943.61	294.291
2944.91	289.662
2946.22	285.313
2947.52	280.993
2948.82	275.793
2950.13	270.788
2951.43	265.504
2952.73	258.967
2954.03	252.327
2955.33	246.641
2956.64	240.234
2957.94	234.059
2959.24	227.653
2960.54	220.505
2961.84	214.1
2963.14	208.189
2964.44	202.562
2965.74	196.246
2967.04	190.479
2968.34	184.417
2969.64	178.647
2970.94	172.447
2972.24	166.735
2973.53	161.234
2974.83	155.651
2976.13	149.333
2977.43	143.974
2978.73	138.013
2980.02	132.346
2981.32	126.924
2982.62	120.787
2983.91	115.573
2985.21	110.806
2986.51	105.439
2987.8	100.094
2989.1	94.916
2990.4	89.9825
2991.69	85.2948
2992.99	80.2984
2994.28	75.3651
2995.57	70.9446
2996.87	66.6816
2998.16	62.4128
2999.46	58.0884
3000.75	54.0837
3002.05	50.0331
3003.34	46.006
3004.63	42.7301
3005.92	40.0661
3007.22	37.1601
3008.51	34.2145
3009.8	30.9052
3011.09	28.5237
3012.39	26.332
3013.68	23.4264
3014.97	21.2229
3016.26	18.7152
3017.55	16.6989
3018.84	14.9792
3020.13	13.6425
3021.42	12.6289
3022.71	11.39
3024	9.93385
3025.29	8.62885
3026.58	8.69605
3027.87	7.974
3029.16	7.05512
3030.45	6.6389
3031.73	6.35184
3033.02	5.98995
3034.31	5.84252
3035.6	5.77524
3036.89	5.54351
3038.17	5.6061
3039.46	5.60516
3040.75	6.26353
3042.03	6.72338
3043.32	6.80599
3044.61	7.86745
3045.89	7.30482
3047.18	7.56099
3048.46	8.10899
3049.75	7.96626
3051.03	8.41215
3052.32	7.98699
3053.6	8.1843
3054.89	8.67067
3056.17	8.44214
3057.45	8.60762
3058.74	8.11935
3060.02	8.37906
3061.31	8.41119
3062.59	8.22079
3063.87	7.87334
3065.15	7.93161
3066.44	7.04121
3067.72	7.0169
3069	6.80706
3070.28	6.61416
3071.56	5.62001
3072.84	5.42479
3074.13	4.64311
3075.41	4.28778
3076.69	3.77559
3077.97	3.05024
3079.25	2.69704
3080.53	2.10469
3081.81	2.28157
3083.09	1.58878
3084.37	1.05573
3085.64	0.366677
3086.92	0.181122
3088.2	0.617712
3089.48	0.621292
3090.76	0.667255
3092.04	0.124438
3093.31	0.696196
3094.59	1.47349
3095.87	1.586
3097.14	1.75245
3098.42	2.75352
3099.7	3.1138
3100.97	3.54578
3102.25	4.50915
3103.53	4.78212
3104.8	5.73118
3106.08	6.22844
3107.35	6.61087
3108.63	7.36237
3109.9	7.77771
3111.18	9.01819
3112.45	10.0395
3113.73	11.501
3115	12.6482
3116.27	13.2204
3117.55	14.0209
3118.82	14.8649
3120.09	15.4415
3121.37	16.4907
3122.64	17.0846
3123.91	18.4817
3125.18	18.8784
3126.45	19.4521
3127.73	20.1912
3129	20.9781
3130.27	21.3875
3131.54	22.6352
3132.81	23.1259
3134.08	24.3507
3135.35	25.3788
3136.62	26.4646
3137.89	26.3872
3139.16	27.0736
3140.43	28.2013
3141.7	28.8345
3142.97	29.5422
3144.24	30.2543
3145.51	31.039
3146.78	32.2226
3148.04	33.1473
3149.31	33.508
