#Acq. time (s)=	45
#Accumulations=	2
#Range (cm-¹)=	200...3150
#Windows=	2
#Auto scanning=	Off
#Autofocus=	Off
#Macrospot=	Off
#AutoExposure=	Off
#Spike filter=	Multiple accum.
#Delay time (s)=	0
#Binning=	1
#Readout mode=	Signal
#DeNoise=	Off
#ICS correction=	On
#Dark correction=	Off
#Inst. Process=	Off
#Detector Gain=	Best Dynamic Range
#Detector ADC=	20 kHz       
#Detector temperature (°C)=	-69.85
#Instrument=	LabRAM HR Evol
#Detector=	Synapse
#Objective=	x100
#Grating=	600 gr/mm
#ND Filter=	100%
#Laser (nm)=	532 
#Hole=	100.021
#Range=	Auto
#Laser Pol.=	No
#Raman. Pol.=	No
#Laser Pol. (°)=	-0.0007625
#Raman Pol. (°)=	89.9995
#Collection=	Microscope
#StageXY=	Marzhauser
#StageZ=	Marzhauser
#X (µm)=	-1108.8
#Y (µm)=	602.3
#Z (µm)=	583.8
#Full time(mm:ss)=	3:18
#Project=	
#Sample=	
#Site=	
#Title=	Mb_40_y_35_2x_45s_532 nm_x100_100%_600 gr_mm
#Remark=	
#Date=	19.07.2022 12:17
#Acquired=	19.07.2022 12:17:01
#Base:Fit=	10.08.2022 10:52:48
#Base:Sub=	10.08.2022 10:52:53
#Filter:Polynom=	16.08.2022 10:09:04
#AxisType[0]=Intens
#AxisUnit[0]=Cnt
#AxisType[1]=Spectr
#AxisUnit[1]=1/cm
200.423	11.0747
202.238	11.1546
204.052	11.4765
205.868	11.4023
207.682	11.1383
209.495	10.7915
211.308	10.0935
213.12	10.3351
214.935	9.81284
216.746	9.58872
218.558	8.66921
220.369	7.62299
222.18	6.38013
223.992	5.66648
225.802	4.47846
227.612	3.50669
229.421	3.13579
231.23	3.38385
233.039	3.42437
234.849	3.04472
236.657	2.90432
238.465	3.67471
240.272	3.25567
242.079	3.44031
243.885	3.85277
245.691	4.59574
247.497	4.93378
249.305	5.34299
251.11	6.00674
252.915	6.43445
254.719	6.54031
256.523	5.37386
258.327	5.07464
260.13	6.26115
261.933	7.84875
263.736	8.99719
265.538	10.7732
267.34	11.3793
269.141	11.3031
270.943	12.2404
272.744	12.8341
274.544	12.9393
276.344	13.1949
278.144	13.8199
279.944	14.4684
281.743	15.1235
283.542	15.6918
285.34	15.6842
287.138	16.5113
288.936	16.5679
290.733	16.3229
292.53	16.8066
294.327	16.94
296.123	16.6646
297.919	16.4382
299.715	16.5873
301.508	16.7433
303.303	16.4646
305.098	15.4927
306.892	14.5847
308.686	13.3062
310.479	12.6859
312.273	12.2224
314.065	12.0364
315.858	11.2065
317.648	12.2397
319.44	12.753
321.231	12.6126
323.022	12.2119
324.813	11.2518
326.604	11.0225
328.392	10.7717
330.181	9.87434
331.971	9.40545
333.76	9.0232
335.548	9.18066
337.335	8.89455
339.123	8.79994
340.91	7.89503
342.698	6.8636
344.483	6.30222
346.269	6.63961
348.055	6.79506
349.841	6.67969
351.625	5.98619
353.41	5.66197
355.195	4.63845
356.977	4.31457
358.762	5.03516
360.545	6.41332
362.329	6.39468
364.11	6.0544
365.893	5.09782
367.675	5.58836
369.455	5.904
371.237	5.9178
373.017	5.76222
374.798	5.68537
376.578	6.44993
378.357	6.06548
380.137	6.09304
381.917	6.55139
383.694	6.15641
385.473	5.8214
387.249	6.70229
389.028	6.78449
390.806	6.32456
392.581	5.7699
394.359	5.46487
396.134	5.40097
397.91	6.07474
399.684	6.59255
401.46	7.01627
403.234	7.6958
405.009	8.14256
406.784	8.48099
408.557	7.59789
410.331	7.46569
412.103	7.72167
413.876	6.52893
415.647	7.22064
417.42	7.54638
419.191	7.41578
420.961	7.48266
422.733	8.1771
424.502	8.77805
426.273	8.99141
428.042	8.63807
429.812	8.03264
431.58	8.08429
433.35	8.44308
435.118	7.56265
436.885	6.75979
438.653	6.25329
440.42	6.73693
442.188	7.42878
443.954	7.99867
445.719	8.42685
447.486	7.79485
449.251	7.36541
451.015	6.74766
452.781	6.60116
454.545	6.61378
456.308	7.67797
458.073	7.68558
459.836	7.11488
461.598	7.04807
463.362	7.18302
465.124	8.00453
466.885	8.02492
468.648	9.06789
470.408	10.0683
472.169	9.76255
473.929	9.90699
475.69	9.95331
477.45	10.0821
479.208	9.95286
480.967	9.7258
482.727	10.0897
484.485	10.9327
486.243	11.3623
488	11.6552
489.759	12.5848
491.515	12.8509
493.272	13.3435
495.028	13.9533
496.783	14.0103
498.54	15.3336
500.295	15.5492
502.05	15.2839
503.804	16.2173
505.558	16.0047
507.311	15.6621
509.064	15.6076
510.819	16.3942
512.572	16.4997
514.324	16.663
516.076	16.5748
517.827	16.3548
519.578	16.1833
521.329	16.168
523.08	15.1484
524.83	16.1379
526.58	16.0342
528.329	16.3352
530.08	15.9748
531.829	16.0645
533.578	15.3382
535.326	14.8065
537.074	14.3184
538.821	13.8645
540.568	13.9112
542.315	12.9776
544.062	12.5177
545.808	12.1356
547.554	12.3518
549.299	12.2232
551.044	12.5778
552.789	12.5116
554.533	12.0133
556.278	11.6601
558.019	11.1833
559.763	9.8209
561.506	8.97728
563.249	8.6434
564.991	8.05112
566.733	6.79212
568.475	6.28576
570.217	6.70547
571.958	7.0165
573.699	7.10814
575.439	6.94286
577.177	6.30805
578.917	5.01277
580.656	5.41318
582.396	4.21072
584.134	3.12001
585.873	3.4395
587.609	1.91109
589.347	1.42686
591.084	1.76453
592.822	1.21938
594.558	1.30762
596.295	1.6976
598.029	2.23492
599.765	1.59608
601.5	1.95215
603.235	2.1737
604.968	1.67971
606.703	2.1674
608.437	1.9109
610.171	2.20185
611.902	3.10366
613.635	4.15647
615.368	4.98748
617.099	5.45054
618.831	5.95793
620.563	6.32863
622.294	6.7305
624.024	7.31526
625.755	7.98606
627.485	8.8468
629.213	9.04552
630.943	10.2428
632.673	11.2153
634.4	11.1478
636.129	10.6574
637.855	11.1249
639.584	11.4477
641.312	12.0358
643.037	12.5471
644.764	13.226
646.491	12.4757
648.216	12.8355
649.942	13.681
651.666	14.5638
653.392	16.0891
655.115	17.1792
656.84	17.6136
658.563	17.5864
660.287	17.6901
662.011	17.5718
663.732	17.0564
665.456	17.4864
667.177	17.8822
668.899	18.1063
670.62	18.9594
672.342	19.6737
674.061	20.4839
675.781	21.6067
677.502	22.8931
679.22	23.3512
680.941	25.0774
682.659	26.3676
684.379	27.2868
686.096	28.7954
687.815	29.7807
689.532	31.1681
691.248	32.1625
692.966	33.6718
694.682	34.9789
696.4	37.4426
698.115	38.4313
699.829	40.4996
701.546	41.5817
703.26	42.1487
704.974	43.3418
706.689	43.8551
708.402	43.1714
710.115	43.1159
711.83	42.993
713.542	43.5372
715.254	42.937
716.967	42.9079
718.679	41.6217
720.39	40.4668
722.102	40.7595
723.812	40.8684
725.522	41.0178
727.232	40.4482
728.943	40.7947
730.652	41.4737
732.361	41.8488
734.069	42.9192
735.779	42.9595
737.487	43.6407
739.194	43.2094
740.901	42.8745
742.608	42.9083
744.316	44.1667
746.022	44.8491
747.728	45.9965
749.433	47.2409
751.138	48.9881
752.843	49.8743
754.549	51.5554
756.254	52.9038
757.957	54.4325
759.661	55.6601
761.364	56.8501
763.067	58.1256
764.769	59.2974
766.471	60.7479
768.175	61.9772
769.877	62.5789
771.578	63.9639
773.279	65.1542
774.98	67.1965
776.68	69.0381
778.38	70.5562
780.079	72.4629
781.779	73.7539
783.478	73.605
785.176	74.6274
786.875	75.1893
788.573	74.6507
790.27	75.3801
791.968	75.1343
793.665	75.1685
795.361	76.7093
797.058	77.3121
798.754	77.6002
800.45	77.442
802.145	77.4212
803.84	76.7751
805.535	76.9127
807.23	77.4512
808.922	76.7628
810.616	77.1412
812.309	77.3916
814.002	78.0043
815.695	77.4711
817.388	77.4831
819.08	77.4411
820.772	77.0591
822.464	77.6842
824.153	77.4245
825.844	77.8024
827.535	77.8409
829.225	78.1799
830.915	77.9053
832.605	77.6089
834.292	77.0077
835.981	75.658
837.67	74.001
839.359	73.4485
841.047	72.2683
842.732	69.8505
844.42	68.0352
846.107	66.0313
847.794	64.7137
849.479	63.8295
851.165	62.9112
852.851	61.5806
854.534	60.1804
856.22	59.3281
857.905	58.7289
859.589	57.6734
861.272	56.6111
862.956	55.2334
864.639	54.0745
866.321	52.354
868.004	50.1847
869.687	50.2792
871.367	49.5609
873.049	48.5838
874.731	48.836
876.41	47.9585
878.092	47.5146
879.771	47.8234
881.451	46.9784
883.131	46.5754
884.809	46.8017
886.489	46.5758
888.166	47.1737
889.845	46.3812
891.522	47.184
893.2	48.0649
894.878	48.9223
896.554	49.6068
898.231	49.3164
899.906	50.0183
901.583	50.5494
903.258	50.6029
904.934	50.5676
906.608	51.07
908.283	50.396
909.956	50.2756
911.631	50.1964
913.304	50.0755
914.976	49.3901
916.65	48.9178
918.322	48.59
919.995	46.919
921.666	45.6974
923.339	44.9148
925.009	44.5936
926.679	44.0799
928.351	43.7752
930.021	43.5113
931.692	43.671
933.361	42.7333
935.029	42.1983
936.699	41.6501
938.367	40.919
940.035	39.9103
941.704	39.319
943.371	37.8485
945.038	37.2005
946.706	36.4827
948.372	35.573
950.038	35.1719
951.705	34.4357
953.37	34.6499
955.035	34.209
956.7	34.7153
958.366	34.4459
960.03	33.7487
961.693	33.2817
963.357	33.5957
965.021	33.3734
966.684	32.9455
968.346	33.9257
970.008	33.0988
971.67	32.7122
973.334	32.0171
974.995	33.4463
976.655	33.3813
978.316	32.174
979.976	31.2466
981.638	30.0959
983.297	30.2028
984.957	28.4256
986.616	27.2486
988.274	26.4852
989.932	25.9666
991.59	25.4794
993.248	25.0275
994.907	24.1328
996.565	24.1609
998.221	22.6135
999.878	21.6502
1001.53	20.1593
1003.19	19.3039
1004.85	18.8877
1006.5	20.5016
1008.16	22.1788
1009.81	24.0978
1011.46	27.0068
1013.12	30.9217
1014.77	33.7038
1016.43	36.2987
1018.08	40.5281
1019.73	44.5765
1021.38	47.4981
1023.04	51.3487
1024.69	55.3601
1026.34	58.7413
1027.99	61.6587
1029.64	64.2003
1031.29	66.7641
1032.94	70.1524
1034.59	72.2524
1036.24	73.1836
1037.89	74.9981
1039.54	75.5038
1041.19	76.0861
1042.84	77.2397
1044.48	77.4028
1046.13	77.7168
1047.78	76.634
1049.42	76.1986
1051.07	76.0468
1052.72	73.7794
1054.36	72.5702
1056.01	71.6753
1057.66	69.0758
1059.3	66.0716
1060.94	62.3211
1062.59	58.3276
1064.23	54.2019
1065.88	51.0197
1067.52	46.677
1069.16	43.9548
1070.81	40.3901
1072.45	36.2592
1074.09	31.848
1075.73	27.9384
1077.38	23.8158
1079.02	20.1971
1080.66	15.4519
1082.3	12.4303
1083.94	9.9886
1085.58	9.24656
1087.22	8.40763
1088.86	8.83844
1090.5	9.04699
1092.13	9.8605
1093.77	10.1396
1095.41	10.0275
1097.05	9.58203
1098.68	10.0228
1100.32	10.8485
1101.96	11.1863
1103.6	11.2006
1105.23	11.9181
1106.87	11.7884
1108.5	11.6257
1110.14	11.6342
1111.77	13.0108
1113.41	13.4252
1115.04	13.0692
1116.67	12.6418
1118.31	12.6833
1119.94	13.9679
1121.58	13.8659
1123.21	14.3313
1124.84	14.2485
1126.47	14.2118
1128.1	14.2317
1129.73	13.8324
1131.37	14.3335
1133	13.6403
1134.63	12.5392
1136.26	13.3793
1137.89	13.1341
1139.52	12.5745
1141.14	12.8688
1142.77	11.9984
1144.4	11.7641
1146.03	12.1037
1147.66	13.0612
1149.29	12.4719
1150.91	12.3504
1152.54	11.4445
1154.17	9.91979
1155.79	10.0097
1157.42	9.96048
1159.04	9.12895
1160.67	8.63573
1162.3	7.83292
1163.92	7.18878
1165.55	7.14555
1167.17	6.55424
1168.79	5.66914
1170.42	5.14969
1172.04	5.19333
1173.66	5.05346
1175.28	4.35176
1176.91	3.38282
1178.53	2.7078
1180.15	3.0215
1181.77	2.9522
1183.39	3.8143
1185.01	4.45138
1186.63	5.34319
1188.25	4.54738
1189.87	4.60358
1191.49	4.60182
1193.11	5.08105
1194.73	3.4207
1196.35	3.8181
1197.97	4.45513
1199.59	4.54655
1201.2	4.64391
1202.82	4.28813
1204.44	4.51425
1206.05	4.66402
1207.67	5.41398
1209.29	5.56672
1210.9	6.55314
1212.52	7.70602
1214.13	9.01435
1215.75	10.266
1217.36	11.2804
1218.97	11.8777
1220.59	13.1371
1222.2	13.564
1223.82	15.196
1225.43	16.0223
1227.04	16.5047
1228.65	17.3549
1230.26	18.1355
1231.88	18.9335
1233.49	19.5735
1235.1	20.5188
1236.71	22.5218
1238.32	23.0136
1239.93	23.2595
1241.54	23.4025
1243.15	23.8653
1244.76	24.513
1246.37	25.4852
1247.97	25.6274
1249.58	26.6101
1251.19	27.6352
1252.8	28.4924
1254.41	28.6482
1256.01	28.9931
1257.62	30.3817
1259.23	31.2135
1260.83	32.3251
1262.44	32.4524
1264.04	32.945
1265.65	32.928
1267.25	32.5697
1268.86	32.4329
1270.46	33.5449
1272.07	34.5114
1273.67	34.391
1275.27	33.0408
1276.88	34.1135
1278.48	34.6148
1280.08	35.5153
1281.68	35.4024
1283.28	35.2876
1284.89	36.1479
1286.49	37.1912
1288.09	38.516
1289.69	39.6204
1291.29	40.0872
1292.89	40.2621
1294.49	40.7088
1296.09	40.2691
1297.69	40.1223
1299.29	41.3091
1300.88	41.1432
1302.48	41.4185
1304.08	42.1802
1305.68	41.6715
1307.27	42.1922
1308.87	43.1986
1310.47	42.9418
1312.06	43.3831
1313.66	43.0887
1315.25	43.5387
1316.85	43.0349
1318.44	44.0054
1320.04	44.8437
1321.63	45.721
1323.23	46.6019
1324.82	45.9995
1326.41	45.5019
1328.01	45.8421
1329.6	45.7809
1331.19	45.4015
1332.78	44.7396
1334.38	44.183
1335.97	43.532
1337.56	42.7156
1339.15	41.5779
1340.74	40.8359
1342.33	39.8979
1343.92	38.1566
1345.51	36.7847
1347.1	36.3605
1348.69	35.9925
1350.28	34.6023
1351.87	33.7047
1353.46	31.8629
1355.04	31.4531
1356.63	31.7827
1358.22	31.4954
1359.81	29.9402
1361.39	28.5037
1362.98	27.871
1364.57	27.5988
1366.15	27.0558
1367.74	26.188
1369.32	24.7995
1370.91	23.1049
1372.49	22.4455
1374.07	21.7894
1375.66	20.5753
1377.24	20.6491
1378.83	20.0638
1380.41	20.7784
1381.99	20.9941
1383.57	21.3156
1385.16	21.7708
1386.74	22.0628
1388.32	22.9918
1389.9	22.4279
1391.48	22.8591
1393.06	22.5968
1394.64	23.8167
1396.22	24.1432
1397.8	25.1812
1399.38	24.8525
1400.96	25.478
1402.54	26.0598
1404.12	26.052
1405.7	27.627
1407.28	29.3021
1408.85	28.767
1410.43	29.7535
1412.01	29.8036
1413.58	30.2091
1415.16	31.1095
1416.74	31.8226
1418.31	32.7641
1419.89	33.2595
1421.46	34.2612
1423.04	34.8406
1424.61	36.9091
1426.19	38.5518
1427.76	39.6028
1429.33	40.3919
1430.91	41.4726
1432.48	42.487
1434.05	43.811
1435.63	44.5172
1437.2	45.4261
1438.77	45.3845
1440.34	46.4919
1441.91	46.3993
1443.49	46.5829
1445.05	46.6701
1446.63	46.1199
1448.2	45.6878
1449.77	45.0527
1451.34	45.2916
1452.91	45.604
1454.47	45.728
1456.04	46.5086
1457.61	46.0601
1459.18	46.4508
1460.75	45.1274
1462.31	44.9581
1463.88	44.3999
1465.45	43.5901
1467.01	43.7441
1468.58	41.7616
1470.15	41.1512
1471.71	41.2462
1473.28	41.1878
1474.84	40.2374
1476.41	40.4552
1477.97	40.4882
1479.54	40.2672
1481.1	39.334
1482.66	38.8863
1484.23	37.553
1485.79	36.5421
1487.35	34.7997
1488.91	34.0838
1490.48	32.8832
1492.04	32.4631
1493.6	32.2647
1495.16	31.1393
1496.72	30.9936
1498.28	29.7398
1499.84	29.3376
1501.4	28.7261
1502.96	28.3554
1504.52	27.1971
1506.08	26.5916
1507.64	25.7155
1509.2	25.6835
1510.76	25.1571
1512.31	24.614
1513.87	24.7209
1515.43	24.1965
1516.99	22.647
1518.54	21.9378
1520.1	21.0188
1521.66	21.3347
1523.21	20.6692
1524.77	19.6425
1526.32	19.401
1527.88	19.0746
1529.43	18.8565
1530.99	18.6819
1532.54	18.9642
1534.09	19.6465
1535.65	19.294
1537.2	19.6826
1538.75	19.9318
1540.31	20.2173
1541.86	20.5585
1543.41	20.9172
1544.96	21.3875
1546.51	21.2892
1548.06	21.6224
1549.62	22.3036
1551.17	21.841
1552.72	22.0632
1554.27	22.7071
1555.82	22.5871
1557.36	22.4153
1558.91	22.7746
1560.46	23.5654
1562.01	22.4523
1563.56	23.2368
1565.11	23.2274
1566.66	23.4272
1568.2	24.1988
1569.75	25.1969
1571.3	25.6863
1572.84	26.03
1574.39	26.7005
1575.93	26.4283
1577.48	27.5368
1579.02	28.3688
1580.57	28.8051
1582.11	29.3113
1583.66	30.5725
1585.2	31.4607
1586.75	32.7727
1588.29	32.8567
1589.83	33.0341
1591.38	34.1957
1592.92	33.8
1594.46	33.6082
1596	34.2303
1597.54	34.8841
1599.09	34.5417
1600.63	33.7123
1602.17	33.6066
1603.71	33.8165
1605.25	33.8664
1606.79	33.9181
1608.33	35.3779
1609.87	35.2189
1611.41	35.459
1612.95	35.0074
1614.48	34.6344
1616.02	34.5982
1617.56	34.4846
1619.1	34.6495
1620.64	34.5994
1622.17	34.7055
1623.71	34.4137
1625.25	34.2936
1626.78	34.8031
1628.32	35.0504
1629.86	36.2014
1631.39	37.1063
1632.92	37.8238
1634.46	38.0766
1635.99	39.281
1637.53	40.4304
1639.06	41.0809
1640.59	42.4348
1642.13	43.0134
1643.66	43.747
1645.19	44.9909
1646.73	45.0706
1648.26	45.7892
1649.79	46.499
1651.32	46.9439
1652.85	47.0938
1654.38	48.3868
1655.92	49.2215
1657.45	49.3151
1658.98	49.0852
1660.51	49.756
1662.04	48.7044
1663.57	47.7379
1665.09	46.8866
1666.62	46.5833
1668.15	46.6856
1669.68	45.016
1671.21	44.2987
1672.73	43.2491
1674.26	42.2204
1675.79	40.6261
1677.31	39.1167
1678.84	37.6493
1680.37	35.7539
1681.89	34.4829
1683.42	33.1447
1684.94	31.4567
1686.47	28.3211
1687.99	26.9092
1689.52	25.6771
1691.04	24.107
1692.57	23.3229
1694.09	22.2781
1695.61	20.7003
1697.14	19.1114
1698.66	17.6599
1700.18	16.6732
1701.7	15.9257
1703.22	15.0636
1704.75	14.8609
1706.27	13.9314
1707.79	12.8977
1709.31	11.4157
1710.83	10.4942
1712.35	10.0248
1713.87	9.33368
1715.39	8.16249
1716.91	7.12411
1718.43	6.66595
1719.95	6.77005
1721.46	7.19625
1722.98	6.85436
1724.5	6.91811
1726.02	7.05041
1727.53	6.59089
1729.05	6.15344
1730.57	6.73361
1732.08	6.80941
1733.6	7.02212
1735.12	7.19517
1736.63	7.84217
1738.15	7.37276
1739.66	8.0728
1741.18	9.02609
1742.69	9.12164
1744.21	9.23826
1745.72	8.73463
1747.23	9.09748
1748.74	8.4774
1750.26	7.99667
1751.77	7.46455
1753.28	6.77242
1754.8	6.41809
1756.31	6.3942
1757.82	6.89153
1759.33	6.50626
1760.84	5.91486
1762.35	5.381
1763.86	5.9081
1765.37	6.75147
1766.88	6.08762
1768.39	5.63098
1769.9	5.25613
1771.41	4.30226
1772.92	3.98673
1774.43	3.39467
1775.93	3.21884
1777.44	2.67105
1778.95	2.39558
1780.46	2.09877
1781.96	1.02721
1783.47	0.648079
1784.98	0.338124
1786.48	0.770229
1787.99	0.659476
1789.49	1.29693
1791	1.46452
1792.5	2.34382
1794.01	2.10505
1795.51	2.50398
1797.02	2.35625
1798.52	2.18788
1800.03	2.44254
1801.53	3.44727
1803.03	3.61416
1804.53	4.46504
1806.04	5.44405
1807.54	5.72888
1809.04	6.23651
1810.54	6.66571
1812.04	7.45621
1813.54	7.18002
1815.05	7.11697
1816.55	7.18139
1818.05	6.89589
1819.55	6.67743
1821.05	5.92982
1822.55	5.60558
1824.05	5.0178
1825.54	5.00385
1827.04	5.2633
1828.54	4.8824
1830.04	4.9357
1831.54	5.38426
1833.03	5.44199
1834.53	5.31261
1836.03	4.94372
1837.52	4.9878
1839.02	5.14463
1840.52	5.01569
1842.01	4.37448
1843.51	4.39164
1845	4.53775
1846.5	4.37093
1847.99	4.13829
1849.49	3.71398
1850.98	3.87478
1852.47	3.61544
1853.97	3.41579
1855.46	3.16646
1856.95	2.68288
1858.45	2.78631
1859.94	3.6278
1861.43	3.76475
1862.92	3.78038
1864.41	3.88478
1865.91	3.47228
1867.4	3.12558
1868.89	2.66932
1870.38	3.47372
1871.87	3.63873
1873.36	4.07281
1874.85	4.51717
1876.34	5.37613
1877.83	5.43792
1879.31	5.11277
1880.8	4.64147
1882.29	4.516
1882.56	4.48173
1884.05	4.52564
1885.54	4.53545
1887.04	3.41402
1888.53	3.35368
1890.03	3.51357
1891.52	3.24468
1893.01	2.98389
1894.5	3.09508
1895.99	3.06136
1897.49	3.59091
1898.98	3.60229
1900.47	3.60676
1901.96	3.33681
1903.45	3.89677
1904.94	4.37623
1906.43	4.13408
1907.92	4.31436
1909.41	4.79363
1910.9	5.33044
1912.39	5.38506
1913.88	5.91706
1915.37	6.34899
1916.86	6.72122
1918.35	6.67304
1919.84	6.39821
1921.32	6.03886
1922.81	6.40141
1924.3	6.72367
1925.78	6.71421
1927.27	6.77013
1928.76	6.98833
1930.24	7.22427
1931.73	7.79795
1933.21	7.82323
1934.7	7.40415
1936.18	7.22525
1937.67	7.49952
1939.15	7.42065
1940.64	7.38746
1942.12	7.5575
1943.6	7.76001
1945.09	7.48537
1946.57	7.02197
1948.05	7.42868
1949.54	7.00562
1951.02	6.01437
1952.5	5.72753
1953.98	5.88066
1955.46	5.61
1956.94	5.72249
1958.42	5.24568
1959.91	5.22042
1961.39	4.32641
1962.87	4.48101
1964.34	4.83928
1965.82	4.67158
1967.3	4.81236
1968.78	5.08923
1970.26	4.79977
1971.74	5.21476
1973.22	5.40552
1974.7	5.69853
1976.17	5.65335
1977.65	6.25683
1979.13	5.92792
1980.6	6.06827
1982.08	6.52918
1983.56	6.56356
1985.03	6.38811
1986.51	6.30622
1987.98	6.65634
1989.46	6.00494
1990.93	5.65386
1992.41	5.39018
1993.88	5.98946
1995.36	6.17157
1996.83	6.45271
1998.3	5.69511
1999.78	5.45535
2001.25	5.46715
2002.72	5.64554
2004.2	5.92507
2005.67	6.16217
2007.14	6.52167
2008.61	6.85058
2010.08	6.86101
2011.55	7.12907
2013.02	6.88958
2014.49	6.40445
2015.97	6.47719
2017.43	5.92503
2018.9	5.97783
2020.37	6.4045
2021.84	6.78234
2023.31	6.56783
2024.78	6.52018
2026.25	7.25498
2027.72	7.15726
2029.19	6.91499
2030.65	7.48062
2032.12	6.98029
2033.59	7.85379
2035.05	8.11261
2036.52	8.55044
2037.98	8.42593
2039.45	8.31906
2040.92	8.58026
2042.38	8.661
2043.85	8.8406
2045.31	9.75189
2046.78	9.76479
2048.24	9.36312
2049.71	8.61268
2051.17	9.0399
2052.63	9.02369
2054.1	9.80218
2055.56	10.4579
2057.02	10.0457
2058.48	10.5015
2059.95	10.9362
2061.41	11.3452
2062.87	11.512
2064.33	11.8033
2065.79	12.0731
2067.25	13.3563
2068.71	13.301
2070.17	13.9981
2071.63	14.8249
2073.09	15.8681
2074.55	17.015
2076.01	17.0757
2077.47	17.6378
2078.93	18.7682
2080.39	19.6088
2081.85	20.2486
2083.3	21.2184
2084.76	21.8069
2086.22	23.0964
2087.68	23.7822
2089.13	25.2427
2090.59	25.811
2092.05	26.7616
2093.5	27.5602
2094.96	27.7338
2096.41	28.5149
2097.87	28.5824
2099.32	29.3913
2100.78	29.4899
2102.23	30.2239
2103.69	30.8152
2105.14	30.974
2106.59	32.0771
2108.05	32.3565
2109.5	32.7567
2110.95	33.2774
2112.41	34.0326
2113.86	35.2888
2115.31	35.5391
2116.76	36.15
2118.21	36.5676
2119.67	36.5064
2121.12	37.014
2122.57	38.1058
2124.02	39.2573
2125.47	40.6213
2126.92	41.4305
2128.37	42.3677
2129.82	42.8251
2131.27	44.4765
2132.71	45.7977
2134.16	46.6794
2135.61	47.7319
2137.06	49.3095
2138.51	50.5445
2139.95	52.4894
2141.4	53.5643
2142.85	55.0603
2144.29	56.4713
2145.74	57.4464
2147.19	59.148
2148.63	59.9839
2150.08	61.9982
2151.52	63.7604
2152.97	64.8301
2154.42	66.3627
2155.86	67.7416
2157.3	68.9353
2158.75	70.2868
2160.19	70.7802
2161.64	71.5391
2163.08	72.4283
2164.52	73.2268
2165.96	74.3297
2167.41	74.7583
2168.85	75.1557
2170.29	75.0384
2171.73	75.9253
2173.17	76.3129
2174.61	76.2668
2176.06	76.3305
2177.5	76.0919
2178.94	75.8566
2180.38	75.5945
2181.82	75.198
2183.26	74.0306
2184.7	73.2792
2186.14	72.1565
2187.57	70.3296
2189.01	69.8236
2190.45	68.7875
2191.89	67.7719
2193.33	66.4459
2194.76	66.0679
2196.2	65.0457
2197.64	64.5843
2199.08	62.6614
2200.51	61.442
2201.95	59.9544
2203.38	58.5483
2204.82	56.9484
2206.25	54.944
2207.69	53.9809
2209.12	52.4339
2210.56	49.9532
2211.99	48.3037
2213.43	46.8266
2214.86	45.5796
2216.3	44.1555
2217.73	42.6255
2219.16	41.5604
2220.59	40.0361
2222.03	38.7016
2223.46	37.7902
2224.89	37.0958
2226.32	35.943
2227.75	35.2111
2229.19	34.0374
2230.62	33.3036
2232.05	32.4272
2233.48	31.6568
2234.91	30.8537
2236.34	29.9743
2237.77	28.3789
2239.2	27.3613
2240.63	26.3002
2242.06	25.5752
2243.48	25.5692
2244.91	24.7731
2246.34	23.4342
2247.77	23.0449
2249.2	22.3282
2250.62	21.5775
2252.05	20.7888
2253.48	19.1726
2254.9	18.2584
2256.33	17.661
2257.76	16.4259
2259.18	15.7858
2260.61	15.7925
2262.03	14.8456
2263.46	14.1275
2264.88	14.0224
2266.31	13.6592
2267.73	12.9565
2269.16	12.2855
2270.58	11.6647
2272	11.2508
2273.43	10.2962
2274.85	9.56175
2276.27	8.96532
2277.69	8.40333
2279.12	8.20581
2280.54	7.97782
2281.96	7.68709
2283.38	8.04088
2284.8	8.78826
2286.22	8.68104
2287.64	8.90839
2289.07	8.80245
2290.49	8.09387
2291.91	7.54569
2293.32	7.39771
2294.74	7.64034
2296.16	7.91503
2297.58	7.69407
2299	8.0676
2300.42	7.71595
2301.84	8.19579
2303.26	8.25008
2304.67	9.07886
2306.09	9.43169
2307.51	9.93279
2308.92	10.4318
2310.34	11.4276
2311.76	11.6031
2313.17	11.9267
2314.59	11.9695
2316	11.4443
2317.42	10.7728
2318.83	10.7746
2320.25	10.6905
2321.66	10.0687
2323.08	9.81025
2324.49	9.84577
2325.91	9.93748
2327.32	9.83226
2328.73	9.0498
2330.15	9.29917
2331.56	9.97667
2332.97	9.68731
2334.38	9.57222
2335.79	9.87877
2337.21	9.37758
2338.62	9.46885
2340.03	9.28122
2341.44	8.27941
2342.85	7.51533
2344.26	6.92683
2345.67	6.64331
2347.08	6.03979
2348.49	5.65887
2349.9	5.51811
2351.31	5.27331
2352.72	4.24314
2354.13	3.45669
2355.53	3.42564
2356.94	2.96142
2358.35	3.1342
2359.76	2.31203
2361.17	1.75282
2362.57	1.93193
2363.98	2.10446
2365.39	1.83158
2366.79	1.60823
2368.2	1.49284
2369.6	2.09738
2371.01	2.37916
2372.42	3.11002
2373.82	3.6079
2375.22	3.46878
2376.63	3.28952
2378.03	3.21838
2379.44	3.59744
2380.84	3.26762
2382.25	2.95864
2383.65	2.7393
2385.05	2.67407
2386.45	2.77217
2387.86	3.21872
2389.26	3.52894
2390.66	3.86763
2392.06	3.84534
2393.46	3.65905
2394.87	3.57552
2396.27	3.04601
2397.67	3.16532
2399.07	3.48988
2400.47	3.99885
2401.87	4.41479
2403.27	3.89018
2404.67	3.7181
2406.07	4.13238
2407.47	4.03959
2408.86	4.2467
2410.26	4.91804
2411.66	4.43861
2413.06	5.07703
2414.46	5.22761
2415.85	5.37941
2417.25	5.54037
2418.65	5.56125
2420.05	5.54738
2421.44	5.71066
2422.84	5.81668
2424.23	5.83188
2425.63	6.93688
2427.03	6.95139
2428.42	7.30763
2429.82	7.19641
2431.21	7.19928
2432.6	7.36253
2434	7.29456
2435.39	6.91463
2436.79	6.72452
2438.18	6.92691
2439.57	6.98419
2440.97	6.75531
2442.36	7.29748
2443.75	7.20674
2445.14	6.91738
2446.54	7.58767
2447.93	7.62051
2449.32	7.47097
2450.71	6.78858
2452.1	6.15847
2453.49	5.96074
2454.88	5.21713
2456.27	5.37768
2457.66	5.11107
2459.05	4.31277
2460.44	3.7248
2461.83	3.22346
2463.22	2.40937
2464.61	2.67333
2466	2.42993
2467.39	3.05266
2468.77	2.61149
2470.16	2.02539
2471.55	2.10747
2472.94	1.68545
2474.32	2.0862
2475.71	2.59772
2477.1	2.33488
2478.48	2.7
2479.87	2.76013
2481.25	2.40399
2482.64	3.23903
2484.02	3.07048
2485.41	3.48076
2486.8	3.26539
2488.18	3.15523
2489.56	3.75656
2490.95	4.14456
2492.33	4.26607
2493.72	4.48731
2495.1	5.31456
2496.48	5.55606
2497.86	5.59556
2499.25	5.49219
2500.63	5.54379
2502.01	5.74473
2503.39	5.45679
2504.77	5.58569
2506.16	5.86352
2507.54	6.41316
2508.92	6.82004
2510.3	6.90482
2511.68	7.10173
2513.06	6.77131
2514.44	6.73977
2515.82	6.39906
2517.2	6.05216
2518.58	5.56761
2519.95	5.75565
2521.33	5.6887
2522.71	5.32129
2524.09	5.02944
2525.47	5.15431
2526.84	4.32826
2528.22	4.30468
2529.6	4.82375
2530.98	5.13274
2532.35	4.71505
2533.73	4.45758
2535.11	4.48423
2536.48	4.32493
2537.86	3.81605
2539.23	4.39891
2540.61	4.70573
2541.98	4.88493
2543.36	5.04524
2544.73	5.45411
2546.1	5.63296
2547.48	5.96497
2548.85	5.80795
2550.23	5.95152
2551.6	6.2081
2552.97	5.84946
2554.34	6.25476
2555.72	6.17188
2557.09	6.42558
2558.46	6.53226
2559.83	6.71403
2561.2	7.32509
2562.58	8.01516
2563.95	8.97361
2565.32	8.89068
2566.69	8.39165
2568.06	9.11811
2569.43	9.29954
2570.8	9.34042
2572.17	9.07694
2573.54	8.89532
2574.91	8.38499
2576.27	8.36374
2577.64	8.21235
2579.01	7.80816
2580.38	7.03701
2581.75	7.13942
2583.11	6.4079
2584.48	6.28414
2585.85	6.02612
2587.21	5.54396
2588.58	4.98314
2589.95	4.31397
2591.31	3.75278
2592.68	3.4866
2594.04	3.07426
2595.41	3.08826
2596.78	2.99208
2598.14	3.33653
2599.51	2.41641
2600.87	1.97972
2602.23	2.26672
2603.6	2.04747
2604.96	1.66148
2606.32	1.72979
2607.69	1.99319
2609.05	1.64583
2610.41	1.43176
2611.77	1.29859
2613.14	1.15929
2614.5	0.90802
2615.86	0.748699
2617.22	0.775468
2618.58	1.37786
2619.94	2.07574
2621.3	2.31769
2622.67	2.66511
2624.03	2.86165
2625.39	3.04338
2626.75	3.95038
2628.1	4.3505
2629.46	5.15736
2630.82	5.1772
2632.18	4.8608
2633.54	4.58989
2634.9	4.93253
2636.26	5.88612
2637.61	5.50064
2638.97	5.59268
2640.33	5.07598
2641.69	5.41324
2643.04	5.5319
2644.4	5.73423
2645.76	5.37549
2647.11	4.84899
2648.47	5.08632
2649.82	5.36528
2651.18	4.75738
2652.53	5.1198
2653.89	4.62867
2655.24	4.48734
2656.6	4.0823
2657.95	4.27589
2659.31	4.05205
2660.66	3.81657
2662.01	3.87995
2663.37	3.51444
2664.72	3.49245
2666.07	3.54088
2667.43	2.81253
2668.78	3.57999
2670.13	3.45476
2671.48	3.12291
2672.83	3.54339
2674.18	3.94747
2675.53	4.38709
2676.89	4.53707
2678.24	4.94947
2679.59	5.37355
2680.94	5.42554
2682.29	5.69673
2683.64	5.97057
2684.99	6.39859
2686.34	6.51686
2687.68	6.42278
2689.03	6.62103
2690.38	6.26202
2691.73	6.35495
2693.08	6.26574
2694.43	6.57084
2695.77	6.08472
2697.12	6.53668
2698.47	6.36651
2699.81	6.9343
2701.16	7.49273
2702.51	7.68942
2703.85	7.38472
2705.2	7.11559
2706.54	7.11294
2707.89	7.10518
2709.23	7.11229
2710.58	6.87606
2711.92	7.24886
2713.27	7.30744
2714.61	7.26297
2715.96	7.77136
2717.3	7.29257
2718.64	7.79914
2719.99	7.62205
2721.33	7.10297
2722.67	6.93622
2724.01	6.33811
2725.36	5.98614
2726.7	5.50755
2728.04	5.29595
2729.38	5.24048
2730.72	5.18253
2732.06	5.52369
2733.41	5.26634
2734.75	5.70447
2736.09	5.91946
2737.43	5.28553
2738.77	4.89675
2740.11	5.08029
2741.44	5.30016
2742.78	4.94645
2744.12	4.59062
2745.46	4.195
2746.8	3.65028
2748.14	2.88332
2749.48	2.69095
2750.81	3.15041
2752.15	2.73633
2753.49	2.07711
2754.83	2.17881
2756.16	1.81058
2757.5	0.7999
2758.84	0.975595
2760.17	0.722411
2761.51	1.11102
2762.84	1.41767
2764.18	1.0738
2765.51	1.39234
2766.85	1.53862
2768.18	1.19515
2769.52	1.36502
2770.85	1.8122
2772.19	2.35166
2773.52	2.38563
2774.85	2.29507
2776.19	2.04797
2777.52	2.53189
2778.85	2.86767
2780.18	2.65531
2781.52	2.5523
2782.85	2.74145
2784.18	2.75706
2785.51	2.47322
2786.84	1.85212
2788.17	1.77102
2789.51	2.17129
2790.84	1.79747
2792.17	2.26721
2793.5	2.57065
2794.83	2.67885
2796.16	2.46672
2797.48	2.20231
2798.81	1.96625
2800.14	1.52107
2801.47	1.41763
2802.8	1.08429
2804.13	0.896869
2805.46	0.723575
2806.79	0.725544
2808.11	0.347102
2809.44	0.237209
2810.77	-0.0431109
2812.09	0.0489713
2813.42	-0.399038
2814.75	-0.207731
2816.07	0.370057
2817.4	0.887838
2818.73	0.951553
2820.05	1.5505
2821.38	1.82291
2822.7	2.08902
2824.03	2.45447
2825.35	3.93806
2826.67	4.58766
2828	5.79305
2829.32	6.43314
2830.65	6.90691
2831.97	8.08587
2833.29	9.50494
2834.62	10.5694
2835.94	12.5837
2837.26	13.9452
2838.58	14.9109
2839.9	16.584
2841.23	18.193
2842.55	20.4341
2843.87	22.9625
2845.19	25.7642
2846.51	28.1629
2847.83	30.9515
2849.15	33.3173
2850.47	35.4911
2851.79	37.7371
2853.11	40.3463
2854.43	42.4309
2855.75	45.3014
2857.07	47.6555
2858.39	49.8778
2859.71	51.5398
2861.02	53.8226
2862.34	55.7077
2863.66	58.6463
2864.98	60.6278
2866.3	62.318
2867.61	64.3121
2868.93	66.2639
2870.25	67.7975
2871.56	69.2827
2872.88	70.7773
2874.19	71.9677
2875.51	73.7272
2876.83	74.4439
2878.14	76.0288
2879.46	77.068
2880.77	78.7177
2882.09	80.5271
2883.4	81.7229
2884.71	82.9702
2886.03	83.7776
2887.34	84.5606
2888.65	86.5966
2889.97	88.5118
2891.28	90.5051
2892.59	91.2845
2893.91	93.0425
2895.22	94.3501
2896.53	96.1254
2897.84	98.3618
2899.15	101.772
2900.46	103.951
2901.78	108.098
2903.09	111.286
2904.4	114.325
2905.71	118.568
2907.02	121.708
2908.33	125.169
2909.64	128.475
2910.95	132.348
2912.26	135.932
2913.57	139.621
2914.87	143.06
2916.18	146.594
2917.49	150.956
2918.8	153.885
2920.11	156.888
2921.42	160.09
2922.72	162.03
2924.03	163.972
2925.34	166.394
2926.64	168.768
2927.95	170.336
2929.26	172.217
2930.56	172.369
2931.87	173.322
2933.17	173.955
2934.48	174.346
2935.78	174.249
2937.09	173.536
2938.39	172.534
2939.7	171.232
2941	170.556
2942.31	168.186
2943.61	166.714
2944.91	164.73
2946.22	163.064
2947.52	161.203
2948.82	158.484
2950.13	155.664
2951.43	152.702
2952.73	149.896
2954.03	147.274
2955.33	143.641
2956.64	140.258
2957.94	136.642
2959.24	133.288
2960.54	129.572
2961.84	126.278
2963.14	122.996
2964.44	119.696
2965.74	116.356
2967.04	113.835
2968.34	109.631
2969.64	105.653
2970.94	102.858
2972.24	98.3223
2973.53	94.9151
2974.83	92.3581
2976.13	89.2022
2977.43	86.511
2978.73	83.128
2980.02	79.9112
2981.32	76.1282
2982.62	72.6497
2983.91	68.4363
2985.21	65.322
2986.51	61.8504
2987.8	58.7618
2989.1	55.7564
2990.4	52.6886
2991.69	49.3156
2992.99	46.0993
2994.28	43.8479
2995.57	40.6463
2996.87	37.8677
2998.16	35.5537
2999.46	32.9089
3000.75	30.0885
3002.05	27.4075
3003.34	25.1651
3004.63	23.2753
3005.92	21.3592
3007.22	18.9938
3008.51	17.7415
3009.8	16.265
3011.09	14.5301
3012.39	12.879
3013.68	11.4014
3014.97	10.2425
3016.26	9.20076
3017.55	8.1446
3018.84	7.45777
3020.13	6.88505
3021.42	5.9655
3022.71	4.10995
3024	3.05701
3025.29	2.45936
3026.58	1.81387
3027.87	1.29193
3029.16	0.807647
3030.45	0.528051
3031.73	-0.0131551
3033.02	-0.307495
3034.31	-0.237895
3035.6	0.209453
3036.89	0.539376
3038.17	0.873285
3039.46	1.39466
3040.75	1.66678
3042.03	2.31661
3043.32	2.06724
3044.61	2.31567
3045.89	2.13842
3047.18	2.43294
3048.46	2.66729
3049.75	2.95461
3051.03	3.13609
3052.32	3.66465
3053.6	3.35768
3054.89	3.28249
3056.17	3.07865
3057.45	3.56083
3058.74	4.11745
3060.02	3.68129
3061.31	3.93186
3062.59	3.89715
3063.87	3.49742
3065.15	3.32313
3066.44	3.00592
3067.72	2.7387
3069	2.7137
3070.28	2.92451
3071.56	2.232
3072.84	1.98511
3074.13	2.11481
3075.41	2.10482
3076.69	2.70641
3077.97	2.52896
3079.25	2.15839
3080.53	1.46046
3081.81	0.925764
3083.09	0.390302
3084.37	-0.179577
3085.64	-1.10951
3086.92	-1.10869
3088.2	-0.168304
3089.48	-0.297993
3090.76	-0.466212
3092.04	-0.599429
3093.31	-0.786058
3094.59	-0.716528
3095.87	-0.347513
3097.14	0.225652
3098.42	0.35196
3099.7	0.750892
3100.97	0.945249
3102.25	0.962141
3103.53	1.56189
3104.8	1.40582
3106.08	0.811903
3107.35	1.07609
3108.63	0.977038
3109.9	1.08609
3111.18	1.60268
3112.45	2.30164
3113.73	3.1149
3115	4.16234
3116.27	4.41109
3117.55	4.64038
3118.82	5.16343
3120.09	5.74271
3121.37	6.51923
3122.64	6.90621
3123.91	7.18444
3125.18	7.55945
3126.45	7.65898
3127.73	8.19529
3129	8.75058
3130.27	9.29142
3131.54	10.0709
3132.81	10.7426
3134.08	11.2706
3135.35	11.0911
3136.62	12.2208
3137.89	13.0015
3139.16	13.1826
3140.43	13.4625
3141.7	13.5564
3142.97	14.0007
3144.24	14.452
3145.51	14.7454
3146.78	14.6168
3148.04	13.7236
3149.31	12.1556
