#Acq. time (s)=	45
#Accumulations=	2
#Range (cm-¹)=	200...3150
#Windows=	2
#Auto scanning=	Off
#Autofocus=	Off
#Macrospot=	Off
#AutoExposure=	Off
#Spike filter=	Multiple accum.
#Delay time (s)=	0
#Binning=	1
#Readout mode=	Signal
#DeNoise=	Off
#ICS correction=	On
#Dark correction=	Off
#Inst. Process=	Off
#Detector Gain=	Best Dynamic Range
#Detector ADC=	20 kHz       
#Detector temperature (°C)=	-69.85
#Instrument=	LabRAM HR Evol
#Detector=	Synapse
#Objective=	x100
#Grating=	600 gr/mm
#ND Filter=	100%
#Laser (nm)=	532 
#Hole=	100.021
#Range=	Auto
#Laser Pol.=	No
#Raman. Pol.=	No
#Laser Pol. (°)=	-0.0007625
#Raman Pol. (°)=	89.9995
#Collection=	Microscope
#StageXY=	Marzhauser
#StageZ=	Marzhauser
#X (µm)=	-1141.3
#Y (µm)=	677.4
#Z (µm)=	584.75
#Full time(mm:ss)=	3:18
#Project=	
#Sample=	
#Site=	
#Title=	Mb_40_y_50_2x_45s_532 nm_x100_100%_600 gr_mm
#Remark=	
#Date=	19.07.2022 13:48
#Acquired=	19.07.2022 13:48:13
#Base:Fit=	10.08.2022 10:52:48
#Base:Sub=	10.08.2022 10:52:53
#Filter:Polynom=	16.08.2022 10:09:04
#AxisType[0]=Intens
#AxisUnit[0]=Cnt
#AxisType[1]=Spectr
#AxisUnit[1]=1/cm
200.423	32.1114
202.238	29.8469
204.052	29.1347
205.868	27.971
207.682	27.06
209.495	25.6229
211.308	23.8869
213.12	22.3588
214.935	20.2447
216.746	19.9541
218.558	19.1204
220.369	17.6994
222.18	17.3257
223.992	16.5575
225.802	15.6643
227.612	14.8887
229.421	14.0017
231.23	12.2154
233.039	11.3587
234.849	10.1855
236.657	11.1968
238.465	10.4403
240.272	9.90718
242.079	9.92621
243.885	9.12452
245.691	8.08439
247.497	7.56571
249.305	7.64366
251.11	6.81826
252.915	7.6562
254.719	7.52866
256.523	6.23122
258.327	4.95607
260.13	4.24356
261.933	4.57325
263.736	4.83851
265.538	5.18434
267.34	3.95734
269.141	3.5501
270.943	3.39011
272.744	3.16109
274.544	3.63086
276.344	4.21407
278.144	5.39743
279.944	5.72832
281.743	5.75082
283.542	4.36211
285.34	2.95558
287.138	2.78476
288.936	2.52903
290.733	2.12109
292.53	2.75395
294.327	1.79754
296.123	1.56169
297.919	1.40055
299.715	1.46805
301.508	1.79225
303.303	2.62108
305.098	3.0015
306.892	4.26642
308.686	3.65872
310.479	3.56371
312.273	4.42571
314.065	6.0741
315.858	7.25288
317.648	7.68242
319.44	9.14391
321.231	9.16192
323.022	10.4729
324.813	10.966
326.604	12.5057
328.392	11.9362
330.181	12.7363
331.971	13.6165
333.76	13.9051
335.548	14.8241
337.335	16.0645
339.123	16.165
340.91	16.1924
342.698	17.6903
344.483	17.3802
346.269	15.5485
348.055	15.7333
349.841	15.9027
351.625	16.5204
353.41	17.0636
355.195	16.7181
356.977	15.6453
358.762	15.6016
360.545	15.2272
362.329	15.4397
364.11	15.0154
365.893	15.3226
367.675	15.3679
369.455	13.3528
371.237	13.1767
373.017	12.3888
374.798	12.4598
376.578	11.5213
378.357	11.0274
380.137	10.9639
381.917	9.82999
383.694	8.70222
385.473	8.85835
387.249	9.14646
389.028	8.04662
390.806	8.22023
392.581	7.77413
394.359	8.00918
396.134	7.98292
397.91	8.09889
399.684	9.6027
401.46	11.2329
403.234	12.397
405.009	10.9588
406.784	10.9155
408.557	11.9851
410.331	10.855
412.103	11.8401
413.876	12.3732
415.647	13.2648
417.42	13.9525
419.191	14.1176
420.961	15.2924
422.733	15.4221
424.502	15.3275
426.273	14.4989
428.042	14.498
429.812	15.1476
431.58	15.2992
433.35	13.6741
435.118	12.416
436.885	12.9205
438.653	13.251
440.42	13.8872
442.188	13.3212
443.954	12.2003
445.719	12.4379
447.486	11.9671
449.251	12.7134
451.015	14.036
452.781	14.5513
454.545	14.9576
456.308	14.7899
458.073	14.2491
459.836	14.7228
461.598	14.1024
463.362	14.9417
465.124	14.176
466.885	15.66
468.648	15.6974
470.408	15.3979
472.169	15.6063
473.929	16.5575
475.69	16.1628
477.45	16.1205
479.208	17.0117
480.967	16.5158
482.727	17.8621
484.485	18.6061
486.243	19.8847
488	21.4515
489.759	21.7252
491.515	21.4816
493.272	22.316
495.028	22.9604
496.783	22.9702
498.54	22.4104
500.295	22.3453
502.05	21.8769
503.804	21.6622
505.558	20.362
507.311	18.5071
509.064	18.4543
510.819	17.6298
512.572	17.1742
514.324	16.0999
516.076	16.7748
517.827	16.5728
519.578	16.3522
521.329	15.7209
523.08	15.9187
524.83	15.5703
526.58	15.4558
528.329	15.5646
530.08	15.3381
531.829	15.2801
533.578	15.0345
535.326	15.0269
537.074	16.6289
538.821	17.9111
540.568	17.1198
542.315	17.5162
544.062	17.6584
545.808	18.1474
547.554	18.3453
549.299	18.3873
551.044	18.9927
552.789	18.4223
554.533	18.9855
556.278	18.0553
558.019	17.7534
559.763	18.3461
561.506	19.195
563.249	18.6287
564.991	19.5825
566.733	19.6236
568.475	19.932
570.217	20.5745
571.958	21.015
573.699	20.5226
575.439	20.0574
577.177	18.5103
578.917	17.7328
580.656	16.763
582.396	14.6547
584.134	13.7341
585.873	11.8906
587.609	10.8144
589.347	9.90706
591.084	9.09963
592.822	7.9387
594.558	8.24271
596.295	7.98791
598.029	7.44632
599.765	6.74228
601.5	6.17146
603.235	6.10139
604.968	5.91415
606.703	5.60361
608.437	4.60052
610.171	4.18389
611.902	2.97572
613.635	2.45551
615.368	2.71487
617.099	2.32203
618.831	2.39478
620.563	2.96875
622.294	3.96988
624.024	4.50177
625.755	4.34279
627.485	3.93667
629.213	4.7262
630.943	4.78642
632.673	4.83395
634.4	4.70577
636.129	4.75579
637.855	5.7459
639.584	6.663
641.312	7.8885
643.037	8.47177
644.764	9.34492
646.491	9.83979
648.216	10.1895
649.942	9.98648
651.666	10.5709
653.392	10.9969
655.115	11.6364
656.84	11.3672
658.563	11.8342
660.287	12.2427
662.011	12.2362
663.732	12.833
665.456	13.3067
667.177	13.2561
668.899	13.9096
670.62	15.2266
672.342	16.2162
674.061	16.9204
675.781	17.973
677.502	19.6878
679.22	20.2534
680.941	21.6392
682.659	22.3025
684.379	24.8228
686.096	26.6107
687.815	27.5361
689.532	28.5918
691.248	30.8843
692.966	31.5457
694.682	32.0729
696.4	33.6475
698.115	33.3514
699.829	34.9106
701.546	36.9812
703.26	38.6212
704.974	39.698
706.689	41.0322
708.402	42.4185
710.115	44.861
711.83	45.1384
713.542	45.7689
715.254	46.131
716.967	46.0207
718.679	45.6225
720.39	45.4786
722.102	44.9942
723.812	45.6311
725.522	45.3974
727.232	45.5491
728.943	46.1516
730.652	45.5495
732.361	45.0416
734.069	44.8368
735.779	45.0984
737.487	45.0542
739.194	45.314
740.901	44.9251
742.608	45.2174
744.316	46.0771
746.022	48.0092
747.728	47.4113
749.433	47.539
751.138	48.2585
752.843	49.6563
754.549	50.8164
756.254	52.4298
757.957	53.0806
759.661	53.4236
761.364	55.389
763.067	56.664
764.769	57.7906
766.471	59.8565
768.175	60.16
769.877	60.8837
771.578	61.8354
773.279	62.2955
774.98	64.1867
776.68	65.2834
778.38	65.2665
780.079	66.3837
781.779	67.9129
783.478	68.5614
785.176	69.9956
786.875	70.2487
788.573	70.9981
790.27	71.2817
791.968	71.6113
793.665	72.2908
795.361	72.842
797.058	71.0765
798.754	71.5976
800.45	70.8376
802.145	70.7502
803.84	70.6981
805.535	70.2617
807.23	69.4027
808.922	70.2481
810.616	70.223
812.309	69.9663
814.002	69.6441
815.695	67.0317
817.388	66.8762
819.08	66.6721
820.772	66.8722
822.464	66.1281
824.153	65.373
825.844	65.6801
827.535	66.672
829.225	65.9991
830.915	65.4157
832.605	62.8099
834.292	62.0497
835.981	62.3723
837.67	61.2193
839.359	60.2367
841.047	59.4535
842.732	58.2819
844.42	56.8829
846.107	56.048
847.794	55.4829
849.479	53.8703
851.165	52.3831
852.851	52.1362
854.534	51.9953
856.22	51.663
857.905	50.4703
859.589	49.6708
861.272	48.5407
862.956	47.4269
864.639	47.116
866.321	45.7233
868.004	44.3443
869.687	43.5078
871.367	43.3497
873.049	43.4503
874.731	43.197
876.41	43.3393
878.092	44.2903
879.771	44.0361
881.451	43.0925
883.131	43.3404
884.809	43.6934
886.489	44.2067
888.166	42.9397
889.845	43.1998
891.522	43.1102
893.2	43.5075
894.878	43.4818
896.554	43.0889
898.231	43.0392
899.906	42.5491
901.583	43.6858
903.258	43.8913
904.934	43.1635
906.608	43.4417
908.283	43.2494
909.956	43.1621
911.631	43.0063
913.304	42.4628
914.976	42.2067
916.65	41.1461
918.322	41.715
919.995	42.1865
921.666	41.8718
923.339	41.2983
925.009	41.4841
926.679	41.2895
928.351	40.908
930.021	41.0871
931.692	41.2884
933.361	40.8302
935.029	42.1509
936.699	42.104
938.367	41.0995
940.035	41.2214
941.704	41.2893
943.371	40.7798
945.038	41.3219
946.706	41.1937
948.372	41.0847
950.038	40.6202
951.705	40.771
953.37	40.9389
955.035	41.1157
956.7	40.7154
958.366	40.8982
960.03	42.0116
961.693	41.8461
963.357	41.6148
965.021	42.3863
966.684	42.6457
968.346	43.2665
970.008	42.158
971.67	42.07
973.334	41.6864
974.995	42.1668
976.655	42.4377
978.316	42.8949
979.976	42.5348
981.638	42.512
983.297	42.6118
984.957	42.4722
986.616	42.2036
988.274	40.8598
989.932	40.3005
991.59	39.4716
993.248	37.9175
994.907	37.1509
996.565	34.3113
998.221	31.4782
999.878	28.5524
1001.53	27.9961
1003.19	26.5022
1004.85	26.0477
1006.5	27.2355
1008.16	30.5128
1009.81	34.0598
1011.46	41.0391
1013.12	49.2411
1014.77	58.2029
1016.43	66.8601
1018.08	76.8879
1019.73	85.5768
1021.38	95.4056
1023.04	104.763
1024.69	113.356
1026.34	121.944
1027.99	130.345
1029.64	136.697
1031.29	142.653
1032.94	148.728
1034.59	153.123
1036.24	157.417
1037.89	161.916
1039.54	165.199
1041.19	168.845
1042.84	170.432
1044.48	171.203
1046.13	171.909
1047.78	171.677
1049.42	169.443
1051.07	167.246
1052.72	164
1054.36	161.276
1056.01	157.196
1057.66	153.558
1059.3	146.897
1060.94	140.266
1062.59	132.75
1064.23	124.632
1065.88	115.367
1067.52	105.416
1069.16	95.2527
1070.81	84.7231
1072.45	74.5114
1074.09	64.2943
1075.73	54.1787
1077.38	43.3308
1079.02	33.6381
1080.66	26.1573
1082.3	18.7234
1083.94	14.5493
1085.58	10.4369
1087.22	7.7062
1088.86	6.98069
1090.5	7.95053
1092.13	10.3806
1093.77	13.3902
1095.41	14.656
1097.05	15.7043
1098.68	16.5953
1100.32	18.1701
1101.96	18.5614
1103.6	19.7816
1105.23	21.1099
1106.87	21.6521
1108.5	22.5522
1110.14	22.5071
1111.77	22.0713
1113.41	22.309
1115.04	22.3386
1116.67	23.062
1118.31	23.8008
1119.94	24.8554
1121.58	24.7919
1123.21	24.1355
1124.84	23.1272
1126.47	23.5909
1128.1	23.5535
1129.73	23.447
1131.37	23.011
1133	22.8535
1134.63	22.8062
1136.26	22.4606
1137.89	22.2534
1139.52	21.0473
1141.14	19.5403
1142.77	18.415
1144.4	17.2563
1146.03	16.4869
1147.66	15.5257
1149.29	14.9555
1150.91	14.9143
1152.54	14.5409
1154.17	13.0614
1155.79	11.7415
1157.42	11.3339
1159.04	9.32916
1160.67	8.32142
1162.3	8.3033
1163.92	7.02027
1165.55	7.2297
1167.17	7.04484
1168.79	6.49697
1170.42	7.48222
1172.04	8.22823
1173.66	8.38788
1175.28	8.39194
1176.91	8.66498
1178.53	9.10405
1180.15	10.31
1181.77	11.1197
1183.39	11.6945
1185.01	12.4936
1186.63	13.3623
1188.25	13.8776
1189.87	14.9439
1191.49	14.7186
1193.11	14.8064
1194.73	15.3004
1196.35	15.7289
1197.97	16.8863
1199.59	17.0854
1201.2	18.6946
1202.82	18.8373
1204.44	19.9823
1206.05	21.7977
1207.67	23.2208
1209.29	24.7848
1210.9	25.8259
1212.52	26.7424
1214.13	27.395
1215.75	28.0371
1217.36	28.672
1218.97	29.8693
1220.59	29.4097
1222.2	29.6692
1223.82	30.9346
1225.43	31.5863
1227.04	32.4981
1228.65	32.8379
1230.26	32.9198
1231.88	33.705
1233.49	33.9033
1235.1	33.867
1236.71	34.9692
1238.32	35.5881
1239.93	34.9219
1241.54	36.3068
1243.15	38.3242
1244.76	38.8596
1246.37	39.9884
1247.97	40.1415
1249.58	40.5618
1251.19	42.0126
1252.8	42.343
1254.41	43.3107
1256.01	44.1801
1257.62	45.6276
1259.23	47.1097
1260.83	48.8644
1262.44	49.7633
1264.04	50.7597
1265.65	52.5617
1267.25	54.4271
1268.86	55.9014
1270.46	57.1027
1272.07	58.4478
1273.67	60.0605
1275.27	61.1579
1276.88	63.0874
1278.48	64.584
1280.08	66.065
1281.68	67.5428
1283.28	67.4705
1284.89	69.7997
1286.49	70.8903
1288.09	71.4197
1289.69	73.104
1291.29	73.0199
1292.89	73.3486
1294.49	72.9529
1296.09	73.2321
1297.69	73.6497
1299.29	74.0973
1300.88	73.5247
1302.48	73.6152
1304.08	72.8514
1305.68	71.4202
1307.27	71.8536
1308.87	71.9145
1310.47	71.6552
1312.06	72.6697
1313.66	71.8227
1315.25	71.2948
1316.85	70.6019
1318.44	69.163
1320.04	68.8119
1321.63	68.7038
1323.23	68.3633
1324.82	67.0165
1326.41	65.5807
1328.01	64.252
1329.6	64.5813
1331.19	63.6724
1332.78	62.8072
1334.38	62.9389
1335.97	62.6773
1337.56	62.8871
1339.15	62.7134
1340.74	61.7273
1342.33	60.5843
1343.92	60.4721
1345.51	59.9087
1347.1	58.6269
1348.69	57.844
1350.28	57.6146
1351.87	56.9086
1353.46	55.8059
1355.04	55.1374
1356.63	54.8158
1358.22	53.8179
1359.81	53.3404
1361.39	52.3499
1362.98	51.7616
1364.57	51.8856
1366.15	50.7545
1367.74	49.3505
1369.32	49.4557
1370.91	48.0794
1372.49	47.9873
1374.07	46.6684
1375.66	45.9845
1377.24	45.2828
1378.83	44.8542
1380.41	44.3514
1381.99	44.3349
1383.57	44.5531
1385.16	45.5282
1386.74	46.5039
1388.32	47.2064
1389.9	46.7128
1391.48	46.8579
1393.06	46.8785
1394.64	48.0699
1396.22	48.4988
1397.8	49.6924
1399.38	50.838
1400.96	51.6298
1402.54	53.4586
1404.12	53.869
1405.7	55.2102
1407.28	57.3132
1408.85	59.4029
1410.43	60.7261
1412.01	62.2912
1413.58	64.4234
1415.16	66.4964
1416.74	68.4527
1418.31	71.2154
1419.89	73.443
1421.46	76.3084
1423.04	78.8764
1424.61	81.5351
1426.19	84.569
1427.76	87.7795
1429.33	90.1247
1430.91	92.1105
1432.48	93.7293
1434.05	96.1578
1435.63	98.6558
1437.2	100.431
1438.77	101.97
1440.34	103.605
1441.91	104.888
1443.49	105.143
1445.05	104.843
1446.63	105.449
1448.2	106.733
1449.77	105.747
1451.34	104.604
1452.91	104.856
1454.47	103.806
1456.04	103.705
1457.61	103.488
1459.18	103.062
1460.75	101.625
1462.31	98.9837
1463.88	97.4
1465.45	96.5064
1467.01	95.3349
1468.58	92.2824
1470.15	90.5066
1471.71	88.7971
1473.28	86.6695
1474.84	83.704
1476.41	81.5655
1477.97	78.7111
1479.54	77.4222
1481.1	75.9631
1482.66	73.8106
1484.23	72.303
1485.79	70.0753
1487.35	66.7108
1488.91	64.5544
1490.48	62.6832
1492.04	60.5573
1493.6	59.048
1495.16	57.1153
1496.72	55.3819
1498.28	53.1993
1499.84	51.418
1501.4	49.3135
1502.96	47.7724
1504.52	45.4603
1506.08	43.3137
1507.64	41.6086
1509.2	40.7543
1510.76	39.2702
1512.31	38.7411
1513.87	37.4802
1515.43	35.7594
1516.99	34.7517
1518.54	32.7333
1520.1	31.4143
1521.66	30.3302
1523.21	30.1238
1524.77	30.3564
1526.32	29.7718
1527.88	28.0947
1529.43	28.4374
1530.99	29.2423
1532.54	28.5836
1534.09	30.1296
1535.65	30.6556
1537.2	31.2452
1538.75	31.2063
1540.31	31.927
1541.86	32.9911
1543.41	33.1786
1544.96	33.3958
1546.51	33.2487
1548.06	34.5637
1549.62	35.1419
1551.17	37.0917
1552.72	38.2093
1554.27	39.5384
1555.82	41.028
1557.36	41.9744
1558.91	41.9768
1560.46	41.8691
1562.01	41.9868
1563.56	41.9421
1565.11	43.0267
1566.66	44.4275
1568.2	45.3906
1569.75	45.6639
1571.3	47.7137
1572.84	48.778
1574.39	49.6952
1575.93	50.6034
1577.48	51.8079
1579.02	51.8546
1580.57	52.3005
1582.11	53.415
1583.66	54.7444
1585.2	55.8609
1586.75	57.1865
1588.29	57.9625
1589.83	58.411
1591.38	58.5392
1592.92	58.898
1594.46	58.1667
1596	58.3064
1597.54	59.5877
1599.09	60.3121
1600.63	61.2447
1602.17	60.6851
1603.71	61.3297
1605.25	61.6472
1606.79	62.9635
1608.33	63.5189
1609.87	63.7314
1611.41	63.7592
1612.95	64.3982
1614.48	63.5738
1616.02	62.2549
1617.56	62.1603
1619.1	61.5668
1620.64	62.6132
1622.17	62.8481
1623.71	62.6421
1625.25	63.0421
1626.78	62.9207
1628.32	64.2422
1629.86	63.5811
1631.39	63.0791
1632.92	63.8107
1634.46	63.027
1635.99	63.4237
1637.53	63.5777
1639.06	64.2945
1640.59	65.0549
1642.13	66.2687
1643.66	66.3067
1645.19	66.4979
1646.73	67.0433
1648.26	67.8416
1649.79	67.4046
1651.32	67.191
1652.85	67.2929
1654.38	67.8483
1655.92	67.4599
1657.45	67.4061
1658.98	67.4204
1660.51	67.3074
1662.04	66.7981
1663.57	65.8971
1665.09	64.7467
1666.62	63.0466
1668.15	61.8771
1669.68	61.0639
1671.21	60.1274
1672.73	60.3866
1674.26	59.0109
1675.79	57.4501
1677.31	55.1392
1678.84	53.6928
1680.37	52.4498
1681.89	50.7603
1683.42	49.2575
1684.94	47.4942
1686.47	45.2336
1687.99	43.8351
1689.52	42.8478
1691.04	39.8293
1692.57	38.9304
1694.09	38.3548
1695.61	37.3285
1697.14	35.9628
1698.66	34.1444
1700.18	33.0964
1701.7	32.1149
1703.22	31.1141
1704.75	30.0538
1706.27	28.5281
1707.79	27.71
1709.31	26.9804
1710.83	25.0442
1712.35	23.8774
1713.87	22.3581
1715.39	21.0396
1716.91	19.7821
1718.43	19.212
1719.95	17.6984
1721.46	16.6503
1722.98	16.5416
1724.5	15.6865
1726.02	15.2447
1727.53	14.8677
1729.05	15.0336
1730.57	14.4929
1732.08	13.2237
1733.6	12.5543
1735.12	12.264
1736.63	12.1821
1738.15	11.9643
1739.66	11.4839
1741.18	11.5335
1742.69	10.6564
1744.21	11.452
1745.72	11.5006
1747.23	11.0419
1748.74	10.4477
1750.26	8.77154
1751.77	8.49234
1753.28	8.35339
1754.8	9.21533
1756.31	8.6525
1757.82	8.71599
1759.33	8.98756
1760.84	8.72106
1762.35	8.30964
1763.86	8.48931
1765.37	8.4192
1766.88	8.02634
1768.39	8.35613
1769.9	7.48476
1771.41	7.36338
1772.92	6.49532
1774.43	6.439
1775.93	5.96457
1777.44	5.08211
1778.95	4.36491
1780.46	3.81868
1781.96	3.35994
1783.47	3.04558
1784.98	2.1158
1786.48	1.30561
1787.99	1.21604
1789.49	1.41021
1791	1.37313
1792.5	2.19765
1794.01	2.26845
1795.51	2.29364
1797.02	2.8484
1798.52	3.54256
1800.03	3.23784
1801.53	3.31902
1803.03	3.60929
1804.53	3.71719
1806.04	3.40978
1807.54	3.17498
1809.04	4.01296
1810.54	4.26849
1812.04	4.74245
1813.54	4.96492
1815.05	4.96697
1816.55	4.93197
1818.05	4.72701
1819.55	5.60493
1821.05	5.0009
1822.55	4.98099
1824.05	5.18366
1825.54	5.73507
1827.04	6.66391
1828.54	6.87269
1830.04	6.59098
1831.54	6.57724
1833.03	6.87011
1834.53	6.83838
1836.03	6.12183
1837.52	6.05614
1839.02	6.08533
1840.52	5.947
1842.01	5.21296
1843.51	4.34349
1845	4.10039
1846.5	4.54465
1847.99	4.20095
1849.49	3.39823
1850.98	2.56904
1852.47	2.07694
1853.97	2.60888
1855.46	2.28233
1856.95	2.32647
1858.45	2.61705
1859.94	2.73001
1861.43	3.15216
1862.92	3.11434
1864.41	3.25735
1865.91	2.94152
1867.4	3.81354
1868.89	3.38956
1870.38	3.78411
1871.87	3.64431
1873.36	3.49667
1874.85	3.09646
1876.34	3.25265
1877.83	3.48926
1879.31	2.71592
1880.8	2.55355
1882.29	2.63255
1882.56	3.15893
1884.05	3.11433
1885.54	2.69608
1887.04	2.48655
1888.53	1.908
1890.03	2.35566
1891.52	2.66647
1893.01	2.62194
1894.5	2.56333
1895.99	2.73644
1897.49	2.7952
1898.98	2.73224
1900.47	1.84027
1901.96	1.8177
1903.45	1.81719
1904.94	2.09778
1906.43	1.64461
1907.92	0.884211
1909.41	0.522444
1910.9	0.019071
1912.39	-0.102634
1913.88	-0.134398
1915.37	-0.598888
1916.86	-0.343598
1918.35	0.367192
1919.84	0.172453
1921.32	0.273403
1922.81	-0.282879
1924.3	-0.0112112
1925.78	0.559196
1927.27	0.670123
1928.76	0.354209
1930.24	1.5767
1931.73	1.91054
1933.21	2.03632
1934.7	2.0354
1936.18	2.15252
1937.67	2.69435
1939.15	2.67987
1940.64	3.43511
1942.12	3.32779
1943.6	3.59495
1945.09	3.86707
1946.57	4.15328
1948.05	4.62819
1949.54	4.33004
1951.02	4.14652
1952.5	3.06128
1953.98	2.7675
1955.46	3.36947
1956.94	2.6856
1958.42	2.27316
1959.91	1.60223
1961.39	1.84631
1962.87	1.7804
1964.34	2.42682
1965.82	1.98946
1967.3	1.97671
1968.78	2.07921
1970.26	2.27948
1971.74	2.31305
1973.22	2.02309
1974.7	2.36611
1976.17	3.01239
1977.65	2.73941
1979.13	2.84753
1980.6	3.0734
1982.08	3.10145
1983.56	3.56466
1985.03	3.08874
1986.51	3.60478
1987.98	4.0598
1989.46	4.24273
1990.93	4.69207
1992.41	5.61444
1993.88	5.68604
1995.36	6.43392
1996.83	6.17795
1998.3	6.54693
1999.78	6.74404
2001.25	6.55304
2002.72	7.37317
2004.2	7.33209
2005.67	7.23444
2007.14	7.51086
2008.61	7.47116
2010.08	8.1097
2011.55	7.9683
2013.02	7.57824
2014.49	7.16702
2015.97	6.68396
2017.43	6.19007
2018.9	5.65831
2020.37	5.15349
2021.84	4.6426
2023.31	3.34016
2024.78	2.56747
2026.25	2.32065
2027.72	1.83904
2029.19	1.90107
2030.65	1.05125
2032.12	1.38253
2033.59	1.65109
2035.05	2.00013
2036.52	2.11455
2037.98	2.64415
2039.45	2.84875
2040.92	2.83524
2042.38	2.66975
2043.85	3.52877
2045.31	3.30844
2046.78	3.18023
2048.24	3.63567
2049.71	3.50005
2051.17	3.52999
2052.63	3.77323
2054.1	3.37103
2055.56	3.68213
2057.02	4.08033
2058.48	3.88428
2059.95	5.31442
2061.41	6.37911
2062.87	6.27699
2064.33	6.23445
2065.79	6.86816
2067.25	6.77318
2068.71	6.94222
2070.17	7.05157
2071.63	7.59955
2073.09	8.25495
2074.55	9.09825
2076.01	9.94762
2077.47	10.1945
2078.93	11.5884
2080.39	11.7918
2081.85	12.0888
2083.3	12.0982
2084.76	12.2557
2086.22	12.412
2087.68	13.3657
2089.13	14.3145
2090.59	15.3176
2092.05	16.4046
2093.5	17.8533
2094.96	18.0265
2096.41	18.5859
2097.87	19.5607
2099.32	20.6481
2100.78	20.7452
2102.23	22.2219
2103.69	23.3011
2105.14	24.4903
2106.59	25.2843
2108.05	26.3812
2109.5	26.9204
2110.95	27.4067
2112.41	27.4229
2113.86	28.2691
2115.31	28.8084
2116.76	30.1912
2118.21	31.506
2119.67	32.8911
2121.12	34.618
2122.57	36.0056
2124.02	37.1883
2125.47	38.4269
2126.92	39.4452
2128.37	40.8378
2129.82	42.2253
2131.27	43.6497
2132.71	44.9649
2134.16	45.833
2135.61	46.9467
2137.06	48.5864
2138.51	49.8857
2139.95	51.6279
2141.4	53.3544
2142.85	55.4339
2144.29	57.0469
2145.74	58.4881
2147.19	59.9343
2148.63	60.9536
2150.08	62.3352
2151.52	63.3205
2152.97	64.1544
2154.42	65.7329
2155.86	67.0387
2157.3	68.5681
2158.75	70.1826
2160.19	71.3646
2161.64	72.5032
2163.08	73.2766
2164.52	73.9755
2165.96	74.1136
2167.41	73.627
2168.85	74.706
2170.29	75.0841
2171.73	74.911
2173.17	74.6443
2174.61	74.6376
2176.06	73.8854
2177.5	73.2844
2178.94	72.9686
2180.38	72.105
2181.82	70.9739
2183.26	70.0833
2184.7	69.6481
2186.14	69.0323
2187.57	67.9454
2189.01	67.8158
2190.45	67.0124
2191.89	65.2299
2193.33	63.9411
2194.76	62.8248
2196.2	61.0262
2197.64	60.375
2199.08	58.7123
2200.51	57.7437
2201.95	57.049
2203.38	55.372
2204.82	53.9561
2206.25	52.702
2207.69	51.0221
2209.12	48.826
2210.56	47.0303
2211.99	46.0732
2213.43	44.373
2214.86	42.8426
2216.3	41.4885
2217.73	40.4513
2219.16	39.3301
2220.59	37.9728
2222.03	36.5827
2223.46	35.0173
2224.89	33.8877
2226.32	32.6601
2227.75	31.8316
2229.19	30.4657
2230.62	29.5133
2232.05	28.1089
2233.48	27.0029
2234.91	26.1378
2236.34	25.2486
2237.77	24.6922
2239.2	23.857
2240.63	23.6054
2242.06	22.0838
2243.48	21.134
2244.91	20.4354
2246.34	19.6374
2247.77	19.1477
2249.2	18.7289
2250.62	18.3415
2252.05	17.9832
2253.48	16.9779
2254.9	16.7573
2256.33	16.9274
2257.76	16.1902
2259.18	16.48
2260.61	16.4983
2262.03	15.9734
2263.46	15.4061
2264.88	15.3121
2266.31	15.1961
2267.73	15.2942
2269.16	15.0226
2270.58	14.4017
2272	14.1923
2273.43	13.1937
2274.85	12.5779
2276.27	11.7562
2277.69	10.9779
2279.12	10.4314
2280.54	10.2631
2281.96	9.64285
2283.38	9.43839
2284.8	8.60237
2286.22	8.39793
2287.64	8.12022
2289.07	6.86114
2290.49	5.45157
2291.91	4.01848
2293.32	3.10917
2294.74	3.13005
2296.16	2.99695
2297.58	3.77608
2299	3.87424
2300.42	3.35897
2301.84	3.41885
2303.26	3.74521
2304.67	3.99273
2306.09	4.17894
2307.51	3.38767
2308.92	4.22288
2310.34	4.19397
2311.76	4.63017
2313.17	4.53929
2314.59	4.8799
2316	5.19457
2317.42	5.83222
2318.83	6.70646
2320.25	6.4566
2321.66	7.00432
2323.08	7.23776
2324.49	7.39928
2325.91	8.47841
2327.32	8.32628
2328.73	7.60408
2330.15	7.35883
2331.56	7.26101
2332.97	7.12825
2334.38	7.21919
2335.79	7.274
2337.21	7.35093
2338.62	7.21054
2340.03	6.1482
2341.44	6.36347
2342.85	5.71958
2344.26	5.5479
2345.67	5.34348
2347.08	4.49328
2348.49	4.5478
2349.9	3.94365
2351.31	3.03108
2352.72	1.84829
2354.13	1.82073
2355.53	1.11085
2356.94	0.958379
2358.35	0.557141
2359.76	-0.296513
2361.17	-0.491901
2362.57	-0.20116
2363.98	0.516616
2365.39	0.892048
2366.79	1.06169
2368.2	1.23776
2369.6	0.50596
2371.01	0.903098
2372.42	0.860189
2373.82	1.15459
2375.22	1.34742
2376.63	1.18555
2378.03	1.45432
2379.44	2.27881
2380.84	1.90786
2382.25	1.72765
2383.65	1.41827
2385.05	1.18228
2386.45	2.0225
2387.86	2.54894
2389.26	2.11753
2390.66	2.66215
2392.06	3.18631
2393.46	3.53749
2394.87	3.54117
2396.27	3.26786
2397.67	3.16203
2399.07	2.83011
2400.47	3.16433
2401.87	3.80549
2403.27	3.73828
2404.67	3.7219
2406.07	3.28462
2407.47	3.20748
2408.86	3.44607
2410.26	3.69025
2411.66	4.88896
2413.06	4.68101
2414.46	4.56292
2415.85	4.34287
2417.25	4.52005
2418.65	5.17692
2420.05	5.16042
2421.44	5.18595
2422.84	5.59818
2424.23	6.66497
2425.63	6.51268
2427.03	6.31892
2428.42	6.20357
2429.82	5.91742
2431.21	5.92322
2432.6	6.19926
2434	6.32086
2435.39	6.35641
2436.79	6.86265
2438.18	7.25058
2439.57	6.96808
2440.97	7.4176
2442.36	7.31192
2443.75	7.85318
2445.14	7.40931
2446.54	7.22228
2447.93	7.06224
2449.32	6.70756
2450.71	6.9948
2452.1	7.40784
2453.49	7.84984
2454.88	7.99205
2456.27	8.23674
2457.66	7.86909
2459.05	8.12982
2460.44	8.6219
2461.83	7.24042
2463.22	6.7325
2464.61	5.6829
2466	5.87193
2467.39	5.92006
2468.77	5.66451
2470.16	5.39877
2471.55	5.6466
2472.94	5.4807
2474.32	5.1905
2475.71	4.38035
2477.1	4.46839
2478.48	4.98496
2479.87	5.00993
2481.25	4.86934
2482.64	4.05982
2484.02	4.70971
2485.41	4.50822
2486.8	3.7894
2488.18	2.98871
2489.56	2.69206
2490.95	2.27695
2492.33	1.8686
2493.72	1.19264
2495.1	0.109761
2496.48	-0.125235
2497.86	-0.330962
2499.25	-0.770495
2500.63	-1.25021
2502.01	-0.927236
2503.39	-1.16268
2504.77	-0.85359
2506.16	-0.204011
2507.54	-0.165402
2508.92	-0.273386
2510.3	0.195154
2511.68	0.0387503
2513.06	-0.145042
2514.44	-0.0655546
2515.82	0.172411
2517.2	0.858324
2518.58	1.63632
2519.95	2.60398
2521.33	2.48296
2522.71	3.2064
2524.09	3.08053
2525.47	3.48613
2526.84	4.49143
2528.22	4.45867
2529.6	5.01271
2530.98	4.94243
2532.35	5.93261
2533.73	6.94561
2535.11	8.07908
2536.48	8.41003
2537.86	8.24448
2539.23	8.15531
2540.61	8.8346
2541.98	8.32617
2543.36	7.8284
2544.73	8.11022
2546.1	8.77827
2547.48	9.33213
2548.85	9.49671
2550.23	8.89486
2551.6	9.05189
2552.97	8.99138
2554.34	8.01571
2555.72	7.59471
2557.09	7.61629
2558.46	7.87339
2559.83	7.64078
2561.2	7.50528
2562.58	7.04282
2563.95	7.08396
2565.32	6.90342
2566.69	6.39325
2568.06	5.95207
2569.43	6.43786
2570.8	7.32751
2572.17	7.33528
2573.54	7.81093
2574.91	7.73562
2576.27	7.32816
2577.64	7.12863
2579.01	6.83963
2580.38	6.87827
2581.75	7.36337
2583.11	8.47176
2584.48	8.93813
2585.85	9.33917
2587.21	9.85898
2588.58	9.67614
2589.95	10.2546
2591.31	10.5408
2592.68	10.5364
2594.04	11.2955
2595.41	11.4618
2596.78	11.7931
2598.14	12.5667
2599.51	12.3107
2600.87	12.242
2602.23	12.3424
2603.6	12.1725
2604.96	12.5726
2606.32	12.4573
2607.69	12.5671
2609.05	12.8581
2610.41	12.9843
2611.77	13.1961
2613.14	13.603
2614.5	13.5991
2615.86	13.223
2617.22	12.7679
2618.58	12.0763
2619.94	11.9584
2621.3	10.9971
2622.67	11.0086
2624.03	11.1245
2625.39	11.3394
2626.75	11.6636
2628.1	12.0826
2629.46	11.4666
2630.82	10.8235
2632.18	11.0528
2633.54	11.5591
2634.9	11.4086
2636.26	11.8091
2637.61	12.0921
2638.97	11.9397
2640.33	11.2699
2641.69	11.5369
2643.04	11.6442
2644.4	11.6389
2645.76	11.4204
2647.11	11.3602
2648.47	11.6584
2649.82	12.016
2651.18	12.0086
2652.53	11.8914
2653.89	11.2755
2655.24	11.7933
2656.6	11.4335
2657.95	11.7109
2659.31	11.3007
2660.66	11.3132
2662.01	11.4202
2663.37	10.7497
2664.72	10.6799
2666.07	10.6993
2667.43	10.7283
2668.78	10.7894
2670.13	10.8028
2671.48	10.8091
2672.83	11.328
2674.18	10.5945
2675.53	10.4142
2676.89	10.6826
2678.24	10.7537
2679.59	10.2786
2680.94	9.48642
2682.29	9.52745
2683.64	8.86753
2684.99	8.8262
2686.34	8.9293
2687.68	8.89612
2689.03	8.90198
2690.38	9.49076
2691.73	9.51351
2693.08	9.65378
2694.43	10.1039
2695.77	9.899
2697.12	9.71471
2698.47	10.5322
2699.81	11.2232
2701.16	12.2273
2702.51	12.0036
2703.85	12.336
2705.2	12.3178
2706.54	13.1466
2707.89	12.9462
2709.23	13.4613
2710.58	13.1841
2711.92	12.7721
2713.27	12.5482
2714.61	12.5458
2715.96	13.1973
2717.3	13.1885
2718.64	13.5284
2719.99	13.4571
2721.33	12.8223
2722.67	12.7843
2724.01	12.2431
2725.36	11.8445
2726.7	11.6278
2728.04	11.2331
2729.38	11.3551
2730.72	11.1394
2732.06	11.4356
2733.41	11.8758
2734.75	11.0703
2736.09	10.8206
2737.43	10.2683
2738.77	10.1599
2740.11	9.59241
2741.44	9.30575
2742.78	9.44604
2744.12	9.47913
2745.46	8.59845
2746.8	7.72583
2748.14	7.72639
2749.48	7.96064
2750.81	7.71368
2752.15	7.44257
2753.49	6.74451
2754.83	6.00866
2756.16	5.76226
2757.5	5.70022
2758.84	5.96423
2760.17	6.31074
2761.51	5.99945
2762.84	6.18971
2764.18	6.28042
2765.51	6.46509
2766.85	6.34427
2768.18	6.74625
2769.52	6.38087
2770.85	6.28101
2772.19	6.40662
2773.52	6.36897
2774.85	5.74517
2776.19	5.66843
2777.52	5.97302
2778.85	6.20004
2780.18	5.83029
2781.52	5.53777
2782.85	5.52429
2784.18	4.95097
2785.51	4.33839
2786.84	3.68309
2788.17	3.48767
2789.51	3.28898
2790.84	3.00276
2792.17	2.73705
2793.5	2.2517
2794.83	1.94629
2796.16	2.37493
2797.48	2.53456
2798.81	2.59335
2800.14	2.18388
2801.47	1.37515
2802.8	1.56243
2804.13	1.10019
2805.46	1.06815
2806.79	1.0254
2808.11	1.35276
2809.44	0.722693
2810.77	0.549004
2812.09	0.327506
2813.42	0.770324
2814.75	1.86853
2816.07	2.9867
2817.4	3.91281
2818.73	5.56533
2820.05	6.80507
2821.38	9.30157
2822.7	11.553
2824.03	13.6404
2825.35	15.993
2826.67	18.6127
2828	21.1408
2829.32	24.5713
2830.65	27.5383
2831.97	31.2719
2833.29	34.5801
2834.62	38.4363
2835.94	41.8968
2837.26	45.8812
2838.58	49.6566
2839.9	53.0343
2841.23	56.4776
2842.55	59.4736
2843.87	63.0736
2845.19	65.385
2846.51	68.587
2847.83	72.2084
2849.15	76.1339
2850.47	79.3513
2851.79	83.1197
2853.11	87.0776
2854.43	90.6129
2855.75	93.9614
2857.07	97.2025
2858.39	100.993
2859.71	104.107
2861.02	107.626
2862.34	110.736
2863.66	113.174
2864.98	115.739
2866.3	117.42
2867.61	119.81
2868.93	121.617
2870.25	123.36
2871.56	124.679
2872.88	126.215
2874.19	127.879
2875.51	129.206
2876.83	130.933
2878.14	132.636
2879.46	134.295
2880.77	136.226
2882.09	138.193
2883.4	139.341
2884.71	140.785
2886.03	142.329
2887.34	143.89
2888.65	144.496
2889.97	146.196
2891.28	147.553
2892.59	148.544
2893.91	150.352
2895.22	152.501
2896.53	154.016
2897.84	155.865
2899.15	157.902
2900.46	159.879
2901.78	161.48
2903.09	164.323
2904.4	166.667
2905.71	169.669
2907.02	172.209
2908.33	175.002
2909.64	179.128
2910.95	182.719
2912.26	187.054
2913.57	191.041
2914.87	194.29
2916.18	197.639
2917.49	202.11
2918.8	205.541
2920.11	208.871
2921.42	211.824
2922.72	214.552
2924.03	217.543
2925.34	219.642
2926.64	221.771
2927.95	223.44
2929.26	224.663
2930.56	225.538
2931.87	225.774
2933.17	226.256
2934.48	225.642
2935.78	224.78
2937.09	223.305
2938.39	222.116
2939.7	220.332
2941	218.006
2942.31	215.583
2943.61	212.578
2944.91	208.939
2946.22	205.324
2947.52	201.365
2948.82	197.016
2950.13	192.814
2951.43	188.313
2952.73	182.845
2954.03	178.074
2955.33	173.347
2956.64	167.928
2957.94	162.944
2959.24	158.35
2960.54	153.253
2961.84	147.804
2963.14	142.951
2964.44	137.94
2965.74	132.591
2967.04	128.252
2968.34	124.589
2969.64	120.215
2970.94	115.664
2972.24	111.015
2973.53	106.974
2974.83	102.814
2976.13	98.9907
2977.43	95.0283
2978.73	90.7621
2980.02	86.4233
2981.32	83.0241
2982.62	79.5373
2983.91	75.0696
2985.21	71.1119
2986.51	67.2056
2987.8	63.5581
2989.1	60.4034
2990.4	57.5249
2991.69	54.7045
2992.99	51.4226
2994.28	48.6149
2995.57	45.897
2996.87	42.7682
2998.16	39.827
2999.46	37.217
3000.75	34.2807
3002.05	32.0459
3003.34	29.8603
3004.63	27.9136
3005.92	25.7493
3007.22	23.2706
3008.51	21.22
3009.8	18.6915
3011.09	16.8769
3012.39	15.447
3013.68	13.6388
3014.97	12.0861
3016.26	10.6747
3017.55	9.64737
3018.84	8.36996
3020.13	7.64691
3021.42	6.37498
3022.71	5.43199
3024	4.87441
3025.29	4.25339
3026.58	3.20538
3027.87	2.48177
3029.16	1.99265
3030.45	1.47537
3031.73	1.82115
3033.02	1.65142
3034.31	1.68382
3035.6	1.50303
3036.89	2.22476
3038.17	2.04566
3039.46	2.19093
3040.75	2.76669
3042.03	2.23799
3043.32	2.23098
3044.61	1.88073
3045.89	2.05938
3047.18	2.09744
3048.46	2.37266
3049.75	2.5611
3051.03	2.88899
3052.32	3.62091
3053.6	4.08201
3054.89	4.16768
3056.17	3.76253
3057.45	2.73833
3058.74	2.70894
3060.02	2.82922
3061.31	2.92917
3062.59	2.94459
3063.87	2.80426
3065.15	2.53483
3066.44	2.82615
3067.72	3.05423
3069	3.46974
3070.28	3.26771
3071.56	3.41361
3072.84	3.19153
3074.13	2.41714
3075.41	2.27312
3076.69	2.1653
3077.97	1.8334
3079.25	1.8992
3080.53	2.13446
3081.81	2.00804
3083.09	2.03541
3084.37	2.26053
3085.64	2.00136
3086.92	2.45335
3088.2	3.12731
3089.48	3.43449
3090.76	3.47313
3092.04	3.85402
3093.31	4.11252
3094.59	3.89904
3095.87	4.52345
3097.14	4.80487
3098.42	5.20183
3099.7	5.63157
3100.97	6.25457
3102.25	6.29182
3103.53	6.7015
3104.8	7.07683
3106.08	7.32734
3107.35	7.80479
3108.63	8.35883
3109.9	9.69561
3111.18	10.1129
3112.45	11.4693
3113.73	11.7696
3115	12.8223
3116.27	13.502
3117.55	13.5726
3118.82	14.1024
3120.09	14.9175
3121.37	15.8328
3122.64	17.3219
3123.91	18.6782
3125.18	19.3312
3126.45	19.8883
3127.73	21.0888
3129	22.7065
3130.27	23.8799
3131.54	25.0008
3132.81	25.9245
3134.08	26.0529
3135.35	26.7432
3136.62	26.5772
3137.89	27.2479
3139.16	28.1618
3140.43	29.0881
3141.7	29.763
3142.97	30.2462
3144.24	30.5846
3145.51	30.7548
3146.78	30.6393
3148.04	30.0675
3149.31	28.6817
