#Acq. time (s)=	45
#Accumulations=	2
#Range (cm-¹)=	200...3150
#Windows=	2
#Auto scanning=	Off
#Autofocus=	Off
#Macrospot=	Off
#AutoExposure=	Off
#Spike filter=	Multiple accum.
#Delay time (s)=	0
#Binning=	1
#Readout mode=	Signal
#DeNoise=	Off
#ICS correction=	On
#Dark correction=	Off
#Inst. Process=	Off
#Detector Gain=	Best Dynamic Range
#Detector ADC=	20 kHz       
#Detector temperature (°C)=	-69.85
#Instrument=	LabRAM HR Evol
#Detector=	Synapse
#Objective=	x100
#Grating=	600 gr/mm
#ND Filter=	100%
#Laser (nm)=	532 
#Hole=	100.021
#Range=	Auto
#Laser Pol.=	No
#Raman. Pol.=	No
#Laser Pol. (°)=	-0.0007625
#Raman Pol. (°)=	89.9995
#Collection=	Microscope
#StageXY=	Marzhauser
#StageZ=	Marzhauser
#X (µm)=	-1149.5
#Y (µm)=	682.7
#Z (µm)=	584.8
#Full time(mm:ss)=	3:18
#Project=	
#Sample=	
#Site=	
#Title=	Mb_40_y_47_2x_45s_532 nm_x100_100%_600 gr_mm
#Remark=	
#Date=	19.07.2022 13:30
#Acquired=	19.07.2022 13:30:00
#Base:Fit=	10.08.2022 10:52:48
#Base:Sub=	10.08.2022 10:52:53
#Filter:Polynom=	16.08.2022 10:09:04
#AxisType[0]=Intens
#AxisUnit[0]=Cnt
#AxisType[1]=Spectr
#AxisUnit[1]=1/cm
200.423	26.276
202.238	26.6264
204.052	25.3852
205.868	24.0791
207.682	22.2046
209.495	19.9185
211.308	17.8343
213.12	16.8327
214.935	15.7388
216.746	14.9166
218.558	15.3372
220.369	13.7096
222.18	12.0067
223.992	11.0733
225.802	9.90644
227.612	7.97318
229.421	7.31423
231.23	6.52391
233.039	6.14458
234.849	6.28612
236.657	5.54768
238.465	5.94188
240.272	6.36092
242.079	6.09852
243.885	5.85178
245.691	6.17204
247.497	5.40992
249.305	4.13122
251.11	3.63475
252.915	3.24196
254.719	3.91812
256.523	6.05004
258.327	6.5239
260.13	7.74224
261.933	8.23829
263.736	8.7522
265.538	9.56587
267.34	9.65848
269.141	9.08804
270.943	8.82596
272.744	9.80253
274.544	9.12126
276.344	8.31345
278.144	8.7257
279.944	8.44822
281.743	8.91852
283.542	8.8448
285.34	8.23057
287.138	6.9982
288.936	7.78772
290.733	7.40631
292.53	7.03611
294.327	6.99693
296.123	6.89118
297.919	6.57218
299.715	7.04172
301.508	8.47081
303.303	8.7189
305.098	8.23266
306.892	7.99429
308.686	7.35056
310.479	5.65094
312.273	5.54122
314.065	6.29227
315.858	6.3729
317.648	6.76251
319.44	7.49884
321.231	7.70637
323.022	8.13933
324.813	8.02231
326.604	8.13199
328.392	7.96471
330.181	7.90236
331.971	7.77987
333.76	7.89998
335.548	9.33719
337.335	9.17128
339.123	9.98203
340.91	11.5994
342.698	11.9292
344.483	13.3247
346.269	12.7873
348.055	11.9024
349.841	12.5715
351.625	12.6499
353.41	12.2982
355.195	11.3839
356.977	11.0539
358.762	11.4349
360.545	11.5847
362.329	11.7943
364.11	10.9074
365.893	12.1533
367.675	12.5456
369.455	12.9301
371.237	13.5489
373.017	13.5082
374.798	13.8126
376.578	14.0761
378.357	14.6588
380.137	13.9534
381.917	13.7673
383.694	14.3042
385.473	14.5965
387.249	15.3988
389.028	15.6707
390.806	15.8363
392.581	14.9881
394.359	15.5375
396.134	15.261
397.91	14.5681
399.684	14.3785
401.46	14.0762
403.234	13.3725
405.009	12.6116
406.784	11.4232
408.557	10.2732
410.331	10.0823
412.103	9.51726
413.876	9.25129
415.647	9.0803
417.42	7.95295
419.191	8.59246
420.961	8.52413
422.733	8.43438
424.502	8.8887
426.273	8.82829
428.042	9.40467
429.812	9.53881
431.58	8.29048
433.35	7.18503
435.118	6.04418
436.885	6.02647
438.653	5.67188
440.42	5.33268
442.188	4.59968
443.954	4.85487
445.719	5.81517
447.486	5.86563
449.251	5.18831
451.015	5.5254
452.781	5.42628
454.545	7.14128
456.308	6.11164
458.073	6.38102
459.836	6.32406
461.598	7.22866
463.362	7.69466
465.124	7.75241
466.885	7.66023
468.648	9.34587
470.408	10.8521
472.169	11.2347
473.929	11.3425
475.69	11.7664
477.45	11.675
479.208	12.9638
480.967	14.1311
482.727	14.9083
484.485	14.9388
486.243	14.6905
488	16.0039
489.759	17.0356
491.515	18.1133
493.272	19.7875
495.028	20.8884
496.783	22.1385
498.54	23.9724
500.295	24.7374
502.05	25.7867
503.804	26.083
505.558	27.5426
507.311	28.6001
509.064	30.1011
510.819	30.9562
512.572	32.0463
514.324	32.6924
516.076	32.807
517.827	33.3255
519.578	32.5852
521.329	32.5044
523.08	31.3067
524.83	31.8837
526.58	32.1385
528.329	31.2358
530.08	31.5559
531.829	31.5091
533.578	30.2891
535.326	29.6862
537.074	29.1432
538.821	27.6228
540.568	27.5284
542.315	27.2977
544.062	25.5468
545.808	25.9063
547.554	24.6679
549.299	23.9449
551.044	22.9617
552.789	21.2785
554.533	20.5532
556.278	18.691
558.019	16.8872
559.763	15.4555
561.506	15.0654
563.249	15.3208
564.991	15.9653
566.733	15.285
568.475	14.8879
570.217	14.0894
571.958	14.0134
573.699	14.8131
575.439	15.7239
577.177	15.3196
578.917	16.0702
580.656	17.1369
582.396	17.1164
584.134	16.7314
585.873	16.9543
587.609	17.2896
589.347	16.905
591.084	16.428
592.822	16.3541
594.558	15.642
596.295	15.6509
598.029	14.6955
599.765	14.1335
601.5	13.0499
603.235	12.7682
604.968	12.65
606.703	12.9601
608.437	12.7389
610.171	12.6548
611.902	13.5405
613.635	12.1766
615.368	11.5646
617.099	12.1725
618.831	10.4941
620.563	9.54458
622.294	9.45743
624.024	9.12416
625.755	8.99599
627.485	10.3664
629.213	9.04797
630.943	7.64667
632.673	7.28452
634.4	6.85431
636.129	6.61889
637.855	6.05138
639.584	4.91018
641.312	5.19218
643.037	5.06211
644.764	5.94095
646.491	5.64976
648.216	6.64522
649.942	8.31828
651.666	8.94594
653.392	9.65203
655.115	10.6026
656.84	10.9961
658.563	12.2745
660.287	13.8069
662.011	14.0618
663.732	15.1638
665.456	16.6838
667.177	16.5094
668.899	16.7952
670.62	17.4442
672.342	18.0538
674.061	18.9948
675.781	18.8599
677.502	19.9135
679.22	20.3855
680.941	21.6763
682.659	22.3229
684.379	22.52
686.096	23.1592
687.815	23.555
689.532	24.1215
691.248	24.4292
692.966	24.8687
694.682	24.2476
696.4	23.9749
698.115	24.2638
699.829	24.2318
701.546	26.5273
703.26	26.8277
704.974	27.8365
706.689	29.9187
708.402	31.2426
710.115	33.1584
711.83	34.7167
713.542	35.1431
715.254	35.9718
716.967	37.181
718.679	38.1045
720.39	39.3733
722.102	39.0074
723.812	39.979
725.522	39.7228
727.232	40.3318
728.943	41.6168
730.652	41.9083
732.361	42.8416
734.069	44.769
735.779	45.6153
737.487	45.1275
739.194	45.0886
740.901	44.9776
742.608	46.1214
744.316	47.0692
746.022	48.485
747.728	50.0245
749.433	51.1994
751.138	52.2424
752.843	53.2177
754.549	55.5741
756.254	55.885
757.957	56.3355
759.661	56.5236
761.364	57.0371
763.067	57.6734
764.769	57.2896
766.471	57.6236
768.175	57.8002
769.877	56.9483
771.578	57.9584
773.279	57.7513
774.98	58.5118
776.68	59.5315
778.38	60.7491
780.079	61.4677
781.779	62.3361
783.478	63.5897
785.176	64.4084
786.875	66.5225
788.573	67.6674
790.27	69.564
791.968	69.0623
793.665	69.2071
795.361	69.4282
797.058	70.3592
798.754	70.0181
800.45	70.1197
802.145	69.7764
803.84	70.8692
805.535	71.9958
807.23	71.2056
808.922	71.5356
810.616	71.1314
812.309	71.3415
814.002	71.0552
815.695	69.6712
817.388	69.5019
819.08	68.4086
820.772	67.8971
822.464	66.9699
824.153	67.2167
825.844	67.6227
827.535	67.851
829.225	66.7454
830.915	66.2321
832.605	65.6908
834.292	64.274
835.981	63.756
837.67	62.3604
839.359	60.8392
841.047	57.6094
842.732	56.0154
844.42	54.6529
846.107	54.5836
847.794	54.1322
849.479	52.883
851.165	52.4718
852.851	51.8804
854.534	49.1677
856.22	49.0787
857.905	48.1353
859.589	46.4459
861.272	44.9352
862.956	44.1394
864.639	43.8095
866.321	43.2519
868.004	43.3925
869.687	43.1101
871.367	43.0803
873.049	42.6495
874.731	40.7639
876.41	39.4893
878.092	39.786
879.771	39.1341
881.451	39.9581
883.131	40.1056
884.809	40.971
886.489	42.5532
888.166	42.4148
889.845	41.9113
891.522	40.826
893.2	40.8096
894.878	40.4151
896.554	40.1222
898.231	40.0866
899.906	41.0139
901.583	40.6618
903.258	40.9334
904.934	40.2151
906.608	39.8352
908.283	40.2229
909.956	40.3482
911.631	40.6479
913.304	39.8128
914.976	39.966
916.65	40.8171
918.322	39.972
919.995	39.886
921.666	39.6234
923.339	39.1996
925.009	39.7739
926.679	40.9863
928.351	41.1313
930.021	41.1197
931.692	41.872
933.361	40.498
935.029	40.256
936.699	40.2772
938.367	39.6243
940.035	39.9381
941.704	38.7162
943.371	38.0014
945.038	37.6706
946.706	37.9121
948.372	36.6533
950.038	36.2435
951.705	35.7677
953.37	35.3997
955.035	35.9985
956.7	35.2427
958.366	33.9669
960.03	33.2601
961.693	33.8358
963.357	33.8818
965.021	35.1081
966.684	34.445
968.346	33.9241
970.008	33.3439
971.67	32.9712
973.334	33.1726
974.995	32.0278
976.655	32.4495
978.316	32.4065
979.976	31.9073
981.638	31.46
983.297	31.7654
984.957	30.3554
986.616	30.6265
988.274	29.905
989.932	30.6474
991.59	29.8391
993.248	28.9886
994.907	26.4228
996.565	23.6622
998.221	21.7656
999.878	18.9691
1001.53	16.9098
1003.19	15.6609
1004.85	15.1523
1006.5	16.8846
1008.16	21.5211
1009.81	27.0745
1011.46	34.9632
1013.12	45.7026
1014.77	57.5672
1016.43	68.9672
1018.08	81.7127
1019.73	94.2812
1021.38	105.877
1023.04	116.742
1024.69	128.09
1026.34	139.566
1027.99	149.791
1029.64	159.193
1031.29	167.041
1032.94	175.062
1034.59	181.65
1036.24	187.59
1037.89	191.614
1039.54	194.755
1041.19	198.015
1042.84	200.372
1044.48	202.489
1046.13	202.452
1047.78	202.047
1049.42	199.527
1051.07	197.622
1052.72	193.919
1054.36	189.192
1056.01	182.969
1057.66	176.773
1059.3	169.554
1060.94	161.411
1062.59	151.197
1064.23	141.87
1065.88	131.574
1067.52	120.096
1069.16	108.552
1070.81	96.3585
1072.45	82.6603
1074.09	69.4618
1075.73	56.3248
1077.38	43.9609
1079.02	33.3988
1080.66	23.1087
1082.3	14.6647
1083.94	8.4166
1085.58	3.57015
1087.22	2.39496
1088.86	4.41295
1090.5	6.22873
1092.13	8.85955
1093.77	12.4388
1095.41	16.1344
1097.05	18.2599
1098.68	20.4729
1100.32	22.5259
1101.96	23.849
1103.6	25.2473
1105.23	25.9966
1106.87	27.6315
1108.5	28.8068
1110.14	29.3973
1111.77	29.0124
1113.41	29.1092
1115.04	28.9494
1116.67	29.6412
1118.31	28.9797
1119.94	29.5424
1121.58	29.8535
1123.21	30.015
1124.84	29.5242
1126.47	29.6883
1128.1	28.6142
1129.73	27.7463
1131.37	26.2389
1133	25.3872
1134.63	24.6373
1136.26	23.7919
1137.89	22.8875
1139.52	21.9909
1141.14	19.7337
1142.77	17.5814
1144.4	16.1321
1146.03	16.0627
1147.66	13.9872
1149.29	13.3754
1150.91	11.8727
1152.54	10.046
1154.17	7.75456
1155.79	6.03412
1157.42	4.51671
1159.04	3.37299
1160.67	1.88366
1162.3	0.335637
1163.92	0.146525
1165.55	-1.71599
1167.17	-1.9208
1168.79	-0.680042
1170.42	0.422889
1172.04	0.728329
1173.66	1.23439
1175.28	1.11302
1176.91	0.880296
1178.53	0.508525
1180.15	1.37118
1181.77	2.86235
1183.39	2.62846
1185.01	3.99448
1186.63	4.24372
1188.25	4.84986
1189.87	5.52887
1191.49	5.53557
1193.11	6.20259
1194.73	5.48822
1196.35	6.23843
1197.97	7.40542
1199.59	7.8081
1201.2	9.34153
1202.82	10.3014
1204.44	11.8028
1206.05	12.7308
1207.67	12.9885
1209.29	12.5599
1210.9	13.4117
1212.52	14.5889
1214.13	16.3672
1215.75	17.5673
1217.36	19.6462
1218.97	21.0538
1220.59	22.6227
1222.2	23.9584
1223.82	24.8936
1225.43	27.9051
1227.04	29.3946
1228.65	30.9289
1230.26	33.1587
1231.88	34.59
1233.49	36.2335
1235.1	37.7019
1236.71	40.1312
1238.32	42.538
1239.93	45.4418
1241.54	47.3864
1243.15	49.4131
1244.76	51.1756
1246.37	53.0493
1247.97	56.6395
1249.58	59.026
1251.19	60.693
1252.8	62.3776
1254.41	63.3002
1256.01	64.3783
1257.62	65.933
1259.23	67.3512
1260.83	70.4418
1262.44	72.8532
1264.04	73.1061
1265.65	75.8513
1267.25	76.7624
1268.86	78.8034
1270.46	80.6734
1272.07	81.2942
1273.67	83.0407
1275.27	83.3883
1276.88	84.4107
1278.48	86.2184
1280.08	86.4254
1281.68	87.4147
1283.28	88.2202
1284.89	88.8399
1286.49	88.6661
1288.09	88.1788
1289.69	89.6646
1291.29	90.8486
1292.89	91.9316
1294.49	92.8368
1296.09	93.2288
1297.69	94.4178
1299.29	93.7299
1300.88	94.3238
1302.48	94.5482
1304.08	94.2024
1305.68	94.5745
1307.27	95.4628
1308.87	96.5221
1310.47	96.9319
1312.06	96.9605
1313.66	97.5211
1315.25	98.7131
1316.85	99.1761
1318.44	98.311
1320.04	98.5539
1321.63	97.8615
1323.23	97.752
1324.82	97.771
1326.41	97.6353
1328.01	96.5986
1329.6	94.7327
1331.19	93.6065
1332.78	92.0741
1334.38	91.2446
1335.97	89.8067
1337.56	89.0482
1339.15	88.2601
1340.74	87.6073
1342.33	85.5475
1343.92	83.6405
1345.51	82.7708
1347.1	79.5528
1348.69	78.8979
1350.28	77.6739
1351.87	75.5123
1353.46	74.3778
1355.04	73.0268
1356.63	70.7639
1358.22	69.3511
1359.81	67.3194
1361.39	66.12
1362.98	64.9148
1364.57	63.9224
1366.15	62.6152
1367.74	61.1852
1369.32	60.049
1370.91	57.8898
1372.49	56.8629
1374.07	56.3159
1375.66	55.8406
1377.24	54.6722
1378.83	54.308
1380.41	54.2688
1381.99	53.7751
1383.57	54.1179
1385.16	55.0726
1386.74	56.0163
1388.32	56.1436
1389.9	56.1891
1391.48	56.8914
1393.06	58.8721
1394.64	58.6582
1396.22	59.2173
1397.8	60.0754
1399.38	61.3054
1400.96	62.464
1402.54	63.5894
1404.12	65.175
1405.7	65.8275
1407.28	67.3562
1408.85	69.5568
1410.43	72.368
1412.01	74.874
1413.58	78.0135
1415.16	79.3243
1416.74	82.0263
1418.31	85.2965
1419.89	88.216
1421.46	91.212
1423.04	94.2635
1424.61	97.0434
1426.19	100.697
1427.76	105.504
1429.33	108.936
1430.91	111.501
1432.48	114.581
1434.05	117.896
1435.63	120.056
1437.2	122.531
1438.77	124.852
1440.34	127.424
1441.91	129.24
1443.49	129.962
1445.05	130.608
1446.63	129.958
1448.2	130.195
1449.77	130.405
1451.34	130.461
1452.91	129.532
1454.47	128.539
1456.04	126.318
1457.61	125.63
1459.18	123.938
1460.75	121.795
1462.31	119.992
1463.88	117.827
1465.45	115.795
1467.01	113.324
1468.58	111.319
1470.15	108.614
1471.71	105.812
1473.28	101.315
1474.84	98.3213
1476.41	94.3644
1477.97	91.2161
1479.54	88.107
1481.1	84.622
1482.66	80.6957
1484.23	77.036
1485.79	74.4312
1487.35	70.8531
1488.91	67.145
1490.48	63.5115
1492.04	60.6601
1493.6	57.3708
1495.16	55.1851
1496.72	52.7643
1498.28	49.5357
1499.84	46.9719
1501.4	45.5673
1502.96	43.9483
1504.52	42.4963
1506.08	40.932
1507.64	39.4123
1509.2	37.5572
1510.76	36.5995
1512.31	35.1503
1513.87	33.8536
1515.43	31.9896
1516.99	31.5223
1518.54	31.9239
1520.1	30.7576
1521.66	30.3569
1523.21	29.6243
1524.77	28.7019
1526.32	28.6879
1527.88	28.6254
1529.43	28.0671
1530.99	28.0241
1532.54	28.2625
1534.09	28.3278
1535.65	29.3811
1537.2	28.6554
1538.75	30.178
1540.31	31.9118
1541.86	34.041
1543.41	35.2809
1544.96	35.8328
1546.51	36.8774
1548.06	37.161
1549.62	37.7028
1551.17	37.8128
1552.72	39.5428
1554.27	41.3621
1555.82	42.5996
1557.36	42.7676
1558.91	44.0136
1560.46	45.6459
1562.01	47.2893
1563.56	48.6392
1565.11	49.5902
1566.66	51.9755
1568.2	53.5188
1569.75	54.9928
1571.3	56.2055
1572.84	58.2338
1574.39	59.9909
1575.93	61.0751
1577.48	62.5797
1579.02	64.4416
1580.57	65.4817
1582.11	66.7595
1583.66	68.2098
1585.2	68.7438
1586.75	69.6016
1588.29	71.0208
1589.83	71.6847
1591.38	72.7823
1592.92	73.5919
1594.46	74.9995
1596	75.9672
1597.54	74.7477
1599.09	74.259
1600.63	73.746
1602.17	74.2172
1603.71	73.9021
1605.25	73.6535
1606.79	72.2621
1608.33	71.2934
1609.87	70.6581
1611.41	70.6922
1612.95	70.6588
1614.48	70.1612
1616.02	71.2391
1617.56	71.1817
1619.1	71.5171
1620.64	71.8708
1622.17	71.8986
1623.71	71.8442
1625.25	71.9808
1626.78	73.2768
1628.32	74.615
1629.86	75.2925
1631.39	76.3488
1632.92	77.601
1634.46	78.108
1635.99	79.18
1637.53	80.6428
1639.06	81.4132
1640.59	81.4959
1642.13	82.4924
1643.66	84.0429
1645.19	84.8686
1646.73	85.6061
1648.26	86.5491
1649.79	86.787
1651.32	86.3679
1652.85	86.0889
1654.38	87.198
1655.92	86.3338
1657.45	85.4839
1658.98	85.0715
1660.51	84.471
1662.04	83.7084
1663.57	83.5373
1665.09	82.9315
1666.62	81.3218
1668.15	79.9942
1669.68	79.0414
1671.21	76.7732
1672.73	74.2174
1674.26	71.0009
1675.79	69.8133
1677.31	67.6408
1678.84	64.107
1680.37	60.8933
1681.89	58.891
1683.42	55.575
1684.94	53.3813
1686.47	51.911
1687.99	49.7558
1689.52	47.0419
1691.04	44.7267
1692.57	43.4965
1694.09	41.5582
1695.61	39.5756
1697.14	37.6955
1698.66	34.6233
1700.18	33.1292
1701.7	31.6255
1703.22	30.2277
1704.75	27.629
1706.27	25.3158
1707.79	24.4893
1709.31	22.8053
1710.83	20.4672
1712.35	19.8186
1713.87	19.3296
1715.39	17.319
1716.91	16.2903
1718.43	15.9254
1719.95	16.0429
1721.46	14.945
1722.98	13.9338
1724.5	13.3306
1726.02	12.0755
1727.53	11.0555
1729.05	10.8365
1730.57	9.96711
1732.08	8.89213
1733.6	9.21006
1735.12	8.87766
1736.63	8.32557
1738.15	7.88744
1739.66	7.16121
1741.18	6.71334
1742.69	6.28351
1744.21	6.33495
1745.72	6.25136
1747.23	5.4858
1748.74	5.35544
1750.26	5.16998
1751.77	5.76421
1753.28	5.28343
1754.8	4.85171
1756.31	5.6937
1757.82	5.65697
1759.33	4.61479
1760.84	5.08854
1762.35	4.95187
1763.86	4.61783
1765.37	4.60962
1766.88	5.03289
1768.39	4.96481
1769.9	4.12318
1771.41	4.27187
1772.92	3.53721
1774.43	3.38737
1775.93	3.65427
1777.44	3.1516
1778.95	2.53334
1780.46	2.04807
1781.96	2.15841
1783.47	2.24597
1784.98	1.9733
1786.48	2.19318
1787.99	2.56059
1789.49	2.26275
1791	1.73623
1792.5	1.96562
1794.01	2.33554
1795.51	2.9189
1797.02	2.22129
1798.52	2.15966
1800.03	1.68877
1801.53	1.23484
1803.03	0.753423
1804.53	1.1062
1806.04	0.946901
1807.54	1.21301
1809.04	0.316901
1810.54	-0.0419056
1812.04	-0.122854
1813.54	-0.135868
1815.05	-0.316669
1816.55	0.464328
1818.05	0.700149
1819.55	0.832689
1821.05	0.802971
1822.55	0.896594
1824.05	0.810226
1825.54	0.769326
1827.04	0.997129
1828.54	0.683606
1830.04	0.822152
1831.54	0.598715
1833.03	-0.118984
1834.53	-0.0384894
1836.03	0.239853
1837.52	0.741276
1839.02	1.48359
1840.52	2.07503
1842.01	2.96838
1843.51	2.99937
1845	3.47214
1846.5	3.97592
1847.99	4.06863
1849.49	4.79723
1850.98	5.39579
1852.47	5.80819
1853.97	6.46851
1855.46	6.54678
1856.95	7.24965
1858.45	8.25023
1859.94	8.84993
1861.43	9.64499
1862.92	9.83076
1864.41	9.95045
1865.91	9.83309
1867.4	10.4328
1868.89	10.6692
1870.38	10.5013
1871.87	10.4845
1873.36	9.43445
1874.85	9.07945
1876.34	9.2304
1877.83	9.22122
1879.31	9.44993
1880.8	8.33311
1882.29	7.76504
1882.56	7.35798
1884.05	7.744
1885.54	7.16743
1887.04	6.65887
1888.53	5.93698
1890.03	6.29388
1891.52	5.51465
1893.01	5.14388
1894.5	4.3346
1895.99	3.66868
1897.49	2.72112
1898.98	1.89958
1900.47	2.02167
1901.96	1.0848
1903.45	0.784062
1904.94	-0.299775
1906.43	-0.533095
1907.92	0.149064
1909.41	0.231183
1910.9	0.374627
1912.39	0.297095
1913.88	0.392378
1915.37	-0.162037
1916.86	-0.22982
1918.35	0.218924
1919.84	0.365776
1921.32	0.801752
1922.81	0.919953
1924.3	1.59452
1925.78	1.31968
1927.27	1.55325
1928.76	1.41906
1930.24	1.89413
1931.73	2.85306
1933.21	2.61269
1934.7	3.08688
1936.18	2.9917
1937.67	3.22872
1939.15	3.63761
1940.64	4.11097
1942.12	3.73522
1943.6	4.15633
1945.09	4.5039
1946.57	3.9794
1948.05	5.34312
1949.54	5.62519
1951.02	4.84284
1952.5	4.28096
1953.98	3.95497
1955.46	4.61049
1956.94	4.2674
1958.42	3.85845
1959.91	3.10153
1961.39	3.21714
1962.87	3.66224
1964.34	4.22062
1965.82	3.98848
1967.3	3.8263
1968.78	3.47477
1970.26	3.53782
1971.74	3.73046
1973.22	3.47737
1974.7	3.80092
1976.17	3.13798
1977.65	3.11398
1979.13	2.34462
1980.6	2.85608
1982.08	3.05254
1983.56	2.40295
1985.03	2.64662
1986.51	2.43344
1987.98	2.7993
1989.46	2.61973
1990.93	3.44313
1992.41	4.05467
1993.88	4.29135
1995.36	4.15495
1996.83	3.39172
1998.3	3.62185
1999.78	3.39887
2001.25	3.97
2002.72	4.1497
2004.2	4.61793
2005.67	5.13814
2007.14	4.5974
2008.61	4.78816
2010.08	4.54802
2011.55	4.82742
2013.02	5.30792
2014.49	5.13271
2015.97	5.0607
2017.43	5.35352
2018.9	5.36074
2020.37	4.88403
2021.84	4.78074
2023.31	4.89891
2024.78	4.69791
2026.25	5.10943
2027.72	5.23106
2029.19	5.61204
2030.65	5.10177
2032.12	5.34333
2033.59	6.07797
2035.05	6.75529
2036.52	7.34676
2037.98	8.4371
2039.45	8.8599
2040.92	9.20569
2042.38	9.58178
2043.85	10.2529
2045.31	10.8834
2046.78	11.4382
2048.24	12.1883
2049.71	12.5266
2051.17	13.4746
2052.63	14.0075
2054.1	14.563
2055.56	14.8847
2057.02	15.9947
2058.48	17.4728
2059.95	17.2072
2061.41	17.8843
2062.87	18.2996
2064.33	18.4757
2065.79	19.1753
2067.25	18.7656
2068.71	18.5542
2070.17	19.4958
2071.63	20.7328
2073.09	20.9593
2074.55	21.7449
2076.01	23.0559
2077.47	23.7658
2078.93	24.3306
2080.39	24.8527
2081.85	26.4096
2083.3	27.7655
2084.76	29.0188
2086.22	29.9252
2087.68	30.7784
2089.13	31.7281
2090.59	32.8474
2092.05	33.5689
2093.5	35.2122
2094.96	36.4546
2096.41	38.1821
2097.87	39.4187
2099.32	40.9557
2100.78	43.1499
2102.23	45.1432
2103.69	47.0959
2105.14	49.039
2106.59	50.6381
2108.05	52.1866
2109.5	54.1591
2110.95	55.9493
2112.41	56.5468
2113.86	58.2297
2115.31	59.3848
2116.76	61.3005
2118.21	63.1682
2119.67	65.0571
2121.12	66.3939
2122.57	68.0081
2124.02	70.3784
2125.47	71.9792
2126.92	73.4267
2128.37	76.1756
2129.82	78.7417
2131.27	80.173
2132.71	81.4009
2134.16	83.8406
2135.61	85.4055
2137.06	86.664
2138.51	88.9769
2139.95	90.8243
2141.4	92.5668
2142.85	94.4664
2144.29	96.2566
2145.74	98.0324
2147.19	100.887
2148.63	102.484
2150.08	103.145
2151.52	104.516
2152.97	106.143
2154.42	108.535
2155.86	109.721
2157.3	110.513
2158.75	111.451
2160.19	112.118
2161.64	112.776
2163.08	114
2164.52	115.146
2165.96	116.568
2167.41	117.124
2168.85	118.077
2170.29	117.922
2171.73	117.672
2173.17	117.62
2174.61	116.96
2176.06	116.811
2177.5	115.762
2178.94	115.157
2180.38	114.537
2181.82	113.14
2183.26	111.932
2184.7	111.122
2186.14	110.524
2187.57	109.226
2189.01	108.012
2190.45	106.595
2191.89	105.091
2193.33	103.006
2194.76	101.672
2196.2	100.516
2197.64	98.3544
2199.08	95.5513
2200.51	94.8959
2201.95	93.5264
2203.38	90.8536
2204.82	88.5296
2206.25	86.3519
2207.69	84.1069
2209.12	82.0704
2210.56	80.2605
2211.99	77.8372
2213.43	74.8675
2214.86	73.4469
2216.3	71.6682
2217.73	69.0524
2219.16	66.9002
2220.59	64.6758
2222.03	61.9295
2223.46	60.2673
2224.89	58.754
2226.32	56.6147
2227.75	54.4773
2229.19	52.721
2230.62	51.0836
2232.05	48.9354
2233.48	47.4258
2234.91	46.1223
2236.34	44.9061
2237.77	42.9434
2239.2	41.0651
2240.63	38.663
2242.06	36.6157
2243.48	35.7189
2244.91	34.1023
2246.34	33.2524
2247.77	33.2127
2249.2	32.0384
2250.62	30.4801
2252.05	29.3655
2253.48	28.6548
2254.9	28.7108
2256.33	27.9037
2257.76	26.6961
2259.18	25.4042
2260.61	24.1502
2262.03	23.0047
2263.46	22.4595
2264.88	21.2127
2266.31	21.2033
2267.73	20.98
2269.16	20.2007
2270.58	19.525
2272	19.8417
2273.43	19.612
2274.85	18.8781
2276.27	18.5972
2277.69	17.9835
2279.12	17.1685
2280.54	15.8609
2281.96	15.205
2283.38	14.3796
2284.8	14.2193
2286.22	13.8625
2287.64	12.7972
2289.07	11.8895
2290.49	11.4075
2291.91	10.5805
2293.32	9.36701
2294.74	8.84431
2296.16	8.57954
2297.58	8.42091
2299	8.72663
2300.42	7.88542
2301.84	7.38287
2303.26	7.31265
2304.67	7.71541
2306.09	8.25901
2307.51	8.03221
2308.92	7.23648
2310.34	6.66412
2311.76	6.39292
2313.17	6.59393
2314.59	6.22942
2316	6.42806
2317.42	7.61151
2318.83	8.17301
2320.25	7.43582
2321.66	7.32131
2323.08	7.6707
2324.49	7.8622
2325.91	8.29552
2327.32	7.56252
2328.73	7.65565
2330.15	7.19711
2331.56	7.11114
2332.97	6.97393
2334.38	7.23489
2335.79	7.04972
2337.21	7.48654
2338.62	7.03237
2340.03	6.77291
2341.44	6.65898
2342.85	6.82552
2344.26	6.74986
2345.67	6.16488
2347.08	5.56855
2348.49	5.29433
2349.9	4.61507
2351.31	3.9465
2352.72	3.60464
2354.13	3.01839
2355.53	2.4081
2356.94	1.46763
2358.35	1.82772
2359.76	1.33397
2361.17	1.05124
2362.57	1.18443
2363.98	1.38024
2365.39	1.15829
2366.79	2.22516
2368.2	2.70359
2369.6	2.49809
2371.01	2.5609
2372.42	3.34331
2373.82	3.81151
2375.22	3.92805
2376.63	3.67978
2378.03	3.34525
2379.44	3.40298
2380.84	3.66242
2382.25	3.81434
2383.65	3.93119
2385.05	4.59509
2386.45	4.81211
2387.86	4.73445
2389.26	4.78749
2390.66	5.00782
2392.06	5.07154
2393.46	5.30456
2394.87	5.28582
2396.27	4.23056
2397.67	2.97816
2399.07	2.81609
2400.47	2.36344
2401.87	2.39818
2403.27	1.58465
2404.67	1.69852
2406.07	1.86551
2407.47	2.11724
2408.86	2.18366
2410.26	2.59211
2411.66	3.0574
2413.06	3.15447
2414.46	3.01276
2415.85	2.77663
2417.25	3.02793
2418.65	3.02161
2420.05	2.84357
2421.44	2.99232
2422.84	3.38354
2424.23	3.33347
2425.63	3.96185
2427.03	4.87346
2428.42	4.85438
2429.82	4.45591
2431.21	4.42446
2432.6	4.82778
2434	5.01255
2435.39	4.81861
2436.79	5.30137
2438.18	5.38229
2439.57	5.59262
2440.97	5.48752
2442.36	5.4057
2443.75	5.32444
2445.14	5.71408
2446.54	5.96617
2447.93	6.24943
2449.32	6.53024
2450.71	6.4671
2452.1	5.81725
2453.49	6.11979
2454.88	5.8745
2456.27	5.13988
2457.66	5.49603
2459.05	5.70233
2460.44	5.23867
2461.83	4.21375
2463.22	3.83184
2464.61	3.20973
2466	3.04236
2467.39	3.05857
2468.77	3.12553
2470.16	3.30751
2471.55	3.10582
2472.94	3.94976
2474.32	4.85655
2475.71	5.11533
2477.1	5.38592
2478.48	4.85867
2479.87	5.20986
2481.25	5.37174
2482.64	5.10024
2484.02	4.50898
2485.41	4.13533
2486.8	4.64668
2488.18	5.32679
2489.56	5.64347
2490.95	5.32563
2492.33	4.72124
2493.72	3.92519
2495.1	4.12253
2496.48	3.5181
2497.86	2.91097
2499.25	2.87475
2500.63	2.22525
2502.01	2.07173
2503.39	1.81907
2504.77	1.62872
2506.16	1.57083
2507.54	1.66981
2508.92	1.779
2510.3	0.898822
2511.68	1.28804
2513.06	1.46599
2514.44	1.26275
2515.82	1.25178
2517.2	0.466034
2518.58	-0.123106
2519.95	-0.762151
2521.33	-0.280517
2522.71	-0.313353
2524.09	-0.33864
2525.47	0.526293
2526.84	0.504182
2528.22	0.727288
2529.6	0.21022
2530.98	1.06303
2532.35	2.53083
2533.73	2.64784
2535.11	3.53912
2536.48	3.41804
2537.86	4.5161
2539.23	5.21775
2540.61	5.61722
2541.98	6.24551
2543.36	6.06371
2544.73	6.23276
2546.1	6.19812
2547.48	6.24635
2548.85	7.09864
2550.23	6.84739
2551.6	7.38238
2552.97	6.59803
2554.34	7.29429
2555.72	8.04313
2557.09	8.3365
2558.46	7.64064
2559.83	6.65983
2561.2	6.27234
2562.58	6.3809
2563.95	7.0597
2565.32	6.70411
2566.69	6.4946
2568.06	5.83366
2569.43	5.69269
2570.8	5.86193
2572.17	5.83183
2573.54	6.01889
2574.91	5.82658
2576.27	5.26951
2577.64	5.2109
2579.01	4.3377
2580.38	4.47163
2581.75	4.22776
2583.11	3.59349
2584.48	3.35977
2585.85	2.82773
2587.21	3.39532
2588.58	3.76055
2589.95	4.29787
2591.31	4.27004
2592.68	5.03632
2594.04	4.98518
2595.41	4.99727
2596.78	4.92076
2598.14	5.69675
2599.51	6.91272
2600.87	6.64084
2602.23	6.09144
2603.6	6.87364
2604.96	6.34519
2606.32	6.64637
2607.69	6.418
2609.05	6.17879
2610.41	6.2912
2611.77	6.79827
2613.14	6.63734
2614.5	6.85686
2615.86	7.35042
2617.22	7.13033
2618.58	6.96512
2619.94	7.27832
2621.3	6.39042
2622.67	7.27202
2624.03	6.89483
2625.39	6.77814
2626.75	7.13284
2628.1	7.18403
2629.46	7.24938
2630.82	8.18463
2632.18	7.78923
2633.54	7.37572
2634.9	7.5186
2636.26	7.35676
2637.61	7.18139
2638.97	7.54119
2640.33	7.88103
2641.69	8.30893
2643.04	8.61523
2644.4	8.50297
2645.76	8.8147
2647.11	8.354
2648.47	8.28152
2649.82	8.0156
2651.18	7.86441
2652.53	8.16832
2653.89	8.80152
2655.24	9.30162
2656.6	9.20775
2657.95	9.46327
2659.31	9.99528
2660.66	9.90218
2662.01	9.43123
2663.37	9.6913
2664.72	9.18544
2666.07	9.80106
2667.43	9.29391
2668.78	8.98542
2670.13	9.13458
2671.48	9.48434
2672.83	8.81102
2674.18	8.96337
2675.53	9.10828
2676.89	9.04249
2678.24	9.41445
2679.59	9.31469
2680.94	9.77947
2682.29	10.289
2683.64	10.4398
2684.99	10.0271
2686.34	10.6835
2687.68	10.6678
2689.03	10.974
2690.38	11.6412
2691.73	11.5899
2693.08	11.9795
2694.43	12.0013
2695.77	11.9156
2697.12	11.7778
2698.47	11.7884
2699.81	11.2215
2701.16	11.4983
2702.51	11.3159
2703.85	11.4288
2705.2	11.9663
2706.54	12.3896
2707.89	12.3929
2709.23	12.7088
2710.58	12.2732
2711.92	11.9038
2713.27	12.009
2714.61	12.1604
2715.96	12.7572
2717.3	13.8145
2718.64	14.1597
2719.99	13.8451
2721.33	13.7129
2722.67	13.897
2724.01	13.2727
2725.36	13.1997
2726.7	12.9863
2728.04	12.2085
2729.38	11.6285
2730.72	11.2704
2732.06	10.4545
2733.41	10.4212
2734.75	10.2195
2736.09	9.93579
2737.43	9.56833
2738.77	9.45078
2740.11	8.85072
2741.44	9.0627
2742.78	8.84256
2744.12	7.9577
2745.46	7.75824
2746.8	7.67353
2748.14	7.89166
2749.48	7.14507
2750.81	6.53034
2752.15	6.35709
2753.49	6.54759
2754.83	6.26584
2756.16	6.33397
2757.5	6.71252
2758.84	5.85558
2760.17	5.34564
2761.51	4.85636
2762.84	4.55487
2764.18	3.77526
2765.51	3.74685
2766.85	3.57574
2768.18	3.17647
2769.52	2.71697
2770.85	2.85757
2772.19	2.52603
2773.52	2.42952
2774.85	2.6519
2776.19	2.6465
2777.52	2.73622
2778.85	3.45765
2780.18	3.35072
2781.52	3.4482
2782.85	4.03049
2784.18	4.01699
2785.51	3.44639
2786.84	3.54933
2788.17	3.56971
2789.51	3.82227
2790.84	3.80032
2792.17	4.34848
2793.5	4.47671
2794.83	4.37386
2796.16	4.54144
2797.48	4.35981
2798.81	4.28186
2800.14	4.70703
2801.47	4.35717
2802.8	4.49648
2804.13	4.20027
2805.46	3.96445
2806.79	3.34743
2808.11	2.83195
2809.44	2.31211
2810.77	2.23196
2812.09	2.52743
2813.42	3.3619
2814.75	3.70717
2816.07	4.49829
2817.4	5.64115
2818.73	7.38252
2820.05	8.94937
2821.38	11.1342
2822.7	13.0254
2824.03	15.4392
2825.35	16.8047
2826.67	19.3193
2828	22.3167
2829.32	25.6224
2830.65	28.6139
2831.97	32.1658
2833.29	35.201
2834.62	38.7841
2835.94	42.4558
2837.26	46.9125
2838.58	51.0474
2839.9	55.8741
2841.23	60.4987
2842.55	65.3197
2843.87	70.1591
2845.19	75.9854
2846.51	81.6452
2847.83	87.6113
2849.15	93.4395
2850.47	98.9455
2851.79	104.935
2853.11	110.689
2854.43	115.744
2855.75	121.348
2857.07	127.11
2858.39	131.924
2859.71	136.634
2861.02	141.026
2862.34	145.422
2863.66	148.775
2864.98	152.782
2866.3	156.281
2867.61	159.272
2868.93	162.406
2870.25	164.901
2871.56	167.673
2872.88	170.259
2874.19	173.021
2875.51	176.088
2876.83	178.569
2878.14	181.238
2879.46	184.226
2880.77	186.74
2882.09	189.63
2883.4	192.29
2884.71	194.913
2886.03	198.104
2887.34	200.621
2888.65	203.529
2889.97	207.039
2891.28	209.668
2892.59	213.148
2893.91	216.434
2895.22	219.573
2896.53	222.635
2897.84	226.568
2899.15	230.206
2900.46	234.487
2901.78	239.032
2903.09	243.827
2904.4	249.231
2905.71	255.026
2907.02	259.548
2908.33	265.843
2909.64	271.771
2910.95	278.52
2912.26	283.5
2913.57	288.718
2914.87	293.765
2916.18	298.98
2917.49	304.11
2918.8	308.267
2920.11	312.875
2921.42	316.743
2922.72	320.195
2924.03	322.95
2925.34	325.234
2926.64	326.871
2927.95	328.672
2929.26	329.504
2930.56	330.747
2931.87	331.278
2933.17	331.45
2934.48	331.233
2935.78	329.595
2937.09	328.24
2938.39	326.043
2939.7	323.561
2941	320.516
2942.31	316.835
2943.61	312.51
2944.91	308.048
2946.22	303.26
2947.52	297.805
2948.82	292.276
2950.13	286.482
2951.43	280.981
2952.73	275.192
2954.03	269.417
2955.33	263.117
2956.64	256.65
2957.94	249.559
2959.24	242.813
2960.54	236.268
2961.84	229.848
2963.14	223.395
2964.44	216.59
2965.74	209.741
2967.04	202.896
2968.34	196.403
2969.64	189.528
2970.94	182.571
2972.24	175.519
2973.53	169.458
2974.83	162.825
2976.13	156.524
2977.43	149.567
2978.73	143.672
2980.02	137.072
2981.32	131.454
2982.62	125.584
2983.91	119.84
2985.21	113.937
2986.51	107.023
2987.8	101.578
2989.1	95.9607
2990.4	90.8175
2991.69	85.8799
2992.99	81.5216
2994.28	76.8177
2995.57	72.5892
2996.87	67.6293
2998.16	62.9466
2999.46	58.5229
3000.75	54.2304
3002.05	50.3949
3003.34	46.28
3004.63	43.1309
3005.92	39.7981
3007.22	36.3419
3008.51	33.0528
3009.8	30.6922
3011.09	28.0643
3012.39	25.7546
3013.68	23.7265
3014.97	21.4513
3016.26	19.502
3017.55	18.3712
3018.84	16.0513
3020.13	14.6598
3021.42	13.1846
3022.71	11.519
3024	10.3756
3025.29	8.84576
3026.58	7.78746
3027.87	6.70346
3029.16	5.51869
3030.45	4.41163
3031.73	4.10475
3033.02	3.79616
3034.31	3.03753
3035.6	3.262
3036.89	3.59393
3038.17	3.83958
3039.46	4.42299
3040.75	4.52737
3042.03	4.89305
3043.32	5.75312
3044.61	5.72958
3045.89	5.94151
3047.18	6.08347
3048.46	6.07938
3049.75	6.24557
3051.03	6.79697
3052.32	7.53042
3053.6	7.5198
3054.89	7.51232
3056.17	7.08386
3057.45	7.05327
3058.74	6.96782
3060.02	6.65664
3061.31	5.93899
3062.59	6.26067
3063.87	5.35677
3065.15	5.31839
3066.44	5.0772
3067.72	5.37521
3069	5.99337
3070.28	5.10497
3071.56	4.49597
3072.84	4.03994
3074.13	3.63427
3075.41	3.42618
3076.69	3.16042
3077.97	2.35895
3079.25	1.66947
3080.53	1.42871
3081.81	1.22922
3083.09	0.578103
3084.37	0.0805848
3085.64	-0.356751
3086.92	-1.05931
3088.2	-1.64237
3089.48	-1.25164
3090.76	-1.1351
3092.04	-1.03045
3093.31	-0.864775
3094.59	-0.772543
3095.87	-0.374251
3097.14	-0.526552
3098.42	0.269916
3099.7	1.10331
3100.97	1.4208
3102.25	1.72808
3103.53	2.62228
3104.8	3.55177
3106.08	4.03454
3107.35	4.31297
3108.63	4.30822
3109.9	5.1356
3111.18	6.74255
3112.45	8.0352
3113.73	9.14857
3115	9.38731
3116.27	9.77865
3117.55	10.1064
3118.82	10.6486
3120.09	11.5078
3121.37	12.3486
3122.64	13.1423
3123.91	13.6278
3125.18	14.1226
3126.45	15.1041
3127.73	15.7296
3129	17.3538
3130.27	18.1084
3131.54	18.8481
3132.81	19.7157
3134.08	19.4175
3135.35	20.3451
3136.62	21.042
3137.89	21.8372
3139.16	22.5323
3140.43	22.7803
3141.7	23.0014
3142.97	23.3824
3144.24	23.6654
3145.51	23.9077
3146.78	23.9788
3148.04	24.7651
3149.31	24.5648
