#Acq. time (s)=	45
#Accumulations=	2
#Range (cm-¹)=	200...3150
#Windows=	2
#Auto scanning=	Off
#Autofocus=	Off
#Macrospot=	Off
#AutoExposure=	Off
#Spike filter=	Multiple accum.
#Delay time (s)=	0
#Binning=	1
#Readout mode=	Signal
#DeNoise=	Off
#ICS correction=	On
#Dark correction=	Off
#Inst. Process=	Off
#Detector Gain=	Best Dynamic Range
#Detector ADC=	20 kHz       
#Detector temperature (°C)=	-69.85
#Instrument=	LabRAM HR Evol
#Detector=	Synapse
#Objective=	x100
#Grating=	600 gr/mm
#ND Filter=	100%
#Laser (nm)=	532 
#Hole=	100.021
#Range=	Auto
#Laser Pol.=	No
#Raman. Pol.=	No
#Laser Pol. (°)=	-0.0007625
#Raman Pol. (°)=	89.9995
#Collection=	Microscope
#StageXY=	Marzhauser
#StageZ=	Marzhauser
#X (µm)=	19299.8
#Y (µm)=	3083.5
#Z (µm)=	1047
#Full time(mm:ss)=	3:18
#Project=	
#Sample=	
#Site=	
#Title=	Mb_50_18_11_2x_45s_532 nm_x100_100%_600 gr_mm
#Remark=	
#Date=	12.07.2022 11:04
#Acquired=	12.07.2022 11:04:51
#Base:Fit=	10.08.2022 10:49:18
#Base:Sub=	10.08.2022 10:49:30
#Filter:Polynom=	16.08.2022 10:14:59
#AxisType[0]=Intens
#AxisUnit[0]=Cnt
#AxisType[1]=Spectr
#AxisUnit[1]=1/cm
200.388	-0.854276
202.204	3.01895
204.019	5.59657
205.832	6.8343
207.646	7.96443
209.459	8.4517
211.274	9.172
213.087	9.84366
214.899	10.7544
216.711	11.0982
218.524	11.5592
220.335	12.9388
222.146	14.1768
223.956	14.2244
225.766	13.6415
227.576	12.8673
229.388	13.074
231.197	13.0487
233.005	12.0782
234.813	13.0208
236.621	12.6973
238.429	12.4389
240.236	12.5287
242.045	11.1723
243.852	10.5515
245.658	10.8369
247.464	10.3665
249.269	8.34269
251.074	6.86265
252.879	6.97437
254.683	6.18884
256.487	6.77724
258.291	6.20709
260.094	7.0078
261.897	6.21681
263.702	5.81843
265.504	6.42107
267.306	5.08586
269.108	5.13616
270.909	5.03452
272.71	4.5042
274.511	4.38736
276.311	3.74926
278.111	4.12925
279.91	3.03966
281.709	3.04751
283.508	3.21844
285.306	4.26371
287.105	4.4096
288.9	4.61503
290.698	4.26379
292.495	3.75666
294.291	3.895
296.088	5.36152
297.884	6.30391
299.679	8.39026
301.475	10.4903
303.27	11.2245
305.064	12.3948
306.858	13.2604
308.652	13.9095
310.444	14.6781
312.237	13.8476
314.03	13.9818
315.822	13.9127
317.615	14.0781
319.406	14.5407
321.198	14.6608
322.987	14.5782
324.778	15.394
326.568	15.3849
328.358	15.6033
330.148	15.5472
331.935	14.3926
333.724	15.0845
335.513	15.074
337.301	13.7772
339.089	12.4275
340.875	13.4304
342.662	13.8123
344.449	13.2892
346.236	13.7067
348.02	13.8008
349.806	13.4179
351.592	12.6083
353.375	13.3333
355.16	14.1784
356.944	14.4291
358.728	14.892
360.51	14.7536
362.294	14.1439
364.077	14.8805
365.858	15.7492
367.64	16.3842
369.422	17.3005
371.202	18.5762
372.983	19.3677
374.764	18.7811
376.543	18.521
378.324	19.6447
380.102	20.1584
381.881	21.0506
383.661	22.4597
385.438	23.9155
387.216	24.252
388.993	25.2543
390.771	23.7281
392.548	23.4959
394.324	23.24
396.101	22.8112
397.875	22.0403
399.651	21.4747
401.425	21.1333
403.201	21.3715
404.974	20.4932
406.749	20.3311
408.524	19.9408
410.296	19.8644
412.07	19.3304
413.841	18.9523
415.614	19.2568
417.385	18.2099
419.156	16.5349
420.928	15.4806
422.698	14.5392
424.469	13.9542
426.238	12.2592
428.009	11.3983
429.777	10.8109
431.548	9.86603
433.315	8.99923
435.083	8.26697
436.852	8.21294
438.618	7.87604
440.387	8.62929
442.153	8.84044
443.919	8.66181
445.686	8.58213
447.451	7.34213
449.218	7.36691
450.982	6.63996
452.746	7.43588
454.512	7.72172
456.275	7.91652
458.038	7.78508
459.803	7.27834
461.565	7.73896
463.327	7.46187
465.091	8.80859
466.852	10.187
468.613	10.5854
470.374	10.7699
472.136	11.1245
473.896	12.0098
475.655	13.2192
477.415	13.8991
479.176	13.8124
480.934	16.1588
482.692	17.0404
484.45	18.5031
486.21	19.2182
487.967	20.2569
489.724	22.2108
491.481	23.0144
493.237	24.0805
494.995	25.0562
496.75	25.9578
498.506	27.9067
500.26	28.7436
502.015	30.6464
503.771	31.526
505.525	31.4989
507.279	31.2319
509.032	32.1436
510.785	32.3973
512.537	33.1496
514.289	32.3574
516.041	32.0797
517.793	32.7617
519.546	33.0971
521.297	32.6886
523.047	32.6482
524.797	33.0692
526.547	32.4373
528.297	31.7707
530.046	31.3804
531.795	30.534
533.543	29.8008
535.291	28.2187
537.039	27.0038
538.787	26.3662
540.534	24.3164
542.281	22.8488
544.027	21.8433
545.773	20.3219
547.519	19.6394
549.264	18.5212
551.01	16.8125
552.754	16.5509
554.499	14.864
556.243	13.0769
557.987	11.396
559.73	10.996
561.474	10.713
563.216	9.62953
564.959	7.32186
566.701	6.54041
568.441	6.49525
570.182	5.47727
571.923	4.73623
573.664	4.77009
575.405	4.65485
577.145	5.25671
578.885	4.73352
580.624	5.13273
582.361	5.45907
584.1	6.0367
585.839	6.73773
587.577	5.34236
589.315	5.82168
591.052	4.20569
592.787	4.233
594.524	4.66999
596.26	4.9658
597.997	5.39154
599.732	5.98075
601.466	6.50291
603.201	7.51059
604.936	8.99675
606.67	9.03834
608.403	8.55935
610.136	9.45856
611.87	9.63925
613.603	9.90879
615.334	10.8012
617.067	11.5786
618.799	11.2769
620.529	11.5136
622.26	11.974
623.991	12.1834
625.72	12.4193
627.451	12.0069
629.181	12.9942
630.909	13.6402
632.638	12.8246
634.368	12.5522
636.095	13.2207
637.823	13.3362
639.551	13.2849
641.277	12.1719
643.005	12.7298
644.73	12.4241
646.457	12.8958
648.184	13.3339
649.908	13.6637
651.634	13.9737
653.357	15.3333
655.083	15.7406
656.806	15.8873
658.53	16.23
660.253	16.9828
661.977	16.9454
663.7	18.0735
665.422	18.7939
667.145	19.9464
668.865	19.7971
670.588	19.9481
672.308	19.332
674.027	19.2493
675.749	20.5959
677.468	20.7759
679.188	21.9742
680.907	23.6523
682.627	24.1592
684.345	24.8268
686.064	26.2006
687.781	26.7643
689.498	27.4586
691.216	27.2048
692.932	27.3031
694.65	28.7722
696.366	30.2123
698.081	30.3808
699.797	32.2354
701.512	32.6571
703.228	32.6061
704.942	33.6912
706.655	33.9682
708.371	34.4004
710.083	34.5812
711.796	34.5988
713.51	34.9123
715.222	34.4611
716.934	35.2119
718.645	35.012
720.358	36.8815
722.068	37.5958
723.779	37.4265
725.49	37.2243
727.2	37.5514
728.909	37.4931
730.618	37.6756
732.329	39.2118
734.037	39.6404
735.745	40.9382
737.453	42.6016
739.16	43.5242
740.869	45.9748
742.576	49.8577
744.282	52.3056
745.988	56.3905
747.694	59.9147
749.401	63.7101
751.107	67.3226
752.811	69.2682
754.516	71.085
756.22	74.5547
757.924	76.5512
759.627	79.1018
761.332	82.265
763.035	84.1582
764.738	86.019
766.44	88.3314
768.142	88.9708
769.843	90.6626
771.544	92.6899
773.245	93.5748
774.946	95.0521
776.646	95.4434
778.346	95.953
780.046	97.0148
781.745	96.939
783.444	97.5179
785.143	98.2866
786.841	97.762
788.539	97.4134
790.237	97.0483
791.934	96.2248
793.631	96.1091
795.328	95.719
797.024	94.2701
798.72	93.0113
800.416	91.8877
802.112	90.6233
803.807	88.3796
805.502	86.1016
807.196	81.9602
808.89	78.1575
810.584	76.5142
812.278	76.2598
813.971	75.6456
815.664	76.3885
817.354	76.6468
819.047	76.1661
820.739	77.8197
822.43	78.5376
824.122	78.8066
825.813	80.6763
827.503	81.1646
829.192	81.0719
830.882	81.4137
832.571	80.3007
834.261	80.1313
835.95	80.3656
837.637	79.0244
839.325	78.8865
841.013	78.599
842.701	76.5352
844.389	76.4863
846.074	75.6774
847.761	74.053
849.447	73.3563
851.131	72.6363
852.817	71.4631
854.503	70.5855
856.188	68.7858
857.871	68.057
859.556	66.7528
861.24	65.6237
862.922	65.2415
864.606	65.0996
866.289	64.2474
867.97	63.5151
869.653	62.5446
871.336	61.0219
873.016	59.8747
874.698	58.8676
876.379	57.8969
878.058	55.6846
879.739	54.5984
881.418	52.3431
883.098	50.3208
884.778	48.8632
886.456	46.5603
888.135	45.425
889.812	44.3703
891.49	43.8167
893.167	44.4629
894.845	46.5706
896.523	46.9666
898.198	46.7557
899.875	46.8789
901.55	46.888
903.226	46.9904
904.901	47.7799
906.576	46.3827
908.25	46.0857
909.925	45.9249
911.598	45.0014
913.271	44.7246
914.945	43.3048
916.617	44.1258
918.291	45.5521
919.962	45.5022
921.635	44.3791
923.306	44.0924
924.978	43.6573
926.648	43.5461
928.318	43.3328
929.989	42.2952
931.659	41.9191
933.328	41.9932
934.998	41.1415
936.666	40.9692
938.336	40.713
940.004	40.6855
941.671	41.4114
943.34	41.0167
945.007	40.095
946.673	38.5863
948.339	37.9265
950.007	37.0002
951.672	37.876
953.337	37.6238
955.004	37.2252
956.669	37.4133
958.333	36.8118
959.997	35.521
961.662	35.5106
963.326	35.6359
964.989	35.252
966.651	34.9114
968.315	34.3282
969.977	33.6445
971.639	33.7406
973.301	33.1076
974.962	32.8655
976.624	32.3742
978.285	32.241
979.945	31.6642
981.605	31.7251
983.264	31.3731
984.924	30.7125
986.583	29.6436
988.243	29.0244
989.901	28.2858
991.56	28.7809
993.217	28.924
994.875	29.3934
996.532	30.4682
998.188	31.8111
999.845	34.464
1001.5	35.8653
1003.16	36.0028
1004.81	38.2038
1006.47	39.8784
1008.12	41.7235
1009.78	43.7559
1011.43	43.6208
1013.09	46.5044
1014.74	48.7048
1016.39	50.9808
1018.05	52.442
1019.7	54.114
1021.35	55.3394
1023	55.579
1024.65	56.5664
1026.31	56.7759
1027.96	56.8083
1029.61	58.3798
1031.26	60.4666
1032.91	60.5339
1034.56	61.7087
1036.21	61.1358
1037.86	61.0714
1039.51	61.0989
1041.16	58.9459
1042.8	57.7606
1044.45	57.0719
1046.1	55.3241
1047.75	53.358
1049.39	50.8758
1051.04	48.7329
1052.69	47.3576
1054.33	45.1371
1055.98	43.4576
1057.62	41.7049
1059.27	40.3616
1060.91	38.8345
1062.56	37.5284
1064.2	36.2917
1065.85	34.2744
1067.49	32.4512
1069.13	31.3924
1070.77	31.3093
1072.42	31.0884
1074.06	30.2854
1075.7	30.6815
1077.34	30.4301
1078.98	30.58
1080.62	30.5301
1082.27	30.7611
1083.91	29.7644
1085.55	28.6779
1087.18	29.2082
1088.82	29.0182
1090.46	29.1617
1092.1	29.0769
1093.74	29.221
1095.38	30.6331
1097.02	29.9865
1098.65	29.5487
1100.29	29.9151
1101.93	28.9613
1103.56	29.4854
1105.2	28.5674
1106.84	29.0243
1108.47	28.6754
1110.11	27.7737
1111.74	27.1416
1113.38	26.3799
1115.01	24.8126
1116.64	24.5702
1118.28	23.3788
1119.91	22.1497
1121.54	20.9138
1123.18	19.0989
1124.81	18.7206
1126.44	16.7368
1128.07	15.6379
1129.7	14.8322
1131.33	14.0709
1132.97	13.4738
1134.6	12.621
1136.23	11.6034
1137.86	11.4746
1139.49	10.4532
1141.11	10.0514
1142.74	9.1571
1144.37	8.90843
1146	7.48793
1147.63	6.88977
1149.26	6.22865
1150.88	6.01516
1152.51	5.1975
1154.14	4.02671
1155.76	3.08245
1157.39	2.45051
1159.01	0.708377
1160.64	0.507017
1162.27	-0.344361
1163.89	-0.462413
1165.51	-0.736445
1167.14	-0.167209
1168.76	0.209183
1170.39	0.823768
1172.01	0.466125
1173.63	0.995247
1175.25	1.6956
1176.88	2.08641
1178.5	2.77619
1180.12	3.4038
1181.74	4.07283
1183.36	3.71013
1184.98	4.26883
1186.6	4.10467
1188.22	4.41647
1189.84	3.87521
1191.46	4.53851
1193.08	5.33173
1194.7	6.68767
1196.32	7.19625
1197.94	7.63241
1199.55	7.87567
1201.17	8.83578
1202.79	9.35023
1204.41	9.97909
1206.02	10.1724
1207.64	9.966
1209.25	10.7223
1210.87	11.9375
1212.48	13.245
1214.1	14.5513
1215.71	15.7185
1217.33	16.9533
1218.94	17.6597
1220.56	18.3229
1222.17	19.2032
1223.79	19.8089
1225.4	21.178
1227.01	21.5951
1228.62	22.7508
1230.23	23.7128
1231.85	25.1145
1233.46	26.0579
1235.07	26.6274
1236.68	28.1062
1238.29	28.6902
1239.9	29.9953
1241.51	32.5323
1243.12	33.7014
1244.73	34.7877
1246.34	35.7153
1247.94	35.926
1249.55	36.4718
1251.16	37.3753
1252.77	37.4463
1254.37	38.737
1255.98	39.1997
1257.59	40.0373
1259.2	40.4877
1260.8	41.0191
1262.41	41.3342
1264.01	42.0413
1265.62	43.5311
1267.22	44.358
1268.83	45.5012
1270.43	46.4362
1272.03	48.3774
1273.64	48.7883
1275.24	49.6802
1276.85	49.2086
1278.45	49.8324
1280.05	50.8297
1281.65	51.4564
1283.25	51.797
1284.85	52.2761
1286.46	52.604
1288.06	53.1662
1289.66	53.5878
1291.26	54.4976
1292.86	55.2597
1294.46	54.3577
1296.06	54.3164
1297.66	52.703
1299.25	52.0556
1300.85	51.3125
1302.45	51.361
1304.05	51.0278
1305.65	51.4767
1307.24	50.4275
1308.84	50.7269
1310.43	50.9467
1312.03	50.6075
1313.63	49.5492
1315.22	49.4766
1316.82	50.1051
1318.41	49.8506
1320.01	49.4433
1321.6	48.666
1323.2	47.2404
1324.79	45.879
1326.38	44.8441
1327.98	43.8499
1329.57	42.2714
1331.16	41.125
1332.76	39.672
1334.35	39.4465
1335.94	38.481
1337.53	37.6325
1339.12	36.336
1340.71	35.7274
1342.3	35.4841
1343.89	35.11
1345.48	34.8192
1347.07	33.6941
1348.66	33.3401
1350.25	32.23
1351.84	31.7622
1353.43	31.3364
1355.01	29.7939
1356.6	27.7988
1358.19	27.7174
1359.77	27.0618
1361.36	25.7824
1362.95	24.8433
1364.53	23.3478
1366.12	22.8654
1367.71	21.6242
1369.29	20.4265
1370.88	20.9326
1372.46	20.2495
1374.04	19.0542
1375.63	18.5357
1377.21	17.5628
1378.8	17.4134
1380.38	17.1611
1381.96	17.4373
1383.54	16.8339
1385.13	17.0071
1386.71	16.5559
1388.29	17.1536
1389.87	16.1601
1391.45	15.057
1393.03	15.1462
1394.61	14.8164
1396.19	15.0072
1397.77	14.0393
1399.35	14.1937
1400.93	15.01
1402.51	15.477
1404.09	15.6714
1405.67	16.1725
1407.24	17.2183
1408.82	17.2575
1410.4	18.8164
1411.98	20.5577
1413.55	22.8762
1415.13	24.2733
1416.71	26.329
1418.28	28.4761
1419.86	31.6788
1421.43	34.2825
1423.01	36.5569
1424.58	39.2318
1426.16	41.9205
1427.73	44.3272
1429.31	46.0463
1430.88	47.5652
1432.45	49.5393
1434.02	50.3868
1435.6	52.03
1437.17	54.0068
1438.74	55.246
1440.31	56.135
1441.88	57.7739
1443.45	59.1219
1445.03	60.514
1446.6	61.1106
1448.17	61.3787
1449.74	62.0964
1451.3	60.9574
1452.87	59.8509
1454.44	59.3177
1456.01	58.4968
1457.58	57.6914
1459.15	56.8496
1460.72	55.9789
1462.28	54.923
1463.85	53.4641
1465.42	51.4941
1466.98	49.0192
1468.55	46.9858
1470.12	45.4102
1471.68	44.7903
1473.25	42.9103
1474.81	42.2739
1476.38	39.4516
1477.94	37.6163
1479.51	35.6064
1481.07	33.8083
1482.63	32.1726
1484.2	31.5017
1485.76	30.164
1487.32	28.9437
1488.88	28.1369
1490.45	27.5107
1492.01	26.8122
1493.57	26.2205
1495.13	25.7557
1496.69	25.1821
1498.25	24.1419
1499.81	23.0776
1501.37	22.2349
1502.93	21.7882
1504.49	20.7192
1506.05	18.9864
1507.61	17.2539
1509.17	16.3244
1510.73	15.2337
1512.28	13.546
1513.84	12.2498
1515.4	11.6721
1516.96	12.1319
1518.51	11.4247
1520.07	10.7932
1521.63	9.76057
1523.18	8.48627
1524.74	7.35437
1526.29	6.67809
1527.85	6.63561
1529.4	6.21446
1530.96	5.88308
1532.51	6.26844
1534.06	6.21742
1535.62	7.21072
1537.17	7.58898
1538.72	7.8485
1540.28	8.13869
1541.83	7.50923
1543.38	8.06557
1544.93	8.56425
1546.48	9.51962
1548.03	10.8635
1549.59	11.3616
1551.14	11.9158
1552.69	12.4868
1554.24	12.5774
1555.79	13.5974
1557.34	14.2124
1558.88	14.4119
1560.43	16.0791
1561.98	16.6846
1563.53	17.3033
1565.08	18.5996
1566.62	20.0222
1568.17	21.9755
1569.72	23.826
1571.27	25.6503
1572.81	26.6364
1574.36	27.3825
1575.9	28.0838
1577.45	29.4687
1579	30.9403
1580.54	31.7307
1582.09	32.1239
1583.63	33.722
1585.17	34.6153
1586.72	36.59
1588.26	37.3301
1589.8	38.9017
1591.35	40.2659
1592.89	41.7789
1594.43	42.6189
1595.97	42.3837
1597.52	42.5136
1599.06	42.4439
1600.6	42.7064
1602.14	42.8757
1603.68	43.5816
1605.22	44.1114
1606.76	44.7313
1608.3	45.213
1609.84	46.0462
1611.38	46.4474
1612.92	46.9325
1614.46	46.5197
1615.99	46.4759
1617.53	46.9028
1619.07	47.2863
1620.61	48.7462
1622.14	49.0643
1623.68	49.6846
1625.22	50.9792
1626.75	51.549
1628.29	52.7398
1629.82	52.934
1631.36	52.6958
1632.9	53.604
1634.43	54.4337
1635.96	55.4995
1637.5	57.4685
1639.03	58.5855
1640.57	60.1569
1642.1	61.2309
1643.63	62.2688
1645.16	63.614
1646.7	65.3474
1648.23	65.7233
1649.76	65.8536
1651.29	66.4703
1652.82	66.6086
1654.36	67.4881
1655.89	68.5286
1657.42	68.2285
1658.95	69.5326
1660.48	70.6248
1662.01	69.8661
1663.53	69.6708
1665.06	68.5875
1666.59	67.5147
1668.12	66.7034
1669.65	65.0154
1671.18	62.8155
1672.7	60.1292
1674.23	58.0302
1675.76	55.6132
1677.29	53.6526
1678.81	51.4371
1680.34	49.7354
1681.86	47.9423
1683.39	45.5363
1684.91	42.5279
1686.44	40.0234
1687.96	36.8719
1689.49	33.6787
1691.01	30.8385
1692.54	29.2225
1694.06	26.6918
1695.58	24.847
1697.11	22.9356
1698.63	20.8429
1700.15	19.3147
1701.67	17.994
1703.2	16.6512
1704.72	15.2647
1706.24	13.9021
1707.76	12.9014
1709.28	11.8234
1710.8	10.6548
1712.32	9.85652
1713.84	9.38647
1715.36	8.51852
1716.88	7.15797
1718.4	6.46045
1719.91	5.60781
1721.43	6.04613
1722.95	5.44468
1724.47	4.69046
1725.99	4.85778
1727.5	4.66673
1729.02	5.03423
1730.54	5.3538
1732.05	5.35576
1733.57	5.27159
1735.09	6.4274
1736.6	6.19187
1738.12	5.49117
1739.63	5.19851
1741.15	4.86478
1742.66	4.02195
1744.18	4.1108
1745.69	2.70313
1747.2	2.56575
1748.72	2.02383
1750.23	2.54052
1751.74	2.31379
1753.25	2.36062
1754.77	2.05074
1756.28	1.94295
1757.79	1.25364
1759.3	0.410625
1760.81	0.186988
1762.32	0.272338
1763.83	-0.614105
1765.34	-0.632708
1766.85	-0.513572
1768.36	0.0178218
1769.87	-0.36731
1771.38	0.507109
1772.89	1.09457
1774.4	1.39702
1775.91	1.46438
1777.41	2.04554
1778.92	2.26819
1780.43	2.93423
1781.94	2.76329
1783.44	2.77684
1784.95	2.56961
1786.45	3.40353
1787.96	3.80804
1789.47	3.28604
1790.97	3.29113
1792.48	3.27638
1793.98	2.90546
1795.48	2.98757
1796.99	3.75832
1798.49	3.7225
1800	4.19467
1801.5	4.31773
1803	4.20735
1804.51	4.29965
1806.01	3.67462
1807.51	4.0786
1809.01	3.55904
1810.51	3.62507
1812.02	2.9675
1813.52	2.46668
1815.02	2.32668
1816.52	2.60999
1818.02	2.29793
1819.52	2.16935
1821.02	2.18645
1822.52	2.18681
1824.02	1.83452
1825.51	1.92974
1827.01	1.42826
1828.51	0.695442
1830.01	0.15119
1831.51	-0.0753736
1833	-0.526037
1834.5	0.346315
1836	1.27554
1837.5	1.92198
1838.99	2.06403
1840.49	2.10321
1841.98	2.00507
1843.48	2.60664
1844.97	2.34984
1846.47	2.14453
1847.96	1.90934
1849.46	1.7264
1850.95	1.62184
1852.45	1.71018
1853.94	2.15317
1855.43	2.16597
1856.92	1.83649
1858.42	1.90259
1859.91	1.89878
1861.4	2.14676
1862.89	1.88902
1864.39	1.57919
1865.88	1.44692
1867.37	1.57493
1868.86	2.09497
1870.35	3.00976
1871.84	3.2379
1873.33	3.74686
1874.82	4.11815
1876.31	3.94656
1877.8	3.35257
1879.29	3.53891
1880.77	3.83337
1882.26	3.96769
1882.51	3.71493
1884	4.31632
1885.5	4.25094
1886.99	4.84478
1888.48	4.79133
1889.98	5.09579
1891.47	4.64886
1892.97	4.76505
1894.46	4.96868
1895.95	4.7376
1897.44	4.89625
1898.93	4.49456
1900.42	4.55178
1901.92	4.55778
1903.41	4.98667
1904.9	5.46038
1906.39	6.1444
1907.88	7.09698
1909.37	6.95164
1910.86	6.4994
1912.35	5.70265
1913.84	5.84777
1915.32	5.37623
1916.81	5.30333
1918.3	4.64995
1919.79	4.31905
1921.28	4.43364
1922.76	3.94581
1924.25	4.29625
1925.74	4.55911
1927.22	4.65016
1928.71	3.90647
1930.2	4.01229
1931.68	4.44303
1933.17	4.27022
1934.65	3.96826
1936.14	4.28677
1937.62	5.20242
1939.11	5.44934
1940.59	5.75188
1942.08	6.14534
1943.56	5.89908
1945.04	5.0594
1946.53	4.88541
1948.01	4.9581
1949.49	4.72071
1950.97	5.43073
1952.45	5.27496
1953.94	5.47182
1955.42	5.25918
1956.9	5.37223
1958.38	5.59369
1959.86	5.76524
1961.34	6.23091
1962.82	5.2999
1964.3	6.10024
1965.78	6.17966
1967.26	6.72562
1968.74	6.72013
1970.22	6.61388
1971.69	6.1671
1973.17	6.31464
1974.65	6.72602
1976.13	6.75647
1977.61	6.99743
1979.08	6.1481
1980.56	6.21097
1982.03	5.74558
1983.51	5.35538
1984.99	4.99246
1986.46	4.67354
1987.94	4.42082
1989.41	2.62761
1990.89	2.37861
1992.36	2.12219
1993.84	2.40687
1995.31	2.60762
1996.78	2.77189
1998.26	3.05689
1999.73	3.5132
2001.2	3.48701
2002.68	3.41673
2004.15	3.40784
2005.62	3.16362
2007.09	2.72675
2008.56	2.81585
2010.04	2.99881
2011.51	2.35227
2012.98	1.81169
2014.45	1.5279
2015.92	1.97291
2017.39	2.34589
2018.86	2.45812
2020.33	2.91246
2021.8	3.43007
2023.27	3.18976
2024.74	3.89682
2026.2	3.71125
2027.67	5.03299
2029.14	4.95232
2030.61	5.39042
2032.07	6.33899
2033.54	7.60381
2035.01	8.06926
2036.47	8.86363
2037.94	10.5187
2039.41	10.8495
2040.87	11.3191
2042.34	11.2528
2043.8	11.654
2045.27	12.6927
2046.73	14.0709
2048.2	15.2955
2049.66	15.5183
2051.12	15.9054
2052.59	16.1027
2054.05	16.8864
2055.51	17.4644
2056.98	16.8249
2058.44	16.5828
2059.9	16.7147
2061.36	16.4917
2062.82	17.1617
2064.29	18.5166
2065.75	19.5245
2067.21	21.1623
2068.67	21.804
2070.13	22.3252
2071.59	22.4994
2073.05	23.373
2074.51	22.6298
2075.97	22.6013
2077.43	22.4193
2078.88	23.0196
2080.34	23.1704
2081.8	23.3903
2083.26	23.8646
2084.72	24.2112
2086.17	24.5644
2087.63	25.1692
2089.09	25.3989
2090.54	25.2546
2092	24.7565
2093.46	24.8137
2094.91	25.0574
2096.37	25.2688
2097.82	26.1475
2099.28	26.8428
2100.73	27.2989
2102.19	28.4467
2103.64	29.2981
2105.09	30.8636
2106.55	32.2759
2108	33.4215
2109.46	34.8063
2110.91	35.888
2112.36	36.9593
2113.81	38.2907
2115.27	39.7585
2116.72	41.2881
2118.17	43.0955
2119.62	44.5385
2121.07	45.5437
2122.52	45.7155
2123.97	47.4254
2125.42	48.963
2126.87	50.3024
2128.32	51.6121
2129.77	51.6552
2131.22	53.9758
2132.67	56.2511
2134.12	58.5975
2135.57	61.7762
2137.01	63.0359
2138.46	65.5887
2139.91	68.0218
2141.36	69.0035
2142.8	71.1638
2144.25	72.5802
2145.7	74.4949
2147.14	76.2379
2148.59	78.6162
2150.03	80.4419
2151.48	82.6186
2152.92	83.725
2154.37	84.8522
2155.81	86.2823
2157.26	86.6134
2158.7	86.8081
2160.15	87.4632
2161.59	88.1664
2163.03	88.1096
2164.48	88.3263
2165.92	88.6892
2167.36	89.3269
2168.8	88.7785
2170.25	89.4518
2171.69	89.781
2173.13	89.7872
2174.57	89.933
2176.01	88.5478
2177.45	88.672
2178.89	88.2829
2180.33	87.0427
2181.77	85.7051
2183.21	83.9953
2184.65	81.9474
2186.09	80.1794
2187.53	78.9774
2188.97	77.7848
2190.41	76.9848
2191.84	75.6896
2193.28	74.3463
2194.72	73.027
2196.16	71.8415
2197.59	70.2389
2199.03	68.2283
2200.47	66.6642
2201.9	65.2122
2203.34	64.632
2204.78	62.9998
2206.21	62.1214
2207.65	60.8581
2209.08	58.7451
2210.51	58.1345
2211.95	56.8138
2213.38	55.4887
2214.82	54.7451
2216.25	53.4455
2217.68	52.401
2219.12	51.1324
2220.55	49.7282
2221.98	47.7595
2223.42	46.0876
2224.85	43.9789
2226.28	42.3103
2227.71	41.6312
2229.14	39.3963
2230.57	38.4655
2232	37.2501
2233.43	35.9637
2234.86	34.1297
2236.29	33.3982
2237.72	32.1815
2239.15	30.8776
2240.58	29.6173
2242.01	29.3157
2243.44	28.2192
2244.87	26.8361
2246.3	25.2541
2247.73	24.2046
2249.15	23.8023
2250.58	23.2243
2252.01	22.355
2253.43	21.3694
2254.86	20.3797
2256.29	20.1006
2257.71	20.207
2259.14	20.3718
2260.56	20.3246
2261.99	20.0106
2263.41	19.3971
2264.84	19.4578
2266.26	18.4889
2267.69	18.1944
2269.11	17.9674
2270.54	17.5152
2271.96	17.5826
2273.38	17.2823
2274.81	16.8471
2276.23	16.5468
2277.65	16.5013
2279.07	16.0013
2280.49	15.2293
2281.92	15.3165
2283.34	15.1441
2284.76	14.9835
2286.18	14.4102
2287.6	14.1441
2289.02	12.8489
2290.44	12.2197
2291.86	11.3975
2293.28	10.4508
2294.7	10.1071
2296.12	9.76794
2297.54	10.3846
2298.96	10.8428
2300.38	9.8175
2301.79	10.211
2303.21	9.59646
2304.63	9.6137
2306.05	9.87789
2307.46	9.81951
2308.88	9.55873
2310.3	9.50245
2311.71	9.64193
2313.13	9.7214
2314.55	9.84231
2315.96	9.37271
2317.38	9.64981
2318.79	9.89373
2320.21	9.81711
2321.62	9.54631
2323.03	8.93928
2324.45	8.61156
2325.86	8.28617
2327.27	8.70744
2328.69	8.77437
2330.1	8.43265
2331.51	8.40162
2332.93	8.22774
2334.34	8.34014
2335.75	8.59417
2337.16	8.20535
2338.57	8.24186
2339.99	8.15467
2341.4	7.89277
2342.81	8.00207
2344.22	7.96638
2345.63	7.70217
2347.04	7.44189
2348.45	7.57577
2349.86	7.8668
2351.26	7.71737
2352.67	7.9938
2354.08	7.49492
2355.49	7.21162
2356.9	6.93458
2358.31	7.17265
2359.71	6.04592
2361.12	6.01345
2362.53	6.03987
2363.94	5.94423
2365.34	6.6395
2366.75	7.30116
2368.15	6.87156
2369.56	6.07066
2370.97	5.8643
2372.37	5.63707
2373.78	5.47786
2375.18	5.6993
2376.59	5.69158
2377.99	5.57581
2379.39	5.19875
2380.8	5.44557
2382.2	5.63851
2383.61	5.81508
2385.01	4.89855
2386.41	3.60201
2387.81	3.60009
2389.22	3.37304
2390.62	2.88393
2392.02	2.4974
2393.42	2.66791
2394.82	2.98358
2396.22	2.93114
2397.63	3.03785
2399.02	2.88486
2400.43	2.98352
2401.82	3.47775
2403.23	3.8014
2404.62	4.70117
2406.02	4.86951
2407.42	5.25903
2408.82	5.46721
2410.22	6.09383
2411.62	5.90017
2413.02	6.39303
2414.41	6.82936
2415.81	7.05282
2417.21	7.1127
2418.61	7.73351
2420	7.46741
2421.4	7.50671
2422.79	7.34423
2424.19	7.4119
2425.59	7.84391
2426.98	8.50271
2428.38	8.26927
2429.77	8.03777
2431.17	8.36942
2432.56	8.61925
2433.96	8.75433
2435.35	8.78085
2436.74	8.28491
2438.14	7.69455
2439.53	8.19106
2440.92	8.1807
2442.32	7.53407
2443.71	7.62689
2445.1	7.74259
2446.49	7.8344
2447.88	7.10961
2449.28	6.86
2450.67	6.81722
2452.06	5.69379
2453.45	5.32149
2454.84	4.58563
2456.23	4.87509
2457.62	5.01437
2459.01	4.12805
2460.4	3.27824
2461.79	2.88406
2463.18	2.71731
2464.57	2.44204
2465.96	1.67107
2467.34	1.4401
2468.73	1.14659
2470.12	0.784485
2471.51	0.595436
2472.89	0.686289
2474.28	0.818218
2475.67	0.302256
2477.05	0.0635609
2478.44	-0.253501
2479.83	-0.76833
2481.21	-1.87612
2482.6	-1.70486
2483.98	-1.67355
2485.37	-1.53629
2486.75	-1.4916
2488.14	-1.3785
2489.52	-1.29039
2490.9	-0.685342
2492.29	-0.78017
2493.67	-0.375713
2495.06	-0.468103
2496.44	0.108473
2497.82	0.447147
2499.2	0.719937
2500.59	0.893637
2501.97	1.55832
2503.35	0.988949
2504.73	0.884765
2506.11	0.744555
2507.49	1.15503
2508.88	1.56358
2510.26	1.65634
2511.63	2.09136
2513.01	2.53283
2514.39	2.70531
2515.77	2.76992
2517.15	2.48555
2518.53	3.18006
2519.91	3.09148
2521.29	2.82957
2522.67	3.27512
2524.05	2.81107
2525.42	3.08411
2526.8	2.22459
2528.18	1.77556
2529.56	2.23827
2530.93	2.41309
2532.31	2.68746
2533.69	2.74991
2535.06	2.65255
2536.44	3.14093
2537.81	3.34639
2539.19	3.80132
2540.56	4.03231
2541.94	4.08653
2543.31	4.27767
2544.69	4.40057
2546.06	4.7342
2547.44	4.69803
2548.81	4.39302
2550.18	4.47476
2551.56	5.64039
2552.93	5.79472
2554.3	5.81107
2555.68	5.81212
2557.05	5.85367
2558.42	6.12288
2559.79	6.39509
2561.16	5.91637
2562.53	6.29624
2563.9	6.21752
2565.28	6.71532
2566.64	6.65483
2568.02	6.09064
2569.38	6.49647
2570.76	6.8889
2572.12	6.27387
2573.49	6.59921
2574.86	6.34558
2576.23	6.95338
2577.6	6.73534
2578.97	6.56877
2580.34	6.05805
2581.7	6.02059
2583.07	5.10653
2584.44	4.94313
2585.81	4.44361
2587.17	4.15651
2588.54	3.88503
2589.91	4.22966
2591.27	3.89069
2592.64	4.06131
2594	4.17813
2595.37	3.92309
2596.73	3.85156
2598.1	3.57494
2599.46	3.32769
2600.83	3.61976
2602.19	3.71216
2603.55	4.31392
2604.92	4.59254
2606.28	4.79803
2607.64	4.64056
2609.01	4.31166
2610.37	4.04656
2611.73	4.14625
2613.09	4.19336
2614.46	4.09327
2615.82	3.51927
2617.18	3.69819
2618.54	3.9515
2619.9	4.63944
2621.26	4.64068
2622.62	5.31662
2623.98	5.77835
2625.34	5.88111
2626.7	6.598
2628.06	7.37929
2629.42	7.54943
2630.78	8.01891
2632.14	7.94892
2633.5	8.21534
2634.86	8.60855
2636.22	9.26549
2637.57	9.28286
2638.93	9.15405
2640.29	8.40383
2641.64	8.8981
2643	9.67744
2644.36	9.80076
2645.72	9.42504
2647.07	9.1277
2648.43	9.14437
2649.78	9.06678
2651.14	8.744
2652.49	8.52683
2653.85	8.62634
2655.2	8.53705
2656.56	8.67436
2657.91	8.84638
2659.27	8.40001
2660.62	8.36772
2661.97	8.39945
2663.33	8.67974
2664.68	8.33249
2666.03	8.14535
2667.38	8.49763
2668.74	8.29973
2670.09	7.60395
2671.44	7.31782
2672.79	6.77575
2674.14	5.72491
2675.49	5.5714
2676.84	4.98166
2678.2	4.77151
2679.55	4.3326
2680.89	4.38598
2682.24	3.92945
2683.59	4.28525
2684.94	5.06961
2686.29	5.83225
2687.64	6.50107
2688.99	6.65183
2690.34	6.69574
2691.69	7.02104
2693.04	7.33936
2694.38	7.72965
2695.73	7.84853
2697.08	7.78931
2698.43	7.6438
2699.77	7.74888
2701.12	7.84059
2702.46	7.90257
2703.81	8.10965
2705.16	7.46818
2706.5	7.3693
2707.85	7.53042
2709.19	8.22937
2710.54	7.73465
2711.88	7.10554
2713.23	7.04525
2714.57	7.12958
2715.92	7.77162
2717.26	6.93364
2718.6	7.31887
2719.95	6.97851
2721.29	7.8509
2722.63	8.08691
2723.97	8.17167
2725.32	7.92892
2726.66	7.86696
2728	7.46338
2729.34	7.42872
2730.68	7.06604
2732.02	6.00963
2733.36	5.49691
2734.7	4.70572
2736.04	4.50929
2737.39	4.23471
2738.72	3.62815
2740.06	3.26916
2741.4	2.86325
2742.74	2.98425
2744.08	2.32945
2745.42	2.18255
2746.76	1.88336
2748.1	1.58682
2749.44	1.36579
2750.77	1.92451
2752.11	1.62344
2753.45	1.53613
2754.78	0.931019
2756.12	0.715416
2757.46	0.509382
2758.79	0.73431
2760.13	0.638962
2761.47	0.775166
2762.8	0.682757
2764.14	0.579241
2765.47	0.212068
2766.81	-0.164382
2768.14	-0.0456346
2769.48	-0.117659
2770.81	0.198992
2772.14	0.0703313
2773.48	0.0937546
2774.81	0.566438
2776.14	0.552808
2777.48	0.197499
2778.81	0.86613
2780.14	1.09494
2781.47	1.51628
2782.81	1.61515
2784.14	1.24472
2785.47	1.94654
2786.8	2.22036
2788.13	2.05562
2789.46	1.4132
2790.79	1.10748
2792.12	1.12794
2793.46	1.25749
2794.79	0.943138
2796.11	0.418621
2797.44	0.830916
2798.77	0.985183
2800.1	1.42153
2801.43	1.07334
2802.76	1.16803
2804.09	0.180441
2805.42	-0.404169
2806.74	-0.0497824
2808.07	0.128075
2809.4	-0.168923
2810.73	-0.27935
2812.05	-0.87415
2813.38	-1.51957
2814.71	-1.70752
2816.03	-1.60602
2817.36	-1.12097
2818.68	-1.06092
2820.01	0.330538
2821.33	1.3595
2822.66	3.02949
2823.98	4.15377
2825.31	5.91367
2826.63	8.15981
2827.96	9.67543
2829.28	10.9356
2830.61	13.2916
2831.93	15.0619
2833.25	16.9079
2834.57	19.2539
2835.9	20.5963
2837.22	23.2293
2838.54	25.1014
2839.86	27.0303
2841.18	30.2829
2842.51	33.0496
2843.83	35.7816
2845.15	38.49
2846.47	41.2749
2847.79	43.9504
2849.11	46.8535
2850.43	49.9908
2851.75	53.0574
2853.07	55.4383
2854.39	58.1119
2855.71	60.6696
2857.03	63.2674
2858.35	65.5634
2859.67	68.277
2860.98	70.5434
2862.3	72.7763
2863.62	75.9636
2864.94	77.3588
2866.25	78.923
2867.57	80.3075
2868.89	81.385
2870.21	82.7248
2871.52	84.5901
2872.84	86.3488
2874.15	87.5198
2875.47	88.7797
2876.78	89.8288
2878.1	90.5566
2879.42	91.7982
2880.73	93.4111
2882.04	95.0126
2883.36	97.7727
2884.67	99.3623
2885.99	102.186
2887.3	104.17
2888.61	105.804
2889.93	107.422
2891.24	110.02
2892.55	112.31
2893.87	113.238
2895.18	115.606
2896.49	118.699
2897.8	120.982
2899.11	123.667
2900.42	126.503
2901.74	129.612
2903.05	133.706
2904.36	136.923
2905.67	140.982
2906.98	144.688
2908.29	149.077
2909.6	153.404
2910.91	157.227
2912.22	161.689
2913.53	165.506
2914.83	169.369
2916.14	172.859
2917.45	176.906
2918.76	180.881
2920.07	185.28
2921.37	187.561
2922.68	190.792
2923.99	193.381
2925.3	195.626
2926.6	197.316
2927.91	198.887
2929.22	199.67
2930.52	200.002
2931.83	200.563
2933.13	200.872
2934.44	200.919
2935.74	200.345
2937.05	198.936
2938.35	197.196
2939.66	195.599
2940.96	193.216
2942.27	190.288
2943.57	187.799
2944.87	185.514
2946.18	182.753
2947.48	179.402
2948.78	175.521
2950.09	171.283
2951.39	168.268
2952.69	163.753
2953.99	158.871
2955.29	155.015
2956.6	150.702
2957.9	146.284
2959.2	141.361
2960.5	137.841
2961.8	133.589
2963.1	129.14
2964.4	125.148
2965.7	121.244
2967	117.282
2968.3	113.139
2969.6	109.096
2970.9	106.019
2972.2	102.581
2973.49	100.027
2974.79	95.3849
2976.09	91.6707
2977.39	88.3413
2978.69	84.6656
2979.98	81.1962
2981.28	78.2685
2982.58	75.4149
2983.88	71.7544
2985.17	68.2448
2986.47	63.9888
2987.76	60.4364
2989.06	56.9819
2990.36	53.5117
2991.65	50.2832
2992.95	46.4721
2994.24	42.9373
2995.54	40.1777
2996.83	37.1805
2998.12	34.1549
2999.42	30.8048
3000.71	27.2606
3002	24.5025
3003.3	22.2011
3004.59	20.1221
3005.88	18.0062
3007.18	16.4663
3008.47	14.8774
3009.76	13.4867
3011.05	11.5094
3012.35	9.86522
3013.64	8.24014
3014.93	7.73777
3016.22	6.93566
3017.51	5.34803
3018.8	4.38445
3020.09	4.16358
3021.38	3.79057
3022.67	3.83083
3023.96	3.51117
3025.25	3.36911
3026.54	3.12277
3027.83	3.64852
3029.12	4.10309
3030.41	4.22574
3031.69	4.16731
3032.98	4.6082
3034.27	4.90766
3035.56	5.39006
3036.85	5.17139
3038.13	5.56607
3039.42	5.78463
3040.71	6.90265
3041.99	7.10301
3043.28	7.44526
3044.57	8.23366
3045.85	9.04505
3047.14	9.77209
3048.42	10.3974
3049.71	11.3773
3050.99	11.1508
3052.28	11.831
3053.56	12.6478
3054.85	12.6061
3056.13	12.9496
3057.42	12.6731
3058.7	12.6104
3059.98	12.8272
3061.27	12.3903
3062.55	12.3661
3063.83	12.2021
3065.11	11.4931
3066.4	11.1575
3067.68	10.7921
3068.96	10.9679
3070.24	10.5016
3071.52	9.84059
3072.8	9.51973
3074.09	9.31788
3075.37	8.34431
3076.65	8.08436
3077.93	7.34216
3079.21	7.33698
3080.49	6.82089
3081.77	6.56687
3083.05	6.37606
3084.32	6.3696
3085.61	6.32378
3086.88	6.34208
3088.16	5.92484
3089.44	5.70055
3090.72	6.20786
3092	6.33731
3093.27	5.94338
3094.55	5.82037
3095.83	5.93449
3097.11	6.57468
3098.38	6.76782
3099.66	7.47885
3100.94	8.45908
3102.21	9.50081
3103.49	10.4873
3104.76	11.7062
3106.04	12.4927
3107.31	13.6781
3108.59	14.9144
3109.86	15.8875
3111.14	16.9618
3112.41	17.5319
3113.69	18.9001
3114.96	19.5238
3116.23	20.4646
3117.51	21.3727
3118.78	22.1006
3120.05	22.7788
3121.33	23.1661
3122.6	23.8104
3123.87	24.6917
3125.14	25.1785
3126.42	26.1303
3127.69	26.2296
3128.96	26.7704
3130.23	27.7443
3131.5	28.3669
3132.77	29.4412
3134.04	29.756
3135.31	30.6276
3136.58	31.4028
3137.85	31.9188
3139.12	32.2972
3140.39	33.095
3141.66	33.681
3142.93	34.5408
3144.2	35.2606
3145.47	35.9312
3146.74	36.8586
3148	37.616
3149.27	38.5277
