#Acq. time (s)=	45
#Accumulations=	2
#Range (cm-¹)=	200...3150
#Windows=	2
#Auto scanning=	Off
#Autofocus=	Off
#Macrospot=	Off
#AutoExposure=	Off
#Spike filter=	Multiple accum.
#Delay time (s)=	0
#Binning=	1
#Readout mode=	Signal
#DeNoise=	Off
#ICS correction=	On
#Dark correction=	Off
#Inst. Process=	Off
#Detector Gain=	Best Dynamic Range
#Detector ADC=	20 kHz       
#Detector temperature (°C)=	-69.85
#Instrument=	LabRAM HR Evol
#Detector=	Synapse
#Objective=	x100
#Grating=	600 gr/mm
#ND Filter=	100%
#Laser (nm)=	532 
#Hole=	100.021
#Range=	Auto
#Laser Pol.=	No
#Raman. Pol.=	No
#Laser Pol. (°)=	-0.0007625
#Raman Pol. (°)=	89.9995
#Collection=	Microscope
#StageXY=	Marzhauser
#StageZ=	Marzhauser
#X (µm)=	28305.8
#Y (µm)=	-3227.2
#Z (µm)=	1041.05
#Full time(mm:ss)=	3:19
#Project=	
#Sample=	
#Site=	
#Title=	Mb_50_18_34_2x_45s_532 nm_x100_100%_600 gr_mm
#Remark=	
#Date=	12.07.2022 13:28
#Acquired=	12.07.2022 13:28:24
#Base:Fit=	10.08.2022 10:49:18
#Base:Sub=	10.08.2022 10:49:30
#Filter:Polynom=	16.08.2022 10:14:59
#AxisType[0]=Intens
#AxisUnit[0]=Cnt
#AxisType[1]=Spectr
#AxisUnit[1]=1/cm
200.388	55.9107
202.204	51.7896
204.019	47.1663
205.832	43.7935
207.646	40.0259
209.459	37.1712
211.274	35.6633
213.087	33.9227
214.899	32.996
216.711	32.5942
218.524	32.0059
220.335	30.2208
222.146	27.8903
223.956	27.9682
225.766	27.0202
227.576	25.991
229.388	24.6878
231.197	24.7575
233.005	22.2349
234.813	20.2635
236.621	18.8417
238.429	17.6187
240.236	17.3893
242.045	16.9867
243.852	16.4819
245.658	16.0115
247.464	16.9354
249.269	16.1756
251.074	15.6568
252.879	14.6042
254.683	14.6884
256.487	14.325
258.291	13.7611
260.094	12.6892
261.897	11.4063
263.702	10.4885
265.504	9.21618
267.306	6.73462
269.108	4.70639
270.909	3.12077
272.71	2.6114
274.511	1.76126
276.311	2.21137
278.111	2.00189
279.91	1.49357
281.709	1.24959
283.508	2.18365
285.306	2.68366
287.105	2.83558
288.9	5.35063
290.698	6.38349
292.495	8.75734
294.291	11.7149
296.088	14.7837
297.884	19.4027
299.679	23.223
301.475	26.5155
303.27	28.5644
305.064	31.7807
306.858	33.9522
308.652	34.8151
310.444	36.1886
312.237	38.8161
314.03	42.0862
315.822	42.6128
317.615	43.7826
319.406	44.8399
321.198	46.3371
322.987	46.1834
324.778	47.0575
326.568	48.9732
328.358	49.8872
330.148	50.4041
331.935	49.8488
333.724	49.645
335.513	47.6343
337.301	45.2442
339.089	41.663
340.875	40.2969
342.662	38.7043
344.449	39.05
346.236	38.6816
348.02	39.7523
349.806	41.1624
351.592	44.2728
353.375	48.3249
355.16	53.2893
356.944	59.5081
358.728	65.7767
360.51	71.4302
362.294	76.6125
364.077	84.0546
365.858	91.7047
367.64	98.1615
369.422	104.151
371.202	110.843
372.983	118.658
374.764	122.518
376.543	127.672
378.324	132.564
380.102	136.877
381.881	140.928
383.661	143.569
385.438	146.132
387.216	147.242
388.993	147.501
390.771	148.191
392.548	146.777
394.324	144.577
396.101	142.191
397.875	138.808
399.651	134.645
401.425	130.101
403.201	124.379
404.974	117.475
406.749	110.274
408.524	103.317
410.296	95.548
412.07	87.7097
413.841	79.6207
415.614	71.4738
417.385	62.2337
419.156	53.6716
420.928	44.4434
422.698	36.4704
424.469	27.4209
426.238	20.6291
428.009	15.0472
429.777	9.98776
431.548	7.40068
433.315	6.40923
435.083	4.24134
436.852	4.23151
438.618	4.14126
440.387	5.62771
442.153	5.91588
443.919	6.42653
445.686	7.24378
447.451	6.02042
449.218	7.63636
450.982	9.23515
452.746	10.4105
454.512	10.2401
456.275	10.5494
458.038	11.2658
459.803	11.8449
461.565	11.7681
463.327	12.2561
465.091	12.8654
466.852	14.4115
468.613	14.3001
470.374	14.1183
472.136	14.9129
473.896	17.3805
475.655	19.2728
477.415	22.1024
479.176	25.7935
480.934	28.4095
482.692	33.1853
484.45	38.144
486.21	42.5132
487.967	46.8334
489.724	53.8599
491.481	59.9085
493.237	64.7718
494.995	70.5416
496.75	78.5002
498.506	84.41
500.26	92.2327
502.015	98.5065
503.771	103.031
505.525	109.515
507.279	114.023
509.032	117.795
510.785	122.571
512.537	124.871
514.289	127.631
516.041	129.724
517.793	131.865
519.546	133.296
521.297	133.166
523.047	131.861
524.797	131.423
526.547	128.991
528.297	126.659
530.046	123.523
531.795	119.149
533.543	116.033
535.291	110.397
537.039	105.528
538.787	98.5338
540.534	92.038
542.281	85.7899
544.027	79.772
545.773	72.589
547.519	65.7832
549.264	59.0277
551.01	52.6404
552.754	44.1675
554.499	37.9232
556.243	31.9369
557.987	26.5997
559.73	22.2115
561.474	19.3233
563.216	16.8899
564.959	16.0946
566.701	15.683
568.441	16.0303
570.182	16.3227
571.923	16.2634
573.664	16.2182
575.405	17.9173
577.145	19.7332
578.885	21.0754
580.624	23.0505
582.361	26.2659
584.1	29.8373
585.839	30.1077
587.577	32.8492
589.315	32.9582
591.052	33.1929
592.787	36.0952
594.524	37.3271
596.26	39.6495
597.997	39.8192
599.732	39.4763
601.466	39.7287
603.201	40.7719
604.936	40.9886
606.67	40.6635
608.403	41.2548
610.136	41.6121
611.87	41.4881
613.603	40.3013
615.334	39.1885
617.067	37.2017
618.799	35.2397
620.529	34.4356
622.26	32.0366
623.991	29.5201
625.72	27.172
627.451	26.0841
629.181	24.3441
630.909	22.1018
632.638	20.3289
634.368	19.1203
636.095	17.0457
637.823	14.8792
639.551	13.252
641.277	12.8491
643.005	12.7387
644.73	9.78088
646.457	9.58651
648.184	8.76021
649.908	9.05991
651.634	9.30032
653.357	8.06852
655.083	8.42599
656.806	7.67515
658.53	6.66645
660.253	7.21149
661.977	8.03374
663.7	6.64986
665.422	7.36414
667.145	6.70141
668.865	6.77358
670.588	7.17212
672.308	6.38192
674.027	7.18124
675.749	6.89252
677.468	7.84199
679.188	10.0378
680.907	11.1405
682.627	12.2887
684.345	12.489
686.064	14.215
687.781	14.682
689.498	16.2506
691.216	16.4201
692.932	17.2309
694.65	18.5875
696.366	18.6155
698.081	18.7001
699.797	19.3254
701.512	19.6342
703.228	21.5794
704.942	22.4822
706.655	23.3968
708.371	24.0974
710.083	24.9415
711.796	26.2614
713.51	26.9342
715.222	26.896
716.934	26.6279
718.645	26.8588
720.358	25.6009
722.068	24.776
723.779	24.2839
725.49	24.4953
727.2	23.9271
728.909	23.2185
730.618	22.4884
732.329	26.0407
734.037	29.1839
735.745	33.4538
737.453	39.8362
739.16	47.7985
740.869	57.6254
742.576	67.7046
744.282	79.4814
745.988	91.955
747.694	103.326
749.401	114.892
751.107	128.354
752.811	139.716
754.516	151.847
756.22	163.175
757.924	173.788
759.627	183.722
761.332	192.256
763.035	199.691
764.738	208.137
766.44	215.288
768.142	221.326
769.843	225.258
771.544	227.883
773.245	228.8
774.946	229.606
776.646	230.252
778.346	229.555
780.046	228.806
781.745	225.593
783.444	223.989
785.143	218.453
786.841	213.27
788.539	207.234
790.237	198.524
791.934	190.091
793.631	180.126
795.328	168.686
797.024	156.797
798.72	145.39
800.416	132.726
802.112	121.694
803.807	109.776
805.502	99.5763
807.196	89.3587
808.89	79.1839
810.584	70.2977
812.278	62.124
813.971	55.2192
815.664	50.5569
817.354	47.9523
819.047	44.6228
820.739	43.4195
822.43	44.098
824.122	45.0773
825.813	45.2553
827.503	46.0107
829.192	45.4694
830.882	45.1488
832.571	45.3669
834.261	45.3315
835.95	45.677
837.637	43.3057
839.325	44.1163
841.013	43.0557
842.701	42.4412
844.389	41.0319
846.074	39.5772
847.761	38.747
849.447	39.6373
851.131	38.9007
852.817	36.3083
854.503	34.0573
856.188	32.9201
857.871	31.1216
859.556	31.1979
861.24	31.4887
862.922	30.4694
864.606	29.6661
866.289	28.2119
867.97	27.4968
869.653	26.3625
871.336	25.5943
873.016	24.2506
874.698	22.4577
876.379	20.574
878.058	19.5368
879.739	19.1943
881.418	19.6507
883.098	19.1295
884.778	18.2934
886.456	19.2533
888.135	18.2812
889.812	16.9977
891.49	16.0506
893.167	15.2402
894.845	15.2433
896.523	14.805
898.198	15.2668
899.875	16.0504
901.55	14.8819
903.226	13.9664
904.901	14.6154
906.576	15.4765
908.25	16.4049
909.925	15.8881
911.598	15.8309
913.271	16.7049
914.945	18.785
916.617	19.1502
918.291	17.8247
919.962	17.8911
921.635	17.9894
923.306	19.1557
924.978	18.1756
926.648	18.8029
928.318	18.2136
929.989	17.6676
931.659	16.927
933.328	16.0609
934.998	15.7125
936.666	15.3402
938.336	15.9561
940.004	15.985
941.671	15.6857
943.34	15.7821
945.007	14.4571
946.673	14.7111
948.339	13.2686
950.007	13.7941
951.672	13.1713
953.337	12.2835
955.004	10.3947
956.669	9.06934
958.333	7.43913
959.997	6.52505
961.662	7.45985
963.326	6.60257
964.989	5.64544
966.651	5.66985
968.315	4.94855
969.977	3.91649
971.639	2.05231
973.301	1.42197
974.962	2.07904
976.624	0.639621
978.285	-0.129181
979.945	-2.04032
981.605	-2.95695
983.264	-6.08858
984.924	-7.29395
986.583	-7.32547
988.243	-5.74186
989.901	-3.90195
991.56	-1.37658
993.217	1.82698
994.875	6.21441
996.532	12.7599
998.188	17.9477
999.845	24.04
1001.5	30.4272
1003.16	39.2211
1004.81	46.803
1006.47	55.4042
1008.12	64.7763
1009.78	74.2917
1011.43	83.2356
1013.09	93.0343
1014.74	102.592
1016.39	110.773
1018.05	120.194
1019.7	128.584
1021.35	135.736
1023	142.17
1024.65	148.349
1026.31	152.691
1027.96	155.983
1029.61	160.126
1031.26	161.845
1032.91	163.735
1034.56	164.387
1036.21	162.874
1037.86	161.506
1039.51	158.655
1041.16	156.102
1042.8	152.072
1044.45	148.681
1046.1	144.402
1047.75	139.783
1049.39	135.222
1051.04	128.529
1052.69	124.034
1054.33	119.072
1055.98	116.168
1057.62	112.361
1059.27	108.006
1060.91	105.446
1062.56	103.114
1064.2	103.242
1065.85	102.469
1067.49	104.779
1069.13	105.88
1070.77	108.708
1072.42	111.328
1074.06	113.631
1075.7	116.996
1077.34	120.471
1078.98	123.529
1080.62	125.454
1082.27	128.575
1083.91	129.087
1085.55	131.901
1087.18	133.077
1088.82	135.52
1090.46	136.127
1092.1	136.618
1093.74	136.857
1095.38	136.472
1097.02	134.64
1098.65	131.321
1100.29	129.12
1101.93	125.367
1103.56	120.202
1105.2	115.086
1106.84	108.771
1108.47	101.779
1110.11	95.0647
1111.74	88.7343
1113.38	81.7065
1115.01	73.9744
1116.64	66.312
1118.28	57.1031
1119.91	49.9882
1121.54	42.42
1123.18	35.5584
1124.81	29.3287
1126.44	24.1869
1128.07	20.5262
1129.7	16.3114
1131.33	14.1265
1132.97	11.6857
1134.6	11.949
1136.23	11.8876
1137.86	12.1396
1139.49	10.513
1141.11	10.0897
1142.74	12.5771
1144.37	13.393
1146	14.365
1147.63	15.3012
1149.26	16.5256
1150.88	16.974
1152.51	17.7757
1154.14	17.7179
1155.76	17.0783
1157.39	17.7099
1159.01	17.9505
1160.64	18.4519
1162.27	19.7886
1163.89	20.491
1165.51	21.4291
1167.14	25.0054
1168.76	26.5767
1170.39	29.3911
1172.01	30.7557
1173.63	32.2821
1175.25	33.8194
1176.88	35.5392
1178.5	36.6569
1180.12	38.0057
1181.74	39.6781
1183.36	40.1855
1184.98	41.3129
1186.6	42.6234
1188.22	43.7594
1189.84	45.832
1191.46	48.1305
1193.08	48.5951
1194.7	49.4885
1196.32	49.8665
1197.94	49.3917
1199.55	49.7588
1201.17	49.3092
1202.79	48.4387
1204.41	47.4202
1206.02	46.4424
1207.64	46.2016
1209.25	47.3787
1210.87	47.2148
1212.48	47.0261
1214.1	46.7691
1215.71	46.6587
1217.33	46.8199
1218.94	46.061
1220.56	46.6024
1222.17	47.714
1223.79	48.7079
1225.4	48.7488
1227.01	48.9331
1228.62	50.1249
1230.23	48.8227
1231.85	48.1646
1233.46	47.3002
1235.07	46.1021
1236.68	46.6159
1238.29	47.6095
1239.9	49.305
1241.51	48.8776
1243.12	49.4887
1244.73	49.4955
1246.34	51.3564
1247.94	52.1633
1249.55	51.7479
1251.16	51.2628
1252.77	51.0019
1254.37	50.4007
1255.98	51.2883
1257.59	51.5653
1259.2	52.7576
1260.8	55.1165
1262.41	55.9194
1264.01	56.8533
1265.62	58.7998
1267.22	60.9756
1268.83	62.0879
1270.43	62.9418
1272.03	63.9152
1273.64	63.4691
1275.24	64.475
1276.85	65.2193
1278.45	65.8074
1280.05	67.5997
1281.65	68.1963
1283.25	67.9857
1284.85	69.2714
1286.46	71.3424
1288.06	73.1855
1289.66	74.7869
1291.26	74.7024
1292.86	74.9289
1294.46	75.6698
1296.06	74.8751
1297.66	75.5589
1299.25	75.2447
1300.85	76.504
1302.45	75.7219
1304.05	77.0758
1305.65	77.4282
1307.24	76.9768
1308.84	76.3532
1310.43	76.6731
1312.03	76.792
1313.63	76.6764
1315.22	76.7048
1316.82	77.1301
1318.41	76.839
1320.01	76.9579
1321.6	74.4727
1323.2	74.3237
1324.79	72.4884
1326.38	72.1128
1327.98	70.7787
1329.57	70.0837
1331.16	69.5277
1332.76	69.0397
1334.35	68.3533
1335.94	68.8181
1337.53	68.3426
1339.12	68.6731
1340.71	67.8934
1342.3	66.8334
1343.89	67.5038
1345.48	66.9939
1347.07	65.8768
1348.66	65.4118
1350.25	64.8628
1351.84	64.7266
1353.43	63.9336
1355.01	63.9636
1356.6	63.219
1358.19	63.6526
1359.77	62.4376
1361.36	60.9627
1362.95	60.1935
1364.53	59.5147
1366.12	58.4129
1367.71	56.4829
1369.29	55.5065
1370.88	53.5687
1372.46	52.7774
1374.04	51.8585
1375.63	51.0797
1377.21	50.8955
1378.8	50.7343
1380.38	50.3478
1381.96	48.701
1383.54	48.4039
1385.13	47.0325
1386.71	45.5865
1388.29	45.0998
1389.87	44.7689
1391.45	42.0098
1393.03	41.2939
1394.61	41.2298
1396.19	40.1396
1397.77	39.3635
1399.35	39.2504
1400.93	40.6648
1402.51	42.9422
1404.09	43.8195
1405.67	46.7495
1407.24	49.5798
1408.82	51.7972
1410.4	54.4307
1411.98	56.4606
1413.55	59.6941
1415.13	62.7454
1416.71	66.5946
1418.28	71.1647
1419.86	76.6984
1421.43	81.4835
1423.01	85.702
1424.58	88.7421
1426.16	93.9333
1427.73	98.6059
1429.31	102.084
1430.88	107.207
1432.45	110.827
1434.02	113.904
1435.6	116.461
1437.17	120.537
1438.74	122.037
1440.31	125.017
1441.88	126.094
1443.45	126.132
1445.03	127.67
1446.6	128.259
1448.17	130.053
1449.74	130.558
1451.3	129.751
1452.87	129.457
1454.44	127.735
1456.01	126.373
1457.58	125.976
1459.15	124.846
1460.72	123.311
1462.28	122.858
1463.85	121.969
1465.42	119.412
1466.98	118.447
1468.55	116.956
1470.12	115.067
1471.68	114.099
1473.25	112.372
1474.81	109.806
1476.38	108.617
1477.94	107.951
1479.51	106.376
1481.07	102.338
1482.63	100.209
1484.2	98.3167
1485.76	95.691
1487.32	93.8444
1488.88	92.0726
1490.45	89.0842
1492.01	86.4146
1493.57	83.8365
1495.13	82.5339
1496.69	80.4192
1498.25	79.0755
1499.81	75.7451
1501.37	73.3116
1502.93	71.1124
1504.49	69.1866
1506.05	65.6882
1507.61	62.3532
1509.17	59.611
1510.73	56.2118
1512.28	53.129
1513.84	49.7347
1515.4	47.696
1516.96	44.2516
1518.51	42.1583
1520.07	39.4718
1521.63	38.0354
1523.18	37.3169
1524.74	35.8809
1526.29	35.5213
1527.85	33.8006
1529.4	32.8734
1530.96	32.8059
1532.51	33.5593
1534.06	34.7602
1535.62	35.6295
1537.17	36.4523
1538.72	36.6243
1540.28	37.432
1541.83	38.0274
1543.38	38.3329
1544.93	39.9304
1546.48	41.1601
1548.03	41.7442
1549.59	42.3441
1551.14	42.7172
1552.69	42.6051
1554.24	43.8912
1555.79	43.8557
1557.34	43.9271
1558.88	45.169
1560.43	47.4168
1561.98	47.1647
1563.53	49.3289
1565.08	51.0181
1566.62	51.6324
1568.17	52.7914
1569.72	54.607
1571.27	57.4506
1572.81	60.3161
1574.36	61.8747
1575.9	64.0542
1577.45	65.7931
1579	69.106
1580.54	70.4927
1582.09	72.0898
1583.63	72.7396
1585.17	73.3886
1586.72	75.9456
1588.26	77.1327
1589.8	78.0315
1591.35	78.5452
1592.89	80.5741
1594.43	80.2456
1595.97	80.8822
1597.52	81.5278
1599.06	81.7805
1600.6	82.1814
1602.14	81.5988
1603.68	82.0821
1605.22	81.0471
1606.76	81.5299
1608.3	81.2407
1609.84	81.8879
1611.38	80.332
1612.92	80.0479
1614.46	79.4669
1615.99	78.6428
1617.53	78.9787
1619.07	80.0176
1620.61	79.9375
1622.14	80.1784
1623.68	80.937
1625.22	81.1732
1626.75	80.7437
1628.29	80.6297
1629.82	81.3454
1631.36	83.1159
1632.9	83.7103
1634.43	85.956
1635.96	87.8746
1637.5	90.5801
1639.03	92.3783
1640.57	95.5343
1642.1	96.6688
1643.63	98.7343
1645.16	100.708
1646.7	103.219
1648.23	103.744
1649.76	104.936
1651.29	106.086
1652.82	107.727
1654.36	109.597
1655.89	109.446
1657.42	108.515
1658.95	107.713
1660.48	107.415
1662.01	106.222
1663.53	105.735
1665.06	104.177
1666.59	102.421
1668.12	100.05
1669.65	97.6392
1671.18	94.5216
1672.7	92.474
1674.23	90.3911
1675.76	87.1408
1677.29	83.0642
1678.81	79.8888
1680.34	76.0131
1681.86	72.1569
1683.39	70.2569
1684.91	65.9822
1686.44	62.037
1687.96	58.4331
1689.49	54.7763
1691.01	50.8179
1692.54	48.069
1694.06	45.3169
1695.58	42.2
1697.11	38.2802
1698.63	35.425
1700.15	32.4763
1701.67	29.5852
1703.2	26.7454
1704.72	24.2428
1706.24	23.3223
1707.76	21.5142
1709.28	19.6143
1710.8	18.117
1712.32	16.6105
1713.84	15.3102
1715.36	13.1544
1716.88	11.8766
1718.4	11.15
1719.91	9.99002
1721.43	8.79729
1722.95	8.47852
1724.47	6.99253
1725.99	7.5976
1727.5	8.21986
1729.02	7.96774
1730.54	7.76684
1732.05	7.55821
1733.57	8.21682
1735.09	8.82505
1736.6	9.3452
1738.12	9.09397
1739.63	10.03
1741.15	9.8846
1742.66	8.84221
1744.18	8.63037
1745.69	8.73804
1747.2	9.053
1748.72	9.26925
1750.23	9.08757
1751.74	8.32097
1753.25	7.97258
1754.77	8.53556
1756.28	8.22223
1757.79	9.00407
1759.3	8.49513
1760.81	7.24441
1762.32	6.42236
1763.83	5.99947
1765.34	5.08465
1766.85	4.81368
1768.36	4.53897
1769.87	3.70435
1771.38	3.21806
1772.89	2.69943
1774.4	2.93318
1775.91	2.48211
1777.41	2.91876
1778.92	2.33716
1780.43	2.3688
1781.94	2.08917
1783.44	1.14154
1784.95	1.08342
1786.45	0.820973
1787.96	0.968858
1789.47	0.827815
1790.97	1.34216
1792.48	1.6573
1793.98	1.51968
1795.48	0.899562
1796.99	1.28486
1798.49	2.16897
1800	2.41323
1801.5	2.83269
1803	3.61795
1804.51	3.57251
1806.01	4.42752
1807.51	5.98266
1809.01	6.3906
1810.51	7.158
1812.02	6.54834
1813.52	7.05162
1815.02	6.90684
1816.52	6.32399
1818.02	6.55292
1819.52	6.8983
1821.02	7.90195
1822.52	8.16086
1824.02	8.2904
1825.51	8.43001
1827.01	8.81455
1828.51	9.22944
1830.01	9.76566
1831.51	9.63449
1833	9.41292
1834.5	9.02468
1836	10.0023
1837.5	10.0558
1838.99	10.6313
1840.49	11.0867
1841.98	11.1037
1843.48	11.5209
1844.97	11.6919
1846.47	11.8561
1847.96	11.5641
1849.46	11.2905
1850.95	10.8619
1852.45	11.0236
1853.94	11.2689
1855.43	10.4094
1856.92	9.41596
1858.42	8.93243
1859.91	9.2453
1861.4	8.54565
1862.89	8.56379
1864.39	8.01135
1865.88	8.64807
1867.37	8.94898
1868.86	8.58189
1870.35	9.07812
1871.84	9.61837
1873.33	9.21549
1874.82	8.59857
1876.31	8.27763
1877.8	8.08566
1879.29	7.17701
1880.77	7.32526
1882.26	7.08325
1882.51	6.87189
1884	6.35249
1885.5	5.68323
1886.99	6.05722
1888.48	6.67105
1889.98	6.09293
1891.47	5.91096
1892.97	5.39087
1894.46	5.42188
1895.95	4.78591
1897.44	4.93841
1898.93	4.47425
1900.42	4.13279
1901.92	4.23663
1903.41	4.58927
1904.9	3.79455
1906.39	3.63261
1907.88	3.28263
1909.37	3.89779
1910.86	3.79328
1912.35	4.22215
1913.84	3.82187
1915.32	3.87775
1916.81	3.50464
1918.3	3.6845
1919.79	3.42634
1921.28	2.33834
1922.76	1.73081
1924.25	2.33377
1925.74	2.8325
1927.22	3.17195
1928.71	2.40173
1930.2	2.85936
1931.68	3.72283
1933.17	3.42427
1934.65	2.61943
1936.14	3.19091
1937.62	3.15377
1939.11	3.68496
1940.59	2.59216
1942.08	2.36132
1943.56	2.66098
1945.04	2.83532
1946.53	3.30785
1948.01	3.43826
1949.49	2.68566
1950.97	2.20462
1952.45	2.45256
1953.94	2.82427
1955.42	3.1575
1956.9	3.63991
1958.38	3.469
1959.86	4.23365
1961.34	4.66017
1962.82	4.84084
1964.3	3.7501
1965.78	4.67289
1967.26	3.59482
1968.74	3.89243
1970.22	4.02742
1971.69	4.43158
1973.17	3.8555
1974.65	4.30739
1976.13	4.58309
1977.61	5.15733
1979.08	4.78231
1980.56	5.55082
1982.03	6.33124
1983.51	8.02031
1984.99	8.00908
1986.46	7.31535
1987.94	6.84739
1989.41	6.65803
1990.89	6.23384
1992.36	6.00517
1993.84	5.02857
1995.31	5.32295
1996.78	5.68759
1998.26	6.56783
1999.73	6.55809
2001.2	6.48327
2002.68	6.46618
2004.15	6.70532
2005.62	6.32056
2007.09	5.22341
2008.56	6.43515
2010.04	6.15195
2011.51	6.59243
2012.98	6.0957
2014.45	6.07996
2015.92	7.11036
2017.39	7.27133
2018.86	6.69775
2020.33	6.31782
2021.8	5.31647
2023.27	4.23964
2024.74	5.4319
2026.2	5.96492
2027.67	5.62892
2029.14	6.51946
2030.61	6.93986
2032.07	7.39686
2033.54	7.79116
2035.01	8.34729
2036.47	8.69291
2037.94	8.89692
2039.41	9.12166
2040.87	8.85627
2042.34	10.3652
2043.8	11.2269
2045.27	11.0881
2046.73	11.1736
2048.2	12.0088
2049.66	12.944
2051.12	13.5532
2052.59	13.9943
2054.05	14.6641
2055.51	15.1891
2056.98	15.9884
2058.44	15.3089
2059.9	15.0708
2061.36	15.8024
2062.82	16.095
2064.29	17.333
2065.75	17.8869
2067.21	19.2342
2068.67	20.4035
2070.13	20.9059
2071.59	21.5527
2073.05	21.7663
2074.51	22.9421
2075.97	24.3414
2077.43	24.8025
2078.88	25.6229
2080.34	26.6972
2081.8	27.825
2083.26	28.5926
2084.72	30.4014
2086.17	31.1133
2087.63	32.9266
2089.09	33.9512
2090.54	35.5222
2092	37.3204
2093.46	39.9801
2094.91	41.8188
2096.37	42.8555
2097.82	45.439
2099.28	46.5898
2100.73	47.8404
2102.19	49.7123
2103.64	51.2928
2105.09	53.3377
2106.55	55.4343
2108	57.8149
2109.46	59.502
2110.91	60.8975
2112.36	62.3898
2113.81	65.1906
2115.27	67.6899
2116.72	69.9769
2118.17	72.087
2119.62	75.1518
2121.07	77.2341
2122.52	79.5974
2123.97	81.4124
2125.42	83.6554
2126.87	85.9868
2128.32	88.547
2129.77	91.8892
2131.22	92.3499
2132.67	95.6895
2134.12	98.3366
2135.57	100.973
2137.01	103.294
2138.46	105.125
2139.91	107.622
2141.36	109.988
2142.8	111.775
2144.25	113.223
2145.7	115.706
2147.14	119.065
2148.59	121.956
2150.03	123.955
2151.48	126.136
2152.92	128.041
2154.37	130.139
2155.81	132.39
2157.26	134.365
2158.7	136.233
2160.15	137.514
2161.59	138.351
2163.03	139.516
2164.48	140.825
2165.92	141.21
2167.36	141.123
2168.8	141.206
2170.25	141.595
2171.69	140.943
2173.13	140.545
2174.57	140.436
2176.01	141.375
2177.45	140.546
2178.89	139.182
2180.33	137.684
2181.77	136.726
2183.21	135.327
2184.65	134.51
2186.09	134.054
2187.53	131.872
2188.97	129.416
2190.41	127.795
2191.84	125.385
2193.28	123.296
2194.72	121.696
2196.16	119.661
2197.59	118.217
2199.03	116.415
2200.47	114.167
2201.9	111.243
2203.34	109.119
2204.78	108.689
2206.21	105.025
2207.65	102.531
2209.08	99.626
2210.51	97.4696
2211.95	94.7196
2213.38	91.6867
2214.82	89.2091
2216.25	86.6334
2217.68	84.8101
2219.12	83.2017
2220.55	80.5461
2221.98	77.4794
2223.42	75.3411
2224.85	72.9625
2226.28	70.0419
2227.71	68.0401
2229.14	65.6993
2230.57	63.0422
2232	61.5522
2233.43	59.634
2234.86	58.0204
2236.29	56.9132
2237.72	54.0164
2239.15	52.3953
2240.58	51.4918
2242.01	49.7851
2243.44	48.1257
2244.87	47.0779
2246.3	45.9822
2247.73	44.7695
2249.15	41.9819
2250.58	40.8265
2252.01	39.6063
2253.43	39.2969
2254.86	37.8353
2256.29	37.24
2257.71	35.2082
2259.14	34.4031
2260.56	34.0556
2261.99	33.4513
2263.41	32.7467
2264.84	32.3527
2266.26	31.8358
2267.69	30.9137
2269.11	30.1451
2270.54	29.1496
2271.96	28.4518
2273.38	27.6119
2274.81	27.559
2276.23	25.8114
2277.65	24.3351
2279.07	23.9491
2280.49	23.699
2281.92	23.2706
2283.34	21.7641
2284.76	21.071
2286.18	20.8198
2287.6	19.3283
2289.02	18.8198
2290.44	17.8771
2291.86	16.2346
2293.28	15.2481
2294.7	14.9432
2296.12	14.7118
2297.54	15.2932
2298.96	15.93
2300.38	16.5019
2301.79	17.2688
2303.21	16.7634
2304.63	15.9852
2306.05	15.861
2307.46	15.5841
2308.88	15.446
2310.3	16.4154
2311.71	15.9763
2313.13	15.1356
2314.55	15.0463
2315.96	15.2435
2317.38	14.358
2318.79	13.3853
2320.21	12.8774
2321.62	13.637
2323.03	13.5104
2324.45	12.708
2325.86	11.4454
2327.27	11.343
2328.69	10.4163
2330.1	10.7593
2331.51	10.2747
2332.93	9.55925
2334.34	8.65561
2335.75	7.46374
2337.16	7.03764
2338.57	5.62091
2339.99	5.57906
2341.4	4.82255
2342.81	4.2975
2344.22	3.97556
2345.63	3.45719
2347.04	3.01737
2348.45	2.797
2349.86	2.71529
2351.26	2.37958
2352.67	1.64096
2354.08	0.673961
2355.49	0.279303
2356.9	0.276477
2358.31	-0.28454
2359.71	-0.471727
2361.12	-0.0531714
2362.53	-0.0162461
2363.94	1.26296
2365.34	1.59002
2366.75	1.58554
2368.15	1.78485
2369.56	1.70016
2370.97	1.61896
2372.37	1.1129
2373.78	0.745244
2375.18	1.34237
2376.59	1.99434
2377.99	1.8567
2379.39	2.52903
2380.8	2.42251
2382.2	2.18678
2383.61	2.51426
2385.01	3.25873
2386.41	2.99863
2387.81	2.31236
2389.22	2.66922
2390.62	2.86333
2392.02	3.50159
2393.42	2.30734
2394.82	2.01096
2396.22	2.68415
2397.63	2.78157
2399.02	2.87421
2400.43	3.05627
2401.82	3.8689
2403.23	2.80912
2404.62	3.07937
2406.02	3.37385
2407.42	3.93136
2408.82	4.2527
2410.22	5.3641
2411.62	5.78307
2413.02	5.86603
2414.41	5.73526
2415.81	5.7541
2417.21	6.55608
2418.61	7.07875
2420	7.53339
2421.4	7.52752
2422.79	7.48969
2424.19	7.6592
2425.59	7.61008
2426.98	7.90892
2428.38	7.68176
2429.77	7.78278
2431.17	8.23278
2432.56	8.6786
2433.96	8.81058
2435.35	8.39752
2436.74	9.29819
2438.14	10.0516
2439.53	10.3288
2440.92	10.3719
2442.32	10.3254
2443.71	10.1819
2445.1	9.89391
2446.49	9.56821
2447.88	9.30122
2449.28	9.13369
2450.67	8.01804
2452.06	7.80918
2453.45	7.7545
2454.84	7.35446
2456.23	6.39987
2457.62	5.94302
2459.01	6.12275
2460.4	5.27252
2461.79	5.64809
2463.18	4.59795
2464.57	4.31817
2465.96	3.42692
2467.34	2.59101
2468.73	2.46348
2470.12	1.37374
2471.51	0.953549
2472.89	0.147923
2474.28	0.71555
2475.67	0.516358
2477.05	0.823426
2478.44	1.03981
2479.83	0.609679
2481.21	-0.281187
2482.6	-1.40867
2483.98	-0.863045
2485.37	-1.23928
2486.75	-1.31315
2488.14	-1.12539
2489.52	-1.82367
2490.9	-2.67512
2492.29	-2.12005
2493.67	-1.90129
2495.06	-1.9846
2496.44	-1.46042
2497.82	-0.896122
2499.2	0.0871552
2500.59	0.788256
2501.97	1.46405
2503.35	0.930383
2504.73	1.19425
2506.11	1.49441
2507.49	1.28365
2508.88	1.71364
2510.26	0.845308
2511.63	0.635169
2513.01	0.944975
2514.39	1.17184
2515.77	0.870442
2517.15	1.06725
2518.53	0.899021
2519.91	1.14413
2521.29	1.59651
2522.67	2.12852
2524.05	1.95157
2525.42	2.43077
2526.8	3.28134
2528.18	3.55064
2529.56	3.3884
2530.93	3.72317
2532.31	2.92704
2533.69	2.59001
2535.06	2.69554
2536.44	2.7887
2537.81	3.33749
2539.19	4.58278
2540.56	5.64289
2541.94	5.66107
2543.31	6.68333
2544.69	7.19152
2546.06	7.30235
2547.44	7.20645
2548.81	7.09182
2550.18	7.40241
2551.56	7.9039
2552.93	8.70396
2554.3	8.04773
2555.68	7.88291
2557.05	8.18823
2558.42	8.1777
2559.79	9.40466
2561.16	10.5939
2562.53	9.9524
2563.9	9.23052
2565.28	9.72264
2566.64	10.1826
2568.02	10.4266
2569.38	9.95089
2570.76	10.0063
2572.12	9.71183
2573.49	9.95247
2574.86	10.0118
2576.23	9.50517
2577.6	9.34754
2578.97	8.31336
2580.34	8.7591
2581.7	8.11886
2583.07	7.40165
2584.44	6.71133
2585.81	7.51971
2587.17	7.29873
2588.54	6.96862
2589.91	7.49142
2591.27	7.60379
2592.64	7.33478
2594	7.84133
2595.37	7.80966
2596.73	7.38371
2598.1	7.45536
2599.46	6.7569
2600.83	6.93769
2602.19	6.58427
2603.55	6.87502
2604.92	7.46687
2606.28	7.84939
2607.64	7.8055
2609.01	7.74663
2610.37	7.30028
2611.73	8.69949
2613.09	8.67803
2614.46	8.40888
2615.82	8.4163
2617.18	8.48026
2618.54	8.66933
2619.9	8.66268
2621.26	8.51492
2622.62	8.22287
2623.98	8.53444
2625.34	9.66132
2626.7	9.49921
2628.06	8.85563
2629.42	8.66994
2630.78	8.12889
2632.14	9.46311
2633.5	11.1093
2634.86	11.9124
2636.22	12.5157
2637.57	12.5842
2638.93	13.3775
2640.29	12.9973
2641.64	12.6199
2643	12.9773
2644.36	13.1955
2645.72	13.8059
2647.07	13.4732
2648.43	13.8095
2649.78	13.4777
2651.14	14.1322
2652.49	14.8671
2653.85	15.0941
2655.2	14.046
2656.56	14.0453
2657.91	14.1582
2659.27	13.8657
2660.62	14.4487
2661.97	14.2884
2663.33	13.8811
2664.68	13.4972
2666.03	12.6327
2667.38	12.1907
2668.74	12.4331
2670.09	11.9703
2671.44	11.9147
2672.79	11.8037
2674.14	11.2301
2675.49	11.133
2676.84	11.845
2678.2	11.1578
2679.55	11.6536
2680.89	11.1135
2682.24	10.3865
2683.59	10.3023
2684.94	10.2033
2686.29	10.1625
2687.64	10.0195
2688.99	9.37971
2690.34	9.00516
2691.69	8.95586
2693.04	8.73677
2694.38	8.70439
2695.73	8.60346
2697.08	9.53919
2698.43	9.52447
2699.77	10.1048
2701.12	10.3282
2702.46	10.323
2703.81	9.65053
2705.16	9.66813
2706.5	10.0972
2707.85	10.6924
2709.19	10.9152
2710.54	12.2443
2711.88	11.9088
2713.23	12.0324
2714.57	11.9486
2715.92	12.567
2717.26	12.7382
2718.6	13.2871
2719.95	13.6789
2721.29	13.3624
2722.63	14.1
2723.97	14.5867
2725.32	15.0482
2726.66	15.2809
2728	15.2849
2729.34	14.7647
2730.68	15.0386
2732.02	15.2074
2733.36	14.5327
2734.7	15.2389
2736.04	15.1549
2737.39	14.9955
2738.72	14.5125
2740.06	14.6285
2741.4	14.0094
2742.74	13.6008
2744.08	12.7401
2745.42	11.6509
2746.76	11.8388
2748.1	11.0444
2749.44	10.4478
2750.77	10.4485
2752.11	10.59
2753.45	9.73503
2754.78	9.91042
2756.12	9.24048
2757.46	8.39588
2758.79	8.29729
2760.13	7.78504
2761.47	6.89885
2762.8	5.78467
2764.14	6.41578
2765.47	5.63115
2766.81	4.9574
2768.14	4.32991
2769.48	3.16717
2770.81	2.92277
2772.14	2.83033
2773.48	2.66402
2774.81	1.98482
2776.14	1.20389
2777.48	1.55094
2778.81	1.13709
2780.14	1.57529
2781.47	2.00284
2782.81	1.6292
2784.14	1.50085
2785.47	1.34215
2786.8	1.96227
2788.13	1.80405
2789.46	1.68909
2790.79	1.41982
2792.12	1.29561
2793.46	1.02006
2794.79	0.787367
2796.11	0.989579
2797.44	0.896468
2798.77	1.07647
2800.1	0.38697
2801.43	1.14829
2802.76	0.762245
2804.09	0.897906
2805.42	0.442332
2806.74	0.462304
2808.07	1.00442
2809.4	1.68665
2810.73	2.49061
2812.05	3.22424
2813.38	4.24202
2814.71	5.11635
2816.03	6.8195
2817.36	9.02091
2818.68	10.7705
2820.01	12.2568
2821.33	15.4243
2822.66	17.8733
2823.98	20.5309
2825.31	24.8204
2826.63	27.1892
2827.96	30.6323
2829.28	33.9289
2830.61	37.7315
2831.93	39.7907
2833.25	43.9046
2834.57	47.9595
2835.9	51.7439
2837.22	56.4035
2838.54	60.9958
2839.86	65.5624
2841.18	70.6129
2842.51	75.8164
2843.83	80.9904
2845.15	86.3473
2846.47	91.4358
2847.79	95.3437
2849.11	99.3427
2850.43	104.148
2851.75	108.808
2853.07	114.406
2854.39	118.779
2855.71	123.038
2857.03	127.929
2858.35	132.223
2859.67	136.558
2860.98	140.298
2862.3	144.971
2863.62	148.736
2864.94	152.244
2866.25	155.35
2867.57	158.872
2868.89	160.829
2870.21	163.539
2871.52	166.054
2872.84	168.803
2874.15	171.956
2875.47	173.957
2876.78	176.232
2878.1	178.021
2879.42	181.473
2880.73	183.561
2882.04	186.009
2883.36	188.953
2884.67	191.418
2885.99	194.281
2887.3	198.215
2888.61	201.033
2889.93	204.024
2891.24	208.157
2892.55	211.192
2893.87	216.169
2895.18	221.064
2896.49	226.834
2897.8	232.424
2899.11	239.161
2900.42	245.602
2901.74	252.34
2903.05	260.807
2904.36	269.324
2905.67	278.613
2906.98	288.274
2908.29	297.811
2909.6	307.836
2910.91	318.91
2912.22	328.816
2913.53	339.78
2914.83	351.085
2916.14	362.18
2917.45	373.499
2918.76	385.57
2920.07	396.096
2921.37	406.657
2922.68	415.505
2923.99	423.381
2925.3	431.249
2926.6	438.295
2927.91	444.871
2929.22	449.435
2930.52	452.302
2931.83	455.443
2933.13	456.759
2934.44	457.842
2935.74	458.584
2937.05	458.265
2938.35	456.765
2939.66	453.917
2940.96	449.497
2942.27	444.774
2943.57	438.556
2944.87	432.477
2946.18	424.539
2947.48	416.941
2948.78	409.325
2950.09	400.38
2951.39	390.839
2952.69	382.339
2953.99	373.036
2955.29	364.032
2956.6	355.784
2957.9	347.128
2959.2	338.026
2960.5	329.344
2961.8	320.735
2963.1	312.028
2964.4	303.533
2965.7	295.867
2967	287.644
2968.3	281.38
2969.6	274.229
2970.9	267.54
2972.2	260.455
2973.49	254.168
2974.79	247.874
2976.09	241.96
2977.39	234.772
2978.69	229.305
2979.98	222.771
2981.28	216.793
2982.58	211.131
2983.88	204.826
2985.17	197.224
2986.47	189.649
2987.76	182.554
2989.06	176.031
2990.36	169.569
2991.65	162.377
2992.95	154.636
2994.24	147.334
2995.54	140.397
2996.83	134.214
2998.12	128.159
2999.42	121.857
3000.71	115.047
3002	107.864
3003.3	100.688
3004.59	94.1143
3005.88	87.8263
3007.18	81.8275
3008.47	75.0921
3009.76	69.9112
3011.05	64.3161
3012.35	59.0738
3013.64	54.3612
3014.93	49.2628
3016.22	45.3371
3017.51	42.0492
3018.8	38.9019
3020.09	35.5155
3021.38	33.3802
3022.67	30.628
3023.96	27.9397
3025.25	26.4164
3026.54	24.1132
3027.83	21.4175
3029.12	19.0488
3030.41	17.6833
3031.69	16.4802
3032.98	15.5509
3034.27	13.7247
3035.56	12.5761
3036.85	12.0754
3038.13	11.4057
3039.42	10.8861
3040.71	10.6301
3041.99	10.7417
3043.28	10.866
3044.57	10.3967
3045.85	10.3257
3047.14	10.2614
3048.42	10.2195
3049.71	10.4923
3050.99	11.1836
3052.28	12.1615
3053.56	11.6121
3054.85	11.8786
3056.13	12.4259
3057.42	12.5001
3058.7	12.6941
3059.98	13.4378
3061.27	13.477
3062.55	13.1578
3063.83	12.2432
3065.11	12.167
3066.4	11.3205
3067.68	11.1999
3068.96	10.6633
3070.24	10.0494
3071.52	9.68983
3072.8	8.6795
3074.09	8.58414
3075.37	7.95861
3076.65	6.29151
3077.93	5.59988
3079.21	5.19612
3080.49	4.77124
3081.77	3.99209
3083.05	4.02033
3084.32	3.40973
3085.61	3.27598
3086.88	2.9921
3088.16	2.41419
3089.44	1.96275
3090.72	1.61483
3092	1.36425
3093.27	0.965065
3094.55	0.565479
3095.83	0.576608
3097.11	0.0662629
3098.38	0.178087
3099.66	0.528325
3100.94	1.49623
3102.21	1.73515
3103.49	1.93989
3104.76	2.35904
3106.04	3.08784
3107.31	3.71753
3108.59	5.19555
3109.86	6.01034
3111.14	7.09142
3112.41	8.7099
3113.69	9.97561
3114.96	11.2917
3116.23	12.3826
3117.51	13.9237
3118.78	15.5598
3120.05	16.969
3121.33	17.8871
3122.6	19.4209
3123.87	21.446
3125.14	22.4283
3126.42	23.7891
3127.69	25.4824
3128.96	27.3026
3130.23	28.5579
3131.5	30.3795
3132.77	32.6452
3134.04	34.8505
3135.31	36.7814
3136.58	38.297
3137.85	40.46
3139.12	42.2636
3140.39	44.1895
3141.66	46.8882
3142.93	48.8652
3144.2	50.662
3145.47	52.2446
3146.74	53.3093
3148	54.2855
3149.27	54.384
