#Acq. time (s)=	45
#Accumulations=	2
#Range (cm-¹)=	200...3150
#Windows=	2
#Auto scanning=	Off
#Autofocus=	Off
#Macrospot=	Off
#AutoExposure=	Off
#Spike filter=	Multiple accum.
#Delay time (s)=	0
#Binning=	1
#Readout mode=	Signal
#DeNoise=	Off
#ICS correction=	On
#Dark correction=	Off
#Inst. Process=	Off
#Detector Gain=	Best Dynamic Range
#Detector ADC=	20 kHz       
#Detector temperature (°C)=	-69.85
#Instrument=	LabRAM HR Evol
#Detector=	Synapse
#Objective=	x100
#Grating=	600 gr/mm
#ND Filter=	100%
#Laser (nm)=	532 
#Hole=	100.021
#Range=	Auto
#Laser Pol.=	No
#Raman. Pol.=	No
#Laser Pol. (°)=	-0.0007625
#Raman Pol. (°)=	89.9995
#Collection=	Microscope
#StageXY=	Marzhauser
#StageZ=	Marzhauser
#X (µm)=	28336.8
#Y (µm)=	-3267.1
#Z (µm)=	1041.05
#Full time(mm:ss)=	3:18
#Project=	
#Sample=	
#Site=	
#Title=	Mb_50_18_31_2x_45s_532 nm_x100_100%_600 gr_mm
#Remark=	
#Date=	12.07.2022 13:07
#Acquired=	12.07.2022 13:07:48
#Base:Fit=	10.08.2022 10:49:18
#Base:Sub=	10.08.2022 10:49:30
#Filter:Polynom=	16.08.2022 10:14:59
#AxisType[0]=Intens
#AxisUnit[0]=Cnt
#AxisType[1]=Spectr
#AxisUnit[1]=1/cm
200.388	-8.82861
202.204	-6.24257
204.019	-5.51748
205.832	-5.73833
207.646	-5.6223
209.459	-5.78461
211.274	-6.12418
213.087	-6.76561
214.899	-6.47039
216.711	-7.09432
218.524	-6.72689
220.335	-6.66815
222.146	-6.91619
223.956	-6.11964
225.766	-6.977
227.576	-6.91644
229.388	-6.35557
231.197	-6.23527
233.005	-4.72021
234.813	-4.44596
236.621	-4.53886
238.429	-4.55987
240.236	-4.60889
242.045	-3.33623
243.852	-2.73145
245.658	-2.30125
247.464	-2.28594
249.269	-2.09492
251.074	-1.39138
252.879	-1.16071
254.683	-1.0264
256.487	-0.994049
258.291	-1.28985
260.094	-0.891835
261.897	-0.977896
263.702	-1.07168
265.504	-0.786667
267.306	-0.21102
269.108	-0.406854
270.909	0.36803
272.71	0.264954
274.511	0.128665
276.311	0.851793
278.111	1.34041
279.91	1.11022
281.709	0.795432
283.508	0.910461
285.306	2.38841
287.105	4.22512
288.9	5.75603
290.698	6.58955
292.495	7.58619
294.291	9.85359
296.088	13.2732
297.884	15.5881
299.679	18.7427
301.475	21.9289
303.27	24.5108
305.064	27.0792
306.858	29.109
308.652	32.9269
310.444	35.443
312.237	38.1531
314.03	41.1795
315.822	43.7682
317.615	47.34
319.406	49.6611
321.198	50.857
322.987	53.6376
324.778	54.3607
326.568	56.1355
328.358	57.6432
330.148	58.6282
331.935	60.0307
333.724	60.0098
335.513	59.0697
337.301	58.7473
339.089	57.9859
340.875	57.0262
342.662	55.8147
344.449	56.3237
346.236	56.2162
348.02	57.0965
349.806	58.4537
351.592	59.3781
353.375	61.0662
355.16	62.807
356.944	64.3164
358.728	67.2669
360.51	70.4661
362.294	73.8199
364.077	77.2626
365.858	80.5973
367.64	83.9466
369.422	87.3594
371.202	91.4763
372.983	94.517
374.764	97.8619
376.543	100.354
378.324	103.234
380.102	106.197
381.881	108.296
383.661	109.307
385.438	111.524
387.216	111.069
388.993	111.286
390.771	109.811
392.548	109.015
394.324	108.877
396.101	108.872
397.875	108.189
399.651	106.775
401.425	105.068
403.201	102.446
404.974	100.253
406.749	97.0431
408.524	92.8467
410.296	89.0574
412.07	85.3781
413.841	80.7165
415.614	76.8386
417.385	72.4883
419.156	67.7497
420.928	63.5402
422.698	59.1738
424.469	55.0404
426.238	52.1213
428.009	48.8968
429.777	47.5391
431.548	45.668
433.315	44.2835
435.083	42.8275
436.852	41.1303
438.618	40.7239
440.387	40.4874
442.153	39.8128
443.919	39.8132
445.686	41.1281
447.451	42.5375
449.218	42.6022
450.982	42.6763
452.746	42.7896
454.512	43.4419
456.275	43.0516
458.038	43.2447
459.803	42.6094
461.565	41.3646
463.327	40.5005
465.091	39.4242
466.852	38.9951
468.613	37.3055
470.374	36.6092
472.136	35.5104
473.896	36.0885
475.655	34.7622
477.415	34.9176
479.176	35.3844
480.934	37.6867
482.692	38.4023
484.45	40.1465
486.21	42.0102
487.967	44.8258
489.724	47.537
491.481	50.7127
493.237	54.407
494.995	58.2002
496.75	61.7652
498.506	66.1406
500.26	70.2936
502.015	75.1599
503.771	79.3326
505.525	83.2829
507.279	85.2251
509.032	87.9577
510.785	90.7418
512.537	92.7464
514.289	93.7825
516.041	94.069
517.793	94.3713
519.546	93.0742
521.297	93.0987
523.047	92.6501
524.797	91.629
526.547	90.9249
528.297	89.0141
530.046	87.0089
531.795	84.9422
533.543	83.0019
535.291	79.7513
537.039	76.2543
538.787	73.5239
540.534	70.6527
542.281	67.485
544.027	63.7891
545.773	60.1829
547.519	55.78
549.264	50.9461
551.01	46.164
552.754	40.6255
554.499	37.0942
556.243	33.5922
557.987	31.0452
559.73	27.2152
561.474	25.0314
563.216	22.5186
564.959	21.097
566.701	20.1085
568.441	19.5414
570.182	19.4929
571.923	20.435
573.664	21.1424
575.405	22.7591
577.145	23.965
578.885	25.041
580.624	26.2035
582.361	27.7
584.1	27.7628
585.839	28.9885
587.577	29.9687
589.315	30.383
591.052	31.1671
592.787	30.8342
594.524	29.4676
596.26	29.6461
597.997	30.1735
599.732	29.4692
601.466	28.5701
603.201	28.5367
604.936	28.101
606.67	27.1251
608.403	26.4586
610.136	25.293
611.87	24.5559
613.603	23.2551
615.334	21.936
617.067	20.1595
618.799	18.2418
620.529	17.5962
622.26	16.5476
623.991	14.612
625.72	13.4671
627.451	13.6969
629.181	12.1543
630.909	10.8533
632.638	8.64299
634.368	6.54754
636.095	4.89114
637.823	3.66464
639.551	2.57379
641.277	2.76921
643.005	1.91848
644.73	1.18229
646.457	1.24178
648.184	1.19926
649.908	1.18716
651.634	0.775459
653.357	0.121299
655.083	1.3051
656.806	1.93997
658.53	1.25548
660.253	1.91921
661.977	1.20638
663.7	0.426651
665.422	1.11056
667.145	1.76919
668.865	2.36159
670.588	2.90522
672.308	4.77205
674.027	4.91241
675.749	5.30727
677.468	5.93078
679.188	5.97181
680.907	6.41433
682.627	8.285
684.345	9.7422
686.064	10.1092
687.781	10.2418
689.498	10.6704
691.216	10.9349
692.932	11.7671
694.65	12.7055
696.366	13.1965
698.081	13.6635
699.797	13.4692
701.512	13.0437
703.228	12.8594
704.942	13.5046
706.655	13.905
708.371	13.6549
710.083	13.4511
711.796	15.1068
713.51	15.7268
715.222	15.1694
716.934	15.1311
718.645	14.3734
720.358	13.9683
722.068	13.5109
723.779	12.5449
725.49	10.625
727.2	10.5394
728.909	10.5753
730.618	11.0113
732.329	11.8536
734.037	12.0321
735.745	13.2342
737.453	14.8738
739.16	19.3227
740.869	25.7499
742.576	31.3423
744.282	38.9715
745.988	47.6832
747.694	56.627
749.401	67.0406
751.107	78.1862
752.811	87.9807
754.516	97.1003
756.22	106.532
757.924	115.542
759.627	123.538
761.332	131.323
763.035	138.585
764.738	145.336
766.44	151.096
768.142	156.819
769.843	160.67
771.544	163.963
773.245	166.412
774.946	168.074
776.646	169.76
778.346	170.005
780.046	168.877
781.745	167.702
783.444	166.01
785.143	163.877
786.841	161.555
788.539	158.224
790.237	153.875
791.934	149.289
793.631	144.372
795.328	138.6
797.024	131.858
798.72	124.32
800.416	116.376
802.112	107.87
803.807	99.5471
805.502	90.458
807.196	81.3283
808.89	73.6147
810.584	65.3252
812.278	60.4223
813.971	54.0137
815.664	49.2044
817.354	45.0427
819.047	41.8323
820.739	40.8306
822.43	40.5121
824.122	42.7949
825.813	43.941
827.503	45.1618
829.192	46.5666
830.882	47.169
832.571	47.6966
834.261	48.249
835.95	48.3693
837.637	48.2716
839.325	47.5092
841.013	47.0475
842.701	46.3773
844.389	45.264
846.074	44.1614
847.761	43.0761
849.447	41.546
851.131	40.0261
852.817	37.5088
854.503	35.6896
856.188	34.6105
857.871	33.771
859.556	33.0929
861.24	33.3434
862.922	33.4131
864.606	33.2449
866.289	34.3289
867.97	35.4973
869.653	36.0868
871.336	37.9829
873.016	38.6186
874.698	38.9543
876.379	40.0147
878.058	40.1947
879.739	40.7952
881.418	41.7682
883.098	42.1051
884.778	42.2966
886.456	42.7729
888.135	43.331
889.812	43.7997
891.49	44.3022
893.167	46.5396
894.845	46.6625
896.523	47.9587
898.198	47.9131
899.875	48.6132
901.55	48.7097
903.226	49.5531
904.901	49.584
906.576	49.5429
908.25	49.841
909.925	49.5796
911.598	49.4927
913.271	48.368
914.945	47.6601
916.617	47.479
918.291	47.0085
919.962	45.5777
921.635	44.2211
923.306	42.2273
924.978	40.5178
926.648	38.9104
928.318	37.0134
929.989	34.9306
931.659	32.8579
933.328	32.0699
934.998	29.9815
936.666	28.2212
938.336	28.12
940.004	27.7946
941.671	25.9491
943.34	25.4021
945.007	25.0203
946.673	24.5612
948.339	24.1805
950.007	24.252
951.672	24.2037
953.337	23.1336
955.004	22.7933
956.669	21.5525
958.333	20.3986
959.997	19.2821
961.662	18.4611
963.326	16.99
964.989	15.4094
966.651	14.0581
968.315	13.8763
969.977	12.9444
971.639	12.0505
973.301	11.2955
974.962	10.2391
976.624	10.3573
978.285	9.49435
979.945	8.05943
981.605	6.0539
983.264	4.58324
984.924	3.2613
986.583	2.4893
988.243	0.844161
989.901	0.584857
991.56	1.20201
993.217	2.0214
994.875	3.08232
996.532	4.5424
998.188	6.82193
999.845	10.2362
1001.5	12.7355
1003.16	16.2395
1004.81	20.4607
1006.47	25.6189
1008.12	30.8912
1009.78	36.7414
1011.43	43.0864
1013.09	49.4247
1014.74	56.6184
1016.39	62.7947
1018.05	67.622
1019.7	74.0889
1021.35	80.6124
1023	85.6678
1024.65	91.4785
1026.31	99.029
1027.96	104.125
1029.61	108.581
1031.26	113.003
1032.91	116.208
1034.56	118.29
1036.21	120.594
1037.86	121.273
1039.51	121.454
1041.16	121.36
1042.8	121.102
1044.45	120.256
1046.1	119.389
1047.75	119.126
1049.39	118.402
1051.04	118.104
1052.69	117.769
1054.33	118.499
1055.98	119.384
1057.62	121.865
1059.27	125.821
1060.91	128.779
1062.56	131.28
1064.2	135.889
1065.85	140.974
1067.49	146.61
1069.13	150.988
1070.77	155.62
1072.42	159.969
1074.06	165.085
1075.7	169.23
1077.34	174.415
1078.98	178.811
1080.62	182.63
1082.27	186.799
1083.91	189.205
1085.55	192.206
1087.18	194.243
1088.82	197.226
1090.46	199.591
1092.1	201.961
1093.74	202.907
1095.38	203.325
1097.02	203.141
1098.65	201.017
1100.29	198.8
1101.93	195.626
1103.56	191.548
1105.2	186.637
1106.84	181.523
1108.47	174.945
1110.11	166.244
1111.74	157.518
1113.38	148.189
1115.01	138.525
1116.64	129.286
1118.28	120.236
1119.91	110.123
1121.54	101.05
1123.18	92.597
1124.81	84.24
1126.44	76.4727
1128.07	70.8468
1129.7	64.0658
1131.33	59.7443
1132.97	56.769
1134.6	53.4383
1136.23	51.5252
1137.86	49.8083
1139.49	49.7334
1141.11	48.933
1142.74	47.8283
1144.37	46.8284
1146	46.0554
1147.63	44.3059
1149.26	42.6482
1150.88	40.2482
1152.51	39.2029
1154.14	37.5828
1155.76	36.9871
1157.39	36.1842
1159.01	35.5012
1160.64	34.5948
1162.27	33.4282
1163.89	32.2676
1165.51	31.8259
1167.14	32.4342
1168.76	32.4836
1170.39	34.0297
1172.01	33.2912
1173.63	32.7964
1175.25	31.6307
1176.88	31.1462
1178.5	30.2834
1180.12	29.596
1181.74	28.976
1183.36	27.9318
1184.98	28.1024
1186.6	27.1499
1188.22	25.9882
1189.84	25.2768
1191.46	24.1307
1193.08	23.7625
1194.7	23.0018
1196.32	22.4593
1197.94	22.6016
1199.55	22.3479
1201.17	21.8592
1202.79	22.2841
1204.41	22.3354
1206.02	22.3858
1207.64	22.1325
1209.25	21.8746
1210.87	20.9479
1212.48	21.4023
1214.1	20.4294
1215.71	19.378
1217.33	19.5663
1218.94	20.6215
1220.56	21.496
1222.17	22.5773
1223.79	23.7356
1225.4	23.7461
1227.01	25.0184
1228.62	26.0524
1230.23	26.2774
1231.85	26.8367
1233.46	27.5246
1235.07	28.1764
1236.68	28.3502
1238.29	28.8946
1239.9	29.2386
1241.51	29.4991
1243.12	29.327
1244.73	29.182
1246.34	30.2586
1247.94	29.4647
1249.55	28.6554
1251.16	28.4837
1252.77	27.0869
1254.37	26.3641
1255.98	26.4601
1257.59	27.0061
1259.2	26.973
1260.8	27.3956
1262.41	27.1497
1264.01	26.662
1265.62	27.3783
1267.22	25.9335
1268.83	26.4769
1270.43	27.0905
1272.03	27.5685
1273.64	27.404
1275.24	27.4161
1276.85	29.0834
1278.45	30.5846
1280.05	31.5993
1281.65	32.5173
1283.25	32.6562
1284.85	32.5273
1286.46	32.6133
1288.06	33.05
1289.66	33.4653
1291.26	32.8422
1292.86	33.3157
1294.46	32.9418
1296.06	33.2209
1297.66	33.5891
1299.25	34.768
1300.85	35.1028
1302.45	35.5851
1304.05	36.1722
1305.65	35.2822
1307.24	34.0692
1308.84	34.6927
1310.43	36.0956
1312.03	38.1454
1313.63	40.3127
1315.22	41.1881
1316.82	42.3484
1318.41	43.4796
1320.01	43.9598
1321.6	44.794
1323.2	45.4054
1324.79	46.2298
1326.38	46.5366
1327.98	45.9012
1329.57	46.9422
1331.16	47.8059
1332.76	48.1315
1334.35	49.3333
1335.94	51.1799
1337.53	52.1675
1339.12	52.3878
1340.71	53.3466
1342.3	54.2704
1343.89	56.2316
1345.48	57.9649
1347.07	58.0257
1348.66	60.3988
1350.25	61.0503
1351.84	62.0859
1353.43	63.5924
1355.01	65.6792
1356.6	68.0509
1358.19	68.405
1359.77	68.9333
1361.36	68.665
1362.95	67.8082
1364.53	68.995
1366.12	69.1699
1367.71	68.8887
1369.29	68.2767
1370.88	66.9068
1372.46	66.6991
1374.04	64.9439
1375.63	64.6347
1377.21	65.0406
1378.8	65.4333
1380.38	64.8609
1381.96	63.9909
1383.54	63.2501
1385.13	62.5525
1386.71	63.0051
1388.29	65.7622
1389.87	65.8237
1391.45	65.0632
1393.03	64
1394.61	62.5312
1396.19	61.8856
1397.77	61.1596
1399.35	61.3573
1400.93	61.9617
1402.51	62.4186
1404.09	62.7932
1405.67	63.1929
1407.24	63.7902
1408.82	65.343
1410.4	66.5015
1411.98	67.2299
1413.55	68.6597
1415.13	68.91
1416.71	69.9841
1418.28	70.8411
1419.86	71.8572
1421.43	73.4838
1423.01	74.3205
1424.58	74.3627
1426.16	75.8053
1427.73	77.4323
1429.31	79.073
1430.88	81.1255
1432.45	82.0247
1434.02	83.2957
1435.6	83.9261
1437.17	83.7925
1438.74	84.3481
1440.31	84.7902
1441.88	85.3097
1443.45	86.013
1445.03	84.7154
1446.6	83.3553
1448.17	82.8814
1449.74	82.0386
1451.3	81.1544
1452.87	79.8941
1454.44	78.4326
1456.01	76.0687
1457.58	73.451
1459.15	70.7307
1460.72	67.8421
1462.28	64.9073
1463.85	61.8766
1465.42	58.7089
1466.98	55.6899
1468.55	52.7408
1470.12	49.8446
1471.68	46.7587
1473.25	44.2101
1474.81	42.184
1476.38	40.0359
1477.94	37.9137
1479.51	35.1329
1481.07	32.3932
1482.63	29.2451
1484.2	26.7717
1485.76	23.9908
1487.32	21.7261
1488.88	19.3373
1490.45	16.6919
1492.01	14.48
1493.57	11.9074
1495.13	10.7474
1496.69	8.97734
1498.25	7.37743
1499.81	7.02662
1501.37	5.59202
1502.93	5.22382
1504.49	5.15863
1506.05	4.73516
1507.61	4.64337
1509.17	4.68497
1510.73	4.62171
1512.28	4.88956
1513.84	4.33522
1515.4	4.41485
1516.96	4.25322
1518.51	4.1651
1520.07	3.91404
1521.63	4.0817
1523.18	4.37991
1524.74	5.1507
1526.29	4.81634
1527.85	4.57952
1529.4	3.84746
1530.96	3.2893
1532.51	2.53141
1534.06	1.75165
1535.62	2.52208
1537.17	3.24729
1538.72	3.67284
1540.28	4.11506
1541.83	4.36299
1543.38	4.88631
1544.93	5.20727
1546.48	5.98482
1548.03	5.69607
1549.59	6.31997
1551.14	6.11768
1552.69	6.38578
1554.24	6.06287
1555.79	6.87071
1557.34	7.53644
1558.88	7.17424
1560.43	7.80082
1561.98	8.53161
1563.53	8.58432
1565.08	10.0484
1566.62	10.6825
1568.17	11.351
1569.72	12.4596
1571.27	13.2415
1572.81	14.2594
1574.36	14.6661
1575.9	15.6053
1577.45	16.4793
1579	16.5494
1580.54	17.3331
1582.09	17.7443
1583.63	17.8674
1585.17	17.7507
1586.72	18.8311
1588.26	18.9281
1589.8	18.8506
1591.35	18.2514
1592.89	18.5858
1594.43	18.8904
1595.97	19.5117
1597.52	19.7965
1599.06	20.3558
1600.6	20.4325
1602.14	19.4235
1603.68	19.5111
1605.22	20.1925
1606.76	19.9872
1608.3	19.5568
1609.84	19.9597
1611.38	19.9131
1612.92	20.5809
1614.46	20.2439
1615.99	19.7319
1617.53	18.7126
1619.07	18.1296
1620.61	18.2449
1622.14	18.2401
1623.68	18.0555
1625.22	17.2722
1626.75	17.092
1628.29	15.9673
1629.82	15.9023
1631.36	15.4724
1632.9	15.1069
1634.43	14.9127
1635.96	14.1644
1637.5	14.425
1639.03	14.3118
1640.57	14.3038
1642.1	14.1384
1643.63	13.5732
1645.16	13.6875
1646.7	13.562
1648.23	13.242
1649.76	13.3654
1651.29	12.9273
1652.82	13.0751
1654.36	11.9247
1655.89	11.5441
1657.42	10.7892
1658.95	11.1764
1660.48	12.0589
1662.01	11.7192
1663.53	12.4502
1665.06	12.348
1666.59	11.1597
1668.12	11.3822
1669.65	12.3931
1671.18	12.7684
1672.7	12.7521
1674.23	13.4889
1675.76	13.6976
1677.29	13.34
1678.81	13.4239
1680.34	13.5
1681.86	12.513
1683.39	11.8811
1684.91	11.5476
1686.44	11.2888
1687.96	11.1315
1689.49	10.7215
1691.01	10.7021
1692.54	10.3793
1694.06	9.03431
1695.58	9.006
1697.11	9.32581
1698.63	9.32812
1700.15	8.43929
1701.67	8.10874
1703.2	7.65911
1704.72	7.50372
1706.24	7.11326
1707.76	7.21875
1709.28	6.90681
1710.8	7.01062
1712.32	6.88757
1713.84	6.79629
1715.36	7.15548
1716.88	6.18281
1718.4	5.70946
1719.91	5.05481
1721.43	5.14771
1722.95	5.66327
1724.47	5.83455
1725.99	5.80038
1727.5	5.21114
1729.02	5.03239
1730.54	5.1151
1732.05	6.04118
1733.57	6.16473
1735.09	6.86118
1736.6	6.56802
1738.12	5.6327
1739.63	5.78399
1741.15	5.08117
1742.66	4.33129
1744.18	4.7965
1745.69	4.47677
1747.2	4.30322
1748.72	4.1397
1750.23	3.94384
1751.74	3.17975
1753.25	3.11902
1754.77	3.0171
1756.28	2.60448
1757.79	2.51926
1759.3	2.75843
1760.81	3.04076
1762.32	2.72322
1763.83	3.30976
1765.34	2.61423
1766.85	2.22405
1768.36	2.08931
1769.87	2.11432
1771.38	2.87767
1772.89	3.4282
1774.4	3.47778
1775.91	2.87197
1777.41	3.22857
1778.92	2.90899
1780.43	3.14183
1781.94	3.02882
1783.44	3.7659
1784.95	3.39961
1786.45	3.56712
1787.96	3.44337
1789.47	3.25981
1790.97	3.10286
1792.48	2.87001
1793.98	3.31965
1795.48	3.70878
1796.99	4.50366
1798.49	4.88663
1800	5.00814
1801.5	4.86413
1803	4.89608
1804.51	5.81699
1806.01	6.17276
1807.51	5.84436
1809.01	5.9873
1810.51	5.94755
1812.02	5.67613
1813.52	5.40249
1815.02	5.52042
1816.52	5.55753
1818.02	5.85431
1819.52	6.11614
1821.02	6.61505
1822.52	7.38027
1824.02	7.81135
1825.51	8.07949
1827.01	8.47557
1828.51	8.62038
1830.01	8.41784
1831.51	8.54853
1833	8.36148
1834.5	8.78591
1836	8.61438
1837.5	8.74402
1838.99	9.21672
1840.49	9.26379
1841.98	8.97847
1843.48	9.43804
1844.97	8.89468
1846.47	8.40814
1847.96	8.93042
1849.46	8.58375
1850.95	7.8332
1852.45	7.67225
1853.94	6.27772
1855.43	5.29448
1856.92	4.3763
1858.42	3.66067
1859.91	2.8181
1861.4	2.24093
1862.89	2.49851
1864.39	2.25752
1865.88	1.77304
1867.37	1.98421
1868.86	2.02061
1870.35	2.20282
1871.84	2.47059
1873.33	2.68304
1874.82	2.2221
1876.31	2.23821
1877.8	1.96595
1879.29	2.2425
1880.77	1.57404
1882.26	1.39978
1882.51	1.95413
1884	1.83637
1885.5	1.9489
1886.99	2.10373
1888.48	2.1213
1889.98	2.58957
1891.47	3.41545
1892.97	3.85802
1894.46	4.53092
1895.95	5.01243
1897.44	5.60502
1898.93	5.69541
1900.42	6.04343
1901.92	6.22976
1903.41	6.62812
1904.9	6.09512
1906.39	6.16256
1907.88	6.76307
1909.37	6.66375
1910.86	6.9612
1912.35	7.05305
1913.84	7.1739
1915.32	6.92465
1916.81	6.91221
1918.3	6.85826
1919.79	7.19928
1921.28	6.89394
1922.76	5.64679
1924.25	4.60221
1925.74	4.18119
1927.22	4.00482
1928.71	4.41812
1930.2	5.21803
1931.68	5.04456
1933.17	4.5341
1934.65	4.98447
1936.14	5.3455
1937.62	4.64958
1939.11	4.96125
1940.59	5.08875
1942.08	4.92627
1943.56	4.39602
1945.04	3.65153
1946.53	3.03552
1948.01	3.12179
1949.49	3.28922
1950.97	2.81082
1952.45	2.99686
1953.94	2.81744
1955.42	3.46279
1956.9	3.44775
1958.38	2.60933
1959.86	2.62857
1961.34	2.53591
1962.82	2.73402
1964.3	3.28252
1965.78	3.22892
1967.26	3.24146
1968.74	3.42126
1970.22	3.43075
1971.69	3.25505
1973.17	3.36042
1974.65	3.73618
1976.13	3.60281
1977.61	3.24743
1979.08	2.88715
1980.56	3.01295
1982.03	3.28245
1983.51	3.1003
1984.99	3.77437
1986.46	4.63421
1987.94	4.53509
1989.41	4.06785
1990.89	4.03006
1992.36	4.27766
1993.84	4.17602
1995.31	4.15608
1996.78	3.86608
1998.26	4.27271
1999.73	4.75384
2001.2	4.96242
2002.68	4.13255
2004.15	4.10424
2005.62	3.64222
2007.09	3.17064
2008.56	3.94548
2010.04	3.51813
2011.51	3.30557
2012.98	3.73478
2014.45	3.88782
2015.92	3.95516
2017.39	4.76057
2018.86	5.10231
2020.33	5.78307
2021.8	6.22803
2023.27	5.67786
2024.74	5.30766
2026.2	5.43712
2027.67	5.20444
2029.14	4.97055
2030.61	4.17279
2032.07	3.88708
2033.54	4.65431
2035.01	5.12606
2036.47	4.76319
2037.94	5.17147
2039.41	4.78913
2040.87	5.31297
2042.34	5.66879
2043.8	5.67213
2045.27	5.38937
2046.73	6.41058
2048.2	6.10455
2049.66	5.33799
2051.12	5.06397
2052.59	5.91062
2054.05	5.69958
2055.51	5.83074
2056.98	6.00921
2058.44	6.81714
2059.9	6.84795
2061.36	6.60054
2062.82	7.22097
2064.29	7.66491
2065.75	8.02815
2067.21	7.96394
2068.67	8.09268
2070.13	7.22463
2071.59	7.77781
2073.05	7.61077
2074.51	7.83584
2075.97	8.28426
2077.43	8.58755
2078.88	7.71926
2080.34	7.92757
2081.8	8.36172
2083.26	8.37935
2084.72	8.63984
2086.17	8.57956
2087.63	8.28031
2089.09	8.39443
2090.54	8.49743
2092	7.76993
2093.46	7.05236
2094.91	6.65981
2096.37	5.34822
2097.82	5.41338
2099.28	4.89943
2100.73	4.70115
2102.19	4.94463
2103.64	4.96575
2105.09	5.07412
2106.55	5.11188
2108	4.42069
2109.46	3.26684
2110.91	3.96689
2112.36	3.67115
2113.81	3.56189
2115.27	3.64413
2116.72	3.80368
2118.17	3.80301
2119.62	3.99079
2121.07	4.0147
2122.52	4.2522
2123.97	5.23162
2125.42	6.30205
2126.87	5.97712
2128.32	6.09315
2129.77	7.10523
2131.22	7.87831
2132.67	7.99936
2134.12	8.92211
2135.57	9.28381
2137.01	8.93641
2138.46	9.29352
2139.91	9.17307
2141.36	9.13487
2142.8	9.58826
2144.25	9.86508
2145.7	10.242
2147.14	10.2352
2148.59	9.82247
2150.03	9.06766
2151.48	9.20877
2152.92	9.96409
2154.37	9.36783
2155.81	9.80072
2157.26	9.5921
2158.7	9.55764
2160.15	9.97267
2161.59	10.0138
2163.03	9.43269
2164.48	9.01127
2165.92	8.24784
2167.36	7.79512
2168.8	7.2419
2170.25	7.56296
2171.69	7.23676
2173.13	7.20668
2174.57	6.46831
2176.01	6.28683
2177.45	5.6382
2178.89	4.4833
2180.33	4.28261
2181.77	3.81561
2183.21	3.96147
2184.65	3.5268
2186.09	3.43589
2187.53	3.59935
2188.97	3.53352
2190.41	3.12623
2191.84	3.80215
2193.28	4.82793
2194.72	5.01756
2196.16	4.89108
2197.59	5.04697
2199.03	4.76138
2200.47	5.07848
2201.9	5.60023
2203.34	5.47045
2204.78	5.59365
2206.21	5.20164
2207.65	4.56282
2209.08	5.36079
2210.51	5.76276
2211.95	5.98889
2213.38	6.1463
2214.82	6.59681
2216.25	6.58436
2217.68	6.84138
2219.12	6.56906
2220.55	6.77798
2221.98	6.67044
2223.42	6.87334
2224.85	7.26058
2226.28	7.40447
2227.71	7.60458
2229.14	7.17496
2230.57	6.98714
2232	6.71087
2233.43	6.17676
2234.86	5.94179
2236.29	6.00554
2237.72	5.94245
2239.15	5.5846
2240.58	5.90458
2242.01	5.88608
2243.44	5.36198
2244.87	5.09702
2246.3	5.15944
2247.73	5.18196
2249.15	4.4174
2250.58	4.58878
2252.01	4.10891
2253.43	4.35759
2254.86	4.90245
2256.29	4.65707
2257.71	4.69967
2259.14	4.74522
2260.56	5.21922
2261.99	4.93696
2263.41	5.47891
2264.84	5.1069
2266.26	5.08098
2267.69	4.90524
2269.11	4.96014
2270.54	4.79937
2271.96	4.63454
2273.38	4.23986
2274.81	4.40317
2276.23	4.94776
2277.65	5.10033
2279.07	5.52951
2280.49	6.64002
2281.92	5.87128
2283.34	5.93911
2284.76	6.03448
2286.18	5.93083
2287.6	6.20046
2289.02	5.86691
2290.44	5.95013
2291.86	5.21411
2293.28	4.16931
2294.7	4.38634
2296.12	5.086
2297.54	5.37942
2298.96	5.75841
2300.38	6.39532
2301.79	6.79596
2303.21	7.45059
2304.63	8.3282
2306.05	9.04716
2307.46	9.35177
2308.88	9.42726
2310.3	8.9068
2311.71	9.08814
2313.13	8.4221
2314.55	8.26517
2315.96	8.14217
2317.38	8.19264
2318.79	7.92275
2320.21	7.6988
2321.62	7.89496
2323.03	6.95669
2324.45	7.42781
2325.86	6.33519
2327.27	5.31134
2328.69	5.26652
2330.1	4.95429
2331.51	4.96394
2332.93	4.15804
2334.34	3.84157
2335.75	3.16146
2337.16	2.74519
2338.57	2.2459
2339.99	1.88636
2341.4	2.23368
2342.81	1.99186
2344.22	1.43582
2345.63	1.63297
2347.04	1.0473
2348.45	0.683314
2349.86	0.140446
2351.26	0.434271
2352.67	0.0988105
2354.08	-0.0365657
2355.49	0.295362
2356.9	0.244111
2358.31	0.811803
2359.71	0.809229
2361.12	0.863842
2362.53	0.371642
2363.94	1.59565
2365.34	2.35554
2366.75	2.97794
2368.15	3.2363
2369.56	3.38763
2370.97	3.58904
2372.37	3.49191
2373.78	3.41091
2375.18	3.4062
2376.59	3.13202
2377.99	2.69168
2379.39	2.34944
2380.8	2.41731
2382.2	2.86332
2383.61	3.20746
2385.01	3.45556
2386.41	3.30424
2387.81	3.64965
2389.22	3.42045
2390.62	3.51064
2392.02	3.59477
2393.42	3.53543
2394.82	3.76239
2396.22	3.64928
2397.63	4.34451
2399.02	4.01744
2400.43	4.08944
2401.82	4.10114
2403.23	3.80451
2404.62	4.192
2406.02	4.00942
2407.42	4.22759
2408.82	4.76892
2410.22	4.37971
2411.62	4.95658
2413.02	3.73001
2414.41	4.14313
2415.81	4.61936
2417.21	4.67059
2418.61	4.97307
2420	4.8062
2421.4	4.91477
2422.79	5.22806
2424.19	5.1548
2425.59	5.79593
2426.98	5.94876
2428.38	6.36581
2429.77	6.38237
2431.17	6.11965
2432.56	6.29794
2433.96	6.34575
2435.35	5.56897
2436.74	5.81913
2438.14	6.03813
2439.53	6.23603
2440.92	7.01159
2442.32	7.25907
2443.71	7.34048
2445.1	7.53935
2446.49	8.13141
2447.88	8.17267
2449.28	7.86681
2450.67	8.40654
2452.06	7.92485
2453.45	7.75352
2454.84	7.09015
2456.23	7.53236
2457.62	7.817
2459.01	7.79408
2460.4	8.17349
2461.79	7.90085
2463.18	7.6726
2464.57	7.68512
2465.96	7.12568
2467.34	6.66338
2468.73	5.93505
2470.12	6.56532
2471.51	6.35912
2472.89	6.63759
2474.28	6.19379
2475.67	5.34164
2477.05	5.46232
2478.44	4.86438
2479.83	4.60896
2481.21	4.53664
2482.6	3.65939
2483.98	4.43564
2485.37	4.24125
2486.75	3.58769
2488.14	3.14157
2489.52	2.63328
2490.9	2.36384
2492.29	2.45289
2493.67	2.68966
2495.06	2.72363
2496.44	2.46629
2497.82	2.71578
2499.2	2.81117
2500.59	2.29025
2501.97	2.38881
2503.35	2.29813
2504.73	2.90349
2506.11	2.73456
2507.49	3.08242
2508.88	3.23185
2510.26	3.77019
2511.63	3.42008
2513.01	3.03632
2514.39	2.40075
2515.77	2.8499
2517.15	2.35792
2518.53	1.91262
2519.91	2.44725
2521.29	2.26262
2522.67	2.60004
2524.05	2.55424
2525.42	2.97263
2526.8	2.44617
2528.18	2.52468
2529.56	2.36985
2530.93	1.81931
2532.31	1.54968
2533.69	1.80586
2535.06	1.34163
2536.44	1.23149
2537.81	1.58218
2539.19	1.33187
2540.56	1.76961
2541.94	2.01612
2543.31	1.7569
2544.69	1.97871
2546.06	2.40973
2547.44	3.1225
2548.81	3.5578
2550.18	3.90302
2551.56	3.80207
2552.93	4.20077
2554.3	4.42939
2555.68	4.21189
2557.05	4.61673
2558.42	4.65813
2559.79	4.12952
2561.16	4.55218
2562.53	4.38008
2563.9	3.82186
2565.28	4.09839
2566.64	4.18403
2568.02	4.25573
2569.38	3.80774
2570.76	3.98622
2572.12	4.38518
2573.49	3.53723
2574.86	3.13634
2576.23	3.32779
2577.6	3.25678
2578.97	3.42114
2580.34	3.3338
2581.7	3.16062
2583.07	3.49375
2584.44	3.81393
2585.81	2.77306
2587.17	2.57585
2588.54	2.60829
2589.91	2.52946
2591.27	2.28461
2592.64	1.67407
2594	1.538
2595.37	1.09544
2596.73	1.35083
2598.1	0.495632
2599.46	0.12977
2600.83	-0.0736068
2602.19	0.236292
2603.55	-0.058526
2604.92	-0.0188722
2606.28	-0.0399958
2607.64	0.0954444
2609.01	0.683365
2610.37	0.761876
2611.73	1.12243
2613.09	1.44837
2614.46	1.4297
2615.82	2.20886
2617.18	1.68926
2618.54	1.88567
2619.9	1.74097
2621.26	1.83831
2622.62	1.9094
2623.98	1.83809
2625.34	2.08959
2626.7	2.40879
2628.06	2.47585
2629.42	3.34308
2630.78	3.2385
2632.14	3.36634
2633.5	3.79333
2634.86	3.62627
2636.22	4.27262
2637.57	4.43809
2638.93	4.34897
2640.29	4.73627
2641.64	4.70243
2643	5.4597
2644.36	5.5544
2645.72	5.92629
2647.07	5.91752
2648.43	6.32426
2649.78	6.38623
2651.14	6.64211
2652.49	6.6009
2653.85	6.62486
2655.2	7.07634
2656.56	7.19699
2657.91	7.45338
2659.27	7.46097
2660.62	7.23504
2661.97	7.66536
2663.33	7.7512
2664.68	7.70317
2666.03	7.0834
2667.38	7.70784
2668.74	7.46173
2670.09	7.75915
2671.44	7.21976
2672.79	7.08914
2674.14	7.18095
2675.49	7.46464
2676.84	7.60725
2678.2	8.26405
2679.55	8.26348
2680.89	7.61464
2682.24	7.76567
2683.59	7.73279
2684.94	7.5476
2686.29	7.78975
2687.64	8.58404
2688.99	8.42327
2690.34	9.19717
2691.69	9.34643
2693.04	9.54897
2694.38	9.71004
2695.73	9.48808
2697.08	9.26868
2698.43	9.46472
2699.77	9.27891
2701.12	9.5601
2702.46	10.097
2703.81	10.5452
2705.16	10.5491
2706.5	10.9171
2707.85	11.6004
2709.19	11.4441
2710.54	11.6669
2711.88	11.8986
2713.23	12.3917
2714.57	12.4989
2715.92	12.8024
2717.26	12.8947
2718.6	12.9298
2719.95	12.7596
2721.29	12.3
2722.63	11.5209
2723.97	10.8428
2725.32	10.2712
2726.66	9.63713
2728	8.65007
2729.34	8.64042
2730.68	8.22162
2732.02	7.43443
2733.36	6.71874
2734.7	6.73622
2736.04	6.08767
2737.39	6.16429
2738.72	6.3146
2740.06	6.38864
2741.4	5.90913
2742.74	6.02207
2744.08	5.90708
2745.42	6.22525
2746.76	5.36157
2748.1	4.40847
2749.44	4.77451
2750.77	4.57218
2752.11	4.60068
2753.45	4.27972
2754.78	4.52838
2756.12	3.85347
2757.46	4.3147
2758.79	4.25689
2760.13	5.00937
2761.47	5.23583
2762.8	5.16673
2764.14	5.21545
2765.47	5.50091
2766.81	5.3287
2768.14	5.4917
2769.48	6.26615
2770.81	6.34798
2772.14	6.28987
2773.48	6.5295
2774.81	6.63383
2776.14	6.21795
2777.48	6.76268
2778.81	7.22799
2780.14	7.12883
2781.47	7.12702
2782.81	6.95118
2784.14	6.76988
2785.47	6.25696
2786.8	5.54767
2788.13	5.06561
2789.46	4.17144
2790.79	4.59031
2792.12	4.41506
2793.46	3.96787
2794.79	3.6712
2796.11	4.44626
2797.44	4.50869
2798.77	4.35371
2800.1	4.87487
2801.43	5.38109
2802.76	5.64467
2804.09	5.30213
2805.42	5.15227
2806.74	4.63358
2808.07	4.44802
2809.4	5.05056
2810.73	4.80814
2812.05	5.47185
2813.38	4.88035
2814.71	5.3993
2816.03	7.19487
2817.36	8.82642
2818.68	10.9301
2820.01	13.6951
2821.33	17.0273
2822.66	19.5802
2823.98	23.1564
2825.31	26.004
2826.63	29.4254
2827.96	32.6839
2829.28	36.0522
2830.61	39.1891
2831.93	42.2353
2833.25	46.2838
2834.57	49.7926
2835.9	53.4553
2837.22	56.567
2838.54	60.2267
2839.86	63.6922
2841.18	67.1586
2842.51	69.9001
2843.83	72.8018
2845.15	75.5116
2846.47	77.9187
2847.79	81.1567
2849.11	84.1719
2850.43	87.5263
2851.75	91.0271
2853.07	94.4617
2854.39	98.1626
2855.71	102.142
2857.03	106.091
2858.35	109.911
2859.67	113.448
2860.98	118.072
2862.3	121.958
2863.62	125.261
2864.94	128.521
2866.25	132.403
2867.57	135.103
2868.89	138.192
2870.21	140.933
2871.52	144.71
2872.84	148.545
2874.15	151.527
2875.47	155.208
2876.78	158.371
2878.1	162.5
2879.42	165.948
2880.73	170.101
2882.04	173.497
2883.36	177.357
2884.67	180.5
2885.99	183.192
2887.3	185.642
2888.61	187.403
2889.93	189.57
2891.24	190.718
2892.55	192.012
2893.87	192.321
2895.18	192.078
2896.49	191.593
2897.8	191.156
2899.11	191.048
2900.42	189.982
2901.74	189.006
2903.05	188.081
2904.36	186.531
2905.67	185.052
2906.98	184.921
2908.29	184.012
2909.6	182.628
2910.91	182.843
2912.22	183.339
2913.53	183.662
2914.83	184.692
2916.14	185.605
2917.45	186.575
2918.76	187.613
2920.07	189.239
2921.37	190.794
2922.68	191.689
2923.99	193.156
2925.3	193.472
2926.6	194.685
2927.91	195.268
2929.22	195.893
2930.52	196.263
2931.83	196.991
2933.13	196.791
2934.44	197.24
2935.74	197.207
2937.05	197.221
2938.35	196.851
2939.66	196.141
2940.96	195.056
2942.27	193.961
2943.57	193.142
2944.87	190.739
2946.18	188.232
2947.48	185.107
2948.78	183.044
2950.09	179.739
2951.39	176.357
2952.69	172.801
2953.99	168.652
2955.29	164.862
2956.6	160.753
2957.9	156.558
2959.2	151.846
2960.5	147.596
2961.8	143.202
2963.1	138.749
2964.4	135.278
2965.7	131.693
2967	127.973
2968.3	124.496
2969.6	121.007
2970.9	118.915
2972.2	116.459
2973.49	112.453
2974.79	109.103
2976.09	107.354
2977.39	104.883
2978.69	102.144
2979.98	99.8033
2981.28	97.1498
2982.58	94.9792
2983.88	92.3312
2985.17	90.0638
2986.47	87.1126
2987.76	84.3885
2989.06	81.4028
2990.36	78.4169
2991.65	75.5757
2992.95	72.7027
2994.24	69.5986
2995.54	67.1691
2996.83	64.7333
2998.12	61.8547
2999.42	59.5293
3000.71	57.1106
3002	54.3009
3003.3	51.6193
3004.59	48.642
3005.88	45.4242
3007.18	43.0606
3008.47	40.1366
3009.76	37.1425
3011.05	34.6306
3012.35	32.1804
3013.64	30.5019
3014.93	28.3551
3016.22	26.2744
3017.51	24.2044
3018.8	22.3031
3020.09	20.5259
3021.38	18.2486
3022.67	16.6174
3023.96	14.7409
3025.25	13.5216
3026.54	12.2091
3027.83	11.3826
3029.12	11.2006
3030.41	10.422
3031.69	9.51101
3032.98	8.40187
3034.27	8.05362
3035.56	7.13486
3036.85	6.5333
3038.13	5.55303
3039.42	5.13179
3040.71	4.80402
3041.99	3.94911
3043.28	3.80999
3044.57	3.81236
3045.85	3.60786
3047.14	4.0231
3048.42	3.45273
3049.71	3.2685
3050.99	2.64581
3052.28	2.05491
3053.56	1.21562
3054.85	1.04061
3056.13	0.847003
3057.42	0.854694
3058.7	0.887531
3059.98	0.997109
3061.27	0.934877
3062.55	0.608384
3063.83	0.648642
3065.11	0.690806
3066.4	0.723025
3067.68	0.508809
3068.96	0.655323
3070.24	0.890862
3071.52	1.11297
3072.8	1.90345
3074.09	2.61678
3075.37	2.86204
3076.65	3.01483
3077.93	3.3851
3079.21	4.01248
3080.49	4.46463
3081.77	4.09581
3083.05	4.41216
3084.32	4.8701
3085.61	5.8018
3086.88	6.924
3088.16	7.54884
3089.44	8.3543
3090.72	8.88384
3092	9.69816
3093.27	10.4691
3094.55	10.8041
3095.83	11.5365
3097.11	11.9469
3098.38	12.9133
3099.66	12.941
3100.94	14.0547
3102.21	14.7977
3103.49	15.5294
3104.76	17.1386
3106.04	18.0935
3107.31	19.2909
3108.59	20.2608
3109.86	21.3698
3111.14	22.7197
3112.41	23.4104
3113.69	24.6347
3114.96	25.105
3116.23	26.4061
3117.51	27.1232
3118.78	28.5918
3120.05	29.8342
3121.33	31.2479
3122.6	32.5093
3123.87	33.7233
3125.14	34.9491
3126.42	35.9381
3127.69	37.4646
3128.96	38.8709
3130.23	39.6991
3131.5	40.3213
3132.77	42.0173
3134.04	43.2006
3135.31	44.528
3136.58	46.0169
3137.85	46.9395
3139.12	48.2063
3140.39	49.9368
3141.66	51.8159
3142.93	53.309
3144.2	54.678
3145.47	56.2919
3146.74	57.3583
3148	57.9831
3149.27	58.2792
