#Acq. time (s)=	45
#Accumulations=	2
#Range (cm-¹)=	200...3150
#Windows=	2
#Auto scanning=	Off
#Autofocus=	Off
#Macrospot=	Off
#AutoExposure=	Off
#Spike filter=	Multiple accum.
#Delay time (s)=	0
#Binning=	1
#Readout mode=	Signal
#DeNoise=	Off
#ICS correction=	On
#Dark correction=	Off
#Inst. Process=	Off
#Detector Gain=	Best Dynamic Range
#Detector ADC=	20 kHz       
#Detector temperature (°C)=	-69.85
#Instrument=	LabRAM HR Evol
#Detector=	Synapse
#Objective=	x100
#Grating=	600 gr/mm
#ND Filter=	100%
#Laser (nm)=	532 
#Hole=	100.021
#Range=	Auto
#Laser Pol.=	No
#Raman. Pol.=	No
#Laser Pol. (°)=	-0.0007625
#Raman Pol. (°)=	89.9995
#Collection=	Microscope
#StageXY=	Marzhauser
#StageZ=	Marzhauser
#X (µm)=	28255.4
#Y (µm)=	-3288.7
#Z (µm)=	1040.65
#Full time(mm:ss)=	3:18
#Project=	
#Sample=	
#Site=	
#Title=	Mb_50_18_43_2x_45s_532 nm_x100_100%_600 gr_mm
#Remark=	
#Date=	12.07.2022 14:19
#Acquired=	12.07.2022 14:19:18
#Base:Fit=	10.08.2022 10:49:18
#Base:Sub=	10.08.2022 10:49:30
#Filter:Polynom=	16.08.2022 10:14:59
#AxisType[0]=Intens
#AxisUnit[0]=Cnt
#AxisType[1]=Spectr
#AxisUnit[1]=1/cm
200.388	16.7185
202.204	17.7502
204.019	16.945
205.832	16.924
207.646	16.2103
209.459	15.2162
211.274	14.9767
213.087	13.8972
214.899	11.8269
216.711	11.0575
218.524	10.7127
220.335	9.74977
222.146	9.23688
223.956	8.51677
225.766	8.28168
227.576	8.05385
229.388	6.72723
231.197	6.65112
233.005	6.97408
234.813	6.76268
236.621	5.74457
238.429	5.63412
240.236	5.03198
242.045	4.97232
243.852	4.59782
245.658	4.70762
247.464	4.38312
249.269	3.73361
251.074	3.06949
252.879	2.8715
254.683	3.58846
256.487	3.64428
258.291	4.50504
260.094	4.32087
261.897	4.58371
263.702	4.95492
265.504	5.31319
267.306	5.60401
269.108	5.0657
270.909	5.92954
272.71	6.6207
274.511	6.6127
276.311	7.53275
278.111	8.05621
279.91	7.78846
281.709	7.68277
283.508	7.44604
285.306	8.28392
287.105	7.59965
288.9	8.18738
290.698	8.61852
292.495	8.57454
294.291	9.14991
296.088	8.22234
297.884	9.26506
299.679	10.2555
301.475	10.8109
303.27	10.5443
305.064	10.9974
306.858	12.3963
308.652	12.1787
310.444	12.0127
312.237	12.5473
314.03	12.966
315.822	13.9607
317.615	13.6386
319.406	13.0932
321.198	13.7597
322.987	13.7449
324.778	12.6663
326.568	12.826
328.358	13.0206
330.148	12.9428
331.935	13.4638
333.724	13.6676
335.513	13.4737
337.301	12.5864
339.089	11.9354
340.875	12.7092
342.662	13.5149
344.449	13.462
346.236	13.6814
348.02	14.9518
349.806	15.6238
351.592	16.9584
353.375	17.9515
355.16	20.1301
356.944	20.5272
358.728	21.4417
360.51	23.7006
362.294	24.2929
364.077	25.308
365.858	27.5953
367.64	27.4243
369.422	27.9897
371.202	28.8021
372.983	29.2115
374.764	30.8925
376.543	31.5104
378.324	31.969
380.102	31.5492
381.881	32.0096
383.661	32.3729
385.438	32.1388
387.216	33.4218
388.993	32.6743
390.771	32.1673
392.548	31.6014
394.324	30.7248
396.101	29.3053
397.875	28.7594
399.651	28.0677
401.425	26.3785
403.201	24.5446
404.974	23.8893
406.749	21.1977
408.524	20.0631
410.296	19.1742
412.07	17.3258
413.841	15.4932
415.614	14.3429
417.385	12.3067
419.156	11.2681
420.928	9.61108
422.698	7.71258
424.469	5.85098
426.238	4.69698
428.009	4.29618
429.777	4.70255
431.548	4.40679
433.315	4.54133
435.083	4.1164
436.852	3.62673
438.618	3.06241
440.387	2.28873
442.153	1.23894
443.919	2.25879
445.686	1.98939
447.451	2.28175
449.218	2.02447
450.982	1.19718
452.746	1.3088
454.512	1.58656
456.275	0.0691435
458.038	0.552534
459.803	1.13708
461.565	1.76401
463.327	3.07028
465.091	3.66388
466.852	3.88678
468.613	5.65222
470.374	6.99671
472.136	7.18149
473.896	7.95738
475.655	10.6443
477.415	11.2123
479.176	13.3872
480.934	15.6683
482.692	17.4263
484.45	18.8039
486.21	21.1933
487.967	23.6113
489.724	25.5598
491.481	28.5979
493.237	31.713
494.995	33.6217
496.75	35.915
498.506	38.0287
500.26	38.7665
502.015	40.5436
503.771	41.7311
505.525	42.4757
507.279	43.4948
509.032	43.8971
510.785	44.3026
512.537	44.9881
514.289	45.2576
516.041	44.5501
517.793	43.4231
519.546	41.7725
521.297	39.3541
523.047	38.1119
524.797	36.78
526.547	35.1232
528.297	33.5174
530.046	32.8164
531.795	31.3672
533.543	28.4385
535.291	26.2374
537.039	23.5834
538.787	22.4222
540.534	20.3947
542.281	18.4592
544.027	15.9837
545.773	14.5894
547.519	13.2419
549.264	11.8716
551.01	10.6508
552.754	9.8291
554.499	8.36188
556.243	7.39063
557.987	5.53693
559.73	5.17023
561.474	4.74638
563.216	5.35814
564.959	5.02524
566.701	6.17648
568.441	6.77441
570.182	7.84218
571.923	9.05994
573.664	9.88438
575.405	10.5828
577.145	11.2454
578.885	12.405
580.624	12.8399
582.361	13.37
584.1	13.3963
585.839	14.5524
587.577	14.5187
589.315	14.8304
591.052	14.0388
592.787	14.6554
594.524	15.5487
596.26	15.2489
597.997	15.148
599.732	15.1295
601.466	13.5317
603.201	13.3827
604.936	13.6785
606.67	13.6472
608.403	13.8777
610.136	13.8653
611.87	12.6917
613.603	11.7782
615.334	11.0577
617.067	10.0504
618.799	8.85115
620.529	8.52525
622.26	7.96425
623.991	7.52135
625.72	7.14075
627.451	6.36879
629.181	5.90236
630.909	4.44918
632.638	3.66338
634.368	3.13918
636.095	2.87102
637.823	2.70856
639.551	1.72688
641.277	1.01931
643.005	0.0892595
644.73	-0.187838
646.457	0.0950359
648.184	-0.0798745
649.908	0.579213
651.634	1.71129
653.357	2.63163
655.083	4.41248
656.806	4.65504
658.53	5.79274
660.253	6.16731
661.977	8.04634
663.7	10.5878
665.422	10.8228
667.145	12.122
668.865	13.7342
670.588	15.504
672.308	16.6897
674.027	18.2452
675.749	18.9561
677.468	20.1474
679.188	22.2131
680.907	22.8975
682.627	23.3905
684.345	25.28
686.064	26.5074
687.781	27.0882
689.498	29.7628
691.216	30.9459
692.932	30.7865
694.65	32.4563
696.366	33.1596
698.081	34.43
699.797	34.5992
701.512	34.9788
703.228	35.075
704.942	35.4784
706.655	35.8362
708.371	36.6592
710.083	36.3544
711.796	35.5034
713.51	34.7089
715.222	34.8869
716.934	34.0552
718.645	34.0197
720.358	34.3951
722.068	34.3656
723.779	33.4171
725.49	32.3172
727.2	31.9425
728.909	31.1009
730.618	32.5781
732.329	33.7446
734.037	35.1202
735.745	37.0359
737.453	39.8897
739.16	42.6269
740.869	45.5601
742.576	47.6361
744.282	51.8487
745.988	55.1463
747.694	58.9891
749.401	62.3879
751.107	64.6565
752.811	68.7826
754.516	71.7872
756.22	75.7127
757.924	78.5263
759.627	81.684
761.332	83.6782
763.035	86.2841
764.738	88.6382
766.44	91.6179
768.142	93.4406
769.843	95.3027
771.544	97.0145
773.245	98.3471
774.946	99.9547
776.646	101.15
778.346	101.14
780.046	103.305
781.745	102.906
783.444	102.799
785.143	103.291
786.841	102.382
788.539	102.267
790.237	101.139
791.934	100.163
793.631	99.101
795.328	96.7297
797.024	96.1503
798.72	94.4948
800.416	93.438
802.112	91.2731
803.807	90.0503
805.502	88.3822
807.196	85.3415
808.89	83.3181
810.584	81.471
812.278	79.9443
813.971	79.0961
815.664	78.8698
817.354	77.7006
819.047	77.9821
820.739	77.2919
822.43	76.2441
824.122	75.6342
825.813	74.2533
827.503	73.3995
829.192	72.7262
830.882	71.0177
832.571	69.2165
834.261	68.3023
835.95	66.2523
837.637	65.1475
839.325	62.8514
841.013	62.2457
842.701	59.645
844.389	57.263
846.074	56.7807
847.761	54.887
849.447	53.2781
851.131	51.9644
852.817	49.7795
854.503	49.3335
856.188	48.2368
857.871	46.5351
859.556	45.428
861.24	44.3243
862.922	42.9071
864.606	42.2436
866.289	40.9291
867.97	39.914
869.653	39.5024
871.336	38.2425
873.016	38.0116
874.698	37.0189
876.379	37.5274
878.058	36.8549
879.739	36.6484
881.418	37.303
883.098	36.2008
884.778	36.6612
886.456	37.483
888.135	37.5075
889.812	38.2072
891.49	38.5561
893.167	39.4926
894.845	39.9628
896.523	40.6404
898.198	41.5602
899.875	42.1983
901.55	42.7944
903.226	42.9114
904.901	41.9173
906.576	41.8379
908.25	42.4966
909.925	42.0165
911.598	41.9246
913.271	42.1021
914.945	40.5545
916.617	40.6692
918.291	41.0765
919.962	40.4802
921.635	39.2587
923.306	38.7129
924.978	37.8769
926.648	36.8835
928.318	36.902
929.989	36.5023
931.659	34.3488
933.328	33.2785
934.998	31.9921
936.666	31.655
938.336	30.0406
940.004	26.9011
941.671	25.8747
943.34	24.9729
945.007	22.9722
946.673	22.8747
948.339	22.992
950.007	22.918
951.672	20.7328
953.337	21.5906
955.004	20.2654
956.669	19.5157
958.333	18.451
959.997	17.5411
961.662	16.3003
963.326	16.6395
964.989	16.5076
966.651	16.3658
968.315	17.5907
969.977	18.8962
971.639	19.4696
973.301	20.1065
974.962	19.5272
976.624	19.7545
978.285	19.89
979.945	20.36
981.605	19.611
983.264	18.8006
984.924	18.7081
986.583	18.548
988.243	18.6717
989.901	19.3978
991.56	19.567
993.217	20.0903
994.875	21.1464
996.532	23.0852
998.188	23.2753
999.845	26.1345
1001.5	27.914
1003.16	29.6001
1004.81	31.3804
1006.47	34.5599
1008.12	37.1316
1009.78	39.4795
1011.43	41.7432
1013.09	43.1562
1014.74	45.2316
1016.39	46.2829
1018.05	46.8601
1019.7	48.5614
1021.35	49.6955
1023	50.6949
1024.65	52.5192
1026.31	53.6052
1027.96	53.6473
1029.61	55.4935
1031.26	55.1902
1032.91	54.9249
1034.56	54.1813
1036.21	54.9147
1037.86	53.6072
1039.51	52.7955
1041.16	51.0306
1042.8	49.3228
1044.45	47.8322
1046.1	46.4508
1047.75	45.162
1049.39	44.7394
1051.04	43.7666
1052.69	41.9075
1054.33	40.4618
1055.98	39.1142
1057.62	37.7518
1059.27	36.6703
1060.91	35.0372
1062.56	34.5956
1064.2	33.5415
1065.85	33.0372
1067.49	32.7311
1069.13	33.0306
1070.77	33.5605
1072.42	33.5172
1074.06	33.8503
1075.7	34.7388
1077.34	34.9539
1078.98	35.6942
1080.62	35.4644
1082.27	36.7932
1083.91	37.1363
1085.55	37.5179
1087.18	37.8318
1088.82	37.7513
1090.46	36.6557
1092.1	35.4603
1093.74	35.5581
1095.38	34.2992
1097.02	34.0053
1098.65	32.6183
1100.29	31.8555
1101.93	31.7863
1103.56	30.3486
1105.2	28.3197
1106.84	27.2363
1108.47	25.9881
1110.11	24.2165
1111.74	23.426
1113.38	21.5506
1115.01	20.7682
1116.64	18.7944
1118.28	15.8723
1119.91	14.0011
1121.54	11.675
1123.18	9.89422
1124.81	8.44852
1126.44	8.39224
1128.07	7.95638
1129.7	9.01105
1131.33	9.36124
1132.97	9.75444
1134.6	9.73835
1136.23	10.1278
1137.86	10.007
1139.49	8.94746
1141.11	8.87794
1142.74	9.46995
1144.37	10.0193
1146	8.95675
1147.63	8.779
1149.26	8.85457
1150.88	9.77877
1152.51	9.35723
1154.14	8.53714
1155.76	8.59066
1157.39	7.503
1159.01	7.58801
1160.64	7.10585
1162.27	6.67689
1163.89	7.16764
1165.51	6.65253
1167.14	6.07766
1168.76	6.45811
1170.39	6.35315
1172.01	5.49527
1173.63	5.89852
1175.25	5.6751
1176.88	5.687
1178.5	5.04638
1180.12	3.52837
1181.74	3.23067
1183.36	3.24411
1184.98	2.65641
1186.6	2.83641
1188.22	3.18139
1189.84	2.24302
1191.46	1.59855
1193.08	1.8086
1194.7	1.65812
1196.32	1.90597
1197.94	1.41713
1199.55	1.40532
1201.17	1.84031
1202.79	2.42244
1204.41	2.56341
1206.02	3.50394
1207.64	4.96496
1209.25	5.82
1210.87	6.53038
1212.48	6.89855
1214.1	7.60738
1215.71	7.65428
1217.33	7.51633
1218.94	8.48117
1220.56	8.69001
1222.17	10.7422
1223.79	12.3181
1225.4	13.5037
1227.01	14.6027
1228.62	15.1218
1230.23	15.9613
1231.85	16.5039
1233.46	17.1291
1235.07	18.0431
1236.68	19.0402
1238.29	18.9968
1239.9	21.2915
1241.51	20.8785
1243.12	21.7946
1244.73	22.7693
1246.34	23.4128
1247.94	25.3209
1249.55	27.1275
1251.16	27.3019
1252.77	27.6374
1254.37	28.046
1255.98	29.3125
1257.59	30.9223
1259.2	32.4548
1260.8	34.4139
1262.41	36.0752
1264.01	37.1134
1265.62	38.1808
1267.22	39.5107
1268.83	39.6291
1270.43	40.3261
1272.03	41.8951
1273.64	43.7699
1275.24	45.185
1276.85	46.035
1278.45	46.9524
1280.05	47.9556
1281.65	47.973
1283.25	49.3903
1284.85	49.4408
1286.46	50.0183
1288.06	50.114
1289.66	50.092
1291.26	49.8336
1292.86	50.6549
1294.46	51.1585
1296.06	51.024
1297.66	51.4265
1299.25	51.765
1300.85	51.741
1302.45	52.1284
1304.05	52.2493
1305.65	51.3678
1307.24	50.8392
1308.84	50.563
1310.43	50.5017
1312.03	49.5204
1313.63	49.5294
1315.22	48.4493
1316.82	47.8374
1318.41	47.5095
1320.01	47.8945
1321.6	46.1322
1323.2	46.4033
1324.79	46.8003
1326.38	46.5036
1327.98	46.899
1329.57	45.4084
1331.16	44.8277
1332.76	44.2044
1334.35	44.0518
1335.94	44.5425
1337.53	43.6384
1339.12	42.602
1340.71	41.3425
1342.3	40.6304
1343.89	39.787
1345.48	39.729
1347.07	38.4927
1348.66	37.7539
1350.25	37.7649
1351.84	36.4894
1353.43	35.6897
1355.01	35.37
1356.6	33.2683
1358.19	32.0309
1359.77	31.1813
1361.36	29.5954
1362.95	29.0906
1364.53	27.6106
1366.12	27.4411
1367.71	27.2422
1369.29	27.7273
1370.88	26.7281
1372.46	26.4683
1374.04	25.7053
1375.63	24.5657
1377.21	24.1724
1378.8	23.3839
1380.38	23.1786
1381.96	22.2952
1383.54	22.0242
1385.13	21.5582
1386.71	21.5994
1388.29	21.4428
1389.87	19.9883
1391.45	20.1254
1393.03	19.9501
1394.61	19.9446
1396.19	19.7009
1397.77	20.3698
1399.35	20.8775
1400.93	21.0084
1402.51	22.5871
1404.09	23.4473
1405.67	24.2756
1407.24	25.2623
1408.82	25.713
1410.4	27.558
1411.98	28.8377
1413.55	30.5577
1415.13	31.8697
1416.71	33.9636
1418.28	35.6733
1419.86	37.8337
1421.43	40.5883
1423.01	42.6098
1424.58	44.8319
1426.16	47.3163
1427.73	49.9155
1429.31	51.9252
1430.88	54.5417
1432.45	57.3685
1434.02	59.9637
1435.6	60.6092
1437.17	63.0598
1438.74	65.1564
1440.31	66.4329
1441.88	67.7158
1443.45	67.9616
1445.03	68.7695
1446.6	68.2311
1448.17	68.1469
1449.74	67.7249
1451.3	67.6979
1452.87	67.9289
1454.44	68.0687
1456.01	68.4252
1457.58	68.7866
1459.15	68.997
1460.72	68.7511
1462.28	69.1881
1463.85	68.7281
1465.42	68.3905
1466.98	68.4602
1468.55	67.4404
1470.12	67.4071
1471.68	65.839
1473.25	65.4023
1474.81	64.7508
1476.38	65.0233
1477.94	62.953
1479.51	60.58
1481.07	59.7979
1482.63	58.0053
1484.2	56.8706
1485.76	55.6805
1487.32	54.5573
1488.88	53.5573
1490.45	51.9903
1492.01	50.6273
1493.57	48.5502
1495.13	47.0394
1496.69	45.6293
1498.25	43.9325
1499.81	42.7228
1501.37	40.9771
1502.93	39.0927
1504.49	38.3595
1506.05	36.9452
1507.61	34.9455
1509.17	33.8124
1510.73	31.5219
1512.28	29.496
1513.84	26.5987
1515.4	25.1878
1516.96	23.6605
1518.51	21.6492
1520.07	19.8968
1521.63	18.1372
1523.18	17.4018
1524.74	16.3671
1526.29	16.638
1527.85	16.9935
1529.4	16.8439
1530.96	17.1534
1532.51	17.6571
1534.06	17.9035
1535.62	18.968
1537.17	20.0589
1538.72	20.8084
1540.28	21.914
1541.83	22.6907
1543.38	24.3013
1544.93	25.1425
1546.48	25.1175
1548.03	25.1347
1549.59	25.3224
1551.14	26.8589
1552.69	27.3687
1554.24	27.2431
1555.79	26.3425
1557.34	27.3952
1558.88	28.2035
1560.43	28.1605
1561.98	28.2622
1563.53	28.9862
1565.08	29.0016
1566.62	30.0206
1568.17	30.9723
1569.72	31.7284
1571.27	32.1338
1572.81	33.484
1574.36	34.6234
1575.9	35.3143
1577.45	36.8453
1579	38.1289
1580.54	38.9684
1582.09	40.8285
1583.63	41.9584
1585.17	42.3777
1586.72	42.6785
1588.26	43.1031
1589.8	43.3704
1591.35	42.6919
1592.89	43.0694
1594.43	43.3917
1595.97	43.2125
1597.52	43.9072
1599.06	44.0457
1600.6	44.829
1602.14	45.0974
1603.68	45.4795
1605.22	45.5264
1606.76	45.0463
1608.3	44.6584
1609.84	45.297
1611.38	44.9502
1612.92	45.9371
1614.46	45.9555
1615.99	45.9607
1617.53	45.8443
1619.07	46.0047
1620.61	46.9012
1622.14	47.3342
1623.68	46.3639
1625.22	47.2406
1626.75	48.5883
1628.29	48.7873
1629.82	48.9321
1631.36	49.3628
1632.9	49.8913
1634.43	51.2018
1635.96	51.1381
1637.5	52.1984
1639.03	53.2438
1640.57	54.8002
1642.1	56.6239
1643.63	58.3917
1645.16	59.219
1646.7	59.8425
1648.23	60.4609
1649.76	61.6967
1651.29	62.9433
1652.82	63.7068
1654.36	63.8146
1655.89	63.7865
1657.42	63.5856
1658.95	63.523
1660.48	62.2566
1662.01	60.7901
1663.53	58.8693
1665.06	57.4522
1666.59	55.6824
1668.12	54.0008
1669.65	52.5746
1671.18	51.4193
1672.7	50.0485
1674.23	48.5494
1675.76	45.6649
1677.29	44.1183
1678.81	41.1719
1680.34	38.6265
1681.86	36.1735
1683.39	33.5775
1684.91	31.7876
1686.44	30.6107
1687.96	28.6685
1689.49	27.7264
1691.01	26.0169
1692.54	24.6399
1694.06	23.5655
1695.58	22.7579
1697.11	21.6702
1698.63	19.4691
1700.15	17.8441
1701.67	17.8841
1703.2	17.1329
1704.72	15.8795
1706.24	15.3228
1707.76	14.3016
1709.28	14.3402
1710.8	13.9466
1712.32	13.3544
1713.84	12.8992
1715.36	12.5593
1716.88	13.0994
1718.4	13.4922
1719.91	12.3423
1721.43	11.9447
1722.95	12.1892
1724.47	12.2419
1725.99	13.1987
1727.5	13.0174
1729.02	12.2802
1730.54	11.8912
1732.05	11.3052
1733.57	10.6465
1735.09	10.0833
1736.6	9.51511
1738.12	9.33763
1739.63	9.113
1741.15	9.14783
1742.66	9.08072
1744.18	8.61993
1745.69	8.7179
1747.2	9.24534
1748.72	8.70628
1750.23	7.75081
1751.74	7.29985
1753.25	7.67899
1754.77	6.78228
1756.28	7.27332
1757.79	7.2222
1759.3	7.07586
1760.81	6.76059
1762.32	6.19862
1763.83	5.82688
1765.34	5.46586
1766.85	4.77171
1768.36	4.24001
1769.87	3.33144
1771.38	2.70145
1772.89	2.31538
1774.4	2.03827
1775.91	2.74383
1777.41	2.92825
1778.92	3.07247
1780.43	3.02207
1781.94	2.92454
1783.44	3.26758
1784.95	4.09458
1786.45	3.85669
1787.96	4.27701
1789.47	4.24505
1790.97	4.78501
1792.48	5.00042
1793.98	4.42797
1795.48	4.67752
1796.99	5.72373
1798.49	6.25435
1800	6.49946
1801.5	6.80036
1803	6.89013
1804.51	6.78414
1806.01	7.26893
1807.51	7.09891
1809.01	7.31286
1810.51	7.75473
1812.02	7.92703
1813.52	7.77028
1815.02	7.77288
1816.52	7.76952
1818.02	7.42299
1819.52	6.98119
1821.02	7.00121
1822.52	6.9632
1824.02	6.20863
1825.51	5.60193
1827.01	6.15922
1828.51	6.09638
1830.01	5.55944
1831.51	4.63692
1833	3.54668
1834.5	2.89573
1836	2.13981
1837.5	2.14686
1838.99	2.16359
1840.49	2.04678
1841.98	1.44212
1843.48	0.891978
1844.97	0.496353
1846.47	0.550602
1847.96	0.711158
1849.46	0.580499
1850.95	0.58216
1852.45	0.0603906
1853.94	-0.160691
1855.43	0.326133
1856.92	0.023578
1858.42	0.365443
1859.91	0.564486
1861.4	0.953052
1862.89	0.911421
1864.39	0.85609
1865.88	1.14318
1867.37	1.84273
1868.86	2.40061
1870.35	2.76912
1871.84	3.26924
1873.33	2.93647
1874.82	2.559
1876.31	2.9829
1877.8	3.17148
1879.29	2.9589
1880.77	3.17913
1882.26	3.54693
1882.51	3.68324
1884	4.00584
1885.5	4.19155
1886.99	4.22095
1888.48	4.6652
1889.98	5.64807
1891.47	5.9757
1892.97	6.20611
1894.46	7.15306
1895.95	6.92109
1897.44	6.32546
1898.93	6.50886
1900.42	6.99404
1901.92	6.35402
1903.41	5.33346
1904.9	6.0345
1906.39	6.29099
1907.88	5.94919
1909.37	5.61623
1910.86	5.39597
1912.35	4.90373
1913.84	4.90659
1915.32	3.94835
1916.81	3.82248
1918.3	3.66719
1919.79	3.89105
1921.28	3.54142
1922.76	3.6174
1924.25	3.46226
1925.74	3.30024
1927.22	3.86907
1928.71	4.35751
1930.2	4.45475
1931.68	4.67491
1933.17	4.85937
1934.65	5.27487
1936.14	4.91369
1937.62	4.99065
1939.11	5.32676
1940.59	5.54321
1942.08	5.62658
1943.56	5.37616
1945.04	6.06396
1946.53	5.13829
1948.01	5.49693
1949.49	6.12302
1950.97	5.73623
1952.45	5.94185
1953.94	6.43576
1955.42	7.11202
1956.9	7.24344
1958.38	7.54428
1959.86	7.09673
1961.34	6.994
1962.82	7.93718
1964.3	8.36256
1965.78	7.64173
1967.26	7.66982
1968.74	7.39929
1970.22	6.45567
1971.69	6.0104
1973.17	6.14674
1974.65	5.44216
1976.13	4.7962
1977.61	4.74104
1979.08	5.10021
1980.56	3.71094
1982.03	2.77696
1983.51	2.77179
1984.99	2.69525
1986.46	2.72285
1987.94	2.64839
1989.41	3.06741
1990.89	4.1628
1992.36	4.52146
1993.84	4.92795
1995.31	5.0285
1996.78	5.77242
1998.26	5.99803
1999.73	6.30457
2001.2	6.4934
2002.68	6.71627
2004.15	6.63958
2005.62	7.02154
2007.09	7.72022
2008.56	8.07381
2010.04	7.52213
2011.51	7.53746
2012.98	8.39712
2014.45	7.57912
2015.92	7.07301
2017.39	6.48475
2018.86	6.36166
2020.33	5.97858
2021.8	6.49367
2023.27	5.94456
2024.74	5.72658
2026.2	6.487
2027.67	6.44596
2029.14	6.5108
2030.61	6.59617
2032.07	6.43773
2033.54	6.37848
2035.01	6.95254
2036.47	7.28765
2037.94	7.61407
2039.41	7.54824
2040.87	7.69257
2042.34	7.74543
2043.8	7.85949
2045.27	8.46418
2046.73	8.72071
2048.2	8.84206
2049.66	9.42932
2051.12	10.0423
2052.59	10.2012
2054.05	10.6516
2055.51	11.8011
2056.98	13.3138
2058.44	14.0766
2059.9	15.3182
2061.36	16.5962
2062.82	17.7154
2064.29	18.4512
2065.75	18.7512
2067.21	19.1692
2068.67	19.6908
2070.13	20.4297
2071.59	21.0497
2073.05	22.1243
2074.51	22.9097
2075.97	23.8275
2077.43	24.6689
2078.88	25.4304
2080.34	25.9166
2081.8	26.5923
2083.26	26.9532
2084.72	27.5843
2086.17	28.1891
2087.63	27.5905
2089.09	28.9367
2090.54	29.915
2092	30.4906
2093.46	31.6194
2094.91	32.7083
2096.37	33.7668
2097.82	35.1513
2099.28	37.0754
2100.73	37.6764
2102.19	38.6334
2103.64	39.3891
2105.09	40.8296
2106.55	41.9728
2108	43.4236
2109.46	45.457
2110.91	46.6107
2112.36	47.3786
2113.81	48.7903
2115.27	50.408
2116.72	52.0167
2118.17	53.8491
2119.62	55.2592
2121.07	57.3272
2122.52	59.0896
2123.97	61.5268
2125.42	63.2823
2126.87	65.5142
2128.32	67.7767
2129.77	69.6699
2131.22	71.4875
2132.67	73.0433
2134.12	75.3868
2135.57	77.2651
2137.01	78.8286
2138.46	80.1408
2139.91	81.5993
2141.36	83.3147
2142.8	85.16
2144.25	87.346
2145.7	89.752
2147.14	91.2565
2148.59	92.408
2150.03	93.7319
2151.48	95.072
2152.92	96.785
2154.37	97.8914
2155.81	98.4278
2157.26	99.2362
2158.7	99.71
2160.15	100.873
2161.59	102.406
2163.03	102.818
2164.48	103.186
2165.92	103.907
2167.36	103.731
2168.8	104.209
2170.25	103.65
2171.69	103.002
2173.13	101.659
2174.57	101.065
2176.01	100.184
2177.45	99.8928
2178.89	98.4069
2180.33	97.2617
2181.77	96.4004
2183.21	94.4913
2184.65	93.5335
2186.09	92.4377
2187.53	91.3658
2188.97	90.1573
2190.41	88.6316
2191.84	86.6395
2193.28	85.085
2194.72	83.2012
2196.16	81.7996
2197.59	79.9654
2199.03	78.1313
2200.47	76.3031
2201.9	74.5408
2203.34	72.6721
2204.78	71.0563
2206.21	70.0984
2207.65	68.1092
2209.08	66.0534
2210.51	65.1621
2211.95	63.9024
2213.38	62.4439
2214.82	60.7682
2216.25	59.726
2217.68	58.1329
2219.12	56.5002
2220.55	54.8982
2221.98	53.6517
2223.42	51.828
2224.85	50.3173
2226.28	48.5881
2227.71	47.216
2229.14	45.7671
2230.57	44.2444
2232	43.4148
2233.43	42.2224
2234.86	41.0031
2236.29	39.7929
2237.72	38.7716
2239.15	37.4019
2240.58	37.7221
2242.01	36.1297
2243.44	34.5284
2244.87	33.3512
2246.3	32.1328
2247.73	30.4581
2249.15	29.8642
2250.58	28.505
2252.01	27.7531
2253.43	26.4894
2254.86	25.5246
2256.29	24.5393
2257.71	24.0865
2259.14	23.353
2260.56	22.5056
2261.99	22.1558
2263.41	21.4819
2264.84	20.7963
2266.26	20.3915
2267.69	19.8315
2269.11	19.0571
2270.54	18.7921
2271.96	18.246
2273.38	18.3046
2274.81	17.5495
2276.23	17.3991
2277.65	16.9981
2279.07	17.1206
2280.49	16.5447
2281.92	16.0575
2283.34	15.2853
2284.76	14.7779
2286.18	14.4702
2287.6	14.6987
2289.02	13.9996
2290.44	12.9442
2291.86	11.7649
2293.28	10.7095
2294.7	10.1555
2296.12	10.1718
2297.54	10.1925
2298.96	10.6196
2300.38	10.9163
2301.79	10.9085
2303.21	11.0537
2304.63	11.5714
2306.05	11.8813
2307.46	11.8442
2308.88	12.0793
2310.3	12.0548
2311.71	12.5685
2313.13	11.1109
2314.55	10.3213
2315.96	9.95804
2317.38	9.70421
2318.79	9.23527
2320.21	9.28153
2321.62	9.42669
2323.03	9.29928
2324.45	9.71621
2325.86	10.2488
2327.27	10.4384
2328.69	10.614
2330.1	10.4337
2331.51	10.0485
2332.93	9.27673
2334.34	8.61601
2335.75	7.34694
2337.16	7.25548
2338.57	6.6351
2339.99	6.3472
2341.4	5.90738
2342.81	5.04561
2344.22	4.64926
2345.63	4.39666
2347.04	4.16973
2348.45	4.06833
2349.86	3.79276
2351.26	3.14269
2352.67	2.98015
2354.08	3.32565
2355.49	2.90442
2356.9	2.1295
2358.31	1.5119
2359.71	1.00936
2361.12	0.708534
2362.53	1.13594
2363.94	1.83568
2365.34	1.98156
2366.75	1.81139
2368.15	1.78666
2369.56	1.83421
2370.97	2.10737
2372.37	1.87832
2373.78	2.28155
2375.18	3.51919
2376.59	3.7525
2377.99	4.07877
2379.39	4.07466
2380.8	3.78546
2382.2	3.93644
2383.61	3.02082
2385.01	3.22014
2386.41	3.34397
2387.81	3.9329
2389.22	4.35142
2390.62	5.23515
2392.02	5.9479
2393.42	5.97281
2394.82	6.28554
2396.22	6.48101
2397.63	6.16275
2399.02	5.82837
2400.43	5.51349
2401.82	5.50948
2403.23	5.36727
2404.62	5.22761
2406.02	4.91986
2407.42	5.36633
2408.82	5.31493
2410.22	5.51572
2411.62	5.49177
2413.02	5.30794
2414.41	4.90672
2415.81	5.51269
2417.21	5.18122
2418.61	5.74159
2420	5.96521
2421.4	5.34938
2422.79	5.19798
2424.19	5.17169
2425.59	4.66827
2426.98	4.18634
2428.38	4.13342
2429.77	3.85793
2431.17	3.58733
2432.56	3.25494
2433.96	3.05824
2435.35	2.47763
2436.74	2.12756
2438.14	2.54599
2439.53	2.93816
2440.92	3.28375
2442.32	3.22937
2443.71	3.42686
2445.1	3.54403
2446.49	2.98625
2447.88	2.82307
2449.28	2.59716
2450.67	2.80658
2452.06	2.51095
2453.45	1.83985
2454.84	2.07702
2456.23	2.18817
2457.62	2.52712
2459.01	2.47872
2460.4	2.62634
2461.79	2.61379
2463.18	2.49574
2464.57	2.46111
2465.96	3.129
2467.34	2.78688
2468.73	2.97074
2470.12	2.6448
2471.51	2.69294
2472.89	2.45434
2474.28	2.3629
2475.67	2.30651
2477.05	2.70884
2478.44	2.42007
2479.83	2.06807
2481.21	1.9027
2482.6	1.95601
2483.98	1.77804
2485.37	1.73781
2486.75	1.47848
2488.14	1.68927
2489.52	1.2918
2490.9	0.471251
2492.29	1.23535
2493.67	1.65822
2495.06	1.56301
2496.44	1.29948
2497.82	1.28663
2499.2	1.02997
2500.59	1.1504
2501.97	1.18262
2503.35	0.766183
2504.73	0.124389
2506.11	0.00994195
2507.49	-0.0646357
2508.88	0.0884112
2510.26	-0.193164
2511.63	0.268822
2513.01	0.218272
2514.39	0.708322
2515.77	1.55227
2517.15	1.57648
2518.53	1.60682
2519.91	1.53736
2521.29	1.0125
2522.67	1.65731
2524.05	2.17101
2525.42	2.73713
2526.8	2.73856
2528.18	2.82038
2529.56	3.27339
2530.93	3.45257
2532.31	3.85041
2533.69	3.70431
2535.06	3.7319
2536.44	3.30346
2537.81	3.49265
2539.19	3.5241
2540.56	3.68282
2541.94	4.09317
2543.31	3.85294
2544.69	4.08913
2546.06	4.51075
2547.44	4.18761
2548.81	4.94454
2550.18	4.89852
2551.56	5.10493
2552.93	4.70773
2554.3	4.90635
2555.68	5.20931
2557.05	4.87725
2558.42	4.76787
2559.79	4.9878
2561.16	5.542
2562.53	5.2619
2563.9	4.68402
2565.28	4.47549
2566.64	3.93026
2568.02	3.67679
2569.38	3.17532
2570.76	3.04029
2572.12	2.26319
2573.49	2.54438
2574.86	2.63893
2576.23	2.87508
2577.6	2.83657
2578.97	2.79435
2580.34	2.85316
2581.7	2.28795
2583.07	2.69305
2584.44	2.48722
2585.81	1.28367
2587.17	1.33522
2588.54	0.662297
2589.91	0.684852
2591.27	1.2586
2592.64	0.72967
2594	0.102435
2595.37	0.205037
2596.73	-0.128407
2598.1	-0.0502923
2599.46	-0.0761434
2600.83	-0.217985
2602.19	-0.657336
2603.55	0.097668
2604.92	0.225523
2606.28	0.479146
2607.64	0.499746
2609.01	0.751772
2610.37	1.05989
2611.73	1.22201
2613.09	2.15305
2614.46	1.95464
2615.82	1.67181
2617.18	2.13947
2618.54	1.80489
2619.9	2.3555
2621.26	2.17536
2622.62	2.36479
2623.98	2.7138
2625.34	2.91706
2626.7	3.29956
2628.06	3.3652
2629.42	3.2621
2630.78	3.31124
2632.14	3.22146
2633.5	3.27457
2634.86	3.24406
2636.22	3.58288
2637.57	3.49969
2638.93	4.21553
2640.29	4.62882
2641.64	4.99801
2643	5.17651
2644.36	5.28617
2645.72	5.45286
2647.07	6.42056
2648.43	6.42064
2649.78	6.8921
2651.14	6.95053
2652.49	6.72682
2653.85	6.98806
2655.2	7.49544
2656.56	7.1331
2657.91	7.93194
2659.27	7.98515
2660.62	7.3619
2661.97	7.00782
2663.33	7.66984
2664.68	7.62285
2666.03	8.1232
2667.38	7.91548
2668.74	8.34968
2670.09	8.33731
2671.44	8.63849
2672.79	7.91152
2674.14	8.0511
2675.49	7.99537
2676.84	7.78415
2678.2	7.99773
2679.55	8.31481
2680.89	7.62282
2682.24	7.09529
2683.59	7.15273
2684.94	7.08112
2686.29	6.43667
2687.64	5.63746
2688.99	5.35591
2690.34	4.79983
2691.69	4.64488
2693.04	3.88737
2694.38	3.13587
2695.73	3.10247
2697.08	3.10407
2698.43	3.01861
2699.77	3.40294
2701.12	3.54243
2702.46	3.79617
2703.81	4.42814
2705.16	4.38825
2706.5	4.88693
2707.85	5.22409
2709.19	4.63793
2710.54	4.91894
2711.88	5.13606
2713.23	5.95088
2714.57	6.36768
2715.92	6.0748
2717.26	7.24468
2718.6	7.33263
2719.95	8.11268
2721.29	8.17535
2722.63	7.73484
2723.97	7.95733
2725.32	8.14559
2726.66	8.64591
2728	8.59336
2729.34	8.66088
2730.68	9.25073
2732.02	9.99939
2733.36	9.56669
2734.7	9.93867
2736.04	10.2203
2737.39	9.33496
2738.72	9.01789
2740.06	8.89761
2741.4	9.31447
2742.74	9.27173
2744.08	9.37746
2745.42	9.11503
2746.76	8.28231
2748.1	7.73385
2749.44	7.67492
2750.77	7.60263
2752.11	6.95407
2753.45	6.4315
2754.78	6.22656
2756.12	6.25019
2757.46	5.45504
2758.79	4.99138
2760.13	4.60753
2761.47	4.75797
2762.8	4.65636
2764.14	4.75489
2765.47	3.91687
2766.81	4.32016
2768.14	3.79939
2769.48	3.55774
2770.81	3.39455
2772.14	2.35825
2773.48	2.33035
2774.81	2.10175
2776.14	1.71757
2777.48	1.53934
2778.81	1.72047
2780.14	2.32252
2781.47	2.0837
2782.81	1.91633
2784.14	1.54435
2785.47	0.380609
2786.8	0.485761
2788.13	0.445957
2789.46	-0.0152268
2790.79	-0.0177066
2792.12	-0.383692
2793.46	-0.598377
2794.79	-1.05357
2796.11	-0.297381
2797.44	-0.514178
2798.77	-0.709733
2800.1	-1.49647
2801.43	-0.963957
2802.76	-1.10481
2804.09	-1.44532
2805.42	-0.982186
2806.74	-0.665501
2808.07	-0.477964
2809.4	-0.360614
2810.73	-0.384495
2812.05	-0.346763
2813.38	0.532474
2814.71	1.67633
2816.03	1.98346
2817.36	2.92066
2818.68	3.798
2820.01	5.13845
2821.33	6.58978
2822.66	8.70469
2823.98	11.2565
2825.31	14.0162
2826.63	17.3241
2827.96	20.0866
2829.28	22.7876
2830.61	25.8589
2831.93	29.0176
2833.25	32.2699
2834.57	34.9527
2835.9	37.9905
2837.22	41.4897
2838.54	45.2199
2839.86	48.5209
2841.18	51.9408
2842.51	55.7531
2843.83	59.4958
2845.15	63.8841
2846.47	67.6183
2847.79	70.5963
2849.11	74.3497
2850.43	77.1342
2851.75	81.2341
2853.07	84.5066
2854.39	87.262
2855.71	89.3471
2857.03	93.4589
2858.35	96.5415
2859.67	99.5273
2860.98	102.355
2862.3	105.167
2863.62	106.681
2864.94	109.339
2866.25	111.772
2867.57	113.234
2868.89	114.805
2870.21	115.936
2871.52	117.638
2872.84	118.876
2874.15	120.114
2875.47	121.392
2876.78	122.656
2878.1	123.853
2879.42	125.245
2880.73	126.426
2882.04	127.615
2883.36	129.584
2884.67	131.895
2885.99	133.769
2887.3	135.898
2888.61	138.242
2889.93	140.895
2891.24	143.022
2892.55	145.889
2893.87	148.38
2895.18	151.245
2896.49	154.298
2897.8	157.788
2899.11	161.053
2900.42	165.091
2901.74	169.278
2903.05	173.695
2904.36	178.391
2905.67	182.535
2906.98	187.501
2908.29	192.953
2909.6	198.23
2910.91	202.542
2912.22	207.022
2913.53	211.807
2914.83	216.425
2916.14	220.577
2917.45	224.977
2918.76	229.55
2920.07	233.713
2921.37	237.222
2922.68	241.187
2923.99	242.909
2925.3	245.175
2926.6	246.791
2927.91	248.218
2929.22	248.668
2930.52	249.674
2931.83	248.951
2933.13	247.857
2934.44	247.532
2935.74	245.521
2937.05	243.488
2938.35	240.595
2939.66	238.108
2940.96	235.015
2942.27	231.334
2943.57	227.155
2944.87	223.565
2946.18	219.466
2947.48	214.704
2948.78	209.945
2950.09	205.629
2951.39	200.473
2952.69	196.014
2953.99	191.17
2955.29	186.53
2956.6	181.194
2957.9	176.176
2959.2	170.744
2960.5	165.648
2961.8	160.96
2963.1	156.328
2964.4	151.716
2965.7	146.616
2967	142.596
2968.3	138.912
2969.6	134.536
2970.9	130.211
2972.2	125.829
2973.49	122.53
2974.79	118.738
2976.09	114.253
2977.39	110.937
2978.69	107.111
2979.98	103.494
2981.28	99.566
2982.58	95.5909
2983.88	92.3868
2985.17	87.8347
2986.47	82.9152
2987.76	79.0124
2989.06	74.4438
2990.36	70.9499
2991.65	66.6839
2992.95	62.8348
2994.24	59.1608
2995.54	55.5548
2996.83	51.0321
2998.12	47.8102
2999.42	44.5641
3000.71	40.9151
3002	38.1323
3003.3	34.9539
3004.59	32.5445
3005.88	29.5884
3007.18	27.3725
3008.47	24.7024
3009.76	22.0155
3011.05	19.2616
3012.35	17.3009
3013.64	15.5946
3014.93	13.9747
3016.22	11.6759
3017.51	10.2059
3018.8	8.36721
3020.09	6.9271
3021.38	5.62657
3022.67	3.8753
3023.96	3.11719
3025.25	2.4875
3026.54	2.07632
3027.83	1.72721
3029.12	1.33151
3030.41	0.790564
3031.69	1.3193
3032.98	2.0085
3034.27	2.02058
3035.56	2.32198
3036.85	2.55457
3038.13	3.16644
3039.42	2.9467
3040.71	2.72355
3041.99	3.21171
3043.28	3.65154
3044.57	4.47849
3045.85	4.52702
3047.14	5.72466
3048.42	6.19831
3049.71	6.25893
3050.99	6.31741
3052.28	7.36266
3053.56	7.88046
3054.85	8.76988
3056.13	8.82907
3057.42	9.17955
3058.7	9.88062
3059.98	9.66531
3061.27	9.32145
3062.55	9.6976
3063.83	9.42911
3065.11	9.82701
3066.4	9.01034
3067.68	8.72156
3068.96	8.4247
3070.24	8.30221
3071.52	7.47722
3072.8	6.91451
3074.09	6.21735
3075.37	6.48209
3076.65	6.19131
3077.93	5.44513
3079.21	4.48775
3080.49	3.75208
3081.77	3.6854
3083.05	3.20222
3084.32	2.56178
3085.61	2.34025
3086.88	2.1899
3088.16	2.32401
3089.44	2.30175
3090.72	2.44486
3092	2.48588
3093.27	2.64066
3094.55	3.10279
3095.83	3.89441
3097.11	4.80544
3098.38	4.94239
3099.66	5.44189
3100.94	6.64918
3102.21	7.47289
3103.49	8.37332
3104.76	9.56127
3106.04	10.4306
3107.31	11.666
3108.59	12.8133
3109.86	13.9111
3111.14	15.5359
3112.41	16.2052
3113.69	16.8895
3114.96	18.2341
3116.23	19.5046
3117.51	20.07
3118.78	21.0276
3120.05	21.6867
3121.33	22.6607
3122.6	23.6541
3123.87	23.851
3125.14	24.7194
3126.42	25.9736
3127.69	26.5914
3128.96	27.5635
3130.23	27.4346
3131.5	28.6753
3132.77	28.8681
3134.04	29.6887
3135.31	29.6093
3136.58	30.3542
3137.85	30.1802
3139.12	30.7661
3140.39	30.6141
3141.66	30.9102
3142.93	31.2456
3144.2	31.8013
3145.47	32.3891
3146.74	33.3699
3148	34.4183
3149.27	35.103
