#Acq. time (s)=	45
#Accumulations=	2
#Range (cm-¹)=	200...3150
#Windows=	2
#Auto scanning=	Off
#Autofocus=	Off
#Macrospot=	Off
#AutoExposure=	Off
#Spike filter=	Multiple accum.
#Delay time (s)=	0
#Binning=	1
#Readout mode=	Signal
#DeNoise=	Off
#ICS correction=	On
#Dark correction=	Off
#Inst. Process=	Off
#Detector Gain=	Best Dynamic Range
#Detector ADC=	20 kHz       
#Detector temperature (°C)=	-69.85
#Instrument=	LabRAM HR Evol
#Detector=	Synapse
#Objective=	x100
#Grating=	600 gr/mm
#ND Filter=	100%
#Laser (nm)=	532 
#Hole=	100.021
#Range=	Auto
#Laser Pol.=	No
#Raman. Pol.=	No
#Laser Pol. (°)=	-0.0007625
#Raman Pol. (°)=	89.9995
#Collection=	Microscope
#StageXY=	Marzhauser
#StageZ=	Marzhauser
#X (µm)=	28295.2
#Y (µm)=	-3300.8
#Z (µm)=	1040.6
#Full time(mm:ss)=	3:19
#Project=	
#Sample=	
#Site=	
#Title=	Mb_50_18_24_2x_45s_532 nm_x100_100%_600 gr_mm
#Remark=	
#Date=	12.07.2022 12:39
#Acquired=	12.07.2022 12:39:40
#Base:Fit=	10.08.2022 10:49:18
#Base:Sub=	10.08.2022 10:49:30
#Filter:Polynom=	16.08.2022 10:14:59
#AxisType[0]=Intens
#AxisUnit[0]=Cnt
#AxisType[1]=Spectr
#AxisUnit[1]=1/cm
200.388	3.70887
202.204	4.00834
204.019	2.89235
205.832	4.66818
207.646	3.51037
209.459	1.20802
211.274	0.609345
213.087	-0.215843
214.899	0.331042
216.711	1.87831
218.524	3.57598
220.335	4.77827
222.146	4.66213
223.956	6.12861
225.766	7.56141
227.576	7.1567
229.388	9.03525
231.197	10.0454
233.005	10.4764
234.813	12.5501
236.621	12.4874
238.429	12.1033
240.236	11.951
242.045	12.1714
243.852	11.9482
245.658	12.4614
247.464	13.0344
249.269	13.7959
251.074	14.7445
252.879	13.9864
254.683	13.0617
256.487	13.3319
258.291	13.4868
260.094	14.3617
261.897	14.9687
263.702	13.8368
265.504	12.6589
267.306	12.6098
269.108	11.5804
270.909	10.999
272.71	10.9023
274.511	9.4652
276.311	8.62944
278.111	8.37667
279.91	7.96475
281.709	7.31449
283.508	6.66257
285.306	7.44033
287.105	7.30668
288.9	8.0421
290.698	8.13774
292.495	8.80614
294.291	9.03575
296.088	7.52237
297.884	9.80293
299.679	14.6109
301.475	17.1788
303.27	17.482
305.064	19.9814
306.858	21.1822
308.652	23.117
310.444	24.2751
312.237	24.8101
314.03	26.7943
315.822	26.7161
317.615	27.6233
319.406	29.0041
321.198	29.2879
322.987	30.4653
324.778	32.054
326.568	31.601
328.358	32.0025
330.148	32.6538
331.935	33.5867
333.724	33.672
335.513	33.3286
337.301	32.1162
339.089	31.9371
340.875	30.4248
342.662	29.3501
344.449	29.0511
346.236	30.0816
348.02	29.6653
349.806	29.7101
351.592	29.6537
353.375	29.5843
355.16	31.2504
356.944	33.562
358.728	36.7934
360.51	39.4293
362.294	40.9777
364.077	42.7196
365.858	45.2842
367.64	49.2582
369.422	50.5696
371.202	53.4182
372.983	54.8567
374.764	56.7663
376.543	59.2416
378.324	60.7749
380.102	62.0175
381.881	62.2045
383.661	62.2141
385.438	62.5029
387.216	63.0945
388.993	64.3572
390.771	64.0653
392.548	63.7385
394.324	63.1185
396.101	62.0369
397.875	61.1986
399.651	58.122
401.425	55.2915
403.201	53.4883
404.974	50.4325
406.749	49.2628
408.524	46.1483
410.296	44.2632
412.07	41.7045
413.841	38.2763
415.614	34.3191
417.385	30.6056
419.156	26.2012
420.928	22.5575
422.698	19.2707
424.469	15.5167
426.238	13.3958
428.009	10.9
429.777	8.82857
431.548	8.18648
433.315	7.69337
435.083	7.1189
436.852	6.2948
438.618	6.60244
440.387	7.40719
442.153	8.3575
443.919	10.019
445.686	10.709
447.451	11.9866
449.218	11.263
450.982	11.9941
452.746	13.2175
454.512	13.2218
456.275	13.6382
458.038	12.8475
459.803	13.8565
461.565	13.7009
463.327	13.9315
465.091	15.5318
466.852	14.8936
468.613	14.9622
470.374	15.1457
472.136	15.8623
473.896	16.8339
475.655	17.7658
477.415	18.7739
479.176	20.4474
480.934	21.3334
482.692	22.7696
484.45	24.8264
486.21	26.6698
487.967	27.6091
489.724	29.0688
491.481	30.475
493.237	31.4257
494.995	34.3622
496.75	36.2621
498.506	38.6922
500.26	40.5404
502.015	42.1772
503.771	44.5816
505.525	46.2455
507.279	47.9945
509.032	50.5116
510.785	51.5941
512.537	51.5769
514.289	52.8759
516.041	52.736
517.793	53.2441
519.546	53.0676
521.297	52.7136
523.047	52.2921
524.797	52.5712
526.547	52.7932
528.297	51.7919
530.046	50.0121
531.795	47.6436
533.543	45.2098
535.291	42.917
537.039	40.0602
538.787	37.2468
540.534	34.4704
542.281	31.2267
544.027	28.6051
545.773	25.3696
547.519	22.4258
549.264	19.9985
551.01	16.9831
552.754	14.0187
554.499	10.7302
556.243	8.16056
557.987	6.99968
559.73	6.02109
561.474	5.15199
563.216	4.27959
564.959	3.64507
566.701	3.02218
568.441	2.69192
570.182	2.64466
571.923	3.04984
573.664	3.28887
575.405	3.49126
577.145	5.20545
578.885	6.54322
580.624	8.50712
582.361	10.5721
584.1	11.4731
585.839	12.3858
587.577	13.3446
589.315	14.5246
591.052	15.3364
592.787	15.5164
594.524	16.0309
596.26	16.4073
597.997	16.2023
599.732	16.7085
601.466	17.6429
603.201	18.1225
604.936	18.6157
606.67	18.9035
608.403	18.4802
610.136	18.2415
611.87	17.9956
613.603	16.8474
615.334	14.5295
617.067	13.7209
618.799	13.4454
620.529	13.3434
622.26	12.8302
623.991	11.8974
625.72	11.3089
627.451	11.3996
629.181	10.367
630.909	9.43778
632.638	8.18598
634.368	7.74182
636.095	7.05354
637.823	4.63728
639.551	4.46692
641.277	4.03176
643.005	4.19132
644.73	4.23618
646.457	4.33025
648.184	4.17722
649.908	3.53607
651.634	3.95091
653.357	4.5229
655.083	5.94263
656.806	6.6569
658.53	6.42728
660.253	6.67988
661.977	6.58355
663.7	6.98712
665.422	6.48961
667.145	6.5749
668.865	6.66568
670.588	8.03372
672.308	8.27517
674.027	9.40615
675.749	10.1513
677.468	11.1263
679.188	11.472
680.907	12.4399
682.627	12.1477
684.345	12.599
686.064	13.2013
687.781	13.4304
689.498	13.3737
691.216	13.1521
692.932	12.9723
694.65	13.3747
696.366	13.9051
698.081	14.8705
699.797	14.4885
701.512	14.6165
703.228	15.1793
704.942	15.7213
706.655	15.2323
708.371	15.3801
710.083	15.8735
711.796	15.9503
713.51	16.5846
715.222	17.289
716.934	17.6462
718.645	17.4645
720.358	16.6895
722.068	15.4741
723.779	14.5019
725.49	15.681
727.2	13.9044
728.909	14.2054
730.618	15.0788
732.329	15.5722
734.037	17.249
735.745	19.2675
737.453	22.5237
739.16	25.8048
740.869	28.8082
742.576	32.8052
744.282	37.3071
745.988	42.4933
747.694	48.1678
749.401	54.5727
751.107	60.5852
752.811	66.2866
754.516	72.4623
756.22	79.0785
757.924	83.868
759.627	88.7067
761.332	92.8837
763.035	97.1479
764.738	100.347
766.44	104.044
768.142	106.242
769.843	110.378
771.544	112.537
773.245	113.413
774.946	115.308
776.646	117.199
778.346	118.361
780.046	119.275
781.745	119.311
783.444	119.561
785.143	118.377
786.841	118.06
788.539	117.817
790.237	115.973
791.934	114.334
793.631	112.609
795.328	110.472
797.024	106.976
798.72	103.441
800.416	99.5229
802.112	94.8065
803.807	89.3285
805.502	85.0163
807.196	80.7251
808.89	77.5292
810.584	73.5908
812.278	69.1181
813.971	67.8462
815.664	65.943
817.354	63.3523
819.047	62.4207
820.739	61.113
822.43	60.6659
824.122	60.1358
825.813	59.4715
827.503	59.1726
829.192	58.3997
830.882	58.0208
832.571	58.4719
834.261	57.6217
835.95	57.0671
837.637	56.1604
839.325	55.4601
841.013	54.7175
842.701	53.0837
844.389	52.5732
846.074	51.5304
847.761	50.1235
849.447	49.2355
851.131	47.6285
852.817	46.748
854.503	46.055
856.188	45.8235
857.871	43.7965
859.556	44.447
861.24	44.4883
862.922	43.9929
864.606	43.8338
866.289	44.2209
867.97	42.9377
869.653	42.6535
871.336	42.6607
873.016	43.0274
874.698	41.5306
876.379	42.1969
878.058	40.9381
879.739	40.6657
881.418	39.161
883.098	38.1084
884.778	37.9783
886.456	36.8187
888.135	35.6677
889.812	35.8049
891.49	34.5423
893.167	32.9309
894.845	31.1987
896.523	29.5602
898.198	29.0919
899.875	27.3569
901.55	26.1989
903.226	25.5473
904.901	25.4045
906.576	24.7999
908.25	25.3898
909.925	25.0823
911.598	24.7978
913.271	24.2752
914.945	24.9049
916.617	23.9694
918.291	23.8714
919.962	23.8229
921.635	22.926
923.306	22.3324
924.978	22.9781
926.648	23.8909
928.318	23.6159
929.989	22.8833
931.659	22.9583
933.328	23.7838
934.998	24.1567
936.666	24.4749
938.336	24.8215
940.004	25.6055
941.671	24.1095
943.34	24.7144
945.007	24.1502
946.673	23.5482
948.339	23.6814
950.007	23.192
951.672	21.9581
953.337	22.4395
955.004	22.1838
956.669	21.8198
958.333	20.1653
959.997	19.1312
961.662	17.4818
963.326	16.6222
964.989	14.7512
966.651	13.3277
968.315	12.6627
969.977	10.9059
971.639	9.02767
973.301	8.06091
974.962	6.27436
976.624	4.80614
978.285	3.7906
979.945	2.37268
981.605	1.85503
983.264	0.267353
984.924	-0.855326
986.583	-1.94599
988.243	-2.15677
989.901	-2.55751
991.56	-1.71643
993.217	-2.05856
994.875	-1.37439
996.532	-0.246656
998.188	2.46193
999.845	3.41407
1001.5	6.73587
1003.16	9.09848
1004.81	12.5441
1006.47	16.3098
1008.12	20.1278
1009.78	23.2427
1011.43	26.276
1013.09	29.8165
1014.74	32.6232
1016.39	36.0405
1018.05	39.2743
1019.7	41.4242
1021.35	45.5497
1023	47.9776
1024.65	50.4709
1026.31	52.0972
1027.96	53.7768
1029.61	55.5547
1031.26	57.0347
1032.91	57.5808
1034.56	57.9357
1036.21	58.24
1037.86	58.061
1039.51	57.5206
1041.16	56.4068
1042.8	54.8858
1044.45	53.6604
1046.1	53.0496
1047.75	50.9826
1049.39	49.6377
1051.04	48.7436
1052.69	46.8059
1054.33	45.6586
1055.98	45.3435
1057.62	43.4963
1059.27	42.6717
1060.91	40.8005
1062.56	39.2234
1064.2	37.4899
1065.85	37.2867
1067.49	36.7435
1069.13	36.5965
1070.77	37.3771
1072.42	37.5994
1074.06	39.2204
1075.7	40.4021
1077.34	41.1514
1078.98	41.23
1080.62	42.2186
1082.27	42.4281
1083.91	44.3037
1085.55	44.2307
1087.18	45.1521
1088.82	44.0842
1090.46	43.4913
1092.1	42.6213
1093.74	42.5488
1095.38	42.1192
1097.02	41.3203
1098.65	41.2813
1100.29	41.3533
1101.93	40.0099
1103.56	38.4331
1105.2	35.8171
1106.84	33.6012
1108.47	30.4364
1110.11	28.5997
1111.74	26.3782
1113.38	23.5281
1115.01	20.1005
1116.64	17.331
1118.28	15.0064
1119.91	12.5813
1121.54	10.2349
1123.18	7.92878
1124.81	6.44179
1126.44	4.96014
1128.07	4.23033
1129.7	1.89058
1131.33	1.47194
1132.97	1.37327
1134.6	1.37398
1136.23	0.985473
1137.86	1.82208
1139.49	0.842287
1141.11	1.6578
1142.74	1.16504
1144.37	1.85987
1146	3.71473
1147.63	4.5618
1149.26	3.67555
1150.88	3.77508
1152.51	4.11364
1154.14	4.14026
1155.76	4.18877
1157.39	4.05332
1159.01	4.13948
1160.64	4.10214
1162.27	4.58905
1163.89	4.41522
1165.51	3.55575
1167.14	2.84995
1168.76	3.57849
1170.39	3.2369
1172.01	4.04867
1173.63	4.65617
1175.25	6.2041
1176.88	5.92903
1178.5	4.92445
1180.12	4.90771
1181.74	4.73384
1183.36	4.19487
1184.98	3.8728
1186.6	3.9487
1188.22	4.02537
1189.84	4.72534
1191.46	5.08143
1193.08	4.36985
1194.7	4.11665
1196.32	3.71241
1197.94	4.46899
1199.55	4.48363
1201.17	5.02631
1202.79	4.72841
1204.41	5.97027
1206.02	6.87755
1207.64	7.21201
1209.25	8.22744
1210.87	8.97651
1212.48	9.97506
1214.1	10.1641
1215.71	10.6703
1217.33	11.1962
1218.94	11.6518
1220.56	11.3451
1222.17	13.4265
1223.79	14.0679
1225.4	14.6611
1227.01	14.5811
1228.62	14.0484
1230.23	14.5371
1231.85	15.6843
1233.46	15.1843
1235.07	15.4968
1236.68	15.4988
1238.29	15.5468
1239.9	15.8099
1241.51	16.149
1243.12	16.2916
1244.73	16.7674
1246.34	16.7564
1247.94	17.0264
1249.55	17.3911
1251.16	16.6366
1252.77	16.1166
1254.37	16.4137
1255.98	16.1809
1257.59	15.0712
1259.2	15.5704
1260.8	16.4208
1262.41	16.8798
1264.01	16.9857
1265.62	17.6328
1267.22	18.5311
1268.83	19.0962
1270.43	19.8375
1272.03	21.4747
1273.64	22.0095
1275.24	23.6976
1276.85	24.7059
1278.45	25.8037
1280.05	26.9149
1281.65	28.2986
1283.25	29.3447
1284.85	31.0392
1286.46	31.6978
1288.06	32.0401
1289.66	32.3756
1291.26	32.5524
1292.86	32.4614
1294.46	33.5031
1296.06	34.2175
1297.66	35.0201
1299.25	35.7039
1300.85	36.3585
1302.45	36.9812
1304.05	36.5436
1305.65	36.9046
1307.24	38.1717
1308.84	38.4025
1310.43	37.8716
1312.03	36.3078
1313.63	35.0403
1315.22	34.7161
1316.82	34.9177
1318.41	35.4612
1320.01	36.3398
1321.6	36.2762
1323.2	34.6744
1324.79	33.7535
1326.38	31.9131
1327.98	30.9397
1329.57	30.1705
1331.16	29.6588
1332.76	28.8446
1334.35	28.1274
1335.94	26.3224
1337.53	25.9259
1339.12	26.5152
1340.71	25.5068
1342.3	24.2658
1343.89	23.7802
1345.48	23.9189
1347.07	23.4034
1348.66	22.9792
1350.25	23.7269
1351.84	23.3531
1353.43	21.7821
1355.01	21.4126
1356.6	19.8534
1358.19	19.2236
1359.77	18.7499
1361.36	18.8043
1362.95	18.2453
1364.53	16.6607
1366.12	15.0343
1367.71	15.027
1369.29	14.169
1370.88	14.4553
1372.46	13.94
1374.04	13.5485
1375.63	12.5902
1377.21	12.8404
1378.8	12.613
1380.38	11.9061
1381.96	12.4609
1383.54	12.2557
1385.13	11.9416
1386.71	11.5538
1388.29	9.76696
1389.87	9.00707
1391.45	9.39155
1393.03	11.2043
1394.61	11.7193
1396.19	13.0062
1397.77	13.2892
1399.35	14.0087
1400.93	13.9514
1402.51	13.7568
1404.09	14.7056
1405.67	15.3401
1407.24	17.4137
1408.82	17.3777
1410.4	18.7901
1411.98	19.9885
1413.55	21.8706
1415.13	23.9236
1416.71	27.2476
1418.28	28.5494
1419.86	29.6671
1421.43	31.6797
1423.01	34.1688
1424.58	36.6387
1426.16	38.7037
1427.73	40.3523
1429.31	42.5984
1430.88	44.5974
1432.45	46.1271
1434.02	48.395
1435.6	50.6541
1437.17	52.6665
1438.74	53.3728
1440.31	53.6336
1441.88	53.6238
1443.45	53.5905
1445.03	54.1267
1446.6	54.7749
1448.17	54.3602
1449.74	54.3638
1451.3	53.3889
1452.87	52.7768
1454.44	51.9976
1456.01	50.7321
1457.58	49.8312
1459.15	48.7996
1460.72	47.9324
1462.28	46.4898
1463.85	45.7515
1465.42	45.1441
1466.98	44.1587
1468.55	43.5457
1470.12	41.9278
1471.68	40.4966
1473.25	38.1527
1474.81	36.9253
1476.38	34.9949
1477.94	33.3995
1479.51	31.2731
1481.07	29.9737
1482.63	29.0461
1484.2	28.0933
1485.76	26.9294
1487.32	25.5137
1488.88	25.0163
1490.45	24.1347
1492.01	22.9905
1493.57	21.9709
1495.13	21.1133
1496.69	19.6033
1498.25	19.6016
1499.81	19.244
1501.37	18.242
1502.93	16.9715
1504.49	16.0847
1506.05	15.0995
1507.61	14.9338
1509.17	13.6305
1510.73	11.6658
1512.28	11.1657
1513.84	9.5313
1515.4	7.18455
1516.96	5.84476
1518.51	5.06252
1520.07	4.83296
1521.63	3.78344
1523.18	2.48558
1524.74	2.68397
1526.29	2.29179
1527.85	1.58861
1529.4	1.55955
1530.96	1.33214
1532.51	1.51997
1534.06	1.80608
1535.62	3.75508
1537.17	4.95032
1538.72	5.7873
1540.28	7.06409
1541.83	8.36958
1543.38	8.67323
1544.93	8.01529
1546.48	8.20973
1548.03	8.46196
1549.59	10.0859
1551.14	11.2425
1552.69	12.6902
1554.24	13.1438
1555.79	13.8449
1557.34	15.5496
1558.88	16.9254
1560.43	17.4214
1561.98	18.3847
1563.53	19.2268
1565.08	20.2813
1566.62	21.4551
1568.17	22.2157
1569.72	23.1911
1571.27	24.3279
1572.81	25.3421
1574.36	26.6362
1575.9	27.2728
1577.45	27.6773
1579	27.9266
1580.54	28.5626
1582.09	29.51
1583.63	29.6906
1585.17	29.7264
1586.72	29.5703
1588.26	29.4847
1589.8	30.6741
1591.35	30.615
1592.89	30.7811
1594.43	31.7634
1595.97	32.4269
1597.52	32.7985
1599.06	32.8551
1600.6	32.7354
1602.14	34.1288
1603.68	32.7418
1605.22	32.6484
1606.76	32.8328
1608.3	32.4064
1609.84	33.5849
1611.38	33.5313
1612.92	33.3728
1614.46	32.1188
1615.99	31.8393
1617.53	31.952
1619.07	32.1829
1620.61	31.1647
1622.14	31.451
1623.68	32.4134
1625.22	31.8232
1626.75	31.1156
1628.29	29.8336
1629.82	29.5609
1631.36	29.4071
1632.9	28.8102
1634.43	29.9498
1635.96	29.9245
1637.5	29.675
1639.03	30.2607
1640.57	30.3638
1642.1	31.0396
1643.63	30.7314
1645.16	30.0049
1646.7	32.0223
1648.23	32.563
1649.76	32.8324
1651.29	33.0002
1652.82	32.9668
1654.36	33.4712
1655.89	34.1879
1657.42	33.4122
1658.95	33.5746
1660.48	32.8877
1662.01	32.9505
1663.53	32.9464
1665.06	33.3364
1666.59	33.5155
1668.12	33.0118
1669.65	33.162
1671.18	33.355
1672.7	32.4492
1674.23	30.9324
1675.76	30.5294
1677.29	29.6021
1678.81	28.5724
1680.34	26.8129
1681.86	26.0073
1683.39	25.5641
1684.91	24.1868
1686.44	23.9204
1687.96	21.6836
1689.49	20.6078
1691.01	19.3322
1692.54	19.1271
1694.06	17.9728
1695.58	17.3165
1697.11	15.3942
1698.63	14.7404
1700.15	12.5042
1701.67	10.8157
1703.2	10.1554
1704.72	9.66044
1706.24	9.78603
1707.76	8.85039
1709.28	7.68737
1710.8	7.56026
1712.32	5.99805
1713.84	5.65556
1715.36	5.14841
1716.88	4.63627
1718.4	5.14429
1719.91	4.25683
1721.43	4.68863
1722.95	4.60486
1724.47	3.55193
1725.99	2.65377
1727.5	2.28545
1729.02	2.61087
1730.54	2.83149
1732.05	2.88297
1733.57	2.66206
1735.09	3.70793
1736.6	2.63434
1738.12	3.41057
1739.63	3.04967
1741.15	3.69611
1742.66	3.70414
1744.18	3.23863
1745.69	3.22462
1747.2	3.31936
1748.72	2.91885
1750.23	3.5391
1751.74	4.52282
1753.25	4.13004
1754.77	4.12712
1756.28	4.44025
1757.79	4.95189
1759.3	5.73336
1760.81	5.39315
1762.32	5.04969
1763.83	4.73883
1765.34	4.74729
1766.85	4.50747
1768.36	5.28031
1769.87	4.71419
1771.38	4.60162
1772.89	4.30202
1774.4	4.27987
1775.91	3.77783
1777.41	3.58208
1778.92	3.62936
1780.43	4.27344
1781.94	4.43629
1783.44	4.61325
1784.95	4.68719
1786.45	4.53931
1787.96	4.07229
1789.47	4.10949
1790.97	3.5957
1792.48	3.79938
1793.98	4.25759
1795.48	3.48344
1796.99	2.71045
1798.49	2.3527
1800	2.20586
1801.5	1.91752
1803	2.54053
1804.51	2.73033
1806.01	2.70663
1807.51	2.21708
1809.01	1.87439
1810.51	1.11775
1812.02	0.317739
1813.52	0.707799
1815.02	0.427717
1816.52	1.49571
1818.02	1.40563
1819.52	1.33912
1821.02	1.88264
1822.52	1.9751
1824.02	1.64634
1825.51	1.56135
1827.01	1.04603
1828.51	0.761402
1830.01	0.970369
1831.51	1.51993
1833	1.66481
1834.5	1.61864
1836	0.910206
1837.5	0.334475
1838.99	0.786337
1840.49	0.802373
1841.98	1.2992
1843.48	1.54151
1844.97	1.20742
1846.47	1.60737
1847.96	1.34228
1849.46	1.59751
1850.95	1.73497
1852.45	2.67844
1853.94	3.78454
1855.43	4.63968
1856.92	3.934
1858.42	3.89618
1859.91	4.16904
1861.4	4.16889
1862.89	4.32549
1864.39	4.95269
1865.88	5.66307
1867.37	5.84535
1868.86	5.82597
1870.35	4.95288
1871.84	4.38054
1873.33	4.68441
1874.82	4.76304
1876.31	4.61628
1877.8	5.05333
1879.29	5.03649
1880.77	4.95959
1882.26	5.02592
1882.51	4.47423
1884	4.6769
1885.5	5.3081
1886.99	5.9223
1888.48	6.39346
1889.98	7.02336
1891.47	6.36078
1892.97	6.64842
1894.46	6.23071
1895.95	6.90991
1897.44	6.39858
1898.93	6.68878
1900.42	7.42806
1901.92	8.47657
1903.41	9.58535
1904.9	9.09001
1906.39	8.22943
1907.88	8.65762
1909.37	9.20771
1910.86	9.30164
1912.35	9.79697
1913.84	9.41391
1915.32	9.4798
1916.81	9.5026
1918.3	9.26319
1919.79	9.56024
1921.28	9.49653
1922.76	10.2169
1924.25	10.3682
1925.74	11.2627
1927.22	10.4032
1928.71	9.75259
1930.2	9.05826
1931.68	8.61428
1933.17	9.01668
1934.65	8.30354
1936.14	8.48275
1937.62	8.01294
1939.11	7.07161
1940.59	6.37156
1942.08	5.68005
1943.56	5.58657
1945.04	4.86005
1946.53	5.09766
1948.01	5.20667
1949.49	4.78166
1950.97	4.70795
1952.45	4.1688
1953.94	3.87455
1955.42	3.36053
1956.9	2.79909
1958.38	3.67134
1959.86	3.55274
1961.34	3.36428
1962.82	3.64457
1964.3	4.72873
1965.78	5.03278
1967.26	5.34314
1968.74	5.86518
1970.22	6.45052
1971.69	6.1568
1973.17	7.38076
1974.65	8.24453
1976.13	8.87232
1977.61	9.13116
1979.08	8.80218
1980.56	9.66468
1982.03	10.6007
1983.51	10.4523
1984.99	9.26139
1986.46	9.02774
1987.94	8.55302
1989.41	8.66085
1990.89	9.23983
1992.36	9.22794
1993.84	10.439
1995.31	10.5532
1996.78	10.6133
1998.26	10.3236
1999.73	10.347
2001.2	9.70471
2002.68	9.87572
2004.15	9.52842
2005.62	9.66182
2007.09	10.0723
2008.56	9.96629
2010.04	9.71375
2011.51	8.9919
2012.98	8.75833
2014.45	9.41665
2015.92	9.07133
2017.39	8.77599
2018.86	8.07577
2020.33	8.55839
2021.8	9.01253
2023.27	8.79456
2024.74	8.22158
2026.2	8.3945
2027.67	8.30042
2029.14	8.28754
2030.61	9.38248
2032.07	10.1504
2033.54	10.2528
2035.01	11.207
2036.47	12.7712
2037.94	13.1035
2039.41	12.8368
2040.87	12.8344
2042.34	13.5289
2043.8	13.8063
2045.27	14.354
2046.73	15.8677
2048.2	16.5211
2049.66	17.2852
2051.12	17.9276
2052.59	18.0612
2054.05	18.7421
2055.51	18.3945
2056.98	18.7812
2058.44	18.9989
2059.9	19.2119
2061.36	20.2301
2062.82	21.6077
2064.29	23.0329
2065.75	23.5834
2067.21	24.5892
2068.67	24.9358
2070.13	24.8401
2071.59	25.2514
2073.05	26.6837
2074.51	26.7365
2075.97	27.5017
2077.43	27.5133
2078.88	28.3666
2080.34	28.3825
2081.8	28.5901
2083.26	28.2251
2084.72	28.1301
2086.17	28.187
2087.63	28.6811
2089.09	29.1949
2090.54	29.0789
2092	30.2662
2093.46	31.3055
2094.91	31.8551
2096.37	32.0107
2097.82	31.9957
2099.28	33.1185
2100.73	34.0895
2102.19	35.3022
2103.64	36.2486
2105.09	36.984
2106.55	36.8462
2108	37.1886
2109.46	38.0005
2110.91	37.7383
2112.36	38.7278
2113.81	39.7235
2115.27	40.9653
2116.72	42.0961
2118.17	43.7041
2119.62	45.2683
2121.07	46.7249
2122.52	48.1176
2123.97	49.2091
2125.42	50.1891
2126.87	51.812
2128.32	52.5985
2129.77	54.5493
2131.22	56.4607
2132.67	58.5526
2134.12	61.3983
2135.57	62.8866
2137.01	64.7563
2138.46	66.428
2139.91	68.1334
2141.36	69.9282
2142.8	70.4083
2144.25	72.3874
2145.7	74.0002
2147.14	74.5751
2148.59	75.7168
2150.03	75.9412
2151.48	77.0838
2152.92	78.2476
2154.37	79.2978
2155.81	80.4855
2157.26	81.1617
2158.7	82.2876
2160.15	83.5911
2161.59	84.5174
2163.03	84.9629
2164.48	86.9212
2165.92	86.9578
2167.36	86.5378
2168.8	86.458
2170.25	85.9403
2171.69	86.0585
2173.13	85.9759
2174.57	85.2192
2176.01	84.8587
2177.45	83.462
2178.89	81.9276
2180.33	81.2384
2181.77	80.8118
2183.21	79.5066
2184.65	79.2787
2186.09	78.0097
2187.53	76.5748
2188.97	76.4152
2190.41	75.4516
2191.84	74.5464
2193.28	74.3999
2194.72	73.3386
2196.16	72.0669
2197.59	70.9577
2199.03	69.9431
2200.47	69.2163
2201.9	68.0266
2203.34	67.392
2204.78	65.3656
2206.21	63.3966
2207.65	61.3369
2209.08	60.6442
2210.51	58.6067
2211.95	56.5953
2213.38	54.7338
2214.82	52.7442
2216.25	51.2549
2217.68	49.3787
2219.12	47.4818
2220.55	45.304
2221.98	44.1463
2223.42	42.8784
2224.85	41.7205
2226.28	39.9746
2227.71	38.7421
2229.14	36.9252
2230.57	36.441
2232	35.9274
2233.43	35.1831
2234.86	33.7039
2236.29	31.5141
2237.72	29.2572
2239.15	28.7784
2240.58	27.8149
2242.01	26.8228
2243.44	26.1143
2244.87	25.1684
2246.3	23.2707
2247.73	23.2432
2249.15	22.1385
2250.58	21.7486
2252.01	21.1661
2253.43	20.6821
2254.86	20.3252
2256.29	20.8178
2257.71	20.4733
2259.14	21.0458
2260.56	21.5133
2261.99	20.4762
2263.41	20.8691
2264.84	21.0349
2266.26	20.7612
2267.69	20.8257
2269.11	20.5169
2270.54	19.8042
2271.96	20.3826
2273.38	19.5198
2274.81	19.8982
2276.23	18.9724
2277.65	19.1844
2279.07	18.7539
2280.49	18.6602
2281.92	17.512
2283.34	16.9813
2284.76	16.8141
2286.18	16.0744
2287.6	15.414
2289.02	15.0029
2290.44	13.5783
2291.86	13.0085
2293.28	12.373
2294.7	11.8915
2296.12	12.4962
2297.54	12.4933
2298.96	12.875
2300.38	12.4855
2301.79	12.7588
2303.21	12.4783
2304.63	12.2362
2306.05	11.4981
2307.46	10.3991
2308.88	11.1223
2310.3	11.741
2311.71	10.6606
2313.13	10.8799
2314.55	12.0894
2315.96	11.8035
2317.38	12.1089
2318.79	13.0539
2320.21	13.1114
2321.62	13.5444
2323.03	13.7609
2324.45	14.3003
2325.86	14.8406
2327.27	14.8788
2328.69	14.133
2330.1	14.2266
2331.51	14.2441
2332.93	14.4359
2334.34	14.82
2335.75	15.518
2337.16	15.5054
2338.57	15.7481
2339.99	15.0617
2341.4	15.3066
2342.81	15.6365
2344.22	15.0048
2345.63	14.2968
2347.04	13.3898
2348.45	12.5704
2349.86	10.9729
2351.26	10.4592
2352.67	9.94839
2354.08	8.91731
2355.49	7.92606
2356.9	6.85154
2358.31	6.35397
2359.71	5.62795
2361.12	4.32246
2362.53	4.74526
2363.94	3.96434
2365.34	4.29769
2366.75	4.32482
2368.15	4.18943
2369.56	3.57267
2370.97	2.47768
2372.37	2.80474
2373.78	2.34267
2375.18	0.940916
2376.59	-0.0395005
2377.99	-0.127129
2379.39	0.311599
2380.8	0.775938
2382.2	0.923501
2383.61	2.30137
2385.01	2.63717
2386.41	1.52355
2387.81	1.54899
2389.22	1.59194
2390.62	1.56579
2392.02	0.973828
2393.42	0.330162
2394.82	0.322077
2396.22	0.632698
2397.63	0.295508
2399.02	-0.286404
2400.43	0.542193
2401.82	1.06776
2403.23	1.25777
2404.62	1.29478
2406.02	2.43081
2407.42	2.40217
2408.82	2.94831
2410.22	2.9177
2411.62	3.19435
2413.02	3.15825
2414.41	3.64984
2415.81	3.89891
2417.21	4.2486
2418.61	4.01634
2420	4.4248
2421.4	4.65571
2422.79	5.41655
2424.19	4.95406
2425.59	5.70877
2426.98	6.07995
2428.38	6.13716
2429.77	6.24452
2431.17	6.06403
2432.56	6.04885
2433.96	6.125
2435.35	6.76388
2436.74	7.07293
2438.14	7.21773
2439.53	7.37023
2440.92	7.28787
2442.32	7.62632
2443.71	6.95451
2445.1	7.01242
2446.49	7.90323
2447.88	7.74248
2449.28	7.30012
2450.67	7.96837
2452.06	7.89629
2453.45	7.46166
2454.84	6.81272
2456.23	6.73462
2457.62	6.54991
2459.01	7.04631
2460.4	6.39872
2461.79	5.63401
2463.18	5.75119
2464.57	5.35945
2465.96	5.10842
2467.34	4.05021
2468.73	3.54305
2470.12	3.74814
2471.51	3.75878
2472.89	4.10524
2474.28	4.53725
2475.67	5.40695
2477.05	5.35893
2478.44	5.44209
2479.83	5.11128
2481.21	5.09694
2482.6	4.85104
2483.98	4.66167
2485.37	4.38607
2486.75	3.84579
2488.14	4.04545
2489.52	4.1465
2490.9	4.03684
2492.29	5.02594
2493.67	5.25025
2495.06	6.36611
2496.44	6.27184
2497.82	6.03651
2499.2	6.09052
2500.59	6.38084
2501.97	6.43668
2503.35	7.53196
2504.73	7.72313
2506.11	7.54828
2507.49	7.56583
2508.88	7.41949
2510.26	6.68575
2511.63	6.90322
2513.01	6.79134
2514.39	6.63655
2515.77	6.25427
2517.15	5.70588
2518.53	5.88522
2519.91	5.76332
2521.29	5.90964
2522.67	5.73246
2524.05	6.05365
2525.42	6.38873
2526.8	6.04939
2528.18	6.11823
2529.56	5.3839
2530.93	5.40587
2532.31	4.87873
2533.69	4.48926
2535.06	4.8861
2536.44	5.03507
2537.81	4.95776
2539.19	4.9428
2540.56	5.64333
2541.94	5.71494
2543.31	4.87602
2544.69	3.85661
2546.06	3.10517
2547.44	2.57679
2548.81	2.43992
2550.18	3.0296
2551.56	2.8299
2552.93	3.06026
2554.3	3.34505
2555.68	3.51402
2557.05	4.55967
2558.42	3.72308
2559.79	4.17072
2561.16	4.42
2562.53	4.57256
2563.9	4.35935
2565.28	4.18335
2566.64	3.86375
2568.02	4.11241
2569.38	4.44764
2570.76	4.15578
2572.12	4.89703
2573.49	5.24408
2574.86	5.1017
2576.23	5.34189
2577.6	5.27971
2578.97	5.48077
2580.34	5.33043
2581.7	5.49304
2583.07	5.48642
2584.44	6.20573
2585.81	6.28523
2587.17	6.74138
2588.54	6.61548
2589.91	7.21681
2591.27	7.18592
2592.64	7.40007
2594	7.48153
2595.37	7.11339
2596.73	6.66994
2598.1	6.05803
2599.46	5.73708
2600.83	4.80706
2602.19	5.18389
2603.55	4.82404
2604.92	4.26837
2606.28	3.55498
2607.64	3.51617
2609.01	3.50517
2610.37	2.67619
2611.73	2.4205
2613.09	2.73303
2614.46	3.31804
2615.82	3.71867
2617.18	3.38847
2618.54	3.20594
2619.9	2.83004
2621.26	2.68331
2622.62	2.78419
2623.98	3.04541
2625.34	3.89332
2626.7	3.24876
2628.06	4.28439
2629.42	3.95638
2630.78	4.27318
2632.14	4.3595
2633.5	4.82648
2634.86	4.60491
2636.22	4.86524
2637.57	5.61262
2638.93	6.2663
2640.29	6.83919
2641.64	7.11927
2643	6.73524
2644.36	6.77789
2645.72	7.0982
2647.07	7.9643
2648.43	7.76072
2649.78	7.89749
2651.14	8.07401
2652.49	8.03161
2653.85	7.43409
2655.2	7.63018
2656.56	7.55996
2657.91	8.02821
2659.27	7.32523
2660.62	6.83454
2661.97	6.72678
2663.33	6.60222
2664.68	6.40997
2666.03	6.33968
2667.38	6.1798
2668.74	5.54621
2670.09	5.63764
2671.44	5.4832
2672.79	5.27282
2674.14	5.34468
2675.49	5.2929
2676.84	5.60253
2678.2	5.22168
2679.55	5.74938
2680.89	5.55889
2682.24	5.72863
2683.59	5.58203
2684.94	5.52964
2686.29	6.17577
2687.64	5.95169
2688.99	6.2008
2690.34	6.49541
2691.69	6.69783
2693.04	6.53587
2694.38	6.21515
2695.73	6.06926
2697.08	5.5059
2698.43	6.11986
2699.77	6.48193
2701.12	6.25538
2702.46	6.17855
2703.81	6.54944
2705.16	6.87557
2706.5	6.7287
2707.85	6.69393
2709.19	6.84187
2710.54	6.87013
2711.88	6.9471
2713.23	7.74662
2714.57	7.51496
2715.92	7.58461
2717.26	8.15494
2718.6	8.87314
2719.95	8.8436
2721.29	8.90219
2722.63	8.71734
2723.97	8.14643
2725.32	7.74608
2726.66	7.01998
2728	7.33063
2729.34	7.24513
2730.68	6.73435
2732.02	6.26096
2733.36	5.95657
2734.7	5.38494
2736.04	5.35038
2737.39	5.12949
2738.72	5.04499
2740.06	5.29409
2741.4	6.03335
2742.74	6.43449
2744.08	6.51639
2745.42	5.61165
2746.76	6.08184
2748.1	5.90664
2749.44	5.54593
2750.77	4.94342
2752.11	4.93196
2753.45	4.78352
2754.78	4.30465
2756.12	4.7939
2757.46	4.26231
2758.79	4.21409
2760.13	3.703
2761.47	3.79953
2762.8	3.60494
2764.14	3.37602
2765.47	3.30953
2766.81	2.99057
2768.14	2.45154
2769.48	2.67621
2770.81	3.11647
2772.14	3.07241
2773.48	3.34861
2774.81	3.10463
2776.14	2.61164
2777.48	2.75138
2778.81	2.80927
2780.14	2.91053
2781.47	2.54863
2782.81	2.68369
2784.14	2.43448
2785.47	1.53455
2786.8	1.14388
2788.13	0.028739
2789.46	-0.158872
2790.79	0.149081
2792.12	0.518854
2793.46	0.237094
2794.79	0.210678
2796.11	0.00572652
2797.44	0.0673073
2798.77	0.322124
2800.1	0.514117
2801.43	-0.180383
2802.76	0.166079
2804.09	0.0716317
2805.42	0.163885
2806.74	0.46293
2808.07	0.267435
2809.4	-0.0974087
2810.73	-0.700359
2812.05	-0.659358
2813.38	-0.113762
2814.71	0.433909
2816.03	0.941156
2817.36	2.06095
2818.68	2.65758
2820.01	2.93812
2821.33	3.56057
2822.66	4.66876
2823.98	6.04251
2825.31	7.31342
2826.63	8.8056
2827.96	10.8656
2829.28	12.5563
2830.61	13.808
2831.93	15.8424
2833.25	18.0175
2834.57	19.7146
2835.9	21.6908
2837.22	24.0041
2838.54	26.0026
2839.86	28.0911
2841.18	30.5255
2842.51	33.851
2843.83	36.6859
2845.15	39.2271
2846.47	41.2388
2847.79	44.4507
2849.11	46.444
2850.43	49.5589
2851.75	51.8388
2853.07	55.1532
2854.39	57.4376
2855.71	60.5975
2857.03	63.2681
2858.35	65.434
2859.67	67.7035
2860.98	70.1678
2862.3	72.7561
2863.62	74.5025
2864.94	76.3754
2866.25	78.6771
2867.57	80.2938
2868.89	82.7114
2870.21	84.2948
2871.52	85.4464
2872.84	87.2078
2874.15	88.2046
2875.47	89.2273
2876.78	90.5567
2878.1	91.7477
2879.42	92.6864
2880.73	94.3249
2882.04	94.8905
2883.36	96.3465
2884.67	96.971
2885.99	98.6711
2887.3	100.485
2888.61	101.535
2889.93	102.749
2891.24	103.369
2892.55	105.15
2893.87	107.464
2895.18	109.275
2896.49	111.166
2897.8	112.973
2899.11	114.755
2900.42	117.434
2901.74	120.785
2903.05	124.516
2904.36	128.347
2905.67	131.819
2906.98	136.015
2908.29	139.112
2909.6	142.307
2910.91	145.998
2912.22	149.495
2913.53	154.13
2914.83	158.082
2916.14	162.858
2917.45	167.066
2918.76	170.848
2920.07	174.581
2921.37	178.647
2922.68	181.971
2923.99	185.087
2925.3	188.218
2926.6	190.338
2927.91	192.953
2929.22	194.602
2930.52	196.494
2931.83	198.112
2933.13	198.433
2934.44	198.289
2935.74	198.323
2937.05	197.756
2938.35	196.619
2939.66	194.339
2940.96	192.981
2942.27	191.06
2943.57	187.63
2944.87	184.925
2946.18	181.896
2947.48	178.528
2948.78	175.305
2950.09	170.367
2951.39	166.836
2952.69	162.894
2953.99	158.766
2955.29	155.953
2956.6	151.98
2957.9	149.131
2959.2	145.594
2960.5	140.85
2961.8	136.335
2963.1	132.314
2964.4	129.134
2965.7	125.952
2967	122.328
2968.3	118.894
2969.6	115.379
2970.9	111.137
2972.2	107.429
2973.49	104.131
2974.79	101.534
2976.09	97.9629
2977.39	95.3299
2978.69	92.766
2979.98	89.5286
2981.28	86.5123
2982.58	83.4876
2983.88	79.9957
2985.17	77.4267
2986.47	74.1378
2987.76	70.8769
2989.06	68.3511
2990.36	65.4961
2991.65	63.1186
2992.95	61.0319
2994.24	57.7859
2995.54	55.1442
2996.83	51.8081
2998.12	49.1008
2999.42	46.1936
3000.71	43.4039
3002	40.9767
3003.3	37.7158
3004.59	35.0578
3005.88	32.9928
3007.18	30.6394
3008.47	27.9508
3009.76	26.6109
3011.05	24.5856
3012.35	23.0193
3013.64	21.1386
3014.93	19.4937
3016.22	18.8573
3017.51	17.3094
3018.8	15.7843
3020.09	14.4239
3021.38	12.6352
3022.67	11.545
3023.96	10.2226
3025.25	9.07976
3026.54	8.19025
3027.83	7.08318
3029.12	6.09442
3030.41	5.03438
3031.69	3.99441
3032.98	3.51202
3034.27	3.04578
3035.56	2.41474
3036.85	2.17778
3038.13	2.53209
3039.42	1.70295
3040.71	1.02056
3041.99	1.53497
3043.28	1.06961
3044.57	1.61768
3045.85	2.01394
3047.14	2.38844
3048.42	2.54511
3049.71	2.97754
3050.99	3.62122
3052.28	4.45988
3053.56	4.62708
3054.85	4.83996
3056.13	5.44097
3057.42	5.09509
3058.7	4.74576
3059.98	5.09863
3061.27	4.75201
3062.55	5.64352
3063.83	5.75336
3065.11	5.97303
3066.4	6.62589
3067.68	5.86838
3068.96	5.82771
3070.24	6.07528
3071.52	6.17749
3072.8	5.50329
3074.09	5.79723
3075.37	5.77955
3076.65	6.23759
3077.93	6.09952
3079.21	6.25295
3080.49	6.12403
3081.77	5.82149
3083.05	5.91055
3084.32	5.79534
3085.61	5.6478
3086.88	5.05439
3088.16	4.54577
3089.44	4.14353
3090.72	3.55799
3092	3.10276
3093.27	3.03182
3094.55	2.83723
3095.83	3.11053
3097.11	3.478
3098.38	3.53432
3099.66	3.85669
3100.94	3.45201
3102.21	3.95757
3103.49	4.03163
3104.76	4.88378
3106.04	5.56738
3107.31	5.746
3108.59	6.43874
3109.86	6.22732
3111.14	6.72168
3112.41	6.92524
3113.69	7.52847
3114.96	7.90884
3116.23	8.17138
3117.51	8.49793
3118.78	9.08273
3120.05	9.4615
3121.33	9.63857
3122.6	10.1799
3123.87	11.1362
3125.14	11.7005
3126.42	12.7359
3127.69	13.1029
3128.96	13.7524
3130.23	14.265
3131.5	14.9647
3132.77	16.2449
3134.04	17.751
3135.31	18.7651
3136.58	20.1415
3137.85	21.8716
3139.12	22.9424
3140.39	23.6065
3141.66	23.981
3142.93	24.7394
3144.2	25.3175
3145.47	25.9656
3146.74	26.7644
3148	28.2982
3149.27	30.1134
