#Acq. time (s)=	45
#Accumulations=	2
#Range (cm-¹)=	200...3150
#Windows=	2
#Auto scanning=	Off
#Autofocus=	Off
#Macrospot=	Off
#AutoExposure=	Off
#Spike filter=	Multiple accum.
#Delay time (s)=	0
#Binning=	1
#Readout mode=	Signal
#DeNoise=	Off
#ICS correction=	On
#Dark correction=	Off
#Inst. Process=	Off
#Detector Gain=	Best Dynamic Range
#Detector ADC=	20 kHz       
#Detector temperature (°C)=	-69.85
#Instrument=	LabRAM HR Evol
#Detector=	Synapse
#Objective=	x100
#Grating=	600 gr/mm
#ND Filter=	100%
#Laser (nm)=	532 
#Hole=	100.021
#Range=	Auto
#Laser Pol.=	No
#Raman. Pol.=	No
#Laser Pol. (°)=	-0.0007625
#Raman Pol. (°)=	89.9995
#Collection=	Microscope
#StageXY=	Marzhauser
#StageZ=	Marzhauser
#X (µm)=	28317.4
#Y (µm)=	-3288.5
#Z (µm)=	1040.95
#Full time(mm:ss)=	3:19
#Project=	
#Sample=	
#Site=	
#Title=	Mb_50_18_27_2x_45s_532 nm_x100_100%_600 gr_mm
#Remark=	
#Date=	12.07.2022 12:51
#Acquired=	12.07.2022 12:51:29
#Base:Fit=	10.08.2022 10:49:18
#Base:Sub=	10.08.2022 10:49:30
#Filter:Polynom=	16.08.2022 10:14:59
#AxisType[0]=Intens
#AxisUnit[0]=Cnt
#AxisType[1]=Spectr
#AxisUnit[1]=1/cm
200.388	64.7043
202.204	61.641
204.019	59.2746
205.832	57.4136
207.646	55.4526
209.459	54.134
211.274	52.76
213.087	50.5579
214.899	47.9583
216.711	45.791
218.524	42.7252
220.335	39.9713
222.146	36.7684
223.956	34.8559
225.766	32.9871
227.576	31.0917
229.388	29.2064
231.197	28.8582
233.005	26.9433
234.813	25.4769
236.621	25.7181
238.429	25.0324
240.236	23.5308
242.045	21.9646
243.852	21.437
245.658	21.996
247.464	21.5562
249.269	20.6903
251.074	18.915
252.879	18.089
254.683	17.1102
256.487	16.8595
258.291	17.0195
260.094	16.3276
261.897	14.1568
263.702	12.3849
265.504	11.8724
267.306	11.1743
269.108	10.3011
270.909	10.0015
272.71	9.49105
274.511	9.63
276.311	9.08595
278.111	8.95144
279.91	9.19621
281.709	8.07708
283.508	7.35635
285.306	8.01103
287.105	7.46475
288.9	9.37639
290.698	10.4402
292.495	11.8406
294.291	13.3943
296.088	14.9725
297.884	16.7086
299.679	17.4713
301.475	17.6049
303.27	18.2757
305.064	20.3221
306.858	21.3518
308.652	21.4112
310.444	22.9812
312.237	24.7664
314.03	27.1409
315.822	28.6949
317.615	29.1262
319.406	30.3059
321.198	32.2356
322.987	33.3469
324.778	34.3996
326.568	35.6539
328.358	35.0627
330.148	34.6928
331.935	33.7985
333.724	33.4639
335.513	32.764
337.301	30.2647
339.089	28.0573
340.875	25.8492
342.662	24.8718
344.449	24.4704
346.236	24.6612
348.02	25.9243
349.806	26.7097
351.592	28.1588
353.375	31.5785
355.16	34.9214
356.944	37.0475
358.728	40.0002
360.51	43.2854
362.294	47.6421
364.077	50.8439
365.858	54.1414
367.64	59.2256
369.422	64.3604
371.202	67.8639
372.983	72.1471
374.764	76.528
376.543	79.2972
378.324	83.5356
380.102	84.2812
381.881	86.6606
383.661	88.7271
385.438	89.5893
387.216	90.6115
388.993	90.2697
390.771	90.7602
392.548	90.4305
394.324	90.3306
396.101	89.0208
397.875	86.7455
399.651	85.0811
401.425	82.8849
403.201	79.8306
404.974	77.4695
406.749	72.9126
408.524	69.7823
410.296	65.4298
412.07	59.9959
413.841	54.2552
415.614	48.5807
417.385	42.1295
419.156	36.0802
420.928	30.0075
422.698	25.4252
424.469	20.8284
426.238	15.9294
428.009	12.2444
429.777	8.54866
431.548	6.13041
433.315	4.35539
435.083	3.15961
436.852	2.69203
438.618	1.21305
440.387	0.633688
442.153	0.0661157
443.919	0.677755
445.686	0.797989
447.451	1.59229
449.218	1.52771
450.982	2.7051
452.746	2.53071
454.512	4.30787
456.275	5.08983
458.038	3.6757
459.803	2.93507
461.565	4.02511
463.327	4.3448
465.091	4.75489
466.852	5.50051
468.613	5.60769
470.374	7.97185
472.136	8.13781
473.896	9.12491
475.655	11.0474
477.415	13.0031
479.176	16.8722
480.934	19.9798
482.692	24.7835
484.45	27.2107
486.21	31.2217
487.967	36.9017
489.724	42.3322
491.481	47.4983
493.237	53.0218
494.995	56.6658
496.75	61.9201
498.506	65.7677
500.26	70.303
502.015	74.6013
503.771	78.0434
505.525	80.9176
507.279	84.5109
509.032	87.3544
510.785	90.0788
512.537	91.3535
514.289	92.945
516.041	93.8499
517.793	93.9952
519.546	94.9443
521.297	95.1902
523.047	94.797
524.797	93.8169
526.547	92.3948
528.297	90.7297
530.046	89.1898
531.795	87.1986
533.543	83.5863
535.291	80.4005
537.039	75.8032
538.787	71.7336
540.534	67.6665
542.281	62.915
544.027	58.646
545.773	52.8161
547.519	48.4626
549.264	42.7458
551.01	36.3554
552.754	31.5505
554.499	26.1734
556.243	22.6272
557.987	18.1677
559.73	13.305
561.474	10.479
563.216	9.2092
564.959	7.74541
566.701	7.16333
568.441	5.74761
570.182	7.36013
571.923	6.50953
573.664	8.34994
575.405	8.36013
577.145	8.525
578.885	9.34525
580.624	10.1149
582.361	10.2663
584.1	10.9713
585.839	11.1786
587.577	12.2379
589.315	12.5816
591.052	12.8701
592.787	13.9943
594.524	16.8447
596.26	18.5473
597.997	19.238
599.732	20.6763
601.466	23.0125
603.201	25.1548
604.936	26.7608
606.67	28.0027
608.403	29.3589
610.136	29.17
611.87	30.4729
613.603	31.2569
615.334	31.6648
617.067	32.4464
618.799	32.4678
620.529	32.2096
622.26	31.8814
623.991	30.9624
625.72	30.6479
627.451	30.2774
629.181	28.534
630.909	27.6508
632.638	26.0662
634.368	24.7528
636.095	23.8419
637.823	23.0429
639.551	22.0498
641.277	20.3197
643.005	18.6873
644.73	16.9832
646.457	16.8394
648.184	16.9488
649.908	15.9333
651.634	15.6587
653.357	14.9198
655.083	13.8488
656.806	14.1112
658.53	11.8826
660.253	10.9725
661.977	9.5047
663.7	8.18412
665.422	6.15169
667.145	4.99962
668.865	3.61213
670.588	3.28459
672.308	2.03227
674.027	2.62664
675.749	3.14614
677.468	3.54354
679.188	5.85188
680.907	6.36353
682.627	6.54606
684.345	5.91356
686.064	7.10819
687.781	7.20344
689.498	6.98358
691.216	6.6532
692.932	7.60614
694.65	8.48707
696.366	8.1819
698.081	9.41434
699.797	9.55345
701.512	10.4692
703.228	10.678
704.942	11.0612
706.655	11.3704
708.371	12.9954
710.083	13.7681
711.796	13.7523
713.51	13.8129
715.222	13.6519
716.934	13.9949
718.645	14.0465
720.358	13.7637
722.068	13.0326
723.779	12.554
725.49	12.5383
727.2	12.7397
728.909	13.1438
730.618	14.5638
732.329	16.1981
734.037	17.0939
735.745	19.7373
737.453	25.1743
739.16	30.1398
740.869	37.6088
742.576	46.5908
744.282	54.7681
745.988	63.3596
747.694	71.5272
749.401	80.2678
751.107	88.6563
752.811	98.9524
754.516	108.516
756.22	117.405
757.924	125.012
759.627	133.089
761.332	139.277
763.035	145.981
764.738	152.032
766.44	155.793
768.142	159.808
769.843	162.386
771.544	165.781
773.245	167.719
774.946	169.348
776.646	170.631
778.346	171.107
780.046	169.546
781.745	167.76
783.444	164.902
785.143	162.049
786.841	157.888
788.539	154.295
790.237	150.192
791.934	144.445
793.631	138.374
795.328	131.286
797.024	124.075
798.72	116.772
800.416	108.718
802.112	101.238
803.807	93.4047
805.502	86.068
807.196	77.4717
808.89	71.0986
810.584	64.4134
812.278	59.0782
813.971	54.3583
815.664	51.1779
817.354	48.6385
819.047	45.6221
820.739	45.4476
822.43	44.9963
824.122	45.0112
825.813	44.9293
827.503	44.1279
829.192	42.9727
830.882	42.0562
832.571	41.1291
834.261	41.1488
835.95	39.7269
837.637	39.6103
839.325	39.0486
841.013	37.3916
842.701	37.3212
844.389	36.3238
846.074	36.7111
847.761	36.2372
849.447	35.1106
851.131	34.0108
852.817	32.6329
854.503	31.7576
856.188	31.1492
857.871	30.0675
859.556	29.6787
861.24	28.443
862.922	27.4402
864.606	25.6002
866.289	25.3189
867.97	23.5996
869.653	24.0358
871.336	23.1822
873.016	23.1646
874.698	22.6369
876.379	22.0498
878.058	21.2809
879.739	21.0827
881.418	19.7353
883.098	19.8913
884.778	19.7947
886.456	20.023
888.135	19.1885
889.812	18.7942
891.49	18.3455
893.167	17.4679
894.845	17.8771
896.523	17.2617
898.198	16.5688
899.875	15.7175
901.55	14.9015
903.226	14.311
904.901	14.761
906.576	13.9182
908.25	14.5732
909.925	13.7729
911.598	13.9414
913.271	13.581
914.945	13.5023
916.617	14.0944
918.291	14.9282
919.962	14.7906
921.635	16.1762
923.306	16.6743
924.978	16.2667
926.648	17.3538
928.318	17.1457
929.989	18.166
931.659	17.9616
933.328	18.192
934.998	17.811
936.666	18.2792
938.336	18.6652
940.004	18.2036
941.671	16.8823
943.34	15.9741
945.007	14.5507
946.673	14.08
948.339	13.5244
950.007	12.9501
951.672	10.7755
953.337	10.4455
955.004	8.56935
956.669	7.55076
958.333	6.15416
959.997	3.22074
961.662	0.520608
963.326	-0.31516
964.989	-2.76178
966.651	-3.61324
968.315	-4.09189
969.977	-3.30249
971.639	-1.56571
973.301	1.18564
974.962	4.55317
976.624	8.55006
978.285	13.4039
979.945	17.3369
981.605	23.2712
983.264	28.5631
984.924	33.4294
986.583	37.7523
988.243	41.6336
989.901	46.9669
991.56	51.8611
993.217	55.7357
994.875	60.8871
996.532	67.1683
998.188	74.8604
999.845	82.5827
1001.5	89.6441
1003.16	96.1809
1004.81	103.216
1006.47	108.769
1008.12	115.563
1009.78	122.472
1011.43	128.111
1013.09	133.468
1014.74	138.436
1016.39	142.194
1018.05	145.272
1019.7	148.114
1021.35	148.737
1023	148.994
1024.65	149.77
1026.31	149.175
1027.96	148.39
1029.61	146.532
1031.26	143.86
1032.91	138.921
1034.56	133.854
1036.21	128.487
1037.86	122.519
1039.51	116.432
1041.16	108.518
1042.8	100.524
1044.45	94.1922
1046.1	88.5809
1047.75	83.233
1049.39	79.8588
1051.04	76.6869
1052.69	73.147
1054.33	71.0165
1055.98	69.1324
1057.62	66.697
1059.27	66.4225
1060.91	64.2673
1062.56	64.426
1064.2	64.6936
1065.85	63.1417
1067.49	62.3834
1069.13	62.9163
1070.77	64.1007
1072.42	66.1364
1074.06	67.01
1075.7	68.6264
1077.34	70.9395
1078.98	73.5032
1080.62	74.3744
1082.27	75.9064
1083.91	77.3609
1085.55	78.1651
1087.18	78.7646
1088.82	78.8153
1090.46	80.9702
1092.1	82.8607
1093.74	83.6736
1095.38	85.3611
1097.02	85.8197
1098.65	84.8824
1100.29	84.1426
1101.93	83.0046
1103.56	80.5797
1105.2	78.8444
1106.84	76.4427
1108.47	73.303
1110.11	70.7865
1111.74	67.2527
1113.38	64.0329
1115.01	58.7734
1116.64	55.8183
1118.28	50.9318
1119.91	46.3119
1121.54	40.8712
1123.18	35.5785
1124.81	31.6504
1126.44	29.5238
1128.07	26.6866
1129.7	24.6153
1131.33	22.572
1132.97	20.5203
1134.6	19.7964
1136.23	20.1142
1137.86	19.5211
1139.49	18.5415
1141.11	18.9607
1142.74	18.5769
1144.37	18.8983
1146	17.4704
1147.63	16.3393
1149.26	16.199
1150.88	15.5979
1152.51	14.1042
1154.14	12.3566
1155.76	10.5529
1157.39	8.60299
1159.01	7.43183
1160.64	6.37824
1162.27	6.27309
1163.89	6.30032
1165.51	6.31839
1167.14	5.3102
1168.76	5.41757
1170.39	6.5808
1172.01	7.99536
1173.63	8.13829
1175.25	7.79865
1176.88	7.79498
1178.5	6.64866
1180.12	6.45657
1181.74	5.98401
1183.36	6.13769
1184.98	4.68044
1186.6	4.10679
1188.22	3.98977
1189.84	3.71237
1191.46	2.66507
1193.08	2.53507
1194.7	2.72462
1196.32	2.15951
1197.94	2.88688
1199.55	2.98644
1201.17	3.27216
1202.79	3.68353
1204.41	5.78888
1206.02	6.81924
1207.64	7.78591
1209.25	8.6724
1210.87	9.89339
1212.48	10.9341
1214.1	12.605
1215.71	14.7302
1217.33	16.1617
1218.94	16.4938
1220.56	18.4657
1222.17	20.282
1223.79	22.1642
1225.4	23.8766
1227.01	24.9433
1228.62	27.3095
1230.23	29.4397
1231.85	30.1925
1233.46	30.9894
1235.07	33.1961
1236.68	34.5218
1238.29	35.6016
1239.9	37.266
1241.51	38.9429
1243.12	39.1412
1244.73	39.9816
1246.34	40.9702
1247.94	42.4264
1249.55	43.1148
1251.16	43.9874
1252.77	44.3653
1254.37	45.1669
1255.98	46.559
1257.59	46.75
1259.2	47.3778
1260.8	46.677
1262.41	46.5223
1264.01	47.5967
1265.62	46.8731
1267.22	47.8397
1268.83	49.5894
1270.43	50.9311
1272.03	52.1382
1273.64	53.9275
1275.24	55.5186
1276.85	57.03
1278.45	58.6217
1280.05	60.1417
1281.65	59.9692
1283.25	61.4588
1284.85	62.8475
1286.46	63.6699
1288.06	63.9782
1289.66	65.6827
1291.26	68.0242
1292.86	68.5671
1294.46	69.831
1296.06	69.9286
1297.66	69.5525
1299.25	70.3602
1300.85	71.1339
1302.45	71.1701
1304.05	71.2845
1305.65	71.0994
1307.24	70.8142
1308.84	70.9426
1310.43	69.848
1312.03	69.433
1313.63	68.7157
1315.22	68.5204
1316.82	67.5432
1318.41	66.7903
1320.01	66.1115
1321.6	64.7526
1323.2	63.5154
1324.79	63.4461
1326.38	61.7443
1327.98	60.8117
1329.57	59.2811
1331.16	58.7796
1332.76	57.7237
1334.35	57.1304
1335.94	55.5877
1337.53	53.3439
1339.12	52.1484
1340.71	50.9515
1342.3	50.2451
1343.89	49.6812
1345.48	46.9909
1347.07	45.8086
1348.66	45.6393
1350.25	44.1295
1351.84	42.7054
1353.43	41.6751
1355.01	41.2299
1356.6	40.0967
1358.19	38.3564
1359.77	37.1101
1361.36	35.9563
1362.95	36.0627
1364.53	35.6252
1366.12	34.479
1367.71	33.5543
1369.29	32.987
1370.88	32.3553
1372.46	30.5966
1374.04	30.9424
1375.63	30.2705
1377.21	30.3079
1378.8	30.3287
1380.38	29.6674
1381.96	29.9146
1383.54	29.5644
1385.13	29.4935
1386.71	30.2078
1388.29	30.2775
1389.87	29.7634
1391.45	30.5395
1393.03	29.4932
1394.61	30.0921
1396.19	31.0821
1397.77	30.5955
1399.35	30.8945
1400.93	31.9618
1402.51	34.1919
1404.09	35.2795
1405.67	37.7825
1407.24	40.0091
1408.82	42.5779
1410.4	45.5934
1411.98	48.9851
1413.55	52.2992
1415.13	55.0432
1416.71	57.9865
1418.28	61.9427
1419.86	65.8332
1421.43	69.9875
1423.01	74.9752
1424.58	78.3885
1426.16	83.6806
1427.73	88.2746
1429.31	91.4827
1430.88	96.0389
1432.45	99.2318
1434.02	102.48
1435.6	104.069
1437.17	106.745
1438.74	108.568
1440.31	109.572
1441.88	111.113
1443.45	111.309
1445.03	110.814
1446.6	111.174
1448.17	110.118
1449.74	109.678
1451.3	108.842
1452.87	106.171
1454.44	104.468
1456.01	101.865
1457.58	98.2951
1459.15	96.3418
1460.72	92.4976
1462.28	88.6569
1463.85	84.3587
1465.42	80.3498
1466.98	75.5961
1468.55	71.3529
1470.12	66.658
1471.68	61.7193
1473.25	59
1474.81	55.9023
1476.38	51.9631
1477.94	49.9871
1479.51	48.0275
1481.07	45.9623
1482.63	43.4892
1484.2	41.4844
1485.76	40.7459
1487.32	40.722
1488.88	40.3119
1490.45	39.6134
1492.01	38.8742
1493.57	38.2311
1495.13	37.563
1496.69	39.2118
1498.25	39.4047
1499.81	39.1364
1501.37	39.3368
1502.93	38.9454
1504.49	38.4933
1506.05	38.2379
1507.61	38.3472
1509.17	38.5275
1510.73	36.7994
1512.28	36.1128
1513.84	35.1476
1515.4	33.8657
1516.96	32.9671
1518.51	32.9805
1520.07	32.0994
1521.63	31.2151
1523.18	31.0431
1524.74	31.3645
1526.29	30.0072
1527.85	30.004
1529.4	29.3734
1530.96	28.7496
1532.51	28.8571
1534.06	28.3058
1535.62	27.5986
1537.17	28.6894
1538.72	27.1888
1540.28	27.8143
1541.83	27.864
1543.38	27.8507
1544.93	29.1592
1546.48	28.9036
1548.03	28.1883
1549.59	29.6554
1551.14	31.7678
1552.69	31.5161
1554.24	31.7491
1555.79	32.1111
1557.34	32.1174
1558.88	33.3007
1560.43	34.434
1561.98	35.8097
1563.53	38.5184
1565.08	39.08
1566.62	40.7059
1568.17	42.1175
1569.72	44.5146
1571.27	45.9517
1572.81	47.3079
1574.36	49.8611
1575.9	50.883
1577.45	52.619
1579	54.4646
1580.54	55.9695
1582.09	58.1467
1583.63	60.542
1585.17	62.1314
1586.72	63.1673
1588.26	63.3422
1589.8	63.6958
1591.35	63.9243
1592.89	63.3969
1594.43	65.7269
1595.97	66.2953
1597.52	67.3722
1599.06	68.9422
1600.6	69.6947
1602.14	70.6448
1603.68	70.5924
1605.22	71.4241
1606.76	70.9755
1608.3	70.7681
1609.84	70.5525
1611.38	70.9499
1612.92	71.5175
1614.46	72.5268
1615.99	72.9261
1617.53	73.3025
1619.07	73.1573
1620.61	72.8383
1622.14	73.7717
1623.68	72.9032
1625.22	73.7555
1626.75	75.1905
1628.29	76.9095
1629.82	78.0863
1631.36	80.0751
1632.9	80.8516
1634.43	82.6713
1635.96	84.3651
1637.5	86.1441
1639.03	88.2925
1640.57	89.3732
1642.1	90.981
1643.63	93.0945
1645.16	93.8456
1646.7	95.7877
1648.23	95.9902
1649.76	96.9806
1651.29	98.4463
1652.82	98.6839
1654.36	99.0884
1655.89	98.6306
1657.42	98.5178
1658.95	97.628
1660.48	96.8093
1662.01	95.6031
1663.53	92.9783
1665.06	89.9631
1666.59	87.8707
1668.12	86.6242
1669.65	84.2352
1671.18	83.2523
1672.7	80.3575
1674.23	77.9733
1675.76	73.933
1677.29	70.2418
1678.81	66.5884
1680.34	62.9386
1681.86	59.2046
1683.39	55.7934
1684.91	52.5137
1686.44	49.5883
1687.96	46.4403
1689.49	44.504
1691.01	40.8886
1692.54	37.6967
1694.06	34.5829
1695.58	32.497
1697.11	30.5174
1698.63	29.3611
1700.15	27.8409
1701.67	26.3205
1703.2	25.1393
1704.72	23.5546
1706.24	21.3864
1707.76	19.3115
1709.28	17.2662
1710.8	15.6669
1712.32	14.2862
1713.84	12.7927
1715.36	11.4601
1716.88	10.051
1718.4	10.0582
1719.91	8.68084
1721.43	7.249
1722.95	6.67282
1724.47	5.6629
1725.99	5.61751
1727.5	4.81508
1729.02	4.06791
1730.54	3.83337
1732.05	3.07939
1733.57	3.43863
1735.09	3.45305
1736.6	3.59472
1738.12	3.20318
1739.63	2.6486
1741.15	3.30487
1742.66	3.09199
1744.18	2.81356
1745.69	2.40356
1747.2	2.516
1748.72	2.06533
1750.23	1.71379
1751.74	1.18017
1753.25	1.20934
1754.77	1.32156
1756.28	1.44066
1757.79	0.507284
1759.3	0.341264
1760.81	0.53549
1762.32	0.306929
1763.83	-0.00900794
1765.34	0.46758
1766.85	-0.703115
1768.36	-0.130303
1769.87	0.328366
1771.38	0.21239
1772.89	0.509262
1774.4	0.521944
1775.91	0.133881
1777.41	0.105818
1778.92	0.0580396
1780.43	0.522104
1781.94	1.41156
1783.44	1.78238
1784.95	1.38727
1786.45	1.21533
1787.96	1.24618
1789.47	1.55473
1790.97	2.24697
1792.48	2.51237
1793.98	2.8727
1795.48	3.31305
1796.99	3.94034
1798.49	4.88492
1800	5.00298
1801.5	5.49085
1803	5.02389
1804.51	5.57632
1806.01	6.07914
1807.51	6.71258
1809.01	7.45096
1810.51	8.15299
1812.02	8.2984
1813.52	9.1381
1815.02	9.30625
1816.52	9.00383
1818.02	8.76031
1819.52	9.09293
1821.02	9.02841
1822.52	8.85803
1824.02	9.15604
1825.51	9.5665
1827.01	9.02146
1828.51	9.18988
1830.01	8.79701
1831.51	8.58663
1833	8.63225
1834.5	8.71111
1836	8.64972
1837.5	8.11563
1838.99	7.87376
1840.49	8.11822
1841.98	6.89423
1843.48	7.42679
1844.97	6.82215
1846.47	6.65585
1847.96	6.47607
1849.46	5.92256
1850.95	5.26231
1852.45	5.94002
1853.94	5.77489
1855.43	6.09152
1856.92	4.81194
1858.42	3.75887
1859.91	3.2314
1861.4	3.1486
1862.89	2.96386
1864.39	2.69216
1865.88	2.86939
1867.37	3.1893
1868.86	2.49032
1870.35	2.63952
1871.84	2.47252
1873.33	2.86818
1874.82	2.17736
1876.31	2.25093
1877.8	2.70161
1879.29	3.83507
1880.77	3.73749
1882.26	3.73719
1882.51	3.98642
1884	4.5692
1885.5	4.11201
1886.99	4.80715
1888.48	4.28386
1889.98	4.11988
1891.47	4.84745
1892.97	5.06471
1894.46	5.6716
1895.95	7.08389
1897.44	7.74687
1898.93	8.02045
1900.42	7.86807
1901.92	8.23523
1903.41	8.45343
1904.9	9.46897
1906.39	10.194
1907.88	10.6489
1909.37	11.4573
1910.86	12.0048
1912.35	11.919
1913.84	11.8874
1915.32	11.5383
1916.81	11.996
1918.3	11.6358
1919.79	11.8399
1921.28	12.5868
1922.76	12.5855
1924.25	12.2206
1925.74	12.5518
1927.22	12.1656
1928.71	11.5614
1930.2	11.159
1931.68	11.2068
1933.17	11.7989
1934.65	11.8291
1936.14	12.166
1937.62	12.062
1939.11	12.7554
1940.59	12.1446
1942.08	12.3173
1943.56	12.9266
1945.04	12.7536
1946.53	12.5089
1948.01	12.4364
1949.49	12.9798
1950.97	12.8611
1952.45	11.7601
1953.94	11.747
1955.42	12.4063
1956.9	12.3845
1958.38	12.2602
1959.86	11.714
1961.34	12.075
1962.82	10.9743
1964.3	11.3752
1965.78	11.2069
1967.26	11.6168
1968.74	12.8363
1970.22	12.7638
1971.69	11.5231
1973.17	11.2477
1974.65	10.6513
1976.13	10.8577
1977.61	12.1356
1979.08	12.4047
1980.56	12.2528
1982.03	12.2811
1983.51	12.343
1984.99	12.0631
1986.46	12.0744
1987.94	12.3772
1989.41	12.1022
1990.89	11.7518
1992.36	12.2601
1993.84	12.1841
1995.31	12.4913
1996.78	11.5553
1998.26	11.4833
1999.73	12.0916
2001.2	12.1368
2002.68	11.2995
2004.15	11.8698
2005.62	11.7729
2007.09	11.8998
2008.56	11.5678
2010.04	11.6688
2011.51	11.953
2012.98	12.8709
2014.45	12.7403
2015.92	13.5095
2017.39	13.8272
2018.86	14.265
2020.33	14.8494
2021.8	15.4348
2023.27	15.8875
2024.74	15.8518
2026.2	16.0056
2027.67	16.9082
2029.14	17.1709
2030.61	17.1455
2032.07	17.5075
2033.54	18.2861
2035.01	18.3851
2036.47	18.7558
2037.94	19.9195
2039.41	20.9851
2040.87	22.8158
2042.34	23.1438
2043.8	22.6582
2045.27	22.7141
2046.73	23.8339
2048.2	25.0806
2049.66	25.7247
2051.12	26.6075
2052.59	26.8284
2054.05	27.4251
2055.51	28.3526
2056.98	29.0621
2058.44	29.7106
2059.9	31.0757
2061.36	30.8808
2062.82	31.3386
2064.29	32.0851
2065.75	32.4487
2067.21	33.2305
2068.67	33.4755
2070.13	33.5742
2071.59	34.3585
2073.05	35.3544
2074.51	35.9838
2075.97	36.2782
2077.43	37.3487
2078.88	37.7547
2080.34	39.3089
2081.8	40.7559
2083.26	41.6051
2084.72	42.6666
2086.17	43.8627
2087.63	44.1173
2089.09	45.6646
2090.54	46.8636
2092	48.1198
2093.46	48.762
2094.91	49.2716
2096.37	50.5156
2097.82	51.0634
2099.28	52.6404
2100.73	54.3899
2102.19	56.2191
2103.64	57.5084
2105.09	58.9875
2106.55	60.7256
2108	61.4455
2109.46	63.1632
2110.91	64.4992
2112.36	66.5129
2113.81	68.0569
2115.27	70.7926
2116.72	72.9734
2118.17	75.4903
2119.62	78.0015
2121.07	79.5962
2122.52	81.3783
2123.97	84.2115
2125.42	86.6392
2126.87	89.1743
2128.32	92.5721
2129.77	94.7427
2131.22	97.4826
2132.67	100.211
2134.12	102.541
2135.57	106.311
2137.01	109.276
2138.46	112.509
2139.91	115.231
2141.36	117.086
2142.8	120.415
2144.25	122.873
2145.7	125.716
2147.14	128.404
2148.59	130.819
2150.03	133.834
2151.48	135.965
2152.92	138.026
2154.37	140.108
2155.81	141.849
2157.26	144.201
2158.7	145.771
2160.15	146.193
2161.59	146.466
2163.03	147.177
2164.48	147.917
2165.92	147.087
2167.36	147.111
2168.8	148.74
2170.25	148.815
2171.69	148.818
2173.13	147.447
2174.57	146.208
2176.01	144.41
2177.45	143.524
2178.89	142.416
2180.33	140.635
2181.77	139.614
2183.21	138.088
2184.65	137.425
2186.09	136.379
2187.53	134.83
2188.97	131.578
2190.41	130.004
2191.84	127.455
2193.28	125.115
2194.72	124.105
2196.16	122.373
2197.59	120.789
2199.03	119.151
2200.47	117.257
2201.9	114.319
2203.34	112.108
2204.78	110.328
2206.21	108.492
2207.65	106.543
2209.08	103.899
2210.51	101.337
2211.95	98.5555
2213.38	96.5483
2214.82	94.7779
2216.25	92.1608
2217.68	90.3262
2219.12	88.5567
2220.55	86.3752
2221.98	84.0139
2223.42	81.7979
2224.85	80.8621
2226.28	78.9434
2227.71	75.6526
2229.14	72.8975
2230.57	69.978
2232	67.0449
2233.43	64.5521
2234.86	63.4604
2236.29	61.1086
2237.72	58.1876
2239.15	56.718
2240.58	54.9069
2242.01	52.0535
2243.44	49.7319
2244.87	46.9485
2246.3	45.3413
2247.73	43.7367
2249.15	42.868
2250.58	40.715
2252.01	39.1608
2253.43	38.5622
2254.86	37.1015
2256.29	37.2384
2257.71	35.1384
2259.14	34.4763
2260.56	34.2863
2261.99	34.2427
2263.41	33.5846
2264.84	33.3884
2266.26	33.2091
2267.69	32.3908
2269.11	31.1041
2270.54	30.4089
2271.96	29.4678
2273.38	29.3929
2274.81	29.6321
2276.23	29.5924
2277.65	29.28
2279.07	29.0254
2280.49	28.5659
2281.92	27.4721
2283.34	26.462
2284.76	25.3748
2286.18	25.6896
2287.6	25.4492
2289.02	24.8889
2290.44	24.7526
2291.86	23.6608
2293.28	22.739
2294.7	22.6433
2296.12	22.1304
2297.54	21.0384
2298.96	20.4168
2300.38	19.2271
2301.79	18.5554
2303.21	18.3997
2304.63	18.0765
2306.05	17.9897
2307.46	16.9819
2308.88	15.8349
2310.3	15.2395
2311.71	14.7308
2313.13	13.8823
2314.55	14.1145
2315.96	14.3179
2317.38	14.019
2318.79	13.4509
2320.21	12.8163
2321.62	12.5267
2323.03	12.1331
2324.45	11.5592
2325.86	10.8397
2327.27	11.6614
2328.69	11.4493
2330.1	11.3355
2331.51	10.4709
2332.93	9.79331
2334.34	9.35204
2335.75	9.05196
2337.16	8.15998
2338.57	7.67133
2339.99	7.19537
2341.4	7.20851
2342.81	7.1044
2344.22	6.63932
2345.63	5.54769
2347.04	5.14984
2348.45	4.75885
2349.86	4.18211
2351.26	3.44133
2352.67	2.56669
2354.08	2.38677
2355.49	3.30471
2356.9	3.53805
2358.31	3.0099
2359.71	2.72969
2361.12	2.57339
2362.53	2.32658
2363.94	3.13282
2365.34	3.03226
2366.75	3.49778
2368.15	3.13542
2369.56	2.6969
2370.97	2.49692
2372.37	2.83641
2373.78	3.28309
2375.18	2.77013
2376.59	3.23051
2377.99	2.66258
2379.39	2.37355
2380.8	3.13941
2382.2	3.64924
2383.61	3.96416
2385.01	5.10505
2386.41	4.8585
2387.81	4.28201
2389.22	4.03775
2390.62	4.20228
2392.02	4.51151
2393.42	4.93863
2394.82	5.65352
2396.22	6.28085
2397.63	6.92066
2399.02	6.40916
2400.43	5.4171
2401.82	6.09826
2403.23	6.89375
2404.62	7.11559
2406.02	7.35325
2407.42	7.23815
2408.82	7.43323
2410.22	7.34968
2411.62	7.78629
2413.02	8.4598
2414.41	8.05543
2415.81	8.73651
2417.21	9.23953
2418.61	9.13375
2420	9.42307
2421.4	9.53212
2422.79	9.74648
2424.19	10.054
2425.59	9.59158
2426.98	8.46535
2428.38	8.22585
2429.77	7.72996
2431.17	7.63386
2432.56	8.72141
2433.96	8.30908
2435.35	7.23834
2436.74	6.86253
2438.14	5.80347
2439.53	5.02024
2440.92	4.79414
2442.32	4.56408
2443.71	4.76247
2445.1	4.32106
2446.49	4.16994
2447.88	2.92442
2449.28	3.20491
2450.67	3.00499
2452.06	2.71802
2453.45	2.40477
2454.84	2.19042
2456.23	1.87969
2457.62	1.69891
2459.01	1.40547
2460.4	1.61456
2461.79	1.14249
2463.18	0.974103
2464.57	0.266506
2465.96	0.255483
2467.34	-0.311233
2468.73	-0.227018
2470.12	-0.371583
2471.51	-0.229798
2472.89	-0.258184
2474.28	-0.748544
2475.67	-1.06687
2477.05	-1.36028
2478.44	-1.22595
2479.83	-1.40387
2481.21	-1.37443
2482.6	-1.47542
2483.98	-1.58308
2485.37	-1.46671
2486.75	-1.56049
2488.14	-1.1281
2489.52	-1.11246
2490.9	-1.6241
2492.29	-1.52146
2493.67	-1.37914
2495.06	-0.623841
2496.44	-0.285369
2497.82	0.925236
2499.2	0.892013
2500.59	1.44787
2501.97	1.60931
2503.35	0.782734
2504.73	0.621413
2506.11	0.615641
2507.49	1.29188
2508.88	1.3461
2510.26	2.12068
2511.63	2.50216
2513.01	2.37428
2514.39	2.73667
2515.77	2.95058
2517.15	2.73007
2518.53	3.40066
2519.91	3.80138
2521.29	3.87289
2522.67	4.1366
2524.05	4.47751
2525.42	4.69424
2526.8	5.21534
2528.18	5.73197
2529.56	5.8204
2530.93	4.98017
2532.31	4.73112
2533.69	5.26735
2535.06	5.7688
2536.44	5.95272
2537.81	6.07848
2539.19	5.88893
2540.56	5.50582
2541.94	5.32328
2543.31	5.37919
2544.69	4.58743
2546.06	4.70127
2547.44	4.9701
2548.81	3.85327
2550.18	3.83582
2551.56	4.18122
2552.93	4.07415
2554.3	3.73912
2555.68	4.33879
2557.05	4.39761
2558.42	4.34778
2559.79	4.02687
2561.16	4.18417
2562.53	3.85274
2563.9	4.04509
2565.28	3.30245
2566.64	3.46144
2568.02	3.13245
2569.38	3.73934
2570.76	3.51291
2572.12	3.08188
2573.49	3.24695
2574.86	3.78243
2576.23	4.41762
2577.6	4.60247
2578.97	4.52823
2580.34	4.8101
2581.7	4.67267
2583.07	5.35078
2584.44	4.61875
2585.81	4.71175
2587.17	4.73499
2588.54	4.97471
2589.91	4.9539
2591.27	5.91987
2592.64	5.61455
2594	5.66329
2595.37	5.79307
2596.73	5.01855
2598.1	4.39943
2599.46	3.6632
2600.83	4.53043
2602.19	5.12775
2603.55	4.69463
2604.92	4.41677
2606.28	4.028
2607.64	4.15962
2609.01	3.85439
2610.37	4.31877
2611.73	4.95322
2613.09	4.7619
2614.46	5.32761
2615.82	5.29127
2617.18	4.50867
2618.54	4.59096
2619.9	5.14743
2621.26	5.05196
2622.62	5.33724
2623.98	5.13842
2625.34	4.9855
2626.7	5.19943
2628.06	5.14134
2629.42	5.65778
2630.78	5.81152
2632.14	6.46986
2633.5	6.23444
2634.86	6.39647
2636.22	7.14813
2637.57	7.73001
2638.93	7.82232
2640.29	8.51858
2641.64	9.52696
2643	9.296
2644.36	9.88322
2645.72	10.0906
2647.07	9.97798
2648.43	11.4205
2649.78	11.433
2651.14	11.7523
2652.49	11.774
2653.85	11.6811
2655.2	11.1164
2656.56	11.4206
2657.91	11.5648
2659.27	12.015
2660.62	11.0924
2661.97	10.9763
2663.33	10.7664
2664.68	10.2055
2666.03	10.9241
2667.38	11.1355
2668.74	11.6437
2670.09	10.6464
2671.44	10.0732
2672.79	10.2961
2674.14	10.6424
2675.49	9.96556
2676.84	9.51698
2678.2	9.01966
2679.55	8.75749
2680.89	7.73132
2682.24	6.5475
2683.59	5.76314
2684.94	5.08698
2686.29	5.23822
2687.64	5.17622
2688.99	4.4718
2690.34	3.79401
2691.69	3.23277
2693.04	3.78214
2694.38	3.36901
2695.73	2.85619
2697.08	2.3034
2698.43	2.11713
2699.77	2.0016
2701.12	1.16298
2702.46	0.671394
2703.81	1.03934
2705.16	1.38795
2706.5	1.49772
2707.85	2.2967
2709.19	2.69291
2710.54	3.38222
2711.88	4.91208
2713.23	4.57468
2714.57	4.80796
2715.92	6.2916
2717.26	6.18669
2718.6	5.80254
2719.95	6.42974
2721.29	6.00824
2722.63	6.36783
2723.97	7.68769
2725.32	8.35763
2726.66	8.98531
2728	8.30499
2729.34	8.60028
2730.68	8.55187
2732.02	8.49914
2733.36	8.42583
2734.7	8.42532
2736.04	8.0833
2737.39	8.13819
2738.72	8.44563
2740.06	8.69691
2741.4	8.73676
2742.74	7.43352
2744.08	6.94738
2745.42	7.11234
2746.76	6.93915
2748.1	6.52789
2749.44	6.43419
2750.77	7.46023
2752.11	8.29713
2753.45	8.88909
2754.78	8.6125
2756.12	8.44792
2757.46	8.20959
2758.79	8.23123
2760.13	8.31764
2761.47	7.99903
2762.8	7.79635
2764.14	7.46264
2765.47	7.3481
2766.81	6.67686
2768.14	7.5037
2769.48	8.23445
2770.81	9.46417
2772.14	9.49311
2773.48	9.78854
2774.81	9.55626
2776.14	8.81392
2777.48	9.17104
2778.81	8.60067
2780.14	7.9311
2781.47	8.52106
2782.81	8.82224
2784.14	7.89369
2785.47	7.43636
2786.8	7.508
2788.13	6.59954
2789.46	5.97994
2790.79	6.0177
2792.12	5.03276
2793.46	4.09831
2794.79	2.62789
2796.11	2.4652
2797.44	2.13555
2798.77	1.70788
2800.1	1.33575
2801.43	1.16946
2802.76	0.729427
2804.09	0.326506
2805.42	-1.10664
2806.74	-1.62661
2808.07	-2.24791
2809.4	-3.09207
2810.73	-2.71151
2812.05	-2.15476
2813.38	-2.66936
2814.71	-1.86022
2816.03	-1.11446
2817.36	0.832672
2818.68	2.26601
2820.01	3.46045
2821.33	4.7348
2822.66	6.62499
2823.98	9.93219
2825.31	13.045
2826.63	16.1642
2827.96	19.5089
2829.28	22.774
2830.61	26.8213
2831.93	30.7406
2833.25	35.2687
2834.57	38.8491
2835.9	42.3178
2837.22	45.5191
2838.54	49.8086
2839.86	54.1805
2841.18	58.881
2842.51	64.1158
2843.83	70.1416
2845.15	75.2416
2846.47	81.426
2847.79	86.5201
2849.11	91.8089
2850.43	97.1206
2851.75	102.065
2853.07	107.276
2854.39	112.515
2855.71	117.197
2857.03	122.243
2858.35	126.325
2859.67	131.164
2860.98	135.518
2862.3	140.4
2863.62	143.833
2864.94	148.171
2866.25	150.882
2867.57	153.342
2868.89	156.865
2870.21	159.419
2871.52	162.278
2872.84	165.614
2874.15	167.81
2875.47	170.274
2876.78	171.903
2878.1	173.138
2879.42	175.692
2880.73	179.152
2882.04	181.15
2883.36	184.007
2884.67	186.555
2885.99	188.642
2887.3	191.55
2888.61	194.256
2889.93	197.88
2891.24	200.405
2892.55	203.378
2893.87	206.942
2895.18	210.14
2896.49	214.287
2897.8	217.657
2899.11	222.394
2900.42	226.739
2901.74	232.617
2903.05	237.935
2904.36	244.812
2905.67	251.532
2906.98	258.596
2908.29	265.812
2909.6	273.288
2910.91	280.445
2912.22	288.234
2913.53	295.401
2914.83	303.348
2916.14	310.874
2917.45	318.481
2918.76	326.52
2920.07	332.634
2921.37	338.638
2922.68	343.95
2923.99	349.329
2925.3	354.542
2926.6	358.09
2927.91	361.306
2929.22	364.912
2930.52	367.209
2931.83	367.32
2933.13	368.901
2934.44	370.383
2935.74	370.105
2937.05	368.564
2938.35	365.822
2939.66	361.564
2940.96	357.607
2942.27	353.12
2943.57	348.405
2944.87	343.602
2946.18	337.293
2947.48	330.367
2948.78	324.525
2950.09	318.033
2951.39	310.571
2952.69	303.849
2953.99	296.625
2955.29	289.491
2956.6	282.131
2957.9	274.161
2959.2	267.385
2960.5	260.165
2961.8	253.503
2963.1	246.617
2964.4	239.737
2965.7	232.408
2967	225.884
2968.3	219.653
2969.6	213.434
2970.9	207.604
2972.2	201.647
2973.49	196.144
2974.79	189.789
2976.09	183.505
2977.39	178.497
2978.69	173.653
2979.98	167.688
2981.28	162.456
2982.58	156.649
2983.88	150.369
2985.17	144.254
2986.47	138.891
2987.76	133.707
2989.06	128.803
2990.36	123.059
2991.65	117.51
2992.95	112.185
2994.24	107.327
2995.54	100.928
2996.83	95.2135
2998.12	89.9154
2999.42	84.046
3000.71	77.8791
3002	72.0351
3003.3	67.3013
3004.59	62.559
3005.88	57.5804
3007.18	53.2985
3008.47	48.8951
3009.76	45.1429
3011.05	41.402
3012.35	38.457
3013.64	35.9199
3014.93	32.8773
3016.22	29.9588
3017.51	27.7653
3018.8	25.6316
3020.09	22.8301
3021.38	20.7466
3022.67	18.2034
3023.96	16.5697
3025.25	14.0952
3026.54	12.7339
3027.83	11.0127
3029.12	9.45787
3030.41	8.22138
3031.69	7.92809
3032.98	6.49208
3034.27	5.82551
3035.56	5.49645
3036.85	5.40978
3038.13	4.842
3039.42	4.77835
3040.71	5.69598
3041.99	6.96504
3043.28	7.14703
3044.57	6.78711
3045.85	7.51751
3047.14	7.78742
3048.42	8.16392
3049.71	9.78227
3050.99	9.96199
3052.28	10.2664
3053.56	9.89118
3054.85	10.0593
3056.13	10.0518
3057.42	10.0223
3058.7	9.78389
3059.98	9.97403
3061.27	9.81929
3062.55	9.43451
3063.83	9.61007
3065.11	9.63991
3066.4	9.85676
3067.68	9.05617
3068.96	8.8203
3070.24	8.08941
3071.52	8.8873
3072.8	8.43799
3074.09	8.18187
3075.37	8.34307
3076.65	7.87539
3077.93	7.9562
3079.21	6.34533
3080.49	5.95397
3081.77	5.37793
3083.05	4.91008
3084.32	3.55877
3085.61	3.44757
3086.88	2.65017
3088.16	2.15172
3089.44	2.00628
3090.72	2.07225
3092	1.59737
3093.27	1.72476
3094.55	1.16471
3095.83	1.73798
3097.11	1.49116
3098.38	3.03641
3099.66	3.45577
3100.94	4.17194
3102.21	4.91601
3103.49	5.94599
3104.76	6.87979
3106.04	7.47703
3107.31	8.8314
3108.59	9.58143
3109.86	10.9063
3111.14	12.0357
3112.41	13.1391
3113.69	15.5107
3114.96	16.5838
3116.23	18.374
3117.51	19.9581
3118.78	21.188
3120.05	22.1445
3121.33	23.3934
3122.6	24.4765
3123.87	25.859
3125.14	26.5262
3126.42	27.5894
3127.69	29.4914
3128.96	30.7227
3130.23	32.2788
3131.5	33.6357
3132.77	36.0283
3134.04	37.0607
3135.31	38.5841
3136.58	39.2158
3137.85	40.7604
3139.12	41.65
3140.39	41.8153
3141.66	42.5743
3142.93	42.4564
3144.2	42.3061
3145.47	41.6152
3146.74	40.26
3148	39.4479
3149.27	37.0325
