#Acq. time (s)=	45
#Accumulations=	2
#Range (cm-¹)=	200...3150
#Windows=	2
#Auto scanning=	Off
#Autofocus=	Off
#Macrospot=	Off
#AutoExposure=	Off
#Spike filter=	Multiple accum.
#Delay time (s)=	0
#Binning=	1
#Readout mode=	Signal
#DeNoise=	Off
#ICS correction=	On
#Dark correction=	Off
#Inst. Process=	Off
#Detector Gain=	Best Dynamic Range
#Detector ADC=	20 kHz       
#Detector temperature (°C)=	-69.85
#Instrument=	LabRAM HR Evol
#Detector=	Synapse
#Objective=	x100
#Grating=	600 gr/mm
#ND Filter=	100%
#Laser (nm)=	532 
#Hole=	100.021
#Range=	Auto
#Laser Pol.=	No
#Raman. Pol.=	No
#Laser Pol. (°)=	-0.0007625
#Raman Pol. (°)=	89.9995
#Collection=	Microscope
#StageXY=	Marzhauser
#StageZ=	Marzhauser
#X (µm)=	28252.7
#Y (µm)=	-3213.6
#Z (µm)=	1041.3
#Full time(mm:ss)=	2:52
#Project=	
#Sample=	
#Site=	
#Title=	Mb_50_18_38_2x_45s_532 nm_x100_100%_600 gr_mm
#Remark=	
#Date=	12.07.2022 13:50
#Acquired=	12.07.2022 13:50:27
#Base:Fit=	10.08.2022 10:49:18
#Base:Sub=	10.08.2022 10:49:30
#Filter:Polynom=	16.08.2022 10:14:59
#AxisType[0]=Intens
#AxisUnit[0]=Cnt
#AxisType[1]=Spectr
#AxisUnit[1]=1/cm
200.388	149.38
202.204	134.83
204.019	123.655
205.832	115.988
207.646	108.945
209.459	102.968
211.274	98.2817
213.087	93.4387
214.899	88.9702
216.711	85.2313
218.524	82.437
220.335	78.6852
222.146	76.8755
223.956	74.5018
225.766	71.8142
227.576	68.6358
229.388	65.0318
231.197	61.3076
233.005	59.7454
234.813	56.5284
236.621	54.3005
238.429	49.7294
240.236	44.8567
242.045	42.8347
243.852	39.4595
245.658	37.016
247.464	37.8126
249.269	36.2461
251.074	33.5746
252.879	32.0186
254.683	28.9459
256.487	27.8285
258.291	24.6318
260.094	23.2482
261.897	21.6205
263.702	19.9032
265.504	17.5781
267.306	16.5525
269.108	15.135
270.909	11.1688
272.71	6.72859
274.511	5.31115
276.311	3.86337
278.111	1.40517
279.91	0.0765483
281.709	-1.3991
283.508	-2.81238
285.306	-1.93172
287.105	0.724139
288.9	2.01453
290.698	4.1162
292.495	5.68952
294.291	8.19053
296.088	9.63153
297.884	12.2577
299.679	15.2215
301.475	17.7136
303.27	20.7062
305.064	24.0798
306.858	27.8856
308.652	31.4943
310.444	35.2846
312.237	37.1779
314.03	38.5757
315.822	42.5263
317.615	44.0874
319.406	47.991
321.198	51.32
322.987	53.7248
324.778	54.7806
326.568	57.1116
328.358	57.3784
330.148	59.9781
331.935	63.9545
333.724	64.4766
335.513	67.6357
337.301	70.1514
339.089	67.3937
340.875	66.1534
342.662	68.6777
344.449	68.4686
346.236	70.2415
348.02	73.1013
349.806	77.7815
351.592	81.4009
353.375	83.7246
355.16	86.0306
356.944	89.5338
358.728	91.8494
360.51	94.3344
362.294	97.2533
364.077	102.941
365.858	105.813
367.64	107.832
369.422	114.282
371.202	119.833
372.983	125.049
374.764	129.757
376.543	133.857
378.324	136.119
380.102	138.551
381.881	144.383
383.661	150.421
385.438	155.865
387.216	162.218
388.993	167.354
390.771	170.878
392.548	175.435
394.324	179.034
396.101	183.386
397.875	184.35
399.651	185.984
401.425	186.147
403.201	187.587
404.974	189.68
406.749	188.326
408.524	189.14
410.296	186.857
412.07	184.196
413.841	181.326
415.614	179.148
417.385	176.701
419.156	174.739
420.928	172.683
422.698	167.01
424.469	163.469
426.238	159.187
428.009	156.312
429.777	155.34
431.548	154.844
433.315	152.935
435.083	152.52
436.852	152.519
438.618	150.69
440.387	149.074
442.153	147.921
443.919	146.735
445.686	145.9
447.451	144.97
449.218	144.47
450.982	143.481
452.746	143.826
454.512	142.755
456.275	141.893
458.038	143.833
459.803	142.196
461.565	141.316
463.327	142.069
465.091	143.216
466.852	144.572
468.613	146.517
470.374	151.132
472.136	152.178
473.896	154.697
475.655	156.452
477.415	155.333
479.176	154.497
480.934	156.324
482.692	156.606
484.45	158.129
486.21	156.545
487.967	156.814
489.724	158.488
491.481	156.78
493.237	158.294
494.995	157.807
496.75	157.292
498.506	157.252
500.26	156.584
502.015	155.81
503.771	156.294
505.525	154.514
507.279	151.83
509.032	150.438
510.785	147.568
512.537	147.414
514.289	146.87
516.041	145.469
517.793	143.64
519.546	140.944
521.297	138.414
523.047	134.881
524.797	132.756
526.547	128.319
528.297	125.676
530.046	122.422
531.795	117.828
533.543	114.31
535.291	110.634
537.039	106.908
538.787	100.546
540.534	95.7545
542.281	90.1807
544.027	86.5977
545.773	81.9868
547.519	77.4675
549.264	73.1851
551.01	69.8273
552.754	65.5022
554.499	61.3314
556.243	57.4919
557.987	53.0882
559.73	48.1418
561.474	44.9818
563.216	41.5943
564.959	38.2187
566.701	37.6711
568.441	38.5191
570.182	36.9936
571.923	35.6442
573.664	33.9699
575.405	36.4666
577.145	37.8443
578.885	34.7251
580.624	35.4254
582.361	35.6724
584.1	36.5335
585.839	37.6436
587.577	36.4949
589.315	36.8215
591.052	36.5314
592.787	36.8444
594.524	37.116
596.26	38.3546
597.997	37.9045
599.732	36.5292
601.466	35.1652
603.201	35.2261
604.936	35.0534
606.67	32.4258
608.403	31.0255
610.136	30.2536
611.87	29.5425
613.603	28.3539
615.334	28.0408
617.067	25.64
618.799	23.7268
620.529	20.8118
622.26	18.1309
623.991	15.8765
625.72	15.1214
627.451	14.1902
629.181	13.3048
630.909	12.5215
632.638	9.73103
634.368	7.40044
636.095	5.53827
637.823	4.2093
639.551	2.73662
641.277	2.94598
643.005	1.58633
644.73	-0.275389
646.457	0.325905
648.184	1.22025
649.908	1.60328
651.634	1.34282
653.357	-0.81078
655.083	-1.58
656.806	-2.15712
658.53	-1.8768
660.253	0.298765
661.977	1.24436
663.7	-0.911266
665.422	-1.43668
667.145	-0.459465
668.865	2.77315
670.588	3.21247
672.308	3.25431
674.027	3.25994
675.749	4.8698
677.468	4.98465
679.188	5.69677
680.907	5.76839
682.627	5.789
684.345	6.20792
686.064	5.42175
687.781	6.54228
689.498	6.87178
691.216	6.67832
692.932	6.40209
694.65	7.37204
696.366	8.69552
698.081	9.49812
699.797	11.0616
701.512	9.70642
703.228	8.76124
704.942	9.60078
706.655	11.5804
708.371	10.3448
710.083	11.8871
711.796	12.4951
713.51	10.2571
715.222	10.1945
716.934	10.9574
718.645	9.07629
720.358	9.26867
722.068	12.035
723.779	12.5119
725.49	12.0695
727.2	12.8944
728.909	12.4222
730.618	12.4146
732.329	15.5868
734.037	15.9234
735.745	16.9085
737.453	20.2223
739.16	24.9675
740.869	31.9753
742.576	38.116
744.282	42.8583
745.988	49.7924
747.694	55.4547
749.401	61.4119
751.107	68.1687
752.811	74.2381
754.516	80.739
756.22	86.3448
757.924	90.8867
759.627	97.0663
761.332	102.426
763.035	105.774
764.738	109.11
766.44	113.453
768.142	117.402
769.843	121.094
771.544	124.019
773.245	125.469
774.946	126.43
776.646	127.095
778.346	128.242
780.046	128.592
781.745	129.012
783.444	129.045
785.143	128.885
786.841	126.843
788.539	126.781
790.237	124.468
791.934	118.725
793.631	112.065
795.328	110.791
797.024	105.996
798.72	102.742
800.416	99.4453
802.112	94.4952
803.807	88.2465
805.502	83.9953
807.196	78.7675
808.89	73.6621
810.584	71.0417
812.278	68.3034
813.971	65.3008
815.664	63.4928
817.354	62.3908
819.047	59.0422
820.739	57.6955
822.43	56.8804
824.122	57.0741
825.813	55.3162
827.503	53.5715
829.192	52.3871
830.882	53.7684
832.571	54.0017
834.261	53.8417
835.95	54.7764
837.637	53.5994
839.325	53.686
841.013	54.5785
842.701	52.1455
844.389	52.657
846.074	49.8952
847.761	49.9713
849.447	49.8735
851.131	50.491
852.817	51.6461
854.503	50.4058
856.188	49.7128
857.871	47.4107
859.556	47.3117
861.24	46.93
862.922	48.4686
864.606	49.3758
866.289	50.6906
867.97	50.5395
869.653	49.7371
871.336	48.7926
873.016	49.1757
874.698	48.2906
876.379	45.5873
878.058	47.3501
879.739	48.922
881.418	47.893
883.098	48.553
884.778	46.197
886.456	45.0709
888.135	45.9027
889.812	46.0753
891.49	48.4816
893.167	50.9346
894.845	52.7094
896.523	52.267
898.198	53.8116
899.875	54.306
901.55	56.1406
903.226	56.1199
904.901	58.3396
906.576	60.371
908.25	63.018
909.925	65.5212
911.598	66.8158
913.271	69.4978
914.945	71.0132
916.617	71.4918
918.291	71.1679
919.962	71.7748
921.635	72.6295
923.306	73.0094
924.978	73.5023
926.648	72.4666
928.318	73.4425
929.989	73.1685
931.659	73.8
933.328	71.4056
934.998	71.7938
936.666	72.8329
938.336	71.1792
940.004	70.1589
941.671	68.7819
943.34	66.4476
945.007	64.7936
946.673	62.6719
948.339	59.6781
950.007	56.6074
951.672	55.1525
953.337	52.0861
955.004	50.5433
956.669	49.0647
958.333	45.6441
959.997	39.2476
961.662	38.2846
963.326	34.8837
964.989	32.4637
966.651	31.0564
968.315	28.161
969.977	26.2599
971.639	25.9814
973.301	24.5506
974.962	24.7987
976.624	25.054
978.285	24.3029
979.945	23.7249
981.605	24.0241
983.264	24.0471
984.924	24.1844
986.583	23.9749
988.243	25.1915
989.901	24.5487
991.56	24.4706
993.217	23.5278
994.875	22.2538
996.532	25.9099
998.188	28.4427
999.845	32.2723
1001.5	36.6285
1003.16	41.6527
1004.81	46.7108
1006.47	48.4406
1008.12	52.1456
1009.78	55.5067
1011.43	60.2528
1013.09	63.6244
1014.74	67.926
1016.39	72.6389
1018.05	74.7959
1019.7	77.5272
1021.35	78.4662
1023	78.8322
1024.65	80.55
1026.31	82.0531
1027.96	82.1204
1029.61	83.0144
1031.26	83.7868
1032.91	86.9329
1034.56	87.7157
1036.21	85.4662
1037.86	85.1278
1039.51	82.6769
1041.16	80.2
1042.8	77.3023
1044.45	77.5273
1046.1	74.7901
1047.75	73.6951
1049.39	71.4146
1051.04	68.8299
1052.69	67.1097
1054.33	68.4673
1055.98	67.1385
1057.62	66.5912
1059.27	65.8718
1060.91	64.0442
1062.56	63.345
1064.2	62.6276
1065.85	60.5394
1067.49	60.2573
1069.13	59.6364
1070.77	57.4251
1072.42	56.0216
1074.06	57.1275
1075.7	57.3083
1077.34	59.8334
1078.98	60.927
1080.62	60.3892
1082.27	60.4498
1083.91	61.3164
1085.55	59.9988
1087.18	59.6757
1088.82	59.3476
1090.46	57.7876
1092.1	58.0627
1093.74	57.2852
1095.38	56.3732
1097.02	55.3835
1098.65	54.5296
1100.29	50.9802
1101.93	50.9664
1103.56	50.0344
1105.2	48.3415
1106.84	48.3911
1108.47	44.9478
1110.11	41.6182
1111.74	38.7362
1113.38	37.6902
1115.01	36.2106
1116.64	33.2667
1118.28	30.2565
1119.91	26.9063
1121.54	24.4772
1123.18	21.3151
1124.81	17.2334
1126.44	15.0819
1128.07	13.0001
1129.7	12.1579
1131.33	11.2774
1132.97	11.2574
1134.6	11.0115
1136.23	10.8724
1137.86	10.3831
1139.49	9.80025
1141.11	9.30004
1142.74	8.62977
1144.37	8.27753
1146	7.1859
1147.63	5.63466
1149.26	6.05138
1150.88	5.50613
1152.51	4.765
1154.14	5.44454
1155.76	7.05327
1157.39	5.85925
1159.01	6.98836
1160.64	8.88674
1162.27	10.8705
1163.89	11.3184
1165.51	12.8506
1167.14	14.5111
1168.76	15.9568
1170.39	17.0736
1172.01	17.3489
1173.63	19.9243
1175.25	21.8069
1176.88	22.4415
1178.5	22.5786
1180.12	22.7245
1181.74	22.4068
1183.36	24.5685
1184.98	26.0343
1186.6	28.1864
1188.22	30.0855
1189.84	30.386
1191.46	32.2477
1193.08	31.8509
1194.7	34.412
1196.32	32.7261
1197.94	32.6956
1199.55	31.0639
1201.17	29.2542
1202.79	29.5069
1204.41	30.383
1206.02	30.2818
1207.64	31.7386
1209.25	31.4778
1210.87	30.6802
1212.48	30.8256
1214.1	30.5047
1215.71	31.0689
1217.33	31.096
1218.94	30.9891
1220.56	30.3883
1222.17	31.9561
1223.79	31.9057
1225.4	32.5969
1227.01	34.0644
1228.62	33.0992
1230.23	33.0588
1231.85	33.3806
1233.46	34.1545
1235.07	35.9411
1236.68	36.9205
1238.29	37.3951
1239.9	38.7327
1241.51	40.5006
1243.12	38.9965
1244.73	39.7792
1246.34	39.4638
1247.94	39.0756
1249.55	38.6721
1251.16	38.5999
1252.77	38.3176
1254.37	38.6627
1255.98	39.9551
1257.59	39.8083
1259.2	42.2389
1260.8	45.4392
1262.41	48.7622
1264.01	50.7832
1265.62	50.5663
1267.22	52.367
1268.83	53.0806
1270.43	55.6996
1272.03	56.9706
1273.64	56.5669
1275.24	58.5167
1276.85	60.1025
1278.45	63.1296
1280.05	65.7586
1281.65	68.9792
1283.25	73.0558
1284.85	75.6541
1286.46	75.0523
1288.06	76.208
1289.66	77.1448
1291.26	78.6575
1292.86	80.5787
1294.46	82.9891
1296.06	85.1841
1297.66	84.8885
1299.25	86.4781
1300.85	90.2557
1302.45	91.7135
1304.05	92.2643
1305.65	95.8952
1307.24	96.3061
1308.84	96.7655
1310.43	98.2074
1312.03	100.711
1313.63	103.376
1315.22	103.773
1316.82	104.376
1318.41	104.568
1320.01	104.803
1321.6	106.254
1323.2	106.6
1324.79	107.923
1326.38	107.678
1327.98	109.477
1329.57	110.654
1331.16	110.387
1332.76	110.724
1334.35	112.645
1335.94	113.715
1337.53	115.37
1339.12	117.424
1340.71	117.422
1342.3	115.574
1343.89	116.444
1345.48	117.409
1347.07	121.685
1348.66	123.531
1350.25	125.679
1351.84	125.748
1353.43	124.892
1355.01	126.81
1356.6	127.028
1358.19	129.109
1359.77	130.599
1361.36	130.145
1362.95	130.665
1364.53	129.33
1366.12	128.082
1367.71	128.466
1369.29	131.325
1370.88	129.939
1372.46	130.158
1374.04	130.091
1375.63	127.758
1377.21	127.484
1378.8	128.952
1380.38	129.249
1381.96	129.251
1383.54	128.789
1385.13	128.288
1386.71	125.835
1388.29	125.528
1389.87	123.495
1391.45	124.285
1393.03	122.141
1394.61	120.544
1396.19	119.49
1397.77	119.965
1399.35	119.888
1400.93	119.958
1402.51	118.677
1404.09	119.213
1405.67	116.702
1407.24	115.786
1408.82	115.279
1410.4	116.099
1411.98	118.22
1413.55	119.638
1415.13	120.498
1416.71	121.04
1418.28	122.282
1419.86	124.355
1421.43	126.953
1423.01	132.438
1424.58	133.975
1426.16	137.357
1427.73	139.361
1429.31	143.27
1430.88	144.588
1432.45	147.717
1434.02	149.591
1435.6	151.055
1437.17	153.98
1438.74	157.265
1440.31	159.676
1441.88	161.8
1443.45	162.246
1445.03	162.938
1446.6	164.161
1448.17	162.424
1449.74	157.904
1451.3	158.718
1452.87	157.267
1454.44	156.01
1456.01	156.134
1457.58	154.412
1459.15	152.286
1460.72	150.027
1462.28	145.956
1463.85	144.93
1465.42	142.677
1466.98	138.89
1468.55	135.156
1470.12	131.87
1471.68	126.457
1473.25	123.838
1474.81	119.593
1476.38	116.881
1477.94	111.476
1479.51	106.488
1481.07	103.501
1482.63	100.98
1484.2	95.458
1485.76	92.3964
1487.32	87.887
1488.88	85.9158
1490.45	83.4813
1492.01	79.5388
1493.57	76.105
1495.13	74.3074
1496.69	74.6004
1498.25	74.2883
1499.81	71.6137
1501.37	69.3362
1502.93	67.0831
1504.49	68.4647
1506.05	69.0341
1507.61	69.1931
1509.17	68.8187
1510.73	70.0839
1512.28	70.3127
1513.84	72.1491
1515.4	74.6975
1516.96	77.0189
1518.51	76.19
1520.07	76.3804
1521.63	78.0715
1523.18	80.8622
1524.74	82.9622
1526.29	83.6468
1527.85	86.299
1529.4	89.7788
1530.96	90.8418
1532.51	91.811
1534.06	94.2793
1535.62	97.8765
1537.17	101.291
1538.72	103.198
1540.28	106.546
1541.83	108.789
1543.38	109.518
1544.93	110.86
1546.48	112.976
1548.03	115.928
1549.59	117.876
1551.14	120.398
1552.69	120.459
1554.24	123.048
1555.79	123.973
1557.34	126.652
1558.88	129.844
1560.43	133.506
1561.98	133.566
1563.53	135.536
1565.08	136.746
1566.62	139.747
1568.17	140.982
1569.72	141.05
1571.27	142.303
1572.81	145.594
1574.36	145.665
1575.9	147.072
1577.45	147.382
1579	149.223
1580.54	152.079
1582.09	154.556
1583.63	157.494
1585.17	158.613
1586.72	161.243
1588.26	161.723
1589.8	162.264
1591.35	161.764
1592.89	162.626
1594.43	161.085
1595.97	161.111
1597.52	162.699
1599.06	164.467
1600.6	164.585
1602.14	162.175
1603.68	160.101
1605.22	158.559
1606.76	156.007
1608.3	153.83
1609.84	151.869
1611.38	151.74
1612.92	151.611
1614.46	149.009
1615.99	146.506
1617.53	144.511
1619.07	140.483
1620.61	138.78
1622.14	135.15
1623.68	132.517
1625.22	130.385
1626.75	126.533
1628.29	122.541
1629.82	119.366
1631.36	117.53
1632.9	112.979
1634.43	111.821
1635.96	108.908
1637.5	104.395
1639.03	98.5693
1640.57	94.6295
1642.1	90.1634
1643.63	87.2336
1645.16	83.9746
1646.7	80.0133
1648.23	77.1141
1649.76	73.9542
1651.29	70.9447
1652.82	69.2467
1654.36	63.9567
1655.89	61.6019
1657.42	58.0136
1658.95	55.0253
1660.48	52.6949
1662.01	47.9123
1663.53	46.3474
1665.06	43.1507
1666.59	40.8354
1668.12	38.4663
1669.65	37.0318
1671.18	35.9388
1672.7	36.4047
1674.23	35.2498
1675.76	33.9696
1677.29	30.7474
1678.81	29.7254
1680.34	30.0238
1681.86	29.799
1683.39	28.6856
1684.91	29.8322
1686.44	29.398
1687.96	30.3091
1689.49	31.5184
1691.01	30.7707
1692.54	30.5531
1694.06	28.2372
1695.58	27.4579
1697.11	28.9398
1698.63	27.3949
1700.15	26.8982
1701.67	26.5441
1703.2	25.6104
1704.72	26.7811
1706.24	27.7601
1707.76	25.1141
1709.28	23.7583
1710.8	24.4802
1712.32	21.9755
1713.84	20.2942
1715.36	20.6066
1716.88	20.0972
1718.4	18.8942
1719.91	17.6981
1721.43	18.0609
1722.95	17.1295
1724.47	16.4301
1725.99	16.6932
1727.5	15.8726
1729.02	14.5404
1730.54	12.0691
1732.05	13.5848
1733.57	11.5362
1735.09	11.2995
1736.6	11.0444
1738.12	10.1364
1739.63	11.6492
1741.15	10.8375
1742.66	10.3138
1744.18	10.2634
1745.69	11.8567
1747.2	12.039
1748.72	12.052
1750.23	13.1011
1751.74	12.9108
1753.25	13.6584
1754.77	15.3582
1756.28	15.761
1757.79	15.912
1759.3	14.8767
1760.81	16.3458
1762.32	14.9109
1763.83	16.6154
1765.34	17.2899
1766.85	15.8897
1768.36	15.3389
1769.87	14.2478
1771.38	15.4273
1772.89	15.1794
1774.4	13.2134
1775.91	13.8404
1777.41	15.0759
1778.92	16.3031
1780.43	17.4451
1781.94	14.9303
1783.44	13.4059
1784.95	14.8133
1786.45	16.7027
1787.96	15.674
1789.47	16.266
1790.97	16.2226
1792.48	17.3851
1793.98	16.3748
1795.48	16.4454
1796.99	15.9139
1798.49	15.2816
1800	15.3569
1801.5	13.6691
1803	12.4919
1804.51	11.6418
1806.01	9.80238
1807.51	8.94621
1809.01	7.98778
1810.51	7.30031
1812.02	4.85938
1813.52	3.00001
1815.02	2.4228
1816.52	0.768753
1818.02	0.562546
1819.52	-0.946169
1821.02	0.905133
1822.52	0.674471
1824.02	1.57463
1825.51	2.26325
1827.01	1.33117
1828.51	3.00664
1830.01	1.20023
1831.51	1.39662
1833	2.71296
1834.5	1.95151
1836	2.53237
1837.5	3.28522
1838.99	5.38096
1840.49	4.15053
1841.98	5.1453
1843.48	5.99665
1844.97	5.91236
1846.47	7.19908
1847.96	9.61867
1849.46	10.6446
1850.95	12.1133
1852.45	10.5755
1853.94	13.2068
1855.43	12.9618
1856.92	13.1884
1858.42	12.9891
1859.91	14.425
1861.4	15.816
1862.89	14.8086
1864.39	16.587
1865.88	16.5598
1867.37	17.6602
1868.86	15.7794
1870.35	15.6597
1871.84	15.8716
1873.33	18.2218
1874.82	18.8168
1876.31	18.3485
1877.8	18.8401
1879.29	18.4689
1880.77	18.8979
1882.26	19.2655
1882.51	19.0903
1884	17.7129
1885.5	18.1186
1886.99	19.3861
1888.48	20.248
1889.98	23.0857
1891.47	24.8917
1892.97	25.2518
1894.46	26.8384
1895.95	25.888
1897.44	24.4482
1898.93	23.3538
1900.42	22.2487
1901.92	21.3663
1903.41	20.7317
1904.9	21.2226
1906.39	20.7011
1907.88	20.2413
1909.37	22.4827
1910.86	23.0629
1912.35	21.2379
1913.84	20.4959
1915.32	20.6668
1916.81	21.1931
1918.3	19.6633
1919.79	19.3507
1921.28	18.555
1922.76	14.6258
1924.25	14.5244
1925.74	14.5639
1927.22	14.4801
1928.71	11.1863
1930.2	11.1853
1931.68	10.4061
1933.17	13.0668
1934.65	11.8882
1936.14	11.9071
1937.62	12.2133
1939.11	10.723
1940.59	10.5024
1942.08	10.0528
1943.56	12.0482
1945.04	13.6065
1946.53	16.405
1948.01	13.5618
1949.49	12.6595
1950.97	13.6031
1952.45	14.1892
1953.94	13.7
1955.42	10.9555
1956.9	11.6367
1958.38	11.0946
1959.86	12.6497
1961.34	13.1123
1962.82	11.1994
1964.3	10.6806
1965.78	8.05436
1967.26	7.06315
1968.74	7.23544
1970.22	5.57716
1971.69	5.44539
1973.17	6.68584
1974.65	6.23339
1976.13	6.25167
1977.61	7.74757
1979.08	7.9854
1980.56	10.4793
1982.03	11.9372
1983.51	11.9214
1984.99	12.8733
1986.46	17.5412
1987.94	18.8364
1989.41	19.0503
1990.89	20.6336
1992.36	18.6241
1993.84	18.7533
1995.31	18.8187
1996.78	18.318
1998.26	18.7727
1999.73	19.1991
2001.2	18.1649
2002.68	20.0425
2004.15	21.2952
2005.62	21.5816
2007.09	20.5064
2008.56	20.781
2010.04	22.2167
2011.51	21.2249
2012.98	23.096
2014.45	24.089
2015.92	26.0414
2017.39	25.9644
2018.86	25.4121
2020.33	24.6404
2021.8	21.6509
2023.27	22.1392
2024.74	22.4829
2026.2	22.2243
2027.67	22.5363
2029.14	22.5236
2030.61	23.802
2032.07	21.8856
2033.54	24.1435
2035.01	23.6754
2036.47	21.1046
2037.94	21.8943
2039.41	22.0246
2040.87	23.4331
2042.34	22.8317
2043.8	22.3404
2045.27	23.3638
2046.73	24.2632
2048.2	24.6674
2049.66	24.9667
2051.12	26.075
2052.59	27.3622
2054.05	30.0294
2055.51	30.1893
2056.98	31.074
2058.44	33.5814
2059.9	31.3479
2061.36	29.2155
2062.82	29.7258
2064.29	30.7746
2065.75	27.4515
2067.21	27.3358
2068.67	27.6795
2070.13	29.246
2071.59	28.6177
2073.05	29.3963
2074.51	28.9417
2075.97	27.4795
2077.43	26.9896
2078.88	27.7203
2080.34	28.0995
2081.8	30.1067
2083.26	29.0421
2084.72	28.5009
2086.17	31.0473
2087.63	29.7327
2089.09	29.5964
2090.54	30.247
2092	31.0132
2093.46	31.3415
2094.91	29.3015
2096.37	29.2645
2097.82	28.3229
2099.28	28.4109
2100.73	27.6029
2102.19	26.166
2103.64	26.3529
2105.09	25.8082
2106.55	26.4852
2108	24.5731
2109.46	23.2615
2110.91	21.7375
2112.36	20.1192
2113.81	20.0953
2115.27	18.0903
2116.72	17.5935
2118.17	19.6367
2119.62	19.9248
2121.07	18.8969
2122.52	17.3249
2123.97	19.1823
2125.42	20.0067
2126.87	18.166
2128.32	15.6633
2129.77	16.3425
2131.22	14.9128
2132.67	15.5588
2134.12	17.0159
2135.57	14.9683
2137.01	14.62
2138.46	12.3577
2139.91	14.9473
2141.36	15.4513
2142.8	16.5789
2144.25	15.4833
2145.7	19.5814
2147.14	20.7465
2148.59	20.0942
2150.03	22.2161
2151.48	23.9046
2152.92	25.8497
2154.37	26.3153
2155.81	28.5677
2157.26	29.8725
2158.7	30.0192
2160.15	28.7844
2161.59	28.8703
2163.03	28.7755
2164.48	28.0007
2165.92	29.5027
2167.36	29.1012
2168.8	30.8208
2170.25	32.7099
2171.69	35.2996
2173.13	34.6182
2174.57	34.4255
2176.01	34.8021
2177.45	33.14
2178.89	33.5947
2180.33	31.1812
2181.77	31.4196
2183.21	30.2326
2184.65	33.0017
2186.09	33.1438
2187.53	34.0466
2188.97	34.5383
2190.41	37.0746
2191.84	33.7912
2193.28	31.5516
2194.72	31.1291
2196.16	31.3405
2197.59	29.0242
2199.03	27.597
2200.47	27.4131
2201.9	26.6064
2203.34	24.6242
2204.78	27.231
2206.21	26.0894
2207.65	25.809
2209.08	25.8184
2210.51	25.5231
2211.95	26.4569
2213.38	27.1361
2214.82	27.2652
2216.25	29.322
2217.68	30.3288
2219.12	28.4397
2220.55	26.6889
2221.98	28.948
2223.42	29.8321
2224.85	32.1397
2226.28	31.4855
2227.71	31.8928
2229.14	31.1212
2230.57	29.8278
2232	31.4168
2233.43	31.5776
2234.86	33.0449
2236.29	37.0991
2237.72	38.3562
2239.15	38.3317
2240.58	39.5896
2242.01	38.8813
2243.44	38.842
2244.87	37.6708
2246.3	39.2159
2247.73	40.0237
2249.15	39.6108
2250.58	39.7053
2252.01	38.7162
2253.43	41.3628
2254.86	41.6049
2256.29	43.3442
2257.71	41.034
2259.14	42.4811
2260.56	40.8991
2261.99	42.9645
2263.41	41.3859
2264.84	39.6842
2266.26	41.2382
2267.69	39.4889
2269.11	39.8983
2270.54	40.1468
2271.96	40.3631
2273.38	39.0906
2274.81	40.2855
2276.23	39.8249
2277.65	38.2423
2279.07	35.7586
2280.49	33.4447
2281.92	33.5453
2283.34	35.1069
2284.76	36.0023
2286.18	34.3545
2287.6	34.4844
2289.02	34.153
2290.44	34.3892
2291.86	33.6017
2293.28	35.4968
2294.7	36.0286
2296.12	37.6793
2297.54	35.9551
2298.96	36.7885
2300.38	38.1237
2301.79	37.4489
2303.21	39.0151
2304.63	40.9034
2306.05	43.1886
2307.46	43.4208
2308.88	41.9776
2310.3	44.6706
2311.71	44.2164
2313.13	44.8238
2314.55	45.6839
2315.96	46.0788
2317.38	47.6466
2318.79	47.3
2320.21	45.5953
2321.62	45.0519
2323.03	44.8775
2324.45	45.4779
2325.86	45.0757
2327.27	43.1168
2328.69	42.6809
2330.1	44.7757
2331.51	42.1465
2332.93	42.5868
2334.34	38.6153
2335.75	34.7106
2337.16	32.9484
2338.57	30.9648
2339.99	30.1478
2341.4	26.5845
2342.81	22.8419
2344.22	20.6341
2345.63	18.9595
2347.04	17.2037
2348.45	15.1873
2349.86	13.3192
2351.26	12.8169
2352.67	13.2211
2354.08	11.9917
2355.49	8.1233
2356.9	6.70047
2358.31	7.36506
2359.71	8.52243
2361.12	7.26846
2362.53	5.88906
2363.94	5.94528
2365.34	8.06236
2366.75	8.15727
2368.15	7.69497
2369.56	7.81399
2370.97	7.75907
2372.37	6.31311
2373.78	8.31042
2375.18	9.99035
2376.59	10.6602
2377.99	9.52368
2379.39	11.0858
2380.8	12.2546
2382.2	11.5018
2383.61	12.7594
2385.01	11.1238
2386.41	11.4267
2387.81	10.0405
2389.22	7.7899
2390.62	5.73752
2392.02	8.06026
2393.42	8.79404
2394.82	11.8823
2396.22	11.1687
2397.63	12.6139
2399.02	15.0701
2400.43	15.1074
2401.82	12.9695
2403.23	14.8089
2404.62	14.9526
2406.02	15.7311
2407.42	19.371
2408.82	21.8571
2410.22	22.7089
2411.62	25.0001
2413.02	26.8825
2414.41	30.7902
2415.81	31.7057
2417.21	34.2701
2418.61	34.8
2420	35.7253
2421.4	37.3631
2422.79	37.0082
2424.19	37.2349
2425.59	39.7111
2426.98	42.4872
2428.38	41.6986
2429.77	41.7444
2431.17	40.7064
2432.56	39.3333
2433.96	39.6607
2435.35	39.8522
2436.74	37.9918
2438.14	38.6955
2439.53	38.1499
2440.92	37.6592
2442.32	34.3872
2443.71	35.4999
2445.1	34.038
2446.49	31.6457
2447.88	28.4013
2449.28	26.3027
2450.67	23.4832
2452.06	21.8353
2453.45	19.6758
2454.84	17.2338
2456.23	15.6142
2457.62	14.9985
2459.01	15.5081
2460.4	16.3313
2461.79	17.5352
2463.18	15.8874
2464.57	15.1344
2465.96	13.6359
2467.34	13.1725
2468.73	11.5651
2470.12	10.9176
2471.51	10.2427
2472.89	9.38321
2474.28	9.7344
2475.67	9.2387
2477.05	9.99795
2478.44	7.14473
2479.83	6.47851
2481.21	5.12448
2482.6	3.61835
2483.98	4.06866
2485.37	3.08882
2486.75	5.332
2488.14	4.97689
2489.52	3.40926
2490.9	4.10703
2492.29	3.74617
2493.67	3.88703
2495.06	5.06866
2496.44	3.42488
2497.82	1.77936
2499.2	1.64765
2500.59	0.749003
2501.97	1.02953
2503.35	1.53579
2504.73	1.868
2506.11	2.75519
2507.49	2.89884
2508.88	0.439071
2510.26	-0.177285
2511.63	0.0817323
2513.01	3.26483
2514.39	2.27826
2515.77	1.84727
2517.15	1.83283
2518.53	2.69194
2519.91	3.21802
2521.29	4.13284
2522.67	6.20988
2524.05	6.76423
2525.42	8.26263
2526.8	10.28
2528.18	12.1232
2529.56	11.8789
2530.93	12.4546
2532.31	13.8429
2533.69	14.08
2535.06	14.5131
2536.44	12.8806
2537.81	14.9315
2539.19	15.6863
2540.56	16.7394
2541.94	17.0506
2543.31	18.2654
2544.69	18.6379
2546.06	19.5537
2547.44	20.3235
2548.81	21.4891
2550.18	22.4294
2551.56	25.0831
2552.93	25.0038
2554.3	25.7741
2555.68	26.1738
2557.05	25.3328
2558.42	25.3308
2559.79	25.9281
2561.16	25.7471
2562.53	25.3163
2563.9	24.9632
2565.28	21.6103
2566.64	20.3641
2568.02	20.4009
2569.38	21.3135
2570.76	21.8126
2572.12	20.445
2573.49	20.1913
2574.86	19.288
2576.23	18.318
2577.6	17.444
2578.97	17.2188
2580.34	16.8268
2581.7	15.4667
2583.07	14.3965
2584.44	13.4268
2585.81	12.6099
2587.17	13.0637
2588.54	12.6532
2589.91	13.1962
2591.27	13.7875
2592.64	14.5524
2594	13.9122
2595.37	16.0247
2596.73	16.9244
2598.1	16.2894
2599.46	15.3608
2600.83	14.5146
2602.19	14.4706
2603.55	13.5421
2604.92	12.3045
2606.28	12.8877
2607.64	13.7342
2609.01	13.4439
2610.37	12.3249
2611.73	12.9008
2613.09	13.008
2614.46	13.2366
2615.82	14.0579
2617.18	12.9657
2618.54	11.5665
2619.9	9.78958
2621.26	8.01776
2622.62	8.18656
2623.98	7.52737
2625.34	7.45965
2626.7	5.94403
2628.06	4.88555
2629.42	4.95473
2630.78	6.22753
2632.14	5.69733
2633.5	6.08502
2634.86	7.79175
2636.22	11.3784
2637.57	13.6866
2638.93	14.0074
2640.29	14.0469
2641.64	14.5536
2643	16.0436
2644.36	15.138
2645.72	15.3452
2647.07	15.7305
2648.43	17.0288
2649.78	16.6101
2651.14	18.3646
2652.49	19.8147
2653.85	20.1455
2655.2	20.027
2656.56	20.6952
2657.91	20.5133
2659.27	21.8347
2660.62	22.7274
2661.97	23.8429
2663.33	25.0598
2664.68	24.2672
2666.03	24.7788
2667.38	24.0717
2668.74	24.3741
2670.09	24.9829
2671.44	25.0975
2672.79	24.033
2674.14	25.9063
2675.49	27.6384
2676.84	26.8248
2678.2	25.598
2679.55	26.2976
2680.89	25.3862
2682.24	25.4918
2683.59	24.6038
2684.94	22.8066
2686.29	21.1739
2687.64	20.7669
2688.99	21.3543
2690.34	22.182
2691.69	22.2007
2693.04	23.6817
2694.38	24.3539
2695.73	23.2145
2697.08	24.4937
2698.43	27.0011
2699.77	26.8533
2701.12	26.826
2702.46	27.8148
2703.81	27.5278
2705.16	27.0522
2706.5	24.9855
2707.85	24.2384
2709.19	24.5263
2710.54	26.0482
2711.88	23.7988
2713.23	24.4455
2714.57	23.1761
2715.92	25.0379
2717.26	25.7371
2718.6	25.9433
2719.95	25.3048
2721.29	23.49
2722.63	23.5107
2723.97	24.72
2725.32	24.0954
2726.66	24.0458
2728	24.203
2729.34	23.9924
2730.68	21.9141
2732.02	21.0335
2733.36	19.3041
2734.7	17.2739
2736.04	17.7188
2737.39	17.8461
2738.72	16.4628
2740.06	14.613
2741.4	14.689
2742.74	13.8091
2744.08	9.88791
2745.42	10.2367
2746.76	10.9903
2748.1	8.04639
2749.44	7.84649
2750.77	7.59637
2752.11	6.8715
2753.45	4.87138
2754.78	4.87925
2756.12	3.52858
2757.46	2.61767
2758.79	1.82248
2760.13	1.81956
2761.47	-1.31824
2762.8	-2.24843
2764.14	0.275757
2765.47	1.23354
2766.81	0.424113
2768.14	1.70067
2769.48	2.35378
2770.81	1.4668
2772.14	3.08492
2773.48	4.44138
2774.81	5.72864
2776.14	6.74271
2777.48	7.02403
2778.81	5.20039
2780.14	7.68181
2781.47	8.95686
2782.81	9.37091
2784.14	9.60832
2785.47	9.34223
2786.8	9.56731
2788.13	8.77678
2789.46	9.70721
2790.79	8.85987
2792.12	8.40594
2793.46	8.06195
2794.79	6.91212
2796.11	4.89558
2797.44	4.04944
2798.77	3.64879
2800.1	4.43032
2801.43	3.9472
2802.76	4.80135
2804.09	4.44127
2805.42	2.8237
2806.74	4.04147
2808.07	3.08576
2809.4	2.75896
2810.73	0.817371
2812.05	2.06445
2813.38	1.04663
2814.71	-0.343859
2816.03	2.42903
2817.36	1.65287
2818.68	1.54903
2820.01	1.53148
2821.33	4.22168
2822.66	4.12836
2823.98	5.76597
2825.31	8.3954
2826.63	10.2387
2827.96	12.6128
2829.28	15.8706
2830.61	17.5706
2831.93	18.4693
2833.25	19.541
2834.57	22.3755
2835.9	24.6446
2837.22	27.0341
2838.54	30.7142
2839.86	33.6548
2841.18	35.4304
2842.51	39.2104
2843.83	41.4968
2845.15	45.5629
2846.47	50.0962
2847.79	52.6592
2849.11	55.1841
2850.43	60.4733
2851.75	62.8174
2853.07	63.5208
2854.39	65.1483
2855.71	68.0312
2857.03	69.9627
2858.35	73.1843
2859.67	73.1871
2860.98	75.7209
2862.3	78.2971
2863.62	82.2562
2864.94	84.0157
2866.25	85.326
2867.57	86.7632
2868.89	87.5387
2870.21	87.721
2871.52	88.6065
2872.84	89.2136
2874.15	89.952
2875.47	90.3515
2876.78	91.3372
2878.1	93.974
2879.42	94.7449
2880.73	95.1292
2882.04	96.1025
2883.36	96.37
2884.67	97.9766
2885.99	101.024
2887.3	103.925
2888.61	105.499
2889.93	107.22
2891.24	109.174
2892.55	110.101
2893.87	109.431
2895.18	107.103
2896.49	107.503
2897.8	109.047
2899.11	112.763
2900.42	115.87
2901.74	118.917
2903.05	120.702
2904.36	123.129
2905.67	126.187
2906.98	130.318
2908.29	134.823
2909.6	136.649
2910.91	141.193
2912.22	144.726
2913.53	148.676
2914.83	151.997
2916.14	156.343
2917.45	160.288
2918.76	163.334
2920.07	166.421
2921.37	169.652
2922.68	171.238
2923.99	173.449
2925.3	175.048
2926.6	179.405
2927.91	181.55
2929.22	183.208
2930.52	184.149
2931.83	184.405
2933.13	184.988
2934.44	185.637
2935.74	187.734
2937.05	188.789
2938.35	188.326
2939.66	190.905
2940.96	189.245
2942.27	188.109
2943.57	186.554
2944.87	185.61
2946.18	184.907
2947.48	182.865
2948.78	182.721
2950.09	181.208
2951.39	180.15
2952.69	176.616
2953.99	172.664
2955.29	169.12
2956.6	165.785
2957.9	160.997
2959.2	156.68
2960.5	154.331
2961.8	153.524
2963.1	150.131
2964.4	148.015
2965.7	145.891
2967	142.859
2968.3	139.982
2969.6	137.044
2970.9	135.824
2972.2	132.684
2973.49	129.952
2974.79	126.559
2976.09	124.336
2977.39	123.124
2978.69	119.895
2979.98	116.969
2981.28	113.756
2982.58	109.498
2983.88	104.907
2985.17	100.865
2986.47	97.819
2987.76	92.8641
2989.06	91.4425
2990.36	87.4196
2991.65	82.8028
2992.95	79.3349
2994.24	75.9953
2995.54	70.5733
2996.83	64.4365
2998.12	60.5514
2999.42	58.9742
3000.71	55.6573
3002	51.6134
3003.3	48.0636
3004.59	43.7667
3005.88	39.5606
3007.18	36.6162
3008.47	33.3142
3009.76	29.5997
3011.05	25.9416
3012.35	23.8942
3013.64	22.1541
3014.93	20.3556
3016.22	18.6494
3017.51	17.36
3018.8	15.5389
3020.09	13.86
3021.38	11.0982
3022.67	6.72124
3023.96	6.16601
3025.25	4.85008
3026.54	4.93101
3027.83	5.07723
3029.12	5.96177
3030.41	7.52444
3031.69	6.55676
3032.98	5.86018
3034.27	3.95186
3035.56	4.6323
3036.85	3.83694
3038.13	3.43887
3039.42	3.34561
3040.71	4.1206
3041.99	5.10911
3043.28	5.43619
3044.57	7.31756
3045.85	7.01008
3047.14	7.98678
3048.42	7.73036
3049.71	7.40061
3050.99	6.58205
3052.28	5.09545
3053.56	7.15832
3054.85	6.99534
3056.13	6.80089
3057.42	8.38285
3058.7	8.13691
3059.98	7.67822
3061.27	10.8152
3062.55	13.7889
3063.83	17.1551
3065.11	18.2536
3066.4	20.1777
3067.68	22.4823
3068.96	25.9182
3070.24	29.7984
3071.52	30.2349
3072.8	31.8377
3074.09	34.1654
3075.37	39.0908
3076.65	40.2684
3077.93	42.9654
3079.21	45.4801
3080.49	47.7579
3081.77	50.4029
3083.05	52.5523
3084.32	54.5008
3085.61	57.5161
3086.88	60.2033
3088.16	66.5015
3089.44	70.1579
3090.72	73.2742
3092	75.8504
3093.27	77.9744
3094.55	81.4981
3095.83	83.0661
3097.11	85.3338
3098.38	88.4152
3099.66	92.7282
3100.94	94.5188
3102.21	97.9387
3103.49	102.307
3104.76	105.725
3106.04	108.736
3107.31	114.382
3108.59	117.377
3109.86	118.036
3111.14	122.18
3112.41	125.467
3113.69	129.537
3114.96	133.614
3116.23	137.676
3117.51	141.662
3118.78	144.921
3120.05	148.147
3121.33	152.164
3122.6	156.209
3123.87	161.123
3125.14	165.635
3126.42	169.106
3127.69	173.173
3128.96	177.461
3130.23	181.561
3131.5	185.167
3132.77	189.162
3134.04	190.861
3135.31	192.95
3136.58	197.77
3137.85	200.684
3139.12	204.084
3140.39	205.482
3141.66	209.205
3142.93	211.232
3144.2	213.101
3145.47	214.161
3146.74	215
3148	216.512
3149.27	216.462
