#Acq. time (s)=	45
#Accumulations=	2
#Range (cm-¹)=	200...3150
#Windows=	2
#Auto scanning=	Off
#Autofocus=	Off
#Macrospot=	Off
#AutoExposure=	Off
#Spike filter=	Multiple accum.
#Delay time (s)=	0
#Binning=	1
#Readout mode=	Signal
#DeNoise=	Off
#ICS correction=	On
#Dark correction=	Off
#Inst. Process=	Off
#Detector Gain=	Best Dynamic Range
#Detector ADC=	20 kHz       
#Detector temperature (°C)=	-69.85
#Instrument=	LabRAM HR Evol
#Detector=	Synapse
#Objective=	x100
#Grating=	600 gr/mm
#ND Filter=	100%
#Laser (nm)=	532 
#Hole=	100.021
#Range=	Auto
#Laser Pol.=	No
#Raman. Pol.=	No
#Laser Pol. (°)=	-0.0007625
#Raman Pol. (°)=	89.9995
#Collection=	Microscope
#StageXY=	Marzhauser
#StageZ=	Marzhauser
#X (µm)=	28246.7
#Y (µm)=	-3221.3
#Z (µm)=	1041.05
#Full time(mm:ss)=	3:19
#Project=	
#Sample=	
#Site=	
#Title=	Mb_50_18_38_2x_45s_532 nm_x100_100%_600 gr_mm
#Remark=	
#Date=	12.07.2022 13:54
#Acquired=	12.07.2022 13:54:23
#Base:Fit=	10.08.2022 10:49:18
#Base:Sub=	10.08.2022 10:49:30
#Filter:Polynom=	16.08.2022 10:14:59
#AxisType[0]=Intens
#AxisUnit[0]=Cnt
#AxisType[1]=Spectr
#AxisUnit[1]=1/cm
200.388	99.8525
202.204	97.3774
204.019	96.4014
205.832	94.35
207.646	91.5923
209.459	88.5185
211.274	85.55
213.087	81.2945
214.899	78.0499
216.711	73.5588
218.524	69.4994
220.335	66.1359
222.146	62.7049
223.956	59.313
225.766	55.8021
227.576	49.8642
229.388	48.2607
231.197	44.5984
233.005	42.1
234.813	39.6982
236.621	37.4689
238.429	35.4946
240.236	34.0199
242.045	31.1804
243.852	30.2944
245.658	28.3155
247.464	24.9759
249.269	22.0738
251.074	18.95
252.879	17.1201
254.683	15.6036
256.487	13.1864
258.291	12.4736
260.094	11.9487
261.897	11.5681
263.702	11.4484
265.504	10.3188
267.306	10.2439
269.108	8.39398
270.909	8.22778
272.71	7.59172
274.511	7.29558
276.311	6.70292
278.111	5.8467
279.91	4.75415
281.709	4.41448
283.508	4.34294
285.306	3.51055
287.105	3.30333
288.9	4.20146
290.698	6.03308
292.495	6.57674
294.291	6.52155
296.088	7.99973
297.884	8.96738
299.679	9.75068
301.475	11.4251
303.27	10.8974
305.064	12.0463
306.858	12.4421
308.652	14.0177
310.444	14.7414
312.237	14.1091
314.03	14.8801
315.822	15.1977
317.615	15.4103
319.406	18.5971
321.198	18.2634
322.987	19.1446
324.778	17.9519
326.568	18.6904
328.358	17.5513
330.148	15.827
331.935	13.8301
333.724	11.9313
335.513	9.1368
337.301	6.07107
339.089	4.43917
340.875	4.58302
342.662	4.94399
344.449	5.24031
346.236	6.88517
348.02	8.7747
349.806	10.8471
351.592	12.3255
353.375	15.5406
355.16	17.9923
356.944	21.9815
358.728	26.6113
360.51	32.0037
362.294	36.4727
364.077	41.7344
365.858	47.2852
367.64	52.8927
369.422	58.5735
371.202	63.2262
372.983	67.5015
374.764	70.2513
376.543	73.9945
378.324	78.8958
380.102	81.2573
381.881	84.0118
383.661	86.8975
385.438	89.2169
387.216	89.7799
388.993	90.1856
390.771	89.6335
392.548	89.1984
394.324	88.0492
396.101	86.7548
397.875	84.5794
399.651	81.876
401.425	78.9034
403.201	76.5668
404.974	71.5682
406.749	66.9435
408.524	62.1512
410.296	55.851
412.07	50.034
413.841	43.7254
415.614	38.6624
417.385	31.1003
419.156	25.3956
420.928	18.7214
422.698	12.6627
424.469	8.36
426.238	3.83385
428.009	1.43129
429.777	-0.934228
431.548	-3.12987
433.315	-5.28139
435.083	-6.05669
436.852	-6.58721
438.618	-5.66428
440.387	-5.3886
442.153	-3.28556
443.919	-2.3378
445.686	-0.165791
447.451	1.22447
449.218	2.29559
450.982	3.29742
452.746	4.22812
454.512	4.20158
456.275	2.45386
458.038	1.91661
459.803	0.258573
461.565	0.722994
463.327	0.265556
465.091	0.690915
466.852	0.00783677
468.613	-0.546815
470.374	0.509735
472.136	1.42877
473.896	1.87236
475.655	3.05449
477.415	4.86635
479.176	7.50797
480.934	11.3262
482.692	14.7599
484.45	19.5795
486.21	24.5857
487.967	29.8009
489.724	34.3658
491.481	39.0749
493.237	44.9884
494.995	51.4822
496.75	57.9426
498.506	63.8424
500.26	70.1951
502.015	74.7409
503.771	80.5086
505.525	84.4313
507.279	88.2291
509.032	90.0373
510.785	94.1687
512.537	98.6754
514.289	101.255
516.041	103.523
517.793	104.991
519.546	106.723
521.297	107.135
523.047	107.682
524.797	107.627
526.547	106.477
528.297	104.837
530.046	102.475
531.795	99.6553
533.543	97.0596
535.291	92.8388
537.039	88.5414
538.787	84.3769
540.534	78.129
542.281	71.5309
544.027	64.9266
545.773	59.0552
547.519	52.6336
549.264	46.6305
551.01	40.0281
552.754	33.6866
554.499	28.5202
556.243	23.324
557.987	20.032
559.73	16.2058
561.474	13.0245
563.216	11.5373
564.959	11.1128
566.701	9.78577
568.441	9.77051
570.182	9.60256
571.923	8.98514
573.664	9.31771
575.405	9.18356
577.145	10.1831
578.885	10.8511
580.624	12.2407
582.361	11.539
584.1	12.9166
585.839	13.6127
587.577	14.6539
589.315	14.6358
591.052	15.1005
592.787	14.4343
594.524	15.5261
596.26	16.841
597.997	19.6045
599.732	20.0518
601.466	19.1212
603.201	19.8498
604.936	18.9697
606.67	18.9744
608.403	18.614
610.136	18.1783
611.87	18.6845
613.603	18.2417
615.334	18.5008
617.067	17.5766
618.799	17.8001
620.529	17.3753
622.26	15.6362
623.991	13.4649
625.72	13.0032
627.451	10.8636
629.181	9.57177
630.909	8.7009
632.638	9.12735
634.368	8.92589
636.095	7.23089
637.823	5.87995
639.551	4.35645
641.277	3.57865
643.005	3.52885
644.73	3.92611
646.457	3.07527
648.184	3.87061
649.908	3.82951
651.634	3.77804
653.357	1.7701
655.083	2.10306
656.806	1.25033
658.53	0.357512
660.253	0.817329
661.977	-0.102783
663.7	-0.0919513
665.422	-1.34256
667.145	-0.592339
668.865	-0.707668
670.588	0.0700781
672.308	0.921929
674.027	0.774065
675.749	1.73656
677.468	2.80714
679.188	3.88512
680.907	6.2721
682.627	7.73414
684.345	9.18519
686.064	9.01944
687.781	9.70363
689.498	9.68654
691.216	9.88932
692.932	11.6955
694.65	11.9544
696.366	12.4602
698.081	13.0728
699.797	13.4756
701.512	15.1019
703.228	15.0419
704.942	15.8664
706.655	16.7448
708.371	16.7551
710.083	17.0958
711.796	18.5066
713.51	18.6649
715.222	19.2201
716.934	19.9318
718.645	19.9932
720.358	18.6788
722.068	17.1305
723.779	15.9239
725.49	15.5748
727.2	14.4674
728.909	14.6726
730.618	15.3556
732.329	17.0289
734.037	19.2585
735.745	23.0959
737.453	28.2744
739.16	34.5952
740.869	42.7089
742.576	51.8657
744.282	60.9664
745.988	71.7639
747.694	81.4178
749.401	91.5409
751.107	101.932
752.811	113.185
754.516	122.711
756.22	131.801
757.924	140.95
759.627	149.485
761.332	158.011
763.035	165.256
764.738	170.82
766.44	177.015
768.142	181.001
769.843	184.419
771.544	186.815
773.245	188.743
774.946	190.791
776.646	191.798
778.346	192.104
780.046	190.937
781.745	188.208
783.444	185.883
785.143	182.171
786.841	178.439
788.539	173.118
790.237	168.109
791.934	161.693
793.631	154.286
795.328	146.881
797.024	138.74
798.72	130.212
800.416	121.638
802.112	112.45
803.807	102.433
805.502	92.8277
807.196	84.0492
808.89	75.347
810.584	69.1216
812.278	62.9268
813.971	59.6528
815.664	57.5941
817.354	55.2292
819.047	54.0027
820.739	54.7607
822.43	55.3066
824.122	56.0777
825.813	57.4428
827.503	58.3237
829.192	58.5578
830.882	60.8458
832.571	61.2865
834.261	61.5279
835.95	63.1563
837.637	63.1404
839.325	62.5222
841.013	62.3085
842.701	61.8774
844.389	61.7196
846.074	59.8954
847.761	59.3524
849.447	58.8977
851.131	58.6839
852.817	57.4066
854.503	56.9021
856.188	56.398
857.871	55.5293
859.556	54.3122
861.24	52.4378
862.922	51.7634
864.606	49.7491
866.289	48.6796
867.97	47.9765
869.653	47.0285
871.336	47.5631
873.016	45.283
874.698	43.608
876.379	42.0537
878.058	41.4559
879.739	39.9573
881.418	37.988
883.098	36.405
884.778	35.3065
886.456	33.4349
888.135	30.6241
889.812	30.272
891.49	30.2079
893.167	28.4596
894.845	29.4654
896.523	28.4618
898.198	29.148
899.875	29.5656
901.55	28.9845
903.226	29.2609
904.901	28.4588
906.576	29.5334
908.25	30.5555
909.925	31.3113
911.598	31.2726
913.271	31.8275
914.945	31.7589
916.617	30.7291
918.291	30.0147
919.962	30.0788
921.635	30.6461
923.306	30.7247
924.978	29.9668
926.648	29.7126
928.318	29.8691
929.989	28.4157
931.659	27.8461
933.328	27.2848
934.998	25.5238
936.666	25.068
938.336	25.1669
940.004	24.2643
941.671	22.411
943.34	20.7038
945.007	20.486
946.673	20.9789
948.339	20.5207
950.007	20.2986
951.672	18.5407
953.337	17.4768
955.004	16.3572
956.669	14.6214
958.333	13.3141
959.997	11.4649
961.662	10.3906
963.326	9.13373
964.989	9.27478
966.651	10.325
968.315	10.7048
969.977	12.1354
971.639	15.4408
973.301	20.6474
974.962	24.7919
976.624	28.0648
978.285	32.6474
979.945	35.8244
981.605	39.3294
983.264	42.4241
984.924	44.3885
986.583	46.746
988.243	48.6868
989.901	53.6375
991.56	56.6021
993.217	60.8527
994.875	66.2838
996.532	71.9598
998.188	78.7142
999.845	86.808
1001.5	95.0859
1003.16	102.337
1004.81	110.215
1006.47	116.651
1008.12	125.014
1009.78	131.737
1011.43	137.83
1013.09	143.574
1014.74	149.419
1016.39	155.546
1018.05	160.018
1019.7	163.575
1021.35	166.478
1023	169.028
1024.65	170.012
1026.31	172.591
1027.96	171.924
1029.61	172.255
1031.26	170.314
1032.91	168.6
1034.56	165.289
1036.21	161.341
1037.86	158.666
1039.51	156.164
1041.16	149.61
1042.8	146.225
1044.45	142.802
1046.1	138.748
1047.75	135.981
1049.39	133.975
1051.04	131.677
1052.69	130.841
1054.33	129.103
1055.98	126.942
1057.62	123.625
1059.27	120.019
1060.91	116.782
1062.56	114.416
1064.2	112.094
1065.85	110.86
1067.49	108.533
1069.13	108.594
1070.77	110.167
1072.42	113.101
1074.06	114.696
1075.7	117.921
1077.34	120.179
1078.98	122.121
1080.62	123.983
1082.27	124.6
1083.91	125.674
1085.55	126.598
1087.18	128.523
1088.82	129.081
1090.46	130.021
1092.1	128.845
1093.74	129.098
1095.38	127.628
1097.02	125.725
1098.65	124.03
1100.29	120.435
1101.93	117.766
1103.56	115.012
1105.2	111.995
1106.84	106.972
1108.47	103.441
1110.11	98.3209
1111.74	95.1351
1113.38	89.5903
1115.01	83.945
1116.64	77.5493
1118.28	71.4325
1119.91	67.0689
1121.54	61.7855
1123.18	55.3021
1124.81	52.3724
1126.44	47.6442
1128.07	43.8436
1129.7	42.7029
1131.33	41.6309
1132.97	39.0765
1134.6	36.8372
1136.23	35.9611
1137.86	35.8767
1139.49	34.8477
1141.11	33.3431
1142.74	32.7496
1144.37	32.8126
1146	31.6862
1147.63	30.2721
1149.26	29.1117
1150.88	28.2625
1152.51	27.6523
1154.14	26.6045
1155.76	23.7827
1157.39	22.4213
1159.01	20.7471
1160.64	18.7633
1162.27	17.2725
1163.89	17.1757
1165.51	18.2773
1167.14	19.1166
1168.76	18.0671
1170.39	17.6022
1172.01	19.4528
1173.63	19.2212
1175.25	19.3591
1176.88	19.049
1178.5	19.1585
1180.12	19.2932
1181.74	20.2839
1183.36	20.8199
1184.98	20.8077
1186.6	21.2277
1188.22	20.8417
1189.84	21.655
1191.46	21.8032
1193.08	22.2885
1194.7	21.9522
1196.32	22.5622
1197.94	22.4046
1199.55	23.0306
1201.17	23.7814
1202.79	24.799
1204.41	25.8978
1206.02	28.449
1207.64	28.9279
1209.25	31.4583
1210.87	34.6709
1212.48	36.9964
1214.1	38.3492
1215.71	40.7529
1217.33	43.2328
1218.94	45.1831
1220.56	45.7217
1222.17	47.2984
1223.79	49.7579
1225.4	51.1027
1227.01	52.6231
1228.62	53.7868
1230.23	55.2831
1231.85	55.988
1233.46	58.3208
1235.07	59.6032
1236.68	60.737
1238.29	61.9454
1239.9	63.2495
1241.51	63.7502
1243.12	66.8355
1244.73	68.7279
1246.34	69.6525
1247.94	70.3258
1249.55	71.0201
1251.16	72.5463
1252.77	74.6037
1254.37	74.1377
1255.98	75.2107
1257.59	75.914
1259.2	76.8663
1260.8	78.909
1262.41	80.6546
1264.01	82.1452
1265.62	84.1099
1267.22	86.3956
1268.83	88.8255
1270.43	92.8914
1272.03	96.5198
1273.64	100.321
1275.24	103.328
1276.85	107.307
1278.45	110.039
1280.05	113.002
1281.65	115.027
1283.25	119.134
1284.85	122.701
1286.46	124.443
1288.06	126.948
1289.66	130.193
1291.26	132.898
1292.86	133.865
1294.46	135.155
1296.06	136.448
1297.66	137.168
1299.25	137.925
1300.85	138.704
1302.45	140.318
1304.05	138.527
1305.65	138.437
1307.24	138.074
1308.84	136.179
1310.43	134.531
1312.03	133.09
1313.63	131.006
1315.22	129.244
1316.82	127.307
1318.41	122.42
1320.01	120.165
1321.6	116.556
1323.2	114.057
1324.79	109.847
1326.38	107.045
1327.98	103.488
1329.57	99.8273
1331.16	94.8328
1332.76	91.653
1334.35	87.9698
1335.94	85.5314
1337.53	82.9916
1339.12	80.3893
1340.71	79.2288
1342.3	75.921
1343.89	73.3413
1345.48	71.523
1347.07	71.3918
1348.66	70.1575
1350.25	69.9179
1351.84	67.8732
1353.43	66.1735
1355.01	64.5211
1356.6	62.8162
1358.19	60.1675
1359.77	57.8723
1361.36	56.4129
1362.95	55.3787
1364.53	54.3016
1366.12	53.1969
1367.71	52.4467
1369.29	48.9095
1370.88	47.0658
1372.46	44.5987
1374.04	43.5693
1375.63	42.847
1377.21	42.0005
1378.8	41.5552
1380.38	41.3689
1381.96	39.6685
1383.54	37.4942
1385.13	37.988
1386.71	35.6309
1388.29	34.2866
1389.87	33.2553
1391.45	31.9228
1393.03	29.68
1394.61	29.8567
1396.19	28.6611
1397.77	27.4103
1399.35	29.6094
1400.93	32.1641
1402.51	35.8515
1404.09	40.0805
1405.67	44.6569
1407.24	49.1206
1408.82	55.2626
1410.4	62.2429
1411.98	69.4741
1413.55	76.3892
1415.13	84.5662
1416.71	91.9328
1418.28	98.9538
1419.86	107
1421.43	115.597
1423.01	125.25
1424.58	134.775
1426.16	143.704
1427.73	152.893
1429.31	161.792
1430.88	170.056
1432.45	177.435
1434.02	184.468
1435.6	190.579
1437.17	195.905
1438.74	201.755
1440.31	205.389
1441.88	208.302
1443.45	209.988
1445.03	209.789
1446.6	208.728
1448.17	208.244
1449.74	207.319
1451.3	204.842
1452.87	202.733
1454.44	199.226
1456.01	195.243
1457.58	189.431
1459.15	182.303
1460.72	174.323
1462.28	166.467
1463.85	157.587
1465.42	147.44
1466.98	138.547
1468.55	128.502
1470.12	119.85
1471.68	111.269
1473.25	103.349
1474.81	94.6013
1476.38	86.6021
1477.94	79.6338
1479.51	73.5781
1481.07	66.6288
1482.63	59.8077
1484.2	53.3383
1485.76	47.632
1487.32	41.2713
1488.88	36.1477
1490.45	30.147
1492.01	26.042
1493.57	23.1664
1495.13	18.6303
1496.69	15.8353
1498.25	14.4073
1499.81	12.8561
1501.37	10.2229
1502.93	8.85799
1504.49	6.96813
1506.05	6.15041
1507.61	4.00544
1509.17	2.89776
1510.73	1.76022
1512.28	0.891187
1513.84	0.0450073
1515.4	-1.36632
1516.96	-2.32317
1518.51	-4.35723
1520.07	-4.28878
1521.63	-4.3444
1523.18	-3.51919
1524.74	-2.35157
1526.29	-1.29692
1527.85	-0.111151
1529.4	1.96934
1530.96	3.83603
1532.51	4.91388
1534.06	7.76481
1535.62	8.72657
1537.17	10.1144
1538.72	11.4926
1540.28	12.8966
1541.83	14.304
1543.38	17.0606
1544.93	19.447
1546.48	22.137
1548.03	25.6036
1549.59	26.7532
1551.14	28.3721
1552.69	29.7336
1554.24	31.4724
1555.79	32.2738
1557.34	33.1126
1558.88	33.6721
1560.43	34.1833
1561.98	37.0362
1563.53	39.4342
1565.08	41.8837
1566.62	46.0458
1568.17	48.9213
1569.72	52.8626
1571.27	56.2632
1572.81	59.1432
1574.36	62.4139
1575.9	65.61
1577.45	68.2934
1579	71.9629
1580.54	74.5219
1582.09	77.0036
1583.63	79.644
1585.17	81.4308
1586.72	83.3337
1588.26	84.7449
1589.8	85.5951
1591.35	87.0432
1592.89	88.5559
1594.43	90.5667
1595.97	91.2274
1597.52	91.9232
1599.06	92.4928
1600.6	92.4281
1602.14	92.0693
1603.68	92.5033
1605.22	92.4046
1606.76	91.8466
1608.3	91.2628
1609.84	90.6619
1611.38	89.79
1612.92	87.4132
1614.46	84.9557
1615.99	84.0387
1617.53	83.2782
1619.07	83.9301
1620.61	84.18
1622.14	82.8069
1623.68	83.0201
1625.22	81.8537
1626.75	81.2092
1628.29	81.1081
1629.82	80.8665
1631.36	81.755
1632.9	81.7013
1634.43	83.4822
1635.96	86.0524
1637.5	88.7442
1639.03	92.7259
1640.57	94.9548
1642.1	96.8013
1643.63	99.3859
1645.16	101.011
1646.7	102.874
1648.23	105.519
1649.76	107.146
1651.29	108.694
1652.82	110.774
1654.36	112.451
1655.89	112.93
1657.42	112.439
1658.95	113.13
1660.48	112.458
1662.01	112.585
1663.53	111.492
1665.06	110.296
1666.59	108.037
1668.12	106.867
1669.65	104.763
1671.18	100.965
1672.7	96.3281
1674.23	93.6762
1675.76	90.7852
1677.29	86.5483
1678.81	82.3667
1680.34	79.4722
1681.86	74.834
1683.39	70.9003
1684.91	67.1881
1686.44	63.0048
1687.96	58.7801
1689.49	54.173
1691.01	50.7514
1692.54	48.3449
1694.06	44.9931
1695.58	43.3745
1697.11	39.1941
1698.63	36.7303
1700.15	35.0104
1701.67	32.9429
1703.2	32.3446
1704.72	31.8382
1706.24	30.8798
1707.76	29.86
1709.28	27.8715
1710.8	27.7169
1712.32	26.7789
1713.84	25.4076
1715.36	24.3223
1716.88	23.8868
1718.4	23.1518
1719.91	23.1792
1721.43	22.1941
1722.95	22.2288
1724.47	23.0238
1725.99	22.5619
1727.5	22.6713
1729.02	22.432
1730.54	21.9691
1732.05	21.4662
1733.57	21.8936
1735.09	22.4365
1736.6	22.0201
1738.12	21.401
1739.63	20.7398
1741.15	20.3673
1742.66	19.0212
1744.18	18.4776
1745.69	17.3001
1747.2	16.2652
1748.72	16.1077
1750.23	16.8484
1751.74	15.7194
1753.25	15.2342
1754.77	14.3073
1756.28	13.6965
1757.79	12.6243
1759.3	12.8164
1760.81	12.2978
1762.32	10.7061
1763.83	8.96445
1765.34	8.32261
1766.85	8.0818
1768.36	7.32644
1769.87	6.38833
1771.38	6.08039
1772.89	5.02913
1774.4	5.78088
1775.91	6.03353
1777.41	6.46117
1778.92	6.40327
1780.43	5.83375
1781.94	4.67348
1783.44	4.11961
1784.95	3.86726
1786.45	3.80379
1787.96	2.69694
1789.47	2.37396
1790.97	2.27496
1792.48	2.67544
1793.98	1.8758
1795.48	1.60794
1796.99	1.40105
1798.49	1.98941
1800	1.9849
1801.5	1.44858
1803	1.95354
1804.51	1.88007
1806.01	2.51548
1807.51	3.7636
1809.01	3.61553
1810.51	3.55974
1812.02	3.24855
1813.52	2.73167
1815.02	2.42983
1816.52	2.05684
1818.02	2.18878
1819.52	2.29692
1821.02	2.80475
1822.52	3.04969
1824.02	2.98195
1825.51	3.47013
1827.01	3.20888
1828.51	3.43198
1830.01	3.39737
1831.51	4.02259
1833	4.27061
1834.5	4.47626
1836	3.99585
1837.5	3.6052
1838.99	3.8972
1840.49	4.0594
1841.98	3.51158
1843.48	2.91306
1844.97	1.99671
1846.47	1.86858
1847.96	2.20624
1849.46	2.61084
1850.95	2.27127
1852.45	1.8984
1853.94	1.97476
1855.43	1.73705
1856.92	1.91751
1858.42	2.05156
1859.91	1.71622
1861.4	0.625999
1862.89	1.31334
1864.39	1.95986
1865.88	1.85718
1867.37	2.02393
1868.86	2.06413
1870.35	2.17903
1871.84	2.36364
1873.33	3.18397
1874.82	2.95896
1876.31	4.56818
1877.8	5.12587
1879.29	4.55232
1880.77	5.0139
1882.26	5.27569
1882.51	4.58752
1884	5.07653
1885.5	4.96584
1886.99	5.27698
1888.48	5.79598
1889.98	7.14076
1891.47	7.66824
1892.97	7.74726
1894.46	8.15481
1895.95	8.58198
1897.44	9.12536
1898.93	9.4998
1900.42	9.91491
1901.92	9.95374
1903.41	9.25334
1904.9	9.46375
1906.39	8.92171
1907.88	8.71821
1909.37	8.29146
1910.86	8.76905
1912.35	8.73884
1913.84	9.30748
1915.32	8.92996
1916.81	8.77737
1918.3	8.23744
1919.79	8.43048
1921.28	8.02485
1922.76	7.71804
1924.25	6.97617
1925.74	7.07466
1927.22	6.54157
1928.71	5.45494
1930.2	4.67677
1931.68	4.21667
1933.17	3.96302
1934.65	3.94572
1936.14	3.53883
1937.62	2.65051
1939.11	2.25178
1940.59	2.67167
1942.08	2.43676
1943.56	1.6725
1945.04	1.4136
1946.53	1.86059
1948.01	0.77843
1949.49	0.253793
1950.97	-0.402854
1952.45	-0.997773
1953.94	-0.0799866
1955.42	-0.00583799
1956.9	-0.446533
1958.38	-0.905699
1959.86	0.167061
1961.34	0.740415
1962.82	1.20593
1964.3	1.18321
1965.78	1.2454
1967.26	1.26406
1968.74	1.2308
1970.22	1.39373
1971.69	1.51042
1973.17	1.20032
1974.65	1.70095
1976.13	0.588351
1977.61	0.823217
1979.08	1.51367
1980.56	1.92241
1982.03	1.9594
1983.51	2.62907
1984.99	3.20937
1986.46	3.41758
1987.94	4.00323
1989.41	3.7479
1990.89	3.11385
1992.36	2.785
1993.84	2.51755
1995.31	2.57957
1996.78	1.77996
1998.26	1.67518
1999.73	1.8094
2001.2	1.87279
2002.68	2.80196
2004.15	3.34598
2005.62	3.19033
2007.09	3.13609
2008.56	2.66283
2010.04	2.44969
2011.51	3.16265
2012.98	2.9202
2014.45	2.75066
2015.92	1.97614
2017.39	1.78597
2018.86	2.29385
2020.33	1.878
2021.8	0.235046
2023.27	1.31215
2024.74	2.29464
2026.2	1.83281
2027.67	2.24755
2029.14	2.30707
2030.61	3.34748
2032.07	4.42429
2033.54	5.0385
2035.01	5.89489
2036.47	6.63669
2037.94	7.81424
2039.41	8.68427
2040.87	9.1562
2042.34	9.37669
2043.8	10.394
2045.27	11.5336
2046.73	13.1683
2048.2	13.9231
2049.66	13.7291
2051.12	15.5432
2052.59	16.1658
2054.05	16.6851
2055.51	17.0987
2056.98	17.6339
2058.44	18.4757
2059.9	20.0197
2061.36	20.7964
2062.82	21.4364
2064.29	22.2174
2065.75	23.1915
2067.21	24.15
2068.67	25.2881
2070.13	25.8326
2071.59	28.0718
2073.05	30.8187
2074.51	32.6202
2075.97	33.305
2077.43	33.9575
2078.88	34.5953
2080.34	35.8913
2081.8	37.1995
2083.26	38.2115
2084.72	38.7173
2086.17	39.506
2087.63	40.3703
2089.09	42.3109
2090.54	42.3247
2092	43.2426
2093.46	43.7334
2094.91	45.4315
2096.37	48.606
2097.82	49.7214
2099.28	51.6239
2100.73	54.3539
2102.19	57.3209
2103.64	58.87
2105.09	59.7772
2106.55	62.339
2108	65.6728
2109.46	67.9808
2110.91	70.2145
2112.36	71.5902
2113.81	73.9628
2115.27	77.0277
2116.72	79.645
2118.17	82.3317
2119.62	84.1059
2121.07	85.4302
2122.52	88.7458
2123.97	91.7847
2125.42	93.9055
2126.87	96.3779
2128.32	99.697
2129.77	102.833
2131.22	106.465
2132.67	109.901
2134.12	112.916
2135.57	116.243
2137.01	120.032
2138.46	122.828
2139.91	127.504
2141.36	132.018
2142.8	136.33
2144.25	139.571
2145.7	143.604
2147.14	146.37
2148.59	148.168
2150.03	151.114
2151.48	152.386
2152.92	154.797
2154.37	157.378
2155.81	158.46
2157.26	160.748
2158.7	162.785
2160.15	164.247
2161.59	166.008
2163.03	166.142
2164.48	168.89
2165.92	169.928
2167.36	171.233
2168.8	171.876
2170.25	172.068
2171.69	171.459
2173.13	170.788
2174.57	169.731
2176.01	168.179
2177.45	167.408
2178.89	166.912
2180.33	165.925
2181.77	163.742
2183.21	161.247
2184.65	159.875
2186.09	157.19
2187.53	155.315
2188.97	152.442
2190.41	151.073
2191.84	148.916
2193.28	146.812
2194.72	143.902
2196.16	140.83
2197.59	137.618
2199.03	135.388
2200.47	132.717
2201.9	130.912
2203.34	128.319
2204.78	126.033
2206.21	124.56
2207.65	122.253
2209.08	120.549
2210.51	118.15
2211.95	116.714
2213.38	113.86
2214.82	111.011
2216.25	107.582
2217.68	105.275
2219.12	101.76
2220.55	98.6824
2221.98	96.547
2223.42	93.9466
2224.85	92.7251
2226.28	89.5017
2227.71	86.0609
2229.14	84.11
2230.57	81.3644
2232	78.1328
2233.43	74.9261
2234.86	72.6838
2236.29	69.7936
2237.72	66.7095
2239.15	64.117
2240.58	61.1914
2242.01	58.4178
2243.44	54.7101
2244.87	53.2279
2246.3	50.6151
2247.73	48.1987
2249.15	45.7334
2250.58	44.1926
2252.01	41.9182
2253.43	39.3397
2254.86	38.5146
2256.29	37.1819
2257.71	35.2919
2259.14	34.9733
2260.56	34.0672
2261.99	33.1745
2263.41	31.8349
2264.84	30.2637
2266.26	29.7432
2267.69	30.8187
2269.11	29.7915
2270.54	29.8434
2271.96	28.5701
2273.38	27.5388
2274.81	25.9229
2276.23	25.4741
2277.65	25.3194
2279.07	23.7219
2280.49	23.2186
2281.92	22.1868
2283.34	21.9075
2284.76	20.6944
2286.18	20.1272
2287.6	18.8859
2289.02	17.7526
2290.44	16.9181
2291.86	15.79
2293.28	14.2933
2294.7	12.6687
2296.12	11.6524
2297.54	9.78703
2298.96	8.54472
2300.38	8.14933
2301.79	7.71653
2303.21	6.54714
2304.63	5.92526
2306.05	5.68113
2307.46	5.25531
2308.88	5.7556
2310.3	5.53333
2311.71	5.27968
2313.13	5.14702
2314.55	5.18445
2315.96	5.91124
2317.38	4.63516
2318.79	4.59627
2320.21	4.08746
2321.62	4.42177
2323.03	4.29627
2324.45	5.16236
2325.86	5.12109
2327.27	5.36361
2328.69	6.56866
2330.1	6.74431
2331.51	7.08515
2332.93	7.10726
2334.34	7.62022
2335.75	8.01438
2337.16	8.45962
2338.57	8.02552
2339.99	6.79551
2341.4	7.0352
2342.81	5.98977
2344.22	5.76114
2345.63	6.02793
2347.04	5.45174
2348.45	5.21064
2349.86	3.85914
2351.26	3.43328
2352.67	2.9112
2354.08	2.89201
2355.49	2.04958
2356.9	2.17703
2358.31	2.10505
2359.71	2.08074
2361.12	2.06789
2362.53	1.83523
2363.94	2.71585
2365.34	2.41983
2366.75	2.43738
2368.15	2.66012
2369.56	3.60364
2370.97	3.74984
2372.37	3.8904
2373.78	2.73465
2375.18	3.51857
2376.59	4.03197
2377.99	4.70481
2379.39	4.47045
2380.8	4.24508
2382.2	4.65634
2383.61	4.36807
2385.01	4.46895
2386.41	4.05476
2387.81	3.34633
2389.22	3.18749
2390.62	3.33195
2392.02	3.41244
2393.42	3.79652
2394.82	4.29369
2396.22	4.13801
2397.63	5.73728
2399.02	5.70365
2400.43	5.35995
2401.82	6.55374
2403.23	6.55963
2404.62	7.27902
2406.02	7.49258
2407.42	7.44804
2408.82	7.41556
2410.22	8.11373
2411.62	7.85693
2413.02	6.78194
2414.41	6.48154
2415.81	6.20524
2417.21	6.92815
2418.61	7.6547
2420	7.52112
2421.4	8.1624
2422.79	8.25137
2424.19	8.44766
2425.59	8.695
2426.98	8.83798
2428.38	8.64199
2429.77	8.66252
2431.17	9.0895
2432.56	9.51288
2433.96	9.31669
2435.35	8.31749
2436.74	7.93444
2438.14	8.4581
2439.53	7.98726
2440.92	7.23712
2442.32	7.53918
2443.71	7.629
2445.1	8.45667
2446.49	8.61735
2447.88	8.67969
2449.28	9.38236
2450.67	9.79396
2452.06	10.104
2453.45	9.53381
2454.84	10.0398
2456.23	10.0346
2457.62	9.60709
2459.01	8.95347
2460.4	8.83319
2461.79	9.0502
2463.18	9.65966
2464.57	9.75026
2465.96	9.9783
2467.34	10.8507
2468.73	10.7019
2470.12	11.7092
2471.51	12.0295
2472.89	11.8693
2474.28	12.294
2475.67	12.2236
2477.05	12.2511
2478.44	11.7071
2479.83	11.2497
2481.21	10.6477
2482.6	10.4892
2483.98	10.1826
2485.37	10.0863
2486.75	9.91965
2488.14	8.55322
2489.52	8.01529
2490.9	7.17882
2492.29	6.21039
2493.67	6.4584
2495.06	6.1645
2496.44	5.31871
2497.82	5.28887
2499.2	4.89097
2500.59	4.87353
2501.97	3.49816
2503.35	2.38162
2504.73	1.35811
2506.11	1.37886
2507.49	2.55746
2508.88	2.46694
2510.26	2.88597
2511.63	2.84573
2513.01	3.47695
2514.39	2.5347
2515.77	3.20654
2517.15	2.60707
2518.53	3.04679
2519.91	2.41062
2521.29	2.6954
2522.67	2.32024
2524.05	3.24881
2525.42	2.92677
2526.8	2.49977
2528.18	3.49822
2529.56	5.22906
2530.93	7.39151
2532.31	8.99221
2533.69	9.92892
2535.06	11.4697
2536.44	12.2504
2537.81	13.6414
2539.19	14.5807
2540.56	14.7145
2541.94	14.2743
2543.31	14.5362
2544.69	14.7128
2546.06	15.2498
2547.44	15.1902
2548.81	15.246
2550.18	15.9279
2551.56	15.7951
2552.93	15.7526
2554.3	16.2332
2555.68	16.3523
2557.05	16.8677
2558.42	16.8168
2559.79	16.9317
2561.16	16.7757
2562.53	17.5567
2563.9	16.3728
2565.28	15.2325
2566.64	15.2651
2568.02	14.8571
2569.38	14.7872
2570.76	14.0037
2572.12	14.2201
2573.49	14.1125
2574.86	14.2161
2576.23	14.9037
2577.6	14.1742
2578.97	13.9534
2580.34	13.9338
2581.7	13.3002
2583.07	13.5008
2584.44	13.8303
2585.81	13.8327
2587.17	13.946
2588.54	13.5443
2589.91	13.4778
2591.27	13.6384
2592.64	14.1621
2594	13.9669
2595.37	14.9553
2596.73	16.1862
2598.1	16.2256
2599.46	16.0936
2600.83	15.6519
2602.19	14.8195
2603.55	15.0897
2604.92	14.7914
2606.28	15.1872
2607.64	14.5982
2609.01	14.484
2610.37	14.8927
2611.73	15.9608
2613.09	16.2047
2614.46	16.437
2615.82	15.928
2617.18	15.6344
2618.54	16.7509
2619.9	15.6957
2621.26	15.8567
2622.62	16.0148
2623.98	15.4519
2625.34	15.9118
2626.7	15.7789
2628.06	15.9038
2629.42	15.9488
2630.78	15.9502
2632.14	15.6717
2633.5	15.8411
2634.86	17.1623
2636.22	17.7006
2637.57	18.0056
2638.93	18.2594
2640.29	19.5994
2641.64	19.7219
2643	20.0008
2644.36	20.6448
2645.72	20.1323
2647.07	20.1485
2648.43	20.2347
2649.78	20.3126
2651.14	21.4831
2652.49	20.442
2653.85	21.3557
2655.2	20.3731
2656.56	20.969
2657.91	21.0281
2659.27	21.9877
2660.62	22.121
2661.97	22.4303
2663.33	22.8789
2664.68	22.8361
2666.03	22.4554
2667.38	23.225
2668.74	23.592
2670.09	23.5102
2671.44	23.4969
2672.79	23.687
2674.14	23.6132
2675.49	23.7692
2676.84	23.9405
2678.2	23.7811
2679.55	23.3491
2680.89	23.4873
2682.24	23.3755
2683.59	23.2064
2684.94	23.4271
2686.29	23.4534
2687.64	21.8984
2688.99	22.0423
2690.34	21.4823
2691.69	21.0576
2693.04	21.3003
2694.38	20.9564
2695.73	21.5228
2697.08	22.093
2698.43	21.9128
2699.77	22.5873
2701.12	22.2556
2702.46	23.2082
2703.81	23.3706
2705.16	23.7479
2706.5	24.4247
2707.85	24.9567
2709.19	24.4323
2710.54	25.0927
2711.88	25.7471
2713.23	26.1619
2714.57	26.5184
2715.92	27.4347
2717.26	28.0071
2718.6	28.8545
2719.95	29.0733
2721.29	29.6559
2722.63	29.4814
2723.97	30.7044
2725.32	31.0209
2726.66	31.9212
2728	31.4118
2729.34	31.1582
2730.68	31.5353
2732.02	30.9945
2733.36	30.7404
2734.7	30.635
2736.04	29.7711
2737.39	29.2341
2738.72	28.3073
2740.06	27.9577
2741.4	26.4211
2742.74	25.6166
2744.08	24.6427
2745.42	24.2312
2746.76	23.1767
2748.1	21.6361
2749.44	20.4084
2750.77	19.2913
2752.11	17.6487
2753.45	15.721
2754.78	13.9529
2756.12	12.9166
2757.46	11.6146
2758.79	10.6729
2760.13	9.65106
2761.47	9.30499
2762.8	7.7909
2764.14	5.95731
2765.47	4.65
2766.81	3.38427
2768.14	2.59378
2769.48	2.57277
2770.81	1.90584
2772.14	1.86044
2773.48	1.53195
2774.81	1.17978
2776.14	0.927232
2777.48	0.87799
2778.81	0.304727
2780.14	0.121333
2781.47	0.318666
2782.81	0.424357
2784.14	0.0767554
2785.47	0.57489
2786.8	0.684146
2788.13	0.455862
2789.46	1.14272
2790.79	1.5095
2792.12	1.85373
2793.46	1.6646
2794.79	1.93439
2796.11	1.64144
2797.44	1.7812
2798.77	1.54907
2800.1	1.74111
2801.43	1.36459
2802.76	0.623256
2804.09	0.432031
2805.42	-0.287373
2806.74	-1.05638
2808.07	-2.18142
2809.4	-2.2306
2810.73	-2.55439
2812.05	-2.99932
2813.38	-3.29702
2814.71	-2.28801
2816.03	-0.346941
2817.36	1.80301
2818.68	5.17408
2820.01	10.1764
2821.33	15.2872
2822.66	23.2415
2823.98	30.9781
2825.31	40.6998
2826.63	49.9573
2827.96	60.5729
2829.28	70.973
2830.61	82.9903
2831.93	95.0139
2833.25	107.219
2834.57	121.558
2835.9	135.39
2837.22	148.647
2838.54	163.015
2839.86	176.418
2841.18	190.269
2842.51	203.567
2843.83	218.569
2845.15	233.24
2846.47	247.179
2847.79	260.734
2849.11	273.374
2850.43	286.425
2851.75	300.599
2853.07	313.311
2854.39	326.201
2855.71	338.977
2857.03	350.393
2858.35	362.072
2859.67	372.488
2860.98	382.163
2862.3	389.981
2863.62	397.536
2864.94	404.358
2866.25	410.726
2867.57	416.337
2868.89	420.969
2870.21	425
2871.52	428.003
2872.84	430.98
2874.15	433.609
2875.47	436.336
2876.78	439.868
2878.1	442.968
2879.42	446.029
2880.73	449.931
2882.04	453.555
2883.36	458.229
2884.67	462.73
2885.99	467.086
2887.3	471.879
2888.61	477.529
2889.93	481.586
2891.24	486.656
2892.55	491.541
2893.87	496.898
2895.18	502.615
2896.49	508.392
2897.8	514.521
2899.11	521.473
2900.42	528.596
2901.74	535.28
2903.05	542.003
2904.36	550.367
2905.67	558.761
2906.98	569.039
2908.29	578.888
2909.6	589.977
2910.91	599.425
2912.22	609.25
2913.53	619.766
2914.83	630.504
2916.14	640.891
2917.45	650.37
2918.76	658.994
2920.07	666.832
2921.37	673.156
2922.68	677.945
2923.99	682.292
2925.3	684.931
2926.6	687.784
2927.91	688.77
2929.22	688.355
2930.52	687.345
2931.83	685.355
2933.13	682.878
2934.44	677.995
2935.74	672.964
2937.05	666.728
2938.35	659.461
2939.66	651.202
2940.96	641.7
2942.27	631.27
2943.57	619.063
2944.87	606.355
2946.18	593.982
2947.48	579.942
2948.78	565.782
2950.09	551.698
2951.39	537.073
2952.69	522.503
2953.99	507.69
2955.29	493.247
2956.6	479.124
2957.9	464.518
2959.2	449.666
2960.5	436.125
2961.8	422.495
2963.1	409.191
2964.4	396.586
2965.7	384.168
2967	372.01
2968.3	360.915
2969.6	350.244
2970.9	340.127
2972.2	329.341
2973.49	318.732
2974.79	308.088
2976.09	297.656
2977.39	286.776
2978.69	276.298
2979.98	265.153
2981.28	253.199
2982.58	241.465
2983.88	230.745
2985.17	219.959
2986.47	208.903
2987.76	197.701
2989.06	187.165
2990.36	177.013
2991.65	167.442
2992.95	156.415
2994.24	145.926
2995.54	136.702
2996.83	128.15
2998.12	119.722
2999.42	110.811
3000.71	102.55
3002	94.3642
3003.3	86.7322
3004.59	78.9553
3005.88	71.0391
3007.18	64.1563
3008.47	57.8183
3009.76	51.4491
3011.05	46.3032
3012.35	40.7209
3013.64	35.6203
3014.93	31.4695
3016.22	27.0827
3017.51	23.9822
3018.8	20.8829
3020.09	17.8143
3021.38	14.8674
3022.67	11.783
3023.96	10.2492
3025.25	9.11751
3026.54	7.77496
3027.83	5.97004
3029.12	4.67917
3030.41	3.82902
3031.69	2.56115
3032.98	2.45839
3034.27	2.48521
3035.56	3.46275
3036.85	3.47279
3038.13	4.73449
3039.42	4.85983
3040.71	6.06822
3041.99	6.08651
3043.28	6.96542
3044.57	8.05964
3045.85	9.16288
3047.14	10.2431
3048.42	11.5318
3049.71	11.9646
3050.99	12.367
3052.28	13.2204
3053.56	15.0451
3054.85	15.6845
3056.13	16.1654
3057.42	16.2526
3058.7	16.8408
3059.98	17.1942
3061.27	17.4886
3062.55	16.8769
3063.83	16.6717
3065.11	15.8509
3066.4	15.9437
3067.68	15.2409
3068.96	14.1938
3070.24	13.1712
3071.52	12.3434
3072.8	11.7101
3074.09	10.4963
3075.37	9.37094
3076.65	8.10128
3077.93	6.94781
3079.21	6.48703
3080.49	5.76179
3081.77	4.6416
3083.05	3.55495
3084.32	2.69112
3085.61	2.33808
3086.88	2.03363
3088.16	1.93246
3089.44	2.16243
3090.72	2.17159
3092	2.50904
3093.27	3.10668
3094.55	4.5141
3095.83	5.42208
3097.11	7.17748
3098.38	9.30014
3099.66	10.452
3100.94	11.6179
3102.21	13.2487
3103.49	14.0556
3104.76	15.3217
3106.04	16.1925
3107.31	17.987
3108.59	20.3366
3109.86	21.6717
3111.14	22.5614
3112.41	24.2424
3113.69	25.9817
3114.96	28.5952
3116.23	30.8658
3117.51	32.1062
3118.78	33.1055
3120.05	35.4005
3121.33	37.3933
3122.6	39.4772
3123.87	41.0269
3125.14	43.189
3126.42	44.8726
3127.69	47.5585
3128.96	49.8768
3130.23	52.1946
3131.5	53.7647
3132.77	55.3238
3134.04	57.4885
3135.31	59.9362
3136.58	62.2734
3137.85	64.4755
3139.12	67.2542
3140.39	70.3349
3141.66	73.5948
3142.93	77.2962
3144.2	81.3157
3145.47	85.8396
3146.74	90.6081
3148	95.8903
3149.27	101.379
