#Acq. time (s)=	45
#Accumulations=	2
#Range (cm-¹)=	200...3150
#Windows=	2
#Auto scanning=	Off
#Autofocus=	Off
#Macrospot=	Off
#AutoExposure=	Off
#Spike filter=	Multiple accum.
#Delay time (s)=	0
#Binning=	1
#Readout mode=	Signal
#DeNoise=	Off
#ICS correction=	On
#Dark correction=	Off
#Inst. Process=	Off
#Detector Gain=	Best Dynamic Range
#Detector ADC=	20 kHz       
#Detector temperature (°C)=	-69.85
#Instrument=	LabRAM HR Evol
#Detector=	Synapse
#Objective=	x100
#Grating=	600 gr/mm
#ND Filter=	100%
#Laser (nm)=	532 
#Hole=	100.021
#Range=	Auto
#Laser Pol.=	No
#Raman. Pol.=	No
#Laser Pol. (°)=	-0.0007625
#Raman Pol. (°)=	89.9995
#Collection=	Microscope
#StageXY=	Marzhauser
#StageZ=	Marzhauser
#X (µm)=	28458.1
#Y (µm)=	-2965.4
#Z (µm)=	1043.55
#Full time(mm:ss)=	3:19
#Project=	
#Sample=	
#Site=	
#Title=	Mb_50_18_47_2x_45s_532 nm_x100_100%_600 gr_mm
#Remark=	
#Date=	12.07.2022 14:42
#Acquired=	12.07.2022 14:42:48
#Edit:Spike=	12.07.2022 14:45:55
#Base:Fit=	10.08.2022 10:49:18
#Base:Sub=	10.08.2022 10:49:30
#Filter:Polynom=	16.08.2022 10:14:59
#AxisType[0]=Intens
#AxisUnit[0]=Cnt
#AxisType[1]=Spectr
#AxisUnit[1]=1/cm
200.388	32.2581
202.204	31.0654
204.019	29.0957
205.832	28.2092
207.646	27.3076
209.459	26.4446
211.274	25.0176
213.087	24.5742
214.899	23.7202
216.711	22.923
218.524	21.1751
220.335	20.4399
222.146	18.8585
223.956	17.724
225.766	16.1623
227.576	14.7985
229.388	12.9472
231.197	12.6287
233.005	11.8791
234.813	10.1563
236.621	9.5176
238.429	9.3364
240.236	8.39581
242.045	8.13271
243.852	6.92194
245.658	6.28047
247.464	6.16951
249.269	6.3701
251.074	5.54295
252.879	7.19733
254.683	6.74873
256.487	7.31833
258.291	6.84983
260.094	7.2048
261.897	7.07878
263.702	5.7949
265.504	4.8222
267.306	4.27163
269.108	3.98862
270.909	4.90992
272.71	4.5263
274.511	5.82875
276.311	4.93144
278.111	4.56082
279.91	3.75259
281.709	3.77602
283.508	4.00974
285.306	5.51352
287.105	6.58331
288.9	6.93752
290.698	7.26928
292.495	7.34267
294.291	8.30271
296.088	8.1794
297.884	9.22609
299.679	9.67253
301.475	10.0249
303.27	11.7232
305.064	11.6004
306.858	11.9424
308.652	11.7322
310.444	12.2118
312.237	11.9829
314.03	12.2138
315.822	12.4733
317.615	12.4494
319.406	12.3425
321.198	13.0811
322.987	11.793
324.778	11.339
326.568	11.8425
328.358	11.8247
330.148	11.2306
331.935	11.6263
333.724	10.956
335.513	11.9991
337.301	11.7225
339.089	11.5064
340.875	10.2803
342.662	10.4741
344.449	9.5418
346.236	9.37558
348.02	8.8255
349.806	8.23098
351.592	7.54849
353.375	6.60596
355.16	7.7062
356.944	7.42056
358.728	7.33001
360.51	7.49157
362.294	7.83348
364.077	9.2218
365.858	9.48217
367.64	11.3729
369.422	12.4371
371.202	13.4095
372.983	13.0796
374.764	12.9539
376.543	13.9961
378.324	15.2827
380.102	15.776
381.881	16.8253
383.661	18.2579
385.438	18.6397
387.216	18.6035
388.993	18.4958
390.771	19.7645
392.548	20.3801
394.324	19.6949
396.101	19.3524
397.875	19.3353
399.651	19.0189
401.425	18.7939
403.201	18.7363
404.974	18.6053
406.749	17.2037
408.524	16.1539
410.296	15.4351
412.07	13.6091
413.841	13.4343
415.614	12.3733
417.385	11.6337
419.156	9.83356
420.928	8.74438
422.698	7.16003
424.469	6.03226
426.238	5.3612
428.009	4.95019
429.777	4.01185
431.548	3.79612
433.315	3.42339
435.083	3.4318
436.852	3.33332
438.618	3.2494
440.387	3.87583
442.153	3.18886
443.919	3.33071
445.686	2.39417
447.451	3.87528
449.218	4.1978
450.982	4.19216
452.746	3.17836
454.512	2.36471
456.275	2.27524
458.038	2.50664
459.803	1.643
461.565	2.28762
463.327	4.32913
465.091	5.72866
466.852	5.59706
468.613	5.47608
470.374	6.54258
472.136	7.10679
473.896	6.87625
475.655	7.90561
477.415	10.2755
479.176	12.3558
480.934	12.5582
482.692	12.4377
484.45	13.7421
486.21	15.3441
487.967	16.6922
489.724	17.5507
491.481	18.8251
493.237	18.2899
494.995	18.5165
496.75	19.7045
498.506	20.5285
500.26	20.5348
502.015	22.8143
503.771	23.6518
505.525	23.6062
507.279	23.4351
509.032	24.6758
510.785	25.5117
512.537	25.6403
514.289	25.8127
516.041	23.9372
517.793	23.559
519.546	23.0501
521.297	23.2492
523.047	22.9116
524.797	22.0175
526.547	21.0302
528.297	19.199
530.046	17.8028
531.795	16.9219
533.543	15.5395
535.291	14.053
537.039	12.5334
538.787	11.1776
540.534	10.3957
542.281	10.4923
544.027	9.45833
545.773	9.53029
547.519	8.06516
549.264	8.09238
551.01	7.19375
552.754	6.36059
554.499	4.52464
556.243	4.92277
557.987	3.98862
559.73	3.31696
561.474	3.59767
563.216	4.26264
564.959	4.08506
566.701	4.84639
568.441	3.90033
570.182	3.6815
571.923	4.59622
573.664	4.93112
575.405	4.51697
577.145	4.53748
578.885	5.35337
580.624	4.91858
582.361	6.39121
584.1	7.19725
585.839	6.16246
587.577	5.36542
589.315	6.67737
591.052	5.33131
592.787	4.52802
594.524	4.94139
596.26	4.90295
597.997	4.60659
599.732	4.30726
601.466	5.04361
603.201	4.33745
604.936	5.68048
606.67	5.95139
608.403	5.88246
610.136	5.23488
611.87	4.94738
613.603	4.91579
615.334	4.14347
617.067	3.91435
618.799	3.81869
620.529	4.22997
622.26	4.13562
623.991	4.7737
625.72	5.59018
627.451	4.74953
629.181	3.66872
630.909	3.53153
632.638	3.64089
634.368	3.45204
636.095	2.68068
637.823	2.87538
639.551	3.41906
641.277	3.65232
643.005	4.62356
644.73	4.36105
646.457	4.77178
648.184	5.67053
649.908	6.34282
651.634	7.48112
653.357	9.03939
655.083	8.4134
656.806	9.33335
658.53	10.4175
660.253	11.9815
661.977	13.0734
663.7	15.185
665.422	16.2691
667.145	16.2378
668.865	16.6771
670.588	17.6915
672.308	16.6098
674.027	18.1771
675.749	19.3461
677.468	18.3418
679.188	19.7872
680.907	21.0364
682.627	22.0445
684.345	23.8025
686.064	24.3968
687.781	25.3446
689.498	24.5233
691.216	26.5775
692.932	27.245
694.65	27.2704
696.366	28.315
698.081	27.8443
699.797	28.0555
701.512	28.6835
703.228	29.9426
704.942	30.4258
706.655	30.1131
708.371	30.4442
710.083	31.2983
711.796	30.337
713.51	29.1631
715.222	28.7925
716.934	30.5043
718.645	30.8308
720.358	31.234
722.068	31.7048
723.779	33.1124
725.49	33.0505
727.2	32.5682
728.909	32.0265
730.618	33.3374
732.329	35.5241
734.037	36.3844
735.745	38.8172
737.453	40.6097
739.16	42.205
740.869	44.4175
742.576	48.146
744.282	51.2893
745.988	54.3796
747.694	56.7846
749.401	59.3126
751.107	61.0415
752.811	62.7673
754.516	65.3041
756.22	68.0536
757.924	68.6696
759.627	71.139
761.332	73.0479
763.035	76.0718
764.738	79.478
766.44	81.4773
768.142	83.4519
769.843	85.001
771.544	85.4994
773.245	87.8273
774.946	88.3498
776.646	90.3198
778.346	92.1137
780.046	92.3067
781.745	93.409
783.444	92.4984
785.143	93.8924
786.841	94.3489
788.539	93.546
790.237	92.5578
791.934	92.4772
793.631	92.4008
795.328	90.5901
797.024	89.3938
798.72	89.4467
800.416	88.9094
802.112	88.6899
803.807	87.1178
805.502	85.1479
807.196	83.5309
808.89	80.916
810.584	78.1358
812.278	77.5666
813.971	76.8224
815.664	76.7308
817.354	76.3808
819.047	74.988
820.739	76.0072
822.43	75.7211
824.122	75.6818
825.813	74.9549
827.503	75.0736
829.192	73.218
830.882	73.5897
832.571	72.5959
834.261	71.6369
835.95	71.0563
837.637	69.2918
839.325	66.494
841.013	65.6971
842.701	64.1289
844.389	62.3593
846.074	60.997
847.761	59.5767
849.447	57.8447
851.131	56.1159
852.817	55.5832
854.503	53.6992
856.188	53.1303
857.871	53.1042
859.556	51.5855
861.24	51.8047
862.922	51.7017
864.606	49.0974
866.289	48.3581
867.97	47.1021
869.653	47.8159
871.336	47.2995
873.016	46.3501
874.698	45.6019
876.379	45.5579
878.058	44.7587
879.739	43.9679
881.418	45.0316
883.098	44.6498
884.778	43.9025
886.456	42.9563
888.135	42.6067
889.812	42.2656
891.49	42.5616
893.167	41.5508
894.845	42.1396
896.523	43.273
898.198	43.0158
899.875	42.7783
901.55	42.7647
903.226	42.2777
904.901	42.3383
906.576	42.231
908.25	41.8623
909.925	41.9338
911.598	43.0679
913.271	42.3652
914.945	42.3573
916.617	40.6624
918.291	39.0733
919.962	38.0925
921.635	35.6374
923.306	35.8034
924.978	35.9192
926.648	34.1762
928.318	32.9627
929.989	32.78
931.659	32.8967
933.328	32.5607
934.998	32.7838
936.666	32.9333
938.336	31.8649
940.004	32.2299
941.671	30.9596
943.34	29.8924
945.007	29.1363
946.673	28.0203
948.339	26.8425
950.007	26.5669
951.672	26.2395
953.337	25.4339
955.004	24.6961
956.669	24.0037
958.333	24.1881
959.997	23.8819
961.662	23.5353
963.326	24.0503
964.989	24.9922
966.651	23.898
968.315	23.0811
969.977	23.5564
971.639	23.5962
973.301	22.746
974.962	21.6873
976.624	20.5856
978.285	20.5936
979.945	19.8073
981.605	18.7292
983.264	17.0486
984.924	16.5516
986.583	16.0089
988.243	16.4693
989.901	16.3448
991.56	16.836
993.217	17.791
994.875	18.0863
996.532	17.885
998.188	18.5506
999.845	19.4451
1001.5	20.066
1003.16	21.1311
1004.81	21.2962
1006.47	22.8153
1008.12	23.1701
1009.78	24.6462
1011.43	26.1053
1013.09	27.245
1014.74	28.523
1016.39	29.54
1018.05	30.9233
1019.7	31.4227
1021.35	31.7258
1023	31.6778
1024.65	31.2041
1026.31	31.3552
1027.96	31.8619
1029.61	32.1486
1031.26	32.723
1032.91	32.8614
1034.56	33.1061
1036.21	33.2369
1037.86	33.9861
1039.51	33.9076
1041.16	33.3193
1042.8	32.4654
1044.45	31.9732
1046.1	31.2328
1047.75	29.9082
1049.39	28.6538
1051.04	27.5757
1052.69	27.2733
1054.33	25.7807
1055.98	25.0233
1057.62	23.8303
1059.27	22.1645
1060.91	21.2067
1062.56	21.0625
1064.2	21.1626
1065.85	19.8011
1067.49	20.8933
1069.13	20.4315
1070.77	21.4974
1072.42	21.9061
1074.06	23.2959
1075.7	23.5705
1077.34	22.6066
1078.98	22.7239
1080.62	23.4318
1082.27	22.8394
1083.91	22.5277
1085.55	22.6058
1087.18	23.0673
1088.82	22.9993
1090.46	23.416
1092.1	23.15
1093.74	22.5484
1095.38	21.7155
1097.02	21.463
1098.65	20.9258
1100.29	20.2286
1101.93	18.9091
1103.56	18.2033
1105.2	16.6853
1106.84	16.4569
1108.47	16.1331
1110.11	16.4944
1111.74	15.0588
1113.38	14.7542
1115.01	14.2408
1116.64	13.0696
1118.28	12.7479
1119.91	11.7463
1121.54	10.5063
1123.18	8.77261
1124.81	7.65481
1126.44	7.03178
1128.07	6.6575
1129.7	6.05523
1131.33	6.84119
1132.97	6.94145
1134.6	7.64928
1136.23	7.20251
1137.86	6.55607
1139.49	6.25321
1141.11	6.25113
1142.74	8.15509
1144.37	7.8726
1146	6.44274
1147.63	4.79595
1149.26	5.94559
1150.88	5.98831
1152.51	6.97318
1154.14	6.74782
1155.76	7.63297
1157.39	6.23993
1159.01	6.04747
1160.64	6.03372
1162.27	6.4221
1163.89	5.99895
1165.51	5.74985
1167.14	5.98406
1168.76	4.76112
1170.39	4.13799
1172.01	4.28803
1173.63	3.47005
1175.25	2.92873
1176.88	3.03462
1178.5	3.7473
1180.12	3.35296
1181.74	3.29124
1183.36	3.73847
1184.98	4.58802
1186.6	3.69733
1188.22	4.21132
1189.84	4.53915
1191.46	3.31049
1193.08	3.2818
1194.7	4.18802
1196.32	3.96538
1197.94	3.56898
1199.55	3.92116
1201.17	2.98417
1202.79	2.90558
1204.41	2.95678
1206.02	3.99671
1207.64	4.9401
1209.25	5.31614
1210.87	5.84429
1212.48	7.06959
1214.1	7.66942
1215.71	8.82478
1217.33	8.1032
1218.94	8.82334
1220.56	9.37101
1222.17	9.92418
1223.79	10.4256
1225.4	9.73787
1227.01	10.5781
1228.62	11.5793
1230.23	13.3655
1231.85	13.8824
1233.46	13.5298
1235.07	13.5567
1236.68	13.5422
1238.29	12.2575
1239.9	13.0004
1241.51	12.9809
1243.12	13.0794
1244.73	13.0105
1246.34	13.3421
1247.94	13.6952
1249.55	13.4377
1251.16	14.3215
1252.77	14.5466
1254.37	14.8298
1255.98	15.8574
1257.59	17.5787
1259.2	17.9364
1260.8	18.279
1262.41	19.1578
1264.01	19.6418
1265.62	20.6012
1267.22	20.7776
1268.83	21.4531
1270.43	23.1789
1272.03	24.0826
1273.64	26.0041
1275.24	26.5393
1276.85	26.8994
1278.45	27.6983
1280.05	29.0067
1281.65	29.7685
1283.25	31.1487
1284.85	30.9856
1286.46	32.7578
1288.06	33.5014
1289.66	33.9057
1291.26	35.3817
1292.86	36.9892
1294.46	38.2023
1296.06	38.2218
1297.66	37.8729
1299.25	38.9357
1300.85	38.2966
1302.45	39.322
1304.05	38.6748
1305.65	38.7521
1307.24	38.5602
1308.84	38.9944
1310.43	39.3635
1312.03	39.0733
1313.63	39.1174
1315.22	38.915
1316.82	39.0996
1318.41	38.8018
1320.01	39.5236
1321.6	38.8894
1323.2	39.1493
1324.79	40.1347
1326.38	40.0559
1327.98	39.8301
1329.57	39.8381
1331.16	39.9784
1332.76	40.6686
1334.35	40.5668
1335.94	40.1695
1337.53	39.9516
1339.12	39.311
1340.71	39.5175
1342.3	39.0681
1343.89	38.6926
1345.48	38.3391
1347.07	36.7866
1348.66	36.2596
1350.25	35.4436
1351.84	34.3216
1353.43	33.4728
1355.01	32.9179
1356.6	32.0152
1358.19	31.4919
1359.77	31.647
1361.36	29.7584
1362.95	28.1196
1364.53	27.07
1366.12	26.9702
1367.71	25.1752
1369.29	24.5889
1370.88	24.832
1372.46	23.9908
1374.04	22.9204
1375.63	22.3121
1377.21	21.2682
1378.8	20.9959
1380.38	20.3709
1381.96	20.522
1383.54	20.4553
1385.13	20.6303
1386.71	20.3543
1388.29	19.7698
1389.87	19.349
1391.45	19.6073
1393.03	19.4227
1394.61	18.7398
1396.19	18.561
1397.77	18.1444
1399.35	18.4637
1400.93	18.2556
1402.51	19.5239
1404.09	19.2747
1405.67	19.7437
1407.24	19.5601
1408.82	20.0773
1410.4	21.3989
1411.98	22.3904
1413.55	23.2141
1415.13	25.136
1416.71	27.4616
1418.28	29.444
1419.86	31.8346
1421.43	33.8565
1423.01	35.7469
1424.58	38.1562
1426.16	40.6169
1427.73	42.913
1429.31	44.834
1430.88	46.3241
1432.45	47.7051
1434.02	48.803
1435.6	51.0723
1437.17	52.6127
1438.74	53.9763
1440.31	54.2999
1441.88	54.7047
1443.45	55.8608
1445.03	57.017
1446.6	57.9389
1448.17	59.2185
1449.74	59.5978
1451.3	59.219
1452.87	58.8449
1454.44	58.6268
1456.01	57.8082
1457.58	57.5471
1459.15	57.5209
1460.72	56.5754
1462.28	56.0553
1463.85	54.5568
1465.42	53.0552
1466.98	52.1752
1468.55	52.2494
1470.12	50.1237
1471.68	48.1468
1473.25	47.2112
1474.81	45.3528
1476.38	44.1165
1477.94	42.9852
1479.51	41.8539
1481.07	40.8636
1482.63	40.0114
1484.2	39.3738
1485.76	38.1018
1487.32	37.9153
1488.88	37.2786
1490.45	36.6526
1492.01	36.6342
1493.57	35.8964
1495.13	34.77
1496.69	33.4426
1498.25	33.1023
1499.81	32.3546
1501.37	31.7699
1502.93	30.8882
1504.49	29.4352
1506.05	27.8171
1507.61	27.1384
1509.17	25.4556
1510.73	25.2737
1512.28	25.0043
1513.84	24.3507
1515.4	23.0341
1516.96	21.8909
1518.51	20.595
1520.07	19.5507
1521.63	18.747
1523.18	18.8525
1524.74	17.7131
1526.29	16.6691
1527.85	15.632
1529.4	15.2254
1530.96	15.1953
1532.51	14.9919
1534.06	14.7071
1535.62	15.6487
1537.17	16.3277
1538.72	16.9551
1540.28	17.9718
1541.83	18.5948
1543.38	19.0061
1544.93	19.9989
1546.48	19.8088
1548.03	18.9359
1549.59	20.12
1551.14	20.9482
1552.69	21.1608
1554.24	22.1587
1555.79	23.2161
1557.34	23.7872
1558.88	24.4908
1560.43	25.2707
1561.98	25.2816
1563.53	26.095
1565.08	25.9199
1566.62	26.4659
1568.17	26.9384
1569.72	26.5761
1571.27	26.2506
1572.81	26.2621
1574.36	27.52
1575.9	28.5558
1577.45	29.6419
1579	29.6541
1580.54	30.5857
1582.09	31.3912
1583.63	32.412
1585.17	32.408
1586.72	32.9097
1588.26	33.0977
1589.8	33.7278
1591.35	33.9653
1592.89	34.7989
1594.43	34.4188
1595.97	34.4731
1597.52	34.0944
1599.06	33.6352
1600.6	33.8867
1602.14	33.6503
1603.68	33.5938
1605.22	33.7947
1606.76	33.1971
1608.3	33.2834
1609.84	32.9606
1611.38	34.2209
1612.92	35.1337
1614.46	34.4934
1615.99	34.2921
1617.53	33.9391
1619.07	34.0978
1620.61	34.2963
1622.14	34.8968
1623.68	34.1716
1625.22	34.0029
1626.75	34.1975
1628.29	34.5584
1629.82	35.2029
1631.36	35.6523
1632.9	35.4999
1634.43	35.9207
1635.96	36.3064
1637.5	36.0129
1639.03	35.3339
1640.57	34.8808
1642.1	34.3465
1643.63	34.3783
1645.16	34.9756
1646.7	34.4119
1648.23	33.9829
1649.76	33.8093
1651.29	33.978
1652.82	34.406
1654.36	34.751
1655.89	35.2762
1657.42	35.5319
1658.95	34.613
1660.48	34.3273
1662.01	34.1153
1663.53	33.8993
1665.06	32.5942
1666.59	32.0058
1668.12	31.788
1669.65	31.5558
1671.18	31.0778
1672.7	30.6975
1674.23	28.982
1675.76	28.9112
1677.29	28.1931
1678.81	28.1155
1680.34	27.1
1681.86	26.6484
1683.39	25.8338
1684.91	25.6593
1686.44	24.8707
1687.96	24.4646
1689.49	23.2816
1691.01	21.9224
1692.54	21.2461
1694.06	20.7564
1695.58	20.3059
1697.11	19.811
1698.63	19.5562
1700.15	17.8515
1701.67	16.4954
1703.2	16.2231
1704.72	15.9922
1706.24	15.3448
1707.76	13.3625
1709.28	12.4773
1710.8	12.5672
1712.32	11.0389
1713.84	9.16724
1715.36	8.49754
1716.88	7.42967
1718.4	6.89851
1719.91	5.72786
1721.43	5.06532
1722.95	3.26343
1724.47	2.20979
1725.99	2.10084
1727.5	1.90753
1729.02	1.91961
1730.54	1.21958
1732.05	0.605551
1733.57	0.204324
1735.09	0.835542
1736.6	0.957509
1738.12	1.14898
1739.63	0.222674
1741.15	0.165389
1742.66	1.03687
1744.18	2.61991
1745.69	2.48627
1747.2	2.84415
1748.72	2.48213
1750.23	2.74506
1751.74	3.49954
1753.25	3.45443
1754.77	4.347
1756.28	4.64478
1757.79	4.36731
1759.3	4.47951
1760.81	4.42014
1762.32	4.39413
1763.83	3.95633
1765.34	3.73922
1766.85	3.47619
1768.36	3.83118
1769.87	4.47729
1771.38	4.97263
1772.89	5.39983
1774.4	5.71589
1775.91	4.95242
1777.41	4.94292
1778.92	5.20998
1780.43	5.20303
1781.94	5.24413
1783.44	4.5846
1784.95	5.29421
1786.45	4.86218
1787.96	3.91461
1789.47	3.68698
1790.97	4.37537
1792.48	3.98706
1793.98	3.75382
1795.48	3.5807
1796.99	3.38704
1798.49	2.90106
1800	3.0191
1801.5	3.1246
1803	2.68143
1804.51	2.74262
1806.01	3.19791
1807.51	3.26958
1809.01	3.80758
1810.51	3.67646
1812.02	3.15356
1813.52	3.25536
1815.02	3.43989
1816.52	3.60168
1818.02	4.16931
1819.52	4.36004
1821.02	3.25214
1822.52	3.63783
1824.02	3.58901
1825.51	3.7125
1827.01	3.30751
1828.51	3.56932
1830.01	3.4398
1831.51	3.37137
1833	3.11828
1834.5	3.24752
1836	2.54752
1837.5	2.55783
1838.99	2.65302
1840.49	2.94006
1841.98	3.47379
1843.48	3.52841
1844.97	3.3838
1846.47	3.06277
1847.96	3.63963
1849.46	3.27427
1850.95	3.21397
1852.45	3.20805
1853.94	3.51417
1855.43	3.52637
1856.92	2.72325
1858.42	2.57003
1859.91	2.21439
1861.4	1.15677
1862.89	0.989355
1864.39	1.6406
1865.88	1.54938
1867.37	0.930764
1868.86	1.21275
1870.35	1.5416
1871.84	1.15713
1873.33	1.34437
1874.82	1.70457
1876.31	1.61537
1877.8	2.16102
1879.29	2.41793
1880.77	2.78583
1882.26	3.44145
1882.51	3.36277
1884	3.80779
1885.5	4.36952
1886.99	5.16268
1888.48	5.59953
1889.98	5.32414
1891.47	6.10977
1892.97	6.89523
1894.46	6.98497
1895.95	7.38133
1897.44	7.59173
1898.93	8.69605
1900.42	8.79211
1901.92	9.29633
1903.41	10.1024
1904.9	11.2216
1906.39	11.856
1907.88	12.2498
1909.37	12.8645
1910.86	12.7566
1912.35	12.6583
1913.84	13.134
1915.32	13.1768
1916.81	12.6311
1918.3	11.4369
1919.79	11.204
1921.28	10.5193
1922.76	9.78702
1924.25	10.1305
1925.74	9.70052
1927.22	8.42306
1928.71	7.13828
1930.2	6.95426
1931.68	6.59625
1933.17	5.74762
1934.65	6.05611
1936.14	6.55112
1937.62	6.55471
1939.11	5.79235
1940.59	5.67501
1942.08	4.94624
1943.56	4.37047
1945.04	3.72566
1946.53	3.43327
1948.01	3.16506
1949.49	2.58749
1950.97	2.3344
1952.45	1.48506
1953.94	1.89862
1955.42	2.64521
1956.9	2.52486
1958.38	3.37779
1959.86	3.61799
1961.34	3.043
1962.82	2.40715
1964.3	2.4679
1965.78	3.44439
1967.26	2.9237
1968.74	2.46693
1970.22	3.5388
1971.69	4.78948
1973.17	5.16692
1974.65	5.04746
1976.13	5.93047
1977.61	6.2052
1979.08	6.87874
1980.56	6.80396
1982.03	6.6324
1983.51	5.93608
1984.99	6.222
1986.46	6.5918
1987.94	6.6458
1989.41	6.24946
1990.89	6.39148
1992.36	5.8945
1993.84	6.84012
1995.31	6.76909
1996.78	7.16077
1998.26	7.83965
1999.73	7.40839
2001.2	6.62729
2002.68	6.84665
2004.15	7.39877
2005.62	6.84908
2007.09	6.6174
2008.56	7.05292
2010.04	6.73145
2011.51	6.20544
2012.98	5.74706
2014.45	5.0563
2015.92	4.82619
2017.39	5.10805
2018.86	4.94341
2020.33	5.13901
2021.8	5.26852
2023.27	5.36922
2024.74	6.65015
2026.2	7.04207
2027.67	8.21178
2029.14	9.21
2030.61	9.53508
2032.07	9.78594
2033.54	9.43386
2035.01	10.0226
2036.47	11.4187
2037.94	11.5293
2039.41	11.7843
2040.87	11.9339
2042.34	12.9189
2043.8	13.7249
2045.27	13.6026
2046.73	13.5281
2048.2	14.2103
2049.66	14.2542
2051.12	14.4669
2052.59	14.9463
2054.05	14.4347
2055.51	14.5606
2056.98	15.0418
2058.44	16.2711
2059.9	15.9174
2061.36	15.8484
2062.82	15.8014
2064.29	16.0146
2065.75	15.9527
2067.21	16.2267
2068.67	16.9073
2070.13	17.1368
2071.59	17.1711
2073.05	16.6548
2074.51	16.5397
2075.97	16.9436
2077.43	17.4021
2078.88	17.551
2080.34	18.8123
2081.8	19.8031
2083.26	19.3599
2084.72	19.4754
2086.17	19.9982
2087.63	21.0013
2089.09	21.4024
2090.54	21.721
2092	22.1777
2093.46	23.3305
2094.91	23.7973
2096.37	25.2365
2097.82	26.272
2099.28	26.1318
2100.73	26.4163
2102.19	27.5334
2103.64	28.1623
2105.09	28.8018
2106.55	28.8774
2108	29.6229
2109.46	29.4266
2110.91	29.4237
2112.36	29.8704
2113.81	30.8016
2115.27	31.336
2116.72	31.7718
2118.17	31.5948
2119.62	31.2702
2121.07	31.5913
2122.52	31.9171
2123.97	32.6457
2125.42	32.9087
2126.87	33.607
2128.32	34.3634
2129.77	35.1526
2131.22	35.4287
2132.67	36.2198
2134.12	37.1633
2135.57	38.3198
2137.01	39.9768
2138.46	41.2397
2139.91	41.8256
2141.36	43.8382
2142.8	44.9909
2144.25	45.9359
2145.7	46.7982
2147.14	47.7227
2148.59	48.3279
2150.03	49.7264
2151.48	51.5731
2152.92	52.335
2154.37	52.4201
2155.81	52.555
2157.26	52.6587
2158.7	53.8712
2160.15	55.0378
2161.59	54.9283
2163.03	55.5908
2164.48	56.7987
2165.92	58.0676
2167.36	58.546
2168.8	59.8427
2170.25	59.5352
2171.69	59.2857
2173.13	59.9508
2174.57	60.0644
2176.01	59.7648
2177.45	60.0811
2178.89	59.6679
2180.33	59.0712
2181.77	58.759
2183.21	58.8866
2184.65	58.8545
2186.09	58.8615
2187.53	58.1697
2188.97	57.303
2190.41	55.8313
2191.84	55.6726
2193.28	55.0761
2194.72	55.0399
2196.16	54.3604
2197.59	53.4117
2199.03	53.4035
2200.47	52.1569
2201.9	51.6211
2203.34	51.4873
2204.78	51.1333
2206.21	50.2432
2207.65	49.7644
2209.08	49.3234
2210.51	47.7364
2211.95	46.6598
2213.38	46.4614
2214.82	44.5667
2216.25	42.2287
2217.68	40.9229
2219.12	39.9903
2220.55	38.7117
2221.98	38.8393
2223.42	37.4787
2224.85	35.7722
2226.28	35.8043
2227.71	35.0227
2229.14	33.96
2230.57	34.0031
2232	32.2959
2233.43	31.1588
2234.86	30.431
2236.29	29.8194
2237.72	28.9344
2239.15	27.1524
2240.58	26.4498
2242.01	24.9902
2243.44	24.4512
2244.87	23.689
2246.3	22.9675
2247.73	23.1704
2249.15	23.1562
2250.58	21.399
2252.01	20.8988
2253.43	21.1241
2254.86	20.7253
2256.29	20.9886
2257.71	19.4288
2259.14	18.9646
2260.56	18.9322
2261.99	18.6293
2263.41	18.6269
2264.84	18.6497
2266.26	19.1613
2267.69	19.2501
2269.11	19.5506
2270.54	19.4797
2271.96	19.1069
2273.38	19.5848
2274.81	20.2045
2276.23	20.0497
2277.65	20.34
2279.07	20.4239
2280.49	19.9009
2281.92	18.8931
2283.34	18.6657
2284.76	18.8354
2286.18	17.8886
2287.6	18.3039
2289.02	18.4235
2290.44	18.0944
2291.86	17.4527
2293.28	17.5569
2294.7	17.0004
2296.12	17.4783
2297.54	18.1774
2298.96	17.5407
2300.38	17.22
2301.79	16.7221
2303.21	17.3883
2304.63	17.3831
2306.05	17.1272
2307.46	17.0244
2308.88	16.6947
2310.3	16.3338
2311.71	16.9815
2313.13	16.6793
2314.55	17.4971
2315.96	17.1995
2317.38	17.989
2318.79	17.7896
2320.21	17.3514
2321.62	16.0171
2323.03	15.8954
2324.45	14.73
2325.86	14.2914
2327.27	13.5924
2328.69	13.1393
2330.1	13.7029
2331.51	13.3739
2332.93	12.896
2334.34	12.497
2335.75	12.2698
2337.16	12.7853
2338.57	12.1968
2339.99	11.2191
2341.4	10.771
2342.81	10.928
2344.22	10.9946
2345.63	10.2794
2347.04	9.66133
2348.45	9.49684
2349.86	8.60142
2351.26	7.72676
2352.67	7.18743
2354.08	6.72146
2355.49	6.50287
2356.9	5.43771
2358.31	5.27248
2359.71	4.33691
2361.12	4.1669
2362.53	4.23685
2363.94	4.53305
2365.34	5.09875
2366.75	5.43576
2368.15	5.29065
2369.56	5.20869
2370.97	5.57232
2372.37	5.8129
2373.78	6.08337
2375.18	5.46994
2376.59	5.603
2377.99	5.76772
2379.39	5.8117
2380.8	6.74076
2382.2	6.58349
2383.61	7.58521
2385.01	7.62888
2386.41	7.55525
2387.81	7.55246
2389.22	7.02723
2390.62	6.72647
2392.02	6.05845
2393.42	6.52979
2394.82	7.08523
2396.22	8.46274
2397.63	8.90893
2399.02	9.52294
2400.43	9.44699
2401.82	8.68162
2403.23	9.00651
2404.62	9.04826
2406.02	9.36311
2407.42	10.1753
2408.82	9.68982
2410.22	10.5242
2411.62	10.7694
2413.02	10.4048
2414.41	9.68878
2415.81	9.18468
2417.21	9.6029
2418.61	9.24899
2420	8.21262
2421.4	8.13175
2422.79	8.16819
2424.19	6.86369
2425.59	6.48066
2426.98	6.80844
2428.38	6.66363
2429.77	5.50683
2431.17	5.02605
2432.56	4.65732
2433.96	4.21768
2435.35	4.06682
2436.74	3.84944
2438.14	3.6623
2439.53	3.74004
2440.92	3.41236
2442.32	2.85967
2443.71	3.10288
2445.1	3.47096
2446.49	3.07955
2447.88	2.98257
2449.28	3.33262
2450.67	3.00275
2452.06	2.61546
2453.45	3.26853
2454.84	2.48986
2456.23	2.75764
2457.62	2.15871
2459.01	2.4279
2460.4	3.08911
2461.79	3.0945
2463.18	3.56037
2464.57	3.74807
2465.96	3.77735
2467.34	3.40509
2468.73	3.19732
2470.12	3.02111
2471.51	3.06404
2472.89	3.30167
2474.28	3.03257
2475.67	3.4301
2477.05	3.82961
2478.44	4.43442
2479.83	4.84679
2481.21	4.60438
2482.6	4.5646
2483.98	4.84738
2485.37	5.09473
2486.75	5.70619
2488.14	5.29075
2489.52	5.64751
2490.9	5.86443
2492.29	5.77093
2493.67	5.09098
2495.06	5.47252
2496.44	5.81405
2497.82	4.34829
2499.2	3.73953
2500.59	4.19418
2501.97	4.44503
2503.35	4.56944
2504.73	4.68041
2506.11	4.96745
2507.49	4.58916
2508.88	4.60182
2510.26	4.84427
2511.63	4.56537
2513.01	5.61272
2514.39	4.46753
2515.77	4.1066
2517.15	4.35987
2518.53	4.38814
2519.91	3.5781
2521.29	3.90012
2522.67	3.79617
2524.05	3.2594
2525.42	3.74586
2526.8	3.53591
2528.18	3.09755
2529.56	3.09425
2530.93	2.59414
2532.31	2.38507
2533.69	2.94471
2535.06	2.67234
2536.44	2.24794
2537.81	2.19801
2539.19	1.97132
2540.56	2.07422
2541.94	2.06334
2543.31	2.96638
2544.69	4.0892
2546.06	4.5115
2547.44	4.71049
2548.81	4.74239
2550.18	4.90165
2551.56	4.42846
2552.93	4.6581
2554.3	5.15639
2555.68	5.52077
2557.05	4.79506
2558.42	5.10052
2559.79	4.46336
2561.16	4.27483
2562.53	4.27699
2563.9	3.60316
2565.28	3.6695
2566.64	2.79918
2568.02	3.44731
2569.38	3.80648
2570.76	3.4059
2572.12	4.15787
2573.49	3.97995
2574.86	4.37607
2576.23	4.95393
2577.6	5.36861
2578.97	5.56751
2580.34	5.89425
2581.7	6.93352
2583.07	6.83568
2584.44	7.43739
2585.81	7.30005
2587.17	6.84493
2588.54	6.74198
2589.91	6.82681
2591.27	6.04982
2592.64	5.99006
2594	6.40565
2595.37	6.10392
2596.73	6.07849
2598.1	6.74223
2599.46	6.40626
2600.83	5.7407
2602.19	5.64198
2603.55	4.74837
2604.92	5.19531
2606.28	5.25274
2607.64	4.54131
2609.01	5.00284
2610.37	5.3869
2611.73	5.8029
2613.09	5.79647
2614.46	4.70912
2615.82	4.59324
2617.18	4.73448
2618.54	4.72703
2619.9	5.15341
2621.26	5.81985
2622.62	5.7871
2623.98	5.05813
2625.34	5.17247
2626.7	4.75985
2628.06	4.0554
2629.42	4.32011
2630.78	4.26654
2632.14	3.71979
2633.5	4.06647
2634.86	3.46233
2636.22	3.81986
2637.57	4.58604
2638.93	4.65098
2640.29	5.51731
2641.64	5.1676
2643	6.09815
2644.36	6.23321
2645.72	6.24709
2647.07	5.99158
2648.43	6.68189
2649.78	6.18272
2651.14	5.53149
2652.49	5.16818
2653.85	4.80117
2655.2	4.63319
2656.56	4.45243
2657.91	4.23064
2659.27	3.97617
2660.62	4.24654
2661.97	5.02765
2663.33	4.6117
2664.68	3.73445
2666.03	3.91222
2667.38	3.31367
2668.74	2.76865
2670.09	3.07481
2671.44	3.31779
2672.79	4.11605
2674.14	4.25532
2675.49	4.37135
2676.84	4.75858
2678.2	4.60157
2679.55	4.21873
2680.89	4.90191
2682.24	4.5818
2683.59	5.64916
2684.94	5.6726
2686.29	5.49601
2687.64	5.92448
2688.99	5.50823
2690.34	4.98143
2691.69	5.05424
2693.04	4.94743
2694.38	4.59809
2695.73	5.13868
2697.08	5.60094
2698.43	5.25404
2699.77	4.92103
2701.12	5.32396
2702.46	5.25869
2703.81	6.1483
2705.16	6.41911
2706.5	5.92435
2707.85	6.35164
2709.19	6.94183
2710.54	7.04239
2711.88	6.77677
2713.23	6.97313
2714.57	6.70245
2715.92	6.52587
2717.26	6.08765
2718.6	6.28431
2719.95	7.14506
2721.29	7.01434
2722.63	6.83782
2723.97	6.61836
2725.32	6.93983
2726.66	6.95378
2728	6.60474
2729.34	6.85554
2730.68	5.90662
2732.02	5.48771
2733.36	6.04637
2734.7	4.96137
2736.04	4.5872
2737.39	4.82137
2738.72	4.31427
2740.06	4.12823
2741.4	3.69443
2742.74	3.34231
2744.08	2.77259
2745.42	2.72422
2746.76	3.18768
2748.1	3.5074
2749.44	2.14654
2750.77	1.85971
2752.11	0.988968
2753.45	0.932316
2754.78	1.40123
2756.12	1.90232
2757.46	1.42124
2758.79	1.25464
2760.13	0.830726
2761.47	0.964888
2762.8	1.02429
2764.14	0.444572
2765.47	0.732953
2766.81	0.281255
2768.14	1.0001
2769.48	0.824204
2770.81	1.56271
2772.14	2.34148
2773.48	3.19155
2774.81	3.11767
2776.14	2.95409
2777.48	3.06956
2778.81	2.88743
2780.14	3.13687
2781.47	3.74734
2782.81	4.09266
2784.14	5.07655
2785.47	5.55928
2786.8	6.23594
2788.13	5.4817
2789.46	5.30905
2790.79	4.96894
2792.12	5.23573
2793.46	4.66225
2794.79	4.66061
2796.11	4.65489
2797.44	4.68178
2798.77	4.21692
2800.1	4.21443
2801.43	3.47144
2802.76	3.39706
2804.09	3.18012
2805.42	3.0583
2806.74	3.00154
2808.07	2.77582
2809.4	2.54952
2810.73	1.8889
2812.05	1.84872
2813.38	1.99307
2814.71	2.38775
2816.03	2.01482
2817.36	2.53407
2818.68	3.15381
2820.01	4.62271
2821.33	5.03026
2822.66	6.60773
2823.98	7.15348
2825.31	8.60075
2826.63	10.3144
2827.96	12.1788
2829.28	13.639
2830.61	16.1089
2831.93	18.0404
2833.25	19.0319
2834.57	22.2956
2835.9	23.8682
2837.22	26.2592
2838.54	28.3024
2839.86	29.6305
2841.18	31.624
2842.51	34.9835
2843.83	37.7874
2845.15	39.6028
2846.47	42.6749
2847.79	45.6471
2849.11	48.1415
2850.43	50.739
2851.75	53.665
2853.07	56.0865
2854.39	58.394
2855.71	62.2386
2857.03	64.2367
2858.35	67.0935
2859.67	69.3327
2860.98	71.0965
2862.3	72.5149
2863.62	74.1424
2864.94	74.9022
2866.25	76.9547
2867.57	78.3495
2868.89	79.5796
2870.21	80.6797
2871.52	81.2808
2872.84	81.8676
2874.15	83.0715
2875.47	84.0288
2876.78	85.4863
2878.1	86.7351
2879.42	88.4857
2880.73	89.3466
2882.04	89.807
2883.36	91.0634
2884.67	91.7948
2885.99	92.9734
2887.3	93.3759
2888.61	94.7764
2889.93	96.0367
2891.24	97.239
2892.55	98.3462
2893.87	100.162
2895.18	100.998
2896.49	102.385
2897.8	103.005
2899.11	104.367
2900.42	106.279
2901.74	107.044
2903.05	109.371
2904.36	111.608
2905.67	114.5
2906.98	116.288
2908.29	118.278
2909.6	120.519
2910.91	123.575
2912.22	126.865
2913.53	129.835
2914.83	132.352
2916.14	135.649
2917.45	138.66
2918.76	141.182
2920.07	143.543
2921.37	144.993
2922.68	145.345
2923.99	146.746
2925.3	147.481
2926.6	147.663
2927.91	148.425
2929.22	148.682
2930.52	148.427
2931.83	148.736
2933.13	148.942
2934.44	147.967
2935.74	146.964
2937.05	144.952
2938.35	144.238
2939.66	142.921
2940.96	141.721
2942.27	140.4
2943.57	138.477
2944.87	136.588
2946.18	134.075
2947.48	131.324
2948.78	128.232
2950.09	126.181
2951.39	124.407
2952.69	122.39
2953.99	120.792
2955.29	118.853
2956.6	116.315
2957.9	113.53
2959.2	111.463
2960.5	107.794
2961.8	105.464
2963.1	102.714
2964.4	101.064
2965.7	99.4431
2967	97.4249
2968.3	95.7411
2969.6	93.8167
2970.9	91.3025
2972.2	88.138
2973.49	86.4101
2974.79	83.9148
2976.09	81.4646
2977.39	78.5109
2978.69	75.8624
2979.98	73.0351
2981.28	70.8928
2982.58	68.2594
2983.88	65.6429
2985.17	62.028
2986.47	58.1042
2987.76	55.3627
2989.06	52.232
2990.36	49.3924
2991.65	46.1593
2992.95	42.7824
2994.24	39.6627
2995.54	37.2109
2996.83	34.9149
2998.12	33.1283
2999.42	29.047
3000.71	26.3813
3002	23.8657
3003.3	21.7742
3004.59	20.3384
3005.88	18.4527
3007.18	16.0384
3008.47	14.3325
3009.76	13.0767
3011.05	11.5166
3012.35	10.1955
3013.64	9.69637
3014.93	9.33636
3016.22	8.44856
3017.51	8.19365
3018.8	6.56998
3020.09	5.71754
3021.38	5.42212
3022.67	4.78367
3023.96	4.59163
3025.25	3.52905
3026.54	3.39803
3027.83	3.22389
3029.12	3.69489
3030.41	3.21827
3031.69	2.47171
3032.98	2.08741
3034.27	1.33737
3035.56	0.709236
3036.85	0.562386
3038.13	0.698512
3039.42	0.24629
3040.71	1.27419
3041.99	1.73809
3043.28	2.41187
3044.57	2.59186
3045.85	3.59042
3047.14	3.62285
3048.42	3.45265
3049.71	3.15989
3050.99	2.99341
3052.28	3.92231
3053.56	3.7548
3054.85	3.81723
3056.13	3.89469
3057.42	4.07997
3058.7	5.00601
3059.98	5.62556
3061.27	6.32008
3062.55	6.94014
3063.83	6.84516
3065.11	7.38494
3066.4	7.12568
3067.68	7.45593
3068.96	8.13415
3070.24	7.88213
3071.52	8.4972
3072.8	9.26305
3074.09	9.18521
3075.37	8.69277
3076.65	9.06034
3077.93	9.06509
3079.21	8.48372
3080.49	7.70036
3081.77	7.27035
3083.05	6.48907
3084.32	6.75359
3085.61	6.35703
3086.88	5.63767
3088.16	5.05752
3089.44	4.46985
3090.72	4.73342
3092	4.40293
3093.27	4.47315
3094.55	4.16956
3095.83	3.70015
3097.11	2.97591
3098.38	3.53528
3099.66	3.99807
3100.94	4.85019
3102.21	4.8205
3103.49	4.45571
3104.76	5.41207
3106.04	6.04586
3107.31	5.34795
3108.59	5.01711
3109.86	5.8924
3111.14	5.59541
3112.41	6.02775
3113.69	6.57206
3114.96	7.31895
3116.23	7.54334
3117.51	8.12413
3118.78	8.89708
3120.05	10.0341
3121.33	11.0397
3122.6	12.0095
3123.87	12.7414
3125.14	13.506
3126.42	13.4291
3127.69	14.0122
3128.96	14.0818
3130.23	14.6242
3131.5	15.8805
3132.77	16.1481
3134.04	17.0138
3135.31	17.4717
3136.58	17.6659
3137.85	17.7277
3139.12	18.3582
3140.39	18.6815
3141.66	18.5928
3142.93	18.7601
3144.2	19.3707
3145.47	19.9047
3146.74	20.3234
3148	20.9278
3149.27	21.5213
