#Acq. time (s)=	45
#Accumulations=	2
#Range (cm-¹)=	200...3150
#Windows=	2
#Auto scanning=	Off
#Autofocus=	Off
#Macrospot=	Off
#AutoExposure=	Off
#Spike filter=	Multiple accum.
#Delay time (s)=	0
#Binning=	1
#Readout mode=	Signal
#DeNoise=	Off
#ICS correction=	On
#Dark correction=	Off
#Inst. Process=	Off
#Detector Gain=	Best Dynamic Range
#Detector ADC=	20 kHz       
#Detector temperature (°C)=	-69.85
#Instrument=	LabRAM HR Evol
#Detector=	Synapse
#Objective=	x100
#Grating=	600 gr/mm
#ND Filter=	100%
#Laser (nm)=	532 
#Hole=	100.021
#Range=	Auto
#Laser Pol.=	No
#Raman. Pol.=	No
#Laser Pol. (°)=	-0.0007625
#Raman Pol. (°)=	89.9995
#Collection=	Microscope
#StageXY=	Marzhauser
#StageZ=	Marzhauser
#X (µm)=	28337.3
#Y (µm)=	-3244.3
#Z (µm)=	1041.05
#Full time(mm:ss)=	3:19
#Project=	
#Sample=	
#Site=	
#Title=	Mb_50_18_32_2x_45s_532 nm_x100_100%_600 gr_mm
#Remark=	
#Date=	12.07.2022 13:19
#Acquired=	12.07.2022 13:19:31
#Base:Fit=	10.08.2022 10:49:18
#Base:Sub=	10.08.2022 10:49:30
#Filter:Polynom=	16.08.2022 10:14:59
#AxisType[0]=Intens
#AxisUnit[0]=Cnt
#AxisType[1]=Spectr
#AxisUnit[1]=1/cm
200.388	44.4678
202.204	40.4071
204.019	37.0825
205.832	34.5452
207.646	31.605
209.459	28.5229
211.274	26.2629
213.087	24.3631
214.899	23.1107
216.711	21.0246
218.524	20.3102
220.335	19.6001
222.146	19.4357
223.956	17.6608
225.766	16.0637
227.576	15.7311
229.388	14.4991
231.197	13.0045
233.005	11.918
234.813	12.376
236.621	11.4604
238.429	10.7023
240.236	10.4582
242.045	10.1966
243.852	10.106
245.658	9.55121
247.464	9.19932
249.269	9.44626
251.074	9.45729
252.879	8.77883
254.683	10.1384
256.487	9.90857
258.291	10.1601
260.094	11.0967
261.897	11.8776
263.702	11.9405
265.504	11.0754
267.306	10.8257
269.108	8.95105
270.909	8.41216
272.71	7.98798
274.511	5.45673
276.311	4.5106
278.111	3.7476
279.91	4.32974
281.709	3.33636
283.508	3.09611
285.306	2.6271
287.105	2.79018
288.9	2.45629
290.698	4.57527
292.495	4.06624
294.291	4.7079
296.088	5.47594
297.884	8.14071
299.679	10.7937
301.475	13.4297
303.27	15.1717
305.064	18.2706
306.858	20.1315
308.652	23.5111
310.444	25.5163
312.237	27.0719
314.03	28.0563
315.822	29.6338
317.615	31.793
319.406	31.6175
321.198	32.9022
322.987	33.6231
324.778	34.2779
326.568	33.5732
328.358	33.6194
330.148	33.7521
331.935	33.4315
333.724	32.0713
335.513	31.003
337.301	29.0295
339.089	27.1654
340.875	24.5255
342.662	22.784
344.449	22.0495
346.236	20.9807
348.02	21.2951
349.806	22.6656
351.592	23.9916
353.375	25.977
355.16	28.1792
356.944	31.2092
358.728	35.416
360.51	39.9348
362.294	43.9126
364.077	47.3896
365.858	52.2975
367.64	57.3772
369.422	62.908
371.202	66.7449
372.983	71.2569
374.764	75.4432
376.543	79.7345
378.324	83.1563
380.102	88.1954
381.881	91.8581
383.661	95.1436
385.438	98.2908
387.216	101.521
388.993	103.272
390.771	104.121
392.548	105.595
394.324	106.27
396.101	104.404
397.875	102.113
399.651	99.8905
401.425	96.4909
403.201	92.6481
404.974	87.9057
406.749	83.637
408.524	78.5369
410.296	73.7403
412.07	67.4789
413.841	61.4131
415.614	54.6263
417.385	48.0059
419.156	41.033
420.928	34.0548
422.698	26.5278
424.469	20.3743
426.238	13.2354
428.009	8.64677
429.777	5.16651
431.548	2.1104
433.315	-0.776209
435.083	-2.75431
436.852	-4.08628
438.618	-3.6834
440.387	-4.15101
442.153	-3.86778
443.919	-3.1037
445.686	-2.10396
447.451	-0.696885
449.218	-0.130044
450.982	0.592043
452.746	2.08541
454.512	2.2736
456.275	2.45233
458.038	3.08482
459.803	3.23895
461.565	3.41586
463.327	3.69578
465.091	4.12531
466.852	4.91985
468.613	5.44417
470.374	5.80114
472.136	6.02126
473.896	6.98774
475.655	7.86801
477.415	9.3072
479.176	11.8522
480.934	15.6468
482.692	17.5972
484.45	20.6668
486.21	25.6504
487.967	30.4911
489.724	34.3289
491.481	40.2206
493.237	45.2834
494.995	52.3992
496.75	57.9438
498.506	63.2942
500.26	69.8709
502.015	75.4086
503.771	79.7107
505.525	83.9714
507.279	88.3022
509.032	93.4979
510.785	96.7646
512.537	99.4492
514.289	102.177
516.041	104.773
517.793	106.389
519.546	106.828
521.297	107.694
523.047	108.45
524.797	108.745
526.547	108.423
528.297	106.016
530.046	104.349
531.795	101.911
533.543	98.6441
535.291	95.7411
537.039	91.9258
538.787	87.1413
540.534	83.2145
542.281	78.0681
544.027	73.8348
545.773	67.9892
547.519	62.3001
549.264	56.4472
551.01	50.378
552.754	44.1104
554.499	38.8337
556.243	33.1368
557.987	29.2549
559.73	24.9214
561.474	20.9507
563.216	18.1698
564.959	16.8875
566.701	14.7248
568.441	12.8176
570.182	11.9148
571.923	12.3003
573.664	12.2373
575.405	11.4201
577.145	12.4667
578.885	14.1871
580.624	14.9138
582.361	17.4947
584.1	17.8214
585.839	19.3362
587.577	20.1683
589.315	20.101
591.052	20.2362
592.787	20.7864
594.524	21.9677
596.26	23.0936
597.997	23.2025
599.732	24.0106
601.466	25.7837
603.201	25.8557
604.936	26.1348
606.67	26.1785
608.403	26.6314
610.136	26.1069
611.87	25.4591
613.603	25.5565
615.334	25.3232
617.067	25.1646
618.799	24.4286
620.529	24.337
622.26	24.8066
623.991	23.8641
625.72	23.246
627.451	23.7332
629.181	22.4712
630.909	20.3699
632.638	17.4884
634.368	16.9782
636.095	15.6366
637.823	13.7935
639.551	12.5814
641.277	12.0034
643.005	10.9304
644.73	9.08333
646.457	6.79698
648.184	5.5585
649.908	5.52697
651.634	4.8573
653.357	3.99615
655.083	4.23813
656.806	3.67491
658.53	4.31251
660.253	4.12453
661.977	4.53794
663.7	4.46789
665.422	4.75413
667.145	4.78724
668.865	5.32553
670.588	5.19735
672.308	5.12704
674.027	4.72586
675.749	5.93406
677.468	5.78253
679.188	6.87949
680.907	7.89687
682.627	10.3931
684.345	12.0888
686.064	14.134
687.781	14.8839
689.498	15.3674
691.216	16.4892
692.932	17.9898
694.65	19.6869
696.366	20.6203
698.081	22.6154
699.797	23.6355
701.512	24.0192
703.228	25.1528
704.942	26.5214
706.655	28.0379
708.371	28.7564
710.083	29.3906
711.796	30.1079
713.51	30.4282
715.222	30.0227
716.934	28.8957
718.645	27.3411
720.358	26.8554
722.068	25.3501
723.779	23.3593
725.49	22.5433
727.2	21.2617
728.909	19.3914
730.618	18.4911
732.329	19.8662
734.037	21.8506
735.745	25.9167
737.453	29.763
739.16	35.995
740.869	43.2457
742.576	51.3813
744.282	61.0755
745.988	70.6943
747.694	80.2747
749.401	91.0661
751.107	102.787
752.811	113.294
754.516	123.731
756.22	133.243
757.924	141.929
759.627	151.369
761.332	161.266
763.035	168.277
764.738	176.97
766.44	182.903
768.142	190.678
769.843	196.195
771.544	200.247
773.245	203.105
774.946	206.594
776.646	209.049
778.346	209.449
780.046	209.791
781.745	208.452
783.444	206.318
785.143	203.611
786.841	200.184
788.539	195.773
790.237	190.425
791.934	184.135
793.631	177.061
795.328	169.333
797.024	161.024
798.72	151.32
800.416	140.358
802.112	129.186
803.807	118.559
805.502	109.393
807.196	100.324
808.89	91.434
810.584	83.3861
812.278	75.0329
813.971	68.0908
815.664	63.0658
817.354	58.8036
819.047	56.5864
820.739	55.0826
822.43	53.1153
824.122	52.4954
825.813	51.5923
827.503	52.4065
829.192	52.8992
830.882	53.4342
832.571	53.5979
834.261	54.4355
835.95	53.1431
837.637	53.0098
839.325	52.6889
841.013	51.5619
842.701	50.0986
844.389	50.0581
846.074	49.5101
847.761	48.2711
849.447	48.1827
851.131	46.9043
852.817	46.937
854.503	45.8208
856.188	44.1286
857.871	43.4309
859.556	41.8333
861.24	40.6716
862.922	39.4707
864.606	39.1573
866.289	38.173
867.97	37.6169
869.653	36.7338
871.336	35.869
873.016	35.9062
874.698	36.2303
876.379	36.5433
878.058	36.1415
879.739	36.3497
881.418	36.3429
883.098	35.2727
884.778	34.5834
886.456	34.6621
888.135	35.1863
889.812	34.8621
891.49	34.2491
893.167	33.7591
894.845	33.0085
896.523	32.5864
898.198	31.973
899.875	32.0632
901.55	32.9409
903.226	32.8047
904.901	32.0554
906.576	32.2756
908.25	33.0713
909.925	33.8975
911.598	35.4557
913.271	35.57
914.945	35.8166
916.617	36.7576
918.291	36.0388
919.962	35.7283
921.635	35.9645
923.306	35.0626
924.978	33.505
926.648	33.4941
928.318	33.9394
929.989	33.4837
931.659	32.6227
933.328	32.5831
934.998	31.4474
936.666	31.19
938.336	31.0013
940.004	30.5897
941.671	29.7786
943.34	28.5283
945.007	27.5045
946.673	26.7273
948.339	25.7286
950.007	26.0698
951.672	25.2788
953.337	23.8963
955.004	24.0903
956.669	23.191
958.333	22.01
959.997	20.6217
961.662	20.1977
963.326	20.2781
964.989	19.1266
966.651	19.1942
968.315	18.8391
969.977	18.0061
971.639	17.9723
973.301	17.9028
974.962	17.1803
976.624	17.5836
978.285	16.4203
979.945	15.3633
981.605	14.569
983.264	14.1338
984.924	14.5453
986.583	13.0883
988.243	12.1563
989.901	12.6173
991.56	13.5442
993.217	15.1403
994.875	16.8412
996.532	19.2873
998.188	22.1626
999.845	25.777
1001.5	28.7136
1003.16	33.8266
1004.81	38.1041
1006.47	44.1824
1008.12	50.0678
1009.78	57.2904
1011.43	63.8704
1013.09	69.2711
1014.74	75.147
1016.39	81.9534
1018.05	87.1657
1019.7	93.9404
1021.35	99.361
1023	103.475
1024.65	107.043
1026.31	111.368
1027.96	115.699
1029.61	120.172
1031.26	122.345
1032.91	124.64
1034.56	124.296
1036.21	124.599
1037.86	124.565
1039.51	124.328
1041.16	124.443
1042.8	123.637
1044.45	122.943
1046.1	120.008
1047.75	115.996
1049.39	113.267
1051.04	109.058
1052.69	105.716
1054.33	103.5
1055.98	102.101
1057.62	100.517
1059.27	100.314
1060.91	99.4306
1062.56	99.0632
1064.2	99.8226
1065.85	99.8055
1067.49	100.693
1069.13	100.855
1070.77	101.833
1072.42	103.529
1074.06	104.663
1075.7	106.715
1077.34	107.965
1078.98	109.872
1080.62	111.104
1082.27	112.233
1083.91	113.419
1085.55	114.179
1087.18	114.861
1088.82	116.361
1090.46	117.59
1092.1	117.73
1093.74	117.329
1095.38	116.016
1097.02	114.85
1098.65	114.041
1100.29	111.618
1101.93	108.879
1103.56	104.791
1105.2	100.452
1106.84	96.3113
1108.47	91.4508
1110.11	85.1454
1111.74	78.1624
1113.38	70.1829
1115.01	63.9891
1116.64	56.9937
1118.28	50.0004
1119.91	42.5572
1121.54	35.9372
1123.18	29.2069
1124.81	22.0386
1126.44	16.7839
1128.07	11.4175
1129.7	8.49364
1131.33	6.29597
1132.97	5.59343
1134.6	4.0549
1136.23	4.27548
1137.86	5.15361
1139.49	5.68056
1141.11	6.38055
1142.74	7.2101
1144.37	7.368
1146	7.99188
1147.63	8.16702
1149.26	8.55865
1150.88	8.86325
1152.51	9.04271
1154.14	9.84544
1155.76	10.8522
1157.39	11.2265
1159.01	11.2972
1160.64	11.2293
1162.27	11.733
1163.89	13.073
1165.51	14.635
1167.14	16.2197
1168.76	18.9189
1170.39	20.8694
1172.01	22.9076
1173.63	23.8827
1175.25	25.3161
1176.88	25.8594
1178.5	26.2517
1180.12	27.4834
1181.74	27.6427
1183.36	28.2406
1184.98	28.9639
1186.6	29.155
1188.22	29.1274
1189.84	29.1106
1191.46	28.9283
1193.08	28.7199
1194.7	29.3001
1196.32	29.5031
1197.94	28.7783
1199.55	27.2948
1201.17	27.5677
1202.79	27.0974
1204.41	27.7699
1206.02	28.1129
1207.64	28.3352
1209.25	28.2149
1210.87	28.6721
1212.48	28.4817
1214.1	28.3408
1215.71	27.2825
1217.33	28.6049
1218.94	28.7461
1220.56	29.1033
1222.17	29.7316
1223.79	30.5659
1225.4	31.4103
1227.01	31.8803
1228.62	31.8717
1230.23	32.7377
1231.85	32.5593
1233.46	33.0095
1235.07	33.0975
1236.68	33.1251
1238.29	33.3015
1239.9	34.3826
1241.51	34.7478
1243.12	36.6934
1244.73	38.5895
1246.34	39.1119
1247.94	39.0777
1249.55	40.3745
1251.16	39.7437
1252.77	40.5378
1254.37	40.7687
1255.98	41.3291
1257.59	41.307
1259.2	42.0216
1260.8	43.7005
1262.41	45.1947
1264.01	47.7703
1265.62	48.358
1267.22	49.4674
1268.83	51.3744
1270.43	53.6353
1272.03	54.0231
1273.64	55.5799
1275.24	56.7422
1276.85	57.1255
1278.45	58.6179
1280.05	59.2108
1281.65	61.0244
1283.25	60.7467
1284.85	61.6804
1286.46	62.0529
1288.06	61.9372
1289.66	62.6879
1291.26	62.7819
1292.86	61.9305
1294.46	61.2636
1296.06	61.5358
1297.66	62.0117
1299.25	61.3509
1300.85	60.8368
1302.45	60.786
1304.05	61.1377
1305.65	60.6876
1307.24	59.3026
1308.84	57.8166
1310.43	57.8502
1312.03	55.5402
1313.63	55.5201
1315.22	54.5771
1316.82	54.2879
1318.41	52.9628
1320.01	52.476
1321.6	51.5984
1323.2	50.204
1324.79	49.1611
1326.38	46.9355
1327.98	45.5998
1329.57	45.5506
1331.16	44.338
1332.76	45.4106
1334.35	44.473
1335.94	44.3138
1337.53	44.0549
1339.12	44.6548
1340.71	44.7791
1342.3	44.2187
1343.89	43.3214
1345.48	41.2402
1347.07	40.8117
1348.66	39.7065
1350.25	39.1772
1351.84	37.4209
1353.43	36.8775
1355.01	35.6405
1356.6	34.7129
1358.19	33.0493
1359.77	31.5096
1361.36	30.2749
1362.95	27.9501
1364.53	27.4826
1366.12	26.9538
1367.71	25.8521
1369.29	25.3707
1370.88	23.9293
1372.46	23.3882
1374.04	23.2013
1375.63	22.3654
1377.21	21.9241
1378.8	20.2214
1380.38	19.8262
1381.96	19.6699
1383.54	19.4775
1385.13	18.0095
1386.71	17.4885
1388.29	17.7059
1389.87	17.2948
1391.45	17.3176
1393.03	17.7998
1394.61	17.8222
1396.19	17.3875
1397.77	17.7147
1399.35	19.2429
1400.93	21.5521
1402.51	23.5796
1404.09	26.878
1405.67	30.0976
1407.24	33.7668
1408.82	38.8468
1410.4	44.0994
1411.98	48.7906
1413.55	52.7623
1415.13	57.7236
1416.71	61.3555
1418.28	65.2631
1419.86	68.8428
1421.43	73.5906
1423.01	77.9967
1424.58	82.9444
1426.16	87.5351
1427.73	92.7199
1429.31	98.3521
1430.88	102.113
1432.45	106.254
1434.02	110.113
1435.6	113.27
1437.17	115.182
1438.74	117.725
1440.31	119.788
1441.88	121.969
1443.45	124.23
1445.03	124.56
1446.6	123.316
1448.17	122.919
1449.74	121.76
1451.3	120.302
1452.87	118.257
1454.44	116.638
1456.01	114.038
1457.58	110.577
1459.15	107.901
1460.72	104.779
1462.28	101.106
1463.85	96.5786
1465.42	92.9467
1466.98	88.0255
1468.55	82.2747
1470.12	77.6461
1471.68	72.9309
1473.25	68.2545
1474.81	64.0901
1476.38	61.6244
1477.94	58.4494
1479.51	55.2311
1481.07	50.8047
1482.63	47.5604
1484.2	44.3509
1485.76	40.789
1487.32	39.2747
1488.88	36.647
1490.45	33.1092
1492.01	30.6853
1493.57	27.8757
1495.13	24.9831
1496.69	22.898
1498.25	21.4232
1499.81	20.4165
1501.37	19.4123
1502.93	18.2878
1504.49	17.1002
1506.05	16.7682
1507.61	15.6144
1509.17	14.0189
1510.73	12.3763
1512.28	9.89868
1513.84	8.24584
1515.4	6.20426
1516.96	5.64846
1518.51	5.40808
1520.07	4.91614
1521.63	4.84869
1523.18	4.08195
1524.74	4.18446
1526.29	5.42831
1527.85	5.34543
1529.4	5.45002
1530.96	5.80362
1532.51	6.16106
1534.06	6.52573
1535.62	7.68189
1537.17	8.52887
1538.72	9.47194
1540.28	10.4037
1541.83	10.9786
1543.38	11.2602
1544.93	11.2816
1546.48	11.4641
1548.03	12.8983
1549.59	14.2598
1551.14	14.1812
1552.69	14.7559
1554.24	14.8867
1555.79	15.1676
1557.34	15.2595
1558.88	16.8737
1560.43	17.5287
1561.98	18.4942
1563.53	19.7938
1565.08	22.079
1566.62	22.4102
1568.17	23.7402
1569.72	25.6621
1571.27	26.2849
1572.81	27.416
1574.36	28.8541
1575.9	31.4444
1577.45	33.4089
1579	34.7156
1580.54	36.066
1582.09	37.1718
1583.63	37.7153
1585.17	38.7334
1586.72	39.916
1588.26	39.8282
1589.8	40.8344
1591.35	41.6479
1592.89	42.6126
1594.43	43.7264
1595.97	44.9357
1597.52	45.8992
1599.06	46.0802
1600.6	45.1572
1602.14	44.2276
1603.68	42.8952
1605.22	41.6044
1606.76	41.0349
1608.3	40.8095
1609.84	40.7294
1611.38	40.6678
1612.92	40.4322
1614.46	40.7589
1615.99	40.6847
1617.53	40.1089
1619.07	38.5149
1620.61	38.066
1622.14	38.3124
1623.68	39.0317
1625.22	39.6915
1626.75	39.0037
1628.29	38.2097
1629.82	38.9555
1631.36	39.5208
1632.9	40.5153
1634.43	40.8454
1635.96	42.1423
1637.5	43.2164
1639.03	44.4873
1640.57	45.6508
1642.1	46.8592
1643.63	47.8543
1645.16	49.8498
1646.7	50.6823
1648.23	52.2782
1649.76	53.7326
1651.29	55.7377
1652.82	58.3853
1654.36	59.0632
1655.89	59.5726
1657.42	60.0638
1658.95	59.5756
1660.48	59.5106
1662.01	60.0141
1663.53	59.893
1665.06	58.5194
1666.59	57.3664
1668.12	56.627
1669.65	56.3823
1671.18	55.1596
1672.7	53.1826
1674.23	50.6291
1675.76	47.1871
1677.29	43.9591
1678.81	42.0482
1680.34	40.3334
1681.86	38.4011
1683.39	36.8285
1684.91	34.9301
1686.44	33.2466
1687.96	31.5308
1689.49	29.9177
1691.01	27.875
1692.54	25.14
1694.06	24.1517
1695.58	22.3487
1697.11	20.9006
1698.63	20.0016
1700.15	18.723
1701.67	16.4178
1703.2	14.4241
1704.72	14.0292
1706.24	13.3421
1707.76	12.2436
1709.28	10.6941
1710.8	9.70158
1712.32	9.37945
1713.84	9.21667
1715.36	7.53292
1716.88	6.74909
1718.4	6.15377
1719.91	6.42492
1721.43	5.90472
1722.95	5.44069
1724.47	6.43259
1725.99	5.80966
1727.5	5.85917
1729.02	5.50269
1730.54	4.14111
1732.05	4.03926
1733.57	3.68104
1735.09	3.20206
1736.6	3.09446
1738.12	2.63396
1739.63	2.83488
1741.15	1.98847
1742.66	1.83395
1744.18	2.39034
1745.69	1.48407
1747.2	0.410353
1748.72	-0.435122
1750.23	-0.437618
1751.74	-0.555083
1753.25	-0.164672
1754.77	0.32644
1756.28	0.177339
1757.79	-0.725409
1759.3	-0.371329
1760.81	-0.511148
1762.32	-0.509048
1763.83	-0.356568
1765.34	-0.12537
1766.85	0.408836
1768.36	0.813543
1769.87	1.54067
1771.38	0.321839
1772.89	0.412922
1774.4	0.965307
1775.91	0.700041
1777.41	0.810931
1778.92	0.57807
1780.43	0.666739
1781.94	0.0436147
1783.44	0.0990662
1784.95	-0.174012
1786.45	0.72871
1787.96	0.877426
1789.47	0.718349
1790.97	0.513365
1792.48	0.788269
1793.98	1.07852
1795.48	1.39287
1796.99	1.03462
1798.49	1.31445
1800	1.75214
1801.5	1.49587
1803	1.83591
1804.51	1.87425
1806.01	1.52984
1807.51	1.79713
1809.01	1.83466
1810.51	2.14882
1812.02	2.86823
1813.52	2.92232
1815.02	3.15324
1816.52	2.07935
1818.02	2.21257
1819.52	2.35385
1821.02	1.97961
1822.52	2.37063
1824.02	2.73808
1825.51	2.88859
1827.01	2.74306
1828.51	2.20769
1830.01	2.09835
1831.51	2.33345
1833	2.45349
1834.5	2.9354
1836	2.6763
1837.5	2.51645
1838.99	3.08325
1840.49	3.15412
1841.98	3.24083
1843.48	3.51111
1844.97	3.90351
1846.47	3.90146
1847.96	4.06661
1849.46	3.86973
1850.95	3.34357
1852.45	3.51161
1853.94	3.14708
1855.43	3.59134
1856.92	4.00824
1858.42	4.06793
1859.91	3.29844
1861.4	3.69324
1862.89	3.04738
1864.39	3.14166
1865.88	4.205
1867.37	4.31092
1868.86	4.25625
1870.35	4.84555
1871.84	5.66182
1873.33	5.69606
1874.82	5.80029
1876.31	4.81562
1877.8	4.82367
1879.29	5.32575
1880.77	6.42727
1882.26	7.42284
1882.51	8.13247
1884	8.48036
1885.5	8.20922
1886.99	7.76417
1888.48	7.55555
1889.98	7.01345
1891.47	7.03301
1892.97	7.25643
1894.46	7.33398
1895.95	7.82658
1897.44	6.9415
1898.93	6.4163
1900.42	6.40309
1901.92	6.3946
1903.41	6.60753
1904.9	6.92775
1906.39	5.92081
1907.88	5.25895
1909.37	4.917
1910.86	4.20108
1912.35	4.9494
1913.84	4.41512
1915.32	4.51873
1916.81	3.84291
1918.3	2.89228
1919.79	2.13517
1921.28	1.31308
1922.76	1.67953
1924.25	2.02183
1925.74	2.93013
1927.22	3.1013
1928.71	2.87564
1930.2	3.1555
1931.68	2.49982
1933.17	2.41607
1934.65	3.35768
1936.14	2.98458
1937.62	3.11699
1939.11	3.70219
1940.59	3.19435
1942.08	4.50978
1943.56	5.25408
1945.04	5.0449
1946.53	4.63503
1948.01	5.08503
1949.49	5.32867
1950.97	6.72344
1952.45	7.19711
1953.94	7.61783
1955.42	7.66892
1956.9	7.87668
1958.38	7.18242
1959.86	6.50587
1961.34	7.01494
1962.82	6.3318
1964.3	5.98787
1965.78	6.18332
1967.26	7.26856
1968.74	7.8773
1970.22	8.80501
1971.69	8.5119
1973.17	9.22734
1974.65	9.0559
1976.13	9.59808
1977.61	9.45727
1979.08	9.44983
1980.56	9.67243
1982.03	9.51789
1983.51	9.01726
1984.99	8.07193
1986.46	8.15682
1987.94	7.78946
1989.41	8.38994
1990.89	8.12405
1992.36	9.25921
1993.84	9.43846
1995.31	10.8302
1996.78	11.6398
1998.26	11.3297
1999.73	11.4679
2001.2	10.6607
2002.68	10.1255
2004.15	10.1426
2005.62	9.57794
2007.09	10.0036
2008.56	10.3625
2010.04	10.4668
2011.51	10.745
2012.98	11.268
2014.45	11.2712
2015.92	12.1271
2017.39	11.0121
2018.86	11.3429
2020.33	11.6437
2021.8	11.7939
2023.27	11.2684
2024.74	10.7276
2026.2	10.7701
2027.67	11.1945
2029.14	10.7237
2030.61	11.4965
2032.07	11.6589
2033.54	11.9307
2035.01	12.8792
2036.47	13.0499
2037.94	13.6535
2039.41	14.1731
2040.87	14.8792
2042.34	15.2815
2043.8	15.6112
2045.27	14.2286
2046.73	15.1109
2048.2	15.2958
2049.66	16.2905
2051.12	16.6892
2052.59	16.9291
2054.05	17.7639
2055.51	17.4475
2056.98	18.1793
2058.44	19.0029
2059.9	20.213
2061.36	21.6769
2062.82	21.9888
2064.29	22.4653
2065.75	22.7882
2067.21	22.6707
2068.67	23.9054
2070.13	23.4061
2071.59	23.1059
2073.05	23.7724
2074.51	24.2034
2075.97	25.4356
2077.43	26.2547
2078.88	26.7628
2080.34	28.172
2081.8	29.3039
2083.26	29.83
2084.72	30.7052
2086.17	31.7434
2087.63	32.8919
2089.09	34.4623
2090.54	35.0037
2092	36.9856
2093.46	37.3418
2094.91	37.9414
2096.37	39.0281
2097.82	40.771
2099.28	42.0849
2100.73	43.0456
2102.19	44.4518
2103.64	46.3038
2105.09	47.2383
2106.55	48.5429
2108	49.7193
2109.46	50.5557
2110.91	51.1303
2112.36	52.0747
2113.81	53.0924
2115.27	54.7365
2116.72	56.7191
2118.17	57.2564
2119.62	59.6385
2121.07	60.4
2122.52	61.4435
2123.97	63.7304
2125.42	65.3781
2126.87	67.7374
2128.32	69.0722
2129.77	70.9204
2131.22	72.7952
2132.67	74.0985
2134.12	74.8598
2135.57	75.437
2137.01	76.2528
2138.46	78.1091
2139.91	79.3915
2141.36	81.1602
2142.8	83.1673
2144.25	85.7178
2145.7	88.6006
2147.14	89.9
2148.59	91.9373
2150.03	93.335
2151.48	94.6204
2152.92	96.4094
2154.37	97.6016
2155.81	98.3931
2157.26	100.231
2158.7	101.09
2160.15	102.594
2161.59	103.98
2163.03	104.493
2164.48	105.892
2165.92	105.936
2167.36	106.957
2168.8	107.978
2170.25	108.219
2171.69	108.151
2173.13	108.45
2174.57	108.639
2176.01	108.198
2177.45	107.964
2178.89	107.214
2180.33	107.115
2181.77	105.878
2183.21	104.815
2184.65	103.225
2186.09	103.009
2187.53	102.943
2188.97	101.446
2190.41	99.9284
2191.84	98.9585
2193.28	97.4983
2194.72	96.6906
2196.16	96.6462
2197.59	95.4358
2199.03	94.0787
2200.47	92.6402
2201.9	91.4302
2203.34	89.3941
2204.78	87.6669
2206.21	86.0186
2207.65	85.0682
2209.08	84.4228
2210.51	83.9408
2211.95	82.4156
2213.38	81.5308
2214.82	80.7536
2216.25	78.755
2217.68	76.7245
2219.12	73.6568
2220.55	72.0766
2221.98	69.8866
2223.42	68.5587
2224.85	66.6556
2226.28	64.8839
2227.71	63.9247
2229.14	62.3338
2230.57	61.1325
2232	60.2729
2233.43	58.4983
2234.86	56.8422
2236.29	54.4926
2237.72	52.4043
2239.15	51.0316
2240.58	49.9402
2242.01	47.739
2243.44	45.6875
2244.87	44.4465
2246.3	43.0707
2247.73	41.8162
2249.15	40.4755
2250.58	38.8964
2252.01	37.654
2253.43	36.0069
2254.86	34.8703
2256.29	33.5187
2257.71	33.0261
2259.14	31.6745
2260.56	30.4621
2261.99	29.7049
2263.41	28.5239
2264.84	27.6973
2266.26	27.5459
2267.69	26.9792
2269.11	26.5659
2270.54	25.8561
2271.96	25.6851
2273.38	24.7728
2274.81	24.9436
2276.23	23.9247
2277.65	23.3004
2279.07	22.3522
2280.49	22.4108
2281.92	22.0297
2283.34	21.14
2284.76	21.4004
2286.18	22.0133
2287.6	20.5594
2289.02	20.6675
2290.44	20.2841
2291.86	20.2734
2293.28	19.9364
2294.7	19.496
2296.12	19.2285
2297.54	20.3278
2298.96	20.5875
2300.38	20.1887
2301.79	20.9735
2303.21	20.2697
2304.63	19.8301
2306.05	19.4706
2307.46	19.5277
2308.88	20.5074
2310.3	20.4352
2311.71	20.3249
2313.13	19.5639
2314.55	19.598
2315.96	19.7047
2317.38	19.2778
2318.79	18.5703
2320.21	17.8279
2321.62	17.7205
2323.03	17.7281
2324.45	17.6348
2325.86	16.6079
2327.27	16.2973
2328.69	16.1426
2330.1	15.8385
2331.51	15.7134
2332.93	14.9747
2334.34	14.5458
2335.75	13.9913
2337.16	13.6987
2338.57	13.0488
2339.99	12.3976
2341.4	10.8063
2342.81	9.96999
2344.22	8.3165
2345.63	7.64246
2347.04	6.08884
2348.45	6.26725
2349.86	5.95179
2351.26	6.26069
2352.67	5.84015
2354.08	5.27569
2355.49	5.60131
2356.9	4.91409
2358.31	3.76733
2359.71	3.97503
2361.12	3.34474
2362.53	2.85075
2363.94	2.12467
2365.34	2.1152
2366.75	3.39662
2368.15	3.55953
2369.56	3.40986
2370.97	3.89122
2372.37	3.62421
2373.78	3.16081
2375.18	3.07108
2376.59	3.29743
2377.99	3.05253
2379.39	3.03697
2380.8	2.73483
2382.2	2.53447
2383.61	2.64328
2385.01	2.97247
2386.41	3.31204
2387.81	3.74246
2389.22	4.45502
2390.62	4.72736
2392.02	5.49448
2393.42	5.78515
2394.82	6.314
2396.22	6.81202
2397.63	6.74888
2399.02	6.9037
2400.43	6.59306
2401.82	7.52332
2403.23	7.22534
2404.62	7.5384
2406.02	7.28889
2407.42	6.78308
2408.82	6.55894
2410.22	6.19406
2411.62	6.13875
2413.02	6.4593
2414.41	5.95364
2415.81	6.74399
2417.21	7.29445
2418.61	7.05824
2420	6.87513
2421.4	6.80851
2422.79	6.30085
2424.19	5.42465
2425.59	5.17858
2426.98	4.50322
2428.38	3.96067
2429.77	3.02746
2431.17	2.94382
2432.56	2.91339
2433.96	2.4686
2435.35	2.74845
2436.74	3.37202
2438.14	2.36886
2439.53	2.09705
2440.92	1.39495
2442.32	0.867741
2443.71	0.991541
2445.1	0.538955
2446.49	0.663319
2447.88	0.561612
2449.28	0.781268
2450.67	1.15858
2452.06	1.50145
2453.45	2.02786
2454.84	2.46068
2456.23	2.96252
2457.62	3.43581
2459.01	3.28005
2460.4	3.1038
2461.79	3.56149
2463.18	3.5545
2464.57	4.20233
2465.96	4.17253
2467.34	3.59854
2468.73	4.39913
2470.12	4.71799
2471.51	5.28041
2472.89	4.2509
2474.28	4.2281
2475.67	3.64013
2477.05	3.82133
2478.44	4.75168
2479.83	5.32136
2481.21	5.34857
2482.6	5.36506
2483.98	5.19134
2485.37	5.19466
2486.75	4.63913
2488.14	3.77265
2489.52	3.34816
2490.9	2.83529
2492.29	2.53206
2493.67	2.51681
2495.06	2.7596
2496.44	2.18602
2497.82	2.52963
2499.2	2.37931
2500.59	3.07614
2501.97	2.84529
2503.35	2.94227
2504.73	2.43134
2506.11	2.81481
2507.49	2.81847
2508.88	3.56335
2510.26	3.58083
2511.63	3.84416
2513.01	3.65191
2514.39	3.38016
2515.77	3.69993
2517.15	3.60051
2518.53	3.46928
2519.91	4.34783
2521.29	4.43557
2522.67	4.52763
2524.05	4.94476
2525.42	5.09556
2526.8	4.60627
2528.18	3.98406
2529.56	4.21797
2530.93	4.03037
2532.31	3.70034
2533.69	3.95531
2535.06	3.74019
2536.44	4.51013
2537.81	4.54114
2539.19	4.12861
2540.56	4.0729
2541.94	4.09332
2543.31	4.67334
2544.69	5.42552
2546.06	6.14656
2547.44	6.03748
2548.81	5.90794
2550.18	5.94244
2551.56	6.31827
2552.93	6.20209
2554.3	5.85075
2555.68	5.67773
2557.05	5.53856
2558.42	5.91994
2559.79	6.54385
2561.16	7.59662
2562.53	7.25322
2563.9	6.88509
2565.28	6.88017
2566.64	7.4223
2568.02	7.34224
2569.38	7.76134
2570.76	8.12414
2572.12	8.02534
2573.49	7.86129
2574.86	7.80711
2576.23	7.88514
2577.6	8.32111
2578.97	7.82462
2580.34	7.31897
2581.7	7.45435
2583.07	7.5106
2584.44	7.51169
2585.81	7.11754
2587.17	7.43194
2588.54	7.40189
2589.91	7.77973
2591.27	6.90078
2592.64	6.10326
2594	5.49445
2595.37	4.91121
2596.73	4.44927
2598.1	4.44405
2599.46	4.05642
2600.83	3.74051
2602.19	3.85769
2603.55	3.81604
2604.92	3.93901
2606.28	2.65644
2607.64	2.60182
2609.01	2.19565
2610.37	2.01116
2611.73	1.73685
2613.09	0.985456
2614.46	0.741751
2615.82	0.536631
2617.18	0.960461
2618.54	0.82547
2619.9	0.893518
2621.26	0.267391
2622.62	-0.160353
2623.98	-0.559354
2625.34	-0.0708052
2626.7	0.376879
2628.06	1.21985
2629.42	1.5069
2630.78	1.08675
2632.14	1.59141
2633.5	2.59412
2634.86	3.75139
2636.22	4.34447
2637.57	5.12135
2638.93	5.37854
2640.29	5.83653
2641.64	6.71451
2643	6.62209
2644.36	7.95779
2645.72	8.65936
2647.07	7.89329
2648.43	8.75628
2649.78	9.74088
2651.14	9.69077
2652.49	9.94169
2653.85	10.4853
2655.2	10.7073
2656.56	10.684
2657.91	10.7585
2659.27	9.90686
2660.62	10.4639
2661.97	9.94372
2663.33	9.32088
2664.68	8.77087
2666.03	8.37883
2667.38	7.73987
2668.74	7.8513
2670.09	7.54702
2671.44	7.53547
2672.79	6.98656
2674.14	6.25088
2675.49	5.78303
2676.84	5.44526
2678.2	5.61015
2679.55	5.33901
2680.89	5.29276
2682.24	5.68143
2683.59	5.71625
2684.94	5.52941
2686.29	5.13864
2687.64	4.58696
2688.99	4.3794
2690.34	4.17936
2691.69	4.46272
2693.04	5.11717
2694.38	5.95242
2695.73	6.70329
2697.08	7.0968
2698.43	7.58916
2699.77	8.63913
2701.12	9.18972
2702.46	9.72907
2703.81	9.88844
2705.16	9.94818
2706.5	10.4114
2707.85	10.7392
2709.19	10.2459
2710.54	10.4265
2711.88	10.5504
2713.23	10.1643
2714.57	9.9321
2715.92	10.8853
2717.26	10.1538
2718.6	9.86618
2719.95	9.82059
2721.29	9.52926
2722.63	8.35259
2723.97	7.64278
2725.32	6.80871
2726.66	6.49512
2728	6.20666
2729.34	5.3111
2730.68	4.82867
2732.02	4.89186
2733.36	4.5923
2734.7	4.96339
2736.04	5.07258
2737.39	4.87208
2738.72	5.38954
2740.06	4.63809
2741.4	4.09956
2742.74	3.84093
2744.08	4.46145
2745.42	4.38981
2746.76	3.6557
2748.1	3.14629
2749.44	2.46247
2750.77	2.70538
2752.11	1.92712
2753.45	1.72572
2754.78	1.20851
2756.12	1.84888
2757.46	1.50889
2758.79	2.18284
2760.13	2.04808
2761.47	2.94783
2762.8	3.26711
2764.14	3.2488
2765.47	2.79063
2766.81	2.34828
2768.14	2.48475
2769.48	2.20734
2770.81	1.7897
2772.14	1.82072
2773.48	1.9175
2774.81	1.54763
2776.14	1.16315
2777.48	1.39501
2778.81	0.505104
2780.14	0.553919
2781.47	0.665729
2782.81	0.471637
2784.14	0.13556
2785.47	-0.197291
2786.8	-0.423496
2788.13	-0.604276
2789.46	-1.08739
2790.79	-0.943759
2792.12	-0.928218
2793.46	-1.32321
2794.79	-1.65997
2796.11	-1.6743
2797.44	-1.28095
2798.77	-0.44568
2800.1	0.272535
2801.43	0.384444
2802.76	-0.31482
2804.09	-0.644839
2805.42	-1.53075
2806.74	-2.11845
2808.07	-2.30997
2809.4	-2.18333
2810.73	-2.05975
2812.05	-2.34037
2813.38	-2.40581
2814.71	-1.52106
2816.03	0.436767
2817.36	3.04666
2818.68	4.88541
2820.01	7.66256
2821.33	11.5774
2822.66	16.0253
2823.98	20.4382
2825.31	25.4524
2826.63	30.6209
2827.96	35.4759
2829.28	40.5962
2830.61	45.5744
2831.93	50.7445
2833.25	55.9998
2834.57	62.254
2835.9	66.7176
2837.22	72.5612
2838.54	78.914
2839.86	83.5463
2841.18	88.9069
2842.51	93.9517
2843.83	98.6722
2845.15	102.787
2846.47	108.42
2847.79	113.086
2849.11	118.636
2850.43	123.928
2851.75	129.346
2853.07	135.579
2854.39	142.29
2855.71	148.303
2857.03	153.516
2858.35	158.709
2859.67	163.927
2860.98	168.876
2862.3	173.015
2863.62	177.067
2864.94	179.604
2866.25	182.635
2867.57	184.319
2868.89	186.814
2870.21	188.616
2871.52	190.717
2872.84	192.503
2874.15	193.852
2875.47	195.413
2876.78	196.164
2878.1	197.443
2879.42	199.29
2880.73	201.165
2882.04	202.713
2883.36	203.865
2884.67	205.021
2885.99	206.406
2887.3	208.815
2888.61	210.738
2889.93	211.845
2891.24	212.633
2892.55	213.578
2893.87	214.452
2895.18	215.868
2896.49	216.758
2897.8	218.273
2899.11	219.977
2900.42	221.432
2901.74	223.257
2903.05	225.524
2904.36	228.06
2905.67	230.357
2906.98	234.463
2908.29	237.889
2909.6	241.995
2910.91	248.407
2912.22	255.697
2913.53	261.231
2914.83	268.225
2916.14	274.56
2917.45	281.935
2918.76	289.172
2920.07	295.583
2921.37	300.102
2922.68	304.752
2923.99	310.39
2925.3	313.905
2926.6	317.184
2927.91	320.339
2929.22	324.105
2930.52	325.457
2931.83	327.636
2933.13	327.735
2934.44	327.851
2935.74	326.359
2937.05	325.724
2938.35	323.077
2939.66	320.944
2940.96	316.496
2942.27	312.665
2943.57	308.559
2944.87	303.521
2946.18	297.338
2947.48	291.112
2948.78	285.401
2950.09	278.883
2951.39	273.137
2952.69	266.901
2953.99	259.358
2955.29	251.524
2956.6	244.691
2957.9	237.798
2959.2	230.771
2960.5	223.428
2961.8	216.812
2963.1	209.687
2964.4	203.011
2965.7	196.51
2967	190.981
2968.3	185.301
2969.6	179.998
2970.9	174.946
2972.2	170.5
2973.49	165.45
2974.79	161.525
2976.09	157.568
2977.39	152.479
2978.69	147.08
2979.98	143.057
2981.28	138.619
2982.58	134.143
2983.88	129.44
2985.17	123.957
2986.47	119.47
2987.76	115.43
2989.06	111.457
2990.36	106.604
2991.65	102.346
2992.95	97.8881
2994.24	93.7345
2995.54	88.4347
2996.83	84.7449
2998.12	79.8661
2999.42	75.9947
3000.71	71.9609
3002	68.3434
3003.3	63.5974
3004.59	59.5757
3005.88	55.3992
3007.18	52.8011
3008.47	48.942
3009.76	45.7623
3011.05	42.7368
3012.35	40.0831
3013.64	37.5293
3014.93	34.8185
3016.22	32.8358
3017.51	29.8319
3018.8	27.8262
3020.09	26.1283
3021.38	24.2409
3022.67	21.541
3023.96	20.1025
3025.25	18.8883
3026.54	17.3755
3027.83	15.6932
3029.12	14.9424
3030.41	14.0447
3031.69	13.1925
3032.98	12.3191
3034.27	11.0087
3035.56	10.7662
3036.85	10.8422
3038.13	10.5575
3039.42	10.5629
3040.71	10.297
3041.99	10.1659
3043.28	9.89338
3044.57	9.72397
3045.85	9.60135
3047.14	9.56912
3048.42	9.53985
3049.71	9.37266
3050.99	10.2539
3052.28	10.0652
3053.56	10.1827
3054.85	9.03308
3056.13	8.63739
3057.42	8.77163
3058.7	8.74601
3059.98	8.06612
3061.27	8.08564
3062.55	7.86399
3063.83	7.6289
3065.11	7.59058
3066.4	7.34934
3067.68	7.59949
3068.96	7.90281
3070.24	8.09008
3071.52	8.01835
3072.8	7.72394
3074.09	7.30946
3075.37	7.09915
3076.65	6.55
3077.93	6.17943
3079.21	5.65774
3080.49	5.34742
3081.77	4.47778
3083.05	3.92489
3084.32	3.11395
3085.61	2.45643
3086.88	1.51184
3088.16	1.97095
3089.44	1.33995
3090.72	0.464676
3092	-0.0786455
3093.27	-0.0116535
3094.55	0.566978
3095.83	0.00864224
3097.11	0.0304384
3098.38	1.19303
3099.66	2.25437
3100.94	2.65118
3102.21	2.72562
3103.49	2.91784
3104.76	2.92583
3106.04	2.74772
3107.31	2.90407
3108.59	3.20448
3109.86	3.4593
3111.14	3.79932
3112.41	4.31297
3113.69	4.45915
3114.96	4.62184
3116.23	4.72379
3117.51	5.21061
3118.78	5.46288
3120.05	6.69528
3121.33	7.40546
3122.6	8.06311
3123.87	8.85968
3125.14	10.2496
3126.42	11.4035
3127.69	12.3221
3128.96	13.7232
3130.23	14.5103
3131.5	15.4944
3132.77	15.9464
3134.04	16.5093
3135.31	17.5301
3136.58	18.6735
3137.85	19.5275
3139.12	20.7403
3140.39	21.5386
3141.66	22.617
3142.93	23.6095
3144.2	24.8387
3145.47	26.378
3146.74	27.9131
3148	29.5165
3149.27	32.316
