#Acq. time (s)=	45
#Accumulations=	2
#Range (cm-¹)=	200...3150
#Windows=	2
#Auto scanning=	Off
#Autofocus=	Off
#Macrospot=	Off
#AutoExposure=	Off
#Spike filter=	Multiple accum.
#Delay time (s)=	0
#Binning=	1
#Readout mode=	Signal
#DeNoise=	Off
#ICS correction=	On
#Dark correction=	Off
#Inst. Process=	Off
#Detector Gain=	Best Dynamic Range
#Detector ADC=	20 kHz       
#Detector temperature (°C)=	-69.62
#Instrument=	LabRAM HR Evol
#Detector=	Synapse
#Objective=	x100
#Grating=	600 gr/mm
#ND Filter=	100%
#Laser (nm)=	532 
#Hole=	100.021
#Range=	Auto
#Laser Pol.=	No
#Raman. Pol.=	No
#Laser Pol. (°)=	-0.0007625
#Raman Pol. (°)=	89.9995
#Collection=	Microscope
#StageXY=	Marzhauser
#StageZ=	Marzhauser
#X (µm)=	28334.8
#Y (µm)=	-3322.2
#Z (µm)=	1040.6
#Full time(mm:ss)=	3:19
#Project=	
#Sample=	
#Site=	
#Title=	Mb_50_18_22_2x_45s_532 nm_x100_100%_600 gr_mm
#Remark=	
#Date=	12.07.2022 12:29
#Acquired=	12.07.2022 12:29:12
#Base:Fit=	10.08.2022 10:49:18
#Base:Sub=	10.08.2022 10:49:30
#Filter:Polynom=	16.08.2022 10:14:59
#AxisType[0]=Intens
#AxisUnit[0]=Cnt
#AxisType[1]=Spectr
#AxisUnit[1]=1/cm
200.388	17.4924
202.204	12.9352
204.019	10.121
205.832	7.06308
207.646	5.56277
209.459	4.12696
211.274	3.0443
213.087	1.67466
214.899	0.707319
216.711	0.906222
218.524	0.337634
220.335	0.700116
222.146	0.951977
223.956	1.37864
225.766	2.01714
227.576	3.23115
229.388	2.52824
231.197	1.55022
233.005	2.21763
234.813	2.02354
236.621	1.6899
238.429	2.27848
240.236	2.67133
242.045	1.9485
243.852	3.64511
245.658	3.27622
247.464	4.76402
249.269	5.05583
251.074	5.72935
252.879	5.76981
254.683	6.68474
256.487	6.54822
258.291	5.48325
260.094	6.7026
261.897	7.28334
263.702	7.01007
265.504	5.76579
267.306	4.9083
269.108	4.26893
270.909	2.89338
272.71	2.99673
274.511	1.99244
276.311	0.830264
278.111	-0.261445
279.91	-0.798693
281.709	-0.0522202
283.508	-0.453616
285.306	-1.37435
287.105	-1.48417
288.9	-1.68474
290.698	-0.431629
292.495	2.47671
294.291	5.58068
296.088	7.97289
297.884	10.1766
299.679	13.8053
301.475	16.9469
303.27	20.069
305.064	24.1127
306.858	27.6116
308.652	30.7313
310.444	33.5871
312.237	36.271
314.03	38.4307
315.822	39.9325
317.615	41.7617
319.406	43.0027
321.198	45.1992
322.987	47.8729
324.778	48.8649
326.568	50.0792
328.358	51.3913
330.148	51.099
331.935	50.0507
333.724	49.7137
335.513	46.8689
337.301	45.2234
339.089	41.7589
340.875	40.1492
342.662	38.6071
344.449	36.8779
346.236	36.327
348.02	36.4939
349.806	39.0342
351.592	41.078
353.375	44.9949
355.16	49.8693
356.944	56.0999
358.728	62.7867
360.51	68.9388
362.294	75.6646
364.077	81.8068
365.858	89.7788
367.64	97.5754
369.422	104.994
371.202	112.356
372.983	119.343
374.764	125.759
376.543	134.5
378.324	141.435
380.102	148.061
381.881	154.175
383.661	159.483
385.438	162.954
387.216	166.108
388.993	167.791
390.771	169.041
392.548	169.535
394.324	168.756
396.101	166.587
397.875	164.237
399.651	159.868
401.425	155.417
403.201	149.865
404.974	144.783
406.749	139.249
408.524	130.816
410.296	122.568
412.07	114.693
413.841	105.827
415.614	96.2051
417.385	86.3118
419.156	74.8381
420.928	65.1953
422.698	55.701
424.469	46.2101
426.238	36.558
428.009	28.3677
429.777	22.1163
431.548	16.2777
433.315	12.3998
435.083	10.6517
436.852	8.19475
438.618	7.78272
440.387	7.17521
442.153	7.20486
443.919	7.79242
445.686	7.58668
447.451	7.72827
449.218	6.98439
450.982	8.51316
452.746	8.74599
454.512	9.44254
456.275	9.8786
458.038	9.12943
459.803	10.1196
461.565	10.1311
463.327	9.41128
465.091	10.3895
466.852	9.83525
468.613	10.9699
470.374	11.3505
472.136	12.6241
473.896	13.9991
475.655	15.262
477.415	18.3367
479.176	22.2913
480.934	25.936
482.692	30.2292
484.45	35.8388
486.21	41.4685
487.967	46.4487
489.724	52.8764
491.481	61.0374
493.237	69.8396
494.995	77.7844
496.75	85.9713
498.506	96.0447
500.26	104.942
502.015	112.789
503.771	119.828
505.525	126.114
507.279	130.764
509.032	136.412
510.785	140.617
512.537	144.284
514.289	146.571
516.041	149.54
517.793	152.313
519.546	153.635
521.297	155.405
523.047	155.747
524.797	154.363
526.547	153.796
528.297	150.985
530.046	149.143
531.795	146.042
533.543	140.654
535.291	135.599
537.039	130.166
538.787	124.262
540.534	117.077
542.281	110.802
544.027	104.371
545.773	95.8229
547.519	88.4172
549.264	78.8451
551.01	70.3964
552.754	63.9625
554.499	56.9018
556.243	50.2228
557.987	42.0737
559.73	37.4717
561.474	32.372
563.216	28.3526
564.959	26.2343
566.701	24.5928
568.441	23.1967
570.182	23.7206
571.923	23.604
573.664	23.4785
575.405	24.0178
577.145	26.7961
578.885	29.2281
580.624	31.5029
582.361	32.3575
584.1	33.8237
585.839	35.2336
587.577	36.3531
589.315	36.7577
591.052	37.3089
592.787	37.1079
594.524	37.7441
596.26	38.3942
597.997	39.791
599.732	39.6476
601.466	40.1543
603.201	40.933
604.936	41.7782
606.67	41.6551
608.403	41.0331
610.136	40.0899
611.87	38.7436
613.603	38.063
615.334	37.0295
617.067	35.6155
618.799	32.9415
620.529	30.9099
622.26	30.0124
623.991	28.4053
625.72	26.4717
627.451	23.9016
629.181	22.2296
630.909	19.4487
632.638	15.4826
634.368	13.5051
636.095	10.1271
637.823	7.55029
639.551	6.80336
641.277	4.99669
643.005	2.52554
644.73	0.851303
646.457	1.78529
648.184	1.14796
649.908	2.09958
651.634	2.57372
653.357	2.30687
655.083	1.39912
656.806	1.26717
658.53	0.494474
660.253	-0.0246443
661.977	0.470925
663.7	1.59615
665.422	1.93718
667.145	1.50685
668.865	1.42056
670.588	2.50326
672.308	3.10866
674.027	3.77691
675.749	2.19215
677.468	2.46466
679.188	2.74489
680.907	3.0682
682.627	3.66222
684.345	4.60785
686.064	4.45417
687.781	6.12151
689.498	5.75154
691.216	7.38462
692.932	7.44282
694.65	8.85777
696.366	10.1915
698.081	10.534
699.797	11.4464
701.512	11.483
703.228	11.6453
704.942	13.4239
706.655	14.2416
708.371	14.9617
710.083	16.3107
711.796	15.717
713.51	15.0972
715.222	15.2895
716.934	15.2868
718.645	15.0242
720.358	15.5093
722.068	14
723.779	12.8578
725.49	12.1806
727.2	10.5064
728.909	8.59902
730.618	8.79457
732.329	9.22177
734.037	11.1608
735.745	15.0155
737.453	18.8907
739.16	24.7843
740.869	33.1145
742.576	44.1586
744.282	56.6491
745.988	70.0285
747.694	85.0563
749.401	99.5276
751.107	114.121
752.811	127.785
754.516	143.578
756.22	156.171
757.924	167.959
759.627	179.672
761.332	189.778
763.035	201.738
764.738	210.739
766.44	218.775
768.142	226.519
769.843	233.095
771.544	238.225
773.245	243.116
774.946	245.937
776.646	249.147
778.346	249.735
780.046	250.158
781.745	247.579
783.444	244.881
785.143	241.507
786.841	236.125
788.539	230.867
790.237	223.27
791.934	214.856
793.631	206.18
795.328	195.085
797.024	182.338
798.72	169.857
800.416	157.192
802.112	144.871
803.807	130.678
805.502	117.172
807.196	103.211
808.89	90.2117
810.584	78.1305
812.278	68.0379
813.971	58.0805
815.664	50.877
817.354	45.2359
819.047	41.2769
820.739	37.66
822.43	35.4058
824.122	34.6917
825.813	35.5417
827.503	36.7957
829.192	37.7115
830.882	39.3489
832.571	40.5462
834.261	39.6527
835.95	39.5102
837.637	39.179
839.325	37.9981
841.013	38.1398
842.701	37.1429
844.389	36.4194
846.074	35.0762
847.761	34.0842
849.447	31.8813
851.131	31.5249
852.817	29.8377
854.503	29.3047
856.188	28.124
857.871	27.7644
859.556	27.1897
861.24	26.6847
862.922	24.9021
864.606	23.5675
866.289	22.6702
867.97	21.4431
869.653	18.9037
871.336	17.7509
873.016	17.127
874.698	16.0222
876.379	14.7912
878.058	14.1549
879.739	11.5189
881.418	11.3598
883.098	9.5669
884.778	9.23324
886.456	8.54595
888.135	7.48652
889.812	6.87364
891.49	6.79946
893.167	5.34141
894.845	5.10722
896.523	3.96984
898.198	3.26883
899.875	3.70347
901.55	3.97877
903.226	3.88264
904.901	3.02709
906.576	4.55538
908.25	5.77168
909.925	6.62022
911.598	7.30664
913.271	7.74872
914.945	9.23843
916.617	8.64817
918.291	8.36882
919.962	10.3277
921.635	11.9641
923.306	12.7398
924.978	13.5771
926.648	12.7676
928.318	13.5516
929.989	14.4242
931.659	13.6883
933.328	12.9905
934.998	13.7037
936.666	13.894
938.336	14.7969
940.004	14.4171
941.671	13.8994
943.34	13.8685
945.007	12.5009
946.673	11.2466
948.339	11.6159
950.007	10.5039
951.672	8.62221
953.337	8.72302
955.004	8.98686
956.669	8.24153
958.333	7.04131
959.997	5.20874
961.662	4.11114
963.326	3.04224
964.989	2.22645
966.651	1.03942
968.315	1.58319
969.977	0.155986
971.639	-0.60833
973.301	-1.42559
974.962	-1.12357
976.624	-2.21932
978.285	-1.96028
979.945	-2.56042
981.605	-2.4045
983.264	-3.58966
984.924	-5.04979
986.583	-8.02773
988.243	-9.46342
989.901	-9.64955
991.56	-10.0893
993.217	-9.95585
994.875	-8.19611
996.532	-4.5869
998.188	1.51243
999.845	7.52046
1001.5	15.4552
1003.16	23.1482
1004.81	30.5533
1006.47	38.0732
1008.12	47.0901
1009.78	57.4594
1011.43	66.7839
1013.09	76.425
1014.74	85.2505
1016.39	95.6844
1018.05	104.785
1019.7	114.759
1021.35	123.553
1023	132.547
1024.65	140.839
1026.31	148.294
1027.96	154.416
1029.61	160.709
1031.26	165.854
1032.91	168.402
1034.56	170.649
1036.21	172.025
1037.86	170.017
1039.51	168.553
1041.16	165.156
1042.8	161.621
1044.45	158.372
1046.1	154.914
1047.75	150.213
1049.39	146.267
1051.04	141.103
1052.69	136.006
1054.33	133.288
1055.98	130.742
1057.62	129.79
1059.27	128.845
1060.91	127.935
1062.56	126.595
1064.2	126.276
1065.85	125.849
1067.49	126.483
1069.13	127.863
1070.77	130.683
1072.42	133.388
1074.06	137.324
1075.7	140.78
1077.34	145.214
1078.98	149.822
1080.62	154.598
1082.27	157.635
1083.91	159.897
1085.55	161.198
1087.18	162.1
1088.82	164.209
1090.46	165.87
1092.1	166.982
1093.74	167.314
1095.38	166.379
1097.02	165.148
1098.65	162.506
1100.29	159.161
1101.93	157.083
1103.56	152.025
1105.2	146.493
1106.84	139.696
1108.47	131.452
1110.11	122.584
1111.74	113.356
1113.38	103.145
1115.01	93.2695
1116.64	82.2012
1118.28	70.8031
1119.91	59.9968
1121.54	50.9401
1123.18	41.7327
1124.81	33.4867
1126.44	27.0757
1128.07	20.7524
1129.7	14.1933
1131.33	9.34375
1132.97	6.347
1134.6	5.81369
1136.23	5.95217
1137.86	5.89421
1139.49	6.01749
1141.11	7.47682
1142.74	8.91711
1144.37	9.149
1146	10.9591
1147.63	12.1457
1149.26	12.8134
1150.88	13.0931
1152.51	12.9355
1154.14	13.3256
1155.76	13.2742
1157.39	13.5799
1159.01	15.3485
1160.64	16.2313
1162.27	17.2469
1163.89	17.1624
1165.51	17.5502
1167.14	18.7775
1168.76	19.5036
1170.39	20.8693
1172.01	22.3156
1173.63	23.2671
1175.25	24.2249
1176.88	26.1011
1178.5	27.8437
1180.12	29.1455
1181.74	30.7559
1183.36	32.6603
1184.98	33.8347
1186.6	35.2851
1188.22	36.7259
1189.84	37.4337
1191.46	38.8159
1193.08	39.8552
1194.7	40.3108
1196.32	40.4082
1197.94	39.8877
1199.55	40.6491
1201.17	42.0132
1202.79	42.9381
1204.41	43.4503
1206.02	43.8632
1207.64	45.1746
1209.25	43.713
1210.87	43.6251
1212.48	46.4599
1214.1	47.1185
1215.71	47.9972
1217.33	47.9269
1218.94	47.8946
1220.56	49.492
1222.17	52.0352
1223.79	53.1662
1225.4	53.4368
1227.01	55.1291
1228.62	55.9962
1230.23	56.3471
1231.85	56.3025
1233.46	56.6152
1235.07	57.6702
1236.68	58.7099
1238.29	59.2808
1239.9	60.0105
1241.51	59.7759
1243.12	60.53
1244.73	60.2575
1246.34	60.9076
1247.94	61.4337
1249.55	60.8369
1251.16	60.4777
1252.77	61.2857
1254.37	61.2779
1255.98	61.517
1257.59	63.0016
1259.2	63.2437
1260.8	63.5478
1262.41	63.3686
1264.01	63.8356
1265.62	57.4363
1267.22	52.1366
1268.83	48
1270.43	45.7703
1272.03	52.0347
1273.64	58.3823
1275.24	64.9823
1276.85	71.3596
1278.45	79.2981
1280.05	84.9359
1281.65	89.7295
1283.25	95.2015
1284.85	99.3124
1286.46	103.48
1288.06	107.206
1289.66	109.572
1291.26	112.855
1292.86	115.337
1294.46	116.55
1296.06	118.582
1297.66	120.002
1299.25	122.194
1300.85	123.101
1302.45	123.026
1304.05	122.796
1305.65	123.255
1307.24	122.086
1308.84	120.81
1310.43	119.111
1312.03	117.098
1313.63	116.491
1315.22	114.42
1316.82	111.905
1318.41	109.41
1320.01	107.116
1321.6	103.942
1323.2	101.243
1324.79	96.7286
1326.38	94.0555
1327.98	89.7904
1329.57	85.4214
1331.16	81.1056
1332.76	76.4664
1334.35	72.0337
1335.94	67.6292
1337.53	64.5537
1339.12	58.0835
1340.71	51.7335
1342.3	45.3326
1343.89	38.2266
1345.48	31.2611
1347.07	33.4697
1348.66	37.4459
1350.25	42.4312
1351.84	48.8526
1353.43	48.9499
1355.01	48.204
1356.6	47.6567
1358.19	46.484
1359.77	43.3013
1361.36	42.0789
1362.95	40.7108
1364.53	39.7896
1366.12	38.623
1367.71	37.3829
1369.29	36.1207
1370.88	35.0706
1372.46	34.356
1374.04	34.7992
1375.63	33.2168
1377.21	30.8585
1378.8	30.223
1380.38	28.4735
1381.96	28.2941
1383.54	27.3904
1385.13	26.99
1386.71	25.3687
1388.29	25.688
1389.87	24.493
1391.45	24.2017
1393.03	24.0775
1394.61	23.9687
1396.19	25.1167
1397.77	26.5557
1399.35	27.9481
1400.93	31.1066
1402.51	35.1868
1404.09	38.7928
1405.67	43.4086
1407.24	47.083
1408.82	51.6137
1410.4	55.6782
1411.98	59.8367
1413.55	64.8704
1415.13	69.5782
1416.71	73.1675
1418.28	76.6368
1419.86	81.8706
1421.43	87.0918
1423.01	91.4275
1424.58	96.3777
1426.16	102.163
1427.73	106.462
1429.31	112.041
1430.88	116.519
1432.45	120.265
1434.02	123.232
1435.6	127.177
1437.17	129.391
1438.74	132.155
1440.31	134.911
1441.88	136.281
1443.45	137.867
1445.03	138.146
1446.6	138.519
1448.17	137.352
1449.74	136.071
1451.3	133.209
1452.87	130.586
1454.44	126.177
1456.01	122.895
1457.58	119.591
1459.15	114.878
1460.72	110.898
1462.28	105.805
1463.85	100.741
1465.42	96.6624
1466.98	92.1009
1468.55	87.5251
1470.12	84.0181
1471.68	80.7183
1473.25	77.6294
1474.81	73.4085
1476.38	69.496
1477.94	67.1739
1479.51	64.0748
1481.07	60.6332
1482.63	57.2053
1484.2	53.1895
1485.76	49.2931
1487.32	46.0959
1488.88	42.7122
1490.45	40.3991
1492.01	38.2824
1493.57	36.0147
1495.13	33.9334
1496.69	32.8764
1498.25	31.1097
1499.81	29.2881
1501.37	27.9802
1502.93	26.9251
1504.49	26.3612
1506.05	25.6881
1507.61	25.0813
1509.17	21.8701
1510.73	20.7061
1512.28	20.0105
1513.84	18.2794
1515.4	16.2346
1516.96	15.8373
1518.51	14.5123
1520.07	13.879
1521.63	13.4915
1523.18	13.1001
1524.74	11.9793
1526.29	10.5329
1527.85	10.5723
1529.4	9.70413
1530.96	10.7005
1532.51	10.5684
1534.06	11.5123
1535.62	12.214
1537.17	13.4589
1538.72	14.1701
1540.28	15.3191
1541.83	16.576
1543.38	18.354
1544.93	19.7392
1546.48	20.7348
1548.03	21.8861
1549.59	23.2819
1551.14	23.9919
1552.69	24.3949
1554.24	25.6811
1555.79	27.9515
1557.34	28.1774
1558.88	29.2809
1560.43	30.4638
1561.98	32.0482
1563.53	33.9268
1565.08	36.1328
1566.62	37.8093
1568.17	40.6996
1569.72	42.5387
1571.27	44.248
1572.81	46.4346
1574.36	48.439
1575.9	50.7357
1577.45	53.191
1579	55.4006
1580.54	56.673
1582.09	58.4631
1583.63	60.0075
1585.17	60.5284
1586.72	60.8124
1588.26	61.7284
1589.8	63.3159
1591.35	62.9404
1592.89	63.3038
1594.43	64.3345
1595.97	64.3444
1597.52	64.2274
1599.06	63.6562
1600.6	62.6056
1602.14	61.5933
1603.68	60.4886
1605.22	60.8242
1606.76	59.62
1608.3	58.7946
1609.84	57.3488
1611.38	56.2237
1612.92	55.6305
1614.46	55.7896
1615.99	54.7822
1617.53	55.2944
1619.07	54.7228
1620.61	55.4511
1622.14	56.1305
1623.68	56.6072
1625.22	58.6529
1626.75	59.2376
1628.29	59.4307
1629.82	60.4941
1631.36	61.8163
1632.9	63.561
1634.43	65.3559
1635.96	67.0293
1637.5	69.4925
1639.03	72.3361
1640.57	74.4727
1642.1	76.8884
1643.63	78.9826
1645.16	82.0015
1646.7	84.5869
1648.23	86.6449
1649.76	89.3319
1651.29	91.7941
1652.82	93.0083
1654.36	94.8139
1655.89	95.2818
1657.42	95.6541
1658.95	95.3991
1660.48	95.3253
1662.01	94.866
1663.53	94.1672
1665.06	92.9754
1666.59	92.1725
1668.12	88.7064
1669.65	86.6005
1671.18	85.4909
1672.7	82.7373
1674.23	78.946
1675.76	75.8461
1677.29	72.4535
1678.81	69.5142
1680.34	65.896
1681.86	63.0745
1683.39	58.6877
1684.91	55.3315
1686.44	52.3403
1687.96	48.6677
1689.49	45.3817
1691.01	42.2341
1692.54	38.157
1694.06	35.8038
1695.58	32.8523
1697.11	30.5628
1698.63	27.7936
1700.15	26.1172
1701.67	23.8695
1703.2	21.0299
1704.72	18.1863
1706.24	16.8291
1707.76	15.2633
1709.28	13.5265
1710.8	12.5155
1712.32	10.9417
1713.84	10.2844
1715.36	8.83376
1716.88	6.53887
1718.4	5.37021
1719.91	4.11594
1721.43	4.29445
1722.95	3.25713
1724.47	2.57273
1725.99	3.43239
1727.5	3.60152
1729.02	3.19854
1730.54	3.23152
1732.05	2.85472
1733.57	2.95111
1735.09	2.27477
1736.6	2.47255
1738.12	2.07724
1739.63	1.37657
1741.15	1.26926
1742.66	1.47711
1744.18	1.28701
1745.69	1.65222
1747.2	1.45488
1748.72	0.821243
1750.23	1.26869
1751.74	1.77978
1753.25	2.29156
1754.77	3.21475
1756.28	3.89426
1757.79	4.83912
1759.3	4.87935
1760.81	4.97622
1762.32	5.15554
1763.83	5.16401
1765.34	5.52253
1766.85	5.72787
1768.36	6.03305
1769.87	5.75062
1771.38	5.77675
1772.89	5.87351
1774.4	6.73931
1775.91	6.90922
1777.41	6.6226
1778.92	6.72799
1780.43	6.52101
1781.94	7.36265
1783.44	7.48666
1784.95	7.41922
1786.45	6.91562
1787.96	6.46558
1789.47	5.6343
1790.97	4.89179
1792.48	4.56688
1793.98	4.86444
1795.48	5.5214
1796.99	6.07093
1798.49	6.13349
1800	6.37606
1801.5	6.73855
1803	6.46744
1804.51	5.80588
1806.01	5.34419
1807.51	4.78154
1809.01	3.98256
1810.51	3.46193
1812.02	3.96583
1813.52	4.50966
1815.02	4.70657
1816.52	5.0012
1818.02	4.72785
1819.52	5.4833
1821.02	5.82861
1822.52	6.33423
1824.02	7.02897
1825.51	7.37972
1827.01	7.5453
1828.51	8.09658
1830.01	8.24284
1831.51	8.25972
1833	8.03084
1834.5	7.69384
1836	7.94611
1837.5	8.17616
1838.99	7.68607
1840.49	7.4814
1841.98	6.93921
1843.48	7.59874
1844.97	7.46314
1846.47	8.09288
1847.96	7.94729
1849.46	8.07955
1850.95	7.75841
1852.45	8.14538
1853.94	8.9793
1855.43	9.0008
1856.92	8.98613
1858.42	8.64826
1859.91	7.98916
1861.4	7.19402
1862.89	7.80496
1864.39	6.86264
1865.88	6.44663
1867.37	6.60014
1868.86	7.20942
1870.35	7.4689
1871.84	7.26478
1873.33	6.17602
1874.82	5.83793
1876.31	6.15212
1877.8	6.23257
1879.29	6.68895
1880.77	6.86362
1882.26	7.2468
1882.51	8.18599
1884	7.97737
1885.5	8.28285
1886.99	7.08468
1888.48	6.75708
1889.98	6.20287
1891.47	6.47131
1892.97	7.65347
1894.46	7.44247
1895.95	7.11679
1897.44	6.64729
1898.93	6.65614
1900.42	6.72074
1901.92	7.03692
1903.41	7.42575
1904.9	6.99756
1906.39	6.81929
1907.88	7.03794
1909.37	7.65428
1910.86	6.92344
1912.35	6.86729
1913.84	7.61128
1915.32	7.44875
1916.81	7.34383
1918.3	7.43394
1919.79	7.05058
1921.28	7.28479
1922.76	8.19683
1924.25	8.53979
1925.74	8.73115
1927.22	8.98734
1928.71	8.44674
1930.2	8.55652
1931.68	8.8715
1933.17	8.1518
1934.65	7.26919
1936.14	7.53041
1937.62	7.10024
1939.11	7.26401
1940.59	7.74539
1942.08	7.78917
1943.56	6.80001
1945.04	6.81382
1946.53	5.89306
1948.01	6.71726
1949.49	7.40228
1950.97	7.22931
1952.45	6.99851
1953.94	6.48047
1955.42	6.26037
1956.9	5.05478
1958.38	3.17725
1959.86	2.31545
1961.34	1.35386
1962.82	2.4394
1964.3	2.57012
1965.78	2.70613
1967.26	3.03135
1968.74	2.65311
1970.22	2.8316
1971.69	3.30457
1973.17	3.39942
1974.65	3.68203
1976.13	4.11118
1977.61	3.43517
1979.08	3.3084
1980.56	3.52711
1982.03	3.52007
1983.51	3.70471
1984.99	2.77202
1986.46	3.3034
1987.94	3.27903
1989.41	3.59917
1990.89	4.20214
1992.36	4.67684
1993.84	4.46043
1995.31	5.14348
1996.78	5.45924
1998.26	6.23288
1999.73	6.04097
2001.2	6.69266
2002.68	7.66374
2004.15	7.62484
2005.62	7.88184
2007.09	7.84166
2008.56	8.45492
2010.04	9.45447
2011.51	9.59159
2012.98	9.65621
2014.45	11.0485
2015.92	11.6127
2017.39	12.0231
2018.86	12.8838
2020.33	12.8016
2021.8	13.386
2023.27	13.8478
2024.74	13.7716
2026.2	14.4511
2027.67	15.3703
2029.14	14.9446
2030.61	15.3029
2032.07	15.5619
2033.54	16.4054
2035.01	16.7606
2036.47	16.9296
2037.94	16.8808
2039.41	16.3603
2040.87	17.5442
2042.34	18.509
2043.8	19.4521
2045.27	20.4397
2046.73	20.4472
2048.2	20.8529
2049.66	21.1268
2051.12	20.388
2052.59	20.9478
2054.05	20.4336
2055.51	20.4452
2056.98	21.3126
2058.44	20.9911
2059.9	22.3722
2061.36	23.2648
2062.82	24.7952
2064.29	25.2215
2065.75	25.4268
2067.21	25.5717
2068.67	27.3397
2070.13	28.2725
2071.59	28.7451
2073.05	28.8992
2074.51	30.1634
2075.97	30.9425
2077.43	30.7839
2078.88	32.3374
2080.34	33.5119
2081.8	34.0578
2083.26	34.5562
2084.72	36.0578
2086.17	37.8441
2087.63	38.9841
2089.09	39.3034
2090.54	40.5657
2092	41.7545
2093.46	43.4389
2094.91	45.0267
2096.37	46.3306
2097.82	47.6064
2099.28	48.9779
2100.73	50.8337
2102.19	50.724
2103.64	53.1047
2105.09	54.3628
2106.55	55.5038
2108	56.9394
2109.46	59.2324
2110.91	60.8078
2112.36	62.3098
2113.81	64.1939
2115.27	65.8423
2116.72	68.0095
2118.17	69.8926
2119.62	72.2915
2121.07	75.0384
2122.52	78.6801
2123.97	80.4417
2125.42	83.6573
2126.87	85.902
2128.32	88.7736
2129.77	91.2299
2131.22	94.5086
2132.67	98.1635
2134.12	101.407
2135.57	104.687
2137.01	108.373
2138.46	111.099
2139.91	114.335
2141.36	118.154
2142.8	121.04
2144.25	125.191
2145.7	128.318
2147.14	132.197
2148.59	134.796
2150.03	138.085
2151.48	140.831
2152.92	143.958
2154.37	146.444
2155.81	149.524
2157.26	152.373
2158.7	154.326
2160.15	155.714
2161.59	157.4
2163.03	159.452
2164.48	160.951
2165.92	161.475
2167.36	161.496
2168.8	161.633
2170.25	162.482
2171.69	162.597
2173.13	161.767
2174.57	161.016
2176.01	161.176
2177.45	159.885
2178.89	158.671
2180.33	157.462
2181.77	154.648
2183.21	151.875
2184.65	149.475
2186.09	147.333
2187.53	146.851
2188.97	145.646
2190.41	142.317
2191.84	140.435
2193.28	138.013
2194.72	135.034
2196.16	131.231
2197.59	128.282
2199.03	125.7
2200.47	122.998
2201.9	119.88
2203.34	118.217
2204.78	115.262
2206.21	112.566
2207.65	109.788
2209.08	107.451
2210.51	104.278
2211.95	102.308
2213.38	100.142
2214.82	98.2737
2216.25	96.5561
2217.68	94.0275
2219.12	92.4679
2220.55	89.6256
2221.98	88.2807
2223.42	86.3668
2224.85	84.9751
2226.28	82.6384
2227.71	80.9805
2229.14	78.2618
2230.57	76.1488
2232	74.0858
2233.43	71.7011
2234.86	70.0265
2236.29	67.4646
2237.72	65.1333
2239.15	63.7213
2240.58	61.617
2242.01	60.1387
2243.44	58.8244
2244.87	57.225
2246.3	56.0993
2247.73	54.0492
2249.15	52.4785
2250.58	50.2122
2252.01	47.3821
2253.43	46.6237
2254.86	46.992
2256.29	45.1748
2257.71	44.9848
2259.14	44.2029
2260.56	42.2187
2261.99	40.1617
2263.41	39.4868
2264.84	39.0887
2266.26	36.9143
2267.69	35.7851
2269.11	35.0592
2270.54	33.7336
2271.96	32.4383
2273.38	31.4177
2274.81	30.6833
2276.23	30.2308
2277.65	29.2476
2279.07	28.7521
2280.49	29.0351
2281.92	28.0919
2283.34	27.9145
2284.76	28.1231
2286.18	27.7472
2287.6	27.0474
2289.02	26.8106
2290.44	25.536
2291.86	24.0221
2293.28	23.3666
2294.7	23.6258
2296.12	23.4953
2297.54	24.2097
2298.96	24.2336
2300.38	23.7799
2301.79	23.1564
2303.21	22.3798
2304.63	22.2374
2306.05	22.5295
2307.46	22.1046
2308.88	22.702
2310.3	23.1254
2311.71	22.2218
2313.13	22.6106
2314.55	22.31
2315.96	21.5425
2317.38	20.901
2318.79	20.3143
2320.21	20.6928
2321.62	20.5848
2323.03	21.5983
2324.45	22.9464
2325.86	21.4001
2327.27	20.4666
2328.69	20.3416
2330.1	19.0747
2331.51	18.3803
2332.93	17.8891
2334.34	17.9359
2335.75	17.5591
2337.16	16.8993
2338.57	17.0315
2339.99	17.3538
2341.4	16.5131
2342.81	16.0855
2344.22	14.7328
2345.63	14.4215
2347.04	13.9497
2348.45	12.348
2349.86	11.1645
2351.26	10.1467
2352.67	9.01696
2354.08	8.7476
2355.49	8.131
2356.9	6.71695
2358.31	5.6867
2359.71	5.11452
2361.12	4.76465
2362.53	5.8076
2363.94	6.85828
2365.34	7.77363
2366.75	7.59074
2368.15	7.4155
2369.56	6.22687
2370.97	5.75043
2372.37	4.69185
2373.78	4.99298
2375.18	5.14396
2376.59	4.74484
2377.99	4.39603
2379.39	4.64691
2380.8	3.47206
2382.2	2.71908
2383.61	3.05329
2385.01	2.52142
2386.41	2.04253
2387.81	1.52666
2389.22	1.70714
2390.62	2.52377
2392.02	2.21596
2393.42	2.91449
2394.82	1.8689
2396.22	1.59379
2397.63	2.42264
2399.02	2.19293
2400.43	2.51779
2401.82	3.47054
2403.23	3.70522
2404.62	4.04435
2406.02	3.61637
2407.42	4.38106
2408.82	4.45838
2410.22	4.47882
2411.62	4.31775
2413.02	4.48674
2414.41	4.65033
2415.81	5.1867
2417.21	4.8968
2418.61	5.34723
2420	6.94835
2421.4	8.28554
2422.79	9.12863
2424.19	10.1707
2425.59	10.609
2426.98	11.2186
2428.38	11.6634
2429.77	12.407
2431.17	13.4367
2432.56	14.5112
2433.96	14.447
2435.35	13.9126
2436.74	13.9776
2438.14	13.1575
2439.53	12.7123
2440.92	12.4879
2442.32	12.0857
2443.71	12.2998
2445.1	12.0964
2446.49	12.0623
2447.88	11.3382
2449.28	11.0818
2450.67	10.0548
2452.06	9.78093
2453.45	9.96698
2454.84	9.5821
2456.23	9.80491
2457.62	8.79675
2459.01	9.02084
2460.4	9.42456
2461.79	9.19016
2463.18	7.85096
2464.57	6.69251
2465.96	7.5698
2467.34	7.92627
2468.73	7.41463
2470.12	6.9107
2471.51	6.36496
2472.89	6.14789
2474.28	6.27021
2475.67	6.32012
2477.05	6.78249
2478.44	6.89407
2479.83	7.33017
2481.21	7.83469
2482.6	8.23641
2483.98	7.81742
2485.37	8.28822
2486.75	7.66275
2488.14	7.81061
2489.52	7.89824
2490.9	7.32134
2492.29	7.04913
2493.67	7.15838
2495.06	6.66788
2496.44	6.02253
2497.82	5.44786
2499.2	5.00669
2500.59	5.1219
2501.97	5.06955
2503.35	3.11858
2504.73	2.32224
2506.11	2.30678
2507.49	0.747039
2508.88	0.703566
2510.26	0.579017
2511.63	1.28899
2513.01	1.67943
2514.39	1.67407
2515.77	1.11816
2517.15	1.11284
2518.53	1.41127
2519.91	0.791465
2521.29	1.71798
2522.67	2.49593
2524.05	2.19844
2525.42	2.66761
2526.8	2.54806
2528.18	3.59709
2529.56	3.73201
2530.93	3.41431
2532.31	3.26498
2533.69	4.29376
2535.06	5.67849
2536.44	5.74231
2537.81	6.01943
2539.19	6.38564
2540.56	7.51541
2541.94	8.91903
2543.31	8.94083
2544.69	9.50005
2546.06	9.83021
2547.44	10.1228
2548.81	10.8856
2550.18	10.1916
2551.56	10.2581
2552.93	9.76831
2554.3	9.44176
2555.68	9.77487
2557.05	10.5504
2558.42	10.8599
2559.79	10.4459
2561.16	10.0624
2562.53	10.0785
2563.9	10.1763
2565.28	9.95649
2566.64	10.7219
2568.02	10.6085
2569.38	10.0344
2570.76	9.63871
2572.12	9.85272
2573.49	10.8043
2574.86	11.2364
2576.23	11.8703
2577.6	12.1111
2578.97	12.3532
2580.34	12.5001
2581.7	11.9174
2583.07	11.4552
2584.44	11.2301
2585.81	11.9408
2587.17	12.1398
2588.54	12.8174
2589.91	13.2739
2591.27	13.0917
2592.64	13.4945
2594	13.3949
2595.37	12.8927
2596.73	12.4507
2598.1	12.7019
2599.46	11.8274
2600.83	11.4645
2602.19	11.6773
2603.55	12.0141
2604.92	11.5119
2606.28	11.1694
2607.64	10.6686
2609.01	10.3365
2610.37	9.71978
2611.73	8.42678
2613.09	8.27662
2614.46	7.14931
2615.82	6.65736
2617.18	5.89529
2618.54	5.30552
2619.9	5.55367
2621.26	4.68728
2622.62	4.13427
2623.98	3.56695
2625.34	3.27762
2626.7	2.7237
2628.06	3.55398
2629.42	4.09363
2630.78	4.53606
2632.14	5.06712
2633.5	5.03195
2634.86	5.85008
2636.22	6.12117
2637.57	7.06245
2638.93	8.43165
2640.29	9.82635
2641.64	10.009
2643	10.3446
2644.36	10.0963
2645.72	10.9144
2647.07	12.4467
2648.43	12.595
2649.78	13.3875
2651.14	14.3975
2652.49	15.2672
2653.85	15.5038
2655.2	15.6244
2656.56	16.0789
2657.91	15.769
2659.27	16.9491
2660.62	16.9035
2661.97	15.9872
2663.33	16.4557
2664.68	16.2702
2666.03	15.5634
2667.38	15.0144
2668.74	16.0365
2670.09	16.5256
2671.44	16.1594
2672.79	15.0749
2674.14	14.95
2675.49	13.6586
2676.84	13.2696
2678.2	12.2367
2679.55	11.1184
2680.89	10.0018
2682.24	9.60382
2683.59	9.16089
2684.94	8.38273
2686.29	8.91277
2687.64	8.61281
2688.99	8.41683
2690.34	8.50476
2691.69	9.28002
2693.04	10.7645
2694.38	10.2512
2695.73	10.9477
2697.08	10.5238
2698.43	10.4818
2699.77	10.466
2701.12	11.2558
2702.46	11.6337
2703.81	11.9923
2705.16	12.5784
2706.5	13.5077
2707.85	14.2393
2709.19	14.4169
2710.54	14.6258
2711.88	15.258
2713.23	16.5643
2714.57	15.9948
2715.92	15.6214
2717.26	16.4702
2718.6	16.9122
2719.95	17.5483
2721.29	17.4893
2722.63	17.6753
2723.97	17.5519
2725.32	17.2169
2726.66	17.2263
2728	16.2432
2729.34	15.0986
2730.68	15.3226
2732.02	15.0104
2733.36	15.6664
2734.7	15.6292
2736.04	15.3836
2737.39	14.3687
2738.72	13.7415
2740.06	11.5501
2741.4	11.5062
2742.74	10.2846
2744.08	10.2101
2745.42	8.68431
2746.76	8.41088
2748.1	7.87893
2749.44	8.02598
2750.77	7.11362
2752.11	7.12825
2753.45	7.26277
2754.78	6.98812
2756.12	7.37952
2757.46	6.5746
2758.79	6.16314
2760.13	5.41343
2761.47	4.02351
2762.8	3.13709
2764.14	2.65071
2765.47	1.755
2766.81	1.39402
2768.14	1.99519
2769.48	1.928
2770.81	1.84935
2772.14	2.16378
2773.48	1.94506
2774.81	1.3604
2776.14	0.590847
2777.48	0.573592
2778.81	0.358578
2780.14	0.407133
2781.47	0.284587
2782.81	0.460432
2784.14	0.0151585
2785.47	-0.541925
2786.8	-0.265165
2788.13	-1.40357
2789.46	-1.79186
2790.79	-2.07492
2792.12	-2.26457
2793.46	-2.05914
2794.79	-2.0395
2796.11	-1.46753
2797.44	-0.451234
2798.77	-0.502197
2800.1	-0.419603
2801.43	-1.52698
2802.76	-0.789589
2804.09	-1.02145
2805.42	-0.815457
2806.74	-1.38174
2808.07	0.114191
2809.4	-0.113807
2810.73	0.00517946
2812.05	0.433947
2813.38	1.78583
2814.71	2.3893
2816.03	4.33355
2817.36	5.75416
2818.68	8.12954
2820.01	9.77114
2821.33	12.265
2822.66	14.8153
2823.98	16.3653
2825.31	19.1656
2826.63	22.7172
2827.96	26.6352
2829.28	30.7237
2830.61	35.1302
2831.93	39.0763
2833.25	43.3821
2834.57	48.011
2835.9	52.3438
2837.22	56.0731
2838.54	60.0297
2839.86	64.1
2841.18	69.0074
2842.51	74.0096
2843.83	79.0984
2845.15	83.5298
2846.47	88.7332
2847.79	93.3439
2849.11	98.1168
2850.43	102.681
2851.75	108.307
2853.07	113.599
2854.39	117.566
2855.71	122.022
2857.03	126.523
2858.35	131.282
2859.67	136.023
2860.98	139.867
2862.3	143.673
2863.62	146.555
2864.94	149.69
2866.25	152.875
2867.57	155.274
2868.89	158.608
2870.21	161.205
2871.52	163.723
2872.84	165.947
2874.15	168.797
2875.47	171.04
2876.78	173.841
2878.1	176.36
2879.42	179.754
2880.73	182.171
2882.04	184.682
2883.36	187.162
2884.67	189.759
2885.99	191.539
2887.3	195.282
2888.61	198.365
2889.93	202.114
2891.24	205.422
2892.55	209.163
2893.87	214.069
2895.18	218.699
2896.49	223.833
2897.8	229.352
2899.11	234.84
2900.42	241.172
2901.74	248.411
2903.05	256.247
2904.36	265.09
2905.67	274.715
2906.98	284.338
2908.29	294.253
2909.6	305.229
2910.91	316.668
2912.22	328.872
2913.53	341.081
2914.83	353.35
2916.14	366.371
2917.45	379.661
2918.76	391.401
2920.07	402.897
2921.37	414.807
2922.68	425.946
2923.99	436.089
2925.3	445.274
2926.6	452.4
2927.91	460.011
2929.22	466.484
2930.52	471.359
2931.83	475.915
2933.13	479.662
2934.44	483.153
2935.74	484.16
2937.05	484.643
2938.35	483.988
2939.66	481.894
2940.96	479.672
2942.27	474.942
2943.57	469.401
2944.87	463.223
2946.18	455.956
2947.48	447.928
2948.78	440.079
2950.09	429.921
2951.39	420.362
2952.69	411.064
2953.99	400.377
2955.29	389.83
2956.6	378.587
2957.9	368.981
2959.2	359.704
2960.5	350.056
2961.8	340.169
2963.1	330.053
2964.4	320.759
2965.7	312.141
2967	303.809
2968.3	294.935
2969.6	286.251
2970.9	278.068
2972.2	270.086
2973.49	263.072
2974.79	257.489
2976.09	250.97
2977.39	245.049
2978.69	238.701
2979.98	232.748
2981.28	227.615
2982.58	220.704
2983.88	213.904
2985.17	207.689
2986.47	201.491
2987.76	193.982
2989.06	186.717
2990.36	179.787
2991.65	173.091
2992.95	167.257
2994.24	159.866
2995.54	152.764
2996.83	146.283
2998.12	138.509
2999.42	131.669
3000.71	123.899
3002	116.977
3003.3	109.549
3004.59	102.71
3005.88	96.2212
3007.18	88.28
3008.47	82.1937
3009.76	76.2645
3011.05	71.0765
3012.35	65.0246
3013.64	59.2055
3014.93	53.7727
3016.22	49.4365
3017.51	45.3762
3018.8	41.5345
3020.09	37.3161
3021.38	33.7788
3022.67	30.9801
3023.96	28.5384
3025.25	25.6652
3026.54	22.3371
3027.83	19.7254
3029.12	17.6979
3030.41	15.5186
3031.69	13.3706
3032.98	11.6808
3034.27	10.7327
3035.56	9.94426
3036.85	8.82561
3038.13	9.27522
3039.42	9.06942
3040.71	9.27673
3041.99	8.86815
3043.28	8.97852
3044.57	9.50452
3045.85	9.77286
3047.14	10.1401
3048.42	11.1544
3049.71	12.1607
3050.99	12.2521
3052.28	12.217
3053.56	12.6716
3054.85	13.0316
3056.13	12.6603
3057.42	11.9464
3058.7	11.2772
3059.98	11.5506
3061.27	10.9765
3062.55	11.2486
3063.83	11.4724
3065.11	10.9166
3066.4	10.6314
3067.68	10.1444
3068.96	9.81958
3070.24	9.29088
3071.52	8.50543
3072.8	7.86925
3074.09	7.21643
3075.37	7.02278
3076.65	6.29147
3077.93	6.29608
3079.21	6.13325
3080.49	5.46354
3081.77	4.44552
3083.05	3.43456
3084.32	1.38429
3085.61	0.989687
3086.88	1.60464
3088.16	0.965083
3089.44	0.521112
3090.72	1.06638
3092	1.32676
3093.27	1.41902
3094.55	1.39866
3095.83	0.641808
3097.11	0.527148
3098.38	0.785657
3099.66	0.984197
3100.94	1.57368
3102.21	2.25636
3103.49	2.06059
3104.76	3.15456
3106.04	3.29566
3107.31	4.53437
3108.59	5.6004
3109.86	6.77471
3111.14	7.86236
3112.41	8.41188
3113.69	9.63906
3114.96	9.60059
3116.23	10.6869
3117.51	11.6693
3118.78	12.5833
3120.05	13.7286
3121.33	14.9757
3122.6	16.348
3123.87	17.8748
3125.14	18.409
3126.42	19.5616
3127.69	19.6999
3128.96	20.5351
3130.23	21.4534
3131.5	22.3263
3132.77	23.5809
3134.04	24.0185
3135.31	24.9752
3136.58	25.8775
3137.85	27.3564
3139.12	28.5512
3140.39	28.9087
3141.66	29.161
3142.93	29.2648
3144.2	29.7371
3145.47	30.3911
3146.74	30.8029
3148	31.5618
3149.27	29.0617
