#Acq. time (s)=	45
#Accumulations=	2
#Range (cm-¹)=	200...3150
#Windows=	2
#Auto scanning=	Off
#Autofocus=	Off
#Macrospot=	Off
#AutoExposure=	Off
#Spike filter=	Multiple accum.
#Delay time (s)=	0
#Binning=	1
#Readout mode=	Signal
#DeNoise=	Off
#ICS correction=	On
#Dark correction=	Off
#Inst. Process=	Off
#Detector Gain=	Best Dynamic Range
#Detector ADC=	20 kHz       
#Detector temperature (°C)=	-69.85
#Instrument=	LabRAM HR Evol
#Detector=	Synapse
#Objective=	x100
#Grating=	600 gr/mm
#ND Filter=	100%
#Laser (nm)=	532 
#Hole=	100.021
#Range=	Auto
#Laser Pol.=	No
#Raman. Pol.=	No
#Laser Pol. (°)=	-0.0007625
#Raman Pol. (°)=	89.9995
#Collection=	Microscope
#StageXY=	Marzhauser
#StageZ=	Marzhauser
#X (µm)=	28304.5
#Y (µm)=	-3269
#Z (µm)=	1041.35
#Full time(mm:ss)=	3:18
#Project=	
#Sample=	
#Site=	
#Title=	Mb_50_18_30_2x_45s_532 nm_x100_100%_600 gr_mm
#Remark=	
#Date=	12.07.2022 13:03
#Acquired=	12.07.2022 13:03:25
#Base:Fit=	10.08.2022 10:49:18
#Base:Sub=	10.08.2022 10:49:30
#Filter:Polynom=	16.08.2022 10:14:59
#AxisType[0]=Intens
#AxisUnit[0]=Cnt
#AxisType[1]=Spectr
#AxisUnit[1]=1/cm
200.388	42.777
202.204	38.2329
204.019	34.5022
205.832	29.2284
207.646	25.5406
209.459	21.9509
211.274	18.3875
213.087	14.8454
214.899	12.9915
216.711	10.7662
218.524	8.12834
220.335	7.59855
222.146	6.67034
223.956	6.47877
225.766	5.66017
227.576	4.58247
229.388	3.19567
231.197	2.36248
233.005	1.82992
234.813	1.51345
236.621	1.60232
238.429	1.815
240.236	2.35086
242.045	1.81014
243.852	1.88275
245.658	2.61831
247.464	3.62124
249.269	4.90497
251.074	6.0579
252.879	7.14315
254.683	7.94823
256.487	9.65781
258.291	8.21129
260.094	6.8069
261.897	7.13371
263.702	7.99875
265.504	8.13049
267.306	8.4598
269.108	10.0379
270.909	10.4222
272.71	9.57204
274.511	9.05717
276.311	9.46293
278.111	8.47111
279.91	8.24619
281.709	8.56168
283.508	6.67039
285.306	6.60285
287.105	6.28057
288.9	7.15391
290.698	6.46058
292.495	7.02267
294.291	8.23933
296.088	9.15092
297.884	8.625
299.679	8.32574
301.475	9.00271
303.27	6.69194
305.064	5.23227
306.858	3.08249
308.652	5.35669
310.444	9.2856
312.237	11.0255
314.03	13.5907
315.822	15.3183
317.615	17.0923
319.406	19.0112
321.198	21.8416
322.987	24.3982
324.778	27.0076
326.568	28.9309
328.358	30.1018
330.148	30.504
331.935	30.5601
333.724	31.7284
335.513	32.1819
337.301	31.5155
339.089	30.8355
340.875	30.2439
342.662	30.4768
344.449	31.198
346.236	32.3321
348.02	32.2804
349.806	34.1911
351.592	36.6189
353.375	38.3175
355.16	39.5274
356.944	41.5034
358.728	43.9713
360.51	44.5336
362.294	46.3001
364.077	47.8782
365.858	51.184
367.64	52.8817
369.422	55.1599
371.202	56.4826
372.983	58.0597
374.764	59.9689
376.543	60.4193
378.324	61.893
380.102	62.3137
381.881	62.36
383.661	61.265
385.438	60.4083
387.216	59.365
388.993	57.353
390.771	55.6696
392.548	54.0532
394.324	55.006
396.101	56.2999
397.875	58.3396
399.651	57.3052
401.425	55.6337
403.201	54.8411
404.974	52.1779
406.749	48.9462
408.524	46.4161
410.296	44.615
412.07	41.7251
413.841	37.3318
415.614	32.0266
417.385	27.9641
419.156	24.4115
420.928	20.0997
422.698	16.1985
424.469	12.1863
426.238	8.48402
428.009	5.69429
429.777	4.03394
431.548	3.0309
433.315	3.29453
435.083	2.36756
436.852	1.95306
438.618	1.22744
440.387	0.155205
442.153	-0.45869
443.919	0.583382
445.686	2.28975
447.451	3.17861
449.218	3.50126
450.982	3.82167
452.746	4.01113
454.512	5.52963
456.275	4.9584
458.038	5.61257
459.803	5.84121
461.565	7.14164
463.327	6.83536
465.091	7.49669
466.852	8.46116
468.613	7.61527
470.374	7.86291
472.136	9.72033
473.896	11.1248
475.655	10.6102
477.415	11.5678
479.176	13.9124
480.934	15.9345
482.692	17.9296
484.45	20.2814
486.21	23.7567
487.967	27.0339
489.724	29.9361
491.481	33.5675
493.237	36.6773
494.995	40.4635
496.75	44.131
498.506	47.2113
500.26	49.0669
502.015	50.4863
503.771	53.1304
505.525	55.9039
507.279	58.0215
509.032	59.356
510.785	60.6785
512.537	62.5888
514.289	63.6356
516.041	64.9331
517.793	66.2362
519.546	66.8191
521.297	67.1896
523.047	66.024
524.797	65.5475
526.547	64.1883
528.297	64.2322
530.046	63.6975
531.795	63.1818
533.543	60.5227
535.291	57.6098
537.039	53.4684
538.787	50.6735
540.534	48.8214
542.281	46.3134
544.027	42.9322
545.773	40.1381
547.519	36.9389
549.264	33.2141
551.01	28.3481
552.754	24.7539
554.499	20.4706
556.243	17.11
557.987	14.5024
559.73	12.3665
561.474	9.63733
563.216	6.714
564.959	7.08132
566.701	6.66575
568.441	6.46352
570.182	6.13237
571.923	5.73234
573.664	6.91276
575.405	8.01339
577.145	8.77199
578.885	9.24353
580.624	9.64177
582.361	10.2231
584.1	10.8399
585.839	11.5349
587.577	11.5432
589.315	12.2857
591.052	12.9263
592.787	13.1126
594.524	13.3157
596.26	13.4519
597.997	14.2088
599.732	15.4903
601.466	15.435
603.201	15.5328
604.936	15.5121
606.67	14.8193
608.403	15.0161
610.136	14.8316
611.87	15.0037
613.603	15.038
615.334	14.8285
617.067	14.0576
618.799	14.4278
620.529	13.6061
622.26	12.796
623.991	12.0655
625.72	12.5574
627.451	12.021
629.181	10.884
630.909	10.6643
632.638	10.701
634.368	9.68834
636.095	8.16729
637.823	7.19387
639.551	7.17571
641.277	6.61201
643.005	6.33492
644.73	5.70647
646.457	5.43466
648.184	4.62156
649.908	5.23798
651.634	7.02944
653.357	7.48146
655.083	8.74666
656.806	8.82687
658.53	9.97008
660.253	10.6869
661.977	10.1906
663.7	9.10615
665.422	9.97609
667.145	10.6751
668.865	11.2871
670.588	11.3958
672.308	10.5169
674.027	9.12577
675.749	8.70212
677.468	7.99496
679.188	8.15382
680.907	8.56576
682.627	8.91687
684.345	7.97866
686.064	7.5683
687.781	7.83414
689.498	7.93689
691.216	8.41162
692.932	8.69178
694.65	9.27523
696.366	9.64864
698.081	9.82079
699.797	10.2099
701.512	11.1217
703.228	12.4332
704.942	13.1832
706.655	13.1893
708.371	13.8919
710.083	14.1474
711.796	15.8138
713.51	16.7245
715.222	18.3279
716.934	19.4284
718.645	19.3563
720.358	18.486
722.068	17.9693
723.779	17.0284
725.49	17.3257
727.2	17.276
728.909	16.8545
730.618	17.5382
732.329	18.7443
734.037	20.6261
735.745	24.4401
737.453	27.8806
739.16	32.5444
740.869	37.7506
742.576	42.965
744.282	49.6282
745.988	55.2164
747.694	62.244
749.401	69.8201
751.107	75.9878
752.811	82.312
754.516	89.6724
756.22	94.5741
757.924	99.7301
759.627	105.104
761.332	109.418
763.035	113.653
764.738	117.448
766.44	120.184
768.142	122.75
769.843	125.899
771.544	129.62
773.245	130.688
774.946	131.038
776.646	131.55
778.346	132.207
780.046	132.387
781.745	131.995
783.444	129.658
785.143	128.563
786.841	126.555
788.539	124.439
790.237	120.516
791.934	117.316
793.631	112.765
795.328	107.22
797.024	103.874
798.72	98.0953
800.416	93.0574
802.112	86.7051
803.807	79.7606
805.502	73.7266
807.196	66.9556
808.89	62.7728
810.584	59.874
812.278	55.7142
813.971	52.1093
815.664	50.3233
817.354	48.2444
819.047	47.197
820.739	47.8767
822.43	48.4628
824.122	49.2509
825.813	49.8337
827.503	50.2392
829.192	51.6062
830.882	51.4209
832.571	52.0529
834.261	51.8646
835.95	50.666
837.637	50.8695
839.325	49.0507
841.013	47.412
842.701	46.375
844.389	44.9868
846.074	41.7092
847.761	41.3915
849.447	40.6398
851.131	39.8706
852.817	38.8311
854.503	38.0962
856.188	36.7876
857.871	34.6198
859.556	32.8618
861.24	31.3774
862.922	30.685
864.606	30.5249
866.289	29.4369
867.97	28.9905
869.653	28.7349
871.336	27.6912
873.016	27.6618
874.698	25.3007
876.379	25.0503
878.058	23.8122
879.739	23.5543
881.418	24.3681
883.098	23.6492
884.778	23.4036
886.456	21.9442
888.135	21.8754
889.812	22.1286
891.49	22.0376
893.167	24.254
894.845	24.8312
896.523	24.9964
898.198	25.9318
899.875	26.9279
901.55	27.587
903.226	28.6568
904.901	29.9583
906.576	29.9068
908.25	29.6239
909.925	29.3386
911.598	29.9525
913.271	30.1628
914.945	28.6438
916.617	28.1786
918.291	26.8756
919.962	26.1116
921.635	24.6979
923.306	24.3355
924.978	23.3555
926.648	23.191
928.318	22.8572
929.989	22.0759
931.659	21.8873
933.328	20.9946
934.998	20.0877
936.666	18.1763
938.336	16.8687
940.004	15.1059
941.671	14.2377
943.34	13.0806
945.007	13.3107
946.673	13.8831
948.339	13.6818
950.007	12.2824
951.672	10.7821
953.337	8.48252
955.004	7.60591
956.669	6.01257
958.333	4.37286
959.997	3.74511
961.662	2.46111
963.326	1.80234
964.989	1.56356
966.651	0.437666
968.315	0.211725
969.977	0.127966
971.639	1.58932
973.301	3.03442
974.962	4.43956
976.624	7.18982
978.285	9.40251
979.945	11.2663
981.605	13.2459
983.264	15.0474
984.924	15.9376
986.583	17.7107
988.243	19.0438
989.901	20.3639
991.56	22.3182
993.217	24.8925
994.875	28.3203
996.532	31.0843
998.188	34.5198
999.845	38.4237
1001.5	42.6032
1003.16	47.3717
1004.81	51.4284
1006.47	56.2292
1008.12	61.1903
1009.78	66.8599
1011.43	70.6825
1013.09	74.8974
1014.74	78.2209
1016.39	82.3376
1018.05	85.6798
1019.7	88.3417
1021.35	91.7978
1023	95.3771
1024.65	98.9919
1026.31	100.15
1027.96	101.345
1029.61	101.54
1031.26	100.526
1032.91	98.3016
1034.56	96.3324
1036.21	95.1987
1037.86	92.5673
1039.51	88.96
1041.16	86.0086
1042.8	83.3906
1044.45	79.5719
1046.1	76.0716
1047.75	74.1554
1049.39	71.4407
1051.04	70.0069
1052.69	67.5585
1054.33	65.5794
1055.98	64.1863
1057.62	62.3609
1059.27	60.9097
1060.91	60.434
1062.56	59.2148
1064.2	58.1886
1065.85	57.2866
1067.49	56.0202
1069.13	56.9582
1070.77	56.169
1072.42	57.4998
1074.06	58.7076
1075.7	59.3791
1077.34	60.2079
1078.98	60.9128
1080.62	61.8
1082.27	61.8612
1083.91	62.2549
1085.55	62.0618
1087.18	62.2851
1088.82	63.1615
1090.46	63.9849
1092.1	63.1287
1093.74	63.8415
1095.38	63.6997
1097.02	63.4289
1098.65	63.0084
1100.29	62.0377
1101.93	60.2301
1103.56	58.4855
1105.2	57.0593
1106.84	53.4518
1108.47	49.7287
1110.11	46.6501
1111.74	42.9754
1113.38	39.3851
1115.01	35.8139
1116.64	32.9439
1118.28	28.7684
1119.91	24.3905
1121.54	20.8507
1123.18	18.186
1124.81	14.7226
1126.44	11.4316
1128.07	10.1978
1129.7	9.00791
1131.33	6.93426
1132.97	5.69718
1134.6	4.28763
1136.23	4.09643
1137.86	4.36707
1139.49	3.86154
1141.11	3.90501
1142.74	6.11482
1144.37	5.96289
1146	6.20541
1147.63	6.34001
1149.26	5.87342
1150.88	6.00536
1152.51	5.53741
1154.14	5.10666
1155.76	4.16458
1157.39	3.25244
1159.01	2.89639
1160.64	2.83365
1162.27	2.93638
1163.89	3.23429
1165.51	3.18577
1167.14	3.87592
1168.76	5.61948
1170.39	6.73036
1172.01	7.50384
1173.63	8.79645
1175.25	10.1056
1176.88	9.53723
1178.5	10.3966
1180.12	10.5798
1181.74	10.3927
1183.36	10.9397
1184.98	11.3571
1186.6	12.775
1188.22	12.7776
1189.84	13.4327
1191.46	13.6754
1193.08	13.6355
1194.7	13.5791
1196.32	13.2408
1197.94	12.9738
1199.55	13.4968
1201.17	14.5483
1202.79	14.7232
1204.41	14.8538
1206.02	13.7048
1207.64	14.5216
1209.25	14.9468
1210.87	15.0999
1212.48	16.0913
1214.1	16.7532
1215.71	17.0018
1217.33	18.8464
1218.94	19.009
1220.56	19.8758
1222.17	21.8649
1223.79	22.051
1225.4	22.2065
1227.01	22.3298
1228.62	21.2849
1230.23	20.4912
1231.85	21.528
1233.46	21.6881
1235.07	21.8842
1236.68	23.3432
1238.29	23.316
1239.9	23.7355
1241.51	25.1468
1243.12	26.1062
1244.73	27.5588
1246.34	27.7617
1247.94	28.5442
1249.55	29.3455
1251.16	28.9708
1252.77	29.5377
1254.37	29.9821
1255.98	30.3739
1257.59	30.3583
1259.2	30.6598
1260.8	30.7706
1262.41	31.4086
1264.01	32.5244
1265.62	32.8435
1267.22	33.0118
1268.83	32.5296
1270.43	33.5287
1272.03	34.515
1273.64	35.8209
1275.24	36.65
1276.85	38.1492
1278.45	39.2312
1280.05	41.3198
1281.65	42.0509
1283.25	41.6995
1284.85	42.1201
1286.46	43.0717
1288.06	45.1125
1289.66	46.32
1291.26	47.2589
1292.86	48.5029
1294.46	49.6867
1296.06	50.0699
1297.66	51.1473
1299.25	49.934
1300.85	50.1861
1302.45	51.0209
1304.05	49.9718
1305.65	51.4135
1307.24	50.1184
1308.84	49.6768
1310.43	50.8582
1312.03	52.1881
1313.63	52.0651
1315.22	51.8142
1316.82	51.1321
1318.41	50.0711
1320.01	50.2003
1321.6	50.0637
1323.2	49.6956
1324.79	49.3414
1326.38	48.4879
1327.98	47.3494
1329.57	47.3077
1331.16	46.3654
1332.76	46.8206
1334.35	45.5003
1335.94	45.0976
1337.53	42.9153
1339.12	42.1956
1340.71	41.2594
1342.3	40.1778
1343.89	39.3862
1345.48	37.7005
1347.07	36.5318
1348.66	35.6237
1350.25	34.2598
1351.84	32.9098
1353.43	32.21
1355.01	30.6796
1356.6	29.742
1358.19	27.7903
1359.77	26.6722
1361.36	24.8768
1362.95	24.003
1364.53	23.4168
1366.12	23.2956
1367.71	22.9612
1369.29	22.2308
1370.88	21.1609
1372.46	20.7863
1374.04	20.5257
1375.63	19.6031
1377.21	18.9148
1378.8	18.5495
1380.38	18.3031
1381.96	18.6041
1383.54	17.4041
1385.13	17.8789
1386.71	16.9425
1388.29	18.177
1389.87	18.328
1391.45	17.1929
1393.03	15.6416
1394.61	14.4964
1396.19	15.2843
1397.77	16.6288
1399.35	17.5041
1400.93	19.115
1402.51	22.0335
1404.09	24.3749
1405.67	26.8384
1407.24	27.835
1408.82	30.6707
1410.4	32.893
1411.98	35.7382
1413.55	37.7689
1415.13	40.5483
1416.71	41.3991
1418.28	44.4838
1419.86	46.5058
1421.43	49.8075
1423.01	53.4279
1424.58	55.4097
1426.16	58.2807
1427.73	61.1309
1429.31	64.2427
1430.88	67.423
1432.45	70.3964
1434.02	73.0436
1435.6	75.4347
1437.17	77.0491
1438.74	78.9895
1440.31	80.7802
1441.88	81.8484
1443.45	82.1223
1445.03	83.2686
1446.6	83.6641
1448.17	83.1122
1449.74	81.99
1451.3	80.8694
1452.87	79.7385
1454.44	77.949
1456.01	76.3351
1457.58	74.5701
1459.15	72.0633
1460.72	70.0982
1462.28	67.1459
1463.85	64.9719
1465.42	62.1572
1466.98	59.4377
1468.55	55.3978
1470.12	51.9351
1471.68	48.7779
1473.25	46.7504
1474.81	44.971
1476.38	42.7366
1477.94	39.9028
1479.51	38.2031
1481.07	36.4885
1482.63	34.1023
1484.2	31.4977
1485.76	29.3545
1487.32	28.6115
1488.88	27.1261
1490.45	25.7741
1492.01	24.368
1493.57	22.8336
1495.13	22.2965
1496.69	22.3368
1498.25	20.9085
1499.81	20.549
1501.37	19.3295
1502.93	18.0433
1504.49	17.7069
1506.05	17.5029
1507.61	16.7479
1509.17	15.9179
1510.73	15.731
1512.28	14.0923
1513.84	12.1671
1515.4	11.2128
1516.96	9.39796
1518.51	8.88685
1520.07	8.56216
1521.63	8.02206
1523.18	8.30219
1524.74	7.89963
1526.29	7.00057
1527.85	6.59807
1529.4	7.24479
1530.96	7.62128
1532.51	8.12285
1534.06	8.66409
1535.62	8.70117
1537.17	9.5342
1538.72	10.7382
1540.28	11.5206
1541.83	13.0604
1543.38	15.1107
1544.93	15.8269
1546.48	16.8839
1548.03	17.4684
1549.59	18.0806
1551.14	19.5456
1552.69	20.3687
1554.24	21.9751
1555.79	22.9248
1557.34	23.7641
1558.88	25.0603
1560.43	26.1233
1561.98	27.9524
1563.53	30.2748
1565.08	32.0354
1566.62	33.8054
1568.17	35.5611
1569.72	37.3076
1571.27	38.5995
1572.81	39.6959
1574.36	40.6116
1575.9	41.4195
1577.45	42.4837
1579	43.5468
1580.54	45.0117
1582.09	45.782
1583.63	45.6279
1585.17	46.2809
1586.72	46.4367
1588.26	46.531
1589.8	46.8119
1591.35	46.9572
1592.89	47.2785
1594.43	47.409
1595.97	48.4758
1597.52	48.129
1599.06	47.6184
1600.6	47.3297
1602.14	47.6008
1603.68	47.7291
1605.22	47.7691
1606.76	47.6029
1608.3	47.773
1609.84	48.1836
1611.38	48.5562
1612.92	48.1113
1614.46	48.2708
1615.99	48.7848
1617.53	48.4152
1619.07	48.6047
1620.61	48.6874
1622.14	47.9075
1623.68	47.6191
1625.22	47.1892
1626.75	47.0241
1628.29	47.5852
1629.82	47.9065
1631.36	49.4061
1632.9	49.4588
1634.43	49.669
1635.96	51.3875
1637.5	52.7947
1639.03	54.3895
1640.57	55.3989
1642.1	55.8049
1643.63	56.6981
1645.16	57.3671
1646.7	58.4642
1648.23	57.5288
1649.76	58.1872
1651.29	58.1645
1652.82	57.6484
1654.36	56.2988
1655.89	56.462
1657.42	55.5898
1658.95	54.3218
1660.48	53.3203
1662.01	53.4759
1663.53	52.3684
1665.06	51.4436
1666.59	50.0366
1668.12	48.7883
1669.65	47.7795
1671.18	47.0448
1672.7	45.4912
1674.23	43.6147
1675.76	42.118
1677.29	40.1708
1678.81	39.1173
1680.34	36.7012
1681.86	34.7614
1683.39	32.9689
1684.91	30.7779
1686.44	27.8513
1687.96	25.1011
1689.49	22.8724
1691.01	20.8786
1692.54	19.47
1694.06	17.7224
1695.58	16.156
1697.11	14.7731
1698.63	13.3868
1700.15	12.2332
1701.67	11.2732
1703.2	10.0941
1704.72	9.11563
1706.24	8.41191
1707.76	6.93885
1709.28	5.8163
1710.8	4.78166
1712.32	5.24289
1713.84	5.38559
1715.36	5.12244
1716.88	4.95681
1718.4	4.4807
1719.91	4.61363
1721.43	4.38119
1722.95	4.2191
1724.47	3.65775
1725.99	4.04244
1727.5	3.2125
1729.02	3.5907
1730.54	3.16242
1732.05	4.0481
1733.57	3.99167
1735.09	4.2538
1736.6	4.60644
1738.12	5.21803
1739.63	5.4095
1741.15	5.72926
1742.66	5.87075
1744.18	6.82481
1745.69	6.37912
1747.2	6.21093
1748.72	5.46015
1750.23	5.04092
1751.74	4.52618
1753.25	4.14926
1754.77	4.41198
1756.28	4.1805
1757.79	4.16588
1759.3	3.26988
1760.81	2.29652
1762.32	2.23846
1763.83	2.26047
1765.34	2.3085
1766.85	1.94772
1768.36	2.35437
1769.87	2.36155
1771.38	1.52114
1772.89	1.11977
1774.4	0.606557
1775.91	0.822801
1777.41	0.552268
1778.92	-0.00432143
1780.43	0.0104241
1781.94	0.408611
1783.44	0.194121
1784.95	1.37236
1786.45	1.77376
1787.96	2.44743
1789.47	3.00918
1790.97	2.15727
1792.48	1.90126
1793.98	2.36123
1795.48	2.43761
1796.99	1.99199
1798.49	2.20675
1800	2.16434
1801.5	2.13641
1803	2.394
1804.51	2.25247
1806.01	2.12545
1807.51	2.15819
1809.01	1.9881
1810.51	1.69083
1812.02	2.04638
1813.52	2.07027
1815.02	2.20901
1816.52	2.20631
1818.02	1.89995
1819.52	1.33931
1821.02	0.837532
1822.52	1.14156
1824.02	1.10134
1825.51	1.31293
1827.01	1.34215
1828.51	1.55882
1830.01	1.96535
1831.51	2.17459
1833	2.51448
1834.5	2.80388
1836	3.54583
1837.5	3.78472
1838.99	3.97365
1840.49	4.15459
1841.98	5.24185
1843.48	6.00264
1844.97	6.28952
1846.47	6.23404
1847.96	7.14861
1849.46	7.67358
1850.95	8.38194
1852.45	7.69047
1853.94	8.23812
1855.43	8.84927
1856.92	8.91152
1858.42	9.18523
1859.91	9.76665
1861.4	9.63137
1862.89	9.44896
1864.39	9.58534
1865.88	9.20144
1867.37	9.1649
1868.86	9.40192
1870.35	9.45932
1871.84	9.15221
1873.33	9.53442
1874.82	8.85556
1876.31	8.93646
1877.8	8.19149
1879.29	8.11651
1880.77	8.68612
1882.26	8.69569
1882.51	8.49082
1884	8.47991
1885.5	8.89387
1886.99	8.46545
1888.48	8.92714
1889.98	8.80549
1891.47	8.48742
1892.97	8.77075
1894.46	8.87951
1895.95	8.55022
1897.44	8.91436
1898.93	8.7793
1900.42	8.18162
1901.92	8.22766
1903.41	8.7196
1904.9	8.93729
1906.39	8.86449
1907.88	8.98647
1909.37	8.76506
1910.86	8.21867
1912.35	9.30392
1913.84	9.71279
1915.32	9.60685
1916.81	8.81655
1918.3	8.66174
1919.79	8.20971
1921.28	7.06923
1922.76	6.71286
1924.25	6.79332
1925.74	6.3347
1927.22	6.73759
1928.71	6.79827
1930.2	6.78002
1931.68	6.09448
1933.17	5.77825
1934.65	5.30462
1936.14	5.03744
1937.62	5.18382
1939.11	4.4108
1940.59	3.92746
1942.08	3.14099
1943.56	2.93206
1945.04	1.83453
1946.53	1.50096
1948.01	0.748288
1949.49	1.47276
1950.97	1.31295
1952.45	2.17576
1953.94	3.01709
1955.42	2.778
1956.9	2.57789
1958.38	3.26023
1959.86	3.25603
1961.34	2.63129
1962.82	2.7966
1964.3	2.72913
1965.78	2.80648
1967.26	2.24076
1968.74	1.40298
1970.22	1.54125
1971.69	1.5993
1973.17	1.31696
1974.65	1.50601
1976.13	2.54829
1977.61	2.66642
1979.08	2.53573
1980.56	2.55885
1982.03	2.60717
1983.51	3.20664
1984.99	3.66879
1986.46	4.10637
1987.94	3.42427
1989.41	3.09773
1990.89	3.89125
1992.36	4.51935
1993.84	4.47421
1995.31	4.7478
1996.78	6.02983
1998.26	6.18941
1999.73	5.73702
2001.2	6.52311
2002.68	6.80565
2004.15	6.60405
2005.62	6.39007
2007.09	7.0637
2008.56	7.28785
2010.04	6.77088
2011.51	6.81251
2012.98	6.12871
2014.45	6.40061
2015.92	6.55909
2017.39	7.9122
2018.86	7.31973
2020.33	7.71032
2021.8	7.83023
2023.27	8.29045
2024.74	8.06454
2026.2	8.34916
2027.67	8.21875
2029.14	7.23644
2030.61	7.27949
2032.07	7.0546
2033.54	7.0719
2035.01	7.34378
2036.47	7.663
2037.94	7.7481
2039.41	7.76952
2040.87	7.25044
2042.34	7.97961
2043.8	8.56453
2045.27	9.0533
2046.73	10.0304
2048.2	11.0168
2049.66	11.1538
2051.12	11.2663
2052.59	12.4115
2054.05	12.4331
2055.51	13.2722
2056.98	14.0939
2058.44	14.5561
2059.9	14.4786
2061.36	15.4747
2062.82	16.1585
2064.29	17.2592
2065.75	17.1032
2067.21	16.9397
2068.67	17.2538
2070.13	17.3127
2071.59	17.144
2073.05	16.9281
2074.51	17.6399
2075.97	18.0211
2077.43	18.3824
2078.88	18.7392
2080.34	18.8011
2081.8	19.0054
2083.26	19.9037
2084.72	20.769
2086.17	21.2288
2087.63	21.6599
2089.09	22.6229
2090.54	22.8167
2092	22.9013
2093.46	23.7509
2094.91	23.5078
2096.37	23.7503
2097.82	24.0128
2099.28	24.4207
2100.73	25.0977
2102.19	25.2784
2103.64	26.0473
2105.09	26.1262
2106.55	27.7807
2108	28.1956
2109.46	28.6032
2110.91	29.1532
2112.36	30.7314
2113.81	31.7293
2115.27	32.9324
2116.72	33.8955
2118.17	36.1554
2119.62	37.1729
2121.07	38.2115
2122.52	38.7156
2123.97	40.3086
2125.42	41.4578
2126.87	42.8535
2128.32	44.7154
2129.77	46.0747
2131.22	47.2401
2132.67	48.2191
2134.12	50.185
2135.57	51.0121
2137.01	52.4288
2138.46	52.7816
2139.91	53.4282
2141.36	55.1451
2142.8	56.6728
2144.25	58.7769
2145.7	60.9597
2147.14	63.3023
2148.59	64.9588
2150.03	66.4275
2151.48	68.2359
2152.92	70.0105
2154.37	71.9704
2155.81	74.7004
2157.26	75.4658
2158.7	75.9425
2160.15	76.9553
2161.59	78.5709
2163.03	79.1791
2164.48	79.6237
2165.92	79.711
2167.36	79.8627
2168.8	79.8001
2170.25	79.7178
2171.69	79.736
2173.13	79.3397
2174.57	79.0296
2176.01	78.9744
2177.45	78.9713
2178.89	78.8718
2180.33	77.4322
2181.77	76.9629
2183.21	76.7799
2184.65	76.2589
2186.09	74.7116
2187.53	73.9213
2188.97	73.0281
2190.41	72.0729
2191.84	69.5349
2193.28	68.1621
2194.72	67.3179
2196.16	66.5296
2197.59	65.1573
2199.03	63.8754
2200.47	61.5136
2201.9	60.0267
2203.34	58.6185
2204.78	57.0192
2206.21	55.2643
2207.65	53.9117
2209.08	52.3008
2210.51	51.0514
2211.95	50.3499
2213.38	49.8894
2214.82	48.7572
2216.25	47.8025
2217.68	46.4113
2219.12	45.0994
2220.55	43.927
2221.98	43.1437
2223.42	42.7697
2224.85	41.6259
2226.28	40.9647
2227.71	40.6057
2229.14	38.1713
2230.57	36.4796
2232	35.5481
2233.43	34.3538
2234.86	32.0918
2236.29	30.7445
2237.72	29.541
2239.15	28.2235
2240.58	26.5676
2242.01	24.7723
2243.44	23.9027
2244.87	23.3596
2246.3	22.686
2247.73	21.2851
2249.15	20.0498
2250.58	19.2055
2252.01	18.2479
2253.43	17.977
2254.86	16.6565
2256.29	16.0896
2257.71	15.7312
2259.14	15.2537
2260.56	14.4571
2261.99	13.697
2263.41	12.9086
2264.84	12.691
2266.26	12.5396
2267.69	12.0199
2269.11	11.2939
2270.54	10.9826
2271.96	10.2217
2273.38	9.99859
2274.81	9.6929
2276.23	9.04598
2277.65	8.81306
2279.07	8.86692
2280.49	8.16384
2281.92	8.1542
2283.34	8.28684
2284.76	8.0104
2286.18	8.42628
2287.6	9.09324
2289.02	9.00922
2290.44	9.24224
2291.86	9.96
2293.28	8.96942
2294.7	8.7828
2296.12	8.52618
2297.54	9.35452
2298.96	9.55673
2300.38	9.33076
2301.79	9.76703
2303.21	9.74516
2304.63	10.1549
2306.05	10.5029
2307.46	11.1952
2308.88	10.7416
2310.3	10.3412
2311.71	10.5741
2313.13	9.96804
2314.55	10.5003
2315.96	10.7643
2317.38	10.0528
2318.79	10.0409
2320.21	10.095
2321.62	11.1729
2323.03	11.2544
2324.45	11.906
2325.86	12.028
2327.27	12.6622
2328.69	12.4156
2330.1	11.365
2331.51	11.5622
2332.93	10.5364
2334.34	10.0725
2335.75	9.54504
2337.16	8.99255
2338.57	8.361
2339.99	7.79151
2341.4	6.97512
2342.81	5.86406
2344.22	5.25679
2345.63	4.60557
2347.04	4.44748
2348.45	3.82842
2349.86	3.20938
2351.26	2.84375
2352.67	2.9827
2354.08	3.32864
2355.49	2.83517
2356.9	3.29545
2358.31	3.39855
2359.71	3.22023
2361.12	2.94839
2362.53	2.3868
2363.94	1.74417
2365.34	3.59132
2366.75	4.07169
2368.15	4.11195
2369.56	4.2885
2370.97	4.42639
2372.37	4.27247
2373.78	4.20936
2375.18	4.07613
2376.59	3.52869
2377.99	3.60394
2379.39	3.53523
2380.8	4.01824
2382.2	4.2527
2383.61	3.90611
2385.01	4.48741
2386.41	5.56909
2387.81	5.73703
2389.22	6.29725
2390.62	6.85161
2392.02	8.10394
2393.42	8.24019
2394.82	8.4056
2396.22	8.20353
2397.63	7.91652
2399.02	7.752
2400.43	6.65627
2401.82	7.1876
2403.23	6.11976
2404.62	6.68881
2406.02	6.62307
2407.42	7.34452
2408.82	6.59804
2410.22	6.73637
2411.62	7.10775
2413.02	6.67148
2414.41	6.60114
2415.81	6.24192
2417.21	7.02151
2418.61	6.52361
2420	7.13573
2421.4	7.63494
2422.79	7.77256
2424.19	7.60259
2425.59	8.13096
2426.98	8.67203
2428.38	8.23954
2429.77	7.57975
2431.17	6.85252
2432.56	6.3894
2433.96	6.5729
2435.35	6.8656
2436.74	5.80901
2438.14	5.62492
2439.53	6.10873
2440.92	6.45842
2442.32	6.46831
2443.71	6.34922
2445.1	5.99344
2446.49	6.19915
2447.88	6.55068
2449.28	6.34172
2450.67	6.93844
2452.06	6.7794
2453.45	7.00162
2454.84	7.30342
2456.23	7.7323
2457.62	7.60963
2459.01	7.57504
2460.4	7.98279
2461.79	8.06058
2463.18	7.85572
2464.57	7.93781
2465.96	8.19158
2467.34	7.91097
2468.73	7.84288
2470.12	7.15116
2471.51	7.36277
2472.89	7.45263
2474.28	7.8753
2475.67	7.62959
2477.05	6.62656
2478.44	5.65461
2479.83	5.88736
2481.21	5.27449
2482.6	4.33696
2483.98	4.80283
2485.37	4.70795
2486.75	5.81595
2488.14	4.99206
2489.52	4.22368
2490.9	3.08995
2492.29	3.29601
2493.67	3.07945
2495.06	3.53349
2496.44	3.06009
2497.82	2.32517
2499.2	2.43419
2500.59	2.2335
2501.97	1.20738
2503.35	1.28169
2504.73	0.928643
2506.11	0.832127
2507.49	1.88193
2508.88	2.22673
2510.26	2.45181
2511.63	2.22199
2513.01	2.20262
2514.39	2.27568
2515.77	2.27246
2517.15	2.64955
2518.53	2.95301
2519.91	3.66852
2521.29	3.4201
2522.67	3.85102
2524.05	4.1532
2525.42	4.42848
2526.8	4.07925
2528.18	4.32862
2529.56	5.06193
2530.93	4.58227
2532.31	5.0543
2533.69	5.64536
2535.06	5.60101
2536.44	5.24896
2537.81	5.41262
2539.19	5.42027
2540.56	6.03183
2541.94	6.84663
2543.31	6.97093
2544.69	7.06903
2546.06	6.7652
2547.44	7.52942
2548.81	7.18168
2550.18	7.566
2551.56	8.36783
2552.93	8.8198
2554.3	8.65486
2555.68	8.7472
2557.05	7.9586
2558.42	7.78958
2559.79	8.20696
2561.16	8.98126
2562.53	9.17841
2563.9	9.47639
2565.28	8.82461
2566.64	8.69848
2568.02	8.83723
2569.38	8.47552
2570.76	8.23456
2572.12	9.17245
2573.49	9.45994
2574.86	10.6541
2576.23	10.5576
2577.6	9.55118
2578.97	9.54955
2580.34	9.36101
2581.7	9.37608
2583.07	8.78812
2584.44	9.10726
2585.81	8.82955
2587.17	8.07918
2588.54	7.73672
2589.91	6.54293
2591.27	6.03163
2592.64	5.46727
2594	5.4913
2595.37	4.64596
2596.73	4.69244
2598.1	3.93976
2599.46	3.03018
2600.83	3.45868
2602.19	3.55757
2603.55	3.80809
2604.92	4.05772
2606.28	4.54167
2607.64	4.8873
2609.01	4.72062
2610.37	4.26806
2611.73	4.28637
2613.09	4.32062
2614.46	4.2717
2615.82	4.68936
2617.18	4.85666
2618.54	5.6009
2619.9	5.85845
2621.26	6.42815
2622.62	6.54535
2623.98	6.90471
2625.34	6.8756
2626.7	7.52709
2628.06	7.89071
2629.42	8.7591
2630.78	9.07268
2632.14	9.23614
2633.5	9.75054
2634.86	10.8055
2636.22	11.0959
2637.57	11.5012
2638.93	11.8535
2640.29	12.2269
2641.64	12.3557
2643	12.6713
2644.36	11.9631
2645.72	12.2826
2647.07	12.7182
2648.43	13.1404
2649.78	13.1491
2651.14	12.6484
2652.49	12.9753
2653.85	11.9228
2655.2	11.9949
2656.56	12.106
2657.91	11.8101
2659.27	12.5079
2660.62	12.511
2661.97	12.5515
2663.33	11.5976
2664.68	11.9315
2666.03	11.9251
2667.38	11.6556
2668.74	11.8159
2670.09	11.7059
2671.44	11.4843
2672.79	11.2788
2674.14	10.7029
2675.49	10.1171
2676.84	9.74635
2678.2	9.63725
2679.55	10.0727
2680.89	10.0259
2682.24	9.75794
2683.59	9.63157
2684.94	10.1761
2686.29	10.345
2687.64	10.0403
2688.99	10.3267
2690.34	9.68383
2691.69	9.99139
2693.04	10.0474
2694.38	10.6331
2695.73	10.1452
2697.08	10.1967
2698.43	9.86365
2699.77	10.0685
2701.12	10.3663
2702.46	9.89323
2703.81	9.531
2705.16	9.33433
2706.5	9.31781
2707.85	9.45136
2709.19	9.39472
2710.54	9.884
2711.88	10.2627
2713.23	11.1351
2714.57	11.702
2715.92	12.1579
2717.26	11.9153
2718.6	12.2482
2719.95	12.5524
2721.29	12.5543
2722.63	12.7287
2723.97	11.8986
2725.32	11.648
2726.66	11.8025
2728	11.2671
2729.34	10.7478
2730.68	10.2239
2732.02	10.0868
2733.36	9.27789
2734.7	8.06314
2736.04	7.78699
2737.39	7.21526
2738.72	6.69095
2740.06	6.69854
2741.4	5.95436
2742.74	6.02876
2744.08	6.03324
2745.42	5.71558
2746.76	5.76182
2748.1	5.36248
2749.44	5.48303
2750.77	5.12302
2752.11	4.76989
2753.45	3.67288
2754.78	3.17951
2756.12	3.30716
2757.46	3.07445
2758.79	3.32072
2760.13	2.72297
2761.47	2.99283
2762.8	2.77642
2764.14	3.02383
2765.47	3.26934
2766.81	3.27278
2768.14	3.44217
2769.48	2.79264
2770.81	3.33695
2772.14	3.55732
2773.48	4.05215
2774.81	4.48256
2776.14	4.70242
2777.48	4.96921
2778.81	5.4272
2780.14	5.40469
2781.47	5.28987
2782.81	4.47287
2784.14	3.76169
2785.47	3.34747
2786.8	3.10818
2788.13	3.2735
2789.46	2.76093
2790.79	3.14766
2792.12	2.44887
2793.46	2.72328
2794.79	2.68456
2796.11	3.09319
2797.44	2.66775
2798.77	2.45861
2800.1	2.08705
2801.43	1.78865
2802.76	2.10931
2804.09	1.76743
2805.42	1.5864
2806.74	1.59034
2808.07	1.51356
2809.4	1.43021
2810.73	0.842041
2812.05	0.604695
2813.38	0.61753
2814.71	-0.223973
2816.03	-0.652262
2817.36	-0.773519
2818.68	-0.143123
2820.01	1.49528
2821.33	2.65337
2822.66	4.14067
2823.98	6.05637
2825.31	8.75124
2826.63	10.4689
2827.96	13.3033
2829.28	15.6978
2830.61	18.3486
2831.93	20.5884
2833.25	23.1323
2834.57	26.0654
2835.9	28.6123
2837.22	31.7649
2838.54	34.9994
2839.86	38.3186
2841.18	41.4298
2842.51	44.3776
2843.83	47.98
2845.15	51.819
2846.47	55.2012
2847.79	58.8672
2849.11	61.9809
2850.43	65.3449
2851.75	69.5798
2853.07	72.7754
2854.39	75.6563
2855.71	78.5422
2857.03	81.6544
2858.35	84.0905
2859.67	87.6765
2860.98	90.5786
2862.3	93.6796
2863.62	95.6563
2864.94	98.815
2866.25	100.6
2867.57	103.261
2868.89	105.123
2870.21	106.248
2871.52	107.709
2872.84	108.371
2874.15	109.359
2875.47	110.05
2876.78	110.617
2878.1	112.071
2879.42	112.456
2880.73	113.272
2882.04	114.936
2883.36	117.051
2884.67	118.462
2885.99	120.193
2887.3	120.548
2888.61	122.006
2889.93	123.608
2891.24	125.244
2892.55	126.643
2893.87	129.178
2895.18	130.896
2896.49	133.255
2897.8	135.088
2899.11	138.311
2900.42	140.729
2901.74	144.405
2903.05	147.341
2904.36	150.958
2905.67	154.68
2906.98	158.489
2908.29	163.168
2909.6	168.396
2910.91	173.184
2912.22	178.004
2913.53	182.862
2914.83	187.486
2916.14	192.136
2917.45	197.093
2918.76	201.148
2920.07	205.864
2921.37	210.714
2922.68	215.425
2923.99	219.178
2925.3	222.387
2926.6	226.065
2927.91	228.296
2929.22	230.549
2930.52	232.281
2931.83	233.371
2933.13	234.746
2934.44	234.724
2935.74	234.399
2937.05	233.496
2938.35	231.902
2939.66	230.473
2940.96	227.811
2942.27	224.832
2943.57	221.94
2944.87	217.333
2946.18	213.608
2947.48	208.491
2948.78	203.554
2950.09	198.433
2951.39	192.813
2952.69	186.876
2953.99	181.574
2955.29	176.262
2956.6	170.777
2957.9	164.681
2959.2	158.928
2960.5	152.653
2961.8	147.025
2963.1	141.031
2964.4	136.5
2965.7	131.154
2967	127.084
2968.3	122.177
2969.6	118.364
2970.9	114.459
2972.2	110.972
2973.49	106.876
2974.79	103.785
2976.09	100.07
2977.39	96.5941
2978.69	93.228
2979.98	89.7019
2981.28	85.8701
2982.58	82.5438
2983.88	79.3594
2985.17	75.9823
2986.47	72.5783
2987.76	69.332
2989.06	65.8466
2990.36	62.9535
2991.65	60.1793
2992.95	57.0813
2994.24	54.977
2995.54	52.3164
2996.83	49.8626
2998.12	47.1631
2999.42	44.2453
3000.71	40.7216
3002	37.7946
3003.3	34.4428
3004.59	31.504
3005.88	28.7782
3007.18	26.2553
3008.47	23.9738
3009.76	21.3596
3011.05	19.2127
3012.35	16.4262
3013.64	14.6455
3014.93	12.5498
3016.22	10.3068
3017.51	8.49742
3018.8	6.79145
3020.09	5.80002
3021.38	5.04092
3022.67	3.88623
3023.96	3.23503
3025.25	2.04879
3026.54	1.62828
3027.83	1.53621
3029.12	1.66701
3030.41	0.841076
3031.69	0.65718
3032.98	1.22681
3034.27	0.989697
3035.56	1.39423
3036.85	1.24406
3038.13	1.43721
3039.42	2.64231
3040.71	2.42876
3041.99	2.95335
3043.28	3.63599
3044.57	3.71086
3045.85	4.0562
3047.14	4.49588
3048.42	5.13911
3049.71	5.81691
3050.99	6.64312
3052.28	7.25094
3053.56	7.82433
3054.85	7.63091
3056.13	7.57053
3057.42	7.68797
3058.7	8.08596
3059.98	8.10684
3061.27	7.91978
3062.55	7.67645
3063.83	7.11417
3065.11	6.38515
3066.4	6.36776
3067.68	5.85961
3068.96	5.56535
3070.24	5.68057
3071.52	5.0374
3072.8	4.91733
3074.09	4.37083
3075.37	4.08762
3076.65	4.44987
3077.93	4.63483
3079.21	4.786
3080.49	5.35013
3081.77	5.64174
3083.05	5.74504
3084.32	6.30741
3085.61	6.15726
3086.88	5.84421
3088.16	5.91157
3089.44	6.37818
3090.72	6.76853
3092	7.69246
3093.27	8.83356
3094.55	9.52211
3095.83	10.6911
3097.11	11.3792
3098.38	11.7729
3099.66	13.0713
3100.94	13.5791
3102.21	15.4184
3103.49	16.4985
3104.76	17.3502
3106.04	18.6839
3107.31	19.699
3108.59	20.8521
3109.86	22.7756
3111.14	24.0352
3112.41	25.8459
3113.69	27.1151
3114.96	28.0304
3116.23	28.3645
3117.51	29.7822
3118.78	30.6386
3120.05	31.9127
3121.33	33.3014
3122.6	34.5381
3123.87	35.5813
3125.14	36.5302
3126.42	37.3641
3127.69	38.4866
3128.96	39.8747
3130.23	41.6203
3131.5	42.9935
3132.77	44.2806
3134.04	46.3074
3135.31	47.3372
3136.58	49.0446
3137.85	50.6296
3139.12	52.1885
3140.39	53.681
3141.66	54.8817
3142.93	56.3096
3144.2	57.7041
3145.47	59.3027
3146.74	61.0432
3148	62.3536
3149.27	64.3312
