#Acq. time (s)=	45
#Accumulations=	2
#Range (cm-¹)=	200...3150
#Windows=	2
#Auto scanning=	Off
#Autofocus=	Off
#Macrospot=	Off
#AutoExposure=	Off
#Spike filter=	Multiple accum.
#Delay time (s)=	0
#Binning=	1
#Readout mode=	Signal
#DeNoise=	Off
#ICS correction=	On
#Dark correction=	Off
#Inst. Process=	Off
#Detector Gain=	Best Dynamic Range
#Detector ADC=	20 kHz       
#Detector temperature (°C)=	-69.85
#Instrument=	LabRAM HR Evol
#Detector=	Synapse
#Objective=	x100
#Grating=	600 gr/mm
#ND Filter=	100%
#Laser (nm)=	532 
#Hole=	100.021
#Range=	Auto
#Laser Pol.=	No
#Raman. Pol.=	No
#Laser Pol. (°)=	-0.0007625
#Raman Pol. (°)=	89.9995
#Collection=	Microscope
#StageXY=	Marzhauser
#StageZ=	Marzhauser
#X (µm)=	19311.3
#Y (µm)=	3091.4
#Z (µm)=	1046.85
#Full time(mm:ss)=	3:19
#Project=	
#Sample=	
#Site=	
#Title=	Mb_50_18_15_2x_45s_532 nm_x100_100%_600 gr_mm
#Remark=	
#Date=	12.07.2022 11:21
#Acquired=	12.07.2022 11:21:01
#Base:Fit=	10.08.2022 10:49:18
#Base:Sub=	10.08.2022 10:49:30
#Filter:Polynom=	16.08.2022 10:14:59
#AxisType[0]=Intens
#AxisUnit[0]=Cnt
#AxisType[1]=Spectr
#AxisUnit[1]=1/cm
200.388	29.4114
202.204	26.9976
204.019	24.962
205.832	22.8755
207.646	20.7316
209.459	18.9081
211.274	17.1539
213.087	16.1693
214.899	15.6142
216.711	15.2857
218.524	13.8357
220.335	13.097
222.146	11.8738
223.956	10.9794
225.766	10.6417
227.576	8.7765
229.388	8.83217
231.197	8.36006
233.005	7.96647
234.813	6.82526
236.621	5.76614
238.429	4.88736
240.236	5.33565
242.045	5.77647
243.852	6.30078
245.658	5.69427
247.464	5.60234
249.269	5.23327
251.074	4.88723
252.879	3.87394
254.683	4.04659
256.487	3.40028
258.291	3.6015
260.094	3.64737
261.897	4.71804
263.702	4.67264
265.504	4.83119
267.306	4.85147
269.108	5.32375
270.909	5.3762
272.71	4.98083
274.511	5.55221
276.311	6.11884
278.111	6.00023
279.91	6.36527
281.709	6.27014
283.508	7.05133
285.306	7.78865
287.105	6.7923
288.9	7.68407
290.698	8.18958
292.495	8.83068
294.291	9.65991
296.088	10.2259
297.884	11.5562
299.679	11.9489
301.475	13.8238
303.27	15.5395
305.064	16.4939
306.858	17.1146
308.652	17.6169
310.444	18.5916
312.237	18.7066
314.03	19.5688
315.822	19.8079
317.615	19.7739
319.406	21.1055
321.198	20.7441
322.987	21.6507
324.778	22.6937
326.568	22.6861
328.358	23.7816
330.148	24.9596
331.935	24.2902
333.724	23.0947
335.513	21.4332
337.301	21.1838
339.089	19.4759
340.875	18.2832
342.662	17.704
344.449	16.6744
346.236	16.7582
348.02	16.8513
349.806	17.4695
351.592	18.233
353.375	17.9102
355.16	19.2077
356.944	19.6445
358.728	19.5471
360.51	20.1718
362.294	20.891
364.077	22.4693
365.858	24.7189
367.64	24.2295
369.422	24.3554
371.202	24.8547
372.983	25.7272
374.764	25.8577
376.543	26.8643
378.324	27.8258
380.102	28.5213
381.881	29.008
383.661	29.2947
385.438	28.9221
387.216	29.7265
388.993	30.314
390.771	30.7353
392.548	30.8862
394.324	29.8694
396.101	29.8383
397.875	29.9039
399.651	28.4813
401.425	28.3478
403.201	26.7546
404.974	25.4483
406.749	24.794
408.524	23.9508
410.296	22.3704
412.07	20.7214
413.841	18.8178
415.614	16.2831
417.385	15.4095
419.156	13.856
420.928	11.4663
422.698	10.1718
424.469	7.52309
426.238	5.80323
428.009	4.04292
429.777	3.75482
431.548	2.52176
433.315	2.05492
435.083	1.71772
436.852	1.47835
438.618	2.60242
440.387	3.50238
442.153	3.76048
443.919	3.31741
445.686	2.94263
447.451	2.40036
449.218	2.7652
450.982	3.20703
452.746	3.61057
454.512	4.09379
456.275	3.70507
458.038	4.87227
459.803	6.22968
461.565	6.68662
463.327	6.68896
465.091	7.5962
466.852	8.61682
468.613	8.70804
470.374	10.0135
472.136	10.8656
473.896	11.7824
475.655	13.9183
477.415	14.8229
479.176	16.0021
480.934	17.4901
482.692	18.2223
484.45	19.4691
486.21	21.4544
487.967	23.0199
489.724	25.1853
491.481	26.2742
493.237	28.8787
494.995	30.8221
496.75	32.2858
498.506	33.8618
500.26	36.1559
502.015	38.6341
503.771	40.3687
505.525	41.7983
507.279	41.5413
509.032	40.796
510.785	40.471
512.537	39.1583
514.289	39.8975
516.041	40.4413
517.793	40.2052
519.546	39.606
521.297	40.3034
523.047	39.7426
524.797	40.0016
526.547	40.227
528.297	39.7551
530.046	38.1052
531.795	36.2
533.543	35.6867
535.291	34.0914
537.039	32.4228
538.787	31.367
540.534	29.4653
542.281	28.3407
544.027	26.2244
545.773	23.9394
547.519	22.3008
549.264	20.562
551.01	18.7511
552.754	18.3824
554.499	16.9301
556.243	15.6532
557.987	14.6837
559.73	12.4527
561.474	11.2001
563.216	11.0527
564.959	10.884
566.701	11.1119
568.441	10.2587
570.182	10.1123
571.923	10.2908
573.664	11.9338
575.405	11.0293
577.145	10.183
578.885	9.91736
580.624	10.4906
582.361	10.3565
584.1	10.1897
585.839	9.97704
587.577	9.04858
589.315	7.54597
591.052	6.9411
592.787	5.56555
594.524	4.03456
596.26	3.79813
597.997	3.58622
599.732	3.33543
601.466	3.89095
603.201	4.30972
604.936	4.40681
606.67	3.9962
608.403	4.8033
610.136	5.40668
611.87	6.27683
613.603	5.81375
615.334	5.458
617.067	4.39315
618.799	4.58172
620.529	3.9193
622.26	2.99271
623.991	4.08793
625.72	4.36433
627.451	4.74422
629.181	5.27758
630.909	5.09025
632.638	6.03105
634.368	7.07142
636.095	7.59227
637.823	7.5514
639.551	8.93814
641.277	9.19584
643.005	8.57102
644.73	8.51365
646.457	10.406
648.184	11.5679
649.908	12.7713
651.634	13.43
653.357	13.2975
655.083	14.2975
656.806	15.0294
658.53	15.1071
660.253	15.2163
661.977	15.0714
663.7	16.2535
665.422	16.8757
667.145	17.9087
668.865	17.5187
670.588	16.6556
672.308	16.2133
674.027	16.7484
675.749	17.5402
677.468	18.2105
679.188	18.5711
680.907	19.3528
682.627	19.3556
684.345	19.9692
686.064	20.5615
687.781	21.3102
689.498	22.0107
691.216	22.2908
692.932	23.3241
694.65	24.7858
696.366	25.4705
698.081	25.6716
699.797	24.5887
701.512	25.0511
703.228	25.7072
704.942	27.5219
706.655	28.6544
708.371	30.7314
710.083	32.834
711.796	33.4815
713.51	34.4373
715.222	35.858
716.934	37.7586
718.645	39.3906
720.358	39.6071
722.068	39.9763
723.779	41.044
725.49	42.0218
727.2	43.569
728.909	44.7121
730.618	47.3923
732.329	49.5027
734.037	50.1726
735.745	52.6208
737.453	54.9008
739.16	57.3885
740.869	60.5619
742.576	62.1126
744.282	65.0115
745.988	68.5499
747.694	71.8454
749.401	75.2826
751.107	77.4731
752.811	80.894
754.516	82.7346
756.22	84.917
757.924	88.5247
759.627	91.8801
761.332	94.2865
763.035	96.8701
764.738	98.6367
766.44	100.287
768.142	102.907
769.843	104.701
771.544	105.821
773.245	107.111
774.946	108.161
776.646	108.986
778.346	108.99
780.046	108.531
781.745	107.794
783.444	107.639
785.143	106.625
786.841	106.856
788.539	107.765
790.237	107.948
791.934	106.541
793.631	104.88
795.328	103.783
797.024	101.781
798.72	100.426
800.416	98.8676
802.112	95.5566
803.807	92.3749
805.502	90.2527
807.196	88.732
808.89	87.2199
810.584	85.4556
812.278	83.8161
813.971	81.9646
815.664	81.1684
817.354	80.9538
819.047	80.5983
820.739	80.0997
822.43	80.3402
824.122	79.3869
825.813	78.8225
827.503	77.8425
829.192	77.4835
830.882	77.5684
832.571	75.9803
834.261	75.6713
835.95	74.1428
837.637	74.0846
839.325	72.0414
841.013	72.082
842.701	72.3849
844.389	71.5845
846.074	70.598
847.761	69.2662
849.447	67.3773
851.131	67.1179
852.817	66.9961
854.503	65.3759
856.188	64.3557
857.871	64.7723
859.556	63.8791
861.24	63.1052
862.922	62.7222
864.606	63.0639
866.289	63.0109
867.97	63.2948
869.653	62.1298
871.336	62.9938
873.016	62.6628
874.698	62.1544
876.379	60.3409
878.058	60.6997
879.739	60.4797
881.418	59.4965
883.098	59.2815
884.778	58.4038
886.456	58.4683
888.135	59.0413
889.812	59.3339
891.49	60.2301
893.167	60.939
894.845	60.6366
896.523	60.5252
898.198	60.9459
899.875	60.6952
901.55	59.7046
903.226	59.8171
904.901	60.0037
906.576	59.4946
908.25	58.0045
909.925	57.8624
911.598	57.6415
913.271	56.488
914.945	55.2972
916.617	53.7315
918.291	53.1001
919.962	51.5293
921.635	50.9939
923.306	49.8394
924.978	49.7188
926.648	48.7427
928.318	47.2787
929.989	46.81
931.659	46.0238
933.328	46.1829
934.998	46.4127
936.666	45.7417
938.336	44.7085
940.004	43.6585
941.671	43.5771
943.34	42.5513
945.007	42.6279
946.673	42.3532
948.339	42.0986
950.007	42.0861
951.672	40.9936
953.337	40.8552
955.004	40.7991
956.669	38.8262
958.333	38.5067
959.997	37.0422
961.662	38.3808
963.326	36.8926
964.989	37.3983
966.651	37.449
968.315	37.5813
969.977	37.3853
971.639	37.2555
973.301	37.3224
974.962	38.2534
976.624	38.9758
978.285	39.2889
979.945	40.0918
981.605	40.5167
983.264	41.1781
984.924	41.9212
986.583	42.8772
988.243	42.1235
989.901	41.3103
991.56	42.0979
993.217	42.722
994.875	43.1969
996.532	44.6188
998.188	46.2465
999.845	49.5041
1001.5	51.8087
1003.16	54.6195
1004.81	57.0803
1006.47	58.5562
1008.12	60.5312
1009.78	62.1942
1011.43	64.0086
1013.09	65.0178
1014.74	66.088
1016.39	67.0887
1018.05	67.6071
1019.7	67.8439
1021.35	69.0594
1023	70.2321
1024.65	72.3493
1026.31	73.4949
1027.96	73.9389
1029.61	74.1663
1031.26	73.8339
1032.91	73.0898
1034.56	71.3119
1036.21	70.3705
1037.86	68.8557
1039.51	67.7979
1041.16	67.1775
1042.8	65.3084
1044.45	64.1276
1046.1	63.1398
1047.75	62.4172
1049.39	60.426
1051.04	59.4948
1052.69	58.0066
1054.33	57.1865
1055.98	55.838
1057.62	55.5076
1059.27	54.672
1060.91	52.3412
1062.56	50.5566
1064.2	49.2271
1065.85	48.0439
1067.49	46.7236
1069.13	45.6329
1070.77	45.353
1072.42	44.7797
1074.06	45.8591
1075.7	46.8128
1077.34	47.2976
1078.98	48.5894
1080.62	48.5531
1082.27	49.012
1083.91	48.0893
1085.55	48.1651
1087.18	47.4624
1088.82	46.9115
1090.46	47.3926
1092.1	46.685
1093.74	47.2102
1095.38	46.3248
1097.02	46.5985
1098.65	45.5785
1100.29	45.27
1101.93	45.4171
1103.56	45.4889
1105.2	45.308
1106.84	44.365
1108.47	42.9282
1110.11	42.2565
1111.74	41.7064
1113.38	40.2224
1115.01	39.0787
1116.64	37.3544
1118.28	36.16
1119.91	35.0022
1121.54	33.8525
1123.18	31.9332
1124.81	29.9876
1126.44	28.6852
1128.07	27.2977
1129.7	25.2821
1131.33	23.6261
1132.97	21.9955
1134.6	21.3027
1136.23	20.5443
1137.86	19.6548
1139.49	18.8014
1141.11	17.3446
1142.74	15.9358
1144.37	15.9429
1146	14.5738
1147.63	12.917
1149.26	12.4108
1150.88	11.7731
1152.51	11.2504
1154.14	10.7281
1155.76	11.4898
1157.39	10.8642
1159.01	10.15
1160.64	10.7385
1162.27	9.98526
1163.89	10.765
1165.51	11.7259
1167.14	13.1685
1168.76	13.604
1170.39	14.4698
1172.01	16.4098
1173.63	16.7116
1175.25	17.6885
1176.88	17.7245
1178.5	18.6422
1180.12	18.8293
1181.74	19.9819
1183.36	20.5283
1184.98	20.4597
1186.6	21.543
1188.22	22.0154
1189.84	23.6611
1191.46	24.3435
1193.08	24.5129
1194.7	23.9819
1196.32	22.6737
1197.94	22.3586
1199.55	22.5471
1201.17	22.946
1202.79	22.0412
1204.41	21.6523
1206.02	20.9731
1207.64	21.6987
1209.25	21.7556
1210.87	23.2097
1212.48	22.0084
1214.1	22.4965
1215.71	23.4243
1217.33	22.8429
1218.94	23.0183
1220.56	23.6329
1222.17	23.6958
1223.79	23.6651
1225.4	24.8691
1227.01	23.995
1228.62	25.6624
1230.23	27.6252
1231.85	27.7367
1233.46	28.4152
1235.07	29.6946
1236.68	31.2707
1238.29	33.3284
1239.9	34.9148
1241.51	36.5662
1243.12	37.0653
1244.73	38.8364
1246.34	40.1691
1247.94	41.9185
1249.55	43.0474
1251.16	44.446
1252.77	45.2854
1254.37	44.3742
1255.98	45.4225
1257.59	45.4432
1259.2	46.0543
1260.8	47.4125
1262.41	48.625
1264.01	49.4232
1265.62	50.7249
1267.22	51.8454
1268.83	52.3342
1270.43	54.231
1272.03	54.7625
1273.64	55.9771
1275.24	55.4872
1276.85	56.473
1278.45	58.7761
1280.05	59.6177
1281.65	60.4388
1283.25	60.3908
1284.85	61.8709
1286.46	62.7491
1288.06	63.6527
1289.66	63.1344
1291.26	64.2966
1292.86	63.3265
1294.46	64.4854
1296.06	65.1894
1297.66	66.0754
1299.25	66.7283
1300.85	66.7748
1302.45	66.8885
1304.05	67.6937
1305.65	68.02
1307.24	66.9346
1308.84	68.4876
1310.43	68.2812
1312.03	67.3692
1313.63	67.9711
1315.22	68.1103
1316.82	68.0105
1318.41	66.9978
1320.01	66.7763
1321.6	65.7738
1323.2	64.4039
1324.79	63.8513
1326.38	62.2646
1327.98	60.9798
1329.57	59.5367
1331.16	57.939
1332.76	56.2841
1334.35	55.7992
1335.94	55.1077
1337.53	53.8469
1339.12	53.4638
1340.71	52.7552
1342.3	51.5697
1343.89	49.7312
1345.48	49.1144
1347.07	48.4576
1348.66	48.6111
1350.25	47.876
1351.84	46.5846
1353.43	46.2211
1355.01	45.219
1356.6	45.4236
1358.19	44.0281
1359.77	43.3314
1361.36	42.8473
1362.95	42.0783
1364.53	41.9313
1366.12	40.2513
1367.71	38.7615
1369.29	37.9994
1370.88	37.2084
1372.46	35.4729
1374.04	34.3472
1375.63	33.6576
1377.21	32.6528
1378.8	31.6514
1380.38	29.9641
1381.96	29.5456
1383.54	28.5987
1385.13	27.1759
1386.71	27.2383
1388.29	27.0422
1389.87	25.1259
1391.45	25.0981
1393.03	24.5926
1394.61	23.2589
1396.19	21.8755
1397.77	21.3734
1399.35	21.7834
1400.93	21.1008
1402.51	21.2405
1404.09	21.6675
1405.67	22.2044
1407.24	24.0101
1408.82	25.5722
1410.4	27.593
1411.98	29.6085
1413.55	31.4354
1415.13	32.5159
1416.71	34.3638
1418.28	37.4223
1419.86	39.5817
1421.43	41.8879
1423.01	44.3572
1424.58	47.8818
1426.16	51.1137
1427.73	54.4608
1429.31	56.3413
1430.88	60.0037
1432.45	62.5072
1434.02	64.5851
1435.6	65.8988
1437.17	68.6536
1438.74	71.1436
1440.31	71.7172
1441.88	72.9313
1443.45	72.9582
1445.03	72.9348
1446.6	73.7756
1448.17	74.2791
1449.74	74.1467
1451.3	74.1196
1452.87	73.2865
1454.44	72.8346
1456.01	72.1324
1457.58	71.0917
1459.15	70.0556
1460.72	69.3311
1462.28	68.269
1463.85	66.5003
1465.42	65.8778
1466.98	63.8207
1468.55	62.7155
1470.12	61.5029
1471.68	58.552
1473.25	56.8692
1474.81	54.9609
1476.38	53.8663
1477.94	52.3347
1479.51	50.4376
1481.07	48.2884
1482.63	47.3585
1484.2	46.4
1485.76	45.1292
1487.32	43.1201
1488.88	41.5438
1490.45	38.8425
1492.01	36.7631
1493.57	35.7722
1495.13	34.772
1496.69	34.4862
1498.25	33.0524
1499.81	32.4611
1501.37	31.6769
1502.93	31.231
1504.49	30.1994
1506.05	29.0096
1507.61	28.044
1509.17	27.3616
1510.73	26.0276
1512.28	25.0406
1513.84	23.9429
1515.4	23.0141
1516.96	21.5397
1518.51	20.8564
1520.07	20.3579
1521.63	20.2104
1523.18	20.7073
1524.74	20.243
1526.29	19.8852
1527.85	19.6753
1529.4	19.4232
1530.96	19.2135
1532.51	19.7449
1534.06	20.0561
1535.62	20.3613
1537.17	20.1629
1538.72	21.0502
1540.28	22.5119
1541.83	23.1327
1543.38	24.8431
1544.93	23.8717
1546.48	24.7305
1548.03	23.7844
1549.59	23.8932
1551.14	23.8074
1552.69	23.3087
1554.24	23.5498
1555.79	24.0686
1557.34	24.4918
1558.88	25.3859
1560.43	25.694
1561.98	25.3729
1563.53	24.2976
1565.08	24.7386
1566.62	26.2011
1568.17	26.0053
1569.72	27.403
1571.27	28.9393
1572.81	29.1429
1574.36	30.3273
1575.9	31.5484
1577.45	32.0712
1579	33.0227
1580.54	34.3251
1582.09	34.7934
1583.63	36.1732
1585.17	36.4116
1586.72	37.1283
1588.26	38.1209
1589.8	38.4162
1591.35	39.5689
1592.89	39.8848
1594.43	41.5757
1595.97	42.6047
1597.52	43.2068
1599.06	44.0933
1600.6	44.3305
1602.14	44.6631
1603.68	45.6962
1605.22	45.3617
1606.76	45.14
1608.3	45.5765
1609.84	45.3127
1611.38	45.548
1612.92	45.7738
1614.46	45.5615
1615.99	47.1464
1617.53	46.6838
1619.07	46.3905
1620.61	46.3579
1622.14	44.9897
1623.68	45.7319
1625.22	45.2456
1626.75	45.9929
1628.29	46.1885
1629.82	46.6571
1631.36	47.6758
1632.9	48.7129
1634.43	49.4718
1635.96	49.6333
1637.5	50.1803
1639.03	51.3242
1640.57	52.1644
1642.1	53.4889
1643.63	53.5514
1645.16	54.1329
1646.7	55.427
1648.23	56.1017
1649.76	56.693
1651.29	58.0937
1652.82	58.3121
1654.36	58.3858
1655.89	57.9953
1657.42	57.8616
1658.95	56.8371
1660.48	55.8125
1662.01	55.4264
1663.53	56.1866
1665.06	55.5083
1666.59	54.2489
1668.12	53.1385
1669.65	51.116
1671.18	50.7928
1672.7	49.5011
1674.23	47.5582
1675.76	45.8307
1677.29	44.6272
1678.81	42.6462
1680.34	40.1283
1681.86	37.4591
1683.39	35.4704
1684.91	33.5419
1686.44	31.2837
1687.96	29.2882
1689.49	27.3268
1691.01	25.3571
1692.54	24.2593
1694.06	22.3577
1695.58	20.7157
1697.11	19.259
1698.63	18.7308
1700.15	18.493
1701.67	17.4154
1703.2	16.0188
1704.72	15.0049
1706.24	14.4608
1707.76	14.1906
1709.28	13.4675
1710.8	12.3172
1712.32	11.6997
1713.84	11.7638
1715.36	11.1427
1716.88	10.6901
1718.4	9.90245
1719.91	9.2784
1721.43	9.16642
1722.95	8.66027
1724.47	8.30367
1725.99	8.28289
1727.5	8.07695
1729.02	7.23297
1730.54	6.76328
1732.05	6.0787
1733.57	6.39873
1735.09	5.4295
1736.6	5.78607
1738.12	6.49357
1739.63	6.0281
1741.15	5.86215
1742.66	5.63479
1744.18	5.53758
1745.69	5.73294
1747.2	5.80512
1748.72	5.2883
1750.23	4.87659
1751.74	4.97454
1753.25	4.8545
1754.77	3.83284
1756.28	3.01404
1757.79	2.64411
1759.3	1.76531
1760.81	2.16951
1762.32	2.4491
1763.83	2.13935
1765.34	2.35289
1766.85	1.90729
1768.36	2.18521
1769.87	2.04935
1771.38	1.94311
1772.89	2.09544
1774.4	2.47059
1775.91	1.70435
1777.41	0.97946
1778.92	1.05207
1780.43	1.59004
1781.94	1.66785
1783.44	1.70734
1784.95	2.04531
1786.45	1.6862
1787.96	1.99227
1789.47	1.53724
1790.97	1.14366
1792.48	1.12764
1793.98	0.820246
1795.48	0.912882
1796.99	0.724689
1798.49	0.702085
1800	0.462202
1801.5	0.927216
1803	0.472583
1804.51	0.212096
1806.01	0.174339
1807.51	0.246897
1809.01	0.438845
1810.51	-0.0620125
1812.02	0.43561
1813.52	0.39507
1815.02	0.63968
1816.52	1.41606
1818.02	1.55549
1819.52	1.61499
1821.02	1.47322
1822.52	1.75249
1824.02	2.18937
1825.51	2.20889
1827.01	1.89369
1828.51	1.80254
1830.01	1.88059
1831.51	1.64683
1833	2.1064
1834.5	2.88914
1836	4.00133
1837.5	3.86557
1838.99	3.98802
1840.49	4.38987
1841.98	4.41223
1843.48	4.56707
1844.97	4.24058
1846.47	3.986
1847.96	3.56791
1849.46	3.8153
1850.95	3.09969
1852.45	3.48005
1853.94	3.40162
1855.43	3.97771
1856.92	3.78112
1858.42	3.43479
1859.91	3.44264
1861.4	3.50981
1862.89	4.1784
1864.39	3.78161
1865.88	4.31779
1867.37	4.38746
1868.86	3.56673
1870.35	3.21464
1871.84	3.51321
1873.33	3.75314
1874.82	4.3585
1876.31	4.36904
1877.8	4.63829
1879.29	4.69857
1880.77	3.95021
1882.26	3.81598
1882.51	4.00401
1884	4.09528
1885.5	4.78584
1886.99	5.35893
1888.48	6.37665
1889.98	6.994
1891.47	6.9157
1892.97	6.97891
1894.46	6.72464
1895.95	7.33217
1897.44	6.68331
1898.93	6.9884
1900.42	6.8182
1901.92	7.06581
1903.41	7.80218
1904.9	7.78997
1906.39	8.05804
1907.88	7.55038
1909.37	7.36119
1910.86	6.40705
1912.35	6.15684
1913.84	5.75114
1915.32	5.16655
1916.81	4.42806
1918.3	3.99944
1919.79	4.13718
1921.28	3.57752
1922.76	3.77774
1924.25	3.69523
1925.74	4.39046
1927.22	3.83856
1928.71	4.40262
1930.2	4.20118
1931.68	4.4045
1933.17	5.85814
1934.65	6.54794
1936.14	6.26662
1937.62	5.54911
1939.11	5.52017
1940.59	5.38606
1942.08	4.77301
1943.56	5.21851
1945.04	5.41088
1946.53	4.12001
1948.01	4.05749
1949.49	3.66918
1950.97	3.53824
1952.45	3.40634
1953.94	4.15561
1955.42	4.75763
1956.9	5.04802
1958.38	5.5173
1959.86	6.00438
1961.34	6.1248
1962.82	6.20042
1964.3	6.0614
1965.78	5.97551
1967.26	6.39929
1968.74	5.92512
1970.22	6.35322
1971.69	5.82663
1973.17	6.21392
1974.65	6.09005
1976.13	6.64131
1977.61	7.04279
1979.08	6.65335
1980.56	6.5767
1982.03	6.62666
1983.51	6.81937
1984.99	6.30459
1986.46	6.725
1987.94	7.13928
1989.41	6.82246
1990.89	7.56058
1992.36	7.94747
1993.84	8.03147
1995.31	7.86849
1996.78	8.73237
1998.26	9.22351
1999.73	9.27626
2001.2	9.56269
2002.68	11.0067
2004.15	11.5549
2005.62	12.5641
2007.09	12.544
2008.56	11.7114
2010.04	10.4334
2011.51	10.1817
2012.98	9.84708
2014.45	9.43573
2015.92	8.20769
2017.39	8.93967
2018.86	8.54135
2020.33	8.46608
2021.8	9.18488
2023.27	8.98109
2024.74	9.18554
2026.2	10.2264
2027.67	10.5553
2029.14	9.94428
2030.61	9.9943
2032.07	10.8377
2033.54	11.3259
2035.01	12.191
2036.47	13.1955
2037.94	13.0402
2039.41	13.2982
2040.87	13.7168
2042.34	14.1557
2043.8	14.5098
2045.27	14.2259
2046.73	14.6434
2048.2	15.6383
2049.66	15.7168
2051.12	15.7837
2052.59	16.3037
2054.05	16.9498
2055.51	17.4133
2056.98	17.2282
2058.44	17.8356
2059.9	18.9627
2061.36	19.2896
2062.82	20.2611
2064.29	21.3384
2065.75	21.702
2067.21	23.1144
2068.67	24.6343
2070.13	25.3819
2071.59	26.0097
2073.05	26.6207
2074.51	27.0902
2075.97	27.8692
2077.43	27.8013
2078.88	28.2906
2080.34	28.2056
2081.8	28.7706
2083.26	29.7999
2084.72	31.0313
2086.17	31.273
2087.63	31.8248
2089.09	33.2461
2090.54	34.4218
2092	35.0667
2093.46	36.7538
2094.91	37.469
2096.37	38.703
2097.82	39.804
2099.28	41.3535
2100.73	41.8943
2102.19	42.3978
2103.64	43.8621
2105.09	45.711
2106.55	47.4949
2108	49.1717
2109.46	50.2274
2110.91	50.8581
2112.36	53.3543
2113.81	54.8939
2115.27	55.9052
2116.72	57.4682
2118.17	58.5096
2119.62	60.7913
2121.07	62.9134
2122.52	64.1974
2123.97	65.5956
2125.42	67.5973
2126.87	68.9536
2128.32	70.1487
2129.77	71.1916
2131.22	73.4558
2132.67	75.1801
2134.12	76.8432
2135.57	78.761
2137.01	80.3974
2138.46	81.9811
2139.91	83.9564
2141.36	84.7692
2142.8	85.5018
2144.25	87.2861
2145.7	89.0652
2147.14	90.0582
2148.59	91.7455
2150.03	93.2375
2151.48	94.8476
2152.92	95.9482
2154.37	96.5283
2155.81	97.4442
2157.26	97.8449
2158.7	98.3072
2160.15	99.0306
2161.59	100.14
2163.03	100.506
2164.48	101.88
2165.92	101.627
2167.36	101.137
2168.8	101.462
2170.25	101.308
2171.69	101.282
2173.13	100.778
2174.57	100.602
2176.01	101.238
2177.45	100.863
2178.89	100.682
2180.33	99.645
2181.77	99.2064
2183.21	99.0986
2184.65	98.3518
2186.09	97.1028
2187.53	95.5675
2188.97	94.6361
2190.41	92.7175
2191.84	92.3323
2193.28	90.8389
2194.72	88.8035
2196.16	86.6353
2197.59	85.0719
2199.03	83.6085
2200.47	81.7067
2201.9	79.9515
2203.34	78.5956
2204.78	76.248
2206.21	74.7957
2207.65	73.0169
2209.08	72.373
2210.51	71.272
2211.95	69.6706
2213.38	67.2313
2214.82	65.7696
2216.25	64.062
2217.68	62.4394
2219.12	60.6169
2220.55	59.2688
2221.98	57.3604
2223.42	55.6861
2224.85	54.1031
2226.28	52.6298
2227.71	51.2162
2229.14	49.8845
2230.57	47.4799
2232	46.3702
2233.43	44.8998
2234.86	42.7149
2236.29	41.2394
2237.72	38.9662
2239.15	37.4309
2240.58	36.5954
2242.01	35.0939
2243.44	33.2388
2244.87	32.3443
2246.3	31.1964
2247.73	30.0983
2249.15	28.2679
2250.58	27.2677
2252.01	26.4228
2253.43	26.8447
2254.86	26.6294
2256.29	25.6498
2257.71	24.5893
2259.14	23.6429
2260.56	22.9464
2261.99	22.4555
2263.41	22.0278
2264.84	21.0287
2266.26	21.0307
2267.69	20.8577
2269.11	20.6425
2270.54	20.3303
2271.96	20.0038
2273.38	20.1165
2274.81	20.2989
2276.23	20.0886
2277.65	20.2637
2279.07	20.7733
2280.49	20.8127
2281.92	20.2341
2283.34	19.2742
2284.76	19.4072
2286.18	19.5969
2287.6	19.5898
2289.02	19.6315
2290.44	19.3559
2291.86	18.1663
2293.28	16.9082
2294.7	16.6418
2296.12	16.0505
2297.54	15.6256
2298.96	15.3214
2300.38	14.9247
2301.79	13.6986
2303.21	13.7827
2304.63	12.7205
2306.05	12.6107
2307.46	13.1676
2308.88	13.0225
2310.3	13.4936
2311.71	13.7293
2313.13	12.8399
2314.55	12.9515
2315.96	12.9676
2317.38	13.3016
2318.79	12.7968
2320.21	13.1231
2321.62	13.675
2323.03	14.0703
2324.45	13.9173
2325.86	12.5657
2327.27	11.4503
2328.69	10.6606
2330.1	10.6655
2331.51	9.87601
2332.93	10.0178
2334.34	10.0782
2335.75	9.80128
2337.16	9.63919
2338.57	8.48271
2339.99	8.03064
2341.4	7.58263
2342.81	7.84755
2344.22	7.0109
2345.63	6.66993
2347.04	6.2545
2348.45	6.53027
2349.86	6.8738
2351.26	6.15508
2352.67	5.55229
2354.08	4.84652
2355.49	4.37537
2356.9	3.24019
2358.31	2.68891
2359.71	2.26561
2361.12	1.96285
2362.53	1.43463
2363.94	1.9109
2365.34	2.5749
2366.75	3.01547
2368.15	2.91919
2369.56	2.67249
2370.97	2.29482
2372.37	2.6528
2373.78	3.60789
2375.18	3.8361
2376.59	4.40826
2377.99	5.31745
2379.39	5.90822
2380.8	6.16313
2382.2	6.20941
2383.61	6.6675
2385.01	7.07859
2386.41	7.37403
2387.81	8.11283
2389.22	7.41468
2390.62	7.92804
2392.02	7.53864
2393.42	7.21165
2394.82	7.04238
2396.22	6.82291
2397.63	7.55178
2399.02	8.0597
2400.43	7.80112
2401.82	7.53121
2403.23	7.63837
2404.62	7.34909
2406.02	6.72518
2407.42	6.39789
2408.82	6.74416
2410.22	6.05045
2411.62	5.62153
2413.02	5.83183
2414.41	5.5251
2415.81	5.9051
2417.21	5.65836
2418.61	5.51543
2420	4.58894
2421.4	3.93015
2422.79	3.30934
2424.19	3.33933
2425.59	3.04231
2426.98	3.19655
2428.38	3.73963
2429.77	3.79689
2431.17	3.67943
2432.56	3.43297
2433.96	3.6286
2435.35	3.48248
2436.74	3.5205
2438.14	3.06653
2439.53	3.03909
2440.92	3.39848
2442.32	3.85632
2443.71	4.39173
2445.1	4.38815
2446.49	4.67313
2447.88	5.23358
2449.28	5.24364
2450.67	5.46983
2452.06	5.78571
2453.45	6.0055
2454.84	6.22657
2456.23	6.62328
2457.62	6.54998
2459.01	6.91578
2460.4	7.28793
2461.79	7.39258
2463.18	7.35405
2464.57	7.81799
2465.96	7.46229
2467.34	7.13457
2468.73	7.15934
2470.12	6.56888
2471.51	6.41844
2472.89	6.39346
2474.28	6.83171
2475.67	6.96502
2477.05	6.44473
2478.44	6.4955
2479.83	6.37865
2481.21	6.86532
2482.6	6.96018
2483.98	6.86612
2485.37	6.87075
2486.75	6.59528
2488.14	6.85755
2489.52	6.54176
2490.9	6.30637
2492.29	6.12424
2493.67	6.12186
2495.06	5.58984
2496.44	5.76497
2497.82	5.22914
2499.2	4.41909
2500.59	4.56708
2501.97	4.55937
2503.35	4.33633
2504.73	4.41364
2506.11	3.49538
2507.49	2.81624
2508.88	3.12003
2510.26	3.77996
2511.63	3.60845
2513.01	3.50499
2514.39	2.50893
2515.77	2.33942
2517.15	2.73459
2518.53	3.34288
2519.91	3.33743
2521.29	2.86754
2522.67	2.50241
2524.05	2.5573
2525.42	3.12098
2526.8	3.41099
2528.18	3.67356
2529.56	2.94345
2530.93	2.69274
2532.31	2.42242
2533.69	3.02106
2535.06	2.8093
2536.44	3.15446
2537.81	4.22256
2539.19	4.35782
2540.56	4.98153
2541.94	5.89801
2543.31	6.31741
2544.69	6.39257
2546.06	6.54528
2547.44	7.0133
2548.81	7.35592
2550.18	7.36506
2551.56	7.94945
2552.93	8.10511
2554.3	7.87749
2555.68	8.03693
2557.05	7.99891
2558.42	7.17645
2559.79	7.07287
2561.16	6.68816
2562.53	6.57014
2563.9	6.04899
2565.28	6.08129
2566.64	5.65407
2568.02	5.22341
2569.38	6.17026
2570.76	6.14435
2572.12	5.52212
2573.49	5.98336
2574.86	5.28557
2576.23	5.84326
2577.6	6.19665
2578.97	5.19131
2580.34	4.51207
2581.7	4.20708
2583.07	4.18966
2584.44	4.36073
2585.81	4.33052
2587.17	3.95227
2588.54	3.50994
2589.91	3.5998
2591.27	3.98541
2592.64	4.05835
2594	3.81513
2595.37	2.9923
2596.73	2.88416
2598.1	2.97529
2599.46	3.19566
2600.83	3.45708
2602.19	3.28347
2603.55	3.42517
2604.92	3.54862
2606.28	3.18062
2607.64	2.45502
2609.01	2.68439
2610.37	2.81105
2611.73	2.28035
2613.09	2.11584
2614.46	2.41392
2615.82	2.27625
2617.18	2.16931
2618.54	2.52418
2619.9	2.19154
2621.26	1.46472
2622.62	0.958862
2623.98	1.212
2625.34	0.435339
2626.7	0.194308
2628.06	-0.325976
2629.42	-0.236619
2630.78	0.136549
2632.14	0.415809
2633.5	0.897472
2634.86	1.31064
2636.22	1.77567
2637.57	2.89662
2638.93	2.32207
2640.29	2.11045
2641.64	2.78274
2643	2.56512
2644.36	3.01342
2645.72	3.30487
2647.07	3.38354
2648.43	3.82817
2649.78	3.98877
2651.14	4.54247
2652.49	4.47974
2653.85	4.76603
2655.2	4.38773
2656.56	4.60127
2657.91	4.47
2659.27	4.26311
2660.62	3.97792
2661.97	4.34648
2663.33	4.81089
2664.68	5.32335
2666.03	5.19142
2667.38	5.43714
2668.74	5.62681
2670.09	5.68464
2671.44	6.06865
2672.79	6.02178
2674.14	5.46571
2675.49	6.01668
2676.84	6.33256
2678.2	5.99659
2679.55	6.04828
2680.89	5.40578
2682.24	5.52374
2683.59	5.25236
2684.94	4.42281
2686.29	4.57095
2687.64	3.86572
2688.99	3.17292
2690.34	3.46193
2691.69	3.27686
2693.04	3.08876
2694.38	3.37961
2695.73	3.11005
2697.08	3.76327
2698.43	3.01474
2699.77	2.67091
2701.12	2.40173
2702.46	2.04795
2703.81	1.85342
2705.16	2.05756
2706.5	1.73217
2707.85	2.04584
2709.19	2.44516
2710.54	2.35304
2711.88	2.42925
2713.23	2.37734
2714.57	2.53105
2715.92	2.68485
2717.26	3.56028
2718.6	3.46797
2719.95	3.44127
2721.29	3.33571
2722.63	3.09081
2723.97	3.50857
2725.32	3.51791
2726.66	4.37982
2728	5.1326
2729.34	5.32182
2730.68	5.49213
2732.02	5.93065
2733.36	6.58985
2734.7	7.09547
2736.04	7.14094
2737.39	7.43303
2738.72	7.0928
2740.06	7.75168
2741.4	7.28483
2742.74	7.42941
2744.08	6.62639
2745.42	6.69371
2746.76	6.963
2748.1	6.70081
2749.44	6.54896
2750.77	5.9236
2752.11	5.1448
2753.45	6.1794
2754.78	5.90735
2756.12	5.96536
2757.46	6.2392
2758.79	5.54298
2760.13	5.5499
2761.47	5.32906
2762.8	5.15814
2764.14	4.937
2765.47	4.0631
2766.81	4.57793
2768.14	4.64977
2769.48	4.1775
2770.81	4.57365
2772.14	4.47318
2773.48	4.1523
2774.81	3.87456
2776.14	3.64073
2777.48	3.40429
2778.81	3.61739
2780.14	4.00068
2781.47	4.72386
2782.81	4.43098
2784.14	4.32074
2785.47	3.75902
2786.8	3.38601
2788.13	2.97771
2789.46	2.57645
2790.79	2.98614
2792.12	2.98439
2793.46	3.47063
2794.79	2.88337
2796.11	2.49413
2797.44	2.67207
2798.77	3.04635
2800.1	2.6146
2801.43	2.49548
2802.76	2.49651
2804.09	2.64378
2805.42	2.71152
2806.74	3.33487
2808.07	2.88371
2809.4	3.30994
2810.73	3.96666
2812.05	4.1781
2813.38	4.30279
2814.71	4.03087
2816.03	4.61133
2817.36	6.7711
2818.68	8.31944
2820.01	10.2877
2821.33	11.1987
2822.66	12.6602
2823.98	14.9345
2825.31	17.1285
2826.63	19.0095
2827.96	21.2387
2829.28	23.3648
2830.61	25.3106
2831.93	27.7908
2833.25	29.895
2834.57	31.7668
2835.9	34.5804
2837.22	36.9957
2838.54	39.2
2839.86	42.2086
2841.18	44.5736
2842.51	47.3963
2843.83	50.297
2845.15	53.7541
2846.47	57.0612
2847.79	60.9542
2849.11	63.9536
2850.43	67.652
2851.75	71.0622
2853.07	73.7444
2854.39	77.0853
2855.71	80.6733
2857.03	84.2916
2858.35	87.3389
2859.67	90.8067
2860.98	94.1733
2862.3	96.9604
2863.62	100.095
2864.94	102.895
2866.25	105.068
2867.57	107.413
2868.89	109.597
2870.21	111.978
2871.52	113.285
2872.84	115.545
2874.15	117.048
2875.47	118.883
2876.78	120.637
2878.1	122.363
2879.42	124.897
2880.73	126.955
2882.04	129.053
2883.36	130.728
2884.67	131.642
2885.99	133.917
2887.3	136.219
2888.61	138.734
2889.93	141.434
2891.24	143.138
2892.55	144.692
2893.87	147.112
2895.18	149.228
2896.49	152.098
2897.8	155.08
2899.11	158.437
2900.42	161.747
2901.74	165.497
2903.05	168.991
2904.36	173.076
2905.67	177.341
2906.98	181.046
2908.29	186.102
2909.6	190.934
2910.91	196.442
2912.22	201.304
2913.53	206.199
2914.83	210.176
2916.14	214.875
2917.45	219.714
2918.76	223.835
2920.07	227.759
2921.37	232.041
2922.68	234.994
2923.99	238.875
2925.3	241.782
2926.6	243.855
2927.91	244.9
2929.22	246.03
2930.52	246.447
2931.83	245.772
2933.13	245.933
2934.44	245.4
2935.74	244.501
2937.05	243.151
2938.35	241.435
2939.66	238.769
2940.96	236.121
2942.27	233.682
2943.57	230.23
2944.87	226.64
2946.18	222.481
2947.48	218.046
2948.78	214.97
2950.09	210.992
2951.39	207.345
2952.69	203.167
2953.99	198.584
2955.29	193.86
2956.6	189.409
2957.9	184.377
2959.2	179.997
2960.5	176.133
2961.8	172.875
2963.1	169.198
2964.4	165.12
2965.7	160.814
2967	157.5
2968.3	153.798
2969.6	150.282
2970.9	146.578
2972.2	142.645
2973.49	139.177
2974.79	135.503
2976.09	131.973
2977.39	127.263
2978.69	123.054
2979.98	119.373
2981.28	115.889
2982.58	111.875
2983.88	107.449
2985.17	103.229
2986.47	99.5968
2987.76	95.6238
2989.06	92.2628
2990.36	87.1306
2991.65	83.047
2992.95	78.4816
2994.24	74.3577
2995.54	70.4493
2996.83	66.4306
2998.12	62.866
2999.42	58.5085
3000.71	55.015
3002	51.1958
3003.3	47.3873
3004.59	44.1425
3005.88	40.9183
3007.18	38.6029
3008.47	35.6179
3009.76	33.2026
3011.05	30.5522
3012.35	27.7594
3013.64	26.1372
3014.93	23.0382
3016.22	21.2118
3017.51	19.1455
3018.8	17.5501
3020.09	16.0411
3021.38	14.5981
3022.67	13.5614
3023.96	12.9854
3025.25	12.3011
3026.54	11.2612
3027.83	10.5963
3029.12	9.50196
3030.41	9.62218
3031.69	9.16586
3032.98	8.89341
3034.27	8.22534
3035.56	7.41306
3036.85	7.33633
3038.13	7.03306
3039.42	6.62421
3040.71	6.25396
3041.99	5.73697
3043.28	6.1048
3044.57	6.84251
3045.85	6.56253
3047.14	6.93558
3048.42	7.39778
3049.71	7.61988
3050.99	7.43179
3052.28	7.11156
3053.56	6.945
3054.85	6.17845
3056.13	6.31165
3057.42	5.69523
3058.7	5.18163
3059.98	4.8422
3061.27	5.05152
3062.55	5.11603
3063.83	5.27233
3065.11	5.37632
3066.4	5.32702
3067.68	5.28125
3068.96	4.91564
3070.24	5.0221
3071.52	5.59592
3072.8	4.36074
3074.09	3.845
3075.37	3.48792
3076.65	2.64954
3077.93	2.85416
3079.21	2.51839
3080.49	2.85335
3081.77	2.39481
3083.05	2.85757
3084.32	3.05893
3085.61	3.04287
3086.88	2.9896
3088.16	2.39515
3089.44	1.87781
3090.72	2.21286
3092	2.53362
3093.27	2.1891
3094.55	2.2851
3095.83	1.69736
3097.11	1.68959
3098.38	1.72208
3099.66	2.39122
3100.94	2.80386
3102.21	2.30435
3103.49	2.08474
3104.76	2.65152
3106.04	2.71071
3107.31	3.2769
3108.59	3.77185
3109.86	3.98367
3111.14	4.57777
3112.41	4.86286
3113.69	4.01233
3114.96	3.19496
3116.23	2.87247
3117.51	2.96913
3118.78	2.79732
3120.05	3.08086
3121.33	3.45563
3122.6	3.78754
3123.87	4.77892
3125.14	5.7203
3126.42	6.22014
3127.69	6.48518
3128.96	7.02251
3130.23	7.46343
3131.5	7.92815
3132.77	8.24307
3134.04	8.8812
3135.31	9.46126
3136.58	9.09337
3137.85	10.552
3139.12	11.5377
3140.39	12.3622
3141.66	13.4073
3142.93	14.0617
3144.2	14.8221
3145.47	15.6407
3146.74	16.0519
3148	17.0674
3149.27	19.059
