#Acq. time (s)=	45
#Accumulations=	2
#Range (cm-¹)=	200...3150
#Windows=	2
#Auto scanning=	Off
#Autofocus=	Off
#Macrospot=	Off
#AutoExposure=	Off
#Spike filter=	Multiple accum.
#Delay time (s)=	0
#Binning=	1
#Readout mode=	Signal
#DeNoise=	Off
#ICS correction=	On
#Dark correction=	Off
#Inst. Process=	Off
#Detector Gain=	Best Dynamic Range
#Detector ADC=	20 kHz       
#Detector temperature (°C)=	-69.85
#Instrument=	LabRAM HR Evol
#Detector=	Synapse
#Objective=	x100
#Grating=	600 gr/mm
#ND Filter=	100%
#Laser (nm)=	532 
#Hole=	100.021
#Range=	Auto
#Laser Pol.=	No
#Raman. Pol.=	No
#Laser Pol. (°)=	-0.0007625
#Raman Pol. (°)=	89.9995
#Collection=	Microscope
#StageXY=	Marzhauser
#StageZ=	Marzhauser
#X (µm)=	19377
#Y (µm)=	3018.9
#Z (µm)=	1048.35
#Full time(mm:ss)=	3:19
#Project=	
#Sample=	
#Site=	
#Title=	Mb_50_18_02_2x_45s_532 nm_x100_100%_600 gr_mm
#Remark=	
#Date=	12.07.2022 10:22
#Acquired=	12.07.2022 10:22:06
#Base:Fit=	10.08.2022 10:49:18
#Base:Sub=	10.08.2022 10:49:30
#Filter:Polynom=	16.08.2022 10:14:59
#AxisType[0]=Intens
#AxisUnit[0]=Cnt
#AxisType[1]=Spectr
#AxisUnit[1]=1/cm
200.388	16.873
202.204	14.6607
204.019	14.0428
205.832	13.1211
207.646	12.1306
209.459	11.0744
211.274	10.2553
213.087	9.07993
214.899	8.20351
216.711	6.39577
218.524	5.22435
220.335	5.72177
222.146	3.99711
223.956	3.29947
225.766	3.16835
227.576	3.55725
229.388	3.80335
231.197	4.63726
233.005	4.45518
234.813	6.03721
236.621	6.15743
238.429	7.47685
240.236	6.9602
242.045	7.01953
243.852	6.57461
245.658	7.55083
247.464	7.69032
249.269	8.34078
251.074	7.81618
252.879	7.37744
254.683	7.20693
256.487	7.85504
258.291	7.55242
260.094	7.21405
261.897	7.42987
263.702	6.98271
265.504	7.29089
267.306	6.54131
269.108	7.03927
270.909	7.42925
272.71	6.92409
274.511	8.38653
276.311	8.59551
278.111	9.49446
279.91	10.6051
281.709	11.9606
283.508	12.4069
285.306	13.5044
287.105	13.8835
288.9	14.8188
290.698	15.1462
292.495	16.9273
294.291	17.422
296.088	18.9626
297.884	19.4356
299.679	20.6679
301.475	21.3781
303.27	22.6091
305.064	23.7171
306.858	23.5095
308.652	24.9678
310.444	26.2444
312.237	25.8308
314.03	27.1552
315.822	28.3688
317.615	29.1449
319.406	29.8349
321.198	30
322.987	30.2032
324.778	30.5428
326.568	29.9695
328.358	29.867
330.148	28.7228
331.935	28.1645
333.724	28.0194
335.513	28.7379
337.301	27.539
339.089	26.8591
340.875	25.0708
342.662	25.6433
344.449	24.8995
346.236	24.1631
348.02	24.2442
349.806	25.7731
351.592	26.4015
353.375	28.152
355.16	28.9004
356.944	29.469
358.728	32.1742
360.51	33.4542
362.294	35.3424
364.077	36.9035
365.858	37.8351
367.64	41.3141
369.422	44.1387
371.202	45.8315
372.983	48.3631
374.764	50.1854
376.543	51.0765
378.324	52.2827
380.102	53.2164
381.881	54.1047
383.661	55.3454
385.438	56.4284
387.216	56.9676
388.993	57.6389
390.771	58.0345
392.548	58.3138
394.324	56.8939
396.101	55.3596
397.875	55.6681
399.651	54.4319
401.425	52.5741
403.201	51.3229
404.974	50.0531
406.749	49.1169
408.524	46.7306
410.296	44.4294
412.07	43.5845
413.841	41.4412
415.614	39.6552
417.385	37.1661
419.156	34.6612
420.928	32.4064
422.698	31.1955
424.469	29.7203
426.238	26.5172
428.009	24.2034
429.777	22.5027
431.548	21.7635
433.315	19.3861
435.083	18.4575
436.852	17.947
438.618	16.8892
440.387	15.0716
442.153	15.4449
443.919	14.5441
445.686	14.6157
447.451	15.0063
449.218	14.4609
450.982	15.2958
452.746	15.1663
454.512	15.7599
456.275	16.0575
458.038	15.5093
459.803	14.6038
461.565	15.2664
463.327	15.5214
465.091	16.0512
466.852	16.812
468.613	17.5595
470.374	18.1114
472.136	19.4111
473.896	19.4225
475.655	20.1658
477.415	21.2045
479.176	23.0821
480.934	25.4913
482.692	26.1459
484.45	27.8732
486.21	29.9611
487.967	30.5687
489.724	32.2046
491.481	33.7125
493.237	35.0612
494.995	36.8769
496.75	37.6121
498.506	39.6158
500.26	40.0877
502.015	40.0253
503.771	40.4863
505.525	41.8897
507.279	41.6403
509.032	42.7691
510.785	43.4359
512.537	43.2028
514.289	42.3936
516.041	42.8086
517.793	42.5546
519.546	42.3434
521.297	41.6009
523.047	40.0853
524.797	38.5906
526.547	36.8987
528.297	35.3134
530.046	35.3673
531.795	33.7228
533.543	32.4316
535.291	31.0111
537.039	29.3064
538.787	27.4476
540.534	25.0556
542.281	22.8622
544.027	20.7045
545.773	18.8928
547.519	16.9321
549.264	15.9744
551.01	14.6175
552.754	12.8441
554.499	10.4602
556.243	8.12113
557.987	6.70911
559.73	6.90349
561.474	6.80775
563.216	7.08731
564.959	8.22547
566.701	8.08223
568.441	7.88649
570.182	7.43966
571.923	7.56903
573.664	7.3898
575.405	6.91577
577.145	8.11838
578.885	7.1949
580.624	7.62757
582.361	8.46349
584.1	8.59204
585.839	8.84263
587.577	8.67572
589.315	9.60215
591.052	10.4001
592.787	11.0989
594.524	10.1507
596.26	10.817
597.997	10.1856
599.732	9.65991
601.466	9.8865
603.201	9.95713
604.936	9.67086
606.67	9.26393
608.403	8.50788
610.136	7.59185
611.87	7.73697
613.603	7.39644
615.334	7.05791
617.067	6.40454
618.799	5.30986
620.529	5.05485
622.26	4.54512
623.991	3.783
625.72	3.51658
627.451	3.40182
629.181	2.12932
630.909	2.18159
632.638	2.12634
634.368	1.85372
636.095	2.16031
637.823	2.8524
639.551	2.03329
641.277	1.92807
643.005	2.6548
644.73	4.0066
646.457	5.11177
648.184	5.45773
649.908	6.19091
651.634	6.65689
653.357	6.73162
655.083	7.31992
656.806	7.27804
658.53	7.19672
660.253	7.72461
661.977	7.73265
663.7	8.26832
665.422	7.09046
667.145	8.18741
668.865	8.88573
670.588	9.76823
672.308	9.81492
674.027	10.2544
675.749	11.4618
677.468	11.6662
679.188	11.7372
680.907	11.8973
682.627	12.2843
684.345	12.9819
686.064	13.2556
687.781	13.5948
689.498	14.1024
691.216	13.6282
692.932	13.7161
694.65	13.8085
696.366	13.0734
698.081	12.401
699.797	12.1431
701.512	12.5044
703.228	13.4339
704.942	15.0765
706.655	15.8643
708.371	15.7928
710.083	17.0351
711.796	16.9146
713.51	16.9677
715.222	17.6534
716.934	19.4416
718.645	20.4156
720.358	20.6949
722.068	21.4519
723.779	21.5324
725.49	21.6591
727.2	22.4241
728.909	23.9012
730.618	25.29
732.329	25.8925
734.037	27.6763
735.745	29.6227
737.453	32.8558
739.16	35.4734
740.869	38.2879
742.576	40.4849
744.282	45.2123
745.988	48.7563
747.694	51.8687
749.401	56.2442
751.107	60.0877
752.811	64.2204
754.516	68.2265
756.22	71.6791
757.924	75.1685
759.627	79.3127
761.332	81.9053
763.035	83.1281
764.738	85.8571
766.44	88.4869
768.142	89.903
769.843	91.0036
771.544	92.6151
773.245	93.2086
774.946	94.9275
776.646	95.0575
778.346	96.0679
780.046	95.8644
781.745	96.4314
783.444	96.7201
785.143	97.5061
786.841	97.8683
788.539	96.8445
790.237	95.2741
791.934	92.4475
793.631	90.8997
795.328	89.5499
797.024	86.9623
798.72	85.344
800.416	83.5432
802.112	82.1275
803.807	79.0034
805.502	75.666
807.196	73.0861
808.89	71.3773
810.584	69.5417
812.278	67.5396
813.971	66.1563
815.664	64.2077
817.354	62.8042
819.047	63.1246
820.739	63.7317
822.43	64.5588
824.122	62.7712
825.813	63.0951
827.503	62.089
829.192	62.7022
830.882	61.2137
832.571	60.0059
834.261	59.3209
835.95	57.9099
837.637	56.8867
839.325	55.8488
841.013	54.7702
842.701	53.6461
844.389	52.0907
846.074	49.8043
847.761	48.0966
849.447	47.2794
851.131	46.0176
852.817	44.366
854.503	43.9666
856.188	42.8127
857.871	41.3539
859.556	41.2298
861.24	38.9383
862.922	38.2173
864.606	36.5831
866.289	35.7889
867.97	33.9987
869.653	33.0551
871.336	30.7007
873.016	29.0735
874.698	27.293
876.379	26.7567
878.058	26.4832
879.739	26.6484
881.418	26.7757
883.098	26.6601
884.778	25.9867
886.456	25.9937
888.135	24.7859
889.812	24.8861
891.49	24.9577
893.167	25.1904
894.845	24.8234
896.523	24.2036
898.198	24.5744
899.875	25.5518
901.55	26.4355
903.226	27.7274
904.901	28.7658
906.576	28.6654
908.25	28.2195
909.925	28.7248
911.598	28.1198
913.271	27.7906
914.945	27.6354
916.617	27.5562
918.291	27.746
919.962	28.1905
921.635	28.9535
923.306	29.5699
924.978	29.518
926.648	29.5041
928.318	29.8334
929.989	28.6167
931.659	28.0672
933.328	28.5928
934.998	29.1061
936.666	29.4604
938.336	28.9229
940.004	26.9863
941.671	26.601
943.34	25.5261
945.007	24.1908
946.673	23.9313
948.339	23.2205
950.007	22.2595
951.672	21.2257
953.337	20.5702
955.004	19.5966
956.669	19.8336
958.333	18.5095
959.997	19.1616
961.662	18.2312
963.326	18.9621
964.989	18.2769
966.651	17.4388
968.315	16.8873
969.977	16.6242
971.639	16.6948
973.301	17.342
974.962	16.8568
976.624	16.5835
978.285	16.2702
979.945	15.4507
981.605	16.3579
983.264	16.1086
984.924	16.2177
986.583	16.4807
988.243	16.8307
989.901	17.4209
991.56	18.0243
993.217	18.0665
994.875	19.0257
996.532	20.8005
998.188	21.8168
999.845	23.3832
1001.5	25.972
1003.16	28.9542
1004.81	30.9352
1006.47	32.4347
1008.12	34.4525
1009.78	36.4889
1011.43	38.4186
1013.09	40.0626
1014.74	42.4272
1016.39	46.1807
1018.05	47.4731
1019.7	48.1268
1021.35	48.4451
1023	48.7437
1024.65	49.5961
1026.31	50.1706
1027.96	49.9921
1029.61	49.5419
1031.26	49.6271
1032.91	48.6626
1034.56	47.9418
1036.21	47.492
1037.86	46.5478
1039.51	45.4626
1041.16	43.8635
1042.8	42.9454
1044.45	41.5934
1046.1	41.1626
1047.75	38.4937
1049.39	37.1533
1051.04	36.7871
1052.69	36.1116
1054.33	35.6575
1055.98	35.1406
1057.62	34.5291
1059.27	33.7537
1060.91	33.0802
1062.56	33.0906
1064.2	32.9309
1065.85	32.6755
1067.49	32.57
1069.13	31.888
1070.77	32.5271
1072.42	31.9847
1074.06	32.8311
1075.7	32.8096
1077.34	33.4256
1078.98	33.2137
1080.62	33.1624
1082.27	34.0575
1083.91	34.8685
1085.55	35.1902
1087.18	34.7684
1088.82	34.7083
1090.46	35.746
1092.1	35.6921
1093.74	36.1428
1095.38	36.0306
1097.02	35.928
1098.65	35.6773
1100.29	33.7126
1101.93	32.9646
1103.56	31.7022
1105.2	30.3799
1106.84	29.7385
1108.47	28.5558
1110.11	27.0447
1111.74	25.0695
1113.38	23.5146
1115.01	21.626
1116.64	19.431
1118.28	17.826
1119.91	15.7057
1121.54	14.2739
1123.18	13.5935
1124.81	12.6782
1126.44	12.9789
1128.07	13.3777
1129.7	12.7386
1131.33	13.0014
1132.97	13.5277
1134.6	13.3277
1136.23	13.0677
1137.86	14.006
1139.49	14.1974
1141.11	13.396
1142.74	13.4558
1144.37	13.1242
1146	12.2818
1147.63	11.3298
1149.26	10.0497
1150.88	9.03125
1152.51	8.72898
1154.14	7.93251
1155.76	7.76314
1157.39	5.95809
1159.01	5.78874
1160.64	4.79702
1162.27	4.69519
1163.89	4.46309
1165.51	5.17241
1167.14	4.55212
1168.76	4.15375
1170.39	4.35704
1172.01	4.52123
1173.63	3.56128
1175.25	3.7687
1176.88	3.65137
1178.5	3.39229
1180.12	3.34215
1181.74	3.65313
1183.36	3.44945
1184.98	3.28631
1186.6	3.48656
1188.22	3.09082
1189.84	2.55764
1191.46	2.23485
1193.08	1.58272
1194.7	1.42772
1196.32	2.79849
1197.94	3.46749
1199.55	5.34781
1201.17	6.93771
1202.79	8.84857
1204.41	9.81773
1206.02	10.8966
1207.64	12.0637
1209.25	13.2608
1210.87	13.0994
1212.48	14.3838
1214.1	16.2035
1215.71	17.117
1217.33	17.9702
1218.94	19.6473
1220.56	19.7928
1222.17	20.0999
1223.79	20.8716
1225.4	21.6513
1227.01	22.6839
1228.62	23.7194
1230.23	24.9893
1231.85	26.7403
1233.46	28.3291
1235.07	28.6195
1236.68	29.0355
1238.29	30.4237
1239.9	31.1372
1241.51	31.4771
1243.12	32.4716
1244.73	32.9807
1246.34	33.4355
1247.94	33.1603
1249.55	33.1065
1251.16	32.6132
1252.77	32.4539
1254.37	33.5112
1255.98	33.8996
1257.59	33.5669
1259.2	33.4302
1260.8	34.1285
1262.41	34.1197
1264.01	34.3435
1265.62	35.1141
1267.22	35.4988
1268.83	36.0614
1270.43	36.9845
1272.03	38.0553
1273.64	38.9455
1275.24	39.1508
1276.85	40.4874
1278.45	40.0987
1280.05	41.1507
1281.65	41.6248
1283.25	41.6684
1284.85	40.9707
1286.46	40.9086
1288.06	41.0799
1289.66	42.2671
1291.26	41.4658
1292.86	41.6844
1294.46	41.3675
1296.06	41.9501
1297.66	42.3092
1299.25	42.5222
1300.85	43.4601
1302.45	44.4616
1304.05	45.4387
1305.65	46.0734
1307.24	46.6642
1308.84	46.4235
1310.43	46.4894
1312.03	46.4845
1313.63	46.1118
1315.22	45.4396
1316.82	45.9157
1318.41	46.0989
1320.01	45.9373
1321.6	45.8659
1323.2	45.4729
1324.79	45.3792
1326.38	45.5751
1327.98	44.8065
1329.57	44.2768
1331.16	43.9737
1332.76	43.6945
1334.35	43.1967
1335.94	42.4609
1337.53	42.8953
1339.12	43.0388
1340.71	43.4424
1342.3	42.4573
1343.89	42.0995
1345.48	41.5614
1347.07	40.3081
1348.66	39.5767
1350.25	38.9019
1351.84	38.3455
1353.43	37.089
1355.01	36.2524
1356.6	36.1575
1358.19	35.8147
1359.77	35.8836
1361.36	34.6361
1362.95	34.044
1364.53	32.8269
1366.12	31.9143
1367.71	31.2698
1369.29	31.0239
1370.88	28.8008
1372.46	29.2604
1374.04	27.9241
1375.63	27.8199
1377.21	26.582
1378.8	26.1893
1380.38	26.8452
1381.96	26.0812
1383.54	25.4583
1385.13	24.7638
1386.71	24.0981
1388.29	23.1844
1389.87	23.0909
1391.45	22.3495
1393.03	22.5454
1394.61	22.0827
1396.19	21.9631
1397.77	21.5462
1399.35	21.4815
1400.93	21.1822
1402.51	21.6252
1404.09	22.5109
1405.67	22.9992
1407.24	23.8403
1408.82	24.6756
1410.4	25.7763
1411.98	27.545
1413.55	28.9591
1415.13	30.26
1416.71	31.72
1418.28	32.7731
1419.86	34.3178
1421.43	35.5921
1423.01	37.6341
1424.58	39.7342
1426.16	41.5732
1427.73	44.7842
1429.31	46.7401
1430.88	49.072
1432.45	51.1598
1434.02	53.0958
1435.6	54.9432
1437.17	56.1594
1438.74	56.8204
1440.31	57.2624
1441.88	58.7192
1443.45	58.1321
1445.03	58.6468
1446.6	59.5588
1448.17	60.504
1449.74	60.1095
1451.3	60.4497
1452.87	59.1632
1454.44	60.1832
1456.01	60.348
1457.58	61.0602
1459.15	60.711
1460.72	61.4124
1462.28	60.3642
1463.85	59.9858
1465.42	59.7008
1466.98	59.8046
1468.55	58.9584
1470.12	58.0924
1471.68	57.8312
1473.25	56.6332
1474.81	55.5363
1476.38	55.5154
1477.94	55.2746
1479.51	54.2352
1481.07	53.8003
1482.63	53.8825
1484.2	53.8144
1485.76	52.8822
1487.32	51.4482
1488.88	50.2705
1490.45	48.9399
1492.01	46.789
1493.57	45.8213
1495.13	44.6067
1496.69	43.2698
1498.25	42.1254
1499.81	39.8228
1501.37	38.2917
1502.93	36.5896
1504.49	34.8881
1506.05	33.0876
1507.61	30.4903
1509.17	29.3286
1510.73	27.7734
1512.28	26.1649
1513.84	24.6436
1515.4	22.6232
1516.96	20.5463
1518.51	19.5599
1520.07	18.9159
1521.63	17.6084
1523.18	16.9643
1524.74	15.9991
1526.29	14.6692
1527.85	13.6251
1529.4	12.2892
1530.96	11.9997
1532.51	12.714
1534.06	12.6073
1535.62	12.7029
1537.17	13.6445
1538.72	15.1965
1540.28	14.9549
1541.83	16.1566
1543.38	16.7123
1544.93	17.7831
1546.48	18.0449
1548.03	19.4019
1549.59	20.3106
1551.14	21.103
1552.69	22.4724
1554.24	23.456
1555.79	23.877
1557.34	24.5516
1558.88	25.1493
1560.43	25.9052
1561.98	26.1258
1563.53	26.1869
1565.08	26.79
1566.62	27.8867
1568.17	28.5012
1569.72	29.9011
1571.27	31.391
1572.81	31.749
1574.36	32.1421
1575.9	32.6383
1577.45	32.6837
1579	34.1562
1580.54	34.9924
1582.09	36.6913
1583.63	37.5219
1585.17	38.4801
1586.72	39.5001
1588.26	39.8949
1589.8	40.224
1591.35	40.0563
1592.89	40.8731
1594.43	40.7509
1595.97	40.333
1597.52	39.9065
1599.06	39.2755
1600.6	38.4859
1602.14	37.3499
1603.68	36.5079
1605.22	35.305
1606.76	35.0377
1608.3	35.4291
1609.84	36.1023
1611.38	36.5713
1612.92	36.5073
1614.46	36.609
1615.99	36.4947
1617.53	35.8775
1619.07	35.8431
1620.61	35.8423
1622.14	35.6201
1623.68	35
1625.22	34.1655
1626.75	34.0728
1628.29	34.3467
1629.82	34.7756
1631.36	34.5618
1632.9	34.9353
1634.43	35.0426
1635.96	34.6894
1637.5	35.5131
1639.03	35.9762
1640.57	36.6792
1642.1	37.3874
1643.63	38.0807
1645.16	38.4753
1646.7	39.436
1648.23	39.5072
1649.76	39.3705
1651.29	39.7164
1652.82	39.7969
1654.36	40.3545
1655.89	41.2359
1657.42	41.1032
1658.95	41.1811
1660.48	39.8325
1662.01	39.5799
1663.53	39.1322
1665.06	38.8941
1666.59	38.3745
1668.12	37.4063
1669.65	36.8352
1671.18	35.2842
1672.7	34.0828
1674.23	33.5747
1675.76	32.3563
1677.29	31.1355
1678.81	29.4476
1680.34	28.9028
1681.86	28.3244
1683.39	27.8873
1684.91	26.5191
1686.44	25.3613
1687.96	24.1561
1689.49	22.5148
1691.01	21.9467
1692.54	21.1645
1694.06	19.3828
1695.58	18.8502
1697.11	16.9518
1698.63	15.2913
1700.15	15.3771
1701.67	14.0356
1703.2	13.5959
1704.72	11.9797
1706.24	10.7778
1707.76	9.45765
1709.28	8.30693
1710.8	7.36369
1712.32	6.32692
1713.84	6.1434
1715.36	5.80439
1716.88	4.94435
1718.4	3.9936
1719.91	3.51651
1721.43	2.59763
1722.95	2.15778
1724.47	2.55098
1725.99	1.53649
1727.5	1.09521
1729.02	0.966558
1730.54	1.80423
1732.05	1.40444
1733.57	1.30734
1735.09	2.05021
1736.6	1.93319
1738.12	2.4467
1739.63	1.83568
1741.15	1.99907
1742.66	2.06138
1744.18	2.47302
1745.69	2.89703
1747.2	2.56511
1748.72	2.45624
1750.23	2.33428
1751.74	2.11673
1753.25	1.7003
1754.77	2.13028
1756.28	2.60688
1757.79	2.51852
1759.3	2.41813
1760.81	2.97969
1762.32	3.07938
1763.83	3.14946
1765.34	3.33984
1766.85	3.10559
1768.36	2.21115
1769.87	1.4439
1771.38	1.84119
1772.89	1.2399
1774.4	1.29014
1775.91	1.53614
1777.41	0.333049
1778.92	0.130326
1780.43	0.123281
1781.94	0.544208
1783.44	1.11129
1784.95	1.3475
1786.45	1.74455
1787.96	1.67
1789.47	1.41324
1790.97	1.35226
1792.48	1.02868
1793.98	1.56589
1795.48	2.20226
1796.99	1.61446
1798.49	2.14072
1800	2.31928
1801.5	1.73072
1803	2.03647
1804.51	2.41435
1806.01	2.18872
1807.51	1.99697
1809.01	2.57882
1810.51	2.53797
1812.02	2.17829
1813.52	2.11898
1815.02	2.36947
1816.52	2.69161
1818.02	2.58794
1819.52	2.53055
1821.02	2.04929
1822.52	1.48707
1824.02	1.72092
1825.51	1.55229
1827.01	1.36964
1828.51	1.73764
1830.01	2.58833
1831.51	3.0401
1833	3.37865
1834.5	3.51121
1836	2.66306
1837.5	2.07331
1838.99	2.55019
1840.49	2.85342
1841.98	2.8208
1843.48	2.87988
1844.97	3.06772
1846.47	3.40048
1847.96	3.24122
1849.46	3.40244
1850.95	3.71134
1852.45	3.13291
1853.94	2.75191
1855.43	2.70287
1856.92	2.767
1858.42	3.10813
1859.91	2.75313
1861.4	2.84745
1862.89	2.75107
1864.39	3.35189
1865.88	3.4543
1867.37	3.0414
1868.86	2.94516
1870.35	2.71106
1871.84	2.31289
1873.33	2.39199
1874.82	2.93176
1876.31	3.64906
1877.8	3.7957
1879.29	4.02927
1880.77	3.75878
1882.26	4.68617
1882.51	5.33423
1884	4.67356
1885.5	4.58407
1886.99	4.82864
1888.48	4.67721
1889.98	4.25036
1891.47	3.91839
1892.97	4.23927
1894.46	4.27401
1895.95	4.23495
1897.44	4.17914
1898.93	4.16606
1900.42	4.5756
1901.92	4.77761
1903.41	5.65362
1904.9	5.70054
1906.39	5.52705
1907.88	5.54579
1909.37	4.84506
1910.86	5.17457
1912.35	5.48591
1913.84	5.81801
1915.32	5.29678
1916.81	4.5751
1918.3	4.83607
1919.79	4.85461
1921.28	5.0597
1922.76	4.7916
1924.25	3.53841
1925.74	2.65951
1927.22	2.76378
1928.71	3.69393
1930.2	4.06518
1931.68	4.52675
1933.17	4.27497
1934.65	4.98844
1936.14	4.42425
1937.62	4.5862
1939.11	3.75721
1940.59	3.87565
1942.08	4.06608
1943.56	4.44401
1945.04	4.71003
1946.53	5.15496
1948.01	5.18734
1949.49	5.1276
1950.97	4.7183
1952.45	4.70775
1953.94	4.46132
1955.42	4.93902
1956.9	4.67803
1958.38	3.95595
1959.86	3.81749
1961.34	4.06337
1962.82	3.71315
1964.3	3.54123
1965.78	3.47724
1967.26	3.94909
1968.74	3.40988
1970.22	3.22337
1971.69	3.15082
1973.17	3.59099
1974.65	4.64902
1976.13	5.18006
1977.61	5.92003
1979.08	5.79406
1980.56	5.93831
1982.03	6.29827
1983.51	6.48782
1984.99	7.23669
1986.46	7.266
1987.94	7.99759
1989.41	8.29062
1990.89	8.67898
1992.36	9.11347
1993.84	9.35739
1995.31	9.96604
1996.78	10.0166
1998.26	10.5794
1999.73	11.7656
2001.2	13.1418
2002.68	13.9721
2004.15	13.5628
2005.62	14.263
2007.09	14.3489
2008.56	14.8995
2010.04	14.0399
2011.51	14.6159
2012.98	14.1059
2014.45	14.2354
2015.92	13.6949
2017.39	13.4076
2018.86	12.8142
2020.33	12.8836
2021.8	11.994
2023.27	11.9215
2024.74	12.2856
2026.2	12.3375
2027.67	11.4938
2029.14	11.4617
2030.61	11.8992
2032.07	11.2927
2033.54	11.4583
2035.01	11.7098
2036.47	12.0312
2037.94	11.902
2039.41	11.8259
2040.87	11.8434
2042.34	11.6854
2043.8	12.3135
2045.27	12.5078
2046.73	12.4835
2048.2	13.7928
2049.66	13.7438
2051.12	14.1781
2052.59	14.3434
2054.05	14.6829
2055.51	15.0652
2056.98	15.5647
2058.44	15.8172
2059.9	16.0568
2061.36	17.3925
2062.82	17.2421
2064.29	17.3226
2065.75	18.9755
2067.21	19.8182
2068.67	20.4045
2070.13	21.1753
2071.59	22.1418
2073.05	22.7095
2074.51	23.3254
2075.97	23.7923
2077.43	24.2105
2078.88	25.1621
2080.34	25.207
2081.8	25.3623
2083.26	25.1693
2084.72	26.0884
2086.17	26.0042
2087.63	26.3556
2089.09	27.0152
2090.54	28.2518
2092	29.1239
2093.46	30.3739
2094.91	30.6273
2096.37	31.7819
2097.82	33.4328
2099.28	33.552
2100.73	34.3559
2102.19	35.7457
2103.64	36.6346
2105.09	36.7502
2106.55	37.7453
2108	38.7896
2109.46	39.8916
2110.91	40.102
2112.36	40.8459
2113.81	42.0878
2115.27	42.7531
2116.72	44.2253
2118.17	45.2157
2119.62	46.1926
2121.07	48.0049
2122.52	48.1134
2123.97	49.2341
2125.42	50.2934
2126.87	51.7044
2128.32	53.0843
2129.77	53.6467
2131.22	54.7851
2132.67	56.2632
2134.12	57.8643
2135.57	59.1171
2137.01	61.4608
2138.46	62.9016
2139.91	64.388
2141.36	66.0227
2142.8	67.33
2144.25	68.4364
2145.7	69.5885
2147.14	70.517
2148.59	71.7742
2150.03	73.0922
2151.48	74.2355
2152.92	74.9624
2154.37	75.7637
2155.81	76.7707
2157.26	77.5266
2158.7	78.1777
2160.15	79.2008
2161.59	80.7112
2163.03	81.8264
2164.48	82.0277
2165.92	82.8306
2167.36	83.1011
2168.8	83.0014
2170.25	82.7781
2171.69	82.4883
2173.13	82.7624
2174.57	81.889
2176.01	81.1373
2177.45	80.9001
2178.89	80.8346
2180.33	80.9956
2181.77	79.8419
2183.21	78.9056
2184.65	78.5402
2186.09	78.0946
2187.53	76.6651
2188.97	76.8253
2190.41	75.8742
2191.84	74.5081
2193.28	73.976
2194.72	73.2084
2196.16	72.6095
2197.59	71.9378
2199.03	70.8193
2200.47	69.2905
2201.9	68.3981
2203.34	68.7047
2204.78	67.4621
2206.21	65.819
2207.65	64.4459
2209.08	63.0603
2210.51	61.3922
2211.95	60.3071
2213.38	58.2895
2214.82	56.2148
2216.25	54.5519
2217.68	52.9511
2219.12	51.8868
2220.55	50.5861
2221.98	49.14
2223.42	47.8453
2224.85	45.6409
2226.28	44.1956
2227.71	43.4255
2229.14	41.7736
2230.57	40.7485
2232	39.7988
2233.43	39.1984
2234.86	37.8599
2236.29	36.2737
2237.72	35.3093
2239.15	33.7881
2240.58	32.7359
2242.01	32.0977
2243.44	31.5048
2244.87	30.1805
2246.3	29.1422
2247.73	28.6854
2249.15	28.3131
2250.58	27.6995
2252.01	27.4137
2253.43	26.5771
2254.86	26.168
2256.29	26.3312
2257.71	26.114
2259.14	25.2502
2260.56	25.2775
2261.99	24.5588
2263.41	24.4015
2264.84	25.1905
2266.26	25.6082
2267.69	24.9696
2269.11	24.725
2270.54	24.1992
2271.96	23.5972
2273.38	22.9746
2274.81	22.0857
2276.23	20.9279
2277.65	20.9113
2279.07	21.0301
2280.49	20.1981
2281.92	19.4163
2283.34	19.0454
2284.76	18.0098
2286.18	17.3441
2287.6	17.0922
2289.02	16.6975
2290.44	16.0362
2291.86	14.882
2293.28	14.6865
2294.7	14.6162
2296.12	13.3737
2297.54	13.4605
2298.96	13.5697
2300.38	13.0847
2301.79	13.4936
2303.21	13.9977
2304.63	13.9919
2306.05	13.835
2307.46	14.1634
2308.88	14.3919
2310.3	13.9578
2311.71	13.8913
2313.13	13.4401
2314.55	13.1344
2315.96	13.724
2317.38	13.7798
2318.79	13.6565
2320.21	13.7335
2321.62	13.7777
2323.03	13.4748
2324.45	13.0921
2325.86	13.2513
2327.27	13.136
2328.69	12.888
2330.1	12.5834
2331.51	12.1822
2332.93	12.3126
2334.34	12.1605
2335.75	11.8741
2337.16	11.2072
2338.57	10.465
2339.99	9.64695
2341.4	9.07387
2342.81	8.63959
2344.22	7.88492
2345.63	8.0274
2347.04	7.75062
2348.45	7.52982
2349.86	6.77746
2351.26	5.93191
2352.67	5.95431
2354.08	5.92307
2355.49	5.48659
2356.9	5.63607
2358.31	4.86274
2359.71	4.63817
2361.12	4.64257
2362.53	5.5329
2363.94	6.19793
2365.34	5.89765
2366.75	5.33798
2368.15	5.80956
2369.56	6.01596
2370.97	6.01655
2372.37	6.35947
2373.78	6.40042
2375.18	5.95539
2376.59	6.06001
2377.99	5.57779
2379.39	5.12405
2380.8	4.76726
2382.2	4.68871
2383.61	4.55637
2385.01	5.27747
2386.41	5.79466
2387.81	4.92898
2389.22	5.05842
2390.62	4.86029
2392.02	4.52739
2393.42	4.11686
2394.82	4.01403
2396.22	4.01594
2397.63	3.65983
2399.02	3.96717
2400.43	3.63357
2401.82	3.27976
2403.23	3.7373
2404.62	4.08669
2406.02	4.1983
2407.42	4.12701
2408.82	4.27756
2410.22	3.73594
2411.62	4.36135
2413.02	4.66802
2414.41	4.91299
2415.81	5.16633
2417.21	5.52588
2418.61	5.99472
2420	6.74399
2421.4	7.32894
2422.79	7.49428
2424.19	7.59957
2425.59	7.79121
2426.98	8.35397
2428.38	8.42085
2429.77	8.76289
2431.17	8.67653
2432.56	9.16946
2433.96	9.4244
2435.35	9.56019
2436.74	10.3478
2438.14	10.6009
2439.53	10.4657
2440.92	10.5923
2442.32	10.2139
2443.71	9.45193
2445.1	8.87812
2446.49	8.95554
2447.88	8.7555
2449.28	9.50121
2450.67	8.92498
2452.06	9.18923
2453.45	9.37836
2454.84	9.40792
2456.23	8.32784
2457.62	7.15772
2459.01	6.67278
2460.4	5.84459
2461.79	4.95112
2463.18	4.49144
2464.57	4.19063
2465.96	4.32981
2467.34	4.38408
2468.73	4.21956
2470.12	3.41307
2471.51	2.98739
2472.89	2.71558
2474.28	2.62554
2475.67	1.78002
2477.05	1.40912
2478.44	1.72444
2479.83	1.23813
2481.21	1.55727
2482.6	1.92524
2483.98	1.51104
2485.37	0.925909
2486.75	1.57254
2488.14	1.97678
2489.52	2.53903
2490.9	2.42017
2492.29	2.21341
2493.67	2.42056
2495.06	2.92141
2496.44	3.39606
2497.82	2.96376
2499.2	3.25014
2500.59	3.43963
2501.97	4.79528
2503.35	5.75736
2504.73	5.53107
2506.11	5.48322
2507.49	5.33354
2508.88	5.30024
2510.26	5.59534
2511.63	5.37027
2513.01	5.93254
2514.39	6.43736
2515.77	6.70527
2517.15	6.9942
2518.53	7.33945
2519.91	6.34534
2521.29	6.69345
2522.67	5.94251
2524.05	5.45972
2525.42	5.34763
2526.8	5.08426
2528.18	5.63741
2529.56	5.65773
2530.93	5.7559
2532.31	6.222
2533.69	6.34951
2535.06	6.80472
2536.44	6.77309
2537.81	6.34452
2539.19	6.33095
2540.56	6.59374
2541.94	6.90487
2543.31	6.76369
2544.69	6.85187
2546.06	7.33372
2547.44	7.52415
2548.81	7.30453
2550.18	7.90355
2551.56	8.09636
2552.93	7.86506
2554.3	8.53534
2555.68	9.37834
2557.05	9.39661
2558.42	9.27749
2559.79	9.02431
2561.16	9.05923
2562.53	9.19164
2563.9	9.86215
2565.28	9.65141
2566.64	9.20553
2568.02	9.54795
2569.38	9.81257
2570.76	10.5393
2572.12	10.0172
2573.49	9.50045
2574.86	9.5374
2576.23	9.47072
2577.6	9.00763
2578.97	8.9764
2580.34	8.38626
2581.7	8.14265
2583.07	7.63558
2584.44	7.20093
2585.81	7.25112
2587.17	7.09527
2588.54	5.95882
2589.91	5.46246
2591.27	5.27637
2592.64	5.10564
2594	4.64426
2595.37	4.02961
2596.73	4.1406
2598.1	3.48423
2599.46	3.08754
2600.83	3.20418
2602.19	2.40092
2603.55	2.20645
2604.92	1.52503
2606.28	1.20458
2607.64	2.02787
2609.01	1.88505
2610.37	2.35989
2611.73	2.49652
2613.09	2.94962
2614.46	2.98167
2615.82	3.37442
2617.18	4.04886
2618.54	4.50603
2619.9	5.13605
2621.26	5.50379
2622.62	6.0304
2623.98	6.52016
2625.34	6.94758
2626.7	7.59468
2628.06	8.03866
2629.42	8.32301
2630.78	8.76792
2632.14	9.08991
2633.5	8.91758
2634.86	9.36609
2636.22	10.074
2637.57	10.3543
2638.93	10.492
2640.29	10.8161
2641.64	11.2572
2643	11.0723
2644.36	11.1907
2645.72	10.9856
2647.07	10.5275
2648.43	9.95375
2649.78	10.4024
2651.14	10.5098
2652.49	10.471
2653.85	10.6991
2655.2	10.31
2656.56	9.26
2657.91	9.09734
2659.27	8.89618
2660.62	8.24299
2661.97	8.37944
2663.33	8.70039
2664.68	8.19812
2666.03	7.71103
2667.38	7.42957
2668.74	6.7967
2670.09	6.36458
2671.44	6.61341
2672.79	6.36294
2674.14	6.47886
2675.49	6.42346
2676.84	6.12135
2678.2	6.06994
2679.55	6.15204
2680.89	6.26663
2682.24	6.46321
2683.59	6.61288
2684.94	6.00773
2686.29	5.99911
2687.64	5.76294
2688.99	5.67956
2690.34	5.28918
2691.69	5.66886
2693.04	5.62314
2694.38	5.75625
2695.73	5.6614
2697.08	6.03034
2698.43	6.37241
2699.77	6.46027
2701.12	7.23811
2702.46	8.25732
2703.81	8.72798
2705.16	9.06279
2706.5	9.76838
2707.85	9.91119
2709.19	10.0169
2710.54	9.84799
2711.88	9.86788
2713.23	9.47854
2714.57	9.69794
2715.92	10.0869
2717.26	10.429
2718.6	10.8129
2719.95	11.0615
2721.29	11.1125
2722.63	10.8301
2723.97	11.0394
2725.32	10.9535
2726.66	11.0032
2728	10.9241
2729.34	10.9546
2730.68	9.86459
2732.02	9.54486
2733.36	9.49614
2734.7	8.97532
2736.04	8.6269
2737.39	8.68336
2738.72	8.59638
2740.06	8.34734
2741.4	7.71869
2742.74	7.30335
2744.08	7.51599
2745.42	6.9919
2746.76	7.21838
2748.1	6.66337
2749.44	6.09593
2750.77	5.14654
2752.11	4.34006
2753.45	4.16643
2754.78	3.88722
2756.12	3.87312
2757.46	3.36891
2758.79	3.57078
2760.13	3.57292
2761.47	3.21865
2762.8	3.10908
2764.14	3.08597
2765.47	2.79004
2766.81	3.47178
2768.14	4.32037
2769.48	4.20679
2770.81	3.58057
2772.14	3.55898
2773.48	3.36395
2774.81	2.90125
2776.14	3.18784
2777.48	3.02752
2778.81	2.72279
2780.14	2.38822
2781.47	2.45463
2782.81	2.50642
2784.14	2.32164
2785.47	2.82268
2786.8	1.81512
2788.13	1.76548
2789.46	1.38337
2790.79	1.20793
2792.12	0.386008
2793.46	0.612127
2794.79	0.3471
2796.11	0.608088
2797.44	0.341147
2798.77	0.67038
2800.1	-0.0890682
2801.43	-0.228175
2802.76	-0.333523
2804.09	-0.163643
2805.42	-0.0415035
2806.74	-0.758477
2808.07	-1.35991
2809.4	-0.943632
2810.73	-0.80763
2812.05	-0.933023
2813.38	-0.505828
2814.71	-0.15434
2816.03	0.0783507
2817.36	0.486247
2818.68	0.745535
2820.01	1.73715
2821.33	3.12258
2822.66	3.86868
2823.98	5.80074
2825.31	7.60328
2826.63	9.5402
2827.96	11.425
2829.28	13.6114
2830.61	15.6718
2831.93	17.7931
2833.25	20.4305
2834.57	22.7161
2835.9	24.6117
2837.22	27.4724
2838.54	29.8378
2839.86	32.4314
2841.18	35.5002
2842.51	37.8601
2843.83	40.1622
2845.15	42.2907
2846.47	44.9665
2847.79	47.9583
2849.11	50.7814
2850.43	53.0002
2851.75	55.66
2853.07	58.0387
2854.39	61.6289
2855.71	64.5324
2857.03	66.9881
2858.35	69.4443
2859.67	71.4451
2860.98	73.7985
2862.3	74.9839
2863.62	76.5522
2864.94	78.7838
2866.25	80.2745
2867.57	82.17
2868.89	83.9267
2870.21	85.8041
2871.52	86.9492
2872.84	87.9114
2874.15	89.011
2875.47	89.8162
2876.78	90.9869
2878.1	92.4379
2879.42	93.4767
2880.73	94.3941
2882.04	94.5123
2883.36	94.9288
2884.67	95.9874
2885.99	97.415
2887.3	99.0055
2888.61	100.097
2889.93	102.312
2891.24	103.68
2892.55	104.959
2893.87	105.832
2895.18	107.461
2896.49	109.37
2897.8	111.438
2899.11	114.619
2900.42	116.958
2901.74	119.013
2903.05	121.686
2904.36	124.265
2905.67	127.786
2906.98	130.744
2908.29	133.55
2909.6	137.612
2910.91	141.174
2912.22	145.098
2913.53	148.275
2914.83	151.486
2916.14	154.715
2917.45	157.71
2918.76	160.789
2920.07	163.338
2921.37	165.75
2922.68	167.199
2923.99	169.81
2925.3	171.505
2926.6	173.392
2927.91	174.504
2929.22	176.114
2930.52	176.289
2931.83	176.089
2933.13	176.202
2934.44	175.975
2935.74	175.182
2937.05	174.332
2938.35	173.208
2939.66	171.626
2940.96	169.65
2942.27	167.85
2943.57	165.076
2944.87	161.737
2946.18	158.301
2947.48	155.406
2948.78	152.436
2950.09	149.749
2951.39	146.368
2952.69	143.532
2953.99	139.379
2955.29	136.014
2956.6	132.016
2957.9	128.495
2959.2	125.473
2960.5	123.343
2961.8	120.209
2963.1	117.093
2964.4	114.065
2965.7	110.714
2967	107.373
2968.3	104.652
2969.6	101.855
2970.9	98.8299
2972.2	95.9063
2973.49	92.7653
2974.79	90.0371
2976.09	86.9063
2977.39	83.8626
2978.69	80.3881
2979.98	77.6964
2981.28	74.7044
2982.58	71.1337
2983.88	68.2262
2985.17	65.1177
2986.47	62.0051
2987.76	58.6564
2989.06	56.1451
2990.36	52.4234
2991.65	49.5183
2992.95	46.9964
2994.24	43.8923
2995.54	40.9377
2996.83	39.0391
2998.12	36.6836
2999.42	34.7128
3000.71	32.7026
3002	30.6262
3003.3	28.4771
3004.59	25.837
3005.88	23.3601
3007.18	21.4254
3008.47	19.9585
3009.76	18.2675
3011.05	16.7288
3012.35	15.3548
3013.64	14.1565
3014.93	12.8884
3016.22	11.9251
3017.51	10.8985
3018.8	9.60812
3020.09	8.97955
3021.38	8.44092
3022.67	8.13995
3023.96	7.32002
3025.25	6.58238
3026.54	5.49585
3027.83	4.35885
3029.12	3.64398
3030.41	3.36088
3031.69	2.74329
3032.98	2.79351
3034.27	1.89298
3035.56	1.48451
3036.85	0.846546
3038.13	0.465769
3039.42	0.908015
3040.71	0.868908
3041.99	0.794528
3043.28	0.464864
3044.57	0.0059101
3045.85	-0.32613
3047.14	-0.860761
3048.42	-0.875467
3049.71	-1.02422
3050.99	-1.36158
3052.28	-1.09488
3053.56	-0.921553
3054.85	-0.884914
3056.13	-0.48291
3057.42	0.0121662
3058.7	0.0320111
3059.98	0.244392
3061.27	0.595718
3062.55	0.383416
3063.83	0.826558
3065.11	0.936204
3066.4	0.547499
3067.68	0.654173
3068.96	0.415912
3070.24	0.912674
3071.52	1.45497
3072.8	1.46652
3074.09	1.48945
3075.37	1.74743
3076.65	2.21807
3077.93	2.59058
3079.21	2.40743
3080.49	2.43132
3081.77	2.3062
3083.05	2.0136
3084.32	2.08021
3085.61	2.79947
3086.88	2.95369
3088.16	2.94672
3089.44	2.53413
3090.72	2.08195
3092	1.90901
3093.27	2.05804
3094.55	2.18329
3095.83	1.84536
3097.11	1.19442
3098.38	1.21797
3099.66	1.08536
3100.94	1.03449
3102.21	1.33231
3103.49	1.55861
3104.76	1.18151
3106.04	1.08514
3107.31	1.03172
3108.59	0.949879
3109.86	1.46979
3111.14	1.21791
3112.41	1.6653
3113.69	1.76023
3114.96	2.12826
3116.23	2.19554
3117.51	2.6154
3118.78	2.97954
3120.05	3.2215
3121.33	3.56202
3122.6	3.46777
3123.87	3.55226
3125.14	3.70432
3126.42	3.97608
3127.69	4.37412
3128.96	4.61046
3130.23	4.84188
3131.5	5.71768
3132.77	6.29567
3134.04	7.08343
3135.31	7.55242
3136.58	8.28829
3137.85	9.20132
3139.12	9.63065
3140.39	10.1161
3141.66	10.3695
3142.93	10.841
3144.2	11.1602
3145.47	11.2593
3146.74	11.0773
3148	10.0103
3149.27	8.73246
