#Acq. time (s)=	45
#Accumulations=	2
#Range (cm-¹)=	200...3150
#Windows=	2
#Auto scanning=	Off
#Autofocus=	Off
#Macrospot=	Off
#AutoExposure=	Off
#Spike filter=	Multiple accum.
#Delay time (s)=	0
#Binning=	1
#Readout mode=	Signal
#DeNoise=	Off
#ICS correction=	On
#Dark correction=	Off
#Inst. Process=	Off
#Detector Gain=	Best Dynamic Range
#Detector ADC=	20 kHz       
#Detector temperature (°C)=	-69.85
#Instrument=	LabRAM HR Evol
#Detector=	Synapse
#Objective=	x100
#Grating=	600 gr/mm
#ND Filter=	100%
#Laser (nm)=	532 
#Hole=	100.021
#Range=	Auto
#Laser Pol.=	No
#Raman. Pol.=	No
#Laser Pol. (°)=	-0.0007625
#Raman Pol. (°)=	89.9995
#Collection=	Microscope
#StageXY=	Marzhauser
#StageZ=	Marzhauser
#X (µm)=	28299.8
#Y (µm)=	-3252.8
#Z (µm)=	1041.05
#Full time(mm:ss)=	3:18
#Project=	
#Sample=	
#Site=	
#Title=	Mb_50_18_31_2x_45s_532 nm_x100_100%_600 gr_mm
#Remark=	
#Date=	12.07.2022 13:12
#Acquired=	12.07.2022 13:12:43
#Base:Fit=	10.08.2022 10:49:18
#Base:Sub=	10.08.2022 10:49:30
#Filter:Polynom=	16.08.2022 10:14:59
#AxisType[0]=Intens
#AxisUnit[0]=Cnt
#AxisType[1]=Spectr
#AxisUnit[1]=1/cm
200.388	15.8959
202.204	15.1235
204.019	14.1249
205.832	14.2687
207.646	13.9976
209.459	13.6711
211.274	13.2017
213.087	12.7689
214.899	12.1177
216.711	12.1473
218.524	11.8858
220.335	12.9434
222.146	13.2437
223.956	14.531
225.766	15.1224
227.576	15.1486
229.388	16.3642
231.197	15.6885
233.005	16.0198
234.813	15.0405
236.621	14.6075
238.429	14.4124
240.236	13.3085
242.045	12.6676
243.852	12.1167
245.658	12.178
247.464	11.8187
249.269	11.8694
251.074	11.0641
252.879	11.9588
254.683	11.2095
256.487	9.89616
258.291	9.98336
260.094	10.0504
261.897	11.4137
263.702	11.9962
265.504	13.0023
267.306	13.7134
269.108	13.5604
270.909	13.8152
272.71	14.1116
274.511	14.5966
276.311	14.3981
278.111	13.6266
279.91	14.1123
281.709	13.5227
283.508	12.8298
285.306	13.1087
287.105	14.4669
288.9	14.1026
290.698	15.4798
292.495	16.6712
294.291	16.8511
296.088	16.8879
297.884	17.9433
299.679	18.6154
301.475	19.9234
303.27	20.9193
305.064	21.5501
306.858	22.3887
308.652	23.8012
310.444	26.0169
312.237	26.5172
314.03	28.4026
315.822	28.8047
317.615	29.2426
319.406	29.9909
321.198	29.219
322.987	29.8809
324.778	29.5827
326.568	29.4558
328.358	29.0257
330.148	28.3387
331.935	27.6732
333.724	27.2811
335.513	27.553
337.301	27.1685
339.089	26.0548
340.875	24.7442
342.662	25.1054
344.449	24.6819
346.236	25.2791
348.02	27.2877
349.806	28.0728
351.592	29.1518
353.375	29.813
355.16	30.2745
356.944	31.5053
358.728	33.5466
360.51	34.9098
362.294	36.2789
364.077	37.5385
365.858	38.1023
367.64	39.2976
369.422	40.6094
371.202	40.7862
372.983	42.0938
374.764	43.8164
376.543	44.138
378.324	44.6917
380.102	46.0159
381.881	46.7129
383.661	46.9128
385.438	48.3864
387.216	48.9858
388.993	49.848
390.771	49.0251
392.548	48.9408
394.324	48.6857
396.101	48.4086
397.875	48.7702
399.651	48.4784
401.425	47.576
403.201	47.8025
404.974	46.6381
406.749	45.8149
408.524	44.549
410.296	42.5424
412.07	40.6085
413.841	38.5003
415.614	35.4717
417.385	33.3041
419.156	30.5276
420.928	28.5572
422.698	27.5005
424.469	25.8786
426.238	23.9169
428.009	21.7381
429.777	20.3287
431.548	19.2646
433.315	17.3818
435.083	16.6121
436.852	16.3568
438.618	15.5658
440.387	14.9374
442.153	15.086
443.919	14.9944
445.686	14.6139
447.451	14.8967
449.218	14.6807
450.982	13.9301
452.746	13.4919
454.512	12.8724
456.275	12.9545
458.038	12.9978
459.803	12.8659
461.565	13.4937
463.327	13.9796
465.091	14.293
466.852	15.1904
468.613	15.5374
470.374	15.935
472.136	16.0227
473.896	16.6161
475.655	17.239
477.415	18.2263
479.176	19.013
480.934	20.9312
482.692	21.9809
484.45	24.0368
486.21	26.8478
487.967	28.8522
489.724	32.369
491.481	34.7472
493.237	36.3459
494.995	38.0486
496.75	39.2861
498.506	41.0559
500.26	42.6684
502.015	44.0731
503.771	44.7484
505.525	46.3928
507.279	47.974
509.032	48.9229
510.785	48.9354
512.537	49.0983
514.289	49.2581
516.041	49.5204
517.793	49.8051
519.546	50.4143
521.297	50.281
523.047	49.6529
524.797	50.8165
526.547	49.884
528.297	49.0002
530.046	49.02
531.795	48.5914
533.543	47.701
535.291	46.4841
537.039	44.3853
538.787	41.4796
540.534	40.1381
542.281	38.4256
544.027	35.9234
545.773	33.9356
547.519	31.8903
549.264	30.6475
551.01	28.9397
552.754	26.5736
554.499	23.6924
556.243	22.2947
557.987	20.6203
559.73	18.7092
561.474	18.5406
563.216	17.8597
564.959	17.5454
566.701	16.5671
568.441	16.5657
570.182	16.1891
571.923	16.6082
573.664	15.1515
575.405	13.7236
577.145	13.9433
578.885	12.821
580.624	12.9015
582.361	11.5896
584.1	10.922
585.839	10.3129
587.577	9.07885
589.315	8.56419
591.052	8.24993
592.787	8.31614
594.524	7.90778
596.26	6.92776
597.997	7.80126
599.732	8.79281
601.466	9.32642
603.201	9.8699
604.936	9.95474
606.67	10.5848
608.403	10.8274
610.136	10.6286
611.87	11.711
613.603	11.5923
615.334	11.8258
617.067	12.6019
618.799	12.1787
620.529	11.0922
622.26	10.3758
623.991	10.2438
625.72	9.39293
627.451	9.95767
629.181	9.79443
630.909	9.07803
632.638	9.96721
634.368	9.9606
636.095	10.5638
637.823	9.8008
639.551	9.39739
641.277	9.6393
643.005	10.0408
644.73	9.93788
646.457	10.529
648.184	10.7019
649.908	9.82906
651.634	10.9271
653.357	10.8936
655.083	11.3551
656.806	10.5424
658.53	10.6959
660.253	9.91548
661.977	9.70789
663.7	10.5468
665.422	10.7866
667.145	11.5639
668.865	10.9456
670.588	12.5193
672.308	13.5828
674.027	14.5515
675.749	14.9977
677.468	15.8574
679.188	17.1175
680.907	18.6214
682.627	20.3053
684.345	22.6707
686.064	24.0275
687.781	24.7504
689.498	24.7738
691.216	25.3932
692.932	27.4266
694.65	28.1576
696.366	27.8854
698.081	29.2746
699.797	30.5823
701.512	31.0074
703.228	31.9892
704.942	31.697
706.655	32.3727
708.371	32.7773
710.083	32.6943
711.796	32.4402
713.51	34.0704
715.222	34.5251
716.934	35.8238
718.645	35.7698
720.358	35.6061
722.068	35.5655
723.779	35.3007
725.49	34.8841
727.2	34.4253
728.909	34.3723
730.618	34.3723
732.329	35.0629
734.037	35.8051
735.745	37.6861
737.453	39.6659
739.16	41.404
740.869	43.716
742.576	45.7984
744.282	48.5102
745.988	51.0828
747.694	54.7085
749.401	58.6738
751.107	61.8738
752.811	64.9998
754.516	68.0621
756.22	71.6674
757.924	74.1177
759.627	75.8118
761.332	77.1858
763.035	80.3742
764.738	83.1906
766.44	86.3423
768.142	87.7882
769.843	89.9968
771.544	90.0591
773.245	91.3915
774.946	92.4926
776.646	94.03
778.346	95.4677
780.046	94.0052
781.745	93.3371
783.444	93.9238
785.143	93.2058
786.841	92.1732
788.539	90.523
790.237	89.0968
791.934	87.5412
793.631	86.1261
795.328	84.6897
797.024	83.8408
798.72	82.3798
800.416	80.1031
802.112	77.6871
803.807	74.5329
805.502	72.6693
807.196	69.6413
808.89	67.7929
810.584	65.9083
812.278	63.9905
813.971	62.9911
815.664	62.217
817.354	61.4923
819.047	61.517
820.739	60.7847
822.43	59.2253
824.122	59.7485
825.813	58.9135
827.503	57.739
829.192	58.3114
830.882	58.0165
832.571	57.4171
834.261	55.9292
835.95	55.4614
837.637	54.5445
839.325	53.9314
841.013	52.168
842.701	51.7218
844.389	50.8185
846.074	49.6035
847.761	49.7687
849.447	48.7476
851.131	47.4348
852.817	44.9674
854.503	44.1043
856.188	42.8533
857.871	42.8921
859.556	41.8957
861.24	39.8847
862.922	39.4616
864.606	38.3843
866.289	36.9906
867.97	36.6787
869.653	35.9581
871.336	36.3869
873.016	36.218
874.698	36.4818
876.379	36.0867
878.058	36.4252
879.739	36.8432
881.418	36.4992
883.098	35.3114
884.778	36.2019
886.456	35.9657
888.135	35.4612
889.812	35.3866
891.49	35.5243
893.167	35.445
894.845	35.2252
896.523	34.7347
898.198	35.1922
899.875	35.1232
901.55	34.2501
903.226	34.9949
904.901	33.7211
906.576	33.5089
908.25	34.05
909.925	33.8085
911.598	33.5943
913.271	33.3972
914.945	32.224
916.617	31.5131
918.291	29.9115
919.962	29.1923
921.635	28.0617
923.306	27.3859
924.978	26.4987
926.648	25.8826
928.318	23.9459
929.989	21.9483
931.659	20.3876
933.328	19.4275
934.998	18.7327
936.666	17.3615
938.336	16.8111
940.004	16.2755
941.671	15.0979
943.34	14.8735
945.007	14.2714
946.673	13.9686
948.339	13.5895
950.007	12.4754
951.672	13.8184
953.337	13.745
955.004	13.0239
956.669	12.0462
958.333	11.9314
959.997	11.3442
961.662	11.0948
963.326	10.4921
964.989	9.69222
966.651	8.99111
968.315	8.87235
969.977	8.15874
971.639	8.08425
973.301	8.90969
974.962	9.5213
976.624	9.0309
978.285	10.3731
979.945	10.8758
981.605	10.7759
983.264	10.462
984.924	11.0696
986.583	12.2945
988.243	12.4047
989.901	12.9785
991.56	12.3282
993.217	12.7043
994.875	12.8565
996.532	13.0672
998.188	14.0906
999.845	16.0868
1001.5	17.1418
1003.16	19.7403
1004.81	21.8878
1006.47	23.379
1008.12	25.7548
1009.78	28.368
1011.43	30.1381
1013.09	32.4861
1014.74	35.6247
1016.39	38.8231
1018.05	40.5211
1019.7	41.3584
1021.35	42.7289
1023	44.2176
1024.65	45.7607
1026.31	47.2567
1027.96	47.9075
1029.61	48.0451
1031.26	49.5683
1032.91	49.141
1034.56	49.3017
1036.21	48.3277
1037.86	46.6707
1039.51	45.1369
1041.16	42.7819
1042.8	41.0076
1044.45	40.0336
1046.1	37.9787
1047.75	36.463
1049.39	35.0493
1051.04	34.4768
1052.69	33.9164
1054.33	32.5342
1055.98	31.2482
1057.62	29.9164
1059.27	28.7959
1060.91	27.5647
1062.56	25.9866
1064.2	24.9517
1065.85	24.5193
1067.49	24.6328
1069.13	24.3411
1070.77	24.3759
1072.42	23.7411
1074.06	23.644
1075.7	24.1412
1077.34	24.4492
1078.98	24.9965
1080.62	26.6751
1082.27	28.0017
1083.91	28.8992
1085.55	29.0452
1087.18	29.8006
1088.82	29.8369
1090.46	31.1418
1092.1	31.7753
1093.74	32.5534
1095.38	33.8905
1097.02	34.0279
1098.65	33.463
1100.29	32.3091
1101.93	31.71
1103.56	31.9899
1105.2	31.6213
1106.84	31.5628
1108.47	30.6057
1110.11	30.0014
1111.74	28.8556
1113.38	27.5895
1115.01	24.9742
1116.64	22.9564
1118.28	20.8163
1119.91	18.2551
1121.54	16.0278
1123.18	15.7468
1124.81	15.7566
1126.44	15.6879
1128.07	14.338
1129.7	14.1917
1131.33	13.5399
1132.97	12.1517
1134.6	11.1461
1136.23	10.8087
1137.86	10.4327
1139.49	11.044
1141.11	9.70525
1142.74	8.19215
1144.37	7.86922
1146	8.33685
1147.63	8.10707
1149.26	7.30307
1150.88	6.35547
1152.51	6.28988
1154.14	5.46426
1155.76	3.75506
1157.39	2.4509
1159.01	1.70134
1160.64	1.74487
1162.27	1.2452
1163.89	1.30768
1165.51	1.16893
1167.14	0.736965
1168.76	1.43891
1170.39	0.667303
1172.01	2.18496
1173.63	2.81348
1175.25	3.33693
1176.88	3.78204
1178.5	4.21993
1180.12	4.71264
1181.74	5.54956
1183.36	6.84692
1184.98	7.79236
1186.6	7.97563
1188.22	7.8975
1189.84	7.71665
1191.46	7.75682
1193.08	8.04771
1194.7	8.47239
1196.32	8.54871
1197.94	9.51208
1199.55	9.88069
1201.17	9.89936
1202.79	10.7529
1204.41	12.5321
1206.02	12.2282
1207.64	12.8851
1209.25	12.2906
1210.87	12.624
1212.48	13.0855
1214.1	13.8366
1215.71	15.0114
1217.33	15.899
1218.94	15.1841
1220.56	15.7157
1222.17	15.1498
1223.79	17.0379
1225.4	18.2582
1227.01	19.783
1228.62	20.533
1230.23	21.1654
1231.85	21.4428
1233.46	22.0299
1235.07	21.1402
1236.68	20.5744
1238.29	21.7981
1239.9	23.5908
1241.51	24.6574
1243.12	25.0852
1244.73	26.1949
1246.34	26.4324
1247.94	26.9927
1249.55	26.2924
1251.16	27.5302
1252.77	29.2587
1254.37	29.406
1255.98	30.1418
1257.59	31.3996
1259.2	33.1418
1260.8	33.8741
1262.41	34.6804
1264.01	34.7723
1265.62	34.8024
1267.22	35.2654
1268.83	35.1977
1270.43	36.3467
1272.03	37.2231
1273.64	38.2149
1275.24	38.2191
1276.85	39.3451
1278.45	39.8338
1280.05	39.833
1281.65	41.0323
1283.25	41.7151
1284.85	41.7847
1286.46	41.9339
1288.06	42.1326
1289.66	42.7345
1291.26	43.7099
1292.86	44.9427
1294.46	44.9639
1296.06	44.7268
1297.66	45.3514
1299.25	44.4842
1300.85	45.8273
1302.45	46.2223
1304.05	46.7241
1305.65	46.8362
1307.24	46.6838
1308.84	46.4264
1310.43	45.9491
1312.03	45.2407
1313.63	44.6339
1315.22	44.2557
1316.82	44.524
1318.41	45.1921
1320.01	45.4807
1321.6	44.9465
1323.2	45.6656
1324.79	45.9941
1326.38	45.9058
1327.98	45.9088
1329.57	45.6753
1331.16	46.5181
1332.76	46.2916
1334.35	45.7226
1335.94	46.054
1337.53	46.1214
1339.12	46.22
1340.71	45.0055
1342.3	44.8516
1343.89	44.0951
1345.48	44.379
1347.07	45.4139
1348.66	44.549
1350.25	44.853
1351.84	44.8204
1353.43	44.593
1355.01	44.9483
1356.6	44.88
1358.19	43.9397
1359.77	43.6551
1361.36	43.4266
1362.95	42.3782
1364.53	42.4001
1366.12	42.5978
1367.71	42.5222
1369.29	42.8771
1370.88	41.9779
1372.46	41.8329
1374.04	41.0816
1375.63	40.7492
1377.21	41.4031
1378.8	39.8944
1380.38	38.6642
1381.96	37.1098
1383.54	36.4226
1385.13	35.209
1386.71	33.2462
1388.29	32.9332
1389.87	32.2799
1391.45	31.1167
1393.03	29.7672
1394.61	29.8671
1396.19	29.7725
1397.77	29.7707
1399.35	29.7924
1400.93	29.8876
1402.51	29.6227
1404.09	29.0413
1405.67	28.9587
1407.24	29.3837
1408.82	29.3637
1410.4	29.3578
1411.98	30.374
1413.55	29.6243
1415.13	31.2595
1416.71	32.0886
1418.28	33.3745
1419.86	34.8835
1421.43	36.6102
1423.01	38.0978
1424.58	40.8103
1426.16	42.6278
1427.73	44.4449
1429.31	46.9924
1430.88	49.3525
1432.45	51.2378
1434.02	52.4962
1435.6	53.1269
1437.17	55.4613
1438.74	56.7635
1440.31	57.6379
1441.88	58.6131
1443.45	59.4918
1445.03	59.8939
1446.6	61.2496
1448.17	61.4837
1449.74	61.8041
1451.3	63.1295
1452.87	63.7435
1454.44	64.0597
1456.01	65.1306
1457.58	64.7372
1459.15	65.7981
1460.72	67.6739
1462.28	69.9701
1463.85	70.5813
1465.42	71.9014
1466.98	72.8288
1468.55	72.5027
1470.12	73.1203
1471.68	74.1086
1473.25	75.5575
1474.81	75.8918
1476.38	75.7063
1477.94	76.612
1479.51	76.4431
1481.07	75.8334
1482.63	76.2426
1484.2	75.0968
1485.76	74.2328
1487.32	73.1491
1488.88	72.2459
1490.45	71.2565
1492.01	70.0497
1493.57	69.8139
1495.13	67.9091
1496.69	67.2409
1498.25	65.7327
1499.81	64.1146
1501.37	62.1213
1502.93	59.45
1504.49	56.9575
1506.05	54.4909
1507.61	51.3915
1509.17	48.1241
1510.73	44.5717
1512.28	40.5155
1513.84	36.9723
1515.4	34.3866
1516.96	31.3035
1518.51	28.9314
1520.07	26.447
1521.63	24.3821
1523.18	22.7996
1524.74	22.1804
1526.29	20.4924
1527.85	19.1144
1529.4	18.75
1530.96	18.4459
1532.51	18.1577
1534.06	18.6209
1535.62	18.7752
1537.17	19.6239
1538.72	20.4012
1540.28	21.0679
1541.83	21.238
1543.38	22.3239
1544.93	22.8443
1546.48	24.1811
1548.03	26.0966
1549.59	26.7779
1551.14	26.5083
1552.69	27.5078
1554.24	28.1649
1555.79	29.4167
1557.34	28.7933
1558.88	28.9074
1560.43	29.8392
1561.98	30.0402
1563.53	30.7757
1565.08	31.8043
1566.62	33.211
1568.17	34.4194
1569.72	36.4875
1571.27	36.5816
1572.81	37.9272
1574.36	38.951
1575.9	39.0872
1577.45	40.6402
1579	41.0685
1580.54	41.3508
1582.09	42.5462
1583.63	43.2122
1585.17	44.1206
1586.72	44.2596
1588.26	44.4517
1589.8	44.541
1591.35	45.4528
1592.89	46.2883
1594.43	47.4106
1595.97	47.4946
1597.52	46.4495
1599.06	46.1917
1600.6	45.5673
1602.14	44.5269
1603.68	43.8583
1605.22	43.7715
1606.76	43.7771
1608.3	44.0641
1609.84	43.7159
1611.38	43.7556
1612.92	43.9786
1614.46	43.8573
1615.99	44.3913
1617.53	44.3655
1619.07	44.5491
1620.61	45.6481
1622.14	45.1622
1623.68	45.6518
1625.22	45.7983
1626.75	45.4044
1628.29	46.4652
1629.82	47.7855
1631.36	47.6935
1632.9	47.4853
1634.43	47.5732
1635.96	48.9104
1637.5	50.5762
1639.03	52.1359
1640.57	53.4311
1642.1	54.6192
1643.63	55.542
1645.16	56.5351
1646.7	57.4156
1648.23	58.4655
1649.76	60.1432
1651.29	60.7801
1652.82	61.8257
1654.36	62.3818
1655.89	61.9947
1657.42	62.3237
1658.95	62.9193
1660.48	62.6425
1662.01	61.9857
1663.53	61.2671
1665.06	61.1117
1666.59	60.3005
1668.12	59.4553
1669.65	58.3291
1671.18	57.5343
1672.7	55.4398
1674.23	53.8207
1675.76	52.1446
1677.29	50.2689
1678.81	49.1972
1680.34	47.4693
1681.86	45.0692
1683.39	43.3569
1684.91	41.5981
1686.44	39.5423
1687.96	37.7678
1689.49	36.0192
1691.01	34.7419
1692.54	33.4211
1694.06	31.3498
1695.58	29.4171
1697.11	28.436
1698.63	26.1166
1700.15	25.6055
1701.67	23.7989
1703.2	22.4634
1704.72	21.5294
1706.24	19.6715
1707.76	18.3024
1709.28	16.6136
1710.8	16.1381
1712.32	15.3638
1713.84	14.3762
1715.36	12.5911
1716.88	10.9048
1718.4	9.11223
1719.91	8.66126
1721.43	8.00268
1722.95	7.36861
1724.47	8.01826
1725.99	7.23039
1727.5	6.70499
1729.02	6.64726
1730.54	6.37387
1732.05	6.93841
1733.57	7.32661
1735.09	6.90545
1736.6	6.07075
1738.12	5.86694
1739.63	5.66577
1741.15	5.50322
1742.66	5.46549
1744.18	5.58561
1745.69	5.23868
1747.2	5.15337
1748.72	4.69435
1750.23	4.92354
1751.74	4.16581
1753.25	4.12839
1754.77	4.0265
1756.28	3.78357
1757.79	4.58291
1759.3	5.70489
1760.81	5.50036
1762.32	5.25665
1763.83	4.84993
1765.34	4.88495
1766.85	5.04659
1768.36	4.61163
1769.87	4.82642
1771.38	4.67183
1772.89	5.46915
1774.4	5.84988
1775.91	5.92545
1777.41	5.63749
1778.92	5.66278
1780.43	6.22419
1781.94	6.13459
1783.44	6.20835
1784.95	5.48614
1786.45	5.3556
1787.96	4.73444
1789.47	4.1409
1790.97	3.75575
1792.48	3.33082
1793.98	3.0226
1795.48	3.69216
1796.99	3.5813
1798.49	4.14311
1800	4.18378
1801.5	3.88061
1803	4.18792
1804.51	4.31861
1806.01	4.14436
1807.51	4.79728
1809.01	4.34749
1810.51	4.09638
1812.02	3.60369
1813.52	3.67199
1815.02	4.19429
1816.52	4.84374
1818.02	5.10226
1819.52	4.85221
1821.02	5.3164
1822.52	5.96552
1824.02	6.78234
1825.51	6.9757
1827.01	7.03436
1828.51	7.34628
1830.01	7.73709
1831.51	8.45647
1833	8.26322
1834.5	8.36527
1836	7.94423
1837.5	7.46821
1838.99	7.43075
1840.49	7.60831
1841.98	7.5473
1843.48	7.79512
1844.97	8.38353
1846.47	8.52002
1847.96	8.90459
1849.46	9.22492
1850.95	9.06353
1852.45	8.8059
1853.94	8.23227
1855.43	8.449
1856.92	7.01851
1858.42	7.31446
1859.91	6.14821
1861.4	6.08508
1862.89	5.8118
1864.39	4.75172
1865.88	4.00064
1867.37	3.77804
1868.86	3.57509
1870.35	3.73558
1871.84	2.78816
1873.33	2.65546
1874.82	3.00961
1876.31	3.28717
1877.8	3.80346
1879.29	3.58931
1880.77	3.36138
1882.26	3.82252
1882.51	3.40438
1884	3.70007
1885.5	3.38852
1886.99	3.7263
1888.48	4.76381
1889.98	4.66739
1891.47	5.27429
1892.97	5.63712
1894.46	5.70424
1895.95	6.05024
1897.44	5.58082
1898.93	4.82631
1900.42	5.06771
1901.92	4.53633
1903.41	4.15937
1904.9	4.31622
1906.39	3.42503
1907.88	3.26345
1909.37	3.41247
1910.86	3.08922
1912.35	3.49183
1913.84	3.77427
1915.32	4.37335
1916.81	4.95929
1918.3	5.43559
1919.79	5.3784
1921.28	4.96488
1922.76	5.16693
1924.25	4.74546
1925.74	4.92693
1927.22	5.40054
1928.71	6.15013
1930.2	6.11055
1931.68	7.04766
1933.17	6.72409
1934.65	6.9095
1936.14	6.73182
1937.62	6.64406
1939.11	7.42717
1940.59	7.79871
1942.08	7.75463
1943.56	8.38088
1945.04	8.19707
1946.53	8.30428
1948.01	8.12178
1949.49	7.56851
1950.97	7.87354
1952.45	7.72264
1953.94	8.35392
1955.42	8.4764
1956.9	8.01719
1958.38	7.8218
1959.86	8.03188
1961.34	8.57996
1962.82	9.2881
1964.3	8.98714
1965.78	8.79102
1967.26	7.947
1968.74	6.84206
1970.22	7.11449
1971.69	6.47088
1973.17	6.40061
1974.65	6.61834
1976.13	6.69757
1977.61	6.84022
1979.08	6.76576
1980.56	6.55526
1982.03	7.15037
1983.51	7.23438
1984.99	6.8776
1986.46	7.31335
1987.94	7.49565
1989.41	7.76095
1990.89	7.39599
1992.36	7.45482
1993.84	6.96687
1995.31	6.65655
1996.78	7.37869
1998.26	7.39824
1999.73	8.31685
2001.2	7.67889
2002.68	7.77059
2004.15	7.60794
2005.62	7.73705
2007.09	7.58801
2008.56	7.52604
2010.04	7.76107
2011.51	7.68959
2012.98	7.41503
2014.45	6.86423
2015.92	7.40808
2017.39	7.03974
2018.86	6.33129
2020.33	6.68144
2021.8	6.61923
2023.27	7.35592
2024.74	8.09499
2026.2	8.329
2027.67	8.1673
2029.14	7.80912
2030.61	7.9931
2032.07	9.36692
2033.54	10.1078
2035.01	10.6457
2036.47	11.2647
2037.94	11.2126
2039.41	11.217
2040.87	11.9271
2042.34	12.3457
2043.8	14.0087
2045.27	15.1757
2046.73	15.9763
2048.2	17.2179
2049.66	17.0982
2051.12	17.5384
2052.59	17.8889
2054.05	18.2147
2055.51	18.7403
2056.98	18.3992
2058.44	18.5892
2059.9	18.9356
2061.36	19.1403
2062.82	19.6897
2064.29	19.8431
2065.75	19.9151
2067.21	19.9115
2068.67	20.1674
2070.13	20.7442
2071.59	20.989
2073.05	22.0277
2074.51	22.3921
2075.97	22.7409
2077.43	22.5246
2078.88	23.1006
2080.34	23.1567
2081.8	23.3798
2083.26	24.3332
2084.72	24.5741
2086.17	25.2013
2087.63	25.73
2089.09	26.086
2090.54	25.9495
2092	26.4815
2093.46	26.8282
2094.91	26.5284
2096.37	28.0073
2097.82	29.2322
2099.28	30.4651
2100.73	31.2829
2102.19	32.8942
2103.64	33.954
2105.09	35.3854
2106.55	35.455
2108	35.8654
2109.46	36.3784
2110.91	37.2566
2112.36	38.2588
2113.81	39.9674
2115.27	41.48
2116.72	43.4119
2118.17	44.64
2119.62	45.315
2121.07	46.6708
2122.52	47.8814
2123.97	50.0592
2125.42	51.2014
2126.87	52.131
2128.32	53.7821
2129.77	55.2593
2131.22	57.3537
2132.67	59.3035
2134.12	60.9036
2135.57	62.7064
2137.01	63.584
2138.46	64.4685
2139.91	66.7577
2141.36	68.2659
2142.8	69.9303
2144.25	71.7002
2145.7	72.7249
2147.14	73.5015
2148.59	73.7276
2150.03	74.7538
2151.48	76.6416
2152.92	77.5438
2154.37	78.5059
2155.81	80.0551
2157.26	79.5549
2158.7	80.38
2160.15	81.2113
2161.59	82.461
2163.03	83.045
2164.48	83.7214
2165.92	83.998
2167.36	85.1312
2168.8	86.0614
2170.25	86.3795
2171.69	85.8187
2173.13	85.7573
2174.57	85.0426
2176.01	83.4978
2177.45	82.2235
2178.89	80.8648
2180.33	79.9957
2181.77	80.4171
2183.21	79.7799
2184.65	79.2482
2186.09	78.7552
2187.53	77.6759
2188.97	76.8862
2190.41	76.3373
2191.84	74.7229
2193.28	73.4938
2194.72	72.4603
2196.16	71.2406
2197.59	69.4336
2199.03	68.0141
2200.47	67.5646
2201.9	66.2827
2203.34	64.7993
2204.78	63.9371
2206.21	62.6276
2207.65	61.0659
2209.08	59.6782
2210.51	57.9063
2211.95	56.7604
2213.38	54.8462
2214.82	53.4325
2216.25	52.1726
2217.68	51.0544
2219.12	50.6518
2220.55	49.2986
2221.98	48.7058
2223.42	47.5646
2224.85	46.5387
2226.28	44.6704
2227.71	43.7304
2229.14	42.2373
2230.57	42.2241
2232	41.3162
2233.43	40.4742
2234.86	38.4355
2236.29	37.4858
2237.72	35.9601
2239.15	35.2299
2240.58	34.1479
2242.01	33.239
2243.44	31.4173
2244.87	30.5853
2246.3	28.9264
2247.73	28.0195
2249.15	27.084
2250.58	26.5642
2252.01	26.2809
2253.43	25.719
2254.86	24.6532
2256.29	24.4038
2257.71	23.3458
2259.14	22.6941
2260.56	22.3244
2261.99	21.5343
2263.41	20.5994
2264.84	20.6264
2266.26	20.4085
2267.69	20.5126
2269.11	19.4726
2270.54	19.7513
2271.96	19.5856
2273.38	18.9701
2274.81	18.665
2276.23	18.8291
2277.65	18.2355
2279.07	17.5211
2280.49	17.2609
2281.92	16.5921
2283.34	16.6479
2284.76	16.8016
2286.18	16.7215
2287.6	16.4688
2289.02	16.1557
2290.44	14.9371
2291.86	13.8418
2293.28	13.2986
2294.7	12.3111
2296.12	12.4545
2297.54	12.0667
2298.96	12.9114
2300.38	12.914
2301.79	12.8246
2303.21	13.1619
2304.63	13.4062
2306.05	13.1765
2307.46	13.5416
2308.88	13.3429
2310.3	13.3232
2311.71	12.8686
2313.13	12.3618
2314.55	11.8769
2315.96	12.6856
2317.38	12.7947
2318.79	12.2052
2320.21	11.8376
2321.62	12.6261
2323.03	12.0972
2324.45	12.1127
2325.86	11.5694
2327.27	11.5744
2328.69	11.7601
2330.1	11.2439
2331.51	11.2509
2332.93	10.8998
2334.34	10.9973
2335.75	10.2805
2337.16	10.0047
2338.57	9.19817
2339.99	8.40368
2341.4	8.62316
2342.81	7.97997
2344.22	7.17953
2345.63	6.33051
2347.04	6.38356
2348.45	5.58273
2349.86	4.88093
2351.26	4.18937
2352.67	3.17711
2354.08	2.24518
2355.49	1.82709
2356.9	1.16311
2358.31	-0.049191
2359.71	-0.963964
2361.12	-1.36133
2362.53	-0.742886
2363.94	-0.627532
2365.34	-0.122099
2366.75	0.216212
2368.15	0.333346
2369.56	-0.231792
2370.97	-0.183653
2372.37	0.441251
2373.78	1.31568
2375.18	1.26498
2376.59	1.53436
2377.99	1.80184
2379.39	1.39324
2380.8	1.5278
2382.2	1.93141
2383.61	2.08666
2385.01	2.80005
2386.41	3.41619
2387.81	2.85629
2389.22	2.85157
2390.62	3.32194
2392.02	4.04117
2393.42	3.24899
2394.82	3.54461
2396.22	3.62477
2397.63	4.22269
2399.02	4.06615
2400.43	2.9212
2401.82	3.30184
2403.23	3.68272
2404.62	4.42622
2406.02	4.32805
2407.42	4.67815
2408.82	5.17442
2410.22	5.60811
2411.62	5.82347
2413.02	5.63331
2414.41	4.81196
2415.81	5.07768
2417.21	5.33071
2418.61	5.50293
2420	5.41807
2421.4	4.86003
2422.79	4.52614
2424.19	4.90399
2425.59	5.03304
2426.98	4.61218
2428.38	4.19016
2429.77	3.78337
2431.17	3.86987
2432.56	4.06587
2433.96	3.54475
2435.35	3.21935
2436.74	3.43921
2438.14	3.65127
2439.53	3.53576
2440.92	3.84284
2442.32	3.74979
2443.71	4.35053
2445.1	4.52407
2446.49	4.91542
2447.88	5.1514
2449.28	4.81554
2450.67	5.11015
2452.06	5.4047
2453.45	5.36384
2454.84	5.81238
2456.23	5.34652
2457.62	5.43233
2459.01	6.26674
2460.4	6.55896
2461.79	6.91624
2463.18	7.06163
2464.57	6.90238
2465.96	7.06257
2467.34	6.62543
2468.73	6.64265
2470.12	6.51833
2471.51	6.89186
2472.89	7.32125
2474.28	7.17325
2475.67	6.52503
2477.05	6.80134
2478.44	6.37096
2479.83	5.64278
2481.21	5.71567
2482.6	5.69405
2483.98	4.9628
2485.37	5.08681
2486.75	4.9497
2488.14	4.45407
2489.52	3.71487
2490.9	3.80299
2492.29	3.57955
2493.67	3.41235
2495.06	3.06772
2496.44	2.5824
2497.82	1.42
2499.2	0.87535
2500.59	1.40921
2501.97	1.4997
2503.35	0.798069
2504.73	0.661443
2506.11	1.03234
2507.49	0.908713
2508.88	0.324962
2510.26	0.107434
2511.63	0.631819
2513.01	1.54561
2514.39	1.35555
2515.77	1.07711
2517.15	1.09128
2518.53	1.09263
2519.91	1.66135
2521.29	1.9677
2522.67	1.84636
2524.05	2.11084
2525.42	2.199
2526.8	2.88587
2528.18	3.07368
2529.56	3.24883
2530.93	2.88345
2532.31	2.50667
2533.69	1.54399
2535.06	1.96007
2536.44	1.02809
2537.81	1.30883
2539.19	0.877707
2540.56	0.727039
2541.94	1.17151
2543.31	1.43679
2544.69	2.05007
2546.06	2.51259
2547.44	2.0082
2548.81	2.34248
2550.18	2.4166
2551.56	3.04908
2552.93	2.89293
2554.3	3.6165
2555.68	4.10585
2557.05	4.7895
2558.42	5.70968
2559.79	6.25193
2561.16	6.2512
2562.53	6.92844
2563.9	7.31208
2565.28	7.41039
2566.64	7.51946
2568.02	8.66923
2569.38	8.58192
2570.76	8.42704
2572.12	8.78047
2573.49	8.82612
2574.86	9.06017
2576.23	8.85317
2577.6	8.83448
2578.97	9.3208
2580.34	9.47916
2581.7	9.56435
2583.07	9.22596
2584.44	8.96105
2585.81	8.62152
2587.17	7.83059
2588.54	7.31238
2589.91	6.44656
2591.27	6.11669
2592.64	5.54524
2594	5.20834
2595.37	5.20306
2596.73	4.75409
2598.1	4.88218
2599.46	3.98977
2600.83	3.32342
2602.19	3.20042
2603.55	2.75227
2604.92	2.01226
2606.28	2.5064
2607.64	2.22954
2609.01	2.60416
2610.37	3.22443
2611.73	3.02552
2613.09	3.05035
2614.46	3.55433
2615.82	3.73427
2617.18	4.39265
2618.54	4.93168
2619.9	5.78813
2621.26	6.0419
2622.62	6.59385
2623.98	5.95018
2625.34	6.38586
2626.7	6.61481
2628.06	6.6905
2629.42	7.09218
2630.78	7.16753
2632.14	6.87662
2633.5	6.98547
2634.86	6.377
2636.22	6.27281
2637.57	6.14093
2638.93	6.35976
2640.29	6.43087
2641.64	5.79191
2643	6.05955
2644.36	6.29556
2645.72	6.21727
2647.07	5.55116
2648.43	4.80363
2649.78	4.35158
2651.14	3.91024
2652.49	3.37203
2653.85	2.47718
2655.2	2.06415
2656.56	2.20263
2657.91	2.21404
2659.27	1.78995
2660.62	1.26477
2661.97	1.3235
2663.33	1.18517
2664.68	0.824303
2666.03	1.01604
2667.38	0.661626
2668.74	0.923159
2670.09	1.79494
2671.44	1.83838
2672.79	2.52951
2674.14	3.21948
2675.49	3.59791
2676.84	4.15816
2678.2	4.0912
2679.55	4.38289
2680.89	5.05022
2682.24	5.56011
2683.59	5.12828
2684.94	5.04519
2686.29	4.95688
2687.64	5.47819
2688.99	5.7719
2690.34	5.58905
2691.69	4.91606
2693.04	6.01046
2694.38	6.62899
2695.73	6.72722
2697.08	6.88048
2698.43	7.18966
2699.77	7.47972
2701.12	7.94216
2702.46	7.82038
2703.81	8.34304
2705.16	8.89694
2706.5	8.66679
2707.85	9.26897
2709.19	9.14524
2710.54	9.55224
2711.88	9.30571
2713.23	8.80848
2714.57	8.53387
2715.92	8.0567
2717.26	7.87417
2718.6	8.39755
2719.95	8.09962
2721.29	8.14099
2722.63	8.1606
2723.97	8.32984
2725.32	8.24135
2726.66	8.07287
2728	7.94298
2729.34	8.07424
2730.68	8.2761
2732.02	8.04851
2733.36	8.32807
2734.7	7.8765
2736.04	7.5074
2737.39	7.45384
2738.72	6.77661
2740.06	6.38181
2741.4	6.16658
2742.74	5.87236
2744.08	5.58637
2745.42	4.80635
2746.76	4.79101
2748.1	4.14506
2749.44	3.57041
2750.77	2.977
2752.11	2.68781
2753.45	2.62903
2754.78	3.23401
2756.12	2.84972
2757.46	2.36472
2758.79	2.56457
2760.13	3.08088
2761.47	2.65442
2762.8	1.96116
2764.14	1.72382
2765.47	1.72058
2766.81	1.66373
2768.14	1.1271
2769.48	0.865963
2770.81	1.18802
2772.14	1.62564
2773.48	1.75288
2774.81	1.49995
2776.14	0.911717
2777.48	0.96689
2778.81	0.806858
2780.14	0.517442
2781.47	0.306339
2782.81	0.742653
2784.14	1.53871
2785.47	2.17254
2786.8	1.8126
2788.13	1.5004
2789.46	0.591328
2790.79	0.405634
2792.12	0.387723
2793.46	0.149687
2794.79	-0.539787
2796.11	0.19521
2797.44	0.167335
2798.77	0.122417
2800.1	0.247721
2801.43	0.512368
2802.76	1.08487
2804.09	0.974326
2805.42	0.669725
2806.74	0.876178
2808.07	1.06703
2809.4	0.781689
2810.73	0.788231
2812.05	0.992748
2813.38	1.56856
2814.71	2.37296
2816.03	2.98022
2817.36	4.23525
2818.68	5.74542
2820.01	7.11068
2821.33	8.56953
2822.66	9.44704
2823.98	10.6126
2825.31	12.3216
2826.63	14.1711
2827.96	15.9136
2829.28	18.402
2830.61	21.218
2831.93	23.8582
2833.25	26.5362
2834.57	29.2869
2835.9	32.3428
2837.22	35.5592
2838.54	38.627
2839.86	41.0748
2841.18	42.5676
2842.51	44.7493
2843.83	47.4483
2845.15	50.0392
2846.47	52.8991
2847.79	56.2091
2849.11	59.8558
2850.43	62.4419
2851.75	65.084
2853.07	67.4557
2854.39	69.5941
2855.71	72.543
2857.03	75.0158
2858.35	78.1192
2859.67	80.3336
2860.98	82.6029
2862.3	84.6015
2863.62	86.085
2864.94	87.9186
2866.25	88.8752
2867.57	90.2876
2868.89	90.8031
2870.21	91.1969
2871.52	92.069
2872.84	92.8456
2874.15	93.7314
2875.47	94.9606
2876.78	96.7606
2878.1	97.3691
2879.42	98.4316
2880.73	99.5005
2882.04	100.955
2883.36	102.452
2884.67	103.736
2885.99	105.402
2887.3	106.675
2888.61	107.859
2889.93	109.58
2891.24	111.53
2892.55	114.001
2893.87	115.682
2895.18	117.46
2896.49	119.709
2897.8	122.485
2899.11	125.413
2900.42	127.981
2901.74	130.24
2903.05	134.042
2904.36	136.393
2905.67	139.165
2906.98	142.354
2908.29	146.429
2909.6	151.173
2910.91	155.646
2912.22	159.886
2913.53	164.311
2914.83	168.061
2916.14	171.841
2917.45	175.675
2918.76	178.86
2920.07	182.687
2921.37	185.767
2922.68	187.645
2923.99	190.637
2925.3	192.366
2926.6	193.819
2927.91	194.389
2929.22	195.657
2930.52	196.026
2931.83	195.804
2933.13	195.748
2934.44	194.913
2935.74	194.576
2937.05	193.637
2938.35	192.388
2939.66	191.298
2940.96	189.077
2942.27	186.498
2943.57	183.377
2944.87	180.659
2946.18	178.139
2947.48	175.018
2948.78	171.038
2950.09	167.128
2951.39	163.174
2952.69	158.36
2953.99	154.85
2955.29	150.621
2956.6	146.711
2957.9	142.735
2959.2	138.302
2960.5	134.364
2961.8	130.743
2963.1	126.797
2964.4	122.915
2965.7	118.735
2967	115.14
2968.3	112.158
2969.6	108.111
2970.9	105.652
2972.2	102.483
2973.49	99.3049
2974.79	95.563
2976.09	92.1676
2977.39	88.7777
2978.69	86.227
2979.98	82.7525
2981.28	79.7932
2982.58	76.2314
2983.88	73.0739
2985.17	70.1894
2986.47	66.3001
2987.76	63.1868
2989.06	60.7963
2990.36	57.6139
2991.65	54.6998
2992.95	52.1167
2994.24	49.6238
2995.54	46.8569
2996.83	44.5907
2998.12	42.4193
2999.42	40.2226
3000.71	37.9582
3002	35.5093
3003.3	32.7387
3004.59	30.0504
3005.88	26.996
3007.18	25.7395
3008.47	23.7465
3009.76	21.5203
3011.05	19.8611
3012.35	17.8195
3013.64	16.1307
3014.93	15.0104
3016.22	13.7484
3017.51	12.4193
3018.8	11.7411
3020.09	10.3737
3021.38	10.2932
3022.67	9.39613
3023.96	8.35077
3025.25	7.85128
3026.54	7.18561
3027.83	6.72667
3029.12	6.83562
3030.41	5.85425
3031.69	5.8745
3032.98	5.91211
3034.27	5.68851
3035.56	5.7935
3036.85	4.61698
3038.13	4.05583
3039.42	2.8993
3040.71	3.77135
3041.99	4.15882
3043.28	4.64854
3044.57	5.02463
3045.85	4.81713
3047.14	5.51634
3048.42	5.37465
3049.71	5.73948
3050.99	5.76258
3052.28	5.59353
3053.56	5.70944
3054.85	5.30776
3056.13	5.82282
3057.42	6.02093
3058.7	5.85464
3059.98	5.70129
3061.27	5.78566
3062.55	5.52114
3063.83	5.48704
3065.11	5.3244
3066.4	5.2757
3067.68	4.75903
3068.96	4.62676
3070.24	4.85493
3071.52	5.35607
3072.8	4.92959
3074.09	4.4593
3075.37	4.32891
3076.65	4.32361
3077.93	4.20776
3079.21	4.53278
3080.49	4.22824
3081.77	4.1334
3083.05	4.0297
3084.32	3.95195
3085.61	3.93647
3086.88	3.62775
3088.16	3.07555
3089.44	3.06174
3090.72	2.46613
3092	2.83681
3093.27	3.57434
3094.55	3.37823
3095.83	3.43604
3097.11	3.25017
3098.38	2.71166
3099.66	2.27699
3100.94	1.56155
3102.21	1.95238
3103.49	1.57152
3104.76	2.58436
3106.04	2.93841
3107.31	3.34159
3108.59	3.31512
3109.86	2.31111
3111.14	2.49221
3112.41	1.45756
3113.69	1.80723
3114.96	1.99407
3116.23	2.17258
3117.51	2.84267
3118.78	3.22876
3120.05	4.0818
3121.33	4.28042
3122.6	4.38635
3123.87	4.57319
3125.14	5.63832
3126.42	6.30821
3127.69	7.29798
3128.96	7.54985
3130.23	7.85103
3131.5	8.45883
3132.77	9.05229
3134.04	9.88167
3135.31	10.707
3136.58	11.129
3137.85	11.2172
3139.12	11.862
3140.39	12.5712
3141.66	13.2016
3142.93	13.7197
3144.2	14.2659
3145.47	15.049
3146.74	15.6945
3148	15.7595
3149.27	15.399
