#Acq. time (s)=	45
#Accumulations=	2
#Range (cm-¹)=	200...3150
#Windows=	2
#Auto scanning=	Off
#Autofocus=	Off
#Macrospot=	Off
#AutoExposure=	Off
#Spike filter=	Multiple accum.
#Delay time (s)=	0
#Binning=	1
#Readout mode=	Signal
#DeNoise=	Off
#ICS correction=	On
#Dark correction=	Off
#Inst. Process=	Off
#Detector Gain=	Best Dynamic Range
#Detector ADC=	20 kHz       
#Detector temperature (°C)=	-69.85
#Instrument=	LabRAM HR Evol
#Detector=	Synapse
#Objective=	x100
#Grating=	600 gr/mm
#ND Filter=	100%
#Laser (nm)=	532 
#Hole=	100.021
#Range=	Auto
#Laser Pol.=	No
#Raman. Pol.=	No
#Laser Pol. (°)=	-0.0007625
#Raman Pol. (°)=	89.9995
#Collection=	Microscope
#StageXY=	Marzhauser
#StageZ=	Marzhauser
#X (µm)=	28454.7
#Y (µm)=	-2984.1
#Z (µm)=	1043.05
#Full time(mm:ss)=	3:19
#Project=	
#Sample=	
#Site=	
#Title=	Mb_50_18_45_2x_45s_532 nm_x100_100%_600 gr_mm
#Remark=	
#Date=	12.07.2022 14:33
#Acquired=	12.07.2022 14:33:02
#Base:Fit=	10.08.2022 10:49:18
#Base:Sub=	10.08.2022 10:49:30
#Filter:Polynom=	16.08.2022 10:14:59
#AxisType[0]=Intens
#AxisUnit[0]=Cnt
#AxisType[1]=Spectr
#AxisUnit[1]=1/cm
200.388	19.4593
202.204	23.224
204.019	24.4018
205.832	26.3283
207.646	26.5065
209.459	25.82
211.274	24.313
213.087	22.3184
214.899	20.9642
216.711	19.8267
218.524	19.0248
220.335	17.7015
222.146	17.106
223.956	15.5547
225.766	15.0184
227.576	14.8653
229.388	14.3031
231.197	14.4368
233.005	14.7842
234.813	15.398
236.621	14.922
238.429	15.628
240.236	15.5006
242.045	15.8772
243.852	15.8004
245.658	15.6967
247.464	15.8252
249.269	14.9692
251.074	14.6213
252.879	14.7037
254.683	15.6539
256.487	16.2151
258.291	15.4458
260.094	16.4028
261.897	16.1594
263.702	17.0751
265.504	16.9576
267.306	17.0864
269.108	16.8354
270.909	18.0744
272.71	18.3504
274.511	18.4341
276.311	19.5723
278.111	18.6646
279.91	19.1443
281.709	18.5886
283.508	18.4503
285.306	20.0256
287.105	19.9148
288.9	19.7237
290.698	18.7987
292.495	18.2657
294.291	17.7441
296.088	16.5606
297.884	16.7529
299.679	16.2754
301.475	17.0581
303.27	17.4663
305.064	17.4583
306.858	17.7696
308.652	17.3709
310.444	16.8429
312.237	17.1212
314.03	16.9812
315.822	17.4892
317.615	17.5404
319.406	18.2534
321.198	18.6134
322.987	17.9297
324.778	18.1628
326.568	17.7889
328.358	18.0406
330.148	17.5029
331.935	17.8946
333.724	17.1848
335.513	16.1896
337.301	15.8839
339.089	15.5425
340.875	16.5803
342.662	17.0576
344.449	16.8515
346.236	16.7997
348.02	17.0119
349.806	17.5774
351.592	18.2485
353.375	19.0276
355.16	19.1658
356.944	20.1759
358.728	22.2068
360.51	24.2691
362.294	24.8781
364.077	26.584
365.858	27.0666
367.64	28.2126
369.422	30.5267
371.202	32.1328
372.983	33.9051
374.764	34.3764
376.543	34.1721
378.324	34.7779
380.102	35.4885
381.881	35.6386
383.661	36.8413
385.438	37.5543
387.216	38.1983
388.993	38.0537
390.771	37.8362
392.548	36.7695
394.324	35.144
396.101	35.1993
397.875	32.6564
399.651	31.6464
401.425	31.0543
403.201	30.1322
404.974	28.0332
406.749	26.7402
408.524	24.9945
410.296	22.5557
412.07	20.3256
413.841	19.788
415.614	17.4138
417.385	15.1685
419.156	13.4358
420.928	12.2051
422.698	9.8047
424.469	8.71781
426.238	8.73927
428.009	8.13332
429.777	7.6694
431.548	6.81972
433.315	5.96389
435.083	5.70199
436.852	4.00323
438.618	3.85838
440.387	4.6102
442.153	3.39901
443.919	4.24417
445.686	4.99729
447.451	5.92208
449.218	5.98765
450.982	4.7883
452.746	5.75857
454.512	6.37286
456.275	7.23099
458.038	6.41226
459.803	6.76616
461.565	6.5227
463.327	6.9081
465.091	7.49154
466.852	8.08134
468.613	7.90341
470.374	7.8678
472.136	9.83096
473.896	9.55071
475.655	10.7262
477.415	10.6332
479.176	10.9887
480.934	11.6509
482.692	12.495
484.45	13.5919
486.21	14.2519
487.967	15.7011
489.724	17.3825
491.481	19.1714
493.237	20.6702
494.995	23.3891
496.75	25.172
498.506	26.284
500.26	27.1974
502.015	28.5636
503.771	29.8421
505.525	31.8105
507.279	33.8803
509.032	35.0175
510.785	35.6225
512.537	36.5957
514.289	36.7076
516.041	36.8811
517.793	37.7814
519.546	37.5112
521.297	37.3961
523.047	37.3698
524.797	35.6913
526.547	36.904
528.297	36.2955
530.046	35.5023
531.795	34.6923
533.543	33.2271
535.291	31.5248
537.039	29.5378
538.787	28.5434
540.534	27.8248
542.281	25.503
544.027	23.5888
545.773	22.3217
547.519	20.6008
549.264	17.8224
551.01	15.928
552.754	13.5764
554.499	10.7881
556.243	9.39115
557.987	8.17216
559.73	8.31906
561.474	6.9051
563.216	5.65636
564.959	4.23909
566.701	3.28978
568.441	3.19309
570.182	3.21356
571.923	2.55572
573.664	3.47178
575.405	3.75096
577.145	4.17922
578.885	4.94179
580.624	4.82896
582.361	4.79178
584.1	4.76255
585.839	4.94736
587.577	5.9769
589.315	7.13121
591.052	8.22184
592.787	8.70549
594.524	9.36226
596.26	10.1963
597.997	10.7514
599.732	11.0706
601.466	10.8813
603.201	11.6767
604.936	12.0886
606.67	12.0188
608.403	12.0977
610.136	11.9648
611.87	11.24
613.603	11.3986
615.334	10.3847
617.067	10.4081
618.799	9.59548
620.529	8.85271
622.26	8.59221
623.991	7.55465
625.72	7.42352
627.451	6.64242
629.181	6.40088
630.909	6.08815
632.638	4.78332
634.368	4.20691
636.095	4.28785
637.823	4.53703
639.551	4.69633
641.277	4.64324
643.005	5.69307
644.73	5.24734
646.457	4.98714
648.184	4.99016
649.908	4.88538
651.634	5.16262
653.357	4.62595
655.083	5.77013
656.806	5.81715
658.53	6.03805
660.253	7.43518
661.977	7.89463
663.7	8.59601
665.422	10.1722
667.145	10.9805
668.865	12.3169
670.588	13.8342
672.308	14.635
674.027	15.5589
675.749	16.5793
677.468	18.1369
679.188	18.4976
680.907	19.0949
682.627	20.4324
684.345	20.4125
686.064	21.9474
687.781	23.1878
689.498	24.1253
691.216	24.7109
692.932	26.1045
694.65	27.2236
696.366	28.523
698.081	29.3773
699.797	29.4106
701.512	30.7971
703.228	31.437
704.942	31.8456
706.655	33.5761
708.371	34.6768
710.083	35.2005
711.796	36.2997
713.51	36.9562
715.222	37.6956
716.934	37.8334
718.645	39.33
720.358	41.2585
722.068	41.3498
723.779	40.9524
725.49	40.9908
727.2	40.4465
728.909	40.4599
730.618	40.1445
732.329	40.8478
734.037	41.7493
735.745	42.9796
737.453	44.8025
739.16	46.7739
740.869	49.9392
742.576	52.5461
744.282	55.6888
745.988	58.7686
747.694	61.4167
749.401	63.6315
751.107	65.1434
752.811	68.4822
754.516	70.7507
756.22	72.5727
757.924	74.0217
759.627	76.1151
761.332	78.0179
763.035	80.4764
764.738	80.8181
766.44	82.9054
768.142	85.3124
769.843	87.1981
771.544	88.7832
773.245	88.6221
774.946	89.6504
776.646	90.4924
778.346	92.0035
780.046	91.3416
781.745	90.9856
783.444	90.6121
785.143	91.4053
786.841	92.4998
788.539	91.7087
790.237	91.1313
791.934	89.6492
793.631	88.0997
795.328	85.9011
797.024	83.4296
798.72	81.5999
800.416	80.246
802.112	78.6783
803.807	77.4372
805.502	75.7493
807.196	72.5962
808.89	70.1386
810.584	69.0981
812.278	68.4133
813.971	67.8187
815.664	67.0886
817.354	67.3388
819.047	67.5514
820.739	68.2008
822.43	68.0426
824.122	67.4917
825.813	67.9735
827.503	68.4178
829.192	67.8352
830.882	67.2767
832.571	67.1028
834.261	66.6583
835.95	66.7091
837.637	66.9502
839.325	64.8875
841.013	64.2676
842.701	64.1773
844.389	63.6232
846.074	63.0263
847.761	61.7457
849.447	59.0589
851.131	57.3777
852.817	57.1371
854.503	55.0974
856.188	52.8188
857.871	51.2856
859.556	50.8725
861.24	49.086
862.922	49.2725
864.606	47.8446
866.289	47.6975
867.97	48.1691
869.653	47.6346
871.336	45.5651
873.016	44.0247
874.698	42.8747
876.379	41.1999
878.058	39.8147
879.739	38.9017
881.418	38.6371
883.098	38.998
884.778	39.7638
886.456	39.0257
888.135	38.0046
889.812	38.6846
891.49	37.5246
893.167	38.4649
894.845	39.7111
896.523	39.5414
898.198	39.5759
899.875	39.8593
901.55	40.5583
903.226	41.3655
904.901	42.1934
906.576	42.1715
908.25	42.9802
909.925	43.8901
911.598	44.1901
913.271	44.1327
914.945	44.3687
916.617	44.2868
918.291	43.4941
919.962	42.5213
921.635	41.7036
923.306	40.2697
924.978	39.7229
926.648	38.6747
928.318	37.2751
929.989	35.8784
931.659	34.1642
933.328	32.6217
934.998	31.2335
936.666	30.7771
938.336	28.8846
940.004	28.3999
941.671	27.6758
943.34	26.6034
945.007	25.7848
946.673	24.5418
948.339	22.5796
950.007	21.8762
951.672	21.3929
953.337	19.318
955.004	17.814
956.669	16.9213
958.333	16.0387
959.997	14.4708
961.662	13.0404
963.326	13.0555
964.989	12.2664
966.651	12.9919
968.315	12.1218
969.977	11.2958
971.639	11.6322
973.301	11.9412
974.962	10.6043
976.624	11.4846
978.285	10.3278
979.945	9.37216
981.605	9.86034
983.264	8.96321
984.924	8.65834
986.583	8.35249
988.243	7.36248
989.901	6.84066
991.56	5.8956
993.217	5.82264
994.875	6.45623
996.532	7.46922
998.188	8.01654
999.845	8.09164
1001.5	9.29431
1003.16	10.0347
1004.81	11.8402
1006.47	13.2523
1008.12	15.2349
1009.78	17.7256
1011.43	19.0839
1013.09	20.2248
1014.74	22.1592
1016.39	24.2621
1018.05	25.4233
1019.7	27.2803
1021.35	29.0345
1023	30.2165
1024.65	31.4222
1026.31	31.2997
1027.96	32.468
1029.61	32.6832
1031.26	33.8543
1032.91	35.7369
1034.56	35.4691
1036.21	35.9654
1037.86	35.386
1039.51	35.0741
1041.16	34.9444
1042.8	34.3721
1044.45	35.0045
1046.1	35.5238
1047.75	35.2268
1049.39	34.6693
1051.04	32.2869
1052.69	31.3346
1054.33	29.9866
1055.98	27.9253
1057.62	28.0129
1059.27	28.0538
1060.91	26.6233
1062.56	25.9695
1064.2	25.8414
1065.85	24.3555
1067.49	24.3641
1069.13	24.2551
1070.77	23.1504
1072.42	22.7501
1074.06	22.3988
1075.7	23.0925
1077.34	23.1998
1078.98	22.5515
1080.62	22.5983
1082.27	21.5594
1083.91	21.517
1085.55	21.0598
1087.18	22.7091
1088.82	23.3297
1090.46	24.4652
1092.1	25.6094
1093.74	25.16
1095.38	25.3594
1097.02	25.8707
1098.65	25.65
1100.29	25.2637
1101.93	25.9894
1103.56	25.8951
1105.2	24.6917
1106.84	24.2851
1108.47	23.7271
1110.11	23.5138
1111.74	23.2362
1113.38	23.4494
1115.01	23.3144
1116.64	22.266
1118.28	22.1851
1119.91	20.5725
1121.54	20.7884
1123.18	21.2327
1124.81	20.0063
1126.44	19.5895
1128.07	18.3275
1129.7	18.3622
1131.33	17.6223
1132.97	17.316
1134.6	17.8569
1136.23	18.2048
1137.86	18.8262
1139.49	19.549
1141.11	19.5719
1142.74	18.9555
1144.37	17.7977
1146	16.5642
1147.63	15.1933
1149.26	14.327
1150.88	12.7284
1152.51	11.2666
1154.14	9.74679
1155.76	8.48076
1157.39	6.99561
1159.01	6.50159
1160.64	6.25919
1162.27	5.60078
1163.89	4.41941
1165.51	4.5806
1167.14	5.27828
1168.76	7.02446
1170.39	6.96307
1172.01	8.1366
1173.63	7.16851
1175.25	6.20358
1176.88	5.90302
1178.5	5.97538
1180.12	5.53377
1181.74	5.69077
1183.36	5.58258
1184.98	4.07792
1186.6	4.09779
1188.22	5.12643
1189.84	5.07556
1191.46	4.85481
1193.08	5.2589
1194.7	5.08671
1196.32	5.77667
1197.94	6.43205
1199.55	6.71717
1201.17	6.58915
1202.79	7.22866
1204.41	7.51399
1206.02	8.34436
1207.64	9.10785
1209.25	9.96068
1210.87	10.4486
1212.48	10.9206
1214.1	12.0099
1215.71	12.8336
1217.33	13.7443
1218.94	15.0615
1220.56	15.3506
1222.17	16.1885
1223.79	15.9
1225.4	16.1472
1227.01	17.1457
1228.62	18.7499
1230.23	18.4763
1231.85	18.9738
1233.46	19.6222
1235.07	19.8494
1236.68	20.8259
1238.29	21.2251
1239.9	21.5525
1241.51	22.8811
1243.12	24.0189
1244.73	24.8459
1246.34	26.5419
1247.94	27.1086
1249.55	27.4523
1251.16	26.8218
1252.77	27.564
1254.37	26.558
1255.98	27.588
1257.59	28.1489
1259.2	28.3497
1260.8	28.6135
1262.41	28.495
1264.01	29.5284
1265.62	30.1556
1267.22	31.4695
1268.83	31.9363
1270.43	32.2436
1272.03	32.9894
1273.64	32.9656
1275.24	34.3459
1276.85	35.5293
1278.45	36.031
1280.05	36.6317
1281.65	36.7815
1283.25	37.7392
1284.85	38.3145
1286.46	39.6922
1288.06	40.5203
1289.66	42.1251
1291.26	42.7685
1292.86	43.4428
1294.46	43.8318
1296.06	45.4237
1297.66	46.2022
1299.25	47.4213
1300.85	46.466
1302.45	47.3191
1304.05	47.6539
1305.65	47.9897
1307.24	46.819
1308.84	46.4267
1310.43	45.8878
1312.03	46.3894
1313.63	47.4425
1315.22	46.516
1316.82	45.7797
1318.41	46.317
1320.01	46.9008
1321.6	47.8126
1323.2	47.732
1324.79	46.4146
1326.38	46.0947
1327.98	44.092
1329.57	43.6142
1331.16	43.3379
1332.76	43.8239
1334.35	43.9835
1335.94	43.9873
1337.53	43.3434
1339.12	42.0661
1340.71	42.02
1342.3	41.2858
1343.89	41.6037
1345.48	40.4952
1347.07	39.5719
1348.66	39.9205
1350.25	39.8744
1351.84	38.9676
1353.43	38.396
1355.01	39.2703
1356.6	38.2794
1358.19	37.7218
1359.77	36.8885
1361.36	35.7725
1362.95	35.8238
1364.53	35.6835
1366.12	35.6117
1367.71	34.3883
1369.29	32.9695
1370.88	32.0349
1372.46	31.503
1374.04	31.7619
1375.63	31.1002
1377.21	30.103
1378.8	29.2176
1380.38	26.3574
1381.96	26.3981
1383.54	25.51
1385.13	24.8975
1386.71	24.0361
1388.29	24.1778
1389.87	24.4197
1391.45	24.1831
1393.03	25.0544
1394.61	23.6924
1396.19	24.3829
1397.77	24.7862
1399.35	24.4991
1400.93	24.2773
1402.51	24.0253
1404.09	24.464
1405.67	25.5911
1407.24	26.8582
1408.82	29.5372
1410.4	31.5209
1411.98	34.2075
1413.55	36.5963
1415.13	38.5571
1416.71	41.079
1418.28	42.8447
1419.86	45.6654
1421.43	48.0328
1423.01	50.3729
1424.58	53.5012
1426.16	55.8812
1427.73	58.3714
1429.31	60.0907
1430.88	62.2251
1432.45	64.4271
1434.02	65.3591
1435.6	65.5468
1437.17	66.2766
1438.74	67.6576
1440.31	69.1566
1441.88	69.9138
1443.45	70.0969
1445.03	69.985
1446.6	69.5733
1448.17	71.1688
1449.74	72.0459
1451.3	72.4443
1452.87	72.2585
1454.44	72.208
1456.01	72.5602
1457.58	72.139
1459.15	72.4049
1460.72	74.2277
1462.28	74.5247
1463.85	73.8768
1465.42	72.7676
1466.98	72.986
1468.55	73.0809
1470.12	72.9502
1471.68	72.8491
1473.25	71.6133
1474.81	71.3805
1476.38	71.0393
1477.94	70.0753
1479.51	68.9845
1481.07	68.0729
1482.63	67.7225
1484.2	67.2211
1485.76	66.4817
1487.32	66.186
1488.88	65.0783
1490.45	64.1482
1492.01	62.8303
1493.57	61.4904
1495.13	60.0674
1496.69	58.3491
1498.25	56.5871
1499.81	54.7348
1501.37	51.6741
1502.93	49.5801
1504.49	45.6917
1506.05	43.1349
1507.61	40.4813
1509.17	37.9913
1510.73	34.3323
1512.28	30.6997
1513.84	27.9907
1515.4	26.5556
1516.96	25.0187
1518.51	23.0954
1520.07	21.1276
1521.63	20.5783
1523.18	19.3488
1524.74	18.1475
1526.29	18.7933
1527.85	17.3696
1529.4	16.318
1530.96	15.5083
1532.51	16.9243
1534.06	17.1363
1535.62	18.11
1537.17	19.0696
1538.72	20.3054
1540.28	20.3758
1541.83	21.0823
1543.38	22.01
1544.93	23.08
1546.48	23.6227
1548.03	24.7053
1549.59	25.1429
1551.14	25.3252
1552.69	25.9206
1554.24	25.8537
1555.79	25.6983
1557.34	26.3984
1558.88	27.1966
1560.43	27.738
1561.98	28.81
1563.53	29.3657
1565.08	30.2614
1566.62	31.037
1568.17	32.0734
1569.72	32.6187
1571.27	33.3272
1572.81	34.6852
1574.36	35.4825
1575.9	36.0151
1577.45	36.7598
1579	36.8865
1580.54	38.6872
1582.09	38.9894
1583.63	40.2285
1585.17	41.2177
1586.72	41.4791
1588.26	42.2224
1589.8	43.0449
1591.35	44.5021
1592.89	46.2867
1594.43	46.9825
1595.97	48.2792
1597.52	49.3775
1599.06	50.0219
1600.6	49.2551
1602.14	48.8629
1603.68	50.2131
1605.22	50.027
1606.76	50.4076
1608.3	50.9954
1609.84	52.3972
1611.38	51.7359
1612.92	51.3141
1614.46	47.3389
1615.99	46.4781
1617.53	46.3774
1619.07	47.7736
1620.61	48.3199
1622.14	48.7482
1623.68	50.0984
1625.22	50.8686
1626.75	51.9899
1628.29	52.7218
1629.82	52.7494
1631.36	53.3152
1632.9	53.7445
1634.43	54.6509
1635.96	55.8031
1637.5	56.882
1639.03	58.2433
1640.57	58.9432
1642.1	59.4805
1643.63	60.3931
1645.16	60.9343
1646.7	60.6607
1648.23	62.0345
1649.76	62.6984
1651.29	62.2991
1652.82	62.3743
1654.36	62.6094
1655.89	62.6173
1657.42	61.6377
1658.95	60.1615
1660.48	59.6213
1662.01	58.7688
1663.53	57.3187
1665.06	56.881
1666.59	55.2953
1668.12	54.3618
1669.65	52.5521
1671.18	50.5082
1672.7	48.3675
1674.23	45.9824
1675.76	42.7527
1677.29	40.0901
1678.81	37.919
1680.34	36.1058
1681.86	32.2259
1683.39	29.7479
1684.91	26.7472
1686.44	23.9
1687.96	21.0937
1689.49	18.9271
1691.01	17.05
1692.54	19.4427
1694.06	19.1815
1695.58	18.6825
1697.11	17.322
1698.63	16.6822
1700.15	16.2692
1701.67	15.4622
1703.2	14.8554
1704.72	13.8489
1706.24	12.9133
1707.76	13.3342
1709.28	13.0088
1710.8	12.892
1712.32	13.4734
1713.84	13.5021
1715.36	13.7222
1716.88	13.8657
1718.4	14.1605
1719.91	14.325
1721.43	14.2316
1722.95	14.1457
1724.47	15.0485
1725.99	15.4475
1727.5	15.7855
1729.02	15.7795
1730.54	15.4868
1732.05	15.3577
1733.57	14.9494
1735.09	15.7696
1736.6	15.649
1738.12	15.5607
1739.63	15.4125
1741.15	15.2524
1742.66	14.9229
1744.18	14.466
1745.69	14.0812
1747.2	13.7766
1748.72	13.7096
1750.23	13.7454
1751.74	13.3896
1753.25	13.0725
1754.77	12.8336
1756.28	12.9513
1757.79	12.2623
1759.3	12.5898
1760.81	12.2253
1762.32	11.9264
1763.83	11.7765
1765.34	10.5115
1766.85	9.57063
1768.36	8.54723
1769.87	7.58974
1771.38	7.69173
1772.89	7.11556
1774.4	6.43543
1775.91	5.55646
1777.41	5.01069
1778.92	4.54229
1780.43	4.40731
1781.94	3.84419
1783.44	3.39893
1784.95	3.26282
1786.45	3.35414
1787.96	4.21124
1789.47	4.42456
1790.97	3.82756
1792.48	3.06942
1793.98	2.85271
1795.48	2.9977
1796.99	3.2336
1798.49	3.26678
1800	3.50673
1801.5	3.69473
1803	3.62741
1804.51	3.73713
1806.01	4.42286
1807.51	4.8656
1809.01	4.52522
1810.51	4.6196
1812.02	4.84092
1813.52	5.10979
1815.02	4.99938
1816.52	4.95667
1818.02	4.67459
1819.52	4.92907
1821.02	5.37384
1822.52	6.34684
1824.02	6.95215
1825.51	7.54268
1827.01	7.96953
1828.51	8.16186
1830.01	8.91526
1831.51	9.1733
1833	9.0052
1834.5	9.09402
1836	9.26098
1837.5	8.70339
1838.99	8.54851
1840.49	8.30893
1841.98	8.61153
1843.48	8.31773
1844.97	8.20089
1846.47	7.8157
1847.96	8.24732
1849.46	7.96953
1850.95	8.1729
1852.45	8.79171
1853.94	8.94349
1855.43	8.58489
1856.92	7.49788
1858.42	6.98537
1859.91	7.52278
1861.4	7.41166
1862.89	7.04142
1864.39	6.94246
1865.88	5.94332
1867.37	6.29903
1868.86	6.90974
1870.35	7.40199
1871.84	6.62293
1873.33	6.58114
1874.82	6.89107
1876.31	7.13575
1877.8	6.59197
1879.29	6.13961
1880.77	6.14947
1882.26	5.72059
1882.51	5.31981
1884	5.50849
1885.5	5.33531
1886.99	5.24705
1888.48	5.28967
1889.98	5.63754
1891.47	5.74045
1892.97	5.52869
1894.46	5.68843
1895.95	6.38553
1897.44	6.44488
1898.93	6.69941
1900.42	7.05866
1901.92	7.29503
1903.41	6.90969
1904.9	6.36943
1906.39	6.27803
1907.88	5.84354
1909.37	5.60153
1910.86	5.89807
1912.35	6.57345
1913.84	6.67696
1915.32	6.95612
1916.81	6.55067
1918.3	7.19766
1919.79	7.94695
1921.28	7.97194
1922.76	7.38818
1924.25	7.46991
1925.74	7.6487
1927.22	6.99946
1928.71	6.71529
1930.2	6.90641
1931.68	7.1148
1933.17	6.93991
1934.65	6.57157
1936.14	6.29649
1937.62	6.63258
1939.11	6.72669
1940.59	7.36813
1942.08	7.59236
1943.56	8.13851
1945.04	7.02088
1946.53	7.28907
1948.01	7.32408
1949.49	7.08575
1950.97	6.53914
1952.45	5.93346
1953.94	6.03561
1955.42	5.32387
1956.9	5.06829
1958.38	5.11846
1959.86	5.23124
1961.34	5.00404
1962.82	4.64635
1964.3	4.60591
1965.78	4.07662
1967.26	4.23488
1968.74	4.69043
1970.22	4.63379
1971.69	4.20769
1973.17	4.24578
1974.65	4.33642
1976.13	4.22768
1977.61	3.26381
1979.08	3.74129
1980.56	4.4881
1982.03	4.72239
1983.51	5.10176
1984.99	5.44359
1986.46	5.27346
1987.94	4.61723
1989.41	4.70912
1990.89	4.888
1992.36	5.48786
1993.84	5.67067
1995.31	4.92205
1996.78	5.65284
1998.26	5.88221
1999.73	5.87496
2001.2	5.85975
2002.68	5.79741
2004.15	5.2043
2005.62	4.98863
2007.09	5.48134
2008.56	5.74557
2010.04	5.5945
2011.51	6.42475
2012.98	6.98281
2014.45	6.92097
2015.92	6.42857
2017.39	6.48851
2018.86	5.79512
2020.33	6.8926
2021.8	7.01204
2023.27	6.44613
2024.74	5.67375
2026.2	5.78
2027.67	6.39714
2029.14	6.71491
2030.61	7.10538
2032.07	7.76319
2033.54	7.96452
2035.01	7.65282
2036.47	8.02264
2037.94	9.11892
2039.41	9.35963
2040.87	10.1446
2042.34	10.6023
2043.8	11.2884
2045.27	12.4917
2046.73	13.5137
2048.2	13.8313
2049.66	14.4153
2051.12	14.7865
2052.59	15.2981
2054.05	15.522
2055.51	15.3103
2056.98	15.4971
2058.44	15.8245
2059.9	16.0419
2061.36	16.3104
2062.82	17.0506
2064.29	17.7919
2065.75	18.5645
2067.21	18.993
2068.67	18.7872
2070.13	18.9979
2071.59	19.0648
2073.05	18.8331
2074.51	19.0747
2075.97	19.7057
2077.43	19.7075
2078.88	20.2575
2080.34	20.5042
2081.8	20.264
2083.26	20.8832
2084.72	21.4524
2086.17	21.5617
2087.63	21.6571
2089.09	22.0442
2090.54	22.6467
2092	23.7602
2093.46	24.4389
2094.91	24.1399
2096.37	25.0487
2097.82	25.6501
2099.28	26.1763
2100.73	27.2613
2102.19	27.8161
2103.64	28.4559
2105.09	29.2561
2106.55	29.3769
2108	30.6191
2109.46	31.4633
2110.91	32.4582
2112.36	33.3921
2113.81	34.9353
2115.27	36.7628
2116.72	37.443
2118.17	38.6958
2119.62	39.4041
2121.07	40.2665
2122.52	41.2881
2123.97	42.2771
2125.42	43.4165
2126.87	45.0039
2128.32	45.7952
2129.77	46.8624
2131.22	47.8143
2132.67	48.6442
2134.12	50.004
2135.57	51.1952
2137.01	52.6435
2138.46	53.7691
2139.91	53.7537
2141.36	54.4298
2142.8	55.0734
2144.25	55.9604
2145.7	56.3212
2147.14	57.1791
2148.59	57.8166
2150.03	58.0365
2151.48	58.8637
2152.92	59.402
2154.37	60.1072
2155.81	60.7361
2157.26	61.5338
2158.7	62.3428
2160.15	62.2556
2161.59	62.7944
2163.03	63.2976
2164.48	63.9798
2165.92	63.815
2167.36	63.6247
2168.8	64.1456
2170.25	63.7368
2171.69	63.9023
2173.13	64.0528
2174.57	63.3696
2176.01	63.0824
2177.45	62.849
2178.89	62.9634
2180.33	62.6515
2181.77	61.491
2183.21	61.5856
2184.65	61.7291
2186.09	61.4331
2187.53	61.4246
2188.97	60.2701
2190.41	60.1467
2191.84	59.6383
2193.28	58.7558
2194.72	58.5472
2196.16	58.1426
2197.59	57.7421
2199.03	56.2112
2200.47	55.4921
2201.9	54.8584
2203.34	54.0677
2204.78	53.5223
2206.21	52.5692
2207.65	51.9291
2209.08	51.1973
2210.51	49.6633
2211.95	47.9069
2213.38	47.0356
2214.82	45.4528
2216.25	44.212
2217.68	43.4102
2219.12	42.562
2220.55	41.6157
2221.98	40.8162
2223.42	40.0156
2224.85	39.3687
2226.28	38.4765
2227.71	37.2692
2229.14	36.1007
2230.57	34.2495
2232	32.4588
2233.43	31.6555
2234.86	29.9731
2236.29	28.7587
2237.72	28.0399
2239.15	26.7847
2240.58	25.9973
2242.01	24.4943
2243.44	23.3645
2244.87	21.8178
2246.3	20.6195
2247.73	18.9483
2249.15	18.5113
2250.58	17.646
2252.01	16.6039
2253.43	16.4017
2254.86	16.5623
2256.29	16.2383
2257.71	15.7745
2259.14	15.4989
2260.56	14.3947
2261.99	13.5687
2263.41	12.8492
2264.84	12.6773
2266.26	12.5366
2267.69	11.9195
2269.11	11.6261
2270.54	10.6731
2271.96	10.5949
2273.38	9.23641
2274.81	8.65189
2276.23	7.93848
2277.65	7.0511
2279.07	6.85716
2280.49	5.96696
2281.92	4.89924
2283.34	5.17451
2284.76	4.56108
2286.18	4.13732
2287.6	4.2204
2289.02	4.1114
2290.44	3.01643
2291.86	2.55253
2293.28	2.64678
2294.7	2.36014
2296.12	3.16085
2297.54	3.10135
2298.96	2.63764
2300.38	2.55225
2301.79	2.28941
2303.21	2.67299
2304.63	2.67382
2306.05	3.26593
2307.46	3.35408
2308.88	2.96118
2310.3	2.31557
2311.71	2.47297
2313.13	2.5196
2314.55	2.75862
2315.96	2.53308
2317.38	2.89692
2318.79	2.8739
2320.21	4.11541
2321.62	4.65838
2323.03	4.94528
2324.45	4.94331
2325.86	4.38243
2327.27	4.41002
2328.69	4.95177
2330.1	5.03993
2331.51	4.26049
2332.93	4.29988
2334.34	5.1716
2335.75	4.91117
2337.16	4.22449
2338.57	3.53817
2339.99	3.38
2341.4	2.84797
2342.81	2.76825
2344.22	2.04444
2345.63	2.44219
2347.04	2.50325
2348.45	2.28505
2349.86	1.8839
2351.26	1.17046
2352.67	0.533577
2354.08	0.805273
2355.49	0.288208
2356.9	0.569295
2358.31	0.74838
2359.71	0.884653
2361.12	0.762138
2362.53	2.0482
2363.94	2.7401
2365.34	3.59483
2366.75	4.62873
2368.15	3.97662
2369.56	3.50466
2370.97	4.11165
2372.37	4.13231
2373.78	4.80059
2375.18	4.88049
2376.59	5.43491
2377.99	4.55796
2379.39	4.85862
2380.8	4.92286
2382.2	4.92917
2383.61	4.91355
2385.01	4.88993
2386.41	4.85794
2387.81	5.31565
2389.22	5.41722
2390.62	5.64756
2392.02	5.48812
2393.42	5.24406
2394.82	4.96856
2396.22	4.48389
2397.63	4.9256
2399.02	4.8374
2400.43	4.05746
2401.82	3.72276
2403.23	4.00136
2404.62	3.99034
2406.02	3.11512
2407.42	2.80749
2408.82	2.66449
2410.22	2.93319
2411.62	2.49461
2413.02	1.9277
2414.41	1.00169
2415.81	1.27831
2417.21	1.39848
2418.61	0.652703
2420	0.69579
2421.4	0.421952
2422.79	0.818173
2424.19	0.984525
2425.59	1.21699
2426.98	1.24066
2428.38	1.40768
2429.77	1.28796
2431.17	1.55986
2432.56	2.29932
2433.96	2.24389
2435.35	2.0829
2436.74	2.49575
2438.14	2.41649
2439.53	2.90818
2440.92	2.96953
2442.32	3.44426
2443.71	3.75925
2445.1	3.80542
2446.49	2.82616
2447.88	1.98776
2449.28	2.63981
2450.67	2.50241
2452.06	3.19805
2453.45	3.57182
2454.84	3.28003
2456.23	3.48273
2457.62	4.02103
2459.01	4.03466
2460.4	3.59665
2461.79	3.47612
2463.18	2.97695
2464.57	2.47741
2465.96	3.09928
2467.34	4.29958
2468.73	4.0255
2470.12	3.66767
2471.51	3.73245
2472.89	3.76655
2474.28	3.4112
2475.67	3.51748
2477.05	2.99418
2478.44	2.98311
2479.83	2.60988
2481.21	2.42875
2482.6	2.34217
2483.98	2.44761
2485.37	2.79057
2486.75	2.71667
2488.14	2.69218
2489.52	2.32993
2490.9	2.18853
2492.29	2.12585
2493.67	1.59729
2495.06	2.06612
2496.44	2.08222
2497.82	2.26235
2499.2	2.64699
2500.59	2.52778
2501.97	2.46453
2503.35	2.22927
2504.73	2.67137
2506.11	3.0054
2507.49	2.6753
2508.88	2.58384
2510.26	2.46555
2511.63	3.19453
2513.01	3.18507
2514.39	2.77326
2515.77	2.36792
2517.15	2.83156
2518.53	3.75874
2519.91	3.85597
2521.29	3.42727
2522.67	2.70084
2524.05	2.52713
2525.42	2.83976
2526.8	3.09666
2528.18	3.74414
2529.56	3.65629
2530.93	4.2307
2532.31	5.43035
2533.69	6.05497
2535.06	6.73742
2536.44	6.59617
2537.81	6.01096
2539.19	6.67238
2540.56	7.51831
2541.94	7.78235
2543.31	7.88343
2544.69	8.35982
2546.06	8.39226
2547.44	8.85031
2548.81	8.98781
2550.18	9.20014
2551.56	9.1095
2552.93	8.97103
2554.3	8.70121
2555.68	8.60829
2557.05	8.55975
2558.42	7.74751
2559.79	8.17797
2561.16	8.23256
2562.53	8.07546
2563.9	8.77537
2565.28	8.64855
2566.64	9.0447
2568.02	8.52007
2569.38	8.29905
2570.76	8.45959
2572.12	8.30326
2573.49	8.13001
2574.86	7.41624
2576.23	6.93924
2577.6	6.16832
2578.97	6.1553
2580.34	5.8714
2581.7	5.61515
2583.07	4.82568
2584.44	4.99559
2585.81	4.69523
2587.17	5.0869
2588.54	4.29583
2589.91	3.34609
2591.27	2.69836
2592.64	3.18959
2594	3.15766
2595.37	3.27176
2596.73	2.82795
2598.1	2.21504
2599.46	1.95769
2600.83	1.988
2602.19	1.25633
2603.55	1.33598
2604.92	1.84507
2606.28	1.91545
2607.64	2.32096
2609.01	2.32566
2610.37	2.01591
2611.73	2.29675
2613.09	1.85686
2614.46	1.82865
2615.82	1.73242
2617.18	1.96349
2618.54	1.89451
2619.9	1.33431
2621.26	1.04466
2622.62	1.02308
2623.98	1.38258
2625.34	1.68644
2626.7	2.19857
2628.06	2.79159
2629.42	3.05827
2630.78	3.10042
2632.14	3.27397
2633.5	3.3422
2634.86	3.92204
2636.22	3.48806
2637.57	4.23316
2638.93	4.4842
2640.29	4.17065
2641.64	4.7975
2643	4.94969
2644.36	5.17334
2645.72	6.07483
2647.07	6.57607
2648.43	7.08403
2649.78	6.8387
2651.14	6.71602
2652.49	6.23022
2653.85	6.03866
2655.2	5.95479
2656.56	5.33571
2657.91	5.09829
2659.27	5.15002
2660.62	5.92504
2661.97	5.63245
2663.33	5.03522
2664.68	5.32113
2666.03	5.70305
2667.38	6.22329
2668.74	6.43425
2670.09	6.40673
2671.44	6.07879
2672.79	6.01659
2674.14	5.85272
2675.49	5.63836
2676.84	5.63215
2678.2	6.08125
2679.55	6.63985
2680.89	5.85667
2682.24	6.69853
2683.59	6.9704
2684.94	7.1714
2686.29	7.01249
2687.64	6.98288
2688.99	7.39376
2690.34	7.58726
2691.69	7.7121
2693.04	7.73031
2694.38	7.73527
2695.73	8.34038
2697.08	8.23563
2698.43	8.20114
2699.77	8.42129
2701.12	9.26163
2702.46	9.38925
2703.81	9.7127
2705.16	10.6997
2706.5	10.6165
2707.85	10.8835
2709.19	12.1949
2710.54	11.9606
2711.88	11.9512
2713.23	11.974
2714.57	11.4633
2715.92	12.1924
2717.26	12.1164
2718.6	12.7496
2719.95	12.4258
2721.29	12.7581
2722.63	12.9564
2723.97	13.0969
2725.32	12.6466
2726.66	12.9262
2728	12.9575
2729.34	12.6193
2730.68	12.1911
2732.02	12.6215
2733.36	12.029
2734.7	12.2268
2736.04	11.4968
2737.39	11.0502
2738.72	10.7775
2740.06	10.4464
2741.4	10.0135
2742.74	9.50351
2744.08	9.48448
2745.42	9.11472
2746.76	8.75508
2748.1	8.09812
2749.44	8.38493
2750.77	7.29758
2752.11	6.53365
2753.45	5.38746
2754.78	5.07627
2756.12	4.16536
2757.46	4.06637
2758.79	3.74484
2760.13	3.32385
2761.47	2.66973
2762.8	2.53894
2764.14	1.4315
2765.47	1.55205
2766.81	1.39664
2768.14	1.30686
2769.48	1.14178
2770.81	1.75453
2772.14	1.94197
2773.48	1.71296
2774.81	1.86353
2776.14	1.24066
2777.48	0.579378
2778.81	0.473492
2780.14	0.467217
2781.47	0.526208
2782.81	0.521537
2784.14	-0.25424
2785.47	-0.123652
2786.8	-0.561855
2788.13	-0.309363
2789.46	-0.019054
2790.79	0.0472074
2792.12	0.174986
2793.46	0.941415
2794.79	1.30185
2796.11	1.2618
2797.44	1.5853
2798.77	1.82611
2800.1	1.6818
2801.43	1.52679
2802.76	1.008
2804.09	0.684246
2805.42	0.182041
2806.74	0.0386319
2808.07	0.0888997
2809.4	-0.438985
2810.73	-0.447597
2812.05	-0.574836
2813.38	-0.70104
2814.71	-0.577327
2816.03	-0.325124
2817.36	0.515978
2818.68	1.38405
2820.01	2.67753
2821.33	4.58668
2822.66	6.07536
2823.98	8.52429
2825.31	9.48537
2826.63	11.2614
2827.96	13.5551
2829.28	16.778
2830.61	20.1298
2831.93	23.1575
2833.25	26.2278
2834.57	29.2866
2835.9	32.443
2837.22	35.9593
2838.54	39.1693
2839.86	41.8552
2841.18	44.7414
2842.51	48.0199
2843.83	51.5465
2845.15	55.8367
2846.47	58.8037
2847.79	62.5104
2849.11	65.8834
2850.43	69.6262
2851.75	73.7453
2853.07	76.7752
2854.39	80.5585
2855.71	83.9462
2857.03	87.2853
2858.35	90.2051
2859.67	92.9326
2860.98	95.5662
2862.3	97.8849
2863.62	100.732
2864.94	102.893
2866.25	104.332
2867.57	105.557
2868.89	107.88
2870.21	108.846
2871.52	109.495
2872.84	110.944
2874.15	112.05
2875.47	112.604
2876.78	113.998
2878.1	115.979
2879.42	116.993
2880.73	118.272
2882.04	119.518
2883.36	121.014
2884.67	121.832
2885.99	123.163
2887.3	124.716
2888.61	125.9
2889.93	127.435
2891.24	128.477
2892.55	131.199
2893.87	133.397
2895.18	135.649
2896.49	138.047
2897.8	139.72
2899.11	142.048
2900.42	143.485
2901.74	146.282
2903.05	149.086
2904.36	151.616
2905.67	154.329
2906.98	157.337
2908.29	160.411
2909.6	163.31
2910.91	166.524
2912.22	168.681
2913.53	172.742
2914.83	176.056
2916.14	179.101
2917.45	181.73
2918.76	184.295
2920.07	186.369
2921.37	188.139
2922.68	190.166
2923.99	191.393
2925.3	192.664
2926.6	193.374
2927.91	194.748
2929.22	195.47
2930.52	195.338
2931.83	194.936
2933.13	194.403
2934.44	193.41
2935.74	191.443
2937.05	190.795
2938.35	189.553
2939.66	188.123
2940.96	185.969
2942.27	183.481
2943.57	181.16
2944.87	177.475
2946.18	174.915
2947.48	171.877
2948.78	168.32
2950.09	164.981
2951.39	162.01
2952.69	158.946
2953.99	155.417
2955.29	152.044
2956.6	148.725
2957.9	145.343
2959.2	141.291
2960.5	138.016
2961.8	134.273
2963.1	129.817
2964.4	126.396
2965.7	122.434
2967	119.957
2968.3	116.99
2969.6	113.212
2970.9	109.816
2972.2	106.332
2973.49	102.883
2974.79	99.5253
2976.09	96.2342
2977.39	92.9539
2978.69	89.4553
2979.98	85.7082
2981.28	82.3351
2982.58	78.5478
2983.88	74.8769
2985.17	71.0239
2986.47	68.3198
2987.76	65.3689
2989.06	61.8044
2990.36	59.2735
2991.65	56.2774
2992.95	53.6449
2994.24	50.0315
2995.54	46.6673
2996.83	44.019
2998.12	41.0633
2999.42	38.2411
3000.71	35.8561
3002	33.3467
3003.3	30.8301
3004.59	29.1494
3005.88	26.6412
3007.18	24.1652
3008.47	22.7903
3009.76	20.8471
3011.05	18.9537
3012.35	17.224
3013.64	15.581
3014.93	14.4524
3016.22	12.8534
3017.51	11.4762
3018.8	10.012
3020.09	8.85695
3021.38	7.84972
3022.67	6.89511
3023.96	6.34804
3025.25	6.23611
3026.54	5.15088
3027.83	4.41995
3029.12	4.06434
3030.41	3.31742
3031.69	3.33456
3032.98	2.77424
3034.27	1.63861
3035.56	2.03792
3036.85	2.34413
3038.13	2.62405
3039.42	2.77864
3040.71	3.10285
3041.99	3.06583
3043.28	3.12859
3044.57	3.92578
3045.85	4.26734
3047.14	3.82388
3048.42	4.15867
3049.71	4.61468
3050.99	5.58592
3052.28	5.59992
3053.56	5.33593
3054.85	5.43937
3056.13	5.12374
3057.42	4.79854
3058.7	4.72916
3059.98	4.66658
3061.27	5.21409
3062.55	4.62759
3063.83	4.17501
3065.11	4.08773
3066.4	4.13951
3067.68	4.07071
3068.96	3.48426
3070.24	2.84362
3071.52	2.68138
3072.8	2.40663
3074.09	1.86908
3075.37	1.4243
3076.65	1.09955
3077.93	0.14594
3079.21	0.362339
3080.49	0.174067
3081.77	0.348738
3083.05	0.169272
3084.32	0.166463
3085.61	-0.121269
3086.88	0.0116298
3088.16	-0.415014
3089.44	-0.266886
3090.72	-0.431063
3092	-0.409952
3093.27	-0.0643933
3094.55	0.272869
3095.83	0.343125
3097.11	0.568694
3098.38	1.04854
3099.66	1.95687
3100.94	2.24063
3102.21	2.44393
3103.49	2.33344
3104.76	3.38399
3106.04	3.44188
3107.31	4.04199
3108.59	5.09649
3109.86	5.72848
3111.14	6.27633
3112.41	7.28091
3113.69	8.34099
3114.96	9.58728
3116.23	10.0307
3117.51	10.8493
3118.78	11.8249
3120.05	12.5693
3121.33	13.2577
3122.6	14.3785
3123.87	15.4828
3125.14	16.6741
3126.42	16.9737
3127.69	18.0264
3128.96	18.8475
3130.23	19.4563
3131.5	20.0461
3132.77	21.0371
3134.04	22.2672
3135.31	23.1834
3136.58	24.0486
3137.85	24.9129
3139.12	25.8478
3140.39	26.9294
3141.66	27.8207
3142.93	28.8204
3144.2	29.363
3145.47	29.7761
3146.74	30.0493
3148	30.771
3149.27	30.9376
