#Acq. time (s)=	45
#Accumulations=	2
#Range (cm-¹)=	200...3150
#Windows=	2
#Auto scanning=	Off
#Autofocus=	Off
#Macrospot=	Off
#AutoExposure=	Off
#Spike filter=	Multiple accum.
#Delay time (s)=	0
#Binning=	1
#Readout mode=	Signal
#DeNoise=	Off
#ICS correction=	On
#Dark correction=	Off
#Inst. Process=	Off
#Detector Gain=	Best Dynamic Range
#Detector ADC=	20 kHz       
#Detector temperature (°C)=	-69.85
#Instrument=	LabRAM HR Evol
#Detector=	Synapse
#Objective=	x100
#Grating=	600 gr/mm
#ND Filter=	100%
#Laser (nm)=	532 
#Hole=	100.021
#Range=	Auto
#Laser Pol.=	No
#Raman. Pol.=	No
#Laser Pol. (°)=	-0.0007625
#Raman Pol. (°)=	89.9995
#Collection=	Microscope
#StageXY=	Marzhauser
#StageZ=	Marzhauser
#X (µm)=	19388.6
#Y (µm)=	3092.3
#Z (µm)=	1047
#Full time(mm:ss)=	3:18
#Project=	
#Sample=	
#Site=	
#Title=	Mb_50_18_07_2x_45s_532 nm_x100_100%_600 gr_mm
#Remark=	
#Date=	12.07.2022 10:44
#Acquired=	12.07.2022 10:44:21
#Base:Fit=	10.08.2022 10:49:18
#Base:Sub=	10.08.2022 10:49:30
#Filter:Polynom=	16.08.2022 10:14:59
#AxisType[0]=Intens
#AxisUnit[0]=Cnt
#AxisType[1]=Spectr
#AxisUnit[1]=1/cm
200.388	30.7411
202.204	30.529
204.019	28.8271
205.832	27.2685
207.646	25.7661
209.459	23.8422
211.274	22.1147
213.087	21.234
214.899	20.4239
216.711	19.9782
218.524	19.5863
220.335	18.3455
222.146	17.9869
223.956	16.5303
225.766	13.9516
227.576	12.0492
229.388	10.7663
231.197	10.8081
233.005	10.7826
234.813	10.0849
236.621	9.32809
238.429	8.49992
240.236	8.0802
242.045	8.05555
243.852	7.87529
245.658	8.99079
247.464	9.59043
249.269	10.2607
251.074	11.2267
252.879	11.3469
254.683	11.0698
256.487	11.2561
258.291	10.9509
260.094	11.4378
261.897	10.9407
263.702	11.7511
265.504	13.2112
267.306	14.9523
269.108	15.9925
270.909	15.4274
272.71	16.521
274.511	15.9433
276.311	16.7866
278.111	16.1752
279.91	16.2914
281.709	15.7054
283.508	16.6192
285.306	15.4213
287.105	16.643
288.9	16.6483
290.698	16.2441
292.495	17.2262
294.291	18.4095
296.088	18.5282
297.884	19.8074
299.679	21.4135
301.475	22.4582
303.27	23.6714
305.064	24.4037
306.858	25.4467
308.652	25.1295
310.444	25.0056
312.237	25.9656
314.03	25.5848
315.822	26.5815
317.615	28.6145
319.406	29.4261
321.198	30.5414
322.987	29.8828
324.778	29.6336
326.568	29.4575
328.358	29.5577
330.148	30.1299
331.935	30.0546
333.724	29.7985
335.513	30.035
337.301	28.9519
339.089	27.9963
340.875	28.3074
342.662	29.2913
344.449	30.0333
346.236	30.5509
348.02	30.1467
349.806	32.6787
351.592	33.6432
353.375	36.1772
355.16	38.6051
356.944	41.6629
358.728	43.4505
360.51	45.1192
362.294	48.4555
364.077	49.654
365.858	52.5617
367.64	54.6571
369.422	56.4323
371.202	59.1903
372.983	62.3871
374.764	64.1144
376.543	68.5448
378.324	69.1995
380.102	69.9827
381.881	71.6003
383.661	72.6391
385.438	73.0362
387.216	74.2449
388.993	74.0661
390.771	73.3861
392.548	74.0742
394.324	72.9032
396.101	71.4275
397.875	69.0913
399.651	67.0904
401.425	64.9479
403.201	61.6369
404.974	59.2556
406.749	55.0882
408.524	51.9619
410.296	48.4952
412.07	44.764
413.841	40.8036
415.614	36.5894
417.385	32.9063
419.156	29.2962
420.928	24.7729
422.698	20.8265
424.469	17.8653
426.238	14.3082
428.009	11.5753
429.777	10.5392
431.548	8.24521
433.315	6.88415
435.083	5.62618
436.852	5.28491
438.618	5.10707
440.387	4.83621
442.153	5.42856
443.919	5.57952
445.686	6.20207
447.451	5.04701
449.218	5.83626
450.982	6.29709
452.746	5.90169
454.512	7.09774
456.275	7.85396
458.038	8.67076
459.803	10.1997
461.565	10.5495
463.327	10.6154
465.091	11.6846
466.852	11.371
468.613	11.4294
470.374	13.4125
472.136	14.6698
473.896	16.0116
475.655	17.6361
477.415	19.4037
479.176	20.3759
480.934	23.7059
482.692	25.8125
484.45	28.6252
486.21	31.744
487.967	36.0677
489.724	40.3818
491.481	44.7916
493.237	49.1504
494.995	52.2846
496.75	56.5163
498.506	58.9796
500.26	61.7552
502.015	63.7132
503.771	64.8652
505.525	67.5241
507.279	68.819
509.032	69.3217
510.785	70.1702
512.537	70.9358
514.289	69.9351
516.041	70.6475
517.793	71.7376
519.546	71.7663
521.297	72.0667
523.047	71.1664
524.797	69.9263
526.547	68.4468
528.297	67.8978
530.046	65.8397
531.795	62.275
533.543	59.8652
535.291	56.31
537.039	52.9695
538.787	49.4137
540.534	46.0609
542.281	41.6978
544.027	37.951
545.773	34.2482
547.519	30.1217
549.264	25.858
551.01	22.7147
552.754	18.9599
554.499	16.9644
556.243	14.7643
557.987	14.1043
559.73	11.565
561.474	9.98735
563.216	8.49823
564.959	8.58398
566.701	8.84025
568.441	10.646
570.182	10.4461
571.923	10.7897
573.664	11.5287
575.405	11.6313
577.145	10.6656
578.885	10.8681
580.624	11.2229
582.361	12.79
584.1	14.0416
585.839	14.036
587.577	13.9792
589.315	13.0516
591.052	13.1676
592.787	14.3245
594.524	13.9064
596.26	12.9884
597.997	14.1125
599.732	14.3745
601.466	14.0908
603.201	14.886
604.936	15.711
606.67	14.6898
608.403	14.0334
610.136	13.9081
611.87	12.3431
613.603	11.6992
615.334	11.3517
617.067	10.1519
618.799	10.1381
620.529	9.18737
622.26	8.25306
623.991	7.24906
625.72	6.87988
627.451	6.01542
629.181	4.78013
630.909	4.71377
632.638	4.1362
634.368	4.02284
636.095	3.68407
637.823	2.64199
639.551	1.99751
641.277	3.74785
643.005	3.29724
644.73	2.67615
646.457	2.75435
648.184	2.4695
649.908	2.55729
651.634	2.7815
653.357	2.53247
655.083	1.79144
656.806	1.70478
658.53	2.14793
660.253	3.07823
661.977	3.65084
663.7	4.67454
665.422	6.34216
667.145	7.6488
668.865	8.41716
670.588	8.09734
672.308	8.38778
674.027	9.04303
675.749	9.39988
677.468	10.2832
679.188	10.6013
680.907	11.655
682.627	11.9897
684.345	12.5006
686.064	12.0507
687.781	11.5428
689.498	12.2965
691.216	12.2203
692.932	12.5411
694.65	13.503
696.366	13.8209
698.081	13.6203
699.797	14.4429
701.512	14.9173
703.228	15.6766
704.942	16.4763
706.655	16.1903
708.371	16.9792
710.083	17.6661
711.796	18.5082
713.51	19.38
715.222	18.3251
716.934	19.5204
718.645	19.2726
720.358	18.3228
722.068	17.1208
723.779	17.8171
725.49	17.8746
727.2	19.182
728.909	19.1233
730.618	20.7237
732.329	22.7059
734.037	25.7862
735.745	30.0912
737.453	34.165
739.16	39.7151
740.869	45.4098
742.576	52.6258
744.282	59.6622
745.988	66.0304
747.694	72.5944
749.401	79.0073
751.107	86.5526
752.811	93.6036
754.516	100.662
756.22	106.269
757.924	110.502
759.627	114.361
761.332	118.867
763.035	123.168
764.738	127.239
766.44	129.837
768.142	132.077
769.843	133.535
771.544	136.218
773.245	137.347
774.946	138.092
776.646	138.328
778.346	139.042
780.046	137.713
781.745	136.052
783.444	134.873
785.143	132.983
786.841	130.504
788.539	129.241
790.237	126.33
791.934	122.528
793.631	119.736
795.328	115.779
797.024	110.98
798.72	105.769
800.416	99.9659
802.112	95.6201
803.807	89.6322
805.502	84.8669
807.196	80.6788
808.89	77.045
810.584	72.7998
812.278	71.4258
813.971	69.1089
815.664	67.1404
817.354	66.6644
819.047	66.687
820.739	66.0154
822.43	65.0929
824.122	65.5862
825.813	66.2292
827.503	67.617
829.192	67.3448
830.882	67.0144
832.571	68.562
834.261	69.1012
835.95	69.8645
837.637	68.4499
839.325	67.9048
841.013	65.9311
842.701	64.946
844.389	64.5327
846.074	63.3394
847.761	62.6717
849.447	60.7114
851.131	58.399
852.817	57.2538
854.503	55.333
856.188	54.3333
857.871	52.7365
859.556	51.0253
861.24	49.3151
862.922	47.7617
864.606	46.9013
866.289	44.9472
867.97	44.4745
869.653	43.75
871.336	43.0131
873.016	42.6307
874.698	41.4319
876.379	40.5889
878.058	40.6501
879.739	39.5583
881.418	39.4241
883.098	38.7777
884.778	37.6698
886.456	38.0581
888.135	38.3026
889.812	38.017
891.49	37.4329
893.167	38.5479
894.845	38.0134
896.523	37.9626
898.198	37.8792
899.875	38.4101
901.55	39.9909
903.226	39.7211
904.901	41.0394
906.576	41.5304
908.25	42.3669
909.925	42.4461
911.598	42.7602
913.271	43.4749
914.945	44.2719
916.617	44.7924
918.291	43.5761
919.962	41.4171
921.635	40.6613
923.306	39.8028
924.978	37.9256
926.648	35.9732
928.318	34.8461
929.989	33.3286
931.659	32.45
933.328	30.7087
934.998	29.7605
936.666	28.7102
938.336	27.6416
940.004	27.4828
941.671	26.2798
943.34	24.4621
945.007	22.9031
946.673	23.2697
948.339	22.2324
950.007	20.4641
951.672	21.1924
953.337	20.9703
955.004	19.2166
956.669	18.4163
958.333	18.0354
959.997	17.7508
961.662	17.2789
963.326	17.1143
964.989	17.3644
966.651	17.3374
968.315	17.835
969.977	18.4372
971.639	18.6434
973.301	18.0726
974.962	17.7303
976.624	17.7454
978.285	16.6443
979.945	17.4057
981.605	16.7709
983.264	16.6812
984.924	14.8734
986.583	14.6193
988.243	15.8037
989.901	15.8438
991.56	17.811
993.217	20.0041
994.875	21.9147
996.532	25.1722
998.188	27.9412
999.845	31.6072
1001.5	36.3247
1003.16	40.6489
1004.81	45.8743
1006.47	49.9855
1008.12	56.3754
1009.78	61.7806
1011.43	67.6961
1013.09	72.4488
1014.74	77.8918
1016.39	83.0129
1018.05	86.0627
1019.7	88.5758
1021.35	91.7664
1023	94.7014
1024.65	96.895
1026.31	98.7983
1027.96	102.197
1029.61	104.977
1031.26	105.31
1032.91	105.5
1034.56	105.519
1036.21	103.848
1037.86	101.398
1039.51	100.965
1041.16	100.328
1042.8	98.5352
1044.45	95.5284
1046.1	93.8311
1047.75	90.1483
1049.39	87.3045
1051.04	83.3499
1052.69	80.1061
1054.33	77.109
1055.98	72.7071
1057.62	69.2767
1059.27	66.8811
1060.91	65.3283
1062.56	63.3325
1064.2	60.6221
1065.85	59.3884
1067.49	57.8481
1069.13	58.7299
1070.77	59.592
1072.42	60.1856
1074.06	61.7801
1075.7	61.918
1077.34	63.5831
1078.98	65.9715
1080.62	67.5767
1082.27	68.2005
1083.91	68.8819
1085.55	68.31
1087.18	69.6269
1088.82	70.7761
1090.46	72.0694
1092.1	70.7484
1093.74	70.4481
1095.38	70.7661
1097.02	69.7615
1098.65	67.9938
1100.29	66.6965
1101.93	65.942
1103.56	65.1975
1105.2	65.2847
1106.84	63.3513
1108.47	62.3796
1110.11	61.204
1111.74	58.246
1113.38	54.1516
1115.01	50.5
1116.64	48.278
1118.28	45.1166
1119.91	41.3801
1121.54	38.1606
1123.18	34.8627
1124.81	30.937
1126.44	28.0634
1128.07	26.5423
1129.7	24.3329
1131.33	24.1527
1132.97	21.9989
1134.6	21.4448
1136.23	20.0944
1137.86	19.6065
1139.49	19.3237
1141.11	18.3642
1142.74	16.2717
1144.37	15.0558
1146	14.0082
1147.63	12.6624
1149.26	10.9731
1150.88	10.0578
1152.51	9.56409
1154.14	8.59886
1155.76	7.94851
1157.39	6.30812
1159.01	4.88848
1160.64	3.4684
1162.27	3.10101
1163.89	2.65806
1165.51	3.33557
1167.14	3.39502
1168.76	5.22533
1170.39	5.28964
1172.01	5.18949
1173.63	6.15441
1175.25	7.93046
1176.88	9.17149
1178.5	9.55553
1180.12	10.3776
1181.74	10.5083
1183.36	10.0677
1184.98	12.2435
1186.6	14.526
1188.22	14.797
1189.84	16.7781
1191.46	17.739
1193.08	18.3299
1194.7	18.21
1196.32	19.0693
1197.94	19.722
1199.55	19.7546
1201.17	19.9697
1202.79	20.501
1204.41	21.6111
1206.02	22.256
1207.64	23.4645
1209.25	24.5183
1210.87	26.4813
1212.48	26.8192
1214.1	28.148
1215.71	29.3742
1217.33	28.9667
1218.94	30.9036
1220.56	31.1501
1222.17	32.2466
1223.79	34.1109
1225.4	37.3747
1227.01	37.7028
1228.62	38.9482
1230.23	41.3753
1231.85	43.6092
1233.46	44.7525
1235.07	46.1111
1236.68	46.9115
1238.29	47.72
1239.9	50.1097
1241.51	53.0318
1243.12	54.6494
1244.73	55.802
1246.34	56.8591
1247.94	57.0123
1249.55	58.9448
1251.16	59.4502
1252.77	61.2434
1254.37	64.0301
1255.98	66.083
1257.59	67.173
1259.2	68.2194
1260.8	69.6814
1262.41	70.9038
1264.01	74.1894
1265.62	76.5389
1267.22	78.0632
1268.83	79.9029
1270.43	83.1868
1272.03	85.5946
1273.64	86.9345
1275.24	87.9494
1276.85	89.7747
1278.45	89.8805
1280.05	91.5916
1281.65	92.6331
1283.25	93.1189
1284.85	94.8709
1286.46	97.09
1288.06	98.1705
1289.66	98.963
1291.26	100.58
1292.86	99.1396
1294.46	100.387
1296.06	99.7935
1297.66	100.148
1299.25	101.785
1300.85	101.377
1302.45	101.143
1304.05	100.999
1305.65	100.36
1307.24	98.777
1308.84	99.0045
1310.43	99.2476
1312.03	97.4807
1313.63	96.3701
1315.22	95.1947
1316.82	94.0944
1318.41	92.3679
1320.01	90.757
1321.6	87.2699
1323.2	85.5405
1324.79	84.1331
1326.38	82.3213
1327.98	79.8982
1329.57	78.8178
1331.16	76.4864
1332.76	75.015
1334.35	73.4204
1335.94	70.5498
1337.53	67.9649
1339.12	66.0698
1340.71	63.6821
1342.3	60.5237
1343.89	58.7108
1345.48	56.5719
1347.07	56.2445
1348.66	55.7186
1350.25	55.1355
1351.84	52.6811
1353.43	50.5259
1355.01	48.7737
1356.6	47.3058
1358.19	44.6811
1359.77	43.2813
1361.36	40.9126
1362.95	38.9358
1364.53	37.8238
1366.12	37.1047
1367.71	34.5413
1369.29	32.7754
1370.88	31.6023
1372.46	29.5619
1374.04	29.507
1375.63	29.0689
1377.21	28.0106
1378.8	27.5003
1380.38	26.8062
1381.96	25.9601
1383.54	25.9904
1385.13	24.2162
1386.71	24.9864
1388.29	25.9533
1389.87	25.6204
1391.45	23.8149
1393.03	23.7727
1394.61	23.0818
1396.19	23.2663
1397.77	23.2078
1399.35	25.217
1400.93	26.3905
1402.51	29.5824
1404.09	31.2485
1405.67	33.4517
1407.24	36.1385
1408.82	39.1298
1410.4	41.2463
1411.98	45.0104
1413.55	49.5061
1415.13	52.4285
1416.71	57.7283
1418.28	61.9282
1419.86	65.6814
1421.43	70.9711
1423.01	76.0867
1424.58	81.6386
1426.16	86.5374
1427.73	92.3611
1429.31	96.8269
1430.88	100.415
1432.45	103.667
1434.02	107.037
1435.6	109.971
1437.17	112.534
1438.74	115.855
1440.31	118.573
1441.88	121.722
1443.45	123.525
1445.03	124.728
1446.6	123.921
1448.17	124.417
1449.74	125.204
1451.3	123.105
1452.87	120.803
1454.44	118.321
1456.01	114.69
1457.58	112.394
1459.15	109.103
1460.72	105.651
1462.28	102.255
1463.85	98.4894
1465.42	95.9887
1466.98	91.0193
1468.55	85.9745
1470.12	80.9367
1471.68	77.5002
1473.25	73.1831
1474.81	70.122
1476.38	66.4149
1477.94	63.237
1479.51	59.1001
1481.07	55.839
1482.63	52.5637
1484.2	49.1069
1485.76	45.5315
1487.32	42.5042
1488.88	39.806
1490.45	37.4629
1492.01	35.0423
1493.57	32.5179
1495.13	30.7571
1496.69	27.7877
1498.25	25.1572
1499.81	22.9123
1501.37	21.7859
1502.93	20.6168
1504.49	19.6723
1506.05	18.5803
1507.61	16.8421
1509.17	15.6296
1510.73	14.2469
1512.28	13.6821
1513.84	12.9728
1515.4	12.4724
1516.96	12.088
1518.51	11.4281
1520.07	11.4455
1521.63	10.0663
1523.18	9.1478
1524.74	8.58806
1526.29	8.98028
1527.85	9.21078
1529.4	8.65743
1530.96	8.98737
1532.51	10.8984
1534.06	11.8607
1535.62	13.7459
1537.17	15.2956
1538.72	16.6717
1540.28	18.2916
1541.83	19.8517
1543.38	21.0219
1544.93	20.9089
1546.48	21.219
1548.03	22.5242
1549.59	23.5194
1551.14	24.5012
1552.69	26.0875
1554.24	25.9907
1555.79	26.8483
1557.34	26.8515
1558.88	27.3883
1560.43	27.5765
1561.98	29.0301
1563.53	30.1975
1565.08	32.126
1566.62	33.0684
1568.17	35.588
1569.72	38.267
1571.27	40.4748
1572.81	41.5413
1574.36	43.2081
1575.9	45.6002
1577.45	47.5964
1579	49.8081
1580.54	50.6641
1582.09	53.3774
1583.63	54.0093
1585.17	55.1334
1586.72	56.0707
1588.26	56.6597
1589.8	57.3452
1591.35	58.3616
1592.89	59.2024
1594.43	59.7022
1595.97	60.1426
1597.52	61.3988
1599.06	61.4091
1600.6	62.2099
1602.14	62.5035
1603.68	62.8322
1605.22	63.7912
1606.76	63.3741
1608.3	63.613
1609.84	64.6842
1611.38	64.7603
1612.92	66.4607
1614.46	66.7419
1615.99	67.1917
1617.53	67.9869
1619.07	68.1517
1620.61	68.0525
1622.14	68.3486
1623.68	68.778
1625.22	70.6311
1626.75	71.2095
1628.29	72.8985
1629.82	74.7749
1631.36	76.5992
1632.9	78.728
1634.43	81.176
1635.96	83.2193
1637.5	86.4162
1639.03	89.2484
1640.57	91.8253
1642.1	95.4928
1643.63	98.4913
1645.16	101.165
1646.7	103.286
1648.23	105.273
1649.76	107.078
1651.29	108.35
1652.82	108.868
1654.36	109.368
1655.89	110.313
1657.42	110.848
1658.95	110.283
1660.48	108.376
1662.01	106.793
1663.53	105.776
1665.06	103.507
1666.59	101.031
1668.12	98.4984
1669.65	95.6099
1671.18	92.2636
1672.7	89.8032
1674.23	86.3614
1675.76	81.1284
1677.29	77.5076
1678.81	72.4432
1680.34	68.2411
1681.86	64.4905
1683.39	59.8511
1684.91	56.0964
1686.44	51.644
1687.96	48.0981
1689.49	44.6306
1691.01	39.7082
1692.54	36.1385
1694.06	33.3827
1695.58	30.0586
1697.11	27.4847
1698.63	24.1952
1700.15	21.3429
1701.67	20.6152
1703.2	18.5323
1704.72	16.6942
1706.24	15.6194
1707.76	13.7997
1709.28	11.7319
1710.8	10.595
1712.32	9.21981
1713.84	9.65934
1715.36	8.82672
1716.88	9.75883
1718.4	9.43267
1719.91	8.91138
1721.43	8.66161
1722.95	9.55563
1724.47	9.1979
1725.99	9.18333
1727.5	8.90308
1729.02	8.5158
1730.54	8.85674
1732.05	8.87226
1733.57	8.44574
1735.09	7.86994
1736.6	8.02485
1738.12	7.40785
1739.63	7.48402
1741.15	6.78234
1742.66	6.26921
1744.18	6.22313
1745.69	5.34327
1747.2	4.76578
1748.72	4.58778
1750.23	3.44488
1751.74	3.15498
1753.25	3.03604
1754.77	2.37646
1756.28	2.80096
1757.79	2.86784
1759.3	1.9873
1760.81	1.06915
1762.32	0.928693
1763.83	1.34115
1765.34	1.04864
1766.85	0.300836
1768.36	0.127349
1769.87	0.385431
1771.38	-0.188375
1772.89	-0.00379498
1774.4	0.196981
1775.91	0.490773
1777.41	0.919232
1778.92	0.392108
1780.43	0.242105
1781.94	0.101893
1783.44	0.414585
1784.95	1.03199
1786.45	1.259
1787.96	1.53349
1789.47	1.93103
1790.97	2.15781
1792.48	1.60224
1793.98	1.33021
1795.48	2.15339
1796.99	3.07382
1798.49	3.47875
1800	2.79689
1801.5	3.10742
1803	2.70101
1804.51	1.60762
1806.01	2.03157
1807.51	2.9207
1809.01	3.15176
1810.51	2.9616
1812.02	3.00846
1813.52	3.04173
1815.02	3.06427
1816.52	3.28303
1818.02	3.33926
1819.52	3.30199
1821.02	3.12415
1822.52	3.77379
1824.02	4.15906
1825.51	4.54802
1827.01	4.76502
1828.51	4.60643
1830.01	4.62622
1831.51	4.84165
1833	4.33131
1834.5	3.90793
1836	4.68054
1837.5	5.19202
1838.99	4.94528
1840.49	4.37703
1841.98	4.18944
1843.48	4.56146
1844.97	5.46123
1846.47	6.15873
1847.96	7.15
1849.46	7.08126
1850.95	6.81137
1852.45	6.65204
1853.94	5.75406
1855.43	5.37697
1856.92	4.87944
1858.42	5.56487
1859.91	5.43823
1861.4	5.18158
1862.89	5.27748
1864.39	4.4985
1865.88	4.24124
1867.37	3.91577
1868.86	5.56707
1870.35	6.10556
1871.84	6.44533
1873.33	6.20123
1874.82	5.93082
1876.31	6.40863
1877.8	5.88821
1879.29	5.50796
1880.77	5.45549
1882.26	5.82331
1882.51	5.40088
1884	5.35641
1885.5	5.49684
1886.99	5.42873
1888.48	5.12403
1889.98	4.85688
1891.47	4.30405
1892.97	4.62449
1894.46	4.87186
1895.95	5.04055
1897.44	4.50768
1898.93	4.77009
1900.42	4.93206
1901.92	5.17516
1903.41	5.28808
1904.9	6.09753
1906.39	5.79299
1907.88	6.61082
1909.37	7.23261
1910.86	7.11759
1912.35	6.79564
1913.84	7.44294
1915.32	7.97669
1916.81	8.55151
1918.3	8.94042
1919.79	8.89675
1921.28	8.78179
1922.76	8.60588
1924.25	8.18361
1925.74	7.91225
1927.22	8.42644
1928.71	9.22368
1930.2	9.44633
1931.68	9.17697
1933.17	9.0385
1934.65	8.54654
1936.14	7.98432
1937.62	7.90642
1939.11	8.98165
1940.59	9.53247
1942.08	9.31343
1943.56	7.96839
1945.04	7.66876
1946.53	6.47568
1948.01	5.80127
1949.49	5.22506
1950.97	4.45239
1952.45	3.70501
1953.94	3.70565
1955.42	3.84384
1956.9	3.76124
1958.38	3.79356
1959.86	3.27186
1961.34	2.1906
1962.82	1.64041
1964.3	1.48355
1965.78	1.52949
1967.26	1.87125
1968.74	0.652705
1970.22	-0.273475
1971.69	-0.303477
1973.17	0.943966
1974.65	0.760888
1976.13	1.55164
1977.61	0.973113
1979.08	1.11369
1980.56	1.37715
1982.03	2.27853
1983.51	2.47232
1984.99	2.44773
1986.46	3.00045
1987.94	3.77388
1989.41	4.37808
1990.89	4.98659
1992.36	5.6119
1993.84	6.75566
1995.31	7.17667
1996.78	8.07838
1998.26	8.24492
1999.73	9.48772
2001.2	10.4714
2002.68	10.3503
2004.15	10.1422
2005.62	10.4425
2007.09	11.1385
2008.56	11.1043
2010.04	11.5846
2011.51	12.4531
2012.98	13.0108
2014.45	12.6912
2015.92	12.5368
2017.39	12.896
2018.86	13.0007
2020.33	12.4248
2021.8	12.636
2023.27	12.5817
2024.74	12.9847
2026.2	12.9618
2027.67	14.3808
2029.14	13.5283
2030.61	14.6051
2032.07	14.3561
2033.54	14.2682
2035.01	14.2251
2036.47	15.0893
2037.94	15.6895
2039.41	15.4983
2040.87	15.4494
2042.34	15.0702
2043.8	16.0162
2045.27	17.4894
2046.73	18.7338
2048.2	18.4971
2049.66	19.5015
2051.12	19.1751
2052.59	19.8265
2054.05	20.3912
2055.51	20.7249
2056.98	21.076
2058.44	22.4824
2059.9	23.9207
2061.36	24.3982
2062.82	25.949
2064.29	26.7583
2065.75	27.895
2067.21	28.4358
2068.67	28.8814
2070.13	30.6589
2071.59	31.3818
2073.05	32.982
2074.51	33.7227
2075.97	34.0672
2077.43	35.299
2078.88	36.0946
2080.34	36.9802
2081.8	38.0707
2083.26	39.3638
2084.72	40.1993
2086.17	41.4602
2087.63	42.3119
2089.09	43.7804
2090.54	45.3173
2092	46.7258
2093.46	48.2727
2094.91	51.1254
2096.37	53.0841
2097.82	55.698
2099.28	58.557
2100.73	61.8883
2102.19	63.5082
2103.64	67.258
2105.09	70.0576
2106.55	72.6494
2108	75.1716
2109.46	77.9477
2110.91	79.7493
2112.36	82.0773
2113.81	85.0621
2115.27	88.5777
2116.72	92.5395
2118.17	95.5076
2119.62	98.8207
2121.07	100.893
2122.52	103.676
2123.97	106.973
2125.42	109.612
2126.87	113.409
2128.32	117.279
2129.77	121.301
2131.22	125.364
2132.67	128.544
2134.12	131.752
2135.57	135.037
2137.01	137.498
2138.46	141.162
2139.91	144.032
2141.36	147.127
2142.8	150.514
2144.25	153.123
2145.7	156.671
2147.14	159.313
2148.59	161.377
2150.03	164.13
2151.48	167.123
2152.92	169.917
2154.37	172.445
2155.81	175.116
2157.26	176.913
2158.7	178.868
2160.15	180.253
2161.59	181.442
2163.03	182.852
2164.48	183.899
2165.92	184.148
2167.36	185.184
2168.8	185.192
2170.25	185.687
2171.69	186.265
2173.13	185.432
2174.57	184.006
2176.01	183.168
2177.45	182.833
2178.89	180.669
2180.33	178.382
2181.77	176.296
2183.21	173.555
2184.65	172.095
2186.09	170.217
2187.53	168.141
2188.97	164.461
2190.41	161.264
2191.84	158.544
2193.28	155.808
2194.72	153.41
2196.16	150.633
2197.59	147.109
2199.03	144.486
2200.47	141.982
2201.9	139.317
2203.34	135.886
2204.78	132.504
2206.21	129.444
2207.65	126.787
2209.08	123.795
2210.51	120.702
2211.95	117.7
2213.38	115.135
2214.82	112.672
2216.25	109.411
2217.68	106.444
2219.12	103.946
2220.55	100.425
2221.98	98.0224
2223.42	95.3558
2224.85	92.2349
2226.28	89.2576
2227.71	86.4415
2229.14	83.8938
2230.57	80.706
2232	78.2737
2233.43	75.2188
2234.86	73.1183
2236.29	70.8357
2237.72	68.1649
2239.15	66.5787
2240.58	64.4651
2242.01	62.1216
2243.44	60.7661
2244.87	57.8529
2246.3	55.4333
2247.73	53.7442
2249.15	52.7914
2250.58	49.8481
2252.01	48.4311
2253.43	46.9716
2254.86	44.9127
2256.29	43.556
2257.71	41.7424
2259.14	39.986
2260.56	38.8182
2261.99	39.3139
2263.41	38.4256
2264.84	37.688
2266.26	36.4728
2267.69	36.35
2269.11	36.0243
2270.54	34.6879
2271.96	34.4192
2273.38	33.9657
2274.81	32.9379
2276.23	32.709
2277.65	33.0312
2279.07	31.8888
2280.49	30.9384
2281.92	29.7315
2283.34	29.6926
2284.76	28.9406
2286.18	27.5594
2287.6	26.7136
2289.02	26.1698
2290.44	25.452
2291.86	23.7538
2293.28	23.3598
2294.7	22.4478
2296.12	21.3561
2297.54	21.0301
2298.96	20.722
2300.38	19.6035
2301.79	17.8074
2303.21	17.2101
2304.63	16.6007
2306.05	16.5612
2307.46	16.2088
2308.88	15.4129
2310.3	14.6486
2311.71	14.1156
2313.13	13.0127
2314.55	11.9317
2315.96	9.89881
2317.38	8.92291
2318.79	8.61084
2320.21	9.23694
2321.62	7.40897
2323.03	7.08801
2324.45	6.17512
2325.86	6.33681
2327.27	6.31126
2328.69	7.35314
2330.1	7.48205
2331.51	8.06054
2332.93	8.76044
2334.34	8.34629
2335.75	7.66646
2337.16	7.90655
2338.57	7.32023
2339.99	6.11894
2341.4	5.62707
2342.81	6.77289
2344.22	7.12943
2345.63	7.10829
2347.04	7.72647
2348.45	7.72158
2349.86	6.18014
2351.26	5.98841
2352.67	5.63427
2354.08	6.5769
2355.49	6.84527
2356.9	6.64411
2358.31	6.67177
2359.71	6.85038
2361.12	7.00115
2362.53	7.5777
2363.94	7.74102
2365.34	7.39838
2366.75	7.57418
2368.15	7.93128
2369.56	8.09736
2370.97	8.00863
2372.37	8.5053
2373.78	9.14565
2375.18	9.60097
2376.59	9.10632
2377.99	8.95129
2379.39	8.46496
2380.8	8.23219
2382.2	8.13142
2383.61	7.09192
2385.01	6.38186
2386.41	6.42517
2387.81	7.18049
2389.22	7.91342
2390.62	8.02758
2392.02	7.87642
2393.42	8.75578
2394.82	8.60028
2396.22	9.09235
2397.63	9.10546
2399.02	9.5574
2400.43	8.59525
2401.82	8.87203
2403.23	8.94372
2404.62	8.19306
2406.02	7.34992
2407.42	7.35626
2408.82	6.45084
2410.22	7.04363
2411.62	6.84464
2413.02	7.2656
2414.41	6.72553
2415.81	6.46548
2417.21	6.1111
2418.61	4.80734
2420	4.2329
2421.4	4.91919
2422.79	5.00966
2424.19	5.11953
2425.59	4.45411
2426.98	4.05888
2428.38	4.40158
2429.77	4.29165
2431.17	4.04534
2432.56	4.15006
2433.96	3.92709
2435.35	4.08305
2436.74	4.59268
2438.14	4.85982
2439.53	4.51665
2440.92	4.01942
2442.32	3.62413
2443.71	3.73738
2445.1	3.51552
2446.49	2.9928
2447.88	3.20481
2449.28	2.92506
2450.67	2.83539
2452.06	2.09553
2453.45	1.67038
2454.84	1.87958
2456.23	2.38938
2457.62	2.05101
2459.01	2.06401
2460.4	2.05232
2461.79	2.75614
2463.18	2.38839
2464.57	2.82274
2465.96	3.5457
2467.34	3.34207
2468.73	3.72248
2470.12	3.76379
2471.51	3.65468
2472.89	3.58216
2474.28	3.77282
2475.67	4.0028
2477.05	4.09403
2478.44	3.79972
2479.83	3.99922
2481.21	4.24742
2482.6	4.88001
2483.98	4.81902
2485.37	4.49183
2486.75	4.84537
2488.14	3.95754
2489.52	4.98493
2490.9	4.81631
2492.29	3.7385
2493.67	3.66673
2495.06	3.76982
2496.44	4.01831
2497.82	3.50321
2499.2	2.84649
2500.59	2.88733
2501.97	3.01992
2503.35	2.33895
2504.73	2.36134
2506.11	2.14051
2507.49	1.76137
2508.88	1.23549
2510.26	1.39582
2511.63	1.17487
2513.01	1.43308
2514.39	0.696177
2515.77	0.217397
2517.15	-0.542979
2518.53	-0.993052
2519.91	-1.37961
2521.29	-1.60029
2522.67	-1.26485
2524.05	-0.667795
2525.42	-1.12446
2526.8	-0.760416
2528.18	-0.248035
2529.56	-0.0010375
2530.93	0.230559
2532.31	1.10764
2533.69	1.84127
2535.06	1.8751
2536.44	1.84233
2537.81	2.84001
2539.19	2.54391
2540.56	3.18758
2541.94	3.82685
2543.31	4.49531
2544.69	5.05775
2546.06	4.86533
2547.44	5.17971
2548.81	6.78047
2550.18	7.61105
2551.56	8.3809
2552.93	9.15339
2554.3	9.30773
2555.68	9.3968
2557.05	9.38118
2558.42	9.71733
2559.79	9.13265
2561.16	8.47785
2562.53	9.13365
2563.9	9.4766
2565.28	9.26242
2566.64	8.80247
2568.02	8.94199
2569.38	9.21861
2570.76	8.51834
2572.12	8.45283
2573.49	8.59051
2574.86	8.45458
2576.23	7.93935
2577.6	7.29273
2578.97	7.00032
2580.34	6.69938
2581.7	5.86298
2583.07	5.14206
2584.44	4.4118
2585.81	3.9349
2587.17	3.18224
2588.54	2.61308
2589.91	2.48517
2591.27	2.33979
2592.64	2.59484
2594	1.94431
2595.37	2.24538
2596.73	1.14013
2598.1	1.50356
2599.46	1.53174
2600.83	1.73454
2602.19	1.36918
2603.55	0.549507
2604.92	0.784612
2606.28	1.50547
2607.64	1.17345
2609.01	1.39519
2610.37	0.418128
2611.73	0.446746
2613.09	1.02882
2614.46	1.73455
2615.82	1.89838
2617.18	2.71327
2618.54	2.7318
2619.9	2.70644
2621.26	2.45383
2622.62	2.11623
2623.98	2.30264
2625.34	3.0099
2626.7	3.1842
2628.06	3.59704
2629.42	4.41086
2630.78	4.88772
2632.14	4.72058
2633.5	4.84209
2634.86	4.87304
2636.22	5.75607
2637.57	6.53227
2638.93	7.1168
2640.29	7.99085
2641.64	8.80944
2643	9.12051
2644.36	8.67628
2645.72	9.01147
2647.07	8.60407
2648.43	8.27241
2649.78	8.20313
2651.14	8.25244
2652.49	8.29256
2653.85	8.34762
2655.2	8.67988
2656.56	9.53127
2657.91	9.66098
2659.27	10.1312
2660.62	10.2745
2661.97	9.67698
2663.33	10.0139
2664.68	10.0336
2666.03	10.3681
2667.38	9.99312
2668.74	9.71091
2670.09	9.59442
2671.44	9.19761
2672.79	9.25398
2674.14	9.13556
2675.49	8.16102
2676.84	7.62567
2678.2	7.83316
2679.55	7.78515
2680.89	8.24789
2682.24	8.01559
2683.59	7.5853
2684.94	7.74656
2686.29	7.17454
2687.64	7.18853
2688.99	7.93511
2690.34	7.61653
2691.69	7.75181
2693.04	7.4846
2694.38	7.93908
2695.73	8.266
2697.08	9.0258
2698.43	8.56068
2699.77	8.94124
2701.12	10.2137
2702.46	11.407
2703.81	12.1984
2705.16	12.9168
2706.5	13.4168
2707.85	13.3694
2709.19	13.2271
2710.54	12.4863
2711.88	12.9137
2713.23	13.3492
2714.57	13.5417
2715.92	14.4339
2717.26	14.9684
2718.6	15.0746
2719.95	15.403
2721.29	15.1347
2722.63	15.0899
2723.97	14.698
2725.32	14.2703
2726.66	14.1838
2728	14.4216
2729.34	14.7668
2730.68	15.1134
2732.02	14.7584
2733.36	14.7855
2734.7	14.4523
2736.04	14.2691
2737.39	14.2061
2738.72	13.6774
2740.06	13.4588
2741.4	13.036
2742.74	12.4406
2744.08	12.8107
2745.42	12.4075
2746.76	11.6562
2748.1	12.2539
2749.44	10.9842
2750.77	10.4266
2752.11	9.69455
2753.45	9.39612
2754.78	8.82607
2756.12	8.29746
2757.46	7.55767
2758.79	7.32628
2760.13	6.98988
2761.47	6.68929
2762.8	6.22964
2764.14	6.02918
2765.47	5.59396
2766.81	5.81486
2768.14	6.18482
2769.48	5.89845
2770.81	5.21799
2772.14	5.21977
2773.48	4.69979
2774.81	4.13731
2776.14	3.36609
2777.48	2.7879
2778.81	3.19835
2780.14	3.02156
2781.47	3.02907
2782.81	2.52785
2784.14	1.4105
2785.47	0.860735
2786.8	0.255612
2788.13	-0.249986
2789.46	-0.232314
2790.79	-0.302344
2792.12	-0.177989
2793.46	-0.627136
2794.79	-0.304954
2796.11	-0.270033
2797.44	-0.842513
2798.77	-0.567209
2800.1	-0.131829
2801.43	-1.10575
2802.76	-1.44589
2804.09	-1.77273
2805.42	-1.91488
2806.74	-2.13616
2808.07	-2.36779
2809.4	-2.79983
2810.73	-2.82767
2812.05	-3.33644
2813.38	-2.47178
2814.71	-1.78637
2816.03	-1.26984
2817.36	0.749686
2818.68	2.81047
2820.01	5.82823
2821.33	8.14737
2822.66	11.9157
2823.98	15.4668
2825.31	19.6072
2826.63	24.8072
2827.96	29.1213
2829.28	34.6782
2830.61	40.1322
2831.93	46.4404
2833.25	52.2188
2834.57	58.5582
2835.9	64.4631
2837.22	70.2223
2838.54	76.1615
2839.86	82.3226
2841.18	88.3869
2842.51	95.2185
2843.83	102.513
2845.15	110.159
2846.47	116.581
2847.79	123.205
2849.11	129.831
2850.43	137.077
2851.75	144.706
2853.07	151.338
2854.39	157.953
2855.71	165.075
2857.03	171.621
2858.35	177.822
2859.67	183.53
2860.98	190.026
2862.3	194.921
2863.62	199.414
2864.94	204.422
2866.25	208.11
2867.57	211.164
2868.89	214.173
2870.21	217.252
2871.52	220.271
2872.84	221.733
2874.15	224.407
2875.47	227
2876.78	230.7
2878.1	233.255
2879.42	236.599
2880.73	239.458
2882.04	242.295
2883.36	245.88
2884.67	249.537
2885.99	252.864
2887.3	256.861
2888.61	260.99
2889.93	264.326
2891.24	268.256
2892.55	272.201
2893.87	275.394
2895.18	279.649
2896.49	284.146
2897.8	289.528
2899.11	294.462
2900.42	300.208
2901.74	305.674
2903.05	312.193
2904.36	319.297
2905.67	326.452
2906.98	334.634
2908.29	343.386
2909.6	352.181
2910.91	359.64
2912.22	367.583
2913.53	376.859
2914.83	385.457
2916.14	394.387
2917.45	401.709
2918.76	409.035
2920.07	415.663
2921.37	422.806
2922.68	428.16
2923.99	433.308
2925.3	437.715
2926.6	441.114
2927.91	442.473
2929.22	444.826
2930.52	446.454
2931.83	446.681
2933.13	446.282
2934.44	445.357
2935.74	443.576
2937.05	440.74
2938.35	436.347
2939.66	433.68
2940.96	428.303
2942.27	423.296
2943.57	416.497
2944.87	410.339
2946.18	403.162
2947.48	395.608
2948.78	388.454
2950.09	379.518
2951.39	370.561
2952.69	361.17
2953.99	350.664
2955.29	340.99
2956.6	331.383
2957.9	322.713
2959.2	313.794
2960.5	304.674
2961.8	296.045
2963.1	287.566
2964.4	279.233
2965.7	270.882
2967	262.962
2968.3	255.24
2969.6	247.018
2970.9	239.935
2972.2	233.308
2973.49	226.579
2974.79	218.652
2976.09	211.06
2977.39	204.079
2978.69	198.462
2979.98	190.899
2981.28	183.194
2982.58	175.069
2983.88	168.171
2985.17	160.388
2986.47	154.128
2987.76	146.59
2989.06	139.988
2990.36	132.574
2991.65	125.159
2992.95	117.886
2994.24	112.086
2995.54	105.922
2996.83	98.983
2998.12	92.3389
2999.42	85.8519
3000.71	79.3021
3002	73.5927
3003.3	68.0816
3004.59	63.7474
3005.88	58.5631
3007.18	54.9415
3008.47	50.3969
3009.76	46.3594
3011.05	42.0187
3012.35	38.7867
3013.64	35.0225
3014.93	31.5001
3016.22	28.7273
3017.51	26.0603
3018.8	24.619
3020.09	23.45
3021.38	21.7377
3022.67	20.8197
3023.96	18.9221
3025.25	17.4879
3026.54	16.2593
3027.83	15.9179
3029.12	15.265
3030.41	14.641
3031.69	14.2164
3032.98	14.3155
3034.27	14.1191
3035.56	15.2278
3036.85	15.3672
3038.13	15.7055
3039.42	16.0782
3040.71	17.6008
3041.99	18.0217
3043.28	18.8314
3044.57	18.8561
3045.85	19.0864
3047.14	19.3264
3048.42	19.9745
3049.71	19.4518
3050.99	20.2061
3052.28	19.9035
3053.56	19.936
3054.85	18.6302
3056.13	17.8373
3057.42	16.99
3058.7	16.2589
3059.98	15.8437
3061.27	15.0301
3062.55	14.5691
3063.83	14.2667
3065.11	13.9708
3066.4	13.1223
3067.68	12.2263
3068.96	12.0113
3070.24	10.8611
3071.52	9.82973
3072.8	8.86215
3074.09	7.76337
3075.37	7.33772
3076.65	7.16442
3077.93	5.68459
3079.21	5.08676
3080.49	4.18196
3081.77	3.25616
3083.05	2.50353
3084.32	1.2684
3085.61	0.281026
3086.88	-0.687943
3088.16	-1.37428
3089.44	-2.12519
3090.72	-3.12595
3092	-2.72336
3093.27	-2.98457
3094.55	-2.64737
3095.83	-2.21808
3097.11	-1.48054
3098.38	-1.13569
3099.66	0.136179
3100.94	0.441017
3102.21	1.13121
3103.49	2.05965
3104.76	2.6198
3106.04	2.38898
3107.31	2.71651
3108.59	3.60142
3109.86	3.91982
3111.14	5.16531
3112.41	5.94807
3113.69	6.20008
3114.96	7.9995
3116.23	8.70992
3117.51	9.53949
3118.78	9.98452
3120.05	10.9399
3121.33	11.8698
3122.6	13.1789
3123.87	14.4843
3125.14	15.4591
3126.42	16.521
3127.69	17.5463
3128.96	18.3424
3130.23	18.8474
3131.5	20.3333
3132.77	21.581
3134.04	22.1713
3135.31	23.7128
3136.58	24.9893
3137.85	25.6947
3139.12	26.5356
3140.39	26.8492
3141.66	27.1481
3142.93	27.7308
3144.2	28.1672
3145.47	28.5998
3146.74	29.1319
3148	29.5194
3149.27	29.1024
