#Acq. time (s)=	45
#Accumulations=	2
#Range (cm-¹)=	200...3150
#Windows=	2
#Auto scanning=	Off
#Autofocus=	Off
#Macrospot=	Off
#AutoExposure=	Off
#Spike filter=	Multiple accum.
#Delay time (s)=	0
#Binning=	1
#Readout mode=	Signal
#DeNoise=	Off
#ICS correction=	On
#Dark correction=	Off
#Inst. Process=	Off
#Detector Gain=	Best Dynamic Range
#Detector ADC=	20 kHz       
#Detector temperature (°C)=	-69.85
#Instrument=	LabRAM HR Evol
#Detector=	Synapse
#Objective=	x100
#Grating=	600 gr/mm
#ND Filter=	100%
#Laser (nm)=	532 
#Hole=	100.021
#Range=	Auto
#Laser Pol.=	No
#Raman. Pol.=	No
#Laser Pol. (°)=	-0.0007625
#Raman Pol. (°)=	89.9995
#Collection=	Microscope
#StageXY=	Marzhauser
#StageZ=	Marzhauser
#X (µm)=	19343.2
#Y (µm)=	3069.8
#Z (µm)=	1047.55
#Full time(mm:ss)=	3:18
#Project=	
#Sample=	
#Site=	
#Title=	Mb_50_18_06_2x_45s_532 nm_x100_100%_600 gr_mm
#Remark=	
#Date=	12.07.2022 10:39
#Acquired=	12.07.2022 10:39:48
#Base:Fit=	10.08.2022 10:49:18
#Base:Sub=	10.08.2022 10:49:30
#Filter:Polynom=	16.08.2022 10:14:59
#AxisType[0]=Intens
#AxisUnit[0]=Cnt
#AxisType[1]=Spectr
#AxisUnit[1]=1/cm
200.388	12.1145
202.204	12.2801
204.019	12.3135
205.832	11.2575
207.646	10.3321
209.459	9.16502
211.274	8.35728
213.087	7.22464
214.899	6.52158
216.711	6.09301
218.524	5.40548
220.335	5.5384
222.146	6.07067
223.956	5.78373
225.766	5.53862
227.576	4.99747
229.388	5.17909
231.197	4.9818
233.005	4.87408
234.813	5.12594
236.621	5.83706
238.429	6.75975
240.236	6.68389
242.045	7.45045
243.852	8.08062
245.658	8.46812
247.464	7.97996
249.269	8.28825
251.074	7.89626
252.879	7.70596
254.683	8.16528
256.487	9.41054
258.291	9.98308
260.094	9.87438
261.897	11.0857
263.702	11.0812
265.504	10.4175
267.306	10.1649
269.108	10.3298
270.909	10.4569
272.71	10.6115
274.511	10.4875
276.311	10.3773
278.111	12.2564
279.91	13.7621
281.709	14.1847
283.508	14.4508
285.306	15.2368
287.105	15.5789
288.9	15.8277
290.698	15.9711
292.495	16.1099
294.291	15.4644
296.088	15.6993
297.884	16.2548
299.679	17.1106
301.475	17.4772
303.27	17.3832
305.064	17.4527
306.858	16.7291
308.652	16.8689
310.444	17.4234
312.237	17.3177
314.03	16.7226
315.822	17.0658
317.615	17.3147
319.406	18.3044
321.198	17.6509
322.987	17.3275
324.778	16.4582
326.568	15.9515
328.358	14.8257
330.148	14.2417
331.935	13.3885
333.724	11.778
335.513	10.5925
337.301	9.39986
339.089	8.6842
340.875	8.11628
342.662	7.04453
344.449	7.20059
346.236	8.11212
348.02	7.80103
349.806	7.24423
351.592	8.28683
353.375	8.1157
355.16	8.27298
356.944	8.75954
358.728	9.28278
360.51	9.6188
362.294	11.2837
364.077	12.692
365.858	14.1705
367.64	16.8818
369.422	18.4131
371.202	19.3062
372.983	20.6705
374.764	21.4514
376.543	22.1469
378.324	22.6526
380.102	22.8875
381.881	23.3027
383.661	23.0133
385.438	24.1082
387.216	24.5398
388.993	24.3234
390.771	24.1866
392.548	23.2634
394.324	22.982
396.101	22.5955
397.875	23.8105
399.651	23.3672
401.425	22.4822
403.201	22.2263
404.974	21.3225
406.749	20.7623
408.524	18.8908
410.296	16.8217
412.07	15.4795
413.841	13.9382
415.614	13.3842
417.385	12.6033
419.156	12.612
420.928	12.1982
422.698	11.1613
424.469	9.84554
426.238	8.91904
428.009	8.15779
429.777	8.54394
431.548	7.70715
433.315	7.72285
435.083	8.31634
436.852	8.01828
438.618	7.94021
440.387	8.4916
442.153	8.62825
443.919	7.77425
445.686	8.29085
447.451	8.51384
449.218	9.3679
450.982	10.5192
452.746	10.8942
454.512	10.6705
456.275	11.0675
458.038	11.188
459.803	11.274
461.565	11.5903
463.327	11.6474
465.091	11.9725
466.852	11.4134
468.613	10.9727
470.374	12.0792
472.136	12.7658
473.896	13.6811
475.655	14.3719
477.415	15.4751
479.176	15.6665
480.934	16.7936
482.692	17.9023
484.45	18.9544
486.21	20.8636
487.967	21.5416
489.724	22.2842
491.481	25.0923
493.237	26.1
494.995	27.2661
496.75	28.5883
498.506	30.6254
500.26	32.0469
502.015	33.8662
503.771	35.5054
505.525	36.6528
507.279	37.3574
509.032	37.152
510.785	36.5755
512.537	37.5018
514.289	38.695
516.041	39.6759
517.793	39.3425
519.546	39.2331
521.297	38.7892
523.047	38.9738
524.797	38.373
526.547	37.1974
528.297	36.2015
530.046	34.6876
531.795	33.309
533.543	33.2077
535.291	32.2217
537.039	30.6346
538.787	29.0936
540.534	27.6479
542.281	26.4669
544.027	25.0596
545.773	23.9671
547.519	22.6534
549.264	20.9164
551.01	19.6781
552.754	18.5326
554.499	17.0258
556.243	16.5391
557.987	16.6364
559.73	15.8074
561.474	15.8361
563.216	15.48
564.959	14.7485
566.701	12.8652
568.441	12.561
570.182	11.5201
571.923	10.967
573.664	11.1683
575.405	10.756
577.145	10.2495
578.885	11.3764
580.624	10.0963
582.361	9.64666
584.1	10.7693
585.839	10.2592
587.577	9.9019
589.315	9.836
591.052	8.83951
592.787	8.18085
594.524	7.95994
596.26	8.19297
597.997	8.69488
599.732	7.98193
601.466	7.81836
603.201	8.4103
604.936	7.65581
606.67	8.48354
608.403	8.92014
610.136	9.4519
611.87	9.84392
613.603	10.3568
615.334	10.9375
617.067	10.1535
618.799	10.9174
620.529	11.1122
622.26	10.3259
623.991	10.051
625.72	10.4844
627.451	11.4437
629.181	11.7923
630.909	10.7837
632.638	10.0679
634.368	9.66264
636.095	9.55175
637.823	9.88548
639.551	9.59005
641.277	8.8679
643.005	9.37578
644.73	10.0598
646.457	9.68976
648.184	9.60354
649.908	8.81056
651.634	8.41006
653.357	8.79633
655.083	9.55632
656.806	9.84068
658.53	11.2253
660.253	12.0437
661.977	12.4455
663.7	12.8839
665.422	14.2142
667.145	13.9976
668.865	15.0757
670.588	15.5405
672.308	15.3787
674.027	16.326
675.749	17.1958
677.468	18.6752
679.188	20.2187
680.907	21.3176
682.627	23.0294
684.345	24.3092
686.064	25.248
687.781	27.033
689.498	28.225
691.216	28.3123
692.932	29.0144
694.65	30.8176
696.366	31.0453
698.081	31.9071
699.797	31.8755
701.512	32.4048
703.228	32.1883
704.942	32.9009
706.655	33.5834
708.371	34.1914
710.083	34.8485
711.796	34.8007
713.51	33.9101
715.222	32.537
716.934	31.8216
718.645	31.6849
720.358	31.9644
722.068	32.751
723.779	33.3554
725.49	34.1097
727.2	34.4632
728.909	35.5862
730.618	36.7849
732.329	36.8432
734.037	38.3628
735.745	41.1162
737.453	43.0527
739.16	44.7094
740.869	46.725
742.576	49.0925
744.282	51.9826
745.988	53.7845
747.694	57.5242
749.401	60.0155
751.107	62.7376
752.811	64.4127
754.516	66.831
756.22	68.4936
757.924	71.4808
759.627	73.6296
761.332	75.2748
763.035	77.773
764.738	77.9014
766.44	79.0796
768.142	81.4075
769.843	81.766
771.544	82.311
773.245	83.4097
774.946	84.2407
776.646	84.8942
778.346	85.8745
780.046	87.3637
781.745	87.4647
783.444	88.7362
785.143	88.4241
786.841	87.3385
788.539	86.7343
790.237	86.4415
791.934	86.1185
793.631	84.5087
795.328	82.6182
797.024	81.1716
798.72	80.2721
800.416	79.9914
802.112	79.4347
803.807	78.7406
805.502	77.5166
807.196	76.4899
808.89	75.4709
810.584	74.7048
812.278	73.5118
813.971	72.2545
815.664	71.6357
817.354	71.2569
819.047	71.7136
820.739	72.676
822.43	71.8087
824.122	71.4081
825.813	72.3161
827.503	71.3263
829.192	71.9273
830.882	71.6346
832.571	71.2092
834.261	70.3734
835.95	68.9241
837.637	67.3857
839.325	66.6857
841.013	65.6324
842.701	64.8587
844.389	63.6732
846.074	62.692
847.761	62.8228
849.447	61.9945
851.131	61.3983
852.817	61.1464
854.503	60.3948
856.188	59.6945
857.871	59.3266
859.556	58.7159
861.24	57.9663
862.922	57.1775
864.606	56.2098
866.289	55.3696
867.97	54.6624
869.653	53.7485
871.336	53.5002
873.016	54.5499
874.698	53.6299
876.379	53.0742
878.058	52.9141
879.739	52.6211
881.418	53.0246
883.098	52.8838
884.778	53.2765
886.456	52.4596
888.135	51.5697
889.812	49.4238
891.49	49.309
893.167	49.6369
894.845	49.094
896.523	48.444
898.198	47.7902
899.875	47.5551
901.55	47.8138
903.226	48.076
904.901	47.8462
906.576	47.1776
908.25	46.6092
909.925	46.6667
911.598	46.0551
913.271	46.2175
914.945	45.2461
916.617	44.2583
918.291	43.8533
919.962	42.7082
921.635	41.6119
923.306	41.7543
924.978	41.5066
926.648	40.9093
928.318	39.6234
929.989	38.6343
931.659	38.8166
933.328	37.5311
934.998	36.3699
936.666	36.1196
938.336	35.2279
940.004	34.0144
941.671	34.1934
943.34	33.2354
945.007	32.8796
946.673	32.5255
948.339	32.3211
950.007	32.1745
951.672	32.7604
953.337	32.472
955.004	31.7336
956.669	31.3332
958.333	30.3396
959.997	30.2143
961.662	29.5405
963.326	29.0217
964.989	29.3905
966.651	28.4225
968.315	28.7178
969.977	27.7418
971.639	28.1817
973.301	28.6385
974.962	30.8875
976.624	30.8529
978.285	31.0599
979.945	31.0617
981.605	31.1934
983.264	32.2752
984.924	33.2862
986.583	32.7234
988.243	32.425
989.901	32.1647
991.56	31.8506
993.217	33.1608
994.875	33.8438
996.532	33.4844
998.188	34.5017
999.845	35.0978
1001.5	36.3329
1003.16	37.938
1004.81	38.7452
1006.47	41.1393
1008.12	42.3795
1009.78	42.7456
1011.43	43.9229
1013.09	45.1336
1014.74	46.3836
1016.39	46.3369
1018.05	47.3813
1019.7	47.9204
1021.35	49.0871
1023	49.8586
1024.65	50.2267
1026.31	50.0364
1027.96	51.1854
1029.61	50.9747
1031.26	51.185
1032.91	50.8875
1034.56	50.2043
1036.21	49.1884
1037.86	49.2061
1039.51	49.265
1041.16	48.7691
1042.8	47.8166
1044.45	46.8322
1046.1	46.0338
1047.75	45.5458
1049.39	44.5789
1051.04	44.3027
1052.69	43.7813
1054.33	43.2387
1055.98	41.7896
1057.62	40.1411
1059.27	37.7597
1060.91	36.4498
1062.56	34.4445
1064.2	33.3198
1065.85	31.9491
1067.49	30.2798
1069.13	28.2648
1070.77	27.5942
1072.42	27.2165
1074.06	26.7253
1075.7	26.2461
1077.34	24.9752
1078.98	24.5148
1080.62	24.4044
1082.27	23.4391
1083.91	24.2381
1085.55	23.5792
1087.18	22.7961
1088.82	22.5256
1090.46	22.0924
1092.1	21.9914
1093.74	23.1131
1095.38	23.3389
1097.02	23.4708
1098.65	23.348
1100.29	23.7981
1101.93	24.0959
1103.56	24.1943
1105.2	24.1453
1106.84	24.1768
1108.47	23.3847
1110.11	23.2065
1111.74	22.418
1113.38	22.023
1115.01	20.5495
1116.64	19.8939
1118.28	19.7395
1119.91	19.8041
1121.54	18.8194
1123.18	17.0744
1124.81	15.8105
1126.44	15.4038
1128.07	15.3917
1129.7	14.7966
1131.33	14.291
1132.97	12.962
1134.6	12.65
1136.23	12.688
1137.86	11.9408
1139.49	12.2345
1141.11	11.8848
1142.74	11.9496
1144.37	10.7203
1146	11.0385
1147.63	10.6289
1149.26	9.97268
1150.88	8.73672
1152.51	8.19937
1154.14	7.11944
1155.76	6.16937
1157.39	5.52935
1159.01	5.29407
1160.64	5.25328
1162.27	4.5348
1163.89	5.06216
1165.51	4.93056
1167.14	4.47464
1168.76	5.22838
1170.39	5.90599
1172.01	6.58546
1173.63	7.85851
1175.25	8.5881
1176.88	7.83434
1178.5	7.08305
1180.12	7.00963
1181.74	6.47709
1183.36	6.94117
1184.98	6.13304
1186.6	5.9814
1188.22	5.29337
1189.84	4.23354
1191.46	4.32309
1193.08	3.51387
1194.7	3.75178
1196.32	3.81983
1197.94	4.50482
1199.55	3.92327
1201.17	4.70687
1202.79	3.38155
1204.41	3.46903
1206.02	4.08474
1207.64	4.52957
1209.25	5.4819
1210.87	6.29816
1212.48	7.74826
1214.1	8.40026
1215.71	11.0206
1217.33	12.1452
1218.94	12.6786
1220.56	14.0569
1222.17	14.842
1223.79	16.6869
1225.4	17.8205
1227.01	19.7166
1228.62	20.5914
1230.23	21.5443
1231.85	22.7708
1233.46	24.0745
1235.07	26.2862
1236.68	28.6917
1238.29	30.7515
1239.9	32.7993
1241.51	34.5481
1243.12	35.5666
1244.73	36.5673
1246.34	36.9546
1247.94	39.3271
1249.55	39.9952
1251.16	40.9756
1252.77	42.1072
1254.37	43.1315
1255.98	43.828
1257.59	43.7278
1259.2	44.7697
1260.8	45.9979
1262.41	46.5271
1264.01	47.4436
1265.62	48.0114
1267.22	48.4337
1268.83	48.3463
1270.43	49.4869
1272.03	49.9892
1273.64	50.2902
1275.24	50.9687
1276.85	50.9466
1278.45	51.4223
1280.05	51.1247
1281.65	52.8722
1283.25	52.7528
1284.85	53.8992
1286.46	54.4091
1288.06	54.8849
1289.66	56.0712
1291.26	56.2451
1292.86	55.728
1294.46	56.3982
1296.06	56.7416
1297.66	57.0105
1299.25	57.7357
1300.85	58.2086
1302.45	58.5335
1304.05	58.8076
1305.65	59.1291
1307.24	58.9345
1308.84	59.6844
1310.43	59.5314
1312.03	60.0714
1313.63	61.1572
1315.22	61.3778
1316.82	61.4053
1318.41	61.3986
1320.01	60.6813
1321.6	59.0789
1323.2	57.7665
1324.79	57.2708
1326.38	56.9199
1327.98	56.4104
1329.57	55.2784
1331.16	55.8093
1332.76	55.0941
1334.35	54.0132
1335.94	52.742
1337.53	51.2537
1339.12	50.9382
1340.71	49.8542
1342.3	48.2426
1343.89	48.1874
1345.48	47.6501
1347.07	45.6656
1348.66	44.473
1350.25	43.763
1351.84	41.7184
1353.43	40.1477
1355.01	39.8337
1356.6	39.3947
1358.19	38.8148
1359.77	38.0498
1361.36	37.8187
1362.95	35.6158
1364.53	34.9367
1366.12	33.9777
1367.71	32.5711
1369.29	32.391
1370.88	31.5116
1372.46	30.7974
1374.04	31.1134
1375.63	30.6289
1377.21	30.4633
1378.8	29.9172
1380.38	29.2162
1381.96	28.7449
1383.54	28.2654
1385.13	27.9597
1386.71	26.6303
1388.29	25.9055
1389.87	25.8117
1391.45	26.2833
1393.03	25.9114
1394.61	24.7728
1396.19	25.0899
1397.77	23.8144
1399.35	23.9377
1400.93	23.3718
1402.51	24.1762
1404.09	25.7604
1405.67	26.5323
1407.24	26.9912
1408.82	28.5085
1410.4	29.7971
1411.98	29.6905
1413.55	30.4327
1415.13	30.9524
1416.71	33.1743
1418.28	35.5082
1419.86	37.7923
1421.43	39.1323
1423.01	42.0923
1424.58	43.3269
1426.16	44.8922
1427.73	47.3013
1429.31	49.3779
1430.88	51.3493
1432.45	54.5124
1434.02	57.28
1435.6	58.8745
1437.17	60.9583
1438.74	62.4834
1440.31	63.2741
1441.88	64.4036
1443.45	65.7581
1445.03	66.1359
1446.6	67.4108
1448.17	69.5244
1449.74	70.2014
1451.3	71.4888
1452.87	71.6761
1454.44	71.2221
1456.01	71.2697
1457.58	70.419
1459.15	69.5022
1460.72	69.0802
1462.28	68.2508
1463.85	67.5117
1465.42	66.3234
1466.98	65.7548
1468.55	64.7693
1470.12	62.7033
1471.68	61.1504
1473.25	60.291
1474.81	59.7985
1476.38	58.2826
1477.94	57.5065
1479.51	56.2821
1481.07	55.5835
1482.63	55.123
1484.2	53.4336
1485.76	51.6735
1487.32	50.3491
1488.88	47.9293
1490.45	46.3139
1492.01	44.8593
1493.57	43.2432
1495.13	42.2593
1496.69	41.0055
1498.25	39.7655
1499.81	38.3388
1501.37	37.9281
1502.93	36.584
1504.49	35.612
1506.05	34.1241
1507.61	33.1674
1509.17	31.3317
1510.73	30.9802
1512.28	28.4762
1513.84	27.2392
1515.4	25.4971
1516.96	23.7841
1518.51	23.1546
1520.07	22.9286
1521.63	23.238
1523.18	23.2574
1524.74	23.497
1526.29	24.1315
1527.85	23.3654
1529.4	23.3932
1530.96	22.2932
1532.51	22.0866
1534.06	23.1019
1535.62	23.0169
1537.17	23.8204
1538.72	24.9068
1540.28	25.7716
1541.83	25.9744
1543.38	26.4386
1544.93	26.9204
1546.48	27.2542
1548.03	27.8082
1549.59	29.1446
1551.14	29.5795
1552.69	29.2698
1554.24	28.9381
1555.79	29.7738
1557.34	30.4257
1558.88	30.4969
1560.43	30.7188
1561.98	30.5827
1563.53	29.7526
1565.08	30.0522
1566.62	30.9308
1568.17	32.499
1569.72	32.263
1571.27	33.6858
1572.81	34.8987
1574.36	35.758
1575.9	37.5004
1577.45	39.1769
1579	40.2623
1580.54	41.4029
1582.09	42.4583
1583.63	43.3191
1585.17	45.1409
1586.72	45.6338
1588.26	47.2143
1589.8	48.0567
1591.35	49.3928
1592.89	50.5093
1594.43	51.4066
1595.97	52.7707
1597.52	53.851
1599.06	54.3551
1600.6	54.4386
1602.14	55.0961
1603.68	55.4856
1605.22	54.9577
1606.76	55.4607
1608.3	55.3579
1609.84	56.6951
1611.38	57.8704
1612.92	57.9177
1614.46	58.2096
1615.99	59.0275
1617.53	58.9947
1619.07	58.7008
1620.61	59.303
1622.14	59.7613
1623.68	60.4163
1625.22	61.7908
1626.75	63.2044
1628.29	63.6266
1629.82	64.7564
1631.36	65.7995
1632.9	66.7186
1634.43	68.1761
1635.96	69.4986
1637.5	69.9326
1639.03	71.4534
1640.57	72.1727
1642.1	73.9402
1643.63	76.3755
1645.16	77.8526
1646.7	78.4268
1648.23	80.118
1649.76	80.6856
1651.29	81.1744
1652.82	82.5222
1654.36	82.3439
1655.89	81.9565
1657.42	82.3891
1658.95	81.9099
1660.48	80.7024
1662.01	79.8486
1663.53	78.0727
1665.06	76.9233
1666.59	75.6706
1668.12	73.1886
1669.65	71.1265
1671.18	68.2674
1672.7	66.9797
1674.23	64.6158
1675.76	61.0727
1677.29	58.1726
1678.81	54.2712
1680.34	50.8809
1681.86	48.3127
1683.39	45.3162
1684.91	42.7213
1686.44	40.3719
1687.96	37.3958
1689.49	35.3128
1691.01	32.8647
1692.54	30.7648
1694.06	28.374
1695.58	26.7032
1697.11	25.2124
1698.63	23.736
1700.15	22.4074
1701.67	20.5979
1703.2	18.303
1704.72	16.97
1706.24	15.3542
1707.76	13.4309
1709.28	12.5966
1710.8	12.0727
1712.32	10.8532
1713.84	9.699
1715.36	9.85521
1716.88	9.20718
1718.4	9.44798
1719.91	10.1343
1721.43	9.52537
1722.95	8.96547
1724.47	8.60911
1725.99	8.1846
1727.5	7.61197
1729.02	7.25572
1730.54	6.27904
1732.05	6.41575
1733.57	6.29445
1735.09	5.08188
1736.6	5.06715
1738.12	5.58645
1739.63	5.6659
1741.15	5.75985
1742.66	5.44878
1744.18	5.38079
1745.69	5.32452
1747.2	4.86765
1748.72	4.42723
1750.23	3.56388
1751.74	2.94952
1753.25	2.88198
1754.77	2.80268
1756.28	3.32542
1757.79	3.42717
1759.3	3.37157
1760.81	3.67953
1762.32	3.42186
1763.83	3.39448
1765.34	3.00045
1766.85	2.37431
1768.36	2.05079
1769.87	1.80528
1771.38	1.74828
1772.89	1.12298
1774.4	0.948529
1775.91	0.853349
1777.41	0.744467
1778.92	1.02293
1780.43	1.22057
1781.94	1.06791
1783.44	1.46322
1784.95	2.18742
1786.45	2.57266
1787.96	3.02595
1789.47	3.46973
1790.97	3.98275
1792.48	4.73144
1793.98	5.26736
1795.48	5.85066
1796.99	5.9004
1798.49	5.98865
1800	6.08034
1801.5	6.24729
1803	6.86815
1804.51	7.11972
1806.01	7.45937
1807.51	8.10021
1809.01	8.08118
1810.51	8.36151
1812.02	9.08758
1813.52	9.09657
1815.02	8.96447
1816.52	8.94862
1818.02	8.85261
1819.52	8.96707
1821.02	8.46663
1822.52	8.17455
1824.02	8.2875
1825.51	8.68742
1827.01	8.81963
1828.51	8.43767
1830.01	8.18987
1831.51	7.55304
1833	7.13542
1834.5	6.80212
1836	6.64892
1837.5	5.98594
1838.99	5.51883
1840.49	5.00331
1841.98	4.10783
1843.48	3.29772
1844.97	2.45558
1846.47	1.70068
1847.96	1.52959
1849.46	1.40201
1850.95	0.705187
1852.45	0.27804
1853.94	-0.398023
1855.43	-0.88648
1856.92	-0.867015
1858.42	-0.724746
1859.91	-0.863626
1861.4	-1.13092
1862.89	-1.07388
1864.39	-0.490139
1865.88	-0.834251
1867.37	-0.436781
1868.86	-0.388161
1870.35	0.230312
1871.84	0.549628
1873.33	1.36405
1874.82	1.69557
1876.31	1.99215
1877.8	2.57548
1879.29	2.86308
1880.77	2.71892
1882.26	3.10837
1882.51	3.22534
1884	3.50014
1885.5	3.7076
1886.99	4.20047
1888.48	4.65188
1889.98	5.59947
1891.47	6.01988
1892.97	6.50136
1894.46	6.71621
1895.95	7.11405
1897.44	7.77675
1898.93	8.78269
1900.42	9.41505
1901.92	8.91957
1903.41	9.4727
1904.9	9.93355
1906.39	10.8963
1907.88	11.5533
1909.37	11.4567
1910.86	11.163
1912.35	10.5641
1913.84	10.5071
1915.32	10.0756
1916.81	10.1294
1918.3	9.60017
1919.79	10.1709
1921.28	10.2392
1922.76	9.32108
1924.25	8.91163
1925.74	8.69861
1927.22	8.23336
1928.71	8.05234
1930.2	7.4751
1931.68	7.12548
1933.17	6.53906
1934.65	6.82094
1936.14	6.75699
1937.62	6.38878
1939.11	5.7431
1940.59	5.99627
1942.08	5.92035
1943.56	6.39934
1945.04	5.96771
1946.53	6.17074
1948.01	5.06571
1949.49	4.45234
1950.97	4.04983
1952.45	3.80254
1953.94	4.13578
1955.42	4.68077
1956.9	4.52829
1958.38	4.62467
1959.86	5.28761
1961.34	6.03453
1962.82	6.14323
1964.3	6.1712
1965.78	5.81825
1967.26	6.03251
1968.74	5.90351
1970.22	6.50366
1971.69	7.23643
1973.17	7.69962
1974.65	8.28487
1976.13	8.64405
1977.61	9.24516
1979.08	9.54439
1980.56	9.89038
1982.03	9.49145
1983.51	9.5538
1984.99	10.3709
1986.46	10.3388
1987.94	10.9555
1989.41	10.5455
1990.89	10.136
1992.36	10.1063
1993.84	10.4983
1995.31	10.1695
1996.78	9.5922
1998.26	9.45095
1999.73	9.72338
2001.2	9.4844
2002.68	9.60679
2004.15	9.31925
2005.62	9.44162
2007.09	10.058
2008.56	10.259
2010.04	9.59802
2011.51	9.41296
2012.98	9.59948
2014.45	9.73381
2015.92	9.80019
2017.39	10.0529
2018.86	9.12165
2020.33	9.48126
2021.8	8.46746
2023.27	8.97428
2024.74	8.87234
2026.2	9.25574
2027.67	9.57544
2029.14	9.10278
2030.61	9.06734
2032.07	9.23933
2033.54	9.50059
2035.01	9.59446
2036.47	9.07223
2037.94	9.10046
2039.41	9.39222
2040.87	9.90841
2042.34	10.1958
2043.8	10.6342
2045.27	11.4072
2046.73	12.1082
2048.2	12.9079
2049.66	13.0844
2051.12	12.991
2052.59	13.8337
2054.05	14.5052
2055.51	15.1564
2056.98	16.3303
2058.44	16.325
2059.9	16.1984
2061.36	16.863
2062.82	16.6934
2064.29	17.3108
2065.75	18.2285
2067.21	18.4308
2068.67	18.8768
2070.13	18.7906
2071.59	19.7272
2073.05	20.7032
2074.51	21.1367
2075.97	21.8546
2077.43	22.5203
2078.88	22.9471
2080.34	24.4345
2081.8	24.222
2083.26	24.7738
2084.72	25.4853
2086.17	26.8935
2087.63	27.386
2089.09	28.1375
2090.54	28.6703
2092	28.7426
2093.46	29.5435
2094.91	29.5799
2096.37	30.4723
2097.82	30.8354
2099.28	31.6732
2100.73	32.2893
2102.19	33.162
2103.64	34.3039
2105.09	34.8642
2106.55	35.4632
2108	36.6253
2109.46	37.6316
2110.91	38.2725
2112.36	39.0058
2113.81	39.8648
2115.27	41.0001
2116.72	42.6136
2118.17	45.0008
2119.62	46.0873
2121.07	46.9947
2122.52	48.9114
2123.97	50.5221
2125.42	52.243
2126.87	53.6926
2128.32	55.6879
2129.77	57.3301
2131.22	59.176
2132.67	61.3737
2134.12	62.947
2135.57	64.0284
2137.01	66.3312
2138.46	68.4186
2139.91	70.3475
2141.36	73.3023
2142.8	75.6671
2144.25	78.5191
2145.7	81.3383
2147.14	83.4427
2148.59	84.8776
2150.03	86.9334
2151.48	88.6701
2152.92	91.1506
2154.37	92.3746
2155.81	94.6251
2157.26	95.4592
2158.7	97.7682
2160.15	98.5999
2161.59	99.9
2163.03	100.258
2164.48	101.403
2165.92	102.486
2167.36	103.465
2168.8	103.671
2170.25	102.935
2171.69	102.867
2173.13	103.093
2174.57	102.603
2176.01	100.834
2177.45	98.615
2178.89	97.1906
2180.33	95.7717
2181.77	94.2267
2183.21	92.574
2184.65	91.768
2186.09	90.2949
2187.53	89.091
2188.97	87.0439
2190.41	85.6164
2191.84	83.4895
2193.28	81.7528
2194.72	80.6427
2196.16	79.1059
2197.59	77.6678
2199.03	75.9764
2200.47	74.713
2201.9	72.5699
2203.34	70.8881
2204.78	68.7358
2206.21	66.7401
2207.65	65.9436
2209.08	64.5204
2210.51	63.4041
2211.95	61.917
2213.38	60.5761
2214.82	58.7928
2216.25	57.5969
2217.68	55.9871
2219.12	54.0332
2220.55	52.4652
2221.98	51.6851
2223.42	50.4576
2224.85	49.5339
2226.28	48.3899
2227.71	47.3202
2229.14	45.8904
2230.57	46.3795
2232	44.8163
2233.43	43.1703
2234.86	42.3846
2236.29	41.2638
2237.72	39.6553
2239.15	38.0199
2240.58	35.3805
2242.01	33.6283
2243.44	32.328
2244.87	30.8545
2246.3	28.6969
2247.73	26.4982
2249.15	24.9667
2250.58	23.7304
2252.01	22.4333
2253.43	21.6712
2254.86	20.6355
2256.29	19.5572
2257.71	18.3726
2259.14	18.483
2260.56	17.8404
2261.99	17.4031
2263.41	17.0971
2264.84	16.9913
2266.26	16.7986
2267.69	16.7087
2269.11	16.183
2270.54	15.5895
2271.96	15.1698
2273.38	14.0297
2274.81	14.1646
2276.23	14.2055
2277.65	13.9037
2279.07	13.6495
2280.49	12.4656
2281.92	11.978
2283.34	11.744
2284.76	11.4423
2286.18	11.6524
2287.6	11.1823
2289.02	10.7673
2290.44	10.5538
2291.86	10.3721
2293.28	10.1819
2294.7	10.5488
2296.12	10.6699
2297.54	10.8767
2298.96	11.0022
2300.38	10.7087
2301.79	11.2093
2303.21	10.5547
2304.63	10.3132
2306.05	10.9278
2307.46	10.655
2308.88	11.3973
2310.3	10.8652
2311.71	10.5601
2313.13	10.8352
2314.55	10.5879
2315.96	10.3409
2317.38	10.2022
2318.79	10.187
2320.21	9.85783
2321.62	9.85116
2323.03	9.64529
2324.45	10.437
2325.86	11.0492
2327.27	11.1857
2328.69	11.4848
2330.1	12.0011
2331.51	11.4848
2332.93	11.4132
2334.34	11.67
2335.75	11.4056
2337.16	11.0575
2338.57	10.986
2339.99	10.3381
2341.4	9.41466
2342.81	8.77665
2344.22	8.79973
2345.63	8.58954
2347.04	8.0016
2348.45	6.64255
2349.86	6.08515
2351.26	5.34543
2352.67	4.7981
2354.08	5.30128
2355.49	4.04498
2356.9	3.55834
2358.31	3.10262
2359.71	2.76915
2361.12	2.82873
2362.53	2.48766
2363.94	1.96305
2365.34	2.54152
2366.75	2.04721
2368.15	1.88502
2369.56	1.41724
2370.97	1.02689
2372.37	1.10084
2373.78	1.52296
2375.18	1.57365
2376.59	2.08809
2377.99	2.02858
2379.39	1.85625
2380.8	1.441
2382.2	1.68611
2383.61	1.06423
2385.01	0.499286
2386.41	0.49543
2387.81	0.590921
2389.22	0.304074
2390.62	-0.164208
2392.02	-0.422439
2393.42	-0.0792399
2394.82	0.0699341
2396.22	-0.0591651
2397.63	-0.205865
2399.02	0.159896
2400.43	-0.244575
2401.82	-0.95577
2403.23	-1.34334
2404.62	-1.35281
2406.02	-1.02347
2407.42	-1.25804
2408.82	-1.91567
2410.22	-1.79007
2411.62	-1.73151
2413.02	-1.71476
2414.41	-1.73426
2415.81	-2.18804
2417.21	-1.66069
2418.61	-1.65002
2420	-1.25595
2421.4	-1.13119
2422.79	-0.472333
2424.19	-0.158756
2425.59	-0.278457
2426.98	0.247195
2428.38	0.807628
2429.77	0.754416
2431.17	1.39212
2432.56	1.1666
2433.96	0.976855
2435.35	1.80274
2436.74	1.65835
2438.14	1.75765
2439.53	2.38553
2440.92	2.7329
2442.32	3.1574
2443.71	3.45593
2445.1	3.32677
2446.49	3.62729
2447.88	3.40401
2449.28	3.61058
2450.67	3.20909
2452.06	2.63205
2453.45	2.56764
2454.84	3.0843
2456.23	3.40205
2457.62	3.43356
2459.01	3.75297
2460.4	3.62421
2461.79	3.86304
2463.18	3.92923
2464.57	3.82631
2465.96	4.16248
2467.34	4.49657
2468.73	3.85183
2470.12	3.23739
2471.51	3.05066
2472.89	2.99496
2474.28	3.44858
2475.67	3.13711
2477.05	2.94458
2478.44	2.47035
2479.83	3.54392
2481.21	3.27104
2482.6	2.84472
2483.98	3.50174
2485.37	3.25045
2486.75	3.61252
2488.14	3.49483
2489.52	3.7387
2490.9	3.899
2492.29	3.53862
2493.67	3.46871
2495.06	3.92671
2496.44	3.9438
2497.82	4.0802
2499.2	3.86479
2500.59	3.738
2501.97	3.50428
2503.35	2.67959
2504.73	3.43058
2506.11	2.88836
2507.49	2.52223
2508.88	2.5904
2510.26	1.98237
2511.63	2.00998
2513.01	1.46553
2514.39	1.36553
2515.77	0.711118
2517.15	0.524691
2518.53	0.567634
2519.91	0.452167
2521.29	0.31623
2522.67	0.612014
2524.05	0.276688
2525.42	0.554847
2526.8	0.54177
2528.18	0.27107
2529.56	0.097586
2530.93	0.218621
2532.31	0.120132
2533.69	0.0616318
2535.06	0.37393
2536.44	0.544446
2537.81	0.104486
2539.19	0.421021
2540.56	0.568149
2541.94	0.926198
2543.31	1.83011
2544.69	1.68749
2546.06	2.15539
2547.44	2.43174
2548.81	3.45319
2550.18	3.24434
2551.56	3.40273
2552.93	4.29488
2554.3	4.2198
2555.68	5.08929
2557.05	5.15309
2558.42	5.57471
2559.79	5.64251
2561.16	5.92806
2562.53	6.99982
2563.9	7.59908
2565.28	7.46892
2566.64	7.52629
2568.02	7.89292
2569.38	7.70624
2570.76	8.29765
2572.12	8.14873
2573.49	8.89017
2574.86	8.07754
2576.23	7.90797
2577.6	8.21319
2578.97	8.02337
2580.34	7.55791
2581.7	7.37745
2583.07	7.11017
2584.44	6.99908
2585.81	7.00729
2587.17	6.75055
2588.54	6.52736
2589.91	5.97309
2591.27	5.84299
2592.64	5.32272
2594	4.9731
2595.37	4.44468
2596.73	4.31449
2598.1	4.09724
2599.46	3.92231
2600.83	3.49323
2602.19	3.62524
2603.55	3.85907
2604.92	3.15306
2606.28	3.2362
2607.64	3.10451
2609.01	3.02398
2610.37	2.8489
2611.73	3.26198
2613.09	2.68641
2614.46	2.47801
2615.82	1.51537
2617.18	0.820285
2618.54	0.367904
2619.9	0.56765
2621.26	0.876247
2622.62	0.789182
2623.98	1.3254
2625.34	1.34003
2626.7	1.97831
2628.06	2.23544
2629.42	2.59704
2630.78	2.94341
2632.14	2.97686
2633.5	3.09488
2634.86	3.56012
2636.22	4.26688
2637.57	4.21256
2638.93	4.93539
2640.29	4.99146
2641.64	5.12475
2643	5.00921
2644.36	5.61458
2645.72	6.37007
2647.07	6.58198
2648.43	6.98934
2649.78	7.60985
2651.14	7.40369
2652.49	7.37171
2653.85	7.77421
2655.2	8.58593
2656.56	9.00748
2657.91	8.83323
2659.27	8.76258
2660.62	8.87078
2661.97	8.84198
2663.33	9.50561
2664.68	9.53212
2666.03	9.22216
2667.38	9.53239
2668.74	9.34443
2670.09	9.42564
2671.44	9.1033
2672.79	8.71105
2674.14	8.83083
2675.49	8.37504
2676.84	8.33753
2678.2	7.72262
2679.55	7.74929
2680.89	7.43491
2682.24	6.99305
2683.59	6.76598
2684.94	7.12514
2686.29	7.50801
2687.64	7.86899
2688.99	7.84542
2690.34	8.11067
2691.69	8.66122
2693.04	9.14618
2694.38	9.29146
2695.73	9.35717
2697.08	9.29694
2698.43	9.93881
2699.77	10.2709
2701.12	10.372
2702.46	10.7611
2703.81	11.1798
2705.16	10.8332
2706.5	10.739
2707.85	10.5886
2709.19	10.1195
2710.54	10.1116
2711.88	10.5335
2713.23	10.4771
2714.57	10.4861
2715.92	10.111
2717.26	9.78071
2718.6	9.65957
2719.95	9.19027
2721.29	9.55099
2722.63	8.93945
2723.97	8.78253
2725.32	8.56149
2726.66	8.03211
2728	8.43147
2729.34	8.42205
2730.68	8.32919
2732.02	8.07279
2733.36	7.33598
2734.7	6.80057
2736.04	6.07225
2737.39	5.97589
2738.72	5.7307
2740.06	5.72726
2741.4	5.83093
2742.74	5.45932
2744.08	5.32852
2745.42	5.41196
2746.76	6.17847
2748.1	6.25894
2749.44	5.61225
2750.77	5.95441
2752.11	6.37747
2753.45	5.92926
2754.78	6.47308
2756.12	7.11856
2757.46	7.70309
2758.79	7.21182
2760.13	7.02521
2761.47	6.57206
2762.8	6.36767
2764.14	6.1537
2765.47	6.07345
2766.81	5.57908
2768.14	5.06362
2769.48	4.80973
2770.81	3.95758
2772.14	3.56719
2773.48	2.8995
2774.81	3.01884
2776.14	2.91208
2777.48	3.20981
2778.81	3.1455
2780.14	3.01784
2781.47	3.08119
2782.81	2.7877
2784.14	2.46327
2785.47	1.96718
2786.8	1.58939
2788.13	1.80608
2789.46	1.92344
2790.79	1.66635
2792.12	0.860555
2793.46	0.276752
2794.79	0.62175
2796.11	-0.208462
2797.44	-0.541278
2798.77	-0.336177
2800.1	-0.75621
2801.43	-0.214079
2802.76	-0.209975
2804.09	-0.385348
2805.42	-0.759734
2806.74	-0.182922
2808.07	0.0139573
2809.4	0.648086
2810.73	1.04461
2812.05	1.01417
2813.38	1.0254
2814.71	1.42788
2816.03	1.59277
2817.36	2.56327
2818.68	3.20845
2820.01	3.98299
2821.33	6.29058
2822.66	7.5931
2823.98	8.9561
2825.31	10.5372
2826.63	12.9251
2827.96	15.4516
2829.28	17.3428
2830.61	19.6644
2831.93	21.9733
2833.25	24.7261
2834.57	27.0721
2835.9	29.5817
2837.22	32.7042
2838.54	35.8478
2839.86	39.0235
2841.18	42.8188
2842.51	45.6841
2843.83	48.8607
2845.15	51.169
2846.47	54.4726
2847.79	57.3535
2849.11	60.1196
2850.43	63.2808
2851.75	66.2748
2853.07	69.769
2854.39	73.3445
2855.71	76.0552
2857.03	78.8671
2858.35	81.6825
2859.67	85.0889
2860.98	88.0034
2862.3	90.7274
2863.62	93.2991
2864.94	95.3032
2866.25	97.2957
2867.57	99.6535
2868.89	100.798
2870.21	102.413
2871.52	103.715
2872.84	105.381
2874.15	106.451
2875.47	107.132
2876.78	108.19
2878.1	109.669
2879.42	111.088
2880.73	112.722
2882.04	114.079
2883.36	115.914
2884.67	117.913
2885.99	119.991
2887.3	121.595
2888.61	122.824
2889.93	124.546
2891.24	126.666
2892.55	128.639
2893.87	130.692
2895.18	132.345
2896.49	133.849
2897.8	136.068
2899.11	138.068
2900.42	140.262
2901.74	143.328
2903.05	146.315
2904.36	149.065
2905.67	152.931
2906.98	155.833
2908.29	159.143
2909.6	163.134
2910.91	166.94
2912.22	171.443
2913.53	175.245
2914.83	179.875
2916.14	184.047
2917.45	187.822
2918.76	192.169
2920.07	195.925
2921.37	198.944
2922.68	202.189
2923.99	204.428
2925.3	206.495
2926.6	207.681
2927.91	208.693
2929.22	209.175
2930.52	209.786
2931.83	210.457
2933.13	210.4
2934.44	209.777
2935.74	208.794
2937.05	207.255
2938.35	206.414
2939.66	204.373
2940.96	201.79
2942.27	199.495
2943.57	196.035
2944.87	192.85
2946.18	189.889
2947.48	185.982
2948.78	181.645
2950.09	177.96
2951.39	173.591
2952.69	168.978
2953.99	164.438
2955.29	160.384
2956.6	156.493
2957.9	152.024
2959.2	147.285
2960.5	142.455
2961.8	137.83
2963.1	133.193
2964.4	128.607
2965.7	124.799
2967	120.772
2968.3	116.215
2969.6	112.434
2970.9	109.428
2972.2	105.13
2973.49	101.661
2974.79	97.6954
2976.09	94.3436
2977.39	90.5976
2978.69	86.9879
2979.98	83.6314
2981.28	79.7025
2982.58	76.4857
2983.88	73.1911
2985.17	69.5281
2986.47	65.7355
2987.76	62.1652
2989.06	58.8279
2990.36	54.7928
2991.65	51.9724
2992.95	48.8157
2994.24	45.9109
2995.54	42.7359
2996.83	39.9446
2998.12	37.2926
2999.42	34.9575
3000.71	31.8085
3002	29.2129
3003.3	26.5808
3004.59	23.5766
3005.88	21.5113
3007.18	19.225
3008.47	17.4203
3009.76	16.3416
3011.05	14.3487
3012.35	12.523
3013.64	11.7823
3014.93	10.9796
3016.22	9.64324
3017.51	8.9969
3018.8	8.47945
3020.09	7.93298
3021.38	7.28915
3022.67	6.18616
3023.96	5.23127
3025.25	4.54549
3026.54	3.98808
3027.83	3.22454
3029.12	3.31058
3030.41	3.36437
3031.69	3.05577
3032.98	2.98931
3034.27	2.92452
3035.56	3.17437
3036.85	3.24606
3038.13	3.61845
3039.42	3.77746
3040.71	4.05536
3041.99	3.51522
3043.28	3.77955
3044.57	3.97045
3045.85	4.58114
3047.14	5.46386
3048.42	5.62011
3049.71	5.76891
3050.99	6.07675
3052.28	6.15901
3053.56	6.59708
3054.85	6.43413
3056.13	6.6222
3057.42	6.24614
3058.7	6.03613
3059.98	6.01876
3061.27	6.14959
3062.55	6.56103
3063.83	6.2951
3065.11	5.1705
3066.4	4.76148
3067.68	4.36502
3068.96	3.8349
3070.24	3.65063
3071.52	3.3465
3072.8	3.70017
3074.09	3.49276
3075.37	2.96662
3076.65	2.56603
3077.93	2.04988
3079.21	1.50489
3080.49	1.2575
3081.77	1.14723
3083.05	0.468804
3084.32	-0.102935
3085.61	-0.393026
3086.88	-0.460283
3088.16	-0.205746
3089.44	-0.370484
3090.72	-0.416809
3092	-0.541566
3093.27	-0.653986
3094.55	-0.42057
3095.83	-0.391819
3097.11	-0.331623
3098.38	0.235916
3099.66	0.993174
3100.94	1.57913
3102.21	1.58996
3103.49	1.59906
3104.76	1.91126
3106.04	2.47836
3107.31	3.28142
3108.59	3.39375
3109.86	4.36681
3111.14	4.97437
3112.41	5.31091
3113.69	6.00309
3114.96	6.78661
3116.23	7.36566
3117.51	8.11395
3118.78	8.21291
3120.05	8.46852
3121.33	8.98749
3122.6	9.60227
3123.87	10.2098
3125.14	10.509
3126.42	11.166
3127.69	10.9697
3128.96	11.0432
3130.23	11.9535
3131.5	12.5388
3132.77	12.8888
3134.04	13.8908
3135.31	14.6487
3136.58	14.8428
3137.85	14.9409
3139.12	15.2195
3140.39	15.3122
3141.66	15.7017
3142.93	16.2366
3144.2	16.5061
3145.47	16.8783
3146.74	17.3875
3148	17.9917
3149.27	18.5656
