#Acq. time (s)=	45
#Accumulations=	2
#Range (cm-¹)=	200...3150
#Windows=	2
#Auto scanning=	Off
#Autofocus=	Off
#Macrospot=	Off
#AutoExposure=	Off
#Spike filter=	Multiple accum.
#Delay time (s)=	0
#Binning=	1
#Readout mode=	Signal
#DeNoise=	Off
#ICS correction=	On
#Dark correction=	Off
#Inst. Process=	Off
#Detector Gain=	Best Dynamic Range
#Detector ADC=	20 kHz       
#Detector temperature (°C)=	-69.85
#Instrument=	LabRAM HR Evol
#Detector=	Synapse
#Objective=	x100
#Grating=	600 gr/mm
#ND Filter=	100%
#Laser (nm)=	532 
#Hole=	100.021
#Range=	Auto
#Laser Pol.=	No
#Raman. Pol.=	No
#Laser Pol. (°)=	-0.0007625
#Raman Pol. (°)=	89.9995
#Collection=	Microscope
#StageXY=	Marzhauser
#StageZ=	Marzhauser
#X (µm)=	28296.4
#Y (µm)=	-3279
#Z (µm)=	1041.35
#Full time(mm:ss)=	3:18
#Project=	
#Sample=	
#Site=	
#Title=	Mb_50_18_29_2x_45s_532 nm_x100_100%_600 gr_mm
#Remark=	
#Date=	12.07.2022 12:59
#Acquired=	12.07.2022 12:59:19
#Base:Fit=	10.08.2022 10:49:18
#Base:Sub=	10.08.2022 10:49:30
#Filter:Polynom=	16.08.2022 10:14:59
#AxisType[0]=Intens
#AxisUnit[0]=Cnt
#AxisType[1]=Spectr
#AxisUnit[1]=1/cm
200.388	-2.34782
202.204	-0.896905
204.019	0.145866
205.832	1.45629
207.646	2.51642
209.459	3.21145
211.274	3.74206
213.087	4.03814
214.899	3.97517
216.711	3.67084
218.524	3.02861
220.335	4.08541
222.146	4.30191
223.956	3.88748
225.766	4.39969
227.576	5.15458
229.388	5.74456
231.197	7.34317
233.005	8.24958
234.813	7.5838
236.621	6.63345
238.429	7.69382
240.236	7.75621
242.045	7.60987
243.852	7.59171
245.658	6.85674
247.464	5.93202
249.269	6.61369
251.074	6.48766
252.879	6.42517
254.683	5.73402
256.487	5.85556
258.291	4.91009
260.094	5.50644
261.897	5.173
263.702	6.92205
265.504	7.02952
267.306	6.0201
269.108	5.298
270.909	5.54108
272.71	3.76146
274.511	4.5971
276.311	4.13954
278.111	4.05563
279.91	4.81435
281.709	5.50835
283.508	5.65488
285.306	6.94489
287.105	7.9171
288.9	9.02536
290.698	10.8653
292.495	10.8066
294.291	11.2068
296.088	11.1231
297.884	12.1539
299.679	14.6471
301.475	16.4456
303.27	17.7022
305.064	19.9412
306.858	22.4436
308.652	24.3652
310.444	27.5288
312.237	28.7929
314.03	29.9728
315.822	32.1808
317.615	34.358
319.406	35.9791
321.198	36.9166
322.987	36.4115
324.778	36.6264
326.568	37.6533
328.358	38.75
330.148	37.9242
331.935	38.2499
333.724	37.9519
335.513	36.3375
337.301	36.1983
339.089	35.7543
340.875	33.8022
342.662	33.3578
344.449	33.0908
346.236	32.6981
348.02	32.1326
349.806	32.3484
351.592	32.4395
353.375	33.6269
355.16	34.2813
356.944	37.0847
358.728	39.9163
360.51	43.9331
362.294	47.39
364.077	51.0116
365.858	54.941
367.64	59.243
369.422	62.1257
371.202	64.0869
372.983	66.3425
374.764	69.3818
376.543	71.4739
378.324	73.8689
380.102	75.2687
381.881	77.3212
383.661	79.3048
385.438	81.2595
387.216	82.791
388.993	83.8897
390.771	83.8768
392.548	85.0244
394.324	85.1075
396.101	84.9828
397.875	83.5797
399.651	82.1965
401.425	79.952
403.201	77.9605
404.974	75.279
406.749	72.8634
408.524	69.4326
410.296	64.2058
412.07	59.5153
413.841	55.0823
415.614	50.3091
417.385	45.2256
419.156	39.9565
420.928	35.6132
422.698	29.0443
424.469	23.4573
426.238	18.8705
428.009	14.6156
429.777	11.7078
431.548	9.71695
433.315	7.61727
435.083	5.48765
436.852	4.5349
438.618	4.21811
440.387	4.14757
442.153	4.93542
443.919	7.10833
445.686	9.5781
447.451	10.7312
449.218	12.2221
450.982	11.7927
452.746	11.3483
454.512	10.9143
456.275	10.4816
458.038	10.6664
459.803	10.3765
461.565	11.7098
463.327	11.9715
465.091	12.4479
466.852	12.6278
468.613	12.6449
470.374	12.4846
472.136	12.4305
473.896	12.6867
475.655	14.2657
477.415	15.9217
479.176	17.5938
480.934	19.6587
482.692	21.1848
484.45	24.1207
486.21	26.0462
487.967	27.2316
489.724	29.7034
491.481	33.222
493.237	35.8155
494.995	40.0365
496.75	42.394
498.506	44.2146
500.26	47.7021
502.015	51.8093
503.771	54.6632
505.525	57.4857
507.279	59.6367
509.032	63.1234
510.785	64.4154
512.537	66.867
514.289	68.9564
516.041	71.0343
517.793	73.1694
519.546	74.1909
521.297	75.7179
523.047	76.1858
524.797	75.8931
526.547	75.3404
528.297	76.0022
530.046	76.7319
531.795	77.0939
533.543	74.2583
535.291	71.4899
537.039	68.3887
538.787	65.1331
540.534	62.0936
542.281	58.4933
544.027	54.5563
545.773	50.2712
547.519	46.2457
549.264	42.8076
551.01	38.2983
552.754	34.3405
554.499	31.9406
556.243	29.6469
557.987	26.4105
559.73	24.8395
561.474	22.2721
563.216	22.1519
564.959	20.1452
566.701	18.9193
568.441	19.5203
570.182	19.0901
571.923	19.6313
573.664	19.0286
575.405	19.8219
577.145	22.4632
578.885	23.8181
580.624	23.6374
582.361	24.1976
584.1	24.4211
585.839	25.7149
587.577	26.4623
589.315	26.9178
591.052	26.2843
592.787	27.1887
594.524	26.5298
596.26	27.1707
597.997	26.4932
599.732	26.4652
601.466	25.8144
603.201	25.5142
604.936	24.0391
606.67	23.3354
608.403	23.063
610.136	21.4886
611.87	20.4628
613.603	20.1693
615.334	19.1425
617.067	16.9026
618.799	14.4199
620.529	12.337
622.26	10.8243
623.991	9.20089
625.72	7.0397
627.451	5.77309
629.181	5.39901
630.909	4.37061
632.638	3.5299
634.368	2.504
636.095	0.984179
637.823	0.942756
639.551	0.269317
641.277	1.45908
643.005	0.324642
644.73	-0.324638
646.457	-0.670426
648.184	0.888652
649.908	2.80933
651.634	2.85468
653.357	3.6536
655.083	5.04229
656.806	5.06175
658.53	5.57264
660.253	6.4249
661.977	7.04898
663.7	7.12117
665.422	6.94487
667.145	7.56699
668.865	9.33404
670.588	10.7432
672.308	11.3329
674.027	11.0229
675.749	12.7409
677.468	13.5236
679.188	14.2965
680.907	14.2999
682.627	15.8339
684.345	17.4621
686.064	17.7214
687.781	18.0333
689.498	19.5239
691.216	20.0357
692.932	21.9228
694.65	21.0628
696.366	21.3194
698.081	21.989
699.797	21.9663
701.512	21.9931
703.228	21.6768
704.942	20.9128
706.655	22.4348
708.371	21.912
710.083	21.5165
711.796	21.5823
713.51	23.1275
715.222	23.1165
716.934	21.0309
718.645	20.5614
720.358	21.1321
722.068	20.3432
723.779	19.871
725.49	18.7607
727.2	19.2674
728.909	18.4597
730.618	19.3965
732.329	20.2375
734.037	22.4611
735.745	23.8972
737.453	26.1998
739.16	29.17
740.869	33.1558
742.576	38.7517
744.282	46.243
745.988	53.468
747.694	60.0044
749.401	66.4127
751.107	74.4643
752.811	83.0886
754.516	90.6284
756.22	98.0388
757.924	104.189
759.627	110.19
761.332	116.663
763.035	121.268
764.738	127.043
766.44	132.146
768.142	135.9
769.843	140.264
771.544	142.796
773.245	145.174
774.946	148.254
776.646	149.174
778.346	148.996
780.046	148.232
781.745	149.569
783.444	149.739
785.143	147.392
786.841	145.413
788.539	141.606
790.237	139.128
791.934	136.193
793.631	131.527
795.328	127.478
797.024	123.155
798.72	118.275
800.416	111.5
802.112	103.712
803.807	97.0468
805.502	90.3063
807.196	83.4774
808.89	77.4214
810.584	72.1953
812.278	67.968
813.971	63.1773
815.664	59.4961
817.354	56.3379
819.047	53.975
820.739	52.5629
822.43	52.4192
824.122	51.7112
825.813	51.3716
827.503	51.2619
829.192	49.0604
830.882	47.4268
832.571	46.22
834.261	44.9973
835.95	46.0458
837.637	44.9728
839.325	44.2874
841.013	44.0502
842.701	41.6195
844.389	40.8041
846.074	40.6516
847.761	39.9666
849.447	38.7893
851.131	37.1477
852.817	36.6728
854.503	36.8346
856.188	35.9551
857.871	36.1031
859.556	35.4579
861.24	34.4646
862.922	32.8059
864.606	32.1079
866.289	32.3234
867.97	30.3827
869.653	27.91
871.336	27.7916
873.016	26.997
874.698	27.1173
876.379	25.2811
878.058	24.4333
879.739	23.4346
881.418	21.7671
883.098	21.2599
884.778	20.3492
886.456	20.0437
888.135	19.7197
889.812	19.9821
891.49	19.2771
893.167	18.3777
894.845	18.1439
896.523	18.2675
898.198	17.4632
899.875	17.5963
901.55	18.0645
903.226	17.6939
904.901	17.2929
906.576	17.5414
908.25	16.1264
909.925	15.4779
911.598	16.2354
913.271	16.7703
914.945	19.4791
916.617	21.154
918.291	23.0655
919.962	23.9191
921.635	24.9519
923.306	26.2077
924.978	25.9653
926.648	25.8192
928.318	25.1088
929.989	25.2282
931.659	25.3181
933.328	24.8769
934.998	24.7909
936.666	25.2945
938.336	24.9015
940.004	25.4282
941.671	25.0872
943.34	23.6419
945.007	22.8204
946.673	21.0322
948.339	20.9066
950.007	20.0798
951.672	19.0194
953.337	18.9177
955.004	16.9702
956.669	15.4702
958.333	13.7471
959.997	11.2536
961.662	11.5153
963.326	10.3091
964.989	10.0419
966.651	9.92283
968.315	8.92032
969.977	7.82453
971.639	6.43216
973.301	6.32391
974.962	4.61346
976.624	2.86105
978.285	3.39589
979.945	2.61378
981.605	2.10628
983.264	1.66297
984.924	0.529536
986.583	-0.136517
988.243	-0.34355
989.901	0.852029
991.56	1.79711
993.217	4.22761
994.875	7.16602
996.532	9.04442
998.188	11.9341
999.845	15.3781
1001.5	18.0548
1003.16	21.4768
1004.81	26.4967
1006.47	30.7992
1008.12	35.25
1009.78	39.757
1011.43	44.8555
1013.09	50.7478
1014.74	55.555
1016.39	60.1683
1018.05	65.1982
1019.7	70.7575
1021.35	74.5513
1023	77.1176
1024.65	80.247
1026.31	81.5882
1027.96	84.8018
1029.61	86.6786
1031.26	87.9549
1032.91	88.2211
1034.56	88.7346
1036.21	89.0587
1037.86	87.7735
1039.51	88.4361
1041.16	87.0127
1042.8	84.7144
1044.45	81.3149
1046.1	77.8012
1047.75	75.584
1049.39	72.5755
1051.04	69.7288
1052.69	65.8586
1054.33	64.0756
1055.98	61.8039
1057.62	58.8433
1059.27	57.1298
1060.91	56.9063
1062.56	55.436
1064.2	55.354
1065.85	54.8962
1067.49	54.5857
1069.13	54.7781
1070.77	55.893
1072.42	57.1179
1074.06	58.6462
1075.7	59.9019
1077.34	60.7783
1078.98	62.6019
1080.62	64.7324
1082.27	67.6849
1083.91	69.4883
1085.55	70.7541
1087.18	72.0183
1088.82	72.0352
1090.46	72.1873
1092.1	71.8855
1093.74	71.7544
1095.38	69.9124
1097.02	69.4761
1098.65	68.1471
1100.29	66.3221
1101.93	64.266
1103.56	60.0214
1105.2	57.5655
1106.84	55.8985
1108.47	51.6919
1110.11	49.2883
1111.74	43.9795
1113.38	39.9843
1115.01	36.9123
1116.64	33.7788
1118.28	30.128
1119.91	23.0159
1121.54	18.7336
1123.18	13.5301
1124.81	8.71221
1126.44	4.92795
1128.07	2.62585
1129.7	0.0354651
1131.33	-1.61115
1132.97	-2.53748
1134.6	-2.59253
1136.23	-0.524424
1137.86	-0.273528
1139.49	0.465498
1141.11	1.60244
1142.74	2.93161
1144.37	4.10769
1146	5.25449
1147.63	6.07548
1149.26	6.51829
1150.88	7.79612
1152.51	9.63097
1154.14	10.4436
1155.76	10.3088
1157.39	11.3329
1159.01	12.2254
1160.64	13.9737
1162.27	15.7945
1163.89	17.9121
1165.51	17.6417
1167.14	17.3214
1168.76	17.5609
1170.39	16.8394
1172.01	18.0044
1173.63	18.7189
1175.25	20.377
1176.88	20.1034
1178.5	21.0537
1180.12	21.0707
1181.74	21.8204
1183.36	22.1613
1184.98	21.4057
1186.6	22.4719
1188.22	20.9896
1189.84	19.7129
1191.46	18.6685
1193.08	18.3672
1194.7	18.7086
1196.32	18.9158
1197.94	17.8275
1199.55	16.3201
1201.17	14.922
1202.79	15.9604
1204.41	15.7559
1206.02	14.9917
1207.64	14.6883
1209.25	14.9416
1210.87	17.1072
1212.48	17.8614
1214.1	18.9131
1215.71	19.1679
1217.33	19.4133
1218.94	19.4417
1220.56	19.9626
1222.17	20.295
1223.79	20.1141
1225.4	19.8057
1227.01	20.4228
1228.62	20.6204
1230.23	20.5605
1231.85	20.8607
1233.46	21.2257
1235.07	21.7189
1236.68	22.174
1238.29	23.8416
1239.9	24.017
1241.51	24.6261
1243.12	25.0818
1244.73	24.6926
1246.34	24.1902
1247.94	23.7631
1249.55	24.1829
1251.16	25.5326
1252.77	27.2613
1254.37	26.7968
1255.98	26.9303
1257.59	26.4577
1259.2	27.1988
1260.8	26.803
1262.41	26.9278
1264.01	26.2533
1265.62	25.6576
1267.22	26.216
1268.83	25.6613
1270.43	25.7438
1272.03	26.6612
1273.64	28.6157
1275.24	29.6281
1276.85	29.8803
1278.45	30.7147
1280.05	31.0528
1281.65	31.5922
1283.25	32.2799
1284.85	33.1693
1286.46	33.9216
1288.06	35.6731
1289.66	36.6833
1291.26	37.4196
1292.86	37.6536
1294.46	38.2371
1296.06	39.0674
1297.66	39.8831
1299.25	40.2597
1300.85	40.1053
1302.45	39.9189
1304.05	40.296
1305.65	40.0354
1307.24	39.7211
1308.84	39.9445
1310.43	39.2062
1312.03	39.3105
1313.63	39.8915
1315.22	40.1524
1316.82	39.1589
1318.41	39.0205
1320.01	39.118
1321.6	39.0625
1323.2	39.0359
1324.79	39.6839
1326.38	39.2956
1327.98	38.5427
1329.57	39.4088
1331.16	40.0855
1332.76	40.2297
1334.35	39.4322
1335.94	38.2961
1337.53	38.154
1339.12	37.0603
1340.71	36.5384
1342.3	36.2811
1343.89	35.2881
1345.48	34.9642
1347.07	35.4582
1348.66	34.3697
1350.25	33.5491
1351.84	34.4914
1353.43	34.0868
1355.01	33.6174
1356.6	33.0646
1358.19	33.5703
1359.77	32.7246
1361.36	31.6
1362.95	32.1712
1364.53	32.5571
1366.12	32.4661
1367.71	31.5432
1369.29	30.0368
1370.88	29.3768
1372.46	29.3587
1374.04	27.9055
1375.63	27.7873
1377.21	26.3877
1378.8	26.1772
1380.38	24.6055
1381.96	24.6128
1383.54	22.615
1385.13	20.581
1386.71	20.2952
1388.29	19.5289
1389.87	18.4722
1391.45	19.0378
1393.03	18.8485
1394.61	18.0608
1396.19	17.0995
1397.77	17.4972
1399.35	18.0011
1400.93	18.4517
1402.51	18.8812
1404.09	21.2036
1405.67	21.5373
1407.24	23.3247
1408.82	25.6653
1410.4	27.8381
1411.98	30.2495
1413.55	30.7922
1415.13	32.8383
1416.71	35.5187
1418.28	37.9233
1419.86	40.9211
1421.43	43.5974
1423.01	46.7564
1424.58	50.2644
1426.16	54.2298
1427.73	56.8666
1429.31	59.4414
1430.88	63.3015
1432.45	66.4573
1434.02	68.4352
1435.6	70.8833
1437.17	72.7328
1438.74	73.242
1440.31	73.646
1441.88	75.7634
1443.45	75.9862
1445.03	76.6093
1446.6	76.0673
1448.17	76.2424
1449.74	76.5456
1451.3	76.5887
1452.87	75.76
1454.44	75.3477
1456.01	74.8986
1457.58	73.9492
1459.15	72.9563
1460.72	72.3275
1462.28	71.0763
1463.85	70.9433
1465.42	69.698
1466.98	69.6701
1468.55	69.5606
1470.12	69.1067
1471.68	68.4802
1473.25	67.4772
1474.81	67.1226
1476.38	67.345
1477.94	68.1707
1479.51	66.6681
1481.07	66.0147
1482.63	65.3996
1484.2	63.8013
1485.76	63.072
1487.32	62.7687
1488.88	61.7867
1490.45	60.7428
1492.01	57.8289
1493.57	56.2095
1495.13	54.2163
1496.69	52.9254
1498.25	51.0136
1499.81	49.2066
1501.37	47.0206
1502.93	45.5108
1504.49	43.4183
1506.05	40.9832
1507.61	38.4965
1509.17	36.4835
1510.73	34.2419
1512.28	31.6978
1513.84	29.9902
1515.4	26.8573
1516.96	24.2412
1518.51	21.7996
1520.07	21.1984
1521.63	19.3911
1523.18	18.1781
1524.74	16.1554
1526.29	15.5594
1527.85	15.8367
1529.4	15.5205
1530.96	15.52
1532.51	15.5637
1534.06	17.03
1535.62	16.8506
1537.17	17.7425
1538.72	18.2747
1540.28	20.4041
1541.83	21.6794
1543.38	22.1031
1544.93	25.2686
1546.48	26.0316
1548.03	28.1139
1549.59	29.5687
1551.14	30.5734
1552.69	32.8395
1554.24	34.4102
1555.79	34.8408
1557.34	35.4185
1558.88	36.6897
1560.43	37.2214
1561.98	38.4906
1563.53	38.703
1565.08	39.1792
1566.62	39.6365
1568.17	39.1609
1569.72	38.236
1571.27	38.3671
1572.81	38.8536
1574.36	39.2285
1575.9	39.7811
1577.45	40.1217
1579	40.6665
1580.54	41.3238
1582.09	41.8146
1583.63	42.425
1585.17	42.6674
1586.72	42.2375
1588.26	43.2876
1589.8	43.0004
1591.35	44.0217
1592.89	43.7039
1594.43	44.3161
1595.97	44.6342
1597.52	45.5048
1599.06	45.5929
1600.6	45.7199
1602.14	46.2728
1603.68	45.87
1605.22	45.8918
1606.76	44.6803
1608.3	44.1033
1609.84	44.1254
1611.38	44.6115
1612.92	43.8053
1614.46	44.1535
1615.99	43.8579
1617.53	44.4187
1619.07	44.134
1620.61	43.9696
1622.14	45.8598
1623.68	45.9018
1625.22	46.4507
1626.75	46.4437
1628.29	46.8788
1629.82	47.4977
1631.36	47.2738
1632.9	47.7902
1634.43	49.2076
1635.96	49.5523
1637.5	50.4491
1639.03	51.052
1640.57	50.9327
1642.1	52.5808
1643.63	53.3127
1645.16	53.2737
1646.7	54.1644
1648.23	54.8851
1649.76	55.9268
1651.29	55.9286
1652.82	56.146
1654.36	56.1753
1655.89	56.6735
1657.42	56.0834
1658.95	56.3712
1660.48	55.2143
1662.01	54.6508
1663.53	53.8405
1665.06	53.9062
1666.59	52.9783
1668.12	53.2151
1669.65	51.4854
1671.18	50.1711
1672.7	49.2709
1674.23	47.8649
1675.76	46.6096
1677.29	43.9764
1678.81	42.549
1680.34	39.8235
1681.86	37.4955
1683.39	36.106
1684.91	34.6898
1686.44	32.6408
1687.96	30.6619
1689.49	28.3648
1691.01	26.2041
1692.54	24.5118
1694.06	23.4032
1695.58	21.8304
1697.11	20.3187
1698.63	19.6843
1700.15	18.8867
1701.67	17.9411
1703.2	17.7707
1704.72	17.091
1706.24	16.7644
1707.76	16.4678
1709.28	16.72
1710.8	16.8556
1712.32	16.1652
1713.84	15.4226
1715.36	15.5874
1716.88	15.2151
1718.4	15.4727
1719.91	15.0745
1721.43	14.7894
1722.95	13.6647
1724.47	13.2131
1725.99	13.2484
1727.5	12.2898
1729.02	11.8856
1730.54	11.5499
1732.05	10.9833
1733.57	10.3454
1735.09	9.70504
1736.6	9.01356
1738.12	8.71918
1739.63	8.40381
1741.15	8.00429
1742.66	7.92973
1744.18	7.6264
1745.69	7.151
1747.2	6.63765
1748.72	6.24739
1750.23	5.05973
1751.74	3.71877
1753.25	2.52349
1754.77	1.99162
1756.28	1.09707
1757.79	0.976639
1759.3	1.69626
1760.81	1.13765
1762.32	-0.482203
1763.83	-0.0443541
1765.34	-0.50685
1766.85	-0.427391
1768.36	-0.896316
1769.87	-1.47084
1771.38	-1.08039
1772.89	-0.667728
1774.4	-0.412363
1775.91	-0.290168
1777.41	-0.250438
1778.92	-0.484892
1780.43	-0.530554
1781.94	-0.114112
1783.44	0.0675451
1784.95	0.46504
1786.45	1.41793
1787.96	1.95652
1789.47	2.2126
1790.97	2.63565
1792.48	2.26159
1793.98	2.54803
1795.48	2.21508
1796.99	2.27774
1798.49	1.62267
1800	2.1392
1801.5	2.06274
1803	2.25857
1804.51	2.6086
1806.01	3.0991
1807.51	3.23765
1809.01	3.17367
1810.51	2.5677
1812.02	3.03247
1813.52	3.15359
1815.02	3.9111
1816.52	3.63939
1818.02	4.00368
1819.52	4.0864
1821.02	4.59157
1822.52	4.29221
1824.02	4.00763
1825.51	4.24818
1827.01	3.64346
1828.51	4.32762
1830.01	4.51657
1831.51	5.17044
1833	5.95913
1834.5	6.01522
1836	5.7127
1837.5	5.14912
1838.99	5.14169
1840.49	4.66922
1841.98	4.65958
1843.48	3.92844
1844.97	3.86725
1846.47	3.8513
1847.96	3.91434
1849.46	3.24542
1850.95	2.76049
1852.45	2.36035
1853.94	2.6227
1855.43	3.18792
1856.92	2.40639
1858.42	2.48587
1859.91	3.44076
1861.4	3.9052
1862.89	3.40583
1864.39	3.32763
1865.88	3.00336
1867.37	3.39434
1868.86	4.48589
1870.35	4.73143
1871.84	5.38031
1873.33	5.1713
1874.82	6.92424
1876.31	6.79258
1877.8	7.12384
1879.29	7.61572
1880.77	8.30018
1882.26	8.49771
1882.51	8.9182
1884	9.75878
1885.5	10.4817
1886.99	11.2524
1888.48	11.2188
1889.98	10.9992
1891.47	11.7387
1892.97	11.1407
1894.46	10.4237
1895.95	10.2327
1897.44	10.3743
1898.93	10.7391
1900.42	11.0677
1901.92	10.9792
1903.41	11.2119
1904.9	11.505
1906.39	10.8419
1907.88	10.7676
1909.37	10.1683
1910.86	9.42486
1912.35	9.88482
1913.84	10.5234
1915.32	10.2544
1916.81	10.0848
1918.3	9.98638
1919.79	9.61139
1921.28	9.1842
1922.76	8.44773
1924.25	7.95598
1925.74	7.45004
1927.22	7.50113
1928.71	6.22182
1930.2	5.76218
1931.68	6.99153
1933.17	7.67843
1934.65	7.40289
1936.14	7.14113
1937.62	7.3788
1939.11	6.33333
1940.59	6.38224
1942.08	7.48098
1943.56	6.81476
1945.04	7.24659
1946.53	7.71573
1948.01	8.20566
1949.49	7.6485
1950.97	8.68296
1952.45	9.52644
1953.94	9.71052
1955.42	9.40504
1956.9	9.47177
1958.38	8.6586
1959.86	7.86922
1961.34	7.91305
1962.82	7.63014
1964.3	8.2659
1965.78	8.19326
1967.26	7.59955
1968.74	8.24782
1970.22	9.38129
1971.69	9.65421
1973.17	10.0463
1974.65	10.2639
1976.13	9.78773
1977.61	9.7809
1979.08	9.97878
1980.56	9.56839
1982.03	10.5392
1983.51	11.0126
1984.99	11.389
1986.46	12.0932
1987.94	11.37
1989.41	10.9965
1990.89	10.7979
1992.36	10.0759
1993.84	10.3161
1995.31	10.1597
1996.78	9.49358
1998.26	8.70733
1999.73	8.42777
2001.2	8.65462
2002.68	8.67078
2004.15	8.57691
2005.62	8.46865
2007.09	7.61302
2008.56	6.80806
2010.04	6.55184
2011.51	5.32948
2012.98	5.126
2014.45	5.71343
2015.92	6.66326
2017.39	6.17007
2018.86	6.09396
2020.33	5.29086
2021.8	5.0382
2023.27	5.09612
2024.74	4.23936
2026.2	4.19525
2027.67	3.55381
2029.14	2.90763
2030.61	3.2763
2032.07	3.44345
2033.54	3.91267
2035.01	4.36857
2036.47	4.47336
2037.94	4.5834
2039.41	4.32947
2040.87	4.21908
2042.34	4.70058
2043.8	5.24787
2045.27	4.61385
2046.73	5.15278
2048.2	5.22877
2049.66	4.40588
2051.12	4.25959
2052.59	4.68322
2054.05	5.65034
2055.51	6.76696
2056.98	7.72983
2058.44	8.3471
2059.9	9.24969
2061.36	9.27217
2062.82	10.5256
2064.29	11.3291
2065.75	12.7834
2067.21	13.4757
2068.67	13.0394
2070.13	13.8896
2071.59	14.7612
2073.05	15.4073
2074.51	15.9683
2075.97	16.7375
2077.43	17.0457
2078.88	18.1222
2080.34	18.7281
2081.8	18.5733
2083.26	18.6128
2084.72	19.1575
2086.17	20.8393
2087.63	20.6726
2089.09	20.7694
2090.54	20.4478
2092	21.1385
2093.46	21.7805
2094.91	22.3714
2096.37	23.1094
2097.82	23.2883
2099.28	24.6123
2100.73	25.8472
2102.19	26.3952
2103.64	27.2816
2105.09	28.2031
2106.55	29.0399
2108	29.2519
2109.46	30.0689
2110.91	31.668
2112.36	32.8267
2113.81	33.5611
2115.27	34.7008
2116.72	35.623
2118.17	35.754
2119.62	36.957
2121.07	37.1379
2122.52	38.3252
2123.97	39.4033
2125.42	40.7394
2126.87	43.0667
2128.32	44.7162
2129.77	46.5326
2131.22	47.15
2132.67	48.4161
2134.12	49.8499
2135.57	51.0572
2137.01	51.6451
2138.46	51.8846
2139.91	51.994
2141.36	53.552
2142.8	54.8089
2144.25	55.3777
2145.7	56.0403
2147.14	56.8888
2148.59	58.4855
2150.03	58.9986
2151.48	58.8228
2152.92	58.4436
2154.37	58.9905
2155.81	60.3669
2157.26	61.4529
2158.7	61.9485
2160.15	61.8747
2161.59	62.5287
2163.03	63.0729
2164.48	64.1009
2165.92	64.0093
2167.36	64.2953
2168.8	65.1342
2170.25	65.7379
2171.69	65.978
2173.13	65.9632
2174.57	64.683
2176.01	65.2148
2177.45	65.3992
2178.89	64.8968
2180.33	63.9441
2181.77	64.3809
2183.21	64.5209
2184.65	63.544
2186.09	62.6387
2187.53	62.0955
2188.97	60.9712
2190.41	59.8749
2191.84	58.9957
2193.28	57.6228
2194.72	57.2358
2196.16	55.4852
2197.59	54.9842
2199.03	54.8107
2200.47	54.1395
2201.9	52.9141
2203.34	50.8067
2204.78	50.0591
2206.21	48.5443
2207.65	46.7078
2209.08	46.1791
2210.51	44.9039
2211.95	44.3715
2213.38	43.4276
2214.82	42.2804
2216.25	41.1991
2217.68	39.8448
2219.12	39.3953
2220.55	39.1316
2221.98	37.3794
2223.42	36.1378
2224.85	34.7809
2226.28	33.9933
2227.71	33.4754
2229.14	31.8047
2230.57	30.1266
2232	28.7342
2233.43	28.147
2234.86	27.9036
2236.29	27.5514
2237.72	27.0697
2239.15	26.4118
2240.58	25.4362
2242.01	24.4011
2243.44	23.4471
2244.87	23.0451
2246.3	22.2351
2247.73	22.0188
2249.15	21.5223
2250.58	20.5413
2252.01	20.3859
2253.43	20.259
2254.86	20.2509
2256.29	19.7724
2257.71	19.1547
2259.14	19.0257
2260.56	18.4433
2261.99	18.2751
2263.41	17.2242
2264.84	16.7042
2266.26	17.3815
2267.69	16.6686
2269.11	17.5881
2270.54	17.8256
2271.96	17.8947
2273.38	17.9082
2274.81	17.1129
2276.23	17.8941
2277.65	18.4698
2279.07	18.0688
2280.49	18.4687
2281.92	18.5299
2283.34	18.5128
2284.76	17.8596
2286.18	17.9241
2287.6	18.0159
2289.02	17.9536
2290.44	17.3176
2291.86	15.4737
2293.28	14.0333
2294.7	12.8002
2296.12	11.6312
2297.54	12.6572
2298.96	12.578
2300.38	12.5365
2301.79	12.8898
2303.21	13.8341
2304.63	14.3305
2306.05	13.8202
2307.46	13.6712
2308.88	13.5106
2310.3	12.8928
2311.71	12.5164
2313.13	12.6612
2314.55	13.2588
2315.96	12.4941
2317.38	12.1352
2318.79	11.9152
2320.21	12.1331
2321.62	12.5152
2323.03	12.7173
2324.45	11.6786
2325.86	11.0836
2327.27	10.8221
2328.69	10.484
2330.1	10.5475
2331.51	10.2243
2332.93	10.0722
2334.34	9.28473
2335.75	9.46757
2337.16	9.21766
2338.57	8.9624
2339.99	9.30629
2341.4	9.27318
2342.81	9.5766
2344.22	9.33257
2345.63	8.88322
2347.04	9.4753
2348.45	8.46726
2349.86	7.79521
2351.26	7.49028
2352.67	6.36509
2354.08	5.37787
2355.49	5.14911
2356.9	5.34079
2358.31	4.04133
2359.71	2.36561
2361.12	0.862172
2362.53	0.74141
2363.94	0.708722
2365.34	0.954075
2366.75	1.62634
2368.15	1.18639
2369.56	0.474945
2370.97	0.0687259
2372.37	-0.78704
2373.78	-1.25097
2375.18	-1.53686
2376.59	-1.86372
2377.99	-1.36484
2379.39	-1.87586
2380.8	-2.1785
2382.2	-2.28113
2383.61	-1.91856
2385.01	-1.3583
2386.41	-1.71793
2387.81	-1.00871
2389.22	-0.400131
2390.62	-0.0275007
2392.02	-0.610358
2393.42	-0.841909
2394.82	-0.688934
2396.22	0.431452
2397.63	0.8646
2399.02	0.976846
2400.43	1.81963
2401.82	1.49984
2403.23	1.61005
2404.62	2.10765
2406.02	2.35009
2407.42	3.44558
2408.82	4.46575
2410.22	5.18323
2411.62	6.20502
2413.02	6.72447
2414.41	6.54056
2415.81	6.90917
2417.21	7.08872
2418.61	6.87187
2420	7.43522
2421.4	8.16047
2422.79	8.07515
2424.19	8.59164
2425.59	8.41929
2426.98	8.02806
2428.38	7.14334
2429.77	6.80698
2431.17	6.85256
2432.56	7.26426
2433.96	6.46915
2435.35	6.78054
2436.74	5.52713
2438.14	4.7693
2439.53	5.63207
2440.92	4.90017
2442.32	5.3915
2443.71	5.97687
2445.1	6.31025
2446.49	5.76381
2447.88	5.36776
2449.28	6.10113
2450.67	5.88057
2452.06	5.92407
2453.45	6.54614
2454.84	6.73669
2456.23	6.56502
2457.62	5.84323
2459.01	5.68175
2460.4	5.49849
2461.79	5.49196
2463.18	6.0528
2464.57	5.68237
2465.96	5.81989
2467.34	4.82355
2468.73	5.51682
2470.12	5.23426
2471.51	5.06461
2472.89	5.36755
2474.28	5.97892
2475.67	5.79301
2477.05	6.50311
2478.44	5.25331
2479.83	5.08299
2481.21	4.96735
2482.6	5.23764
2483.98	4.56754
2485.37	4.46671
2486.75	4.24448
2488.14	4.39247
2489.52	3.90235
2490.9	3.28092
2492.29	2.00299
2493.67	1.43205
2495.06	1.10818
2496.44	0.603919
2497.82	0.838389
2499.2	1.11122
2500.59	1.7062
2501.97	1.8166
2503.35	0.877149
2504.73	1.21078
2506.11	1.11174
2507.49	1.37887
2508.88	1.65214
2510.26	1.6653
2511.63	1.86941
2513.01	1.90522
2514.39	1.44919
2515.77	1.05274
2517.15	1.66441
2518.53	2.70319
2519.91	1.89126
2521.29	2.47567
2522.67	3.60293
2524.05	3.44617
2525.42	3.81949
2526.8	4.16593
2528.18	5.09448
2529.56	5.68257
2530.93	5.87771
2532.31	6.14523
2533.69	6.3604
2535.06	6.32531
2536.44	5.94226
2537.81	6.58028
2539.19	7.2201
2540.56	8.27354
2541.94	8.45539
2543.31	8.93801
2544.69	8.66343
2546.06	8.06928
2547.44	7.78822
2548.81	8.71318
2550.18	8.92172
2551.56	8.70266
2552.93	8.26576
2554.3	8.33311
2555.68	8.64627
2557.05	8.89282
2558.42	8.42841
2559.79	7.72043
2561.16	8.24898
2562.53	8.77249
2563.9	9.43633
2565.28	10.2103
2566.64	9.96967
2568.02	9.42581
2569.38	9.36756
2570.76	9.23258
2572.12	8.37526
2573.49	8.64081
2574.86	7.99329
2576.23	7.15273
2577.6	8.01456
2578.97	7.9773
2580.34	7.70894
2581.7	8.51794
2583.07	8.16015
2584.44	8.14633
2585.81	8.46391
2587.17	8.68368
2588.54	8.71525
2589.91	9.26817
2591.27	10.3594
2592.64	9.51897
2594	10.4972
2595.37	11.0307
2596.73	11.1015
2598.1	11.318
2599.46	10.972
2600.83	10.8108
2602.19	11.107
2603.55	10.6966
2604.92	10.596
2606.28	11.0097
2607.64	11.6614
2609.01	11.0509
2610.37	10.8645
2611.73	10.7687
2613.09	10.4622
2614.46	10.146
2615.82	10.2257
2617.18	10.4484
2618.54	9.73982
2619.9	9.35598
2621.26	9.52793
2622.62	9.31823
2623.98	9.30326
2625.34	9.19165
2626.7	9.01252
2628.06	8.46942
2629.42	9.0038
2630.78	8.81723
2632.14	7.85892
2633.5	7.06237
2634.86	6.61255
2636.22	7.72671
2637.57	7.8387
2638.93	7.75131
2640.29	7.64943
2641.64	8.16839
2643	8.78962
2644.36	9.86406
2645.72	11.463
2647.07	11.6223
2648.43	12.1903
2649.78	12.6181
2651.14	12.0392
2652.49	13.101
2653.85	13.3958
2655.2	13.2407
2656.56	13.487
2657.91	13.7907
2659.27	13.7205
2660.62	13.9416
2661.97	14.1972
2663.33	13.9569
2664.68	13.5705
2666.03	13.5962
2667.38	13.4897
2668.74	13.6098
2670.09	13.6048
2671.44	13.967
2672.79	13.8929
2674.14	14.1375
2675.49	14.084
2676.84	13.6187
2678.2	13.8631
2679.55	13.3437
2680.89	12.9257
2682.24	13.1525
2683.59	12.6843
2684.94	12.1913
2686.29	10.7924
2687.64	10.6904
2688.99	10.1376
2690.34	10.2334
2691.69	10.1598
2693.04	10.6486
2694.38	10.4356
2695.73	10.0005
2697.08	9.9673
2698.43	9.98734
2699.77	10.262
2701.12	10.743
2702.46	11.58
2703.81	11.4027
2705.16	11.4908
2706.5	11.8039
2707.85	12.1403
2709.19	11.8793
2710.54	12.5662
2711.88	12.6895
2713.23	12.4457
2714.57	11.6209
2715.92	11.061
2717.26	11.1001
2718.6	10.874
2719.95	10.8545
2721.29	9.98087
2722.63	9.85662
2723.97	10.117
2725.32	10.2593
2726.66	9.49061
2728	8.9694
2729.34	7.81481
2730.68	7.49411
2732.02	7.38705
2733.36	7.45915
2734.7	7.42036
2736.04	6.95403
2737.39	6.54787
2738.72	6.56787
2740.06	5.81528
2741.4	5.39091
2742.74	5.00504
2744.08	4.64906
2745.42	4.66312
2746.76	4.48917
2748.1	4.54078
2749.44	4.74213
2750.77	3.89071
2752.11	3.54634
2753.45	3.67
2754.78	3.74315
2756.12	3.18753
2757.46	3.49596
2758.79	3.33947
2760.13	3.19658
2761.47	2.73261
2762.8	2.59025
2764.14	2.53577
2765.47	3.21942
2766.81	2.55018
2768.14	2.42188
2769.48	3.12838
2770.81	3.157
2772.14	3.90443
2773.48	3.07873
2774.81	3.49164
2776.14	3.5961
2777.48	4.25884
2778.81	3.9084
2780.14	4.44675
2781.47	4.73987
2782.81	5.10543
2784.14	5.37354
2785.47	5.20139
2786.8	5.21037
2788.13	5.18654
2789.46	5.05485
2790.79	4.63348
2792.12	3.84113
2793.46	2.40231
2794.79	2.37155
2796.11	2.56063
2797.44	2.78136
2798.77	2.4721
2800.1	2.06003
2801.43	1.53714
2802.76	1.25614
2804.09	1.3624
2805.42	1.54038
2806.74	1.16197
2808.07	0.711882
2809.4	0.655411
2810.73	-0.0431579
2812.05	-0.174035
2813.38	-0.120455
2814.71	-0.353282
2816.03	0.204137
2817.36	0.819535
2818.68	1.18224
2820.01	1.36403
2821.33	1.85242
2822.66	3.29525
2823.98	4.22497
2825.31	5.4303
2826.63	6.08886
2827.96	8.01832
2829.28	9.27563
2830.61	10.7851
2831.93	12.2656
2833.25	13.3416
2834.57	15.5881
2835.9	17.9849
2837.22	18.6032
2838.54	19.8082
2839.86	21.1063
2841.18	23.2283
2842.51	24.9355
2843.83	27.87
2845.15	30.6548
2846.47	33.4207
2847.79	35.6813
2849.11	38.4878
2850.43	40.9279
2851.75	43.8624
2853.07	45.8569
2854.39	47.4768
2855.71	49.0987
2857.03	50.5459
2858.35	51.8147
2859.67	53.7622
2860.98	55.6725
2862.3	56.9416
2863.62	58.1704
2864.94	58.86
2866.25	60.5456
2867.57	61.8315
2868.89	63.181
2870.21	63.9428
2871.52	63.7064
2872.84	64.497
2874.15	65.1272
2875.47	65.9186
2876.78	66.6782
2878.1	68.1842
2879.42	69.4771
2880.73	70.2715
2882.04	71.5907
2883.36	72.329
2884.67	73.2185
2885.99	74.2591
2887.3	75.9974
2888.61	76.376
2889.93	77.2118
2891.24	78.2492
2892.55	79.2545
2893.87	80.395
2895.18	81.9387
2896.49	83.0484
2897.8	85.2601
2899.11	87.3464
2900.42	90.3844
2901.74	93.9699
2903.05	96.0435
2904.36	99.944
2905.67	103.993
2906.98	108.827
2908.29	113.813
2909.6	119.539
2910.91	123.825
2912.22	129.263
2913.53	134.057
2914.83	138.575
2916.14	142.392
2917.45	146.499
2918.76	150.348
2920.07	154.17
2921.37	157.784
2922.68	161.879
2923.99	165.946
2925.3	168.67
2926.6	171.442
2927.91	173.922
2929.22	175.563
2930.52	177.146
2931.83	179.296
2933.13	180.346
2934.44	181.163
2935.74	181.578
2937.05	181.528
2938.35	181.099
2939.66	180.095
2940.96	179.275
2942.27	177.414
2943.57	174.927
2944.87	171.86
2946.18	169.243
2947.48	166.468
2948.78	163.526
2950.09	160.099
2951.39	156.193
2952.69	151.994
2953.99	147.528
2955.29	144.057
2956.6	139.383
2957.9	135.466
2959.2	131.823
2960.5	129.722
2961.8	126.597
2963.1	124.47
2964.4	121.477
2965.7	119.448
2967	116.655
2968.3	113.781
2969.6	111.679
2970.9	109.045
2972.2	107.151
2973.49	104.77
2974.79	102.357
2976.09	99.6248
2977.39	97.3195
2978.69	94.3321
2979.98	91.8373
2981.28	89.4266
2982.58	87.4478
2983.88	84.8595
2985.17	81.9426
2986.47	79.6908
2987.76	78.1749
2989.06	75.0336
2990.36	71.5478
2991.65	68.5672
2992.95	65.3993
2994.24	62.6193
2995.54	60.7695
2996.83	58.3788
2998.12	54.3341
2999.42	51.4696
3000.71	47.8732
3002	44.0445
3003.3	40.3257
3004.59	38.1367
3005.88	34.8202
3007.18	31.5256
3008.47	28.4326
3009.76	25.793
3011.05	23.8388
3012.35	21.2443
3013.64	19.2165
3014.93	17.1089
3016.22	15.0847
3017.51	13.3193
3018.8	11.949
3020.09	11.0313
3021.38	9.86465
3022.67	9.13939
3023.96	8.33806
3025.25	7.96792
3026.54	7.12117
3027.83	5.91816
3029.12	5.1002
3030.41	5.31745
3031.69	4.82597
3032.98	4.36838
3034.27	4.24621
3035.56	4.01916
3036.85	4.17352
3038.13	4.31606
3039.42	3.93739
3040.71	5.03939
3041.99	5.82935
3043.28	6.39102
3044.57	6.46443
3045.85	6.42327
3047.14	6.78659
3048.42	7.0533
3049.71	7.05939
3050.99	7.2355
3052.28	6.67448
3053.56	5.81491
3054.85	6.12541
3056.13	6.56721
3057.42	6.6929
3058.7	7.18918
3059.98	7.08442
3061.27	6.49283
3062.55	6.21267
3063.83	7.11174
3065.11	7.30029
3066.4	7.87154
3067.68	8.04762
3068.96	7.86758
3070.24	7.46472
3071.52	7.25707
3072.8	7.06294
3074.09	7.24415
3075.37	7.1819
3076.65	6.41799
3077.93	6.03302
3079.21	5.35782
3080.49	5.35197
3081.77	5.75673
3083.05	5.11477
3084.32	5.0119
3085.61	4.19086
3086.88	3.67713
3088.16	3.77019
3089.44	3.99495
3090.72	3.88824
3092	3.27864
3093.27	3.72959
3094.55	4.07881
3095.83	3.92426
3097.11	3.86801
3098.38	4.46881
3099.66	4.76766
3100.94	5.22517
3102.21	5.88791
3103.49	6.15402
3104.76	6.99619
3106.04	6.84288
3107.31	7.20359
3108.59	7.66171
3109.86	8.55753
3111.14	9.91258
3112.41	10.6455
3113.69	10.6862
3114.96	11.5287
3116.23	12.4076
3117.51	14.4508
3118.78	15.7941
3120.05	16.8318
3121.33	17.5265
3122.6	19.3293
3123.87	20.2074
3125.14	21.6417
3126.42	23.0022
3127.69	24.1834
3128.96	24.8883
3130.23	25.1114
3131.5	25.064
3132.77	25.8842
3134.04	26.9912
3135.31	27.8743
3136.58	29.0725
3137.85	30.0871
3139.12	30.6528
3140.39	31.313
3141.66	32.3093
3142.93	32.9162
3144.2	33.0295
3145.47	32.9675
3146.74	33.1852
3148	32.5969
3149.27	32.3552
