#Acq. time (s)=	45
#Accumulations=	2
#Range (cm-¹)=	200...3150
#Windows=	2
#Auto scanning=	Off
#Autofocus=	Off
#Macrospot=	Off
#AutoExposure=	Off
#Spike filter=	Multiple accum.
#Delay time (s)=	0
#Binning=	1
#Readout mode=	Signal
#DeNoise=	Off
#ICS correction=	On
#Dark correction=	Off
#Inst. Process=	Off
#Detector Gain=	Best Dynamic Range
#Detector ADC=	20 kHz       
#Detector temperature (°C)=	-69.85
#Instrument=	LabRAM HR Evol
#Detector=	Synapse
#Objective=	x100
#Grating=	600 gr/mm
#ND Filter=	100%
#Laser (nm)=	532 
#Hole=	100.021
#Range=	Auto
#Laser Pol.=	No
#Raman. Pol.=	No
#Laser Pol. (°)=	-0.0007625
#Raman Pol. (°)=	89.9995
#Collection=	Microscope
#StageXY=	Marzhauser
#StageZ=	Marzhauser
#X (µm)=	28275.7
#Y (µm)=	-3325.3
#Z (µm)=	1040.6
#Full time(mm:ss)=	3:19
#Project=	
#Sample=	
#Site=	
#Title=	Mb_50_18_20_2x_45s_532 nm_x100_100%_600 gr_mm
#Remark=	
#Date=	12.07.2022 12:19
#Acquired=	12.07.2022 12:19:26
#Base:Fit=	10.08.2022 10:49:18
#Base:Sub=	10.08.2022 10:49:30
#Filter:Polynom=	16.08.2022 10:14:59
#AxisType[0]=Intens
#AxisUnit[0]=Cnt
#AxisType[1]=Spectr
#AxisUnit[1]=1/cm
200.388	23.6688
202.204	20.9983
204.019	19.9217
205.832	19.013
207.646	17.5004
209.459	16.1689
211.274	15.2896
213.087	14.6306
214.899	13.927
216.711	13.1484
218.524	12.8295
220.335	12.6149
222.146	10.1082
223.956	8.69899
225.766	9.50894
227.576	10.4706
229.388	9.67481
231.197	8.71784
233.005	8.95485
234.813	9.0731
236.621	9.60667
238.429	8.45128
240.236	8.35124
242.045	8.5497
243.852	7.62605
245.658	7.243
247.464	7.14585
249.269	6.38472
251.074	6.3891
252.879	5.72113
254.683	4.45832
256.487	4.66251
258.291	5.82578
260.094	5.55507
261.897	5.61223
263.702	6.18087
265.504	5.50412
267.306	6.11883
269.108	5.38451
270.909	5.7884
272.71	5.59365
274.511	5.075
276.311	4.44863
278.111	4.09391
279.91	4.41716
281.709	4.3429
283.508	4.21569
285.306	4.75775
287.105	5.16222
288.9	5.76735
290.698	6.34527
292.495	7.0346
294.291	6.26541
296.088	7.01256
297.884	7.85289
299.679	8.84171
301.475	10.9797
303.27	12.0334
305.064	13.2748
306.858	14.4961
308.652	16.102
310.444	16.4932
312.237	16.9431
314.03	18.3333
315.822	19.7435
317.615	20.4097
319.406	20.2413
321.198	21.5338
322.987	21.7463
324.778	20.5506
326.568	20.7545
328.358	19.8913
330.148	20.1224
331.935	19.28
333.724	18.8908
335.513	18.3102
337.301	17.4906
339.089	16.3145
340.875	16.2953
342.662	15.8357
344.449	15.4336
346.236	15.3592
348.02	15.0998
349.806	15.1688
351.592	14.8892
353.375	15.5681
355.16	15.8115
356.944	17.6289
358.728	18.7921
360.51	20.63
362.294	22.2912
364.077	22.1984
365.858	23.2995
367.64	24.6521
369.422	26.2143
371.202	27.2291
372.983	28.9156
374.764	30.06
376.543	31.3225
378.324	31.7508
380.102	32.1851
381.881	32.6381
383.661	33.895
385.438	35.4637
387.216	35.3897
388.993	37.6847
390.771	38.0524
392.548	38.5161
394.324	38.1509
396.101	37.585
397.875	36.8738
399.651	35.5756
401.425	34.3946
403.201	32.6815
404.974	31.7886
406.749	30.6541
408.524	28.2435
410.296	26.7646
412.07	24.0256
413.841	21.7358
415.614	21.2638
417.385	18.691
419.156	16.2077
420.928	13.3154
422.698	11.6868
424.469	9.5795
426.238	8.19257
428.009	6.667
429.777	5.70482
431.548	5.03716
433.315	3.39406
435.083	2.65049
436.852	2.62143
438.618	2.72245
440.387	1.96782
442.153	2.4114
443.919	1.89216
445.686	2.33847
447.451	1.88284
449.218	2.16474
450.982	1.90102
452.746	-0.026797
454.512	0.372801
456.275	0.64776
458.038	0.804317
459.803	1.51252
461.565	2.08404
463.327	2.15623
465.091	1.99724
466.852	0.659801
468.613	1.79048
470.374	2.7699
472.136	3.52854
473.896	3.95356
475.655	5.38894
477.415	8.13571
479.176	8.77504
480.934	10.3308
482.692	11.5283
484.45	13.5235
486.21	15.4733
487.967	17.3857
489.724	19.2473
491.481	22.1621
493.237	25.3775
494.995	28.2462
496.75	30.1573
498.506	32.2122
500.26	32.9015
502.015	34.3959
503.771	36.3723
505.525	36.5495
507.279	38.1385
509.032	39.31
510.785	41.2186
512.537	41.69
514.289	42.0683
516.041	41.8831
517.793	42.4922
519.546	41.7178
521.297	41.5415
523.047	41.7402
524.797	41.178
526.547	41.1923
528.297	39.2207
530.046	38.2893
531.795	37.0128
533.543	35.3195
535.291	33.8341
537.039	32.3072
538.787	29.8754
540.534	28.077
542.281	26.2799
544.027	24.4821
545.773	23.1618
547.519	21.1847
549.264	18.4528
551.01	16.0915
552.754	13.6322
554.499	13.5328
556.243	13.1227
557.987	11.2756
559.73	9.8842
561.474	8.26168
563.216	8.08007
564.959	7.65551
566.701	7.77627
568.441	8.22427
570.182	9.20222
571.923	9.87471
573.664	10.6173
575.405	11.0906
577.145	11.5183
578.885	11.7236
580.624	11.6449
582.361	11.191
584.1	10.1182
585.839	9.73344
587.577	10.0822
589.315	10.828
591.052	11.0671
592.787	10.8369
594.524	11.0124
596.26	10.9061
597.997	11.1059
599.732	10.6347
601.466	10.7662
603.201	10.0909
604.936	9.93567
606.67	9.15159
608.403	9.43429
610.136	8.8297
611.87	8.31276
613.603	7.92168
615.334	7.01677
617.067	6.73345
618.799	5.81188
620.529	5.27111
622.26	5.3644
623.991	4.25026
625.72	3.71456
627.451	3.83551
629.181	3.21091
630.909	3.40238
632.638	3.5292
634.368	2.83083
636.095	3.1666
637.823	3.39284
639.551	3.70098
641.277	3.55187
643.005	2.11423
644.73	2.28334
646.457	3.23748
648.184	5.12489
649.908	3.92656
651.634	3.49851
653.357	2.98592
655.083	4.12053
656.806	7.32782
658.53	9.3487
660.253	11.08
661.977	12.2481
663.7	14.3394
665.422	16.447
667.145	18.3947
668.865	19.8191
670.588	21.7374
672.308	23.869
674.027	26.491
675.749	28.6742
677.468	30.0911
679.188	31.0494
680.907	32.6976
682.627	35.2253
684.345	37.2074
686.064	38.0608
687.781	39.2603
689.498	40.2489
691.216	40.361
692.932	40.8644
694.65	40.807
696.366	41.2539
698.081	40.7121
699.797	39.5676
701.512	39.9297
703.228	39.2461
704.942	39.2379
706.655	39.6288
708.371	39.133
710.083	39.008
711.796	38.6245
713.51	38.983
715.222	37.8441
716.934	37.6095
718.645	36.9332
720.358	36.1971
722.068	35.3842
723.779	34.1262
725.49	32.4392
727.2	31.7228
728.909	30.6983
730.618	30.771
732.329	31.1946
734.037	31.9591
735.745	31.3377
737.453	36.7145
739.16	41.0908
740.869	46.5838
742.576	51.2051
744.282	53.3061
745.988	57.8812
747.694	62.0421
749.401	66.7416
751.107	70.7187
752.811	74.2076
754.516	79.0317
756.22	84.3217
757.924	88.2822
759.627	92.4907
761.332	95.8686
763.035	98.2344
764.738	101.066
766.44	104.545
768.142	107.802
769.843	109.937
771.544	110.365
773.245	111.829
774.946	112.217
776.646	112.146
778.346	113.192
780.046	113.34
781.745	113.098
783.444	112.453
785.143	111.984
786.841	111.946
788.539	111.085
790.237	110.043
791.934	108.375
793.631	105.84
795.328	103.826
797.024	100.895
798.72	98.0814
800.416	95.0494
802.112	92.4885
803.807	89.2122
805.502	86.7045
807.196	84.0557
808.89	80.8201
810.584	78.0307
812.278	76.6724
813.971	74.529
815.664	73.6346
817.354	73.8698
819.047	72.3771
820.739	72.1425
822.43	71.6191
824.122	70.1494
825.813	70.0474
827.503	69.4406
829.192	69.421
830.882	70.0333
832.571	69.1499
834.261	68.8048
835.95	68.3823
837.637	68.5998
839.325	68.8137
841.013	67.7863
842.701	66.8507
844.389	65.9074
846.074	64.0259
847.761	62.8046
849.447	61.8485
851.131	61.9695
852.817	61.1706
854.503	59.3897
856.188	58.2505
857.871	57.3336
859.556	56.9412
861.24	55.8779
862.922	55.0118
864.606	53.9832
866.289	53.7144
867.97	52.585
869.653	51.472
871.336	50.103
873.016	48.9986
874.698	47.5077
876.379	46.0649
878.058	45.3349
879.739	45.2097
881.418	44.5058
883.098	45.083
884.778	45.2774
886.456	44.8561
888.135	44.2094
889.812	44.332
891.49	43.65
893.167	43.4024
894.845	42.9065
896.523	43.3198
898.198	43.2049
899.875	43.6358
901.55	43.7518
903.226	42.5381
904.901	43.033
906.576	43.16
908.25	43.238
909.925	43.9316
911.598	44.2194
913.271	45.9296
914.945	45.4828
916.617	45.6464
918.291	45.2621
919.962	44.8365
921.635	45.2739
923.306	44.4287
924.978	44.6145
926.648	44.7772
928.318	44.184
929.989	42.7695
931.659	42.1562
933.328	41.6867
934.998	41.3585
936.666	39.6294
938.336	38.3069
940.004	37.8508
941.671	37.0434
943.34	36.1043
945.007	33.8386
946.673	33.4248
948.339	33.1563
950.007	32.07
951.672	30.2122
953.337	29.5685
955.004	29.4022
956.669	29.026
958.333	28.2421
959.997	27.7749
961.662	26.9401
963.326	26.0094
964.989	25.4156
966.651	24.9345
968.315	24.5846
969.977	24.4721
971.639	23.9723
973.301	24.2617
974.962	24.14
976.624	24.721
978.285	24.8241
979.945	26.1609
981.605	25.3389
983.264	24.9861
984.924	24.0581
986.583	24.4447
988.243	24.3184
989.901	24.4134
991.56	24.6341
993.217	26.3271
994.875	27.675
996.532	29.2471
998.188	30.0285
999.845	31.5953
1001.5	32.472
1003.16	35.7214
1004.81	39.8385
1006.47	41.8065
1008.12	44.8989
1009.78	46.7903
1011.43	48.8776
1013.09	50.5977
1014.74	52.7272
1016.39	55.2793
1018.05	56.2176
1019.7	57.7468
1021.35	58.4146
1023	59.1491
1024.65	60.0149
1026.31	60.4829
1027.96	61.2826
1029.61	62.2208
1031.26	62.2482
1032.91	61.5828
1034.56	61.0747
1036.21	60.7553
1037.86	60.1263
1039.51	57.6294
1041.16	57.4121
1042.8	56.1958
1044.45	54.0547
1046.1	53.197
1047.75	51.9756
1049.39	50.5312
1051.04	49.2958
1052.69	47.1833
1054.33	45.1439
1055.98	44.2618
1057.62	43.9092
1059.27	42.407
1060.91	41.2535
1062.56	40.0186
1064.2	38.6572
1065.85	37.9206
1067.49	37.5845
1069.13	37.6304
1070.77	36.7486
1072.42	37.3589
1074.06	38.2967
1075.7	38.4912
1077.34	39.5078
1078.98	40.0263
1080.62	40.664
1082.27	41.0789
1083.91	42.2873
1085.55	44.1979
1087.18	44.0042
1088.82	43.7296
1090.46	44.2773
1092.1	44.6357
1093.74	44.86
1095.38	44.9856
1097.02	44.1816
1098.65	43.6117
1100.29	42.3275
1101.93	41.1353
1103.56	39.9629
1105.2	39.4687
1106.84	38.9594
1108.47	37.9284
1110.11	36.1306
1111.74	34.3268
1113.38	32.3116
1115.01	30.7771
1116.64	29.569
1118.28	28.0105
1119.91	26.0076
1121.54	24.6772
1123.18	23.8595
1124.81	20.6655
1126.44	19.2044
1128.07	18.5684
1129.7	17.5266
1131.33	17.1523
1132.97	16.1406
1134.6	16.5583
1136.23	17.0971
1137.86	17.5995
1139.49	17.5933
1141.11	17.01
1142.74	16.667
1144.37	15.5764
1146	16.3115
1147.63	15.7054
1149.26	14.6349
1150.88	13.4107
1152.51	12.4984
1154.14	11.9479
1155.76	10.9644
1157.39	10.6953
1159.01	10.7559
1160.64	10.2997
1162.27	10.4479
1163.89	10.3279
1165.51	10.3419
1167.14	9.79784
1168.76	10.1609
1170.39	11.5091
1172.01	11.7411
1173.63	12.1697
1175.25	12.1441
1176.88	12.6262
1178.5	12.0408
1180.12	11.7305
1181.74	10.5486
1183.36	9.92445
1184.98	10.4577
1186.6	9.38973
1188.22	9.48101
1189.84	8.89047
1191.46	8.32656
1193.08	8.63415
1194.7	8.39628
1196.32	8.37694
1197.94	8.30509
1199.55	7.43564
1201.17	7.57069
1202.79	7.68818
1204.41	7.61368
1206.02	8.33318
1207.64	9.21995
1209.25	10.0875
1210.87	10.0847
1212.48	10
1214.1	10.5267
1215.71	12.0452
1217.33	12.369
1218.94	13.6056
1220.56	13.8947
1222.17	14.6497
1223.79	14.9569
1225.4	16.0804
1227.01	18.3332
1228.62	17.7803
1230.23	18.2086
1231.85	20.0868
1233.46	21.3471
1235.07	22.4601
1236.68	23.8772
1238.29	25.5693
1239.9	26.4813
1241.51	28.3688
1243.12	29.3493
1244.73	30.1394
1246.34	31.1178
1247.94	32.2375
1249.55	33.9802
1251.16	34.2601
1252.77	34.4303
1254.37	34.2733
1255.98	34.5094
1257.59	34.7358
1259.2	34.4724
1260.8	34.657
1262.41	34.4689
1264.01	35.9789
1265.62	36.403
1267.22	36.0625
1268.83	36.7449
1270.43	35.7219
1272.03	36.5953
1273.64	36.4533
1275.24	35.2681
1276.85	35.7639
1278.45	36.0795
1280.05	35.9963
1281.65	36.7689
1283.25	37.2444
1284.85	37.4909
1286.46	37.92
1288.06	38.6588
1289.66	39.7923
1291.26	39.6713
1292.86	41.1733
1294.46	43.0021
1296.06	42.8659
1297.66	43.0156
1299.25	43.6203
1300.85	42.8187
1302.45	43.0282
1304.05	43.0958
1305.65	43.0062
1307.24	43.4302
1308.84	43.8441
1310.43	44.8375
1312.03	45.4506
1313.63	45.0153
1315.22	44.545
1316.82	45.0531
1318.41	44.7327
1320.01	44.8677
1321.6	45.5603
1323.2	45.18
1324.79	45.2259
1326.38	44.5967
1327.98	44.0381
1329.57	43.8985
1331.16	42.8914
1332.76	42.6056
1334.35	42.2648
1335.94	42.6496
1337.53	42.5637
1339.12	41.6625
1340.71	41.0965
1342.3	40.0991
1343.89	39.1686
1345.48	37.7588
1347.07	36.8865
1348.66	36.091
1350.25	35.2094
1351.84	35.069
1353.43	33.4907
1355.01	32.626
1356.6	32.701
1358.19	31.366
1359.77	30.1589
1361.36	29.3498
1362.95	27.9318
1364.53	26.4918
1366.12	25.8919
1367.71	25.2389
1369.29	23.4496
1370.88	22.7822
1372.46	22.4905
1374.04	20.721
1375.63	19.0744
1377.21	18.3439
1378.8	17.6192
1380.38	16.8912
1381.96	16.0777
1383.54	15.9069
1385.13	15.9018
1386.71	16.7078
1388.29	17.0675
1389.87	16.7749
1391.45	16.624
1393.03	16.7014
1394.61	16.755
1396.19	17.7952
1397.77	17.9271
1399.35	18.635
1400.93	19.1719
1402.51	19.0557
1404.09	19.5863
1405.67	20.34
1407.24	22.5401
1408.82	23.5587
1410.4	24.3584
1411.98	25.8809
1413.55	27.0946
1415.13	28.3113
1416.71	30.0664
1418.28	31.5386
1419.86	34.082
1421.43	36.0746
1423.01	38.843
1424.58	41.7439
1426.16	44.7102
1427.73	47.2066
1429.31	48.8679
1430.88	50.9707
1432.45	52.1553
1434.02	54.3573
1435.6	55.6475
1437.17	57.1089
1438.74	58.5995
1440.31	60.0219
1441.88	60.8405
1443.45	61.7559
1445.03	62.4712
1446.6	62.782
1448.17	63.5037
1449.74	64.8408
1451.3	63.7852
1452.87	63.0566
1454.44	62.8588
1456.01	62.6305
1457.58	62.3597
1459.15	61.8817
1460.72	61.1231
1462.28	60.5126
1463.85	59.8853
1465.42	58.6799
1466.98	58.1756
1468.55	57.601
1470.12	56.6626
1471.68	55.5139
1473.25	53.8905
1474.81	52.4687
1476.38	50.3788
1477.94	48.9954
1479.51	46.8681
1481.07	45.018
1482.63	43.5858
1484.2	42.6756
1485.76	41.3702
1487.32	39.1987
1488.88	38.8651
1490.45	37.3407
1492.01	35.4648
1493.57	34.5019
1495.13	33.9142
1496.69	32.4844
1498.25	31.8836
1499.81	31.6096
1501.37	30.8283
1502.93	29.7556
1504.49	28.9483
1506.05	27.2841
1507.61	25.2449
1509.17	24.589
1510.73	23.4886
1512.28	22.9344
1513.84	21.1214
1515.4	20.091
1516.96	18.9885
1518.51	18.0009
1520.07	16.2019
1521.63	15.4669
1523.18	14.9373
1524.74	14.167
1526.29	13.7298
1527.85	13.6313
1529.4	12.7239
1530.96	12.557
1532.51	12.5791
1534.06	12.6014
1535.62	12.9953
1537.17	14.0044
1538.72	14.1909
1540.28	14.8675
1541.83	15.6386
1543.38	16.5096
1544.93	17.567
1546.48	17.231
1548.03	16.8974
1549.59	16.9517
1551.14	17.3943
1552.69	18.0333
1554.24	18.3698
1555.79	19.0699
1557.34	18.7769
1558.88	19.7173
1560.43	19.9347
1561.98	21.137
1563.53	21.4311
1565.08	22.3199
1566.62	23.5198
1568.17	22.6647
1569.72	23.3538
1571.27	24.314
1572.81	25.7035
1574.36	27.0291
1575.9	27.9912
1577.45	29.6867
1579	29.7482
1580.54	31.1706
1582.09	32.2032
1583.63	32.686
1585.17	33.3489
1586.72	35.1214
1588.26	35.7954
1589.8	36.5299
1591.35	36.6881
1592.89	37.7261
1594.43	38.7435
1595.97	38.8098
1597.52	38.9852
1599.06	39.6607
1600.6	39.9754
1602.14	40.1114
1603.68	40.6404
1605.22	40.9312
1606.76	40.5226
1608.3	40.4908
1609.84	40.2971
1611.38	40.496
1612.92	41.1741
1614.46	40.7488
1615.99	40.661
1617.53	40.6522
1619.07	40.5259
1620.61	40.758
1622.14	40.3826
1623.68	40.7939
1625.22	41.5398
1626.75	42.8391
1628.29	43.4958
1629.82	43.71
1631.36	44.4295
1632.9	44.7867
1634.43	46.1521
1635.96	47.0404
1637.5	46.9249
1639.03	47.8957
1640.57	48.237
1642.1	48.8764
1643.63	49.3384
1645.16	50.2182
1646.7	51.5437
1648.23	52.231
1649.76	52.7488
1651.29	53.4504
1652.82	53.649
1654.36	54.7995
1655.89	54.4154
1657.42	53.8597
1658.95	53.6304
1660.48	52.9074
1662.01	52.2843
1663.53	52.0071
1665.06	50.8427
1666.59	48.9805
1668.12	47.0912
1669.65	46.3424
1671.18	44.8705
1672.7	43.2794
1674.23	41.626
1675.76	39.8066
1677.29	38.0432
1678.81	35.6658
1680.34	33.455
1681.86	31.2305
1683.39	29.1635
1684.91	27.3538
1686.44	25.8945
1687.96	24.7308
1689.49	23.9896
1691.01	22.4735
1692.54	21.4203
1694.06	19.866
1695.58	19.3124
1697.11	18.5606
1698.63	17.9533
1700.15	17.5554
1701.67	16.5672
1703.2	15.805
1704.72	14.063
1706.24	13.1308
1707.76	12.2514
1709.28	11.562
1710.8	11.3183
1712.32	10.4573
1713.84	9.22549
1715.36	8.90772
1716.88	8.86459
1718.4	8.82563
1719.91	8.75427
1721.43	8.59692
1722.95	7.26299
1724.47	6.78866
1725.99	6.50183
1727.5	7.03984
1729.02	7.13923
1730.54	7.18848
1732.05	6.76968
1733.57	6.12938
1735.09	6.68468
1736.6	5.91647
1738.12	5.87111
1739.63	5.70447
1741.15	5.11461
1742.66	4.59127
1744.18	4.7938
1745.69	4.32883
1747.2	3.9186
1748.72	3.52978
1750.23	2.61332
1751.74	2.25697
1753.25	1.81661
1754.77	1.98061
1756.28	1.91304
1757.79	1.94892
1759.3	1.85393
1760.81	2.32018
1762.32	2.44455
1763.83	2.68548
1765.34	3.03136
1766.85	2.9854
1768.36	3.10036
1769.87	3.41292
1771.38	3.48627
1772.89	3.57695
1774.4	3.63388
1775.91	2.99385
1777.41	3.2297
1778.92	3.52828
1780.43	3.43518
1781.94	4.30905
1783.44	4.71369
1784.95	5.38639
1786.45	5.09659
1787.96	4.94464
1789.47	4.10853
1790.97	4.27059
1792.48	4.71389
1793.98	4.79102
1795.48	4.87384
1796.99	4.97143
1798.49	5.01385
1800	5.84592
1801.5	6.2285
1803	6.74871
1804.51	6.90308
1806.01	6.89909
1807.51	6.61323
1809.01	5.96012
1810.51	5.40399
1812.02	5.06158
1813.52	5.48149
1815.02	5.04154
1816.52	4.76001
1818.02	4.18263
1819.52	3.63734
1821.02	3.32039
1822.52	3.36642
1824.02	3.36627
1825.51	3.39388
1827.01	3.31001
1828.51	2.96115
1830.01	2.99036
1831.51	2.63075
1833	2.39837
1834.5	2.05434
1836	2.55332
1837.5	2.76648
1838.99	2.96705
1840.49	3.14346
1841.98	3.4042
1843.48	2.85514
1844.97	2.96029
1846.47	3.21714
1847.96	3.02778
1849.46	3.20216
1850.95	3.17793
1852.45	3.46241
1853.94	2.90108
1855.43	2.65134
1856.92	2.37817
1858.42	2.15683
1859.91	1.85281
1861.4	1.79627
1862.89	1.90412
1864.39	2.28714
1865.88	2.09197
1867.37	2.12648
1868.86	1.82351
1870.35	2.46718
1871.84	2.99597
1873.33	2.88184
1874.82	2.81908
1876.31	2.67844
1877.8	2.81897
1879.29	2.75031
1880.77	2.92394
1882.26	2.74116
1882.51	2.73351
1884	2.62387
1885.5	2.55293
1886.99	2.54933
1888.48	2.08967
1889.98	2.46842
1891.47	2.20075
1892.97	2.52097
1894.46	2.24641
1895.95	2.65357
1897.44	2.71697
1898.93	2.72676
1900.42	2.07496
1901.92	2.2847
1903.41	1.93387
1904.9	1.86795
1906.39	2.37318
1907.88	3.05956
1909.37	3.86059
1910.86	3.89044
1912.35	4.58212
1913.84	4.08985
1915.32	3.3771
1916.81	2.87514
1918.3	2.67367
1919.79	2.61495
1921.28	2.40939
1922.76	2.38905
1924.25	1.91537
1925.74	1.93662
1927.22	2.06797
1928.71	2.38547
1930.2	2.80235
1931.68	3.05568
1933.17	3.07678
1934.65	2.91511
1936.14	2.79042
1937.62	2.4042
1939.11	1.92943
1940.59	2.91464
1942.08	2.7698
1943.56	3.4004
1945.04	3.31513
1946.53	3.54744
1948.01	4.25555
1949.49	4.83179
1950.97	4.74727
1952.45	4.57629
1953.94	4.53777
1955.42	4.08295
1956.9	4.08033
1958.38	3.87403
1959.86	3.45474
1961.34	3.85546
1962.82	4.42966
1964.3	4.3676
1965.78	3.7298
1967.26	3.99234
1968.74	4.10512
1970.22	4.30422
1971.69	3.96215
1973.17	3.96878
1974.65	3.839
1976.13	4.23513
1977.61	4.08132
1979.08	5.17553
1980.56	5.41194
1982.03	4.97476
1983.51	4.67219
1984.99	4.27686
1986.46	4.55976
1987.94	3.4771
1989.41	4.16852
1990.89	4.17384
1992.36	4.96835
1993.84	5.78544
1995.31	5.90738
1996.78	5.76001
1998.26	6.17383
1999.73	6.97657
2001.2	7.2195
2002.68	7.55344
2004.15	8.01804
2005.62	8.36773
2007.09	8.18939
2008.56	8.00275
2010.04	8.24145
2011.51	7.9104
2012.98	8.02149
2014.45	8.17148
2015.92	7.85811
2017.39	9.09542
2018.86	9.58037
2020.33	10.016
2021.8	10.1368
2023.27	9.48897
2024.74	9.68939
2026.2	9.91369
2027.67	9.98217
2029.14	10.2919
2030.61	10.6102
2032.07	10.2552
2033.54	9.90841
2035.01	10.4299
2036.47	10.3764
2037.94	10.3305
2039.41	10.2581
2040.87	10.2176
2042.34	10.6286
2043.8	10.1614
2045.27	10.3952
2046.73	10.7294
2048.2	11.0834
2049.66	11.1883
2051.12	11.4953
2052.59	12.086
2054.05	11.7524
2055.51	12.4731
2056.98	13.1854
2058.44	13.8052
2059.9	14.5868
2061.36	14.7569
2062.82	16.5592
2064.29	16.9226
2065.75	17.5998
2067.21	17.9699
2068.67	18.1188
2070.13	18.3698
2071.59	18.7685
2073.05	19.0945
2074.51	19.1866
2075.97	19.4285
2077.43	19.8897
2078.88	19.3725
2080.34	18.549
2081.8	18.2746
2083.26	18.3806
2084.72	18.7366
2086.17	19.5289
2087.63	21.0305
2089.09	21.6354
2090.54	22.5287
2092	23.0903
2093.46	23.9472
2094.91	24.6844
2096.37	25.1624
2097.82	26.4135
2099.28	26.717
2100.73	27.1774
2102.19	27.9903
2103.64	28.9904
2105.09	30.0098
2106.55	30.8594
2108	32.3082
2109.46	32.7525
2110.91	33.804
2112.36	34.7778
2113.81	35.9266
2115.27	37.2235
2116.72	37.8075
2118.17	39.6177
2119.62	41.323
2121.07	42.6371
2122.52	44.3772
2123.97	46.4293
2125.42	47.85
2126.87	49.6225
2128.32	51.6437
2129.77	53.096
2131.22	54.6481
2132.67	56.3399
2134.12	58.4895
2135.57	60.4414
2137.01	61.2433
2138.46	62.4956
2139.91	63.989
2141.36	64.9056
2142.8	66.7784
2144.25	68.201
2145.7	69.9727
2147.14	71.7418
2148.59	72.882
2150.03	74.4387
2151.48	75.398
2152.92	76.5726
2154.37	78.0654
2155.81	79.4868
2157.26	80.6237
2158.7	81.1704
2160.15	81.9122
2161.59	82.4651
2163.03	83.6072
2164.48	84.0643
2165.92	84.4856
2167.36	84.2908
2168.8	84.1261
2170.25	84.1849
2171.69	83.3052
2173.13	82.769
2174.57	82.9574
2176.01	82.5665
2177.45	81.3765
2178.89	80.829
2180.33	80.1901
2181.77	79.2434
2183.21	78.3206
2184.65	77.4543
2186.09	76.4051
2187.53	75.4823
2188.97	74.5275
2190.41	73.9086
2191.84	72.4845
2193.28	70.4838
2194.72	69.5787
2196.16	68.44
2197.59	66.8775
2199.03	65.3349
2200.47	63.7558
2201.9	62.025
2203.34	61.1138
2204.78	60.0004
2206.21	58.9388
2207.65	57.4472
2209.08	55.9204
2210.51	54.2891
2211.95	53.1535
2213.38	52.2901
2214.82	51.4997
2216.25	50.194
2217.68	48.9616
2219.12	47.3244
2220.55	46.7857
2221.98	46.2582
2223.42	44.7552
2224.85	43.1158
2226.28	41.9972
2227.71	40.917
2229.14	39.5369
2230.57	38.5363
2232	37.7743
2233.43	37.1676
2234.86	35.902
2236.29	34.5494
2237.72	32.9481
2239.15	31.3622
2240.58	30.2267
2242.01	29.1612
2243.44	27.9748
2244.87	27.5602
2246.3	26.8994
2247.73	25.9243
2249.15	25.1638
2250.58	24.5147
2252.01	23.6968
2253.43	23.1331
2254.86	23.0134
2256.29	22.653
2257.71	22.3052
2259.14	21.0048
2260.56	20.1444
2261.99	19.3197
2263.41	18.3917
2264.84	17.5276
2266.26	17.688
2267.69	17.0946
2269.11	16.2209
2270.54	16.1102
2271.96	16.3773
2273.38	16.2431
2274.81	16.4237
2276.23	15.6748
2277.65	15.4325
2279.07	14.3576
2280.49	14.1879
2281.92	13.8032
2283.34	14.0238
2284.76	13.6632
2286.18	13.6597
2287.6	13.4079
2289.02	13.0086
2290.44	12.7621
2291.86	12.8884
2293.28	11.5986
2294.7	11.0412
2296.12	10.6166
2297.54	10.6451
2298.96	10.7971
2300.38	11.157
2301.79	11.2989
2303.21	11.277
2304.63	11.3874
2306.05	11.214
2307.46	11.2471
2308.88	11.0749
2310.3	11.2495
2311.71	11.3018
2313.13	11.5348
2314.55	11.2657
2315.96	11.3997
2317.38	11.1875
2318.79	11.6876
2320.21	11.579
2321.62	11.1209
2323.03	11.3944
2324.45	10.8576
2325.86	10.5467
2327.27	9.60975
2328.69	9.50618
2330.1	8.54129
2331.51	8.66903
2332.93	8.59203
2334.34	8.04067
2335.75	7.52291
2337.16	7.65593
2338.57	6.79198
2339.99	6.87402
2341.4	6.37805
2342.81	6.17115
2344.22	5.73305
2345.63	4.80634
2347.04	3.89925
2348.45	3.82333
2349.86	3.1218
2351.26	2.82987
2352.67	1.61767
2354.08	1.62516
2355.49	0.883798
2356.9	0.717642
2358.31	0.29743
2359.71	-0.0671545
2361.12	-0.357056
2362.53	-0.256681
2363.94	0.319071
2365.34	0.773391
2366.75	1.03949
2368.15	1.03272
2369.56	1.35826
2370.97	2.00636
2372.37	2.23035
2373.78	2.1898
2375.18	2.11124
2376.59	1.88422
2377.99	2.27256
2379.39	2.21745
2380.8	2.68795
2382.2	2.11252
2383.61	1.57697
2385.01	1.44608
2386.41	2.02745
2387.81	1.9161
2389.22	2.47213
2390.62	2.41013
2392.02	1.92418
2393.42	2.50092
2394.82	2.14865
2396.22	3.06519
2397.63	2.92269
2399.02	2.70111
2400.43	2.79259
2401.82	2.95984
2403.23	2.52002
2404.62	1.87654
2406.02	2.02464
2407.42	3.03534
2408.82	3.06624
2410.22	3.84893
2411.62	4.02649
2413.02	4.69016
2414.41	5.1079
2415.81	4.87362
2417.21	5.53319
2418.61	5.67897
2420	5.3706
2421.4	6.22412
2422.79	6.572
2424.19	7.2105
2425.59	7.3347
2426.98	7.96997
2428.38	8.0639
2429.77	8.11443
2431.17	8.25834
2432.56	8.11045
2433.96	8.0451
2435.35	7.33651
2436.74	7.15637
2438.14	6.75907
2439.53	6.60534
2440.92	6.06232
2442.32	5.24673
2443.71	4.22336
2445.1	4.34683
2446.49	4.01651
2447.88	3.84447
2449.28	3.57181
2450.67	3.49923
2452.06	2.61679
2453.45	3.28392
2454.84	2.98095
2456.23	3.00614
2457.62	2.74512
2459.01	2.9123
2460.4	2.26068
2461.79	1.89563
2463.18	2.3606
2464.57	2.31982
2465.96	2.7033
2467.34	2.09094
2468.73	2.48971
2470.12	2.63065
2471.51	2.16981
2472.89	2.22463
2474.28	2.22987
2475.67	2.81237
2477.05	3.61218
2478.44	3.57973
2479.83	3.97145
2481.21	3.80786
2482.6	3.89254
2483.98	4.41179
2485.37	3.69784
2486.75	4.02479
2488.14	3.78932
2489.52	4.21314
2490.9	3.97741
2492.29	3.71672
2493.67	4.27586
2495.06	4.31216
2496.44	4.1992
2497.82	4.02383
2499.2	3.89078
2500.59	3.53517
2501.97	3.41206
2503.35	3.70265
2504.73	3.1011
2506.11	2.82061
2507.49	2.6027
2508.88	2.13895
2510.26	1.94504
2511.63	2.17421
2513.01	2.41719
2514.39	2.56819
2515.77	2.83002
2517.15	2.91438
2518.53	3.02
2519.91	2.66928
2521.29	2.19186
2522.67	2.40483
2524.05	2.17116
2525.42	2.82957
2526.8	2.94253
2528.18	2.40186
2529.56	2.26783
2530.93	2.53998
2532.31	2.31584
2533.69	2.14835
2535.06	1.93515
2536.44	2.08309
2537.81	1.95844
2539.19	1.53871
2540.56	1.84253
2541.94	1.79809
2543.31	1.80301
2544.69	1.99302
2546.06	2.25641
2547.44	1.88648
2548.81	1.85028
2550.18	1.97958
2551.56	2.56578
2552.93	2.45072
2554.3	2.40229
2555.68	2.75234
2557.05	2.91375
2558.42	2.90732
2559.79	2.78096
2561.16	3.72611
2562.53	3.68131
2563.9	3.47038
2565.28	3.63845
2566.64	4.06175
2568.02	4.5817
2569.38	4.93156
2570.76	5.46984
2572.12	5.76978
2573.49	5.68134
2574.86	5.88585
2576.23	5.12315
2577.6	4.91021
2578.97	5.06896
2580.34	5.34387
2581.7	5.35058
2583.07	5.66652
2584.44	5.31438
2585.81	4.57153
2587.17	4.68556
2588.54	5.11206
2589.91	5.35649
2591.27	5.50942
2592.64	5.57746
2594	5.08729
2595.37	4.53263
2596.73	3.63752
2598.1	3.96362
2599.46	4.1485
2600.83	4.37213
2602.19	4.36668
2603.55	4.3112
2604.92	4.22793
2606.28	4.61841
2607.64	4.60046
2609.01	4.86093
2610.37	4.39512
2611.73	4.08638
2613.09	4.08776
2614.46	4.67184
2615.82	5.02128
2617.18	5.34498
2618.54	5.74282
2619.9	5.71908
2621.26	5.26501
2622.62	5.44343
2623.98	5.37346
2625.34	5.4276
2626.7	5.868
2628.06	6.18962
2629.42	6.34923
2630.78	6.4116
2632.14	6.45917
2633.5	6.58607
2634.86	6.32162
2636.22	6.52988
2637.57	6.09615
2638.93	5.89193
2640.29	5.13843
2641.64	4.34046
2643	3.35121
2644.36	3.10837
2645.72	3.59734
2647.07	3.85814
2648.43	3.78866
2649.78	3.7341
2651.14	3.33938
2652.49	3.18927
2653.85	3.14324
2655.2	3.35111
2656.56	3.37826
2657.91	2.83735
2659.27	2.73519
2660.62	2.6261
2661.97	2.48854
2663.33	2.88408
2664.68	3.43281
2666.03	3.7897
2667.38	3.82956
2668.74	3.67768
2670.09	3.37338
2671.44	3.58623
2672.79	3.82824
2674.14	3.97524
2675.49	3.92307
2676.84	4.30975
2678.2	4.55751
2679.55	5.20361
2680.89	5.57675
2682.24	6.14703
2683.59	5.94625
2684.94	6.38886
2686.29	6.73367
2687.64	6.31174
2688.99	6.69237
2690.34	7.61485
2691.69	8.05062
2693.04	8.88153
2694.38	9.05113
2695.73	8.34253
2697.08	8.29261
2698.43	9.14071
2699.77	8.94516
2701.12	8.82174
2702.46	8.95216
2703.81	9.27911
2705.16	9.26834
2706.5	9.59253
2707.85	9.95406
2709.19	10.5158
2710.54	10.7014
2711.88	11.2388
2713.23	11.5567
2714.57	11.7915
2715.92	11.4211
2717.26	10.8958
2718.6	10.3091
2719.95	10.2935
2721.29	10.0971
2722.63	10.2939
2723.97	10.0203
2725.32	10.0618
2726.66	10.0542
2728	10.3155
2729.34	10.2495
2730.68	10.0812
2732.02	9.16733
2733.36	8.71473
2734.7	8.39342
2736.04	8.45155
2737.39	8.58591
2738.72	8.29953
2740.06	8.13576
2741.4	8.32049
2742.74	8.7436
2744.08	8.55551
2745.42	8.03768
2746.76	7.98318
2748.1	7.62195
2749.44	7.68871
2750.77	7.52872
2752.11	7.87873
2753.45	7.29904
2754.78	7.99219
2756.12	8.14161
2757.46	8.05705
2758.79	7.26063
2760.13	6.93273
2761.47	5.932
2762.8	5.48598
2764.14	5.6725
2765.47	5.24594
2766.81	4.69854
2768.14	5.01518
2769.48	5.08813
2770.81	5.22681
2772.14	5.1909
2773.48	5.0395
2774.81	4.55138
2776.14	4.50889
2777.48	4.10358
2778.81	3.98172
2780.14	3.72479
2781.47	3.02461
2782.81	2.03258
2784.14	1.90702
2785.47	1.81271
2786.8	2.14807
2788.13	2.17319
2789.46	1.71943
2790.79	1.49325
2792.12	1.66097
2793.46	1.32651
2794.79	1.31724
2796.11	1.05068
2797.44	1.11596
2798.77	1.5388
2800.1	2.26045
2801.43	2.43213
2802.76	2.93299
2804.09	2.59725
2805.42	2.48464
2806.74	3.01701
2808.07	3.52555
2809.4	3.20681
2810.73	3.66254
2812.05	3.7474
2813.38	3.74969
2814.71	3.61633
2816.03	3.899
2817.36	4.62558
2818.68	5.47485
2820.01	6.31889
2821.33	7.63311
2822.66	8.1469
2823.98	9.16371
2825.31	10.7492
2826.63	12.5809
2827.96	14.8632
2829.28	17.3446
2830.61	19.8625
2831.93	22.3357
2833.25	25.3695
2834.57	27.6927
2835.9	29.7818
2837.22	32.7495
2838.54	35.2651
2839.86	38.1668
2841.18	40.9806
2842.51	44.5527
2843.83	47.3769
2845.15	50.1861
2846.47	53.1122
2847.79	56.0077
2849.11	58.9925
2850.43	62.5088
2851.75	65.3573
2853.07	68.0887
2854.39	70.585
2855.71	73.579
2857.03	76.8929
2858.35	79.7373
2859.67	82.8008
2860.98	84.9872
2862.3	87.6542
2863.62	90.2134
2864.94	92.3995
2866.25	94.104
2867.57	95.6053
2868.89	97.1937
2870.21	98.8633
2871.52	100.543
2872.84	101.537
2874.15	101.908
2875.47	101.82
2876.78	102.643
2878.1	102.54
2879.42	103.426
2880.73	104.964
2882.04	106.504
2883.36	107.534
2884.67	109.047
2885.99	110.214
2887.3	111.456
2888.61	112.19
2889.93	113.821
2891.24	115.915
2892.55	117.252
2893.87	118.9
2895.18	120.405
2896.49	122.216
2897.8	124.254
2899.11	126.101
2900.42	128.46
2901.74	130.981
2903.05	133.788
2904.36	136.163
2905.67	139.719
2906.98	143.162
2908.29	146.136
2909.6	149.504
2910.91	153.439
2912.22	158.252
2913.53	162.022
2914.83	165.735
2916.14	169.278
2917.45	172.928
2918.76	176.648
2920.07	179.772
2921.37	183.217
2922.68	186.068
2923.99	188.743
2925.3	190.969
2926.6	192.324
2927.91	193.975
2929.22	194.772
2930.52	195.173
2931.83	196.283
2933.13	196.035
2934.44	196.111
2935.74	195.482
2937.05	194.216
2938.35	192.845
2939.66	190.93
2940.96	189.435
2942.27	187.696
2943.57	185.796
2944.87	184.084
2946.18	180.7
2947.48	177.666
2948.78	174.038
2950.09	170.876
2951.39	166.697
2952.69	163.188
2953.99	159.429
2955.29	156.447
2956.6	152.943
2957.9	148.953
2959.2	145.519
2960.5	142.458
2961.8	139.191
2963.1	135.962
2964.4	132.451
2965.7	129.734
2967	125.815
2968.3	122.472
2969.6	118.846
2970.9	116.226
2972.2	113.101
2973.49	110.336
2974.79	108.483
2976.09	105.486
2977.39	102.105
2978.69	98.919
2979.98	95.6824
2981.28	92.5037
2982.58	88.9166
2983.88	84.9016
2985.17	80.726
2986.47	77.5703
2987.76	73.5307
2989.06	69.2472
2990.36	65.261
2991.65	61.9357
2992.95	58.72
2994.24	55.5094
2995.54	52.6812
2996.83	50.2261
2998.12	46.9991
2999.42	44.7547
3000.71	42.4286
3002	39.921
3003.3	36.685
3004.59	33.6886
3005.88	31.561
3007.18	28.6048
3008.47	25.9939
3009.76	23.5981
3011.05	21.172
3012.35	19.8396
3013.64	17.9892
3014.93	16.6044
3016.22	15.171
3017.51	14.5051
3018.8	13.5481
3020.09	12.6826
3021.38	11.9679
3022.67	10.2749
3023.96	9.55156
3025.25	8.86293
3026.54	7.81166
3027.83	7.44237
3029.12	6.39635
3030.41	5.61838
3031.69	4.99721
3032.98	5.11762
3034.27	4.85741
3035.56	5.62311
3036.85	5.99194
3038.13	5.92947
3039.42	5.81982
3040.71	5.44317
3041.99	5.49358
3043.28	6.16267
3044.57	5.16224
3045.85	5.03597
3047.14	4.72944
3048.42	4.4875
3049.71	4.03128
3050.99	4.45248
3052.28	4.30128
3053.56	4.85206
3054.85	6.05366
3056.13	6.28702
3057.42	6.03256
3058.7	5.71567
3059.98	5.96874
3061.27	5.88355
3062.55	5.42212
3063.83	5.66892
3065.11	5.85655
3066.4	4.85238
3067.68	3.88657
3068.96	3.81565
3070.24	3.61732
3071.52	2.98443
3072.8	3.07441
3074.09	2.94423
3075.37	2.98395
3076.65	2.35694
3077.93	1.97379
3079.21	1.92085
3080.49	1.54645
3081.77	1.18077
3083.05	0.629114
3084.32	0.143371
3085.61	-0.373759
3086.88	-0.895121
3088.16	-0.490692
3089.44	-0.642575
3090.72	-1.10999
3092	-0.950581
3093.27	-1.17572
3094.55	-1.15647
3095.83	-0.603724
3097.11	-0.608733
3098.38	-0.383757
3099.66	0.0916529
3100.94	0.460884
3102.21	0.662985
3103.49	1.02973
3104.76	1.50422
3106.04	1.77176
3107.31	2.58273
3108.59	2.59876
3109.86	2.43587
3111.14	2.85455
3112.41	2.55089
3113.69	3.2219
3114.96	4.16814
3116.23	4.28354
3117.51	4.37439
3118.78	4.56321
3120.05	4.38683
3121.33	4.65912
3122.6	5.02271
3123.87	5.57895
3125.14	5.79882
3126.42	6.38583
3127.69	7.24802
3128.96	7.1463
3130.23	6.64413
3131.5	7.06907
3132.77	7.80739
3134.04	8.22653
3135.31	8.49554
3136.58	8.76661
3137.85	8.8244
3139.12	9.47099
3140.39	9.57896
3141.66	10.3172
3142.93	10.7071
3144.2	11.1486
3145.47	11.7678
3146.74	12.3499
3148	12.7903
3149.27	13.8881
