#Acq. time (s)=	45
#Accumulations=	2
#Range (cm-¹)=	200...3150
#Windows=	2
#Auto scanning=	Off
#Autofocus=	Off
#Macrospot=	Off
#AutoExposure=	Off
#Spike filter=	Multiple accum.
#Delay time (s)=	0
#Binning=	1
#Readout mode=	Signal
#DeNoise=	Off
#ICS correction=	On
#Dark correction=	Off
#Inst. Process=	Off
#Detector Gain=	Best Dynamic Range
#Detector ADC=	20 kHz       
#Detector temperature (°C)=	-69.85
#Instrument=	LabRAM HR Evol
#Detector=	Synapse
#Objective=	x100
#Grating=	600 gr/mm
#ND Filter=	100%
#Laser (nm)=	532 
#Hole=	100.021
#Range=	Auto
#Laser Pol.=	No
#Raman. Pol.=	No
#Laser Pol. (°)=	-0.0007625
#Raman Pol. (°)=	89.9995
#Collection=	Microscope
#StageXY=	Marzhauser
#StageZ=	Marzhauser
#X (µm)=	19372.9
#Y (µm)=	3036
#Z (µm)=	1047.65
#Full time(mm:ss)=	3:18
#Project=	
#Sample=	
#Site=	
#Title=	Mb_50_18_03_2x_45s_532 nm_x100_100%_600 gr_mm
#Remark=	
#Date=	12.07.2022 10:27
#Acquired=	12.07.2022 10:27:20
#Base:Fit=	10.08.2022 10:49:18
#Base:Sub=	10.08.2022 10:49:30
#Filter:Polynom=	16.08.2022 10:14:59
#AxisType[0]=Intens
#AxisUnit[0]=Cnt
#AxisType[1]=Spectr
#AxisUnit[1]=1/cm
200.388	-8.3372
202.204	-3.21684
204.019	2.08382
205.832	5.52971
207.646	8.43147
209.459	10.5591
211.274	12.5268
213.087	13.5596
214.899	13.5898
216.711	13.7836
218.524	14.3421
220.335	15.8879
222.146	16.4168
223.956	16.1934
225.766	15.7425
227.576	16.7276
229.388	17.307
231.197	16.8775
233.005	16.9283
234.813	16.8331
236.621	16.2922
238.429	15.8693
240.236	13.9233
242.045	13.5622
243.852	14.3793
245.658	14.4278
247.464	14.2426
249.269	13.7017
251.074	13.0404
252.879	12.917
254.683	12.182
256.487	10.3909
258.291	10.3697
260.094	10.4635
261.897	9.42601
263.702	9.37475
265.504	9.15446
267.306	9.02496
269.108	9.50912
270.909	9.45919
272.71	9.41371
274.511	9.68112
276.311	9.97028
278.111	11.0261
279.91	12.2478
281.709	12.9805
283.508	13.5247
285.306	13.7835
287.105	14.1787
288.9	15.6216
290.698	16.7135
292.495	17.8587
294.291	17.9446
296.088	19.3001
297.884	20.3142
299.679	21.4154
301.475	23.0953
303.27	23.9787
305.064	25.4747
306.858	27.1069
308.652	28.7024
310.444	29.1032
312.237	29.7444
314.03	29.9521
315.822	29.3644
317.615	30.6082
319.406	30.5066
321.198	29.8718
322.987	30.198
324.778	30.0586
326.568	29.8591
328.358	29.6564
330.148	28.8504
331.935	28.9373
333.724	28.1153
335.513	27.2386
337.301	26.8033
339.089	24.7437
340.875	23.4936
342.662	22.2483
344.449	21.6152
346.236	20.8883
348.02	21.6111
349.806	21.8014
351.592	21.9686
353.375	23.1827
355.16	24.6593
356.944	25.5314
358.728	25.602
360.51	26.2611
362.294	27.6966
364.077	29.1966
365.858	30.3399
367.64	30.7855
369.422	32.4183
371.202	33.4471
372.983	35.3677
374.764	37.2812
376.543	38.7738
378.324	40.4939
380.102	42.2204
381.881	42.6668
383.661	43.16
385.438	44.3317
387.216	45.3265
388.993	45.7614
390.771	44.6272
392.548	44.3749
394.324	43.5173
396.101	42.5137
397.875	40.8482
399.651	38.8031
401.425	37.5534
403.201	34.6052
404.974	33.396
406.749	32.478
408.524	29.8389
410.296	27.4658
412.07	25.069
413.841	22.4524
415.614	19.9174
417.385	16.9212
419.156	14.3224
420.928	11.2402
422.698	9.52587
424.469	7.63387
426.238	5.25899
428.009	3.6712
429.777	2.64189
431.548	1.69895
433.315	0.903471
435.083	0.579941
436.852	0.0216471
438.618	-0.533161
440.387	0.225761
442.153	-0.398771
443.919	-0.39089
445.686	-0.52762
447.451	-0.391104
449.218	-0.267839
450.982	0.508152
452.746	1.23145
454.512	1.98601
456.275	2.78327
458.038	4.69947
459.803	6.29291
461.565	7.93103
463.327	8.94542
465.091	9.76813
466.852	11.296
468.613	11.8622
470.374	12.12
472.136	13.9877
473.896	14.3676
475.655	16.1609
477.415	16.9814
479.176	17.1861
480.934	18.5499
482.692	19.4857
484.45	20.4632
486.21	21.2412
487.967	22.3091
489.724	24.2726
491.481	25.4682
493.237	26.9431
494.995	27.6111
496.75	29.1191
498.506	30.9512
500.26	32.7772
502.015	32.9436
503.771	34.2738
505.525	35.3468
507.279	35.7713
509.032	35.0072
510.785	35.4493
512.537	35.5836
514.289	36.2275
516.041	36.0805
517.793	34.6312
519.546	33.7863
521.297	33.3084
523.047	32.5651
524.797	31.0997
526.547	30.031
528.297	29.3807
530.046	28.045
531.795	26.9762
533.543	26.2367
535.291	24.6517
537.039	22.9376
538.787	23.4347
540.534	22.1076
542.281	20.5508
544.027	19.0991
545.773	18.2436
547.519	16.6663
549.264	15.3447
551.01	13.4888
552.754	12.5494
554.499	10.7216
556.243	8.68229
557.987	6.6312
559.73	5.81557
561.474	4.50467
563.216	4.58093
564.959	2.54998
566.701	2.40816
568.441	2.41166
570.182	3.18322
571.923	3.2305
573.664	2.38889
575.405	2.85437
577.145	3.79599
578.885	4.21704
580.624	4.60835
582.361	5.96983
584.1	7.1758
585.839	8.29297
587.577	7.81464
589.315	8.01563
591.052	10.0461
592.787	9.4898
594.524	10.0638
596.26	10.3261
597.997	11.031
599.732	11.3828
601.466	11.2416
603.201	10.9217
604.936	11.2544
606.67	11.9812
608.403	12.4342
610.136	11.0269
611.87	10.6038
613.603	11.1075
615.334	10.7799
617.067	11.6374
618.799	11.4118
620.529	11.7728
622.26	10.0447
623.991	9.61013
625.72	8.83963
627.451	8.07193
629.181	7.9177
630.909	7.68898
632.638	7.06923
634.368	6.44089
636.095	6.07061
637.823	5.73297
639.551	4.21428
641.277	2.47959
643.005	1.93358
644.73	0.740371
646.457	1.18781
648.184	0.700345
649.908	0.462601
651.634	-0.229912
653.357	1.41699
655.083	1.71847
656.806	2.33148
658.53	1.80333
660.253	2.59712
661.977	4.95062
663.7	5.31558
665.422	5.61455
667.145	6.15414
668.865	7.10515
670.588	7.3861
672.308	7.26673
674.027	7.7009
675.749	9.24678
677.468	9.45851
679.188	10.9117
680.907	13.2139
682.627	12.8061
684.345	14.375
686.064	15.7796
687.781	16.5789
689.498	18.2691
691.216	19.6505
692.932	21.1604
694.65	22.035
696.366	22.568
698.081	23.5837
699.797	24.6992
701.512	25.1558
703.228	26.9046
704.942	25.8
706.655	26.1849
708.371	26.7328
710.083	29.1903
711.796	29.5711
713.51	30.6731
715.222	31.2256
716.934	31.0149
718.645	30.5732
720.358	31.1017
722.068	30.4166
723.779	29.9959
725.49	28.3702
727.2	27.6892
728.909	29.1059
730.618	29.2403
732.329	30.7197
734.037	32.3487
735.745	35.8581
737.453	38.7355
739.16	41.9216
740.869	45.1142
742.576	47.278
744.282	50.304
745.988	54.7197
747.694	58.2498
749.401	60.5685
751.107	62.5806
752.811	65.3014
754.516	68.0915
756.22	71.7442
757.924	76.2321
759.627	80.4578
761.332	83.6177
763.035	87.0984
764.738	90.0352
766.44	91.112
768.142	92.9363
769.843	95.3413
771.544	96.2239
773.245	97.7178
774.946	98.9968
776.646	100.317
778.346	100.067
780.046	99.7692
781.745	100.404
783.444	99.9931
785.143	101.141
786.841	100.518
788.539	99.6912
790.237	97.5307
791.934	96.1182
793.631	95.3279
795.328	93.387
797.024	90.6142
798.72	88.1237
800.416	85.9589
802.112	83.7388
803.807	81.4294
805.502	79.4643
807.196	76.9778
808.89	75.184
810.584	72.8869
812.278	72.304
813.971	72.7137
815.664	71.8254
817.354	71.4582
819.047	72.0779
820.739	72.6766
822.43	71.5675
824.122	71.6043
825.813	71.5641
827.503	70.9045
829.192	70.8935
830.882	70.5757
832.571	69.9544
834.261	68.5372
835.95	67.6112
837.637	67.5822
839.325	67.7086
841.013	67.691
842.701	67.2379
844.389	65.1669
846.074	63.2365
847.761	62.2173
849.447	59.9651
851.131	58.0215
852.817	57.7253
854.503	55.7064
856.188	54.8911
857.871	53.7214
859.556	52.4481
861.24	51.9211
862.922	49.9046
864.606	49.7691
866.289	49.0756
867.97	47.5558
869.653	46.8514
871.336	44.781
873.016	43.976
874.698	42.8557
876.379	42.28
878.058	42.3879
879.739	41.0191
881.418	40.2565
883.098	40.3836
884.778	40.9302
886.456	40.7602
888.135	40.5429
889.812	40.1553
891.49	40.4346
893.167	40.0286
894.845	39.8218
896.523	40.2627
898.198	40.2297
899.875	40.2504
901.55	39.5558
903.226	38.5226
904.901	37.5121
906.576	37.3014
908.25	38.0907
909.925	37.6066
911.598	37.8032
913.271	37.9052
914.945	37.7741
916.617	37.6632
918.291	36.466
919.962	36.8108
921.635	36.495
923.306	36.6226
924.978	36.0384
926.648	35.8315
928.318	34.6132
929.989	33.4585
931.659	32.7653
933.328	31.0566
934.998	30.6382
936.666	31.177
938.336	29.8389
940.004	28.9285
941.671	26.803
943.34	26.011
945.007	25.3967
946.673	24.2884
948.339	23.5327
950.007	23.8221
951.672	24.7054
953.337	23.9326
955.004	23.9636
956.669	22.8887
958.333	21.5789
959.997	20.2456
961.662	19.4817
963.326	19.3029
964.989	20.2222
966.651	20.715
968.315	20.9009
969.977	21.1262
971.639	21.7729
973.301	21.2929
974.962	21.5934
976.624	21.1266
978.285	21.3398
979.945	21.7427
981.605	22.0646
983.264	21.4855
984.924	20.7765
986.583	20.3643
988.243	21.0561
989.901	21.8076
991.56	21.4658
993.217	22.1998
994.875	23.2037
996.532	24.8073
998.188	26.4421
999.845	29.1253
1001.5	31.4934
1003.16	34.7563
1004.81	36.9305
1006.47	39.6308
1008.12	41.745
1009.78	43.7867
1011.43	45.3317
1013.09	48.1976
1014.74	50.8804
1016.39	53.6531
1018.05	55.9283
1019.7	57.2154
1021.35	57.6455
1023	59.2101
1024.65	60.2411
1026.31	62.071
1027.96	64.1312
1029.61	63.8012
1031.26	63.926
1032.91	64.9178
1034.56	64.1724
1036.21	62.0257
1037.86	61.777
1039.51	60.6319
1041.16	59.9544
1042.8	59.5477
1044.45	58.8806
1046.1	58.1289
1047.75	57.1839
1049.39	54.7166
1051.04	53.61
1052.69	52.2868
1054.33	50.7492
1055.98	49.5062
1057.62	48.3184
1059.27	46.1181
1060.91	44.0419
1062.56	41.9491
1064.2	39.878
1065.85	37.7434
1067.49	36.2381
1069.13	34.9805
1070.77	34.4026
1072.42	34.7318
1074.06	35.2444
1075.7	37.0604
1077.34	38.1544
1078.98	38.9467
1080.62	39.4052
1082.27	39.7306
1083.91	39.5589
1085.55	39.0163
1087.18	38.4344
1088.82	38.026
1090.46	37.7494
1092.1	37.1364
1093.74	36.888
1095.38	36.6484
1097.02	35.3134
1098.65	35.3027
1100.29	35.1875
1101.93	34.5702
1103.56	33.6115
1105.2	32.7937
1106.84	30.8698
1108.47	30.2034
1110.11	28.9535
1111.74	26.7594
1113.38	26.0695
1115.01	24.9651
1116.64	24.0409
1118.28	23.6218
1119.91	23.517
1121.54	21.3127
1123.18	18.8405
1124.81	17.2349
1126.44	15.5573
1128.07	14.1948
1129.7	13.0019
1131.33	12.3253
1132.97	13.1263
1134.6	13.429
1136.23	13.5807
1137.86	12.9507
1139.49	11.9512
1141.11	10.5684
1142.74	9.48031
1144.37	8.82039
1146	8.98983
1147.63	9.86949
1149.26	10.0013
1150.88	10.7296
1152.51	9.70646
1154.14	9.40322
1155.76	9.07115
1157.39	8.33814
1159.01	7.29578
1160.64	6.60534
1162.27	5.47228
1163.89	5.3683
1165.51	5.61585
1167.14	6.44573
1168.76	7.19559
1170.39	8.07133
1172.01	8.86884
1173.63	8.9329
1175.25	8.29312
1176.88	8.60188
1178.5	8.85413
1180.12	10.2687
1181.74	9.80921
1183.36	9.326
1184.98	9.51223
1186.6	11.0088
1188.22	11.6265
1189.84	12.0388
1191.46	12.2703
1193.08	12.2336
1194.7	12.4227
1196.32	12.8161
1197.94	13.5987
1199.55	13.9214
1201.17	14.3168
1202.79	13.27
1204.41	14.1492
1206.02	15.878
1207.64	16.9988
1209.25	18.4917
1210.87	19.7963
1212.48	20.5167
1214.1	21.4494
1215.71	21.565
1217.33	22.2815
1218.94	22.901
1220.56	24.4069
1222.17	24.825
1223.79	25.7342
1225.4	27.2457
1227.01	29.0006
1228.62	30.3825
1230.23	30.719
1231.85	30.9337
1233.46	30.9124
1235.07	32.2653
1236.68	32.9017
1238.29	34.2915
1239.9	34.6228
1241.51	36.0991
1243.12	36.8025
1244.73	37.7214
1246.34	38.5277
1247.94	39.8987
1249.55	39.2587
1251.16	38.9957
1252.77	38.3108
1254.37	38.4631
1255.98	38.6271
1257.59	40.7808
1259.2	42.0998
1260.8	43.1104
1262.41	43.6986
1264.01	44.8854
1265.62	45.4306
1267.22	45.2989
1268.83	44.4975
1270.43	44.6671
1272.03	46.8773
1273.64	47.963
1275.24	49.1556
1276.85	50.8361
1278.45	51.7632
1280.05	53.264
1281.65	54.9226
1283.25	56.6374
1284.85	59.3992
1286.46	61.2576
1288.06	61.6661
1289.66	62.1109
1291.26	62.5521
1292.86	63.7375
1294.46	65.2869
1296.06	65.3296
1297.66	66.4374
1299.25	67.0047
1300.85	66.8264
1302.45	66.0083
1304.05	65.7134
1305.65	66.2167
1307.24	67.0673
1308.84	67.5209
1310.43	66.3569
1312.03	66.6199
1313.63	66.636
1315.22	65.6122
1316.82	64.8223
1318.41	64.554
1320.01	63.5528
1321.6	63.0153
1323.2	61.8065
1324.79	60.5312
1326.38	59.9216
1327.98	59.0486
1329.57	57.2686
1331.16	55.9675
1332.76	55.1681
1334.35	54.9524
1335.94	54.6537
1337.53	53.7333
1339.12	52.4622
1340.71	51.1872
1342.3	50.0838
1343.89	48.6884
1345.48	47.2604
1347.07	45.2637
1348.66	45.5775
1350.25	46.0417
1351.84	45.7119
1353.43	44.0987
1355.01	43.0997
1356.6	42.5573
1358.19	41.286
1359.77	41.1702
1361.36	40.1467
1362.95	38.8409
1364.53	36.1647
1366.12	34.6478
1367.71	33.5463
1369.29	32.3691
1370.88	32.1555
1372.46	30.8291
1374.04	29.2968
1375.63	27.3219
1377.21	26.6077
1378.8	26.0589
1380.38	25.7927
1381.96	25.4894
1383.54	26.4665
1385.13	26.5917
1386.71	26.3163
1388.29	25.5481
1389.87	24.695
1391.45	24.8284
1393.03	23.7985
1394.61	23.4716
1396.19	23.1052
1397.77	23.6002
1399.35	23.1772
1400.93	22.7236
1402.51	23.2236
1404.09	23.9794
1405.67	24.3704
1407.24	26.4622
1408.82	27.1246
1410.4	28.5816
1411.98	31.2732
1413.55	33.1225
1415.13	35.5412
1416.71	37.6648
1418.28	39.7523
1419.86	42.2622
1421.43	44.4997
1423.01	46.8199
1424.58	48.8218
1426.16	51.4291
1427.73	54.4714
1429.31	56.7119
1430.88	58.3349
1432.45	60.1692
1434.02	61.2521
1435.6	62.2651
1437.17	64.0036
1438.74	65.5131
1440.31	67.1177
1441.88	69.1846
1443.45	70.2236
1445.03	72.5093
1446.6	72.7882
1448.17	72.6301
1449.74	72.4505
1451.3	72.3505
1452.87	72.541
1454.44	72.5753
1456.01	72.4213
1457.58	72.6602
1459.15	71.725
1460.72	70.3125
1462.28	69.8084
1463.85	68.415
1465.42	67.1824
1466.98	65.086
1468.55	62.6081
1470.12	60.9222
1471.68	59.5675
1473.25	57.9529
1474.81	56.3507
1476.38	54.6795
1477.94	51.9163
1479.51	50.6344
1481.07	48.9646
1482.63	47.2678
1484.2	45.4171
1485.76	44.1642
1487.32	42.1679
1488.88	40.967
1490.45	39.5686
1492.01	37.9828
1493.57	37.9296
1495.13	36.5031
1496.69	35.1233
1498.25	34.443
1499.81	32.0744
1501.37	30.7008
1502.93	29.5836
1504.49	27.1162
1506.05	25.6416
1507.61	24.3497
1509.17	23.075
1510.73	21.254
1512.28	20.4046
1513.84	19.7013
1515.4	18.7086
1516.96	18.7127
1518.51	17.151
1520.07	16.922
1521.63	15.3093
1523.18	14.8726
1524.74	14.4812
1526.29	13.8969
1527.85	12.7703
1529.4	14.2487
1530.96	14.3072
1532.51	14.5255
1534.06	13.7095
1535.62	14.4195
1537.17	15.2689
1538.72	16.1981
1540.28	16.6758
1541.83	17.1909
1543.38	16.4985
1544.93	17.3609
1546.48	18.6801
1548.03	19.7918
1549.59	20.7546
1551.14	21.5059
1552.69	22.6137
1554.24	23.1109
1555.79	23.9644
1557.34	25.4655
1558.88	25.3235
1560.43	26.1197
1561.98	26.8276
1563.53	27.8275
1565.08	28.5146
1566.62	29.0668
1568.17	30.2698
1569.72	31.604
1571.27	33.514
1572.81	34.6184
1574.36	35.9937
1575.9	37.1729
1577.45	38.3534
1579	39.4673
1580.54	40.1166
1582.09	40.0203
1583.63	41.2079
1585.17	41.4243
1586.72	42.2291
1588.26	41.5806
1589.8	41.6621
1591.35	42.4671
1592.89	43.2138
1594.43	44.4465
1595.97	43.7497
1597.52	45.1261
1599.06	44.4912
1600.6	45.5235
1602.14	45.9617
1603.68	45.5238
1605.22	45.7809
1606.76	46.9029
1608.3	45.5009
1609.84	44.9789
1611.38	43.9943
1612.92	44.5221
1614.46	44.5686
1615.99	44.1388
1617.53	45.2699
1619.07	45.5114
1620.61	45.0762
1622.14	46.0103
1623.68	47.0199
1625.22	47.2405
1626.75	48.1644
1628.29	48.5679
1629.82	49.6232
1631.36	50.2312
1632.9	51.1356
1634.43	52.5619
1635.96	53.2844
1637.5	54.7352
1639.03	55.643
1640.57	57.2358
1642.1	59.309
1643.63	61.5247
1645.16	64.2662
1646.7	67.0754
1648.23	69.0968
1649.76	69.7319
1651.29	70.2873
1652.82	71.8442
1654.36	72.1288
1655.89	72.5138
1657.42	72.8856
1658.95	73.7369
1660.48	73.3959
1662.01	73.872
1663.53	74.2255
1665.06	73.6166
1666.59	73.3844
1668.12	73.6027
1669.65	72.4904
1671.18	70.677
1672.7	69.1463
1674.23	67.0359
1675.76	65.3263
1677.29	63.4048
1678.81	61.1502
1680.34	58.0656
1681.86	55.3934
1683.39	53.6663
1684.91	51.3344
1686.44	49.1607
1687.96	47.8543
1689.49	46.6293
1691.01	44.3599
1692.54	42.0197
1694.06	39.3399
1695.58	35.5336
1697.11	33.6197
1698.63	31.7844
1700.15	29.8373
1701.67	27.3667
1703.2	24.975
1704.72	22.9984
1706.24	21.3691
1707.76	19.9402
1709.28	19.2052
1710.8	17.2538
1712.32	14.7829
1713.84	13.5665
1715.36	12.81
1716.88	11.7431
1718.4	10.9465
1719.91	10.2009
1721.43	9.76583
1722.95	9.00899
1724.47	7.99596
1725.99	7.63026
1727.5	7.90711
1729.02	7.7076
1730.54	7.03171
1732.05	7.0569
1733.57	6.05407
1735.09	5.68314
1736.6	4.67256
1738.12	4.98598
1739.63	4.50393
1741.15	3.59856
1742.66	2.85342
1744.18	2.99217
1745.69	2.4037
1747.2	1.80668
1748.72	1.7999
1750.23	1.16777
1751.74	2.11453
1753.25	2.64601
1754.77	3.12287
1756.28	3.05459
1757.79	3.68101
1759.3	4.14629
1760.81	3.695
1762.32	3.06381
1763.83	3.17248
1765.34	2.04328
1766.85	1.01919
1768.36	0.898148
1769.87	0.703432
1771.38	0.585147
1772.89	0.680603
1774.4	0.790243
1775.91	1.07461
1777.41	1.38509
1778.92	1.20393
1780.43	2.09013
1781.94	2.72372
1783.44	3.19091
1784.95	3.52835
1786.45	2.78521
1787.96	3.08165
1789.47	3.45117
1790.97	3.42221
1792.48	3.19709
1793.98	3.77646
1795.48	4.50253
1796.99	4.51394
1798.49	4.37923
1800	3.98251
1801.5	3.98451
1803	3.75373
1804.51	3.17719
1806.01	3.21105
1807.51	3.39521
1809.01	3.48789
1810.51	3.85447
1812.02	4.07326
1813.52	3.84441
1815.02	3.53081
1816.52	3.52127
1818.02	3.42729
1819.52	4.00268
1821.02	3.60212
1822.52	3.36878
1824.02	3.32353
1825.51	3.70126
1827.01	4.3238
1828.51	4.4334
1830.01	4.28875
1831.51	4.17672
1833	4.18504
1834.5	3.99521
1836	3.5091
1837.5	3.30771
1838.99	3.43609
1840.49	3.95924
1841.98	4.55099
1843.48	4.9501
1844.97	4.8292
1846.47	4.94822
1847.96	5.68959
1849.46	5.99575
1850.95	6.08976
1852.45	6.05834
1853.94	7.35996
1855.43	7.27503
1856.92	7.34658
1858.42	7.40962
1859.91	6.95609
1861.4	6.49313
1862.89	6.12737
1864.39	5.54832
1865.88	5.54177
1867.37	5.15172
1868.86	5.17535
1870.35	4.96445
1871.84	4.02444
1873.33	4.30898
1874.82	4.51195
1876.31	4.65546
1877.8	3.55537
1879.29	3.71921
1880.77	4.11929
1882.26	3.76298
1882.51	3.8507
1884	2.9177
1885.5	2.38779
1886.99	2.46683
1888.48	2.1919
1889.98	1.88196
1891.47	1.52488
1892.97	1.23863
1894.46	0.855413
1895.95	0.67082
1897.44	1.47157
1898.93	1.50273
1900.42	0.829274
1901.92	0.952787
1903.41	0.4104
1904.9	-0.196561
1906.39	-0.943441
1907.88	-0.896695
1909.37	-0.543144
1910.86	-0.804039
1912.35	-0.0752385
1913.84	0.460295
1915.32	0.389144
1916.81	-0.272251
1918.3	-0.209405
1919.79	0.279396
1921.28	0.996921
1922.76	1.14637
1924.25	1.2432
1925.74	1.15785
1927.22	2.0402
1928.71	1.13647
1930.2	1.7699
1931.68	1.30832
1933.17	0.795831
1934.65	1.74725
1936.14	1.43462
1937.62	1.19064
1939.11	1.99305
1940.59	2.27133
1942.08	2.42892
1943.56	2.17267
1945.04	2.9377
1946.53	3.31927
1948.01	2.7385
1949.49	2.37683
1950.97	1.78542
1952.45	3.0257
1953.94	3.05611
1955.42	2.67071
1956.9	2.28293
1958.38	1.61896
1959.86	1.73835
1961.34	1.73097
1962.82	0.455828
1964.3	0.61425
1965.78	0.542019
1967.26	0.284948
1968.74	0.850732
1970.22	1.19326
1971.69	1.95985
1973.17	1.99618
1974.65	2.71419
1976.13	2.93626
1977.61	2.9129
1979.08	3.01482
1980.56	3.10565
1982.03	4.93879
1983.51	5.55835
1984.99	5.36219
1986.46	6.18649
1987.94	6.57805
1989.41	6.85298
1990.89	7.1129
1992.36	7.75765
1993.84	8.68772
1995.31	9.57483
1996.78	9.94924
1998.26	10.45
1999.73	10.7635
2001.2	11.7743
2002.68	12.1786
2004.15	12.8676
2005.62	12.6462
2007.09	13.3685
2008.56	14.1298
2010.04	13.7671
2011.51	14.3826
2012.98	14.6982
2014.45	13.9992
2015.92	14.4349
2017.39	15.0347
2018.86	14.754
2020.33	14.5302
2021.8	15.3617
2023.27	14.9283
2024.74	14.4061
2026.2	15.4554
2027.67	15.0531
2029.14	14.3982
2030.61	13.8506
2032.07	14.2205
2033.54	14.2411
2035.01	14.1776
2036.47	14.0608
2037.94	14.6229
2039.41	14.7515
2040.87	15.7591
2042.34	16.4535
2043.8	17.3547
2045.27	18.076
2046.73	17.9858
2048.2	18.1563
2049.66	17.9558
2051.12	19.0359
2052.59	20.1314
2054.05	20.6836
2055.51	21.5587
2056.98	21.2848
2058.44	22.1697
2059.9	22.8771
2061.36	23.7985
2062.82	23.8635
2064.29	24.7683
2065.75	25.5945
2067.21	26.1292
2068.67	26.8013
2070.13	27.0739
2071.59	27.3151
2073.05	27.7748
2074.51	28.4185
2075.97	29.1181
2077.43	29.0939
2078.88	29.7992
2080.34	30.8929
2081.8	31.3957
2083.26	31.5527
2084.72	32.5909
2086.17	33.1517
2087.63	34.6874
2089.09	36.0373
2090.54	36.6058
2092	36.6742
2093.46	38.3172
2094.91	38.9206
2096.37	38.8389
2097.82	39.9791
2099.28	41.668
2100.73	41.9814
2102.19	43.879
2103.64	44.7975
2105.09	45.9777
2106.55	46.7879
2108	47.9465
2109.46	49.1327
2110.91	50.9566
2112.36	52.3837
2113.81	53.6403
2115.27	54.6807
2116.72	56.9792
2118.17	57.9316
2119.62	58.9593
2121.07	60.851
2122.52	62.6398
2123.97	65.1667
2125.42	67.9416
2126.87	69.4015
2128.32	71.3601
2129.77	73.8206
2131.22	76.0718
2132.67	77.2689
2134.12	79.4533
2135.57	81.7103
2137.01	83.3791
2138.46	85.3956
2139.91	87.0236
2141.36	90.1378
2142.8	92.1721
2144.25	94.2804
2145.7	95.9185
2147.14	97.3164
2148.59	99.864
2150.03	101.478
2151.48	103.814
2152.92	105.266
2154.37	106.825
2155.81	108.287
2157.26	109.554
2158.7	110.784
2160.15	111.889
2161.59	112.33
2163.03	113.488
2164.48	115.213
2165.92	116.653
2167.36	116.892
2168.8	117.777
2170.25	118.091
2171.69	118.375
2173.13	118.815
2174.57	118.284
2176.01	115.997
2177.45	115.503
2178.89	113.924
2180.33	113.018
2181.77	112.114
2183.21	111.218
2184.65	110.128
2186.09	109.541
2187.53	108.846
2188.97	107.305
2190.41	106.14
2191.84	104.601
2193.28	104.076
2194.72	103.298
2196.16	102.061
2197.59	100.699
2199.03	98.1931
2200.47	96.7041
2201.9	95.2721
2203.34	94.2477
2204.78	91.9439
2206.21	90.4908
2207.65	88.6021
2209.08	86.6898
2210.51	85.6623
2211.95	83.5973
2213.38	81.9312
2214.82	80.0501
2216.25	77.8336
2217.68	75.2485
2219.12	73.8241
2220.55	73.0897
2221.98	71.3896
2223.42	69.5785
2224.85	67.9984
2226.28	65.9476
2227.71	64.6059
2229.14	62.7493
2230.57	61.7797
2232	60.3544
2233.43	59.9482
2234.86	58.8836
2236.29	57.2573
2237.72	54.494
2239.15	51.618
2240.58	49.419
2242.01	46.9576
2243.44	45.1824
2244.87	43.14
2246.3	40.2174
2247.73	38.1698
2249.15	37.6164
2250.58	36.6012
2252.01	35.8434
2253.43	34.956
2254.86	33.3462
2256.29	32.8602
2257.71	31.4578
2259.14	29.8569
2260.56	28.6614
2261.99	28.1507
2263.41	26.4967
2264.84	27.14
2266.26	26.3063
2267.69	24.7132
2269.11	24.3896
2270.54	23.8629
2271.96	22.957
2273.38	22.4084
2274.81	21.7832
2276.23	20.7543
2277.65	21.1825
2279.07	21.4804
2280.49	21.5411
2281.92	20.9521
2283.34	20.9284
2284.76	20.5912
2286.18	20.6564
2287.6	19.571
2289.02	19.07
2290.44	19.0128
2291.86	19.1525
2293.28	17.3543
2294.7	17.1947
2296.12	16.9558
2297.54	16.8342
2298.96	17.4345
2300.38	16.4317
2301.79	16.8495
2303.21	16.1679
2304.63	15.72
2306.05	14.7081
2307.46	13.9618
2308.88	13.773
2310.3	13.058
2311.71	13.8925
2313.13	13.9627
2314.55	12.9598
2315.96	12.812
2317.38	12.7767
2318.79	12.7882
2320.21	12.7521
2321.62	12.7829
2323.03	12.1986
2324.45	11.6237
2325.86	12.1429
2327.27	13.0974
2328.69	12.6352
2330.1	12.8337
2331.51	13.1761
2332.93	13.0896
2334.34	13.2517
2335.75	13.3094
2337.16	11.98
2338.57	11.6284
2339.99	11.8015
2341.4	11.1453
2342.81	10.6651
2344.22	11.2224
2345.63	10.7497
2347.04	11.0039
2348.45	10.9914
2349.86	10.6802
2351.26	10.0089
2352.67	9.84291
2354.08	9.83234
2355.49	9.17814
2356.9	8.94671
2358.31	7.98405
2359.71	7.27197
2361.12	6.53674
2362.53	5.93361
2363.94	5.74994
2365.34	6.53472
2366.75	6.01351
2368.15	5.73247
2369.56	5.05411
2370.97	4.38299
2372.37	4.09946
2373.78	3.19447
2375.18	3.98744
2376.59	4.17834
2377.99	4.12843
2379.39	4.10508
2380.8	3.38981
2382.2	3.18433
2383.61	2.74687
2385.01	2.21098
2386.41	2.70803
2387.81	2.39277
2389.22	2.33107
2390.62	2.6906
2392.02	3.37659
2393.42	3.91827
2394.82	4.21142
2396.22	4.9995
2397.63	4.76453
2399.02	4.61117
2400.43	4.65117
2401.82	4.72993
2403.23	4.47334
2404.62	4.73444
2406.02	5.24441
2407.42	5.75038
2408.82	5.35774
2410.22	4.98941
2411.62	5.09867
2413.02	6.4021
2414.41	6.94628
2415.81	7.03464
2417.21	7.50857
2418.61	7.52788
2420	7.63926
2421.4	7.93133
2422.79	7.83234
2424.19	7.24429
2425.59	6.63297
2426.98	6.46907
2428.38	6.01555
2429.77	5.67149
2431.17	5.66648
2432.56	6.09219
2433.96	6.65059
2435.35	6.38352
2436.74	5.03532
2438.14	5.14103
2439.53	5.09209
2440.92	4.52655
2442.32	3.33916
2443.71	2.89404
2445.1	3.26766
2446.49	2.63442
2447.88	2.78207
2449.28	2.67814
2450.67	2.29356
2452.06	2.43246
2453.45	2.3568
2454.84	1.51572
2456.23	1.34834
2457.62	1.14672
2459.01	1.26193
2460.4	1.98932
2461.79	1.83973
2463.18	1.82834
2464.57	1.51252
2465.96	1.05997
2467.34	1.03807
2468.73	1.16651
2470.12	1.49068
2471.51	1.73725
2472.89	2.38769
2474.28	3.14004
2475.67	3.33597
2477.05	2.51679
2478.44	2.07638
2479.83	2.64309
2481.21	3.19226
2482.6	3.26903
2483.98	2.3101
2485.37	1.88315
2486.75	2.85406
2488.14	2.9708
2489.52	3.37014
2490.9	3.12708
2492.29	2.96616
2493.67	3.39104
2495.06	4.51952
2496.44	4.62144
2497.82	4.12619
2499.2	3.55315
2500.59	3.31255
2501.97	3.90327
2503.35	3.95824
2504.73	2.66475
2506.11	1.64686
2507.49	2.55484
2508.88	2.03308
2510.26	1.37885
2511.63	2.23278
2513.01	2.53262
2514.39	2.71588
2515.77	2.88146
2517.15	2.97451
2518.53	3.00028
2519.91	2.02312
2521.29	2.06212
2522.67	1.23031
2524.05	1.43581
2525.42	1.78096
2526.8	2.22789
2528.18	2.31574
2529.56	2.24075
2530.93	1.72488
2532.31	2.2233
2533.69	1.89585
2535.06	2.39957
2536.44	2.61148
2537.81	2.90079
2539.19	2.67177
2540.56	2.50349
2541.94	2.95276
2543.31	2.8485
2544.69	3.0309
2546.06	2.66703
2547.44	2.80605
2548.81	3.01251
2550.18	3.18914
2551.56	2.71328
2552.93	3.34394
2554.3	3.8853
2555.68	5.00282
2557.05	4.65364
2558.42	4.36461
2559.79	5.13923
2561.16	5.87022
2562.53	6.27767
2563.9	6.28239
2565.28	5.79288
2566.64	6.42652
2568.02	6.98308
2569.38	7.57556
2570.76	7.892
2572.12	7.67301
2573.49	7.55874
2574.86	8.27177
2576.23	8.77534
2577.6	9.54708
2578.97	9.2361
2580.34	9.63254
2581.7	9.24318
2583.07	9.35929
2584.44	9.11906
2585.81	8.81831
2587.17	8.96858
2588.54	8.7384
2589.91	9.02637
2591.27	8.76147
2592.64	8.84928
2594	9.06954
2595.37	9.15637
2596.73	9.0182
2598.1	8.87622
2599.46	9.33778
2600.83	8.95422
2602.19	8.0879
2603.55	7.86421
2604.92	7.03237
2606.28	6.59497
2607.64	6.54034
2609.01	6.55731
2610.37	6.89195
2611.73	6.83633
2613.09	6.87708
2614.46	6.41378
2615.82	6.21581
2617.18	6.68873
2618.54	6.60209
2619.9	6.90365
2621.26	7.31546
2622.62	7.09775
2623.98	7.51115
2625.34	7.61429
2626.7	7.79323
2628.06	8.51919
2629.42	8.06437
2630.78	8.19501
2632.14	7.74523
2633.5	8.025
2634.86	7.80343
2636.22	7.4267
2637.57	7.43342
2638.93	6.71525
2640.29	6.49491
2641.64	5.99539
2643	5.20439
2644.36	4.61065
2645.72	4.62953
2647.07	4.00298
2648.43	4.29166
2649.78	4.12923
2651.14	3.31744
2652.49	3.95133
2653.85	4.40993
2655.2	4.56362
2656.56	5.08366
2657.91	5.15598
2659.27	5.49557
2660.62	5.66791
2661.97	6.27114
2663.33	5.84046
2664.68	5.0321
2666.03	4.68332
2667.38	3.99873
2668.74	3.60213
2670.09	3.25709
2671.44	2.69553
2672.79	3.16086
2674.14	3.10258
2675.49	3.35153
2676.84	3.94439
2678.2	4.33854
2679.55	5.23497
2680.89	5.85721
2682.24	5.74362
2683.59	5.91515
2684.94	6.32701
2686.29	6.65757
2687.64	6.83073
2688.99	6.67508
2690.34	6.81486
2691.69	6.87701
2693.04	7.80207
2694.38	7.65146
2695.73	7.91996
2697.08	8.05535
2698.43	8.34796
2699.77	8.23395
2701.12	9.03942
2702.46	9.74773
2703.81	10.2897
2705.16	10.6047
2706.5	10.6282
2707.85	11.7835
2709.19	11.5071
2710.54	11.778
2711.88	12.6339
2713.23	13.4494
2714.57	13.6235
2715.92	13.8217
2717.26	14.0527
2718.6	13.6631
2719.95	14.2689
2721.29	13.8859
2722.63	13.9068
2723.97	13.9095
2725.32	13.1683
2726.66	13.0332
2728	12.4457
2729.34	11.3073
2730.68	10.5063
2732.02	10.0106
2733.36	9.36909
2734.7	8.27547
2736.04	8.2183
2737.39	7.02379
2738.72	6.19456
2740.06	6.48723
2741.4	5.84679
2742.74	5.68925
2744.08	5.54441
2745.42	4.9301
2746.76	5.32268
2748.1	4.92307
2749.44	4.23254
2750.77	3.81495
2752.11	3.43263
2753.45	2.90646
2754.78	2.26827
2756.12	1.82862
2757.46	1.66466
2758.79	1.55007
2760.13	2.71917
2761.47	2.19066
2762.8	2.76104
2764.14	3.26782
2765.47	3.22751
2766.81	2.88946
2768.14	3.42004
2769.48	3.34296
2770.81	3.13656
2772.14	2.77689
2773.48	2.44334
2774.81	2.02417
2776.14	1.919
2777.48	2.43195
2778.81	3.21171
2780.14	2.31082
2781.47	2.08063
2782.81	2.5647
2784.14	2.73305
2785.47	2.85877
2786.8	3.47633
2788.13	3.9631
2789.46	3.95737
2790.79	3.7717
2792.12	3.10292
2793.46	2.74468
2794.79	2.23743
2796.11	1.9718
2797.44	2.56982
2798.77	3.04594
2800.1	3.90237
2801.43	4.51263
2802.76	5.27185
2804.09	5.43911
2805.42	6.00673
2806.74	6.83787
2808.07	7.46397
2809.4	7.77675
2810.73	9.02799
2812.05	9.48588
2813.38	10.342
2814.71	10.4932
2816.03	10.0601
2817.36	10.5223
2818.68	11.53
2820.01	12.9392
2821.33	14.4748
2822.66	16.1999
2823.98	18.4645
2825.31	20.3665
2826.63	22.3864
2827.96	24.588
2829.28	27.0569
2830.61	28.7773
2831.93	30.7404
2833.25	33.6435
2834.57	36.8358
2835.9	39.3748
2837.22	42.9969
2838.54	45.9263
2839.86	49.273
2841.18	53.2885
2842.51	56.6464
2843.83	59.8458
2845.15	63.1759
2846.47	65.6103
2847.79	70.1918
2849.11	74.5881
2850.43	78.3356
2851.75	82.4674
2853.07	85.8546
2854.39	89.549
2855.71	93.0168
2857.03	95.8282
2858.35	99.5637
2859.67	103.936
2860.98	107.829
2862.3	111.351
2863.62	115.07
2864.94	117.981
2866.25	120.944
2867.57	122.819
2868.89	125.445
2870.21	128.046
2871.52	130.431
2872.84	132.958
2874.15	135.021
2875.47	135.964
2876.78	137.966
2878.1	139.204
2879.42	140.211
2880.73	141.452
2882.04	142.786
2883.36	144.808
2884.67	146.225
2885.99	148.143
2887.3	149.126
2888.61	151.161
2889.93	154.097
2891.24	155.687
2892.55	157.864
2893.87	161.247
2895.18	163.096
2896.49	165.85
2897.8	169.852
2899.11	173.546
2900.42	177.478
2901.74	181.603
2903.05	185.166
2904.36	189.092
2905.67	194.413
2906.98	200.187
2908.29	205.114
2909.6	211.174
2910.91	217.014
2912.22	223.866
2913.53	231.128
2914.83	237.207
2916.14	242.813
2917.45	248.262
2918.76	253.55
2920.07	258.686
2921.37	263.263
2922.68	267.271
2923.99	271.483
2925.3	274.58
2926.6	277.594
2927.91	280.167
2929.22	281.946
2930.52	283.294
2931.83	284.848
2933.13	285.718
2934.44	286.285
2935.74	284.889
2937.05	283.296
2938.35	281.313
2939.66	278.424
2940.96	275.37
2942.27	271.305
2943.57	267.515
2944.87	263.056
2946.18	258.199
2947.48	252.986
2948.78	248.369
2950.09	242.873
2951.39	238.753
2952.69	232.931
2953.99	228.33
2955.29	223.128
2956.6	216.619
2957.9	211.275
2959.2	205.951
2960.5	200.368
2961.8	194.947
2963.1	190.224
2964.4	185.03
2965.7	179.8
2967	175.091
2968.3	170.099
2969.6	166.336
2970.9	162.45
2972.2	157.221
2973.49	152.592
2974.79	148.565
2976.09	145.086
2977.39	140.517
2978.69	135.775
2979.98	131.284
2981.28	126.663
2982.58	122.327
2983.88	117.843
2985.17	112.48
2986.47	107.478
2987.76	102.169
2989.06	97.7548
2990.36	92.784
2991.65	88.4492
2992.95	83.3439
2994.24	78.8239
2995.54	74.4238
2996.83	69.9609
2998.12	65.5552
2999.42	60.7534
3000.71	56.2461
3002	52.268
3003.3	48.436
3004.59	44.8703
3005.88	41.4209
3007.18	37.9743
3008.47	36.0371
3009.76	33.1604
3011.05	30.6637
3012.35	29.0786
3013.64	27.0491
3014.93	25.1649
3016.22	23.4227
3017.51	21.4598
3018.8	20.1079
3020.09	18.0555
3021.38	17.0493
3022.67	16.0458
3023.96	15.3362
3025.25	15.1065
3026.54	13.8855
3027.83	14.2077
3029.12	13.8456
3030.41	13.4102
3031.69	12.8903
3032.98	12.4922
3034.27	12.4145
3035.56	12.4481
3036.85	12.3382
3038.13	13.1921
3039.42	13.907
3040.71	13.8792
3041.99	13.6378
3043.28	14.2434
3044.57	14.3433
3045.85	14.3855
3047.14	14.264
3048.42	14.0051
3049.71	13.2672
3050.99	12.3517
3052.28	12.0612
3053.56	11.5287
3054.85	10.6606
3056.13	10.1489
3057.42	9.56899
3058.7	9.52802
3059.98	8.93718
3061.27	8.91948
3062.55	8.88147
3063.83	8.74178
3065.11	8.53425
3066.4	7.7663
3067.68	8.43371
3068.96	8.06104
3070.24	7.7588
3071.52	7.51245
3072.8	7.03798
3074.09	6.71449
3075.37	6.40589
3076.65	5.94755
3077.93	5.33747
3079.21	5.32288
3080.49	4.53634
3081.77	4.87586
3083.05	4.60239
3084.32	4.59873
3085.61	5.12572
3086.88	4.46771
3088.16	3.95042
3089.44	3.68727
3090.72	3.16624
3092	3.25081
3093.27	2.7948
3094.55	2.48186
3095.83	2.84115
3097.11	3.2217
3098.38	2.97339
3099.66	3.01405
3100.94	3.12178
3102.21	3.61143
3103.49	4.13289
3104.76	3.8188
3106.04	4.88864
3107.31	5.55255
3108.59	5.56183
3109.86	5.54118
3111.14	4.87259
3112.41	5.18227
3113.69	4.71768
3114.96	4.42285
3116.23	5.15705
3117.51	4.86297
3118.78	5.52979
3120.05	5.83115
3121.33	6.77599
3122.6	7.11985
3123.87	7.25069
3125.14	7.5952
3126.42	7.53684
3127.69	7.49046
3128.96	7.24317
3130.23	7.13814
3131.5	7.63571
3132.77	7.31999
3134.04	7.52869
3135.31	7.53675
3136.58	7.47414
3137.85	7.29919
3139.12	6.95501
3140.39	6.79632
3141.66	6.12259
3142.93	5.53211
3144.2	4.52739
3145.47	2.99867
3146.74	1.61528
3148	0.746051
3149.27	-0.0606363
