#Acq. time (s)=	45
#Accumulations=	2
#Range (cm-¹)=	200...3150
#Windows=	2
#Auto scanning=	Off
#Autofocus=	Off
#Macrospot=	Off
#AutoExposure=	Off
#Spike filter=	Multiple accum.
#Delay time (s)=	0
#Binning=	1
#Readout mode=	Signal
#DeNoise=	Off
#ICS correction=	On
#Dark correction=	Off
#Inst. Process=	Off
#Detector Gain=	Best Dynamic Range
#Detector ADC=	20 kHz       
#Detector temperature (°C)=	-69.85
#Instrument=	LabRAM HR Evol
#Detector=	Synapse
#Objective=	x100
#Grating=	600 gr/mm
#ND Filter=	100%
#Laser (nm)=	532 
#Hole=	100.021
#Range=	Auto
#Laser Pol.=	No
#Raman. Pol.=	No
#Laser Pol. (°)=	-0.0007625
#Raman Pol. (°)=	89.9995
#Collection=	Microscope
#StageXY=	Marzhauser
#StageZ=	Marzhauser
#X (µm)=	19359.8
#Y (µm)=	3068.1
#Z (µm)=	1047.55
#Full time(mm:ss)=	3:18
#Project=	
#Sample=	
#Site=	
#Title=	Mb_50_18_05_2x_45s_532 nm_x100_100%_600 gr_mm
#Remark=	
#Date=	12.07.2022 10:35
#Acquired=	12.07.2022 10:35:41
#Base:Fit=	10.08.2022 10:49:18
#Base:Sub=	10.08.2022 10:49:30
#Filter:Polynom=	16.08.2022 10:14:59
#AxisType[0]=Intens
#AxisUnit[0]=Cnt
#AxisType[1]=Spectr
#AxisUnit[1]=1/cm
200.388	11.6626
202.204	9.7136
204.019	9.48384
205.832	8.0093
207.646	7.13362
209.459	6.39071
211.274	5.31958
213.087	4.84646
214.899	4.43143
216.711	3.53179
218.524	2.61485
220.335	2.76483
222.146	2.51768
223.956	2.03527
225.766	1.19163
227.576	1.24708
229.388	0.165347
231.197	0.184477
233.005	-0.0191134
234.813	-0.0593102
236.621	0.820132
238.429	1.03188
240.236	1.40433
242.045	1.81999
243.852	2.28319
245.658	2.95957
247.464	3.14161
249.269	3.07556
251.074	3.69079
252.879	4.01201
254.683	4.79882
256.487	4.8713
258.291	5.0323
260.094	5.87026
261.897	5.81378
263.702	4.52274
265.504	4.52068
267.306	3.88281
269.108	3.79718
270.909	3.70495
272.71	3.95328
274.511	4.30119
276.311	3.78284
278.111	3.01953
279.91	2.90974
281.709	4.12385
283.508	4.44019
285.306	4.95311
287.105	5.43769
288.9	5.25607
290.698	6.9279
292.495	7.05605
294.291	7.17436
296.088	7.56218
297.884	7.46658
299.679	8.95326
301.475	9.28123
303.27	11.0362
305.064	12.1337
306.858	13.0373
308.652	13.8507
310.444	15.287
312.237	14.9603
314.03	15.2488
315.822	17.0684
317.615	18.6257
319.406	19.2706
321.198	21.1637
322.987	22.0896
324.778	22.4863
326.568	23.3996
328.358	23.3701
330.148	24.4475
331.935	24.8175
333.724	25.128
335.513	24.8381
337.301	23.1788
339.089	23.4407
340.875	23.5608
342.662	23.022
344.449	23.6197
346.236	23.7093
348.02	23.5005
349.806	24.3488
351.592	24.0472
353.375	24.669
355.16	26.7985
356.944	27.295
358.728	27.5436
360.51	27.7837
362.294	28.3808
364.077	29.3212
365.858	30.5281
367.64	30.9876
369.422	31.4751
371.202	32.5775
372.983	33.156
374.764	34.8366
376.543	35.0637
378.324	35.4041
380.102	36.6173
381.881	36.2218
383.661	36.9506
385.438	37.5622
387.216	38.9671
388.993	40.1877
390.771	40.5815
392.548	40.2126
394.324	39.6615
396.101	39.0326
397.875	38.4829
399.651	37.8167
401.425	36.254
403.201	35.6043
404.974	35.2846
406.749	33.0991
408.524	31.4202
410.296	29.8406
412.07	27.8004
413.841	26.0262
415.614	24.468
417.385	22.6498
419.156	21.1358
420.928	18.9813
422.698	16.8249
424.469	14.6873
426.238	13.8759
428.009	14.0459
429.777	12.639
431.548	12.2569
433.315	11.1954
435.083	10.3311
436.852	9.64022
438.618	9.52528
440.387	8.73644
442.153	9.38336
443.919	9.08157
445.686	8.75298
447.451	9.02973
449.218	9.85838
450.982	10.5323
452.746	11.314
454.512	12.3748
456.275	12.1438
458.038	12.5458
459.803	13.5324
461.565	14.1557
463.327	15.6169
465.091	15.3524
466.852	16.2915
468.613	18.1277
470.374	19.1928
472.136	19.9275
473.896	20.9183
475.655	21.7612
477.415	22.8774
479.176	24.4045
480.934	24.9818
482.692	26.7477
484.45	29.0854
486.21	30.8866
487.967	31.6717
489.724	32.8852
491.481	33.4209
493.237	35.5859
494.995	36.7819
496.75	37.716
498.506	38.8445
500.26	40.7159
502.015	41.0745
503.771	42.0803
505.525	42.5945
507.279	42.9062
509.032	43.6547
510.785	43.6356
512.537	44.0837
514.289	45.5208
516.041	44.6893
517.793	43.4658
519.546	43.2729
521.297	42.5283
523.047	43.1598
524.797	41.983
526.547	41.6381
528.297	40.9325
530.046	40.5571
531.795	40.0608
533.543	39.8888
535.291	38.3327
537.039	36.2705
538.787	34.2645
540.534	32.9884
542.281	30.4453
544.027	28.2419
545.773	26.2507
547.519	24.0339
549.264	23.5871
551.01	21.2684
552.754	18.9705
554.499	17.1037
556.243	16.2351
557.987	13.9476
559.73	13.2429
561.474	12.5089
563.216	10.7427
564.959	10.3189
566.701	10.1494
568.441	9.481
570.182	8.9
571.923	8.76241
573.664	8.36228
575.405	7.52975
577.145	6.76237
578.885	5.71727
580.624	5.99336
582.361	5.9685
584.1	6.71651
585.839	7.46305
587.577	8.09084
589.315	7.10865
591.052	7.82389
592.787	7.09804
594.524	7.06386
596.26	8.03011
597.997	8.21946
599.732	8.69216
601.466	9.96539
603.201	9.10176
604.936	9.77337
606.67	10.8097
608.403	11.2395
610.136	11.9088
611.87	11.6783
613.603	11.7247
615.334	11.6061
617.067	12.11
618.799	12.7458
620.529	12.9072
622.26	11.4913
623.991	11.0791
625.72	10.7018
627.451	11.5642
629.181	11.0584
630.909	11.0051
632.638	10.3774
634.368	9.66149
636.095	9.14072
637.823	7.28388
639.551	7.0225
641.277	6.2791
643.005	6.164
644.73	4.97823
646.457	5.46561
648.184	4.48882
649.908	4.18254
651.634	5.21697
653.357	5.08637
655.083	5.53891
656.806	4.72055
658.53	6.13448
660.253	6.67693
661.977	6.47148
663.7	5.68334
665.422	5.49153
667.145	6.61194
668.865	7.96907
670.588	8.34585
672.308	8.11933
674.027	8.93478
675.749	9.44696
677.468	10.7053
679.188	11.9953
680.907	13.6947
682.627	16.243
684.345	17.4994
686.064	18.7537
687.781	20.3639
689.498	21.0807
691.216	22.216
692.932	22.252
694.65	22.7068
696.366	23.6195
698.081	23.7179
699.797	24.1809
701.512	25.5174
703.228	26.6991
704.942	27.2124
706.655	28.6667
708.371	29.0398
710.083	30.1715
711.796	30.052
713.51	30.6652
715.222	30.0871
716.934	29.9589
718.645	30.013
720.358	29.4602
722.068	30.4311
723.779	31.1702
725.49	33.138
727.2	33.3524
728.909	34.2856
730.618	34.9743
732.329	37.3402
734.037	38.7478
735.745	41.6427
737.453	43.9992
739.16	47.3968
740.869	50.4413
742.576	52.9667
744.282	55.5523
745.988	57.503
747.694	60.404
749.401	62.7292
751.107	65.42
752.811	69.1114
754.516	71.1012
756.22	73.5325
757.924	75.0594
759.627	77.5808
761.332	80.1996
763.035	81.9715
764.738	83.4702
766.44	85.2085
768.142	86.8431
769.843	87.9922
771.544	88.1357
773.245	89.1218
774.946	89.6226
776.646	89.3133
778.346	89.4637
780.046	90.2902
781.745	90.8296
783.444	91.2159
785.143	91.9017
786.841	92.8096
788.539	92.1752
790.237	91.6445
791.934	91.9892
793.631	90.9275
795.328	88.5976
797.024	87.1803
798.72	86.9172
800.416	85.4457
802.112	83.4308
803.807	81.1301
805.502	79.8933
807.196	79.9628
808.89	77.9215
810.584	77.6091
812.278	75.7574
813.971	75.6749
815.664	75.3035
817.354	75.6888
819.047	74.5871
820.739	75.2606
822.43	74.3573
824.122	74.5593
825.813	72.7924
827.503	71.7579
829.192	70.6069
830.882	70.8252
832.571	70.4161
834.261	67.9021
835.95	66.1259
837.637	64.9386
839.325	61.9413
841.013	61.1091
842.701	60.018
844.389	59.1984
846.074	57.3006
847.761	55.5653
849.447	54.1671
851.131	53.4892
852.817	50.8139
854.503	49.1975
856.188	47.2427
857.871	46.0716
859.556	45.0602
861.24	43.3368
862.922	42.5302
864.606	42.1666
866.289	40.6468
867.97	41.0565
869.653	39.3793
871.336	38.759
873.016	37.1668
874.698	36.4098
876.379	34.1568
878.058	33.4283
879.739	31.9824
881.418	31.7852
883.098	30.8317
884.778	29.146
886.456	28.4821
888.135	28.4669
889.812	28.654
891.49	28.8377
893.167	27.9536
894.845	28.4858
896.523	28.3666
898.198	28.6788
899.875	28.6519
901.55	29.1565
903.226	28.5278
904.901	29.8036
906.576	29.2002
908.25	29.6873
909.925	29.7483
911.598	30.3456
913.271	31.0977
914.945	31.1293
916.617	30.4759
918.291	29.5007
919.962	29.3555
921.635	28.1193
923.306	27.8801
924.978	28.5026
926.648	27.5374
928.318	26.4433
929.989	25.2174
931.659	24.415
933.328	23.7289
934.998	22.4671
936.666	21.3381
938.336	21.4836
940.004	20.6139
941.671	18.9003
943.34	18.9117
945.007	17.2909
946.673	16.4123
948.339	16.8684
950.007	16.1854
951.672	17.4151
953.337	15.9463
955.004	16.4059
956.669	15.5086
958.333	15.2165
959.997	14.4697
961.662	14.4005
963.326	13.7593
964.989	13.6752
966.651	13.4079
968.315	12.8354
969.977	14.1172
971.639	13.9608
973.301	14.1192
974.962	14.3344
976.624	13.8569
978.285	14.2746
979.945	12.8904
981.605	11.6839
983.264	10.7499
984.924	10.5608
986.583	10.4525
988.243	10.6545
989.901	10.4516
991.56	10.3367
993.217	11.1984
994.875	11.2588
996.532	11.3783
998.188	11.4136
999.845	12.0103
1001.5	13.0893
1003.16	13.5407
1004.81	14.4517
1006.47	17.0459
1008.12	18.7555
1009.78	19.756
1011.43	21.7954
1013.09	22.3343
1014.74	23.9836
1016.39	25.7463
1018.05	26.1568
1019.7	27.2195
1021.35	27.9409
1023	27.9042
1024.65	28.1955
1026.31	29.681
1027.96	30.396
1029.61	31.1986
1031.26	31.9608
1032.91	32.6545
1034.56	32.4372
1036.21	31.9285
1037.86	32.4281
1039.51	31.8536
1041.16	31.7522
1042.8	30.5897
1044.45	30.7487
1046.1	31.6695
1047.75	31.0446
1049.39	30.8938
1051.04	30.0492
1052.69	29.0641
1054.33	27.4481
1055.98	26.7608
1057.62	25.9315
1059.27	25.1502
1060.91	24.8237
1062.56	23.8796
1064.2	23.5532
1065.85	23.3079
1067.49	22.9267
1069.13	23.3286
1070.77	22.4448
1072.42	22.3098
1074.06	22.2384
1075.7	23.0858
1077.34	22.1023
1078.98	22.4536
1080.62	22.293
1082.27	22.9015
1083.91	22.3608
1085.55	21.945
1087.18	21.5866
1088.82	22.0466
1090.46	21.6708
1092.1	21.0019
1093.74	21.2834
1095.38	20.6644
1097.02	20.7198
1098.65	19.8713
1100.29	18.8364
1101.93	17.6523
1103.56	16.3123
1105.2	15.0167
1106.84	15.0995
1108.47	14.7324
1110.11	13.6692
1111.74	12.2293
1113.38	11.051
1115.01	11.5284
1116.64	11.348
1118.28	11.33
1119.91	11.9168
1121.54	12.3743
1123.18	12.6494
1124.81	12.1174
1126.44	12.0885
1128.07	11.6279
1129.7	11.9106
1131.33	12.3839
1132.97	11.7344
1134.6	12.1373
1136.23	13.2579
1137.86	13.6032
1139.49	13.3819
1141.11	12.8349
1142.74	13.7177
1144.37	13.2034
1146	12.6572
1147.63	12.5856
1149.26	12.0233
1150.88	12.5646
1152.51	11.0656
1154.14	10.6131
1155.76	10.2333
1157.39	10.1833
1159.01	9.61842
1160.64	10.094
1162.27	9.33197
1163.89	9.18323
1165.51	8.43419
1167.14	7.54023
1168.76	6.95699
1170.39	7.16778
1172.01	7.25971
1173.63	6.7744
1175.25	6.3557
1176.88	5.58533
1178.5	4.22704
1180.12	3.42601
1181.74	3.35727
1183.36	2.80184
1184.98	2.80476
1186.6	3.43982
1188.22	4.28426
1189.84	3.40272
1191.46	2.88035
1193.08	3.39144
1194.7	3.97911
1196.32	4.5287
1197.94	5.18735
1199.55	4.93948
1201.17	6.6601
1202.79	7.13274
1204.41	6.39641
1206.02	6.04649
1207.64	6.07063
1209.25	6.84315
1210.87	7.79326
1212.48	8.10759
1214.1	8.25913
1215.71	8.93492
1217.33	9.68436
1218.94	10.7447
1220.56	11.442
1222.17	13.0973
1223.79	14.9101
1225.4	15.3755
1227.01	15.9851
1228.62	17.3473
1230.23	17.7241
1231.85	19.2928
1233.46	20.0371
1235.07	21.713
1236.68	23.5158
1238.29	25.3676
1239.9	26.3505
1241.51	27.3421
1243.12	28.0751
1244.73	29.0909
1246.34	30.4343
1247.94	30.9549
1249.55	32.5233
1251.16	34.1679
1252.77	36.2668
1254.37	35.9
1255.98	37.3963
1257.59	39.1248
1259.2	40.6161
1260.8	43.1999
1262.41	44.9688
1264.01	45.2681
1265.62	46.6586
1267.22	48.2726
1268.83	49.2343
1270.43	49.5229
1272.03	51.4855
1273.64	52.5005
1275.24	52.8875
1276.85	54.3714
1278.45	55.9453
1280.05	57.0294
1281.65	58.5672
1283.25	58.9824
1284.85	59.5794
1286.46	60.3695
1288.06	62.0774
1289.66	64.038
1291.26	65.4158
1292.86	66.3065
1294.46	67.0064
1296.06	67.4792
1297.66	68.1751
1299.25	68.194
1300.85	67.8615
1302.45	67.5068
1304.05	67.6536
1305.65	67.7178
1307.24	66.5044
1308.84	66.7209
1310.43	66.4394
1312.03	66.4622
1313.63	65.2683
1315.22	64.9837
1316.82	64.1378
1318.41	63.3193
1320.01	62.2754
1321.6	61.6292
1323.2	61.4218
1324.79	60.9209
1326.38	60.8762
1327.98	59.6993
1329.57	59.8575
1331.16	59.0016
1332.76	58.1378
1334.35	56.0335
1335.94	56.0075
1337.53	54.8679
1339.12	53.5724
1340.71	52.5615
1342.3	51.07
1343.89	49.3992
1345.48	48.8095
1347.07	47.1131
1348.66	45.9046
1350.25	44.5995
1351.84	43.3295
1353.43	42.0362
1355.01	41.4844
1356.6	40.2101
1358.19	39.4699
1359.77	38.5231
1361.36	37.7403
1362.95	37.331
1364.53	37.3358
1366.12	36.482
1367.71	36.4995
1369.29	36.7406
1370.88	36.5951
1372.46	34.929
1374.04	33.6583
1375.63	33.0961
1377.21	32.8759
1378.8	32.0121
1380.38	31.6642
1381.96	31.1541
1383.54	31.2554
1385.13	30.6318
1386.71	29.8599
1388.29	29.7881
1389.87	28.7557
1391.45	27.973
1393.03	27.5072
1394.61	27.6917
1396.19	25.8113
1397.77	26.8544
1399.35	26.4134
1400.93	26.2348
1402.51	27.7481
1404.09	29.042
1405.67	29.8848
1407.24	29.9739
1408.82	31.3935
1410.4	31.791
1411.98	33.0295
1413.55	33.8504
1415.13	35.5734
1416.71	36.6736
1418.28	39.4608
1419.86	41.6087
1421.43	43.7865
1423.01	45.8968
1424.58	47.9887
1426.16	50.7422
1427.73	53.9364
1429.31	55.7976
1430.88	58.4959
1432.45	60.4407
1434.02	62.7248
1435.6	65.053
1437.17	68.7719
1438.74	69.8623
1440.31	72.9646
1441.88	76.2947
1443.45	78.1882
1445.03	79.6363
1446.6	81.5892
1448.17	83.4859
1449.74	84.2794
1451.3	84.7712
1452.87	86.1036
1454.44	87.3749
1456.01	87.5235
1457.58	88.6956
1459.15	88.6502
1460.72	89.4511
1462.28	89.7905
1463.85	89.8577
1465.42	89.871
1466.98	88.821
1468.55	88.2709
1470.12	87.881
1471.68	86.6763
1473.25	85.6535
1474.81	85.4324
1476.38	85.8432
1477.94	84.8553
1479.51	84.4865
1481.07	84.6212
1482.63	82.8189
1484.2	81.4642
1485.76	80.561
1487.32	79.3016
1488.88	77.9663
1490.45	76.2693
1492.01	75.3118
1493.57	74.2844
1495.13	73.1454
1496.69	71.6507
1498.25	69.0609
1499.81	67.8468
1501.37	65.5312
1502.93	63.2177
1504.49	60.836
1506.05	57.9564
1507.61	55.385
1509.17	52.6617
1510.73	49.2223
1512.28	47.1926
1513.84	44.3223
1515.4	40.863
1516.96	38.408
1518.51	37.077
1520.07	34.6374
1521.63	32.058
1523.18	29.6274
1524.74	27.9444
1526.29	26.2389
1527.85	24.7202
1529.4	22.7982
1530.96	20.9747
1532.51	20.9236
1534.06	20.095
1535.62	20.4522
1537.17	18.9823
1538.72	18.816
1540.28	18.1479
1541.83	17.9959
1543.38	18.5609
1544.93	17.7301
1546.48	18.6332
1548.03	18.9312
1549.59	19.6654
1551.14	20.2739
1552.69	20.6197
1554.24	21.4718
1555.79	21.839
1557.34	21.595
1558.88	22.0796
1560.43	23.4431
1561.98	25.5283
1563.53	26.6428
1565.08	27.3468
1566.62	29.2543
1568.17	31.1665
1569.72	34.6367
1571.27	36.8851
1572.81	37.9937
1574.36	39.5672
1575.9	42.0915
1577.45	43.6245
1579	44.602
1580.54	46.2387
1582.09	47.5339
1583.63	49.2453
1585.17	50.5973
1586.72	51.6639
1588.26	53.0582
1589.8	54.1126
1591.35	54.7509
1592.89	55.5091
1594.43	57.0251
1595.97	57.5166
1597.52	57.4417
1599.06	56.8984
1600.6	56.7022
1602.14	56.7557
1603.68	56.8946
1605.22	56.9173
1606.76	57.1043
1608.3	57.9927
1609.84	59.4988
1611.38	59.8127
1612.92	60.274
1614.46	59.2761
1615.99	59.1608
1617.53	59.7576
1619.07	60.0959
1620.61	59.69
1622.14	59.0433
1623.68	59.1534
1625.22	59.1702
1626.75	59.4229
1628.29	60.311
1629.82	61.1516
1631.36	62.5474
1632.9	62.2383
1634.43	62.7891
1635.96	64.459
1637.5	66.9158
1639.03	68.4739
1640.57	69.547
1642.1	71.3414
1643.63	73.6849
1645.16	75.7729
1646.7	76.4191
1648.23	76.9275
1649.76	76.9314
1651.29	77.9079
1652.82	77.4967
1654.36	76.9378
1655.89	76.1826
1657.42	75.5499
1658.95	74.7769
1660.48	73.4628
1662.01	72.2447
1663.53	70.3435
1665.06	68.4944
1666.59	66.1077
1668.12	64.2226
1669.65	61.7459
1671.18	59.2662
1672.7	56.6637
1674.23	53.2931
1675.76	51.0044
1677.29	48.7324
1678.81	46.5141
1680.34	45.2791
1681.86	43.1838
1683.39	41.9113
1684.91	39.6224
1686.44	37.5893
1687.96	34.8067
1689.49	31.6411
1691.01	28.8282
1692.54	26.7828
1694.06	25.4958
1695.58	22.9107
1697.11	20.5199
1698.63	19.3951
1700.15	17.3069
1701.67	16.4193
1703.2	15.0495
1704.72	14.2961
1706.24	13.7461
1707.76	12.8272
1709.28	11.6005
1710.8	10.798
1712.32	11.1635
1713.84	10.8867
1715.36	10.7024
1716.88	10.3075
1718.4	9.93941
1719.91	9.24549
1721.43	8.37738
1722.95	7.62895
1724.47	7.83356
1725.99	6.56513
1727.5	6.19903
1729.02	5.67965
1730.54	5.41912
1732.05	4.89971
1733.57	5.22697
1735.09	4.9217
1736.6	4.55756
1738.12	4.76137
1739.63	3.56579
1741.15	3.59123
1742.66	3.35891
1744.18	3.18612
1745.69	2.68021
1747.2	2.9147
1748.72	2.8042
1750.23	2.83107
1751.74	2.99277
1753.25	2.23632
1754.77	2.48126
1756.28	2.74845
1757.79	2.45556
1759.3	2.30521
1760.81	1.87905
1762.32	1.85828
1763.83	1.29108
1765.34	0.961036
1766.85	1.12263
1768.36	1.24476
1769.87	1.39759
1771.38	0.831443
1772.89	0.91337
1774.4	1.05709
1775.91	0.616666
1777.41	0.796144
1778.92	0.899194
1780.43	1.29774
1781.94	1.75868
1783.44	0.983342
1784.95	0.990445
1786.45	0.947551
1787.96	1.22094
1789.47	1.28995
1790.97	1.42602
1792.48	0.916456
1793.98	1.11358
1795.48	1.26929
1796.99	1.61564
1798.49	1.91314
1800	1.75781
1801.5	1.62786
1803	2.29952
1804.51	2.39417
1806.01	1.8493
1807.51	1.89249
1809.01	2.53988
1810.51	2.50847
1812.02	2.68116
1813.52	2.5832
1815.02	2.08639
1816.52	2.74527
1818.02	2.71898
1819.52	2.78304
1821.02	2.74065
1822.52	3.188
1824.02	3.11302
1825.51	3.54028
1827.01	3.22049
1828.51	3.43072
1830.01	3.71995
1831.51	3.65333
1833	4.10896
1834.5	4.68293
1836	5.26078
1837.5	5.33637
1838.99	5.55728
1840.49	6.014
1841.98	6.49531
1843.48	6.38143
1844.97	6.1088
1846.47	5.86601
1847.96	5.89809
1849.46	5.73168
1850.95	5.36488
1852.45	5.64297
1853.94	5.6327
1855.43	4.86603
1856.92	4.14099
1858.42	3.66983
1859.91	3.45584
1861.4	3.0937
1862.89	2.9647
1864.39	2.59259
1865.88	1.60449
1867.37	1.60376
1868.86	1.42403
1870.35	1.40309
1871.84	1.2284
1873.33	1.18759
1874.82	0.0550312
1876.31	-0.171593
1877.8	-0.499637
1879.29	-0.770734
1880.77	-0.70876
1882.26	-0.291624
1882.51	-0.827615
1884	-1.00117
1885.5	-0.698721
1886.99	-1.73162
1888.48	-1.16417
1889.98	-0.942773
1891.47	-0.90645
1892.97	-0.57378
1894.46	-0.477133
1895.95	0.0844304
1897.44	-0.0341364
1898.93	0.267158
1900.42	-0.0270256
1901.92	0.335594
1903.41	0.376334
1904.9	0.642097
1906.39	1.07809
1907.88	1.68997
1909.37	1.68378
1910.86	1.81124
1912.35	1.93722
1913.84	2.54042
1915.32	2.66028
1916.81	2.71267
1918.3	3.40051
1919.79	3.71215
1921.28	4.08582
1922.76	3.8448
1924.25	3.80616
1925.74	3.69091
1927.22	3.20637
1928.71	2.40222
1930.2	2.22834
1931.68	2.44173
1933.17	2.34815
1934.65	2.32976
1936.14	2.14466
1937.62	1.85089
1939.11	1.71782
1940.59	2.30055
1942.08	2.42675
1943.56	2.66637
1945.04	2.86388
1946.53	2.86871
1948.01	2.58908
1949.49	3.81858
1950.97	4.47803
1952.45	5.22517
1953.94	5.72305
1955.42	5.8865
1956.9	6.14153
1958.38	6.58684
1959.86	6.56296
1961.34	6.31965
1962.82	6.9668
1964.3	6.18567
1965.78	6.63876
1967.26	6.40746
1968.74	6.3607
1970.22	5.901
1971.69	5.41916
1973.17	5.12237
1974.65	5.08854
1976.13	5.58698
1977.61	5.23959
1979.08	5.543
1980.56	5.94155
1982.03	7.28132
1983.51	7.21175
1984.99	7.38365
1986.46	7.75439
1987.94	8.30796
1989.41	7.88781
1990.89	8.10218
1992.36	8.32563
1993.84	8.2581
1995.31	7.97294
1996.78	7.76524
1998.26	8.27059
1999.73	8.1709
2001.2	7.97446
2002.68	8.07126
2004.15	8.36086
2005.62	9.11532
2007.09	9.66107
2008.56	9.60428
2010.04	9.61266
2011.51	10.3256
2012.98	10.5572
2014.45	11.5298
2015.92	12.1639
2017.39	12.7454
2018.86	13.6418
2020.33	13.9328
2021.8	14.168
2023.27	15.2475
2024.74	15.2473
2026.2	14.6837
2027.67	14.8511
2029.14	14.4608
2030.61	13.9039
2032.07	13.433
2033.54	13.3883
2035.01	12.6028
2036.47	12.4899
2037.94	12.3878
2039.41	12.5282
2040.87	11.2532
2042.34	11.407
2043.8	11.3498
2045.27	11.3766
2046.73	11.5615
2048.2	11.7872
2049.66	11.6953
2051.12	11.8082
2052.59	11.9072
2054.05	11.802
2055.51	11.7445
2056.98	11.3838
2058.44	11.3773
2059.9	11.6584
2061.36	11.8881
2062.82	12.5757
2064.29	13.5562
2065.75	14.4878
2067.21	15.4449
2068.67	16.0615
2070.13	17.3096
2071.59	18.5872
2073.05	19.1087
2074.51	20.3503
2075.97	21.3995
2077.43	21.8327
2078.88	22.8019
2080.34	23.6601
2081.8	24.4504
2083.26	25.4484
2084.72	26.9336
2086.17	27.6875
2087.63	29.4653
2089.09	30.2523
2090.54	31.5355
2092	33.0468
2093.46	33.7334
2094.91	34.4353
2096.37	35.7509
2097.82	36.0592
2099.28	36.8076
2100.73	38.2594
2102.19	38.7576
2103.64	39.806
2105.09	40.7502
2106.55	41.6557
2108	42.8543
2109.46	44.4787
2110.91	44.9015
2112.36	46.299
2113.81	47.1058
2115.27	48.7717
2116.72	49.8228
2118.17	50.6421
2119.62	52.209
2121.07	53.5193
2122.52	54.7329
2123.97	56.2087
2125.42	57.5352
2126.87	59.6412
2128.32	61.3698
2129.77	63.5728
2131.22	65.3119
2132.67	67.3324
2134.12	69.5166
2135.57	71.4592
2137.01	73.6827
2138.46	75.6853
2139.91	77.0447
2141.36	79.2803
2142.8	81.7035
2144.25	83.0706
2145.7	84.1988
2147.14	86.0697
2148.59	87.5424
2150.03	89.1692
2151.48	90.6462
2152.92	92.6073
2154.37	94.0307
2155.81	95.505
2157.26	97.1873
2158.7	98.7434
2160.15	99.8374
2161.59	100.608
2163.03	101.831
2164.48	101.88
2165.92	101.845
2167.36	102.066
2168.8	102.88
2170.25	102.699
2171.69	102.626
2173.13	102.473
2174.57	101.181
2176.01	100.331
2177.45	99.09
2178.89	97.9511
2180.33	96.8167
2181.77	95.2724
2183.21	93.7541
2184.65	93.6409
2186.09	91.7867
2187.53	90.4079
2188.97	88.9355
2190.41	87.3521
2191.84	85.9759
2193.28	84.1858
2194.72	82.4061
2196.16	81.4685
2197.59	79.7467
2199.03	77.6162
2200.47	76.1815
2201.9	74.3314
2203.34	72.7633
2204.78	70.7866
2206.21	69.089
2207.65	67.7405
2209.08	66.5759
2210.51	64.3296
2211.95	62.6892
2213.38	62.1087
2214.82	60.8011
2216.25	59.0291
2217.68	57.5193
2219.12	56.9039
2220.55	55.7304
2221.98	54.6889
2223.42	53.0133
2224.85	52.6602
2226.28	52.2645
2227.71	51.4419
2229.14	50.2049
2230.57	49.1176
2232	47.8643
2233.43	47.3216
2234.86	45.8005
2236.29	44.1761
2237.72	43.4117
2239.15	41.8765
2240.58	40.5833
2242.01	39.557
2243.44	38.2319
2244.87	36.6024
2246.3	35.2313
2247.73	34.4544
2249.15	33.4062
2250.58	32.3101
2252.01	32.0863
2253.43	31.556
2254.86	31.235
2256.29	30.6749
2257.71	30.1058
2259.14	29.8884
2260.56	29.5404
2261.99	28.8169
2263.41	28.2532
2264.84	27.6868
2266.26	28.1211
2267.69	28.2487
2269.11	27.222
2270.54	27.5826
2271.96	27.2516
2273.38	26.7843
2274.81	26.3005
2276.23	25.5523
2277.65	25.6126
2279.07	25.4152
2280.49	24.6774
2281.92	23.788
2283.34	22.7803
2284.76	22.6512
2286.18	21.6122
2287.6	20.9616
2289.02	20.4337
2290.44	20.5582
2291.86	18.7842
2293.28	17.3949
2294.7	17.0034
2296.12	17.3205
2297.54	16.8153
2298.96	15.5566
2300.38	15.1288
2301.79	14.3447
2303.21	14.1591
2304.63	13.7419
2306.05	12.9476
2307.46	12.9614
2308.88	12.1289
2310.3	11.4269
2311.71	11.4073
2313.13	11.6663
2314.55	10.2341
2315.96	9.88686
2317.38	9.74966
2318.79	9.14648
2320.21	8.7587
2321.62	8.61986
2323.03	9.52548
2324.45	9.1785
2325.86	8.96062
2327.27	9.424
2328.69	10.0206
2330.1	10.0179
2331.51	10.3507
2332.93	10.606
2334.34	11.1425
2335.75	11.7422
2337.16	12.3609
2338.57	12.219
2339.99	11.8099
2341.4	12.3961
2342.81	12.0317
2344.22	12.3135
2345.63	12.126
2347.04	11.9662
2348.45	10.8531
2349.86	10.6401
2351.26	10.1279
2352.67	9.50261
2354.08	9.13238
2355.49	9.64375
2356.9	9.78086
2358.31	9.92147
2359.71	9.68382
2361.12	9.42877
2362.53	9.3741
2363.94	10.044
2365.34	10.6634
2366.75	10.1359
2368.15	10.1741
2369.56	10.2491
2370.97	10.0481
2372.37	9.40067
2373.78	9.62139
2375.18	9.75053
2376.59	9.48704
2377.99	8.90829
2379.39	7.67533
2380.8	7.54621
2382.2	7.41051
2383.61	7.19201
2385.01	6.50829
2386.41	6.44329
2387.81	6.34098
2389.22	6.13359
2390.62	6.00593
2392.02	6.35281
2393.42	6.83975
2394.82	5.97031
2396.22	5.59351
2397.63	6.32276
2399.02	6.67372
2400.43	7.18022
2401.82	6.93728
2403.23	6.7208
2404.62	6.9151
2406.02	7.06988
2407.42	7.63516
2408.82	8.20275
2410.22	8.39341
2411.62	8.93061
2413.02	9.47342
2414.41	10.2175
2415.81	10.9466
2417.21	11.4011
2418.61	12.2059
2420	12.7883
2421.4	12.8289
2422.79	13.2349
2424.19	14.1204
2425.59	14.8931
2426.98	14.9703
2428.38	14.3604
2429.77	14.4306
2431.17	13.6116
2432.56	12.356
2433.96	11.9376
2435.35	11.7728
2436.74	11.4907
2438.14	11.5099
2439.53	10.995
2440.92	10.5179
2442.32	10.1794
2443.71	10.2782
2445.1	10.0032
2446.49	8.74637
2447.88	7.67567
2449.28	7.05882
2450.67	6.52457
2452.06	5.94306
2453.45	5.89641
2454.84	5.54023
2456.23	5.0072
2457.62	5.06411
2459.01	4.84375
2460.4	4.92486
2461.79	4.8497
2463.18	4.98785
2464.57	4.49394
2465.96	5.50985
2467.34	6.16493
2468.73	5.98812
2470.12	5.87738
2471.51	5.62108
2472.89	5.84837
2474.28	6.11465
2475.67	5.96075
2477.05	6.33472
2478.44	6.7286
2479.83	7.31136
2481.21	7.70588
2482.6	8.16545
2483.98	7.97496
2485.37	7.83479
2486.75	7.67238
2488.14	6.59265
2489.52	5.45901
2490.9	5.70085
2492.29	5.34669
2493.67	4.70748
2495.06	4.10188
2496.44	3.11935
2497.82	2.95437
2499.2	2.50385
2500.59	1.73603
2501.97	2.10477
2503.35	2.66361
2504.73	2.5722
2506.11	2.58908
2507.49	2.40414
2508.88	2.33637
2510.26	2.73716
2511.63	2.62894
2513.01	2.67203
2514.39	2.26535
2515.77	2.05768
2517.15	2.24939
2518.53	2.38153
2519.91	2.32159
2521.29	2.75462
2522.67	3.42298
2524.05	3.99319
2525.42	4.53212
2526.8	5.05694
2528.18	5.30757
2529.56	5.57976
2530.93	5.86788
2532.31	6.68369
2533.69	6.78331
2535.06	7.2812
2536.44	7.07299
2537.81	7.61524
2539.19	7.84798
2540.56	7.60977
2541.94	8.18925
2543.31	8.22207
2544.69	8.14991
2546.06	8.60215
2547.44	8.96552
2548.81	8.41034
2550.18	8.07357
2551.56	8.02984
2552.93	8.18333
2554.3	8.56863
2555.68	8.46917
2557.05	8.05697
2558.42	7.88415
2559.79	8.18957
2561.16	8.03722
2562.53	8.09063
2563.9	8.63555
2565.28	8.54835
2566.64	8.46242
2568.02	7.92718
2569.38	8.50473
2570.76	8.81
2572.12	8.92363
2573.49	9.81076
2574.86	9.46801
2576.23	9.22614
2577.6	9.48338
2578.97	9.72301
2580.34	9.10101
2581.7	9.07459
2583.07	9.31239
2584.44	9.49159
2585.81	9.52722
2587.17	9.07818
2588.54	9.37753
2589.91	9.87521
2591.27	10.3313
2592.64	10.9457
2594	10.4958
2595.37	10.3106
2596.73	10.637
2598.1	10.3551
2599.46	10.3562
2600.83	11.0207
2602.19	10.7382
2603.55	10.9334
2604.92	10.7521
2606.28	10.6214
2607.64	9.81326
2609.01	9.3122
2610.37	9.56362
2611.73	8.90507
2613.09	8.8081
2614.46	9.18069
2615.82	9.39123
2617.18	9.27318
2618.54	9.66279
2619.9	9.42661
2621.26	9.41595
2622.62	8.70572
2623.98	8.32747
2625.34	7.92166
2626.7	7.37162
2628.06	7.72782
2629.42	7.84941
2630.78	7.56518
2632.14	7.53314
2633.5	6.76067
2634.86	6.21975
2636.22	6.41734
2637.57	7.0528
2638.93	6.62383
2640.29	6.64898
2641.64	6.75143
2643	6.56942
2644.36	6.28891
2645.72	6.46909
2647.07	7.2698
2648.43	7.86806
2649.78	8.07975
2651.14	8.53078
2652.49	8.85731
2653.85	8.63304
2655.2	8.52714
2656.56	8.9182
2657.91	9.25819
2659.27	9.39486
2660.62	9.73873
2661.97	9.50331
2663.33	9.71878
2664.68	9.6798
2666.03	9.41336
2667.38	9.57648
2668.74	10.2187
2670.09	9.61217
2671.44	9.7525
2672.79	9.25013
2674.14	9.45838
2675.49	9.43839
2676.84	9.64216
2678.2	9.97183
2679.55	10.1257
2680.89	10.5415
2682.24	10.6825
2683.59	10.4215
2684.94	10.2029
2686.29	10.0223
2687.64	9.29606
2688.99	9.33405
2690.34	9.10113
2691.69	9.13143
2693.04	8.6402
2694.38	8.58717
2695.73	9.18177
2697.08	8.94173
2698.43	8.55744
2699.77	8.37672
2701.12	7.91156
2702.46	8.25162
2703.81	8.11939
2705.16	8.01898
2706.5	8.0799
2707.85	8.43974
2709.19	8.94848
2710.54	8.75002
2711.88	8.15496
2713.23	8.26413
2714.57	8.19113
2715.92	7.80228
2717.26	7.79895
2718.6	8.41117
2719.95	7.97452
2721.29	7.84928
2722.63	8.28641
2723.97	8.3516
2725.32	8.38738
2726.66	8.107
2728	8.64465
2729.34	8.12376
2730.68	8.24572
2732.02	7.91575
2733.36	7.64539
2734.7	7.52255
2736.04	7.19298
2737.39	6.63776
2738.72	6.08707
2740.06	5.9658
2741.4	5.99971
2742.74	6.11429
2744.08	6.18327
2745.42	6.24533
2746.76	6.07212
2748.1	5.98859
2749.44	5.34404
2750.77	5.0968
2752.11	4.71826
2753.45	4.42519
2754.78	4.09659
2756.12	4.34235
2757.46	4.04605
2758.79	3.8151
2760.13	3.54892
2761.47	3.5545
2762.8	3.09205
2764.14	2.65972
2765.47	3.03079
2766.81	3.50737
2768.14	3.3449
2769.48	3.18234
2770.81	2.49759
2772.14	2.7416
2773.48	2.96998
2774.81	2.62789
2776.14	1.91977
2777.48	1.24277
2778.81	1.00341
2780.14	0.784859
2781.47	1.34408
2782.81	1.13419
2784.14	1.06889
2785.47	0.999885
2786.8	0.384351
2788.13	0.320904
2789.46	-0.0336675
2790.79	-0.189963
2792.12	-0.265462
2793.46	-0.18877
2794.79	-0.111774
2796.11	-0.77843
2797.44	-0.8585
2798.77	-1.78665
2800.1	-1.67726
2801.43	-1.439
2802.76	-1.69146
2804.09	-1.4937
2805.42	-1.33099
2806.74	-1.22394
2808.07	-1.22359
2809.4	-1.19231
2810.73	-1.51078
2812.05	-1.56562
2813.38	-2.17691
2814.71	-1.56928
2816.03	-0.975014
2817.36	-0.297642
2818.68	0.629158
2820.01	2.11684
2821.33	3.06757
2822.66	4.24852
2823.98	6.07371
2825.31	8.40866
2826.63	10.1782
2827.96	12.7141
2829.28	15.2306
2830.61	18.8854
2831.93	21.5109
2833.25	23.7274
2834.57	25.529
2835.9	29.1371
2837.22	32.1369
2838.54	35.5237
2839.86	39.3016
2841.18	42.7093
2842.51	45.7734
2843.83	49.6357
2845.15	53.5297
2846.47	57.4538
2847.79	61.3257
2849.11	64.6298
2850.43	68.4894
2851.75	72.6675
2853.07	76.3325
2854.39	80.0433
2855.71	83.9377
2857.03	87.1935
2858.35	90.487
2859.67	93.2844
2860.98	96.3355
2862.3	98.7426
2863.62	101.293
2864.94	104.344
2866.25	107.494
2867.57	109.755
2868.89	111.528
2870.21	113.49
2871.52	115.471
2872.84	116.527
2874.15	118.147
2875.47	119.021
2876.78	120.106
2878.1	121.657
2879.42	123.048
2880.73	124.955
2882.04	126.558
2883.36	128.235
2884.67	129.75
2885.99	131.733
2887.3	133.512
2888.61	135.547
2889.93	137.309
2891.24	139.3
2892.55	141.049
2893.87	143.86
2895.18	146.497
2896.49	149.14
2897.8	151.149
2899.11	154.742
2900.42	157.693
2901.74	161.522
2903.05	163.87
2904.36	167.539
2905.67	171.238
2906.98	174.896
2908.29	178.767
2909.6	183.019
2910.91	187.046
2912.22	191.681
2913.53	195.309
2914.83	199.268
2916.14	202.751
2917.45	207.106
2918.76	210.312
2920.07	213.594
2921.37	216.475
2922.68	219.477
2923.99	222.007
2925.3	223.45
2926.6	224.854
2927.91	225.884
2929.22	226.624
2930.52	227.25
2931.83	226.674
2933.13	225.673
2934.44	224.86
2935.74	223.354
2937.05	221.612
2938.35	219.389
2939.66	217.432
2940.96	215.009
2942.27	212.563
2943.57	210.093
2944.87	207.346
2946.18	203.867
2947.48	200.75
2948.78	196.757
2950.09	192.978
2951.39	189.421
2952.69	184.737
2953.99	180.165
2955.29	175.957
2956.6	172.501
2957.9	168.457
2959.2	164.723
2960.5	160.096
2961.8	156.224
2963.1	151.834
2964.4	147.856
2965.7	143.092
2967	139.001
2968.3	134.841
2969.6	130.883
2970.9	126.646
2972.2	122.986
2973.49	119.393
2974.79	115.104
2976.09	111.126
2977.39	107.668
2978.69	103.131
2979.98	99.2842
2981.28	95.1683
2982.58	91.6285
2983.88	86.9655
2985.17	83.062
2986.47	78.726
2987.76	75.0323
2989.06	69.9766
2990.36	65.5312
2991.65	61.2332
2992.95	57.5274
2994.24	53.4407
2995.54	50.2387
2996.83	46.76
2998.12	43.7143
2999.42	41.254
3000.71	38.2459
3002	35.7117
3003.3	32.9931
3004.59	30.6056
3005.88	28.114
3007.18	25.7832
3008.47	23.4109
3009.76	21.2445
3011.05	19.0015
3012.35	17.233
3013.64	15.3032
3014.93	14.4425
3016.22	12.1269
3017.51	10.7402
3018.8	9.88972
3020.09	9.6069
3021.38	8.82473
3022.67	8.2564
3023.96	7.94283
3025.25	7.55392
3026.54	7.27659
3027.83	5.84601
3029.12	5.41917
3030.41	5.0685
3031.69	4.25615
3032.98	4.09191
3034.27	4.0124
3035.56	4.2618
3036.85	4.65454
3038.13	4.73313
3039.42	4.42931
3040.71	4.81631
3041.99	5.82355
3043.28	5.97453
3044.57	6.49744
3045.85	6.69465
3047.14	7.11762
3048.42	7.52769
3049.71	8.41952
3050.99	8.9316
3052.28	8.87037
3053.56	8.40174
3054.85	9.10696
3056.13	9.54012
3057.42	9.95625
3058.7	10.3732
3059.98	10.4914
3061.27	10.252
3062.55	10.1533
3063.83	10.3945
3065.11	9.61202
3066.4	9.32237
3067.68	8.89779
3068.96	8.74687
3070.24	7.66622
3071.52	7.06649
3072.8	6.10465
3074.09	6.12559
3075.37	5.33507
3076.65	4.49435
3077.93	3.86401
3079.21	3.63931
3080.49	3.04025
3081.77	2.70521
3083.05	1.95857
3084.32	1.54841
3085.61	0.856176
3086.88	0.922857
3088.16	0.637495
3089.44	0.0246052
3090.72	-0.552966
3092	-0.720426
3093.27	-0.390525
3094.55	-0.513173
3095.83	-0.169278
3097.11	0.273753
3098.38	0.594714
3099.66	0.740652
3100.94	0.787366
3102.21	1.39511
3103.49	2.33129
3104.76	2.83202
3106.04	3.71956
3107.31	4.07453
3108.59	4.59914
3109.86	5.59147
3111.14	6.90967
3112.41	7.74529
3113.69	8.72723
3114.96	9.65947
3116.23	10.6599
3117.51	12.0275
3118.78	13.4009
3120.05	14.2856
3121.33	15.0534
3122.6	16.2481
3123.87	16.9932
3125.14	18.1635
3126.42	19.6167
3127.69	20.8529
3128.96	21.5011
3130.23	22.8115
3131.5	23.7063
3132.77	24.7399
3134.04	25.56
3135.31	26.9063
3136.58	27.9231
3137.85	29.2662
3139.12	29.878
3140.39	31.0052
3141.66	31.9974
3142.93	32.8091
3144.2	33.5706
3145.47	34.8013
3146.74	35.7292
3148	35.9173
3149.27	35.4545
