#Acq. time (s)=	45
#Accumulations=	2
#Range (cm-¹)=	200...3150
#Windows=	2
#Auto scanning=	Off
#Autofocus=	Off
#Macrospot=	Off
#AutoExposure=	Off
#Spike filter=	Multiple accum.
#Delay time (s)=	0
#Binning=	1
#Readout mode=	Signal
#DeNoise=	Off
#ICS correction=	On
#Dark correction=	Off
#Inst. Process=	Off
#Detector Gain=	Best Dynamic Range
#Detector ADC=	20 kHz       
#Detector temperature (°C)=	-69.85
#Instrument=	LabRAM HR Evol
#Detector=	Synapse
#Objective=	x100
#Grating=	600 gr/mm
#ND Filter=	100%
#Laser (nm)=	532 
#Hole=	100.021
#Range=	Auto
#Laser Pol.=	No
#Raman. Pol.=	No
#Laser Pol. (°)=	-0.0007625
#Raman Pol. (°)=	89.9995
#Collection=	Microscope
#StageXY=	Marzhauser
#StageZ=	Marzhauser
#X (µm)=	28332.4
#Y (µm)=	-3279.5
#Z (µm)=	1041.35
#Full time(mm:ss)=	3:19
#Project=	
#Sample=	
#Site=	
#Title=	Mb_50_18_28_2x_45s_532 nm_x100_100%_600 gr_mm
#Remark=	
#Date=	12.07.2022 12:55
#Acquired=	12.07.2022 12:55:29
#Base:Fit=	10.08.2022 10:49:18
#Base:Sub=	10.08.2022 10:49:30
#Filter:Polynom=	16.08.2022 10:14:59
#AxisType[0]=Intens
#AxisUnit[0]=Cnt
#AxisType[1]=Spectr
#AxisUnit[1]=1/cm
200.388	17.7116
202.204	17.2628
204.019	18.7431
205.832	19.0808
207.646	18.6492
209.459	17.8997
211.274	16.4585
213.087	15.6992
214.899	15.1999
216.711	15.3982
218.524	14.5622
220.335	12.3161
222.146	10.7268
223.956	10.7461
225.766	9.59925
227.576	8.29081
229.388	6.85582
231.197	4.64008
233.005	4.05179
234.813	4.00293
236.621	4.15198
238.429	5.30894
240.236	6.03388
242.045	5.58415
243.852	5.7367
245.658	6.14264
247.464	5.83697
249.269	5.49009
251.074	4.15801
252.879	4.77543
254.683	6.45458
256.487	8.29103
258.291	9.63844
260.094	9.10188
261.897	9.79951
263.702	10.3147
265.504	11.0504
267.306	10.5959
269.108	11.5729
270.909	11.9063
272.71	11.8137
274.511	11.4922
276.311	10.3358
278.111	9.24465
279.91	8.75273
281.709	8.90576
283.508	8.99552
285.306	9.20539
287.105	10.0854
288.9	10.8324
290.698	11.0739
292.495	12.5163
294.291	12.9654
296.088	14.5491
297.884	15.6629
299.679	16.1353
301.475	18.503
303.27	20.8198
305.064	21.9796
306.858	23.464
308.652	23.4142
310.444	23.8822
312.237	25.8728
314.03	27.9827
315.822	29.6419
317.615	31.694
319.406	33.187
321.198	34.509
322.987	36.9493
324.778	38.4151
326.568	37.9593
328.358	37.1128
330.148	35.5864
331.935	33.9359
333.724	32.7944
335.513	30.9336
337.301	28.622
339.089	27.4914
340.875	25.8032
342.662	26.1184
344.449	26.5364
346.236	27.1629
348.02	27.1978
349.806	28.1601
351.592	31.2744
353.375	34.0462
355.16	38.165
356.944	42.4142
358.728	48.9133
360.51	54.9037
362.294	61.4905
364.077	68.0936
365.858	75.4452
367.64	81.9855
369.422	88.263
371.202	95.2527
372.983	101.486
374.764	107.735
376.543	113.965
378.324	119.414
380.102	123.631
381.881	128.603
383.661	132.269
385.438	135.707
387.216	137.397
388.993	138.757
390.771	140.201
392.548	140.867
394.324	141.108
396.101	140.09
397.875	138.685
399.651	136.815
401.425	135.046
403.201	131.545
404.974	127.289
406.749	121.158
408.524	114.605
410.296	106.713
412.07	98.4887
413.841	89.0318
415.614	78.9163
417.385	70.1257
419.156	61.0888
420.928	52.1029
422.698	42.9802
424.469	35.2138
426.238	27.916
428.009	21.7283
429.777	15.7532
431.548	11.0572
433.315	7.38235
435.083	4.54806
436.852	1.68447
438.618	1.27769
440.387	1.45042
442.153	1.48528
443.919	1.97021
445.686	2.1225
447.451	3.00831
449.218	2.90211
450.982	2.59628
452.746	2.2547
454.512	2.29965
456.275	2.44661
458.038	2.82415
459.803	3.68486
461.565	3.23005
463.327	3.29964
465.091	4.24732
466.852	5.2095
468.613	5.0613
470.374	4.95908
472.136	5.20954
473.896	5.99775
475.655	7.72274
477.415	9.93051
479.176	13.0557
480.934	16.8414
482.692	20.9031
484.45	25.2703
486.21	30.5576
487.967	35.6602
489.724	41.4067
491.481	47.1128
493.237	54.4635
494.995	61.5896
496.75	67.8295
498.506	74.5242
500.26	81.0819
502.015	86.8541
503.771	92.3179
505.525	97.6123
507.279	102.914
509.032	107.059
510.785	110.534
512.537	114.281
514.289	117.064
516.041	119.249
517.793	121.55
519.546	121.515
521.297	122.321
523.047	122.747
524.797	122.295
526.547	122.164
528.297	120.548
530.046	118.187
531.795	114.867
533.543	111.458
535.291	107.428
537.039	103.331
538.787	98.4489
540.534	94.09
542.281	88.9715
544.027	82.7652
545.773	76.5071
547.519	70.4824
549.264	63.276
551.01	57.0465
552.754	50.0927
554.499	43.5684
556.243	37.5507
557.987	31.953
559.73	28.9752
561.474	25.7385
563.216	23.9106
564.959	20.9976
566.701	19.0658
568.441	17.9806
570.182	17.7276
571.923	18.0025
573.664	18.9287
575.405	20.7066
577.145	23.4608
578.885	26.215
580.624	28.1888
582.361	30.0015
584.1	31.8209
585.839	32.8919
587.577	32.3768
589.315	33.2642
591.052	34.2709
592.787	34.8793
594.524	35.0377
596.26	34.8007
597.997	35.5267
599.732	35.9437
601.466	35.5071
603.201	34.9843
604.936	34.9547
606.67	35.6466
608.403	36.3517
610.136	34.2253
611.87	33.7659
613.603	32.8059
615.334	31.0522
617.067	30.402
618.799	29.0062
620.529	27.4705
622.26	24.9736
623.991	23.8094
625.72	21.4878
627.451	20.7182
629.181	18.8533
630.909	17.5393
632.638	15.5627
634.368	13.4687
636.095	11.2583
637.823	9.55573
639.551	7.58201
641.277	7.52933
643.005	6.65226
644.73	5.86196
646.457	7.50636
648.184	7.10476
649.908	7.29502
651.634	6.04865
653.357	6.08199
655.083	6.31909
656.806	6.82306
658.53	7.51762
660.253	7.51902
661.977	8.48676
663.7	9.1697
665.422	8.78176
667.145	7.76371
668.865	7.32378
670.588	7.21635
672.308	5.99075
674.027	5.69788
675.749	7.02821
677.468	6.75129
679.188	6.36444
680.907	7.31557
682.627	7.97542
684.345	8.10546
686.064	8.48049
687.781	8.90259
689.498	9.5872
691.216	10.4171
692.932	11.5555
694.65	9.99511
696.366	9.26906
698.081	11.3073
699.797	11.5484
701.512	12.3356
703.228	13.8724
704.942	15.3125
706.655	15.0183
708.371	15.3033
710.083	16.5869
711.796	17.3538
713.51	18.8582
715.222	18.0848
716.934	17.8387
718.645	17.5735
720.358	16.9644
722.068	16.6014
723.779	16.0613
725.49	17.5094
727.2	18.5665
728.909	18.8306
730.618	19.3248
732.329	21.5409
734.037	22.3725
735.745	25.8752
737.453	30.088
739.16	36.4754
740.869	44.4571
742.576	54.9024
744.282	66.356
745.988	78.1018
747.694	91.3152
749.401	103.384
751.107	116.117
752.811	128.332
754.516	140.296
756.22	152.077
757.924	162.531
759.627	172.152
761.332	181.535
763.035	189.454
764.738	197.296
766.44	203.659
768.142	208.689
769.843	213.425
771.544	217.609
773.245	220.375
774.946	222.813
776.646	224.403
778.346	224.495
780.046	223.386
781.745	221.695
783.444	219.725
785.143	216.268
786.841	211.109
788.539	205.677
790.237	199.176
791.934	191.337
793.631	184.864
795.328	177.102
797.024	168.211
798.72	157.408
800.416	146.207
802.112	135.577
803.807	123.834
805.502	112.618
807.196	103.183
808.89	92.113
810.584	83.4803
812.278	74.0371
813.971	66.0554
815.664	59.2614
817.354	55.5781
819.047	53.3246
820.739	51.8836
822.43	50.5714
824.122	51.2517
825.813	52.345
827.503	52.5873
829.192	52.1302
830.882	52.9156
832.571	52.1896
834.261	51.0793
835.95	51.0689
837.637	49.9498
839.325	48.0737
841.013	46.6893
842.701	45.0616
844.389	42.8376
846.074	41.6269
847.761	39.7122
849.447	37.1768
851.131	35.0295
852.817	34.2798
854.503	32.1649
856.188	30.5819
857.871	29.4597
859.556	27.266
861.24	25.0929
862.922	23.8869
864.606	22.55
866.289	22.3679
867.97	23.1671
869.653	22.5401
871.336	22.0183
873.016	22.0521
874.698	22.6992
876.379	23.0947
878.058	22.6968
879.739	20.9682
881.418	19.4592
883.098	18.5111
884.778	18.6984
886.456	17.6666
888.135	16.8024
889.812	17.5226
891.49	16.5626
893.167	16.3394
894.845	17.2852
896.523	17.6724
898.198	17.0708
899.875	18.37
901.55	20.6948
903.226	21.0083
904.901	21.236
906.576	22.023
908.25	23.0224
909.925	23.213
911.598	23.8338
913.271	24.9247
914.945	26.4636
916.617	26.4123
918.291	27.2253
919.962	28.0529
921.635	28.1417
923.306	27.2191
924.978	27.3712
926.648	26.881
928.318	26.5437
929.989	25.7998
931.659	23.938
933.328	23.9264
934.998	23.7211
936.666	23.0857
938.336	21.7246
940.004	21.4309
941.671	19.9941
943.34	18.3732
945.007	18.5278
946.673	17.7383
948.339	16.9988
950.007	17.147
951.672	16.2185
953.337	14.2584
955.004	12.6282
956.669	11.0091
958.333	10.225
959.997	7.94707
961.662	6.07867
963.326	3.27282
964.989	2.48661
966.651	1.07697
968.315	-0.585833
969.977	-2.06298
971.639	-1.8557
973.301	-2.2582
974.962	-3.67025
976.624	-2.74786
978.285	-2.84538
979.945	-4.61048
981.605	-6.49482
983.264	-6.09564
984.924	-6.49777
986.583	-7.27158
988.243	-7.92111
989.901	-8.89488
991.56	-9.10534
993.217	-7.67873
994.875	-5.1206
996.532	-2.20154
998.188	1.31229
999.845	5.39182
1001.5	11.7975
1003.16	17.2467
1004.81	24.6765
1006.47	31.3909
1008.12	39.4098
1009.78	47.7858
1011.43	56.3494
1013.09	65.0346
1014.74	74.9382
1016.39	84.0547
1018.05	92.3045
1019.7	100.854
1021.35	108.282
1023	115.414
1024.65	121.823
1026.31	128.695
1027.96	134.031
1029.61	139.021
1031.26	143.992
1032.91	147.552
1034.56	149.876
1036.21	150.668
1037.86	151.244
1039.51	150.628
1041.16	149.32
1042.8	148.296
1044.45	145.32
1046.1	141.807
1047.75	138.596
1049.39	134.924
1051.04	131.797
1052.69	129.496
1054.33	125.87
1055.98	124.151
1057.62	122.031
1059.27	119.609
1060.91	117.895
1062.56	116.681
1064.2	115.922
1065.85	115.687
1067.49	116.645
1069.13	116.69
1070.77	117.232
1072.42	118.559
1074.06	121.087
1075.7	124.329
1077.34	126.87
1078.98	130.434
1080.62	133.581
1082.27	136.725
1083.91	138.7
1085.55	138.822
1087.18	140.653
1088.82	140.649
1090.46	143.051
1092.1	144.36
1093.74	144.186
1095.38	142.976
1097.02	141.017
1098.65	138.136
1100.29	135.906
1101.93	132.847
1103.56	128.249
1105.2	124.116
1106.84	119.072
1108.47	112.774
1110.11	105.465
1111.74	97.1582
1113.38	88.4218
1115.01	80.6483
1116.64	72.643
1118.28	63.7813
1119.91	55.8276
1121.54	47.0453
1123.18	39.3474
1124.81	32.8404
1126.44	25.0043
1128.07	19.2819
1129.7	12.6439
1131.33	8.98139
1132.97	5.72039
1134.6	4.5281
1136.23	4.11382
1137.86	5.21428
1139.49	4.82704
1141.11	5.43353
1142.74	7.17877
1144.37	7.60241
1146	7.59302
1147.63	8.72852
1149.26	10.0583
1150.88	10.0628
1152.51	11.1689
1154.14	11.9472
1155.76	12.7384
1157.39	13.6995
1159.01	15.0478
1160.64	15.8162
1162.27	14.985
1163.89	15.3486
1165.51	16.5108
1167.14	17.3581
1168.76	18.5979
1170.39	20.6238
1172.01	24.1899
1173.63	24.3676
1175.25	24.7725
1176.88	25.6614
1178.5	27.0849
1180.12	28.792
1181.74	29.1478
1183.36	29.9316
1184.98	30.132
1186.6	31.1779
1188.22	30.7428
1189.84	29.5962
1191.46	29.0254
1193.08	28.8035
1194.7	29.6158
1196.32	29.9406
1197.94	30.5768
1199.55	30.114
1201.17	30.628
1202.79	30.4935
1204.41	30.3874
1206.02	29.2832
1207.64	28.95
1209.25	28.6243
1210.87	28.4201
1212.48	29.2388
1214.1	29.9613
1215.71	30.5395
1217.33	30.8787
1218.94	31.4746
1220.56	31.5227
1222.17	31.6656
1223.79	31.9051
1225.4	31.8332
1227.01	33.0274
1228.62	32.8851
1230.23	34.1049
1231.85	33.9011
1233.46	33.9744
1235.07	33.8644
1236.68	33.9527
1238.29	34.6799
1239.9	35.2491
1241.51	35.8429
1243.12	36.0898
1244.73	36.9938
1246.34	37.6915
1247.94	37.5802
1249.55	38.0192
1251.16	39.3161
1252.77	38.3994
1254.37	37.1762
1255.98	37.5431
1257.59	37.4103
1259.2	37.424
1260.8	37.7577
1262.41	38.0628
1264.01	38.1746
1265.62	39.1994
1267.22	39.2124
1268.83	40.0469
1270.43	42.057
1272.03	44.4371
1273.64	46.064
1275.24	47.992
1276.85	49.8688
1278.45	53.0718
1280.05	53.3704
1281.65	53.5938
1283.25	54.7643
1284.85	54.688
1286.46	54.5255
1288.06	56.0182
1289.66	56.517
1291.26	56.4818
1292.86	56.3509
1294.46	56.6266
1296.06	56.8393
1297.66	57.9025
1299.25	58.5043
1300.85	58.3357
1302.45	59.6741
1304.05	59.0545
1305.65	58.8649
1307.24	59.3881
1308.84	58.4585
1310.43	57.7315
1312.03	55.9583
1313.63	56.9222
1315.22	57.0403
1316.82	56.5862
1318.41	55.6224
1320.01	53.8784
1321.6	52.6697
1323.2	50.7517
1324.79	49.4947
1326.38	48.5053
1327.98	46.6608
1329.57	43.3079
1331.16	41.3044
1332.76	39.2625
1334.35	39.2441
1335.94	38.0195
1337.53	36.3973
1339.12	35.8105
1340.71	35.2465
1342.3	33.8209
1343.89	33.1168
1345.48	33.8884
1347.07	32.5401
1348.66	33.8027
1350.25	33.3128
1351.84	31.4889
1353.43	29.4053
1355.01	29.4593
1356.6	28.8473
1358.19	27.7155
1359.77	25.891
1361.36	25.1369
1362.95	24.9365
1364.53	23.4859
1366.12	22.9211
1367.71	23.19
1369.29	23.1243
1370.88	22.815
1372.46	22.6326
1374.04	23.1281
1375.63	22.7264
1377.21	21.8623
1378.8	22.1353
1380.38	21.7769
1381.96	21.5175
1383.54	20.4857
1385.13	21.8191
1386.71	21.6826
1388.29	20.9622
1389.87	21.903
1391.45	22.7141
1393.03	22.4457
1394.61	21.9902
1396.19	20.7098
1397.77	20.5829
1399.35	21.9109
1400.93	24.3169
1402.51	25.7928
1404.09	27.1194
1405.67	29.4245
1407.24	31.9281
1408.82	35.703
1410.4	39.4374
1411.98	42.1196
1413.55	46.1567
1415.13	49.2901
1416.71	53.8925
1418.28	57.6374
1419.86	61.6957
1421.43	64.8935
1423.01	68.8899
1424.58	72.2022
1426.16	75.8829
1427.73	79.5317
1429.31	82.6479
1430.88	85.9524
1432.45	89.8812
1434.02	93.5865
1435.6	96.4639
1437.17	97.8275
1438.74	99.2144
1440.31	100.673
1441.88	101.795
1443.45	102.605
1445.03	102.838
1446.6	103.113
1448.17	102.133
1449.74	101.38
1451.3	99.323
1452.87	98.0612
1454.44	95.7163
1456.01	94.1074
1457.58	93.0824
1459.15	90.4377
1460.72	88.0172
1462.28	85.4944
1463.85	83.2871
1465.42	79.998
1466.98	77.3439
1468.55	74.2613
1470.12	70.2401
1471.68	66.046
1473.25	63.1526
1474.81	59.6155
1476.38	58.1995
1477.94	55.7386
1479.51	52.9507
1481.07	49.7433
1482.63	47.1606
1484.2	46.0145
1485.76	43.9583
1487.32	41.9722
1488.88	38.8777
1490.45	36.7012
1492.01	36.0518
1493.57	33.6024
1495.13	32.383
1496.69	29.2925
1498.25	27.0347
1499.81	25.4841
1501.37	23.951
1502.93	23.9551
1504.49	22.9628
1506.05	21.0481
1507.61	19.3071
1509.17	17.3685
1510.73	15.5994
1512.28	13.3544
1513.84	11.6903
1515.4	8.58777
1516.96	6.98939
1518.51	6.54279
1520.07	4.96935
1521.63	4.33771
1523.18	3.58188
1524.74	3.5458
1526.29	2.5122
1527.85	3.02164
1529.4	2.99024
1530.96	3.56658
1532.51	4.48692
1534.06	4.75364
1535.62	4.86018
1537.17	5.35225
1538.72	5.63031
1540.28	7.69052
1541.83	8.44294
1543.38	8.42503
1544.93	8.64729
1546.48	8.67153
1548.03	9.90714
1549.59	10.3045
1551.14	11.7003
1552.69	12.962
1554.24	13.9543
1555.79	14.9069
1557.34	15.2399
1558.88	16.2691
1560.43	17.4968
1561.98	19.8078
1563.53	20.8798
1565.08	22.5483
1566.62	24.4806
1568.17	25.834
1569.72	27.94
1571.27	30.0458
1572.81	31.0616
1574.36	32.292
1575.9	33.5819
1577.45	35.8571
1579	37.3269
1580.54	39.0256
1582.09	39.236
1583.63	40.7854
1585.17	41.9269
1586.72	43.1426
1588.26	44.3043
1589.8	45.0227
1591.35	44.7544
1592.89	44.5792
1594.43	45.5873
1595.97	45.9844
1597.52	46.1331
1599.06	47.1484
1600.6	46.7659
1602.14	46.8633
1603.68	46.5289
1605.22	47.8382
1606.76	48.3794
1608.3	48.2557
1609.84	48.4781
1611.38	47.9057
1612.92	47.2103
1614.46	47.8844
1615.99	48.294
1617.53	49.4494
1619.07	49.1729
1620.61	49.7641
1622.14	51.2977
1623.68	53.1127
1625.22	54.2129
1626.75	55.2852
1628.29	55.7978
1629.82	55.6883
1631.36	57.2873
1632.9	58.6359
1634.43	60.1081
1635.96	62.7626
1637.5	64.5807
1639.03	67.2915
1640.57	69.2071
1642.1	71.0504
1643.63	72.9483
1645.16	74.132
1646.7	75.0101
1648.23	75.336
1649.76	75.3705
1651.29	76.9259
1652.82	76.7081
1654.36	77.7383
1655.89	78.3135
1657.42	77.6537
1658.95	77.2761
1660.48	76.6084
1662.01	74.014
1663.53	71.7993
1665.06	69.6976
1666.59	67.0929
1668.12	64.1893
1669.65	62.3006
1671.18	59.8142
1672.7	56.6083
1674.23	54.9042
1675.76	51.8313
1677.29	48.7608
1678.81	44.8617
1680.34	42.7461
1681.86	39.5012
1683.39	35.4322
1684.91	32.15
1686.44	29.0907
1687.96	26.074
1689.49	24.3509
1691.01	22.8187
1692.54	20.2744
1694.06	18.0918
1695.58	15.316
1697.11	13.4369
1698.63	11.6105
1700.15	9.44527
1701.67	6.92242
1703.2	4.89621
1704.72	3.17103
1706.24	2.30084
1707.76	2.06672
1709.28	0.95482
1710.8	0.673606
1712.32	0.529627
1713.84	-0.0629626
1715.36	0.269237
1716.88	0.421495
1718.4	0.0754764
1719.91	0.492873
1721.43	0.231629
1722.95	-0.261167
1724.47	0.00791004
1725.99	1.45313
1727.5	2.01178
1729.02	2.0061
1730.54	2.01874
1732.05	2.10892
1733.57	1.8382
1735.09	2.97143
1736.6	2.79641
1738.12	2.77219
1739.63	3.70286
1741.15	3.63409
1742.66	3.77046
1744.18	3.47877
1745.69	3.90086
1747.2	4.15551
1748.72	4.7772
1750.23	5.52169
1751.74	4.81202
1753.25	5.21702
1754.77	5.23206
1756.28	6.72585
1757.79	6.33245
1759.3	6.54346
1760.81	7.95818
1762.32	8.41622
1763.83	8.81884
1765.34	9.31435
1766.85	8.5016
1768.36	8.94036
1769.87	9.26365
1771.38	9.56885
1772.89	10.545
1774.4	10.4114
1775.91	10.5092
1777.41	11.0211
1778.92	11.5995
1780.43	13.0084
1781.94	13.5626
1783.44	13.7031
1784.95	14.3518
1786.45	15.012
1787.96	15.5901
1789.47	15.6725
1790.97	16.3639
1792.48	17.3019
1793.98	17.6299
1795.48	18.4821
1796.99	18.7065
1798.49	18.6822
1800	19.1656
1801.5	19.2372
1803	18.9615
1804.51	18.514
1806.01	17.7949
1807.51	18.2212
1809.01	18.2033
1810.51	18.3538
1812.02	17.9853
1813.52	18.4266
1815.02	18.7792
1816.52	17.7557
1818.02	17.475
1819.52	17.6002
1821.02	18.2833
1822.52	18.0034
1824.02	17.4551
1825.51	17.0825
1827.01	16.6155
1828.51	16.8733
1830.01	16.8027
1831.51	17.0229
1833	16.9402
1834.5	15.9465
1836	16.4931
1837.5	15.9279
1838.99	15.7199
1840.49	16.091
1841.98	16.6239
1843.48	17.279
1844.97	16.8381
1846.47	17.017
1847.96	16.6456
1849.46	16.6212
1850.95	16.1942
1852.45	16.4637
1853.94	16.1539
1855.43	15.7311
1856.92	15.1264
1858.42	14.6806
1859.91	14.6354
1861.4	14.9758
1862.89	14.5554
1864.39	15.0204
1865.88	15.3373
1867.37	15.4513
1868.86	15.1565
1870.35	15.1218
1871.84	14.0585
1873.33	12.7216
1874.82	13.4595
1876.31	13.3007
1877.8	13.5328
1879.29	13.5366
1880.77	13.9736
1882.26	14.6884
1882.51	14.8424
1884	15.7165
1885.5	15.8469
1886.99	16.8258
1888.48	16.7013
1889.98	16.6938
1891.47	16.8115
1892.97	17.3813
1894.46	18.1417
1895.95	18.2667
1897.44	18.4481
1898.93	19.0854
1900.42	19.3765
1901.92	19.1183
1903.41	18.6543
1904.9	18.2804
1906.39	17.9475
1907.88	18.0312
1909.37	18.1647
1910.86	17.9692
1912.35	18.5301
1913.84	18.2912
1915.32	17.2787
1916.81	16.9714
1918.3	15.8935
1919.79	15.7
1921.28	15.5669
1922.76	15.0568
1924.25	13.7737
1925.74	13.8368
1927.22	12.514
1928.71	11.8066
1930.2	11.0567
1931.68	10.2872
1933.17	9.4558
1934.65	8.74571
1936.14	8.05819
1937.62	7.2179
1939.11	5.35345
1940.59	4.68011
1942.08	4.07369
1943.56	3.23175
1945.04	2.34925
1946.53	2.07532
1948.01	2.86839
1949.49	2.76241
1950.97	2.48272
1952.45	2.41779
1953.94	2.00623
1955.42	0.780021
1956.9	1.12802
1958.38	2.3565
1959.86	3.09112
1961.34	3.9341
1962.82	3.78222
1964.3	4.71855
1965.78	5.13629
1967.26	6.44313
1968.74	7.40538
1970.22	7.35058
1971.69	7.28362
1973.17	7.66618
1974.65	7.51581
1976.13	6.96635
1977.61	7.14082
1979.08	7.29165
1980.56	7.55711
1982.03	7.7579
1983.51	7.81231
1984.99	8.08284
1986.46	8.46675
1987.94	8.35433
1989.41	8.0567
1990.89	8.1968
1992.36	8.35611
1993.84	9.14712
1995.31	8.82245
1996.78	8.70235
1998.26	8.28472
1999.73	8.69389
2001.2	7.8143
2002.68	8.22414
2004.15	8.3317
2005.62	7.55655
2007.09	7.3273
2008.56	6.30187
2010.04	5.08835
2011.51	4.31092
2012.98	4.07266
2014.45	4.69883
2015.92	4.94245
2017.39	5.77423
2018.86	6.00173
2020.33	5.79504
2021.8	5.80566
2023.27	6.10323
2024.74	5.05001
2026.2	4.59114
2027.67	4.50475
2029.14	5.11943
2030.61	6.05629
2032.07	6.76212
2033.54	6.87862
2035.01	7.02454
2036.47	7.37859
2037.94	7.48509
2039.41	8.25206
2040.87	7.84742
2042.34	8.23485
2043.8	7.89749
2045.27	8.55213
2046.73	8.936
2048.2	9.28832
2049.66	9.12859
2051.12	9.68833
2052.59	9.45906
2054.05	9.95858
2055.51	10.5767
2056.98	11.4204
2058.44	11.3465
2059.9	12.204
2061.36	12.0852
2062.82	12.4606
2064.29	14.0434
2065.75	16.1291
2067.21	16.5616
2068.67	17.5233
2070.13	18.6954
2071.59	19.0091
2073.05	20.1964
2074.51	20.8697
2075.97	21.6191
2077.43	21.5589
2078.88	22.1391
2080.34	22.3653
2081.8	23.8954
2083.26	24.8726
2084.72	26.9419
2086.17	28.7199
2087.63	30.3443
2089.09	32.0495
2090.54	32.8051
2092	32.8364
2093.46	34.0338
2094.91	35.5208
2096.37	36.8334
2097.82	37.0907
2099.28	38.393
2100.73	39.9228
2102.19	40.4941
2103.64	41.4125
2105.09	43.3836
2106.55	44.9759
2108	46.6815
2109.46	48.7254
2110.91	50.2101
2112.36	52.6353
2113.81	52.8867
2115.27	54.3057
2116.72	55.2809
2118.17	57.4343
2119.62	58.7052
2121.07	61.1308
2122.52	62.2071
2123.97	64.2067
2125.42	65.3231
2126.87	67.6816
2128.32	69.2199
2129.77	70.6557
2131.22	72.3534
2132.67	73.9761
2134.12	75.7186
2135.57	78.1964
2137.01	81.0675
2138.46	83.581
2139.91	85.4528
2141.36	88.3188
2142.8	89.6579
2144.25	91.1668
2145.7	93.4616
2147.14	95.0388
2148.59	96.1285
2150.03	97.3375
2151.48	99.9851
2152.92	100.804
2154.37	102.339
2155.81	103.176
2157.26	105.411
2158.7	106.705
2160.15	106.755
2161.59	108.172
2163.03	108.306
2164.48	109.008
2165.92	110.34
2167.36	109.841
2168.8	109.558
2170.25	109.209
2171.69	109.357
2173.13	109.293
2174.57	108.868
2176.01	109.502
2177.45	108.756
2178.89	107.965
2180.33	107.035
2181.77	105.462
2183.21	103.82
2184.65	102.729
2186.09	100.902
2187.53	100.347
2188.97	98.8853
2190.41	97.9184
2191.84	96.1808
2193.28	94.0015
2194.72	92.343
2196.16	91.0885
2197.59	88.8122
2199.03	87.3563
2200.47	85.1711
2201.9	83.0763
2203.34	81.9317
2204.78	80.0881
2206.21	78.2429
2207.65	76.5892
2209.08	74.7675
2210.51	73.0644
2211.95	70.3803
2213.38	68.3343
2214.82	65.9254
2216.25	64.8265
2217.68	63.9464
2219.12	61.9453
2220.55	59.7782
2221.98	58.3881
2223.42	57.9439
2224.85	55.371
2226.28	54.7099
2227.71	54.499
2229.14	53.5539
2230.57	52.48
2232	50.5814
2233.43	50.0575
2234.86	48.1146
2236.29	47.0136
2237.72	45.8693
2239.15	43.5001
2240.58	42.6037
2242.01	40.6554
2243.44	39.5377
2244.87	38.0088
2246.3	36.1132
2247.73	34.991
2249.15	33.78
2250.58	33.1139
2252.01	32.185
2253.43	31.0231
2254.86	30.5756
2256.29	29.5854
2257.71	28.7665
2259.14	27.0729
2260.56	25.5799
2261.99	25.6895
2263.41	25.291
2264.84	25.1651
2266.26	25.0677
2267.69	23.7296
2269.11	22.4427
2270.54	22.0937
2271.96	21.3657
2273.38	21.0424
2274.81	20.7526
2276.23	19.9483
2277.65	18.7373
2279.07	18.2103
2280.49	17.1829
2281.92	17.4997
2283.34	17.1628
2284.76	17.8558
2286.18	17.6283
2287.6	17.1503
2289.02	17.2122
2290.44	16.8766
2291.86	16.2883
2293.28	16.3548
2294.7	16.0639
2296.12	16.4214
2297.54	17.3235
2298.96	16.4007
2300.38	16.1046
2301.79	15.5354
2303.21	14.8463
2304.63	14.7629
2306.05	13.8369
2307.46	13.7788
2308.88	13.3634
2310.3	12.6202
2311.71	12.4394
2313.13	11.9748
2314.55	11.8843
2315.96	11.5553
2317.38	10.7351
2318.79	10.6153
2320.21	9.87161
2321.62	9.65542
2323.03	9.1821
2324.45	8.48531
2325.86	8.26794
2327.27	7.65779
2328.69	7.39105
2330.1	6.7702
2331.51	7.30853
2332.93	7.26006
2334.34	6.61624
2335.75	5.8784
2337.16	5.12405
2338.57	4.98854
2339.99	5.09932
2341.4	4.8802
2342.81	4.3083
2344.22	4.19252
2345.63	4.07547
2347.04	4.14002
2348.45	3.28166
2349.86	3.38945
2351.26	3.36417
2352.67	3.59295
2354.08	2.73556
2355.49	2.60896
2356.9	1.66851
2358.31	1.60032
2359.71	1.79279
2361.12	1.18222
2362.53	1.2805
2363.94	0.811152
2365.34	1.23106
2366.75	1.39377
2368.15	0.495023
2369.56	-0.439523
2370.97	0.0433473
2372.37	0.754182
2373.78	1.26866
2375.18	0.896271
2376.59	0.913293
2377.99	1.0636
2379.39	0.406281
2380.8	-0.144092
2382.2	-0.512471
2383.61	-0.818245
2385.01	-0.949513
2386.41	-0.354927
2387.81	-0.78791
2389.22	-0.806693
2390.62	-0.405614
2392.02	-0.619545
2393.42	-1.48992
2394.82	-1.50871
2396.22	-1.16287
2397.63	-0.81976
2399.02	0.217305
2400.43	-0.0676977
2401.82	-0.281307
2403.23	-0.370708
2404.62	-0.172523
2406.02	0.259391
2407.42	0.800637
2408.82	1.792
2410.22	3.05766
2411.62	3.12076
2413.02	4.48177
2414.41	6.12573
2415.81	6.66897
2417.21	7.37497
2418.61	7.24371
2420	8.23367
2421.4	8.0768
2422.79	8.09196
2424.19	8.22202
2425.59	9.04565
2426.98	9.54025
2428.38	10.6836
2429.77	10.5645
2431.17	10.7382
2432.56	11.3148
2433.96	10.7552
2435.35	10.6395
2436.74	10.2699
2438.14	10.6254
2439.53	10.7209
2440.92	11.3795
2442.32	11.5883
2443.71	11.355
2445.1	11.2431
2446.49	10.5989
2447.88	10.6556
2449.28	9.96872
2450.67	9.88383
2452.06	9.89719
2453.45	10.084
2454.84	9.52006
2456.23	9.80352
2457.62	8.44041
2459.01	8.04594
2460.4	8.16387
2461.79	7.31087
2463.18	7.82043
2464.57	7.56198
2465.96	6.93196
2467.34	5.79221
2468.73	5.41005
2470.12	4.31803
2471.51	4.26484
2472.89	4.07214
2474.28	4.53888
2475.67	4.37249
2477.05	4.69702
2478.44	4.31511
2479.83	4.18842
2481.21	3.64853
2482.6	4.31318
2483.98	4.20634
2485.37	4.01479
2486.75	3.84074
2488.14	3.86982
2489.52	3.53552
2490.9	3.42723
2492.29	4.06502
2493.67	4.47674
2495.06	4.71273
2496.44	5.46072
2497.82	4.51238
2499.2	4.18916
2500.59	4.38724
2501.97	4.8348
2503.35	4.8278
2504.73	4.89248
2506.11	5.39838
2507.49	5.72061
2508.88	7.15845
2510.26	7.60516
2511.63	7.37143
2513.01	7.44977
2514.39	7.73363
2515.77	7.76306
2517.15	7.91135
2518.53	6.97618
2519.91	7.61129
2521.29	7.45769
2522.67	7.15988
2524.05	7.02731
2525.42	7.45728
2526.8	7.20681
2528.18	7.68863
2529.56	7.8931
2530.93	7.9215
2532.31	7.76592
2533.69	6.94493
2535.06	6.67238
2536.44	6.74757
2537.81	7.86258
2539.19	7.85983
2540.56	7.03361
2541.94	7.06718
2543.31	6.96697
2544.69	6.39938
2546.06	6.64297
2547.44	5.73375
2548.81	5.96449
2550.18	5.46666
2551.56	5.93152
2552.93	5.51621
2554.3	5.14953
2555.68	4.54953
2557.05	4.59763
2558.42	4.25114
2559.79	4.14169
2561.16	4.19632
2562.53	3.58467
2563.9	2.86525
2565.28	3.13454
2566.64	2.0556
2568.02	2.28666
2569.38	2.09911
2570.76	2.36665
2572.12	2.9281
2573.49	3.10037
2574.86	3.2581
2576.23	3.09014
2577.6	3.26606
2578.97	2.07269
2580.34	1.26869
2581.7	1.30729
2583.07	1.4242
2584.44	1.25253
2585.81	0.836501
2587.17	0.609181
2588.54	1.19375
2589.91	0.493106
2591.27	0.586661
2592.64	0.788298
2594	0.759166
2595.37	1.34987
2596.73	1.138
2598.1	1.48901
2599.46	2.40994
2600.83	2.69348
2602.19	3.42215
2603.55	4.14163
2604.92	5.17662
2606.28	5.63021
2607.64	5.59044
2609.01	6.03889
2610.37	7.13044
2611.73	7.02656
2613.09	7.25045
2614.46	7.23867
2615.82	6.91797
2617.18	7.34448
2618.54	7.72207
2619.9	8.64272
2621.26	8.81331
2622.62	9.46098
2623.98	9.76311
2625.34	10.2175
2626.7	10.0348
2628.06	9.90516
2629.42	10.6651
2630.78	10.9399
2632.14	10.8886
2633.5	11.5214
2634.86	11.5513
2636.22	12.0749
2637.57	12.6802
2638.93	12.9443
2640.29	12.685
2641.64	12.3406
2643	12.5122
2644.36	11.8936
2645.72	12.1331
2647.07	12.1213
2648.43	12.395
2649.78	12.5442
2651.14	11.4957
2652.49	11.2514
2653.85	10.1146
2655.2	9.25373
2656.56	8.55812
2657.91	8.08105
2659.27	8.01343
2660.62	8.36198
2661.97	8.95775
2663.33	9.21629
2664.68	8.97501
2666.03	9.15639
2667.38	9.48754
2668.74	8.79344
2670.09	8.8529
2671.44	8.4268
2672.79	8.91437
2674.14	8.53477
2675.49	8.98882
2676.84	9.08652
2678.2	8.48899
2679.55	8.04289
2680.89	8.56198
2682.24	9.41061
2683.59	9.5844
2684.94	9.89751
2686.29	10.7927
2687.64	10.8856
2688.99	10.6428
2690.34	10.6424
2691.69	10.7749
2693.04	11.095
2694.38	11.2167
2695.73	11.9452
2697.08	11.7105
2698.43	11.2144
2699.77	10.902
2701.12	11.2485
2702.46	11.2886
2703.81	11.1102
2705.16	12.0583
2706.5	12.4267
2707.85	13.1937
2709.19	13.8447
2710.54	13.9283
2711.88	13.3609
2713.23	13.4025
2714.57	13.5747
2715.92	13.527
2717.26	12.962
2718.6	13.3854
2719.95	14.5611
2721.29	14.3702
2722.63	15.1122
2723.97	14.8557
2725.32	15.4455
2726.66	15.5068
2728	15.248
2729.34	14.4237
2730.68	13.763
2732.02	13.5148
2733.36	12.817
2734.7	12.6003
2736.04	12.5035
2737.39	11.5916
2738.72	11.4377
2740.06	11.1273
2741.4	10.4284
2742.74	10.3542
2744.08	9.26021
2745.42	8.17206
2746.76	7.85726
2748.1	7.45538
2749.44	6.61661
2750.77	5.79275
2752.11	5.39889
2753.45	5.73467
2754.78	5.08675
2756.12	5.34854
2757.46	4.9492
2758.79	4.27188
2760.13	3.62976
2761.47	2.21041
2762.8	1.58673
2764.14	1.47474
2765.47	1.7814
2766.81	2.10402
2768.14	1.93411
2769.48	2.13459
2770.81	2.32589
2772.14	2.8496
2773.48	2.10356
2774.81	2.59809
2776.14	2.44264
2777.48	2.78714
2778.81	3.33784
2780.14	4.16168
2781.47	5.22469
2782.81	5.03732
2784.14	4.81586
2785.47	4.86146
2786.8	4.26453
2788.13	4.18137
2789.46	4.39087
2790.79	3.66168
2792.12	4.14092
2793.46	3.85822
2794.79	3.78103
2796.11	3.24948
2797.44	3.18155
2798.77	2.50046
2800.1	2.71074
2801.43	2.67839
2802.76	2.62838
2804.09	2.56168
2805.42	2.71736
2806.74	2.18689
2808.07	2.22023
2809.4	1.42995
2810.73	1.57972
2812.05	1.20573
2813.38	1.75673
2814.71	1.84437
2816.03	3.11793
2817.36	4.65943
2818.68	6.16344
2820.01	8.36587
2821.33	9.7902
2822.66	12.0363
2823.98	14.2965
2825.31	17.4294
2826.63	21.1108
2827.96	24.3876
2829.28	29.4982
2830.61	33.6061
2831.93	37.139
2833.25	41.4072
2834.57	46.1223
2835.9	51.2287
2837.22	55.3287
2838.54	60.4968
2839.86	64.6968
2841.18	69.8549
2842.51	74.1822
2843.83	78.913
2845.15	82.9201
2846.47	86.8233
2847.79	91.136
2849.11	94.8742
2850.43	100.046
2851.75	105.155
2853.07	110.458
2854.39	116.126
2855.71	121.117
2857.03	125.869
2858.35	130.882
2859.67	134.45
2860.98	138.511
2862.3	141.934
2863.62	146.016
2864.94	149.41
2866.25	152.251
2867.57	154.212
2868.89	157.161
2870.21	159.28
2871.52	160.023
2872.84	161.439
2874.15	162.286
2875.47	163.941
2876.78	165.867
2878.1	166.593
2879.42	168.107
2880.73	168.929
2882.04	171.465
2883.36	173.377
2884.67	174.611
2885.99	176.996
2887.3	178.843
2888.61	180.483
2889.93	183.224
2891.24	184.761
2892.55	186.518
2893.87	189.56
2895.18	191.895
2896.49	194.603
2897.8	198.186
2899.11	201.908
2900.42	205.308
2901.74	208.942
2903.05	212.868
2904.36	218.627
2905.67	223.052
2906.98	228.215
2908.29	233.517
2909.6	240.146
2910.91	246.721
2912.22	254.696
2913.53	262.412
2914.83	270.3
2916.14	279.523
2917.45	287.485
2918.76	295.616
2920.07	303.188
2921.37	309.653
2922.68	316.352
2923.99	321.915
2925.3	327.145
2926.6	332.102
2927.91	336.128
2929.22	340.096
2930.52	342.588
2931.83	344.489
2933.13	346.045
2934.44	346.546
2935.74	345.82
2937.05	344.423
2938.35	342.905
2939.66	340.498
2940.96	338.374
2942.27	333.538
2943.57	327.856
2944.87	322.206
2946.18	316.55
2947.48	310.694
2948.78	302.484
2950.09	294.505
2951.39	287.491
2952.69	279.198
2953.99	271.562
2955.29	263.254
2956.6	254.509
2957.9	246.681
2959.2	238.65
2960.5	229.843
2961.8	223.164
2963.1	215.638
2964.4	208.446
2965.7	200.422
2967	193.407
2968.3	187.411
2969.6	181.397
2970.9	175.388
2972.2	170.304
2973.49	165.963
2974.79	161.999
2976.09	156.935
2977.39	153.23
2978.69	148.633
2979.98	144.071
2981.28	140.335
2982.58	135.483
2983.88	130.779
2985.17	126.393
2986.47	121.99
2987.76	117.83
2989.06	113.087
2990.36	108.833
2991.65	104.731
2992.95	100.218
2994.24	96.0092
2995.54	90.9011
2996.83	86.7119
2998.12	82.5779
2999.42	78.8493
3000.71	74.4413
3002	70.2232
3003.3	65.4879
3004.59	61.1679
3005.88	56.6489
3007.18	51.945
3008.47	48.4594
3009.76	44.4717
3011.05	40.7493
3012.35	36.9508
3013.64	33.0883
3014.93	30.2377
3016.22	27.8257
3017.51	25.4437
3018.8	22.1295
3020.09	19.3459
3021.38	17.6606
3022.67	15.1987
3023.96	13.3478
3025.25	11.9959
3026.54	10.3664
3027.83	8.44351
3029.12	6.95707
3030.41	5.28541
3031.69	5.30223
3032.98	5.3371
3034.27	4.7021
3035.56	5.08561
3036.85	5.07677
3038.13	4.1028
3039.42	4.06109
3040.71	4.19883
3041.99	4.46304
3043.28	3.6728
3044.57	3.72185
3045.85	4.77337
3047.14	3.99355
3048.42	3.35415
3049.71	3.02392
3050.99	2.61833
3052.28	2.77414
3053.56	2.79184
3054.85	2.95859
3056.13	2.67871
3057.42	2.11086
3058.7	2.66617
3059.98	2.61848
3061.27	3.58418
3062.55	3.88949
3063.83	3.55849
3065.11	2.95859
3066.4	3.19186
3067.68	3.10812
3068.96	3.1699
3070.24	2.94991
3071.52	2.80013
3072.8	2.04904
3074.09	1.39731
3075.37	1.19504
3076.65	0.99627
3077.93	1.21554
3079.21	1.44639
3080.49	1.68856
3081.77	1.60322
3083.05	1.38939
3084.32	1.85892
3085.61	1.07541
3086.88	1.1744
3088.16	0.890288
3089.44	0.940835
3090.72	1.18614
3092	1.66386
3093.27	2.29029
3094.55	3.44243
3095.83	4.36272
3097.11	4.60716
3098.38	5.75164
3099.66	6.43297
3100.94	7.06713
3102.21	7.23248
3103.49	8.96353
3104.76	9.8036
3106.04	10.0528
3107.31	10.9781
3108.59	11.7243
3109.86	12.3103
3111.14	12.4592
3112.41	13.4225
3113.69	14.9353
3114.96	16.263
3116.23	17.7975
3117.51	18.7241
3118.78	19.9041
3120.05	20.9013
3121.33	22.4943
3122.6	24.2663
3123.87	25.4686
3125.14	27.2596
3126.42	27.9488
3127.69	28.8852
3128.96	30.277
3130.23	31.7168
3131.5	32.675
3132.77	33.6986
3134.04	35.2484
3135.31	36.3975
3136.58	37.9237
3137.85	39.7182
3139.12	40.9961
3140.39	42.7294
3141.66	43.9512
3142.93	44.581
3144.2	45.5275
3145.47	46.3991
3146.74	47.1724
3148	49.0981
3149.27	50.1949
