#Acq. time (s)=	45
#Accumulations=	2
#Range (cm-¹)=	200...3150
#Windows=	2
#Auto scanning=	Off
#Autofocus=	Off
#Macrospot=	Off
#AutoExposure=	Off
#Spike filter=	Multiple accum.
#Delay time (s)=	0
#Binning=	1
#Readout mode=	Signal
#DeNoise=	Off
#ICS correction=	On
#Dark correction=	Off
#Inst. Process=	Off
#Detector Gain=	Best Dynamic Range
#Detector ADC=	20 kHz       
#Detector temperature (°C)=	-69.85
#Instrument=	LabRAM HR Evol
#Detector=	Synapse
#Objective=	x100
#Grating=	600 gr/mm
#ND Filter=	100%
#Laser (nm)=	532 
#Hole=	100.021
#Range=	Auto
#Laser Pol.=	No
#Raman. Pol.=	No
#Laser Pol. (°)=	-0.0007625
#Raman Pol. (°)=	89.9995
#Collection=	Microscope
#StageXY=	Marzhauser
#StageZ=	Marzhauser
#X (µm)=	28307.3
#Y (µm)=	-3221.3
#Z (µm)=	1041.05
#Full time(mm:ss)=	3:19
#Project=	
#Sample=	
#Site=	
#Title=	Mb_50_18_35_2x_45s_532 nm_x100_100%_600 gr_mm
#Remark=	
#Date=	12.07.2022 13:35
#Acquired=	12.07.2022 13:35:37
#Base:Fit=	10.08.2022 10:49:18
#Base:Sub=	10.08.2022 10:49:30
#Filter:Polynom=	16.08.2022 10:14:59
#AxisType[0]=Intens
#AxisUnit[0]=Cnt
#AxisType[1]=Spectr
#AxisUnit[1]=1/cm
200.388	7.80457
202.204	12.2231
204.019	14.4264
205.832	17.1806
207.646	18.1456
209.459	19.3968
211.274	20.1105
213.087	20.3521
214.899	21.7337
216.711	22.2073
218.524	24.6224
220.335	25.8062
222.146	24.6212
223.956	25.1215
225.766	26.4473
227.576	27.1059
229.388	28.003
231.197	29.7093
233.005	30.6429
234.813	31.8392
236.621	33.436
238.429	35.2449
240.236	36.3248
242.045	37.3521
243.852	36.9837
245.658	37.8385
247.464	38.0691
249.269	37.3631
251.074	37.5996
252.879	36.6364
254.683	36.5651
256.487	37.4953
258.291	37.7992
260.094	37.125
261.897	37.5685
263.702	37.5075
265.504	37.2554
267.306	38.6013
269.108	36.0187
270.909	34.2697
272.71	33.8469
274.511	35.403
276.311	34.4346
278.111	35.0484
279.91	34.7167
281.709	34.334
283.508	33.1479
285.306	31.6112
287.105	30.501
288.9	29.6006
290.698	29.7542
292.495	30.3647
294.291	30.4509
296.088	30.3867
297.884	31.5412
299.679	31.7405
301.475	31.1213
303.27	31.7927
305.064	33.4498
306.858	33.5599
308.652	33.6051
310.444	32.0062
312.237	30.4976
314.03	32.3361
315.822	31.7763
317.615	32.4511
319.406	34.0081
321.198	34.2205
322.987	33.9921
324.778	34.8835
326.568	34.975
328.358	34.0801
330.148	32.5568
331.935	30.9139
333.724	27.8139
335.513	26.7847
337.301	23.949
339.089	21.8649
340.875	21.1771
342.662	19.8505
344.449	19.9633
346.236	20.2302
348.02	19.9585
349.806	21.251
351.592	22.2857
353.375	24.2507
355.16	26.8459
356.944	29.7381
358.728	33.5094
360.51	38.4555
362.294	44.0224
364.077	47.0541
365.858	51.0651
367.64	55.6151
369.422	58.8759
371.202	62.3734
372.983	65.9541
374.764	70.3149
376.543	75.031
378.324	77.879
380.102	79.3313
381.881	81.163
383.661	82.1816
385.438	83.6716
387.216	84.5505
388.993	83.9651
390.771	82.8066
392.548	82.1278
394.324	80.1264
396.101	78.5624
397.875	76.6281
399.651	74.7618
401.425	74.2119
403.201	72.8914
404.974	69.3651
406.749	67.5593
408.524	63.7289
410.296	57.4598
412.07	53.2518
413.841	47.6462
415.614	40.7549
417.385	34.4047
419.156	28.7734
420.928	22.7791
422.698	17.7721
424.469	14.6043
426.238	11.2143
428.009	8.40783
429.777	6.4743
431.548	3.95762
433.315	2.96407
435.083	2.68064
436.852	2.66046
438.618	2.6387
440.387	1.08127
442.153	2.49518
443.919	2.72269
445.686	2.76098
447.451	4.48585
449.218	4.38124
450.982	4.98965
452.746	4.21123
454.512	5.16623
456.275	4.72921
458.038	4.7151
459.803	4.18541
461.565	3.4607
463.327	3.7765
465.091	3.82349
466.852	2.22454
468.613	0.957864
470.374	1.39215
472.136	1.93938
473.896	1.91046
475.655	2.98429
477.415	3.08761
479.176	6.01823
480.934	8.84213
482.692	10.322
484.45	15.5495
486.21	18.9506
487.967	24.2427
489.724	29.7249
491.481	33.3916
493.237	37.1287
494.995	41.6803
496.75	46.1502
498.506	50.1499
500.26	53.6076
502.015	57.2124
503.771	61.8531
505.525	67.1461
507.279	70.8447
509.032	75.2589
510.785	80.1176
512.537	84.2905
514.289	86.2121
516.041	88.1742
517.793	90.2377
519.546	91.8312
521.297	93.3718
523.047	92.2496
524.797	91.6295
526.547	89.3082
528.297	87.2729
530.046	85.7487
531.795	83.2085
533.543	81.2076
535.291	79.0717
537.039	75.4026
538.787	70.8858
540.534	65.859
542.281	61.0069
544.027	56.3329
545.773	52.232
547.519	46.8396
549.264	42.0536
551.01	38.0692
552.754	32.8957
554.499	28.0656
556.243	23.2638
557.987	20.9512
559.73	18.5994
561.474	16.2017
563.216	15.5158
564.959	13.558
566.701	14.9214
568.441	15.0011
570.182	14.7259
571.923	18.0476
573.664	18.5157
575.405	20.1947
577.145	19.3003
578.885	20.2479
580.624	21.5023
582.361	22.6604
584.1	23.2627
585.839	24.1427
587.577	24.8782
589.315	28.1118
591.052	28.6846
592.787	29.1912
594.524	30.9261
596.26	31.7331
597.997	32.8636
599.732	32.2744
601.466	31.4092
603.201	31.2572
604.936	30.8283
606.67	29.5286
608.403	27.9788
610.136	26.2919
611.87	26.9008
613.603	24.8699
615.334	24.6076
617.067	23.3721
618.799	21.7041
620.529	19.1552
622.26	17.7511
623.991	15.4254
625.72	13.7291
627.451	11.9615
629.181	10.8114
630.909	8.94001
632.638	6.70662
634.368	4.91793
636.095	4.20306
637.823	3.47695
639.551	3.5583
641.277	3.08247
643.005	2.65463
644.73	3.80415
646.457	5.27563
648.184	5.28604
649.908	6.70724
651.634	7.22246
653.357	8.3182
655.083	8.22786
656.806	7.41488
658.53	7.75655
660.253	8.07248
661.977	8.22862
663.7	8.95366
665.422	9.87474
667.145	9.95993
668.865	11.5633
670.588	13.0745
672.308	15.731
674.027	16.5281
675.749	18.1989
677.468	17.5986
679.188	19.2312
680.907	21.9518
682.627	22.9075
684.345	25.1005
686.064	26.4265
687.781	28.0027
689.498	29.271
691.216	31.5716
692.932	32.5578
694.65	34.6726
696.366	35.445
698.081	36.123
699.797	36.2941
701.512	36.298
703.228	36.5013
704.942	36.35
706.655	36.8139
708.371	37.4782
710.083	36.345
711.796	36.4002
713.51	36.1751
715.222	37.2136
716.934	35.8752
718.645	35.674
720.358	36.4652
722.068	37.3572
723.779	37.4235
725.49	37.0577
727.2	36.9083
728.909	38.2625
730.618	39.3426
732.329	41.8833
734.037	44.0152
735.745	48.697
737.453	53.3789
739.16	59.6988
740.869	67.7864
742.576	75.4218
744.282	84.2249
745.988	94.4788
747.694	104.392
749.401	115.358
751.107	125.816
752.811	136.93
754.516	147.998
756.22	158.244
757.924	167.057
759.627	174.748
761.332	183.46
763.035	190.613
764.738	198.535
766.44	206.072
768.142	211.555
769.843	215.185
771.544	219.957
773.245	222.467
774.946	225.348
776.646	226.752
778.346	226.945
780.046	225.749
781.745	224.169
783.444	221.381
785.143	220.002
786.841	217.05
788.539	212.9
790.237	208.435
791.934	201.987
793.631	197.157
795.328	191.299
797.024	185.373
798.72	176.6
800.416	168.341
802.112	159.494
803.807	152.304
805.502	146.395
807.196	139.688
808.89	132.266
810.584	124.387
812.278	119.143
813.971	115.425
815.664	112.23
817.354	109.602
819.047	107.968
820.739	105.94
822.43	105.334
824.122	107.224
825.813	109.35
827.503	108.665
829.192	109.643
830.882	109.936
832.571	110.267
834.261	109.881
835.95	110.564
837.637	108.327
839.325	109.064
841.013	106.596
842.701	104.795
844.389	104.271
846.074	103.579
847.761	102.814
849.447	101.419
851.131	99.8576
852.817	97.2999
854.503	96.3447
856.188	95.091
857.871	93.141
859.556	91.628
861.24	88.6969
862.922	86.5593
864.606	84.9892
866.289	84.9287
867.97	82.7957
869.653	82.3558
871.336	81.5552
873.016	79.272
874.698	78.3813
876.379	76.742
878.058	76.4008
879.739	74.1662
881.418	70.5519
883.098	68.8487
884.778	68.4091
886.456	68.4577
888.135	66.4152
889.812	63.8129
891.49	61.8718
893.167	59.5525
894.845	57.4416
896.523	57.8164
898.198	57.6656
899.875	57.0881
901.55	56.1403
903.226	56.0383
904.901	56.65
906.576	57.7684
908.25	58.5882
909.925	57.7509
911.598	56.2643
913.271	56.5391
914.945	55.2683
916.617	55.8003
918.291	54.7703
919.962	54.4268
921.635	51.5556
923.306	52.9899
924.978	51.5507
926.648	52.6809
928.318	51.93
929.989	51.1839
931.659	49.5042
933.328	47.9361
934.998	46.8179
936.666	46.0327
938.336	45.4357
940.004	43.2643
941.671	41.8833
943.34	39.7953
945.007	37.3658
946.673	37.1862
948.339	37.9073
950.007	36.9331
951.672	35.1047
953.337	34.6611
955.004	33.9111
956.669	31.5154
958.333	30.0949
959.997	27.394
961.662	25.2138
963.326	22.7983
964.989	18.5222
966.651	17.8535
968.315	15.3092
969.977	14.6027
971.639	13.1033
973.301	12.8442
974.962	12.8658
976.624	11.3148
978.285	10.7625
979.945	8.92524
981.605	5.69298
983.264	4.20061
984.924	1.55297
986.583	1.23466
988.243	1.64338
989.901	1.10613
991.56	1.89901
993.217	3.4757
994.875	4.15707
996.532	7.60735
998.188	10.0506
999.845	14.0945
1001.5	17.573
1003.16	21.8849
1004.81	26.3053
1006.47	32.0402
1008.12	36.9106
1009.78	43.044
1011.43	50.3522
1013.09	56.3301
1014.74	60.2865
1016.39	66.0447
1018.05	71.7869
1019.7	76.6331
1021.35	81.7415
1023	87.3048
1024.65	90.6627
1026.31	94.0501
1027.96	99.5811
1029.61	103.522
1031.26	105.653
1032.91	105.375
1034.56	105.832
1036.21	105.067
1037.86	104.548
1039.51	101.869
1041.16	100.42
1042.8	98.2146
1044.45	96.7173
1046.1	93.4542
1047.75	90.4746
1049.39	89.2407
1051.04	87.1163
1052.69	84.1636
1054.33	82.7707
1055.98	80.4964
1057.62	77.4607
1059.27	75.3559
1060.91	72.8622
1062.56	71.6311
1064.2	72.1829
1065.85	74.7914
1067.49	75.7136
1069.13	76.3745
1070.77	77.0355
1072.42	77.3135
1074.06	78.6445
1075.7	80.0945
1077.34	82.5035
1078.98	84.8004
1080.62	85.6271
1082.27	86.6438
1083.91	88.9892
1085.55	89.7903
1087.18	90.6867
1088.82	90.921
1090.46	90.8152
1092.1	89.6321
1093.74	88.1175
1095.38	84.9999
1097.02	82.1547
1098.65	81.2541
1100.29	79.9306
1101.93	77.9004
1103.56	76.3525
1105.2	72.1318
1106.84	66.9068
1108.47	63.5471
1110.11	58.6956
1111.74	51.3204
1113.38	46.0089
1115.01	40.1962
1116.64	35.3396
1118.28	29.323
1119.91	25.4709
1121.54	21.8838
1123.18	19.9634
1124.81	17.1512
1126.44	14.3637
1128.07	12.666
1129.7	10.3717
1131.33	9.67689
1132.97	8.5421
1134.6	7.84884
1136.23	10.8551
1137.86	10.8462
1139.49	10.6517
1141.11	12.1742
1142.74	12.2312
1144.37	15.1394
1146	15.0418
1147.63	15.209
1149.26	14.4876
1150.88	13.9361
1152.51	14.5668
1154.14	15.6511
1155.76	15.5685
1157.39	15.3877
1159.01	15.4889
1160.64	14.674
1162.27	14.7402
1163.89	13.2266
1165.51	15.0386
1167.14	13.7093
1168.76	13.0716
1170.39	13.2062
1172.01	13.7245
1173.63	14.1389
1175.25	15.6775
1176.88	15.0523
1178.5	13.8875
1180.12	15.3977
1181.74	15.5062
1183.36	16.2532
1184.98	15.5025
1186.6	14.1246
1188.22	15.2636
1189.84	15.0865
1191.46	14.4008
1193.08	15.4792
1194.7	15.6154
1196.32	14.9072
1197.94	15.3429
1199.55	16.4599
1201.17	17.953
1202.79	19.2091
1204.41	19.4742
1206.02	19.9112
1207.64	19.1776
1209.25	19.0719
1210.87	19.7421
1212.48	20.6012
1214.1	21.4732
1215.71	22.5084
1217.33	24.3236
1218.94	22.7359
1220.56	22.8252
1222.17	24.1568
1223.79	24.469
1225.4	26.7673
1227.01	26.538
1228.62	26.3434
1230.23	26.1239
1231.85	25.7472
1233.46	24.6444
1235.07	24.9775
1236.68	24.283
1238.29	26.0163
1239.9	27.2286
1241.51	27.7698
1243.12	28.2151
1244.73	29.2983
1246.34	30.1779
1247.94	29.0397
1249.55	28.9172
1251.16	29.4913
1252.77	30.1612
1254.37	30.8454
1255.98	31.8229
1257.59	30.5151
1259.2	31.9918
1260.8	34.7484
1262.41	33.9353
1264.01	35.1775
1265.62	36.3528
1267.22	38.8768
1268.83	39.4715
1270.43	40.3368
1272.03	41.2524
1273.64	41.4263
1275.24	40.5764
1276.85	41.7778
1278.45	43.3573
1280.05	44.8087
1281.65	45.6849
1283.25	46.166
1284.85	46.8079
1286.46	47.922
1288.06	48.3812
1289.66	50.6167
1291.26	52.0658
1292.86	51.3018
1294.46	52.3854
1296.06	52.4849
1297.66	52.5595
1299.25	52.9296
1300.85	53.6827
1302.45	54.703
1304.05	53.4337
1305.65	52.4326
1307.24	51.0599
1308.84	50.2002
1310.43	50.5568
1312.03	50.8619
1313.63	52.2574
1315.22	52.1332
1316.82	52.3046
1318.41	52.7393
1320.01	51.252
1321.6	49.0499
1323.2	48.2089
1324.79	47.5625
1326.38	46.3315
1327.98	45.6376
1329.57	45.9727
1331.16	45.6465
1332.76	46.3691
1334.35	46.3866
1335.94	45.4869
1337.53	44.4519
1339.12	45.6942
1340.71	45.7875
1342.3	46.0808
1343.89	47.5557
1345.48	47.8739
1347.07	47.7381
1348.66	45.213
1350.25	44.1718
1351.84	43.6183
1353.43	44.0901
1355.01	43.2048
1356.6	42.6649
1358.19	41.6032
1359.77	40.0312
1361.36	39.1249
1362.95	37.5133
1364.53	36.7304
1366.12	35.6811
1367.71	35.038
1369.29	34.3734
1370.88	32.8468
1372.46	30.735
1374.04	29.647
1375.63	30.6693
1377.21	30.5744
1378.8	29.7337
1380.38	28.5882
1381.96	28.4342
1383.54	27.0256
1385.13	28.0357
1386.71	28.7383
1388.29	28.3422
1389.87	27.0912
1391.45	28.0463
1393.03	27.6789
1394.61	26.4728
1396.19	28.0966
1397.77	29.8078
1399.35	29.9731
1400.93	30.479
1402.51	32.0182
1404.09	34.0254
1405.67	34.4641
1407.24	36.2888
1408.82	38.7773
1410.4	41.7654
1411.98	45.583
1413.55	49.1057
1415.13	52.3809
1416.71	55.7291
1418.28	60.7298
1419.86	62.5855
1421.43	66.6322
1423.01	68.923
1424.58	71.6681
1426.16	75.2747
1427.73	77.7651
1429.31	81.9707
1430.88	85.6857
1432.45	86.6446
1434.02	86.8216
1435.6	88.9355
1437.17	89.5464
1438.74	90.6165
1440.31	92.1593
1441.88	90.7682
1443.45	91.3353
1445.03	90.136
1446.6	89.6303
1448.17	89.7725
1449.74	89.5337
1451.3	88.2063
1452.87	89.1538
1454.44	88.5913
1456.01	86.5043
1457.58	84.2488
1459.15	83.7647
1460.72	81.6272
1462.28	80.6607
1463.85	79.9057
1465.42	77.2058
1466.98	76.3931
1468.55	74.9861
1470.12	73.9814
1471.68	72.6732
1473.25	70.6873
1474.81	67.637
1476.38	66.2545
1477.94	63.5901
1479.51	60.5046
1481.07	58.5801
1482.63	57.809
1484.2	54.2635
1485.76	54.1866
1487.32	52.978
1488.88	52.217
1490.45	51.3885
1492.01	49.6822
1493.57	47.9188
1495.13	45.9886
1496.69	45.3263
1498.25	42.6012
1499.81	42.4813
1501.37	40.4656
1502.93	39.9157
1504.49	38.0969
1506.05	35.3679
1507.61	32.559
1509.17	29.6688
1510.73	25.8357
1512.28	23.56
1513.84	20.1811
1515.4	16.6662
1516.96	14.6661
1518.51	10.9349
1520.07	8.66171
1521.63	7.84642
1523.18	5.47405
1524.74	4.97798
1526.29	5.01701
1527.85	1.97172
1529.4	1.26573
1530.96	1.99863
1532.51	2.373
1534.06	3.03147
1535.62	4.15562
1537.17	4.24469
1538.72	5.26954
1540.28	7.5959
1541.83	9.1019
1543.38	9.98829
1544.93	12.7057
1546.48	12.7199
1548.03	14.3035
1549.59	17.7043
1551.14	18.4572
1552.69	21.5192
1554.24	24.8833
1555.79	25.7096
1557.34	26.7346
1558.88	30.5078
1560.43	31.6889
1561.98	32.9723
1563.53	36.4856
1565.08	40.1468
1566.62	43.1886
1568.17	45.2602
1569.72	46.7977
1571.27	49.2814
1572.81	49.5502
1574.36	51.2451
1575.9	51.2789
1577.45	52.2526
1579	53.7302
1580.54	54.0513
1582.09	55.3697
1583.63	55.9226
1585.17	56.9121
1586.72	58.5048
1588.26	56.9605
1589.8	56.6524
1591.35	57.2403
1592.89	57.612
1594.43	57.6006
1595.97	56.1667
1597.52	56.9004
1599.06	55.4274
1600.6	53.5586
1602.14	53.4535
1603.68	53.5894
1605.22	52.5798
1606.76	54.0929
1608.3	53.6694
1609.84	54.3324
1611.38	53.1167
1612.92	53.556
1614.46	52.3264
1615.99	54.0485
1617.53	54.2921
1619.07	55.2828
1620.61	55.3107
1622.14	55.7978
1623.68	55.595
1625.22	56.5332
1626.75	57.1554
1628.29	56.5882
1629.82	55.1565
1631.36	54.5378
1632.9	55.6663
1634.43	55.9029
1635.96	56.7695
1637.5	55.0112
1639.03	55.2551
1640.57	56.6392
1642.1	56.3648
1643.63	54.8183
1645.16	53.5924
1646.7	52.6998
1648.23	52.4473
1649.76	51.7129
1651.29	52.385
1652.82	52.781
1654.36	54.6685
1655.89	54.8822
1657.42	54.9398
1658.95	55.7409
1660.48	54.3071
1662.01	53.1241
1663.53	53.1458
1665.06	50.1414
1666.59	49.7409
1668.12	49.0257
1669.65	48.0373
1671.18	46.4874
1672.7	45.9829
1674.23	45.5422
1675.76	44.2872
1677.29	42.9246
1678.81	42.5327
1680.34	39.9073
1681.86	39.5281
1683.39	38.725
1684.91	36.574
1686.44	36.3785
1687.96	33.4544
1689.49	33.126
1691.01	32.033
1692.54	32.0064
1694.06	31.2774
1695.58	30.2335
1697.11	28.278
1698.63	25.9928
1700.15	25.4472
1701.67	23.5441
1703.2	22.5004
1704.72	20.0251
1706.24	19.0838
1707.76	18.482
1709.28	17.1502
1710.8	13.3152
1712.32	12.5405
1713.84	10.2868
1715.36	10.7455
1716.88	11.5923
1718.4	10.4604
1719.91	10.0315
1721.43	8.79787
1722.95	7.9808
1724.47	8.25751
1725.99	7.72298
1727.5	7.62989
1729.02	7.21308
1730.54	6.39007
1732.05	4.81492
1733.57	5.30161
1735.09	5.07522
1736.6	4.14045
1738.12	4.71707
1739.63	4.68561
1741.15	2.91676
1742.66	3.39317
1744.18	3.66746
1745.69	5.18896
1747.2	4.92438
1748.72	5.13155
1750.23	4.60423
1751.74	4.69875
1753.25	3.68202
1754.77	3.53783
1756.28	4.2983
1757.79	5.43977
1759.3	4.58158
1760.81	4.67567
1762.32	5.85184
1763.83	6.76907
1765.34	7.44283
1766.85	8.25568
1768.36	8.91962
1769.87	9.29427
1771.38	8.97936
1772.89	9.23163
1774.4	9.23771
1775.91	10.8503
1777.41	11.0524
1778.92	12.2596
1780.43	12.0576
1781.94	13.5222
1783.44	13.8836
1784.95	14.8856
1786.45	15.116
1787.96	16.5339
1789.47	17.1807
1790.97	19.0146
1792.48	19.4212
1793.98	18.9132
1795.48	19.3903
1796.99	19.092
1798.49	20.0734
1800	20.7318
1801.5	21.2787
1803	22.0058
1804.51	22.5759
1806.01	22.7719
1807.51	23.9519
1809.01	25.0821
1810.51	24.4296
1812.02	23.7941
1813.52	23.6708
1815.02	22.8579
1816.52	22.6652
1818.02	22.8736
1819.52	22.2295
1821.02	22.1347
1822.52	21.7759
1824.02	20.6338
1825.51	20.5216
1827.01	20.0235
1828.51	19.6849
1830.01	20.5883
1831.51	21.2348
1833	20.5837
1834.5	19.7582
1836	20.2237
1837.5	20.3032
1838.99	20.7703
1840.49	19.6019
1841.98	20.3139
1843.48	18.8873
1844.97	18.868
1846.47	18.7432
1847.96	18.5382
1849.46	18.3068
1850.95	18.6397
1852.45	18.8627
1853.94	18.8713
1855.43	18.3589
1856.92	18.4058
1858.42	18.117
1859.91	18.3179
1861.4	18.7779
1862.89	19.7469
1864.39	21.0042
1865.88	22.24
1867.37	22.3851
1868.86	23.7819
1870.35	23.7154
1871.84	24.01
1873.33	24.9826
1874.82	25.7014
1876.31	26.4559
1877.8	26.8964
1879.29	27.5952
1880.77	26.8013
1882.26	27.4013
1882.51	27.5218
1884	25.885
1885.5	25.9443
1886.99	25.1514
1888.48	25.0834
1889.98	24.6461
1891.47	25.2184
1892.97	24.6508
1894.46	25.5727
1895.95	25.1332
1897.44	24.3174
1898.93	25.1017
1900.42	24.2535
1901.92	24.0826
1903.41	22.5737
1904.9	21.2159
1906.39	20.2667
1907.88	20.3936
1909.37	21.1302
1910.86	20.0114
1912.35	18.4145
1913.84	16.7324
1915.32	14.943
1916.81	13.9839
1918.3	14.2212
1919.79	13.8744
1921.28	12.6588
1922.76	11.8922
1924.25	10.5555
1925.74	10.3267
1927.22	8.78784
1928.71	7.15399
1930.2	6.98628
1931.68	7.16611
1933.17	8.45684
1934.65	8.53011
1936.14	9.00054
1937.62	8.57513
1939.11	8.42091
1940.59	8.34851
1942.08	8.10689
1943.56	6.9587
1945.04	7.29304
1946.53	6.28116
1948.01	6.24551
1949.49	6.34406
1950.97	6.84408
1952.45	6.75865
1953.94	6.48628
1955.42	7.09878
1956.9	7.88019
1958.38	6.88887
1959.86	8.16919
1961.34	7.75689
1962.82	9.59697
1964.3	8.70274
1965.78	9.16477
1967.26	8.11972
1968.74	9.05351
1970.22	7.3764
1971.69	7.60054
1973.17	7.50758
1974.65	7.00182
1976.13	7.30165
1977.61	5.56516
1979.08	5.47244
1980.56	5.13645
1982.03	4.75305
1983.51	3.19915
1984.99	2.20252
1986.46	1.51653
1987.94	2.84385
1989.41	2.17504
1990.89	3.28026
1992.36	3.02678
1993.84	2.73008
1995.31	2.09695
1996.78	1.99786
1998.26	1.91376
1999.73	3.21045
2001.2	2.02665
2002.68	1.17054
2004.15	1.37297
2005.62	2.1395
2007.09	2.26086
2008.56	1.6795
2010.04	1.50045
2011.51	0.823235
2012.98	1.54656
2014.45	1.60357
2015.92	1.2863
2017.39	1.04663
2018.86	1.85275
2020.33	4.19761
2021.8	6.79639
2023.27	7.97146
2024.74	8.85733
2026.2	9.7668
2027.67	11.1359
2029.14	13.0784
2030.61	12.9233
2032.07	13.4365
2033.54	15.1373
2035.01	15.1006
2036.47	16.4904
2037.94	16.5603
2039.41	18.552
2040.87	18.8431
2042.34	20.6951
2043.8	20.4308
2045.27	21.1619
2046.73	21.8645
2048.2	22.7501
2049.66	22.4223
2051.12	22.429
2052.59	23.7275
2054.05	25.3129
2055.51	26.0937
2056.98	26.6332
2058.44	28.4452
2059.9	28.8647
2061.36	29.2392
2062.82	29.0982
2064.29	29.3978
2065.75	28.9397
2067.21	29.9746
2068.67	31.0659
2070.13	31.5101
2071.59	30.5306
2073.05	31.1435
2074.51	31.0456
2075.97	31.1127
2077.43	32.6377
2078.88	35.229
2080.34	36.4844
2081.8	37.5702
2083.26	39.3211
2084.72	40.868
2086.17	43.3409
2087.63	45.2627
2089.09	47.4504
2090.54	49.3163
2092	53.2746
2093.46	55.4846
2094.91	56.819
2096.37	57.2811
2097.82	60.3426
2099.28	63.1848
2100.73	65.5373
2102.19	68.4606
2103.64	69.3066
2105.09	71.5487
2106.55	73.584
2108	74.8183
2109.46	76.1956
2110.91	78.2706
2112.36	79.8427
2113.81	81.8048
2115.27	83.3766
2116.72	84.673
2118.17	85.8278
2119.62	88.3405
2121.07	89.1721
2122.52	90.5624
2123.97	93.1374
2125.42	96.1052
2126.87	97.5433
2128.32	97.8462
2129.77	99.668
2131.22	101.709
2132.67	102.761
2134.12	103.131
2135.57	106.585
2137.01	108.566
2138.46	111.694
2139.91	113.405
2141.36	115.986
2142.8	118.53
2144.25	119.892
2145.7	123.685
2147.14	125.62
2148.59	127.793
2150.03	130.286
2151.48	131.173
2152.92	132.003
2154.37	132.795
2155.81	134.493
2157.26	135.859
2158.7	137.778
2160.15	139.284
2161.59	139.564
2163.03	139.39
2164.48	140.298
2165.92	140.313
2167.36	140.101
2168.8	140.543
2170.25	139.835
2171.69	138.274
2173.13	138.002
2174.57	137.097
2176.01	135.109
2177.45	134.862
2178.89	134.698
2180.33	132.1
2181.77	130.126
2183.21	129.553
2184.65	128.297
2186.09	126.24
2187.53	124.25
2188.97	123.692
2190.41	121.028
2191.84	119.355
2193.28	116.949
2194.72	115.275
2196.16	113.791
2197.59	111.636
2199.03	108.378
2200.47	106.171
2201.9	105.741
2203.34	103.757
2204.78	101.372
2206.21	100.819
2207.65	101.587
2209.08	100.18
2210.51	98.686
2211.95	97.377
2213.38	97.5216
2214.82	95.4571
2216.25	92.3845
2217.68	91.3882
2219.12	88.7241
2220.55	85.5833
2221.98	83.364
2223.42	81.0982
2224.85	80.1452
2226.28	78.3652
2227.71	77.0584
2229.14	76.4549
2230.57	75.0472
2232	73.0327
2233.43	70.2934
2234.86	69.3525
2236.29	67.4154
2237.72	66.1012
2239.15	64.3074
2240.58	63.0821
2242.01	60.8132
2243.44	59.7085
2244.87	59.4922
2246.3	59.014
2247.73	57.877
2249.15	57.4923
2250.58	55.7793
2252.01	54.0962
2253.43	53.0297
2254.86	53.2719
2256.29	53.0993
2257.71	51.6962
2259.14	50.34
2260.56	49.3156
2261.99	47.1819
2263.41	46.7459
2264.84	46.6077
2266.26	46.57
2267.69	44.8706
2269.11	44.1213
2270.54	43.2001
2271.96	43.2355
2273.38	43.5255
2274.81	43.0375
2276.23	42.417
2277.65	43.7118
2279.07	42.3779
2280.49	41.4468
2281.92	40.8759
2283.34	40.4679
2284.76	38.702
2286.18	38.3022
2287.6	37.9727
2289.02	37.8428
2290.44	37.7653
2291.86	37.9371
2293.28	37.9709
2294.7	36.2171
2296.12	36.7324
2297.54	36.7075
2298.96	37.1229
2300.38	37.3276
2301.79	36.5668
2303.21	35.9994
2304.63	35.1812
2306.05	34.9848
2307.46	34.0306
2308.88	34.4322
2310.3	34.4166
2311.71	33.5771
2313.13	34.018
2314.55	33.8887
2315.96	34.1297
2317.38	34.3406
2318.79	32.4393
2320.21	31.7223
2321.62	31.2213
2323.03	30.9106
2324.45	29.4736
2325.86	29.7602
2327.27	30.256
2328.69	29.3656
2330.1	28.3797
2331.51	27.0195
2332.93	26.6268
2334.34	26.6735
2335.75	26.3027
2337.16	24.6997
2338.57	23.2227
2339.99	24.4171
2341.4	23.9265
2342.81	23.7841
2344.22	22.7816
2345.63	21.9153
2347.04	21.089
2348.45	21.5162
2349.86	20.6923
2351.26	21.2472
2352.67	22.5073
2354.08	21.6563
2355.49	20.4977
2356.9	21.6225
2358.31	20.537
2359.71	20.257
2361.12	20.065
2362.53	18.3602
2363.94	17.4219
2365.34	17.86
2366.75	18.2492
2368.15	17.6702
2369.56	18.4124
2370.97	16.9204
2372.37	16.1577
2373.78	14.3647
2375.18	13.6601
2376.59	14.4172
2377.99	14.223
2379.39	13.6777
2380.8	13.0846
2382.2	11.2058
2383.61	11.5896
2385.01	8.61629
2386.41	7.65541
2387.81	7.37583
2389.22	6.12753
2390.62	6.63497
2392.02	6.99024
2393.42	6.69169
2394.82	4.90961
2396.22	6.41306
2397.63	6.21006
2399.02	5.02314
2400.43	4.64794
2401.82	4.28436
2403.23	6.36631
2404.62	5.9459
2406.02	6.8428
2407.42	7.76244
2408.82	8.44509
2410.22	9.90252
2411.62	10.286
2413.02	10.4513
2414.41	10.9519
2415.81	12.143
2417.21	12.7635
2418.61	13.6237
2420	15.1327
2421.4	17.2868
2422.79	16.9304
2424.19	15.9462
2425.59	16.1754
2426.98	17.8594
2428.38	17.0725
2429.77	17.3586
2431.17	16.7483
2432.56	16.5935
2433.96	17.5517
2435.35	18.8962
2436.74	18.097
2438.14	18.7533
2439.53	20.3158
2440.92	19.3197
2442.32	20.1207
2443.71	20.6045
2445.1	22.3787
2446.49	23.4477
2447.88	22.3349
2449.28	21.6727
2450.67	20.8755
2452.06	20.0963
2453.45	20.5555
2454.84	20.0544
2456.23	20.9112
2457.62	21.4826
2459.01	21.4884
2460.4	20.6374
2461.79	19.1759
2463.18	17.9111
2464.57	16.8043
2465.96	17.0774
2467.34	15.1411
2468.73	15.1247
2470.12	13.5934
2471.51	12.6439
2472.89	11.9919
2474.28	10.973
2475.67	12.3135
2477.05	11.2004
2478.44	9.6412
2479.83	8.89651
2481.21	7.9662
2482.6	8.30544
2483.98	8.72537
2485.37	6.88408
2486.75	6.11563
2488.14	5.82081
2489.52	5.38794
2490.9	3.99415
2492.29	1.44435
2493.67	0.0806724
2495.06	-0.921556
2496.44	-1.56225
2497.82	-3.13966
2499.2	-3.36767
2500.59	-4.66181
2501.97	-3.31266
2503.35	-3.4336
2504.73	-2.98054
2506.11	-2.86029
2507.49	-0.74987
2508.88	-0.307571
2510.26	-0.797184
2511.63	0.0136514
2513.01	0.75253
2514.39	0.350957
2515.77	-0.608817
2517.15	-0.563464
2518.53	0.0914179
2519.91	1.24454
2521.29	1.573
2522.67	2.6942
2524.05	3.60389
2525.42	4.93073
2526.8	5.9281
2528.18	5.95826
2529.56	6.02502
2530.93	7.56358
2532.31	8.22614
2533.69	9.33022
2535.06	8.79363
2536.44	9.57252
2537.81	11.1825
2539.19	11.4194
2540.56	12.5771
2541.94	13.0363
2543.31	13.7709
2544.69	14.7544
2546.06	14.2498
2547.44	15.5064
2548.81	16.1029
2550.18	17.046
2551.56	17.6
2552.93	15.9852
2554.3	14.9787
2555.68	16.8575
2557.05	16.2513
2558.42	15.9028
2559.79	16.0501
2561.16	15.0095
2562.53	15.6044
2563.9	15.5275
2565.28	15.6453
2566.64	15.0353
2568.02	15.2504
2569.38	13.7332
2570.76	15.0733
2572.12	13.6443
2573.49	14.0136
2574.86	15.0593
2576.23	14.3596
2577.6	13.2661
2578.97	12.7216
2580.34	12.0803
2581.7	12.1621
2583.07	10.7189
2584.44	10.2122
2585.81	10.7465
2587.17	9.70991
2588.54	9.67735
2589.91	9.45731
2591.27	9.30295
2592.64	9.75672
2594	10.0805
2595.37	8.46375
2596.73	8.63515
2598.1	7.17354
2599.46	6.83357
2600.83	5.41243
2602.19	4.5484
2603.55	4.20764
2604.92	5.65586
2606.28	5.12574
2607.64	4.21303
2609.01	3.83317
2610.37	3.63089
2611.73	3.66728
2613.09	4.44185
2614.46	4.50746
2615.82	4.0647
2617.18	3.29035
2618.54	3.82723
2619.9	3.44757
2621.26	4.15113
2622.62	4.31578
2623.98	5.32325
2625.34	5.39585
2626.7	6.79752
2628.06	7.12059
2629.42	6.32175
2630.78	6.72828
2632.14	6.10866
2633.5	6.14036
2634.86	5.45723
2636.22	6.04127
2637.57	5.73264
2638.93	7.3723
2640.29	7.26193
2641.64	8.05889
2643	9.07101
2644.36	8.48969
2645.72	7.71723
2647.07	8.08069
2648.43	8.7959
2649.78	8.90004
2651.14	7.70711
2652.49	8.00633
2653.85	8.58824
2655.2	8.3395
2656.56	9.25256
2657.91	10.1493
2659.27	10.4248
2660.62	11.7963
2661.97	11.6724
2663.33	11.3427
2664.68	11.8453
2666.03	11.6085
2667.38	12.3657
2668.74	12.9404
2670.09	13.2417
2671.44	14.4011
2672.79	14.3071
2674.14	13.5631
2675.49	13.9571
2676.84	13.6338
2678.2	13.4305
2679.55	13.7732
2680.89	14.0163
2682.24	12.9829
2683.59	11.6386
2684.94	12.0051
2686.29	12.5307
2687.64	12.6792
2688.99	13.4125
2690.34	12.8093
2691.69	13.5364
2693.04	13.0587
2694.38	11.8607
2695.73	10.6691
2697.08	10.2798
2698.43	10.13
2699.77	10.1787
2701.12	10.2078
2702.46	9.78993
2703.81	11.0193
2705.16	11.3931
2706.5	11.6947
2707.85	11.7305
2709.19	12.7856
2710.54	12.8081
2711.88	12.8499
2713.23	13.3883
2714.57	14.0707
2715.92	13.2676
2717.26	14.0546
2718.6	15.3028
2719.95	15.3397
2721.29	16.5165
2722.63	17.3815
2723.97	17.9463
2725.32	18.6645
2726.66	18.6302
2728	18.4792
2729.34	17.5683
2730.68	18.3789
2732.02	18.4792
2733.36	18.6031
2734.7	17.4297
2736.04	17.1994
2737.39	15.5108
2738.72	16.0744
2740.06	14.9248
2741.4	14.4956
2742.74	12.8891
2744.08	11.7178
2745.42	10.7512
2746.76	10.7395
2748.1	9.63995
2749.44	8.79491
2750.77	8.02543
2752.11	8.37497
2753.45	8.12699
2754.78	6.83537
2756.12	6.03302
2757.46	5.53604
2758.79	4.71355
2760.13	3.99404
2761.47	4.64475
2762.8	4.49527
2764.14	4.92359
2765.47	4.62815
2766.81	4.54207
2768.14	5.25934
2769.48	4.25325
2770.81	4.56348
2772.14	4.3998
2773.48	4.03559
2774.81	3.90346
2776.14	4.10922
2777.48	3.79366
2778.81	3.65463
2780.14	3.17003
2781.47	2.17956
2782.81	2.80038
2784.14	4.06722
2785.47	4.57815
2786.8	4.11598
2788.13	5.57807
2789.46	4.73726
2790.79	3.94868
2792.12	3.86646
2793.46	3.20222
2794.79	2.21576
2796.11	1.79291
2797.44	2.10193
2798.77	0.240034
2800.1	-0.777431
2801.43	-1.84647
2802.76	-2.28084
2804.09	-2.78822
2805.42	-2.92588
2806.74	-4.26889
2808.07	-4.94321
2809.4	-6.15372
2810.73	-5.13937
2812.05	-4.40015
2813.38	-4.17907
2814.71	-4.26212
2816.03	-4.26476
2817.36	-4.40538
2818.68	-3.58326
2820.01	-1.34179
2821.33	0.646824
2822.66	2.75809
2823.98	6.1197
2825.31	7.68393
2826.63	10.6094
2827.96	14.6532
2829.28	17.0225
2830.61	20.9885
2831.93	23.9414
2833.25	27.6957
2834.57	31.5678
2835.9	35.423
2837.22	39.9895
2838.54	45.0896
2839.86	48.5674
2841.18	52.5374
2842.51	58.3026
2843.83	62.242
2845.15	66.8002
2846.47	71.6642
2847.79	76.6603
2849.11	82.7613
2850.43	87.2766
2851.75	92.365
2853.07	96.1017
2854.39	100.709
2855.71	104.189
2857.03	107.429
2858.35	111.536
2859.67	115.488
2860.98	119.144
2862.3	122.315
2863.62	124.069
2864.94	125.9
2866.25	128.532
2867.57	132.254
2868.89	135.285
2870.21	138.262
2871.52	140.325
2872.84	142.254
2874.15	143.659
2875.47	145.427
2876.78	147.397
2878.1	148.155
2879.42	148.609
2880.73	151.398
2882.04	153.298
2883.36	154.925
2884.67	158.027
2885.99	160.645
2887.3	161.473
2888.61	163.296
2889.93	166.596
2891.24	167.585
2892.55	170.787
2893.87	174.066
2895.18	176.701
2896.49	179.356
2897.8	183.257
2899.11	187.507
2900.42	191.81
2901.74	196.753
2903.05	200.157
2904.36	204.153
2905.67	209.653
2906.98	215.876
2908.29	223.701
2909.6	230.438
2910.91	237.795
2912.22	243.663
2913.53	250.812
2914.83	257.8
2916.14	263.797
2917.45	270.496
2918.76	275.866
2920.07	282.928
2921.37	288.81
2922.68	294.867
2923.99	301.069
2925.3	304.492
2926.6	308.511
2927.91	311.338
2929.22	314.768
2930.52	317.818
2931.83	319.834
2933.13	321.347
2934.44	319.979
2935.74	318.206
2937.05	316.331
2938.35	313.644
2939.66	311.116
2940.96	307.131
2942.27	303.782
2943.57	300.636
2944.87	295.454
2946.18	290.46
2947.48	283.783
2948.78	278.52
2950.09	273.431
2951.39	265.239
2952.69	259.139
2953.99	253.822
2955.29	246.933
2956.6	239.205
2957.9	232.799
2959.2	225.838
2960.5	219.052
2961.8	212.21
2963.1	206.543
2964.4	199.685
2965.7	192.426
2967	186.509
2968.3	180.403
2969.6	176.05
2970.9	172.084
2972.2	166.512
2973.49	162.556
2974.79	157.38
2976.09	151.483
2977.39	146.381
2978.69	141.498
2979.98	136.226
2981.28	132.069
2982.58	127.232
2983.88	122.846
2985.17	118.989
2986.47	114.034
2987.76	110.387
2989.06	105.35
2990.36	99.612
2991.65	95.7531
2992.95	89.9121
2994.24	85.6417
2995.54	79.737
2996.83	74.7756
2998.12	70.0986
2999.42	65.0049
3000.71	61.2299
3002	57.079
3003.3	52.6134
3004.59	49.4467
3005.88	45.4933
3007.18	42.5498
3008.47	39.0809
3009.76	34.4685
3011.05	31.8317
3012.35	28.7792
3013.64	26.9451
3014.93	23.316
3016.22	19.9226
3017.51	19.7258
3018.8	17.6534
3020.09	14.4567
3021.38	11.8776
3022.67	10.7407
3023.96	8.59152
3025.25	6.38747
3026.54	4.29064
3027.83	3.14255
3029.12	2.5254
3030.41	2.25434
3031.69	2.21246
3032.98	1.31882
3034.27	0.762193
3035.56	-0.0430091
3036.85	-0.560945
3038.13	-0.232002
3039.42	-1.55919
3040.71	-2.28109
3041.99	-2.88879
3043.28	-3.82183
3044.57	-3.1319
3045.85	-2.31004
3047.14	-2.54034
3048.42	-1.76428
3049.71	-1.64102
3050.99	-0.807576
3052.28	-0.0540327
3053.56	-1.53127
3054.85	-1.59024
3056.13	-0.846496
3057.42	-0.46144
3058.7	0.557479
3059.98	0.774733
3061.27	1.49064
3062.55	0.762657
3063.83	1.57573
3065.11	2.16511
3066.4	1.88034
3067.68	2.56643
3068.96	3.25359
3070.24	3.38767
3071.52	4.10238
3072.8	5.09081
3074.09	5.01562
3075.37	5.20403
3076.65	5.70481
3077.93	6.89209
3079.21	7.09943
3080.49	8.25591
3081.77	9.65624
3083.05	9.45669
3084.32	9.48285
3085.61	8.96265
3086.88	9.89723
3088.16	9.30527
3089.44	9.20167
3090.72	10.5823
3092	12.2771
3093.27	13.3539
3094.55	14.2152
3095.83	14.7763
3097.11	16.3668
3098.38	17.2661
3099.66	19.2414
3100.94	20.4179
3102.21	21.4763
3103.49	21.4379
3104.76	22.9412
3106.04	23.777
3107.31	25.5985
3108.59	27.8005
3109.86	29.4615
3111.14	30.2693
3112.41	30.5529
3113.69	31.5257
3114.96	32.8494
3116.23	33.3099
3117.51	34.1879
3118.78	36.4468
3120.05	38.1713
3121.33	39.7992
3122.6	41.0524
3123.87	42.556
3125.14	43.8223
3126.42	45.186
3127.69	48.3153
3128.96	49.5863
3130.23	51.396
3131.5	54.0292
3132.77	56.0037
3134.04	58.1618
3135.31	60.1136
3136.58	61.5421
3137.85	62.7499
3139.12	64.9783
3140.39	67.2589
3141.66	69.4588
3142.93	71.5613
3144.2	74.2349
3145.47	77.4271
3146.74	82.0757
3148	88.0233
3149.27	96.4839
