#Acq. time (s)=	45
#Accumulations=	2
#Range (cm-¹)=	200...3150
#Windows=	2
#Auto scanning=	Off
#Autofocus=	Off
#Macrospot=	Off
#AutoExposure=	Off
#Spike filter=	Multiple accum.
#Delay time (s)=	0
#Binning=	1
#Readout mode=	Signal
#DeNoise=	Off
#ICS correction=	On
#Dark correction=	Off
#Inst. Process=	Off
#Detector Gain=	Best Dynamic Range
#Detector ADC=	20 kHz       
#Detector temperature (°C)=	-69.85
#Instrument=	LabRAM HR Evol
#Detector=	Synapse
#Objective=	x100
#Grating=	600 gr/mm
#ND Filter=	100%
#Laser (nm)=	532 
#Hole=	100.021
#Range=	Auto
#Laser Pol.=	No
#Raman. Pol.=	No
#Laser Pol. (°)=	-0.0007625
#Raman Pol. (°)=	89.9995
#Collection=	Microscope
#StageXY=	Marzhauser
#StageZ=	Marzhauser
#X (µm)=	19300.1
#Y (µm)=	3092.2
#Z (µm)=	1046.85
#Full time(mm:ss)=	3:18
#Project=	
#Sample=	
#Site=	
#Title=	Mb_50_18_13_2x_45s_532 nm_x100_100%_600 gr_mm
#Remark=	
#Date=	12.07.2022 11:13
#Acquired=	12.07.2022 11:13:15
#Base:Fit=	10.08.2022 10:49:18
#Base:Sub=	10.08.2022 10:49:30
#Filter:Polynom=	16.08.2022 10:14:59
#AxisType[0]=Intens
#AxisUnit[0]=Cnt
#AxisType[1]=Spectr
#AxisUnit[1]=1/cm
200.388	7.14518
202.204	6.09038
204.019	5.40286
205.832	5.01905
207.646	4.41854
209.459	4.12997
211.274	3.75508
213.087	3.38318
214.899	3.95602
216.711	4.00926
218.524	4.55374
220.335	4.8842
222.146	5.92924
223.956	6.25605
225.766	6.2978
227.576	6.14749
229.388	6.5286
231.197	5.61993
233.005	5.52395
234.813	4.77841
236.621	5.85722
238.429	5.56367
240.236	6.25412
242.045	7.1277
243.852	6.40088
245.658	6.30245
247.464	5.67535
249.269	5.87946
251.074	6.02432
252.879	5.74595
254.683	5.86079
256.487	6.16594
258.291	5.21723
260.094	5.48038
261.897	4.77032
263.702	4.11924
265.504	4.45764
267.306	3.44565
269.108	2.60622
270.909	2.73073
272.71	2.22266
274.511	3.18286
276.311	4.40981
278.111	4.37526
279.91	4.135
281.709	3.86615
283.508	3.75979
285.306	4.73144
287.105	4.27898
288.9	4.5221
290.698	4.36321
292.495	4.61611
294.291	4.99536
296.088	5.80306
297.884	6.00458
299.679	7.28451
301.475	8.46532
303.27	9.8394
305.064	10.6751
306.858	10.8802
308.652	10.8013
310.444	10.6609
312.237	11.138
314.03	9.94604
315.822	10.1227
317.615	10.142
319.406	10.9912
321.198	11.7591
322.987	12.9606
324.778	13.6951
326.568	14.8488
328.358	13.926
330.148	12.7665
331.935	12.3391
333.724	10.8201
335.513	11.3259
337.301	11.1854
339.089	11.5072
340.875	11.2561
342.662	10.6784
344.449	9.85449
346.236	9.00173
348.02	8.12489
349.806	9.04744
351.592	9.81595
353.375	10.5839
355.16	11.2844
356.944	13.5968
358.728	14.784
360.51	15.1884
362.294	17.348
364.077	18.3252
365.858	18.9609
367.64	19.3228
369.422	19.2451
371.202	20.5114
372.983	22.8052
374.764	24.5455
376.543	25.3157
378.324	25.3959
380.102	26.8006
381.881	27.3704
383.661	29.1558
385.438	29.1864
387.216	29.6393
388.993	30.6567
390.771	29.6421
392.548	28.5359
394.324	27.1789
396.101	26.4448
397.875	26.1501
399.651	26.2115
401.425	25.6818
403.201	24.5269
404.974	24.1419
406.749	23.6149
408.524	22.4702
410.296	20.6293
412.07	17.5212
413.841	15.8192
415.614	13.0206
417.385	11.2391
419.156	9.4698
420.928	9.5998
422.698	7.71125
424.469	7.51113
426.238	5.51703
428.009	4.21527
429.777	2.87696
431.548	2.21468
433.315	2.06492
435.083	2.43829
436.852	2.34458
438.618	3.08249
440.387	1.80718
442.153	1.63294
443.919	2.33966
445.686	3.13264
447.451	2.48247
449.218	3.01378
450.982	4.59559
452.746	4.61954
454.512	5.32483
456.275	6.50784
458.038	7.04483
459.803	8.44853
461.565	9.56623
463.327	10.4148
465.091	10.5215
466.852	10.2284
468.613	11.5423
470.374	11.9638
472.136	12.8991
473.896	12.3399
475.655	14.0067
477.415	14.2071
479.176	15.6772
480.934	16.5228
482.692	18.1836
484.45	19.9048
486.21	21.3227
487.967	21.5997
489.724	23.3135
491.481	24.8283
493.237	25.3827
494.995	27.5594
496.75	26.6862
498.506	27.9398
500.26	28.4347
502.015	31.0836
503.771	31.4498
505.525	31.6697
507.279	31.2009
509.032	32.3206
510.785	32.8407
512.537	33.0222
514.289	32.3776
516.041	33.8076
517.793	34.9733
519.546	35.1365
521.297	34.7986
523.047	33.7239
524.797	32.2051
526.547	31.2155
528.297	30.1284
530.046	29.6629
531.795	29.69
533.543	28.4232
535.291	26.8996
537.039	25.899
538.787	24.6998
540.534	21.8317
542.281	20.7532
544.027	18.9643
545.773	16.3634
547.519	14.9606
549.264	13.4651
551.01	12.7506
552.754	11.1098
554.499	8.89522
556.243	8.01207
557.987	6.02426
559.73	5.64977
561.474	5.15396
563.216	5.25873
564.959	4.59458
566.701	5.00828
568.441	4.74678
570.182	5.16288
571.923	5.5573
573.664	6.11626
575.405	6.52271
577.145	7.44481
578.885	7.20399
580.624	7.07476
582.361	8.11044
584.1	6.33595
585.839	7.50315
587.577	7.80026
589.315	8.67659
591.052	7.71119
592.787	7.77178
594.524	8.40424
596.26	10.1946
597.997	10.5613
599.732	11.4667
601.466	12.9905
603.201	13.7815
604.936	13.2557
606.67	11.8237
608.403	11.7234
610.136	11.1522
611.87	12.2646
613.603	13.0682
615.334	13.1364
617.067	12.912
618.799	13.5679
620.529	12.6118
622.26	12.6566
623.991	12.8231
625.72	11.7847
627.451	10.8577
629.181	12.2818
630.909	12.5476
632.638	13.0202
634.368	13.6433
636.095	14.5181
637.823	14.817
639.551	13.4098
641.277	12.3482
643.005	13.9821
644.73	14.3296
646.457	16.1217
648.184	15.5054
649.908	16.227
651.634	17.611
653.357	18.0993
655.083	19.4254
656.806	20.6472
658.53	20.1141
660.253	20.7036
661.977	20.8082
663.7	21.8801
665.422	22.5919
667.145	22.1944
668.865	22.4965
670.588	22.112
672.308	24.0205
674.027	24.0009
675.749	24.7438
677.468	24.2075
679.188	25.6019
680.907	26.5271
682.627	27.5462
684.345	27.8105
686.064	28.0541
687.781	27.6959
689.498	27.607
691.216	27.95
692.932	28.0033
694.65	28.5771
696.366	30.0751
698.081	31.1992
699.797	31.152
701.512	31.1961
703.228	32.5976
704.942	33.2924
706.655	33.5326
708.371	33.7205
710.083	34.6545
711.796	34.4324
713.51	35.8286
715.222	36.7568
716.934	36.8279
718.645	36.8533
720.358	37.5668
722.068	37.6208
723.779	36.586
725.49	37.3125
727.2	38.3129
728.909	40.0447
730.618	39.9911
732.329	39.9929
734.037	41.2963
735.745	43.1985
737.453	45.6211
739.16	46.0881
740.869	47.8944
742.576	49.6485
744.282	51.4704
745.988	54.3375
747.694	56.6536
749.401	58.8878
751.107	59.2706
752.811	61.5167
754.516	64.6245
756.22	67.1283
757.924	69.7388
759.627	71.0482
761.332	73.7066
763.035	75.3681
764.738	78.129
766.44	79.451
768.142	80.1625
769.843	81.3305
771.544	82.5943
773.245	83.8305
774.946	85.0886
776.646	85.9619
778.346	86.1788
780.046	86.5411
781.745	87.6618
783.444	88.5921
785.143	89.8293
786.841	90.5157
788.539	89.8455
790.237	88.7496
791.934	87.375
793.631	86.8436
795.328	86.4604
797.024	85.9943
798.72	85.552
800.416	84.8832
802.112	84.1181
803.807	83.2775
805.502	81.4418
807.196	79.6736
808.89	78.6465
810.584	78.8888
812.278	77.8734
813.971	76.8756
815.664	76.058
817.354	75.9103
819.047	77.0863
820.739	76.7868
822.43	77.3061
824.122	76.3165
825.813	76.38
827.503	76.2231
829.192	75.848
830.882	73.8191
832.571	72.3868
834.261	71.6742
835.95	70.7357
837.637	72.0565
839.325	71.4214
841.013	70.4995
842.701	69.5018
844.389	68.1241
846.074	66.7122
847.761	65.0316
849.447	63.9895
851.131	62.4855
852.817	60.4628
854.503	59.9166
856.188	58.5483
857.871	56.8633
859.556	55.9529
861.24	55.2012
862.922	54.0522
864.606	53.2318
866.289	53.335
867.97	52.8538
869.653	51.1947
871.336	50.1203
873.016	48.5886
874.698	47.9894
876.379	47.5857
878.058	46.7248
879.739	46.2525
881.418	45.7541
883.098	44.028
884.778	43.6509
886.456	42.2875
888.135	42.0578
889.812	41.5808
891.49	41.7711
893.167	41.7336
894.845	41.6451
896.523	41.2507
898.198	40.7248
899.875	40.4279
901.55	40.4811
903.226	40.7892
904.901	39.8756
906.576	40.2559
908.25	39.0896
909.925	38.6104
911.598	37.9604
913.271	38.9184
914.945	37.861
916.617	38.9854
918.291	39.8857
919.962	39.2037
921.635	39.2617
923.306	38.7432
924.978	38.1889
926.648	37.4794
928.318	35.3306
929.989	33.9207
931.659	33.7328
933.328	33.4864
934.998	33.3602
936.666	32.9326
938.336	32.8702
940.004	32.0155
941.671	32.4604
943.34	32.783
945.007	33.1105
946.673	33.031
948.339	32.2666
950.007	32.8737
951.672	33.0537
953.337	32.855
955.004	32.6802
956.669	31.0467
958.333	30.3154
959.997	29.7002
961.662	28.1326
963.326	28.4743
964.989	28.2814
966.651	27.111
968.315	27.3204
969.977	27.7547
971.639	28.0576
973.301	27.4199
974.962	26.5819
976.624	25.3455
978.285	24.2416
979.945	23.839
981.605	23.1232
983.264	22.5268
984.924	22.6516
986.583	22.5127
988.243	20.8252
989.901	20.6117
991.56	19.5836
993.217	20.098
994.875	20.2181
996.532	21.1945
998.188	21.7836
999.845	23.4957
1001.5	22.932
1003.16	23.7448
1004.81	24.6856
1006.47	24.812
1008.12	25.5826
1009.78	25.334
1011.43	26.273
1013.09	28.2267
1014.74	30.0962
1016.39	31.0234
1018.05	32.7719
1019.7	33.4516
1021.35	35.3134
1023	37.2074
1024.65	37.9498
1026.31	39.6539
1027.96	40.9061
1029.61	40.7943
1031.26	40.3981
1032.91	41.158
1034.56	40.3904
1036.21	39.4524
1037.86	38.1188
1039.51	37.6168
1041.16	36.9571
1042.8	36.7305
1044.45	36.4718
1046.1	36.5079
1047.75	36.5669
1049.39	36.4421
1051.04	37.6266
1052.69	37.0782
1054.33	35.0479
1055.98	33.2399
1057.62	32.8032
1059.27	31.3056
1060.91	31.4186
1062.56	31.0093
1064.2	30.5797
1065.85	29.9968
1067.49	30.4708
1069.13	29.1591
1070.77	28.6246
1072.42	28.9327
1074.06	30.51
1075.7	31.6203
1077.34	31.5783
1078.98	32.6831
1080.62	33.4334
1082.27	32.9698
1083.91	33.2076
1085.55	33.4746
1087.18	33.0587
1088.82	32.9479
1090.46	33.8369
1092.1	33.9665
1093.74	35.1727
1095.38	35.3042
1097.02	36.0804
1098.65	36.0768
1100.29	36.0588
1101.93	36.0006
1103.56	34.8238
1105.2	33.1693
1106.84	31.011
1108.47	30.8775
1110.11	28.6507
1111.74	27.3613
1113.38	26.3876
1115.01	24.9673
1116.64	23.5452
1118.28	22.0135
1119.91	20.098
1121.54	19.6841
1123.18	18.8883
1124.81	19.142
1126.44	17.97
1128.07	16.5965
1129.7	16.0293
1131.33	15.3224
1132.97	13.1196
1134.6	10.7931
1136.23	9.66118
1137.86	9.48309
1139.49	9.02807
1141.11	8.30483
1142.74	8.18201
1144.37	6.50948
1146	5.8871
1147.63	5.42801
1149.26	4.44932
1150.88	3.13697
1152.51	2.34241
1154.14	2.02245
1155.76	2.2294
1157.39	1.4038
1159.01	0.211143
1160.64	1.0785
1162.27	-0.39466
1163.89	-0.808305
1165.51	-0.186954
1167.14	-0.0860039
1168.76	0.334326
1170.39	-0.250917
1172.01	0.624837
1173.63	0.265903
1175.25	1.63277
1176.88	1.41549
1178.5	1.81797
1180.12	2.5885
1181.74	3.47612
1183.36	3.93441
1184.98	3.50853
1186.6	4.98089
1188.22	6.17545
1189.84	7.06205
1191.46	7.32318
1193.08	7.92886
1194.7	7.85164
1196.32	7.54791
1197.94	7.70457
1199.55	7.52115
1201.17	8.22557
1202.79	8.61001
1204.41	8.38455
1206.02	7.41967
1207.64	7.00915
1209.25	7.66826
1210.87	8.44315
1212.48	8.77038
1214.1	8.5508
1215.71	9.60276
1217.33	12.0084
1218.94	12.7762
1220.56	13.2806
1222.17	14.1893
1223.79	15.149
1225.4	15.426
1227.01	16.6657
1228.62	17.216
1230.23	17.416
1231.85	17.7576
1233.46	18.2796
1235.07	20.258
1236.68	20.3118
1238.29	20.5467
1239.9	21.3241
1241.51	22.948
1243.12	22.397
1244.73	24.094
1246.34	25.6091
1247.94	26.7018
1249.55	26.0998
1251.16	27.1761
1252.77	28.6065
1254.37	29.3117
1255.98	31.3266
1257.59	31.0533
1259.2	33.0781
1260.8	35.1634
1262.41	36.3324
1264.01	36.4922
1265.62	37.281
1267.22	38.5537
1268.83	39.8995
1270.43	40.763
1272.03	42.7456
1273.64	43.352
1275.24	44.772
1276.85	45.236
1278.45	45.8755
1280.05	46.4137
1281.65	47.3734
1283.25	47.6028
1284.85	48.5441
1286.46	49.6426
1288.06	51.2269
1289.66	52.4249
1291.26	53.8444
1292.86	54.2873
1294.46	55.6106
1296.06	56.5522
1297.66	56.9831
1299.25	56.037
1300.85	56.3452
1302.45	57.1676
1304.05	58.0563
1305.65	57.2326
1307.24	57.4174
1308.84	55.3799
1310.43	55.0039
1312.03	53.7342
1313.63	53.6423
1315.22	53.9351
1316.82	53.1665
1318.41	52.5661
1320.01	51.6958
1321.6	50.7208
1323.2	49.1897
1324.79	48.9625
1326.38	48.4489
1327.98	47.1573
1329.57	45.4077
1331.16	44.4981
1332.76	43.99
1334.35	44.0467
1335.94	43.3732
1337.53	43.6623
1339.12	43.2734
1340.71	42.8614
1342.3	42.1924
1343.89	41.537
1345.48	41.2064
1347.07	40.9625
1348.66	41.5981
1350.25	40.408
1351.84	39.8063
1353.43	38.5416
1355.01	37.5909
1356.6	35.9462
1358.19	35.4009
1359.77	35.0281
1361.36	34.183
1362.95	33.9516
1364.53	32.7251
1366.12	32.7692
1367.71	32.1815
1369.29	31.6189
1370.88	29.8887
1372.46	27.7849
1374.04	26.41
1375.63	25.8979
1377.21	25.2321
1378.8	24.7294
1380.38	24.833
1381.96	24.0237
1383.54	22.931
1385.13	21.6682
1386.71	19.8063
1388.29	18.9307
1389.87	19.7494
1391.45	19.0087
1393.03	18.3983
1394.61	17.6959
1396.19	17.0122
1397.77	16.5649
1399.35	16.5894
1400.93	18.3013
1402.51	19.3144
1404.09	20.1562
1405.67	21.0705
1407.24	22.2106
1408.82	24.4305
1410.4	25.6411
1411.98	27.8414
1413.55	29.4348
1415.13	32.2055
1416.71	34.8203
1418.28	35.9882
1419.86	38.8775
1421.43	42.0462
1423.01	45.8104
1424.58	48.2574
1426.16	51.5533
1427.73	54.2293
1429.31	56.217
1430.88	59.5193
1432.45	61.7186
1434.02	64.1902
1435.6	67.4022
1437.17	69.2503
1438.74	71.2696
1440.31	72.3399
1441.88	74.0165
1443.45	73.4674
1445.03	74.2621
1446.6	74.1993
1448.17	73.549
1449.74	72.4354
1451.3	73.0629
1452.87	73.062
1454.44	72.6642
1456.01	71.4975
1457.58	71.734
1459.15	70.5632
1460.72	70.4066
1462.28	69.54
1463.85	68.743
1465.42	66.2364
1466.98	64.5749
1468.55	62.8818
1470.12	60.5264
1471.68	58.1011
1473.25	56.8802
1474.81	56.1832
1476.38	54.0654
1477.94	51.8425
1479.51	49.9037
1481.07	47.2926
1482.63	44.9574
1484.2	42.9393
1485.76	41.3522
1487.32	39.7921
1488.88	37.4022
1490.45	37.5273
1492.01	36.7766
1493.57	36.1935
1495.13	34.2348
1496.69	31.8758
1498.25	30.742
1499.81	30.0438
1501.37	28.9404
1502.93	27.7494
1504.49	26.7255
1506.05	25.2224
1507.61	24.5589
1509.17	23.4284
1510.73	21.4356
1512.28	20.2723
1513.84	18.2505
1515.4	16.3476
1516.96	14.8815
1518.51	13.2789
1520.07	12.8713
1521.63	12.4868
1523.18	13.2647
1524.74	12.7674
1526.29	12.2083
1527.85	11.2762
1529.4	12.0989
1530.96	11.8928
1532.51	12.0762
1534.06	13.0556
1535.62	13.608
1537.17	12.9883
1538.72	14.2632
1540.28	14.2155
1541.83	14.3711
1543.38	14.0283
1544.93	14.133
1546.48	15.2197
1548.03	15.3139
1549.59	16.1866
1551.14	16.2041
1552.69	16.9701
1554.24	16.8489
1555.79	17.0911
1557.34	17.8323
1558.88	18.4921
1560.43	19.2194
1561.98	19.8264
1563.53	21.664
1565.08	24.1657
1566.62	26.4924
1568.17	28.2747
1569.72	29.0965
1571.27	29.9534
1572.81	29.9114
1574.36	30.9957
1575.9	32.0901
1577.45	33.305
1579	34.8503
1580.54	37.1236
1582.09	37.2033
1583.63	37.9957
1585.17	39.0719
1586.72	39.2405
1588.26	40.1989
1589.8	40.7397
1591.35	42.2906
1592.89	43.6574
1594.43	43.7263
1595.97	45.1989
1597.52	45.7057
1599.06	45.0938
1600.6	44.5362
1602.14	43.2053
1603.68	42.7399
1605.22	41.439
1606.76	42.0711
1608.3	40.9609
1609.84	40.4238
1611.38	39.7181
1612.92	39.8622
1614.46	40.4989
1615.99	40.2036
1617.53	40.1126
1619.07	40.2747
1620.61	39.9469
1622.14	40.268
1623.68	41.6311
1625.22	42.2194
1626.75	43.2438
1628.29	42.9058
1629.82	44.5392
1631.36	44.9489
1632.9	46.3099
1634.43	47.5008
1635.96	48.0134
1637.5	49.9239
1639.03	51.1351
1640.57	53.6496
1642.1	54.9774
1643.63	54.2135
1645.16	54.186
1646.7	54.7499
1648.23	54.6566
1649.76	55.9354
1651.29	57.1478
1652.82	57.0181
1654.36	58.0616
1655.89	59.534
1657.42	59.8521
1658.95	58.3577
1660.48	57.4602
1662.01	56.8779
1663.53	56.7237
1665.06	55.8225
1666.59	54.8186
1668.12	53.9422
1669.65	52.2302
1671.18	50.5504
1672.7	49.5398
1674.23	47.5898
1675.76	45.9122
1677.29	44.7974
1678.81	42.9332
1680.34	41.2687
1681.86	39.2759
1683.39	38.5896
1684.91	36.6985
1686.44	35.8875
1687.96	34.286
1689.49	32.1903
1691.01	30.9576
1692.54	29.2672
1694.06	28.4218
1695.58	27.3304
1697.11	25.5542
1698.63	25.0568
1700.15	23.4778
1701.67	23.0909
1703.2	22.3787
1704.72	21.1171
1706.24	20.6199
1707.76	19.3347
1709.28	18.9598
1710.8	18.2022
1712.32	17.1937
1713.84	16.9008
1715.36	15.899
1716.88	15.6284
1718.4	14.2871
1719.91	13.2813
1721.43	13.184
1722.95	12.6605
1724.47	12.1036
1725.99	11.2748
1727.5	10.2615
1729.02	9.34696
1730.54	8.7281
1732.05	8.1719
1733.57	7.34545
1735.09	7.1391
1736.6	6.71499
1738.12	6.97553
1739.63	6.86247
1741.15	6.06905
1742.66	6.37029
1744.18	6.19522
1745.69	6.29607
1747.2	5.9689
1748.72	6.44136
1750.23	6.23136
1751.74	5.87912
1753.25	5.67745
1754.77	5.02836
1756.28	4.69193
1757.79	4.36178
1759.3	4.38633
1760.81	4.04933
1762.32	4.1838
1763.83	3.98463
1765.34	3.72313
1766.85	4.21684
1768.36	3.58465
1769.87	3.54993
1771.38	3.68264
1772.89	3.95522
1774.4	4.21573
1775.91	4.47741
1777.41	5.36496
1778.92	5.03257
1780.43	4.60672
1781.94	5.11442
1783.44	5.15922
1784.95	5.66294
1786.45	5.48407
1787.96	4.76169
1789.47	4.78925
1790.97	4.26453
1792.48	3.9651
1793.98	3.52031
1795.48	3.28024
1796.99	3.31301
1798.49	3.78508
1800	3.56837
1801.5	3.32364
1803	4.06539
1804.51	4.18133
1806.01	4.33223
1807.51	4.54488
1809.01	5.0726
1810.51	4.64926
1812.02	3.48574
1813.52	4.00415
1815.02	4.19315
1816.52	4.56372
1818.02	4.41542
1819.52	4.39156
1821.02	4.22058
1822.52	3.96788
1824.02	4.34758
1825.51	3.4323
1827.01	2.61061
1828.51	2.83411
1830.01	3.00909
1831.51	3.52265
1833	3.58393
1834.5	3.73838
1836	4.19935
1837.5	4.59624
1838.99	4.51632
1840.49	4.06368
1841.98	4.39113
1843.48	4.65802
1844.97	4.77565
1846.47	4.80308
1847.96	4.99944
1849.46	4.5648
1850.95	4.46457
1852.45	5.4043
1853.94	5.18669
1855.43	5.41749
1856.92	5.98692
1858.42	5.62039
1859.91	6.25999
1861.4	6.41369
1862.89	7.2296
1864.39	8.12787
1865.88	8.08757
1867.37	8.97041
1868.86	9.3575
1870.35	10.5408
1871.84	11.2001
1873.33	11.2367
1874.82	11.0805
1876.31	10.4949
1877.8	11.2422
1879.29	11.2583
1880.77	11.5214
1882.26	11.3903
1882.51	11.1462
1884	11.0899
1885.5	10.8209
1886.99	11.1439
1888.48	10.8263
1889.98	11.0405
1891.47	10.6664
1892.97	10.3036
1894.46	9.58805
1895.95	9.71107
1897.44	9.34495
1898.93	8.41796
1900.42	8.96109
1901.92	9.66466
1903.41	10.5003
1904.9	10.0018
1906.39	9.64881
1907.88	10.1084
1909.37	10.5326
1910.86	10.1777
1912.35	9.55937
1913.84	9.45012
1915.32	8.62412
1916.81	8.41174
1918.3	7.32237
1919.79	7.40633
1921.28	6.56055
1922.76	5.99626
1924.25	5.70498
1925.74	5.58154
1927.22	4.32675
1928.71	4.0478
1930.2	3.06248
1931.68	3.47467
1933.17	4.0104
1934.65	4.28696
1936.14	4.04556
1937.62	3.35993
1939.11	2.64524
1940.59	2.07363
1942.08	2.34126
1943.56	2.63402
1945.04	2.60295
1946.53	2.17466
1948.01	1.95901
1949.49	1.31436
1950.97	2.29511
1952.45	1.42752
1953.94	1.8679
1955.42	2.08678
1956.9	2.15376
1958.38	3.23699
1959.86	3.26698
1961.34	3.88529
1962.82	3.83148
1964.3	4.29587
1965.78	4.89587
1967.26	5.19613
1968.74	5.31556
1970.22	6.82902
1971.69	7.23376
1973.17	8.10597
1974.65	8.9112
1976.13	9.4042
1977.61	10.1027
1979.08	9.72821
1980.56	10.1187
1982.03	10.1134
1983.51	9.90461
1984.99	9.61706
1986.46	10.056
1987.94	9.80818
1989.41	9.92491
1990.89	10.3061
1992.36	10.4054
1993.84	11.0593
1995.31	10.1619
1996.78	9.35978
1998.26	8.72942
1999.73	8.1209
2001.2	8.29774
2002.68	8.54776
2004.15	8.68402
2005.62	9.03873
2007.09	8.99522
2008.56	8.94978
2010.04	8.05981
2011.51	7.92066
2012.98	7.3217
2014.45	7.19857
2015.92	8.26328
2017.39	8.33653
2018.86	8.79265
2020.33	7.807
2021.8	8.01391
2023.27	8.08858
2024.74	8.45395
2026.2	8.44541
2027.67	9.33654
2029.14	9.27325
2030.61	8.72407
2032.07	9.61181
2033.54	10.0218
2035.01	10.0624
2036.47	9.23164
2037.94	9.57352
2039.41	9.9959
2040.87	9.33345
2042.34	9.36918
2043.8	9.77569
2045.27	9.49127
2046.73	9.4557
2048.2	9.19538
2049.66	10.0627
2051.12	10.3453
2052.59	10.4457
2054.05	10.7382
2055.51	12.0435
2056.98	13.0636
2058.44	14.0955
2059.9	14.5274
2061.36	15.3689
2062.82	15.7687
2064.29	15.6302
2065.75	16.3164
2067.21	15.8606
2068.67	15.7966
2070.13	15.8126
2071.59	16.8017
2073.05	17.2773
2074.51	19.1233
2075.97	19.9131
2077.43	20.413
2078.88	20.6835
2080.34	21.4646
2081.8	22.1309
2083.26	22.5856
2084.72	23.1034
2086.17	23.2629
2087.63	24.2085
2089.09	25.2949
2090.54	25.8372
2092	25.8617
2093.46	25.6026
2094.91	26.4634
2096.37	27.213
2097.82	27.7072
2099.28	28.4796
2100.73	29.5212
2102.19	29.4896
2103.64	29.9493
2105.09	31.2468
2106.55	31.3783
2108	31.8283
2109.46	32.2216
2110.91	33.9525
2112.36	35.1277
2113.81	36.0072
2115.27	38.167
2116.72	39.6561
2118.17	40.4569
2119.62	42.0244
2121.07	43.726
2122.52	45.7847
2123.97	47.1098
2125.42	48.79
2126.87	50.0369
2128.32	52.3148
2129.77	53.5268
2131.22	55.6494
2132.67	56.3457
2134.12	58.3078
2135.57	59.8999
2137.01	61.4906
2138.46	62.6851
2139.91	64.0712
2141.36	65.7215
2142.8	67.1459
2144.25	68.2348
2145.7	69.9823
2147.14	71.735
2148.59	72.612
2150.03	73.0424
2151.48	74.2932
2152.92	75.6623
2154.37	76.7394
2155.81	77.7221
2157.26	78.6627
2158.7	79.3028
2160.15	80.6867
2161.59	80.7522
2163.03	80.6226
2164.48	80.9235
2165.92	81.6877
2167.36	82.3742
2168.8	82.5003
2170.25	81.6737
2171.69	81.8067
2173.13	81.5833
2174.57	81.5227
2176.01	81.8295
2177.45	81.3475
2178.89	81.0768
2180.33	81.2829
2181.77	80.7065
2183.21	79.9133
2184.65	79.6845
2186.09	79.38
2187.53	79.3426
2188.97	77.8969
2190.41	76.6314
2191.84	75.865
2193.28	74.5301
2194.72	73.304
2196.16	72.5973
2197.59	72.1305
2199.03	71.0414
2200.47	69.9392
2201.9	68.4108
2203.34	67.5368
2204.78	65.7777
2206.21	64.6951
2207.65	63.1185
2209.08	61.0689
2210.51	59.0403
2211.95	57.5283
2213.38	56.2064
2214.82	55.5489
2216.25	54.1381
2217.68	53.111
2219.12	52.3391
2220.55	50.5667
2221.98	48.7691
2223.42	48.0546
2224.85	46.3738
2226.28	45.1482
2227.71	44.7207
2229.14	44.0819
2230.57	42.6062
2232	40.6574
2233.43	38.6175
2234.86	37.9305
2236.29	37.2411
2237.72	36.2192
2239.15	34.9407
2240.58	33.2591
2242.01	32.2238
2243.44	31.085
2244.87	30.0354
2246.3	29.4786
2247.73	28.5473
2249.15	27.7669
2250.58	27.0635
2252.01	26.4499
2253.43	26.4712
2254.86	26.4089
2256.29	27.0147
2257.71	25.9195
2259.14	25.5595
2260.56	24.9291
2261.99	24.2191
2263.41	23.721
2264.84	23.5372
2266.26	23.124
2267.69	22.2342
2269.11	21.808
2270.54	20.7103
2271.96	19.8962
2273.38	19.5933
2274.81	19.0443
2276.23	18.0387
2277.65	17.6659
2279.07	16.9656
2280.49	16.2657
2281.92	15.6287
2283.34	15.0304
2284.76	15.5536
2286.18	14.3033
2287.6	12.4645
2289.02	11.6207
2290.44	11.1733
2291.86	9.28484
2293.28	9.16865
2294.7	9.19858
2296.12	8.7116
2297.54	9.1457
2298.96	9.65988
2300.38	9.40994
2301.79	8.2441
2303.21	7.64579
2304.63	8.2239
2306.05	8.39331
2307.46	7.26569
2308.88	6.90979
2310.3	5.98054
2311.71	6.15362
2313.13	6.62483
2314.55	7.31249
2315.96	8.15805
2317.38	8.25312
2318.79	8.09981
2320.21	8.08825
2321.62	8.31176
2323.03	8.83374
2324.45	9.30628
2325.86	9.96408
2327.27	10.241
2328.69	9.73481
2330.1	10.435
2331.51	10.2268
2332.93	9.849
2334.34	9.91926
2335.75	9.69751
2337.16	9.5719
2338.57	9.95291
2339.99	10.674
2341.4	10.1486
2342.81	8.87167
2344.22	8.81549
2345.63	8.32831
2347.04	8.73619
2348.45	8.29996
2349.86	7.33026
2351.26	6.70413
2352.67	5.78231
2354.08	4.7838
2355.49	4.69207
2356.9	3.2532
2358.31	3.19501
2359.71	3.04003
2361.12	3.20503
2362.53	3.12657
2363.94	3.96961
2365.34	3.97979
2366.75	4.14753
2368.15	3.92597
2369.56	3.77999
2370.97	3.42859
2372.37	2.55913
2373.78	2.44672
2375.18	2.16559
2376.59	1.96443
2377.99	1.08798
2379.39	1.18917
2380.8	1.17449
2382.2	1.85477
2383.61	2.37863
2385.01	2.29614
2386.41	1.99602
2387.81	1.69141
2389.22	2.80618
2390.62	3.87052
2392.02	4.56549
2393.42	5.34723
2394.82	6.21339
2396.22	6.7597
2397.63	6.80611
2399.02	7.1769
2400.43	7.4494
2401.82	8.04457
2403.23	8.25464
2404.62	8.27325
2406.02	8.82485
2407.42	9.52405
2408.82	9.6683
2410.22	9.39613
2411.62	9.00377
2413.02	9.05737
2414.41	10.0345
2415.81	10.0049
2417.21	9.6667
2418.61	8.54189
2420	8.30927
2421.4	7.18529
2422.79	6.53804
2424.19	6.945
2425.59	6.86179
2426.98	6.13236
2428.38	5.58077
2429.77	4.93646
2431.17	5.27441
2432.56	5.03977
2433.96	4.38692
2435.35	3.46264
2436.74	2.77581
2438.14	2.12821
2439.53	1.58378
2440.92	0.536255
2442.32	0.198924
2443.71	0.208219
2445.1	0.0839368
2446.49	-0.00998514
2447.88	-1.05127
2449.28	-1.1946
2450.67	-0.872329
2452.06	-0.25969
2453.45	0.822402
2454.84	0.367043
2456.23	-0.0146444
2457.62	0.188513
2459.01	0.921701
2460.4	0.428801
2461.79	0.673759
2463.18	0.8625
2464.57	0.698762
2465.96	0.449202
2467.34	0.770358
2468.73	0.711242
2470.12	-0.0389022
2471.51	0.619684
2472.89	0.722179
2474.28	1.00544
2475.67	1.9167
2477.05	1.87572
2478.44	1.47973
2479.83	2.07256
2481.21	2.53883
2482.6	2.57188
2483.98	2.72505
2485.37	1.80106
2486.75	1.43799
2488.14	2.10654
2489.52	2.40006
2490.9	2.51364
2492.29	2.98978
2493.67	3.61804
2495.06	3.06973
2496.44	2.76327
2497.82	2.85389
2499.2	3.36227
2500.59	3.67655
2501.97	2.97065
2503.35	2.40364
2504.73	2.2563
2506.11	2.32866
2507.49	2.87852
2508.88	3.0049
2510.26	3.73658
2511.63	3.68327
2513.01	2.90039
2514.39	2.0388
2515.77	1.9196
2517.15	1.85348
2518.53	1.62559
2519.91	1.50456
2521.29	1.91431
2522.67	1.60882
2524.05	1.28923
2525.42	1.40793
2526.8	1.91028
2528.18	1.66153
2529.56	1.53755
2530.93	1.90124
2532.31	2.40013
2533.69	2.9167
2535.06	2.9347
2536.44	3.10594
2537.81	4.21713
2539.19	4.73509
2540.56	6.4985
2541.94	6.72604
2543.31	5.85182
2544.69	6.01182
2546.06	5.69871
2547.44	6.40797
2548.81	7.20397
2550.18	7.15119
2551.56	6.91439
2552.93	7.72324
2554.3	7.59808
2555.68	8.25147
2557.05	7.95171
2558.42	8.07233
2559.79	8.23413
2561.16	8.16688
2562.53	7.63212
2563.9	7.39357
2565.28	6.9105
2566.64	6.06385
2568.02	6.05477
2569.38	6.29702
2570.76	5.86382
2572.12	5.97788
2573.49	5.88824
2574.86	5.57972
2576.23	5.75261
2577.6	4.72314
2578.97	3.63757
2580.34	2.35149
2581.7	2.62863
2583.07	1.7447
2584.44	2.23237
2585.81	2.44752
2587.17	2.66024
2588.54	3.00027
2589.91	2.80091
2591.27	2.83162
2592.64	3.5915
2594	3.03722
2595.37	2.05788
2596.73	2.765
2598.1	3.04079
2599.46	3.83471
2600.83	4.22331
2602.19	4.80232
2603.55	4.4625
2604.92	3.89629
2606.28	4.74071
2607.64	4.59841
2609.01	4.74649
2610.37	3.56216
2611.73	3.47562
2613.09	3.90625
2614.46	4.19103
2615.82	4.91812
2617.18	4.92678
2618.54	4.77804
2619.9	5.14977
2621.26	5.82363
2622.62	5.09399
2623.98	5.22208
2625.34	5.5044
2626.7	6.05381
2628.06	6.23355
2629.42	6.32996
2630.78	6.42572
2632.14	7.46952
2633.5	7.36293
2634.86	8.0116
2636.22	9.29595
2637.57	9.02176
2638.93	9.24655
2640.29	9.38403
2641.64	9.58995
2643	9.97677
2644.36	10.3699
2645.72	10.1615
2647.07	10.6185
2648.43	11.0623
2649.78	11.0058
2651.14	10.4778
2652.49	11.5513
2653.85	11.3115
2655.2	11.1254
2656.56	10.8724
2657.91	10.4054
2659.27	10.2071
2660.62	10.1634
2661.97	10.1758
2663.33	9.66099
2664.68	10.7316
2666.03	10.5897
2667.38	10.6107
2668.74	10.6474
2670.09	10.9399
2671.44	10.6419
2672.79	10.4406
2674.14	11.4774
2675.49	11.3657
2676.84	10.6014
2678.2	10.4838
2679.55	10.6569
2680.89	10.8503
2682.24	10.9461
2683.59	11.1028
2684.94	11.5125
2686.29	11.5587
2687.64	12.1707
2688.99	13.069
2690.34	13.1357
2691.69	13.3405
2693.04	13.7348
2694.38	14.1646
2695.73	15.0661
2697.08	15.4098
2698.43	15.4816
2699.77	15.6435
2701.12	15.1021
2702.46	16.3341
2703.81	16.4548
2705.16	16.3096
2706.5	16.3963
2707.85	16.2748
2709.19	16.2408
2710.54	16.3579
2711.88	16.3524
2713.23	16.9814
2714.57	16.7087
2715.92	16.8925
2717.26	17.1847
2718.6	17.5082
2719.95	18.1294
2721.29	18.6004
2722.63	19.1628
2723.97	18.79
2725.32	18.8592
2726.66	19.1932
2728	19.8979
2729.34	19.6446
2730.68	19.4297
2732.02	19.5792
2733.36	19.3164
2734.7	19.058
2736.04	19.4735
2737.39	19.3058
2738.72	19.1421
2740.06	18.6732
2741.4	19.0727
2742.74	18.5856
2744.08	17.4635
2745.42	17.2978
2746.76	16.2687
2748.1	15.3643
2749.44	14.6407
2750.77	14.2199
2752.11	14.0479
2753.45	13.373
2754.78	13.5587
2756.12	12.5649
2757.46	11.7279
2758.79	11.1736
2760.13	10.923
2761.47	10.2123
2762.8	10.4875
2764.14	9.92626
2765.47	9.35775
2766.81	9.18267
2768.14	8.94276
2769.48	9.22627
2770.81	8.46485
2772.14	7.88856
2773.48	7.1275
2774.81	7.8215
2776.14	6.8017
2777.48	6.97622
2778.81	7.11879
2780.14	7.40234
2781.47	6.62067
2782.81	6.46043
2784.14	6.51774
2785.47	6.62775
2786.8	6.4962
2788.13	5.86422
2789.46	5.26611
2790.79	5.03847
2792.12	4.98097
2793.46	4.23311
2794.79	3.80742
2796.11	3.70134
2797.44	4.38152
2798.77	3.96127
2800.1	4.20274
2801.43	4.16818
2802.76	4.38296
2804.09	4.22129
2805.42	4.14015
2806.74	3.5163
2808.07	2.87135
2809.4	2.45042
2810.73	2.03449
2812.05	1.81549
2813.38	1.82604
2814.71	2.53627
2816.03	3.65871
2817.36	4.22126
2818.68	5.53941
2820.01	7.67703
2821.33	10.4779
2822.66	12.0256
2823.98	15.1625
2825.31	17.1471
2826.63	20.0686
2827.96	23.6434
2829.28	28.0943
2830.61	31.0926
2831.93	34.3938
2833.25	37.5662
2834.57	40.7197
2835.9	43.4921
2837.22	46.7953
2838.54	49.8906
2839.86	53.0554
2841.18	55.7097
2842.51	58.1954
2843.83	61.8685
2845.15	64.565
2846.47	68.2074
2847.79	71.0267
2849.11	73.8432
2850.43	77.5188
2851.75	80.6565
2853.07	83.4874
2854.39	86.7132
2855.71	90.3001
2857.03	93.7831
2858.35	96.7911
2859.67	99.8826
2860.98	103.082
2862.3	105.27
2863.62	107.633
2864.94	109.599
2866.25	111.458
2867.57	113.148
2868.89	115.035
2870.21	115.693
2871.52	116.598
2872.84	117.423
2874.15	118.956
2875.47	120.405
2876.78	121.261
2878.1	121.98
2879.42	123.751
2880.73	125.032
2882.04	126.729
2883.36	129.46
2884.67	131.748
2885.99	133.41
2887.3	135.219
2888.61	135.996
2889.93	138.393
2891.24	140.473
2892.55	142.614
2893.87	144.19
2895.18	145.735
2896.49	146.742
2897.8	147.958
2899.11	149.123
2900.42	151.068
2901.74	154.124
2903.05	156.434
2904.36	158.923
2905.67	160.924
2906.98	163.416
2908.29	167.419
2909.6	171.026
2910.91	174.199
2912.22	177.939
2913.53	181.139
2914.83	184.524
2916.14	188.877
2917.45	192.667
2918.76	195.771
2920.07	198.912
2921.37	201.578
2922.68	203.59
2923.99	205.582
2925.3	206.946
2926.6	208.295
2927.91	208.317
2929.22	209.423
2930.52	209.876
2931.83	209.787
2933.13	209.807
2934.44	209.254
2935.74	207.697
2937.05	207.165
2938.35	205.913
2939.66	204.157
2940.96	201.522
2942.27	198.853
2943.57	196.102
2944.87	193.248
2946.18	190.261
2947.48	186.855
2948.78	183.756
2950.09	179.16
2951.39	174.981
2952.69	170.234
2953.99	165.63
2955.29	161.686
2956.6	156.775
2957.9	151.563
2959.2	146.977
2960.5	142.179
2961.8	137.656
2963.1	133.2
2964.4	128.758
2965.7	124.908
2967	120.712
2968.3	116.485
2969.6	112.204
2970.9	108.082
2972.2	104.429
2973.49	100.762
2974.79	97.2119
2976.09	93.4833
2977.39	89.9629
2978.69	87.8675
2979.98	84.1105
2981.28	80.6717
2982.58	76.9039
2983.88	73.143
2985.17	70.0519
2986.47	66.0152
2987.76	62.387
2989.06	59.6422
2990.36	55.8093
2991.65	52.1256
2992.95	48.9201
2994.24	46.4527
2995.54	43.4282
2996.83	40.335
2998.12	37.7817
2999.42	34.5918
3000.71	32.0725
3002	30.2462
3003.3	27.1633
3004.59	24.872
3005.88	23.1862
3007.18	21.6385
3008.47	20.7046
3009.76	19.0481
3011.05	18.3443
3012.35	17.0881
3013.64	16.0534
3014.93	14.7136
3016.22	13.3139
3017.51	11.2241
3018.8	10.3699
3020.09	9.108
3021.38	7.67683
3022.67	7.149
3023.96	6.9618
3025.25	6.02734
3026.54	5.49503
3027.83	5.19182
3029.12	4.79871
3030.41	5.1278
3031.69	5.07755
3032.98	5.4144
3034.27	4.85553
3035.56	5.56556
3036.85	5.91766
3038.13	6.34605
3039.42	7.16215
3040.71	7.37194
3041.99	8.66923
3043.28	9.79158
3044.57	9.90666
3045.85	10.2228
3047.14	10.3631
3048.42	10.8522
3049.71	10.7529
3050.99	10.1949
3052.28	10.3871
3053.56	10.5965
3054.85	9.88485
3056.13	9.40163
3057.42	9.62863
3058.7	9.52923
3059.98	9.34854
3061.27	9.1824
3062.55	9.17356
3063.83	8.74188
3065.11	8.56203
3066.4	8.40795
3067.68	8.31024
3068.96	8.95295
3070.24	8.58466
3071.52	7.93349
3072.8	7.93795
3074.09	7.05091
3075.37	6.81192
3076.65	5.80818
3077.93	5.10015
3079.21	4.23175
3080.49	3.26199
3081.77	1.70757
3083.05	1.07724
3084.32	0.871504
3085.61	0.862475
3086.88	0.56114
3088.16	0.34379
3089.44	-0.663384
3090.72	-0.144285
3092	0.00515823
3093.27	0.242222
3094.55	0.179858
3095.83	-0.298253
3097.11	-0.760535
3098.38	-0.492926
3099.66	-0.117493
3100.94	0.499886
3102.21	1.20201
3103.49	1.58397
3104.76	2.0635
3106.04	2.73601
3107.31	2.42192
3108.59	2.09415
3109.86	1.93918
3111.14	2.37777
3112.41	2.42958
3113.69	2.63971
3114.96	3.28298
3116.23	3.75264
3117.51	4.00752
3118.78	4.19352
3120.05	4.47824
3121.33	5.17802
3122.6	5.79202
3123.87	5.80547
3125.14	6.04757
3126.42	6.33086
3127.69	6.72736
3128.96	7.26792
3130.23	8.24425
3131.5	8.70493
3132.77	8.81734
3134.04	8.61595
3135.31	9.41699
3136.58	9.95114
3137.85	10.0239
3139.12	10.6738
3140.39	11.032
3141.66	11.3766
3142.93	11.7444
3144.2	12.5672
3145.47	13.744
3146.74	14.607
3148	15.3479
3149.27	16.1319
