#Acq. time (s)=	45
#Accumulations=	2
#Range (cm-¹)=	200...3150
#Windows=	2
#Auto scanning=	Off
#Autofocus=	Off
#Macrospot=	Off
#AutoExposure=	Off
#Spike filter=	Multiple accum.
#Delay time (s)=	0
#Binning=	1
#Readout mode=	Signal
#DeNoise=	Off
#ICS correction=	On
#Dark correction=	Off
#Inst. Process=	Off
#Detector Gain=	Best Dynamic Range
#Detector ADC=	20 kHz       
#Detector temperature (°C)=	-69.85
#Instrument=	LabRAM HR Evol
#Detector=	Synapse
#Objective=	x100
#Grating=	600 gr/mm
#ND Filter=	100%
#Laser (nm)=	532 
#Hole=	100.021
#Range=	Auto
#Laser Pol.=	No
#Raman. Pol.=	No
#Laser Pol. (°)=	-0.0007625
#Raman Pol. (°)=	89.9995
#Collection=	Microscope
#StageXY=	Marzhauser
#StageZ=	Marzhauser
#X (µm)=	28233.8
#Y (µm)=	-3245.5
#Z (µm)=	1040.6
#Full time(mm:ss)=	3:19
#Project=	
#Sample=	
#Site=	
#Title=	Mb_50_18_41_2x_45s_532 nm_x100_100%_600 gr_mm
#Remark=	
#Date=	12.07.2022 14:10
#Acquired=	12.07.2022 14:10:39
#Base:Fit=	10.08.2022 10:49:18
#Base:Sub=	10.08.2022 10:49:30
#Filter:Polynom=	16.08.2022 10:14:59
#AxisType[0]=Intens
#AxisUnit[0]=Cnt
#AxisType[1]=Spectr
#AxisUnit[1]=1/cm
200.388	0.761814
202.204	4.56077
204.019	7.75688
205.832	8.59503
207.646	9.16431
209.459	9.39685
211.274	9.3761
213.087	9.05315
214.899	8.12869
216.711	7.60635
218.524	7.66375
220.335	8.33877
222.146	7.78401
223.956	8.54036
225.766	8.47864
227.576	8.60666
229.388	8.84758
231.197	9.9581
233.005	10.3314
234.813	10.3629
236.621	10.1034
238.429	10.4985
240.236	10.7056
242.045	10.0584
243.852	9.78428
245.658	10.3324
247.464	10.5596
249.269	9.78815
251.074	9.77509
252.879	10.4822
254.683	9.26347
256.487	9.70685
258.291	9.92455
260.094	9.27104
261.897	9.15013
263.702	9.50403
265.504	8.66513
267.306	9.08331
269.108	9.62953
270.909	10.2364
272.71	9.87818
274.511	9.22626
276.311	9.56498
278.111	8.348
279.91	8.63172
281.709	9.01398
283.508	9.23695
285.306	9.7489
287.105	9.55645
288.9	8.89675
290.698	9.61843
292.495	9.46649
294.291	9.30923
296.088	10.1903
297.884	10.9471
299.679	11.7161
301.475	12.4764
303.27	12.916
305.064	13.9928
306.858	14.8497
308.652	15.9943
310.444	16.7742
312.237	16.8832
314.03	17.9838
315.822	19.0664
317.615	20.9975
319.406	21.975
321.198	22.1535
322.987	21.9993
324.778	21.7245
326.568	21.6379
328.358	21.303
330.148	20.3336
331.935	19.0719
333.724	18.5011
335.513	18.8394
337.301	18.2502
339.089	17.6979
340.875	17.9042
342.662	17.555
344.449	17.6483
346.236	18.5564
348.02	19.42
349.806	19.8004
351.592	20.9072
353.375	21.5218
355.16	22.72
356.944	24.1755
358.728	24.2832
360.51	25.6821
362.294	26.1769
364.077	28.3521
365.858	29.2847
367.64	30.3889
369.422	32.8567
371.202	33.326
372.983	34.7366
374.764	36.4292
376.543	38.36
378.324	39.7396
380.102	42.1792
381.881	43.6218
383.661	44.7291
385.438	46.4087
387.216	47.4893
388.993	47.9179
390.771	48.0846
392.548	48.2102
394.324	48.2127
396.101	47.6984
397.875	48.2043
399.651	47.1456
401.425	45.7453
403.201	45.0452
404.974	43.9349
406.749	41.7214
408.524	38.6577
410.296	35.4469
412.07	33.0937
413.841	29.5815
415.614	26.725
417.385	23.856
419.156	21.1532
420.928	18.2409
422.698	16.627
424.469	15.3443
426.238	13.5675
428.009	11.2747
429.777	9.52336
431.548	8.46648
433.315	7.52544
435.083	6.24645
436.852	5.79994
438.618	4.07362
440.387	3.31099
442.153	2.72364
443.919	2.78211
445.686	3.04787
447.451	4.0331
449.218	4.86547
450.982	4.98834
452.746	5.50507
454.512	5.34076
456.275	6.34379
458.038	6.54175
459.803	7.18412
461.565	8.35174
463.327	9.29831
465.091	9.91726
466.852	10.6135
468.613	12.1373
470.374	12.8998
472.136	14.0843
473.896	15.612
475.655	16.8721
477.415	18.0897
479.176	19.2766
480.934	21.7486
482.692	24.1458
484.45	26.1213
486.21	28.0917
487.967	29.6433
489.724	31.4274
491.481	33.0038
493.237	35.125
494.995	36.631
496.75	37.6356
498.506	39.0831
500.26	40.4208
502.015	41.3559
503.771	41.9116
505.525	42.476
507.279	41.9748
509.032	42.3522
510.785	43.1256
512.537	42.7643
514.289	43.23
516.041	42.198
517.793	42.7918
519.546	43.1107
521.297	42.6507
523.047	41.8282
524.797	41.0287
526.547	40.1568
528.297	39.7749
530.046	39.6881
531.795	39.2123
533.543	38.9342
535.291	37.2162
537.039	35.7152
538.787	33.9498
540.534	31.9666
542.281	29.5889
544.027	26.9468
545.773	24.6554
547.519	22.8877
549.264	20.0138
551.01	18.5159
552.754	17.0839
554.499	16.2
556.243	15.4411
557.987	14.6056
559.73	14.0146
561.474	13.5847
563.216	12.5385
564.959	11.9664
566.701	12.7479
568.441	14.3583
570.182	14.1365
571.923	14.0496
573.664	14.461
575.405	13.6035
577.145	13.3712
578.885	13.0214
580.624	13.7615
582.361	12.3448
584.1	11.793
585.839	12.0883
587.577	10.707
589.315	9.92884
591.052	9.59808
592.787	9.05074
594.524	7.9184
596.26	9.08958
597.997	8.66119
599.732	8.6434
601.466	8.39989
603.201	7.09954
604.936	6.8117
606.67	6.56114
608.403	5.72614
610.136	5.03529
611.87	5.49541
613.603	5.26034
615.334	4.76243
617.067	4.85043
618.799	4.57891
620.529	4.24997
622.26	2.97677
623.991	2.55395
625.72	1.71491
627.451	2.03693
629.181	2.15146
630.909	2.50043
632.638	3.59244
634.368	3.77255
636.095	3.30083
637.823	4.18301
639.551	4.21707
641.277	4.32365
643.005	4.91322
644.73	5.12103
646.457	6.45105
648.184	6.62113
649.908	7.18407
651.634	8.23195
653.357	9.3394
655.083	9.93971
656.806	9.52384
658.53	9.80521
660.253	10.6488
661.977	9.997
663.7	9.92765
665.422	10.1053
667.145	10.3253
668.865	10.3127
670.588	10.8837
672.308	11.1794
674.027	10.6843
675.749	12.2627
677.468	12.8449
679.188	12.2341
680.907	13.009
682.627	13.8861
684.345	13.4263
686.064	14.0427
687.781	14.455
689.498	15.0373
691.216	15.9258
692.932	17.1866
694.65	17.4531
696.366	17.1625
698.081	18.366
699.797	18.4843
701.512	19.1475
703.228	19.9544
704.942	20.2993
706.655	20.2736
708.371	20.6692
710.083	22.6691
711.796	23.8964
713.51	24.1949
715.222	24.4399
716.934	24.9712
718.645	26.1099
720.358	26.1159
722.068	26.3588
723.779	27.5758
725.49	27.2742
727.2	27.826
728.909	28.8735
730.618	29.5881
732.329	29.6679
734.037	30.3021
735.745	31.888
737.453	34.7847
739.16	36.5442
740.869	38.7169
742.576	42.2335
744.282	45.2921
745.988	48.4962
747.694	50.2114
749.401	53.666
751.107	56.8514
752.811	59.3345
754.516	63.0823
756.22	65.2705
757.924	67.783
759.627	70.8458
761.332	74.1296
763.035	77.1747
764.738	78.8053
766.44	81.0019
768.142	83.827
769.843	85.6133
771.544	87.968
773.245	89.1828
774.946	89.4723
776.646	89.8807
778.346	89.4871
780.046	89.3451
781.745	88.2524
783.444	87.9495
785.143	87.6458
786.841	86.8346
788.539	86.5942
790.237	85.7677
791.934	84.8466
793.631	84.1982
795.328	82.9849
797.024	80.4644
798.72	78.7697
800.416	78.0595
802.112	75.8366
803.807	74.4684
805.502	73.6545
807.196	71.9779
808.89	70.0071
810.584	68.6909
812.278	67.5117
813.971	66.3101
815.664	65.271
817.354	64.2283
819.047	63.9915
820.739	63.5141
822.43	63.4475
824.122	61.7051
825.813	61.8637
827.503	61.3486
829.192	59.4335
830.882	59.1409
832.571	57.5279
834.261	56.1136
835.95	54.4779
837.637	53.3817
839.325	52.1347
841.013	50.6403
842.701	49.2468
844.389	47.6093
846.074	46.4983
847.761	45.654
849.447	43.5104
851.131	41.4476
852.817	40.6937
854.503	38.4598
856.188	37.9462
857.871	36.0115
859.556	34.9733
861.24	33.4683
862.922	32.4755
864.606	31.6289
866.289	30.4184
867.97	30.188
869.653	30.284
871.336	29.0456
873.016	29.1233
874.698	29.3061
876.379	28.7639
878.058	28.4646
879.739	27.8993
881.418	27.6216
883.098	28.2065
884.778	28.5069
886.456	28.3757
888.135	30.1016
889.812	30.5551
891.49	29.2713
893.167	30.3215
894.845	30.7025
896.523	29.5357
898.198	28.8467
899.875	29.2954
901.55	29.6078
903.226	29.6324
904.901	30.0477
906.576	30.0784
908.25	29.5588
909.925	29.9411
911.598	28.9959
913.271	28.6997
914.945	28.2373
916.617	26.6217
918.291	26.0337
919.962	25.6286
921.635	24.9781
923.306	24.2689
924.978	23.8498
926.648	21.7863
928.318	21.3703
929.989	21.4811
931.659	20.8929
933.328	19.0488
934.998	17.6031
936.666	17.9228
938.336	16.8571
940.004	15.9416
941.671	13.7705
943.34	12.622
945.007	11.7076
946.673	10.2878
948.339	9.1547
950.007	8.48004
951.672	7.25518
953.337	6.35892
955.004	6.05919
956.669	5.43692
958.333	4.46722
959.997	3.49803
961.662	3.86937
963.326	3.50687
964.989	3.45492
966.651	3.9166
968.315	4.2718
969.977	4.21589
971.639	4.6041
973.301	4.68746
974.962	4.7644
976.624	4.70667
978.285	3.90643
979.945	3.85228
981.605	4.13804
983.264	4.33691
984.924	3.1353
986.583	3.0004
988.243	1.99683
989.901	3.20937
991.56	3.6898
993.217	4.07852
994.875	4.66927
996.532	5.87346
998.188	6.39982
999.845	8.02724
1001.5	9.9986
1003.16	11.4023
1004.81	13.8624
1006.47	15.3077
1008.12	16.8287
1009.78	17.7858
1011.43	19.8585
1013.09	20.9001
1014.74	21.79
1016.39	22.0833
1018.05	24.2218
1019.7	25.8924
1021.35	27.2451
1023	28.9462
1024.65	29.4456
1026.31	30.911
1027.96	31.915
1029.61	31.2116
1031.26	32.4097
1032.91	32.5718
1034.56	32.1096
1036.21	32.5424
1037.86	32.3125
1039.51	31.2206
1041.16	30.8489
1042.8	30.4064
1044.45	29.3935
1046.1	28.7633
1047.75	28.3247
1049.39	28.0392
1051.04	26.675
1052.69	25.2544
1054.33	23.9756
1055.98	22.6276
1057.62	21.2335
1059.27	20.0258
1060.91	20.1471
1062.56	19.2811
1064.2	17.9112
1065.85	17.7187
1067.49	17.9341
1069.13	17.6279
1070.77	16.341
1072.42	16.9153
1074.06	16.727
1075.7	17.6835
1077.34	17.9579
1078.98	18.221
1080.62	18.1598
1082.27	19.6828
1083.91	19.3555
1085.55	19.5012
1087.18	19.6114
1088.82	19.8158
1090.46	20.1753
1092.1	20.5876
1093.74	21.3126
1095.38	21.3863
1097.02	21.221
1098.65	21.3743
1100.29	21.6677
1101.93	21.229
1103.56	20.7119
1105.2	20.1727
1106.84	19.5549
1108.47	19.0515
1110.11	18.7658
1111.74	17.8178
1113.38	16.752
1115.01	15.3335
1116.64	14.2238
1118.28	13.9952
1119.91	12.4141
1121.54	11.8179
1123.18	11.9673
1124.81	11.2029
1126.44	11.192
1128.07	11.3968
1129.7	10.5844
1131.33	10.0789
1132.97	9.77884
1134.6	8.95157
1136.23	8.61216
1137.86	8.54157
1139.49	9.17637
1141.11	8.68292
1142.74	8.46189
1144.37	7.77081
1146	7.28798
1147.63	7.0251
1149.26	4.8308
1150.88	3.82402
1152.51	3.54347
1154.14	4.06849
1155.76	3.72543
1157.39	2.8939
1159.01	1.26993
1160.64	0.791895
1162.27	0.360199
1163.89	1.02116
1165.51	1.2648
1167.14	1.73666
1168.76	1.70429
1170.39	3.20154
1172.01	2.65804
1173.63	2.0606
1175.25	1.19885
1176.88	-0.042923
1178.5	-0.550367
1180.12	0.211506
1181.74	0.136591
1183.36	0.484416
1184.98	1.08672
1186.6	1.16636
1188.22	1.72141
1189.84	1.36184
1191.46	2.44395
1193.08	2.68125
1194.7	3.00205
1196.32	4.60406
1197.94	5.13119
1199.55	5.54622
1201.17	5.63591
1202.79	6.03582
1204.41	6.65893
1206.02	6.09874
1207.64	7.24089
1209.25	7.76678
1210.87	8.12608
1212.48	9.4675
1214.1	9.48685
1215.71	8.87645
1217.33	9.93776
1218.94	10.5125
1220.56	12.261
1222.17	13.0863
1223.79	14.0953
1225.4	15.3284
1227.01	15.8277
1228.62	16.1424
1230.23	16.1358
1231.85	17.5482
1233.46	17.2291
1235.07	17.8194
1236.68	18.5208
1238.29	19.9122
1239.9	20.1596
1241.51	20.7717
1243.12	21.9595
1244.73	22.8586
1246.34	23.0113
1247.94	22.68
1249.55	22.9482
1251.16	23.5908
1252.77	22.6501
1254.37	22.119
1255.98	21.0008
1257.59	20.4875
1259.2	21.2061
1260.8	21.33
1262.41	21.2315
1264.01	21.7965
1265.62	23.6207
1267.22	24.0385
1268.83	25.3179
1270.43	26.3839
1272.03	28.1785
1273.64	28.1724
1275.24	28.9548
1276.85	29.1932
1278.45	29.4444
1280.05	30.3281
1281.65	31.0501
1283.25	31.0166
1284.85	32.4945
1286.46	33.4804
1288.06	34.8277
1289.66	36.1377
1291.26	37.2026
1292.86	38.2783
1294.46	38.7221
1296.06	39.5611
1297.66	40.1264
1299.25	40.53
1300.85	42.1159
1302.45	42.8639
1304.05	42.8118
1305.65	44.098
1307.24	44.3616
1308.84	44.8034
1310.43	44.3784
1312.03	44.3333
1313.63	44.9485
1315.22	45.9546
1316.82	46.3449
1318.41	45.6511
1320.01	44.9384
1321.6	45.2263
1323.2	45.1155
1324.79	45.3155
1326.38	45.0236
1327.98	44.4814
1329.57	42.8724
1331.16	41.9857
1332.76	40.6239
1334.35	39.2745
1335.94	38.2903
1337.53	38.2416
1339.12	38.2998
1340.71	37.4063
1342.3	37.9222
1343.89	38.0632
1345.48	38.4108
1347.07	36.5259
1348.66	36.2229
1350.25	36.2956
1351.84	36.2221
1353.43	35.7016
1355.01	36.5057
1356.6	36.2769
1358.19	37.213
1359.77	36.6311
1361.36	36.4701
1362.95	36.4283
1364.53	37.0092
1366.12	36.9823
1367.71	36.595
1369.29	36.6721
1370.88	36.0737
1372.46	35.5531
1374.04	34.4555
1375.63	33.7915
1377.21	33.4381
1378.8	33.0199
1380.38	32.9499
1381.96	32.386
1383.54	31.6015
1385.13	31.8455
1386.71	30.3364
1388.29	29.226
1389.87	28.4136
1391.45	27.7415
1393.03	27.5323
1394.61	26.2043
1396.19	24.834
1397.77	24.3891
1399.35	24.7975
1400.93	24.7112
1402.51	24.4181
1404.09	24.8209
1405.67	24.5967
1407.24	24.7903
1408.82	24.5537
1410.4	24.9247
1411.98	24.9099
1413.55	25.6041
1415.13	26.9213
1416.71	28.1685
1418.28	29.218
1419.86	31.5091
1421.43	34.0898
1423.01	35.7255
1424.58	37.9151
1426.16	40.1229
1427.73	42.2804
1429.31	44.7972
1430.88	47.3795
1432.45	48.6248
1434.02	51.4241
1435.6	52.9971
1437.17	55.4527
1438.74	56.3264
1440.31	58.3078
1441.88	59.4075
1443.45	61.0854
1445.03	62.3537
1446.6	62.9961
1448.17	63.7346
1449.74	63.7617
1451.3	64.261
1452.87	63.7511
1454.44	64.8792
1456.01	64.766
1457.58	64.0614
1459.15	65.1059
1460.72	65.9868
1462.28	66.3061
1463.85	65.9453
1465.42	65.0603
1466.98	64.7431
1468.55	65.0404
1470.12	64.6497
1471.68	64.4185
1473.25	64.6619
1474.81	64.1258
1476.38	64.3112
1477.94	62.8446
1479.51	61.4336
1481.07	60.5639
1482.63	59.7158
1484.2	58.4304
1485.76	56.6272
1487.32	54.9969
1488.88	53.8897
1490.45	52.9709
1492.01	52.2014
1493.57	51.4987
1495.13	50.3791
1496.69	48.8398
1498.25	48.1118
1499.81	46.6609
1501.37	45.2019
1502.93	43.6882
1504.49	42.494
1506.05	39.5323
1507.61	38.1699
1509.17	37.1554
1510.73	35.0025
1512.28	34.7736
1513.84	32.8709
1515.4	31.1093
1516.96	28.9506
1518.51	27.7491
1520.07	26.2319
1521.63	25.2792
1523.18	23.1561
1524.74	22.2858
1526.29	21.6211
1527.85	20.9358
1529.4	20.6771
1530.96	19.7641
1532.51	20.7357
1534.06	20.11
1535.62	19.7176
1537.17	21.0574
1538.72	21.0701
1540.28	21.2309
1541.83	21.2463
1543.38	21.8782
1544.93	22.2366
1546.48	22.8287
1548.03	22.6382
1549.59	22.2947
1551.14	22.3329
1552.69	21.2925
1554.24	21.0865
1555.79	21.1497
1557.34	21.7967
1558.88	22.256
1560.43	22.7404
1561.98	22.8695
1563.53	23.7428
1565.08	24.3757
1566.62	25.9879
1568.17	26.5328
1569.72	27.6042
1571.27	29.0408
1572.81	31.0496
1574.36	32.4366
1575.9	33.2541
1577.45	35.1987
1579	37.2167
1580.54	39.0373
1582.09	40.1591
1583.63	39.8049
1585.17	41.2991
1586.72	42.9599
1588.26	43.4491
1589.8	44.8156
1591.35	44.9519
1592.89	45.2672
1594.43	46.3548
1595.97	46.3169
1597.52	46.5704
1599.06	47.2758
1600.6	47.8381
1602.14	48.5973
1603.68	47.8893
1605.22	47.3515
1606.76	47.3619
1608.3	47.2138
1609.84	47.1222
1611.38	46.9575
1612.92	46.697
1614.46	46.924
1615.99	47.1716
1617.53	46.9686
1619.07	46.547
1620.61	46.0846
1622.14	45.8348
1623.68	45.339
1625.22	45.485
1626.75	45.6047
1628.29	45.8026
1629.82	45.8445
1631.36	46.1053
1632.9	45.9731
1634.43	46.1343
1635.96	47.1036
1637.5	47.7978
1639.03	48.5529
1640.57	49.286
1642.1	49.8591
1643.63	50.6423
1645.16	50.5363
1646.7	51.2283
1648.23	52.2908
1649.76	52.7619
1651.29	52.1962
1652.82	51.7538
1654.36	52.4813
1655.89	51.5708
1657.42	50.2692
1658.95	48.9533
1660.48	48.5653
1662.01	48.1841
1663.53	46.9095
1665.06	45.6012
1666.59	44.5468
1668.12	43.5521
1669.65	42.6389
1671.18	41.449
1672.7	39.745
1674.23	40.1392
1675.76	38.2351
1677.29	36.7365
1678.81	34.163
1680.34	32.6217
1681.86	31.1281
1683.39	28.6492
1684.91	27.0333
1686.44	25.3633
1687.96	24.4016
1689.49	22.591
1691.01	21.0236
1692.54	20.2713
1694.06	18.4806
1695.58	17.4625
1697.11	16.4763
1698.63	15.595
1700.15	14.2118
1701.67	13.4215
1703.2	12.7279
1704.72	11.0958
1706.24	10.2261
1707.76	9.60858
1709.28	9.06932
1710.8	9.1563
1712.32	8.6124
1713.84	7.63909
1715.36	7.24911
1716.88	6.14989
1718.4	5.92468
1719.91	5.49807
1721.43	5.27275
1722.95	5.28873
1724.47	5.48091
1725.99	5.48617
1727.5	6.00597
1729.02	5.86598
1730.54	5.96099
1732.05	5.94953
1733.57	6.35364
1735.09	6.63555
1736.6	7.73898
1738.12	7.94568
1739.63	8.10651
1741.15	8.88501
1742.66	9.35575
1744.18	9.78016
1745.69	9.47646
1747.2	9.66947
1748.72	9.55992
1750.23	9.79954
1751.74	8.15638
1753.25	8.42815
1754.77	7.61049
1756.28	7.95994
1757.79	7.02841
1759.3	6.83708
1760.81	7.71516
1762.32	7.50659
1763.83	7.17085
1765.34	6.2224
1766.85	5.32561
1768.36	5.69351
1769.87	5.14864
1771.38	5.11317
1772.89	4.85068
1774.4	4.31376
1775.91	4.15771
1777.41	4.08077
1778.92	3.95919
1780.43	3.30273
1781.94	3.65091
1783.44	3.1699
1784.95	3.46862
1786.45	3.49403
1787.96	3.68744
1789.47	3.95912
1790.97	4.03406
1792.48	4.20537
1793.98	4.36594
1795.48	4.6286
1796.99	4.53778
1798.49	4.68227
1800	4.71942
1801.5	5.15069
1803	4.9275
1804.51	4.73762
1806.01	4.9646
1807.51	5.44475
1809.01	5.67666
1810.51	5.81537
1812.02	5.97603
1813.52	5.58276
1815.02	5.20203
1816.52	4.95028
1818.02	4.67446
1819.52	4.43323
1821.02	4.36609
1822.52	4.19308
1824.02	4.24891
1825.51	4.29463
1827.01	4.53194
1828.51	4.67456
1830.01	4.38235
1831.51	4.6124
1833	4.39823
1834.5	4.48731
1836	4.1869
1837.5	3.87249
1838.99	3.54416
1840.49	3.27628
1841.98	3.50597
1843.48	4.5354
1844.97	5.06358
1846.47	5.61406
1847.96	5.15419
1849.46	4.92696
1850.95	5.39736
1852.45	5.16334
1853.94	5.46233
1855.43	5.76654
1856.92	6.21023
1858.42	6.62789
1859.91	7.05573
1861.4	6.57852
1862.89	6.27558
1864.39	6.58139
1865.88	7.13283
1867.37	7.72652
1868.86	7.414
1870.35	7.99536
1871.84	7.87045
1873.33	8.22593
1874.82	8.27327
1876.31	8.44431
1877.8	8.13118
1879.29	8.46256
1880.77	8.29133
1882.26	7.84828
1882.51	7.29232
1884	6.36178
1885.5	5.73113
1886.99	5.71157
1888.48	5.57272
1889.98	5.8899
1891.47	6.21783
1892.97	6.31287
1894.46	6.00546
1895.95	5.85407
1897.44	5.873
1898.93	5.58318
1900.42	5.26351
1901.92	5.21242
1903.41	5.36486
1904.9	5.41521
1906.39	5.24986
1907.88	5.11246
1909.37	5.1691
1910.86	4.79431
1912.35	6.00151
1913.84	5.7273
1915.32	6.43392
1916.81	6.50247
1918.3	6.03561
1919.79	5.8161
1921.28	5.13423
1922.76	5.34259
1924.25	4.75505
1925.74	4.31143
1927.22	4.27378
1928.71	4.04179
1930.2	4.58335
1931.68	4.53214
1933.17	4.65799
1934.65	4.57056
1936.14	4.96746
1937.62	5.45333
1939.11	5.13357
1940.59	4.82891
1942.08	4.68148
1943.56	4.72908
1945.04	4.09049
1946.53	4.48229
1948.01	4.22303
1949.49	4.05599
1950.97	3.50364
1952.45	2.98062
1953.94	2.37782
1955.42	2.41159
1956.9	2.36437
1958.38	2.04986
1959.86	3.02527
1961.34	3.23233
1962.82	3.2891
1964.3	3.4657
1965.78	3.22604
1967.26	3.04819
1968.74	2.66769
1970.22	2.81405
1971.69	2.76672
1973.17	2.84265
1974.65	3.33977
1976.13	3.53831
1977.61	3.70668
1979.08	4.57407
1980.56	5.53726
1982.03	5.67732
1983.51	5.69812
1984.99	5.91126
1986.46	6.88225
1987.94	5.90709
1989.41	6.64639
1990.89	6.22327
1992.36	6.3415
1993.84	6.32302
1995.31	6.3624
1996.78	6.3679
1998.26	5.73327
1999.73	6.26093
2001.2	6.65666
2002.68	7.17367
2004.15	7.68523
2005.62	7.43767
2007.09	7.86355
2008.56	7.48388
2010.04	7.59303
2011.51	7.51073
2012.98	7.57792
2014.45	8.46079
2015.92	8.26708
2017.39	8.22514
2018.86	7.95328
2020.33	8.20432
2021.8	7.66935
2023.27	7.38373
2024.74	6.90337
2026.2	7.13795
2027.67	7.20066
2029.14	7.16551
2030.61	7.14415
2032.07	6.86522
2033.54	7.12837
2035.01	6.84912
2036.47	7.62278
2037.94	8.01051
2039.41	8.27814
2040.87	8.34348
2042.34	8.34399
2043.8	8.93097
2045.27	9.3806
2046.73	10.27
2048.2	11.0723
2049.66	11.1794
2051.12	12.2462
2052.59	12.6147
2054.05	12.2796
2055.51	12.9528
2056.98	13.0322
2058.44	13.9964
2059.9	14.6638
2061.36	15.5416
2062.82	16.7751
2064.29	16.6684
2065.75	17.144
2067.21	17.1126
2068.67	18.234
2070.13	18.4331
2071.59	18.9067
2073.05	20.399
2074.51	21.1908
2075.97	21.9066
2077.43	22.5573
2078.88	23.15
2080.34	23.7915
2081.8	24.4189
2083.26	25.4405
2084.72	26.5599
2086.17	26.864
2087.63	26.9496
2089.09	27.3509
2090.54	28.0849
2092	28.7096
2093.46	29.645
2094.91	30.3555
2096.37	31.0454
2097.82	31.5245
2099.28	32.8619
2100.73	32.9126
2102.19	33.8233
2103.64	35.5352
2105.09	36.0866
2106.55	37.3923
2108	38.1578
2109.46	38.8127
2110.91	39.4927
2112.36	40.2711
2113.81	41.3248
2115.27	42.124
2116.72	43.5025
2118.17	44.8879
2119.62	46.0706
2121.07	47.4125
2122.52	48.3655
2123.97	50.8409
2125.42	51.6651
2126.87	53.3231
2128.32	55.2974
2129.77	55.8525
2131.22	57.7709
2132.67	59.2109
2134.12	60.7311
2135.57	61.1863
2137.01	61.6409
2138.46	63.5486
2139.91	65.1534
2141.36	66.8651
2142.8	67.411
2144.25	68.8747
2145.7	70.9107
2147.14	71.9554
2148.59	73.3172
2150.03	74.3989
2151.48	75.4107
2152.92	76.2309
2154.37	77.614
2155.81	77.9431
2157.26	79.2721
2158.7	79.8045
2160.15	81.5996
2161.59	82.5251
2163.03	83.2593
2164.48	83.6948
2165.92	84.2783
2167.36	84.8089
2168.8	84.6155
2170.25	84.0016
2171.69	83.9935
2173.13	83.0636
2174.57	83.3958
2176.01	83.5144
2177.45	82.5963
2178.89	81.601
2180.33	80.9671
2181.77	80.6693
2183.21	80.1673
2184.65	79.9206
2186.09	79.5465
2187.53	78.2894
2188.97	77.5723
2190.41	76.5303
2191.84	75.2324
2193.28	74.615
2194.72	73.1482
2196.16	72.4097
2197.59	70.6709
2199.03	69.8363
2200.47	68.3667
2201.9	66.4762
2203.34	64.8007
2204.78	63.4539
2206.21	62.1066
2207.65	60.1458
2209.08	59.1319
2210.51	58.0829
2211.95	56.8247
2213.38	55.1576
2214.82	54.1723
2216.25	53.6785
2217.68	52.5822
2219.12	50.4267
2220.55	49.0806
2221.98	47.5238
2223.42	45.9736
2224.85	45.0748
2226.28	44.5124
2227.71	43.1843
2229.14	42.1594
2230.57	40.3134
2232	38.8764
2233.43	37.2021
2234.86	36.157
2236.29	35.0591
2237.72	33.8709
2239.15	32.319
2240.58	30.8187
2242.01	30.1722
2243.44	29.4234
2244.87	28.4497
2246.3	28.236
2247.73	27.3285
2249.15	26.1983
2250.58	25.4925
2252.01	25.4625
2253.43	24.8681
2254.86	23.7577
2256.29	23.4326
2257.71	22.8653
2259.14	21.9007
2260.56	21.4457
2261.99	20.9761
2263.41	20.7323
2264.84	20.8158
2266.26	19.9791
2267.69	20.0384
2269.11	19.6713
2270.54	19.0635
2271.96	18.8164
2273.38	18.135
2274.81	18.027
2276.23	18.1724
2277.65	18.0702
2279.07	18.0893
2280.49	18.618
2281.92	18.355
2283.34	18.4125
2284.76	17.8955
2286.18	17.6485
2287.6	16.7649
2289.02	16.2281
2290.44	14.9211
2291.86	14.3338
2293.28	13.734
2294.7	13.3113
2296.12	14.1443
2297.54	14.4232
2298.96	14.4083
2300.38	14.3324
2301.79	14.7764
2303.21	15.2977
2304.63	15.7776
2306.05	15.2527
2307.46	15.4902
2308.88	15.3791
2310.3	16.0222
2311.71	16.7342
2313.13	16.637
2314.55	16.3712
2315.96	16.8344
2317.38	16.9412
2318.79	16.4798
2320.21	15.9782
2321.62	16.3868
2323.03	15.9691
2324.45	15.6385
2325.86	14.9891
2327.27	15.8363
2328.69	15.5346
2330.1	14.6554
2331.51	14.5681
2332.93	14.0376
2334.34	14.3328
2335.75	14.0848
2337.16	13.3937
2338.57	13.0103
2339.99	12.0935
2341.4	12.1597
2342.81	11.6988
2344.22	10.9821
2345.63	10.7645
2347.04	9.84602
2348.45	8.95652
2349.86	8.38844
2351.26	7.29774
2352.67	5.86351
2354.08	5.07295
2355.49	4.30591
2356.9	3.63363
2358.31	2.67348
2359.71	2.6416
2361.12	1.64361
2362.53	2.20087
2363.94	2.49225
2365.34	2.48035
2366.75	3.07355
2368.15	2.67144
2369.56	2.91664
2370.97	3.00243
2372.37	3.7138
2373.78	3.57978
2375.18	3.33433
2376.59	3.45701
2377.99	3.86102
2379.39	4.15065
2380.8	4.39394
2382.2	3.69132
2383.61	2.86653
2385.01	2.88158
2386.41	2.63822
2387.81	2.19966
2389.22	2.08882
2390.62	2.10462
2392.02	2.80575
2393.42	2.99791
2394.82	3.32672
2396.22	3.7188
2397.63	4.79538
2399.02	4.34016
2400.43	4.46799
2401.82	4.36979
2403.23	4.42558
2404.62	5.23581
2406.02	4.4225
2407.42	3.98448
2408.82	3.81923
2410.22	4.52333
2411.62	5.07839
2413.02	4.28685
2414.41	4.02645
2415.81	3.75208
2417.21	3.54281
2418.61	3.47685
2420	3.7862
2421.4	3.65443
2422.79	3.45619
2424.19	3.913
2425.59	4.23892
2426.98	4.45746
2428.38	4.23374
2429.77	5.04192
2431.17	4.28321
2432.56	4.53308
2433.96	4.75251
2435.35	4.9172
2436.74	5.64803
2438.14	5.71939
2439.53	6.13186
2440.92	6.44187
2442.32	6.28979
2443.71	6.16877
2445.1	6.16178
2446.49	5.96077
2447.88	5.5338
2449.28	5.67343
2450.67	4.70398
2452.06	4.21553
2453.45	4.18766
2454.84	4.334
2456.23	4.61376
2457.62	4.71977
2459.01	5.01313
2460.4	5.53548
2461.79	5.56403
2463.18	5.95677
2464.57	5.39312
2465.96	5.17074
2467.34	5.27172
2468.73	5.02399
2470.12	4.63243
2471.51	4.52159
2472.89	5.20543
2474.28	5.60024
2475.67	4.92295
2477.05	5.06583
2478.44	5.44663
2479.83	5.76601
2481.21	5.65626
2482.6	5.63301
2483.98	5.80349
2485.37	5.94218
2486.75	5.92711
2488.14	5.6954
2489.52	5.71923
2490.9	6.25914
2492.29	6.23682
2493.67	7.03799
2495.06	6.98143
2496.44	7.07056
2497.82	6.53629
2499.2	6.39394
2500.59	5.98677
2501.97	6.69879
2503.35	6.78346
2504.73	6.24205
2506.11	6.29597
2507.49	5.69414
2508.88	5.98164
2510.26	6.20251
2511.63	5.29214
2513.01	5.26494
2514.39	4.5315
2515.77	4.93061
2517.15	4.74005
2518.53	4.81563
2519.91	4.72252
2521.29	5.02297
2522.67	5.76013
2524.05	5.96208
2525.42	5.97683
2526.8	5.41111
2528.18	5.13035
2529.56	5.15892
2530.93	4.17604
2532.31	3.96934
2533.69	3.53634
2535.06	3.34361
2536.44	3.19538
2537.81	2.87336
2539.19	2.75661
2540.56	2.8595
2541.94	2.95222
2543.31	2.53961
2544.69	2.20394
2546.06	2.38683
2547.44	2.41253
2548.81	2.91196
2550.18	3.71113
2551.56	3.21001
2552.93	2.83927
2554.3	2.98664
2555.68	3.16545
2557.05	3.54302
2558.42	3.73302
2559.79	4.28194
2561.16	3.80117
2562.53	3.81495
2563.9	3.14714
2565.28	3.28267
2566.64	2.85041
2568.02	3.46226
2569.38	3.47308
2570.76	3.17017
2572.12	2.89519
2573.49	3.00019
2574.86	2.95397
2576.23	3.13183
2577.6	3.59888
2578.97	3.73189
2580.34	3.52169
2581.7	4.17963
2583.07	4.30054
2584.44	4.81498
2585.81	4.41045
2587.17	4.35635
2588.54	4.45708
2589.91	3.97953
2591.27	4.73371
2592.64	3.95968
2594	3.6801
2595.37	3.25817
2596.73	3.33086
2598.1	3.65742
2599.46	3.13178
2600.83	3.43209
2602.19	3.14465
2603.55	2.3446
2604.92	2.48159
2606.28	3.11576
2607.64	3.61339
2609.01	4.18211
2610.37	4.14802
2611.73	4.29911
2613.09	4.55401
2614.46	4.7487
2615.82	5.21378
2617.18	6.16982
2618.54	5.9274
2619.9	5.60776
2621.26	5.88513
2622.62	6.11177
2623.98	6.25333
2625.34	6.54299
2626.7	6.30535
2628.06	6.70403
2629.42	6.59062
2630.78	6.61229
2632.14	6.66468
2633.5	6.99678
2634.86	6.81628
2636.22	7.20908
2637.57	6.72859
2638.93	6.72442
2640.29	6.3482
2641.64	6.55606
2643	6.67591
2644.36	6.49194
2645.72	6.56007
2647.07	6.21905
2648.43	5.70003
2649.78	5.39015
2651.14	5.00328
2652.49	4.86801
2653.85	4.75519
2655.2	4.12354
2656.56	4.82333
2657.91	4.26847
2659.27	4.815
2660.62	4.08424
2661.97	3.64607
2663.33	3.321
2664.68	3.17303
2666.03	2.94879
2667.38	3.09696
2668.74	2.87937
2670.09	2.68128
2671.44	3.11328
2672.79	3.52336
2674.14	3.72526
2675.49	3.76276
2676.84	3.50982
2678.2	3.01661
2679.55	3.53488
2680.89	3.33446
2682.24	3.85704
2683.59	3.93518
2684.94	3.77467
2686.29	3.53935
2687.64	3.69364
2688.99	3.835
2690.34	3.57702
2691.69	4.10419
2693.04	4.38046
2694.38	3.89366
2695.73	4.13036
2697.08	4.04786
2698.43	4.57568
2699.77	4.92532
2701.12	5.51067
2702.46	6.4481
2703.81	7.44396
2705.16	7.7278
2706.5	8.05271
2707.85	8.31508
2709.19	9.06378
2710.54	9.55992
2711.88	9.40548
2713.23	10.4344
2714.57	10.28
2715.92	10.7445
2717.26	11.005
2718.6	11.107
2719.95	11.5548
2721.29	11.883
2722.63	11.5562
2723.97	12.0963
2725.32	11.2884
2726.66	10.8518
2728	10.8875
2729.34	10.7971
2730.68	10.9945
2732.02	10.7409
2733.36	11.1071
2734.7	11.1539
2736.04	10.3468
2737.39	9.98031
2738.72	9.46865
2740.06	9.0434
2741.4	8.90059
2742.74	8.34746
2744.08	7.82482
2745.42	7.18439
2746.76	6.81599
2748.1	6.06958
2749.44	6.07176
2750.77	5.50482
2752.11	4.91734
2753.45	4.68545
2754.78	4.4559
2756.12	3.69585
2757.46	2.78145
2758.79	2.62574
2760.13	1.74413
2761.47	1.4368
2762.8	1.18777
2764.14	1.1334
2765.47	0.842131
2766.81	0.707762
2768.14	0.739873
2769.48	0.979481
2770.81	0.753212
2772.14	0.464991
2773.48	-0.340758
2774.81	0.0596924
2776.14	-0.252499
2777.48	0.399565
2778.81	0.278677
2780.14	0.508413
2781.47	-0.249716
2782.81	-0.129265
2784.14	-0.354966
2785.47	-0.747759
2786.8	-0.123489
2788.13	-0.37891
2789.46	-0.409423
2790.79	-0.386255
2792.12	-0.294688
2793.46	-0.194539
2794.79	0.412234
2796.11	-0.551454
2797.44	-0.45644
2798.77	-0.487921
2800.1	-0.43377
2801.43	-0.566765
2802.76	-0.819934
2804.09	-1.05154
2805.42	-0.737689
2806.74	-0.710509
2808.07	-0.957414
2809.4	-1.59675
2810.73	-1.19505
2812.05	-1.24025
2813.38	0.233513
2814.71	0.97919
2816.03	1.79042
2817.36	2.45425
2818.68	3.50562
2820.01	4.93061
2821.33	6.27364
2822.66	7.25613
2823.98	9.23131
2825.31	10.4872
2826.63	12.446
2827.96	14.3855
2829.28	16.0127
2830.61	18.706
2831.93	21.022
2833.25	23.5489
2834.57	26.1676
2835.9	28.9111
2837.22	31.4608
2838.54	33.8914
2839.86	36.0417
2841.18	39.8363
2842.51	42.1401
2843.83	45.7719
2845.15	48.5206
2846.47	51.2458
2847.79	54.1554
2849.11	57.551
2850.43	60.5692
2851.75	63.6845
2853.07	66.7797
2854.39	69.256
2855.71	71.7392
2857.03	73.7157
2858.35	75.8267
2859.67	77.771
2860.98	80.0795
2862.3	82.2455
2863.62	84.6329
2864.94	86.4385
2866.25	87.5982
2867.57	89.1228
2868.89	89.6752
2870.21	91.4309
2871.52	92.4571
2872.84	93.2934
2874.15	94.6567
2875.47	95.8338
2876.78	97.6656
2878.1	98.6327
2879.42	100.109
2880.73	100.68
2882.04	102.491
2883.36	103.796
2884.67	105.544
2885.99	107.023
2887.3	108.271
2888.61	109.307
2889.93	110.462
2891.24	111.856
2892.55	114.041
2893.87	115.223
2895.18	117.311
2896.49	119.356
2897.8	121.412
2899.11	123.903
2900.42	126.346
2901.74	129.485
2903.05	132.243
2904.36	135.387
2905.67	138.656
2906.98	142.573
2908.29	145.786
2909.6	150.007
2910.91	153.888
2912.22	156.817
2913.53	160.901
2914.83	164.735
2916.14	168.089
2917.45	170.949
2918.76	174.613
2920.07	177.781
2921.37	180.536
2922.68	183.872
2923.99	186.766
2925.3	188.998
2926.6	190.894
2927.91	192.471
2929.22	193.21
2930.52	193.294
2931.83	193.185
2933.13	193.476
2934.44	192.886
2935.74	192.194
2937.05	190.654
2938.35	189.524
2939.66	187.874
2940.96	185.357
2942.27	183.257
2943.57	180.547
2944.87	178.182
2946.18	176.017
2947.48	173.259
2948.78	169.697
2950.09	166.163
2951.39	162.648
2952.69	158.451
2953.99	154.512
2955.29	150.685
2956.6	146.373
2957.9	142
2959.2	137.83
2960.5	133.94
2961.8	130.213
2963.1	126.629
2964.4	123.341
2965.7	119.974
2967	116.939
2968.3	112.909
2969.6	109.458
2970.9	105.924
2972.2	102.995
2973.49	100.029
2974.79	97.1515
2976.09	93.6378
2977.39	89.9038
2978.69	87.4251
2979.98	84.3462
2981.28	81.0279
2982.58	77.7216
2983.88	75.0383
2985.17	71.6232
2986.47	68.3183
2987.76	65.3923
2989.06	61.7907
2990.36	58.3724
2991.65	55.3729
2992.95	52.0939
2994.24	48.7612
2995.54	45.8303
2996.83	43.384
2998.12	40.845
2999.42	37.3467
3000.71	34.6764
3002	32.5261
3003.3	29.9942
3004.59	27.7919
3005.88	25.5648
3007.18	23.745
3008.47	21.9513
3009.76	20.4932
3011.05	18.955
3012.35	17.0089
3013.64	15.4823
3014.93	13.6192
3016.22	12.359
3017.51	10.2674
3018.8	9.26258
3020.09	7.8735
3021.38	6.76622
3022.67	6.34321
3023.96	5.85484
3025.25	5.24371
3026.54	5.44087
3027.83	4.83236
3029.12	4.36225
3030.41	3.97663
3031.69	3.39747
3032.98	3.14553
3034.27	3.26146
3035.56	3.33563
3036.85	3.44806
3038.13	3.09389
3039.42	3.06425
3040.71	2.66907
3041.99	2.8587
3043.28	2.87777
3044.57	2.98512
3045.85	2.49799
3047.14	2.52484
3048.42	2.80538
3049.71	2.93855
3050.99	3.19596
3052.28	3.56914
3053.56	3.32959
3054.85	3.46837
3056.13	3.88531
3057.42	4.30603
3058.7	4.4182
3059.98	4.61828
3061.27	4.70524
3062.55	4.34741
3063.83	4.12841
3065.11	4.34162
3066.4	4.42559
3067.68	4.50568
3068.96	4.36418
3070.24	4.43474
3071.52	4.77894
3072.8	5.07814
3074.09	4.24245
3075.37	4.11382
3076.65	3.71959
3077.93	3.47621
3079.21	2.88969
3080.49	2.53227
3081.77	1.92721
3083.05	2.34713
3084.32	2.17496
3085.61	2.21097
3086.88	1.77346
3088.16	1.93492
3089.44	1.70148
3090.72	1.52862
3092	0.831802
3093.27	0.680129
3094.55	0.866163
3095.83	0.413066
3097.11	0.318714
3098.38	0.113874
3099.66	-0.359535
3100.94	-0.186195
3102.21	-0.350417
3103.49	-0.296653
3104.76	-0.982065
3106.04	-1.08746
3107.31	-1.00146
3108.59	-0.922899
3109.86	-0.899884
3111.14	-0.461817
3112.41	-0.236394
3113.69	0.628445
3114.96	1.20048
3116.23	1.38683
3117.51	1.28013
3118.78	1.96784
3120.05	2.41397
3121.33	2.63461
3122.6	2.66017
3123.87	3.26726
3125.14	3.43215
3126.42	3.57702
3127.69	4.09578
3128.96	4.45824
3130.23	4.93478
3131.5	5.33954
3132.77	5.4732
3134.04	6.33882
3135.31	6.54826
3136.58	6.58312
3137.85	6.71764
3139.12	7.70695
3140.39	7.99915
3141.66	8.35312
3142.93	8.68622
3144.2	9.07467
3145.47	9.23404
3146.74	8.62652
3148	8.21519
3149.27	8.43915
