#Acq. time (s)=	45
#Accumulations=	2
#Range (cm-¹)=	200...3150
#Windows=	2
#Auto scanning=	Off
#Autofocus=	Off
#Macrospot=	Off
#AutoExposure=	Off
#Spike filter=	Multiple accum.
#Delay time (s)=	0
#Binning=	1
#Readout mode=	Signal
#DeNoise=	Off
#ICS correction=	On
#Dark correction=	Off
#Inst. Process=	Off
#Detector Gain=	Best Dynamic Range
#Detector ADC=	20 kHz       
#Detector temperature (°C)=	-69.62
#Instrument=	LabRAM HR Evol
#Detector=	Synapse
#Objective=	x100
#Grating=	600 gr/mm
#ND Filter=	100%
#Laser (nm)=	532 
#Hole=	100.021
#Range=	Auto
#Laser Pol.=	No
#Raman. Pol.=	No
#Laser Pol. (°)=	-0.0007625
#Raman Pol. (°)=	89.9995
#Collection=	Microscope
#StageXY=	Marzhauser
#StageZ=	Marzhauser
#X (µm)=	19289.6
#Y (µm)=	3081.3
#Z (µm)=	1047
#Full time(mm:ss)=	3:18
#Project=	
#Sample=	
#Site=	
#Title=	Mb_50_18_10_2x_45s_532 nm_x100_100%_600 gr_mm
#Remark=	
#Date=	12.07.2022 11:01
#Acquired=	12.07.2022 11:01:04
#Base:Fit=	10.08.2022 10:49:18
#Base:Sub=	10.08.2022 10:49:30
#Filter:Polynom=	16.08.2022 10:14:59
#AxisType[0]=Intens
#AxisUnit[0]=Cnt
#AxisType[1]=Spectr
#AxisUnit[1]=1/cm
200.388	34.0477
202.204	30.7271
204.019	27.6475
205.832	24.4452
207.646	21.6261
209.459	19.1349
211.274	16.8031
213.087	14.5502
214.899	13.0417
216.711	11.3545
218.524	9.47329
220.335	7.53627
222.146	6.26851
223.956	5.21983
225.766	4.58378
227.576	3.98606
229.388	3.46337
231.197	1.85225
233.005	1.06748
234.813	1.445
236.621	1.29374
238.429	0.544806
240.236	0.382837
242.045	0.491266
243.852	0.968212
245.658	0.185017
247.464	1.0097
249.269	1.54595
251.074	3.01801
252.879	3.13528
254.683	3.39859
256.487	3.86518
258.291	4.00551
260.094	3.2812
261.897	1.96403
263.702	2.79776
265.504	2.45334
267.306	2.59437
269.108	4.68522
270.909	4.96055
272.71	4.2585
274.511	3.89916
276.311	3.4623
278.111	3.31468
279.91	4.23613
281.709	3.23415
283.508	3.91033
285.306	3.78147
287.105	4.33304
288.9	4.52552
290.698	5.06454
292.495	5.13032
294.291	6.42143
296.088	7.66683
297.884	8.288
299.679	9.37205
301.475	9.80385
303.27	10.9167
305.064	10.6805
306.858	11.7059
308.652	11.3489
310.444	11.511
312.237	12.0251
314.03	12.8331
315.822	13.2481
317.615	13.5418
319.406	13.751
321.198	13.9308
322.987	15.2495
324.778	15.6515
326.568	14.9893
328.358	13.9375
330.148	13.5994
331.935	13.4831
333.724	13.5721
335.513	12.2094
337.301	12.5726
339.089	12.6188
340.875	12.6607
342.662	11.6872
344.449	10.7591
346.236	10.2537
348.02	9.58727
349.806	9.21306
351.592	10.2523
353.375	12.2542
355.16	12.7539
356.944	13.6554
358.728	14.7937
360.51	15.1213
362.294	15.6592
364.077	16.7375
365.858	17.443
367.64	18.4356
369.422	20.021
371.202	20.7469
372.983	23.1023
374.764	23.669
376.543	24.766
378.324	24.6763
380.102	26.2567
381.881	27.4934
383.661	29.1568
385.438	29.6683
387.216	29.1282
388.993	30.1467
390.771	30.0019
392.548	30.0062
394.324	28.8704
396.101	29.6037
397.875	27.8014
399.651	28.2851
401.425	27.3735
403.201	27.4609
404.974	26.0449
406.749	25.3208
408.524	23.8814
410.296	22.2774
412.07	19.7359
413.841	17.2469
415.614	16.4438
417.385	15.0068
419.156	13.3285
420.928	12.089
422.698	10.5298
424.469	7.97581
426.238	6.89119
428.009	5.25122
429.777	3.90507
431.548	3.38525
433.315	2.8936
435.083	2.47094
436.852	2.09921
438.618	2.57196
440.387	3.00728
442.153	2.97622
443.919	1.50361
445.686	1.58592
447.451	2.13256
449.218	2.66657
450.982	2.06875
452.746	2.21785
454.512	2.27655
456.275	2.43174
458.038	2.75633
459.803	3.1215
461.565	3.72407
463.327	4.3425
465.091	5.65055
466.852	5.63341
468.613	8.26119
470.374	8.13227
472.136	8.3353
473.896	9.58365
475.655	10.3742
477.415	12.7468
479.176	13.0574
480.934	14.418
482.692	15.9098
484.45	17.8342
486.21	19.9152
487.967	22.7087
489.724	23.6702
491.481	25.4131
493.237	27.1866
494.995	29.2741
496.75	30.8671
498.506	32.4995
500.26	34.0549
502.015	35.8944
503.771	38.0995
505.525	38.3376
507.279	38.4857
509.032	39.8396
510.785	40.3614
512.537	40.3532
514.289	42.1964
516.041	42.7335
517.793	43.0648
519.546	42.7713
521.297	41.3867
523.047	40.8979
524.797	41.0956
526.547	41.2705
528.297	40.9136
530.046	39.7676
531.795	39.7033
533.543	40.224
535.291	39.3247
537.039	38.4187
538.787	36.7018
540.534	35.4349
542.281	34.0693
544.027	33.1681
545.773	32.4207
547.519	31.16
549.264	29.2511
551.01	27.1863
552.754	25.994
554.499	23.8622
556.243	23.4948
557.987	21.5402
559.73	21.2295
561.474	20.0721
563.216	19.5084
564.959	18.7519
566.701	17.5301
568.441	17.5074
570.182	17.1949
571.923	17.1945
573.664	16.965
575.405	16.1375
577.145	15.2152
578.885	15.144
580.624	15.9076
582.361	15.1986
584.1	13.9123
585.839	12.8747
587.577	11.7343
589.315	10.9887
591.052	11.0382
592.787	9.95356
594.524	9.09507
596.26	9.19354
597.997	8.0585
599.732	7.66817
601.466	8.799
603.201	9.12133
604.936	9.31563
606.67	8.73729
608.403	9.32267
610.136	10.7367
611.87	11.3513
613.603	11.614
615.334	11.5911
617.067	10.8923
618.799	12.6235
620.529	11.2399
622.26	11.6289
623.991	11.7263
625.72	11.0059
627.451	11.37
629.181	11.5749
630.909	11.0338
632.638	10.6318
634.368	10.4825
636.095	9.94369
637.823	9.58538
639.551	10.3175
641.277	10.4574
643.005	10.8339
644.73	11.1587
646.457	11.4317
648.184	11.0766
649.908	12.1128
651.634	12.7332
653.357	13.5944
655.083	14.0653
656.806	14.7915
658.53	15.2054
660.253	14.887
661.977	15.2556
663.7	15.7139
665.422	14.811
667.145	14.0624
668.865	13.5769
670.588	13.5803
672.308	14.8296
674.027	15.0316
675.749	15.3774
677.468	16.5458
679.188	17.9627
680.907	19.6411
682.627	20.5487
684.345	21.425
686.064	23.193
687.781	24.551
689.498	25.0544
691.216	24.8264
692.932	25.1329
694.65	26.4187
696.366	26.4274
698.081	25.7528
699.797	25.7038
701.512	26.1804
703.228	25.7078
704.942	27.2937
706.655	26.7022
708.371	27.936
710.083	27.0961
711.796	26.2923
713.51	27.4523
715.222	26.859
716.934	27.2855
718.645	27.844
720.358	28.1168
722.068	28.6682
723.779	29.8965
725.49	31.101
727.2	32.6007
728.909	33.4808
730.618	34.7116
732.329	35.1942
734.037	36.1486
735.745	38.4803
737.453	41.2236
739.16	43.3515
740.869	44.9836
742.576	47.6621
744.282	49.9752
745.988	52.4552
747.694	55.2115
749.401	57.1264
751.107	60.1184
752.811	63.6303
754.516	67.3292
756.22	69.4828
757.924	72.3226
759.627	74.3559
761.332	75.8968
763.035	78.8802
764.738	80.947
766.44	82.7282
768.142	83.1714
769.843	85.3218
771.544	86.5932
773.245	87.4492
774.946	88.481
776.646	90.5085
778.346	90.2962
780.046	89.8189
781.745	89.0448
783.444	88.6358
785.143	90.2213
786.841	91.4926
788.539	91.4627
790.237	91.5459
791.934	89.5904
793.631	88.6909
795.328	88.6063
797.024	87.6608
798.72	88.4438
800.416	87.264
802.112	86.6159
803.807	85.0066
805.502	83.2749
807.196	82.6927
808.89	80.8426
810.584	79.3529
812.278	78.5668
813.971	77.4241
815.664	75.372
817.354	74.7328
819.047	74.4597
820.739	74.8226
822.43	74.9294
824.122	73.7058
825.813	73.1168
827.503	73.0986
829.192	72.954
830.882	72.1382
832.571	71.8819
834.261	71.6885
835.95	71.0951
837.637	70.0625
839.325	69.33
841.013	66.5799
842.701	65.5599
844.389	64.5804
846.074	63.222
847.761	62.8729
849.447	61.4989
851.131	60.1316
852.817	57.8279
854.503	56.7322
856.188	55.4984
857.871	54.4631
859.556	54.1628
861.24	53.602
862.922	50.8116
864.606	50.4343
866.289	50.4111
867.97	51.1814
869.653	52.1488
871.336	50.6717
873.016	49.5766
874.698	48.1486
876.379	47.7696
878.058	47.4231
879.739	47.4213
881.418	45.8747
883.098	45.083
884.778	43.8473
886.456	43.4312
888.135	44.5538
889.812	43.9982
891.49	43.8527
893.167	41.7945
894.845	41.9532
896.523	41.4676
898.198	41.1494
899.875	41.0142
901.55	42.2308
903.226	42.3839
904.901	43.0635
906.576	43.5109
908.25	44.2256
909.925	44.6206
911.598	43.5493
913.271	44.0524
914.945	43.5415
916.617	43.5786
918.291	41.7376
919.962	40.4877
921.635	40.343
923.306	39.0155
924.978	37.0698
926.648	37.4505
928.318	37.1594
929.989	36.1873
931.659	35.3209
933.328	33.9965
934.998	33.0468
936.666	32.4089
938.336	31.9254
940.004	31.2843
941.671	29.3115
943.34	29.2097
945.007	28.0463
946.673	27.1424
948.339	26.4937
950.007	26.0004
951.672	25.1492
953.337	24.2849
955.004	23.6157
956.669	23.1987
958.333	21.254
959.997	19.7572
961.662	19.1352
963.326	19.196
964.989	18.5292
966.651	18.2127
968.315	19.9225
969.977	20.6894
971.639	21.1464
973.301	20.5077
974.962	21.4877
976.624	21.1283
978.285	23.0291
979.945	22.7023
981.605	23.2705
983.264	23.8254
984.924	24.0464
986.583	24.397
988.243	24.6563
989.901	25.2732
991.56	25.211
993.217	24.4613
994.875	25.0752
996.532	26.6766
998.188	26.8362
999.845	29.0714
1001.5	30.431
1003.16	33.7662
1004.81	35.9926
1006.47	38.3222
1008.12	39.615
1009.78	41.4976
1011.43	42.3801
1013.09	44.5019
1014.74	45.6837
1016.39	46.0808
1018.05	47.4799
1019.7	48.498
1021.35	49.3363
1023	50.3547
1024.65	51.3846
1026.31	53.0188
1027.96	53.6784
1029.61	54.1833
1031.26	53.4346
1032.91	53.3883
1034.56	52.5076
1036.21	51.0946
1037.86	50.8756
1039.51	48.4807
1041.16	46.3133
1042.8	44.835
1044.45	44.4042
1046.1	43.7158
1047.75	42.2419
1049.39	40.6831
1051.04	39.4299
1052.69	37.2626
1054.33	34.8627
1055.98	33.1227
1057.62	31.7152
1059.27	29.8202
1060.91	28.4196
1062.56	26.9294
1064.2	26.1298
1065.85	24.8366
1067.49	24.0229
1069.13	23.1034
1070.77	23.0095
1072.42	23.5752
1074.06	22.8756
1075.7	23.9018
1077.34	24.566
1078.98	24.7921
1080.62	25.4342
1082.27	26.4685
1083.91	25.682
1085.55	25.9074
1087.18	25.0028
1088.82	25.1571
1090.46	23.8931
1092.1	24.4977
1093.74	24.2933
1095.38	25.0011
1097.02	24.9649
1098.65	24.3837
1100.29	25.4485
1101.93	25.491
1103.56	25.2477
1105.2	24.9689
1106.84	24.6034
1108.47	23.1169
1110.11	23.3245
1111.74	21.6496
1113.38	20.2408
1115.01	19.5265
1116.64	18.3888
1118.28	16.3237
1119.91	15.4813
1121.54	13.8794
1123.18	12.8611
1124.81	12.1644
1126.44	11.7309
1128.07	10.7403
1129.7	9.03883
1131.33	7.5905
1132.97	7.52837
1134.6	7.81273
1136.23	7.59347
1137.86	7.92642
1139.49	8.17105
1141.11	7.7513
1142.74	6.37708
1144.37	7.28817
1146	5.74224
1147.63	6.13902
1149.26	6.79584
1150.88	7.0638
1152.51	6.9907
1154.14	6.41959
1155.76	5.73486
1157.39	5.30467
1159.01	4.11685
1160.64	3.49447
1162.27	3.26343
1163.89	2.11147
1165.51	1.35901
1167.14	1.24497
1168.76	1.41897
1170.39	2.26899
1172.01	0.713923
1173.63	1.58851
1175.25	1.28035
1176.88	2.11003
1178.5	2.35475
1180.12	1.52363
1181.74	1.84148
1183.36	0.549447
1184.98	0.506455
1186.6	0.724925
1188.22	0.630849
1189.84	0.581326
1191.46	1.37221
1193.08	1.35512
1194.7	0.993583
1196.32	0.492018
1197.94	0.444245
1199.55	0.77743
1201.17	2.38557
1202.79	2.93678
1204.41	2.83757
1206.02	3.26018
1207.64	3.24282
1209.25	3.54749
1210.87	4.22295
1212.48	5.90765
1214.1	6.5234
1215.71	7.59363
1217.33	7.9222
1218.94	9.57566
1220.56	11.4837
1222.17	12.8148
1223.79	13.9356
1225.4	15.7618
1227.01	15.5055
1228.62	17.6897
1230.23	19.1237
1231.85	20.5365
1233.46	21.4471
1235.07	22.6848
1236.68	23.5902
1238.29	24.4477
1239.9	25.2153
1241.51	25.2243
1243.12	26.2398
1244.73	26.4633
1246.34	28.2514
1247.94	29.5803
1249.55	30.8339
1251.16	31.8783
1252.77	31.0022
1254.37	32.7556
1255.98	32.5227
1257.59	32.9265
1259.2	32.548
1260.8	32.7849
1262.41	34.6301
1264.01	35.6328
1265.62	37.9182
1267.22	38.6821
1268.83	40.2122
1270.43	41.6668
1272.03	41.7192
1273.64	43.5711
1275.24	44.9337
1276.85	47.2218
1278.45	48.6526
1280.05	49.592
1281.65	50.5317
1283.25	51.3344
1284.85	52.6062
1286.46	54.5731
1288.06	55.7286
1289.66	57.2046
1291.26	57.9768
1292.86	58.5983
1294.46	58.9422
1296.06	59.6756
1297.66	60.3727
1299.25	61.975
1300.85	62.2637
1302.45	61.7322
1304.05	61.232
1305.65	61.6737
1307.24	62.1793
1308.84	63.0884
1310.43	62.996
1312.03	62.6733
1313.63	61.4931
1315.22	60.8502
1316.82	59.8211
1318.41	59.271
1320.01	57.7739
1321.6	57.1134
1323.2	56.8275
1324.79	55.9091
1326.38	55.0727
1327.98	54.2271
1329.57	53.1009
1331.16	51.8397
1332.76	50.2664
1334.35	50.8284
1335.94	49.1756
1337.53	48.3431
1339.12	46.9898
1340.71	46.4545
1342.3	46.3379
1343.89	44.5379
1345.48	43.8941
1347.07	42.1049
1348.66	41.0727
1350.25	39.589
1351.84	38.246
1353.43	37.5062
1355.01	36.21
1356.6	34.1572
1358.19	32.4427
1359.77	31.991
1361.36	31.539
1362.95	31.0933
1364.53	29.4599
1366.12	29.1335
1367.71	28.1401
1369.29	27.0372
1370.88	25.6557
1372.46	25.8787
1374.04	25.2046
1375.63	24.5957
1377.21	24.7518
1378.8	23.4914
1380.38	22.4257
1381.96	21.7127
1383.54	21.3146
1385.13	21.4427
1386.71	21.1382
1388.29	20.5074
1389.87	20.3152
1391.45	20.1695
1393.03	19.8846
1394.61	19.7358
1396.19	19.6823
1397.77	19.4713
1399.35	20.0162
1400.93	21.4182
1402.51	22.0518
1404.09	22.7725
1405.67	23.4511
1407.24	24.8149
1408.82	26.0991
1410.4	28.218
1411.98	30.2449
1413.55	32.0305
1415.13	32.328
1416.71	35.0716
1418.28	37.8117
1419.86	40.4392
1421.43	42.6798
1423.01	45.1631
1424.58	47.8783
1426.16	49.6725
1427.73	52.1737
1429.31	54.7038
1430.88	56.8476
1432.45	58.4933
1434.02	60.9478
1435.6	63.2915
1437.17	65.0585
1438.74	66.5591
1440.31	67.5707
1441.88	68.4846
1443.45	68.9446
1445.03	70.7596
1446.6	70.4453
1448.17	70.062
1449.74	70.123
1451.3	69.6292
1452.87	67.8002
1454.44	67.1174
1456.01	65.9462
1457.58	65.9181
1459.15	65.1788
1460.72	64.2689
1462.28	62.2432
1463.85	61.2386
1465.42	59.6877
1466.98	57.5375
1468.55	56.4121
1470.12	55.0001
1471.68	54.2128
1473.25	52.9559
1474.81	51.4441
1476.38	49.7477
1477.94	49.3504
1479.51	47.5022
1481.07	45.8425
1482.63	44.7707
1484.2	44.2723
1485.76	44.1243
1487.32	43.8556
1488.88	43.4063
1490.45	41.7111
1492.01	40.9786
1493.57	40.4754
1495.13	40.1583
1496.69	38.559
1498.25	37.1025
1499.81	36.0016
1501.37	34.961
1502.93	32.8907
1504.49	31.2983
1506.05	30.6306
1507.61	29.3276
1509.17	27.4963
1510.73	25.6707
1512.28	23.9181
1513.84	22.6951
1515.4	20.5655
1516.96	19.8625
1518.51	19.0289
1520.07	17.7976
1521.63	16.5715
1523.18	15.8122
1524.74	13.7652
1526.29	12.498
1527.85	11.2151
1529.4	10.0907
1530.96	9.74541
1532.51	9.32565
1534.06	9.60852
1535.62	9.94867
1537.17	8.44559
1538.72	8.71834
1540.28	8.17597
1541.83	9.28422
1543.38	9.3966
1544.93	11.0267
1546.48	11.8903
1548.03	13.6681
1549.59	15.0078
1551.14	14.9587
1552.69	14.5753
1554.24	16.1757
1555.79	17.3903
1557.34	18.0101
1558.88	19.9038
1560.43	21.6005
1561.98	23.2969
1563.53	25.0144
1565.08	26.5179
1566.62	28.099
1568.17	29.3889
1569.72	31.4669
1571.27	32.5946
1572.81	33.4018
1574.36	35.4568
1575.9	36.95
1577.45	38.0706
1579	39.4544
1580.54	40.3389
1582.09	41.931
1583.63	43.6686
1585.17	44.1521
1586.72	44.4241
1588.26	45.3695
1589.8	46.4566
1591.35	47.0864
1592.89	47.2415
1594.43	47.5901
1595.97	47.5587
1597.52	47.6362
1599.06	48.2528
1600.6	47.4188
1602.14	46.8238
1603.68	47.2326
1605.22	47.07
1606.76	47.6163
1608.3	47.1997
1609.84	47.1828
1611.38	47.5998
1612.92	47.3728
1614.46	47.2725
1615.99	47.6375
1617.53	47.468
1619.07	48.3575
1620.61	48.7547
1622.14	50.2291
1623.68	49.7214
1625.22	50.4631
1626.75	51.6651
1628.29	51.8926
1629.82	53.3351
1631.36	55.593
1632.9	56.5492
1634.43	58.3629
1635.96	60.7562
1637.5	62.2244
1639.03	63.9992
1640.57	64.9315
1642.1	66.1329
1643.63	67.0152
1645.16	67.505
1646.7	68.6922
1648.23	69.7983
1649.76	70.3554
1651.29	70.6604
1652.82	69.6157
1654.36	69.4202
1655.89	68.5514
1657.42	67.5177
1658.95	67.6627
1660.48	66.7107
1662.01	66.1177
1663.53	63.9121
1665.06	62.8249
1666.59	60.5771
1668.12	58.4677
1669.65	56.7013
1671.18	54.5807
1672.7	52.6887
1674.23	50.578
1675.76	47.6346
1677.29	44.3878
1678.81	42.5454
1680.34	40.1475
1681.86	37.0318
1683.39	35.2837
1684.91	32.8113
1686.44	31.2704
1687.96	28.8672
1689.49	26.4282
1691.01	24.5172
1692.54	22.6329
1694.06	21.1126
1695.58	19.9809
1697.11	18.6552
1698.63	17.7317
1700.15	15.6506
1701.67	15.136
1703.2	15.2446
1704.72	13.4495
1706.24	12.651
1707.76	12.0252
1709.28	11.7383
1710.8	11.684
1712.32	11.6646
1713.84	10.2462
1715.36	10.2421
1716.88	9.92183
1718.4	10.1528
1719.91	10.1279
1721.43	9.87832
1722.95	10.4149
1724.47	9.58649
1725.99	8.74138
1727.5	7.43169
1729.02	7.05171
1730.54	7.10603
1732.05	7.05612
1733.57	7.20323
1735.09	7.72021
1736.6	7.17592
1738.12	7.19278
1739.63	5.69673
1741.15	6.5781
1742.66	6.19351
1744.18	6.74621
1745.69	6.48263
1747.2	6.20052
1748.72	6.33676
1750.23	5.98428
1751.74	5.61812
1753.25	5.19034
1754.77	5.35686
1756.28	4.90992
1757.79	4.74653
1759.3	4.77598
1760.81	4.86531
1762.32	4.82082
1763.83	4.90534
1765.34	4.84545
1766.85	5.32527
1768.36	6.07484
1769.87	6.3888
1771.38	5.8568
1772.89	5.44615
1774.4	5.0969
1775.91	4.61032
1777.41	4.61739
1778.92	4.09911
1780.43	3.49014
1781.94	3.81526
1783.44	4.19383
1784.95	3.97213
1786.45	3.87026
1787.96	3.78935
1789.47	3.16998
1790.97	3.68904
1792.48	3.97092
1793.98	3.59607
1795.48	3.26084
1796.99	3.07818
1798.49	3.21104
1800	2.76928
1801.5	2.34415
1803	1.99453
1804.51	3.15876
1806.01	3.95772
1807.51	4.19074
1809.01	4.35669
1810.51	4.8693
1812.02	5.05142
1813.52	5.16139
1815.02	5.26476
1816.52	5.71871
1818.02	5.63418
1819.52	5.95987
1821.02	5.62144
1822.52	5.20923
1824.02	5.73438
1825.51	5.85907
1827.01	5.80856
1828.51	5.8443
1830.01	6.67734
1831.51	6.73936
1833	7.51576
1834.5	7.60731
1836	8.12657
1837.5	8.38506
1838.99	8.84864
1840.49	8.34567
1841.98	8.13161
1843.48	7.93652
1844.97	7.37437
1846.47	6.969
1847.96	7.67852
1849.46	7.9266
1850.95	7.66879
1852.45	7.47324
1853.94	7.44725
1855.43	7.68462
1856.92	7.78656
1858.42	7.54529
1859.91	7.00314
1861.4	6.84383
1862.89	6.53647
1864.39	6.42975
1865.88	6.60774
1867.37	6.32374
1868.86	5.85466
1870.35	5.99261
1871.84	6.58298
1873.33	6.47294
1874.82	6.32663
1876.31	5.96873
1877.8	6.43338
1879.29	7.22188
1880.77	7.24256
1882.26	7.24542
1882.51	7.27879
1884	7.27864
1885.5	7.25025
1886.99	7.15985
1888.48	7.68095
1889.98	8.0266
1891.47	8.82745
1892.97	9.12429
1894.46	9.57204
1895.95	9.91871
1897.44	10.1937
1898.93	10.1361
1900.42	9.56773
1901.92	9.0686
1903.41	9.88538
1904.9	9.93042
1906.39	9.83065
1907.88	9.04678
1909.37	9.27999
1910.86	9.61657
1912.35	10.2326
1913.84	10.5776
1915.32	10.5692
1916.81	11.6038
1918.3	11.699
1919.79	12.3295
1921.28	12.3093
1922.76	11.528
1924.25	11.0562
1925.74	10.8581
1927.22	10.3718
1928.71	10.0221
1930.2	9.14529
1931.68	9.39199
1933.17	8.91637
1934.65	9.35106
1936.14	10.0904
1937.62	9.77661
1939.11	9.73716
1940.59	8.95234
1942.08	9.53094
1943.56	9.74602
1945.04	9.71765
1946.53	9.22528
1948.01	9.64708
1949.49	10.0619
1950.97	10.4381
1952.45	10.4437
1953.94	10.1341
1955.42	10.2957
1956.9	9.97988
1958.38	9.47192
1959.86	8.83142
1961.34	8.84006
1962.82	8.47145
1964.3	8.34723
1965.78	8.47534
1967.26	8.07736
1968.74	8.03256
1970.22	7.62052
1971.69	7.17842
1973.17	7.6668
1974.65	7.17402
1976.13	6.83728
1977.61	7.10944
1979.08	6.73649
1980.56	6.49662
1982.03	6.44185
1983.51	7.24278
1984.99	7.78065
1986.46	8.4858
1987.94	8.61022
1989.41	9.04167
1990.89	9.46345
1992.36	9.33271
1993.84	10.0752
1995.31	9.32465
1996.78	9.04917
1998.26	8.91189
1999.73	8.70764
2001.2	8.87568
2002.68	9.27769
2004.15	9.41277
2005.62	10.0496
2007.09	9.68273
2008.56	9.63126
2010.04	9.13972
2011.51	8.40633
2012.98	8.79045
2014.45	8.74681
2015.92	9.697
2017.39	9.4282
2018.86	9.80556
2020.33	9.86738
2021.8	10.3476
2023.27	10.4318
2024.74	10.1816
2026.2	10.5491
2027.67	10.131
2029.14	10.1803
2030.61	9.62969
2032.07	9.51219
2033.54	9.78813
2035.01	10.3001
2036.47	10.753
2037.94	12.1905
2039.41	12.1961
2040.87	12.6795
2042.34	13.2202
2043.8	13.5038
2045.27	13.7677
2046.73	14.5343
2048.2	14.3724
2049.66	15.2722
2051.12	15.9617
2052.59	17.0546
2054.05	17.2098
2055.51	18.224
2056.98	19.3373
2058.44	20.615
2059.9	21.3727
2061.36	21.7238
2062.82	22.3125
2064.29	22.8417
2065.75	23.4908
2067.21	23.76
2068.67	24.0753
2070.13	24.5516
2071.59	25.5165
2073.05	26.1476
2074.51	27.5119
2075.97	28.4211
2077.43	29.0966
2078.88	29.5783
2080.34	30.2224
2081.8	30.9575
2083.26	31.8106
2084.72	32.9952
2086.17	33.8164
2087.63	35.352
2089.09	36.688
2090.54	37.438
2092	38.9026
2093.46	39.8549
2094.91	41.4745
2096.37	42.6463
2097.82	43.4658
2099.28	44.3412
2100.73	45.0759
2102.19	46.9063
2103.64	48.0648
2105.09	49.1407
2106.55	50.4874
2108	51.8097
2109.46	53.6002
2110.91	55.0708
2112.36	56.2858
2113.81	59.0144
2115.27	60.0067
2116.72	61.994
2118.17	63.4991
2119.62	65.5002
2121.07	66.8186
2122.52	68.8479
2123.97	70.2959
2125.42	72.3611
2126.87	74.1299
2128.32	76.5102
2129.77	78.1466
2131.22	80.4724
2132.67	81.9465
2134.12	84.1756
2135.57	85.9645
2137.01	88.7444
2138.46	90.4814
2139.91	92.667
2141.36	94.68
2142.8	96.0853
2144.25	97.9537
2145.7	99.9713
2147.14	102.53
2148.59	103.964
2150.03	105.054
2151.48	106.511
2152.92	107.858
2154.37	108.807
2155.81	110.46
2157.26	111.724
2158.7	112.419
2160.15	113.776
2161.59	114.092
2163.03	114.487
2164.48	114.809
2165.92	114.383
2167.36	114.578
2168.8	114.529
2170.25	114.659
2171.69	114.759
2173.13	114.574
2174.57	114.305
2176.01	113.841
2177.45	113.52
2178.89	113.665
2180.33	113.068
2181.77	113.177
2183.21	112.387
2184.65	111.599
2186.09	110.291
2187.53	107.885
2188.97	107.159
2190.41	105.558
2191.84	104.426
2193.28	102.541
2194.72	100.58
2196.16	98.7649
2197.59	96.9547
2199.03	95.2631
2200.47	93.7899
2201.9	91.548
2203.34	90.0437
2204.78	88.1089
2206.21	86.5041
2207.65	84.5785
2209.08	82.6753
2210.51	80.0651
2211.95	77.9685
2213.38	75.5642
2214.82	74.053
2216.25	72.2628
2217.68	71.1613
2219.12	68.4171
2220.55	65.7851
2221.98	63.369
2223.42	61.298
2224.85	59.5599
2226.28	57.4274
2227.71	55.9863
2229.14	53.3418
2230.57	50.8696
2232	49.4233
2233.43	47.5469
2234.86	45.666
2236.29	43.6053
2237.72	42.1648
2239.15	41.8436
2240.58	40.6456
2242.01	39.4265
2243.44	38.5056
2244.87	37.1242
2246.3	36.7144
2247.73	35.6493
2249.15	34.4705
2250.58	33.4179
2252.01	32.2855
2253.43	31.6269
2254.86	30.0784
2256.29	29.0417
2257.71	28.3001
2259.14	27.833
2260.56	27.5425
2261.99	27.0617
2263.41	26.8247
2264.84	26.111
2266.26	25.4843
2267.69	25.1481
2269.11	24.7009
2270.54	24.5845
2271.96	24.3168
2273.38	23.2856
2274.81	23.1966
2276.23	23.9441
2277.65	23.225
2279.07	22.6757
2280.49	21.6479
2281.92	21.7037
2283.34	21.3443
2284.76	20.8486
2286.18	20.6254
2287.6	19.7808
2289.02	18.8738
2290.44	16.3303
2291.86	15.6027
2293.28	14.4154
2294.7	14.2136
2296.12	14.0137
2297.54	13.464
2298.96	13.6138
2300.38	12.9098
2301.79	13.0896
2303.21	13.1341
2304.63	12.881
2306.05	12.2326
2307.46	11.8253
2308.88	11.6515
2310.3	11.1802
2311.71	10.2828
2313.13	10.2382
2314.55	9.78936
2315.96	9.48618
2317.38	9.20278
2318.79	9.13293
2320.21	8.80432
2321.62	9.22525
2323.03	9.48299
2324.45	9.14474
2325.86	9.54731
2327.27	9.65412
2328.69	9.91892
2330.1	9.41922
2331.51	8.97264
2332.93	9.41308
2334.34	9.0288
2335.75	8.07309
2337.16	7.6979
2338.57	7.89352
2339.99	8.15063
2341.4	8.52283
2342.81	8.61749
2344.22	8.44744
2345.63	8.8227
2347.04	8.40766
2348.45	7.30418
2349.86	6.90295
2351.26	6.40762
2352.67	6.07868
2354.08	5.28384
2355.49	4.97944
2356.9	4.162
2358.31	3.73977
2359.71	2.78995
2361.12	2.6721
2362.53	2.99222
2363.94	3.65547
2365.34	4.48567
2366.75	4.76056
2368.15	4.97421
2369.56	5.03012
2370.97	4.33856
2372.37	4.46288
2373.78	3.62669
2375.18	3.2817
2376.59	2.5484
2377.99	2.64927
2379.39	2.58831
2380.8	2.04929
2382.2	2.10685
2383.61	2.58153
2385.01	2.73213
2386.41	3.26539
2387.81	3.1328
2389.22	3.94929
2390.62	4.03486
2392.02	4.44945
2393.42	3.98224
2394.82	3.45256
2396.22	4.19691
2397.63	3.47516
2399.02	3.27428
2400.43	3.35271
2401.82	3.63702
2403.23	3.84711
2404.62	3.77036
2406.02	4.05263
2407.42	4.73019
2408.82	4.95956
2410.22	4.89824
2411.62	5.28424
2413.02	4.96111
2414.41	4.45853
2415.81	4.23129
2417.21	3.85585
2418.61	4.55591
2420	4.92745
2421.4	5.36094
2422.79	5.25799
2424.19	5.18336
2425.59	5.41652
2426.98	5.34221
2428.38	5.88311
2429.77	5.09392
2431.17	5.34321
2432.56	4.26399
2433.96	3.76907
2435.35	3.46677
2436.74	3.06848
2438.14	2.39577
2439.53	1.78337
2440.92	0.698171
2442.32	0.53922
2443.71	-0.174732
2445.1	-0.223178
2446.49	-0.612703
2447.88	-0.534376
2449.28	-1.1521
2450.67	-1.67908
2452.06	-0.755838
2453.45	-0.408006
2454.84	-0.720472
2456.23	-0.918453
2457.62	-0.412646
2459.01	-0.441882
2460.4	-0.736329
2461.79	-1.35449
2463.18	-1.54328
2464.57	-0.995544
2465.96	-0.482567
2467.34	-0.220181
2468.73	0.408771
2470.12	1.49111
2471.51	2.14568
2472.89	2.57273
2474.28	2.6652
2475.67	2.55115
2477.05	2.51377
2478.44	2.41743
2479.83	3.19744
2481.21	3.43138
2482.6	2.77603
2483.98	3.32188
2485.37	3.34977
2486.75	3.72191
2488.14	4.35981
2489.52	4.12765
2490.9	4.39366
2492.29	4.24936
2493.67	4.50073
2495.06	4.68748
2496.44	4.57524
2497.82	4.28597
2499.2	3.31069
2500.59	3.54737
2501.97	2.66307
2503.35	2.12634
2504.73	2.2584
2506.11	1.92439
2507.49	1.71289
2508.88	1.71683
2510.26	1.92839
2511.63	2.517
2513.01	2.32242
2514.39	2.53191
2515.77	2.19299
2517.15	2.52138
2518.53	2.28694
2519.91	2.51092
2521.29	3.27276
2522.67	3.25292
2524.05	3.06302
2525.42	3.48161
2526.8	3.94267
2528.18	3.81525
2529.56	3.98199
2530.93	4.31964
2532.31	5.09401
2533.69	5.6349
2535.06	5.85818
2536.44	6.1349
2537.81	6.72848
2539.19	7.2085
2540.56	7.05841
2541.94	6.72973
2543.31	6.76121
2544.69	7.1106
2546.06	7.41187
2547.44	7.68912
2548.81	7.69114
2550.18	6.9043
2551.56	6.80476
2552.93	7.43324
2554.3	7.23461
2555.68	7.84016
2557.05	8.69401
2558.42	8.82203
2559.79	9.28289
2561.16	9.57466
2562.53	9.63226
2563.9	9.78261
2565.28	9.58546
2566.64	9.70722
2568.02	9.78564
2569.38	9.56789
2570.76	9.25983
2572.12	9.03424
2573.49	9.28375
2574.86	9.82409
2576.23	9.94815
2577.6	10.522
2578.97	10.5456
2580.34	10.4171
2581.7	10.0117
2583.07	9.84356
2584.44	9.29042
2585.81	9.21573
2587.17	8.66455
2588.54	8.76587
2589.91	9.09351
2591.27	9.19021
2592.64	8.98481
2594	9.09332
2595.37	9.46841
2596.73	9.19675
2598.1	8.75216
2599.46	9.00077
2600.83	9.09021
2602.19	8.76582
2603.55	8.44266
2604.92	8.55851
2606.28	8.88564
2607.64	8.86252
2609.01	8.76527
2610.37	8.5348
2611.73	8.15806
2613.09	8.39594
2614.46	7.96115
2615.82	7.62423
2617.18	7.22114
2618.54	7.09813
2619.9	7.9435
2621.26	8.07861
2622.62	7.87204
2623.98	7.71094
2625.34	7.69651
2626.7	7.71851
2628.06	7.81627
2629.42	8.42846
2630.78	7.88501
2632.14	7.42695
2633.5	7.35411
2634.86	7.33011
2636.22	6.98829
2637.57	6.77543
2638.93	7.17373
2640.29	7.01909
2641.64	7.35262
2643	7.67335
2644.36	7.38072
2645.72	7.63178
2647.07	7.45024
2648.43	7.59668
2649.78	7.92258
2651.14	8.19028
2652.49	8.39032
2653.85	8.93628
2655.2	9.50904
2656.56	10.825
2657.91	11.0398
2659.27	11.3696
2660.62	10.8526
2661.97	11.1699
2663.33	11.175
2664.68	10.8972
2666.03	10.9096
2667.38	11.1797
2668.74	11.2249
2670.09	10.9327
2671.44	10.9297
2672.79	10.9718
2674.14	11.3313
2675.49	11.3304
2676.84	10.6756
2678.2	10.2906
2679.55	10.0262
2680.89	10.1443
2682.24	10.0026
2683.59	9.57036
2684.94	9.46184
2686.29	9.76785
2687.64	9.63169
2688.99	9.10845
2690.34	8.85431
2691.69	9.06475
2693.04	9.61968
2694.38	9.96954
2695.73	10.0355
2697.08	9.8148
2698.43	9.63546
2699.77	9.47708
2701.12	10.2331
2702.46	9.81861
2703.81	10.0476
2705.16	10.5831
2706.5	10.558
2707.85	10.4334
2709.19	10.5576
2710.54	10.9587
2711.88	11.0084
2713.23	11.773
2714.57	12.1457
2715.92	12.6633
2717.26	12.9318
2718.6	13.1021
2719.95	13.127
2721.29	13.1298
2722.63	12.9847
2723.97	13.0626
2725.32	12.5062
2726.66	12.2016
2728	11.4871
2729.34	11.9119
2730.68	11.4063
2732.02	10.9438
2733.36	10.288
2734.7	9.9783
2736.04	9.28783
2737.39	8.34435
2738.72	7.42878
2740.06	7.28808
2741.4	6.57577
2742.74	5.65002
2744.08	5.27797
2745.42	4.80292
2746.76	4.26252
2748.1	4.56653
2749.44	4.35105
2750.77	3.47359
2752.11	3.36425
2753.45	3.28909
2754.78	3.20568
2756.12	2.9869
2757.46	3.04598
2758.79	3.20586
2760.13	3.2453
2761.47	2.99475
2762.8	3.02758
2764.14	2.71734
2765.47	3.23973
2766.81	2.71351
2768.14	2.88106
2769.48	2.30702
2770.81	2.46682
2772.14	2.35283
2773.48	1.63597
2774.81	1.34958
2776.14	1.41742
2777.48	1.98435
2778.81	1.68367
2780.14	2.17067
2781.47	2.17818
2782.81	2.06006
2784.14	1.75471
2785.47	2.06928
2786.8	1.92521
2788.13	1.57094
2789.46	1.65398
2790.79	1.49926
2792.12	1.33938
2793.46	0.448931
2794.79	0.204214
2796.11	0.328228
2797.44	-0.223587
2798.77	-0.22803
2800.1	-0.3251
2801.43	-0.273386
2802.76	-0.523216
2804.09	-0.968879
2805.42	-1.26852
2806.74	-0.803245
2808.07	-1.79271
2809.4	-1.77148
2810.73	-1.76018
2812.05	-2.14918
2813.38	-2.39981
2814.71	-1.8695
2816.03	-1.24447
2817.36	-0.615368
2818.68	1.06863
2820.01	2.63823
2821.33	4.79758
2822.66	6.898
2823.98	9.72036
2825.31	12.3784
2826.63	14.864
2827.96	18.1777
2829.28	21.0568
2830.61	24.4734
2831.93	27.6379
2833.25	30.588
2834.57	34.3027
2835.9	37.7258
2837.22	41.6161
2838.54	45.3107
2839.86	48.7143
2841.18	53.1892
2842.51	57.8806
2843.83	62.0116
2845.15	66.0348
2846.47	70.3649
2847.79	74.8812
2849.11	79.6382
2850.43	84.1052
2851.75	88.7772
2853.07	93.262
2854.39	97.474
2855.71	102.067
2857.03	106.661
2858.35	110.738
2859.67	114.428
2860.98	118.067
2862.3	121.661
2863.62	124.862
2864.94	127.931
2866.25	130.319
2867.57	132.413
2868.89	134.144
2870.21	135.906
2871.52	137.59
2872.84	139.096
2874.15	140.569
2875.47	142.12
2876.78	143.929
2878.1	144.952
2879.42	146.623
2880.73	148.326
2882.04	150.594
2883.36	151.5
2884.67	153.366
2885.99	155.338
2887.3	156.922
2888.61	157.926
2889.93	159.53
2891.24	160.93
2892.55	162.571
2893.87	164.806
2895.18	166.764
2896.49	169.197
2897.8	171.325
2899.11	174.228
2900.42	177.036
2901.74	180.186
2903.05	183.616
2904.36	187.07
2905.67	190.958
2906.98	195.877
2908.29	200.048
2909.6	204.597
2910.91	209.663
2912.22	214.701
2913.53	219.6
2914.83	224.426
2916.14	228.66
2917.45	233.303
2918.76	237.957
2920.07	241.718
2921.37	245.234
2922.68	248.431
2923.99	250.873
2925.3	253.586
2926.6	255.546
2927.91	257.702
2929.22	259.347
2930.52	259.796
2931.83	260.417
2933.13	260.838
2934.44	260.848
2935.74	260.134
2937.05	258.64
2938.35	256.817
2939.66	254.591
2940.96	251.368
2942.27	247.585
2943.57	243.728
2944.87	239.655
2946.18	234.428
2947.48	229.283
2948.78	223.471
2950.09	218.902
2951.39	213.552
2952.69	207.535
2953.99	201.507
2955.29	195.905
2956.6	189.903
2957.9	183.547
2959.2	177.71
2960.5	171.268
2961.8	165.03
2963.1	159.362
2964.4	153.838
2965.7	147.681
2967	142.37
2968.3	137.263
2969.6	132.453
2970.9	127.322
2972.2	122.27
2973.49	116.876
2974.79	112.234
2976.09	107.52
2977.39	102.5
2978.69	97.3138
2979.98	92.3548
2981.28	87.1034
2982.58	82.6829
2983.88	77.8315
2985.17	72.8235
2986.47	68.329
2987.76	64.2752
2989.06	60.5735
2990.36	56.8549
2991.65	53.1444
2992.95	50.0861
2994.24	46.5837
2995.54	42.7937
2996.83	40.3391
2998.12	37.0627
2999.42	33.5877
3000.71	30.3126
3002	27.8436
3003.3	25.2889
3004.59	22.6092
3005.88	19.9145
3007.18	17.655
3008.47	15.9663
3009.76	14.0579
3011.05	11.7159
3012.35	10.1353
3013.64	8.80936
3014.93	7.57685
3016.22	5.92612
3017.51	4.53323
3018.8	2.74359
3020.09	1.94635
3021.38	0.734552
3022.67	-0.236148
3023.96	-0.420628
3025.25	-0.966152
3026.54	-0.503044
3027.83	-0.668084
3029.12	-0.0629355
3030.41	-0.152225
3031.69	0.0246346
3032.98	0.147296
3034.27	0.165271
3035.56	-0.0648139
3036.85	0.564592
3038.13	1.26919
3039.42	2.14154
3040.71	2.49347
3041.99	3.22513
3043.28	3.50696
3044.57	3.97053
3045.85	4.51559
3047.14	5.3962
3048.42	5.50925
3049.71	5.70258
3050.99	6.52107
3052.28	6.8733
3053.56	7.66033
3054.85	7.63912
3056.13	7.95358
3057.42	8.47442
3058.7	8.26893
3059.98	8.54381
3061.27	8.78077
3062.55	8.56387
3063.83	8.41405
3065.11	8.37218
3066.4	8.40383
3067.68	7.4139
3068.96	6.94388
3070.24	6.66647
3071.52	6.47496
3072.8	5.99755
3074.09	5.0153
3075.37	4.00495
3076.65	3.6766
3077.93	3.45716
3079.21	3.22068
3080.49	2.88767
3081.77	2.51852
3083.05	1.91246
3084.32	1.78101
3085.61	1.15958
3086.88	1.00374
3088.16	1.10023
3089.44	1.18111
3090.72	1.20431
3092	1.12995
3093.27	1.29393
3094.55	0.797296
3095.83	1.42268
3097.11	2.2736
3098.38	3.52213
3099.66	4.19381
3100.94	4.91862
3102.21	5.42868
3103.49	5.75475
3104.76	6.08654
3106.04	6.72119
3107.31	7.14257
3108.59	7.89373
3109.86	8.40836
3111.14	9.00358
3112.41	9.48571
3113.69	10.505
3114.96	11.9596
3116.23	13.0694
3117.51	14.1721
3118.78	14.889
3120.05	16.0921
3121.33	17.1561
3122.6	17.6609
3123.87	18.4009
3125.14	18.8625
3126.42	19.5946
3127.69	20.3249
3128.96	21.2558
3130.23	22.1721
3131.5	23.004
3132.77	24.3459
3134.04	25.1045
3135.31	25.8675
3136.58	26.7202
3137.85	27.2847
3139.12	28.6118
3140.39	29.352
3141.66	29.9808
3142.93	30.2796
3144.2	30.7742
3145.47	31.2676
3146.74	31.8678
3148	32.1219
3149.27	32.8086
