#Acq. time (s)=	45
#Accumulations=	2
#Range (cm-¹)=	200...3150
#Windows=	2
#Auto scanning=	Off
#Autofocus=	Off
#Macrospot=	Off
#AutoExposure=	Off
#Spike filter=	Multiple accum.
#Delay time (s)=	0
#Binning=	1
#Readout mode=	Signal
#DeNoise=	Off
#ICS correction=	On
#Dark correction=	Off
#Inst. Process=	Off
#Detector Gain=	Best Dynamic Range
#Detector ADC=	20 kHz       
#Detector temperature (°C)=	-70.08
#Instrument=	LabRAM HR Evol
#Detector=	Synapse
#Objective=	x100
#Grating=	600 gr/mm
#ND Filter=	100%
#Laser (nm)=	532 
#Hole=	100.021
#Range=	Auto
#Laser Pol.=	No
#Raman. Pol.=	No
#Laser Pol. (°)=	-0.0007625
#Raman Pol. (°)=	89.9995
#Collection=	Microscope
#StageXY=	Marzhauser
#StageZ=	Marzhauser
#X (µm)=	28300.2
#Y (µm)=	-3322
#Z (µm)=	1040.6
#Full time(mm:ss)=	3:18
#Project=	
#Sample=	
#Site=	
#Title=	Mb_50_18_21_2x_45s_532 nm_x100_100%_600 gr_mm
#Remark=	
#Date=	12.07.2022 12:24
#Acquired=	12.07.2022 12:24:58
#Base:Fit=	10.08.2022 10:49:18
#Base:Sub=	10.08.2022 10:49:30
#Filter:Polynom=	16.08.2022 10:14:59
#AxisType[0]=Intens
#AxisUnit[0]=Cnt
#AxisType[1]=Spectr
#AxisUnit[1]=1/cm
200.388	121.757
202.204	114.623
204.019	110.628
205.832	106.182
207.646	101.54
209.459	97.2584
211.274	93.0179
213.087	89.9173
214.899	87.1967
216.711	84.0689
218.524	78.2276
220.335	75.3751
222.146	73.8198
223.956	72.6407
225.766	70.9058
227.576	67.4048
229.388	65.1301
231.197	60.8335
233.005	56.814
234.813	53.0019
236.621	49.0856
238.429	45.9309
240.236	43.6969
242.045	41.3354
243.852	39.0078
245.658	36.6475
247.464	35.3314
249.269	33.4023
251.074	30.584
252.879	28.0405
254.683	25.9797
256.487	22.6059
258.291	22.5009
260.094	22.2618
261.897	22.1587
263.702	20.9469
265.504	19.7552
267.306	19.0589
269.108	17.6866
270.909	16.3445
272.71	15.2931
274.511	14.566
276.311	12.5586
278.111	10.1886
279.91	7.49965
281.709	5.40352
283.508	4.46504
285.306	4.39009
287.105	3.7948
288.9	5.11275
290.698	6.50325
292.495	7.88594
294.291	8.04984
296.088	9.40162
297.884	11.9286
299.679	14.1025
301.475	16.7288
303.27	19.2175
305.064	20.9813
306.858	22.7334
308.652	24.3779
310.444	28.4118
312.237	30.9369
314.03	31.6962
315.822	31.4704
317.615	31.6241
319.406	32.3576
321.198	30.4087
322.987	32.4528
324.778	32.67
326.568	34.067
328.358	34.1244
330.148	34.3117
331.935	33.0352
333.724	31.7715
335.513	30.036
337.301	27.0736
339.089	23.3562
340.875	20.6567
342.662	20.0179
344.449	19.7588
346.236	21.0971
348.02	24.2822
349.806	26.3827
351.592	28.8241
353.375	32.2858
355.16	35.6079
356.944	42.1052
358.728	48.5456
360.51	55.3839
362.294	61.9409
364.077	69.3681
365.858	75.5965
367.64	83.0293
369.422	91.0199
371.202	99.2997
372.983	106.185
374.764	112.048
376.543	117.747
378.324	124.674
380.102	128.479
381.881	133.065
383.661	136.975
385.438	140.933
387.216	144.474
388.993	146.736
390.771	146.57
392.548	147.016
394.324	146.694
396.101	143.461
397.875	140.529
399.651	137.133
401.425	132.977
403.201	127.677
404.974	121.985
406.749	115.536
408.524	108.717
410.296	100.611
412.07	94.1573
413.841	83.6602
415.614	74.2539
417.385	63.182
419.156	53.3939
420.928	43.1484
422.698	33.7416
424.469	25.0647
426.238	16.6765
428.009	10.9761
429.777	6.1732
431.548	2.35813
433.315	-0.233245
435.083	-3.02903
436.852	-5.08686
438.618	-7.0626
440.387	-7.16141
442.153	-6.59951
443.919	-6.156
445.686	-3.9216
447.451	-3.90569
449.218	-3.59065
450.982	-3.6183
452.746	-3.06564
454.512	-2.69274
456.275	-0.856087
458.038	-1.15991
459.803	-1.09186
461.565	-0.830433
463.327	0.670215
465.091	1.1971
466.852	2.36113
468.613	2.05221
470.374	2.52662
472.136	4.58652
473.896	6.34324
475.655	9.24707
477.415	12.1262
479.176	15.7131
480.934	20.4413
482.692	24.5568
484.45	29.4548
486.21	36.6676
487.967	44.273
489.724	52.716
491.481	60.713
493.237	68.3332
494.995	76.8054
496.75	85.8098
498.506	93.8477
500.26	102.169
502.015	109.991
503.771	117.332
505.525	124.186
507.279	130.301
509.032	136.204
510.785	142.23
512.537	146.458
514.289	149.787
516.041	152.61
517.793	154.991
519.546	156.46
521.297	155.734
523.047	156.237
524.797	156.637
526.547	156.128
528.297	154.412
530.046	150.783
531.795	146.803
533.543	141.676
535.291	135.522
537.039	130.476
538.787	123.946
540.534	118.32
542.281	111.694
544.027	103.482
545.773	94.3273
547.519	86.7975
549.264	78.3265
551.01	69.8721
552.754	61.1806
554.499	53.6623
556.243	47.2091
557.987	40.1724
559.73	36.0726
561.474	32.6811
563.216	30.226
564.959	27.9017
566.701	26.1232
568.441	23.9396
570.182	23.8057
571.923	24.9415
573.664	26.2169
575.405	27.5252
577.145	29.8517
578.885	31.5689
580.624	32.4658
582.361	33.0851
584.1	34.2308
585.839	34.9747
587.577	35.249
589.315	35.5618
591.052	35.2598
592.787	35.8294
594.524	36.8867
596.26	38.2544
597.997	39.7502
599.732	39.8845
601.466	41.7961
603.201	42.721
604.936	43.6649
606.67	43.6601
608.403	44.0808
610.136	46.1284
611.87	45.3706
613.603	45.18
615.334	43.8937
617.067	42.7204
618.799	41.2237
620.529	39.7249
622.26	38.9106
623.991	37.6023
625.72	36.2948
627.451	35.2787
629.181	32.7724
630.909	30.4895
632.638	29.6977
634.368	28.2578
636.095	26.1508
637.823	24.7186
639.551	22.9535
641.277	21.9781
643.005	21.2304
644.73	19.7566
646.457	20.5933
648.184	20.5104
649.908	20.6545
651.634	19.3631
653.357	19.3989
655.083	19.9973
656.806	21.3525
658.53	21.8438
660.253	22.3714
661.977	22.8016
663.7	23.0326
665.422	22.4209
667.145	21.0321
668.865	20.6977
670.588	21.1889
672.308	20.2265
674.027	19.4504
675.749	20.3795
677.468	20.7013
679.188	22.2676
680.907	24.4943
682.627	25.7109
684.345	26.8721
686.064	27.7024
687.781	29.7661
689.498	30.5673
691.216	31.2286
692.932	32.0771
694.65	33.7396
696.366	33.5717
698.081	34.1957
699.797	34.4071
701.512	34.5509
703.228	35.5743
704.942	35.7119
706.655	37.1594
708.371	37.9459
710.083	37.4452
711.796	38.2509
713.51	37.5983
715.222	36.5608
716.934	35.8824
718.645	34.6373
720.358	33.3635
722.068	31.1771
723.779	29.7206
725.49	28.6582
727.2	27.7408
728.909	28.0352
730.618	29.0034
732.329	30.6824
734.037	34.0127
735.745	40.9819
737.453	47.7293
739.16	58.9059
740.869	70.3331
742.576	81.8744
744.282	94.7691
745.988	108.073
747.694	121.134
749.401	134.523
751.107	148.576
752.811	160.649
754.516	173.045
756.22	184.817
757.924	196.257
759.627	208.416
761.332	219.811
763.035	228.688
764.738	237.321
766.44	244.435
768.142	249.453
769.843	253.848
771.544	256.904
773.245	260.029
774.946	260.037
776.646	259.673
778.346	258.379
780.046	255.101
781.745	252.681
783.444	248.989
785.143	243.924
786.841	238.641
788.539	231.089
790.237	222.33
791.934	211.983
793.631	201.425
795.328	190.455
797.024	179.18
798.72	165.599
800.416	153.213
802.112	140.26
803.807	126.919
805.502	114.19
807.196	100.909
808.89	90.8938
810.584	81.0281
812.278	72.1719
813.971	66.8739
815.664	61.0582
817.354	57.4051
819.047	57.1937
820.739	56.3379
822.43	56.9417
824.122	57.8574
825.813	58.2295
827.503	58.8319
829.192	58.8171
830.882	59.3183
832.571	59.3831
834.261	59.8015
835.95	59.6463
837.637	59.1401
839.325	59.5835
841.013	57.5074
842.701	58.0006
844.389	57.242
846.074	55.2215
847.761	54.0096
849.447	50.9294
851.131	49.088
852.817	47.5904
854.503	44.9309
856.188	43.6085
857.871	42.1214
859.556	40.0076
861.24	39.2022
862.922	38.6999
864.606	38.5814
866.289	40.6801
867.97	39.0029
869.653	37.354
871.336	36.5754
873.016	35.6842
874.698	34.2944
876.379	31.659
878.058	31.9616
879.739	30.4773
881.418	28.2783
883.098	26.8534
884.778	26.0513
886.456	25.2691
888.135	23.1378
889.812	23.8732
891.49	23.2363
893.167	23.6548
894.845	23.4368
896.523	25.1578
898.198	24.9335
899.875	25.7865
901.55	25.8039
903.226	25.2469
904.901	24.5782
906.576	25.213
908.25	25.2697
909.925	25.3321
911.598	25.2458
913.271	25.3355
914.945	26.658
916.617	25.548
918.291	24.2028
919.962	23.6208
921.635	22.635
923.306	22.8999
924.978	22.382
926.648	23.2862
928.318	23.518
929.989	22.3013
931.659	21.7847
933.328	19.8565
934.998	20.1891
936.666	20.5387
938.336	19.4652
940.004	19.2468
941.671	18.7955
943.34	18.7733
945.007	17.7196
946.673	17.4794
948.339	16.1197
950.007	15.3146
951.672	12.9168
953.337	11.4964
955.004	9.68376
956.669	8.88574
958.333	7.07223
959.997	5.2165
961.662	4.02464
963.326	1.64742
964.989	1.11322
966.651	0.623188
968.315	1.25893
969.977	0.0313537
971.639	-0.732754
973.301	1.03323
974.962	0.347753
976.624	1.00272
978.285	0.342498
979.945	-0.316962
981.605	-2.97386
983.264	-4.36808
984.924	-8.39274
986.583	-10.0517
988.243	-10.0323
989.901	-9.76553
991.56	-8.85102
993.217	-6.48612
994.875	-1.92625
996.532	2.77418
998.188	8.41827
999.845	15.7115
1001.5	24.2212
1003.16	35.5942
1004.81	45.5872
1006.47	58.0458
1008.12	68.0739
1009.78	78.9724
1011.43	90.1607
1013.09	99.8347
1014.74	111.067
1016.39	120.523
1018.05	131.058
1019.7	141.836
1021.35	151.218
1023	159.989
1024.65	167.361
1026.31	173.893
1027.96	179.348
1029.61	186.256
1031.26	189.227
1032.91	192.224
1034.56	193.616
1036.21	194.751
1037.86	192.736
1039.51	191.788
1041.16	188.004
1042.8	183.15
1044.45	178.036
1046.1	171.535
1047.75	165.887
1049.39	159.766
1051.04	153.388
1052.69	147.011
1054.33	142.617
1055.98	137.011
1057.62	131.517
1059.27	125.731
1060.91	120.669
1062.56	115.705
1064.2	111.528
1065.85	108.388
1067.49	107.341
1069.13	108.167
1070.77	110.043
1072.42	111.148
1074.06	113.55
1075.7	117.784
1077.34	121.134
1078.98	124.027
1080.62	127.983
1082.27	130.497
1083.91	132.477
1085.55	135.441
1087.18	137.179
1088.82	139.479
1090.46	139.827
1092.1	141.209
1093.74	141.499
1095.38	141.48
1097.02	140.919
1098.65	139.259
1100.29	137.497
1101.93	134.344
1103.56	129.538
1105.2	124.422
1106.84	118.197
1108.47	112.221
1110.11	104.965
1111.74	98.2175
1113.38	89.3498
1115.01	81.8042
1116.64	73.7955
1118.28	64.7981
1119.91	54.6847
1121.54	47.2985
1123.18	38.9665
1124.81	31.0656
1126.44	23.2467
1128.07	18.6233
1129.7	15.9823
1131.33	12.754
1132.97	10.1519
1134.6	10.3311
1136.23	8.93155
1137.86	8.79425
1139.49	8.97786
1141.11	9.79564
1142.74	10.9933
1144.37	10.8161
1146	11.8017
1147.63	11.8356
1149.26	12.3222
1150.88	10.8583
1152.51	11.1523
1154.14	10.9936
1155.76	11.7855
1157.39	11.5206
1159.01	10.6595
1160.64	10.9828
1162.27	11.1782
1163.89	10.8506
1165.51	10.1945
1167.14	10.2541
1168.76	10.2657
1170.39	10.2642
1172.01	10.5433
1173.63	10.1126
1175.25	10.5136
1176.88	10.304
1178.5	10.5948
1180.12	8.19471
1181.74	6.89962
1183.36	7.07656
1184.98	7.06166
1186.6	6.46752
1188.22	5.31125
1189.84	4.77767
1191.46	5.40981
1193.08	6.83862
1194.7	7.72571
1196.32	7.35545
1197.94	7.94095
1199.55	8.75833
1201.17	8.64214
1202.79	9.64271
1204.41	8.94815
1206.02	10.2028
1207.64	11.5495
1209.25	14.4134
1210.87	15.5463
1212.48	16.0995
1214.1	18.1924
1215.71	20.0779
1217.33	21.3495
1218.94	23.9499
1220.56	25.6199
1222.17	27.4356
1223.79	28.4265
1225.4	29.8876
1227.01	31.9735
1228.62	33.3322
1230.23	36.1138
1231.85	38.5615
1233.46	41.5279
1235.07	42.6297
1236.68	43.401
1238.29	44.3392
1239.9	45.9108
1241.51	46.698
1243.12	46.5758
1244.73	46.6543
1246.34	46.6864
1247.94	47.71
1249.55	48.775
1251.16	49.8761
1252.77	51.347
1254.37	51.6431
1255.98	52.9663
1257.59	53.4295
1259.2	53.7049
1260.8	53.7956
1262.41	56.3865
1264.01	57.4608
1265.62	57.806
1267.22	58.0695
1268.83	60.7716
1270.43	64.1218
1272.03	67.5076
1273.64	68.8412
1275.24	70.671
1276.85	71.8912
1278.45	73.4818
1280.05	75.3076
1281.65	74.9052
1283.25	75.7159
1284.85	75.6869
1286.46	77.269
1288.06	78.6113
1289.66	78.438
1291.26	78.0906
1292.86	78.7194
1294.46	80.3553
1296.06	80.6706
1297.66	81.519
1299.25	82.177
1300.85	82.0865
1302.45	83.5052
1304.05	83.0182
1305.65	82.4153
1307.24	81.8566
1308.84	81.662
1310.43	81.4798
1312.03	80.2965
1313.63	79.0229
1315.22	78.4683
1316.82	76.9503
1318.41	76.3656
1320.01	74.5537
1321.6	72.8137
1323.2	71.3808
1324.79	69.9001
1326.38	68.6371
1327.98	67.9491
1329.57	67.3882
1331.16	66.1438
1332.76	65.0379
1334.35	63.6117
1335.94	63.241
1337.53	62.5971
1339.12	61.4895
1340.71	60.8105
1342.3	59.5607
1343.89	58.1588
1345.48	57.9056
1347.07	56.6888
1348.66	57.1038
1350.25	56.3091
1351.84	55.8776
1353.43	53.2777
1355.01	53.3345
1356.6	53.0234
1358.19	51.0691
1359.77	48.8762
1361.36	45.6206
1362.95	43.8648
1364.53	42.1346
1366.12	41.7365
1367.71	40.8375
1369.29	39.7068
1370.88	39.2929
1372.46	37.9304
1374.04	35.1457
1375.63	31.7346
1377.21	29.9022
1378.8	28.5753
1380.38	26.8125
1381.96	24.2283
1383.54	21.4293
1385.13	20.5463
1386.71	19.7189
1388.29	17.9461
1389.87	15.8087
1391.45	15.0254
1393.03	13.0922
1394.61	12.5458
1396.19	10.5471
1397.77	11.0536
1399.35	10.4553
1400.93	10.5678
1402.51	12.291
1404.09	14.2156
1405.67	17.6842
1407.24	21.3341
1408.82	25.1494
1410.4	28.8533
1411.98	33.0561
1413.55	37.8485
1415.13	43.0699
1416.71	48.9097
1418.28	54.7487
1419.86	61.1718
1421.43	67.8272
1423.01	74.3018
1424.58	81.6787
1426.16	89.861
1427.73	97.5033
1429.31	104.129
1430.88	111.065
1432.45	116.948
1434.02	123.252
1435.6	128.98
1437.17	132.625
1438.74	136.256
1440.31	141.083
1441.88	143.941
1443.45	147.154
1445.03	149.647
1446.6	150.006
1448.17	150.014
1449.74	148.98
1451.3	147.053
1452.87	146.553
1454.44	145.876
1456.01	144.808
1457.58	143.795
1459.15	141.042
1460.72	138.313
1462.28	136.443
1463.85	133.935
1465.42	129.725
1466.98	126.851
1468.55	123.956
1470.12	120.6
1471.68	115.968
1473.25	111.597
1474.81	107.469
1476.38	103.682
1477.94	100.016
1479.51	97.1434
1481.07	94.3653
1482.63	90.2848
1484.2	88.1383
1485.76	84.1724
1487.32	80.5542
1488.88	75.6836
1490.45	72.1951
1492.01	70.3681
1493.57	67.3749
1495.13	65.2983
1496.69	61.952
1498.25	58.618
1499.81	55.7063
1501.37	52.5516
1502.93	50.92
1504.49	47.2815
1506.05	42.1631
1507.61	39.1621
1509.17	36.284
1510.73	33.629
1512.28	29.9756
1513.84	27.5263
1515.4	24.1877
1516.96	21.599
1518.51	19.545
1520.07	16.4596
1521.63	14.7238
1523.18	12.801
1524.74	12.0315
1526.29	10.8995
1527.85	9.92189
1529.4	9.93615
1530.96	10.559
1532.51	10.8081
1534.06	11.2602
1535.62	11.5953
1537.17	11.5015
1538.72	13.1755
1540.28	14.7902
1541.83	16.6494
1543.38	16.8427
1544.93	18.8168
1546.48	18.2066
1548.03	18.9436
1549.59	19.5869
1551.14	20.571
1552.69	22.3375
1554.24	24.1847
1555.79	27.0658
1557.34	28.3136
1558.88	29.462
1560.43	30.8659
1561.98	32.1874
1563.53	33.2929
1565.08	36.2513
1566.62	37.2426
1568.17	40.3296
1569.72	43.4597
1571.27	44.8481
1572.81	47.7489
1574.36	49.0533
1575.9	52.0525
1577.45	54.6782
1579	56.3404
1580.54	58.7008
1582.09	59.5318
1583.63	62.185
1585.17	64.9028
1586.72	67.1869
1588.26	68.4549
1589.8	69.0954
1591.35	70.5777
1592.89	72.0966
1594.43	74.0941
1595.97	75.427
1597.52	76.6449
1599.06	78.0976
1600.6	79.3026
1602.14	79.6513
1603.68	78.686
1605.22	79.8697
1606.76	79.5073
1608.3	80.4664
1609.84	80.3459
1611.38	79.8027
1612.92	79.3854
1614.46	81.1009
1615.99	83.0758
1617.53	83.4859
1619.07	83.4646
1620.61	82.9631
1622.14	83.8331
1623.68	84.2295
1625.22	86.635
1626.75	87.0947
1628.29	88.9194
1629.82	91.5071
1631.36	94.4931
1632.9	95.2435
1634.43	95.9918
1635.96	97.9946
1637.5	101.157
1639.03	103.524
1640.57	106.382
1642.1	109.585
1643.63	110.191
1645.16	112.949
1646.7	113.525
1648.23	115.834
1649.76	117.005
1651.29	118.657
1652.82	119.366
1654.36	119.122
1655.89	118.561
1657.42	118.052
1658.95	117.247
1660.48	116.706
1662.01	113.659
1663.53	111.665
1665.06	109.177
1666.59	107.661
1668.12	105.856
1669.65	104.165
1671.18	101.958
1672.7	98.2635
1674.23	93.7233
1675.76	90.1115
1677.29	85.1739
1678.81	80.9091
1680.34	76.5163
1681.86	72.7756
1683.39	67.3385
1684.91	63.3046
1686.44	58.672
1687.96	54.9937
1689.49	50.9565
1691.01	47.678
1692.54	43.7785
1694.06	40.3556
1695.58	37.7512
1697.11	35.5249
1698.63	33.153
1700.15	30.5591
1701.67	28.8352
1703.2	26.3161
1704.72	25.3557
1706.24	23.532
1707.76	21.0149
1709.28	19.1159
1710.8	18.4052
1712.32	17.8725
1713.84	17.6691
1715.36	16.5865
1716.88	16.1241
1718.4	14.5943
1719.91	13.4046
1721.43	13.4378
1722.95	12.6536
1724.47	13.0939
1725.99	11.9935
1727.5	10.7386
1729.02	8.6614
1730.54	8.4375
1732.05	7.13292
1733.57	6.62466
1735.09	6.13648
1736.6	5.82887
1738.12	5.12315
1739.63	5.99679
1741.15	5.88063
1742.66	5.77409
1744.18	5.65645
1745.69	5.64738
1747.2	4.52439
1748.72	3.1005
1750.23	2.85136
1751.74	2.78479
1753.25	2.44238
1754.77	2.59802
1756.28	1.60153
1757.79	0.344578
1759.3	-0.719819
1760.81	-0.39798
1762.32	0.280888
1763.83	-0.548188
1765.34	-0.943851
1766.85	-0.0166392
1768.36	0.870837
1769.87	1.67085
1771.38	1.5936
1772.89	1.65457
1774.4	1.32082
1775.91	1.25581
1777.41	1.72381
1778.92	1.0398
1780.43	2.07434
1781.94	2.23653
1783.44	2.92191
1784.95	3.43992
1786.45	3.51328
1787.96	3.3851
1789.47	4.63267
1790.97	4.20197
1792.48	3.71429
1793.98	3.16181
1795.48	3.99234
1796.99	3.38362
1798.49	3.08376
1800	2.49579
1801.5	1.9079
1803	1.06985
1804.51	1.02279
1806.01	1.26862
1807.51	1.27587
1809.01	2.23321
1810.51	2.59665
1812.02	3.00735
1813.52	2.54932
1815.02	2.97394
1816.52	3.10934
1818.02	2.85413
1819.52	2.87424
1821.02	2.42411
1822.52	1.92777
1824.02	1.65366
1825.51	2.0937
1827.01	2.68806
1828.51	2.76428
1830.01	2.34455
1831.51	1.78968
1833	2.44345
1834.5	3.0414
1836	3.0839
1837.5	2.80807
1838.99	2.88639
1840.49	3.43899
1841.98	5.116
1843.48	5.94168
1844.97	6.10028
1846.47	6.17822
1847.96	6.825
1849.46	6.66528
1850.95	6.24592
1852.45	6.68898
1853.94	6.9947
1855.43	7.39724
1856.92	6.99253
1858.42	6.80234
1859.91	7.02085
1861.4	6.479
1862.89	6.9005
1864.39	7.29567
1865.88	6.41941
1867.37	7.00656
1868.86	6.83095
1870.35	6.74204
1871.84	6.55874
1873.33	6.45495
1874.82	6.60397
1876.31	6.76533
1877.8	7.46941
1879.29	7.29055
1880.77	8.30483
1882.26	9.02459
1882.51	8.79604
1884	9.36945
1885.5	9.64536
1886.99	10.1692
1888.48	10.0613
1889.98	9.69724
1891.47	9.70292
1892.97	10.2951
1894.46	10.659
1895.95	11.7687
1897.44	12.3827
1898.93	13.6168
1900.42	15.2544
1901.92	14.9137
1903.41	15.4459
1904.9	15.9423
1906.39	16.4158
1907.88	16.5242
1909.37	17.0153
1910.86	18.0104
1912.35	18.2384
1913.84	18.3267
1915.32	19.3766
1916.81	19.4561
1918.3	19.5962
1919.79	20.1314
1921.28	20.621
1922.76	19.7096
1924.25	18.8875
1925.74	18.8238
1927.22	17.9398
1928.71	16.5683
1930.2	16.2776
1931.68	15.7988
1933.17	16.0736
1934.65	14.4813
1936.14	15.0572
1937.62	14.6416
1939.11	13.9193
1940.59	13.491
1942.08	13.2485
1943.56	11.7331
1945.04	11.904
1946.53	11.2545
1948.01	11.4006
1949.49	10.8063
1950.97	10.1552
1952.45	9.82344
1953.94	9.94416
1955.42	9.22533
1956.9	8.52968
1958.38	8.72722
1959.86	8.28543
1961.34	7.75243
1962.82	7.05402
1964.3	7.52861
1965.78	7.73377
1967.26	8.29781
1968.74	7.93768
1970.22	9.18621
1971.69	9.27134
1973.17	10.0859
1974.65	10.9452
1976.13	10.0135
1977.61	11.3532
1979.08	12.9169
1980.56	13.7861
1982.03	14.736
1983.51	15.4785
1984.99	15.8145
1986.46	15.5389
1987.94	17.5803
1989.41	18.2079
1990.89	19.7969
1992.36	20.6052
1993.84	20.8769
1995.31	21.1362
1996.78	21.2389
1998.26	21.5547
1999.73	22.3243
2001.2	22.4738
2002.68	22.7448
2004.15	23.3771
2005.62	23.5319
2007.09	24.1355
2008.56	24.2103
2010.04	25.1561
2011.51	24.8283
2012.98	25.0107
2014.45	25.2636
2015.92	25.1786
2017.39	23.7034
2018.86	24.6006
2020.33	23.931
2021.8	23.0047
2023.27	22.7496
2024.74	22.541
2026.2	22.2541
2027.67	21.1812
2029.14	20.8777
2030.61	20.7385
2032.07	20.4691
2033.54	19.8712
2035.01	19.8656
2036.47	19.8803
2037.94	20.7834
2039.41	20.553
2040.87	21.4864
2042.34	21.8472
2043.8	23.1983
2045.27	23.5967
2046.73	24.7986
2048.2	25.5911
2049.66	26.3782
2051.12	28.7011
2052.59	28.304
2054.05	28.9475
2055.51	30.3793
2056.98	31.1188
2058.44	31.6415
2059.9	32.868
2061.36	34.4066
2062.82	34.7299
2064.29	37.0369
2065.75	37.7642
2067.21	39.6247
2068.67	41.1248
2070.13	42.2849
2071.59	43.9587
2073.05	45.604
2074.51	46.0869
2075.97	47.8016
2077.43	49.5019
2078.88	50.8316
2080.34	53.1414
2081.8	54.541
2083.26	55.3961
2084.72	56.9487
2086.17	58.6025
2087.63	59.7381
2089.09	60.6162
2090.54	61.5965
2092	64.5531
2093.46	66.8127
2094.91	68.9823
2096.37	72.6528
2097.82	75.2147
2099.28	77.5397
2100.73	80.4638
2102.19	83.1862
2103.64	85.9624
2105.09	88.4366
2106.55	92.0576
2108	95.1667
2109.46	98.6901
2110.91	102.659
2112.36	104.605
2113.81	107.735
2115.27	110.992
2116.72	114.39
2118.17	118.168
2119.62	121.762
2121.07	124.834
2122.52	128.991
2123.97	131.725
2125.42	134.602
2126.87	139.305
2128.32	143.262
2129.77	146.559
2131.22	150.401
2132.67	154.716
2134.12	158.656
2135.57	162.602
2137.01	166.566
2138.46	170.276
2139.91	174.632
2141.36	177.884
2142.8	181.933
2144.25	185.632
2145.7	187.426
2147.14	191.099
2148.59	195.156
2150.03	198.004
2151.48	200.398
2152.92	202.649
2154.37	205.353
2155.81	208.744
2157.26	212.208
2158.7	213.883
2160.15	216.199
2161.59	217.319
2163.03	218.673
2164.48	220.311
2165.92	221.055
2167.36	220.797
2168.8	221.376
2170.25	221.152
2171.69	220.9
2173.13	220.479
2174.57	218.812
2176.01	217.208
2177.45	215.5
2178.89	214.079
2180.33	211.77
2181.77	210.314
2183.21	207.49
2184.65	205.034
2186.09	203.515
2187.53	201.59
2188.97	199.582
2190.41	196.777
2191.84	194.478
2193.28	191.255
2194.72	188.635
2196.16	185.817
2197.59	183.781
2199.03	180.289
2200.47	177.038
2201.9	173.592
2203.34	170.112
2204.78	167.084
2206.21	164.514
2207.65	160.794
2209.08	157.895
2210.51	154.252
2211.95	151.581
2213.38	148.232
2214.82	144.598
2216.25	140.468
2217.68	137.598
2219.12	135.154
2220.55	131.159
2221.98	127.042
2223.42	123.676
2224.85	120.45
2226.28	118.922
2227.71	115.155
2229.14	110.332
2230.57	106.98
2232	103.087
2233.43	98.2025
2234.86	94.7737
2236.29	91.1324
2237.72	88.1235
2239.15	84.6568
2240.58	81.521
2242.01	78.3267
2243.44	75.4299
2244.87	71.6115
2246.3	68.825
2247.73	66.8232
2249.15	65.3447
2250.58	63.0925
2252.01	60.6123
2253.43	59.6211
2254.86	58.2024
2256.29	56.8315
2257.71	55.2837
2259.14	53.582
2260.56	52.0852
2261.99	50.3627
2263.41	48.7522
2264.84	47.0457
2266.26	46.0515
2267.69	44.7402
2269.11	43.2872
2270.54	40.912
2271.96	40.1041
2273.38	39.2629
2274.81	37.9953
2276.23	37.407
2277.65	36.0688
2279.07	34.2039
2280.49	32.7082
2281.92	31.8279
2283.34	31.5189
2284.76	30.2589
2286.18	29.1056
2287.6	28.0088
2289.02	26.3969
2290.44	24.2622
2291.86	23.3869
2293.28	22.4734
2294.7	21.8943
2296.12	21.5304
2297.54	21.1178
2298.96	20.099
2300.38	20.745
2301.79	21.192
2303.21	18.8368
2304.63	18.4606
2306.05	18.9574
2307.46	17.8131
2308.88	17.0278
2310.3	16.1594
2311.71	15.7138
2313.13	15.8881
2314.55	15.1532
2315.96	14.4004
2317.38	14.8315
2318.79	14.774
2320.21	14.3242
2321.62	14.5597
2323.03	14.1432
2324.45	14.677
2325.86	13.6147
2327.27	13.1206
2328.69	12.8392
2330.1	12.5654
2331.51	12.182
2332.93	11.0883
2334.34	9.40124
2335.75	9.81458
2337.16	9.53021
2338.57	9.09415
2339.99	8.01558
2341.4	6.88294
2342.81	6.79673
2344.22	5.76502
2345.63	5.51976
2347.04	5.79566
2348.45	5.61602
2349.86	5.12492
2351.26	4.40391
2352.67	4.49938
2354.08	3.8851
2355.49	3.15153
2356.9	2.30048
2358.31	1.73411
2359.71	1.02774
2361.12	1.93722
2362.53	2.60432
2363.94	3.02707
2365.34	2.86061
2366.75	3.63189
2368.15	4.30685
2369.56	4.2369
2370.97	4.39821
2372.37	3.03459
2373.78	1.63026
2375.18	2.03523
2376.59	1.73904
2377.99	0.500114
2379.39	0.940794
2380.8	0.763763
2382.2	1.26211
2383.61	0.919939
2385.01	1.40184
2386.41	2.43155
2387.81	3.12399
2389.22	3.51903
2390.62	3.73489
2392.02	4.1863
2393.42	4.58332
2394.82	5.69956
2396.22	6.2678
2397.63	7.57831
2399.02	8.20457
2400.43	9.16495
2401.82	9.29285
2403.23	8.78861
2404.62	9.37791
2406.02	11.0486
2407.42	11.6578
2408.82	12.8158
2410.22	13.6733
2411.62	15.0138
2413.02	15.5202
2414.41	15.2721
2415.81	16.2306
2417.21	16.1759
2418.61	16.305
2420	15.8315
2421.4	15.5252
2422.79	15.8975
2424.19	15.7393
2425.59	14.9274
2426.98	15.1262
2428.38	15.2656
2429.77	14.3036
2431.17	13.7479
2432.56	12.9766
2433.96	12.7393
2435.35	12.4098
2436.74	12.0565
2438.14	11.4307
2439.53	9.49216
2440.92	8.9363
2442.32	7.85658
2443.71	6.45369
2445.1	6.22403
2446.49	6.29547
2447.88	5.46757
2449.28	5.65724
2450.67	4.12905
2452.06	4.06642
2453.45	2.98826
2454.84	2.82291
2456.23	1.65275
2457.62	1.62762
2459.01	1.29994
2460.4	1.09147
2461.79	0.883689
2463.18	0.98815
2464.57	0.386164
2465.96	-0.0394515
2467.34	-0.194127
2468.73	-0.785618
2470.12	-1.5257
2471.51	-1.1171
2472.89	-1.09222
2474.28	-0.114003
2475.67	0.641064
2477.05	0.534583
2478.44	0.942761
2479.83	0.0807933
2481.21	-0.596238
2482.6	-1.3091
2483.98	-1.12062
2485.37	-0.972003
2486.75	-0.410837
2488.14	-0.282578
2489.52	-1.15903
2490.9	-1.12922
2492.29	-0.822594
2493.67	-1.31074
2495.06	-1.58363
2496.44	-1.24904
2497.82	-1.91199
2499.2	-1.88606
2500.59	-1.07743
2501.97	-0.743567
2503.35	0.550894
2504.73	0.371255
2506.11	0.613759
2507.49	1.20868
2508.88	1.29209
2510.26	2.06201
2511.63	1.12784
2513.01	1.6864
2514.39	2.84482
2515.77	3.14938
2517.15	3.11338
2518.53	3.47628
2519.91	3.14604
2521.29	3.74267
2522.67	3.10255
2524.05	3.67321
2525.42	3.79371
2526.8	4.86496
2528.18	4.41799
2529.56	4.01641
2530.93	3.70239
2532.31	4.69924
2533.69	4.69262
2535.06	5.43969
2536.44	5.61936
2537.81	5.88465
2539.19	5.89713
2540.56	7.31742
2541.94	6.99921
2543.31	6.94956
2544.69	7.24528
2546.06	6.85935
2547.44	6.91997
2548.81	6.66523
2550.18	7.16543
2551.56	7.55315
2552.93	7.3196
2554.3	7.42818
2555.68	7.95414
2557.05	7.34534
2558.42	6.49683
2559.79	6.51228
2561.16	5.73698
2562.53	5.93733
2563.9	5.59208
2565.28	5.99853
2566.64	6.18912
2568.02	7.0848
2569.38	7.68896
2570.76	8.23069
2572.12	9.09163
2573.49	8.98876
2574.86	9.28792
2576.23	8.83962
2577.6	8.49849
2578.97	8.28258
2580.34	7.55657
2581.7	8.52122
2583.07	7.43136
2584.44	7.19165
2585.81	7.6399
2587.17	6.96039
2588.54	6.60214
2589.91	6.46911
2591.27	6.71302
2592.64	7.49144
2594	7.87461
2595.37	8.17677
2596.73	8.13507
2598.1	7.74971
2599.46	8.56208
2600.83	9.23428
2602.19	9.27526
2603.55	9.32691
2604.92	8.32421
2606.28	8.05355
2607.64	8.09057
2609.01	8.75846
2610.37	8.3526
2611.73	7.66598
2613.09	8.21013
2614.46	7.18196
2615.82	7.87121
2617.18	8.91378
2618.54	8.6771
2619.9	8.47354
2621.26	8.15372
2622.62	8.35301
2623.98	8.11532
2625.34	7.58093
2626.7	6.95601
2628.06	6.49836
2629.42	7.30585
2630.78	8.35944
2632.14	7.89837
2633.5	8.76954
2634.86	8.53414
2636.22	9.57492
2637.57	9.19709
2638.93	9.1798
2640.29	8.35066
2641.64	7.99236
2643	8.15854
2644.36	7.87894
2645.72	7.60465
2647.07	7.23273
2648.43	6.9088
2649.78	7.52129
2651.14	7.91061
2652.49	8.79379
2653.85	8.94882
2655.2	8.67726
2656.56	9.00366
2657.91	10.6149
2659.27	11.2202
2660.62	12.0003
2661.97	12.5934
2663.33	12.0757
2664.68	12.3736
2666.03	11.9497
2667.38	12.1911
2668.74	12.3795
2670.09	12.7104
2671.44	12.5011
2672.79	12.2432
2674.14	12.6899
2675.49	12.987
2676.84	12.449
2678.2	12.1921
2679.55	12.4842
2680.89	12.8169
2682.24	12.2014
2683.59	12.9137
2684.94	13.1224
2686.29	12.5698
2687.64	12.1791
2688.99	11.9435
2690.34	12.2739
2691.69	12.4054
2693.04	12.4027
2694.38	12.5219
2695.73	13.2881
2697.08	14.9749
2698.43	14.6012
2699.77	14.3269
2701.12	15.2901
2702.46	14.7839
2703.81	15.2123
2705.16	14.9576
2706.5	14.9993
2707.85	14.5532
2709.19	15.46
2710.54	16.2086
2711.88	15.8269
2713.23	15.996
2714.57	16.0161
2715.92	16.1297
2717.26	16.9624
2718.6	16.8493
2719.95	16.5623
2721.29	17.0399
2722.63	16.9159
2723.97	17.2401
2725.32	17.9718
2726.66	17.5725
2728	17.1624
2729.34	15.5506
2730.68	14.9778
2732.02	15.3899
2733.36	15.437
2734.7	15.7179
2736.04	16.1242
2737.39	14.7697
2738.72	13.8897
2740.06	12.7359
2741.4	12.0578
2742.74	12.2927
2744.08	11.5827
2745.42	11.5312
2746.76	10.8434
2748.1	10.244
2749.44	9.72789
2750.77	10.0563
2752.11	10.5372
2753.45	9.24525
2754.78	8.35772
2756.12	8.94344
2757.46	9.55954
2758.79	9.05224
2760.13	9.47995
2761.47	8.62968
2762.8	8.26383
2764.14	7.65399
2765.47	6.05349
2766.81	5.49692
2768.14	4.64736
2769.48	4.14479
2770.81	4.23375
2772.14	4.10214
2773.48	3.56862
2774.81	4.61624
2776.14	5.12245
2777.48	4.74676
2778.81	4.99567
2780.14	4.82657
2781.47	4.13271
2782.81	4.50807
2784.14	4.11307
2785.47	2.85258
2786.8	2.60191
2788.13	3.21817
2789.46	2.65206
2790.79	2.26972
2792.12	1.85665
2793.46	1.92126
2794.79	1.53855
2796.11	1.8753
2797.44	2.92404
2798.77	3.06029
2800.1	3.01854
2801.43	2.07027
2802.76	0.776301
2804.09	-0.129284
2805.42	0.463778
2806.74	-0.117229
2808.07	-0.131941
2809.4	0.430654
2810.73	-0.443178
2812.05	-0.401515
2813.38	0.366797
2814.71	1.809
2816.03	3.71169
2817.36	5.33525
2818.68	6.87984
2820.01	9.21499
2821.33	12.6411
2822.66	15.858
2823.98	19.3529
2825.31	23.4783
2826.63	28.2105
2827.96	32.0292
2829.28	38.0541
2830.61	44.5494
2831.93	51.5538
2833.25	58.8465
2834.57	66.4994
2835.9	74.1702
2837.22	80.9447
2838.54	89.5265
2839.86	97.4614
2841.18	105.225
2842.51	111.707
2843.83	119.981
2845.15	127.861
2846.47	135.707
2847.79	142.932
2849.11	150.915
2850.43	158.011
2851.75	166.632
2853.07	174.53
2854.39	182.816
2855.71	189.995
2857.03	196.814
2858.35	204.527
2859.67	211.016
2860.98	216.9
2862.3	221.7
2863.62	226.968
2864.94	232.041
2866.25	236.045
2867.57	239.881
2868.89	244.516
2870.21	247.849
2871.52	249.754
2872.84	252.242
2874.15	255.318
2875.47	257.802
2876.78	260.368
2878.1	263.747
2879.42	266.79
2880.73	269.279
2882.04	272.798
2883.36	275.48
2884.67	280.124
2885.99	285.192
2887.3	288.445
2888.61	292.576
2889.93	297.514
2891.24	303.175
2892.55	308.648
2893.87	314.174
2895.18	321.113
2896.49	327.815
2897.8	334.336
2899.11	341.469
2900.42	349.725
2901.74	358.288
2903.05	368.659
2904.36	379.022
2905.67	389.36
2906.98	401.1
2908.29	413.521
2909.6	427.827
2910.91	441.543
2912.22	455.078
2913.53	467.78
2914.83	481.704
2916.14	495.277
2917.45	509.125
2918.76	521.527
2920.07	535.43
2921.37	546.301
2922.68	556.306
2923.99	566.688
2925.3	574.849
2926.6	582.912
2927.91	588.521
2929.22	594.701
2930.52	598.591
2931.83	599.925
2933.13	601.5
2934.44	601.804
2935.74	599.503
2937.05	597.857
2938.35	595.987
2939.66	591.553
2940.96	586.097
2942.27	579.374
2943.57	571.515
2944.87	562.524
2946.18	553.861
2947.48	544.875
2948.78	533.549
2950.09	521.801
2951.39	509.119
2952.69	495.21
2953.99	482.223
2955.29	469.316
2956.6	455.89
2957.9	442.159
2959.2	429.163
2960.5	416.297
2961.8	403.881
2963.1	391.995
2964.4	380.565
2965.7	368.987
2967	358.659
2968.3	348.26
2969.6	338.596
2970.9	329.55
2972.2	320.315
2973.49	311.963
2974.79	303.042
2976.09	293.522
2977.39	284.04
2978.69	275.047
2979.98	267.121
2981.28	258.214
2982.58	249.021
2983.88	240.154
2985.17	231.074
2986.47	221.25
2987.76	211.771
2989.06	202.745
2990.36	192.623
2991.65	182.815
2992.95	172.707
2994.24	164.273
2995.54	154.841
2996.83	146.318
2998.12	138.214
2999.42	130.471
3000.71	122.018
3002	114.756
3003.3	106.783
3004.59	98.8086
3005.88	91.2168
3007.18	84.1575
3008.47	78.0451
3009.76	71.6292
3011.05	65.804
3012.35	59.8985
3013.64	53.3817
3014.93	47.1558
3016.22	42.2357
3017.51	38.0685
3018.8	34.9439
3020.09	31.8562
3021.38	28.6744
3022.67	26.5357
3023.96	24.5256
3025.25	21.6816
3026.54	19.9689
3027.83	17.9845
3029.12	16.2717
3030.41	15.6624
3031.69	15.2224
3032.98	15.0859
3034.27	14.857
3035.56	14.0007
3036.85	13.7802
3038.13	14.2615
3039.42	13.5129
3040.71	14.57
3041.99	14.9986
3043.28	15.3022
3044.57	15.6261
3045.85	15.4699
3047.14	15.6653
3048.42	16.8636
3049.71	17.128
3050.99	16.8992
3052.28	16.3082
3053.56	17.5735
3054.85	17.4878
3056.13	17.4648
3057.42	17.2555
3058.7	17.4596
3059.98	17.5009
3061.27	18.4781
3062.55	17.6575
3063.83	17.6008
3065.11	16.9212
3066.4	16.3564
3067.68	15.1936
3068.96	14.352
3070.24	13.2894
3071.52	12.5187
3072.8	11.7245
3074.09	10.4218
3075.37	9.50446
3076.65	8.35738
3077.93	6.46642
3079.21	5.87419
3080.49	6.56374
3081.77	6.79705
3083.05	6.50615
3084.32	5.54902
3085.61	4.7248
3086.88	3.25201
3088.16	2.39047
3089.44	1.98753
3090.72	1.95681
3092	1.62325
3093.27	2.07126
3094.55	2.67008
3095.83	3.27787
3097.11	3.8144
3098.38	3.9088
3099.66	4.91796
3100.94	5.4764
3102.21	7.67474
3103.49	7.8454
3104.76	9.43625
3106.04	10.3139
3107.31	11.7771
3108.59	13.3371
3109.86	14.7344
3111.14	15.3082
3112.41	16.9291
3113.69	17.2409
3114.96	18.3213
3116.23	20.3443
3117.51	22.0398
3118.78	22.613
3120.05	23.8581
3121.33	25.3042
3122.6	27.1059
3123.87	29.023
3125.14	30.3447
3126.42	30.614
3127.69	32.1867
3128.96	33.5875
3130.23	34.788
3131.5	36.2161
3132.77	37.7131
3134.04	39.2859
3135.31	41.049
3136.58	42.657
3137.85	43.9742
3139.12	45.6022
3140.39	47.3306
3141.66	48.9801
3142.93	50.8715
3144.2	52.2981
3145.47	53.9526
3146.74	56.3756
3148	59.688
3149.27	63.6405
