#Acq. time (s)=	45
#Accumulations=	2
#Range (cm-¹)=	200...3150
#Windows=	2
#Auto scanning=	Off
#Autofocus=	Off
#Macrospot=	Off
#AutoExposure=	Off
#Spike filter=	Multiple accum.
#Delay time (s)=	0
#Binning=	1
#Readout mode=	Signal
#DeNoise=	Off
#ICS correction=	On
#Dark correction=	Off
#Inst. Process=	Off
#Detector Gain=	Best Dynamic Range
#Detector ADC=	20 kHz       
#Detector temperature (°C)=	-69.85
#Instrument=	LabRAM HR Evol
#Detector=	Synapse
#Objective=	x100
#Grating=	600 gr/mm
#ND Filter=	100%
#Laser (nm)=	532 
#Hole=	100.021
#Range=	Auto
#Laser Pol.=	No
#Raman. Pol.=	No
#Laser Pol. (°)=	-0.0007625
#Raman Pol. (°)=	89.9995
#Collection=	Microscope
#StageXY=	Marzhauser
#StageZ=	Marzhauser
#X (µm)=	19279.6
#Y (µm)=	3038
#Z (µm)=	1047.7
#Full time(mm:ss)=	3:19
#Project=	
#Sample=	
#Site=	
#Title=	Mb_50_18_17_2x_45s_532 nm_x100_100%_600 gr_mm
#Remark=	
#Date=	12.07.2022 11:28
#Acquired=	12.07.2022 11:28:48
#Base:Fit=	10.08.2022 10:49:18
#Base:Sub=	10.08.2022 10:49:30
#Filter:Polynom=	16.08.2022 10:14:59
#AxisType[0]=Intens
#AxisUnit[0]=Cnt
#AxisType[1]=Spectr
#AxisUnit[1]=1/cm
200.388	19.8399
202.204	18.1568
204.019	15.9555
205.832	13.6524
207.646	12.3967
209.459	11.2346
211.274	10.4386
213.087	9.69915
214.899	9.25097
216.711	8.51053
218.524	7.7388
220.335	6.82619
222.146	6.14961
223.956	4.96403
225.766	4.38783
227.576	3.78069
229.388	3.38841
231.197	3.2313
233.005	3.19263
234.813	3.06606
236.621	3.86247
238.429	4.67427
240.236	4.95997
242.045	6.08374
243.852	6.52675
245.658	6.89506
247.464	6.47544
249.269	6.18011
251.074	6.31347
252.879	6.36448
254.683	6.98782
256.487	7.8554
258.291	9.16121
260.094	9.50197
261.897	10.2996
263.702	9.17132
265.504	9.04138
267.306	9.25478
269.108	8.63699
270.909	7.9105
272.71	7.6187
274.511	8.08766
276.311	7.67224
278.111	7.77116
279.91	7.47606
281.709	6.72241
283.508	7.05211
285.306	8.12376
287.105	8.71229
288.9	9.09672
290.698	8.31933
292.495	9.04048
294.291	10.3106
296.088	11.0922
297.884	10.694
299.679	11.0003
301.475	11.5355
303.27	11.5997
305.064	12.1297
306.858	11.8761
308.652	12.408
310.444	13.1552
312.237	14.342
314.03	15.0549
315.822	15.9362
317.615	16.9459
319.406	18.609
321.198	19.7804
322.987	21.0013
324.778	21.5
326.568	22.4299
328.358	22.0603
330.148	21.2001
331.935	21.1237
333.724	19.2434
335.513	17.957
337.301	16.8962
339.089	17.4034
340.875	17.3224
342.662	16.6773
344.449	16.9205
346.236	16.4706
348.02	15.9914
349.806	15.6392
351.592	15.3651
353.375	15.2033
355.16	14.9876
356.944	14.5995
358.728	14.6683
360.51	15.9918
362.294	17.4697
364.077	18.7516
365.858	19.7202
367.64	20.5427
369.422	21.7672
371.202	22.746
372.983	24.1369
374.764	25.3927
376.543	26.1845
378.324	27.6579
380.102	28.7828
381.881	29.8402
383.661	30.6026
385.438	30.6943
387.216	31.416
388.993	32.6601
390.771	33.4734
392.548	34.2323
394.324	35.4482
396.101	36.0772
397.875	36.4949
399.651	36.3276
401.425	36.4261
403.201	35.4278
404.974	34.2923
406.749	34.1957
408.524	32.9834
410.296	30.7759
412.07	29.2
413.841	27.5687
415.614	25.8843
417.385	24.5991
419.156	23.6671
420.928	21.2312
422.698	18.8198
424.469	18.0198
426.238	16.7627
428.009	15.0889
429.777	13.7367
431.548	12.8558
433.315	11.8267
435.083	9.78598
436.852	9.29031
438.618	9.52767
440.387	9.28669
442.153	8.90342
443.919	8.21681
445.686	8.29307
447.451	9.42237
449.218	10.5598
450.982	10.4322
452.746	10.9668
454.512	10.912
456.275	11.4353
458.038	11.2534
459.803	11.2611
461.565	12.1067
463.327	12.593
465.091	12.018
466.852	13.0541
468.613	13.8077
470.374	14.2544
472.136	15.9402
473.896	17.1111
475.655	18.3422
477.415	19.4069
479.176	20.8218
480.934	22.2952
482.692	23.4578
484.45	24.758
486.21	25.6024
487.967	26.6934
489.724	28.0063
491.481	29.0107
493.237	30.9616
494.995	32.9099
496.75	34.1832
498.506	36.3088
500.26	37.9115
502.015	39.2131
503.771	40.2664
505.525	40.6986
507.279	40.6175
509.032	40.9596
510.785	42.4974
512.537	43.5153
514.289	43.2072
516.041	43.4795
517.793	44.1631
519.546	43.3768
521.297	42.7565
523.047	43.1969
524.797	43.1056
526.547	42.8274
528.297	41.864
530.046	41.0057
531.795	39.975
533.543	38.4121
535.291	36.1274
537.039	33.912
538.787	31.2275
540.534	29.6761
542.281	26.7028
544.027	25.2302
545.773	22.9566
547.519	21.9564
549.264	19.7855
551.01	17.7018
552.754	16.1455
554.499	15.2351
556.243	14.1904
557.987	12.6663
559.73	12.2485
561.474	11.6911
563.216	10.8082
564.959	10.9203
566.701	10.8977
568.441	9.98288
570.182	9.84008
571.923	9.69432
573.664	9.28374
575.405	8.96591
577.145	9.62446
578.885	9.8467
580.624	9.1326
582.361	7.6904
584.1	7.63683
585.839	7.27773
587.577	6.87261
589.315	7.3517
591.052	7.76376
592.787	8.13415
594.524	9.65868
596.26	10.6955
597.997	11.0765
599.732	10.9756
601.466	10.8909
603.201	11.1338
604.936	11.0034
606.67	11.0237
608.403	11.0278
610.136	11.2721
611.87	11.8738
613.603	11.9269
615.334	11.8513
617.067	10.66
618.799	10.045
620.529	8.78099
622.26	8.31053
623.991	7.99506
625.72	8.28389
627.451	7.72439
629.181	6.75309
630.909	6.68872
632.638	6.1102
634.368	6.11828
636.095	5.47223
637.823	5.77062
639.551	5.70995
641.277	5.20856
643.005	6.25521
644.73	5.34026
646.457	5.61107
648.184	5.5084
649.908	5.56722
651.634	5.73175
653.357	5.48381
655.083	5.1906
656.806	5.6476
658.53	5.59483
660.253	5.56384
661.977	5.3131
663.7	5.40098
665.422	4.16443
667.145	3.63529
668.865	4.84801
670.588	5.95381
672.308	6.57054
674.027	8.62563
675.749	9.33598
677.468	10.2885
679.188	12.5491
680.907	14.1025
682.627	15.5923
684.345	16.1962
686.064	16.7703
687.781	17.5296
689.498	18.0752
691.216	19.9234
692.932	21.1269
694.65	22.3248
696.366	23.5666
698.081	24.1435
699.797	24.8506
701.512	25.777
703.228	26.6775
704.942	28.7036
706.655	29.4881
708.371	29.5249
710.083	30.3298
711.796	31.6161
713.51	30.954
715.222	31.5073
716.934	33.1608
718.645	34.5073
720.358	34.9067
722.068	34.4984
723.779	34.6472
725.49	33.9766
727.2	33.7532
728.909	34.4684
730.618	34.5099
732.329	36.6286
734.037	38.1589
735.745	41.041
737.453	42.9849
739.16	45.5451
740.869	48.2689
742.576	51.3583
744.282	53.6357
745.988	57.0543
747.694	60.2836
749.401	64.1018
751.107	67.7544
752.811	71.5414
754.516	75.1588
756.22	78.0728
757.924	81.7744
759.627	84.7532
761.332	85.8113
763.035	88.5916
764.738	91.8118
766.44	93.5327
768.142	95.7785
769.843	97.2221
771.544	98.8964
773.245	100.222
774.946	101.035
776.646	102.81
778.346	103.631
780.046	104.157
781.745	103.404
783.444	103.752
785.143	105.203
786.841	104.554
788.539	104.547
790.237	103.913
791.934	102.205
793.631	100.105
795.328	99.0047
797.024	97.5316
798.72	94.7788
800.416	92.8555
802.112	90.9183
803.807	88.4309
805.502	85.1966
807.196	82.0849
808.89	80.1556
810.584	78.0792
812.278	76.8492
813.971	76.4534
815.664	75.7478
817.354	75.2437
819.047	75.7439
820.739	75.8871
822.43	75.6798
824.122	74.5983
825.813	74.9071
827.503	75.0083
829.192	74.3618
830.882	73.8936
832.571	74.1073
834.261	73.9152
835.95	72.5837
837.637	70.823
839.325	71.0685
841.013	70.2409
842.701	69.0669
844.389	67.3217
846.074	66.6339
847.761	66.7491
849.447	66.537
851.131	64.885
852.817	63.4354
854.503	62.4395
856.188	60.097
857.871	58.7446
859.556	58.2246
861.24	58.2833
862.922	57.4417
864.606	55.75
866.289	55.0903
867.97	55.1195
869.653	53.9377
871.336	51.9419
873.016	51.1155
874.698	50.1058
876.379	48.5693
878.058	48.3084
879.739	47.3782
881.418	47.1179
883.098	46.6229
884.778	46.0065
886.456	46.1814
888.135	45.9846
889.812	45.6008
891.49	44.8938
893.167	45.4154
894.845	44.8067
896.523	44.9063
898.198	45.3838
899.875	45.6744
901.55	45.645
903.226	45.4708
904.901	44.7619
906.576	45.4069
908.25	44.6723
909.925	45.5343
911.598	45.7492
913.271	45.6779
914.945	46.311
916.617	46.7277
918.291	46.6605
919.962	46.5531
921.635	47.2167
923.306	47.7064
924.978	46.6779
926.648	46.0713
928.318	45.155
929.989	44.697
931.659	43.6361
933.328	41.8488
934.998	41.1725
936.666	40.7852
938.336	40.5399
940.004	39.325
941.671	39.8272
943.34	40.6159
945.007	39.7059
946.673	38.1958
948.339	37.6569
950.007	38.1595
951.672	38.4164
953.337	38.1077
955.004	38.3463
956.669	38.6193
958.333	38.7696
959.997	38.5026
961.662	38.6167
963.326	37.9808
964.989	38.1363
966.651	38.2288
968.315	37.7654
969.977	37.4261
971.639	36.7289
973.301	36.4715
974.962	35.5903
976.624	35.0547
978.285	34.4009
979.945	33.5686
981.605	33.0756
983.264	32.9803
984.924	31.0852
986.583	30.7304
988.243	30.617
989.901	31.2217
991.56	30.5213
993.217	31.5301
994.875	33.3366
996.532	33.6383
998.188	34.6192
999.845	35.9101
1001.5	38.3057
1003.16	40.3982
1004.81	42.9762
1006.47	44.6445
1008.12	46.8362
1009.78	48.4366
1011.43	50.2151
1013.09	51.0951
1014.74	53.5541
1016.39	55.7329
1018.05	58.0588
1019.7	59.4442
1021.35	61.8223
1023	64.7226
1024.65	66.8008
1026.31	68.1717
1027.96	68.9137
1029.61	71.2063
1031.26	73.8698
1032.91	74.25
1034.56	74.1831
1036.21	73.6904
1037.86	73.5628
1039.51	73.324
1041.16	72.6992
1042.8	71.4906
1044.45	71.0308
1046.1	69.844
1047.75	67.9534
1049.39	66.7378
1051.04	64.6143
1052.69	62.8406
1054.33	62.356
1055.98	61.4544
1057.62	60.393
1059.27	59.1767
1060.91	57.3211
1062.56	55.6288
1064.2	54.4232
1065.85	53.1167
1067.49	51.9518
1069.13	52.1975
1070.77	52.3926
1072.42	53.0134
1074.06	53.1061
1075.7	54.5956
1077.34	54.6767
1078.98	54.646
1080.62	55.375
1082.27	54.8431
1083.91	55.1785
1085.55	56.4147
1087.18	56.7864
1088.82	55.8206
1090.46	55.7752
1092.1	54.7795
1093.74	54.8208
1095.38	55.2197
1097.02	56.6578
1098.65	56.5349
1100.29	56.356
1101.93	56.1785
1103.56	56.5825
1105.2	55.7787
1106.84	55.1055
1108.47	54.4543
1110.11	54.1826
1111.74	53.5661
1113.38	50.1018
1115.01	46.7896
1116.64	45.6722
1118.28	43.3748
1119.91	41.107
1121.54	39.0817
1123.18	37.1222
1124.81	35.2371
1126.44	33.8711
1128.07	31.602
1129.7	30.0186
1131.33	29.0973
1132.97	28.1893
1134.6	27.0041
1136.23	25.6693
1137.86	24.6441
1139.49	23.6771
1141.11	22.3558
1142.74	20.5904
1144.37	19.632
1146	19.1364
1147.63	18.6924
1149.26	17.0346
1150.88	15.3918
1152.51	13.2198
1154.14	11.9969
1155.76	10.2743
1157.39	8.99647
1159.01	8.16851
1160.64	6.59262
1162.27	5.02126
1163.89	4.96879
1165.51	6.01027
1167.14	6.7041
1168.76	5.24771
1170.39	5.23481
1172.01	4.68523
1173.63	4.80323
1175.25	5.88575
1176.88	6.82861
1178.5	7.47708
1180.12	7.24498
1181.74	7.27695
1183.36	7.44155
1184.98	8.09442
1186.6	7.67122
1188.22	7.58967
1189.84	7.54052
1191.46	7.06449
1193.08	6.93993
1194.7	6.34416
1196.32	5.91737
1197.94	6.26825
1199.55	6.5965
1201.17	8.09233
1202.79	9.0565
1204.41	10.176
1206.02	10.5936
1207.64	10.7491
1209.25	11.5616
1210.87	12.5941
1212.48	13.9063
1214.1	14.8703
1215.71	15.7208
1217.33	18.2597
1218.94	20.0677
1220.56	20.9448
1222.17	21.8305
1223.79	22.4817
1225.4	23.5484
1227.01	24.6807
1228.62	25.0573
1230.23	24.8887
1231.85	26.163
1233.46	27.0201
1235.07	29.5898
1236.68	31.1939
1238.29	33.8002
1239.9	34.8223
1241.51	35.2331
1243.12	36.7262
1244.73	38.8839
1246.34	38.5281
1247.94	39.7183
1249.55	39.5121
1251.16	40.9104
1252.77	40.7197
1254.37	43.3803
1255.98	45.009
1257.59	45.1624
1259.2	45.9062
1260.8	46.0742
1262.41	47.4257
1264.01	48.312
1265.62	49.4577
1267.22	50.1622
1268.83	52.6787
1270.43	55.2473
1272.03	56.451
1273.64	58.4284
1275.24	59.9429
1276.85	61.4532
1278.45	63.5725
1280.05	64.6336
1281.65	65.5738
1283.25	65.9666
1284.85	66.9669
1286.46	67.9537
1288.06	69.593
1289.66	71.222
1291.26	72.14
1292.86	73.3846
1294.46	74.1145
1296.06	75.52
1297.66	75.7536
1299.25	75.1046
1300.85	75.068
1302.45	75.0509
1304.05	74.532
1305.65	74.6822
1307.24	74.2884
1308.84	74.6783
1310.43	73.3017
1312.03	73.5279
1313.63	73.9797
1315.22	74.5717
1316.82	73.7147
1318.41	72.7787
1320.01	70.0573
1321.6	69.7263
1323.2	69.0599
1324.79	67.8106
1326.38	65.9018
1327.98	65.9914
1329.57	64.4936
1331.16	64.2052
1332.76	62.7604
1334.35	62.4085
1335.94	61.3177
1337.53	59.8647
1339.12	59.5554
1340.71	59.195
1342.3	58.2366
1343.89	57.0347
1345.48	56.4741
1347.07	55.0115
1348.66	54.8543
1350.25	52.4599
1351.84	50.6176
1353.43	48.9715
1355.01	47.0551
1356.6	44.9959
1358.19	41.9205
1359.77	40.4323
1361.36	39.6479
1362.95	38.7041
1364.53	37.7101
1366.12	36.5183
1367.71	35.1484
1369.29	33.5353
1370.88	32.0162
1372.46	30.7767
1374.04	29.2202
1375.63	27.7203
1377.21	25.5556
1378.8	24.993
1380.38	24.021
1381.96	22.9932
1383.54	22.1698
1385.13	22.0815
1386.71	20.9471
1388.29	19.9051
1389.87	18.5601
1391.45	16.2372
1393.03	14.0818
1394.61	14.5739
1396.19	14.6539
1397.77	15.5767
1399.35	16.5107
1400.93	17.6935
1402.51	18.8208
1404.09	20.0702
1405.67	22.2202
1407.24	25.7334
1408.82	27.5766
1410.4	30.2577
1411.98	32.5084
1413.55	36.2153
1415.13	39.3172
1416.71	42.0119
1418.28	44.5015
1419.86	48.0903
1421.43	50.3447
1423.01	53.638
1424.58	57.4468
1426.16	60.1884
1427.73	63.1759
1429.31	65.7494
1430.88	69.5135
1432.45	72.5745
1434.02	76.3912
1435.6	78.313
1437.17	80.7126
1438.74	83.159
1440.31	84.6029
1441.88	85.3774
1443.45	85.0547
1445.03	84.7289
1446.6	85.3055
1448.17	84.4955
1449.74	83.5253
1451.3	83.0933
1452.87	82.5306
1454.44	81.2677
1456.01	80.447
1457.58	79.188
1459.15	76.421
1460.72	73.8449
1462.28	71.0147
1463.85	68.1459
1465.42	64.8357
1466.98	61.4807
1468.55	57.8488
1470.12	53.9845
1471.68	52.8549
1473.25	52.2827
1474.81	49.8765
1476.38	46.8002
1477.94	44.4106
1479.51	41.5545
1481.07	40.0833
1482.63	37.9557
1484.2	35.8562
1485.76	34.3538
1487.32	31.9745
1488.88	30.0705
1490.45	28.4243
1492.01	26.7603
1493.57	25.4075
1495.13	23.8697
1496.69	21.6759
1498.25	20.829
1499.81	19.6119
1501.37	18.9933
1502.93	18.0396
1504.49	16.7229
1506.05	15.7593
1507.61	15.0312
1509.17	14.0794
1510.73	12.6402
1512.28	11.6285
1513.84	9.69323
1515.4	9.15637
1516.96	7.87003
1518.51	6.81963
1520.07	6.46948
1521.63	6.46646
1523.18	6.47369
1524.74	6.18409
1526.29	5.62198
1527.85	6.52053
1529.4	6.95134
1530.96	7.20265
1532.51	7.19558
1534.06	8.51414
1535.62	8.367
1537.17	8.46886
1538.72	9.27261
1540.28	10.4311
1541.83	11.9124
1543.38	12.734
1544.93	12.9336
1546.48	13.0061
1548.03	14.5555
1549.59	15.6564
1551.14	16.8287
1552.69	17.516
1554.24	18.145
1555.79	19.5606
1557.34	19.6504
1558.88	20.4584
1560.43	20.4901
1561.98	20.7189
1563.53	21.8922
1565.08	23.7476
1566.62	24.046
1568.17	25.6102
1569.72	27.2939
1571.27	29.1621
1572.81	29.9948
1574.36	31.6849
1575.9	33.0503
1577.45	33.995
1579	34.7624
1580.54	35.9575
1582.09	36.5146
1583.63	37.1917
1585.17	38.324
1586.72	39.0939
1588.26	39.9566
1589.8	41.3921
1591.35	41.8574
1592.89	42.3852
1594.43	43.4406
1595.97	44.3381
1597.52	45.6515
1599.06	45.2876
1600.6	45.3386
1602.14	45.1284
1603.68	45.0608
1605.22	44.3557
1606.76	43.9384
1608.3	43.8594
1609.84	43.3064
1611.38	44.3598
1612.92	43.8576
1614.46	44.014
1615.99	45.0019
1617.53	45.209
1619.07	44.8687
1620.61	44.4934
1622.14	44.8054
1623.68	45.8006
1625.22	46.6856
1626.75	47.6405
1628.29	47.7414
1629.82	47.9292
1631.36	49.2155
1632.9	49.4712
1634.43	49.7103
1635.96	51.3535
1637.5	52.8181
1639.03	54.9868
1640.57	57.5326
1642.1	59.4162
1643.63	60.9029
1645.16	62.2985
1646.7	63.5814
1648.23	64.5681
1649.76	65.5576
1651.29	65.9784
1652.82	65.7662
1654.36	66.5095
1655.89	66.8498
1657.42	67.4406
1658.95	66.525
1660.48	66.8904
1662.01	66.9705
1663.53	65.1251
1665.06	64.5027
1666.59	63.7615
1668.12	61.9187
1669.65	61.5095
1671.18	60.6696
1672.7	58.951
1674.23	56.494
1675.76	53.6929
1677.29	51.4692
1678.81	48.1785
1680.34	45.416
1681.86	43.1532
1683.39	41.3332
1684.91	39.4973
1686.44	37.1854
1687.96	34.8297
1689.49	32.1363
1691.01	29.9998
1692.54	28.2531
1694.06	26.6038
1695.58	24.5331
1697.11	23.7921
1698.63	22.3107
1700.15	21.233
1701.67	19.5905
1703.2	17.8215
1704.72	15.9312
1706.24	14.6352
1707.76	13.8792
1709.28	12.6431
1710.8	11.8266
1712.32	11.6789
1713.84	10.9242
1715.36	10.1463
1716.88	9.86983
1718.4	8.92631
1719.91	8.55372
1721.43	7.24108
1722.95	6.74687
1724.47	6.55651
1725.99	6.44232
1727.5	5.46728
1729.02	5.39328
1730.54	5.35831
1732.05	4.88711
1733.57	4.99961
1735.09	5.04776
1736.6	5.48746
1738.12	5.19396
1739.63	4.14398
1741.15	4.52957
1742.66	4.19808
1744.18	3.90189
1745.69	4.25747
1747.2	3.64978
1748.72	3.00131
1750.23	2.8161
1751.74	2.81684
1753.25	2.89224
1754.77	2.62736
1756.28	2.71636
1757.79	2.7838
1759.3	2.2483
1760.81	2.33714
1762.32	1.47661
1763.83	2.14768
1765.34	2.34309
1766.85	1.79218
1768.36	1.91368
1769.87	2.1187
1771.38	1.56796
1772.89	1.96195
1774.4	1.53515
1775.91	1.5484
1777.41	0.847234
1778.92	1.02234
1780.43	1.61096
1781.94	1.46603
1783.44	1.33453
1784.95	1.40219
1786.45	1.35319
1787.96	1.45371
1789.47	1.13848
1790.97	1.12729
1792.48	1.1312
1793.98	0.669159
1795.48	0.983237
1796.99	1.24057
1798.49	1.13816
1800	2.19805
1801.5	2.27501
1803	2.13535
1804.51	2.84059
1806.01	2.90193
1807.51	3.01503
1809.01	3.51075
1810.51	3.39201
1812.02	2.75482
1813.52	2.63239
1815.02	1.97943
1816.52	2.15025
1818.02	2.26168
1819.52	2.37259
1821.02	2.08608
1822.52	1.63504
1824.02	1.31771
1825.51	1.74382
1827.01	1.77239
1828.51	1.71774
1830.01	1.40845
1831.51	0.790189
1833	0.217356
1834.5	-0.209249
1836	-0.00848692
1837.5	-0.28038
1838.99	0.0135959
1840.49	-0.495437
1841.98	-0.454261
1843.48	-0.103552
1844.97	-0.0531779
1846.47	-0.112553
1847.96	0.0711408
1849.46	-0.159787
1850.95	0.0698755
1852.45	-0.0561984
1853.94	0.462995
1855.43	0.443009
1856.92	0.461219
1858.42	0.0755022
1859.91	0.822277
1861.4	1.75645
1862.89	1.65695
1864.39	1.93016
1865.88	2.40364
1867.37	2.36174
1868.86	2.4392
1870.35	3.01518
1871.84	3.53304
1873.33	3.44204
1874.82	4.92918
1876.31	5.40981
1877.8	5.93611
1879.29	5.82588
1880.77	5.54301
1882.26	6.30676
1882.51	6.15875
1884	5.77402
1885.5	5.75507
1886.99	5.67953
1888.48	5.41721
1889.98	5.73303
1891.47	6.26914
1892.97	5.77889
1894.46	5.45235
1895.95	5.64624
1897.44	5.76998
1898.93	5.94869
1900.42	4.87145
1901.92	4.42051
1903.41	3.98103
1904.9	3.65135
1906.39	3.90208
1907.88	3.85937
1909.37	4.31624
1910.86	4.45271
1912.35	4.8748
1913.84	4.90068
1915.32	4.32864
1916.81	4.43965
1918.3	4.42443
1919.79	4.00342
1921.28	4.00828
1922.76	4.39323
1924.25	4.54709
1925.74	4.29055
1927.22	4.95216
1928.71	4.89354
1930.2	4.49419
1931.68	4.28829
1933.17	4.55941
1934.65	4.21447
1936.14	3.60654
1937.62	4.16359
1939.11	4.49201
1940.59	4.36723
1942.08	4.31663
1943.56	5.16933
1945.04	5.60467
1946.53	6.1071
1948.01	7.00954
1949.49	6.11327
1950.97	5.37817
1952.45	4.87078
1953.94	5.24439
1955.42	6.01079
1956.9	5.67988
1958.38	5.69953
1959.86	6.16909
1961.34	6.46106
1962.82	6.62355
1964.3	7.29243
1965.78	7.59335
1967.26	7.50505
1968.74	8.2131
1970.22	8.69358
1971.69	8.49376
1973.17	8.67327
1974.65	8.44681
1976.13	9.48799
1977.61	9.93009
1979.08	10.3101
1980.56	11.0468
1982.03	11.61
1983.51	12.7958
1984.99	12.9224
1986.46	13.2082
1987.94	12.8431
1989.41	12.5253
1990.89	12.2381
1992.36	11.9723
1993.84	12.1412
1995.31	12.5922
1996.78	12.6402
1998.26	12.061
1999.73	11.7672
2001.2	11.2079
2002.68	10.3633
2004.15	10.0409
2005.62	9.56656
2007.09	9.19777
2008.56	9.27116
2010.04	9.17553
2011.51	8.88984
2012.98	8.31489
2014.45	7.65571
2015.92	7.14546
2017.39	7.30269
2018.86	7.31617
2020.33	7.41621
2021.8	7.16182
2023.27	6.75013
2024.74	6.61984
2026.2	7.1698
2027.67	7.41413
2029.14	7.89136
2030.61	7.19785
2032.07	7.34081
2033.54	7.42371
2035.01	7.78848
2036.47	8.47399
2037.94	9.48608
2039.41	10.0075
2040.87	10.9688
2042.34	10.7935
2043.8	11.252
2045.27	11.9249
2046.73	13.1704
2048.2	13.8906
2049.66	15.5511
2051.12	16.4902
2052.59	17.7429
2054.05	19.2231
2055.51	19.6893
2056.98	20.9409
2058.44	21.8836
2059.9	22.8064
2061.36	23.6395
2062.82	24.4139
2064.29	25.2014
2065.75	26.6123
2067.21	28.0483
2068.67	28.8683
2070.13	30.0555
2071.59	30.7612
2073.05	31.7746
2074.51	32.322
2075.97	33.6347
2077.43	35.3115
2078.88	36.3685
2080.34	38.8072
2081.8	40.1798
2083.26	41.0343
2084.72	42.1858
2086.17	43.342
2087.63	44.3412
2089.09	45.753
2090.54	47.6248
2092	50.0812
2093.46	51.111
2094.91	52.4356
2096.37	54.5229
2097.82	56.0047
2099.28	58.0698
2100.73	59.4648
2102.19	62.0635
2103.64	63.48
2105.09	66.5291
2106.55	68.5518
2108	70.909
2109.46	73.4513
2110.91	75.4283
2112.36	78.6502
2113.81	81.3454
2115.27	83.65
2116.72	86.6939
2118.17	89.2475
2119.62	92.0944
2121.07	94.3325
2122.52	98.2327
2123.97	100.948
2125.42	104.311
2126.87	106.73
2128.32	108.77
2129.77	111.888
2131.22	114.388
2132.67	116.329
2134.12	118.233
2135.57	120.446
2137.01	123.323
2138.46	126.606
2139.91	129.381
2141.36	131.657
2142.8	134.843
2144.25	136.867
2145.7	139.13
2147.14	140.708
2148.59	143.062
2150.03	144.839
2151.48	146.912
2152.92	148.654
2154.37	149.246
2155.81	150.28
2157.26	151.029
2158.7	151.647
2160.15	152.596
2161.59	153.211
2163.03	153.271
2164.48	153.825
2165.92	153.781
2167.36	154.025
2168.8	154.315
2170.25	153.846
2171.69	153.322
2173.13	153.195
2174.57	153.089
2176.01	151.661
2177.45	150.87
2178.89	149.206
2180.33	148.01
2181.77	146.649
2183.21	145.353
2184.65	144.057
2186.09	141.397
2187.53	139.171
2188.97	137.13
2190.41	135.298
2191.84	133.957
2193.28	131.584
2194.72	130.052
2196.16	126.867
2197.59	124.43
2199.03	121.181
2200.47	118.299
2201.9	116.165
2203.34	113.328
2204.78	110.376
2206.21	107.896
2207.65	105.554
2209.08	103.14
2210.51	100.449
2211.95	97.5908
2213.38	94.8188
2214.82	92.1786
2216.25	88.7563
2217.68	86.6556
2219.12	84.6732
2220.55	82.774
2221.98	80.5068
2223.42	78.1935
2224.85	75.355
2226.28	72.8689
2227.71	70.2374
2229.14	67.8484
2230.57	65.2804
2232	62.6996
2233.43	60.2442
2234.86	58.6072
2236.29	57.1402
2237.72	55.1222
2239.15	52.9753
2240.58	51.8136
2242.01	50.1112
2243.44	47.8545
2244.87	47.1017
2246.3	45.6526
2247.73	44.2877
2249.15	43.5662
2250.58	42.3844
2252.01	41.2935
2253.43	40.5634
2254.86	39.8103
2256.29	38.52
2257.71	37.5682
2259.14	37.1395
2260.56	37.1157
2261.99	36.5211
2263.41	36.0102
2264.84	34.7479
2266.26	34.045
2267.69	33.47
2269.11	32.7471
2270.54	31.4583
2271.96	30.6882
2273.38	30.5356
2274.81	29.6296
2276.23	29.1383
2277.65	28.4376
2279.07	27.7567
2280.49	26.8786
2281.92	26.2975
2283.34	25.6151
2284.76	24.5636
2286.18	24.2593
2287.6	23.9817
2289.02	23.2062
2290.44	22.025
2291.86	19.865
2293.28	18.7654
2294.7	17.8905
2296.12	17.3565
2297.54	17.2295
2298.96	17.1899
2300.38	16.5284
2301.79	15.642
2303.21	15.0571
2304.63	14.7754
2306.05	14.3109
2307.46	14.0679
2308.88	13.7897
2310.3	14.1464
2311.71	13.773
2313.13	13.4655
2314.55	13.6885
2315.96	14.3915
2317.38	14.0516
2318.79	13.5686
2320.21	12.6777
2321.62	11.7958
2323.03	11.1661
2324.45	10.8915
2325.86	10.5771
2327.27	10.5398
2328.69	11.366
2330.1	11.5024
2331.51	11.9081
2332.93	11.5779
2334.34	11.3244
2335.75	10.5852
2337.16	11.3082
2338.57	11.1059
2339.99	11.2211
2341.4	11.231
2342.81	10.9654
2344.22	10.2946
2345.63	9.56604
2347.04	8.86133
2348.45	7.8845
2349.86	7.71597
2351.26	6.91637
2352.67	6.61445
2354.08	6.38599
2355.49	6.21441
2356.9	5.66443
2358.31	4.823
2359.71	4.60721
2361.12	5.23928
2362.53	4.86839
2363.94	6.63795
2365.34	7.61607
2366.75	8.11587
2368.15	8.06242
2369.56	7.96154
2370.97	7.10704
2372.37	6.62142
2373.78	6.19678
2375.18	6.40997
2376.59	6.49697
2377.99	6.52775
2379.39	6.25058
2380.8	6.67034
2382.2	5.59142
2383.61	5.61818
2385.01	5.22334
2386.41	4.01519
2387.81	2.75814
2389.22	1.99999
2390.62	2.09695
2392.02	2.32923
2393.42	3.01705
2394.82	3.21364
2396.22	3.11161
2397.63	3.82383
2399.02	4.16105
2400.43	3.71473
2401.82	3.81913
2403.23	3.68421
2404.62	3.55905
2406.02	3.89886
2407.42	4.0851
2408.82	3.5585
2410.22	3.67325
2411.62	2.80856
2413.02	2.68454
2414.41	2.75036
2415.81	3.24332
2417.21	3.30893
2418.61	3.78419
2420	4.60537
2421.4	5.00642
2422.79	5.62558
2424.19	6.63412
2425.59	6.95667
2426.98	7.36648
2428.38	7.93867
2429.77	8.82915
2431.17	9.404
2432.56	9.43142
2433.96	9.84257
2435.35	9.26153
2436.74	8.63128
2438.14	8.86218
2439.53	9.37602
2440.92	8.98097
2442.32	9.22468
2443.71	8.906
2445.1	8.79784
2446.49	8.69521
2447.88	8.88537
2449.28	8.51884
2450.67	7.87067
2452.06	6.86138
2453.45	6.73823
2454.84	6.30303
2456.23	5.65843
2457.62	5.5332
2459.01	5.62017
2460.4	5.36009
2461.79	5.07218
2463.18	4.80623
2464.57	3.8408
2465.96	3.41632
2467.34	3.62881
2468.73	2.44445
2470.12	2.00831
2471.51	1.65065
2472.89	1.52623
2474.28	1.58407
2475.67	1.2811
2477.05	0.64957
2478.44	0.712055
2479.83	0.185743
2481.21	-0.118913
2482.6	0.316883
2483.98	0.0854875
2485.37	0.212662
2486.75	-0.0837455
2488.14	-0.0803525
2489.52	0.109989
2490.9	0.2527
2492.29	0.357764
2493.67	-0.00246236
2495.06	-0.722432
2496.44	-0.812367
2497.82	-0.877441
2499.2	-0.323509
2500.59	-0.024641
2501.97	-0.148875
2503.35	0.0945613
2504.73	0.70257
2506.11	1.60747
2507.49	2.40077
2508.88	1.92035
2510.26	2.41789
2511.63	2.30634
2513.01	2.71409
2514.39	3.45799
2515.77	3.48381
2517.15	3.90697
2518.53	4.32452
2519.91	4.92016
2521.29	5.13439
2522.67	4.87943
2524.05	5.66828
2525.42	6.04683
2526.8	6.21373
2528.18	6.50349
2529.56	6.44381
2530.93	6.82586
2532.31	6.45893
2533.69	6.13015
2535.06	6.30425
2536.44	6.66379
2537.81	6.87985
2539.19	7.64668
2540.56	7.32354
2541.94	7.02154
2543.31	6.8084
2544.69	5.88816
2546.06	5.39489
2547.44	5.12159
2548.81	4.35827
2550.18	4.70941
2551.56	4.73875
2552.93	4.50903
2554.3	3.74775
2555.68	3.20239
2557.05	3.21028
2558.42	3.21146
2559.79	2.92471
2561.16	3.11491
2562.53	3.55946
2563.9	3.63015
2565.28	3.84785
2566.64	3.7604
2568.02	3.79646
2569.38	3.70359
2570.76	3.47712
2572.12	3.57547
2573.49	3.89906
2574.86	4.32155
2576.23	4.25763
2577.6	3.91417
2578.97	4.42845
2580.34	4.53997
2581.7	5.06548
2583.07	4.93442
2584.44	5.30393
2585.81	5.76659
2587.17	5.70644
2588.54	5.04973
2589.91	5.16203
2591.27	5.37857
2592.64	6.75819
2594	5.6764
2595.37	4.88739
2596.73	5.00528
2598.1	4.38284
2599.46	4.85879
2600.83	4.53136
2602.19	4.14169
2603.55	4.46905
2604.92	4.48456
2606.28	4.01465
2607.64	3.14531
2609.01	2.44493
2610.37	2.19036
2611.73	2.30793
2613.09	1.7608
2614.46	2.02725
2615.82	2.42566
2617.18	2.16953
2618.54	2.63553
2619.9	2.45673
2621.26	1.86247
2622.62	1.75706
2623.98	2.61616
2625.34	3.17219
2626.7	2.97494
2628.06	3.15799
2629.42	3.53872
2630.78	3.09179
2632.14	2.35729
2633.5	2.43071
2634.86	2.11642
2636.22	2.02348
2637.57	1.84234
2638.93	2.08976
2640.29	2.35971
2641.64	2.23672
2643	2.15037
2644.36	2.28924
2645.72	2.7431
2647.07	2.69166
2648.43	2.59212
2649.78	2.0383
2651.14	1.47081
2652.49	1.51357
2653.85	1.66104
2655.2	1.66633
2656.56	1.20261
2657.91	1.22266
2659.27	1.27075
2660.62	1.33291
2661.97	0.234537
2663.33	1.20654
2664.68	1.76063
2666.03	1.93529
2667.38	2.17396
2668.74	1.73788
2670.09	1.69974
2671.44	1.93897
2672.79	2.11213
2674.14	2.33415
2675.49	3.11457
2676.84	3.61376
2678.2	2.87873
2679.55	2.90749
2680.89	3.06456
2682.24	3.90598
2683.59	4.26966
2684.94	4.10855
2686.29	4.76514
2687.64	5.28911
2688.99	5.16311
2690.34	5.62568
2691.69	5.74787
2693.04	5.24425
2694.38	4.68165
2695.73	5.11054
2697.08	4.73574
2698.43	4.57946
2699.77	5.0223
2701.12	5.27359
2702.46	4.83224
2703.81	5.59786
2705.16	6.28512
2706.5	6.78454
2707.85	6.83509
2709.19	6.79125
2710.54	7.54763
2711.88	8.60343
2713.23	8.80219
2714.57	8.7427
2715.92	9.17401
2717.26	9.6826
2718.6	10.4689
2719.95	11.2675
2721.29	11.679
2722.63	11.4412
2723.97	11.6028
2725.32	12.1645
2726.66	12.8427
2728	12.5567
2729.34	13.0703
2730.68	12.8693
2732.02	12.7213
2733.36	12.9764
2734.7	12.5622
2736.04	12.4067
2737.39	12.0008
2738.72	11.4751
2740.06	11.7879
2741.4	11.3196
2742.74	10.5856
2744.08	9.3576
2745.42	8.39737
2746.76	9.13533
2748.1	8.92095
2749.44	8.5016
2750.77	8.18815
2752.11	6.64803
2753.45	5.85977
2754.78	4.61125
2756.12	3.72563
2757.46	3.21875
2758.79	2.44661
2760.13	1.71303
2761.47	1.7627
2762.8	1.33436
2764.14	0.320621
2765.47	0.143591
2766.81	-0.142176
2768.14	-0.354716
2769.48	-0.29497
2770.81	-0.00235452
2772.14	-0.762614
2773.48	-1.25801
2774.81	-1.3007
2776.14	-0.904023
2777.48	0.212476
2778.81	0.0742753
2780.14	-0.644062
2781.47	-0.0243415
2782.81	-0.190538
2784.14	-0.304718
2785.47	-0.310873
2786.8	-0.913281
2788.13	-0.9201
2789.46	-0.451113
2790.79	-0.437608
2792.12	-0.2653
2793.46	0.143346
2794.79	-0.402859
2796.11	-0.240619
2797.44	-0.302485
2798.77	0.53685
2800.1	0.118317
2801.43	-0.273422
2802.76	-0.552702
2804.09	-0.571848
2805.42	-1.00347
2806.74	-0.711919
2808.07	-1.18665
2809.4	-1.46059
2810.73	-2.04846
2812.05	-1.94029
2813.38	-1.2575
2814.71	-1.41667
2816.03	0.0885768
2817.36	1.83629
2818.68	3.66597
2820.01	7.39199
2821.33	11.3172
2822.66	15.5273
2823.98	19.6044
2825.31	23.6381
2826.63	28.1917
2827.96	33.3271
2829.28	37.5473
2830.61	42.3935
2831.93	48.0565
2833.25	54.1778
2834.57	60.3054
2835.9	66.3808
2837.22	71.7385
2838.54	77.6558
2839.86	83.8289
2841.18	90.8428
2842.51	97.4811
2843.83	103.224
2845.15	108.85
2846.47	115.643
2847.79	123.028
2849.11	129.522
2850.43	136.045
2851.75	142.393
2853.07	149.314
2854.39	155.972
2855.71	162.819
2857.03	168.685
2858.35	174.473
2859.67	179.883
2860.98	184.659
2862.3	190.421
2863.62	195.244
2864.94	199.601
2866.25	202.973
2867.57	206.551
2868.89	208.66
2870.21	211.999
2871.52	214.166
2872.84	216.718
2874.15	218.893
2875.47	220.571
2876.78	222.329
2878.1	224.317
2879.42	226.265
2880.73	229.089
2882.04	232.724
2883.36	235.292
2884.67	238.479
2885.99	240.808
2887.3	242.824
2888.61	244.779
2889.93	247.147
2891.24	249.356
2892.55	251.687
2893.87	254.986
2895.18	257.231
2896.49	259.634
2897.8	263.21
2899.11	266.362
2900.42	268.464
2901.74	271.893
2903.05	274.491
2904.36	278.316
2905.67	283.282
2906.98	287.408
2908.29	291.209
2909.6	294.772
2910.91	300.354
2912.22	305.972
2913.53	311.211
2914.83	316.488
2916.14	321.151
2917.45	325.781
2918.76	330.463
2920.07	334.614
2921.37	339.255
2922.68	342.131
2923.99	345.077
2925.3	347.794
2926.6	350.444
2927.91	351.986
2929.22	352.702
2930.52	353.113
2931.83	352.709
2933.13	351.248
2934.44	349.914
2935.74	348.567
2937.05	345.217
2938.35	341.775
2939.66	338.189
2940.96	333.089
2942.27	328.011
2943.57	322.189
2944.87	316.558
2946.18	310.916
2947.48	305.196
2948.78	298.669
2950.09	292.218
2951.39	284.996
2952.69	278.128
2953.99	271.613
2955.29	264.698
2956.6	257.38
2957.9	250.196
2959.2	243.599
2960.5	235.952
2961.8	228.633
2963.1	221.706
2964.4	214.297
2965.7	207.602
2967	201.754
2968.3	194.599
2969.6	188.659
2970.9	182.424
2972.2	175.259
2973.49	168.871
2974.79	163.283
2976.09	158.272
2977.39	152.411
2978.69	145.988
2979.98	139.895
2981.28	133.164
2982.58	126.868
2983.88	121.627
2985.17	115.606
2986.47	109.74
2987.76	103.34
2989.06	98.3516
2990.36	92.995
2991.65	88.296
2992.95	82.833
2994.24	78.056
2995.54	73.0948
2996.83	67.7922
2998.12	62.7325
2999.42	58.5007
3000.71	54.1268
3002	50.152
3003.3	45.9965
3004.59	42.0479
3005.88	37.3597
3007.18	33.5513
3008.47	30.0982
3009.76	27.3942
3011.05	25.7012
3012.35	23.9049
3013.64	21.3759
3014.93	19.1061
3016.22	17.7034
3017.51	16.8608
3018.8	15.3827
3020.09	13.959
3021.38	12.5298
3022.67	11.484
3023.96	10.3334
3025.25	9.12815
3026.54	8.13577
3027.83	7.06494
3029.12	6.91604
3030.41	6.69286
3031.69	5.98942
3032.98	5.41643
3034.27	5.23021
3035.56	5.69789
3036.85	5.52263
3038.13	5.85439
3039.42	6.53311
3040.71	6.53262
3041.99	6.45421
3043.28	6.23523
3044.57	6.45596
3045.85	6.46758
3047.14	6.97376
3048.42	7.32125
3049.71	6.93825
3050.99	7.76947
3052.28	8.191
3053.56	8.32949
3054.85	8.59484
3056.13	9.60674
3057.42	9.7511
3058.7	9.70642
3059.98	10.1957
3061.27	9.9824
3062.55	10.6312
3063.83	10.2009
3065.11	10.1936
3066.4	9.61493
3067.68	8.9249
3068.96	9.00174
3070.24	8.29372
3071.52	8.18178
3072.8	7.88505
3074.09	7.94579
3075.37	7.50275
3076.65	6.76629
3077.93	6.99095
3079.21	6.08231
3080.49	5.50093
3081.77	4.93575
3083.05	3.27022
3084.32	2.53181
3085.61	1.61481
3086.88	1.22305
3088.16	0.682417
3089.44	0.661353
3090.72	0.105439
3092	0.0811131
3093.27	0.729692
3094.55	1.1049
3095.83	1.16865
3097.11	1.29518
3098.38	1.30989
3099.66	1.91904
3100.94	2.06671
3102.21	2.89673
3103.49	3.16514
3104.76	3.2324
3106.04	3.49662
3107.31	3.92851
3108.59	4.38067
3109.86	4.97797
3111.14	6.05999
3112.41	6.43744
3113.69	7.28864
3114.96	8.07802
3116.23	9.03456
3117.51	10.1718
3118.78	11.5604
3120.05	12.7726
3121.33	13.3867
3122.6	14.1199
3123.87	15.2968
3125.14	15.6562
3126.42	16.7909
3127.69	17.0561
3128.96	18.1347
3130.23	19.2796
3131.5	20.2514
3132.77	21.2314
3134.04	21.2489
3135.31	22.1187
3136.58	22.8157
3137.85	23.7516
3139.12	24.0128
3140.39	24.8128
3141.66	25.3422
3142.93	25.5312
3144.2	26.255
3145.47	26.7155
3146.74	27.5947
3148	28.3918
3149.27	28.6175
