#Acq. time (s)=	45
#Accumulations=	2
#Range (cm-¹)=	200...3150
#Windows=	2
#Auto scanning=	Off
#Autofocus=	Off
#Macrospot=	Off
#AutoExposure=	Off
#Spike filter=	Multiple accum.
#Delay time (s)=	0
#Binning=	1
#Readout mode=	Signal
#DeNoise=	Off
#ICS correction=	On
#Dark correction=	Off
#Inst. Process=	Off
#Detector Gain=	Best Dynamic Range
#Detector ADC=	20 kHz       
#Detector temperature (°C)=	-69.85
#Instrument=	LabRAM HR Evol
#Detector=	Synapse
#Objective=	x100
#Grating=	600 gr/mm
#ND Filter=	100%
#Laser (nm)=	532 
#Hole=	100.021
#Range=	Auto
#Laser Pol.=	No
#Raman. Pol.=	No
#Laser Pol. (°)=	-0.0007625
#Raman Pol. (°)=	89.9995
#Collection=	Microscope
#StageXY=	Marzhauser
#StageZ=	Marzhauser
#X (µm)=	28479.4
#Y (µm)=	-2956.8
#Z (µm)=	1043.55
#Full time(mm:ss)=	3:19
#Project=	
#Sample=	
#Site=	
#Title=	Mb_50_18_49_2x_45s_532 nm_x100_100%_600 gr_mm
#Remark=	
#Date=	12.07.2022 14:51
#Acquired=	12.07.2022 14:51:23
#Base:Fit=	10.08.2022 10:49:18
#Base:Sub=	10.08.2022 10:49:30
#Filter:Polynom=	16.08.2022 10:14:59
#AxisType[0]=Intens
#AxisUnit[0]=Cnt
#AxisType[1]=Spectr
#AxisUnit[1]=1/cm
200.388	4.7397
202.204	9.86381
204.019	12.3634
205.832	13.443
207.646	13.2386
209.459	13.3231
211.274	13.7315
213.087	13.3612
214.899	13.5745
216.711	12.931
218.524	12.7677
220.335	13.2059
222.146	12.8507
223.956	12.5792
225.766	11.743
227.576	12.2876
229.388	13.2026
231.197	13.2092
233.005	12.6717
234.813	12.8666
236.621	12.6303
238.429	12.8307
240.236	12.451
242.045	12.5672
243.852	12.3489
245.658	12.7249
247.464	12.0933
249.269	10.7634
251.074	10.1511
252.879	9.99009
254.683	10.475
256.487	10.5618
258.291	9.84695
260.094	8.75763
261.897	8.55105
263.702	7.27671
265.504	7.75608
267.306	7.89451
269.108	7.60983
270.909	7.3402
272.71	6.76552
274.511	6.8401
276.311	5.80135
278.111	5.75368
279.91	5.3342
281.709	6.25618
283.508	7.01695
285.306	6.88985
287.105	6.00168
288.9	4.75765
290.698	4.66342
292.495	5.05407
294.291	6.24632
296.088	6.636
297.884	7.28298
299.679	7.5274
301.475	7.77704
303.27	7.56137
305.064	9.73267
306.858	10.1272
308.652	12.1264
310.444	12.7391
312.237	13.2729
314.03	13.4678
315.822	14.0003
317.615	16.5733
319.406	17.6813
321.198	18.4342
322.987	19.2286
324.778	19.7551
326.568	20.3063
328.358	20.9415
330.148	21.1563
331.935	21.9638
333.724	22.2977
335.513	22.3651
337.301	23.0952
339.089	22.8831
340.875	23.549
342.662	23.0045
344.449	23.1897
346.236	23.3411
348.02	23.4387
349.806	23.0051
351.592	23.9018
353.375	24.849
355.16	25.0081
356.944	25.1053
358.728	24.2339
360.51	24.4313
362.294	24.6855
364.077	25.1465
365.858	24.944
367.64	25.5304
369.422	26.1456
371.202	27.3298
372.983	28.6838
374.764	28.6909
376.543	28.6856
378.324	29.1813
380.102	30.0157
381.881	30.6693
383.661	31.7375
385.438	31.7335
387.216	32.1492
388.993	34.1493
390.771	34.9248
392.548	35.1129
394.324	36.4095
396.101	35.2593
397.875	35.5112
399.651	35.2223
401.425	35.2312
403.201	35.1195
404.974	35.8796
406.749	36.0626
408.524	33.8349
410.296	32.3704
412.07	30.7644
413.841	29.9328
415.614	29.0868
417.385	28.1033
419.156	27.8137
420.928	26.6304
422.698	26.0175
424.469	25.1127
426.238	24.8566
428.009	23.8596
429.777	23.104
431.548	22.0102
433.315	21.6929
435.083	22.3895
436.852	21.8521
438.618	21.869
440.387	21.7081
442.153	21.0483
443.919	20.0818
445.686	18.4579
447.451	18.2846
449.218	18.0205
450.982	18.5949
452.746	17.9812
454.512	16.654
456.275	16.1687
458.038	16.343
459.803	16.5162
461.565	16.8908
463.327	16.6608
465.091	17.2248
466.852	18.9524
468.613	20.791
470.374	20.97
472.136	22.4781
473.896	23.3259
475.655	24.0866
477.415	25.9976
479.176	26.0365
480.934	27.4617
482.692	28.71
484.45	29.7619
486.21	31.7671
487.967	33.1412
489.724	33.4762
491.481	34.597
493.237	35.987
494.995	36.9301
496.75	37.9334
498.506	39.7872
500.26	41.5432
502.015	43.0415
503.771	43.5623
505.525	44.696
507.279	45.1293
509.032	45.7617
510.785	46.7433
512.537	47.3357
514.289	48.2403
516.041	48.9682
517.793	48.2508
519.546	48.6756
521.297	48.9693
523.047	48.8605
524.797	47.1121
526.547	46.2592
528.297	44.7744
530.046	43.3425
531.795	40.8355
533.543	38.716
535.291	37.8647
537.039	36.1178
538.787	35.2856
540.534	32.5554
542.281	30.4471
544.027	28.9328
545.773	26.7396
547.519	24.6776
549.264	22.4518
551.01	22.0192
552.754	20.3512
554.499	19.0371
556.243	16.08
557.987	13.8048
559.73	13.8229
561.474	12.3609
563.216	11.0171
564.959	9.85375
566.701	8.59441
568.441	9.00692
570.182	8.21971
571.923	7.90509
573.664	7.63485
575.405	7.56682
577.145	7.72808
578.885	8.03793
580.624	8.44201
582.361	7.79677
584.1	7.63593
585.839	6.95254
587.577	6.0967
589.315	4.70777
591.052	3.75156
592.787	3.32514
594.524	3.58031
596.26	4.50761
597.997	4.68523
599.732	6.02339
601.466	5.639
603.201	6.05642
604.936	6.89214
606.67	7.87495
608.403	7.86564
610.136	7.70338
611.87	9.62785
613.603	10.4012
615.334	11.5255
617.067	11.594
618.799	12.5986
620.529	13.0502
622.26	13.4686
623.991	13.3677
625.72	13.7488
627.451	13.8009
629.181	13.8659
630.909	13.6095
632.638	13.4176
634.368	13.7271
636.095	13.5472
637.823	14.6535
639.551	13.6635
641.277	13.0476
643.005	12.5939
644.73	13.2776
646.457	13.2245
648.184	13.8013
649.908	13.9806
651.634	14.2256
653.357	15.0003
655.083	15.2203
656.806	15.6105
658.53	16.4429
660.253	17.4009
661.977	16.9193
663.7	16.3324
665.422	14.5042
667.145	14.3619
668.865	14.1815
670.588	13.9914
672.308	13.8468
674.027	13.5449
675.749	14.8217
677.468	16.7047
679.188	18.355
680.907	19.4976
682.627	20.1274
684.345	20.5537
686.064	21.6129
687.781	21.9004
689.498	23.3185
691.216	23.4877
692.932	23.6106
694.65	23.6747
696.366	24.0919
698.081	27.0129
699.797	27.8477
701.512	29.0139
703.228	29.3885
704.942	30.869
706.655	30.9065
708.371	31.7312
710.083	32.3194
711.796	33.8912
713.51	34.5648
715.222	35.2094
716.934	34.9848
718.645	35.6499
720.358	35.1065
722.068	35.3221
723.779	36.2073
725.49	35.1565
727.2	34.8054
728.909	35.3808
730.618	35.8456
732.329	37.3802
734.037	39.4193
735.745	41.4381
737.453	43.607
739.16	46.6051
740.869	49.3149
742.576	52.8263
744.282	54.4377
745.988	55.2728
747.694	57.4576
749.401	59.5942
751.107	63.2328
752.811	66.851
754.516	69.6541
756.22	72.7857
757.924	75.488
759.627	77.8068
761.332	80.7171
763.035	82.8054
764.738	84.6733
766.44	86.8393
768.142	89.0215
769.843	91.2945
771.544	93.3208
773.245	94.1797
774.946	95.2573
776.646	96.5033
778.346	97.5473
780.046	98.1191
781.745	99.2662
783.444	100.713
785.143	100.632
786.841	100.397
788.539	100.478
790.237	100.075
791.934	98.3667
793.631	97.5273
795.328	96.2378
797.024	94.6505
798.72	93.9711
800.416	92.1418
802.112	88.6098
803.807	86.6689
805.502	84.7496
807.196	83.4841
808.89	80.6706
810.584	77.7592
812.278	76.3864
813.971	75.8887
815.664	75.3327
817.354	76.4703
819.047	76.2128
820.739	76.2314
822.43	75.5894
824.122	76.5458
825.813	75.6241
827.503	74.7938
829.192	74.0246
830.882	73.4443
832.571	74.4697
834.261	73.052
835.95	73.8612
837.637	72.1887
839.325	72.4234
841.013	72.6101
842.701	70.8252
844.389	70.9375
846.074	70.6144
847.761	71.0988
849.447	70.1311
851.131	70.081
852.817	70.5684
854.503	70.7641
856.188	69.7578
857.871	69.4666
859.556	68.4106
861.24	67.7843
862.922	66.6812
864.606	66.259
866.289	66.2594
867.97	66.047
869.653	65.9143
871.336	64.8797
873.016	63.7273
874.698	62.3947
876.379	61.4518
878.058	60.7432
879.739	59.5743
881.418	58.4203
883.098	57.7413
884.778	56.754
886.456	55.4746
888.135	55.2671
889.812	54.4492
891.49	52.6553
893.167	51.0239
894.845	50.1945
896.523	50.5079
898.198	50.268
899.875	49.2442
901.55	48.9694
903.226	46.8579
904.901	46.072
906.576	46.0659
908.25	45.1668
909.925	43.5556
911.598	42.6209
913.271	42.0774
914.945	40.3297
916.617	39.9274
918.291	38.0106
919.962	37.7654
921.635	37.3525
923.306	36.9126
924.978	36.3453
926.648	34.8888
928.318	35.4163
929.989	34.3386
931.659	33.1022
933.328	33.2877
934.998	35.3495
936.666	35.5798
938.336	34.6297
940.004	33.9087
941.671	33.8002
943.34	32.5582
945.007	33.6345
946.673	33.5925
948.339	34.1113
950.007	35.2533
951.672	35.6358
953.337	35.4772
955.004	34.9396
956.669	35.7124
958.333	35.1364
959.997	35.3705
961.662	35.5492
963.326	37.1455
964.989	37.4753
966.651	38.5681
968.315	39.4539
969.977	39.8831
971.639	39.2289
973.301	39.3043
974.962	39.4835
976.624	40.4704
978.285	40.9119
979.945	40.9767
981.605	40.1185
983.264	40.3307
984.924	40.5149
986.583	40.0067
988.243	40.435
989.901	40.6199
991.56	39.8804
993.217	41.2646
994.875	41.1189
996.532	41.8752
998.188	43.5561
999.845	45.6187
1001.5	47.7033
1003.16	49.3375
1004.81	50.2167
1006.47	52.2359
1008.12	54.2182
1009.78	55.2875
1011.43	57.8371
1013.09	59.8063
1014.74	62.1452
1016.39	64.342
1018.05	65.528
1019.7	65.8231
1021.35	65.8721
1023	66.8613
1024.65	68.205
1026.31	70.1903
1027.96	71.4791
1029.61	72.109
1031.26	72.5456
1032.91	73.2879
1034.56	73.1752
1036.21	72.0681
1037.86	72.2241
1039.51	71.0199
1041.16	70.9444
1042.8	70.2874
1044.45	70.5855
1046.1	70.5646
1047.75	68.0557
1049.39	66.8942
1051.04	65.4776
1052.69	64.7331
1054.33	62.8336
1055.98	63.452
1057.62	63.4325
1059.27	62.2445
1060.91	60.6426
1062.56	59.0561
1064.2	57.7913
1065.85	56.575
1067.49	54.9691
1069.13	53.7218
1070.77	53.7038
1072.42	52.9386
1074.06	52.7582
1075.7	53.5374
1077.34	53.0789
1078.98	54.2536
1080.62	54.343
1082.27	53.9108
1083.91	54.0986
1085.55	53.3289
1087.18	53.7361
1088.82	55.7718
1090.46	55.1855
1092.1	56.0366
1093.74	57.8068
1095.38	58.2847
1097.02	57.623
1098.65	57.3864
1100.29	57.9287
1101.93	57.9837
1103.56	58.0707
1105.2	59.2503
1106.84	59.5172
1108.47	58.2165
1110.11	56.4144
1111.74	55.9925
1113.38	54.53
1115.01	53.3809
1116.64	51.8028
1118.28	49.5923
1119.91	48.2764
1121.54	46.1163
1123.18	45.3873
1124.81	41.8799
1126.44	41.4911
1128.07	39.619
1129.7	38.2924
1131.33	38.6915
1132.97	38.4805
1134.6	36.6052
1136.23	34.7553
1137.86	33.2259
1139.49	30.4864
1141.11	27.4511
1142.74	25.5051
1144.37	23.8475
1146	22.1202
1147.63	20.2951
1149.26	18.2329
1150.88	16.5637
1152.51	14.4928
1154.14	12.252
1155.76	11.391
1157.39	9.94509
1159.01	8.12716
1160.64	6.87314
1162.27	5.64552
1163.89	5.20755
1165.51	5.15664
1167.14	5.07952
1168.76	5.27917
1170.39	6.49396
1172.01	7.71597
1173.63	8.23334
1175.25	7.9863
1176.88	6.43966
1178.5	5.82997
1180.12	6.59318
1181.74	7.5871
1183.36	8.20347
1184.98	8.42326
1186.6	8.65499
1188.22	8.59715
1189.84	8.45912
1191.46	9.21491
1193.08	9.67965
1194.7	9.98495
1196.32	10.6831
1197.94	11.0226
1199.55	11.2513
1201.17	11.7381
1202.79	12.3604
1204.41	14.0487
1206.02	15.2892
1207.64	17.8117
1209.25	19.8548
1210.87	21.1621
1212.48	22.2899
1214.1	22.4271
1215.71	22.6528
1217.33	24.1483
1218.94	25.0108
1220.56	26.3548
1222.17	28.2373
1223.79	30.4103
1225.4	32.8654
1227.01	34.0505
1228.62	35.7203
1230.23	36.949
1231.85	38.6272
1233.46	39.8757
1235.07	42.2137
1236.68	44.6269
1238.29	47.4431
1239.9	48.8675
1241.51	50.9733
1243.12	52.2893
1244.73	54.8539
1246.34	56.3679
1247.94	57.58
1249.55	59.4627
1251.16	61.8586
1252.77	62.4517
1254.37	62.9361
1255.98	64.4399
1257.59	66.3025
1259.2	69.2284
1260.8	70.8425
1262.41	73.1012
1264.01	74.2702
1265.62	75.8555
1267.22	78.1684
1268.83	80.3259
1270.43	83.0203
1272.03	84.3923
1273.64	85.1803
1275.24	87.4142
1276.85	89.7646
1278.45	91.1262
1280.05	93.1927
1281.65	94.3075
1283.25	95.4472
1284.85	97.1077
1286.46	97.33
1288.06	99.5905
1289.66	100.496
1291.26	101.441
1292.86	102.732
1294.46	102.794
1296.06	102.663
1297.66	102.367
1299.25	101.894
1300.85	102.18
1302.45	103.172
1304.05	102.899
1305.65	102.98
1307.24	102.358
1308.84	102.308
1310.43	101.578
1312.03	101.224
1313.63	100.193
1315.22	100.158
1316.82	99.5824
1318.41	97.9972
1320.01	95.8515
1321.6	94.8243
1323.2	92.9519
1324.79	91.8779
1326.38	88.8193
1327.98	87.7096
1329.57	86.2927
1331.16	84.2885
1332.76	82.0616
1334.35	81.1332
1335.94	78.4857
1337.53	77.253
1339.12	75.5086
1340.71	73.2151
1342.3	72.1696
1343.89	69.9406
1345.48	68.4184
1347.07	67.3121
1348.66	65.064
1350.25	62.8229
1351.84	59.613
1353.43	57.5726
1355.01	56.7653
1356.6	54.8408
1358.19	51.82
1359.77	50.1552
1361.36	47.3527
1362.95	45.521
1364.53	44.479
1366.12	42.9292
1367.71	41.7729
1369.29	39.7043
1370.88	38.2499
1372.46	36.0095
1374.04	33.388
1375.63	32.0286
1377.21	30.3646
1378.8	29.8827
1380.38	29.5776
1381.96	29.2581
1383.54	28.1476
1385.13	27.16
1386.71	26.6494
1388.29	26.516
1389.87	26.0154
1391.45	24.9606
1393.03	24.5956
1394.61	24.6969
1396.19	24.605
1397.77	23.7178
1399.35	24.0543
1400.93	23.7303
1402.51	24.2566
1404.09	24.809
1405.67	26.1883
1407.24	27.9766
1408.82	29.8776
1410.4	32.8777
1411.98	35.2418
1413.55	37.9078
1415.13	38.9862
1416.71	42.245
1418.28	44.6111
1419.86	48.1902
1421.43	52.4102
1423.01	56.8455
1424.58	61.7442
1426.16	66.7309
1427.73	70.6918
1429.31	75.1677
1430.88	79.5382
1432.45	83.8473
1434.02	88.0689
1435.6	92.1227
1437.17	95.0961
1438.74	98.0172
1440.31	99.178
1441.88	101.704
1443.45	102.831
1445.03	103.508
1446.6	105.603
1448.17	106.653
1449.74	106.274
1451.3	105.91
1452.87	104.701
1454.44	105.105
1456.01	104.005
1457.58	103.825
1459.15	102.878
1460.72	100.876
1462.28	99.018
1463.85	96.6818
1465.42	95.2631
1466.98	92.3464
1468.55	89.7075
1470.12	86.053
1471.68	83.6912
1473.25	80.9403
1474.81	78.0268
1476.38	74.6527
1477.94	71.8118
1479.51	68.579
1481.07	66.732
1482.63	63.6347
1484.2	61.2291
1485.76	58.2022
1487.32	55.4411
1488.88	52.423
1490.45	48.9467
1492.01	46.053
1493.57	43.3631
1495.13	41.4403
1496.69	40.2694
1498.25	39.4895
1499.81	38.5025
1501.37	37.7096
1502.93	36.3022
1504.49	35.7439
1506.05	34.2958
1507.61	33.3708
1509.17	32.0413
1510.73	29.9555
1512.28	28.3257
1513.84	27.448
1515.4	25.407
1516.96	24.0635
1518.51	22.6507
1520.07	22.0733
1521.63	20.3029
1523.18	19.4703
1524.74	19.6647
1526.29	18.5178
1527.85	17.5023
1529.4	17.39
1530.96	17.9104
1532.51	19.0041
1534.06	19.1448
1535.62	20.3284
1537.17	21.2941
1538.72	22.0073
1540.28	24.1378
1541.83	25.5384
1543.38	27.2048
1544.93	28.4377
1546.48	30.307
1548.03	31.0894
1549.59	32.8805
1551.14	33.4808
1552.69	34.2605
1554.24	35.0321
1555.79	35.7043
1557.34	36.4694
1558.88	36.21
1560.43	34.9731
1561.98	35.1146
1563.53	35.8179
1565.08	37.5552
1566.62	39.5897
1568.17	40.9239
1569.72	42.6603
1571.27	44.4448
1572.81	46.5438
1574.36	49.1956
1575.9	51.7075
1577.45	54.878
1579	56.6569
1580.54	58.9335
1582.09	61.3245
1583.63	62.6266
1585.17	64.1536
1586.72	65.2602
1588.26	66.6493
1589.8	68.8747
1591.35	70.1524
1592.89	70.6193
1594.43	71.2493
1595.97	71.6019
1597.52	72.0792
1599.06	71.8515
1600.6	72.2131
1602.14	73.5327
1603.68	73.8291
1605.22	73.1069
1606.76	73.5762
1608.3	74.6179
1609.84	74.6313
1611.38	74.5858
1612.92	74.9871
1614.46	75.1009
1615.99	75.2897
1617.53	75.6727
1619.07	75.8305
1620.61	76.8507
1622.14	76.944
1623.68	77.7325
1625.22	78.281
1626.75	78.466
1628.29	79.5944
1629.82	80.8616
1631.36	82.4425
1632.9	82.9356
1634.43	83.9953
1635.96	85.5426
1637.5	88.6651
1639.03	92.7601
1640.57	96.2045
1642.1	99.0772
1643.63	101.5
1645.16	103.545
1646.7	106.403
1648.23	108.702
1649.76	111.506
1651.29	113.209
1652.82	114.318
1654.36	114.941
1655.89	115.513
1657.42	117.162
1658.95	117.539
1660.48	117.799
1662.01	117.418
1663.53	116.793
1665.06	115.734
1666.59	113.958
1668.12	111.897
1669.65	109.883
1671.18	107.369
1672.7	105.039
1674.23	102.614
1675.76	99.4279
1677.29	96.2287
1678.81	93.4344
1680.34	89.0343
1681.86	85.0038
1683.39	80.983
1684.91	77.1542
1686.44	72.6416
1687.96	68.2925
1689.49	64.6121
1691.01	61.4485
1692.54	57.5739
1694.06	54.4556
1695.58	51.4402
1697.11	48.2109
1698.63	44.7838
1700.15	42.6644
1701.67	39.5495
1703.2	36.9139
1704.72	35.6198
1706.24	33.5062
1707.76	31.9531
1709.28	29.6201
1710.8	28.3255
1712.32	26.414
1713.84	24.6309
1715.36	23.1515
1716.88	21.4951
1718.4	20.5867
1719.91	19.6876
1721.43	18.6123
1722.95	17.8618
1724.47	17.0806
1725.99	15.9221
1727.5	15.0827
1729.02	13.9084
1730.54	14.269
1732.05	14.5801
1733.57	14.1698
1735.09	13.1559
1736.6	12.7235
1738.12	11.7311
1739.63	11.1402
1741.15	10.9399
1742.66	10.38
1744.18	10.0938
1745.69	9.08135
1747.2	8.71515
1748.72	8.43166
1750.23	8.10208
1751.74	7.04735
1753.25	5.89682
1754.77	5.37548
1756.28	4.00543
1757.79	3.87037
1759.3	3.15012
1760.81	3.40423
1762.32	3.082
1763.83	3.13287
1765.34	3.65463
1766.85	3.42497
1768.36	2.79393
1769.87	3.16698
1771.38	3.80526
1772.89	4.68102
1774.4	4.91228
1775.91	4.89221
1777.41	4.35558
1778.92	4.95142
1780.43	5.21112
1781.94	4.82942
1783.44	4.29291
1784.95	3.64755
1786.45	3.46814
1787.96	3.30258
1789.47	3.72387
1790.97	4.15028
1792.48	4.74839
1793.98	5.03341
1795.48	4.89902
1796.99	4.42731
1798.49	4.31229
1800	4.77931
1801.5	4.73564
1803	5.38136
1804.51	4.93891
1806.01	5.08266
1807.51	5.1187
1809.01	5.30838
1810.51	5.47551
1812.02	5.77316
1813.52	5.83208
1815.02	6.28856
1816.52	6.61959
1818.02	6.11653
1819.52	5.75694
1821.02	5.53181
1822.52	5.12209
1824.02	4.45653
1825.51	4.15681
1827.01	4.10427
1828.51	4.22186
1830.01	4.52556
1831.51	4.56851
1833	4.95885
1834.5	5.23031
1836	5.5716
1837.5	5.85859
1838.99	6.26413
1840.49	6.20128
1841.98	5.79081
1843.48	6.18348
1844.97	6.19939
1846.47	6.34184
1847.96	6.39414
1849.46	5.97242
1850.95	6.01089
1852.45	5.7396
1853.94	5.12072
1855.43	4.82825
1856.92	4.85281
1858.42	4.68235
1859.91	4.57595
1861.4	4.1696
1862.89	3.68693
1864.39	3.47166
1865.88	3.35738
1867.37	3.05666
1868.86	3.0988
1870.35	2.70065
1871.84	3.05252
1873.33	3.46305
1874.82	3.5578
1876.31	3.54065
1877.8	3.41792
1879.29	3.37889
1880.77	3.95365
1882.26	4.48808
1882.51	5.08347
1884	5.74045
1885.5	5.49451
1886.99	5.78051
1888.48	5.89496
1889.98	5.81559
1891.47	5.85912
1892.97	5.76482
1894.46	5.72295
1895.95	6.16424
1897.44	6.59699
1898.93	6.66618
1900.42	5.98349
1901.92	5.92682
1903.41	6.24882
1904.9	6.40422
1906.39	6.92678
1907.88	7.61575
1909.37	7.67188
1910.86	7.46714
1912.35	7.98559
1913.84	7.78043
1915.32	7.46512
1916.81	7.1288
1918.3	6.59196
1919.79	6.59075
1921.28	6.57168
1922.76	5.84922
1924.25	5.07887
1925.74	4.2185
1927.22	4.03074
1928.71	3.96519
1930.2	3.50571
1931.68	2.49112
1933.17	1.8176
1934.65	1.5055
1936.14	1.37642
1937.62	1.39075
1939.11	0.939749
1940.59	0.637818
1942.08	0.687075
1943.56	0.161661
1945.04	0.333935
1946.53	-0.178703
1948.01	-0.198099
1949.49	0.174326
1950.97	0.160014
1952.45	0.640469
1953.94	1.44547
1955.42	2.12504
1956.9	2.41403
1958.38	2.39584
1959.86	1.95476
1961.34	2.7492
1962.82	2.68747
1964.3	3.0039
1965.78	3.51836
1967.26	3.69289
1968.74	4.05437
1970.22	4.34925
1971.69	4.37443
1973.17	4.43103
1974.65	5.19433
1976.13	6.53678
1977.61	7.59277
1979.08	7.8102
1980.56	8.07522
1982.03	8.39052
1983.51	7.79832
1984.99	7.95294
1986.46	8.61506
1987.94	8.65181
1989.41	8.91643
1990.89	8.71666
1992.36	8.62298
1993.84	8.59107
1995.31	8.37027
1996.78	8.55405
1998.26	8.02534
1999.73	8.22034
2001.2	8.14415
2002.68	7.97648
2004.15	7.55625
2005.62	7.62632
2007.09	7.0109
2008.56	6.86259
2010.04	6.51025
2011.51	6.6353
2012.98	6.47316
2014.45	6.56383
2015.92	6.64201
2017.39	6.39167
2018.86	6.65657
2020.33	7.04899
2021.8	7.23772
2023.27	7.73634
2024.74	8.34515
2026.2	8.77896
2027.67	8.99667
2029.14	8.54404
2030.61	8.68008
2032.07	8.63542
2033.54	8.8268
2035.01	10.2589
2036.47	10.6685
2037.94	11.5015
2039.41	12.7908
2040.87	13.3831
2042.34	14.772
2043.8	15.6934
2045.27	16.805
2046.73	17.5335
2048.2	18.9958
2049.66	19.8092
2051.12	20.8109
2052.59	21.4797
2054.05	22.7739
2055.51	23.965
2056.98	24.6124
2058.44	26.2451
2059.9	27.6462
2061.36	28.6603
2062.82	29.5774
2064.29	29.9011
2065.75	31.3875
2067.21	32.478
2068.67	33.1327
2070.13	34.1292
2071.59	34.8388
2073.05	36.7239
2074.51	37.4591
2075.97	38.8244
2077.43	40.0689
2078.88	41.3721
2080.34	42.2675
2081.8	44.1713
2083.26	46.4416
2084.72	48.2365
2086.17	50.4342
2087.63	52.2267
2089.09	54.4928
2090.54	56.5503
2092	59.067
2093.46	61.4636
2094.91	63.4467
2096.37	66.2001
2097.82	69.1478
2099.28	71.0698
2100.73	73.3658
2102.19	76.7432
2103.64	80.162
2105.09	82.7375
2106.55	86.6281
2108	90.2236
2109.46	92.7167
2110.91	96.5358
2112.36	100.674
2113.81	104.08
2115.27	107.82
2116.72	110.779
2118.17	114.371
2119.62	117.807
2121.07	121.445
2122.52	124.708
2123.97	128.403
2125.42	131.997
2126.87	136.177
2128.32	140
2129.77	144.32
2131.22	148.905
2132.67	152.7
2134.12	156.736
2135.57	160.632
2137.01	163.817
2138.46	168.147
2139.91	170.638
2141.36	173.923
2142.8	177.874
2144.25	181.409
2145.7	184.36
2147.14	187.287
2148.59	190.557
2150.03	193.368
2151.48	196.326
2152.92	198.955
2154.37	201.737
2155.81	204.54
2157.26	206.187
2158.7	208.07
2160.15	208.798
2161.59	210.004
2163.03	211.409
2164.48	212.315
2165.92	212.276
2167.36	212.631
2168.8	211.994
2170.25	211.341
2171.69	209.56
2173.13	208.298
2174.57	206.846
2176.01	204.785
2177.45	202.801
2178.89	200.803
2180.33	197.982
2181.77	195.652
2183.21	193.152
2184.65	189.947
2186.09	186.895
2187.53	183.395
2188.97	179.936
2190.41	176.544
2191.84	172.559
2193.28	169.321
2194.72	166.457
2196.16	163.498
2197.59	160.34
2199.03	157.862
2200.47	154.626
2201.9	151.656
2203.34	147.811
2204.78	144.555
2206.21	141.303
2207.65	138.133
2209.08	135.025
2210.51	131.911
2211.95	127.9
2213.38	125.63
2214.82	122.435
2216.25	118.845
2217.68	115.468
2219.12	113.076
2220.55	110.36
2221.98	107.55
2223.42	105.007
2224.85	101.918
2226.28	98.9373
2227.71	96.1682
2229.14	93.2048
2230.57	91.0712
2232	88.2177
2233.43	85.6123
2234.86	82.7793
2236.29	79.1958
2237.72	75.8171
2239.15	73.2168
2240.58	69.4473
2242.01	66.5979
2243.44	63.5037
2244.87	61.2744
2246.3	59.0838
2247.73	57.0747
2249.15	54.2397
2250.58	51.6798
2252.01	49.5344
2253.43	47.8995
2254.86	45.5304
2256.29	43.9685
2257.71	42.4511
2259.14	40.7464
2260.56	39.1491
2261.99	37.279
2263.41	36.2107
2264.84	35.4018
2266.26	35.0651
2267.69	33.5889
2269.11	32.5109
2270.54	31.6709
2271.96	30.5003
2273.38	29.7397
2274.81	28.6909
2276.23	28.4231
2277.65	27.8915
2279.07	27.5741
2280.49	27.0468
2281.92	25.9262
2283.34	24.8714
2284.76	24.1871
2286.18	22.4476
2287.6	20.8387
2289.02	19.9458
2290.44	18.7573
2291.86	17.0536
2293.28	15.5492
2294.7	15.0236
2296.12	14.8665
2297.54	14.5383
2298.96	14.47
2300.38	14.864
2301.79	14.1901
2303.21	13.0504
2304.63	12.3912
2306.05	12.4981
2307.46	12.0292
2308.88	11.5421
2310.3	11.1514
2311.71	10.7315
2313.13	10.3294
2314.55	10.4857
2315.96	10.6961
2317.38	10.2526
2318.79	10.4865
2320.21	9.70983
2321.62	9.99134
2323.03	10.1837
2324.45	10.1273
2325.86	10.1174
2327.27	10.3346
2328.69	9.47989
2330.1	9.06698
2331.51	8.7362
2332.93	8.76522
2334.34	9.48626
2335.75	9.02634
2337.16	9.11359
2338.57	8.06844
2339.99	7.74864
2341.4	7.4714
2342.81	6.97758
2344.22	6.8189
2345.63	7.07623
2347.04	6.55778
2348.45	6.2825
2349.86	5.39455
2351.26	4.47696
2352.67	3.15132
2354.08	2.22808
2355.49	1.71896
2356.9	1.17952
2358.31	0.495084
2359.71	0.518606
2361.12	0.447976
2362.53	0.589644
2363.94	1.19304
2365.34	1.96826
2366.75	1.41425
2368.15	1.29812
2369.56	1.40422
2370.97	1.61847
2372.37	0.479537
2373.78	0.94228
2375.18	1.30237
2376.59	1.44359
2377.99	1.28752
2379.39	1.76093
2380.8	2.20767
2382.2	2.02928
2383.61	2.30266
2385.01	3.08031
2386.41	3.36284
2387.81	3.17187
2389.22	3.52329
2390.62	3.38842
2392.02	4.02402
2393.42	3.98771
2394.82	4.32141
2396.22	4.20794
2397.63	3.95469
2399.02	4.05346
2400.43	4.86717
2401.82	5.07747
2403.23	5.22634
2404.62	5.16105
2406.02	4.96751
2407.42	5.14158
2408.82	4.873
2410.22	4.95513
2411.62	5.28819
2413.02	4.60354
2414.41	5.16599
2415.81	5.4102
2417.21	4.92342
2418.61	5.30231
2420	5.21892
2421.4	5.20536
2422.79	5.25813
2424.19	5.53711
2425.59	5.84523
2426.98	5.63196
2428.38	5.54202
2429.77	5.43551
2431.17	5.32394
2432.56	4.70977
2433.96	4.60421
2435.35	4.32699
2436.74	4.6595
2438.14	5.61807
2439.53	5.56862
2440.92	5.38481
2442.32	5.04253
2443.71	5.02907
2445.1	4.76533
2446.49	4.87764
2447.88	5.33259
2449.28	5.72052
2450.67	5.45623
2452.06	5.95422
2453.45	6.44428
2454.84	6.25784
2456.23	5.66941
2457.62	5.64782
2459.01	5.86906
2460.4	5.75395
2461.79	5.64668
2463.18	5.66929
2464.57	5.9056
2465.96	5.56378
2467.34	5.8807
2468.73	6.374
2470.12	6.49074
2471.51	6.10556
2472.89	6.21712
2474.28	6.10361
2475.67	5.76458
2477.05	5.63242
2478.44	5.26318
2479.83	5.15645
2481.21	4.72998
2482.6	4.26657
2483.98	4.40191
2485.37	4.12981
2486.75	4.01762
2488.14	3.78803
2489.52	3.75367
2490.9	3.51144
2492.29	3.37232
2493.67	3.22371
2495.06	3.07493
2496.44	2.95206
2497.82	3.3708
2499.2	2.7394
2500.59	2.21854
2501.97	1.62643
2503.35	1.64879
2504.73	0.822606
2506.11	0.66179
2507.49	0.0560228
2508.88	-0.918924
2510.26	-1.17731
2511.63	-1.78072
2513.01	-1.95742
2514.39	-1.61984
2515.77	-0.803542
2517.15	-0.581198
2518.53	-0.540409
2519.91	-1.17792
2521.29	-1.34427
2522.67	-1.9648
2524.05	-2.33159
2525.42	-1.94103
2526.8	-1.9324
2528.18	-1.52383
2529.56	-1.2425
2530.93	-0.896681
2532.31	-0.804717
2533.69	-0.728026
2535.06	-0.240343
2536.44	0.682213
2537.81	1.22236
2539.19	1.36132
2540.56	1.21936
2541.94	1.74008
2543.31	1.84573
2544.69	2.03576
2546.06	3.03004
2547.44	3.42217
2548.81	4.10864
2550.18	4.46208
2551.56	4.79556
2552.93	5.3607
2554.3	6.16529
2555.68	6.93564
2557.05	6.72305
2558.42	7.50837
2559.79	7.7539
2561.16	8.15233
2562.53	8.46204
2563.9	8.96537
2565.28	9.22444
2566.64	9.08308
2568.02	8.21046
2569.38	8.32854
2570.76	8.38378
2572.12	8.47168
2573.49	8.28665
2574.86	8.26581
2576.23	8.46616
2577.6	8.32112
2578.97	8.29307
2580.34	7.82244
2581.7	7.54102
2583.07	7.7029
2584.44	7.60966
2585.81	7.26745
2587.17	6.52487
2588.54	6.08915
2589.91	6.1275
2591.27	6.22373
2592.64	6.3543
2594	6.7534
2595.37	5.88683
2596.73	5.81792
2598.1	4.8785
2599.46	4.97053
2600.83	4.6485
2602.19	4.77469
2603.55	4.85281
2604.92	4.72619
2606.28	4.76774
2607.64	4.7129
2609.01	4.80738
2610.37	5.03569
2611.73	4.95615
2613.09	4.98877
2614.46	5.26421
2615.82	5.21128
2617.18	5.35383
2618.54	4.64203
2619.9	4.87652
2621.26	5.17715
2622.62	5.30705
2623.98	5.50172
2625.34	4.89358
2626.7	5.37633
2628.06	5.00818
2629.42	4.95103
2630.78	5.04048
2632.14	4.90066
2633.5	4.68504
2634.86	4.11074
2636.22	3.76689
2637.57	4.45369
2638.93	4.38725
2640.29	3.99138
2641.64	3.83886
2643	3.61928
2644.36	3.89898
2645.72	3.79235
2647.07	3.59299
2648.43	4.00412
2649.78	4.46653
2651.14	5.02908
2652.49	4.57063
2653.85	4.98059
2655.2	5.08789
2656.56	4.33302
2657.91	4.50729
2659.27	4.66822
2660.62	5.10362
2661.97	5.1167
2663.33	4.94292
2664.68	5.64003
2666.03	5.78159
2667.38	6.22454
2668.74	6.25455
2670.09	7.73361
2671.44	8.1639
2672.79	8.51691
2674.14	8.87863
2675.49	8.57327
2676.84	9.18854
2678.2	9.44084
2679.55	9.35718
2680.89	9.35899
2682.24	9.87122
2683.59	10.028
2684.94	10.1629
2686.29	10.0768
2687.64	10.6808
2688.99	10.7309
2690.34	10.8123
2691.69	11.0549
2693.04	10.6679
2694.38	10.6632
2695.73	10.5234
2697.08	10.5988
2698.43	10.6668
2699.77	10.3865
2701.12	10.5583
2702.46	10.6871
2703.81	11.2487
2705.16	12.036
2706.5	11.7754
2707.85	11.2841
2709.19	11.5774
2710.54	11.718
2711.88	11.7859
2713.23	12.014
2714.57	12.1288
2715.92	12.6118
2717.26	12.3048
2718.6	12.2475
2719.95	12.0614
2721.29	12.446
2722.63	12.3527
2723.97	11.4046
2725.32	12.7455
2726.66	12.796
2728	12.9718
2729.34	12.7779
2730.68	12.3658
2732.02	12.3725
2733.36	11.5978
2734.7	11.3883
2736.04	11.5541
2737.39	10.9558
2738.72	9.99678
2740.06	9.38589
2741.4	9.05001
2742.74	8.83673
2744.08	8.23399
2745.42	7.46211
2746.76	6.7164
2748.1	6.2547
2749.44	6.11584
2750.77	5.98186
2752.11	5.44079
2753.45	4.93058
2754.78	4.32204
2756.12	3.91093
2757.46	3.63819
2758.79	3.37552
2760.13	2.14734
2761.47	1.99486
2762.8	1.59058
2764.14	1.48154
2765.47	1.21994
2766.81	0.901871
2768.14	0.873119
2769.48	0.247052
2770.81	0.0800077
2772.14	-0.389832
2773.48	-1.0708
2774.81	-1.07139
2776.14	-0.653349
2777.48	-0.289795
2778.81	-0.0639563
2780.14	0.176565
2781.47	0.0368256
2782.81	-0.243916
2784.14	-0.465447
2785.47	-0.429516
2786.8	-0.700995
2788.13	-0.587135
2789.46	-0.270913
2790.79	0.0436252
2792.12	0.398913
2793.46	-0.271911
2794.79	-0.161139
2796.11	-0.294963
2797.44	-0.66417
2798.77	-0.615924
2800.1	-1.22379
2801.43	-0.762539
2802.76	-1.1155
2804.09	-1.24334
2805.42	-0.931049
2806.74	-1.62458
2808.07	-1.33484
2809.4	-2.07564
2810.73	-2.14787
2812.05	-1.96838
2813.38	-2.00581
2814.71	-1.13564
2816.03	0.175889
2817.36	1.49008
2818.68	3.33799
2820.01	5.97944
2821.33	8.88744
2822.66	12.8161
2823.98	17.1533
2825.31	20.9792
2826.63	25.056
2827.96	29.7006
2829.28	34.6978
2830.61	39.8594
2831.93	45.2954
2833.25	51.0438
2834.57	57.069
2835.9	63.1918
2837.22	69.118
2838.54	75.081
2839.86	81.5211
2841.18	87.9983
2842.51	94.3768
2843.83	100.95
2845.15	107.584
2846.47	114.479
2847.79	121.922
2849.11	129.106
2850.43	136.578
2851.75	143.604
2853.07	151.529
2854.39	158.75
2855.71	165.579
2857.03	171.728
2858.35	177.539
2859.67	183.626
2860.98	189.721
2862.3	195.157
2863.62	200.033
2864.94	204.665
2866.25	209.697
2867.57	213.106
2868.89	216.479
2870.21	219.61
2871.52	222.022
2872.84	224.313
2874.15	226.785
2875.47	228.819
2876.78	231.741
2878.1	234.437
2879.42	237.141
2880.73	240.791
2882.04	243.983
2883.36	247.46
2884.67	251.47
2885.99	254.921
2887.3	258.546
2888.61	262.723
2889.93	265.748
2891.24	268.977
2892.55	272.057
2893.87	275.92
2895.18	279.971
2896.49	284.024
2897.8	288.222
2899.11	292.597
2900.42	297.713
2901.74	302.935
2903.05	307.97
2904.36	314.268
2905.67	320.605
2906.98	327.199
2908.29	334.453
2909.6	341.87
2910.91	349.58
2912.22	357.683
2913.53	365.564
2914.83	373.053
2916.14	379.882
2917.45	386.75
2918.76	393.164
2920.07	398.154
2921.37	403.014
2922.68	407.553
2923.99	412.316
2925.3	416.223
2926.6	419.284
2927.91	420.692
2929.22	422.119
2930.52	422.001
2931.83	421.673
2933.13	419.616
2934.44	418.774
2935.74	415.65
2937.05	412.031
2938.35	408.001
2939.66	403.723
2940.96	399.091
2942.27	392.779
2943.57	386.539
2944.87	378.991
2946.18	371.757
2947.48	364.245
2948.78	355.591
2950.09	346.919
2951.39	338.196
2952.69	328.764
2953.99	319.499
2955.29	309.544
2956.6	299.911
2957.9	289.73
2959.2	280.694
2960.5	270.939
2961.8	261.781
2963.1	252.585
2964.4	243.819
2965.7	235.297
2967	226.746
2968.3	218.212
2969.6	210.416
2970.9	202.815
2972.2	195.798
2973.49	188.633
2974.79	181.424
2976.09	174.271
2977.39	167.297
2978.69	160.135
2979.98	152.993
2981.28	145.403
2982.58	138.664
2983.88	131.164
2985.17	124.984
2986.47	118.478
2987.76	112.356
2989.06	106.289
2990.36	100.124
2991.65	93.6482
2992.95	87.3434
2994.24	82.3755
2995.54	76.6828
2996.83	71.9036
2998.12	66.4622
2999.42	61.7966
3000.71	56.6363
3002	51.9397
3003.3	47.9169
3004.59	43.7896
3005.88	39.4962
3007.18	35.2343
3008.47	32.1649
3009.76	28.6951
3011.05	25.7398
3012.35	22.965
3013.64	19.3887
3014.93	17.0658
3016.22	14.7639
3017.51	12.33
3018.8	10.8316
3020.09	8.87451
3021.38	7.21407
3022.67	5.9851
3023.96	5.44632
3025.25	4.20884
3026.54	3.49559
3027.83	2.99574
3029.12	2.21567
3030.41	1.95959
3031.69	2.02267
3032.98	2.00755
3034.27	2.7599
3035.56	3.30057
3036.85	3.45991
3038.13	3.89391
3039.42	4.81512
3040.71	5.84736
3041.99	7.54293
3043.28	8.91447
3044.57	9.70902
3045.85	10.904
3047.14	11.5807
3048.42	12.4532
3049.71	13.7245
3050.99	14.0311
3052.28	14.8509
3053.56	15.7497
3054.85	16.7433
3056.13	17.2357
3057.42	17.6065
3058.7	18.1582
3059.98	17.8089
3061.27	17.2216
3062.55	16.7311
3063.83	16.9199
3065.11	16.7473
3066.4	16.0534
3067.68	15.0778
3068.96	14.3626
3070.24	13.4717
3071.52	12.5625
3072.8	11.6858
3074.09	10.7894
3075.37	9.77458
3076.65	8.68296
3077.93	7.58325
3079.21	7.11818
3080.49	6.29148
3081.77	5.21262
3083.05	4.40269
3084.32	2.71234
3085.61	1.9319
3086.88	1.2317
3088.16	0.132436
3089.44	-0.961782
3090.72	-1.3157
3092	-2.01463
3093.27	-2.49375
3094.55	-2.35463
3095.83	-2.34783
3097.11	-1.69502
3098.38	-1.01825
3099.66	-0.949574
3100.94	-0.755081
3102.21	0.359781
3103.49	1.02584
3104.76	1.75183
3106.04	2.43429
3107.31	2.5153
3108.59	3.09964
3109.86	4.02734
3111.14	4.80496
3112.41	5.94292
3113.69	6.78519
3114.96	7.49043
3116.23	8.475
3117.51	9.52339
3118.78	10.4625
3120.05	11.2057
3121.33	11.9955
3122.6	13.1395
3123.87	13.8817
3125.14	15.0827
3126.42	16.3053
3127.69	17.5625
3128.96	18.6721
3130.23	19.4936
3131.5	20.551
3132.77	22.1898
3134.04	23.1521
3135.31	24.6074
3136.58	26.0431
3137.85	27.1497
3139.12	28.0016
3140.39	28.8769
3141.66	29.8985
3142.93	30.9868
3144.2	32.1576
3145.47	33.5939
3146.74	34.8709
3148	36.8587
3149.27	37.3514
