#Acq. time (s)=	45
#Accumulations=	2
#Range (cm-¹)=	200...3150
#Windows=	2
#Auto scanning=	Off
#Autofocus=	Off
#Macrospot=	Off
#AutoExposure=	Off
#Spike filter=	Multiple accum.
#Delay time (s)=	0
#Binning=	1
#Readout mode=	Signal
#DeNoise=	Off
#ICS correction=	On
#Dark correction=	Off
#Inst. Process=	Off
#Detector Gain=	Best Dynamic Range
#Detector ADC=	20 kHz       
#Detector temperature (°C)=	-69.85
#Instrument=	LabRAM HR Evol
#Detector=	Synapse
#Objective=	x100
#Grating=	600 gr/mm
#ND Filter=	100%
#Laser (nm)=	532 
#Hole=	100.021
#Range=	Auto
#Laser Pol.=	No
#Raman. Pol.=	No
#Laser Pol. (°)=	-0.0007625
#Raman Pol. (°)=	89.9995
#Collection=	Microscope
#StageXY=	Marzhauser
#StageZ=	Marzhauser
#X (µm)=	19380.5
#Y (µm)=	3001.8
#Z (µm)=	1048.25
#Full time(mm:ss)=	3:09
#Project=	
#Sample=	
#Site=	
#Title=	Mb_50_18_01_2x_45s_532 nm_x100_100%_600 gr_mm
#Remark=	
#Date=	12.07.2022 10:17
#Acquired=	12.07.2022 10:17:57
#Base:Fit=	10.08.2022 10:49:18
#Base:Sub=	10.08.2022 10:49:30
#Filter:Polynom=	16.08.2022 10:14:59
#AxisType[0]=Intens
#AxisUnit[0]=Cnt
#AxisType[1]=Spectr
#AxisUnit[1]=1/cm
200.388	14.1453
202.204	18.8303
204.019	22.4177
205.832	24.2848
207.646	26.2246
209.459	27.6095
211.274	28.5345
213.087	28.4661
214.899	28.2842
216.711	27.946
218.524	26.9264
220.335	27.3381
222.146	26.4026
223.956	24.6609
225.766	21.5858
227.576	20.4444
229.388	19.5696
231.197	18.5796
233.005	17.6295
234.813	17.7599
236.621	15.4539
238.429	12.7113
240.236	12.2353
242.045	12.03
243.852	11.8719
245.658	10.8839
247.464	9.38576
249.269	6.94928
251.074	4.2157
252.879	3.83869
254.683	2.80459
256.487	2.407
258.291	2.33785
260.094	1.45079
261.897	1.31601
263.702	0.690263
265.504	0.234447
267.306	-0.61239
269.108	-0.593139
270.909	-0.367562
272.71	-0.137168
274.511	0.939287
276.311	0.604968
278.111	-0.177098
279.91	-0.0803732
281.709	-0.633198
283.508	-0.200272
285.306	0.0626401
287.105	1.52731
288.9	1.56831
290.698	2.27274
292.495	3.35858
294.291	4.23147
296.088	5.81426
297.884	6.35468
299.679	7.5783
301.475	7.01634
303.27	7.80979
305.064	9.24388
306.858	9.69045
308.652	10.1499
310.444	10.834
312.237	9.90328
314.03	10.0414
315.822	10.1682
317.615	12.054
319.406	11.7789
321.198	12.2237
322.987	12.484
324.778	12.6299
326.568	11.296
328.358	10.7297
330.148	11.9603
331.935	11.2212
333.724	10.3855
335.513	8.56715
337.301	7.04625
339.089	4.96414
340.875	4.38842
342.662	4.67065
344.449	4.60482
346.236	5.41526
348.02	6.71509
349.806	8.77654
351.592	11.0228
353.375	13.2077
355.16	14.6205
356.944	17.1145
358.728	19.9138
360.51	23.0707
362.294	25.2445
364.077	28.8161
365.858	31.9867
367.64	34.9753
369.422	37.7822
371.202	41.1358
372.983	43.4998
374.764	46.1819
376.543	47.5929
378.324	49.0823
380.102	51.9388
381.881	53.0778
383.661	54.0359
385.438	55.3975
387.216	54.895
388.993	54.5182
390.771	54.5246
392.548	54.4015
394.324	53.3813
396.101	51.5685
397.875	49.5398
399.651	47.6513
401.425	45.4882
403.201	43.0239
404.974	40.9603
406.749	38.2466
408.524	35.5803
410.296	32.937
412.07	30.1223
413.841	26.1849
415.614	22.1437
417.385	18.2974
419.156	16.2092
420.928	12.5721
422.698	8.48835
424.469	4.16327
426.238	2.18092
428.009	0.311193
429.777	-0.365544
431.548	-0.925231
433.315	-0.704348
435.083	-0.780062
436.852	-0.430704
438.618	-0.590886
440.387	0.147546
442.153	0.80488
443.919	1.49434
445.686	3.05715
447.451	3.67976
449.218	4.11436
450.982	4.77937
452.746	6.19868
454.512	6.33788
456.275	5.74138
458.038	5.99009
459.803	6.38441
461.565	6.66015
463.327	7.36466
465.091	7.29988
466.852	8.0031
468.613	8.7195
470.374	8.21089
472.136	8.81958
473.896	8.9298
475.655	9.02499
477.415	10.6276
479.176	12.6956
480.934	14.2328
482.692	16.2858
484.45	19.202
486.21	21.2914
487.967	25.3398
489.724	28.3052
491.481	32.1742
493.237	36.9448
494.995	40.5985
496.75	45.2123
498.506	47.7551
500.26	52.1986
502.015	54.499
503.771	57.4003
505.525	60.807
507.279	63.2854
509.032	64.2555
510.785	65.2237
512.537	67.6634
514.289	69.7575
516.041	69.8944
517.793	70.962
519.546	71.8981
521.297	72.449
523.047	72.1257
524.797	71.3728
526.547	71.5902
528.297	70.9924
530.046	69.8573
531.795	68.0227
533.543	65.2264
535.291	62.2364
537.039	59.1967
538.787	57.0163
540.534	52.9756
542.281	48.4514
544.027	44.2199
545.773	41.45
547.519	36.8554
549.264	32.9193
551.01	27.3473
552.754	23.8876
554.499	21.165
556.243	18.2517
557.987	15.0655
559.73	11.6474
561.474	9.4687
563.216	7.70648
564.959	6.06036
566.701	5.22875
568.441	4.31177
570.182	3.85143
571.923	5.51929
573.664	5.11869
575.405	6.69421
577.145	7.35178
578.885	8.53595
580.624	9.60575
582.361	10.2545
584.1	9.86379
585.839	10.3231
587.577	11.8305
589.315	11.3609
591.052	11.3268
592.787	12.6806
594.524	12.5173
596.26	13.3664
597.997	13.9372
599.732	15.2244
601.466	15.7446
603.201	17.1243
604.936	17.7364
606.67	17.8999
608.403	18.6423
610.136	18.2716
611.87	17.215
613.603	17.8803
615.334	16.7423
617.067	16.0662
618.799	15.8768
620.529	14.4707
622.26	14.7081
623.991	13.9771
625.72	13.137
627.451	10.4768
629.181	9.90561
630.909	9.69428
632.638	9.06235
634.368	7.21603
636.095	5.86577
637.823	5.42117
639.551	6.60403
641.277	6.0416
643.005	4.40271
644.73	3.06031
646.457	2.81738
648.184	4.09014
649.908	4.47757
651.634	5.44041
653.357	5.72418
655.083	6.26419
656.806	6.805
658.53	7.78127
660.253	8.0236
661.977	7.88566
663.7	7.8286
665.422	7.67057
667.145	7.98881
668.865	7.90023
670.588	8.71923
672.308	10.2552
674.027	10.8309
675.749	11.5107
677.468	13.0895
679.188	15.0465
680.907	15.2601
682.627	16.88
684.345	17.7039
686.064	19.1052
687.781	20.7324
689.498	21.3529
691.216	22.2312
692.932	22.9565
694.65	24.6359
696.366	24.4131
698.081	24.4425
699.797	25.8974
701.512	26.3223
703.228	27.0696
704.942	28.5581
706.655	28.6402
708.371	29.8956
710.083	28.9811
711.796	28.6882
713.51	28.9168
715.222	29.7041
716.934	29.9827
718.645	29.8404
720.358	30.0326
722.068	29.7318
723.779	30.2512
725.49	30.2244
727.2	30.2662
728.909	31.1741
730.618	33.1783
732.329	34.5524
734.037	37.0629
735.745	40.0069
737.453	43.9133
739.16	47.8115
740.869	52.8584
742.576	57.6782
744.282	63.2741
745.988	69.5722
747.694	73.4485
749.401	79.4731
751.107	84.1693
752.811	90.681
754.516	95.5803
756.22	101.29
757.924	106.354
759.627	110.75
761.332	114.378
763.035	118.128
764.738	122.15
766.44	124.922
768.142	127.421
769.843	127.895
771.544	129.925
773.245	131.594
774.946	131.172
776.646	131.87
778.346	129.791
780.046	129.251
781.745	128.217
783.444	126.072
785.143	124.886
786.841	121.855
788.539	119.185
790.237	116.255
791.934	112.234
793.631	107.245
795.328	101.3
797.024	97.3681
798.72	93.0037
800.416	88.2001
802.112	83.5754
803.807	78.589
805.502	73.9249
807.196	68.9107
808.89	64.7885
810.584	61.3698
812.278	59.2655
813.971	56.9827
815.664	53.8104
817.354	52.1926
819.047	52.9329
820.739	53.0992
822.43	51.8418
824.122	51.0737
825.813	49.7882
827.503	49.4201
829.192	49.7071
830.882	49.1899
832.571	47.736
834.261	47.0451
835.95	46.2932
837.637	47.1169
839.325	44.9658
841.013	45.8898
842.701	44.711
844.389	44.0636
846.074	42.984
847.761	43.1876
849.447	42.2956
851.131	39.6748
852.817	37.9779
854.503	37.122
856.188	38.2429
857.871	37.6434
859.556	36.195
861.24	36.8924
862.922	36.2247
864.606	37.3932
866.289	37.9536
867.97	37.6784
869.653	38.6557
871.336	37.9482
873.016	36.9722
874.698	36.4383
876.379	35.9257
878.058	36.4618
879.739	38.0515
881.418	38.8606
883.098	38.4735
884.778	38.4075
886.456	39.1479
888.135	38.852
889.812	39.5146
891.49	39.2589
893.167	39.2145
894.845	39.5601
896.523	39.8256
898.198	39.3013
899.875	38.9115
901.55	38.399
903.226	38.2916
904.901	37.6023
906.576	36.1403
908.25	35.7997
909.925	35.0016
911.598	35.1158
913.271	34.4781
914.945	33.4596
916.617	32.2595
918.291	31.0909
919.962	30.1856
921.635	29.0361
923.306	27.9608
924.978	27.2258
926.648	25.0863
928.318	24.4196
929.989	22.0532
931.659	20.9337
933.328	18.2033
934.998	16.5111
936.666	15.9028
938.336	15.2736
940.004	14.6385
941.671	13.3786
943.34	12.6836
945.007	11.5942
946.673	9.84656
948.339	9.39768
950.007	7.97074
951.672	7.70487
953.337	6.10147
955.004	3.79209
956.669	3.35447
958.333	3.73661
959.997	3.18842
961.662	2.31291
963.326	1.54602
964.989	0.686529
966.651	1.44819
968.315	2.92124
969.977	2.59374
971.639	2.84472
973.301	4.66959
974.962	5.04392
976.624	6.51534
978.285	7.21761
979.945	7.04958
981.605	7.3707
983.264	7.52919
984.924	7.85802
986.583	8.8518
988.243	11.1873
989.901	12.4126
991.56	14.5146
993.217	18.0761
994.875	22.0465
996.532	24.9484
998.188	28.8055
999.845	33.3508
1001.5	37.7833
1003.16	43.1875
1004.81	48.8458
1006.47	54.2014
1008.12	59.4057
1009.78	64.5814
1011.43	70.0207
1013.09	74.1825
1014.74	79.4728
1016.39	82.7056
1018.05	87.3424
1019.7	90.3919
1021.35	93.2995
1023	96.6433
1024.65	99.2584
1026.31	100.944
1027.96	100.911
1029.61	101.859
1031.26	102.232
1032.91	101.579
1034.56	101.199
1036.21	98.7154
1037.86	97.2024
1039.51	94.8625
1041.16	92.6781
1042.8	89.3602
1044.45	86.0353
1046.1	84.2385
1047.75	81.3418
1049.39	78.4882
1051.04	74.4774
1052.69	71.056
1054.33	69.4016
1055.98	66.6616
1057.62	63.2736
1059.27	60.7546
1060.91	57.8423
1062.56	55.4163
1064.2	53.3574
1065.85	51.5937
1067.49	49.4186
1069.13	48.7049
1070.77	49.9941
1072.42	49.9255
1074.06	50.3583
1075.7	51.6307
1077.34	52.2315
1078.98	52.4075
1080.62	53.8978
1082.27	55.1756
1083.91	55.4531
1085.55	55.3814
1087.18	56.4328
1088.82	56.8883
1090.46	57.2132
1092.1	57.1081
1093.74	58.1413
1095.38	58.0325
1097.02	57.6353
1098.65	56.8921
1100.29	57.5625
1101.93	56.7227
1103.56	55.9534
1105.2	54.8903
1106.84	51.993
1108.47	49.4223
1110.11	46.987
1111.74	44.7559
1113.38	42.0006
1115.01	38.9787
1116.64	37.9136
1118.28	34.9869
1119.91	31.9496
1121.54	29.531
1123.18	27.211
1124.81	23.2822
1126.44	21.8323
1128.07	20.203
1129.7	17.8859
1131.33	17.3364
1132.97	16.4479
1134.6	16.0899
1136.23	14.9756
1137.86	14.5651
1139.49	12.9971
1141.11	12.6513
1142.74	11.6366
1144.37	10.3901
1146	9.91953
1147.63	9.6647
1149.26	8.92796
1150.88	8.46161
1152.51	8.54769
1154.14	6.14686
1155.76	3.58497
1157.39	2.97074
1159.01	2.00832
1160.64	1.85061
1162.27	1.96163
1163.89	1.49381
1165.51	0.9777
1167.14	1.01656
1168.76	2.52262
1170.39	2.97506
1172.01	2.99404
1173.63	4.07584
1175.25	5.90521
1176.88	5.65746
1178.5	5.78896
1180.12	7.78737
1181.74	8.88013
1183.36	8.41737
1184.98	8.97137
1186.6	9.88797
1188.22	9.67795
1189.84	10.6123
1191.46	10.8071
1193.08	10.8971
1194.7	10.5504
1196.32	10.7696
1197.94	12.4353
1199.55	11.3604
1201.17	11.0434
1202.79	11.7528
1204.41	12.0877
1206.02	12.4428
1207.64	13.4091
1209.25	14.3291
1210.87	14.6868
1212.48	15.7585
1214.1	15.9547
1215.71	15.9878
1217.33	17.3706
1218.94	17.5867
1220.56	18.1625
1222.17	20.0124
1223.79	21.3588
1225.4	22.2335
1227.01	22.8954
1228.62	24.1051
1230.23	24.9145
1231.85	25.4082
1233.46	26.471
1235.07	26.0001
1236.68	27.4658
1238.29	30.4188
1239.9	33.3948
1241.51	36.3241
1243.12	37.4881
1244.73	39.1763
1246.34	40.3632
1247.94	42.0099
1249.55	44.4876
1251.16	46.1702
1252.77	47.2315
1254.37	49.5616
1255.98	52.1118
1257.59	53.6266
1259.2	56.3248
1260.8	57.6369
1262.41	59.2645
1264.01	60.9646
1265.62	63.6563
1267.22	65.6078
1268.83	67.6404
1270.43	69.3847
1272.03	71.094
1273.64	72.7439
1275.24	73.6236
1276.85	75.6043
1278.45	77.6205
1280.05	78.7573
1281.65	79.3262
1283.25	80.1073
1284.85	81.4206
1286.46	81.8584
1288.06	83.6717
1289.66	85.0372
1291.26	84.9583
1292.86	86.6099
1294.46	87.3904
1296.06	87.2758
1297.66	88.0473
1299.25	86.8447
1300.85	88.5123
1302.45	89.0014
1304.05	89.7139
1305.65	88.7601
1307.24	87.974
1308.84	88.9725
1310.43	87.86
1312.03	88.1306
1313.63	87.8984
1315.22	87.6031
1316.82	87.8203
1318.41	88.4054
1320.01	88.6382
1321.6	86.8162
1323.2	84.4057
1324.79	83.9433
1326.38	83.2275
1327.98	82.3514
1329.57	81.8379
1331.16	79.5434
1332.76	78.4126
1334.35	78.0446
1335.94	77.4971
1337.53	75.8573
1339.12	74.3153
1340.71	72.7979
1342.3	72.6611
1343.89	71.9551
1345.48	70.4715
1347.07	69.8459
1348.66	68.2064
1350.25	65.9776
1351.84	65.5403
1353.43	64.4151
1355.01	63.6966
1356.6	62.6657
1358.19	61.5661
1359.77	60.3691
1361.36	59.6851
1362.95	58.9077
1364.53	58.9778
1366.12	58.5125
1367.71	57.3303
1369.29	56.0126
1370.88	55.4141
1372.46	54.2207
1374.04	52.8167
1375.63	51.8788
1377.21	52.0343
1378.8	50.8989
1380.38	51.2656
1381.96	48.5655
1383.54	47.335
1385.13	45.9406
1386.71	45.3057
1388.29	44.9048
1389.87	43.0012
1391.45	42.7978
1393.03	42.2438
1394.61	41.537
1396.19	40.9934
1397.77	41.834
1399.35	42.0708
1400.93	42.4582
1402.51	43.6436
1404.09	46.0042
1405.67	46.6237
1407.24	46.5931
1408.82	48.3346
1410.4	50.2386
1411.98	53.0317
1413.55	57.0238
1415.13	60.5664
1416.71	62.3924
1418.28	65.999
1419.86	69.9031
1421.43	74.7042
1423.01	79.6622
1424.58	83.3868
1426.16	88.4491
1427.73	92.3823
1429.31	96.3086
1430.88	101.309
1432.45	105.403
1434.02	108.89
1435.6	111.333
1437.17	114.781
1438.74	117.947
1440.31	119.886
1441.88	121.213
1443.45	122.982
1445.03	123.584
1446.6	124.168
1448.17	125.741
1449.74	126.594
1451.3	125.269
1452.87	125.909
1454.44	125.747
1456.01	124.31
1457.58	122.116
1459.15	120.662
1460.72	118.471
1462.28	117.583
1463.85	115.936
1465.42	113.232
1466.98	111.308
1468.55	109.384
1470.12	108.393
1471.68	106.461
1473.25	103.454
1474.81	101.479
1476.38	100.154
1477.94	97.3539
1479.51	95.8353
1481.07	93.0678
1482.63	91.2329
1484.2	87.872
1485.76	86.5143
1487.32	84.6661
1488.88	83.8546
1490.45	81.8358
1492.01	78.8969
1493.57	76.1271
1495.13	73.7555
1496.69	73.7532
1498.25	71.4221
1499.81	69.3187
1501.37	66.9282
1502.93	64.6328
1504.49	62.8771
1506.05	60.2332
1507.61	56.9066
1509.17	55.1178
1510.73	52.8254
1512.28	49.8574
1513.84	47.3501
1515.4	46.2933
1516.96	44.2142
1518.51	42.0791
1520.07	40.7218
1521.63	38.8605
1523.18	36.9774
1524.74	36.8657
1526.29	35.9074
1527.85	34.7193
1529.4	33.6717
1530.96	34.2423
1532.51	33.7416
1534.06	32.8272
1535.62	32.6674
1537.17	33.7229
1538.72	35.2957
1540.28	36.148
1541.83	36.8664
1543.38	36.9054
1544.93	38.1868
1546.48	38.6348
1548.03	39.4465
1549.59	40.0013
1551.14	41.4618
1552.69	42.6713
1554.24	42.7842
1555.79	43.7125
1557.34	44.7504
1558.88	45.5161
1560.43	46.7835
1561.98	46.5477
1563.53	48.3378
1565.08	50.0569
1566.62	51.6651
1568.17	52.1182
1569.72	53.7318
1571.27	57.9977
1572.81	60.2329
1574.36	61.7341
1575.9	63.3377
1577.45	66.3258
1579	68.4512
1580.54	70.2031
1582.09	71.7388
1583.63	73.7021
1585.17	75.44
1586.72	77.2953
1588.26	79.4805
1589.8	80.3906
1591.35	82.3623
1592.89	84.6877
1594.43	86.0603
1595.97	86.5909
1597.52	87.1441
1599.06	87.7535
1600.6	88.5299
1602.14	89.2857
1603.68	89.5074
1605.22	89.9246
1606.76	90.4034
1608.3	91.2852
1609.84	91.1584
1611.38	91.4663
1612.92	91.9826
1614.46	93.4174
1615.99	93.8492
1617.53	92.7548
1619.07	92.5399
1620.61	92.9642
1622.14	94.0156
1623.68	95.0416
1625.22	95.3211
1626.75	96.1411
1628.29	97.4897
1629.82	97.3912
1631.36	97.7181
1632.9	99.2002
1634.43	100.657
1635.96	102.409
1637.5	103.606
1639.03	104.065
1640.57	105.971
1642.1	108.601
1643.63	109.857
1645.16	110.274
1646.7	111.518
1648.23	112.883
1649.76	112.137
1651.29	112.56
1652.82	112.494
1654.36	112.378
1655.89	111.702
1657.42	110.45
1658.95	108.86
1660.48	107.662
1662.01	106.081
1663.53	104.358
1665.06	102.442
1666.59	99.4177
1668.12	96.668
1669.65	93.3706
1671.18	89.6849
1672.7	85.0667
1674.23	81.0152
1675.76	76.9733
1677.29	73.8308
1678.81	69.9541
1680.34	65.8151
1681.86	61.5147
1683.39	57.3174
1684.91	53.4246
1686.44	49.9146
1687.96	47.5335
1689.49	43.9594
1691.01	40.5301
1692.54	37.4994
1694.06	34.8733
1695.58	32.8167
1697.11	31.8995
1698.63	29.6997
1700.15	27.5982
1701.67	24.9709
1703.2	24.1737
1704.72	23.438
1706.24	21.6434
1707.76	20.6879
1709.28	19.8581
1710.8	19.8182
1712.32	19.1007
1713.84	17.7345
1715.36	16.4862
1716.88	16.3292
1718.4	16.0359
1719.91	14.9451
1721.43	14.1553
1722.95	15.8003
1724.47	15.7754
1725.99	15.68
1727.5	16.3019
1729.02	15.644
1730.54	15.742
1732.05	14.9494
1733.57	14.0906
1735.09	13.9796
1736.6	14.0059
1738.12	13.2106
1739.63	11.8433
1741.15	10.9538
1742.66	10.1787
1744.18	8.97357
1745.69	8.81116
1747.2	7.88111
1748.72	6.7965
1750.23	5.99401
1751.74	5.33061
1753.25	4.55211
1754.77	3.06142
1756.28	2.77623
1757.79	2.78935
1759.3	3.0604
1760.81	3.08052
1762.32	3.1161
1763.83	2.85967
1765.34	2.02625
1766.85	1.85989
1768.36	2.07704
1769.87	1.91979
1771.38	2.28755
1772.89	2.4198
1774.4	1.74617
1775.91	2.38852
1777.41	3.20779
1778.92	3.65367
1780.43	4.12607
1781.94	4.52294
1783.44	5.23853
1784.95	5.46125
1786.45	6.43837
1787.96	6.60822
1789.47	6.55321
1790.97	7.04845
1792.48	8.22254
1793.98	9.63757
1795.48	10.5157
1796.99	10.2779
1798.49	10.1307
1800	9.16091
1801.5	9.35646
1803	9.26692
1804.51	8.96293
1806.01	8.41723
1807.51	8.58329
1809.01	8.33945
1810.51	8.17163
1812.02	8.5524
1813.52	8.35309
1815.02	8.46318
1816.52	8.24265
1818.02	7.48785
1819.52	7.03094
1821.02	6.35878
1822.52	6.05762
1824.02	6.62547
1825.51	6.30274
1827.01	6.20716
1828.51	6.49178
1830.01	6.93576
1831.51	7.7364
1833	7.26005
1834.5	7.24645
1836	6.91627
1837.5	6.57156
1838.99	6.24994
1840.49	5.31047
1841.98	5.54536
1843.48	5.23319
1844.97	5.67632
1846.47	6.13639
1847.96	5.88881
1849.46	6.35132
1850.95	6.64439
1852.45	7.46812
1853.94	7.26436
1855.43	7.36026
1856.92	7.69674
1858.42	7.44737
1859.91	7.46656
1861.4	8.21027
1862.89	8.49466
1864.39	8.90565
1865.88	8.99844
1867.37	9.03314
1868.86	7.89898
1870.35	7.22919
1871.84	7.0897
1873.33	7.21378
1874.82	7.38909
1876.31	7.74753
1877.8	7.75404
1879.29	7.54974
1880.77	7.31201
1882.26	8.64751
1882.51	8.41193
1884	8.52934
1885.5	8.87924
1886.99	8.48512
1888.48	8.31575
1889.98	7.9864
1891.47	8.34592
1892.97	7.98666
1894.46	7.979
1895.95	8.56576
1897.44	8.6191
1898.93	7.53761
1900.42	7.68717
1901.92	7.78497
1903.41	7.04861
1904.9	6.4809
1906.39	5.80142
1907.88	5.0423
1909.37	4.89505
1910.86	3.87511
1912.35	4.15065
1913.84	4.29368
1915.32	4.05257
1916.81	3.07883
1918.3	2.76261
1919.79	2.21959
1921.28	2.02806
1922.76	2.38126
1924.25	3.01551
1925.74	2.66333
1927.22	1.77009
1928.71	1.04866
1930.2	1.23804
1931.68	1.57824
1933.17	1.89692
1934.65	1.95679
1936.14	1.56108
1937.62	0.962426
1939.11	0.46628
1940.59	0.222236
1942.08	0.0678362
1943.56	0.56668
1945.04	0.983194
1946.53	0.566951
1948.01	1.0403
1949.49	1.235
1950.97	2.16483
1952.45	2.95654
1953.94	3.18655
1955.42	3.73722
1956.9	3.42473
1958.38	4.29699
1959.86	4.82463
1961.34	5.18908
1962.82	6.14378
1964.3	6.30213
1965.78	6.25352
1967.26	6.09684
1968.74	6.56209
1970.22	7.06202
1971.69	7.37808
1973.17	7.33142
1974.65	7.72653
1976.13	7.49595
1977.61	7.69771
1979.08	8.4976
1980.56	9.02658
1982.03	9.15165
1983.51	9.654
1984.99	9.37905
1986.46	10.6499
1987.94	10.0826
1989.41	9.39167
1990.89	9.68123
1992.36	9.62501
1993.84	9.72831
1995.31	9.34781
1996.78	8.7639
1998.26	7.95992
1999.73	6.91371
2001.2	6.42932
2002.68	6.15263
2004.15	6.27586
2005.62	6.1877
2007.09	6.29864
2008.56	5.76611
2010.04	5.36268
2011.51	5.51268
2012.98	5.83311
2014.45	5.74238
2015.92	5.08003
2017.39	4.86253
2018.86	4.4285
2020.33	4.68099
2021.8	5.61683
2023.27	6.19986
2024.74	6.37965
2026.2	6.38433
2027.67	6.76315
2029.14	6.98558
2030.61	7.29763
2032.07	8.01146
2033.54	8.7162
2035.01	8.89709
2036.47	9.2679
2037.94	8.77819
2039.41	9.3346
2040.87	10.068
2042.34	10.9659
2043.8	12.2423
2045.27	12.8997
2046.73	12.9857
2048.2	13.7386
2049.66	15.2632
2051.12	16.4052
2052.59	17.1066
2054.05	18.8589
2055.51	19.3817
2056.98	20.4356
2058.44	21.4358
2059.9	22.3274
2061.36	22.0728
2062.82	22.5832
2064.29	23.2502
2065.75	22.8699
2067.21	23.4347
2068.67	23.6866
2070.13	24.2887
2071.59	24.7875
2073.05	25.4883
2074.51	25.3691
2075.97	26.2648
2077.43	27.5937
2078.88	28.7594
2080.34	29.4764
2081.8	29.2447
2083.26	30.2331
2084.72	31.3515
2086.17	32.5946
2087.63	33.5561
2089.09	34.7342
2090.54	35.9892
2092	37.4506
2093.46	39.3193
2094.91	40.4782
2096.37	41.8654
2097.82	43.1208
2099.28	45.6865
2100.73	47.2753
2102.19	48.6317
2103.64	51.0109
2105.09	52.9368
2106.55	55.0086
2108	56.2128
2109.46	58.9147
2110.91	60.9299
2112.36	63.7112
2113.81	65.867
2115.27	68.2221
2116.72	70.9968
2118.17	73.6569
2119.62	76.3832
2121.07	80.8008
2122.52	84.0784
2123.97	86.4111
2125.42	89.9502
2126.87	93.3344
2128.32	95.5166
2129.77	97.8911
2131.22	100.841
2132.67	103.651
2134.12	106.369
2135.57	109.43
2137.01	111.912
2138.46	114.841
2139.91	117.503
2141.36	119.57
2142.8	121.886
2144.25	124.342
2145.7	126.757
2147.14	129.297
2148.59	132.633
2150.03	134.932
2151.48	136.501
2152.92	137.866
2154.37	140.704
2155.81	142.659
2157.26	144.81
2158.7	146.424
2160.15	147.228
2161.59	148.753
2163.03	149.279
2164.48	150.858
2165.92	150.812
2167.36	150.703
2168.8	150.7
2170.25	150.005
2171.69	148.662
2173.13	147.394
2174.57	146.943
2176.01	145.823
2177.45	144.19
2178.89	142.473
2180.33	141.047
2181.77	139.004
2183.21	136.703
2184.65	135.103
2186.09	133.228
2187.53	132.141
2188.97	130.853
2190.41	129.295
2191.84	127.005
2193.28	125.55
2194.72	123.27
2196.16	121.056
2197.59	119.968
2199.03	117.755
2200.47	115.642
2201.9	113.525
2203.34	111.942
2204.78	109.051
2206.21	106.448
2207.65	105.06
2209.08	102.429
2210.51	100.474
2211.95	97.4114
2213.38	95.4867
2214.82	92.8432
2216.25	90.4174
2217.68	88.763
2219.12	86.0144
2220.55	83.1353
2221.98	80.7717
2223.42	78.147
2224.85	75.377
2226.28	73.1289
2227.71	70.5976
2229.14	69.3187
2230.57	66.859
2232	64.3545
2233.43	62.1688
2234.86	60.2262
2236.29	57.3483
2237.72	53.7506
2239.15	51.5302
2240.58	48.8701
2242.01	46.6142
2243.44	44.3177
2244.87	42.6248
2246.3	41.1408
2247.73	38.355
2249.15	36.4775
2250.58	35.1045
2252.01	33.8979
2253.43	32.2652
2254.86	31.8216
2256.29	31.3332
2257.71	30.5883
2259.14	29.6936
2260.56	28.8622
2261.99	28.1979
2263.41	27.0254
2264.84	26.9883
2266.26	26.1483
2267.69	24.8969
2269.11	24.5868
2270.54	23.3293
2271.96	22.3199
2273.38	21.4076
2274.81	20.4781
2276.23	19.4992
2277.65	19.548
2279.07	19.7034
2280.49	18.212
2281.92	17.257
2283.34	16.991
2284.76	16.2262
2286.18	15.5727
2287.6	14.6249
2289.02	13.7129
2290.44	12.2705
2291.86	11.5829
2293.28	10.7369
2294.7	9.91034
2296.12	10.0759
2297.54	10.2981
2298.96	11.4748
2300.38	11.4795
2301.79	11.0152
2303.21	10.6051
2304.63	10.2645
2306.05	10.2985
2307.46	9.00245
2308.88	8.91758
2310.3	8.87797
2311.71	8.65028
2313.13	8.64619
2314.55	8.33852
2315.96	7.91069
2317.38	8.34338
2318.79	7.52155
2320.21	8.15722
2321.62	8.20835
2323.03	8.28954
2324.45	8.40032
2325.86	8.83418
2327.27	9.08372
2328.69	8.37918
2330.1	7.78632
2331.51	7.31664
2332.93	6.91834
2334.34	6.21436
2335.75	5.81071
2337.16	5.17018
2338.57	5.11975
2339.99	5.01635
2341.4	4.55757
2342.81	4.57613
2344.22	4.48636
2345.63	4.82269
2347.04	3.67151
2348.45	3.99001
2349.86	3.71338
2351.26	3.30603
2352.67	3.07103
2354.08	2.91895
2355.49	2.38873
2356.9	2.5563
2358.31	1.81764
2359.71	1.84966
2361.12	1.71704
2362.53	1.44066
2363.94	1.45388
2365.34	2.19935
2366.75	2.52522
2368.15	2.23673
2369.56	2.94715
2370.97	2.25347
2372.37	1.54689
2373.78	1.68233
2375.18	1.54256
2376.59	1.57788
2377.99	1.53207
2379.39	0.74545
2380.8	0.729758
2382.2	0.412709
2383.61	-0.481282
2385.01	-0.434926
2386.41	-0.514529
2387.81	-0.574901
2389.22	-0.737345
2390.62	0.240439
2392.02	0.639387
2393.42	1.64452
2394.82	1.7097
2396.22	2.17461
2397.63	2.44247
2399.02	1.85839
2400.43	1.51926
2401.82	1.22859
2403.23	1.39703
2404.62	1.33982
2406.02	2.11981
2407.42	2.42255
2408.82	2.83639
2410.22	2.97375
2411.62	3.12967
2413.02	3.64805
2414.41	3.87818
2415.81	4.75099
2417.21	4.1745
2418.61	4.6083
2420	4.51349
2421.4	5.22657
2422.79	6.18663
2424.19	7.25035
2425.59	7.86631
2426.98	8.23559
2428.38	8.57182
2429.77	8.84035
2431.17	9.59881
2432.56	10.2045
2433.96	10.4744
2435.35	10.7252
2436.74	11.2574
2438.14	10.5182
2439.53	10.2462
2440.92	9.6115
2442.32	9.72174
2443.71	9.06122
2445.1	8.01829
2446.49	7.66103
2447.88	6.61166
2449.28	5.75939
2450.67	5.8719
2452.06	6.02018
2453.45	5.79758
2454.84	6.5189
2456.23	6.59433
2457.62	6.60486
2459.01	6.44921
2460.4	6.63104
2461.79	6.25171
2463.18	6.05775
2464.57	5.20096
2465.96	5.4445
2467.34	4.77532
2468.73	3.71452
2470.12	3.27141
2471.51	3.02647
2472.89	3.12292
2474.28	3.03396
2475.67	2.38618
2477.05	1.47075
2478.44	2.35203
2479.83	2.32649
2481.21	2.14807
2482.6	2.45113
2483.98	2.36346
2485.37	2.37392
2486.75	2.50844
2488.14	2.70542
2489.52	3.25553
2490.9	3.90363
2492.29	3.5127
2493.67	3.88595
2495.06	4.13342
2496.44	4.53845
2497.82	4.91238
2499.2	5.21806
2500.59	5.72799
2501.97	4.97897
2503.35	5.07173
2504.73	4.7208
2506.11	4.94306
2507.49	4.34998
2508.88	4.64585
2510.26	4.64453
2511.63	4.34488
2513.01	3.85124
2514.39	3.92377
2515.77	3.23799
2517.15	3.09924
2518.53	3.65514
2519.91	4.01234
2521.29	4.59081
2522.67	3.77724
2524.05	4.46067
2525.42	4.17833
2526.8	3.89005
2528.18	3.46443
2529.56	4.40928
2530.93	3.81626
2532.31	3.59582
2533.69	3.3889
2535.06	3.04265
2536.44	2.56818
2537.81	2.84886
2539.19	2.97936
2540.56	3.09692
2541.94	3.2176
2543.31	3.47634
2544.69	3.5193
2546.06	4.37816
2547.44	4.7962
2548.81	4.80659
2550.18	5.37032
2551.56	5.10143
2552.93	5.1956
2554.3	5.39972
2555.68	5.07288
2557.05	4.91272
2558.42	5.58943
2559.79	6.23613
2561.16	7.09341
2562.53	8.08514
2563.9	7.9528
2565.28	7.93313
2566.64	8.91113
2568.02	8.82056
2569.38	8.64301
2570.76	8.12986
2572.12	8.51461
2573.49	7.83353
2574.86	7.87404
2576.23	8.1284
2577.6	7.69979
2578.97	8.0455
2580.34	8.54912
2581.7	8.43592
2583.07	8.48726
2584.44	8.07744
2585.81	8.27225
2587.17	8.72095
2588.54	9.07209
2589.91	9.40861
2591.27	8.98748
2592.64	10.2901
2594	9.07245
2595.37	9.09341
2596.73	9.43629
2598.1	9.96496
2599.46	8.81165
2600.83	9.15527
2602.19	9.27659
2603.55	9.41601
2604.92	10.1488
2606.28	10.1359
2607.64	10.5295
2609.01	10.2901
2610.37	10.2013
2611.73	10.3727
2613.09	10.7188
2614.46	11.4466
2615.82	11.7695
2617.18	12.0111
2618.54	12.0051
2619.9	11.4805
2621.26	11.9245
2622.62	12.6422
2623.98	12.5641
2625.34	13.2479
2626.7	13.3641
2628.06	13.3102
2629.42	13.5154
2630.78	13.083
2632.14	12.9843
2633.5	13.5344
2634.86	14.1305
2636.22	13.6799
2637.57	13.976
2638.93	13.851
2640.29	14.2906
2641.64	14.6141
2643	15.0791
2644.36	15.5707
2645.72	14.9266
2647.07	15.114
2648.43	14.7999
2649.78	14.7203
2651.14	14.7107
2652.49	14.5337
2653.85	14.7916
2655.2	15.813
2656.56	15.5008
2657.91	15.3954
2659.27	15.2547
2660.62	15.6176
2661.97	14.9627
2663.33	15.998
2664.68	15.8541
2666.03	15.6384
2667.38	15.2045
2668.74	15.2118
2670.09	15.0228
2671.44	15.4608
2672.79	15.7586
2674.14	15.6668
2675.49	15.781
2676.84	15.8008
2678.2	16.1855
2679.55	16.3971
2680.89	16.4644
2682.24	16.6032
2683.59	16.5438
2684.94	15.9958
2686.29	16.8626
2687.64	16.3183
2688.99	17.0191
2690.34	17.2911
2691.69	16.3595
2693.04	16.6363
2694.38	16.3577
2695.73	15.9653
2697.08	15.7364
2698.43	15.7425
2699.77	15.9249
2701.12	16.0002
2702.46	15.9928
2703.81	15.205
2705.16	15.2559
2706.5	15.1088
2707.85	15.4658
2709.19	15.2168
2710.54	15.1377
2711.88	14.6566
2713.23	13.9879
2714.57	14.2591
2715.92	14.6843
2717.26	14.9312
2718.6	15.1892
2719.95	14.6675
2721.29	13.8948
2722.63	14.0128
2723.97	13.7547
2725.32	13.6505
2726.66	13.6788
2728	13.8835
2729.34	13.8649
2730.68	13.9364
2732.02	13.5554
2733.36	13.2219
2734.7	13.3268
2736.04	13.9807
2737.39	14.3505
2738.72	14.4972
2740.06	14.2924
2741.4	13.8208
2742.74	13.5895
2744.08	13.9979
2745.42	14.3057
2746.76	14.3902
2748.1	14.2978
2749.44	13.9012
2750.77	13.5354
2752.11	13.4921
2753.45	13.8334
2754.78	13.2179
2756.12	13.8574
2757.46	12.8596
2758.79	12.35
2760.13	12.5213
2761.47	12.1847
2762.8	11.7757
2764.14	11.9803
2765.47	11.7216
2766.81	11.1371
2768.14	10.7074
2769.48	10.5917
2770.81	9.58694
2772.14	9.75217
2773.48	9.53348
2774.81	9.20536
2776.14	7.82058
2777.48	6.86366
2778.81	6.21333
2780.14	6.31163
2781.47	6.35124
2782.81	6.28072
2784.14	5.90044
2785.47	5.4692
2786.8	4.48283
2788.13	4.51197
2789.46	4.26726
2790.79	4.37999
2792.12	3.96726
2793.46	4.33127
2794.79	4.56334
2796.11	4.33441
2797.44	4.244
2798.77	4.51692
2800.1	4.40038
2801.43	4.77149
2802.76	5.0553
2804.09	4.32771
2805.42	3.87611
2806.74	4.51706
2808.07	3.91676
2809.4	3.67213
2810.73	4.3267
2812.05	4.81066
2813.38	4.24408
2814.71	4.45222
2816.03	5.2258
2817.36	7.21425
2818.68	8.94892
2820.01	10.7089
2821.33	12.8792
2822.66	14.8273
2823.98	17.2848
2825.31	20.6445
2826.63	23.4239
2827.96	26.7324
2829.28	29.2386
2830.61	32.33
2831.93	35.7153
2833.25	39.863
2834.57	43.8564
2835.9	48.5644
2837.22	52.9688
2838.54	57.9323
2839.86	61.8683
2841.18	65.8396
2842.51	69.967
2843.83	76.0176
2845.15	80.8324
2846.47	85.6676
2847.79	90.3639
2849.11	96.1331
2850.43	101.06
2851.75	106.028
2853.07	111.329
2854.39	115.775
2855.71	120.589
2857.03	125.399
2858.35	129.967
2859.67	134.572
2860.98	137.563
2862.3	141.36
2863.62	144.714
2864.94	147.813
2866.25	151.176
2867.57	154.724
2868.89	157.479
2870.21	159.588
2871.52	161.281
2872.84	162.803
2874.15	164.594
2875.47	167.152
2876.78	169.324
2878.1	171.352
2879.42	172.831
2880.73	175.338
2882.04	178.3
2883.36	181.45
2884.67	184.218
2885.99	187.062
2887.3	190.224
2888.61	193.492
2889.93	197.391
2891.24	200.819
2892.55	204.385
2893.87	209.216
2895.18	213.481
2896.49	219.142
2897.8	224.883
2899.11	230.7
2900.42	236.752
2901.74	243.321
2903.05	249.805
2904.36	256.043
2905.67	263.733
2906.98	271.494
2908.29	279.771
2909.6	287.998
2910.91	295.556
2912.22	303.854
2913.53	311.873
2914.83	320.075
2916.14	327.072
2917.45	334.886
2918.76	341.215
2920.07	347.308
2921.37	354.08
2922.68	359.501
2923.99	364.122
2925.3	367.915
2926.6	371.147
2927.91	375.258
2929.22	376.988
2930.52	378.886
2931.83	380.007
2933.13	379.266
2934.44	377.252
2935.74	374.944
2937.05	371.79
2938.35	368.512
2939.66	365.692
2940.96	360.872
2942.27	355.382
2943.57	350.536
2944.87	345.017
2946.18	338.923
2947.48	332.858
2948.78	326.102
2950.09	318.719
2951.39	311.245
2952.69	304.207
2953.99	296.526
2955.29	289.194
2956.6	281.928
2957.9	274.873
2959.2	267.93
2960.5	260.87
2961.8	254.154
2963.1	246.792
2964.4	240.153
2965.7	233.641
2967	226.686
2968.3	219.789
2969.6	212.947
2970.9	207.882
2972.2	201.277
2973.49	195.312
2974.79	189.045
2976.09	182.76
2977.39	175.798
2978.69	170.199
2979.98	164.92
2981.28	158.589
2982.58	152.635
2983.88	145.92
2985.17	140.272
2986.47	133.418
2987.76	126.883
2989.06	120.533
2990.36	114.387
2991.65	108.712
2992.95	102.739
2994.24	96.5391
2995.54	90.3353
2996.83	83.9034
2998.12	77.7517
2999.42	71.6727
3000.71	66.278
3002	60.6535
3003.3	55.7794
3004.59	51.5516
3005.88	46.5822
3007.18	42.8593
3008.47	39.7299
3009.76	36.3235
3011.05	32.4062
3012.35	29.6753
3013.64	26.5238
3014.93	23.7404
3016.22	20.7886
3017.51	18.6857
3018.8	16.3792
3020.09	13.9975
3021.38	12.2082
3022.67	10.6342
3023.96	9.30427
3025.25	8.53568
3026.54	6.84358
3027.83	5.14958
3029.12	4.29915
3030.41	3.21416
3031.69	2.11972
3032.98	1.92071
3034.27	2.26011
3035.56	2.77912
3036.85	2.00826
3038.13	2.01091
3039.42	2.06599
3040.71	2.37906
3041.99	2.7688
3043.28	3.41234
3044.57	3.56311
3045.85	3.06275
3047.14	3.69564
3048.42	3.54358
3049.71	3.68589
3050.99	3.88755
3052.28	4.34587
3053.56	4.47105
3054.85	4.77226
3056.13	5.41965
3057.42	4.69806
3058.7	4.59409
3059.98	3.87188
3061.27	3.64156
3062.55	4.03679
3063.83	3.63562
3065.11	3.57301
3066.4	3.3361
3067.68	3.72076
3068.96	4.03172
3070.24	4.19406
3071.52	4.71056
3072.8	4.68385
3074.09	4.50621
3075.37	3.6623
3076.65	2.90966
3077.93	2.41561
3079.21	2.27625
3080.49	1.41683
3081.77	1.59615
3083.05	1.08291
3084.32	0.379108
3085.61	0.346478
3086.88	0.161711
3088.16	0.362796
3089.44	0.40263
3090.72	0.136267
3092	0.424898
3093.27	1.01565
3094.55	1.28998
3095.83	2.02987
3097.11	3.49248
3098.38	4.3737
3099.66	5.74774
3100.94	6.37007
3102.21	7.82051
3103.49	8.4891
3104.76	9.44583
3106.04	9.91746
3107.31	10.2818
3108.59	11.5987
3109.86	12.6527
3111.14	13.3787
3112.41	13.7092
3113.69	14.4256
3114.96	15.2062
3116.23	15.473
3117.51	16.9306
3118.78	18.0049
3120.05	18.94
3121.33	19.5167
3122.6	21.2273
3123.87	22.4727
3125.14	24.0188
3126.42	25.9396
3127.69	26.8522
3128.96	28.6148
3130.23	30.276
3131.5	31.7625
3132.77	33.2615
3134.04	34.8314
3135.31	36.1694
3136.58	37.8984
3137.85	39.3648
3139.12	40.8192
3140.39	42.8379
3141.66	45.4546
3142.93	47.8204
3144.2	50.5993
3145.47	53.737
3146.74	57.7584
3148	62.8814
3149.27	67.9897
