#Acq. time (s)=	45
#Accumulations=	2
#Range (cm-¹)=	200...3150
#Windows=	2
#Auto scanning=	Off
#Autofocus=	Off
#Macrospot=	Off
#AutoExposure=	Off
#Spike filter=	Multiple accum.
#Delay time (s)=	0
#Binning=	1
#Readout mode=	Signal
#DeNoise=	Off
#ICS correction=	On
#Dark correction=	Off
#Inst. Process=	Off
#Detector Gain=	Best Dynamic Range
#Detector ADC=	20 kHz       
#Detector temperature (°C)=	-69.85
#Instrument=	LabRAM HR Evol
#Detector=	Synapse
#Objective=	x100
#Grating=	600 gr/mm
#ND Filter=	100%
#Laser (nm)=	532 
#Hole=	100.021
#Range=	Auto
#Laser Pol.=	No
#Raman. Pol.=	No
#Laser Pol. (°)=	-0.0007625
#Raman Pol. (°)=	89.9995
#Collection=	Microscope
#StageXY=	Marzhauser
#StageZ=	Marzhauser
#X (µm)=	28334
#Y (µm)=	-3291.7
#Z (µm)=	1040.6
#Full time(mm:ss)=	3:18
#Project=	
#Sample=	
#Site=	
#Title=	Mb_50_18_25_2x_45s_532 nm_x100_100%_600 gr_mm
#Remark=	
#Date=	12.07.2022 12:43
#Acquired=	12.07.2022 12:43:41
#Base:Fit=	10.08.2022 10:49:18
#Base:Sub=	10.08.2022 10:49:30
#Filter:Polynom=	16.08.2022 10:14:59
#AxisType[0]=Intens
#AxisUnit[0]=Cnt
#AxisType[1]=Spectr
#AxisUnit[1]=1/cm
200.388	108.931
202.204	105.583
204.019	102.404
205.832	98.6487
207.646	95.2421
209.459	91.5284
211.274	87.905
213.087	84.2006
214.899	80.4147
216.711	76.8673
218.524	72.5667
220.335	69.8343
222.146	66.424
223.956	62.5614
225.766	59.7234
227.576	56.6006
229.388	55.1114
231.197	52.4583
233.005	50.3065
234.813	48.6741
236.621	46.2797
238.429	45.0032
240.236	42.4288
242.045	40.2067
243.852	37.6244
245.658	37.0213
247.464	36.0766
249.269	35.4655
251.074	34.5679
252.879	32.93
254.683	31.4896
256.487	31.571
258.291	31.5663
260.094	29.9816
261.897	28.8388
263.702	28.1633
265.504	27.328
267.306	25.557
269.108	24.6742
270.909	23.1234
272.71	22.7203
274.511	20.9269
276.311	19.6958
278.111	19.7952
279.91	19.6943
281.709	19.4026
283.508	17.4375
285.306	15.9547
287.105	14.7888
288.9	14.37
290.698	14.0945
292.495	14.9722
294.291	14.3067
296.088	15.5397
297.884	15.5922
299.679	17.1127
301.475	17.3088
303.27	18.194
305.064	19.3394
306.858	20.2717
308.652	21.041
310.444	23.1624
312.237	23.373
314.03	24.6397
315.822	26.828
317.615	26.1392
319.406	27.9169
321.198	27.8736
322.987	28.663
324.778	29.038
326.568	29.6045
328.358	29.3647
330.148	28.2517
331.935	27.4277
333.724	26.8835
335.513	27.2744
337.301	26.1247
339.089	23.6212
340.875	20.9425
342.662	19.5507
344.449	18.6485
346.236	18.9373
348.02	19.2322
349.806	20.6705
351.592	23.002
353.375	25.3926
355.16	30.0863
356.944	34.5663
358.728	39.5369
360.51	43.5233
362.294	50.1135
364.077	54.35
365.858	60.9153
367.64	65.8722
369.422	71.4443
371.202	76.8949
372.983	81.5809
374.764	86.7863
376.543	92.1301
378.324	96.4418
380.102	100.111
381.881	103.277
383.661	105.001
385.438	107.801
387.216	108.268
388.993	108.923
390.771	109.458
392.548	110.445
394.324	109.749
396.101	108.474
397.875	106.957
399.651	104.224
401.425	99.3541
403.201	95.7089
404.974	91.489
406.749	85.9355
408.524	82.1164
410.296	76.0817
412.07	70.0488
413.841	63.1366
415.614	55.7309
417.385	46.8811
419.156	38.8769
420.928	31.278
422.698	24.6247
424.469	17.87
426.238	11.5697
428.009	4.61617
429.777	-0.153587
431.548	-3.04443
433.315	-6.2187
435.083	-6.34533
436.852	-8.31789
438.618	-8.03009
440.387	-8.03485
442.153	-6.26462
443.919	-4.18185
445.686	-2.71073
447.451	-0.741057
449.218	0.398387
450.982	2.27758
452.746	3.97764
454.512	5.93203
456.275	7.57077
458.038	10.0813
459.803	11.4379
461.565	12.7592
463.327	14.3769
465.091	15.4885
466.852	15.1949
468.613	15.6689
470.374	16.8435
472.136	17.9563
473.896	20.359
475.655	22.065
477.415	25.1188
479.176	28.5541
480.934	32.95
482.692	35.6564
484.45	39.4514
486.21	43.2914
487.967	47.4954
489.724	53.2211
491.481	61.2613
493.237	68.393
494.995	74.168
496.75	79.8124
498.506	86.2935
500.26	91.1793
502.015	96.2433
503.771	100.224
505.525	104.445
507.279	108.417
509.032	112.116
510.785	114.975
512.537	117.799
514.289	120.434
516.041	121.408
517.793	123.198
519.546	125.06
521.297	126.021
523.047	127.173
524.797	126.721
526.547	127.52
528.297	127.027
530.046	126.181
531.795	124.107
533.543	121.008
535.291	117.295
537.039	113.297
538.787	109.492
540.534	105.132
542.281	100.003
544.027	95.1838
545.773	88.8011
547.519	83.2416
549.264	77.1467
551.01	70.4822
552.754	64.4178
554.499	57.9362
556.243	52.9854
557.987	48.5931
559.73	44.0014
561.474	40.4044
563.216	37.4568
564.959	35.3936
566.701	34.1998
568.441	34.6003
570.182	33.4756
571.923	33.5476
573.664	35.2508
575.405	37.0387
577.145	39.9367
578.885	42.0121
580.624	42.7528
582.361	43.2299
584.1	44.8732
585.839	45.7776
587.577	45.9261
589.315	48.0528
591.052	47.9861
592.787	49.9154
594.524	51.3964
596.26	52.4292
597.997	54.2291
599.732	55.276
601.466	56.5924
603.201	57.3003
604.936	58.4041
606.67	59.3535
608.403	60.1526
610.136	60.1177
611.87	60.1173
613.603	59.586
615.334	59.2921
617.067	57.3095
618.799	56.9511
620.529	55.2779
622.26	54.0155
623.991	52.3485
625.72	50.2548
627.451	49.9612
629.181	48.7177
630.909	46.5459
632.638	45.1319
634.368	42.8411
636.095	41.9859
637.823	40.1316
639.551	39.6993
641.277	36.9071
643.005	36.9882
644.73	36.4973
646.457	35.8601
648.184	35.9629
649.908	35.9987
651.634	36.8706
653.357	38.7785
655.083	39.2243
656.806	39.2647
658.53	40.1689
660.253	41.2509
661.977	41.3244
663.7	42.9139
665.422	41.7364
667.145	42.6024
668.865	42.8461
670.588	43.8253
672.308	44.7893
674.027	46.2778
675.749	46.3363
677.468	46.3259
679.188	47.5392
680.907	48.9324
682.627	49.312
684.345	51.4897
686.064	52.4307
687.781	54.4007
689.498	54.921
691.216	55.575
692.932	56.8616
694.65	57.8375
696.366	59.0947
698.081	59.5244
699.797	59.7601
701.512	61.4046
703.228	62.034
704.942	63.2048
706.655	63.7818
708.371	64.2005
710.083	64.1579
711.796	65.6148
713.51	67.8976
715.222	65.773
716.934	65.6886
718.645	65.3118
720.358	63.0207
722.068	62.7408
723.779	61.3884
725.49	59.882
727.2	58.6003
728.909	59.3165
730.618	58.9531
732.329	60.4822
734.037	63.1764
735.745	66.0622
737.453	71.3068
739.16	75.2811
740.869	81.6072
742.576	88.9552
744.282	97.1612
745.988	106.566
747.694	116.967
749.401	126.802
751.107	135.565
752.811	146.563
754.516	156.186
756.22	165.488
757.924	174.567
759.627	181.66
761.332	188.372
763.035	196.616
764.738	202.367
766.44	208.657
768.142	213.402
769.843	217.378
771.544	219.911
773.245	221.006
774.946	222.589
776.646	223.895
778.346	224.814
780.046	223.412
781.745	222.314
783.444	218.693
785.143	215.041
786.841	210.739
788.539	204.913
790.237	199.227
791.934	192.791
793.631	185.855
795.328	178.647
797.024	171.622
798.72	162.592
800.416	152.433
802.112	144.001
803.807	134.237
805.502	124.022
807.196	116.12
808.89	107.386
810.584	99.4687
812.278	93.3232
813.971	86.9366
815.664	82.1229
817.354	79.0446
819.047	77.1574
820.739	76.0713
822.43	74.9183
824.122	73.9356
825.813	75.4268
827.503	76.3274
829.192	77.2084
830.882	77.5623
832.571	77.5295
834.261	77.7564
835.95	77.9258
837.637	77.3101
839.325	77.5143
841.013	77.0761
842.701	75.7296
844.389	73.5692
846.074	72.381
847.761	71.2445
849.447	69.6913
851.131	68.4417
852.817	66.932
854.503	64.7067
856.188	63.8444
857.871	61.7459
859.556	61.8102
861.24	60.6887
862.922	59.8272
864.606	57.468
866.289	57.2695
867.97	55.338
869.653	53.3856
871.336	53.109
873.016	53.6694
874.698	53.2485
876.379	52.5607
878.058	52.1654
879.739	51.9317
881.418	51.857
883.098	50.9288
884.778	50.3242
886.456	49.591
888.135	47.5131
889.812	45.6501
891.49	45.1199
893.167	44.1166
894.845	44.3604
896.523	42.999
898.198	43.0542
899.875	43.7456
901.55	44.4365
903.226	45.8704
904.901	45.9741
906.576	45.4069
908.25	45.3214
909.925	46.2803
911.598	46.0436
913.271	44.8847
914.945	44.9356
916.617	45.1731
918.291	45.4902
919.962	44.7117
921.635	44.3231
923.306	44.5487
924.978	43.3453
926.648	40.6677
928.318	40.807
929.989	40.1833
931.659	38.1627
933.328	38.6645
934.998	37.5636
936.666	37.2208
938.336	36.3759
940.004	35.7104
941.671	34.3261
943.34	33.4283
945.007	32.3882
946.673	30.1886
948.339	28.8563
950.007	27.7924
951.672	26.3761
953.337	24.4871
955.004	23.4784
956.669	20.6961
958.333	17.0974
959.997	15.3683
961.662	12.9375
963.326	12.6013
964.989	10.4655
966.651	8.33063
968.315	7.31509
969.977	7.18796
971.639	5.27386
973.301	5.51598
974.962	5.41623
976.624	5.02927
978.285	4.10148
979.945	3.01401
981.605	3.49573
983.264	2.24108
984.924	1.07408
986.583	0.547369
988.243	-0.629717
989.901	-2.44978
991.56	-3.10691
993.217	-1.5928
994.875	0.586051
996.532	3.57748
998.188	6.40503
999.845	9.46391
1001.5	13.3752
1003.16	18.7077
1004.81	23.6764
1006.47	29.7987
1008.12	35.6183
1009.78	41.4836
1011.43	49.3064
1013.09	55.4682
1014.74	63.4743
1016.39	72.7221
1018.05	78.9044
1019.7	85.304
1021.35	91.4528
1023	97.1453
1024.65	102.142
1026.31	107.233
1027.96	112.273
1029.61	116.155
1031.26	120.118
1032.91	121.304
1034.56	122.721
1036.21	122.536
1037.86	122.254
1039.51	121.223
1041.16	119.139
1042.8	118.282
1044.45	117.78
1046.1	115.991
1047.75	113.407
1049.39	110.554
1051.04	107.865
1052.69	105.072
1054.33	100.915
1055.98	98.9043
1057.62	96.2923
1059.27	93.8831
1060.91	92.0498
1062.56	91.3124
1064.2	91.2552
1065.85	89.6475
1067.49	89.7859
1069.13	90.8678
1070.77	91.0281
1072.42	91.2723
1074.06	93.0717
1075.7	94.6041
1077.34	96.2653
1078.98	96.1835
1080.62	96.8025
1082.27	98.2535
1083.91	99.3662
1085.55	101.701
1087.18	101.771
1088.82	101.607
1090.46	101.271
1092.1	101.449
1093.74	101.551
1095.38	101.206
1097.02	100.121
1098.65	97.4441
1100.29	95.0015
1101.93	91.7962
1103.56	89.0345
1105.2	85.4486
1106.84	80.9847
1108.47	75.5923
1110.11	70.239
1111.74	64.2928
1113.38	57.865
1115.01	50.6574
1116.64	43.9851
1118.28	37.907
1119.91	31.5127
1121.54	25.2759
1123.18	19.1882
1124.81	15.5319
1126.44	11.8826
1128.07	7.3696
1129.7	5.41763
1131.33	3.16554
1132.97	3.0813
1134.6	3.55015
1136.23	3.84507
1137.86	5.77401
1139.49	7.08366
1141.11	8.40362
1142.74	10.2769
1144.37	12.5303
1146	12.8801
1147.63	13.106
1149.26	14.5566
1150.88	14.4731
1152.51	13.6381
1154.14	13.5272
1155.76	13.6159
1157.39	12.8542
1159.01	12.3586
1160.64	12.527
1162.27	13.3507
1163.89	13.3363
1165.51	13.1332
1167.14	14.1296
1168.76	13.5385
1170.39	13.2694
1172.01	14.4671
1173.63	14.7027
1175.25	15.4437
1176.88	16.3636
1178.5	16.5835
1180.12	17.1391
1181.74	18.2165
1183.36	17.4978
1184.98	17.2782
1186.6	16.277
1188.22	15.5706
1189.84	15.4309
1191.46	16.3713
1193.08	16.8577
1194.7	15.4752
1196.32	15.2889
1197.94	15.336
1199.55	16.09
1201.17	15.6828
1202.79	15.2736
1204.41	15.4589
1206.02	16.783
1207.64	17.8281
1209.25	17.9259
1210.87	18.6941
1212.48	18.7013
1214.1	20.5622
1215.71	20.7525
1217.33	21.5489
1218.94	22.2042
1220.56	22.5855
1222.17	23.5687
1223.79	24.6139
1225.4	24.7096
1227.01	23.814
1228.62	24.4114
1230.23	24.522
1231.85	25.1308
1233.46	25.7463
1235.07	26.7235
1236.68	27.7918
1238.29	26.7834
1239.9	27.6476
1241.51	28.5643
1243.12	28.843
1244.73	28.2063
1246.34	28.523
1247.94	28.8552
1249.55	28.3277
1251.16	27.4707
1252.77	27.5485
1254.37	26.7526
1255.98	27.2672
1257.59	26.9153
1259.2	25.4531
1260.8	25.6892
1262.41	26.9545
1264.01	25.9589
1265.62	27.2846
1267.22	28.1919
1268.83	29.1823
1270.43	30.855
1272.03	32.0645
1273.64	31.5922
1275.24	31.8082
1276.85	33.325
1278.45	34.5599
1280.05	35.8611
1281.65	35.9371
1283.25	36.66
1284.85	38.3124
1286.46	38.9667
1288.06	39.4742
1289.66	39.904
1291.26	40.8965
1292.86	42.4442
1294.46	43.9482
1296.06	43.9021
1297.66	45.5103
1299.25	46.2607
1300.85	46.7518
1302.45	47.9702
1304.05	47.7015
1305.65	47.9284
1307.24	48.7735
1308.84	50.8041
1310.43	52.5816
1312.03	52.5232
1313.63	51.96
1315.22	51.6857
1316.82	51.5447
1318.41	49.4983
1320.01	49.0896
1321.6	48.6348
1323.2	47.1761
1324.79	45.7717
1326.38	44.9669
1327.98	42.5124
1329.57	40.573
1331.16	38.4715
1332.76	37.858
1334.35	37.1985
1335.94	37.3687
1337.53	35.6289
1339.12	34.7815
1340.71	35.7412
1342.3	34.0763
1343.89	31.8462
1345.48	31.9863
1347.07	30.9943
1348.66	30.1814
1350.25	29.7058
1351.84	28.7242
1353.43	27.6771
1355.01	28.3365
1356.6	27.7205
1358.19	27.9133
1359.77	27.601
1361.36	26.2941
1362.95	26.249
1364.53	25.6695
1366.12	25.6263
1367.71	25.1314
1369.29	24.4608
1370.88	24.0819
1372.46	24.1642
1374.04	22.9767
1375.63	23.2147
1377.21	23.3674
1378.8	22.4546
1380.38	21.9665
1381.96	21.6155
1383.54	20.8947
1385.13	21.9027
1386.71	21.274
1388.29	21.4599
1389.87	20.1667
1391.45	17.5973
1393.03	17.4838
1394.61	16.2036
1396.19	16.2429
1397.77	15.7517
1399.35	18.0094
1400.93	18.7391
1402.51	19.8684
1404.09	22.6787
1405.67	23.1566
1407.24	25.1969
1408.82	28.3248
1410.4	31.3572
1411.98	36.2201
1413.55	40.3631
1415.13	44.1527
1416.71	46.4722
1418.28	51.6596
1419.86	56.111
1421.43	59.7044
1423.01	64.6257
1424.58	69.9874
1426.16	76.1445
1427.73	80.7925
1429.31	86.2159
1430.88	91.4848
1432.45	95.6476
1434.02	101.043
1435.6	104.76
1437.17	109.005
1438.74	111.963
1440.31	113.274
1441.88	116.086
1443.45	118.848
1445.03	119.983
1446.6	119.581
1448.17	119.837
1449.74	120.278
1451.3	119.822
1452.87	120.066
1454.44	120.542
1456.01	120.243
1457.58	119.891
1459.15	120.291
1460.72	117.893
1462.28	117.139
1463.85	115.351
1465.42	112.331
1466.98	110.931
1468.55	108.043
1470.12	105.88
1471.68	104.096
1473.25	101.6
1474.81	100.733
1476.38	98.4702
1477.94	97.5361
1479.51	94.0066
1481.07	92.8108
1482.63	91.062
1484.2	88.5273
1485.76	87.681
1487.32	85.9674
1488.88	83.9994
1490.45	81.5097
1492.01	78.3345
1493.57	75.858
1495.13	72.8976
1496.69	71.1474
1498.25	66.7239
1499.81	63.0536
1501.37	60.7394
1502.93	58.9465
1504.49	56.2295
1506.05	51.4235
1507.61	48.0278
1509.17	44.4699
1510.73	41.7275
1512.28	38.7963
1513.84	33.7719
1515.4	30.4456
1516.96	27.3067
1518.51	24.3939
1520.07	22.3907
1521.63	20.3443
1523.18	16.8991
1524.74	15.9863
1526.29	14.6337
1527.85	14.0673
1529.4	14.7534
1530.96	15.8886
1532.51	16.8949
1534.06	17.5414
1535.62	17.4629
1537.17	17.7588
1538.72	16.7428
1540.28	17.8301
1541.83	17.7808
1543.38	18.8475
1544.93	20.0862
1546.48	20.7209
1548.03	21.5068
1549.59	21.5057
1551.14	22.5286
1552.69	23.5327
1554.24	24.1535
1555.79	25.4782
1557.34	25.527
1558.88	26.7985
1560.43	27.3973
1561.98	27.7565
1563.53	28.3556
1565.08	29.3055
1566.62	30.7417
1568.17	32.5341
1569.72	35.0511
1571.27	36.6115
1572.81	37.8531
1574.36	39.3281
1575.9	40.2586
1577.45	42.7522
1579	44.8438
1580.54	46.1872
1582.09	46.8497
1583.63	48.9668
1585.17	51.4248
1586.72	53.9225
1588.26	56.2913
1589.8	57.3798
1591.35	59.5477
1592.89	62.6156
1594.43	63.6553
1595.97	63.8726
1597.52	64.9717
1599.06	65.616
1600.6	65.7891
1602.14	65.8237
1603.68	65.0036
1605.22	65.8477
1606.76	67.07
1608.3	67.1669
1609.84	67.0872
1611.38	65.7287
1612.92	65.0887
1614.46	65.4904
1615.99	65.5065
1617.53	65.318
1619.07	65.5135
1620.61	65.5712
1622.14	65.4004
1623.68	65.2614
1625.22	63.6353
1626.75	63.2808
1628.29	63.3659
1629.82	63.2568
1631.36	62.9453
1632.9	63.8884
1634.43	64.0068
1635.96	64.8204
1637.5	65.2213
1639.03	66.5861
1640.57	68.5708
1642.1	69.8183
1643.63	71.2424
1645.16	71.9502
1646.7	72.1526
1648.23	71.7802
1649.76	73.0382
1651.29	73.1361
1652.82	73.644
1654.36	73.6992
1655.89	73.7947
1657.42	74.7161
1658.95	73.982
1660.48	73.4795
1662.01	72.0556
1663.53	71.3818
1665.06	70.5123
1666.59	68.5395
1668.12	65.7528
1669.65	62.3334
1671.18	58.2065
1672.7	54.9059
1674.23	51.8311
1675.76	47.9525
1677.29	44.8115
1678.81	41.6474
1680.34	39.4258
1681.86	36.943
1683.39	34.9372
1684.91	32.4032
1686.44	29.252
1687.96	26.8207
1689.49	24.1468
1691.01	21.5061
1692.54	19.7704
1694.06	17.7402
1695.58	15.5323
1697.11	12.9316
1698.63	12.0769
1700.15	10.9376
1701.67	8.40296
1703.2	8.92057
1704.72	8.27442
1706.24	7.86028
1707.76	6.89178
1709.28	7.30462
1710.8	5.62392
1712.32	5.09926
1713.84	4.78677
1715.36	4.50347
1716.88	4.33012
1718.4	3.27461
1719.91	3.43157
1721.43	3.81524
1722.95	3.15269
1724.47	4.46406
1725.99	5.29038
1727.5	4.96559
1729.02	5.04553
1730.54	4.84878
1732.05	5.38198
1733.57	5.46786
1735.09	4.07509
1736.6	4.4406
1738.12	4.52526
1739.63	4.8591
1741.15	4.44882
1742.66	4.05993
1744.18	3.24707
1745.69	3.48429
1747.2	3.28148
1748.72	3.25534
1750.23	3.4181
1751.74	3.29145
1753.25	3.27349
1754.77	2.95742
1756.28	2.29122
1757.79	2.32342
1759.3	2.79846
1760.81	1.75815
1762.32	0.499658
1763.83	0.0722986
1765.34	-0.984062
1766.85	-0.627946
1768.36	-0.201409
1769.87	-0.944969
1771.38	-1.41548
1772.89	-0.849071
1774.4	0.619496
1775.91	0.940706
1777.41	0.849455
1778.92	1.81972
1780.43	1.48989
1781.94	1.1108
1783.44	0.938557
1784.95	1.44545
1786.45	1.13101
1787.96	1.14854
1789.47	2.02984
1790.97	1.72115
1792.48	2.63153
1793.98	2.49429
1795.48	3.39384
1796.99	3.10898
1798.49	2.89977
1800	3.61749
1801.5	2.23736
1803	2.24683
1804.51	2.81202
1806.01	3.30811
1807.51	3.44059
1809.01	3.08701
1810.51	3.00594
1812.02	3.14015
1813.52	3.33007
1815.02	3.58694
1816.52	4.52435
1818.02	4.80665
1819.52	5.1208
1821.02	4.82884
1822.52	3.93188
1824.02	3.42509
1825.51	3.23044
1827.01	2.42964
1828.51	2.08572
1830.01	2.42252
1831.51	2.68203
1833	2.84651
1834.5	1.88947
1836	1.82004
1837.5	2.08872
1838.99	2.08341
1840.49	1.68892
1841.98	2.15179
1843.48	2.53516
1844.97	2.72234
1846.47	3.16915
1847.96	3.9334
1849.46	3.76381
1850.95	3.8941
1852.45	3.87946
1853.94	3.81726
1855.43	3.68346
1856.92	3.56622
1858.42	4.25449
1859.91	4.41593
1861.4	4.75241
1862.89	4.75461
1864.39	5.95372
1865.88	6.1466
1867.37	6.66804
1868.86	5.66987
1870.35	5.87447
1871.84	5.1092
1873.33	5.16177
1874.82	5.27334
1876.31	5.27101
1877.8	5.41911
1879.29	6.04011
1880.77	7.01249
1882.26	7.83231
1882.51	8.19757
1884	8.51119
1885.5	8.70216
1886.99	9.57903
1888.48	9.7016
1889.98	10.5365
1891.47	10.2193
1892.97	10.6575
1894.46	8.83087
1895.95	9.486
1897.44	8.87732
1898.93	8.86523
1900.42	7.48062
1901.92	7.4711
1903.41	7.9781
1904.9	7.87342
1906.39	6.93469
1907.88	6.61054
1909.37	6.56882
1910.86	5.71645
1912.35	5.10827
1913.84	4.88941
1915.32	4.45483
1916.81	4.24632
1918.3	4.77485
1919.79	5.50078
1921.28	6.55158
1922.76	5.71292
1924.25	6.57074
1925.74	6.61013
1927.22	7.06598
1928.71	6.93266
1930.2	7.06596
1931.68	7.35289
1933.17	7.12524
1934.65	7.65901
1936.14	8.12681
1937.62	8.51594
1939.11	7.98058
1940.59	8.05088
1942.08	7.94752
1943.56	8.70249
1945.04	9.41865
1946.53	9.90626
1948.01	10.9748
1949.49	11.6463
1950.97	12.1455
1952.45	13.5184
1953.94	13.9884
1955.42	13.7455
1956.9	12.9491
1958.38	12.8146
1959.86	12.5607
1961.34	12.2794
1962.82	12.1581
1964.3	11.6647
1965.78	11.3064
1967.26	11.1157
1968.74	10.3645
1970.22	10.3831
1971.69	8.09728
1973.17	7.71856
1974.65	7.2523
1976.13	7.09442
1977.61	7.01793
1979.08	6.3277
1980.56	5.47154
1982.03	5.53038
1983.51	4.64559
1984.99	4.51899
1986.46	5.00443
1987.94	5.02819
1989.41	5.42381
1990.89	6.54015
1992.36	6.57986
1993.84	7.14345
1995.31	6.36657
1996.78	5.0829
1998.26	5.98393
1999.73	5.6874
2001.2	5.25443
2002.68	4.77898
2004.15	5.31914
2005.62	6.20814
2007.09	6.30207
2008.56	6.95528
2010.04	7.80427
2011.51	7.81929
2012.98	8.16418
2014.45	8.37561
2015.92	8.00985
2017.39	8.27229
2018.86	8.63747
2020.33	8.33913
2021.8	8.38796
2023.27	8.44184
2024.74	7.97911
2026.2	7.84382
2027.67	7.67143
2029.14	7.54527
2030.61	7.03219
2032.07	7.90991
2033.54	6.60017
2035.01	6.71281
2036.47	7.56996
2037.94	7.38474
2039.41	8.35308
2040.87	8.36607
2042.34	7.79615
2043.8	7.31158
2045.27	6.99138
2046.73	8.27368
2048.2	9.04615
2049.66	9.59687
2051.12	10.617
2052.59	11.2794
2054.05	12.1594
2055.51	13.6779
2056.98	14.2599
2058.44	16.0957
2059.9	17.8314
2061.36	19.1717
2062.82	20.3946
2064.29	21.3958
2065.75	21.4986
2067.21	23.3222
2068.67	23.8293
2070.13	25.5635
2071.59	27.8149
2073.05	28.3082
2074.51	29.9125
2075.97	30.8686
2077.43	32.2451
2078.88	33.6472
2080.34	35.0351
2081.8	36.4089
2083.26	37.9119
2084.72	38.5206
2086.17	39.6232
2087.63	39.8234
2089.09	40.6733
2090.54	42.9419
2092	44.0212
2093.46	44.935
2094.91	46.2511
2096.37	47.7207
2097.82	48.2786
2099.28	49.2348
2100.73	49.8265
2102.19	50.4974
2103.64	51.3132
2105.09	52.4449
2106.55	53.0355
2108	54.5319
2109.46	56.97
2110.91	58.2109
2112.36	59.4841
2113.81	60.501
2115.27	62.5262
2116.72	64.7954
2118.17	66.313
2119.62	68.4349
2121.07	69.7274
2122.52	72.3422
2123.97	74.282
2125.42	76.4169
2126.87	79.2921
2128.32	82.3056
2129.77	83.683
2131.22	86.3108
2132.67	88.0004
2134.12	91.0924
2135.57	92.8997
2137.01	95.1314
2138.46	98.0092
2139.91	101.647
2141.36	104.462
2142.8	106.592
2144.25	108.613
2145.7	110.33
2147.14	112.668
2148.59	115.912
2150.03	118.666
2151.48	120.713
2152.92	122.514
2154.37	123.696
2155.81	125.374
2157.26	127.096
2158.7	128.328
2160.15	129.964
2161.59	131.808
2163.03	133.266
2164.48	133.229
2165.92	133.731
2167.36	134.433
2168.8	134.248
2170.25	134.605
2171.69	134.667
2173.13	135.107
2174.57	135.064
2176.01	134.291
2177.45	133.481
2178.89	133.456
2180.33	132.582
2181.77	132.926
2183.21	130.865
2184.65	128.928
2186.09	128.018
2187.53	126.76
2188.97	125.132
2190.41	123.002
2191.84	121.18
2193.28	120.141
2194.72	118.202
2196.16	116.335
2197.59	115.132
2199.03	114.101
2200.47	112.089
2201.9	109.651
2203.34	108.299
2204.78	105.801
2206.21	104.75
2207.65	102.504
2209.08	100.967
2210.51	98.7473
2211.95	96.3167
2213.38	93.9653
2214.82	91.9641
2216.25	89.9618
2217.68	86.9838
2219.12	85.0249
2220.55	83.6803
2221.98	80.4289
2223.42	77.9477
2224.85	75.22
2226.28	72.7707
2227.71	71.6874
2229.14	70.4135
2230.57	68.4404
2232	66.4683
2233.43	64.4731
2234.86	62.5279
2236.29	61.1415
2237.72	59.3716
2239.15	57.699
2240.58	56.1
2242.01	55.8978
2243.44	54.3434
2244.87	52.6609
2246.3	50.6647
2247.73	49.5477
2249.15	48.5345
2250.58	47.5625
2252.01	46.3315
2253.43	44.8479
2254.86	42.5427
2256.29	41.1761
2257.71	40.0774
2259.14	38.5422
2260.56	37.8674
2261.99	37.4617
2263.41	37.2374
2264.84	36.6064
2266.26	35.8119
2267.69	35.4764
2269.11	34.6129
2270.54	33.5922
2271.96	32.0465
2273.38	30.4832
2274.81	29.3115
2276.23	27.8995
2277.65	27.6503
2279.07	27.1747
2280.49	25.5637
2281.92	23.4202
2283.34	22.1017
2284.76	20.5907
2286.18	19.3448
2287.6	16.7863
2289.02	14.5055
2290.44	14.008
2291.86	12.1843
2293.28	10.4066
2294.7	9.72656
2296.12	9.17327
2297.54	8.81687
2298.96	8.77645
2300.38	6.40461
2301.79	5.7917
2303.21	5.36326
2304.63	5.44326
2306.05	4.57828
2307.46	3.68873
2308.88	3.4683
2310.3	4.19021
2311.71	4.32958
2313.13	4.67821
2314.55	3.13393
2315.96	3.13818
2317.38	3.41252
2318.79	2.82459
2320.21	1.63526
2321.62	1.92043
2323.03	1.63675
2324.45	1.84854
2325.86	2.41642
2327.27	3.19192
2328.69	4.20982
2330.1	5.04672
2331.51	6.57392
2332.93	7.5239
2334.34	8.03869
2335.75	8.01235
2337.16	7.73745
2338.57	8.01944
2339.99	8.49576
2341.4	8.21731
2342.81	8.95713
2344.22	8.95444
2345.63	9.14437
2347.04	8.5919
2348.45	8.79387
2349.86	7.61642
2351.26	6.14359
2352.67	5.22711
2354.08	4.85324
2355.49	4.80839
2356.9	4.73955
2358.31	3.96399
2359.71	4.19405
2361.12	4.62455
2362.53	4.42587
2363.94	5.35274
2365.34	5.00885
2366.75	4.47291
2368.15	4.10769
2369.56	3.35665
2370.97	2.20453
2372.37	3.34447
2373.78	3.78765
2375.18	3.37443
2376.59	3.1172
2377.99	3.4043
2379.39	3.45087
2380.8	3.09289
2382.2	2.42543
2383.61	2.52529
2385.01	1.73578
2386.41	2.90862
2387.81	3.06027
2389.22	3.33546
2390.62	3.84072
2392.02	5.29804
2393.42	5.95546
2394.82	6.98202
2396.22	6.94165
2397.63	7.22197
2399.02	7.86708
2400.43	8.64711
2401.82	9.46664
2403.23	10.1611
2404.62	10.3302
2406.02	10.5217
2407.42	11.2267
2408.82	12.6578
2410.22	12.4409
2411.62	12.6718
2413.02	13.1562
2414.41	12.7134
2415.81	12.7213
2417.21	12.4025
2418.61	13.0019
2420	13.0174
2421.4	13.0443
2422.79	14.3849
2424.19	14.0513
2425.59	15.0065
2426.98	14.4374
2428.38	14.1283
2429.77	13.1277
2431.17	12.7233
2432.56	11.969
2433.96	11.5421
2435.35	10.9218
2436.74	10.6358
2438.14	10.5355
2439.53	9.13316
2440.92	8.5979
2442.32	9.16259
2443.71	8.85631
2445.1	7.08976
2446.49	6.57965
2447.88	6.53508
2449.28	5.79981
2450.67	5.09455
2452.06	4.74428
2453.45	4.99367
2454.84	5.19292
2456.23	6.10293
2457.62	5.75746
2459.01	5.60927
2460.4	5.19895
2461.79	5.24564
2463.18	5.31837
2464.57	4.14216
2465.96	3.92767
2467.34	4.07946
2468.73	4.34737
2470.12	3.75384
2471.51	3.39278
2472.89	4.51257
2474.28	4.59583
2475.67	4.95765
2477.05	5.54173
2478.44	5.50548
2479.83	5.28024
2481.21	5.63563
2482.6	6.35941
2483.98	6.3619
2485.37	6.62689
2486.75	6.90757
2488.14	7.22556
2489.52	7.71614
2490.9	7.10002
2492.29	7.64715
2493.67	6.59192
2495.06	7.33815
2496.44	6.11369
2497.82	6.48278
2499.2	5.87417
2500.59	6.37158
2501.97	5.75683
2503.35	6.10011
2504.73	6.4127
2506.11	5.65532
2507.49	5.6049
2508.88	5.77101
2510.26	6.1442
2511.63	5.92583
2513.01	5.94246
2514.39	6.45844
2515.77	6.65581
2517.15	6.99703
2518.53	6.39931
2519.91	6.25324
2521.29	6.52799
2522.67	7.12273
2524.05	6.75071
2525.42	6.00949
2526.8	5.28642
2528.18	5.24839
2529.56	5.62122
2530.93	5.84064
2532.31	5.61424
2533.69	4.97565
2535.06	4.23852
2536.44	4.24415
2537.81	4.63434
2539.19	4.54308
2540.56	5.12555
2541.94	5.09977
2543.31	4.282
2544.69	4.08905
2546.06	4.56511
2547.44	4.41965
2548.81	5.40316
2550.18	4.9636
2551.56	4.72677
2552.93	4.22707
2554.3	4.46583
2555.68	4.09663
2557.05	3.61338
2558.42	4.06831
2559.79	4.02251
2561.16	4.32355
2562.53	4.15552
2563.9	4.69934
2565.28	4.71488
2566.64	4.94326
2568.02	4.37224
2569.38	4.3655
2570.76	4.7273
2572.12	4.55354
2573.49	4.38124
2574.86	3.81278
2576.23	4.14084
2577.6	4.59907
2578.97	3.46258
2580.34	2.78772
2581.7	3.4388
2583.07	3.33412
2584.44	3.268
2585.81	3.22523
2587.17	2.72468
2588.54	3.40379
2589.91	4.00446
2591.27	4.4965
2592.64	4.18708
2594	4.54268
2595.37	5.50977
2596.73	6.4559
2598.1	6.63245
2599.46	6.80921
2600.83	6.55993
2602.19	6.11349
2603.55	5.67358
2604.92	6.29716
2606.28	7.22019
2607.64	7.48578
2609.01	7.09379
2610.37	7.19728
2611.73	7.97767
2613.09	8.41551
2614.46	9.11353
2615.82	9.52234
2617.18	9.76466
2618.54	8.75108
2619.9	9.21904
2621.26	9.58083
2622.62	9.58727
2623.98	10.4224
2625.34	11.7834
2626.7	13.0703
2628.06	13.2241
2629.42	13.5253
2630.78	13.6976
2632.14	13.9209
2633.5	13.1332
2634.86	12.4391
2636.22	12.0609
2637.57	11.4714
2638.93	11.344
2640.29	10.8124
2641.64	10.8258
2643	9.8797
2644.36	10.007
2645.72	10.0412
2647.07	9.83539
2648.43	10.2144
2649.78	11.0702
2651.14	11.3928
2652.49	11.556
2653.85	11.5776
2655.2	12.3536
2656.56	12.9871
2657.91	12.5492
2659.27	11.8558
2660.62	12.2359
2661.97	13.839
2663.33	13.9628
2664.68	14.572
2666.03	14.7676
2667.38	15.2145
2668.74	14.4063
2670.09	14.154
2671.44	14.4605
2672.79	15.0915
2674.14	16.6402
2675.49	16.0838
2676.84	15.3778
2678.2	15.8698
2679.55	15.8649
2680.89	16.2337
2682.24	16.4922
2683.59	16.6829
2684.94	16.5344
2686.29	17.5321
2687.64	18.0457
2688.99	19.0202
2690.34	20.3621
2691.69	21.369
2693.04	21.4858
2694.38	20.9732
2695.73	19.9251
2697.08	19.4862
2698.43	18.1044
2699.77	17.0282
2701.12	16.5037
2702.46	16.0082
2703.81	16.8401
2705.16	16.5366
2706.5	16.888
2707.85	17.435
2709.19	17.6575
2710.54	18.4589
2711.88	18.6206
2713.23	19.3781
2714.57	19.8304
2715.92	19.1642
2717.26	18.7968
2718.6	18.6851
2719.95	18.5357
2721.29	19.0992
2722.63	18.6188
2723.97	18.9749
2725.32	18.4759
2726.66	18.5367
2728	18.7317
2729.34	18.6612
2730.68	17.2159
2732.02	16.7328
2733.36	15.065
2734.7	13.599
2736.04	11.8619
2737.39	11.2712
2738.72	10.867
2740.06	10.2401
2741.4	9.35967
2742.74	7.38133
2744.08	6.85856
2745.42	6.65494
2746.76	5.79591
2748.1	6.30038
2749.44	6.07507
2750.77	5.9087
2752.11	5.65644
2753.45	6.47638
2754.78	5.39264
2756.12	5.13357
2757.46	5.01588
2758.79	3.82602
2760.13	2.94909
2761.47	2.34298
2762.8	2.09633
2764.14	1.68994
2765.47	1.10914
2766.81	1.34276
2768.14	2.39069
2769.48	3.115
2770.81	4.10818
2772.14	3.81634
2773.48	4.43914
2774.81	4.6548
2776.14	4.33685
2777.48	4.49043
2778.81	3.53254
2780.14	4.35177
2781.47	3.90196
2782.81	3.5257
2784.14	4.611
2785.47	5.8122
2786.8	6.76168
2788.13	7.35624
2789.46	7.00342
2790.79	7.17155
2792.12	6.42845
2793.46	7.02555
2794.79	6.57574
2796.11	6.61957
2797.44	5.42565
2798.77	4.35276
2800.1	3.59583
2801.43	3.6988
2802.76	3.65541
2804.09	3.87482
2805.42	4.12941
2806.74	4.25549
2808.07	4.08865
2809.4	3.99918
2810.73	4.45707
2812.05	4.82185
2813.38	5.04461
2814.71	6.19326
2816.03	7.49503
2817.36	8.37879
2818.68	10.0059
2820.01	12.5149
2821.33	14.639
2822.66	17.7432
2823.98	22.0375
2825.31	26.4262
2826.63	30.2888
2827.96	34.9912
2829.28	39.3065
2830.61	43.7051
2831.93	48.856
2833.25	54.574
2834.57	60.2533
2835.9	65.9888
2837.22	71.4691
2838.54	76.3417
2839.86	82.427
2841.18	87.8431
2842.51	92.9404
2843.83	99.0794
2845.15	104.466
2846.47	111.274
2847.79	117.607
2849.11	123.609
2850.43	130
2851.75	135.94
2853.07	141.715
2854.39	147.363
2855.71	152.429
2857.03	157.654
2858.35	162.83
2859.67	167.637
2860.98	172.138
2862.3	176.589
2863.62	180.482
2864.94	184.186
2866.25	187.766
2867.57	190.66
2868.89	193.017
2870.21	195.386
2871.52	198.281
2872.84	200.313
2874.15	201.995
2875.47	203.894
2876.78	205.424
2878.1	207.483
2879.42	209.101
2880.73	211.156
2882.04	213.192
2883.36	214.921
2884.67	218.311
2885.99	221.992
2887.3	225.625
2888.61	229.93
2889.93	234.454
2891.24	237.3
2892.55	239.91
2893.87	243.732
2895.18	247.581
2896.49	252.786
2897.8	256.819
2899.11	261.555
2900.42	267.346
2901.74	273.237
2903.05	278.799
2904.36	285.075
2905.67	292.484
2906.98	299.147
2908.29	307.497
2909.6	317.242
2910.91	325.625
2912.22	335.713
2913.53	344.658
2914.83	353.994
2916.14	365.315
2917.45	374.614
2918.76	383.595
2920.07	391.727
2921.37	400.009
2922.68	408.125
2923.99	416.432
2925.3	423.345
2926.6	428.711
2927.91	433.312
2929.22	437.144
2930.52	440.335
2931.83	443.324
2933.13	445.951
2934.44	447.344
2935.74	447.218
2937.05	445.425
2938.35	443.073
2939.66	439.745
2940.96	434.866
2942.27	429.74
2943.57	424.142
2944.87	417.628
2946.18	411.149
2947.48	404.309
2948.78	396.946
2950.09	389.238
2951.39	380.453
2952.69	370.681
2953.99	360.668
2955.29	350.64
2956.6	339.781
2957.9	329.678
2959.2	320.083
2960.5	310.184
2961.8	300.527
2963.1	289.981
2964.4	281.223
2965.7	272.974
2967	264.52
2968.3	257.255
2969.6	249.331
2970.9	241.546
2972.2	235.445
2973.49	228.927
2974.79	222.357
2976.09	215.594
2977.39	209.897
2978.69	203.52
2979.98	197.921
2981.28	192.32
2982.58	184.973
2983.88	178.444
2985.17	172.738
2986.47	167.165
2987.76	160.835
2989.06	154.92
2990.36	148.094
2991.65	142.009
2992.95	136.307
2994.24	130.635
2995.54	124.762
2996.83	119.235
2998.12	113.073
2999.42	106.103
3000.71	100.123
3002	94.0641
3003.3	88.2811
3004.59	82.4749
3005.88	76.8876
3007.18	71.7087
3008.47	65.9992
3009.76	60.9268
3011.05	56.2436
3012.35	51.6834
3013.64	47.2821
3014.93	43.9023
3016.22	39.8873
3017.51	35.7047
3018.8	32.1959
3020.09	29.3171
3021.38	25.2193
3022.67	22.2857
3023.96	19.8699
3025.25	17.2318
3026.54	15.3387
3027.83	12.8912
3029.12	12.028
3030.41	11.1144
3031.69	10.4985
3032.98	9.02721
3034.27	7.80303
3035.56	7.11375
3036.85	6.32112
3038.13	5.21848
3039.42	4.96974
3040.71	5.02831
3041.99	5.46249
3043.28	5.64748
3044.57	6.14543
3045.85	6.71153
3047.14	6.59578
3048.42	6.77083
3049.71	7.0997
3050.99	7.69415
3052.28	8.03267
3053.56	8.48603
3054.85	8.25506
3056.13	8.2255
3057.42	8.21335
3058.7	8.70218
3059.98	8.73959
3061.27	9.36025
3062.55	8.66496
3063.83	8.67614
3065.11	8.77864
3066.4	7.94217
3067.68	8.19828
3068.96	8.08486
3070.24	7.9006
3071.52	7.37077
3072.8	6.76735
3074.09	7.14067
3075.37	6.90298
3076.65	6.32836
3077.93	5.51838
3079.21	4.78112
3080.49	3.73774
3081.77	2.75701
3083.05	2.29642
3084.32	2.24731
3085.61	1.40713
3086.88	1.35139
3088.16	0.792285
3089.44	0.211865
3090.72	0.235792
3092	0.0412581
3093.27	0.505953
3094.55	0.892972
3095.83	1.59417
3097.11	1.11543
3098.38	1.57072
3099.66	1.84367
3100.94	2.65755
3102.21	4.17906
3103.49	5.5466
3104.76	6.52843
3106.04	7.79619
3107.31	8.93908
3108.59	10.1642
3109.86	11.6093
3111.14	12.0138
3112.41	12.9315
3113.69	13.7167
3114.96	15.3851
3116.23	16.0089
3117.51	16.8256
3118.78	17.75
3120.05	19.3148
3121.33	21.0644
3122.6	22.2374
3123.87	23.5174
3125.14	24.8061
3126.42	25.9873
3127.69	27.9522
3128.96	29.4362
3130.23	30.7226
3131.5	32.3508
3132.77	32.9678
3134.04	34.4167
3135.31	35.0107
3136.58	35.9304
3137.85	37.5537
3139.12	38.5259
3140.39	40.0872
3141.66	41.9415
3142.93	43.7666
3144.2	45.5638
3145.47	47.5104
3146.74	49.3688
3148	51.3738
3149.27	54.7181
