#Acq. time (s)=	45
#Accumulations=	2
#Range (cm-¹)=	200...3150
#Windows=	2
#Auto scanning=	Off
#Autofocus=	Off
#Macrospot=	Off
#AutoExposure=	Off
#Spike filter=	Multiple accum.
#Delay time (s)=	0
#Binning=	1
#Readout mode=	Signal
#DeNoise=	Off
#ICS correction=	On
#Dark correction=	Off
#Inst. Process=	Off
#Detector Gain=	Best Dynamic Range
#Detector ADC=	20 kHz       
#Detector temperature (°C)=	-69.85
#Instrument=	LabRAM HR Evol
#Detector=	Synapse
#Objective=	x100
#Grating=	600 gr/mm
#ND Filter=	100%
#Laser (nm)=	532 
#Hole=	100.021
#Range=	Auto
#Laser Pol.=	No
#Raman. Pol.=	No
#Laser Pol. (°)=	-0.0007625
#Raman Pol. (°)=	89.9995
#Collection=	Microscope
#StageXY=	Marzhauser
#StageZ=	Marzhauser
#X (µm)=	28287.9
#Y (µm)=	-3238.1
#Z (µm)=	1041.05
#Full time(mm:ss)=	3:19
#Project=	
#Sample=	
#Site=	
#Title=	Mb_50_18_33_2x_45s_532 nm_x100_100%_600 gr_mm
#Remark=	
#Date=	12.07.2022 13:23
#Acquired=	12.07.2022 13:23:53
#Base:Fit=	10.08.2022 10:49:18
#Base:Sub=	10.08.2022 10:49:30
#Filter:Polynom=	16.08.2022 10:14:59
#AxisType[0]=Intens
#AxisUnit[0]=Cnt
#AxisType[1]=Spectr
#AxisUnit[1]=1/cm
200.388	26.7321
202.204	26.3431
204.019	24.5216
205.832	22.74
207.646	20.95
209.459	19.2677
211.274	17.6694
213.087	16.0305
214.899	15.8583
216.711	14.6741
218.524	13.0959
220.335	13.2585
222.146	12.8261
223.956	13.4453
225.766	11.955
227.576	9.79997
229.388	9.90769
231.197	8.98328
233.005	9.0273
234.813	9.03366
236.621	8.83069
238.429	8.38458
240.236	8.30378
242.045	7.9251
243.852	8.80145
245.658	9.43219
247.464	9.34686
249.269	8.68537
251.074	9.52844
252.879	9.44867
254.683	9.62646
256.487	10.8579
258.291	12.2737
260.094	14.0123
261.897	15.3875
263.702	15.7937
265.504	16.125
267.306	15.7048
269.108	16.5361
270.909	16.6393
272.71	16.6537
274.511	15.6895
276.311	16.0396
278.111	15.6286
279.91	16.0326
281.709	15.4427
283.508	14.5472
285.306	14.2124
287.105	13.4973
288.9	11.6151
290.698	11.0974
292.495	11.0486
294.291	11.5174
296.088	11.8006
297.884	12.6999
299.679	13.0748
301.475	13.4694
303.27	13.4457
305.064	13.7309
306.858	12.0353
308.652	13.198
310.444	13.8464
312.237	13.4334
314.03	14.5341
315.822	13.4852
317.615	14.2309
319.406	16.4251
321.198	17.7055
322.987	18.7448
324.778	19.9591
326.568	19.8109
328.358	20.1409
330.148	22.0804
331.935	23.3982
333.724	25.4576
335.513	26.1513
337.301	26.1629
339.089	26.4823
340.875	28.7301
342.662	28.4666
344.449	29.4437
346.236	31.041
348.02	31.5461
349.806	32.3504
351.592	33.2591
353.375	33.8628
355.16	34.7861
356.944	35.1068
358.728	36.1707
360.51	37.58
362.294	38.3267
364.077	39.0416
365.858	40.2786
367.64	40.9389
369.422	41.417
371.202	41.6561
372.983	41.63
374.764	40.7763
376.543	40.356
378.324	40.8149
380.102	41.8508
381.881	42.9389
383.661	42.75
385.438	43.2475
387.216	43.0005
388.993	41.2711
390.771	40.108
392.548	39.0008
394.324	38.7434
396.101	37.2274
397.875	37.1691
399.651	35.7061
401.425	35.1131
403.201	35.2414
404.974	33.712
406.749	32.7998
408.524	31.58
410.296	30.3862
412.07	28.8183
413.841	27.068
415.614	25.5333
417.385	24.7877
419.156	24.4724
420.928	22.1281
422.698	20.804
424.469	19.2477
426.238	16.7905
428.009	15.5233
429.777	15.0823
431.548	13.0526
433.315	12.7486
435.083	13.1016
436.852	12.2113
438.618	11.2403
440.387	10.9144
442.153	10.3448
443.919	10.2591
445.686	9.23336
447.451	9.13624
449.218	9.25698
450.982	8.87765
452.746	9.26249
454.512	9.35222
456.275	8.53917
458.038	8.09062
459.803	7.87276
461.565	7.99846
463.327	8.40976
465.091	9.50575
466.852	9.36684
468.613	9.4558
470.374	9.86526
472.136	10.0374
473.896	11.4072
475.655	11.163
477.415	11.1147
479.176	12.6558
480.934	13.5095
482.692	13.9609
484.45	15.0746
486.21	16.533
487.967	18.7826
489.724	21.1135
491.481	23.4394
493.237	24.7444
494.995	26.2945
496.75	28.1671
498.506	30.5375
500.26	32.3779
502.015	32.9727
503.771	35.2154
505.525	36.7824
507.279	38.5229
509.032	39.2809
510.785	40.1272
512.537	39.9935
514.289	39.1528
516.041	39.0699
517.793	38.4936
519.546	37.375
521.297	37.4096
523.047	36.629
524.797	34.6815
526.547	32.8712
528.297	32.4958
530.046	31.3259
531.795	29.739
533.543	28.1685
535.291	27.2709
537.039	26.3399
538.787	24.7302
540.534	22.3311
542.281	20.1095
544.027	18.1675
545.773	16.6638
547.519	15.5391
549.264	14.1756
551.01	11.6482
552.754	9.15331
554.499	8.28871
556.243	7.13212
557.987	6.18662
559.73	4.99127
561.474	3.53115
563.216	1.5121
564.959	0.900239
566.701	0.544523
568.441	0.622229
570.182	0.755585
571.923	0.744772
573.664	0.284091
575.405	1.73295
577.145	1.59445
578.885	1.06066
580.624	1.41614
582.361	1.81568
584.1	2.00203
585.839	2.22425
587.577	2.96316
589.315	3.01634
591.052	3.41917
592.787	4.48089
594.524	4.29998
596.26	4.11863
597.997	4.26074
599.732	4.81115
601.466	4.72799
603.201	4.88856
604.936	5.30751
606.67	5.29403
608.403	5.05713
610.136	4.81543
611.87	4.68709
613.603	4.55165
615.334	5.15177
617.067	5.54562
618.799	5.60027
620.529	6.22573
622.26	6.49673
623.991	7.04932
625.72	5.96004
627.451	5.69397
629.181	6.10683
630.909	5.85444
632.638	6.06817
634.368	6.32014
636.095	6.01534
637.823	5.75198
639.551	6.05253
641.277	6.61596
643.005	5.79404
644.73	6.0437
646.457	6.24106
648.184	7.19052
649.908	7.35087
651.634	8.24626
653.357	8.63263
655.083	9.3972
656.806	7.91005
658.53	8.30548
660.253	9.65058
661.977	10.6016
663.7	10.6707
665.422	12.1751
667.145	13.5898
668.865	14.3486
670.588	14.5737
672.308	15.1748
674.027	16.306
675.749	16.6202
677.468	17.6908
679.188	19.4992
680.907	20.4359
682.627	20.6948
684.345	21.9418
686.064	21.7155
687.781	21.222
689.498	21.4195
691.216	22.0576
692.932	22.2685
694.65	22.2455
696.366	23.398
698.081	23.8483
699.797	24.599
701.512	25.4926
703.228	25.0198
704.942	26.0284
706.655	27.2323
708.371	27.4984
710.083	27.765
711.796	27.0739
713.51	27.9732
715.222	28.7503
716.934	29.0691
718.645	28.8715
720.358	28.8042
722.068	29.3433
723.779	29.2708
725.49	29.6439
727.2	28.9265
728.909	28.6403
730.618	29.6558
732.329	29.8806
734.037	31.0203
735.745	31.9902
737.453	33.3414
739.16	35.5215
740.869	37.2829
742.576	40.3719
744.282	44.5893
745.988	47.2625
747.694	49.6337
749.401	52.3637
751.107	56.084
752.811	59.0214
754.516	62.1286
756.22	64.6203
757.924	67.3921
759.627	69.9508
761.332	72.0228
763.035	74.8295
764.738	76.5113
766.44	78.4756
768.142	79.1084
769.843	81.1456
771.544	81.8861
773.245	83.2318
774.946	84.3402
776.646	85.9574
778.346	87.2666
780.046	87.7689
781.745	89.1316
783.444	89.6967
785.143	89.2776
786.841	89.2677
788.539	89.608
790.237	91.0513
791.934	90.1678
793.631	88.8885
795.328	88.2937
797.024	86.0022
798.72	84.8573
800.416	83.1853
802.112	80.1367
803.807	78.1011
805.502	75.7768
807.196	74.4553
808.89	72.4723
810.584	70.4347
812.278	68.9899
813.971	68.7039
815.664	67.2118
817.354	65.783
819.047	65.8177
820.739	64.7441
822.43	63.3619
824.122	63.1184
825.813	63.0717
827.503	63.5268
829.192	62.3932
830.882	61.3628
832.571	60.9513
834.261	60.4143
835.95	60.276
837.637	59.1017
839.325	57.9554
841.013	57.3888
842.701	55.7884
844.389	54.5879
846.074	53.2571
847.761	52.6761
849.447	50.642
851.131	49.8154
852.817	48.2788
854.503	46.7341
856.188	45.993
857.871	45.1413
859.556	44.7622
861.24	44.7739
862.922	44.4506
864.606	43.4212
866.289	42.5829
867.97	41.7515
869.653	40.9835
871.336	40.7755
873.016	40.6068
874.698	40.0972
876.379	39.7475
878.058	39.9834
879.739	39.3097
881.418	38.2966
883.098	38.6104
884.778	37.8781
886.456	37.5517
888.135	38.5831
889.812	38.3346
891.49	39.4794
893.167	39.0439
894.845	38.2992
896.523	38.3703
898.198	37.8348
899.875	36.8582
901.55	37.6938
903.226	38.6634
904.901	38.1242
906.576	38.9516
908.25	39.7537
909.925	40.5869
911.598	40.89
913.271	41.0208
914.945	41.2238
916.617	41.1201
918.291	41.2989
919.962	40.9573
921.635	41.0344
923.306	41.4619
924.978	41.4296
926.648	39.9831
928.318	39.6377
929.989	39.1744
931.659	38.3429
933.328	37.2083
934.998	36.8279
936.666	36.3551
938.336	35.8867
940.004	36.2581
941.671	35.3343
943.34	33.9889
945.007	33.4528
946.673	32.5879
948.339	31.3858
950.007	30.1723
951.672	29.8086
953.337	29.5597
955.004	29.6486
956.669	29.78
958.333	29.1065
959.997	28.5342
961.662	27.1404
963.326	25.491
964.989	24.3327
966.651	22.4957
968.315	21.6106
969.977	21.0486
971.639	20.468
973.301	18.6534
974.962	17.0999
976.624	16.1819
978.285	16.1833
979.945	15.7357
981.605	15.888
983.264	14.477
984.924	14.0811
986.583	13.5868
988.243	13.4596
989.901	13.9846
991.56	13.6344
993.217	13.8411
994.875	14.841
996.532	15.5769
998.188	16.5163
999.845	18.1555
1001.5	19.5259
1003.16	20.8017
1004.81	22.8187
1006.47	25.0134
1008.12	26.7272
1009.78	28.3794
1011.43	30.5586
1013.09	32.0954
1014.74	33.4625
1016.39	35.9165
1018.05	38.9732
1019.7	41.1039
1021.35	42.4502
1023	44.0806
1024.65	45.0039
1026.31	46.4894
1027.96	48.0221
1029.61	48.8005
1031.26	49.5564
1032.91	50.2471
1034.56	50.7298
1036.21	51.437
1037.86	51.2788
1039.51	49.8458
1041.16	48.6147
1042.8	47.5179
1044.45	45.4091
1046.1	44.3642
1047.75	42.8635
1049.39	42.0974
1051.04	41.5892
1052.69	40.0064
1054.33	38.7789
1055.98	37.7155
1057.62	36.1336
1059.27	35.394
1060.91	34.1007
1062.56	32.2053
1064.2	31.1798
1065.85	29.4532
1067.49	29.3868
1069.13	28.1651
1070.77	28.6108
1072.42	28.0829
1074.06	28.1023
1075.7	28.1175
1077.34	28.9619
1078.98	29.1546
1080.62	29.6016
1082.27	30.2903
1083.91	29.4653
1085.55	29.4497
1087.18	28.6406
1088.82	30.6408
1090.46	31.1676
1092.1	31.1788
1093.74	32.0388
1095.38	32.2916
1097.02	32.9932
1098.65	33.7254
1100.29	34.096
1101.93	33.2976
1103.56	32.5286
1105.2	32.1584
1106.84	32.1779
1108.47	30.8375
1110.11	29.5717
1111.74	29.0368
1113.38	28.2218
1115.01	26.6336
1116.64	25.4192
1118.28	24.447
1119.91	23.0984
1121.54	21.4545
1123.18	20.3583
1124.81	18.8206
1126.44	18.0219
1128.07	18.2178
1129.7	16.6374
1131.33	15.3573
1132.97	13.6944
1134.6	12.9615
1136.23	11.9951
1137.86	11.0637
1139.49	9.61333
1141.11	9.9795
1142.74	9.24599
1144.37	8.42286
1146	7.71407
1147.63	6.26644
1149.26	5.20934
1150.88	4.06151
1152.51	4.55896
1154.14	3.05656
1155.76	2.74362
1157.39	2.22299
1159.01	2.4072
1160.64	2.93754
1162.27	2.12918
1163.89	2.17151
1165.51	1.43937
1167.14	2.37711
1168.76	3.91379
1170.39	5.82234
1172.01	5.87081
1173.63	5.88269
1175.25	6.69289
1176.88	6.55456
1178.5	6.62093
1180.12	6.29749
1181.74	6.4621
1183.36	6.39041
1184.98	5.96327
1186.6	5.98431
1188.22	6.47287
1189.84	4.98648
1191.46	5.97405
1193.08	6.49435
1194.7	6.51264
1196.32	6.51221
1197.94	7.18097
1199.55	7.16229
1201.17	7.12568
1202.79	6.9788
1204.41	7.27154
1206.02	7.07892
1207.64	8.00717
1209.25	8.19059
1210.87	8.10698
1212.48	9.56178
1214.1	10.4345
1215.71	12.217
1217.33	12.5462
1218.94	12.9984
1220.56	14.1131
1222.17	14.9199
1223.79	14.6806
1225.4	15.9402
1227.01	17.22
1228.62	17.4965
1230.23	18.9707
1231.85	21.2014
1233.46	23.0753
1235.07	24.2655
1236.68	25.6758
1238.29	27.4892
1239.9	28.5405
1241.51	29.8266
1243.12	30.8922
1244.73	33.6034
1246.34	35.3267
1247.94	36.5364
1249.55	37.1155
1251.16	37.7013
1252.77	38.531
1254.37	38.7177
1255.98	38.8983
1257.59	39.7331
1259.2	41.0882
1260.8	40.9797
1262.41	41.6136
1264.01	42.4664
1265.62	43.4376
1267.22	44.5851
1268.83	46.5112
1270.43	47.0851
1272.03	48.4481
1273.64	49.43
1275.24	49.9727
1276.85	50.931
1278.45	52.1972
1280.05	52.6391
1281.65	53.1733
1283.25	53.4063
1284.85	53.6998
1286.46	54.1387
1288.06	54.6453
1289.66	54.3646
1291.26	54.5807
1292.86	54.0877
1294.46	53.5191
1296.06	52.875
1297.66	51.8213
1299.25	52.0118
1300.85	51.8646
1302.45	52.0385
1304.05	51.9229
1305.65	52.9824
1307.24	52.4343
1308.84	51.9645
1310.43	53.6025
1312.03	53.6402
1313.63	53.2316
1315.22	52.3233
1316.82	51.4159
1318.41	50.8986
1320.01	50.5094
1321.6	50.259
1323.2	49.9012
1324.79	49.4226
1326.38	48.1269
1327.98	46.9477
1329.57	46.4877
1331.16	46.6492
1332.76	46.0844
1334.35	45.5843
1335.94	45.8823
1337.53	46.5895
1339.12	46.4781
1340.71	45.4767
1342.3	45.8289
1343.89	46.0378
1345.48	46.251
1347.07	46.08
1348.66	46.0321
1350.25	45.4164
1351.84	45.2898
1353.43	45.5138
1355.01	45.7487
1356.6	45.1732
1358.19	44.4112
1359.77	43.0027
1361.36	41.9853
1362.95	42.1331
1364.53	41.8408
1366.12	41.417
1367.71	40.6484
1369.29	39.3491
1370.88	38.7042
1372.46	37.9294
1374.04	37.3865
1375.63	36.3113
1377.21	35.4192
1378.8	35.3834
1380.38	34.3976
1381.96	34.3167
1383.54	33.7059
1385.13	33.598
1386.71	32.7907
1388.29	32.3853
1389.87	31.6494
1391.45	30.3434
1393.03	28.6436
1394.61	28.0545
1396.19	27.8992
1397.77	28.1538
1399.35	28.3973
1400.93	27.9296
1402.51	27.962
1404.09	28.7535
1405.67	28.9168
1407.24	29.9655
1408.82	30.5898
1410.4	31.5137
1411.98	32.5115
1413.55	34.3495
1415.13	36.548
1416.71	38.0979
1418.28	39.5287
1419.86	41.4708
1421.43	44.1426
1423.01	46.5172
1424.58	48.9658
1426.16	50.6522
1427.73	52.747
1429.31	55.3677
1430.88	57.05
1432.45	59.1177
1434.02	60.8686
1435.6	62.031
1437.17	64.3582
1438.74	66.3857
1440.31	68.6771
1441.88	70.2098
1443.45	69.6827
1445.03	70.9688
1446.6	70.8959
1448.17	71.1938
1449.74	71.6641
1451.3	70.8916
1452.87	70.4344
1454.44	69.8139
1456.01	69.7319
1457.58	69.7811
1459.15	69.9365
1460.72	70.0336
1462.28	69.5573
1463.85	69.1565
1465.42	68.3046
1466.98	67.2634
1468.55	65.9442
1470.12	65.5219
1471.68	64.0693
1473.25	63.8536
1474.81	62.6043
1476.38	61.2289
1477.94	58.1805
1479.51	57.1471
1481.07	56.2362
1482.63	55.0298
1484.2	53.9513
1485.76	53.4107
1487.32	52.3152
1488.88	51.3545
1490.45	51.049
1492.01	50.2603
1493.57	48.4352
1495.13	46.943
1496.69	46.1933
1498.25	45.8011
1499.81	44.1608
1501.37	42.9623
1502.93	42.0065
1504.49	40.6961
1506.05	39.4027
1507.61	39.0125
1509.17	37.6923
1510.73	36.7234
1512.28	35.1294
1513.84	34.0357
1515.4	33.3094
1516.96	32.7903
1518.51	32.121
1520.07	30.6646
1521.63	30.3642
1523.18	31.2108
1524.74	30.4208
1526.29	30.2186
1527.85	29.5609
1529.4	28.9877
1530.96	29.3704
1532.51	29.3315
1534.06	30.3148
1535.62	30.6498
1537.17	32.026
1538.72	31.8175
1540.28	32.6317
1541.83	33.4721
1543.38	34.0258
1544.93	35.1827
1546.48	35.7825
1548.03	36.3847
1549.59	36.631
1551.14	36.9755
1552.69	37.6523
1554.24	37.9809
1555.79	37.8506
1557.34	39.4162
1558.88	40.7198
1560.43	40.6863
1561.98	41.7828
1563.53	42.4418
1565.08	43.1957
1566.62	43.506
1568.17	43.7976
1569.72	43.6838
1571.27	44.1829
1572.81	45.3812
1574.36	45.9828
1575.9	46.847
1577.45	47.2194
1579	48.4989
1580.54	48.7317
1582.09	49.1218
1583.63	49.4282
1585.17	50.171
1586.72	49.6498
1588.26	49.4684
1589.8	50.3803
1591.35	51.1469
1592.89	51.6812
1594.43	51.3886
1595.97	50.3651
1597.52	50.4102
1599.06	50.0941
1600.6	50.214
1602.14	49.013
1603.68	48.3297
1605.22	48.2525
1606.76	47.6956
1608.3	47.7988
1609.84	48.6592
1611.38	49.6589
1612.92	49.6187
1614.46	49.3517
1615.99	49.5873
1617.53	50.519
1619.07	50.732
1620.61	51.4779
1622.14	52.1519
1623.68	51.8969
1625.22	51.7343
1626.75	52.0675
1628.29	52.8026
1629.82	53.7402
1631.36	54.0442
1632.9	54.1438
1634.43	54.7387
1635.96	55.8104
1637.5	55.007
1639.03	56.262
1640.57	57.4058
1642.1	58.0726
1643.63	57.8124
1645.16	58.2201
1646.7	58.7529
1648.23	59.5051
1649.76	59.9682
1651.29	60.5993
1652.82	61.8515
1654.36	61.8234
1655.89	62.1291
1657.42	62.1393
1658.95	61.4345
1660.48	60.4023
1662.01	59.9174
1663.53	59.7961
1665.06	58.9163
1666.59	57.6319
1668.12	55.6558
1669.65	54.8498
1671.18	52.7647
1672.7	51.8415
1674.23	50.883
1675.76	49.1003
1677.29	48.2454
1678.81	45.932
1680.34	44.5451
1681.86	43.3529
1683.39	41.1518
1684.91	39.9818
1686.44	38.0884
1687.96	35.807
1689.49	33.038
1691.01	31.7498
1692.54	31.246
1694.06	29.9292
1695.58	28.5188
1697.11	27.0926
1698.63	26.2319
1700.15	24.7774
1701.67	23.3832
1703.2	22.8445
1704.72	21.9328
1706.24	20.8947
1707.76	19.4867
1709.28	18.6278
1710.8	18.1936
1712.32	18.4097
1713.84	18.0627
1715.36	18.8076
1716.88	18.684
1718.4	18.2358
1719.91	18.5017
1721.43	19.0544
1722.95	19.0689
1724.47	19.4868
1725.99	20.2891
1727.5	20.3769
1729.02	20.6363
1730.54	20.4214
1732.05	20.8345
1733.57	21.0474
1735.09	21.294
1736.6	21.5643
1738.12	21.4192
1739.63	21.5679
1741.15	20.965
1742.66	21.0458
1744.18	21.5828
1745.69	21.2618
1747.2	20.6089
1748.72	20.9035
1750.23	20.6869
1751.74	20.5866
1753.25	20.5016
1754.77	19.9798
1756.28	19.9828
1757.79	19.4743
1759.3	18.776
1760.81	18.8076
1762.32	18.4284
1763.83	18.5895
1765.34	18.1648
1766.85	18.8227
1768.36	18.3944
1769.87	17.8668
1771.38	17.0345
1772.89	16.8286
1774.4	17.0882
1775.91	15.9792
1777.41	15.7082
1778.92	15.495
1780.43	15.0686
1781.94	15.0464
1783.44	14.9956
1784.95	15.4069
1786.45	15.2147
1787.96	14.9934
1789.47	14.4083
1790.97	13.779
1792.48	13.6244
1793.98	14.2089
1795.48	14.4503
1796.99	14.1614
1798.49	13.866
1800	14.0652
1801.5	14.1694
1803	13.605
1804.51	13.8558
1806.01	13.705
1807.51	13.677
1809.01	13.3588
1810.51	13.1025
1812.02	12.5083
1813.52	12.1907
1815.02	12.1562
1816.52	11.7346
1818.02	11.6163
1819.52	11.5938
1821.02	11.0186
1822.52	11.2768
1824.02	11.1923
1825.51	11.4683
1827.01	11.2892
1828.51	11.411
1830.01	11.5081
1831.51	11.3894
1833	11.1215
1834.5	11.5022
1836	11.9213
1837.5	11.8624
1838.99	11.7506
1840.49	11.3752
1841.98	11.5664
1843.48	11.4054
1844.97	11.1813
1846.47	10.7983
1847.96	11.0446
1849.46	11.3362
1850.95	10.9253
1852.45	11.5415
1853.94	11.7733
1855.43	11.9505
1856.92	12.0276
1858.42	12.7608
1859.91	12.5225
1861.4	12.2015
1862.89	12.8437
1864.39	13.1604
1865.88	13.6198
1867.37	14.5813
1868.86	14.9585
1870.35	15.1364
1871.84	14.8531
1873.33	14.9033
1874.82	15.5235
1876.31	15.627
1877.8	15.3127
1879.29	15.404
1880.77	15.2891
1882.26	15.1208
1882.51	15.0596
1884	15.1287
1885.5	14.3173
1886.99	13.0876
1888.48	11.9622
1889.98	11.08
1891.47	10.3292
1892.97	9.8545
1894.46	8.86992
1895.95	8.81989
1897.44	8.34509
1898.93	7.81966
1900.42	7.1715
1901.92	6.84517
1903.41	6.28194
1904.9	6.22838
1906.39	5.87743
1907.88	5.69458
1909.37	5.88071
1910.86	5.78948
1912.35	5.8597
1913.84	5.09959
1915.32	5.1621
1916.81	5.04362
1918.3	4.29668
1919.79	3.98678
1921.28	3.65479
1922.76	3.90982
1924.25	3.6171
1925.74	4.28361
1927.22	4.74684
1928.71	4.42277
1930.2	4.53228
1931.68	4.18424
1933.17	3.85871
1934.65	4.61864
1936.14	4.88562
1937.62	5.07094
1939.11	4.75998
1940.59	4.41148
1942.08	4.59303
1943.56	5.03063
1945.04	4.55671
1946.53	4.80781
1948.01	5.00878
1949.49	4.94257
1950.97	4.88547
1952.45	4.68373
1953.94	4.33019
1955.42	4.39024
1956.9	3.79711
1958.38	3.1026
1959.86	1.83338
1961.34	1.12413
1962.82	1.56982
1964.3	1.38931
1965.78	1.6509
1967.26	1.70847
1968.74	1.75217
1970.22	1.96409
1971.69	1.97616
1973.17	2.36978
1974.65	2.68178
1976.13	2.663
1977.61	2.81333
1979.08	3.04403
1980.56	3.04062
1982.03	3.70813
1983.51	4.06768
1984.99	4.05721
1986.46	3.8775
1987.94	4.03429
1989.41	4.7157
1990.89	4.24124
1992.36	4.28095
1993.84	4.29226
1995.31	4.74271
1996.78	5.54885
1998.26	5.67597
1999.73	5.72869
2001.2	5.37779
2002.68	4.65944
2004.15	4.86007
2005.62	4.45218
2007.09	4.80805
2008.56	4.89185
2010.04	4.647
2011.51	4.26192
2012.98	3.48708
2014.45	3.93722
2015.92	4.86851
2017.39	4.38167
2018.86	3.69324
2020.33	3.54419
2021.8	3.96037
2023.27	3.62254
2024.74	2.92837
2026.2	2.60615
2027.67	3.34498
2029.14	3.23234
2030.61	2.59974
2032.07	2.75104
2033.54	2.69608
2035.01	3.52221
2036.47	4.3742
2037.94	3.83715
2039.41	4.27746
2040.87	4.21104
2042.34	4.63194
2043.8	4.698
2045.27	5.41014
2046.73	5.94921
2048.2	5.81633
2049.66	6.38672
2051.12	7.40147
2052.59	7.89279
2054.05	8.83915
2055.51	9.68397
2056.98	10.1993
2058.44	10.9535
2059.9	11.9594
2061.36	12.6471
2062.82	13.339
2064.29	13.2734
2065.75	14.5648
2067.21	15.1433
2068.67	16.906
2070.13	17.6811
2071.59	18.1024
2073.05	17.6961
2074.51	18.2979
2075.97	18.3812
2077.43	18.8157
2078.88	18.2112
2080.34	18.8508
2081.8	19.1146
2083.26	19.7948
2084.72	20.7656
2086.17	21.1041
2087.63	22.5937
2089.09	23.3707
2090.54	23.1108
2092	24.1428
2093.46	25.361
2094.91	26.2083
2096.37	26.3491
2097.82	27.4324
2099.28	28.0009
2100.73	28.8273
2102.19	28.9334
2103.64	29.878
2105.09	31.0398
2106.55	32.2121
2108	33.7304
2109.46	34.1701
2110.91	34.2483
2112.36	35.7881
2113.81	36.9904
2115.27	37.9788
2116.72	38.8069
2118.17	40.6126
2119.62	41.8788
2121.07	42.7423
2122.52	44.7267
2123.97	45.8985
2125.42	46.9999
2126.87	48.4233
2128.32	49.921
2129.77	50.9719
2131.22	52.3222
2132.67	53.6886
2134.12	55.2223
2135.57	57.3303
2137.01	58.6527
2138.46	60.913
2139.91	62.2741
2141.36	63.564
2142.8	64.5225
2144.25	65.8751
2145.7	66.7284
2147.14	68.3564
2148.59	70.192
2150.03	72.3969
2151.48	73.1075
2152.92	75.7045
2154.37	76.9606
2155.81	78.6867
2157.26	79.8456
2158.7	80.1897
2160.15	81.4693
2161.59	81.9755
2163.03	82.3196
2164.48	83.292
2165.92	83.5201
2167.36	82.6967
2168.8	82.5008
2170.25	82.4994
2171.69	82.1158
2173.13	82.5232
2174.57	82.2931
2176.01	81.6712
2177.45	81.3517
2178.89	80.5295
2180.33	79.3585
2181.77	78.5514
2183.21	77.1423
2184.65	75.4723
2186.09	73.2855
2187.53	71.368
2188.97	70.3697
2190.41	69.2198
2191.84	67.7228
2193.28	65.9245
2194.72	64.8694
2196.16	63.1359
2197.59	61.412
2199.03	60.2542
2200.47	58.98
2201.9	57.6546
2203.34	56.4062
2204.78	55.1037
2206.21	54.2414
2207.65	53.2962
2209.08	51.3941
2210.51	50.28
2211.95	49.0379
2213.38	47.4995
2214.82	46.79
2216.25	44.8708
2217.68	43.1842
2219.12	41.7663
2220.55	41.0089
2221.98	39.0057
2223.42	36.6679
2224.85	35.6144
2226.28	34.2813
2227.71	33.104
2229.14	31.412
2230.57	30.3416
2232	29.5133
2233.43	27.823
2234.86	26.4545
2236.29	25.5456
2237.72	24.1471
2239.15	22.8019
2240.58	22.0262
2242.01	21.3899
2243.44	20.2477
2244.87	19.1491
2246.3	18.2884
2247.73	17.5771
2249.15	17.2647
2250.58	16.2516
2252.01	15.3263
2253.43	14.397
2254.86	12.6212
2256.29	12.2234
2257.71	12.4372
2259.14	12.2561
2260.56	12.2225
2261.99	11.651
2263.41	11.6884
2264.84	11.8998
2266.26	11.9119
2267.69	11.0016
2269.11	10.5117
2270.54	10.506
2271.96	10.5973
2273.38	9.52601
2274.81	8.40329
2276.23	8.96393
2277.65	8.77505
2279.07	8.12344
2280.49	7.06207
2281.92	6.76952
2283.34	5.79572
2284.76	5.12416
2286.18	4.57206
2287.6	4.06509
2289.02	4.17232
2290.44	3.98451
2291.86	3.12974
2293.28	2.24409
2294.7	1.69444
2296.12	1.8087
2297.54	2.47064
2298.96	2.01849
2300.38	1.78588
2301.79	2.31294
2303.21	2.01523
2304.63	1.59199
2306.05	1.90585
2307.46	2.11657
2308.88	2.25365
2310.3	2.39164
2311.71	2.03104
2313.13	2.35748
2314.55	1.97927
2315.96	2.52216
2317.38	3.18461
2318.79	3.33369
2320.21	3.85434
2321.62	3.28087
2323.03	3.65636
2324.45	3.85185
2325.86	3.78977
2327.27	4.41193
2328.69	4.03789
2330.1	3.9966
2331.51	4.86452
2332.93	4.92937
2334.34	5.17624
2335.75	5.25728
2337.16	4.89096
2338.57	4.49794
2339.99	4.44891
2341.4	4.39407
2342.81	4.42694
2344.22	3.81399
2345.63	4.34078
2347.04	4.99779
2348.45	3.81601
2349.86	3.05525
2351.26	2.49208
2352.67	1.92287
2354.08	1.91672
2355.49	2.28354
2356.9	2.28593
2358.31	2.16537
2359.71	1.4309
2361.12	1.39937
2362.53	1.31405
2363.94	2.24715
2365.34	2.73827
2366.75	3.48502
2368.15	3.67723
2369.56	3.099
2370.97	2.72119
2372.37	2.43461
2373.78	2.25248
2375.18	1.98166
2376.59	1.84391
2377.99	1.75855
2379.39	1.90342
2380.8	1.75525
2382.2	1.6151
2383.61	1.77846
2385.01	1.32313
2386.41	1.30231
2387.81	1.66813
2389.22	1.30171
2390.62	1.67942
2392.02	0.915737
2393.42	1.6538
2394.82	1.02116
2396.22	0.982177
2397.63	1.7797
2399.02	1.5835
2400.43	1.51078
2401.82	1.68521
2403.23	0.845556
2404.62	0.873641
2406.02	0.577147
2407.42	0.671182
2408.82	0.405572
2410.22	0.594955
2411.62	0.394164
2413.02	0.703185
2414.41	0.731941
2415.81	0.385426
2417.21	-0.0971453
2418.61	-0.775365
2420	-0.472677
2421.4	-0.516841
2422.79	-0.107648
2424.19	-0.131807
2425.59	0.292471
2426.98	0.194667
2428.38	0.0116864
2429.77	0.317247
2431.17	1.15509
2432.56	1.12723
2433.96	1.59439
2435.35	1.36597
2436.74	1.76267
2438.14	1.56129
2439.53	1.47697
2440.92	1.40082
2442.32	1.56524
2443.71	1.90539
2445.1	2.07779
2446.49	2.36496
2447.88	2.22134
2449.28	2.6683
2450.67	2.77748
2452.06	2.57455
2453.45	2.56269
2454.84	2.16763
2456.23	2.0064
2457.62	2.06256
2459.01	2.08485
2460.4	2.58513
2461.79	2.38812
2463.18	2.98697
2464.57	2.952
2465.96	3.57837
2467.34	3.85636
2468.73	3.47881
2470.12	3.15073
2471.51	3.32329
2472.89	3.17042
2474.28	2.81432
2475.67	2.37059
2477.05	2.38602
2478.44	2.0116
2479.83	1.73527
2481.21	1.16497
2482.6	1.4617
2483.98	0.741852
2485.37	0.346971
2486.75	0.324567
2488.14	0.592167
2489.52	0.374887
2490.9	0.0944071
2492.29	0.268886
2493.67	0.210897
2495.06	0.956353
2496.44	0.968174
2497.82	0.696491
2499.2	0.979368
2500.59	1.65842
2501.97	1.89095
2503.35	2.56198
2504.73	2.50609
2506.11	3.08499
2507.49	3.33912
2508.88	4.24954
2510.26	5.11584
2511.63	5.8044
2513.01	6.26434
2514.39	6.44012
2515.77	6.493
2517.15	6.66721
2518.53	7.0085
2519.91	7.07845
2521.29	6.65951
2522.67	6.56758
2524.05	6.32357
2525.42	7.07098
2526.8	7.7404
2528.18	8.21033
2529.56	8.3756
2530.93	8.89703
2532.31	9.0032
2533.69	8.65765
2535.06	8.93485
2536.44	8.4583
2537.81	8.19787
2539.19	7.54895
2540.56	7.25417
2541.94	6.90801
2543.31	6.33219
2544.69	6.3286
2546.06	6.04485
2547.44	5.17611
2548.81	4.85415
2550.18	4.26757
2551.56	3.81297
2552.93	2.97036
2554.3	3.18663
2555.68	2.70269
2557.05	2.79484
2558.42	2.37521
2559.79	2.66829
2561.16	2.45139
2562.53	2.89008
2563.9	3.36546
2565.28	3.971
2566.64	4.64775
2568.02	6.02409
2569.38	6.38723
2570.76	6.80679
2572.12	7.27168
2573.49	7.6334
2574.86	8.20135
2576.23	8.65119
2577.6	8.55739
2578.97	8.49881
2580.34	8.14752
2581.7	8.05401
2583.07	7.78031
2584.44	8.28003
2585.81	8.38468
2587.17	7.75872
2588.54	7.65
2589.91	7.80727
2591.27	8.01615
2592.64	8.13593
2594	8.16897
2595.37	8.30859
2596.73	7.45508
2598.1	7.53876
2599.46	7.16412
2600.83	6.6338
2602.19	6.81999
2603.55	7.33656
2604.92	6.72711
2606.28	6.75742
2607.64	6.96253
2609.01	6.98986
2610.37	6.72883
2611.73	6.21751
2613.09	5.72124
2614.46	4.99233
2615.82	4.46463
2617.18	4.84203
2618.54	4.28498
2619.9	4.73737
2621.26	5.75307
2622.62	6.78917
2623.98	7.30697
2625.34	9.04473
2626.7	9.30399
2628.06	10.2482
2629.42	11.357
2630.78	12.1209
2632.14	12.7066
2633.5	13.2705
2634.86	13.4646
2636.22	13.1755
2637.57	12.8225
2638.93	12.8241
2640.29	12.8182
2641.64	12.719
2643	12.809
2644.36	12.7345
2645.72	12.1174
2647.07	12.2395
2648.43	12.7826
2649.78	12.4816
2651.14	12.0591
2652.49	11.4294
2653.85	11.1586
2655.2	10.7012
2656.56	10.8679
2657.91	10.648
2659.27	10.0942
2660.62	9.58271
2661.97	9.55456
2663.33	9.34599
2664.68	8.54352
2666.03	9.25872
2667.38	9.22717
2668.74	9.65386
2670.09	9.49281
2671.44	9.3857
2672.79	8.54836
2674.14	8.69518
2675.49	8.31458
2676.84	7.46086
2678.2	6.95414
2679.55	6.37277
2680.89	6.54047
2682.24	6.63904
2683.59	7.37372
2684.94	7.71999
2686.29	8.05738
2687.64	8.97402
2688.99	9.79609
2690.34	10.3375
2691.69	10.7907
2693.04	11.4294
2694.38	11.3977
2695.73	11.3483
2697.08	11.6527
2698.43	11.4916
2699.77	12.0967
2701.12	12.3367
2702.46	11.7693
2703.81	12.1836
2705.16	12.5473
2706.5	12.4601
2707.85	12.6714
2709.19	12.2808
2710.54	12.4859
2711.88	12.5581
2713.23	12.4141
2714.57	12.7299
2715.92	12.5857
2717.26	11.5868
2718.6	12.0069
2719.95	11.6684
2721.29	12.1952
2722.63	11.6649
2723.97	11.6298
2725.32	11.5197
2726.66	11.2953
2728	11.2084
2729.34	11.477
2730.68	11.5857
2732.02	11.827
2733.36	11.6165
2734.7	11.1398
2736.04	11.2141
2737.39	10.2191
2738.72	10.3851
2740.06	9.72989
2741.4	9.62812
2742.74	9.12496
2744.08	9.08166
2745.42	8.40605
2746.76	8.36492
2748.1	8.73634
2749.44	8.81515
2750.77	8.75183
2752.11	8.51704
2753.45	8.8057
2754.78	9.08678
2756.12	9.72553
2757.46	9.3229
2758.79	8.53933
2760.13	8.10465
2761.47	7.40424
2762.8	6.73733
2764.14	6.95645
2765.47	6.42148
2766.81	5.89834
2768.14	4.97137
2769.48	4.39193
2770.81	4.89059
2772.14	4.2781
2773.48	3.42452
2774.81	3.36775
2776.14	3.0057
2777.48	2.79264
2778.81	2.01677
2780.14	1.32984
2781.47	1.36625
2782.81	0.850407
2784.14	1.08356
2785.47	0.789163
2786.8	-0.0153516
2788.13	0.149462
2789.46	0.0260598
2790.79	0.193502
2792.12	-0.0031851
2793.46	-0.176058
2794.79	-0.333233
2796.11	-0.65509
2797.44	-0.406025
2798.77	-0.469699
2800.1	-0.204229
2801.43	-0.0660441
2802.76	0.368354
2804.09	0.494454
2805.42	0.742955
2806.74	0.390145
2808.07	0.0899013
2809.4	0.23642
2810.73	0.452891
2812.05	0.890138
2813.38	1.59491
2814.71	2.36434
2816.03	2.44366
2817.36	2.5598
2818.68	3.21296
2820.01	4.34066
2821.33	5.26635
2822.66	6.37738
2823.98	8.15472
2825.31	10.1885
2826.63	12.2822
2827.96	14.7381
2829.28	17.1188
2830.61	19.4484
2831.93	21.4677
2833.25	24.4379
2834.57	26.887
2835.9	29.7053
2837.22	32.5716
2838.54	35.5157
2839.86	39.0337
2841.18	42.4634
2842.51	45.6141
2843.83	48.7626
2845.15	52.4149
2846.47	56.079
2847.79	59.7794
2849.11	62.7326
2850.43	66.6012
2851.75	69.5785
2853.07	72.7558
2854.39	74.9999
2855.71	78.1478
2857.03	81.3396
2858.35	84.2078
2859.67	86.9055
2860.98	89.6715
2862.3	92.2256
2863.62	95.4196
2864.94	97.4752
2866.25	99.8899
2867.57	101.884
2868.89	103.365
2870.21	104.911
2871.52	105.962
2872.84	106.528
2874.15	107.98
2875.47	109.428
2876.78	110.287
2878.1	111.423
2879.42	112.027
2880.73	113.277
2882.04	113.817
2883.36	114.777
2884.67	116.097
2885.99	117.565
2887.3	119.147
2888.61	121.029
2889.93	122.957
2891.24	124.276
2892.55	125.652
2893.87	127.447
2895.18	129.451
2896.49	131.241
2897.8	133.212
2899.11	136.189
2900.42	138.361
2901.74	140.944
2903.05	144.209
2904.36	147.438
2905.67	151.012
2906.98	154.507
2908.29	158.643
2909.6	162.464
2910.91	166.43
2912.22	169.505
2913.53	173.031
2914.83	176.462
2916.14	180.018
2917.45	183.181
2918.76	186.114
2920.07	189.813
2921.37	193.537
2922.68	195.613
2923.99	197.476
2925.3	199.619
2926.6	201.24
2927.91	202.802
2929.22	203.607
2930.52	203.646
2931.83	204.084
2933.13	203.832
2934.44	202.986
2935.74	202.213
2937.05	200.883
2938.35	199.511
2939.66	198.221
2940.96	195.407
2942.27	192.523
2943.57	189.077
2944.87	185.85
2946.18	182.518
2947.48	178.351
2948.78	174.345
2950.09	170.894
2951.39	167.447
2952.69	163.453
2953.99	159.225
2955.29	154.437
2956.6	150.028
2957.9	145.688
2959.2	142.037
2960.5	137.721
2961.8	133.003
2963.1	129.181
2964.4	125.185
2965.7	120.915
2967	116.775
2968.3	113.914
2969.6	110.705
2970.9	107.608
2972.2	104.074
2973.49	100.911
2974.79	97.6457
2976.09	94.0602
2977.39	90.2294
2978.69	87.3075
2979.98	84.5743
2981.28	81.2746
2982.58	77.6637
2983.88	74.2846
2985.17	71.1727
2986.47	67.1801
2987.76	63.311
2989.06	59.9812
2990.36	56.8627
2991.65	53.819
2992.95	50.9526
2994.24	47.4577
2995.54	44.8671
2996.83	42.5948
2998.12	39.8606
2999.42	37.2182
3000.71	34.3362
3002	31.8119
3003.3	29.0338
3004.59	26.0949
3005.88	23.3749
3007.18	21.4966
3008.47	19.2996
3009.76	17.8175
3011.05	15.1481
3012.35	13.2677
3013.64	11.7223
3014.93	9.87363
3016.22	7.96109
3017.51	6.16775
3018.8	5.44191
3020.09	3.87839
3021.38	3.28899
3022.67	2.75771
3023.96	2.67224
3025.25	1.99527
3026.54	1.85909
3027.83	1.59161
3029.12	1.22172
3030.41	1.05794
3031.69	1.27449
3032.98	1.65829
3034.27	1.87466
3035.56	2.05782
3036.85	2.40726
3038.13	2.92536
3039.42	3.30599
3040.71	3.13505
3041.99	3.92581
3043.28	4.48982
3044.57	4.4669
3045.85	4.35787
3047.14	4.56128
3048.42	5.25811
3049.71	5.42392
3050.99	5.89511
3052.28	5.84257
3053.56	6.2231
3054.85	7.32259
3056.13	7.58224
3057.42	7.35029
3058.7	7.69322
3059.98	8.00882
3061.27	7.96221
3062.55	7.99451
3063.83	8.14133
3065.11	7.78865
3066.4	7.85349
3067.68	7.67587
3068.96	7.76573
3070.24	7.39606
3071.52	7.14275
3072.8	5.86796
3074.09	5.54759
3075.37	4.82918
3076.65	4.68352
3077.93	3.75081
3079.21	3.08156
3080.49	2.91063
3081.77	3.01802
3083.05	2.82094
3084.32	1.96044
3085.61	2.07601
3086.88	2.52928
3088.16	2.97613
3089.44	2.73574
3090.72	2.74936
3092	3.18074
3093.27	3.73765
3094.55	4.29577
3095.83	5.10418
3097.11	5.66152
3098.38	6.55318
3099.66	7.0964
3100.94	7.48088
3102.21	8.24722
3103.49	9.1025
3104.76	10.2287
3106.04	11.1062
3107.31	12.2021
3108.59	13.1296
3109.86	14.8033
3111.14	15.8564
3112.41	16.8389
3113.69	18.2484
3114.96	19.749
3116.23	20.2111
3117.51	21.0167
3118.78	22.2978
3120.05	23.0228
3121.33	24.4158
3122.6	26.0287
3123.87	27.0342
3125.14	27.9236
3126.42	29.0185
3127.69	29.7929
3128.96	30.2458
3130.23	30.8666
3131.5	31.2735
3132.77	31.9673
3134.04	32.1922
3135.31	32.3231
3136.58	32.5161
3137.85	33.1453
3139.12	32.9259
3140.39	33.2375
3141.66	33.6018
3142.93	34.1827
3144.2	34.8345
3145.47	35.554
3146.74	36.5889
3148	37.9239
3149.27	38.2634
