#Acq. time (s)=	45
#Accumulations=	2
#Range (cm-¹)=	200...3150
#Windows=	2
#Auto scanning=	Off
#Autofocus=	Off
#Macrospot=	Off
#AutoExposure=	Off
#Spike filter=	Multiple accum.
#Delay time (s)=	0
#Binning=	1
#Readout mode=	Signal
#DeNoise=	Off
#ICS correction=	On
#Dark correction=	Off
#Inst. Process=	Off
#Detector Gain=	Best Dynamic Range
#Detector ADC=	20 kHz       
#Detector temperature (°C)=	-69.85
#Instrument=	LabRAM HR Evol
#Detector=	Synapse
#Objective=	x100
#Grating=	600 gr/mm
#ND Filter=	100%
#Laser (nm)=	532 
#Hole=	100.021
#Range=	Auto
#Laser Pol.=	No
#Raman. Pol.=	No
#Laser Pol. (°)=	-0.0007625
#Raman Pol. (°)=	89.9995
#Collection=	Microscope
#StageXY=	Marzhauser
#StageZ=	Marzhauser
#X (µm)=	-1131.9
#Y (µm)=	1268.1
#Z (µm)=	577.8
#Full time(mm:ss)=	3:18
#Project=	
#Sample=	
#Site=	
#Title=	Mbcal_20_25_41_2x_45s_532 nm_x100_100%_600 gr_mm
#Remark=	
#Date=	18.07.2022 13:18
#Acquired=	18.07.2022 13:18:44
#Base:Fit=	10.08.2022 10:55:08
#Base:Sub=	10.08.2022 10:55:14
#Filter:Polynom=	16.08.2022 10:07:28
#AxisType[0]=Intens
#AxisUnit[0]=Cnt
#AxisType[1]=Spectr
#AxisUnit[1]=1/cm
200.419	4.42125
202.234	5.84531
204.048	6.31384
205.862	6.8251
207.678	6.4512
209.491	5.52672
211.304	4.66699
213.116	4.90643
214.928	4.91873
216.742	5.12206
218.554	4.95089
220.365	5.05768
222.176	4.99287
223.986	4.78195
225.798	5.20427
227.608	5.79893
229.417	4.91132
231.226	4.85565
233.035	4.70697
234.843	4.83158
236.653	5.14898
238.46	6.2653
240.268	7.63167
242.074	8.23205
243.881	9.19286
245.687	9.42815
247.493	9.62522
249.298	10.3033
251.103	10.3463
252.908	11.6233
254.715	12.7748
256.519	13.0977
258.322	13.6403
260.126	13.8362
261.929	14.0648
263.731	14.9526
265.534	15.4356
267.336	16.3467
269.137	15.9509
270.938	15.4686
272.739	15.1931
274.54	16.5214
276.34	17.5077
278.14	18.2646
279.939	18.63
281.739	18.7326
283.537	18.2702
285.336	18.6704
287.134	18.3661
288.932	18.34
290.729	17.9113
292.526	17.8506
294.323	18.1506
296.117	17.5107
297.913	18.3919
299.709	19.4862
301.504	19.6936
303.299	20.1187
305.093	20.2748
306.888	20.8137
308.682	20.9469
310.475	21.4228
312.268	21.7668
314.059	22.4276
315.852	21.4896
317.644	21.9186
319.436	21.5506
321.227	23.5425
323.018	24.2724
324.807	25.4521
326.597	26.7899
328.387	27.5842
330.177	28.1076
331.967	27.8548
333.753	28.1607
335.542	27.4925
337.331	27.9778
339.119	28.4099
340.906	28.7808
342.691	28.796
344.478	27.2868
346.265	25.5235
348.051	24.5621
349.835	24.7315
351.621	25.6676
353.406	25.3049
355.189	25.7218
356.973	25.088
358.757	23.4047
360.541	23.2189
362.323	21.6016
364.106	20.8124
365.889	19.946
367.669	18.8347
369.451	17.8048
371.233	17.28
373.012	16.866
374.793	17.2835
376.574	17.1801
378.353	16.6362
380.133	16.8404
381.91	17.2231
383.69	16.6854
385.469	16.4967
387.245	17.0906
389.024	16.9353
390.8	17.8722
392.577	19.1054
394.353	19.899
396.129	19.3038
397.906	19.2139
399.68	19.0193
401.456	19.097
403.23	18.6931
405.005	18.0738
406.778	19.9306
408.552	19.9616
410.325	19.9472
412.099	18.6294
413.87	18.5838
415.643	17.6621
417.414	16.2395
419.187	15.9768
420.957	14.7889
422.728	14.2294
424.498	12.9521
426.269	12.4935
428.038	11.8584
429.806	11.8709
431.576	9.91534
433.344	9.06673
435.114	9.14842
436.881	8.62245
438.649	9.14827
440.416	8.40307
442.182	7.28038
443.949	6.89431
445.715	5.90437
447.48	5.30267
449.247	5.73794
451.011	5.41949
452.777	5.62376
454.541	5.65699
456.304	5.93671
458.069	7.45287
459.832	8.59042
461.594	9.83209
463.358	11.2194
465.119	12.2247
466.881	12.6158
468.642	13.3842
470.404	14.2686
472.165	15.3322
473.925	17.0119
475.684	18.3963
477.445	19.5947
479.204	21.3166
480.963	21.8339
482.721	22.4816
484.481	23.3037
486.239	24.4337
487.996	24.8613
489.753	26.0619
491.511	26.4425
493.268	26.9953
495.023	27.5934
496.779	27.931
498.534	27.1628
500.289	26.7898
502.046	26.4279
503.8	24.9122
505.554	25.2875
507.307	25.8003
509.06	25.2537
510.813	25.3508
512.566	24.3314
514.32	24.7501
516.072	25.2396
517.823	25.3953
519.574	25.2602
521.325	25.1591
523.076	25.0883
524.826	25.1036
526.576	25.025
528.325	25.3785
530.074	25.0227
531.823	24.9072
533.572	23.9422
535.32	23.9364
537.068	24.5099
538.815	23.7134
540.562	23.2904
542.309	23.5119
544.056	24.2352
545.802	24.0476
547.547	23.0132
549.293	22.18
551.038	21.1319
552.783	20.7789
554.527	20.0223
556.271	19.9215
558.015	20.0742
559.759	19.8845
561.502	19.1203
563.245	18.6467
564.987	18.5391
566.729	18.4725
568.471	17.6688
570.213	15.9864
571.954	15.1055
573.693	14.4615
575.433	12.9523
577.173	12.0955
578.913	10.6947
580.652	9.67806
582.392	8.43435
584.13	7.21381
585.867	5.16752
587.605	4.23885
589.343	3.97923
591.08	3.81321
592.817	4.2848
594.552	3.27454
596.289	2.92506
598.025	2.73472
599.761	3.24635
601.496	5.04437
603.229	5.15107
604.964	5.5477
606.699	6.65258
608.433	5.97216
610.165	6.8357
611.898	8.09452
613.631	9.17509
615.364	10.7771
617.095	11.6936
618.827	12.305
620.559	12.7305
622.288	14.2344
624.02	15.0945
625.75	14.5511
627.479	15.2534
629.209	16.475
630.939	17.1493
632.667	17.4229
634.396	17.7292
636.125	18.1747
637.851	18.9111
639.58	19.8466
641.305	19.7724
643.033	20.1837
644.76	19.6993
646.485	20.0073
648.212	19.6284
649.936	19.9545
651.662	19.1347
653.388	19.0593
655.111	18.549
656.836	18.1743
658.558	18.8323
660.283	18.7311
662.005	17.4945
663.728	17.4097
665.45	17.7596
667.173	18.2602
668.893	17.8465
670.616	18.3912
672.336	18.8415
674.057	19.8544
675.777	19.588
677.498	19.9246
679.216	20.5556
680.937	21.2685
682.655	22.5624
684.375	23.4538
686.092	24.5632
687.809	25.1497
689.528	25.5666
691.244	26.6719
692.962	26.933
694.678	27.7678
696.393	28.8642
698.111	29.8993
699.825	30.3166
701.54	31.1241
703.256	32.0046
704.97	31.3861
706.685	31.3875
708.398	31.9701
710.111	31.9861
711.826	32.0849
713.538	33.3105
715.25	33.9866
716.961	34.3941
718.675	34.9248
720.386	34.4476
722.096	33.5098
723.808	33.7193
725.518	32.8859
727.228	32.3222
728.937	32.2024
730.648	31.4807
732.357	32.059
734.065	32.0041
735.773	32.7862
737.483	32.4615
739.19	33.389
740.897	33.4511
742.604	33.6146
744.31	34.3301
746.018	35.469
747.724	36.8524
749.429	38.1528
751.134	39.9541
752.839	41.0764
754.544	42.5481
756.248	45.2276
757.953	47.6176
759.657	49.1344
761.36	50.2617
763.063	53.0312
764.765	55.7628
766.468	57.6176
768.169	59.3411
769.871	60.8659
771.572	62.0873
773.273	63.0632
774.976	64.0464
776.676	64.6344
778.376	65.9651
780.075	67.0312
781.775	66.9405
783.474	68.0224
785.172	68.7959
786.871	69.6084
788.569	69.8387
790.266	69.7285
791.964	71.4284
793.661	72.7555
795.358	72.5544
797.054	74.5188
798.75	74.9175
800.446	75.1879
802.141	75.2353
803.834	74.3985
805.529	73.2026
807.224	72.9399
808.918	73.6278
810.612	73.0471
812.305	73.3002
813.998	73.5356
815.691	73.772
817.384	74.7069
819.076	75.037
820.766	73.9908
822.458	74.2732
824.149	75.3843
825.84	75.7451
827.531	76.4988
829.221	77.5673
830.909	78.6995
832.599	79.7776
834.288	78.8951
835.977	80.471
837.666	81.1792
839.353	82.2973
841.041	82.1244
842.729	82.5427
844.416	81.6766
846.103	81.3532
847.788	80.8247
849.475	79.1253
851.161	77.9308
852.845	76.6979
854.53	75.0662
856.216	73.8397
857.901	71.7766
859.583	70.7037
861.268	69.1708
862.952	68.6013
864.633	67.1248
866.317	66.3297
868	65.8767
869.681	64.9799
871.363	64.2155
873.045	63.1238
874.725	62.4688
876.406	62.0963
878.088	60.0996
879.767	58.5444
881.447	58.1238
883.125	55.6872
884.805	54.0898
886.483	52.5668
888.162	51.9737
889.841	51.4013
891.518	51.3538
893.196	50.8141
894.872	50.5205
896.55	49.5291
898.225	50.1167
899.902	49.4366
901.577	49.5774
903.254	48.5606
904.928	48.2168
906.604	49.1537
908.277	48.9976
909.952	48.7751
911.625	49.416
913.3	49.3356
914.972	49.9655
916.646	50.4058
918.318	49.0918
919.991	49.9124
921.662	49.3484
923.333	49.0483
925.005	48.2033
926.675	48.2034
928.347	46.2843
930.017	46.3612
931.686	46.351
933.357	46.0026
935.025	47.4558
936.693	47.1529
938.363	46.8125
940.031	46.7506
941.698	45.6516
943.367	45.429
945.034	44.6333
946.7	44.8225
948.368	43.8034
950.034	43.3779
951.699	42.8161
953.367	41.8335
955.031	40.7048
956.696	40.0837
958.36	39.2347
960.026	37.4959
961.689	35.6135
963.353	35.2233
965.016	34.841
966.68	35.0636
968.343	35.0607
970.005	35.0894
971.666	35.7027
973.328	35.5414
974.991	36.655
976.652	36.1202
978.312	35.9588
979.972	36.0387
981.632	37.0805
983.292	36.4024
984.953	35.9457
986.612	35.6737
988.27	36.2871
989.929	36.0662
991.587	35.9311
993.244	36.4216
994.902	36.4465
996.559	36.906
998.216	37.2765
999.872	37.5451
1001.53	36.5072
1003.19	37.2187
1004.84	36.7963
1006.5	35.71
1008.15	35.6433
1009.81	35.6213
1011.46	35.9727
1013.11	36.5321
1014.77	35.8681
1016.42	35.5515
1018.07	35.7958
1019.73	34.7281
1021.38	34.2916
1023.03	34.2818
1024.68	33.8091
1026.34	33.4934
1027.99	32.9583
1029.64	32.3958
1031.29	31.4448
1032.94	31.4122
1034.59	30.4956
1036.24	29.5294
1037.89	29.2461
1039.53	29.2606
1041.18	28.3441
1042.83	28.4045
1044.48	28.6704
1046.13	29.1324
1047.77	29.0311
1049.42	28.7165
1051.07	28.7547
1052.71	28.2363
1054.36	29.2629
1056	28.5049
1057.65	27.8954
1059.3	26.923
1060.94	26.6546
1062.59	26.292
1064.23	25.4257
1065.87	24.8237
1067.52	25.5387
1069.16	25.858
1070.8	25.3278
1072.44	25.6739
1074.09	26.8731
1075.73	27.246
1077.37	26.2258
1079.01	25.8559
1080.65	25.0784
1082.29	24.7331
1083.93	23.7731
1085.57	23.9302
1087.21	23.3532
1088.85	23.3494
1090.49	23.6676
1092.13	23.7744
1093.77	24.627
1095.41	23.8439
1097.04	23.996
1098.68	24.6406
1100.32	25.0672
1101.95	25.5084
1103.59	25.9204
1105.23	25.7319
1106.86	25.9199
1108.5	25.2941
1110.13	25.0897
1111.77	24.9756
1113.4	24.9991
1115.04	25.5686
1116.67	24.6458
1118.31	25.4894
1119.94	26.2214
1121.57	26.1755
1123.2	25.2792
1124.84	24.8681
1126.47	23.6159
1128.1	22.9533
1129.73	22.726
1131.36	22.2306
1132.99	22.3481
1134.62	21.4491
1136.25	21.7732
1137.88	20.7928
1139.51	20.601
1141.14	20.6764
1142.77	20.3247
1144.4	19.2329
1146.03	18.7213
1147.66	18.4737
1149.28	18.0417
1150.91	17.1376
1152.54	16.2826
1154.16	15.5323
1155.79	13.8619
1157.42	11.7484
1159.04	10.692
1160.67	9.75889
1162.29	9.10795
1163.92	8.47186
1165.54	7.97347
1167.17	6.55849
1168.79	6.15348
1170.41	5.72416
1172.04	5.18807
1173.66	4.90077
1175.28	4.94964
1176.9	3.96871
1178.53	4.36538
1180.15	5.07502
1181.77	5.15033
1183.39	6.08314
1185.01	6.5046
1186.63	6.69581
1188.25	7.79781
1189.87	7.32652
1191.49	8.29391
1193.11	8.43178
1194.73	9.13559
1196.35	9.76667
1197.96	10.072
1199.58	11.5017
1201.2	11.8743
1202.82	12.1643
1204.43	12.9067
1206.05	14.4668
1207.66	15.2905
1209.28	16.8487
1210.9	18.4602
1212.51	19.5814
1214.13	21.1922
1215.74	22.6501
1217.36	24.6625
1218.97	25.5933
1220.58	26.5423
1222.2	27.6207
1223.81	28.7944
1225.42	29.885
1227.04	31.1822
1228.65	32.6695
1230.26	34.1421
1231.87	34.8694
1233.48	35.0968
1235.1	35.42
1236.71	36.5432
1238.32	38.2434
1239.93	38.6115
1241.53	39.0176
1243.14	38.724
1244.75	39.374
1246.36	39.8353
1247.97	40.7539
1249.58	42.6813
1251.19	42.9978
1252.8	42.9803
1254.4	44.2042
1256.01	45.5029
1257.62	46.2597
1259.22	47.5957
1260.83	48.0779
1262.43	48.9935
1264.04	49.1634
1265.64	49.2215
1267.25	48.7935
1268.85	49.3245
1270.46	49.6689
1272.06	50.3492
1273.66	50.7009
1275.27	51.83
1276.87	52.3069
1278.48	53.2837
1280.08	54.5196
1281.68	55.3143
1283.28	55.6898
1284.88	56.9688
1286.48	57.4916
1288.08	57.6604
1289.68	58.0742
1291.28	58.2778
1292.88	58.1657
1294.48	58.715
1296.08	59.5056
1297.68	58.8204
1299.28	58.4423
1300.88	59.388
1302.48	60.8772
1304.07	61.3587
1305.67	61.4092
1307.27	61.5431
1308.87	62.4311
1310.46	62.8358
1312.06	62.5624
1313.65	63.9623
1315.25	64.0713
1316.85	64.2098
1318.44	64.5773
1320.03	63.9286
1321.63	64.3496
1323.22	64.1699
1324.82	65.0081
1326.41	65.844
1328	66.1164
1329.6	65.943
1331.19	65.2021
1332.78	64.8104
1334.37	64.8411
1335.96	63.9765
1337.56	62.6974
1339.15	61.9838
1340.74	60.9817
1342.33	60.9834
1343.92	59.7106
1345.51	59.9923
1347.1	59.6074
1348.69	59.3043
1350.28	59.5435
1351.86	58.8707
1353.45	58.396
1355.04	57.6547
1356.63	56.2921
1358.21	54.6812
1359.8	53.819
1361.39	52.4128
1362.97	51.3969
1364.56	50.3094
1366.15	48.6904
1367.73	46.8827
1369.32	45.5134
1370.9	44.0881
1372.49	43.7883
1374.07	42.7158
1375.65	42.3899
1377.24	41.7524
1378.82	42.7943
1380.41	43.2878
1381.99	43.106
1383.57	42.308
1385.15	41.6852
1386.73	41.8735
1388.32	42.0316
1389.9	41.6393
1391.48	41.2304
1393.06	41.7702
1394.64	41.2498
1396.22	41.1453
1397.8	42.788
1399.38	42.883
1400.96	42.505
1402.54	42.998
1404.11	43.9976
1405.69	44.38
1407.27	44.3746
1408.85	45.7263
1410.43	46.6651
1412	47.3231
1413.58	48.0181
1415.16	48.6877
1416.73	50.4095
1418.31	52.7006
1419.88	55.036
1421.46	57.4079
1423.03	59.7481
1424.61	62.0112
1426.18	63.8551
1427.76	65.933
1429.33	68.687
1430.9	71.2678
1432.48	73.4726
1434.05	74.4204
1435.62	76.2524
1437.2	77.8832
1438.77	80.3343
1440.34	82.1421
1441.91	84.171
1443.48	85.6427
1445.05	86.5422
1446.62	86.8791
1448.19	87.7496
1449.76	87.9243
1451.33	89.0845
1452.9	88.6773
1454.47	89.2643
1456.04	88.5367
1457.61	86.6214
1459.17	85.9735
1460.74	84.6622
1462.31	84.1634
1463.88	82.7514
1465.44	81.7603
1467.01	80.1769
1468.58	78.0086
1470.14	75.7704
1471.71	74.251
1473.27	72.258
1474.84	69.8131
1476.4	67.4237
1477.97	64.5223
1479.53	62.1159
1481.1	60.4439
1482.66	57.9443
1484.22	55.2709
1485.78	53.4066
1487.35	50.8121
1488.91	47.6547
1490.47	44.4317
1492.03	42.8443
1493.59	41.4064
1495.16	40.7433
1496.72	39.4577
1498.28	37.7011
1499.84	35.6134
1501.4	33.9326
1502.96	31.7359
1504.52	30.8929
1506.08	29.9604
1507.64	28.6953
1509.19	26.4185
1510.75	24.4318
1512.31	23.3728
1513.87	23.4499
1515.42	21.8396
1516.98	21.6959
1518.54	21.0923
1520.1	20.3894
1521.65	19.483
1523.21	18.2981
1524.76	17.688
1526.32	16.994
1527.87	16.3151
1529.43	15.9575
1530.98	15.4133
1532.54	15.4953
1534.09	15.0791
1535.64	15.8141
1537.2	17.636
1538.75	18.3148
1540.3	19.6437
1541.85	19.7071
1543.41	20.3736
1544.96	20.9359
1546.51	21.9704
1548.06	22.5593
1549.61	23.205
1551.16	24.6346
1552.71	25.1415
1554.26	26.1753
1555.81	27.6845
1557.36	28.0297
1558.91	27.7467
1560.46	27.6059
1562.01	28.1545
1563.56	28.4769
1565.1	28.9058
1566.65	29.3257
1568.2	30.4445
1569.75	31.3805
1571.29	31.8712
1572.84	31.001
1574.38	30.6829
1575.93	30.7068
1577.48	31.4658
1579.02	32.188
1580.57	32.6139
1582.11	32.8553
1583.65	33.3257
1585.2	33.8981
1586.74	34.5514
1588.29	36.0045
1589.83	36.9976
1591.37	38.1891
1592.92	38.7231
1594.46	39.6449
1596	39.3751
1597.54	39.5171
1599.08	39.6132
1600.62	39.222
1602.16	38.7576
1603.7	38.4645
1605.24	38.7114
1606.78	38.3586
1608.32	39.5402
1609.86	39.8779
1611.4	39.6627
1612.94	40.6604
1614.48	41.1424
1616.02	41.5424
1617.56	41.888
1619.09	41.3217
1620.63	42.0615
1622.17	42.6177
1623.71	44.027
1625.24	44.1768
1626.78	44.4978
1628.31	45.829
1629.85	45.2193
1631.39	45.5422
1632.92	46.2485
1634.46	46.1502
1635.99	46.2247
1637.52	47.8538
1639.06	49.2564
1640.59	49.7553
1642.12	50.3679
1643.66	50.735
1645.19	52.2315
1646.72	53.3242
1648.25	54.5776
1649.79	55.1141
1651.32	56.8653
1652.85	58.1674
1654.38	58.7634
1655.91	59.2478
1657.44	59.6505
1658.97	60.1923
1660.5	59.9987
1662.03	60.3779
1663.56	60.3722
1665.09	59.8494
1666.62	59.6917
1668.15	59.1169
1669.67	57.2939
1671.2	55.8525
1672.73	54.0093
1674.26	52.2807
1675.79	51.0153
1677.31	48.4115
1678.84	46.353
1680.36	44.9548
1681.89	42.6784
1683.42	39.6348
1684.94	38.1861
1686.47	35.1011
1687.99	32.9563
1689.51	30.7442
1691.04	28.3523
1692.56	25.1072
1694.08	23.277
1695.61	21.2901
1697.13	20.4879
1698.65	18.5109
1700.18	16.4013
1701.7	13.706
1703.22	11.7366
1704.74	9.97647
1706.26	8.55301
1707.78	7.42797
1709.3	6.34699
1710.82	5.18201
1712.35	4.71063
1713.86	4.62673
1715.39	3.69415
1716.9	3.11054
1718.42	3.49074
1719.94	3.1357
1721.46	3.44739
1722.98	3.5447
1724.5	3.20666
1726.01	2.45971
1727.53	1.92527
1729.05	1.83012
1730.56	2.04541
1732.08	1.99813
1733.6	1.87461
1735.11	1.51962
1736.63	1.39851
1738.14	2.85028
1739.66	2.74291
1741.17	2.7828
1742.69	3.15069
1744.2	3.11298
1745.71	2.03176
1747.23	1.89413
1748.74	1.47352
1750.25	1.67059
1751.77	1.77541
1753.28	1.20438
1754.79	1.44603
1756.3	1.14841
1757.81	0.261238
1759.33	0.0148466
1760.84	0.455689
1762.35	-0.187312
1763.86	0.0453413
1765.37	-0.468594
1766.88	-0.0358953
1768.39	0.0820456
1769.9	1.03117
1771.41	0.80337
1772.91	0.689621
1774.42	-0.0717834
1775.93	-0.470239
1777.44	-0.24988
1778.95	-0.158341
1780.45	-0.0324219
1781.96	0.360682
1783.47	0.0982191
1784.97	0.362218
1786.48	0.0977885
1787.99	0.287532
1789.49	0.163888
1791	0.0805714
1792.5	0.518907
1794.01	0.209708
1795.51	-0.1955
1797.01	0.269466
1798.52	0.664795
1800.02	0.694515
1801.52	0.93164
1803.03	1.25093
1804.53	1.71279
1806.03	1.99544
1807.54	2.23722
1809.04	2.28063
1810.54	2.27779
1812.04	2.82176
1813.54	2.76231
1815.04	2.51685
1816.54	2.55913
1818.04	2.60659
1819.54	2.07262
1821.04	1.61219
1822.54	2.22878
1824.04	2.00489
1825.54	1.73175
1827.04	1.78817
1828.54	1.92929
1830.03	1.71537
1831.53	1.62933
1833.03	1.8206
1834.53	2.08932
1836.02	2.14637
1837.52	2.10083
1839.02	2.35781
1840.51	2.27226
1842.01	2.57453
1843.5	2.76094
1845	2.53179
1846.49	2.19489
1847.99	2.0599
1849.48	1.59298
1850.98	1.84809
1852.47	1.77785
1853.96	1.63563
1855.46	2.00431
1856.95	1.86716
1858.44	1.8646
1859.94	1.61084
1861.43	0.988062
1862.92	1.31187
1864.41	0.951252
1865.9	1.2695
1867.39	1.92777
1868.88	1.92755
1870.37	2.11515
1871.86	1.83973
1873.35	2.30019
1874.84	2.71799
1876.33	3.4175
1877.82	3.3585
1879.31	3.6545
1880.8	4.32125
1882.29	4.75186
1882.58	4.45225
1884.08	5.01708
1885.57	5.07497
1887.06	5.07907
1888.56	5.06049
1890.05	5.21363
1891.54	5.37428
1893.04	4.88583
1894.53	5.36019
1896.02	4.9016
1897.51	4.68294
1899	4.38045
1900.5	4.17196
1901.99	3.94776
1903.48	4.2849
1904.97	3.78858
1906.46	3.56158
1907.95	3.34189
1909.44	3.04927
1910.93	2.93269
1912.42	3.30554
1913.91	3.54996
1915.4	3.22914
1916.88	3.39436
1918.37	2.97674
1919.86	2.73528
1921.35	2.90476
1922.84	3.33415
1924.32	3.97276
1925.81	3.90541
1927.3	3.97606
1928.78	4.21466
1930.27	3.40231
1931.75	3.35645
1933.24	3.01975
1934.72	3.51596
1936.21	4.3442
1937.69	4.18827
1939.18	4.69644
1940.66	5.14744
1942.15	4.70195
1943.63	4.9161
1945.11	5.43823
1946.6	6.51989
1948.08	6.21779
1949.56	6.4585
1951.04	6.02704
1952.53	6.62902
1954.01	7.60017
1955.49	7.3919
1956.97	7.10834
1958.45	7.39527
1959.93	7.04608
1961.41	6.87733
1962.89	6.17411
1964.37	5.67034
1965.85	5.19527
1967.33	4.45667
1968.81	4.12249
1970.29	3.67872
1971.77	3.75243
1973.24	3.04121
1974.72	3.01182
1976.2	2.67069
1977.68	2.35301
1979.15	1.65443
1980.63	1.74564
1982.11	2.07172
1983.58	2.3254
1985.06	2.1897
1986.53	2.12896
1988.01	1.08239
1989.48	0.798918
1990.96	1.54955
1992.43	1.20088
1993.91	1.36609
1995.38	1.96578
1996.86	2.70336
1998.33	2.39938
1999.8	1.89477
2001.27	1.5951
2002.75	1.59572
2004.22	1.78012
2005.69	2.6971
2007.16	2.4158
2008.64	2.46107
2010.11	1.58784
2011.58	1.20921
2013.05	1.74439
2014.52	1.89934
2015.99	1.80255
2017.46	1.88106
2018.93	1.71104
2020.4	1.77224
2021.87	2.38271
2023.34	3.17968
2024.8	3.32767
2026.27	4.10782
2027.74	4.65806
2029.21	4.3611
2030.68	4.67715
2032.14	5.5053
2033.61	5.5121
2035.08	5.41297
2036.54	5.69561
2038.01	6.50619
2039.48	6.61783
2040.94	6.88493
2042.41	7.30066
2043.87	7.6216
2045.34	7.90076
2046.8	7.89516
2048.27	8.27406
2049.73	8.10242
2051.19	8.32161
2052.66	8.5039
2054.12	8.70834
2055.58	9.09432
2057.05	8.86517
2058.51	8.85797
2059.97	9.70212
2061.43	10.0066
2062.9	10.8416
2064.36	10.9282
2065.82	10.297
2067.28	10.6424
2068.74	11.1361
2070.2	10.8644
2071.66	9.80291
2073.12	9.73925
2074.58	9.51058
2076.04	9.65915
2077.5	8.92321
2078.95	8.99788
2080.41	8.25132
2081.87	8.14881
2083.33	8.38475
2084.79	9.31085
2086.24	9.35324
2087.7	9.64953
2089.16	10.2834
2090.61	10.8936
2092.07	11.3265
2093.53	12.2934
2094.98	12.9987
2096.44	13.0542
2097.89	13.7235
2099.35	14.7346
2100.8	15.701
2102.26	16.7175
2103.71	17.2427
2105.16	17.6312
2106.62	18.0898
2108.07	18.9215
2109.53	19.8593
2110.98	20.2144
2112.43	20.2593
2113.88	21.0855
2115.33	22.083
2116.79	23.1498
2118.24	24.2863
2119.69	24.6406
2121.14	25.2263
2122.59	25.6292
2124.04	26.2248
2125.49	27.1623
2126.94	28.2075
2128.39	29.488
2129.84	30.4343
2131.29	31.3638
2132.74	32.4447
2134.19	32.7468
2135.63	33.5564
2137.08	34.123
2138.53	34.9236
2139.98	36.3385
2141.43	37.6734
2142.87	38.85
2144.32	40.3086
2145.77	41.8451
2147.21	42.6193
2148.66	43.787
2150.1	44.5352
2151.55	46.8224
2152.99	47.7028
2154.44	49.3425
2155.88	51.3134
2157.33	52.1528
2158.77	53.0506
2160.21	54.4638
2161.66	56.0102
2163.1	56.8936
2164.55	57.51
2165.99	58.9453
2167.43	60.0431
2168.87	61.0579
2170.31	62.3718
2171.76	63.6265
2173.2	63.8491
2174.64	64.1419
2176.08	63.5887
2177.52	63.5873
2178.96	63.9787
2180.4	63.9703
2181.84	63.2766
2183.28	62.76
2184.72	62.198
2186.16	61.7187
2187.6	61.4095
2189.04	60.6221
2190.47	59.4749
2191.91	58.007
2193.35	56.4189
2194.79	54.8321
2196.23	53.7663
2197.66	52.262
2199.1	50.6736
2200.54	48.9581
2201.97	47.5698
2203.41	46.2578
2204.84	45.1162
2206.28	43.5263
2207.71	42.5369
2209.15	40.9104
2210.58	40.0306
2212.02	39.3909
2213.45	37.719
2214.89	36.9263
2216.32	35.2291
2217.75	34.0833
2219.19	32.8785
2220.62	32.057
2222.05	30.8825
2223.48	30.4776
2224.92	29.5936
2226.35	28.7444
2227.78	27.6409
2229.21	26.608
2230.64	26.2607
2232.07	25.4962
2233.5	25.2089
2234.93	24.6204
2236.36	24.0367
2237.79	23.6922
2239.22	22.6048
2240.65	21.9002
2242.08	21.4186
2243.51	20.2997
2244.94	18.7065
2246.37	18.5681
2247.79	18.1551
2249.22	17.7877
2250.65	17.5152
2252.08	17.3221
2253.5	17.212
2254.93	16.9676
2256.36	16.2385
2257.78	15.8229
2259.21	15.2381
2260.63	14.7224
2262.06	14.2483
2263.48	13.3945
2264.91	13.2258
2266.33	12.8033
2267.76	12.7104
2269.18	12.6038
2270.6	12.6619
2272.03	12.7743
2273.45	12.8663
2274.87	12.3049
2276.3	12.0778
2277.72	11.7573
2279.14	11.8207
2280.56	11.5089
2281.98	11.3001
2283.41	11.4012
2284.83	11.1076
2286.25	11.5548
2287.67	11.1421
2289.09	10.8717
2290.51	9.94594
2291.93	9.32183
2293.35	8.5599
2294.77	8.33249
2296.19	8.5914
2297.61	9.07207
2299.02	9.6928
2300.44	10.6382
2301.86	10.7352
2303.28	11.048
2304.7	11.3656
2306.11	11.2694
2307.53	11.1984
2308.95	10.965
2310.36	11.306
2311.78	11.7523
2313.2	11.6948
2314.61	11.7464
2316.03	12.2033
2317.44	12.9282
2318.86	13.1979
2320.27	13.1415
2321.69	13.6551
2323.1	13.8993
2324.51	14.7175
2325.93	14.0836
2327.34	14.1811
2328.76	13.7285
2330.17	13.4973
2331.58	13.736
2332.99	13.4511
2334.41	13.7765
2335.82	13.4909
2337.23	12.8683
2338.64	12.7161
2340.05	11.7335
2341.46	10.3922
2342.87	9.69902
2344.28	9.10029
2345.69	8.54103
2347.1	7.73154
2348.51	6.7738
2349.92	6.6204
2351.33	5.86108
2352.74	5.44317
2354.15	4.87962
2355.56	4.18741
2356.97	3.49254
2358.37	2.95225
2359.78	2.09131
2361.19	2.08291
2362.6	2.16352
2364	2.69246
2365.41	3.73158
2366.82	5.01573
2368.22	5.75701
2369.63	6.0227
2371.03	6.0526
2372.44	5.79992
2373.84	6.14143
2375.25	6.43451
2376.65	6.86753
2378.06	7.50247
2379.46	7.14034
2380.86	7.1799
2382.27	6.94915
2383.67	7.83077
2385.07	7.62927
2386.48	7.78988
2387.88	7.78656
2389.28	8.26833
2390.69	8.20199
2392.09	7.87158
2393.49	7.99588
2394.89	8.15526
2396.29	7.11504
2397.69	7.24504
2399.09	6.86483
2400.49	7.33332
2401.89	7.25989
2403.29	6.59769
2404.69	6.91075
2406.09	6.05565
2407.49	5.67803
2408.89	5.79088
2410.29	5.89396
2411.69	6.44853
2413.08	6.80755
2414.48	6.8718
2415.88	6.17439
2417.28	5.88295
2418.67	6.17236
2420.07	6.54942
2421.47	6.17956
2422.86	5.91232
2424.26	5.68059
2425.65	5.90627
2427.05	5.21743
2428.45	4.90068
2429.84	4.66727
2431.23	4.51407
2432.63	4.5374
2434.02	4.86903
2435.42	4.9787
2436.81	5.02111
2438.2	4.70206
2439.6	4.65653
2440.99	4.4402
2442.38	4.60335
2443.78	4.62671
2445.17	4.37425
2446.56	4.40759
2447.95	3.89327
2449.34	3.47959
2450.73	3.28067
2452.13	3.4178
2453.52	3.25544
2454.91	2.22284
2456.3	2.60389
2457.69	2.48893
2459.08	2.85677
2460.47	2.11321
2461.85	1.9693
2463.24	2.99266
2464.63	3.08763
2466.02	3.90229
2467.41	4.33073
2468.8	4.42676
2470.19	5.2365
2471.57	5.59187
2472.96	6.32462
2474.35	7.05176
2475.73	7.17171
2477.12	7.68445
2478.51	8.10338
2479.89	8.44968
2481.28	8.12942
2482.66	8.18666
2484.05	8.36914
2485.43	8.37677
2486.82	8.99163
2488.2	9.08236
2489.59	8.93122
2490.97	8.12993
2492.35	7.93873
2493.74	7.74655
2495.12	6.81825
2496.5	6.19641
2497.89	6.41531
2499.27	6.66005
2500.65	6.49442
2502.03	6.25246
2503.42	5.82237
2504.8	5.67301
2506.18	5.24798
2507.56	4.63405
2508.94	4.97249
2510.32	4.62877
2511.7	4.3821
2513.08	4.7827
2514.46	4.51334
2515.84	4.55316
2517.22	4.01059
2518.6	3.36053
2519.98	3.04874
2521.36	3.3481
2522.73	3.10435
2524.11	3.24666
2525.49	3.02028
2526.87	2.78753
2528.25	3.21003
2529.62	3.23691
2531	3.73772
2532.38	3.98777
2533.75	4.38329
2535.13	4.8822
2536.5	4.84284
2537.88	5.31523
2539.25	5.33998
2540.63	5.65415
2542.01	5.86997
2543.38	5.96802
2544.75	6.62363
2546.13	7.04906
2547.5	7.05241
2548.88	8.14369
2550.25	8.09172
2551.62	8.25621
2553	8.49115
2554.37	8.53601
2555.74	8.35179
2557.11	7.67646
2558.49	7.3098
2559.86	6.80794
2561.23	6.93684
2562.6	6.42638
2563.97	6.38397
2565.34	6.79931
2566.71	7.10427
2568.08	6.75885
2569.45	5.91946
2570.82	5.64417
2572.19	5.52472
2573.56	5.46607
2574.93	5.33758
2576.3	5.58495
2577.67	5.83184
2579.03	5.29302
2580.4	5.36803
2581.77	5.34222
2583.14	4.96489
2584.5	4.28352
2585.87	3.90913
2587.24	3.25371
2588.6	3.57808
2589.97	3.31625
2591.34	2.48197
2592.7	2.75186
2594.07	2.41998
2595.43	2.79942
2596.8	2.80672
2598.16	2.39677
2599.53	1.94747
2600.89	2.17199
2602.26	2.56399
2603.62	2.58212
2604.98	2.80616
2606.35	2.92955
2607.71	3.05746
2609.07	3.4072
2610.44	3.18082
2611.8	3.36237
2613.16	3.38005
2614.52	3.42695
2615.88	3.59252
2617.25	3.95465
2618.61	3.96173
2619.97	4.08819
2621.33	4.36197
2622.69	4.30955
2624.05	4.18695
2625.41	4.16159
2626.77	4.32607
2628.13	4.5388
2629.49	4.56306
2630.85	4.83436
2632.21	5.4089
2633.56	5.61272
2634.92	5.67149
2636.28	5.53339
2637.64	5.81577
2639	6.76229
2640.35	6.90433
2641.71	7.38325
2643.07	7.69649
2644.42	7.50145
2645.78	7.30219
2647.14	7.22124
2648.49	7.89753
2649.85	7.60061
2651.2	7.44336
2652.56	7.00241
2653.91	7.66893
2655.27	7.15686
2656.62	7.7531
2657.98	8.09562
2659.33	8.22868
2660.68	8.27918
2662.04	8.07987
2663.39	8.22986
2664.74	8.27341
2666.1	8.24118
2667.45	8.09339
2668.8	7.93494
2670.15	8.05045
2671.5	8.52827
2672.86	8.30422
2674.21	8.06723
2675.56	7.59809
2676.91	7.49644
2678.26	7.78838
2679.61	8.40123
2680.96	8.39794
2682.31	8.36398
2683.66	8.77004
2685.01	8.91504
2686.36	8.8778
2687.71	8.75463
2689.06	9.03055
2690.4	9.38569
2691.75	9.5819
2693.1	9.68115
2694.45	9.96341
2695.8	9.72197
2697.14	10.2557
2698.49	11.7091
2699.84	12.2346
2701.18	12.6967
2702.53	13.3937
2703.88	13.9842
2705.22	14.6797
2706.57	14.8343
2707.91	14.6647
2709.26	14.6748
2710.6	15.4637
2711.95	15.7459
2713.29	16.0973
2714.64	16.4827
2715.98	17.3955
2717.32	16.9764
2718.67	17.3139
2720.01	17.5806
2721.35	17.8447
2722.7	16.9937
2724.04	16.9639
2725.38	17.061
2726.72	16.6823
2728.06	15.8525
2729.4	15.8138
2730.75	15.5819
2732.09	14.9615
2733.43	14.5406
2734.77	13.3762
2736.11	12.5561
2737.45	12.4405
2738.79	11.6333
2740.13	10.5493
2741.47	9.71593
2742.81	8.79179
2744.15	8.27571
2745.48	7.78986
2746.82	7.16719
2748.16	6.13745
2749.5	5.92557
2750.84	5.9088
2752.17	5.22886
2753.51	4.32851
2754.85	4.2501
2756.19	3.83166
2757.52	2.94442
2758.86	2.43123
2760.19	1.98666
2761.53	2.10421
2762.86	1.59374
2764.2	2.26987
2765.54	2.42336
2766.87	1.46463
2768.2	1.13143
2769.54	0.889419
2770.87	0.369895
2772.21	-0.308392
2773.54	-0.655409
2774.88	-0.248814
2776.21	0.0896998
2777.54	0.277982
2778.87	0.327348
2780.21	0.104189
2781.54	0.0822801
2782.87	0.557271
2784.2	-0.024473
2785.53	-0.126806
2786.87	-0.475918
2788.2	-0.489514
2789.53	-0.16225
2790.86	0.380869
2792.19	1.37241
2793.52	1.10534
2794.85	1.03623
2796.18	1.54058
2797.51	1.61486
2798.84	1.17701
2800.17	1.05466
2801.49	0.374715
2802.82	0.463372
2804.15	0.726448
2805.48	0.228139
2806.81	0.0533388
2808.13	-0.588479
2809.46	-0.816422
2810.79	-1.01444
2812.12	-0.855553
2813.44	-0.844044
2814.77	-0.471397
2816.09	0.362873
2817.42	0.956307
2818.75	2.05773
2820.07	3.08755
2821.4	4.80476
2822.72	6.50118
2824.05	8.36187
2825.37	10.6285
2826.7	12.533
2828.02	14.8454
2829.35	17.098
2830.67	19.7918
2831.99	21.9984
2833.31	24.3872
2834.64	27.2257
2835.96	30.0081
2837.28	33.2695
2838.61	36.4794
2839.93	40.2084
2841.25	43.9737
2842.57	47.7351
2843.89	52.1637
2845.21	56.9961
2846.53	60.699
2847.85	64.9288
2849.17	69.9429
2850.49	74.2153
2851.81	79.201
2853.13	83.9873
2854.45	89.1356
2855.77	94.3165
2857.09	99.0302
2858.41	103.455
2859.73	107.449
2861.05	111.348
2862.36	115.316
2863.68	118.931
2865	122.358
2866.32	125.511
2867.64	128.885
2868.95	131.682
2870.27	134.86
2871.59	137.05
2872.9	139.38
2874.22	141.922
2875.53	144.927
2876.85	147.615
2878.16	149.942
2879.48	152.696
2880.79	155.296
2882.11	157.929
2883.42	160.249
2884.74	162.825
2886.05	164.696
2887.36	167.216
2888.68	169.691
2889.99	172.11
2891.3	174.349
2892.62	176.969
2893.93	179.64
2895.24	182.494
2896.55	184.845
2897.86	187.736
2899.18	191.174
2900.49	194.274
2901.8	198.167
2903.11	203.219
2904.42	207.49
2905.73	212.073
2907.04	217.171
2908.35	221.797
2909.66	227.312
2910.97	232.442
2912.28	236.978
2913.59	242.478
2914.9	247.881
2916.21	252.95
2917.51	257.662
2918.82	262.036
2920.13	266.362
2921.44	270.785
2922.74	274.721
2924.05	277.267
2925.36	279.895
2926.67	281.563
2927.97	283.539
2929.28	284.819
2930.59	285.104
2931.89	284.955
2933.2	285.13
2934.5	284
2935.81	282.973
2937.11	280.39
2938.42	278.188
2939.72	276.446
2941.02	272.898
2942.33	268.942
2943.63	264.613
2944.94	260.995
2946.24	256.327
2947.54	251.372
2948.85	246.439
2950.15	241.457
2951.45	235.646
2952.75	231.268
2954.05	226.277
2955.36	220.767
2956.66	215.161
2957.96	210.017
2959.26	204.985
2960.56	199.753
2961.86	194.615
2963.16	190.048
2964.46	185.223
2965.76	180.455
2967.06	176.54
2968.36	172.404
2969.66	167.483
2970.96	162.951
2972.26	158.648
2973.56	154.422
2974.85	151.241
2976.15	147.097
2977.45	142.54
2978.75	138.568
2980.05	134.014
2981.34	129.804
2982.64	125.447
2983.94	121.439
2985.23	117.124
2986.53	112.971
2987.83	108.474
2989.12	103.404
2990.42	98.9279
2991.71	94.3688
2993.01	90.4211
2994.3	85.8513
2995.6	81.1172
2996.89	76.8438
2998.19	73.0164
2999.48	68.5061
3000.77	64.5008
3002.07	60.3934
3003.36	57.3197
3004.65	53.8508
3005.95	49.2071
3007.24	45.9849
3008.53	42.4118
3009.82	39.3328
3011.12	35.8365
3012.41	32.7247
3013.7	30.0125
3014.99	27.4524
3016.28	25.0792
3017.57	23.472
3018.86	20.951
3020.15	18.8069
3021.44	17.4517
3022.73	16.5357
3024.02	15.1066
3025.31	13.663
3026.6	12.6031
3027.89	12.08
3029.18	10.8408
3030.47	10.173
3031.76	9.43663
3033.04	9.03497
3034.33	8.63076
3035.62	8.73259
3036.91	8.72716
3038.19	9.18137
3039.48	9.28326
3040.77	9.00555
3042.05	9.61304
3043.34	9.83938
3044.63	10.02
3045.91	10.7882
3047.2	12.1957
3048.48	12.5419
3049.77	12.606
3051.05	13.1206
3052.34	13.7313
3053.62	13.824
3054.91	14.1135
3056.19	14.4638
3057.48	14.7705
3058.76	14.5689
3060.04	14.1802
3061.33	13.5816
3062.61	13.6779
3063.89	13.4283
3065.17	13.3949
3066.46	12.9068
3067.74	12.8522
3069.02	11.549
3070.3	11.2608
3071.59	10.842
3072.87	9.9466
3074.15	9.49407
3075.43	8.5153
3076.71	8.03233
3077.99	7.66058
3079.27	6.96192
3080.55	5.87336
3081.83	4.99358
3083.11	4.4259
3084.39	4.08001
3085.67	3.71207
3086.94	3.27441
3088.22	2.70318
3089.5	2.13379
3090.78	1.44399
3092.06	1.73294
3093.34	1.12733
3094.61	0.861687
3095.89	0.976426
3097.17	1.25728
3098.44	1.40663
3099.72	1.50792
3101	1.32511
3102.27	1.2881
3103.55	1.24224
3104.82	1.10551
3106.1	1.47276
3107.38	1.39214
3108.65	1.42015
3109.93	1.90839
3111.2	2.1415
3112.47	1.60893
3113.75	1.5496
3115.02	1.93157
3116.3	2.19692
3117.57	1.81137
3118.84	1.95847
3120.12	1.99467
3121.39	1.80305
3122.66	1.43076
3123.93	1.36863
3125.2	1.52352
3126.48	2.28798
3127.75	2.27435
3129.02	2.36389
3130.29	2.44111
3131.56	2.85707
3132.83	2.52587
3134.1	3.41778
3135.37	3.0522
3136.64	3.27734
3137.91	3.52037
3139.18	3.70112
3140.45	4.19457
3141.72	4.40766
3142.99	4.83363
3144.26	5.6299
3145.53	6.41549
3146.8	6.92715
3148.07	7.59387
3149.33	8.15776
