#Acq. time (s)=	45
#Accumulations=	2
#Range (cm-¹)=	200...3150
#Windows=	2
#Auto scanning=	Off
#Autofocus=	Off
#Macrospot=	Off
#AutoExposure=	Off
#Spike filter=	Multiple accum.
#Delay time (s)=	0
#Binning=	1
#Readout mode=	Signal
#DeNoise=	Off
#ICS correction=	On
#Dark correction=	Off
#Inst. Process=	Off
#Detector Gain=	Best Dynamic Range
#Detector ADC=	20 kHz       
#Detector temperature (°C)=	-69.85
#Instrument=	LabRAM HR Evol
#Detector=	Synapse
#Objective=	x100
#Grating=	600 gr/mm
#ND Filter=	100%
#Laser (nm)=	532 
#Hole=	100.021
#Range=	Auto
#Laser Pol.=	No
#Raman. Pol.=	No
#Laser Pol. (°)=	-0.0007625
#Raman Pol. (°)=	89.9995
#Collection=	Microscope
#StageXY=	Marzhauser
#StageZ=	Marzhauser
#X (µm)=	-1207.3
#Y (µm)=	1272.8
#Z (µm)=	577.8
#Full time(mm:ss)=	3:18
#Project=	
#Sample=	
#Site=	
#Title=	Mbcal_20_25_02_2x_45s_532 nm_x100_100%_600 gr_mm
#Remark=	
#Date=	18.07.2022 09:33
#Acquired=	18.07.2022 09:33:25
#Base:Fit=	10.08.2022 10:55:08
#Base:Sub=	10.08.2022 10:55:14
#Filter:Polynom=	16.08.2022 09:24:11
#Filter:Polynom=	16.08.2022 10:07:27
#AxisType[0]=Intens
#AxisUnit[0]=Cnt
#AxisType[1]=Spectr
#AxisUnit[1]=1/cm
200.419	14.9351
202.234	15.1425
204.048	15.1428
205.862	14.6135
207.678	14.1028
209.491	13.5722
211.304	12.6892
213.116	11.5714
214.928	10.9258
216.742	13.0794
218.554	14.746
220.365	14.0996
222.176	15.3201
223.986	15.1693
225.798	16.9413
227.608	18.8981
229.417	19.9404
231.226	19.0956
233.035	19.1917
234.843	18.0186
236.653	16.8786
238.46	17.0253
240.268	17.8888
242.074	17.8535
243.881	17.4627
245.687	16.9033
247.493	16.0638
249.298	15.4529
251.103	15.1177
252.908	15.8099
254.715	15.2674
256.519	15.5852
258.322	15.2248
260.126	14.2258
261.929	12.3995
263.731	11.3011
265.534	10.2262
267.336	12.1863
269.137	10.3398
270.938	10.7991
272.739	9.85042
274.54	9.07402
276.34	8.35413
278.14	8.19138
279.939	8.88804
281.739	9.77503
283.537	9.34824
285.336	8.0843
287.134	5.94928
288.932	5.3589
290.729	5.07359
292.526	4.83038
294.323	4.66137
296.117	4.43661
297.913	5.69236
299.709	5.37612
301.504	8.67217
303.299	11.1119
305.093	14.1656
306.888	16.659
308.682	17.4581
310.475	18.6513
312.268	21.1678
314.059	23.1023
315.852	26.2441
317.644	28.2408
319.436	28.8278
321.227	29.1356
323.018	30.4322
324.807	31.5876
326.597	30.9605
328.387	32.0531
330.177	34.0785
331.967	33.9066
333.753	34.6924
335.542	35.0622
337.331	34.9979
339.119	35.8653
340.906	35.9517
342.691	36.5394
344.478	35.2757
346.265	34.5876
348.051	32.5813
349.835	32.5584
351.621	32.6078
353.406	32.9157
355.189	31.6765
356.973	31.3013
358.757	29.0809
360.541	27.5611
362.323	25.2972
364.106	22.5752
365.889	21.9705
367.669	20.6338
369.451	19.1737
371.233	18.849
373.012	17.5179
374.793	16.3651
376.574	15.9342
378.353	17.6843
380.133	18.7453
381.91	19.27
383.69	18.891
385.469	19.8764
387.245	22.6911
389.024	23.0786
390.8	25.9677
392.577	27.8706
394.353	29.4931
396.129	30.5627
397.906	33.0247
399.68	34.3382
401.456	35.5797
403.23	37.2334
405.005	38.1477
406.778	39.4049
408.552	39.5932
410.325	39.6416
412.099	40.6581
413.87	42.1137
415.643	41.7209
417.414	44.1796
419.187	46.6326
420.957	46.0721
422.728	46.7825
424.498	46.9352
426.269	46.806
428.038	46.5852
429.806	45.7065
431.576	44.5392
433.344	43.5902
435.114	44.2034
436.881	44.0637
438.649	44.7481
440.416	42.1294
442.182	40.6027
443.949	38.7591
445.715	38.9402
447.48	37.8439
449.247	37.6653
451.011	37.7508
452.777	37.1769
454.541	36.5586
456.304	36.9521
458.069	37.1497
459.832	39.4231
461.594	39.7074
463.358	39.7558
465.119	38.9665
466.881	39.9868
468.642	39.7271
470.404	39.7523
472.165	41.1627
473.925	42.991
475.684	45.1306
477.445	45.3143
479.204	47.5412
480.963	48.3822
482.721	48.3363
484.481	49.3516
486.239	50.7468
487.996	51.4768
489.753	52.3235
491.511	53.8738
493.268	55.0004
495.023	56.1347
496.779	57.3601
498.534	58.5903
500.289	59.8226
502.046	61.9429
503.8	61.9767
505.554	64.5473
507.307	67.7068
509.06	69.2773
510.813	72.1368
512.566	73.5098
514.32	74.2627
516.072	76.2811
517.823	78.8631
519.574	79.9934
521.325	81.3563
523.076	82.7015
524.826	83.8564
526.576	84.1828
528.325	84.436
530.074	85.7125
531.823	85.4315
533.572	86.4354
535.32	86.365
537.068	86.6824
538.815	86.6588
540.562	86.1949
542.309	85.2975
544.056	85.4766
545.802	84.2453
547.547	85.419
549.293	83.517
551.038	82.1333
552.783	80.3381
554.527	80.2829
556.271	78.2163
558.015	76.8937
559.759	75.8213
561.502	73.1306
563.245	69.9685
564.987	66.0811
566.729	62.9525
568.471	58.8442
570.213	54.7964
571.954	50.8526
573.693	48.1019
575.433	44.3527
577.173	41.0476
578.913	37.4909
580.652	34.0883
582.392	30.978
584.13	29.3672
585.867	26.5832
587.605	23.5918
589.343	22.7306
591.08	19.7399
592.817	18.3431
594.552	15.9545
596.289	14.4522
598.025	12.2279
599.761	10.7463
601.496	9.7038
603.229	9.61479
604.964	8.85744
606.699	7.3971
608.433	7.30873
610.165	7.7422
611.898	6.39706
613.631	6.86091
615.364	7.66865
617.095	7.22495
618.827	7.85352
620.559	9.90555
622.288	10.926
624.02	13.278
625.75	14.4397
627.479	15.1142
629.209	16.6291
630.939	19.1299
632.667	22.2549
634.396	25.2817
636.125	24.6126
637.851	24.5805
639.58	24.537
641.305	25.2831
643.033	26.5044
644.76	27.2384
646.485	28.0285
648.212	27.3105
649.936	26.7754
651.662	27.2782
653.388	27.4718
655.111	26.8992
656.836	26.3046
658.558	26.367
660.283	25.7163
662.005	24.6605
663.728	24.1106
665.45	23.5144
667.173	23.1674
668.893	22.0643
670.616	21.5006
672.336	20.7768
674.057	19.841
675.777	19.5393
677.498	18.4748
679.216	17.5107
680.937	17.523
682.655	17.9355
684.375	17.5172
686.092	17.6359
687.809	17.187
689.528	18.7121
691.244	19.5357
692.962	19.5408
694.678	20.2031
696.393	20.0207
698.111	19.8632
699.825	21.2833
701.54	21.2343
703.256	20.71
704.97	21.6807
706.685	21.5987
708.398	20.795
710.111	21.545
711.826	20.3234
713.538	21.3398
715.25	20.7106
716.961	19.7555
718.675	20.3256
720.386	19.8733
722.096	19.3666
723.808	19.1359
725.518	19.5982
727.228	20.1147
728.937	19.6451
730.648	18.0027
732.357	17.528
734.065	16.4859
735.773	15.7693
737.483	14.8057
739.19	14.5669
740.897	13.0427
742.604	13.7687
744.31	15.4511
746.018	16.159
747.724	16.8255
749.429	17.6946
751.134	18.8135
752.839	19.0942
754.544	19.8967
756.248	20.6686
757.953	21.6695
759.657	21.8688
761.36	23.1632
763.063	23.8475
764.765	23.2535
766.468	24.8994
768.169	25.5237
769.871	27.3569
771.572	28.6713
773.273	31.0966
774.976	32.7191
776.676	34.0677
778.376	36.3193
780.075	37.1795
781.775	37.9829
783.474	37.3211
785.172	37.5582
786.871	38.0587
788.569	37.2026
790.266	40.3329
791.964	40.9399
793.661	41.9853
795.358	43.0633
797.054	43.9941
798.75	45.045
800.446	44.6001
802.141	46.5009
803.834	47.8967
805.529	48.9076
807.224	50.315
808.918	49.778
810.612	49.6598
812.305	48.2924
813.998	47.0383
815.691	48.1107
817.384	48.6245
819.076	48.8191
820.766	49.8283
822.458	51.2374
824.149	54.008
825.84	56.3148
827.531	59.1823
829.221	61.8743
830.909	65.3032
832.599	68.5297
834.288	72.8661
835.977	77.5315
837.666	81.6703
839.353	83.7648
841.041	88.3021
842.729	91.6151
844.416	94.8022
846.103	97.6486
847.788	99.3594
849.475	101.108
851.161	104.615
852.845	106.848
854.53	108.423
856.216	109.263
857.901	109.329
859.583	109.517
861.268	109.518
862.952	107.661
864.633	106.155
866.317	104.537
868	103.964
869.681	103.339
871.363	101.494
873.045	100.057
874.725	98.6359
876.406	93.3251
878.088	89.003
879.767	84.5151
881.447	80.1784
883.125	75.689
884.805	70.369
886.483	66.6892
888.162	61.0783
889.841	55.7168
891.518	50.0758
893.196	43.7923
894.872	40.1373
896.55	34.4734
898.225	30.7399
899.902	28.6573
901.577	25.9052
903.254	24.6628
904.928	23.4987
906.604	24.2643
908.277	26.4441
909.952	27.4298
911.625	27.8656
913.3	29.5647
914.972	32.1556
916.646	33.1885
918.318	35.2527
919.991	37.461
921.662	37.915
923.333	37.4897
925.005	40.6272
926.675	40.9115
928.347	42.5864
930.017	42.9524
931.686	45.2259
933.357	46.1699
935.025	46.999
936.693	46.2043
938.363	45.2332
940.031	45.7843
941.698	44.7501
943.367	45.5865
945.034	45.1678
946.7	45.2518
948.368	45.2054
950.034	43.4938
951.699	43.2819
953.367	40.1804
955.031	38.7747
956.696	37.2922
958.36	34.8726
960.026	31.1462
961.689	29.8605
963.353	28.9378
965.016	28.8742
966.68	28.6384
968.343	28.6659
970.005	29.0135
971.666	29.6558
973.328	30.0647
974.991	30.7025
976.652	30.7959
978.312	30.6134
979.972	31.6921
981.632	33.5254
983.292	35.0365
984.953	35.6031
986.612	35.2823
988.27	35.3363
989.929	36.7725
991.587	35.8169
993.244	35.703
994.902	36.1285
996.559	37.7036
998.216	38.0374
999.872	37.8002
1001.53	38.2788
1003.19	39.1889
1004.84	39.4926
1006.5	38.6037
1008.15	39.6815
1009.81	40.4515
1011.46	43.4053
1013.11	45.3214
1014.77	46.7876
1016.42	47.8172
1018.07	49.6172
1019.73	50.923
1021.38	53.645
1023.03	55.6858
1024.68	57.8378
1026.34	60.0166
1027.99	59.8716
1029.64	60.588
1031.29	60.5953
1032.94	61.3785
1034.59	62.4181
1036.24	62.6113
1037.89	62.4238
1039.53	62.4891
1041.18	62.7156
1042.83	63.5869
1044.48	65.9687
1046.13	66.2301
1047.77	65.6214
1049.42	65.9246
1051.07	67.3467
1052.71	66.7692
1054.36	65.4767
1056	64.4303
1057.65	63.6227
1059.3	64.3391
1060.94	64.0986
1062.59	64.1286
1064.23	61.8148
1065.87	59.7997
1067.52	58.6503
1069.16	58.1347
1070.8	57.6696
1072.44	57.4258
1074.09	55.8755
1075.73	57.0017
1077.37	54.9015
1079.01	54.4173
1080.65	53.4942
1082.29	52.6809
1083.93	51.676
1085.57	51.8479
1087.21	50.5842
1088.85	50.774
1090.49	53.1074
1092.13	55.5885
1093.77	57.7914
1095.41	59.4275
1097.04	62.0546
1098.68	64.6722
1100.32	66.4505
1101.95	66.5902
1103.59	68.788
1105.23	69.3112
1106.86	69.4427
1108.5	68.773
1110.13	66.7259
1111.77	66.6877
1113.4	65.915
1115.04	64.3873
1116.67	63.8807
1118.31	61.9338
1119.94	58.4942
1121.57	57.5557
1123.2	56.6611
1124.84	56.1449
1126.47	53.5057
1128.1	51.131
1129.73	50.0854
1131.36	49.005
1132.99	48.137
1134.62	46.5131
1136.25	43.8447
1137.88	42.5372
1139.51	40.7337
1141.14	39.8402
1142.77	36.6424
1144.4	33.8141
1146.03	32.61
1147.66	30.7002
1149.28	28.9419
1150.91	27.1977
1152.54	23.6079
1154.16	20.1983
1155.79	18.0561
1157.42	15.9991
1159.04	11.2316
1160.67	9.43927
1162.29	6.47825
1163.92	3.66346
1165.54	2.82304
1167.17	2.97472
1168.79	3.82474
1170.41	5.17764
1172.04	6.18419
1173.66	8.37648
1175.28	10.3814
1176.9	12.488
1178.53	12.8442
1180.15	12.4041
1181.77	13.0713
1183.39	12.9812
1185.01	13.6476
1186.63	14.4025
1188.25	13.9272
1189.87	14.6409
1191.49	16.2411
1193.11	18.7081
1194.73	18.8405
1196.35	19.675
1197.96	22.5261
1199.58	23.6274
1201.2	27.4973
1202.82	32.6251
1204.43	37.0543
1206.05	39.5894
1207.66	41.8189
1209.28	44.729
1210.9	48.6353
1212.51	51.7301
1214.13	57.6524
1215.74	60.5965
1217.36	63.651
1218.97	67.1527
1220.58	70.7826
1222.2	73.8968
1223.81	75.6516
1225.42	78.7066
1227.04	82.1499
1228.65	83.9285
1230.26	86.0368
1231.87	90.2763
1233.48	92.7934
1235.1	96.4082
1236.71	100.254
1238.32	101.655
1239.93	103.784
1241.53	108.395
1243.14	112.062
1244.75	116.679
1246.36	119.963
1247.97	124.453
1249.58	128.702
1251.19	131.537
1252.8	134.368
1254.4	138.163
1256.01	140.109
1257.62	141.764
1259.22	143.707
1260.83	145.617
1262.43	147.591
1264.04	150.085
1265.64	151.806
1267.25	155.538
1268.85	156.682
1270.46	159.529
1272.06	163.536
1273.66	164.686
1275.27	165.48
1276.87	168.897
1278.48	173.312
1280.08	175.297
1281.68	178.407
1283.28	179.476
1284.88	182.869
1286.48	184.445
1288.08	188.066
1289.68	190.185
1291.28	192.218
1292.88	194.58
1294.48	197.567
1296.08	197.654
1297.68	199.584
1299.28	200.418
1300.88	201.963
1302.48	202.607
1304.07	203.481
1305.67	203.577
1307.27	204.713
1308.87	206.289
1310.46	207.876
1312.06	209.687
1313.65	209.34
1315.25	209.472
1316.85	207.643
1318.44	207.753
1320.03	207.866
1321.63	209.719
1323.22	211.06
1324.82	211.412
1326.41	211.991
1328	213.246
1329.6	212.743
1331.19	212.427
1332.78	211.628
1334.37	212.138
1335.96	209.509
1337.56	208.419
1339.15	208.24
1340.74	206.581
1342.33	206.148
1343.92	203.649
1345.51	201.92
1347.1	199.914
1348.69	197.764
1350.28	197.624
1351.86	196.928
1353.45	194.915
1355.04	191.934
1356.63	191.278
1358.21	189.176
1359.8	185.543
1361.39	184.22
1362.97	181.901
1364.56	181.128
1366.15	176.248
1367.73	174.15
1369.32	171.227
1370.9	169.362
1372.49	166.475
1374.07	165.709
1375.65	162.27
1377.24	160.176
1378.82	158.618
1380.41	155.531
1381.99	153.429
1383.57	152.086
1385.15	150.004
1386.73	150.478
1388.32	148.353
1389.9	147.336
1391.48	145.581
1393.06	144.469
1394.64	143.532
1396.22	143.683
1397.8	144.615
1399.38	145.267
1400.96	147.413
1402.54	148.41
1404.11	149.293
1405.69	151.985
1407.27	154.568
1408.85	156.697
1410.43	162.115
1412	167.438
1413.58	173.231
1415.16	179.301
1416.73	187.78
1418.31	194.447
1419.88	201.535
1421.46	210.769
1423.03	217.741
1424.61	226.942
1426.18	235.556
1427.76	245.612
1429.33	254.035
1430.9	261.352
1432.48	268.949
1434.05	275.757
1435.62	283.619
1437.2	290.474
1438.77	296.081
1440.34	301.783
1441.91	304.66
1443.48	308.871
1445.05	310.948
1446.62	314.68
1448.19	316.582
1449.76	315.463
1451.33	315.758
1452.9	315.71
1454.47	311.879
1456.04	309.686
1457.61	306.685
1459.17	301.827
1460.74	297.417
1462.31	292.163
1463.88	286.12
1465.44	279.326
1467.01	269.984
1468.58	263.504
1470.14	255.241
1471.71	246.848
1473.27	238.078
1474.84	228.565
1476.4	219.009
1477.97	211.886
1479.53	202.998
1481.1	194.385
1482.66	186.299
1484.22	179.446
1485.78	172.704
1487.35	166.268
1488.91	161.22
1490.47	155.492
1492.03	149.95
1493.59	145.606
1495.16	140.235
1496.72	134.533
1498.28	129.954
1499.84	125.919
1501.4	120.709
1502.96	116.981
1504.52	113.931
1506.08	110.4
1507.64	106.863
1509.19	104.287
1510.75	102.761
1512.31	101.609
1513.87	97.8248
1515.42	94.8289
1516.98	91.6518
1518.54	90.5814
1520.1	88.04
1521.65	87.3456
1523.21	85.9365
1524.76	85.062
1526.32	84.1353
1527.87	83.9524
1529.43	84.4348
1530.98	81.6788
1532.54	81.0418
1534.09	81.3935
1535.64	81.5321
1537.2	81.2833
1538.75	82.8345
1540.3	83.6115
1541.85	82.9079
1543.41	82.9547
1544.96	84.2481
1546.51	87.0653
1548.06	88.1516
1549.61	90.6655
1551.16	92.8395
1552.71	94.2529
1554.26	97.1782
1555.81	99.1252
1557.36	100.264
1558.91	101.409
1560.46	102.749
1562.01	104.372
1563.56	106.389
1565.1	108.295
1566.65	110.116
1568.2	111.32
1569.75	113.29
1571.29	114.728
1572.84	116.097
1574.38	118.416
1575.93	120.748
1577.48	123.575
1579.02	126.326
1580.57	129.734
1582.11	133.237
1583.65	135.462
1585.2	137.926
1586.74	140.846
1588.29	145.109
1589.83	147.216
1591.37	147.904
1592.92	151.104
1594.46	153.179
1596	154.447
1597.54	154.567
1599.08	156.336
1600.62	156.737
1602.16	157.634
1603.7	156.628
1605.24	156.036
1606.78	155.631
1608.32	154.514
1609.86	156.288
1611.4	157.135
1612.94	157.617
1614.48	158.428
1616.02	159.769
1617.56	160.59
1619.09	160.879
1620.63	161.83
1622.17	163.765
1623.71	165.397
1625.24	166.211
1626.78	168.168
1628.31	169.839
1629.85	171.423
1631.39	174.292
1632.92	175.685
1634.46	177.703
1635.99	179.193
1637.52	182.051
1639.06	183.974
1640.59	187.227
1642.12	189.682
1643.66	192.895
1645.19	194.503
1646.72	197.593
1648.25	200.093
1649.79	202.814
1651.32	204.648
1652.85	206.283
1654.38	207.864
1655.91	208.717
1657.44	208.8
1658.97	208.209
1660.5	207.071
1662.03	206.488
1663.56	205.323
1665.09	202.412
1666.62	198.393
1668.15	193.601
1669.67	189.105
1671.2	183.642
1672.73	178.024
1674.26	171.492
1675.79	165.601
1677.31	157.706
1678.84	151.389
1680.36	143.805
1681.89	136.886
1683.42	130.455
1684.94	121.685
1686.47	115.214
1687.99	106.514
1689.51	100.267
1691.04	93.5926
1692.56	86.7314
1694.08	80.2291
1695.61	73.0308
1697.13	66.7739
1698.65	61.8214
1700.18	56.6205
1701.7	52.5737
1703.22	50.3016
1704.74	46.4019
1706.26	41.5539
1707.78	37.5016
1709.3	33.9338
1710.82	30.6235
1712.35	27.9366
1713.86	25.1765
1715.39	22.214
1716.9	22.0189
1718.42	19.9893
1719.94	18.2735
1721.46	16.206
1722.98	15.2828
1724.5	14.9396
1726.01	13.8215
1727.53	13.5127
1729.05	12.4483
1730.56	11.6752
1732.08	11.4253
1733.6	11.3092
1735.11	11.8231
1736.63	10.8417
1738.14	10.3847
1739.66	9.67341
1741.17	9.58948
1742.69	9.80158
1744.2	8.88483
1745.71	9.53243
1747.23	8.87747
1748.74	7.94103
1750.25	6.75124
1751.77	7.02946
1753.28	6.65923
1754.79	7.23794
1756.3	6.07117
1757.81	5.32864
1759.33	5.03608
1760.84	4.82615
1762.35	5.22653
1763.86	5.2294
1765.37	6.28183
1766.88	5.35961
1768.39	4.71535
1769.9	4.18976
1771.41	3.69925
1772.91	2.92066
1774.42	2.98376
1775.93	2.54129
1777.44	3.62919
1778.95	3.49375
1780.45	2.3933
1781.96	2.40474
1783.47	2.82862
1784.97	3.62209
1786.48	3.12479
1787.99	3.19396
1789.49	3.43158
1791	3.95369
1792.5	4.7477
1794.01	3.68722
1795.51	4.45024
1797.01	4.8138
1798.52	4.34955
1800.02	4.12279
1801.52	4.35881
1803.03	4.35257
1804.53	4.44024
1806.03	4.5968
1807.54	4.80501
1809.04	4.63139
1810.54	5.35595
1812.04	5.08579
1813.54	5.34386
1815.04	5.91259
1816.54	5.6997
1818.04	5.37292
1819.54	4.96471
1821.04	4.81353
1822.54	3.59527
1824.04	3.32182
1825.54	3.23136
1827.04	3.86856
1828.54	3.8401
1830.03	4.08764
1831.53	2.98368
1833.03	2.64595
1834.53	2.11618
1836.02	2.03587
1837.52	1.76295
1839.02	1.17811
1840.51	0.780588
1842.01	1.40433
1843.5	1.3152
1845	0.826596
1846.49	0.378473
1847.99	1.21346
1849.48	2.07675
1850.98	2.50252
1852.47	3.2608
1853.96	2.65526
1855.46	2.15613
1856.95	2.39252
1858.44	2.22795
1859.94	2.59765
1861.43	1.80407
1862.92	1.18637
1864.41	0.388373
1865.9	0.774668
1867.39	0.577259
1868.88	1.24632
1870.37	1.85303
1871.86	1.27427
1873.35	1.46807
1874.84	2.51864
1876.33	2.97368
1877.82	3.36654
1879.31	2.9727
1880.8	2.86753
1882.29	3.77482
1882.58	3.868
1884.08	4.28537
1885.57	3.53327
1887.06	3.73939
1888.56	4.76582
1890.05	4.1298
1891.54	4.00641
1893.04	3.66096
1894.53	4.65963
1896.02	5.375
1897.51	5.04949
1899	5.7992
1900.5	6.02868
1901.99	6.02618
1903.48	6.17634
1904.97	5.39926
1906.46	4.9147
1907.95	4.81759
1909.44	5.51322
1910.93	4.92509
1912.42	5.50807
1913.91	6.05282
1915.4	6.06769
1916.88	5.91432
1918.37	5.73138
1919.86	6.69203
1921.35	7.43606
1922.84	6.7254
1924.32	5.63546
1925.81	4.61117
1927.3	4.64659
1928.78	4.13832
1930.27	4.88335
1931.75	4.06905
1933.24	3.94893
1934.72	3.31103
1936.21	3.16925
1937.69	3.96845
1939.18	5.20731
1940.66	4.67132
1942.15	4.92895
1943.63	4.43574
1945.11	4.8908
1946.6	4.38557
1948.08	3.90839
1949.56	3.53668
1951.04	4.02066
1952.53	3.08818
1954.01	2.92513
1955.49	2.31981
1956.97	2.62859
1958.45	2.39505
1959.93	3.26167
1961.41	3.43032
1962.89	2.94955
1964.37	2.4441
1965.85	1.9692
1967.33	2.14516
1968.81	2.72215
1970.29	1.39837
1971.77	0.515411
1973.24	1.25254
1974.72	0.947064
1976.2	1.21501
1977.68	0.612744
1979.15	-0.018109
1980.63	-0.107073
1982.11	1.38499
1983.58	1.37674
1985.06	1.25677
1986.53	1.9777
1988.01	1.60816
1989.48	1.60226
1990.96	1.91318
1992.43	2.48378
1993.91	2.93593
1995.38	2.44571
1996.86	2.52282
1998.33	2.62597
1999.8	3.17097
2001.27	3.84724
2002.75	4.5852
2004.22	6.31234
2005.69	5.87952
2007.16	6.09615
2008.64	6.18107
2010.11	6.85137
2011.58	7.01739
2013.05	6.86259
2014.52	6.69995
2015.99	7.68132
2017.46	7.79672
2018.93	8.38241
2020.4	8.0978
2021.87	8.58501
2023.34	9.03852
2024.8	8.14123
2026.27	7.72494
2027.74	7.59173
2029.21	8.12874
2030.68	8.42786
2032.14	8.12269
2033.61	8.43812
2035.08	5.94265
2036.54	4.62967
2038.01	3.80946
2039.48	3.03334
2040.94	3.84845
2042.41	4.20751
2043.87	4.28442
2045.34	4.3649
2046.8	4.81257
2048.27	5.46332
2049.73	6.07192
2051.19	6.34555
2052.66	6.88778
2054.12	7.24622
2055.58	6.93496
2057.05	5.11338
2058.51	5.62769
2059.97	5.78191
2061.43	7.31604
2062.9	7.66723
2064.36	8.56402
2065.82	8.99886
2067.28	9.37677
2068.74	11.2417
2070.2	12.3883
2071.66	12.762
2073.12	14.3209
2074.58	14.9744
2076.04	15.7666
2077.5	16.7937
2078.95	16.8112
2080.41	17.9266
2081.87	19.5206
2083.33	20.3707
2084.79	21.309
2086.24	22.1376
2087.7	22.5477
2089.16	23.8753
2090.61	25.0938
2092.07	25.4383
2093.53	26.9164
2094.98	28.1678
2096.44	29.9136
2097.89	29.8914
2099.35	30.7489
2100.8	31.9853
2102.26	32.9081
2103.71	32.7383
2105.16	33.9159
2106.62	34.9909
2108.07	34.5184
2109.53	35.674
2110.98	36.828
2112.43	38.0406
2113.88	39.0355
2115.33	39.1994
2116.79	39.9462
2118.24	40.728
2119.69	43.4214
2121.14	45.0432
2122.59	46.981
2124.04	49.2613
2125.49	50.6781
2126.94	51.3524
2128.39	53.6591
2129.84	55.8657
2131.29	59.4515
2132.74	60.9574
2134.19	63.3795
2135.63	65.2277
2137.08	68.1039
2138.53	71.4152
2139.98	74.6201
2141.43	78.3324
2142.87	80.3868
2144.32	82.6224
2145.77	86.0362
2147.21	89.1984
2148.66	92.8827
2150.1	96.6023
2151.55	99.3197
2152.99	101.972
2154.44	105.593
2155.88	108.866
2157.33	111.793
2158.77	114.495
2160.21	116.96
2161.66	119.608
2163.1	122.362
2164.55	125.102
2165.99	128.605
2167.43	130.028
2168.87	131.596
2170.31	132.009
2171.76	133.412
2173.2	135.203
2174.64	135.471
2176.08	135.634
2177.52	136.174
2178.96	135.193
2180.4	133.112
2181.84	133.336
2183.28	132.63
2184.72	131.192
2186.16	130.575
2187.6	129.356
2189.04	129.492
2190.47	127.885
2191.91	125.921
2193.35	122.936
2194.79	121.013
2196.23	118.514
2197.66	114.651
2199.1	111.598
2200.54	109.718
2201.97	106.456
2203.41	104.492
2204.84	101.688
2206.28	99.5756
2207.71	97.0493
2209.15	93.2346
2210.58	90.5339
2212.02	87.0025
2213.45	85.021
2214.89	80.5873
2216.32	77.0076
2217.75	74.1652
2219.19	71.4278
2220.62	67.805
2222.05	64.3351
2223.48	61.457
2224.92	59.6106
2226.35	58.1142
2227.78	54.9598
2229.21	51.9303
2230.64	49.9724
2232.07	47.3397
2233.5	46.131
2234.93	45.218
2236.36	44.3043
2237.79	42.3703
2239.22	40.4102
2240.65	39.0879
2242.08	38.2486
2243.51	37.1225
2244.94	35.1732
2246.37	33.9374
2247.79	33.4143
2249.22	32.964
2250.65	31.5127
2252.08	30.3706
2253.5	30.2555
2254.93	29.0124
2256.36	28.3414
2257.78	28.2146
2259.21	27.2491
2260.63	27.4557
2262.06	25.9459
2263.48	25.3649
2264.91	25.1912
2266.33	25.5094
2267.76	25.6931
2269.18	24.4362
2270.6	23.62
2272.03	23.4089
2273.45	22.2864
2274.87	21.4031
2276.3	19.6006
2277.72	18.4069
2279.14	18.5631
2280.56	17.1753
2281.98	16.3948
2283.41	15.0463
2284.83	14.4134
2286.25	12.1575
2287.67	11.6324
2289.09	10.1571
2290.51	9.19162
2291.93	7.22969
2293.35	6.85451
2294.77	6.60011
2296.19	7.22907
2297.61	6.71971
2299.02	5.86835
2300.44	6.39564
2301.86	6.74089
2303.28	6.64428
2304.7	6.73324
2306.11	6.11455
2307.53	6.46058
2308.95	5.70824
2310.36	5.76775
2311.78	6.11137
2313.2	6.40566
2314.61	5.20775
2316.03	5.72236
2317.44	7.18921
2318.86	6.46322
2320.27	5.33092
2321.69	4.36914
2323.1	4.44288
2324.51	5.42865
2325.93	5.64711
2327.34	6.61317
2328.76	6.25323
2330.17	6.83903
2331.58	6.41989
2332.99	6.09719
2334.41	6.43961
2335.82	6.76004
2337.23	6.44977
2338.64	5.62486
2340.05	4.85355
2341.46	5.28386
2342.87	6.6003
2344.28	6.41181
2345.69	6.20609
2347.1	6.33574
2348.51	6.51924
2349.92	5.2552
2351.33	3.55125
2352.74	3.54434
2354.15	3.42047
2355.56	2.61852
2356.97	2.06818
2358.37	1.86843
2359.78	1.64582
2361.19	2.24217
2362.6	2.37232
2364	2.68054
2365.41	3.63897
2366.82	4.87906
2368.22	4.58778
2369.63	4.47793
2371.03	5.25397
2372.44	5.35161
2373.84	4.69936
2375.25	4.28966
2376.65	4.78146
2378.06	5.34357
2379.46	4.47052
2380.86	5.08965
2382.27	4.94315
2383.67	4.7661
2385.07	4.61901
2386.48	3.97454
2387.88	3.61778
2389.28	2.70603
2390.69	3.12674
2392.09	3.31489
2393.49	3.68399
2394.89	3.96813
2396.29	3.3675
2397.69	3.60125
2399.09	3.35399
2400.49	2.95495
2401.89	2.21943
2403.29	3.19364
2404.69	2.43501
2406.09	2.07697
2407.49	1.51773
2408.89	2.16249
2410.29	2.87892
2411.69	3.32228
2413.08	3.39446
2414.48	2.2616
2415.88	1.45926
2417.28	1.55611
2418.67	0.753512
2420.07	0.44452
2421.47	1.19793
2422.86	2.24666
2424.26	2.27649
2425.65	2.40176
2427.05	2.44399
2428.45	2.03034
2429.84	2.45985
2431.23	2.61632
2432.63	2.63478
2434.02	2.4607
2435.42	3.59393
2436.81	3.64334
2438.2	3.53214
2439.6	4.07794
2440.99	4.33365
2442.38	4.45847
2443.78	4.61099
2445.17	5.22862
2446.56	6.49026
2447.95	6.16265
2449.34	6.53532
2450.73	6.70938
2452.13	6.6294
2453.52	6.9821
2454.91	6.71381
2456.3	6.45448
2457.69	6.88122
2459.08	6.75061
2460.47	7.52302
2461.85	6.7834
2463.24	6.66365
2464.63	5.64295
2466.02	5.22966
2467.41	4.43268
2468.8	4.19111
2470.19	3.61388
2471.57	2.93783
2472.96	2.6224
2474.35	1.49926
2475.73	1.79637
2477.12	1.89228
2478.51	2.43988
2479.89	2.17795
2481.28	1.91292
2482.66	1.77207
2484.05	0.828528
2485.43	0.123779
2486.82	0.386876
2488.2	0.753783
2489.59	1.73168
2490.97	2.73871
2492.35	3.6051
2493.74	3.23545
2495.12	3.62399
2496.5	3.61505
2497.89	4.42957
2499.27	4.95911
2500.65	5.75902
2502.03	6.34377
2503.42	6.37839
2504.8	7.22811
2506.18	7.3437
2507.56	7.5919
2508.94	7.34349
2510.32	7.55934
2511.7	8.6624
2513.08	8.51565
2514.46	8.66706
2515.84	8.72482
2517.22	7.90522
2518.6	8.18859
2519.98	7.65277
2521.36	7.98343
2522.73	8.04944
2524.11	7.44401
2525.49	7.54664
2526.87	7.06911
2528.25	7.61723
2529.62	7.46812
2531	6.11653
2532.38	6.39991
2533.75	6.60508
2535.13	6.31944
2536.5	5.58015
2537.88	6.07667
2539.25	5.79911
2540.63	4.67506
2542.01	4.63446
2543.38	4.52771
2544.75	5.08088
2546.13	4.88002
2547.5	4.78535
2548.88	4.5034
2550.25	3.42356
2551.62	3.17213
2553	2.93988
2554.37	4.08554
2555.74	4.7698
2557.11	4.80798
2558.49	5.12979
2559.86	5.88656
2561.23	5.48681
2562.6	4.89258
2563.97	5.00736
2565.34	5.269
2566.71	5.18253
2568.08	4.91899
2569.45	5.35907
2570.82	5.39023
2572.19	5.45276
2573.56	6.00131
2574.93	6.01983
2576.3	6.42125
2577.67	6.99957
2579.03	7.57166
2580.4	7.11721
2581.77	6.7011
2583.14	6.41264
2584.5	5.10083
2585.87	4.90483
2587.24	5.77252
2588.6	5.80405
2589.97	5.47742
2591.34	5.15676
2592.7	5.44537
2594.07	5.49004
2595.43	5.99109
2596.8	6.54618
2598.16	6.08298
2599.53	6.78946
2600.89	7.59853
2602.26	7.41723
2603.62	6.83781
2604.98	7.05576
2606.35	7.10832
2607.71	6.69225
2609.07	6.29842
2610.44	6.15284
2611.8	6.29593
2613.16	6.91455
2614.52	6.34659
2615.88	6.46802
2617.25	6.86492
2618.61	7.23313
2619.97	8.68164
2621.33	9.46871
2622.69	10.0569
2624.05	9.51011
2625.41	10.6757
2626.77	11.5625
2628.13	12.3652
2629.49	11.7325
2630.85	12.0424
2632.21	13.4998
2633.56	14.1317
2634.92	13.9886
2636.28	14.3164
2637.64	15.6853
2639	16.2683
2640.35	17.4596
2641.71	17.5297
2643.07	17.6706
2644.42	17.5035
2645.78	17.732
2647.14	17.1366
2648.49	17.1719
2649.85	17.1509
2651.2	16.753
2652.56	16.1973
2653.91	16.1962
2655.27	16.2843
2656.62	15.9764
2657.98	15.1127
2659.33	15.3323
2660.68	14.9336
2662.04	14.8289
2663.39	14.4621
2664.74	14.5972
2666.1	14.2796
2667.45	14.3518
2668.8	13.4753
2670.15	12.9627
2671.5	11.8771
2672.86	11.1936
2674.21	10.2289
2675.56	10.0462
2676.91	10.0143
2678.26	9.9678
2679.61	10.2881
2680.96	10.1845
2682.31	10.4275
2683.66	11.1655
2685.01	11.8577
2686.36	13.0751
2687.71	12.6814
2689.06	12.8405
2690.4	13.6276
2691.75	14.2618
2693.1	14.4935
2694.45	14.5571
2695.8	14.8235
2697.14	14.3708
2698.49	15.1041
2699.84	17.1816
2701.18	18.5233
2702.53	19.8417
2703.88	21.8302
2705.22	23.7395
2706.57	24.7879
2707.91	25.6816
2709.26	25.7316
2710.6	26.9914
2711.95	28.0467
2713.29	28.2145
2714.64	28.7483
2715.98	28.6007
2717.32	28.1873
2718.67	28.2553
2720.01	27.9311
2721.35	27.8941
2722.7	29.1434
2724.04	29.3687
2725.38	28.8606
2726.72	29.7611
2728.06	29.4676
2729.4	30.3232
2730.75	29.7987
2732.09	29.7338
2733.43	27.4061
2734.77	25.7441
2736.11	25.1417
2737.45	24.517
2738.79	23.7147
2740.13	23.2972
2741.47	22.3999
2742.81	22.9662
2744.15	22.7354
2745.48	21.5499
2746.82	21.3777
2748.16	21.2755
2749.5	22.1391
2750.84	20.9516
2752.17	20.2887
2753.51	19.865
2754.85	17.8839
2756.19	17.3199
2757.52	16.5952
2758.86	15.6263
2760.19	15.1261
2761.53	15.8518
2762.86	15.8921
2764.2	16.2331
2765.54	16.4471
2766.87	16.8781
2768.2	15.9478
2769.54	14.9802
2770.87	13.849
2772.21	12.3607
2773.54	11.6178
2774.88	10.7076
2776.21	9.82052
2777.54	9.24191
2778.87	8.2562
2780.21	7.20022
2781.54	7.52446
2782.87	6.64579
2784.2	6.37876
2785.53	6.25587
2786.87	6.20084
2788.2	5.75872
2789.53	6.51732
2790.86	5.43135
2792.19	4.60185
2793.52	3.84935
2794.85	2.70052
2796.18	2.12082
2797.51	0.58109
2798.84	-0.434675
2800.17	-0.892071
2801.49	-0.395476
2802.82	0.385287
2804.15	0.279455
2805.48	0.0818586
2806.81	-0.336547
2808.13	-0.401707
2809.46	-0.0875692
2810.79	-0.933238
2812.12	-0.650158
2813.44	-0.294609
2814.77	0.177762
2816.09	1.89774
2817.42	1.56403
2818.75	4.29212
2820.07	7.41696
2821.4	10.6894
2822.72	14.061
2824.05	18.6693
2825.37	23.0125
2826.7	28.6661
2828.02	33.4411
2829.35	37.9457
2830.67	43.4777
2831.99	48.3789
2833.31	54.5632
2834.64	60.7911
2835.96	67.3426
2837.28	74.0825
2838.61	82.3838
2839.93	90.3825
2841.25	97.847
2842.57	107.034
2843.89	116.749
2845.21	126.373
2846.53	137.639
2847.85	147.471
2849.17	158.287
2850.49	169.076
2851.81	180.754
2853.13	192.238
2854.45	204.323
2855.77	216.466
2857.09	228.116
2858.41	239.494
2859.73	251.533
2861.05	263.901
2862.36	275.068
2863.68	286.311
2865	297.382
2866.32	307.033
2867.64	316.861
2868.95	326.42
2870.27	334.692
2871.59	342.938
2872.9	350.261
2874.22	358.834
2875.53	366.99
2876.85	374.473
2878.16	382.307
2879.48	388.402
2880.79	396.35
2882.11	403.792
2883.42	410.407
2884.74	418.438
2886.05	426.122
2887.36	433.676
2888.68	440.922
2889.99	448.688
2891.3	455.518
2892.62	463.208
2893.93	469.65
2895.24	478.173
2896.55	487.216
2897.86	495.281
2899.18	504.306
2900.49	513.019
2901.8	522.44
2903.11	533.05
2904.42	544.399
2905.73	555.935
2907.04	568.892
2908.35	583.652
2909.66	598.327
2910.97	612.798
2912.28	627.911
2913.59	641.703
2914.9	657.57
2916.21	672.893
2917.51	687.801
2918.82	700.94
2920.13	714.333
2921.44	725.05
2922.74	735.107
2924.05	744.718
2925.36	753.495
2926.67	760.359
2927.97	764.179
2929.28	767.706
2930.59	768.921
2931.89	769.067
2933.2	767.787
2934.5	764.664
2935.81	759.681
2937.11	754.739
2938.42	747.107
2939.72	738.915
2941.02	728.539
2942.33	717.112
2943.63	706.009
2944.94	692.78
2946.24	679.833
2947.54	665.928
2948.85	652.779
2950.15	638.454
2951.45	624.283
2952.75	608.483
2954.05	592.797
2955.36	576.996
2956.66	561.295
2957.96	545.901
2959.26	530.542
2960.56	516.779
2961.86	502.776
2963.16	487.941
2964.46	474.138
2965.76	461.035
2967.06	449.68
2968.36	438.839
2969.66	427.984
2970.96	419.289
2972.26	410.511
2973.56	401.728
2974.85	392.769
2976.15	383.982
2977.45	374.799
2978.75	366.003
2980.05	357.415
2981.34	348.214
2982.64	337.572
2983.94	327.51
2985.23	316.68
2986.53	304.74
2987.83	294.46
2989.12	283.73
2990.42	271.381
2991.71	259.678
2993.01	247.184
2994.3	235.802
2995.6	223.494
2996.89	211.102
2998.19	198.569
2999.48	187.235
3000.77	175.524
3002.07	164.351
3003.36	151.987
3004.65	141.275
3005.95	130.56
3007.24	120.245
3008.53	110.659
3009.82	99.7576
3011.12	90.1376
3012.41	81.0326
3013.7	73.5581
3014.99	65.263
3016.28	57.6403
3017.57	50.9859
3018.86	45.3921
3020.15	39.4746
3021.44	34.1872
3022.73	29.6711
3024.02	25.6905
3025.31	22.6475
3026.6	19.9973
3027.89	16.9198
3029.18	14.8301
3030.47	13.6123
3031.76	12.5417
3033.04	12.0523
3034.33	11.3967
3035.62	12.5025
3036.91	10.772
3038.19	11.5415
3039.48	11.8615
3040.77	12.0528
3042.05	11.9828
3043.34	13.082
3044.63	13.7243
3045.91	14.2954
3047.2	14.6772
3048.48	14.644
3049.77	14.791
3051.05	15.1972
3052.34	15.3072
3053.62	15.9376
3054.91	16.3284
3056.19	16.8244
3057.48	16.0657
3058.76	15.905
3060.04	15.6994
3061.33	15.7889
3062.61	16.7895
3063.89	16.9141
3065.17	16.5242
3066.46	15.9642
3067.74	14.6142
3069.02	13.4711
3070.3	12.1775
3071.59	11.0802
3072.87	10.2043
3074.15	9.03294
3075.43	7.88368
3076.71	7.41566
3077.99	7.8375
3079.27	7.24546
3080.55	6.83042
3081.83	6.18444
3083.11	5.15941
3084.39	3.7512
3085.67	2.8136
3086.94	2.32006
3088.22	1.14011
3089.5	1.00562
3090.78	1.16747
3092.06	0.574025
3093.34	-0.0367371
3094.61	0.284852
3095.89	1.11489
3097.17	1.6932
3098.44	1.17916
3099.72	2.53283
3101	2.79376
3102.27	5.12517
3103.55	5.42291
3104.82	6.73815
3106.1	7.83346
3107.38	8.81806
3108.65	9.42111
3109.93	10.2315
3111.2	11.4035
3112.47	13.2065
3113.75	15.1033
3115.02	16.0795
3116.3	17.4819
3117.57	19.8742
3118.84	21.1938
3120.12	22.6175
3121.39	24.2815
3122.66	26.7864
3123.93	29.0696
3125.2	31.2531
3126.48	33.2038
3127.75	34.1211
3129.02	35.4754
3130.29	37.2077
3131.56	38.5521
3132.83	40.606
3134.1	42.8117
3135.37	44.7865
3136.64	47.1954
3137.91	48.469
3139.18	49.6997
3140.45	51.3557
3141.72	52.3513
3142.99	52.7345
3144.26	53.1618
3145.53	53.8967
3146.8	54.4581
3148.07	55.7358
3149.33	55.9069
