#Acq. time (s)=	45
#Accumulations=	2
#Range (cm-¹)=	200...3150
#Windows=	2
#Auto scanning=	Off
#Autofocus=	Off
#Macrospot=	Off
#AutoExposure=	Off
#Spike filter=	Multiple accum.
#Delay time (s)=	0
#Binning=	1
#Readout mode=	Signal
#DeNoise=	Off
#ICS correction=	On
#Dark correction=	Off
#Inst. Process=	Off
#Detector Gain=	Best Dynamic Range
#Detector ADC=	20 kHz       
#Detector temperature (°C)=	-69.85
#Instrument=	LabRAM HR Evol
#Detector=	Synapse
#Objective=	x100
#Grating=	600 gr/mm
#ND Filter=	100%
#Laser (nm)=	532 
#Hole=	100.021
#Range=	Auto
#Laser Pol.=	No
#Raman. Pol.=	No
#Laser Pol. (°)=	-0.0007625
#Raman Pol. (°)=	89.9995
#Collection=	Microscope
#StageXY=	Marzhauser
#StageZ=	Marzhauser
#X (µm)=	-1165.5
#Y (µm)=	1301.4
#Z (µm)=	578.35
#Full time(mm:ss)=	3:18
#Project=	
#Sample=	
#Site=	
#Title=	Mbcal_20_25_26_2x_45s_532 nm_x100_100%_600 gr_mm
#Remark=	
#Date=	18.07.2022 11:36
#Acquired=	18.07.2022 11:36:57
#Base:Fit=	10.08.2022 10:55:08
#Base:Sub=	10.08.2022 10:55:14
#Filter:Polynom=	16.08.2022 10:07:28
#AxisType[0]=Intens
#AxisUnit[0]=Cnt
#AxisType[1]=Spectr
#AxisUnit[1]=1/cm
200.419	2.41789
202.234	5.38144
204.048	7.05751
205.862	8.81001
207.678	9.88673
209.491	10.2623
211.304	10.3601
213.116	10.7642
214.928	11.1882
216.742	11.9362
218.554	11.7129
220.365	12.0293
222.176	12.3906
223.986	12.5685
225.798	12.7231
227.608	12.4334
229.417	12.6168
231.226	12.3132
233.035	13.4671
234.843	13.638
236.653	14.5672
238.46	15.308
240.268	15.711
242.074	15.5007
243.881	16.2678
245.687	15.727
247.493	15.1129
249.298	14.9512
251.103	14.7046
252.908	14.9079
254.715	15.7403
256.519	15.9298
258.322	15.7784
260.126	16.0426
261.929	16.2966
263.731	16.2908
265.534	16.6172
267.336	17.2034
269.137	16.5891
270.938	15.1372
272.739	14.9881
274.54	14.8832
276.34	15.6605
278.14	16.1435
279.939	15.7642
281.739	15.5985
283.537	15.1942
285.336	14.8185
287.134	14.6321
288.932	13.5987
290.729	13.0362
292.526	12.1196
294.323	12.1522
296.117	11.1419
297.913	10.792
299.709	10.1033
301.504	10.1235
303.299	10.1428
305.093	10.1403
306.888	10.2027
308.682	9.37874
310.475	9.59904
312.268	9.58712
314.059	9.15215
315.852	9.56676
317.644	9.50535
319.436	10.6178
321.227	10.9587
323.018	11.6316
324.807	11.6141
326.597	12.1945
328.387	11.9238
330.177	11.5038
331.967	11.0714
333.753	11.5808
335.542	10.7382
337.331	11.7988
339.119	12.2959
340.906	12.1528
342.691	11.1843
344.478	10.7777
346.265	10.2828
348.051	10.9541
349.835	10.8359
351.621	10.7674
353.406	10.2777
355.189	10.9772
356.973	10.3618
358.757	10.2744
360.541	10.6031
362.323	11.5017
364.106	11.4238
365.889	10.8553
367.669	9.13664
369.451	7.87844
371.233	7.6447
373.012	8.10634
374.793	7.16142
376.574	7.13104
378.353	5.22191
380.133	5.92051
381.91	6.14193
383.69	5.81436
385.469	4.78089
387.245	3.94456
389.024	3.39096
390.8	3.23937
392.577	3.51251
394.353	4.21448
396.129	4.34673
397.906	4.24292
399.68	4.33958
401.456	4.46505
403.23	5.15976
405.005	6.50618
406.778	6.58963
408.552	7.34309
410.325	7.6239
412.099	7.23303
413.87	7.57806
415.643	8.56416
417.414	8.74561
419.187	8.65109
420.957	9.20935
422.728	9.81472
424.498	9.44894
426.269	9.14173
428.038	8.50376
429.806	8.24519
431.576	7.94371
433.344	8.78672
435.114	9.56216
436.881	9.99132
438.649	9.87562
440.416	10.5799
442.182	10.8295
443.949	10.3685
445.715	10.3781
447.48	10.1743
449.247	10.1139
451.011	9.47434
452.777	8.46433
454.541	8.91155
456.304	9.1676
458.069	9.88295
459.832	10.8376
461.594	11.1302
463.358	10.4929
465.119	10.7515
466.881	9.55799
468.642	10.0939
470.404	9.75758
472.165	9.70132
473.925	10.038
475.684	10.7306
477.445	11.8377
479.204	12.4416
480.963	13.523
482.721	13.9987
484.481	13.9278
486.239	13.4653
487.996	13.703
489.753	14.5332
491.511	15.8168
493.268	16.1072
495.023	16.7415
496.779	17.5607
498.534	18.3001
500.289	18.5162
502.046	20.3032
503.8	20.7632
505.554	20.7814
507.307	21.2066
509.06	21.5952
510.813	20.9538
512.566	20.5613
514.32	20.3684
516.072	20.6548
517.823	21.1827
519.574	21.3991
521.325	21.7288
523.076	21.9685
524.826	21.8281
526.576	22.5581
528.325	22.7712
530.074	22.0117
531.823	22.0154
533.572	22.8951
535.32	23.2376
537.068	24.0273
538.815	23.9327
540.562	23.6991
542.309	23.659
544.056	23.4644
545.802	22.5809
547.547	22.4142
549.293	21.9931
551.038	21.8591
552.783	21.2698
554.527	20.797
556.271	20.4634
558.015	20.476
559.759	20.6805
561.502	18.707
563.245	18.3657
564.987	17.4422
566.729	16.3982
568.471	15.3053
570.213	13.6753
571.954	13.4221
573.693	13.2182
575.433	13.6003
577.173	12.5741
578.913	12.2727
580.652	11.9625
582.392	11.7955
584.13	10.8151
585.867	10.6267
587.605	10.8732
589.343	10.9709
591.08	10.8653
592.817	10.8515
594.552	10.3487
596.289	9.60364
598.025	8.68528
599.761	8.99054
601.496	9.78051
603.229	10.9436
604.964	12.3938
606.699	12.3466
608.433	12.9478
610.165	13.3661
611.898	13.929
613.631	15.0263
615.364	15.0302
617.095	15.1209
618.827	15.9189
620.559	16.7769
622.288	17.2338
624.02	17.5005
625.75	17.9555
627.479	18.6062
629.209	19.7552
630.939	20.8562
632.667	20.9955
634.396	22.1805
636.125	22.6798
637.851	22.2493
639.58	23.2704
641.305	23.7504
643.033	23.683
644.76	24.7195
646.485	24.3427
648.212	24.0923
649.936	25.2871
651.662	25.054
653.388	25.4503
655.111	26.3812
656.836	27.4136
658.558	27.6433
660.283	28.1513
662.005	27.5529
663.728	27.315
665.45	28.5633
667.173	29.1397
668.893	29.8244
670.616	30.6346
672.336	31.4835
674.057	32.0312
675.777	31.7151
677.498	31.7599
679.216	31.1744
680.937	32.0127
682.655	32.0567
684.375	32.4212
686.092	34.1561
687.809	35.1914
689.528	35.7642
691.244	35.6744
692.962	35.8506
694.678	36.8284
696.393	36.6456
698.111	37.2136
699.825	36.4606
701.54	35.8634
703.256	36.6141
704.97	36.2135
706.685	37.6563
708.398	37.9668
710.111	38.5581
711.826	38.6805
713.538	38.638
715.25	38.4476
716.961	38.4952
718.675	39.0433
720.386	39.7721
722.096	40.1529
723.808	40.8013
725.518	42.1195
727.228	42.1883
728.937	42.3398
730.648	42.5202
732.357	43.0191
734.065	44.0316
735.773	45.2011
737.483	46.4808
739.19	47.7551
740.897	48.4136
742.604	49.0281
744.31	49.4672
746.018	51.0374
747.724	51.3848
749.429	52.3709
751.134	53.5005
752.839	54.3975
754.544	55.7769
756.248	56.6954
757.953	57.6113
759.657	58.5228
761.36	59.6907
763.063	61.8184
764.765	63.0526
766.468	64.5229
768.169	64.7053
769.871	66.3162
771.572	67.9981
773.273	69.4632
774.976	70.966
776.676	72.3193
778.376	74.2082
780.075	74.6115
781.775	75.229
783.474	75.7648
785.172	76.1544
786.871	77.4188
788.569	78.7505
790.266	79.5727
791.964	81.4637
793.661	80.8451
795.358	81.2702
797.054	81.2061
798.75	81.5227
800.446	82.4962
802.141	83.2619
803.834	83.857
805.529	83.1523
807.224	82.7775
808.918	82.333
810.612	81.9764
812.305	81.6553
813.998	81.7972
815.691	81.796
817.384	82.032
819.076	82.1636
820.766	82.5731
822.458	82.2805
824.149	82.0143
825.84	82.8831
827.531	82.8575
829.221	82.7035
830.909	82.8169
832.599	82.3323
834.288	81.985
835.977	81.8982
837.666	82.0243
839.353	82.3667
841.041	82.3294
842.729	81.5269
844.416	81.0351
846.103	79.9804
847.788	79.0279
849.475	77.6285
851.161	77.474
852.845	76.6034
854.53	76.9881
856.216	76.4277
857.901	76.4785
859.583	75.9208
861.268	74.7738
862.952	73.465
864.633	72.5884
866.317	71.239
868	70.112
869.681	68.8685
871.363	67.9389
873.045	67.0521
874.725	65.9465
876.406	64.1173
878.088	62.6364
879.767	61.3024
881.447	60.073
883.125	59.6721
884.805	58.9312
886.483	56.9486
888.162	55.5116
889.841	54.0869
891.518	53.9072
893.196	53.678
894.872	53.0559
896.55	53.4127
898.225	53.2986
899.902	52.2142
901.577	52.5406
903.254	52.8548
904.928	52.8592
906.604	52.5653
908.277	52.8396
909.952	53.344
911.625	53.108
913.3	53.3121
914.972	54.0376
916.646	53.5052
918.318	53.1743
919.991	53.7606
921.662	53.5902
923.333	52.9818
925.005	52.3362
926.675	51.5024
928.347	50.7929
930.017	50.1952
931.686	49.5891
933.357	49.2861
935.025	48.9815
936.693	48.3975
938.363	48.4726
940.031	48.0502
941.698	47.6933
943.367	46.8691
945.034	46.3908
946.7	46.3262
948.368	45.866
950.034	44.4462
951.699	44.0521
953.367	43.8887
955.031	44.2091
956.696	43.1422
958.36	41.9474
960.026	40.8805
961.689	40.008
963.353	38.7202
965.016	39.4381
966.68	39.0752
968.343	38.4162
970.005	38.5116
971.666	38.867
973.328	38.8539
974.991	38.9616
976.652	38.7471
978.312	38.0719
979.972	38.8983
981.632	38.6485
983.292	38.5458
984.953	38.382
986.612	38.077
988.27	38.183
989.929	37.9183
991.587	37.7414
993.244	37.7351
994.902	37.8195
996.559	37.0189
998.216	35.9353
999.872	33.8174
1001.53	32.8922
1003.19	32.5105
1004.84	31.5769
1006.5	31.1281
1008.15	30.5067
1009.81	30.0554
1011.46	29.4203
1013.11	28.9733
1014.77	28.7214
1016.42	28.5562
1018.07	28.8419
1019.73	28.028
1021.38	27.4231
1023.03	26.3908
1024.68	25.8399
1026.34	25.5933
1027.99	25.483
1029.64	25.0136
1031.29	24.4082
1032.94	24.0265
1034.59	24.6311
1036.24	24.8889
1037.89	24.0291
1039.53	24.0143
1041.18	24.1704
1042.83	24.3129
1044.48	24.3956
1046.13	24.7237
1047.77	25.9646
1049.42	25.8645
1051.07	26.275
1052.71	26.4349
1054.36	25.9754
1056	26.0865
1057.65	26.116
1059.3	26.3858
1060.94	26.2243
1062.59	27.0646
1064.23	27.3529
1065.87	27.1888
1067.52	27.5359
1069.16	27.3125
1070.8	27.2937
1072.44	26.5476
1074.09	25.9176
1075.73	25.3231
1077.37	24.344
1079.01	23.1396
1080.65	21.4202
1082.29	20.7324
1083.93	20.6201
1085.57	21.0277
1087.21	20.6753
1088.85	19.8965
1090.49	19.798
1092.13	20.0067
1093.77	19.3946
1095.41	19.819
1097.04	20.1706
1098.68	19.6869
1100.32	19.9922
1101.95	19.513
1103.59	19.8241
1105.23	19.9388
1106.86	19.9449
1108.5	19.905
1110.13	20.4461
1111.77	19.6796
1113.4	19.3602
1115.04	19.7365
1116.67	20.8312
1118.31	19.5788
1119.94	19.863
1121.57	20.1129
1123.2	19.2068
1124.84	18.7772
1126.47	18.8101
1128.1	19.0747
1129.73	18.6877
1131.36	18.7799
1132.99	18.8424
1134.62	18.2038
1136.25	17.6386
1137.88	18.1894
1139.51	17.7886
1141.14	17.8401
1142.77	17.6588
1144.4	17.6952
1146.03	15.9739
1147.66	14.5783
1149.28	13.6848
1150.91	11.9397
1152.54	10.9141
1154.16	9.26195
1155.79	7.62685
1157.42	6.72271
1159.04	5.53695
1160.67	5.10189
1162.29	4.1893
1163.92	3.54617
1165.54	3.16841
1167.17	2.58567
1168.79	2.22341
1170.41	1.42286
1172.04	1.57027
1173.66	1.21701
1175.28	1.4831
1176.9	1.29503
1178.53	0.728409
1180.15	0.58496
1181.77	0.507077
1183.39	0.636069
1185.01	0.13135
1186.63	-0.136619
1188.25	-0.187199
1189.87	0.489959
1191.49	0.513627
1193.11	0.454468
1194.73	0.745669
1196.35	0.862771
1197.96	1.79497
1199.58	1.73343
1201.2	3.46539
1202.82	3.72541
1204.43	4.6135
1206.05	5.47184
1207.66	6.86568
1209.28	7.90246
1210.9	8.54891
1212.51	10.0581
1214.13	10.7931
1215.74	11.7491
1217.36	13.2846
1218.97	14.9731
1220.58	16.1646
1222.2	17.2564
1223.81	18.6916
1225.42	19.3913
1227.04	20.3762
1228.65	22.4576
1230.26	23.0536
1231.87	24.2303
1233.48	25.3455
1235.1	26.7297
1236.71	27.5506
1238.32	28.8897
1239.93	29.2406
1241.53	29.3028
1243.14	29.9626
1244.75	29.7345
1246.36	30.0671
1247.97	30.2502
1249.58	30.7527
1251.19	30.6021
1252.8	31.1296
1254.4	31.0629
1256.01	31.1073
1257.62	31.2713
1259.22	33.5224
1260.83	33.7949
1262.43	33.9315
1264.04	33.6217
1265.64	33.8193
1267.25	34.5711
1268.85	35.5389
1270.46	35.651
1272.06	35.0255
1273.66	35.4878
1275.27	34.8726
1276.87	35.7906
1278.48	36.2137
1280.08	36.1605
1281.68	37.0668
1283.28	37.2341
1284.88	38.2415
1286.48	38.832
1288.08	39.6218
1289.68	40.0158
1291.28	40.2847
1292.88	41.4027
1294.48	42.1763
1296.08	43.2593
1297.68	44.3542
1299.28	45.1272
1300.88	46.8281
1302.48	47.199
1304.07	48.6053
1305.67	48.5733
1307.27	49.425
1308.87	48.9132
1310.46	49.5679
1312.06	50.016
1313.65	49.7296
1315.25	49.7101
1316.85	49.3674
1318.44	49.1802
1320.03	48.3928
1321.63	48.3649
1323.22	48.3524
1324.82	45.9437
1326.41	45.5569
1328	45.0666
1329.6	43.9439
1331.19	43.0674
1332.78	42.8082
1334.37	42.2513
1335.96	41.9347
1337.56	41.8843
1339.15	41.0833
1340.74	38.8808
1342.33	37.712
1343.92	36.9325
1345.51	35.9074
1347.1	34.5311
1348.69	33.5306
1350.28	31.8464
1351.86	30.2802
1353.45	29.6195
1355.04	28.0609
1356.63	27.1701
1358.21	25.4092
1359.8	24.9071
1361.39	24.5186
1362.97	23.2614
1364.56	22.7707
1366.15	22.3655
1367.73	22.41
1369.32	22.2551
1370.9	22.133
1372.49	22.5036
1374.07	22.0863
1375.65	23.5385
1377.24	24.024
1378.82	23.8653
1380.41	24.5019
1381.99	24.0196
1383.57	24.5286
1385.15	23.9893
1386.73	24.2556
1388.32	24.216
1389.9	25.7996
1391.48	25.2884
1393.06	25.3284
1394.64	25.8388
1396.22	25.5716
1397.8	25.6972
1399.38	25.3921
1400.96	26.2213
1402.54	26.4725
1404.11	26.9704
1405.69	28.8197
1407.27	29.198
1408.85	30.191
1410.43	31.4481
1412	32.6961
1413.58	33.7737
1415.16	35.0443
1416.73	36.4629
1418.31	37.7697
1419.88	39.2056
1421.46	41.1521
1423.03	43.5903
1424.61	45.5526
1426.18	48.1776
1427.76	50.6782
1429.33	52.3782
1430.9	54.4007
1432.48	55.3231
1434.05	56.1544
1435.62	57.564
1437.2	58.7641
1438.77	59.7995
1440.34	60.8267
1441.91	61.1845
1443.48	62.2308
1445.05	62.821
1446.62	63.5006
1448.19	63.4324
1449.76	62.3186
1451.33	61.6866
1452.9	61.2819
1454.47	60.9599
1456.04	59.804
1457.61	57.7674
1459.17	56.4965
1460.74	54.207
1462.31	52.6791
1463.88	50.2631
1465.44	48.0763
1467.01	46.0937
1468.58	44.0039
1470.14	40.9345
1471.71	39.6366
1473.27	37.6071
1474.84	35.4486
1476.4	34.0196
1477.97	32.597
1479.53	31.065
1481.1	29.2251
1482.66	27.1593
1484.22	25.6007
1485.78	23.7635
1487.35	22.7928
1488.91	21.4027
1490.47	20.6992
1492.03	20.4719
1493.59	19.3203
1495.16	18.0735
1496.72	17.8883
1498.28	17.7734
1499.84	17.4019
1501.4	16.761
1502.96	15.809
1504.52	14.989
1506.08	14.2661
1507.64	12.9799
1509.19	11.7355
1510.75	10.4158
1512.31	10.0045
1513.87	9.75805
1515.42	8.23054
1516.98	7.3936
1518.54	7.71788
1520.1	7.54291
1521.65	7.60296
1523.21	6.94839
1524.76	6.67547
1526.32	5.83151
1527.87	5.36769
1529.43	5.85008
1530.98	5.81915
1532.54	5.34382
1534.09	5.50072
1535.64	5.27078
1537.2	6.42708
1538.75	6.97766
1540.3	7.83328
1541.85	7.80215
1543.41	8.38207
1544.96	9.13237
1546.51	10.1647
1548.06	11.0523
1549.61	12.276
1551.16	12.4532
1552.71	14.0116
1554.26	15.0471
1555.81	15.479
1557.36	15.5308
1558.91	15.373
1560.46	15.637
1562.01	15.3797
1563.56	16.0453
1565.1	16.1052
1566.65	16.7104
1568.2	17.352
1569.75	17.8559
1571.29	18.415
1572.84	19.5167
1574.38	21.2199
1575.93	21.833
1577.48	22.045
1579.02	23.0628
1580.57	23.4666
1582.11	24.518
1583.65	24.7508
1585.2	24.6197
1586.74	24.4891
1588.29	25.2337
1589.83	25.6557
1591.37	25.9898
1592.92	25.9509
1594.46	26.8265
1596	26.9758
1597.54	26.4521
1599.08	26.5131
1600.62	26.2953
1602.16	26.3823
1603.7	26.231
1605.24	26.2835
1606.78	24.9433
1608.32	25.0352
1609.86	25.0824
1611.4	24.8471
1612.94	24.8467
1614.48	25.093
1616.02	24.3964
1617.56	23.0521
1619.09	23.2316
1620.63	23.5876
1622.17	23.5734
1623.71	23.8453
1625.24	23.4875
1626.78	23.3033
1628.31	23.5242
1629.85	23.376
1631.39	23.4338
1632.92	23.0994
1634.46	22.9441
1635.99	23.9242
1637.52	25.4957
1639.06	26.0264
1640.59	27.8268
1642.12	29.0899
1643.66	31.437
1645.19	32.7765
1646.72	34.1607
1648.25	35.6891
1649.79	37.0748
1651.32	37.6726
1652.85	38.6437
1654.38	39.0326
1655.91	39.6519
1657.44	39.9847
1658.97	40.6337
1660.5	40.7677
1662.03	40.4505
1663.56	41.3675
1665.09	41.974
1666.62	41.6348
1668.15	41.4747
1669.67	40.5801
1671.2	39.9626
1672.73	39.2237
1674.26	38.2464
1675.79	37.5285
1677.31	36.8218
1678.84	35.3652
1680.36	33.7253
1681.89	32.2719
1683.42	30.3469
1684.94	29.0258
1686.47	27.4922
1687.99	24.9559
1689.51	23.8865
1691.04	22.1663
1692.56	20.1425
1694.08	18.4025
1695.61	17.5665
1697.13	15.3901
1698.65	13.0729
1700.18	11.6791
1701.7	10.2212
1703.22	8.94737
1704.74	8.19735
1706.26	6.94718
1707.78	5.91359
1709.3	4.92479
1710.82	4.56658
1712.35	4.49671
1713.86	2.9648
1715.39	2.16386
1716.9	2.2269
1718.42	1.67377
1719.94	1.31472
1721.46	0.889523
1722.98	0.878519
1724.5	0.737664
1726.01	0.555764
1727.53	0.35722
1729.05	0.719538
1730.56	1.23004
1732.08	2.16915
1733.6	3.12231
1735.11	3.43833
1736.63	3.59883
1738.14	3.40303
1739.66	4.77511
1741.17	4.64529
1742.69	4.71502
1744.2	5.29992
1745.71	5.48459
1747.23	6.02891
1748.74	6.36034
1750.25	6.71536
1751.77	7.30173
1753.28	7.47578
1754.79	7.34922
1756.3	7.1529
1757.81	7.0014
1759.33	7.1571
1760.84	7.44839
1762.35	7.70356
1763.86	7.3054
1765.37	7.91752
1766.88	7.78549
1768.39	7.7606
1769.9	7.36488
1771.41	7.03892
1772.91	6.74336
1774.42	6.75705
1775.93	6.81379
1777.44	6.52589
1778.95	6.36236
1780.45	6.41043
1781.96	5.96194
1783.47	5.39889
1784.97	5.63957
1786.48	5.64548
1787.99	5.10027
1789.49	4.97573
1791	5.31819
1792.5	5.93972
1794.01	5.80498
1795.51	5.91212
1797.01	5.81358
1798.52	5.94307
1800.02	6.13226
1801.52	6.32114
1803.03	6.49775
1804.53	7.12041
1806.03	8.00305
1807.54	8.15869
1809.04	7.79826
1810.54	7.36135
1812.04	7.4705
1813.54	7.90906
1815.04	8.00627
1816.54	7.56703
1818.04	7.52261
1819.54	7.89785
1821.04	7.62764
1822.54	7.10782
1824.04	7.04242
1825.54	6.77569
1827.04	6.59716
1828.54	6.74868
1830.03	7.26894
1831.53	7.01063
1833.03	7.53215
1834.53	8.0189
1836.02	8.14817
1837.52	7.92158
1839.02	7.94595
1840.51	7.7531
1842.01	7.25916
1843.5	6.89083
1845	6.66947
1846.49	6.55561
1847.99	6.18294
1849.48	6.24016
1850.98	5.48698
1852.47	5.29835
1853.96	5.28564
1855.46	5.25871
1856.95	4.80894
1858.44	4.71293
1859.94	5.16742
1861.43	5.40799
1862.92	5.65116
1864.41	5.63912
1865.9	5.71589
1867.39	5.73574
1868.88	5.46336
1870.37	5.2463
1871.86	5.53157
1873.35	5.66683
1874.84	6.30436
1876.33	6.11557
1877.82	5.85113
1879.31	6.82166
1880.8	7.05055
1882.29	6.69568
1882.58	6.87834
1884.08	7.35246
1885.57	7.75259
1887.06	8.6348
1888.56	8.5271
1890.05	8.7941
1891.54	8.65442
1893.04	8.61293
1894.53	8.66307
1896.02	8.29988
1897.51	8.74616
1899	9.46175
1900.5	10.2922
1901.99	10.783
1903.48	11.3128
1904.97	10.6556
1906.46	10.9578
1907.95	10.7572
1909.44	10.919
1910.93	10.3408
1912.42	9.8374
1913.91	9.61536
1915.4	9.01872
1916.88	9.17897
1918.37	8.99059
1919.86	8.98633
1921.35	8.5533
1922.84	8.9242
1924.32	8.37626
1925.81	8.60636
1927.3	8.37494
1928.78	7.9428
1930.27	7.55336
1931.75	7.16564
1933.24	7.07608
1934.72	6.83213
1936.21	6.56769
1937.69	6.25563
1939.18	6.31777
1940.66	6.4335
1942.15	5.8611
1943.63	5.58077
1945.11	5.46976
1946.6	5.28839
1948.08	6.08221
1949.56	6.29291
1951.04	6.69772
1952.53	7.22304
1954.01	6.77132
1955.49	6.84589
1956.97	7.3733
1958.45	7.78548
1959.93	8.16784
1961.41	8.25786
1962.89	7.05059
1964.37	6.66396
1965.85	5.78321
1967.33	5.60372
1968.81	5.68357
1970.29	5.7724
1971.77	6.05826
1973.24	6.20343
1974.72	6.16462
1976.2	6.26128
1977.68	5.91013
1979.15	5.09317
1980.63	4.75861
1982.11	4.45854
1983.58	3.72443
1985.06	3.02531
1986.53	2.94262
1988.01	2.48935
1989.48	2.1917
1990.96	2.03467
1992.43	1.26338
1993.91	0.700582
1995.38	0.50282
1996.86	0.174485
1998.33	-0.360135
1999.8	-0.641589
2001.27	-0.136198
2002.75	-0.297927
2004.22	-0.50368
2005.69	-0.699474
2007.16	-0.0927585
2008.64	-0.178568
2010.11	-0.122938
2011.58	-0.0767147
2013.05	-0.267932
2014.52	0.0951401
2015.99	-0.0340302
2017.46	1.4165
2018.93	1.63303
2020.4	2.62231
2021.87	3.63519
2023.34	3.71726
2024.8	3.42587
2026.27	3.39194
2027.74	3.53569
2029.21	3.99749
2030.68	4.22364
2032.14	4.47984
2033.61	4.01904
2035.08	4.24902
2036.54	3.92047
2038.01	4.19086
2039.48	4.25526
2040.94	5.08407
2042.41	5.61097
2043.87	5.90869
2045.34	6.38116
2046.8	7.20967
2048.27	7.2995
2049.73	7.38685
2051.19	6.99456
2052.66	7.19043
2054.12	7.26583
2055.58	7.98647
2057.05	7.39442
2058.51	7.92307
2059.97	7.8358
2061.43	7.26082
2062.9	7.73694
2064.36	8.22777
2065.82	8.43537
2067.28	8.81268
2068.74	9.98292
2070.2	9.62338
2071.66	10.3153
2073.12	10.8903
2074.58	11.8583
2076.04	11.3916
2077.5	11.6647
2078.95	12.6161
2080.41	13.4474
2081.87	13.5198
2083.33	13.7068
2084.79	13.8988
2086.24	14.7209
2087.7	15.2228
2089.16	15.3199
2090.61	15.8177
2092.07	15.7601
2093.53	15.989
2094.98	15.5214
2096.44	15.6244
2097.89	16.1188
2099.35	15.8419
2100.8	15.96
2102.26	16.0002
2103.71	16.3888
2105.16	16.8816
2106.62	16.731
2108.07	17.007
2109.53	16.5598
2110.98	16.8939
2112.43	17.0597
2113.88	17.8389
2115.33	18.1751
2116.79	18.9141
2118.24	19.2142
2119.69	19.1808
2121.14	18.6661
2122.59	19.55
2124.04	20.4142
2125.49	20.5449
2126.94	20.4124
2128.39	20.6037
2129.84	20.4568
2131.29	20.9634
2132.74	21.0791
2134.19	22.6244
2135.63	23.872
2137.08	24.4731
2138.53	24.8192
2139.98	25.6156
2141.43	26.1216
2142.87	26.4035
2144.32	28.0234
2145.77	29.0382
2147.21	30.0132
2148.66	30.3055
2150.1	31.3469
2151.55	33.0053
2152.99	32.9719
2154.44	33.4197
2155.88	34.666
2157.33	35.2083
2158.77	36.5891
2160.21	37.2327
2161.66	38.0018
2163.1	38.5076
2164.55	38.2924
2165.99	38.3933
2167.43	38.4807
2168.87	39.564
2170.31	39.8782
2171.76	39.1271
2173.2	39.1024
2174.64	39.056
2176.08	39.127
2177.52	38.7781
2178.96	38.0203
2180.4	37.7587
2181.84	38.2974
2183.28	37.7543
2184.72	37.1667
2186.16	37.2059
2187.6	36.1088
2189.04	35.8067
2190.47	35.0163
2191.91	34.5543
2193.35	34.6478
2194.79	34.6755
2196.23	33.8156
2197.66	32.9042
2199.1	32.2271
2200.54	31.9095
2201.97	31.2921
2203.41	30.618
2204.84	30.6329
2206.28	30.2823
2207.71	29.2412
2209.15	28.8294
2210.58	28.412
2212.02	27.2009
2213.45	26.5824
2214.89	26.2134
2216.32	26.2267
2217.75	25.84
2219.19	25.3107
2220.62	24.6911
2222.05	24.4626
2223.48	24.072
2224.92	23.2666
2226.35	23.62
2227.78	23.1288
2229.21	22.0622
2230.64	22.3096
2232.07	21.393
2233.5	20.5455
2234.93	19.3366
2236.36	18.0882
2237.79	18.0577
2239.22	17.8097
2240.65	17.596
2242.08	16.8204
2243.51	15.9084
2244.94	15.9074
2246.37	15.7915
2247.79	15.105
2249.22	14.4778
2250.65	14.1654
2252.08	14.5751
2253.5	15.0915
2254.93	14.1033
2256.36	14.05
2257.78	13.9646
2259.21	14.0562
2260.63	14.2085
2262.06	14.2101
2263.48	13.7478
2264.91	13.0695
2266.33	12.1609
2267.76	11.8873
2269.18	11.6628
2270.6	10.7761
2272.03	10.4776
2273.45	10.4398
2274.87	10.2138
2276.3	9.92759
2277.72	9.89916
2279.14	10.0779
2280.56	9.65494
2281.98	9.06238
2283.41	8.54165
2284.83	8.97617
2286.25	8.67904
2287.67	9.24901
2289.09	8.55202
2290.51	8.28539
2291.93	7.13575
2293.35	6.31807
2294.77	5.63514
2296.19	5.59739
2297.61	5.94744
2299.02	5.91631
2300.44	6.71583
2301.86	7.4177
2303.28	7.37258
2304.7	7.29844
2306.11	7.29011
2307.53	7.8351
2308.95	8.63073
2310.36	9.60997
2311.78	9.90136
2313.2	10.5412
2314.61	10.5308
2316.03	10.8959
2317.44	10.7826
2318.86	10.8559
2320.27	11.2887
2321.69	11.9741
2323.1	11.9641
2324.51	11.4146
2325.93	10.8038
2327.34	11.085
2328.76	10.9965
2330.17	10.656
2331.58	9.88568
2332.99	10.0823
2334.41	9.58027
2335.82	9.13828
2337.23	8.82721
2338.64	8.4454
2340.05	8.04545
2341.46	7.87631
2342.87	8.22704
2344.28	7.99318
2345.69	7.11521
2347.1	6.60692
2348.51	6.96591
2349.92	6.3161
2351.33	5.74444
2352.74	5.28767
2354.15	5.01218
2355.56	4.22514
2356.97	3.17762
2358.37	2.77165
2359.78	1.72471
2361.19	1.50856
2362.6	0.584094
2364	1.20007
2365.41	1.82097
2366.82	2.94773
2368.22	4.00837
2369.63	4.60343
2371.03	5.08367
2372.44	5.34964
2373.84	5.79551
2375.25	5.89142
2376.65	6.39414
2378.06	6.76377
2379.46	7.85628
2380.86	8.02794
2382.27	7.72931
2383.67	7.83965
2385.07	7.28417
2386.48	7.7633
2387.88	7.31668
2389.28	7.31359
2390.69	7.49185
2392.09	7.53813
2393.49	7.41209
2394.89	8.05195
2396.29	7.96874
2397.69	7.66451
2399.09	6.65078
2400.49	6.37834
2401.89	6.35632
2403.29	6.42942
2404.69	6.3061
2406.09	6.22569
2407.49	6.10863
2408.89	5.85465
2410.29	5.93173
2411.69	6.03503
2413.08	5.86985
2414.48	5.50424
2415.88	5.75144
2417.28	5.46926
2418.67	4.96008
2420.07	4.22157
2421.47	4.01969
2422.86	3.96953
2424.26	4.02004
2425.65	3.68693
2427.05	4.08374
2428.45	4.50415
2429.84	4.55795
2431.23	4.48409
2432.63	4.43164
2434.02	4.68023
2435.42	4.89101
2436.81	5.07905
2438.2	5.17995
2439.6	5.163
2440.99	4.76499
2442.38	5.15323
2443.78	4.79286
2445.17	4.37874
2446.56	4.41735
2447.95	4.37043
2449.34	4.59908
2450.73	3.87069
2452.13	4.16826
2453.52	3.65095
2454.91	2.9281
2456.3	3.19805
2457.69	3.03036
2459.08	3.22284
2460.47	2.7995
2461.85	2.07164
2463.24	1.56609
2464.63	1.32228
2466.02	0.480953
2467.41	0.488858
2468.8	0.323291
2470.19	0.862671
2471.57	1.01741
2472.96	1.04212
2474.35	1.03692
2475.73	0.460793
2477.12	0.0221038
2478.51	-0.480668
2479.89	0.0549125
2481.28	-0.123916
2482.66	-0.628588
2484.05	-1.03509
2485.43	-1.1341
2486.82	-1.46098
2488.2	-1.62845
2489.59	-1.25775
2490.97	-0.613596
2492.35	-1.09857
2493.74	-1.18711
2495.12	-0.930777
2496.5	-0.744021
2497.89	-0.69554
2499.27	-0.708865
2500.65	-0.635897
2502.03	-0.29915
2503.42	-0.0566451
2504.8	0.272584
2506.18	0.236859
2507.56	0.633882
2508.94	0.792023
2510.32	0.58237
2511.7	0.897215
2513.08	0.979917
2514.46	1.63907
2515.84	1.9184
2517.22	2.33395
2518.6	2.43031
2519.98	2.61364
2521.36	3.1041
2522.73	3.44833
2524.11	3.55883
2525.49	4.19852
2526.87	4.04337
2528.25	3.46286
2529.62	3.54778
2531	3.73796
2532.38	4.30654
2533.75	4.37238
2535.13	4.31455
2536.5	4.19668
2537.88	3.90532
2539.25	4.26445
2540.63	4.47305
2542.01	3.91377
2543.38	3.76799
2544.75	3.97775
2546.13	4.05563
2547.5	4.01164
2548.88	4.36419
2550.25	3.8506
2551.62	3.81023
2553	4.0237
2554.37	4.13266
2555.74	3.99193
2557.11	3.81426
2558.49	3.97581
2559.86	4.01858
2561.23	3.23427
2562.6	3.76089
2563.97	3.9715
2565.34	3.79076
2566.71	3.44101
2568.08	3.21474
2569.45	3.4496
2570.82	3.73583
2572.19	3.96785
2573.56	4.06478
2574.93	3.91908
2576.3	3.77244
2577.67	3.49988
2579.03	3.12887
2580.4	3.36482
2581.77	3.44244
2583.14	3.50096
2584.5	3.27657
2585.87	3.43884
2587.24	3.2054
2588.6	3.29374
2589.97	3.45351
2591.34	3.01099
2592.7	2.42538
2594.07	2.53057
2595.43	2.32817
2596.8	2.21831
2598.16	2.49957
2599.53	1.91351
2600.89	2.02149
2602.26	1.79059
2603.62	1.68305
2604.98	1.82613
2606.35	2.04873
2607.71	2.35712
2609.07	2.04022
2610.44	1.97602
2611.8	2.49925
2613.16	2.89933
2614.52	3.3043
2615.88	3.30397
2617.25	3.69748
2618.61	3.52991
2619.97	3.93825
2621.33	4.27013
2622.69	4.18991
2624.05	4.08447
2625.41	4.58252
2626.77	4.5517
2628.13	4.66594
2629.49	4.80067
2630.85	5.67716
2632.21	5.97623
2633.56	5.96033
2634.92	5.81944
2636.28	5.91249
2637.64	6.20572
2639	5.4837
2640.35	5.2286
2641.71	5.05381
2643.07	4.59676
2644.42	4.65035
2645.78	4.39854
2647.14	4.34472
2648.49	4.24504
2649.85	3.83303
2651.2	3.48805
2652.56	3.00513
2653.91	2.60823
2655.27	1.9714
2656.62	1.81796
2657.98	1.57559
2659.33	1.37839
2660.68	1.7931
2662.04	1.67717
2663.39	1.60246
2664.74	1.71152
2666.1	1.56591
2667.45	1.07958
2668.8	1.33891
2670.15	1.16209
2671.5	1.27993
2672.86	2.01816
2674.21	2.21057
2675.56	2.49003
2676.91	2.63671
2678.26	3.23814
2679.61	3.7859
2680.96	4.11944
2682.31	4.78135
2683.66	5.04639
2685.01	5.72739
2686.36	5.58772
2687.71	5.85502
2689.06	6.46046
2690.4	6.82702
2691.75	7.77019
2693.1	8.82375
2694.45	9.10312
2695.8	9.0802
2697.14	9.40341
2698.49	9.53108
2699.84	8.86226
2701.18	8.8902
2702.53	9.06241
2703.88	9.2869
2705.22	9.41708
2706.57	9.61662
2707.91	9.98089
2709.26	10.2317
2710.6	10.2987
2711.95	10.2938
2713.29	9.95286
2714.64	9.95549
2715.98	9.60857
2717.32	9.48174
2718.67	9.40936
2720.01	9.60202
2721.35	9.81911
2722.7	9.63833
2724.04	9.76169
2725.38	9.90019
2726.72	10.2026
2728.06	10.4266
2729.4	9.9709
2730.75	9.68987
2732.09	9.82722
2733.43	9.25191
2734.77	8.78065
2736.11	9.08602
2737.45	8.83475
2738.79	9.10651
2740.13	9.28592
2741.47	9.16102
2742.81	9.31726
2744.15	9.46728
2745.48	9.30386
2746.82	9.22497
2748.16	9.0873
2749.5	9.16754
2750.84	8.96877
2752.17	8.69475
2753.51	8.69173
2754.85	8.39672
2756.19	8.1375
2757.52	7.82616
2758.86	7.73411
2760.19	7.4941
2761.53	7.18034
2762.86	6.99534
2764.2	7.03234
2765.54	6.63184
2766.87	6.07914
2768.2	6.43286
2769.54	6.14555
2770.87	5.52143
2772.21	5.01876
2773.54	5.00751
2774.88	4.49131
2776.21	5.4448
2777.54	5.66773
2778.87	5.47141
2780.21	5.35125
2781.54	4.66275
2782.87	4.12551
2784.2	3.73393
2785.53	3.55597
2786.87	3.429
2788.2	3.27348
2789.53	2.87258
2790.86	2.71915
2792.19	2.53185
2793.52	1.92842
2794.85	1.85001
2796.18	1.40747
2797.51	1.18182
2798.84	1.22348
2800.17	1.47128
2801.49	1.64551
2802.82	2.18605
2804.15	2.06544
2805.48	2.36043
2806.81	2.71409
2808.13	2.62697
2809.46	2.87004
2810.79	3.01878
2812.12	3.35719
2813.44	3.67192
2814.77	4.1415
2816.09	4.2941
2817.42	4.40772
2818.75	4.91114
2820.07	5.49318
2821.4	6.16313
2822.72	8.28537
2824.05	10.0237
2825.37	11.8351
2826.7	13.3794
2828.02	15.1752
2829.35	16.7639
2830.67	18.903
2831.99	20.8187
2833.31	22.4839
2834.64	24.8461
2835.96	26.7929
2837.28	28.6298
2838.61	31.2924
2839.93	33.4513
2841.25	35.6826
2842.57	38.672
2843.89	40.5979
2845.21	42.9714
2846.53	45.265
2847.85	48.1018
2849.17	50.9644
2850.49	54.0115
2851.81	56.8846
2853.13	59.7591
2854.45	63.2137
2855.77	65.9323
2857.09	68.7754
2858.41	71.992
2859.73	74.7664
2861.05	78.2298
2862.36	80.3685
2863.68	82.925
2865	85.294
2866.32	87.5151
2867.64	89.1178
2868.95	90.8207
2870.27	92.0851
2871.59	93.9181
2872.9	95.5001
2874.22	96.9482
2875.53	98.9429
2876.85	100.41
2878.16	101.575
2879.48	102.227
2880.79	104.003
2882.11	104.887
2883.42	106.01
2884.74	107.664
2886.05	108.971
2887.36	110.689
2888.68	112.561
2889.99	112.956
2891.3	114.585
2892.62	115.827
2893.93	117.926
2895.24	118.793
2896.55	120.592
2897.86	121.4
2899.18	123.156
2900.49	125.369
2901.8	127.056
2903.11	128.756
2904.42	130.59
2905.73	133.104
2907.04	136.407
2908.35	139.679
2909.66	142.135
2910.97	144.949
2912.28	147.78
2913.59	150.648
2914.9	152.76
2916.21	156.019
2917.51	158.534
2918.82	160.698
2920.13	163.003
2921.44	164.232
2922.74	165.154
2924.05	166.408
2925.36	166.735
2926.67	167.131
2927.97	166.576
2929.28	166.62
2930.59	165.994
2931.89	165.446
2933.2	164.88
2934.5	163.853
2935.81	162.531
2937.11	160.689
2938.42	158.978
2939.72	156.99
2941.02	154.704
2942.33	151.874
2943.63	149.052
2944.94	146.399
2946.24	143.447
2947.54	139.976
2948.85	137.2
2950.15	134.517
2951.45	131.53
2952.75	128.996
2954.05	125.6
2955.36	122.266
2956.66	119.806
2957.96	117.38
2959.26	114.776
2960.56	111.484
2961.86	109.106
2963.16	106.258
2964.46	103.856
2965.76	101.255
2967.06	98.8391
2968.36	96.8127
2969.66	94.8434
2970.96	93.474
2972.26	91.509
2973.56	88.9164
2974.85	86.4878
2976.15	84.308
2977.45	82.3337
2978.75	79.6288
2980.05	77.1768
2981.34	75.493
2982.64	72.3658
2983.94	69.423
2985.23	67.2034
2986.53	64.4262
2987.83	61.3077
2989.12	58.8689
2990.42	56.2735
2991.71	53.6722
2993.01	51.0841
2994.3	48.5087
2995.6	45.9816
2996.89	43.8171
2998.19	41.2224
2999.48	38.6281
3000.77	36.5071
3002.07	33.9159
3003.36	32.1
3004.65	30.2511
3005.95	27.9081
3007.24	25.8399
3008.53	23.7416
3009.82	22.1755
3011.12	20.521
3012.41	18.9533
3013.7	16.9875
3014.99	15.732
3016.28	14.1989
3017.57	12.7314
3018.86	11.3098
3020.15	10.7596
3021.44	9.71395
3022.73	8.83345
3024.02	7.77288
3025.31	7.45719
3026.6	6.88063
3027.89	6.50302
3029.18	5.71948
3030.47	5.52076
3031.76	5.28075
3033.04	5.07147
3034.33	4.81418
3035.62	5.13565
3036.91	4.94074
3038.19	4.90067
3039.48	4.97552
3040.77	4.99913
3042.05	5.43582
3043.34	5.72847
3044.63	6.26638
3045.91	6.72181
3047.2	6.83021
3048.48	7.31975
3049.77	7.64035
3051.05	7.88656
3052.34	7.77356
3053.62	7.93479
3054.91	8.12049
3056.19	8.18262
3057.48	8.18867
3058.76	8.04785
3060.04	8.5109
3061.33	8.90424
3062.61	8.92014
3063.89	8.94628
3065.17	9.03784
3066.46	8.60236
3067.74	9.04811
3069.02	8.64908
3070.3	7.60576
3071.59	7.59895
3072.87	6.94582
3074.15	6.86876
3075.43	6.62368
3076.71	5.96143
3077.99	5.13579
3079.27	5.02627
3080.55	4.1439
3081.83	3.55614
3083.11	3.22114
3084.39	2.7561
3085.67	2.09514
3086.94	2.35912
3088.22	2.12373
3089.5	1.68458
3090.78	0.645754
3092.06	-0.0273567
3093.34	-0.409242
3094.61	-0.132409
3095.89	0.0521586
3097.17	0.170901
3098.44	-0.279688
3099.72	-0.473802
3101	-0.708212
3102.27	-0.452265
3103.55	-0.415753
3104.82	0.0215505
3106.1	0.172826
3107.38	0.0877866
3108.65	0.13
3109.93	0.761467
3111.2	0.869913
3112.47	0.954492
3113.75	1.15645
3115.02	0.957511
3116.3	0.904537
3117.57	1.21157
3118.84	1.73454
3120.12	2.17735
3121.39	2.43365
3122.66	3.08009
3123.93	3.82828
3125.2	4.0223
3126.48	4.34705
3127.75	4.818
3129.02	5.70167
3130.29	6.35755
3131.56	6.73826
3132.83	6.4278
3134.1	7.10445
3135.37	7.94867
3136.64	8.384
3137.91	9.36927
3139.18	9.8599
3140.45	9.80524
3141.72	10.0771
3142.99	10.8469
3144.26	11.4987
3145.53	12.1802
3146.8	12.5026
3148.07	12.7837
3149.33	12.8296
