#Acq. time (s)=	45
#Accumulations=	2
#Range (cm-¹)=	200...3150
#Windows=	2
#Auto scanning=	Off
#Autofocus=	Off
#Macrospot=	Off
#AutoExposure=	Off
#Spike filter=	Multiple accum.
#Delay time (s)=	0
#Binning=	1
#Readout mode=	Signal
#DeNoise=	Off
#ICS correction=	On
#Dark correction=	Off
#Inst. Process=	Off
#Detector Gain=	Best Dynamic Range
#Detector ADC=	20 kHz       
#Detector temperature (°C)=	-69.85
#Instrument=	LabRAM HR Evol
#Detector=	Synapse
#Objective=	x100
#Grating=	600 gr/mm
#ND Filter=	100%
#Laser (nm)=	532 
#Hole=	100.021
#Range=	Auto
#Laser Pol.=	No
#Raman. Pol.=	No
#Laser Pol. (°)=	-0.0007625
#Raman Pol. (°)=	89.9995
#Collection=	Microscope
#StageXY=	Marzhauser
#StageZ=	Marzhauser
#X (µm)=	-1184
#Y (µm)=	1298.9
#Z (µm)=	578.1
#Full time(mm:ss)=	3:18
#Project=	
#Sample=	
#Site=	
#Title=	Mbcal_20_25_22_2x_45s_532 nm_x100_100%_600 gr_mm
#Remark=	
#Date=	18.07.2022 11:06
#Acquired=	18.07.2022 11:06:08
#Base:Fit=	10.08.2022 10:55:08
#Base:Sub=	10.08.2022 10:55:14
#Filter:Polynom=	16.08.2022 10:07:28
#AxisType[0]=Intens
#AxisUnit[0]=Cnt
#AxisType[1]=Spectr
#AxisUnit[1]=1/cm
200.419	21.6587
202.234	21.0778
204.048	18.6764
205.862	17.1683
207.678	15.8754
209.491	14.6302
211.304	13.2653
213.116	11.6049
214.928	10.5044
216.742	9.3047
218.554	8.56988
220.365	7.61202
222.176	6.87039
223.986	5.93375
225.798	5.02241
227.608	3.94453
229.417	3.40573
231.226	2.44527
233.035	1.04658
234.843	1.05558
236.653	0.942182
238.46	0.338689
240.268	0.756639
242.074	0.0835454
243.881	0.474977
245.687	0.945149
247.493	0.724203
249.298	1.06514
251.103	0.880965
252.908	0.262311
254.715	0.953953
256.519	1.97667
258.322	4.13621
260.126	6.3687
261.929	7.79137
263.731	11.7677
265.534	14.3365
267.336	17.3642
269.137	19.7501
270.938	22.7165
272.739	25.2543
274.54	27.6593
276.34	28.7139
278.14	30.7284
279.939	33.0696
281.739	34.0704
283.537	35.3329
285.336	36.4597
287.134	37.591
288.932	38.071
290.729	39.9652
292.526	40.8858
294.323	40.8072
296.117	40.2354
297.913	40.7029
299.709	40.5283
301.504	41.4413
303.299	42.2339
305.093	42.4334
306.888	42.8977
308.682	42.951
310.475	42.2883
312.268	41.8313
314.059	41.2362
315.852	40.965
317.644	40.5256
319.436	39.4181
321.227	38.1697
323.018	37.4431
324.807	37.1764
326.597	35.611
328.387	34.0821
330.177	32.8997
331.967	30.2628
333.753	29.5054
335.542	28.1663
337.331	26.3604
339.119	25.804
340.906	25.1531
342.691	26.3607
344.478	27.2854
346.265	27.693
348.051	28.5315
349.835	29.0452
351.621	29.1636
353.406	29.2186
355.189	27.6132
356.973	27.2835
358.757	26.2399
360.541	25.0247
362.323	24.164
364.106	22.3735
365.889	21.2406
367.669	21.9593
369.451	21.078
371.233	21.6562
373.012	21.6885
374.793	21.5393
376.574	21.2538
378.353	20.6743
380.133	20.6928
381.91	20.0414
383.69	19.4455
385.469	20.1674
387.245	21.7762
389.024	22.28
390.8	23.628
392.577	23.9043
394.353	23.5569
396.129	24.4917
397.906	23.8711
399.68	23.3626
401.456	22.5803
403.23	22.2422
405.005	21.8241
406.778	20.9774
408.552	19.3331
410.325	19.1607
412.099	19.1551
413.87	17.3611
415.643	15.6684
417.414	15.7665
419.187	15.4088
420.957	14.743
422.728	15.0076
424.498	15.7969
426.269	15.3878
428.038	14.7075
429.806	14.318
431.576	13.5664
433.344	12.2106
435.114	12.9226
436.881	12.9636
438.649	12.0555
440.416	11.4567
442.182	11.364
443.949	10.6799
445.715	11.1228
447.48	10.9366
449.247	10.4138
451.011	10.9417
452.777	10.5934
454.541	12.8745
456.304	15.0496
458.069	16.1986
459.832	18.4887
461.594	18.3881
463.358	18.9586
465.119	21.0274
466.881	21.8522
468.642	22.9141
470.404	23.472
472.165	25.1553
473.925	26.1822
475.684	26.9572
477.445	27.3951
479.204	27.2572
480.963	26.9716
482.721	27.5705
484.481	27.3394
486.239	27.1701
487.996	27.0048
489.753	27.5646
491.511	28.3533
493.268	27.9367
495.023	27.819
496.779	27.0179
498.534	27.9967
500.289	28.979
502.046	28.6505
503.8	29.6778
505.554	31.2748
507.307	31.8078
509.06	32.2095
510.813	32.3455
512.566	32.4673
514.32	31.4608
516.072	31.6648
517.823	32.9068
519.574	33.4877
521.325	34.4666
523.076	36.2148
524.826	35.8236
526.576	35.7007
528.325	36.403
530.074	35.7596
531.823	35.5313
533.572	35.8087
535.32	35.4044
537.068	35.7909
538.815	37.1012
540.562	38.1332
542.309	39.0791
544.056	39.7538
545.802	39.9429
547.547	40.4425
549.293	39.9917
551.038	39.6786
552.783	39.2346
554.527	37.4302
556.271	36.2431
558.015	34.7932
559.759	34.7548
561.502	32.6843
563.245	31.8609
564.987	31.543
566.729	30.0671
568.471	28.732
570.213	27.93
571.954	25.1916
573.693	25.1843
575.433	24.1935
577.173	23.4587
578.913	21.3949
580.652	20.0519
582.392	19.5932
584.13	18.2242
585.867	18.1189
587.605	17.3162
589.343	15.9712
591.08	14.7916
592.817	13.9766
594.552	11.5346
596.289	10.2692
598.025	9.15416
599.761	7.88354
601.496	6.8051
603.229	6.74734
604.964	6.85789
606.699	6.6565
608.433	6.45677
610.165	7.10072
611.898	7.36414
613.631	7.42147
615.364	7.66812
617.095	7.61821
618.827	9.404
620.559	9.98752
622.288	10.8182
624.02	12.2242
625.75	13.1782
627.479	14.8061
629.209	15.6489
630.939	16.9182
632.667	17.3456
634.396	18.1519
636.125	17.8072
637.851	18.4166
639.58	19.3882
641.305	20.781
643.033	21.1451
644.76	21.3896
646.485	23.0932
648.212	23.7163
649.936	24.5326
651.662	25.8399
653.388	26.2342
655.111	27.7943
656.836	29.0891
658.558	29.39
660.283	30.2344
662.005	29.9477
663.728	29.8215
665.45	29.5081
667.173	29.1834
668.893	28.0324
670.616	26.8614
672.336	27.1113
674.057	26.4069
675.777	25.6118
677.498	24.3158
679.216	24.1034
680.937	23.6511
682.655	24.0822
684.375	24.2111
686.092	24.447
687.809	25.7116
689.528	27.3785
691.244	28.4057
692.962	29.7417
694.678	30.9365
696.393	32.2935
698.111	33.6489
699.825	34.0065
701.54	35.0844
703.256	35.6537
704.97	36.4354
706.685	36.011
708.398	36.7356
710.111	36.9301
711.826	37.6119
713.538	38.1826
715.25	37.7238
716.961	37.9246
718.675	37.7212
720.386	38.1445
722.096	38.5512
723.808	39.6822
725.518	39.2555
727.228	38.8558
728.937	38.9416
730.648	39.5033
732.357	40.2239
734.065	39.9163
735.773	39.9215
737.483	40.7426
739.19	40.1965
740.897	40.141
742.604	39.5804
744.31	39.3705
746.018	39.0227
747.724	39.4032
749.429	39.8405
751.134	39.2887
752.839	39.8584
754.544	40.9527
756.248	41.9857
757.953	43.7152
759.657	44.696
761.36	46.7972
763.063	49.2925
764.765	50.8953
766.468	52.3455
768.169	53.55
769.871	55.8186
771.572	57.8014
773.273	59.8957
774.976	61.3965
776.676	64.0607
778.376	66.0249
780.075	67.5419
781.775	67.7656
783.474	68.9362
785.172	70.4132
786.871	71.9412
788.569	72.3723
790.266	73.8267
791.964	75.0424
793.661	76.0019
795.358	76.2555
797.054	77.1159
798.75	78.3274
800.446	80.2765
802.141	80.3964
803.834	80.1091
805.529	80.5405
807.224	79.9467
808.918	79.2227
810.612	78.7127
812.305	77.903
813.998	78.8358
815.691	76.8969
817.384	75.7598
819.076	75.6152
820.766	75.0156
822.458	74.5034
824.149	73.918
825.84	73.2758
827.531	73.4213
829.221	73.7878
830.909	73.4815
832.599	74.2739
834.288	75.1476
835.977	75.6625
837.666	77.1831
839.353	77.5355
841.041	78.1925
842.729	79.3851
844.416	79.7936
846.103	81.1539
847.788	80.8693
849.475	78.627
851.161	78.4828
852.845	78.3834
854.53	77.9797
856.216	77.2392
857.901	76.8211
859.583	75.2906
861.268	74.6819
862.952	73.2677
864.633	72.7481
866.317	70.8803
868	72.0998
869.681	71.5023
871.363	70.173
873.045	68.7138
874.725	68.2926
876.406	67.3022
878.088	65.6653
879.767	65.209
881.447	64.4858
883.125	64.004
884.805	61.5533
886.483	59.2396
888.162	57.2149
889.841	56.3572
891.518	53.8685
893.196	53.4319
894.872	52.2296
896.55	51.2872
898.225	50.6317
899.902	49.3498
901.577	50.6714
903.254	51.43
904.928	51.9593
906.604	53.1862
908.277	53.6723
909.952	54.0875
911.625	55.1069
913.3	56.5557
914.972	57.1816
916.646	59.169
918.318	59.6273
919.991	60.1417
921.662	60.6456
923.333	59.773
925.005	60.4777
926.675	59.2145
928.347	58.3968
930.017	58.3766
931.686	56.1174
933.357	55.2556
935.025	55.7521
936.693	55.521
938.363	54.2374
940.031	53.2794
941.698	52.7957
943.367	51.139
945.034	48.7895
946.7	48.5607
948.368	47.2059
950.034	46.313
951.699	45.8058
953.367	44.0397
955.031	43.0307
956.696	42.296
958.36	39.8902
960.026	36.7263
961.689	35.2882
963.353	34.872
965.016	34.5776
966.68	35.1584
968.343	33.7284
970.005	33.8014
971.666	32.4589
973.328	32.7704
974.991	32.2506
976.652	34.109
978.312	33.4429
979.972	33.472
981.632	33.4716
983.292	35.3042
984.953	35.4797
986.612	35.4881
988.27	36.5239
989.929	35.6413
991.587	34.8661
993.244	34.9924
994.902	35.9676
996.559	36.1983
998.216	35.9267
999.872	35.5745
1001.53	34.7055
1003.19	34.7456
1004.84	34.8439
1006.5	33.8367
1008.15	34.3099
1009.81	33.7886
1011.46	34.9939
1013.11	36.2954
1014.77	36.7501
1016.42	37.9691
1018.07	38.6362
1019.73	38.7995
1021.38	38.4889
1023.03	37.7824
1024.68	38.1968
1026.34	37.602
1027.99	38.1696
1029.64	40.6294
1031.29	41.8767
1032.94	43.1761
1034.59	42.3528
1036.24	41.7102
1037.89	41.1251
1039.53	41.415
1041.18	40.6188
1042.83	41.5375
1044.48	44.2422
1046.13	45.3506
1047.77	45.8877
1049.42	45.3784
1051.07	43.211
1052.71	41.5951
1054.36	38.8959
1056	37.282
1057.65	36.933
1059.3	37.8113
1060.94	39.7308
1062.59	41.2863
1064.23	45.2397
1065.87	48.076
1067.52	51.2468
1069.16	54.1334
1070.8	56.8943
1072.44	57.6515
1074.09	59.8856
1075.73	62.0342
1077.37	64.2921
1079.01	65.2399
1080.65	66.6805
1082.29	67.4767
1083.93	68.5905
1085.57	68.6321
1087.21	68.9587
1088.85	69.8757
1090.49	69.9521
1092.13	71.1126
1093.77	72.3144
1095.41	72.7812
1097.04	72.8608
1098.68	72.5608
1100.32	72.5803
1101.95	71.8866
1103.59	70.8714
1105.23	70.3231
1106.86	69.9239
1108.5	68.4145
1110.13	67.3102
1111.77	65.9849
1113.4	64.0894
1115.04	59.4487
1116.67	55.7418
1118.31	53.1113
1119.94	50.878
1121.57	47.6861
1123.2	43.4241
1124.84	39.2483
1126.47	36.0919
1128.1	31.7271
1129.73	28.8076
1131.36	24.4843
1132.99	20.8313
1134.62	18.9257
1136.25	18.6623
1137.88	20.3749
1139.51	22.4367
1141.14	24.1675
1142.77	25.4362
1144.4	25.644
1146.03	26.4708
1147.66	25.685
1149.28	25.7658
1150.91	24.7046
1152.54	24.2514
1154.16	21.2693
1155.79	20.7209
1157.42	20.8532
1159.04	19.3485
1160.67	17.3888
1162.29	16.4285
1163.92	15.3768
1165.54	15.3368
1167.17	14.391
1168.79	13.7178
1170.41	13.6917
1172.04	12.9977
1173.66	13.9668
1175.28	12.6547
1176.9	12.5196
1178.53	12.7779
1180.15	13.1621
1181.77	13.8821
1183.39	13.8019
1185.01	12.762
1186.63	13.4265
1188.25	12.7595
1189.87	12.915
1191.49	13.3421
1193.11	14.0074
1194.73	13.9823
1196.35	13.8187
1197.96	14.7781
1199.58	14.9372
1201.2	15.3883
1202.82	15.6377
1204.43	16.8588
1206.05	18.0187
1207.66	19.3561
1209.28	21.5193
1210.9	23.4711
1212.51	23.6321
1214.13	25.7721
1215.74	26.7101
1217.36	28.6537
1218.97	30.9206
1220.58	32.2495
1222.2	33.6292
1223.81	33.7598
1225.42	35.7291
1227.04	36.0693
1228.65	36.7883
1230.26	37.3768
1231.87	37.9818
1233.48	39.1228
1235.1	40.2753
1236.71	43.0915
1238.32	44.7442
1239.93	44.3749
1241.53	45.4529
1243.14	46.413
1244.75	47.0444
1246.36	48.2533
1247.97	48.4252
1249.58	49.5246
1251.19	52.0161
1252.8	52.9101
1254.4	53.8966
1256.01	55.4902
1257.62	57.988
1259.22	60.214
1260.83	62.003
1262.43	61.8943
1264.04	62.0756
1265.64	61.9579
1267.25	64.1711
1268.85	64.2511
1270.46	64.5889
1272.06	64.9367
1273.66	66.2464
1275.27	66.7428
1276.87	68.1923
1278.48	69.0754
1280.08	70.7731
1281.68	72.3524
1283.28	73.2305
1284.88	74.3933
1286.48	75.1408
1288.08	76.3246
1289.68	77.7391
1291.28	78.3998
1292.88	78.5824
1294.48	79.6946
1296.08	80.0152
1297.68	81.4976
1299.28	81.224
1300.88	80.8741
1302.48	80.6824
1304.07	80.6866
1305.67	81.4771
1307.27	80.3927
1308.87	80.206
1310.46	80.8683
1312.06	81.3203
1313.65	82.515
1315.25	82.448
1316.85	81.4287
1318.44	81.587
1320.03	80.5555
1321.63	80.2332
1323.22	79.8149
1324.82	79.8811
1326.41	79.0237
1328	78.7265
1329.6	77.5609
1331.19	77.4083
1332.78	76.5562
1334.37	76.8014
1335.96	75.7734
1337.56	74.7364
1339.15	73.6035
1340.74	71.5026
1342.33	69.0104
1343.92	67.6833
1345.51	67.1852
1347.1	67.2857
1348.69	66.2652
1350.28	66.2012
1351.86	66.9483
1353.45	67.4886
1355.04	66.5012
1356.63	66.5662
1358.21	66.0369
1359.8	65.806
1361.39	65.1609
1362.97	63.7653
1364.56	63.7117
1366.15	62.8283
1367.73	61.3187
1369.32	60.775
1370.9	60.2665
1372.49	58.2029
1374.07	57.4858
1375.65	55.1855
1377.24	54.2058
1378.82	52.6154
1380.41	52.3524
1381.99	52.3513
1383.57	52.2079
1385.15	51.8165
1386.73	52.759
1388.32	52.6669
1389.9	52.2786
1391.48	52.0334
1393.06	51.7952
1394.64	50.8529
1396.22	50.4923
1397.8	51.6539
1399.38	51.7233
1400.96	51.2916
1402.54	51.0918
1404.11	51.954
1405.69	52.5968
1407.27	54.6573
1408.85	55.5935
1410.43	58.2827
1412	59.8527
1413.58	61.3453
1415.16	63.2032
1416.73	65.9483
1418.31	67.7904
1419.88	71.7708
1421.46	74.8125
1423.03	79.0285
1424.61	83.417
1426.18	87.0409
1427.76	90.7182
1429.33	94.1384
1430.9	97.2635
1432.48	100.347
1434.05	102.71
1435.62	105.198
1437.2	108.302
1438.77	110.327
1440.34	111.007
1441.91	111.986
1443.48	113.974
1445.05	114.408
1446.62	114.91
1448.19	115.283
1449.76	115.31
1451.33	114.515
1452.9	114.11
1454.47	112.021
1456.04	111.529
1457.61	111.12
1459.17	109.869
1460.74	107.084
1462.31	104.933
1463.88	102.044
1465.44	98.7234
1467.01	94.3466
1468.58	91.2227
1470.14	88.2895
1471.71	84.1008
1473.27	81.4911
1474.84	78.8479
1476.4	75.0549
1477.97	70.5123
1479.53	66.0193
1481.1	64.0815
1482.66	62.049
1484.22	59.514
1485.78	56.568
1487.35	53.1845
1488.91	50.57
1490.47	48.048
1492.03	45.7201
1493.59	43.4433
1495.16	41.9689
1496.72	40.3421
1498.28	38.6756
1499.84	36.3908
1501.4	34.8911
1502.96	31.7812
1504.52	30.5956
1506.08	29.4504
1507.64	27.3849
1509.19	25.6911
1510.75	24.0095
1512.31	21.8973
1513.87	20.4092
1515.42	19.4302
1516.98	18.1493
1518.54	17.1967
1520.1	17.6255
1521.65	17.3334
1523.21	16.5102
1524.76	16.4352
1526.32	16.1401
1527.87	15.9577
1529.43	15.1514
1530.98	14.7422
1532.54	14.4101
1534.09	15.52
1535.64	16.3889
1537.2	15.673
1538.75	16.2214
1540.3	18.0197
1541.85	18.122
1543.41	19.2333
1544.96	20.5722
1546.51	20.7929
1548.06	21.4788
1549.61	22.3018
1551.16	23.8405
1552.71	24.3579
1554.26	24.5597
1555.81	26.4975
1557.36	28.0555
1558.91	29.777
1560.46	29.4877
1562.01	29.8926
1563.56	30.304
1565.1	31.0131
1566.65	31.2551
1568.2	31.4595
1569.75	31.8411
1571.29	32.4709
1572.84	33.1738
1574.38	32.3623
1575.93	32.7595
1577.48	33.8342
1579.02	33.9207
1580.57	34.2178
1582.11	36.0028
1583.65	36.5358
1585.2	36.6279
1586.74	36.6404
1588.29	36.7308
1589.83	36.933
1591.37	37.7383
1592.92	37.8958
1594.46	38.1826
1596	38.0812
1597.54	38.9185
1599.08	38.5389
1600.62	38.1128
1602.16	38.4494
1603.7	38.5416
1605.24	38.4552
1606.78	39.1881
1608.32	40.0696
1609.86	41.453
1611.4	42.9847
1612.94	43.5553
1614.48	44.3692
1616.02	44.9531
1617.56	46.3131
1619.09	47.4391
1620.63	49.0234
1622.17	49.5672
1623.71	50.3336
1625.24	52.844
1626.78	54.1316
1628.31	55.0562
1629.85	55.5964
1631.39	57.2341
1632.92	58.7968
1634.46	59.7585
1635.99	60.4813
1637.52	61.6221
1639.06	63.3529
1640.59	64.8118
1642.12	66.3249
1643.66	66.6216
1645.19	68.0927
1646.72	69.3451
1648.25	70.512
1649.79	71.7174
1651.32	72.6593
1652.85	73.7027
1654.38	73.971
1655.91	73.4869
1657.44	72.7951
1658.97	72.0242
1660.5	70.7962
1662.03	69.4046
1663.56	67.9115
1665.09	66.5979
1666.62	64.8065
1668.15	62.8264
1669.67	60.0216
1671.2	57.6438
1672.73	54.9409
1674.26	53.2344
1675.79	49.8281
1677.31	47.8265
1678.84	46.4047
1680.36	44.5175
1681.89	41.964
1683.42	39.2455
1684.94	37.97
1686.47	35.4997
1687.99	32.9206
1689.51	29.9158
1691.04	28.3512
1692.56	26.8488
1694.08	25.0889
1695.61	22.8295
1697.13	20.7028
1698.65	18.6161
1700.18	17.2136
1701.7	15.3914
1703.22	13.1959
1704.74	11.666
1706.26	11.1923
1707.78	11.1365
1709.3	9.75888
1710.82	8.90595
1712.35	7.68891
1713.86	6.98183
1715.39	5.85562
1716.9	5.29186
1718.42	4.78036
1719.94	3.57818
1721.46	4.10014
1722.98	3.89475
1724.5	3.71664
1726.01	3.14825
1727.53	2.35885
1729.05	1.80784
1730.56	1.79708
1732.08	1.03604
1733.6	0.671399
1735.11	1.17743
1736.63	1.64214
1738.14	1.01295
1739.66	0.825511
1741.17	0.239492
1742.69	0.236496
1744.2	0.00289208
1745.71	-0.0508407
1747.23	0.301684
1748.74	0.67614
1750.25	0.855378
1751.77	1.35864
1753.28	2.24571
1754.79	2.85969
1756.3	2.66418
1757.81	2.46657
1759.33	2.62348
1760.84	3.5285
1762.35	2.57307
1763.86	2.66315
1765.37	3.36909
1766.88	3.72221
1768.39	3.61909
1769.9	3.44159
1771.41	3.97826
1772.91	4.41485
1774.42	4.17574
1775.93	3.99992
1777.44	3.96838
1778.95	4.36972
1780.45	4.73233
1781.96	4.82412
1783.47	3.87981
1784.97	3.11046
1786.48	2.96841
1787.99	2.40647
1789.49	2.44912
1791	2.88801
1792.5	3.04428
1794.01	3.38788
1795.51	3.51727
1797.01	3.2046
1798.52	2.79437
1800.02	2.73259
1801.52	2.35128
1803.03	2.6861
1804.53	2.93434
1806.03	2.93211
1807.54	2.79771
1809.04	3.00503
1810.54	3.06326
1812.04	2.6966
1813.54	2.2501
1815.04	2.13874
1816.54	2.01052
1818.04	1.66412
1819.54	1.43966
1821.04	1.73967
1822.54	1.48088
1824.04	1.66806
1825.54	2.35135
1827.04	3.72886
1828.54	3.75131
1830.03	3.55843
1831.53	3.43769
1833.03	3.94119
1834.53	4.06248
1836.02	4.41268
1837.52	4.75567
1839.02	5.21307
1840.51	5.68457
1842.01	5.75979
1843.5	6.41057
1845	6.95577
1846.49	7.0302
1847.99	6.24468
1849.48	6.02137
1850.98	6.32328
1852.47	6.33859
1853.96	6.1241
1855.46	6.23184
1856.95	5.90736
1858.44	5.85357
1859.94	6.89604
1861.43	7.63851
1862.92	8.21144
1864.41	9.26687
1865.9	9.51446
1867.39	9.53327
1868.88	9.51277
1870.37	9.03654
1871.86	9.16029
1873.35	9.6724
1874.84	9.12503
1876.33	9.29849
1877.82	9.59789
1879.31	9.81214
1880.8	9.60063
1882.29	9.03295
1882.58	8.85306
1884.08	8.50799
1885.57	8.42798
1887.06	7.74512
1888.56	7.36516
1890.05	7.53809
1891.54	7.4355
1893.04	7.93118
1894.53	8.17643
1896.02	7.98369
1897.51	8.92535
1899	8.16323
1900.5	8.31982
1901.99	8.03179
1903.48	8.66536
1904.97	9.138
1906.46	9.43707
1907.95	10.0377
1909.44	10.0895
1910.93	10.1347
1912.42	9.85825
1913.91	10.288
1915.4	10.7966
1916.88	10.7277
1918.37	10.0884
1919.86	9.39932
1921.35	8.98042
1922.84	9.55133
1924.32	9.17904
1925.81	9.38199
1927.3	9.60809
1928.78	10.1331
1930.27	10.1916
1931.75	10.1801
1933.24	10.617
1934.72	10.2336
1936.21	10.1019
1937.69	9.97008
1939.18	9.71485
1940.66	9.02783
1942.15	9.34738
1943.63	9.35831
1945.11	8.75297
1946.6	7.85562
1948.08	8.13931
1949.56	8.96368
1951.04	8.99636
1952.53	8.43478
1954.01	8.45525
1955.49	7.93025
1956.97	7.88904
1958.45	7.37065
1959.93	6.76145
1961.41	6.20136
1962.89	6.04557
1964.37	5.36822
1965.85	4.69222
1967.33	5.07295
1968.81	4.57251
1970.29	4.39626
1971.77	4.1817
1973.24	3.8689
1974.72	4.10096
1976.2	3.42131
1977.68	2.84203
1979.15	2.59604
1980.63	2.40323
1982.11	2.20448
1983.58	1.38126
1985.06	1.74803
1986.53	2.02041
1988.01	1.87675
1989.48	2.09579
1990.96	1.55951
1992.43	1.11689
1993.91	0.991461
1995.38	1.32322
1996.86	1.15068
1998.33	0.453645
1999.8	-0.0635357
2001.27	-0.225229
2002.75	-0.137696
2004.22	0.422014
2005.69	-0.0958631
2007.16	0.925864
2008.64	0.854654
2010.11	0.862828
2011.58	0.692033
2013.05	0.688093
2014.52	0.617281
2015.99	2.22062
2017.46	1.79972
2018.93	1.73382
2020.4	2.78256
2021.87	3.92769
2023.34	4.27179
2024.8	4.65232
2026.27	5.27292
2027.74	5.6104
2029.21	5.48319
2030.68	5.97216
2032.14	6.34188
2033.61	6.60824
2035.08	7.26513
2036.54	7.50297
2038.01	8.07057
2039.48	8.56138
2040.94	9.63063
2042.41	10.3348
2043.87	10.8672
2045.34	11.0504
2046.8	11.4152
2048.27	11.1706
2049.73	12.0503
2051.19	12.5266
2052.66	13.8198
2054.12	14.2768
2055.58	14.6828
2057.05	14.8977
2058.51	15.4347
2059.97	15.2071
2061.43	14.7641
2062.9	15.7628
2064.36	15.5516
2065.82	15.4644
2067.28	15.3649
2068.74	15.2313
2070.2	14.9198
2071.66	14.9191
2073.12	15.246
2074.58	15.397
2076.04	15.2507
2077.5	15.5137
2078.95	14.5246
2080.41	14.4497
2081.87	13.3806
2083.33	13.146
2084.79	13.3991
2086.24	14.1629
2087.7	14.4305
2089.16	14.7485
2090.61	13.1542
2092.07	13.5379
2093.53	13.8882
2094.98	13.8446
2096.44	13.8426
2097.89	13.4677
2099.35	13.6543
2100.8	13.1321
2102.26	14.1902
2103.71	14.6515
2105.16	14.4453
2106.62	15.1263
2108.07	15.9425
2109.53	16.4814
2110.98	18.3375
2112.43	20.1864
2113.88	20.5313
2115.33	21.8142
2116.79	21.5047
2118.24	22.5221
2119.69	23.3983
2121.14	24.7011
2122.59	26.2035
2124.04	27.4868
2125.49	28.1639
2126.94	28.7899
2128.39	29.9779
2129.84	31.1503
2131.29	33.0043
2132.74	34.2336
2134.19	35.7747
2135.63	37.1997
2137.08	38.0366
2138.53	39.2234
2139.98	40.2244
2141.43	41.298
2142.87	42.8899
2144.32	44.5317
2145.77	45.5422
2147.21	46.2101
2148.66	48.2845
2150.1	49.1382
2151.55	50.0154
2152.99	51.3163
2154.44	52.836
2155.88	54.6168
2157.33	55.7158
2158.77	56.6353
2160.21	56.3045
2161.66	57.1542
2163.1	58.0584
2164.55	59.1522
2165.99	59.406
2167.43	60.0131
2168.87	60.9615
2170.31	61.0215
2171.76	61.7776
2173.2	62.1054
2174.64	62.0504
2176.08	62.7027
2177.52	62.3712
2178.96	63.0479
2180.4	63.7314
2181.84	63.0064
2183.28	63.0581
2184.72	61.5834
2186.16	60.0723
2187.6	61.2677
2189.04	60.5836
2190.47	60.4179
2191.91	59.824
2193.35	59.1195
2194.79	58.6454
2196.23	57.7733
2197.66	55.9823
2199.1	54.602
2200.54	53.2623
2201.97	51.1801
2203.41	49.9404
2204.84	47.721
2206.28	46.1422
2207.71	45.4931
2209.15	43.9963
2210.58	42.2954
2212.02	40.5924
2213.45	39.2697
2214.89	37.9318
2216.32	36.156
2217.75	35.0231
2219.19	33.8675
2220.62	33.0153
2222.05	31.5756
2223.48	30.973
2224.92	30.2135
2226.35	29.0896
2227.78	28.2927
2229.21	26.577
2230.64	25.4427
2232.07	23.6449
2233.5	23.6714
2234.93	22.9614
2236.36	21.7945
2237.79	21.6678
2239.22	20.9625
2240.65	19.9268
2242.08	19.1716
2243.51	18.8657
2244.94	18.2569
2246.37	17.9082
2247.79	18.1999
2249.22	16.8468
2250.65	16.6319
2252.08	16.5099
2253.5	15.4784
2254.93	16.2871
2256.36	16.9594
2257.78	17.8311
2259.21	18.8091
2260.63	18.6553
2262.06	18.5725
2263.48	17.6635
2264.91	17.6388
2266.33	17.5305
2267.76	16.5196
2269.18	15.4268
2270.6	14.1189
2272.03	14.1937
2273.45	13.9988
2274.87	13.5743
2276.3	12.6597
2277.72	12.9474
2279.14	12.7063
2280.56	11.4787
2281.98	10.6649
2283.41	10.5285
2284.83	10.6596
2286.25	11.4512
2287.67	10.9491
2289.09	11.4739
2290.51	10.4889
2291.93	9.92247
2293.35	9.31783
2294.77	9.01952
2296.19	9.21281
2297.61	9.15436
2299.02	9.19966
2300.44	9.55816
2301.86	10.7373
2303.28	10.9878
2304.7	12.3938
2306.11	12.5472
2307.53	12.6371
2308.95	13.1017
2310.36	13.7399
2311.78	14.1923
2313.2	14.8389
2314.61	14.3035
2316.03	14.5877
2317.44	15.2657
2318.86	15.1215
2320.27	15.4982
2321.69	16.6843
2323.1	17.7123
2324.51	18.1069
2325.93	18.3538
2327.34	17.7665
2328.76	17.0814
2330.17	16.6506
2331.58	16.3469
2332.99	15.41
2334.41	15.1663
2335.82	15.886
2337.23	14.827
2338.64	14.3183
2340.05	13.9961
2341.46	13.2297
2342.87	13.2254
2344.28	13.1621
2345.69	12.2893
2347.1	12.5045
2348.51	11.8949
2349.92	11.1842
2351.33	10.8037
2352.74	10.6136
2354.15	11.4629
2355.56	10.7753
2356.97	10.6575
2358.37	8.98523
2359.78	9.31104
2361.19	8.2962
2362.6	8.2912
2364	8.62112
2365.41	9.3146
2366.82	10.0331
2368.22	10.6139
2369.63	11.0386
2371.03	10.4536
2372.44	10.4457
2373.84	9.88747
2375.25	9.77884
2376.65	9.14524
2378.06	9.50352
2379.46	9.72114
2380.86	9.73819
2382.27	8.47779
2383.67	7.82427
2385.07	7.40396
2386.48	8.20074
2387.88	7.7993
2389.28	7.42783
2390.69	7.77783
2392.09	7.90455
2393.49	7.2648
2394.89	6.75008
2396.29	5.85279
2397.69	5.85785
2399.09	6.24803
2400.49	7.44988
2401.89	8.36415
2403.29	8.71068
2404.69	8.4078
2406.09	8.18482
2407.49	7.97133
2408.89	8.07266
2410.29	7.46389
2411.69	7.40009
2413.08	7.95568
2414.48	9.1258
2415.88	8.93115
2417.28	9.67044
2418.67	9.75832
2420.07	10.5096
2421.47	10.3906
2422.86	10.7328
2424.26	10.6564
2425.65	10.3425
2427.05	11.3843
2428.45	10.5822
2429.84	10.9985
2431.23	11.0649
2432.63	11.5062
2434.02	11.1481
2435.42	10.9361
2436.81	11.4433
2438.2	11.1303
2439.6	10.7741
2440.99	10.4687
2442.38	10.585
2443.78	10.2032
2445.17	9.73803
2446.56	9.66096
2447.95	9.34651
2449.34	8.66444
2450.73	7.37682
2452.13	6.97026
2453.52	7.05457
2454.91	7.77158
2456.3	7.66946
2457.69	7.32003
2459.08	6.73659
2460.47	6.41373
2461.85	5.94073
2463.24	5.40757
2464.63	5.15562
2466.02	4.60458
2467.41	5.23757
2468.8	4.74403
2470.19	4.23927
2471.57	3.24993
2472.96	2.09029
2474.35	1.30316
2475.73	1.62867
2477.12	1.32674
2478.51	1.19076
2479.89	0.989065
2481.28	1.51414
2482.66	1.93047
2484.05	2.22713
2485.43	1.64197
2486.82	1.67782
2488.2	1.23057
2489.59	0.681954
2490.97	0.55199
2492.35	1.10487
2493.74	0.945773
2495.12	1.69968
2496.5	1.45455
2497.89	0.988267
2499.27	1.46778
2500.65	1.90147
2502.03	1.73363
2503.42	1.61668
2504.8	2.66176
2506.18	2.80891
2507.56	2.33472
2508.94	2.11741
2510.32	2.05427
2511.7	1.69422
2513.08	1.51023
2514.46	1.15007
2515.84	0.528682
2517.22	0.658036
2518.6	0.912463
2519.98	0.74766
2521.36	1.54004
2522.73	1.55465
2524.11	1.70945
2525.49	1.73418
2526.87	1.83073
2528.25	1.70926
2529.62	2.27263
2531	3.34027
2532.38	3.54704
2533.75	3.78427
2535.13	4.23972
2536.5	4.87076
2537.88	5.09402
2539.25	4.8568
2540.63	5.3928
2542.01	5.85383
2543.38	6.08126
2544.75	6.20889
2546.13	6.01386
2547.5	6.01382
2548.88	7.00466
2550.25	7.66117
2551.62	7.79228
2553	7.68826
2554.37	7.55681
2555.74	8.06331
2557.11	8.04849
2558.49	8.43542
2559.86	8.88066
2561.23	8.61755
2562.6	8.28146
2563.97	8.05137
2565.34	8.04303
2566.71	7.65394
2568.08	7.20792
2569.45	6.52755
2570.82	6.40536
2572.19	5.99693
2573.56	5.81604
2574.93	5.27871
2576.3	5.37188
2577.67	5.42281
2579.03	5.01426
2580.4	3.7026
2581.77	3.0064
2583.14	3.05485
2584.5	2.65254
2585.87	3.52711
2587.24	2.36014
2588.6	2.22672
2589.97	2.06797
2591.34	2.1616
2592.7	2.22636
2594.07	2.09574
2595.43	0.843106
2596.8	0.990263
2598.16	1.21928
2599.53	1.74377
2600.89	0.821944
2602.26	1.09596
2603.62	1.48126
2604.98	1.43902
2606.35	0.5597
2607.71	-0.494629
2609.07	-0.349624
2610.44	-0.867384
2611.8	-1.26316
2613.16	-0.740866
2614.52	-0.371712
2615.88	0.0210965
2617.25	0.890579
2618.61	0.127095
2619.97	0.0173389
2621.33	0.92654
2622.69	0.921097
2624.05	0.964212
2625.41	0.553699
2626.77	0.541468
2628.13	0.510716
2629.49	-0.147424
2630.85	-0.734591
2632.21	-0.635246
2633.56	0.364277
2634.92	0.326878
2636.28	2.07897
2637.64	2.74415
2639	4.11475
2640.35	4.60707
2641.71	5.04112
2643.07	5.41729
2644.42	5.69724
2645.78	5.24392
2647.14	5.67527
2648.49	5.62538
2649.85	5.9205
2651.2	5.83225
2652.56	5.19517
2653.91	5.38498
2655.27	5.63871
2656.62	6.72099
2657.98	5.80964
2659.33	5.51452
2660.68	5.42583
2662.04	4.98985
2663.39	5.10984
2664.74	6.27431
2666.1	6.37772
2667.45	5.63118
2668.8	5.42242
2670.15	5.51727
2671.5	5.36434
2672.86	4.17596
2674.21	3.51283
2675.56	3.56187
2676.91	3.64741
2678.26	3.52306
2679.61	3.79746
2680.96	3.96973
2682.31	4.12197
2683.66	3.89344
2685.01	4.08694
2686.36	4.00157
2687.71	3.63896
2689.06	3.65347
2690.4	2.91538
2691.75	2.86093
2693.1	3.19028
2694.45	3.54199
2695.8	3.83014
2697.14	4.3552
2698.49	4.90314
2699.84	6.07117
2701.18	7.28733
2702.53	8.14435
2703.88	8.51548
2705.22	7.55316
2706.57	8.94374
2707.91	9.14753
2709.26	9.10083
2710.6	9.50853
2711.95	9.89021
2713.29	9.60528
2714.64	10.6144
2715.98	10.3771
2717.32	10.462
2718.67	11.2262
2720.01	11.9576
2721.35	12.5812
2722.7	13.0445
2724.04	12.5767
2725.38	11.8712
2726.72	12.1695
2728.06	12.3833
2729.4	11.8386
2730.75	12.1926
2732.09	11.9712
2733.43	11.8131
2734.77	11.4919
2736.11	10.8838
2737.45	10.0622
2738.79	9.95851
2740.13	8.96259
2741.47	8.78581
2742.81	8.20196
2744.15	8.09496
2745.48	7.62578
2746.82	7.19209
2748.16	7.27535
2749.5	6.43792
2750.84	5.45853
2752.17	5.08619
2753.51	4.63063
2754.85	3.67304
2756.19	3.26086
2757.52	2.63691
2758.86	2.02451
2760.19	1.69499
2761.53	2.02127
2762.86	2.01946
2764.2	1.89296
2765.54	1.7857
2766.87	1.78581
2768.2	1.62147
2769.54	1.64628
2770.87	0.869337
2772.21	0.776678
2773.54	1.27729
2774.88	1.07073
2776.21	1.21734
2777.54	1.32878
2778.87	1.11816
2780.21	0.920642
2781.54	1.13802
2782.87	1.13909
2784.2	0.914736
2785.53	1.61873
2786.87	1.57769
2788.2	0.913079
2789.53	0.76286
2790.86	0.729499
2792.19	0.686905
2793.52	0.0348033
2794.85	0.419623
2796.18	0.0057976
2797.51	0.231307
2798.84	0.514891
2800.17	0.397607
2801.49	-0.0297105
2802.82	-0.0353996
2804.15	0.332261
2805.48	0.530878
2806.81	0.328485
2808.13	0.311735
2809.46	0.797988
2810.79	1.07831
2812.12	1.52446
2813.44	2.02164
2814.77	2.59286
2816.09	3.46018
2817.42	4.54317
2818.75	4.99827
2820.07	6.04459
2821.4	7.3679
2822.72	8.97546
2824.05	11.1352
2825.37	13.0761
2826.7	15.6147
2828.02	18.5795
2829.35	20.6104
2830.67	23.2695
2831.99	26.3482
2833.31	28.8765
2834.64	31.2093
2835.96	34.6709
2837.28	37.7326
2838.61	41.3205
2839.93	45.036
2841.25	49.0459
2842.57	52.7112
2843.89	56.6506
2845.21	59.9831
2846.53	63.9987
2847.85	68.6972
2849.17	73.6484
2850.49	77.9874
2851.81	83.2578
2853.13	87.1346
2854.45	91.3088
2855.77	96.5184
2857.09	101.812
2858.41	106.013
2859.73	110.424
2861.05	115.372
2862.36	119.627
2863.68	124.257
2865	128.853
2866.32	132.921
2867.64	136.662
2868.95	141.036
2870.27	144.495
2871.59	148.955
2872.9	152.197
2874.22	155.354
2875.53	158.401
2876.85	161.315
2878.16	164.982
2879.48	168.611
2880.79	172.029
2882.11	175.031
2883.42	176.7
2884.74	179.913
2886.05	182.88
2887.36	185.596
2888.68	188.126
2889.99	192.23
2891.3	195.199
2892.62	198.265
2893.93	201.532
2895.24	205.178
2896.55	209.379
2897.86	213.399
2899.18	217.079
2900.49	220.863
2901.8	225.74
2903.11	230.337
2904.42	234.74
2905.73	239.663
2907.04	245.429
2908.35	251.304
2909.66	256.853
2910.97	262.472
2912.28	269.273
2913.59	275.79
2914.9	283.074
2916.21	288.943
2917.51	294.844
2918.82	299.39
2920.13	303.825
2921.44	308.72
2922.74	311.9
2924.05	315.452
2925.36	318.625
2926.67	320.862
2927.97	323.347
2929.28	324.177
2930.59	324.918
2931.89	324.322
2933.2	323.227
2934.5	322.319
2935.81	319.577
2937.11	317.06
2938.42	313.13
2939.72	309.774
2941.02	305.29
2942.33	301.6
2943.63	296.749
2944.94	291.344
2946.24	284.967
2947.54	279.073
2948.85	272.538
2950.15	266.683
2951.45	260.282
2952.75	254.482
2954.05	248.345
2955.36	242.107
2956.66	235.489
2957.96	229.533
2959.26	223.892
2960.56	218.817
2961.86	213.978
2963.16	208.186
2964.46	202.559
2965.76	197.835
2967.06	193.302
2968.36	189.18
2969.66	184.89
2970.96	181.556
2972.26	178.632
2973.56	174.83
2974.85	171.034
2976.15	167.963
2977.45	164.437
2978.75	161.19
2980.05	157.491
2981.34	152.369
2982.64	148.516
2983.94	144.369
2985.23	139.669
2986.53	136.392
2987.83	131.695
2989.12	127.752
2990.42	121.713
2991.71	116.778
2993.01	112.154
2994.3	106.408
2995.6	101.404
2996.89	96.2785
2998.19	91.4101
2999.48	86.5714
3000.77	81.5708
3002.07	76.4914
3003.36	72.0023
3004.65	67.1941
3005.95	62.4572
3007.24	58.6142
3008.53	53.7855
3009.82	49.2984
3011.12	45.5843
3012.41	42.4388
3013.7	38.7092
3014.99	35.1358
3016.28	32.0197
3017.57	28.9645
3018.86	26.426
3020.15	24.1952
3021.44	22.7392
3022.73	20.6493
3024.02	18.3799
3025.31	16.4376
3026.6	15.3371
3027.89	13.404
3029.18	12.6653
3030.47	12.2351
3031.76	11.8321
3033.04	11.585
3034.33	11.3335
3035.62	11.4416
3036.91	11.6587
3038.19	11.3297
3039.48	11.7975
3040.77	12.4757
3042.05	12.8022
3043.34	14.2547
3044.63	14.5281
3045.91	15.7297
3047.2	16.2526
3048.48	16.3546
3049.77	17.0319
3051.05	17.4408
3052.34	17.7014
3053.62	17.874
3054.91	18.1952
3056.19	19.9034
3057.48	20.0649
3058.76	20.116
3060.04	19.9909
3061.33	20.0978
3062.61	19.5886
3063.89	19.5386
3065.17	18.7826
3066.46	18.1795
3067.74	18.3559
3069.02	17.9482
3070.3	17.6022
3071.59	16.366
3072.87	14.3475
3074.15	13.2311
3075.43	12.8544
3076.71	11.5619
3077.99	10.496
3079.27	9.62655
3080.55	9.96999
3081.83	9.53731
3083.11	8.27683
3084.39	7.1322
3085.67	6.19339
3086.94	4.76987
3088.22	3.64764
3089.5	3.47581
3090.78	3.57305
3092.06	2.59744
3093.34	2.60578
3094.61	2.37436
3095.89	3.04415
3097.17	2.67116
3098.44	3.16839
3099.72	3.54485
3101	4.01698
3102.27	4.00241
3103.55	4.93886
3104.82	5.34059
3106.1	6.35539
3107.38	6.99682
3108.65	6.7506
3109.93	7.32595
3111.2	7.79069
3112.47	8.9925
3113.75	9.20057
3115.02	9.00992
3116.3	10.2738
3117.57	10.4745
3118.84	11.258
3120.12	11.5768
3121.39	11.0571
3122.66	11.6242
3123.93	11.5221
3125.2	12.0887
3126.48	12.1243
3127.75	12.8445
3129.02	13.1747
3130.29	13.497
3131.56	13.8665
3132.83	13.6413
3134.1	13.0221
3135.37	12.3995
3136.64	12.6722
3137.91	13.526
3139.18	14.0927
3140.45	14.4833
3141.72	15.0185
3142.99	15.0388
3144.26	14.8792
3145.53	15.122
3146.8	15.8408
3148.07	16.3972
3149.33	17.9069
