#Acq. time (s)=	45
#Accumulations=	2
#Range (cm-¹)=	200...3150
#Windows=	2
#Auto scanning=	Off
#Autofocus=	Off
#Macrospot=	Off
#AutoExposure=	Off
#Spike filter=	Multiple accum.
#Delay time (s)=	0
#Binning=	1
#Readout mode=	Signal
#DeNoise=	Off
#ICS correction=	On
#Dark correction=	Off
#Inst. Process=	Off
#Detector Gain=	Best Dynamic Range
#Detector ADC=	20 kHz       
#Detector temperature (°C)=	-69.85
#Instrument=	LabRAM HR Evol
#Detector=	Synapse
#Objective=	x100
#Grating=	600 gr/mm
#ND Filter=	100%
#Laser (nm)=	532 
#Hole=	100.021
#Range=	Auto
#Laser Pol.=	No
#Raman. Pol.=	No
#Laser Pol. (°)=	-0.0007625
#Raman Pol. (°)=	89.9995
#Collection=	Microscope
#StageXY=	Marzhauser
#StageZ=	Marzhauser
#X (µm)=	-1126.8
#Y (µm)=	1284.6
#Z (µm)=	578.7
#Full time(mm:ss)=	3:18
#Project=	
#Sample=	
#Site=	
#Title=	Mbcal_20_25_36_2x_45s_532 nm_x100_100%_600 gr_mm
#Remark=	
#Date=	18.07.2022 12:45
#Acquired=	18.07.2022 12:45:33
#Edit:Spike=	18.07.2022 12:46:44
#Edit:Spike=	18.07.2022 12:46:45
#Edit:Spike=	18.07.2022 12:46:46
#Base:Fit=	10.08.2022 10:55:08
#Base:Sub=	10.08.2022 10:55:14
#Filter:Polynom=	16.08.2022 10:07:28
#AxisType[0]=Intens
#AxisUnit[0]=Cnt
#AxisType[1]=Spectr
#AxisUnit[1]=1/cm
200.419	41.9242
202.234	42.5592
204.048	40.3686
205.862	36.9174
207.678	34.176
209.491	31.7562
211.304	29.9048
213.116	27.8498
214.928	24.9449
216.742	23.9609
218.554	22.6802
220.365	20.6946
222.176	19.8335
223.986	18.2341
225.798	16.9921
227.608	14.8345
229.417	13.7583
231.226	13.8275
233.035	12.9372
234.843	11.642
236.653	11.0934
238.46	10.6899
240.268	12.0047
242.074	12.8123
243.881	14.6732
245.687	16.2098
247.493	16.1559
249.298	16.7571
251.103	18.0794
252.908	18.1153
254.715	19.4907
256.519	19.023
258.322	21.364
260.126	22.1445
261.929	21.5278
263.731	21.8655
265.534	21.4054
267.336	23.606
269.137	22.9715
270.938	24.4627
272.739	25.2406
274.54	25.1791
276.34	25.4673
278.14	23.3981
279.939	22.2337
281.739	21.0947
283.537	20.0072
285.336	19.3034
287.134	17.5575
288.932	18.4098
290.729	17.7296
292.526	16.5698
294.323	16.3275
296.117	18.1097
297.913	18.4295
299.709	18.91
301.504	18.8873
303.299	17.6701
305.093	18.3174
306.888	18.7981
308.682	17.8728
310.475	17.9003
312.268	18.0497
314.059	16.2949
315.852	15.1584
317.644	15.3205
319.436	15.4432
321.227	15.9801
323.018	16.2162
324.807	17.69
326.597	19.3795
328.387	21.2567
330.177	24.8073
331.967	26.1017
333.753	26.9839
335.542	26.2305
337.331	26.1227
339.119	26.9056
340.906	27.0397
342.691	24.9629
344.478	24.8338
346.265	24.4361
348.051	25.4047
349.835	24.1503
351.621	22.4171
353.406	21.4958
355.189	21.1025
356.973	20.4755
358.757	18.9947
360.541	18.9667
362.323	18.035
364.106	17.4874
365.889	15.1558
367.669	12.3069
369.451	11.9591
371.233	12.4065
373.012	11.5372
374.793	11.1922
376.574	10.9865
378.353	11.3669
380.133	10.7807
381.91	11.8137
383.69	11.4847
385.469	13.8813
387.245	13.3944
389.024	13.628
390.8	12.5205
392.577	12.3491
394.353	12.623
396.129	11.792
397.906	11.2747
399.68	10.4329
401.456	9.80879
403.23	8.7635
405.005	10.2899
406.778	11.6361
408.552	11.7389
410.325	12.3383
412.099	13.8643
413.87	15.3612
415.643	15.2043
417.414	15.7605
419.187	15.8416
420.957	15.1683
422.728	14.9461
424.498	13.9137
426.269	13.9751
428.038	13.3484
429.806	13.6691
431.576	13.6861
433.344	14.1822
435.114	14.3535
436.881	15.0094
438.649	14.4846
440.416	13.8752
442.182	13.5751
443.949	13.3511
445.715	12.1625
447.48	10.6875
449.247	10.8031
451.011	11.0789
452.777	9.2616
454.541	8.66516
456.304	8.27735
458.069	9.13046
459.832	9.72842
461.594	7.925
463.358	8.05008
465.119	6.63795
466.881	7.29934
468.642	7.12522
470.404	7.40774
472.165	7.18573
473.925	7.63593
475.684	7.05819
477.445	7.05663
479.204	7.05766
480.963	8.05449
482.721	8.21889
484.481	8.73343
486.239	9.16866
487.996	9.14985
489.753	10.3261
491.511	10.7588
493.268	12.1325
495.023	12.8776
496.779	13.8157
498.534	14.5441
500.289	15.0999
502.046	16.285
503.8	16.8679
505.554	19.0903
507.307	20.4315
509.06	21.085
510.813	22.0846
512.566	21.6283
514.32	24.4744
516.072	25.1992
517.823	26.8431
519.574	27.866
521.325	27.7257
523.076	29.582
524.826	29.5947
526.576	29.9566
528.325	31.1336
530.074	31.1265
531.823	31.3517
533.572	31.6442
535.32	29.8691
537.068	31.6943
538.815	31.142
540.562	31.1358
542.309	32.1063
544.056	30.6801
545.802	30.3773
547.547	30.3119
549.293	29.1961
551.038	29.2137
552.783	29.4028
554.527	30.2533
556.271	29.3287
558.015	28.9241
559.759	28.2779
561.502	27.1857
563.245	27.2911
564.987	26.7063
566.729	26.7235
568.471	25.054
570.213	24.4048
571.954	23.7545
573.693	22.8739
575.433	21.7898
577.173	21.1753
578.913	20.023
580.652	19.4722
582.392	18.6876
584.13	16.7666
585.867	15.7734
587.605	14.1497
589.343	15.2853
591.08	13.9297
592.817	13.0409
594.552	11.6919
596.289	10.3323
598.025	10.308
599.761	9.86729
601.496	10.2736
603.229	7.77825
604.964	7.79966
606.699	8.28215
608.433	6.6417
610.165	6.56568
611.898	5.1793
613.631	5.67979
615.364	4.62363
617.095	3.59656
618.827	2.53387
620.559	2.13603
622.288	0.851069
624.02	3.23033
625.75	1.61662
627.479	1.73653
629.209	0.405281
630.939	0.778469
632.667	2.82292
634.396	2.79466
636.125	2.90335
637.851	3.25856
639.58	3.53895
641.305	3.10363
643.033	3.88693
644.76	2.90287
646.485	3.43639
648.212	3.27078
649.936	3.55079
651.662	4.05813
653.388	4.73526
655.111	5.17966
656.836	5.06387
658.558	4.92419
660.283	5.66174
662.005	5.45777
663.728	5.02355
665.45	4.89219
667.173	5.24353
668.893	4.86158
670.616	5.56882
672.336	6.87268
674.057	7.54423
675.777	9.46053
677.498	8.92921
679.216	9.69803
680.937	10.7675
682.655	10.8705
684.375	11.4958
686.092	11.7605
687.809	12.0696
689.528	12.6913
691.244	13.0851
692.962	13.6745
694.678	13.7749
696.393	14.353
698.111	14.5689
699.825	16.0296
701.54	15.6262
703.256	15.9625
704.97	15.3575
706.685	16.206
708.398	16.7575
710.111	18.713
711.826	18.6575
713.538	19.4263
715.25	20.4855
716.961	21.9268
718.675	21.862
720.386	21.0418
722.096	23.2061
723.808	24.108
725.518	25.3958
727.228	25.3506
728.937	26.0688
730.648	25.1326
732.357	26.3263
734.065	26.0802
735.773	26.7023
737.483	27.6771
739.19	27.161
740.897	27.8125
742.604	28.5429
744.31	31.9334
746.018	32.7061
747.724	32.137
749.429	32.7283
751.134	33.3076
752.839	35.1349
754.544	36.8818
756.248	38.9564
757.953	40.4404
759.657	40.7337
761.36	41.0406
763.063	41.2958
764.765	42.4552
766.468	42.3559
768.169	42.5253
769.871	43.6223
771.572	45.0546
773.273	46.2287
774.976	46.2753
776.676	45.8596
778.376	47.24
780.075	48.5167
781.775	49.7525
783.474	50.868
785.172	51.5886
786.871	52.464
788.569	54.3677
790.266	54.2432
791.964	56.3703
793.661	58.4084
795.358	59.5469
797.054	59.7657
798.75	59.5166
800.446	60.4966
802.141	60.5492
803.834	60.874
805.529	61.6527
807.224	63.5137
808.918	62.9996
810.612	61.8712
812.305	59.9062
813.998	61.0272
815.691	60.544
817.384	60.6725
819.076	59.9609
820.766	59.96
822.458	60.6396
824.149	61.0981
825.84	63.1098
827.531	64.7021
829.221	65.1261
830.909	63.004
832.599	64.0234
834.288	66.4816
835.977	66.6521
837.666	67.6834
839.353	68.4851
841.041	68.7845
842.729	68.5413
844.416	67.6063
846.103	67.1684
847.788	67.4905
849.475	66.2621
851.161	65.8562
852.845	65.4986
854.53	65.0422
856.216	64.6823
857.901	63.6385
859.583	62.6607
861.268	62.7352
862.952	62.8784
864.633	62.2944
866.317	61.016
868	57.729
869.681	56.7229
871.363	57.1757
873.045	55.6388
874.725	53.1005
876.406	51.7636
878.088	49.5571
879.767	47.2588
881.447	44.4622
883.125	42.3501
884.805	41.0251
886.483	38.6512
888.162	37.7264
889.841	35.636
891.518	34.4261
893.196	31.1978
894.872	28.8967
896.55	27.9596
898.225	27.7384
899.902	26.7796
901.577	25.319
903.254	24.2565
904.928	24.4393
906.604	25.331
908.277	26.0685
909.952	26.4434
911.625	25.9131
913.3	26.3879
914.972	26.0056
916.646	26.5555
918.318	27.1319
919.991	26.5762
921.662	26.6817
923.333	26.2462
925.005	25.7041
926.675	25.8094
928.347	24.7046
930.017	24.6146
931.686	25.0736
933.357	24.3273
935.025	24.246
936.693	24.2326
938.363	24.4971
940.031	23.5258
941.698	22.5427
943.367	21.8352
945.034	21.7993
946.7	19.9567
948.368	18.9061
950.034	17.9179
951.699	16.9735
953.367	17.6329
955.031	16.6357
956.696	15.1742
958.36	12.9665
960.026	11.7019
961.689	10.4771
963.353	9.59801
965.016	8.56367
966.68	7.89871
968.343	8.32284
970.005	7.59018
971.666	7.77924
973.328	6.79872
974.991	6.56276
976.652	6.99278
978.312	8.61336
979.972	8.17798
981.632	8.97843
983.292	8.05484
984.953	6.44439
986.612	6.23626
988.27	7.60854
989.929	8.27147
991.587	8.11742
993.244	6.69627
994.902	6.42675
996.559	6.69336
998.216	6.4117
999.872	7.12974
1001.53	8.29042
1003.19	8.41895
1004.84	7.60647
1006.5	7.84533
1008.15	8.48068
1009.81	9.06236
1011.46	9.88352
1013.11	11.8338
1014.77	13.6933
1016.42	14.315
1018.07	14.0093
1019.73	15.5526
1021.38	15.4264
1023.03	16.2246
1024.68	18.7781
1026.34	18.7411
1027.99	20.3534
1029.64	20.3899
1031.29	20.2276
1032.94	19.7284
1034.59	19.4426
1036.24	20.2152
1037.89	19.6692
1039.53	18.585
1041.18	17.5647
1042.83	18.1158
1044.48	17.2535
1046.13	17.9436
1047.77	17.7812
1049.42	17.4448
1051.07	18.0204
1052.71	16.4644
1054.36	16.4745
1056	16.7277
1057.65	16.1584
1059.3	15.7236
1060.94	15.2344
1062.59	13.1035
1064.23	12.9237
1065.87	11.3728
1067.52	11.5452
1069.16	11.2123
1070.8	12.3055
1072.44	11.2723
1074.09	10.3002
1075.73	9.725
1077.37	10.4907
1079.01	9.58202
1080.65	8.89269
1082.29	8.55832
1083.93	7.94953
1085.57	6.41176
1087.21	6.12773
1088.85	6.80113
1090.49	8.12833
1092.13	9.5782
1093.77	10.6553
1095.41	10.9584
1097.04	11.9791
1098.68	11.7738
1100.32	12.7097
1101.95	14.639
1103.59	14.8468
1105.23	15.3085
1106.86	16.3405
1108.5	15.7225
1110.13	17.0184
1111.77	16.272
1113.4	15.2476
1115.04	15.8276
1116.67	15.66
1118.31	15.8938
1119.94	14.7489
1121.57	14.5272
1123.2	14.5833
1124.84	14.3229
1126.47	13.5503
1128.1	13.443
1129.73	13.439
1131.36	13.9461
1132.99	14.3049
1134.62	13.754
1136.25	14.7656
1137.88	14.6565
1139.51	14.5446
1141.14	14.7157
1142.77	15.8129
1144.4	14.7434
1146.03	14.4702
1147.66	14.392
1149.28	13.1628
1150.91	12.7906
1152.54	12.3858
1154.16	11.4259
1155.79	9.92
1157.42	8.95512
1159.04	7.43561
1160.67	5.26707
1162.29	5.66346
1163.92	5.36994
1165.54	4.48058
1167.17	4.48434
1168.79	5.54462
1170.41	5.48177
1172.04	6.31056
1173.66	7.8105
1175.28	7.71523
1176.9	8.48529
1178.53	8.55672
1180.15	8.49971
1181.77	8.7031
1183.39	9.36803
1185.01	9.41039
1186.63	10.6345
1188.25	11.4323
1189.87	12.1434
1191.49	11.8703
1193.11	12.3206
1194.73	11.3461
1196.35	12.1184
1197.96	12.5102
1199.58	13.4618
1201.2	13.9355
1202.82	15.6228
1204.43	15.9763
1206.05	17.1498
1207.66	18.7197
1209.28	19.238
1210.9	22.165
1212.51	22.9608
1214.13	23.8035
1215.74	24.7603
1217.36	26.0437
1218.97	28.0095
1220.58	28.9005
1222.2	30.5799
1223.81	32.7779
1225.42	33.6996
1227.04	35.8529
1228.65	37.5259
1230.26	37.6601
1231.87	38.47
1233.48	38.6821
1235.1	40.1923
1236.71	39.913
1238.32	41.306
1239.93	42.149
1241.53	43.8057
1243.14	45.9065
1244.75	46.8341
1246.36	48.358
1247.97	50.1311
1249.58	50.6542
1251.19	51.3317
1252.8	51.4668
1254.4	50.6967
1256.01	49.3354
1257.62	48.9336
1259.22	48.9758
1260.83	49.3316
1262.43	49.7033
1264.04	50.4132
1265.64	50.4247
1267.25	50.9776
1268.85	51.3677
1270.46	51.2934
1272.06	50.4341
1273.66	51.225
1275.27	50.9224
1276.87	52.3779
1278.48	53.2226
1280.08	53.6596
1281.68	54.6092
1283.28	55.9894
1284.88	56.2641
1286.48	57.8181
1288.08	60.3071
1289.68	62.3186
1291.28	65.054
1292.88	65.5621
1294.48	67.1714
1296.08	68.5288
1297.68	70.232
1299.28	73.1332
1300.88	74.6087
1302.48	78.2493
1304.07	79.6713
1305.67	80.6256
1307.27	82.5408
1308.87	83.1871
1310.46	84.9404
1312.06	86.5807
1313.65	89.3674
1315.25	90.9517
1316.85	91.4891
1318.44	93.0686
1320.03	94.5402
1321.63	95.9151
1323.22	97.5214
1324.82	98.1766
1326.41	98.3229
1328	97.4857
1329.6	96.5405
1331.19	94.1685
1332.78	93.6544
1334.37	93.8062
1335.96	94.2537
1337.56	93.3574
1339.15	92.5257
1340.74	92.1676
1342.33	91.3132
1343.92	91.0358
1345.51	90.4044
1347.1	89.3304
1348.69	88.8077
1350.28	88.8101
1351.86	89.1327
1353.45	88.677
1355.04	87.3099
1356.63	87.7802
1358.21	87.3485
1359.8	86.768
1361.39	86.3052
1362.97	85.6861
1364.56	85.0004
1366.15	85.3945
1367.73	84.6502
1369.32	83.2929
1370.9	80.9584
1372.49	80.1741
1374.07	79.9077
1375.65	79.2541
1377.24	79.7478
1378.82	79.8044
1380.41	79.4687
1381.99	79.5619
1383.57	78.5669
1385.15	78.7872
1386.73	79.3507
1388.32	79.0749
1389.9	81.0879
1391.48	80.6522
1393.06	81.436
1394.64	80.8757
1396.22	80.5363
1397.8	81.7735
1399.38	82.1539
1400.96	83.0402
1402.54	82.9456
1404.11	82.8658
1405.69	82.3612
1407.27	82.4504
1408.85	84.1071
1410.43	84.8065
1412	87.5779
1413.58	90.0715
1415.16	92.3331
1416.73	93.7576
1418.31	96.0695
1419.88	100.077
1421.46	103.013
1423.03	106.965
1424.61	110.736
1426.18	115.159
1427.76	119.534
1429.33	123.778
1430.9	126.394
1432.48	128.932
1434.05	131.296
1435.62	134.834
1437.2	137.141
1438.77	138.537
1440.34	140.455
1441.91	142.972
1443.48	144.924
1445.05	146.011
1446.62	146.606
1448.19	148.617
1449.76	149.062
1451.33	150.9
1452.9	150.16
1454.47	150.625
1456.04	150.425
1457.61	150.649
1459.17	151.207
1460.74	151.812
1462.31	151.505
1463.88	152.494
1465.44	152.433
1467.01	151.386
1468.58	151.507
1470.14	149.421
1471.71	148.51
1473.27	146.782
1474.84	145.923
1476.4	144.302
1477.97	141.104
1479.53	138.788
1481.1	135.647
1482.66	134.439
1484.22	131.181
1485.78	128.995
1487.35	126.484
1488.91	123.159
1490.47	121.13
1492.03	118.593
1493.59	114.681
1495.16	111.831
1496.72	108.708
1498.28	106.693
1499.84	103.597
1501.4	100.177
1502.96	97.4752
1504.52	93.4041
1506.08	89.0672
1507.64	85.7068
1509.19	81.9467
1510.75	77.4192
1512.31	72.8855
1513.87	70.2639
1515.42	67.0056
1516.98	62.6571
1518.54	59.2877
1520.1	57.0284
1521.65	53.8207
1523.21	51.8777
1524.76	50.2622
1526.32	48.6578
1527.87	46.0284
1529.43	44.8911
1530.98	43.5817
1532.54	43.6999
1534.09	43.1195
1535.64	43.6803
1537.2	43.505
1538.75	43.9947
1540.3	44.3799
1541.85	44.3192
1543.41	44.3861
1544.96	45.2242
1546.51	45.644
1548.06	46.3152
1549.61	47.3129
1551.16	48.546
1552.71	48.8851
1554.26	48.6019
1555.81	50.2045
1557.36	52.0834
1558.91	53.5171
1560.46	54.3364
1562.01	55.2224
1563.56	57.1784
1565.1	58.1243
1566.65	59.6305
1568.2	61.9578
1569.75	63.3126
1571.29	64.5505
1572.84	66.4215
1574.38	68.5687
1575.93	70.449
1577.48	73.4652
1579.02	74.7303
1580.57	76.7772
1582.11	78.6581
1583.65	80.7392
1585.2	82.3091
1586.74	83.1683
1588.29	84.4324
1589.83	86.1964
1591.37	87.9436
1592.92	87.9121
1594.46	88.142
1596	88.8974
1597.54	89.9276
1599.08	89.5901
1600.62	91.8866
1602.16	91.7775
1603.7	91.0682
1605.24	90.4052
1606.78	88.5106
1608.32	87.4705
1609.86	86.5241
1611.4	85.8838
1612.94	85.3489
1614.48	84.1142
1616.02	82.1686
1617.56	81.6448
1619.09	80.5359
1620.63	80.4448
1622.17	78.6243
1623.71	77.8155
1625.24	77.4109
1626.78	77.5469
1628.31	77.2534
1629.85	76.0145
1631.39	76.1992
1632.92	77.4723
1634.46	75.6229
1635.99	74.9786
1637.52	74.3312
1639.06	75.9782
1640.59	75.1342
1642.12	74.6192
1643.66	75.3423
1645.19	76.2337
1646.72	76.3994
1648.25	76.7195
1649.79	77.4475
1651.32	78.2409
1652.85	76.8465
1654.38	77.3315
1655.91	76.0901
1657.44	76.6534
1658.97	76.6598
1660.5	75.5012
1662.03	74.9303
1663.56	73.9543
1665.09	73.4181
1666.62	72.3004
1668.15	69.8886
1669.67	68.3958
1671.2	66.7862
1672.73	64.9317
1674.26	62.1517
1675.79	60.5239
1677.31	58.8975
1678.84	55.4645
1680.36	52.2684
1681.89	49.723
1683.42	46.9191
1684.94	46.9825
1686.47	45.734
1687.99	43.9459
1689.51	41.9649
1691.04	38.9904
1692.56	38.1633
1694.08	37.0837
1695.61	34.7246
1697.13	33.0547
1698.65	31.3017
1700.18	31.2436
1701.7	29.7969
1703.22	29.3177
1704.74	26.7638
1706.26	25.2547
1707.78	24.6916
1709.3	22.8404
1710.82	20.3258
1712.35	19.6715
1713.86	17.8309
1715.39	17.2493
1716.9	14.4053
1718.42	13.6648
1719.94	13.177
1721.46	12.7281
1722.98	11.1586
1724.5	10.6169
1726.01	10.0336
1727.53	8.84152
1729.05	8.61241
1730.56	9.50251
1732.08	9.69004
1733.6	8.80364
1735.11	7.75416
1736.63	7.34186
1738.14	7.21322
1739.66	6.31387
1741.17	5.97191
1742.69	4.88692
1744.2	4.13291
1745.71	3.64109
1747.23	2.47393
1748.74	2.18119
1750.25	1.70887
1751.77	2.50609
1753.28	3.09753
1754.79	3.68417
1756.3	3.49341
1757.81	4.15982
1759.33	5.37554
1760.84	6.13011
1762.35	5.35815
1763.86	5.34431
1765.37	5.16958
1766.88	4.95695
1768.39	6.32621
1769.9	5.55101
1771.41	5.9134
1772.91	6.61681
1774.42	6.53899
1775.93	5.9347
1777.44	5.47005
1778.95	5.20815
1780.45	4.26921
1781.96	4.52847
1783.47	4.39228
1784.97	3.6309
1786.48	4.02601
1787.99	4.04605
1789.49	4.59371
1791	5.40259
1792.5	4.93345
1794.01	5.6844
1795.51	6.09117
1797.01	6.50029
1798.52	6.30621
1800.02	7.06547
1801.52	7.4163
1803.03	7.19508
1804.53	8.21114
1806.03	8.42727
1807.54	8.16703
1809.04	7.60879
1810.54	8.2812
1812.04	8.84163
1813.54	8.66438
1815.04	8.29345
1816.54	8.41138
1818.04	8.62605
1819.54	9.22861
1821.04	9.26764
1822.54	9.42413
1824.04	9.57364
1825.54	9.58901
1827.04	9.5274
1828.54	9.86346
1830.03	9.62632
1831.53	9.54443
1833.03	9.60422
1834.53	9.07039
1836.02	8.79831
1837.52	8.91002
1839.02	9.00378
1840.51	9.06477
1842.01	9.67599
1843.5	9.81495
1845	9.44791
1846.49	9.64537
1847.99	10.1541
1849.48	10.0804
1850.98	10.2299
1852.47	10.4491
1853.96	9.30136
1855.46	8.52946
1856.95	9.0935
1858.44	9.27458
1859.94	9.21765
1861.43	9.47448
1862.92	9.60222
1864.41	8.87974
1865.9	7.84727
1867.39	6.8988
1868.88	7.55147
1870.37	7.35271
1871.86	6.96272
1873.35	7.45547
1874.84	8.11752
1876.33	8.11453
1877.82	8.26688
1879.31	8.20813
1880.8	8.47563
1882.29	7.6457
1882.58	7.78908
1884.08	8.01582
1885.57	7.56266
1887.06	7.95719
1888.56	8.70785
1890.05	9.31543
1891.54	9.93335
1893.04	10.4123
1894.53	10.2656
1896.02	9.22087
1897.51	9.05845
1899	8.83127
1900.5	8.45477
1901.99	8.73631
1903.48	8.842
1904.97	9.05085
1906.46	9.10738
1907.95	10.2457
1909.44	10.6818
1910.93	10.4104
1912.42	10.2697
1913.91	10.4193
1915.4	10.6506
1916.88	9.59957
1918.37	9.76739
1919.86	9.61251
1921.35	9.26772
1922.84	8.35658
1924.32	7.52855
1925.81	6.811
1927.3	7.1419
1928.78	8.0974
1930.27	8.52481
1931.75	7.72123
1933.24	7.47618
1934.72	7.31347
1936.21	6.62068
1937.69	6.31635
1939.18	6.56555
1940.66	6.79841
1942.15	6.92067
1943.63	6.15926
1945.11	6.12517
1946.6	6.24934
1948.08	5.55176
1949.56	5.0033
1951.04	5.32682
1952.53	5.19314
1954.01	5.87964
1955.49	6.12748
1956.97	6.66253
1958.45	6.64525
1959.93	7.38441
1961.41	8.48194
1962.89	8.16846
1964.37	7.69769
1965.85	7.59951
1967.33	6.94511
1968.81	6.08964
1970.29	5.97121
1971.77	6.07776
1973.24	5.67459
1974.72	4.83489
1976.2	5.16492
1977.68	5.52713
1979.15	5.50139
1980.63	5.45008
1982.11	5.48967
1983.58	4.3061
1985.06	4.6886
1986.53	4.69463
1988.01	4.35772
1989.48	3.71824
1990.96	3.41837
1992.43	3.51472
1993.91	3.76978
1995.38	3.24911
1996.86	3.33436
1998.33	3.50637
1999.8	3.37933
2001.27	3.32345
2002.75	2.72455
2004.22	2.66802
2005.69	2.5987
2007.16	3.20006
2008.64	3.26451
2010.11	3.08828
2011.58	4.16246
2013.05	3.96212
2014.52	3.56848
2015.99	4.21631
2017.46	4.00569
2018.93	4.19955
2020.4	4.50689
2021.87	5.12948
2023.34	6.17782
2024.8	6.83856
2026.27	7.57656
2027.74	8.22423
2029.21	8.56045
2030.68	9.45765
2032.14	9.92152
2033.61	10.9567
2035.08	10.6294
2036.54	10.6665
2038.01	11.134
2039.48	11.5542
2040.94	11.9101
2042.41	12.3215
2043.87	12.9233
2045.34	12.8196
2046.8	12.9554
2048.27	13.8126
2049.73	14.9067
2051.19	15.6071
2052.66	15.2339
2054.12	15.7195
2055.58	15.9217
2057.05	15.9863
2058.51	16.0859
2059.97	15.6883
2061.43	15.6751
2062.9	15.4826
2064.36	15.865
2065.82	14.8524
2067.28	15.56
2068.74	14.631
2070.2	15.4228
2071.66	15.3761
2073.12	15.849
2074.58	16.1284
2076.04	16.9009
2077.5	17.9054
2078.95	18.5024
2080.41	18.5561
2081.87	18.2821
2083.33	18.0331
2084.79	18.0952
2086.24	17.2981
2087.7	17.2367
2089.16	17.8902
2090.61	16.9849
2092.07	16.8115
2093.53	16.8539
2094.98	17.0443
2096.44	16.8613
2097.89	16.3289
2099.35	16.7668
2100.8	16.97
2102.26	17.8105
2103.71	17.916
2105.16	17.4798
2106.62	17.8565
2108.07	17.8331
2109.53	18.055
2110.98	18.7209
2112.43	19.3315
2113.88	20.4833
2115.33	20.4068
2116.79	20.2792
2118.24	20.8851
2119.69	21.2604
2121.14	22.3025
2122.59	22.0924
2124.04	22.6289
2125.49	22.9654
2126.94	24.4698
2128.39	25.0879
2129.84	25.2456
2131.29	25.3865
2132.74	26.723
2134.19	27.4968
2135.63	28.5832
2137.08	30.4558
2138.53	31.0449
2139.98	32.6674
2141.43	33.6018
2142.87	35.2933
2144.32	36.5351
2145.77	38.2517
2147.21	39.844
2148.66	41.5603
2150.1	41.9303
2151.55	42.6877
2152.99	43.379
2154.44	44.1714
2155.88	44.8563
2157.33	45.5506
2158.77	46.7765
2160.21	47.0655
2161.66	47.6606
2163.1	47.6977
2164.55	48.6292
2165.99	48.9697
2167.43	49.7889
2168.87	50.4067
2170.31	50.8838
2171.76	51.6112
2173.2	52.585
2174.64	52.6237
2176.08	52.5999
2177.52	53.0156
2178.96	52.8741
2180.4	52.4494
2181.84	51.8005
2183.28	52.0993
2184.72	51.0985
2186.16	50.3937
2187.6	49.7196
2189.04	49.2657
2190.47	48.4769
2191.91	47.8779
2193.35	46.9188
2194.79	45.3861
2196.23	44.7129
2197.66	42.8842
2199.1	41.4696
2200.54	39.6428
2201.97	38.8217
2203.41	38.0958
2204.84	38.2612
2206.28	37.077
2207.71	36.6984
2209.15	35.6743
2210.58	34.1898
2212.02	33.304
2213.45	32.8951
2214.89	31.7639
2216.32	30.6517
2217.75	29.4759
2219.19	28.6091
2220.62	27.1288
2222.05	26.1057
2223.48	25.0634
2224.92	23.7206
2226.35	22.3111
2227.78	20.7762
2229.21	19.3854
2230.64	18.9261
2232.07	17.5648
2233.5	17.1889
2234.93	16.7794
2236.36	17.0594
2237.79	15.9663
2239.22	16.7583
2240.65	16.1349
2242.08	16.1339
2243.51	16.5853
2244.94	16.487
2246.37	16.4245
2247.79	16.4229
2249.22	15.7471
2250.65	14.9943
2252.08	15.1925
2253.5	15.6987
2254.93	16.4004
2256.36	16.1006
2257.78	16.3746
2259.21	16.6818
2260.63	15.8827
2262.06	15.6184
2263.48	16.9665
2264.91	16.3367
2266.33	16.0077
2267.76	16.0929
2269.18	15.865
2270.6	16.829
2272.03	16.9571
2273.45	17.3038
2274.87	17.4297
2276.3	18.2024
2277.72	17.4799
2279.14	17.3157
2280.56	17.0306
2281.98	16.0854
2283.41	15.6841
2284.83	14.8663
2286.25	14.0085
2287.67	13.1834
2289.09	12.5568
2290.51	11.8966
2291.93	10.2433
2293.35	8.25523
2294.77	6.46405
2296.19	6.0845
2297.61	6.14626
2299.02	5.00867
2300.44	5.91821
2301.86	6.174
2303.28	5.95646
2304.7	6.33372
2306.11	6.547
2307.53	6.51294
2308.95	6.04486
2310.36	7.04558
2311.78	7.0322
2313.2	7.52073
2314.61	7.29431
2316.03	6.96534
2317.44	7.05757
2318.86	6.34497
2320.27	5.72414
2321.69	5.40593
2323.1	6.06623
2324.51	6.11655
2325.93	6.00478
2327.34	5.9352
2328.76	6.78415
2330.17	6.3435
2331.58	6.71469
2332.99	7.77505
2334.41	7.79323
2335.82	7.09822
2337.23	7.63977
2338.64	8.08749
2340.05	7.95188
2341.46	7.60933
2342.87	6.92003
2344.28	6.99145
2345.69	7.03655
2347.1	6.76736
2348.51	5.97865
2349.92	6.2446
2351.33	6.45293
2352.74	6.35138
2354.15	6.06778
2355.56	5.43888
2356.97	5.50519
2358.37	4.79047
2359.78	4.65538
2361.19	4.5764
2362.6	4.2865
2364	4.05109
2365.41	4.91083
2366.82	5.14975
2368.22	4.88633
2369.63	4.43046
2371.03	4.85811
2372.44	4.33346
2373.84	4.61934
2375.25	4.77841
2376.65	4.52136
2378.06	4.03767
2379.46	3.86905
2380.86	4.00065
2382.27	3.63645
2383.67	3.24187
2385.07	2.50555
2386.48	2.0722
2387.88	2.1895
2389.28	1.54009
2390.69	1.05352
2392.09	1.91842
2393.49	1.93973
2394.89	1.3853
2396.29	1.20584
2397.69	1.36715
2399.09	2.3873
2400.49	2.17267
2401.89	3.35021
2403.29	3.4201
2404.69	3.04946
2406.09	3.167
2407.49	3.78287
2408.89	3.4477
2410.29	3.30631
2411.69	3.38993
2413.08	3.37098
2414.48	4.32074
2415.88	4.26371
2417.28	5.15415
2418.67	6.019
2420.07	6.62319
2421.47	7.42871
2422.86	7.35316
2424.26	7.23824
2425.65	8.0944
2427.05	7.76452
2428.45	8.00014
2429.84	8.34148
2431.23	8.49436
2432.63	8.48439
2434.02	8.43443
2435.42	8.68648
2436.81	8.78966
2438.2	8.84078
2439.6	9.57587
2440.99	10.4319
2442.38	11.2681
2443.78	11.7617
2445.17	11.0692
2446.56	10.8428
2447.95	10.9526
2449.34	11.9333
2450.73	12.113
2452.13	12.4106
2453.52	11.5689
2454.91	11.3194
2456.3	11.4409
2457.69	11.1734
2459.08	9.73288
2460.47	9.69031
2461.85	9.77738
2463.24	9.05726
2464.63	8.44251
2466.02	8.75864
2467.41	8.56036
2468.8	8.18491
2470.19	7.12993
2471.57	7.07226
2472.96	6.12366
2474.35	5.52163
2475.73	4.63369
2477.12	4.22682
2478.51	3.23311
2479.89	2.15479
2481.28	1.23368
2482.66	0.381443
2484.05	-0.0848751
2485.43	-0.806719
2486.82	-0.561897
2488.2	-0.774761
2489.59	-1.42534
2490.97	-1.29201
2492.35	-2.48241
2493.74	-2.30941
2495.12	-1.82702
2496.5	-2.01692
2497.89	-1.06659
2499.27	-0.96029
2500.65	-0.818338
2502.03	-0.909302
2503.42	-0.617363
2504.8	0.289008
2506.18	1.20455
2507.56	1.53956
2508.94	2.34997
2510.32	2.6778
2511.7	3.13618
2513.08	3.09084
2514.46	3.8414
2515.84	5.10248
2517.22	5.6274
2518.6	6.14951
2519.98	6.75582
2521.36	8.14579
2522.73	8.61479
2524.11	9.61391
2525.49	9.48642
2526.87	9.43836
2528.25	9.93638
2529.62	10.1919
2531	10.9279
2532.38	10.6176
2533.75	10.487
2535.13	11.4134
2536.5	11.2671
2537.88	11.4917
2539.25	11.115
2540.63	11.0443
2542.01	10.2775
2543.38	10.0014
2544.75	9.2658
2546.13	9.22889
2547.5	9.00717
2548.88	8.74443
2550.25	9.73765
2551.62	9.46623
2553	9.00893
2554.37	9.53077
2555.74	9.57298
2557.11	9.37625
2558.49	8.81607
2559.86	9.37897
2561.23	8.91325
2562.6	9.20239
2563.97	9.26363
2565.34	8.10953
2566.71	8.29459
2568.08	7.92548
2569.45	8.24784
2570.82	8.51731
2572.19	8.62672
2573.56	9.092
2574.93	8.86602
2576.3	8.19302
2577.67	8.32927
2579.03	8.2317
2580.4	8.80079
2581.77	8.63806
2583.14	9.12513
2584.5	8.80668
2585.87	8.31512
2587.24	8.81301
2588.6	8.87442
2589.97	8.48027
2591.34	7.28687
2592.7	6.81736
2594.07	6.08727
2595.43	6.61396
2596.8	6.61922
2598.16	5.94018
2599.53	6.14313
2600.89	5.02573
2602.26	5.13328
2603.62	4.8148
2604.98	4.34864
2606.35	3.7374
2607.71	2.78906
2609.07	3.47271
2610.44	2.86549
2611.8	2.87677
2613.16	2.59641
2614.52	3.39876
2615.88	3.20032
2617.25	3.45522
2618.61	3.36655
2619.97	2.28842
2621.33	2.80705
2622.69	3.33018
2624.05	3.28811
2625.41	3.75921
2626.77	4.55718
2628.13	5.4604
2629.49	5.58011
2630.85	6.27859
2632.21	6.98951
2633.56	7.0928
2634.92	8.1822
2636.28	8.34251
2637.64	8.80984
2639	8.62398
2640.35	8.88059
2641.71	9.57166
2643.07	10.0559
2644.42	9.9279
2645.78	10.1576
2647.14	10.0022
2648.49	10.5711
2649.85	10.2279
2651.2	9.52176
2652.56	9.21921
2653.91	8.65465
2655.27	8.9141
2656.62	8.5768
2657.98	8.54232
2659.33	8.71981
2660.68	9.39989
2662.04	9.50789
2663.39	9.42668
2664.74	9.31186
2666.1	8.96167
2667.45	8.87255
2668.8	8.76236
2670.15	8.99216
2671.5	9.37447
2672.86	9.18881
2674.21	8.81223
2675.56	8.6952
2676.91	9.15484
2678.26	9.13219
2679.61	9.95206
2680.96	10.1143
2682.31	10.079
2683.66	10.539
2685.01	10.4115
2686.36	10.893
2687.71	11.6622
2689.06	12.7083
2690.4	13.1842
2691.75	14.0675
2693.1	14.7783
2694.45	15.4083
2695.8	15.6061
2697.14	15.2465
2698.49	15.269
2699.84	15.1982
2701.18	16.1087
2702.53	16.5812
2703.88	16.6902
2705.22	17.6002
2706.57	17.9583
2707.91	18.7591
2709.26	18.8968
2710.6	18.9606
2711.95	18.5829
2713.29	17.9316
2714.64	17.8113
2715.98	16.8218
2717.32	16.58
2718.67	16.7094
2720.01	17.0353
2721.35	17.1825
2722.7	17.5676
2724.04	17.6401
2725.38	17.5912
2726.72	17.4817
2728.06	17.2585
2729.4	17.1966
2730.75	17.3591
2732.09	17.0896
2733.43	16.5627
2734.77	16.3814
2736.11	16.5308
2737.45	16.4819
2738.79	15.7628
2740.13	15.414
2741.47	14.4829
2742.81	13.9427
2744.15	13.7131
2745.48	12.8883
2746.82	12.5314
2748.16	11.2892
2749.5	10.6517
2750.84	9.67259
2752.17	8.1413
2753.51	8.11324
2754.85	7.40636
2756.19	7.0208
2757.52	6.42298
2758.86	5.63307
2760.19	4.81673
2761.53	4.31145
2762.86	3.77577
2764.2	3.14006
2765.54	3.36864
2766.87	3.59993
2768.2	4.01248
2769.54	3.30321
2770.87	2.91929
2772.21	2.33965
2773.54	1.71195
2774.88	1.61929
2776.21	1.44058
2777.54	1.5438
2778.87	1.70414
2780.21	1.53747
2781.54	2.0485
2782.87	1.50103
2784.2	2.59554
2785.53	2.42452
2786.87	2.26512
2788.2	2.63834
2789.53	2.75943
2790.86	2.84756
2792.19	2.89059
2793.52	3.00045
2794.85	3.3142
2796.18	4.13082
2797.51	4.91878
2798.84	4.38124
2800.17	4.84835
2801.49	4.83248
2802.82	4.72591
2804.15	4.60595
2805.48	4.0163
2806.81	4.01603
2808.13	3.32858
2809.46	3.34496
2810.79	2.78565
2812.12	2.56749
2813.44	2.59683
2814.77	1.88339
2816.09	3.07187
2817.42	4.16244
2818.75	5.74067
2820.07	7.50126
2821.4	10.3534
2822.72	11.2673
2824.05	13.3001
2825.37	16.0082
2826.7	18.6759
2828.02	21.637
2829.35	24.9056
2830.67	28.5034
2831.99	31.5834
2833.31	34.5856
2834.64	38.587
2835.96	41.9585
2837.28	45.44
2838.61	48.8586
2839.93	53.3008
2841.25	57.0916
2842.57	61.8159
2843.89	66.0487
2845.21	70.0193
2846.53	74.108
2847.85	79.087
2849.17	83.9138
2850.49	90.1081
2851.81	95.1907
2853.13	101.318
2854.45	107.474
2855.77	113.547
2857.09	119.238
2858.41	124.696
2859.73	130.292
2861.05	136.017
2862.36	141.922
2863.68	146.712
2865	151.259
2866.32	156.74
2867.64	160.333
2868.95	164
2870.27	167.871
2871.59	170.586
2872.9	173.996
2874.22	176.968
2875.53	180.358
2876.85	183.51
2878.16	186.323
2879.48	190.055
2880.79	193.686
2882.11	197.584
2883.42	200.423
2884.74	202.66
2886.05	205.875
2887.36	208.338
2888.68	209.829
2889.99	213.454
2891.3	216.043
2892.62	217.979
2893.93	219.893
2895.24	222.282
2896.55	225.166
2897.86	226.532
2899.18	229.064
2900.49	232.543
2901.8	234.085
2903.11	237.27
2904.42	240.27
2905.73	244.133
2907.04	247.937
2908.35	253.098
2909.66	257.24
2910.97	261.593
2912.28	266.728
2913.59	272.346
2914.9	277.724
2916.21	281.935
2917.51	286.191
2918.82	292.025
2920.13	295.111
2921.44	298.664
2922.74	302.526
2924.05	305.729
2925.36	308.115
2926.67	310.419
2927.97	311.358
2929.28	311.443
2930.59	311.48
2931.89	310.112
2933.2	308.234
2934.5	306.078
2935.81	303.722
2937.11	300.926
2938.42	297.687
2939.72	293.578
2941.02	289.764
2942.33	284.267
2943.63	279.415
2944.94	274.993
2946.24	269.039
2947.54	262.861
2948.85	256.357
2950.15	249.972
2951.45	243.783
2952.75	237.273
2954.05	231.71
2955.36	225.352
2956.66	219.007
2957.96	212.727
2959.26	206.126
2960.56	201.34
2961.86	195.676
2963.16	189.442
2964.46	184.596
2965.76	179.859
2967.06	174.52
2968.36	171.185
2969.66	166.994
2970.96	162.442
2972.26	158.946
2973.56	155.101
2974.85	150.609
2976.15	146.353
2977.45	142.643
2978.75	138.838
2980.05	134.49
2981.34	129.653
2982.64	126.53
2983.94	122.808
2985.23	118.285
2986.53	115.283
2987.83	111.601
2989.12	106.466
2990.42	101.681
2991.71	96.895
2993.01	91.4279
2994.3	87.2502
2995.6	83.5784
2996.89	79.2306
2998.19	75.1589
2999.48	70.1534
3000.77	65.7108
3002.07	60.8086
3003.36	56.0418
3004.65	52.6792
3005.95	48.7683
3007.24	45.1906
3008.53	41.4743
3009.82	37.6865
3011.12	33.8502
3012.41	30.9258
3013.7	28.6604
3014.99	26.0936
3016.28	23.3797
3017.57	20.7358
3018.86	19.5209
3020.15	16.7794
3021.44	14.9351
3022.73	12.8703
3024.02	10.7544
3025.31	9.33533
3026.6	6.71586
3027.89	5.4338
3029.18	5.13617
3030.47	3.97083
3031.76	2.78183
3033.04	2.5561
3034.33	1.11985
3035.62	0.092532
3036.91	-0.203884
3038.19	-1.42848
3039.48	-1.92359
3040.77	-2.06236
3042.05	-1.8663
3043.34	-1.55475
3044.63	-1.2903
3045.91	-0.420877
3047.2	0.192892
3048.48	0.368904
3049.77	0.926448
3051.05	1.28402
3052.34	2.15799
3053.62	2.66172
3054.91	3.33356
3056.19	3.49098
3057.48	4.25167
3058.76	5.18899
3060.04	5.65861
3061.33	4.95318
3062.61	5.13998
3063.89	5.50807
3065.17	5.22263
3066.46	5.95539
3067.74	6.5932
3069.02	6.8304
3070.3	6.92082
3071.59	7.47576
3072.87	7.17746
3074.15	8.25
3075.43	8.4621
3076.71	9.05284
3077.99	8.85004
3079.27	7.83591
3080.55	7.47271
3081.83	7.32671
3083.11	7.60563
3084.39	6.17272
3085.67	5.59513
3086.94	4.87987
3088.22	4.58372
3089.5	4.22169
3090.78	4.38163
3092.06	4.955
3093.34	4.6512
3094.61	3.82385
3095.89	4.18546
3097.17	4.28986
3098.44	4.02807
3099.72	4.7516
3101	5.12362
3102.27	5.54717
3103.55	6.57987
3104.82	7.24963
3106.1	8.34191
3107.38	9.40054
3108.65	10.2762
3109.93	11.1311
3111.2	11.8477
3112.47	12.6003
3113.75	13.6487
3115.02	14.5757
3116.3	15.6241
3117.57	16.191
3118.84	16.72
3120.12	17.3842
3121.39	18.4251
3122.66	19.3342
3123.93	20.2974
3125.2	21.2142
3126.48	22.9048
3127.75	23.8885
3129.02	24.482
3130.29	26.1108
3131.56	26.9725
3132.83	28.4473
3134.1	30.2727
3135.37	30.9168
3136.64	31.5568
3137.91	32.3693
3139.18	32.3214
3140.45	32.8862
3141.72	33.212
3142.99	33.6823
3144.26	34.2402
3145.53	34.6206
3146.8	35.0033
3148.07	35.7444
3149.33	36.1333
