#Acq. time (s)=	45
#Accumulations=	2
#Range (cm-¹)=	200...3150
#Windows=	2
#Auto scanning=	Off
#Autofocus=	Off
#Macrospot=	Off
#AutoExposure=	Off
#Spike filter=	Multiple accum.
#Delay time (s)=	0
#Binning=	1
#Readout mode=	Signal
#DeNoise=	Off
#ICS correction=	On
#Dark correction=	Off
#Inst. Process=	Off
#Detector Gain=	Best Dynamic Range
#Detector ADC=	20 kHz       
#Detector temperature (°C)=	-69.85
#Instrument=	LabRAM HR Evol
#Detector=	Synapse
#Objective=	x100
#Grating=	600 gr/mm
#ND Filter=	100%
#Laser (nm)=	532 
#Hole=	100.021
#Range=	Auto
#Laser Pol.=	No
#Raman. Pol.=	No
#Laser Pol. (°)=	-0.0007625
#Raman Pol. (°)=	89.9995
#Collection=	Microscope
#StageXY=	Marzhauser
#StageZ=	Marzhauser
#X (µm)=	-1203.3
#Y (µm)=	1246.6
#Z (µm)=	577.6
#Full time(mm:ss)=	3:18
#Project=	
#Sample=	
#Site=	
#Title=	Mbcal_20_25_10_2x_45s_532 nm_x100_100%_600 gr_mm
#Remark=	
#Date=	18.07.2022 10:09
#Acquired=	18.07.2022 10:09:03
#Base:Fit=	10.08.2022 10:55:08
#Base:Sub=	10.08.2022 10:55:14
#Filter:Polynom=	16.08.2022 10:07:28
#AxisType[0]=Intens
#AxisUnit[0]=Cnt
#AxisType[1]=Spectr
#AxisUnit[1]=1/cm
200.419	3.33382
202.234	4.64026
204.048	3.63271
205.862	4.44912
207.678	5.18777
209.491	5.51734
211.304	5.86154
213.116	6.16381
214.928	6.1109
216.742	6.15946
218.554	6.03521
220.365	6.3364
222.176	6.16668
223.986	5.19124
225.798	4.14014
227.608	3.03993
229.417	4.53791
231.226	3.80838
233.035	4.44409
234.843	3.85001
236.653	4.71577
238.46	5.05548
240.268	5.53995
242.074	5.68326
243.881	5.63318
245.687	4.93046
247.493	5.66739
249.298	5.31242
251.103	5.34932
252.908	4.81292
254.715	3.6181
256.519	3.38678
258.322	3.86178
260.126	3.97843
261.929	4.68378
263.731	4.9799
265.534	5.55945
267.336	5.48601
269.137	4.87501
270.938	4.39872
272.739	4.06706
274.54	4.16121
276.34	3.53606
278.14	3.58068
279.939	4.3163
281.739	4.50444
283.537	3.44485
285.336	3.29399
287.134	3.23325
288.932	3.81616
290.729	3.33961
292.526	2.9083
294.323	3.1588
296.117	3.49922
297.913	3.42199
299.709	5.08665
301.504	5.73597
303.299	6.51307
305.093	6.71194
306.888	7.77394
308.682	7.51848
310.475	8.04064
312.268	7.74476
314.059	8.09109
315.852	8.55831
317.644	9.84216
319.436	11.1768
321.227	10.3937
323.018	11.3317
324.807	11.6554
326.597	13.4603
328.387	14.1175
330.177	15.1245
331.967	15.4287
333.753	15.9897
335.542	15.7872
337.331	16.7711
339.119	15.5186
340.906	15.4318
342.691	15.7969
344.478	17.1005
346.265	18.7137
348.051	19.8442
349.835	20.7817
351.621	21.7125
353.406	22.1556
355.189	21.5083
356.973	21.2526
358.757	21.1602
360.541	21.438
362.323	21.0261
364.106	21.374
365.889	21.4023
367.669	21.2732
369.451	21.3587
371.233	20.6802
373.012	21.3661
374.793	21.0736
376.574	20.391
378.353	20.7123
380.133	21.3533
381.91	22.2808
383.69	22.8438
385.469	23.5834
387.245	23.5886
389.024	24.589
390.8	24.3386
392.577	24.3735
394.353	23.7951
396.129	24.1122
397.906	23.8727
399.68	24.7441
401.456	24.6593
403.23	24.5788
405.005	23.7789
406.778	23.2843
408.552	22.8255
410.325	23.4128
412.099	22.6668
413.87	22.626
415.643	22.3966
417.414	22.2647
419.187	21.4721
420.957	20.856
422.728	20.1545
424.498	19.3066
426.269	19.4105
428.038	18.93
429.806	19.0253
431.576	19.6632
433.344	19.3851
435.114	19.1522
436.881	19.2254
438.649	17.9428
440.416	16.1636
442.182	15.4899
443.949	14.7768
445.715	15.1019
447.48	15.747
449.247	14.7397
451.011	14.386
452.777	14.1212
454.541	13.6695
456.304	13.8208
458.069	13.4928
459.832	13.0849
461.594	13.5445
463.358	13.3216
465.119	13.5924
466.881	14.0855
468.642	14.5682
470.404	14.8684
472.165	15.3685
473.925	16.278
475.684	17.845
477.445	18.4902
479.204	19.4043
480.963	19.4435
482.721	20.5591
484.481	21.8208
486.239	23.2332
487.996	23.401
489.753	23.5097
491.511	23.519
493.268	23.0159
495.023	24.0341
496.779	25.0092
498.534	25.3143
500.289	24.5586
502.046	25.9183
503.8	26.8547
505.554	27.3593
507.307	28.2504
509.06	28.9907
510.813	29.8067
512.566	30.7277
514.32	30.644
516.072	31.3556
517.823	31.2905
519.574	31.7089
521.325	31.9493
523.076	32.3368
524.826	32.8684
526.576	32.5993
528.325	32.8752
530.074	34.1415
531.823	33.4303
533.572	33.3008
535.32	33.3707
537.068	32.4493
538.815	31.165
540.562	30.3539
542.309	29.5816
544.056	28.9287
545.802	28.7429
547.547	28.3858
549.293	28.5603
551.038	27.2856
552.783	26.4378
554.527	26.1524
556.271	26.7014
558.015	26.4371
559.759	25.7731
561.502	25.4322
563.245	25.2274
564.987	23.8719
566.729	23.2264
568.471	21.78
570.213	20.5881
571.954	19.4492
573.693	19.0953
575.433	17.9864
577.173	16.5847
578.913	15.2207
580.652	14.2026
582.392	13.4788
584.13	11.8845
585.867	11.2336
587.605	11.0045
589.343	11.1509
591.08	10.9441
592.817	10.3557
594.552	10.6049
596.289	10.7305
598.025	10.3953
599.761	9.85434
601.496	9.31144
603.229	9.83668
604.964	9.69927
606.699	10.9713
608.433	12.5641
610.165	13.6981
611.898	14.9927
613.631	14.1511
615.364	15.0198
617.095	15.4591
618.827	15.2053
620.559	16.2986
622.288	16.5095
624.02	16.2648
625.75	16.8327
627.479	18.818
629.209	19.5803
630.939	21.0316
632.667	22.8479
634.396	23.6795
636.125	24.1509
637.851	25.5125
639.58	27.4154
641.305	29.113
643.033	29.8798
644.76	30.2292
646.485	30.6291
648.212	30.2293
649.936	30.5304
651.662	29.8712
653.388	30.4995
655.111	30.3328
656.836	29.8211
658.558	30.5979
660.283	30.0926
662.005	28.7942
663.728	28.0163
665.45	28.1426
667.173	28.2651
668.893	27.793
670.616	29.1742
672.336	29.9241
674.057	29.6859
675.777	29.6426
677.498	30.2377
679.216	30.1633
680.937	30.4494
682.655	30.7849
684.375	29.7724
686.092	30.5211
687.809	31.5515
689.528	32.6613
691.244	34.0461
692.962	35.6194
694.678	35.9033
696.393	35.7667
698.111	35.4315
699.825	35.4017
701.54	37.1592
703.256	37.2487
704.97	36.6788
706.685	36.9252
708.398	37.8547
710.111	39.8247
711.826	40.9721
713.538	41.5041
715.25	41.8178
716.961	42.476
718.675	43.2295
720.386	43.3713
722.096	44.3328
723.808	45.5729
725.518	46.3469
727.228	45.7865
728.937	44.6183
730.648	44.5074
732.357	44.0229
734.065	43.8258
735.773	45.792
737.483	45.2977
739.19	45.492
740.897	44.0172
742.604	43.4863
744.31	43.4795
746.018	42.8401
747.724	43.801
749.429	45.4478
751.134	46.6494
752.839	47.3183
754.544	48.7529
756.248	50.304
757.953	51.2714
759.657	52.4109
761.36	54.3939
763.063	55.9396
764.765	55.7742
766.468	56.7653
768.169	57.9168
769.871	59.0812
771.572	61.2016
773.273	63.2539
774.976	64.5125
776.676	66.0375
778.376	67.1251
780.075	67.6357
781.775	69.3133
783.474	70.7391
785.172	72.8405
786.871	73.992
788.569	74.7312
790.266	75.2186
791.964	76.5541
793.661	78.415
795.358	79.161
797.054	78.6526
798.75	78.563
800.446	79.2624
802.141	79.9703
803.834	80.8748
805.529	79.9478
807.224	79.5519
808.918	79.0232
810.612	78.2362
812.305	76.1405
813.998	75.3147
815.691	75.2594
817.384	74.7958
819.076	74.2933
820.766	73.774
822.458	72.208
824.149	71.808
825.84	71.654
827.531	71.5575
829.221	71.4837
830.909	72.6175
832.599	73.6295
834.288	74.6203
835.977	76.9642
837.666	77.4467
839.353	79.3597
841.041	79.7398
842.729	80.3624
844.416	80.4425
846.103	80.2812
847.788	80.2969
849.475	79.2715
851.161	79.4058
852.845	79.4745
854.53	79.0153
856.216	78.9811
857.901	79.6587
859.583	79.9396
861.268	80.2128
862.952	79.6543
864.633	78.4244
866.317	77.7916
868	76.5443
869.681	75.2547
871.363	73.4882
873.045	71.9099
874.725	70.3061
876.406	69.2612
878.088	67.9625
879.767	65.6622
881.447	63.8549
883.125	62.4465
884.805	60.8182
886.483	59.15
888.162	56.7209
889.841	53.9444
891.518	52.3769
893.196	50.9181
894.872	48.0887
896.55	46.7618
898.225	45.958
899.902	45.6738
901.577	44.1893
903.254	43.1108
904.928	42.3812
906.604	42.3922
908.277	41.6525
909.952	41.6565
911.625	41.3409
913.3	41.6972
914.972	42.5166
916.646	43.0043
918.318	44.2449
919.991	45.6794
921.662	44.1608
923.333	44.6563
925.005	44.0092
926.675	44.1578
928.347	43.6728
930.017	43.9482
931.686	44.1329
933.357	43.7908
935.025	43.9324
936.693	44.2677
938.363	44.3113
940.031	44.9294
941.698	44.7959
943.367	43.4919
945.034	41.5583
946.7	39.1894
948.368	38.5704
950.034	37.8854
951.699	36.8841
953.367	35.113
955.031	33.6581
956.696	32.3248
958.36	31.277
960.026	29.7862
961.689	28.2402
963.353	27.3667
965.016	26.9905
966.68	26.5542
968.343	26.7511
970.005	26.6194
971.666	25.6383
973.328	25.1448
974.991	24.3185
976.652	23.3747
978.312	22.7825
979.972	22.6784
981.632	21.6731
983.292	19.9489
984.953	18.0979
986.612	18.1929
988.27	17.8971
989.929	17.3319
991.587	15.8568
993.244	15.7772
994.902	14.4237
996.559	13.8358
998.216	14.3547
999.872	13.3292
1001.53	13.1978
1003.19	13.0424
1004.84	12.2642
1006.5	12.068
1008.15	12.4287
1009.81	12.5245
1011.46	12.2918
1013.11	13.9698
1014.77	14.9634
1016.42	15.8872
1018.07	16.2288
1019.73	17.3048
1021.38	17.9143
1023.03	17.1575
1024.68	16.8207
1026.34	17.5069
1027.99	17.7302
1029.64	19.1356
1031.29	20.0166
1032.94	19.3967
1034.59	20.1243
1036.24	19.6544
1037.89	19.8345
1039.53	20.1584
1041.18	20.649
1042.83	20.9595
1044.48	22.2503
1046.13	23.3637
1047.77	24.6093
1049.42	25.9905
1051.07	26.5358
1052.71	25.6574
1054.36	24.7333
1056	23.5809
1057.65	22.9969
1059.3	22.6036
1060.94	23.2667
1062.59	22.2073
1064.23	21.5523
1065.87	21.2983
1067.52	22.2539
1069.16	23.1161
1070.8	22.6184
1072.44	21.563
1074.09	20.874
1075.73	20.6303
1077.37	19.9902
1079.01	20.069
1080.65	19.5938
1082.29	18.7592
1083.93	19.1641
1085.57	18.9611
1087.21	18.7632
1088.85	19.3975
1090.49	20.7552
1092.13	21.4495
1093.77	22.376
1095.41	24.7463
1097.04	24.4966
1098.68	25.168
1100.32	25.7382
1101.95	26.6833
1103.59	26.7599
1105.23	25.7129
1106.86	26.0621
1108.5	26.0039
1110.13	24.5709
1111.77	24.6269
1113.4	22.461
1115.04	21.6584
1116.67	21.0449
1118.31	19.5456
1119.94	18.2944
1121.57	17.9903
1123.2	17.8118
1124.84	17.3293
1126.47	17.1821
1128.1	16.7577
1129.73	16.2902
1131.36	15.1287
1132.99	13.4954
1134.62	11.9678
1136.25	11.1126
1137.88	10.4733
1139.51	10.951
1141.14	11.0589
1142.77	11.6161
1144.4	10.0706
1146.03	10.2693
1147.66	10.6346
1149.28	9.4949
1150.91	9.76264
1152.54	8.44672
1154.16	7.30658
1155.79	6.11993
1157.42	5.33118
1159.04	5.37041
1160.67	4.79994
1162.29	4.05147
1163.92	3.82509
1165.54	3.15862
1167.17	3.66489
1168.79	3.38883
1170.41	4.48192
1172.04	3.86535
1173.66	4.26119
1175.28	3.68314
1176.9	3.90979
1178.53	3.28409
1180.15	4.54903
1181.77	4.76917
1183.39	4.81871
1185.01	3.55368
1186.63	2.58191
1188.25	2.98289
1189.87	3.46582
1191.49	3.28699
1193.11	3.82892
1194.73	3.89207
1196.35	5.61157
1197.96	7.0213
1199.58	7.91943
1201.2	8.81334
1202.82	9.72459
1204.43	9.33545
1206.05	9.67034
1207.66	10.7918
1209.28	11.6535
1210.9	12.3785
1212.51	12.4974
1214.13	14.4503
1215.74	15.2153
1217.36	16.6914
1218.97	18.0508
1220.58	19.2842
1222.2	19.6518
1223.81	20.9455
1225.42	21.6205
1227.04	23.4398
1228.65	24.9019
1230.26	25.7721
1231.87	27.453
1233.48	27.0793
1235.1	27.9542
1236.71	29.0993
1238.32	30.9268
1239.93	32.7833
1241.53	33.6668
1243.14	34.255
1244.75	35.7665
1246.36	36.369
1247.97	37.395
1249.58	38.4659
1251.19	39.4383
1252.8	39.1469
1254.4	40.1257
1256.01	40.5503
1257.62	41.8743
1259.22	43.5762
1260.83	44.8644
1262.43	45.4899
1264.04	46.7141
1265.64	46.8358
1267.25	47.9921
1268.85	48.0957
1270.46	48.1861
1272.06	48.7654
1273.66	49.7891
1275.27	51.0629
1276.87	51.9191
1278.48	51.5202
1280.08	51.6978
1281.68	52.0546
1283.28	51.6961
1284.88	52.7696
1286.48	55.4513
1288.08	55.9441
1289.68	57.5078
1291.28	58.817
1292.88	59.1983
1294.48	59.6098
1296.08	59.5923
1297.68	59.8641
1299.28	60.1548
1300.88	60.5434
1302.48	60.9338
1304.07	61.8681
1305.67	62.7911
1307.27	62.1558
1308.87	62.6593
1310.46	62.4312
1312.06	61.8104
1313.65	62.2124
1315.25	63.1888
1316.85	63.6406
1318.44	64.2868
1320.03	64.7932
1321.63	65.0709
1323.22	64.8913
1324.82	64.6245
1326.41	63.6377
1328	63.7672
1329.6	63.7838
1331.19	63.6616
1332.78	63.4493
1334.37	63.0094
1335.96	63.3718
1337.56	63.97
1339.15	64.4302
1340.74	64.1412
1342.33	63.8554
1343.92	63.2396
1345.51	61.7639
1347.1	61.2468
1348.69	59.7011
1350.28	60.4353
1351.86	61.0091
1353.45	60.0402
1355.04	59.6546
1356.63	59.0458
1358.21	59.1184
1359.8	60.1762
1361.39	59.4034
1362.97	59.1869
1364.56	59.7511
1366.15	59.4725
1367.73	58.6935
1369.32	58.7736
1370.9	58.0038
1372.49	56.9804
1374.07	56.3124
1375.65	56.5575
1377.24	55.3423
1378.82	54.6031
1380.41	52.6849
1381.99	52.3534
1383.57	51.4343
1385.15	50.6567
1386.73	49.0915
1388.32	49.2592
1389.9	48.0764
1391.48	47.5278
1393.06	47.3844
1394.64	47.8429
1396.22	47.1642
1397.8	47.2592
1399.38	47.1287
1400.96	47.1539
1402.54	47.1558
1404.11	47.1676
1405.69	48.3927
1407.27	49.3826
1408.85	50.743
1410.43	52.3382
1412	53.371
1413.58	55.4811
1415.16	58.3158
1416.73	59.9207
1418.31	61.2714
1419.88	63.441
1421.46	66.4337
1423.03	68.5696
1424.61	72.1152
1426.18	74.6868
1427.76	77.6047
1429.33	81.4817
1430.9	84.1661
1432.48	86.8346
1434.05	90.5663
1435.62	93.9339
1437.2	97.0174
1438.77	99.6241
1440.34	100.817
1441.91	103.819
1443.48	103.762
1445.05	104.799
1446.62	106.096
1448.19	106.658
1449.76	107.746
1451.33	107.397
1452.9	107.859
1454.47	107.178
1456.04	105.743
1457.61	105.238
1459.17	105.002
1460.74	104.881
1462.31	103.553
1463.88	103.162
1465.44	102.38
1467.01	101.332
1468.58	99.4736
1470.14	97.943
1471.71	96.3744
1473.27	94.802
1474.84	92.5047
1476.4	90.3763
1477.97	88.402
1479.53	86.5107
1481.1	85.3734
1482.66	82.884
1484.22	81.1253
1485.78	78.8429
1487.35	77.175
1488.91	74.6229
1490.47	72.4113
1492.03	70.5355
1493.59	67.7902
1495.16	65.5341
1496.72	64.2653
1498.28	63.554
1499.84	62.7605
1501.4	60.5016
1502.96	59.2075
1504.52	57.638
1506.08	55.4068
1507.64	53.1196
1509.19	51.2385
1510.75	49.1461
1512.31	46.9081
1513.87	44.3437
1515.42	41.8314
1516.98	40.0803
1518.54	37.9512
1520.1	36.8434
1521.65	33.7547
1523.21	34.1945
1524.76	33.242
1526.32	31.9014
1527.87	30.9857
1529.43	30.6588
1530.98	30.4459
1532.54	29.5083
1534.09	29.6835
1535.64	30.8768
1537.2	30.9867
1538.75	32.1148
1540.3	33.1133
1541.85	33.7427
1543.41	34.1764
1544.96	34.1011
1546.51	33.865
1548.06	34.3409
1549.61	35.4237
1551.16	36.081
1552.71	36.8547
1554.26	37.277
1555.81	38.1699
1557.36	38.8972
1558.91	39.2958
1560.46	38.6394
1562.01	39.3565
1563.56	39.0911
1565.1	39.3968
1566.65	40.6844
1568.2	40.6503
1569.75	41.5498
1571.29	42.0162
1572.84	43.184
1574.38	44.7074
1575.93	46.4085
1577.48	47.5188
1579.02	47.6336
1580.57	49.0078
1582.11	50.0907
1583.65	49.578
1585.2	51.2244
1586.74	52.7766
1588.29	53.3353
1589.83	54.0145
1591.37	55.9088
1592.92	57.2054
1594.46	57.9453
1596	58.0553
1597.54	58.503
1599.08	57.884
1600.62	58.4138
1602.16	57.7117
1603.7	58.5421
1605.24	59.3133
1606.78	60.1892
1608.32	59.6931
1609.86	60.0812
1611.4	60.3695
1612.94	60.7442
1614.48	60.3331
1616.02	60.3946
1617.56	59.4876
1619.09	59.3376
1620.63	59.9521
1622.17	59.4583
1623.71	59.5694
1625.24	60.0844
1626.78	60.1516
1628.31	59.804
1629.85	59.6816
1631.39	59.6191
1632.92	59.438
1634.46	59.5919
1635.99	59.6756
1637.52	59.7933
1639.06	59.683
1640.59	59.2924
1642.12	59.9876
1643.66	59.8365
1645.19	58.9702
1646.72	59.8228
1648.25	60.096
1649.79	60.3567
1651.32	60.2895
1652.85	59.0371
1654.38	57.9323
1655.91	56.8566
1657.44	56.1948
1658.97	55.1907
1660.5	53.6648
1662.03	53.0566
1663.56	51.8171
1665.09	50.7181
1666.62	49.4661
1668.15	47.8208
1669.67	45.1818
1671.2	42.9817
1672.73	40.864
1674.26	39.302
1675.79	37.5502
1677.31	36.0162
1678.84	34.0503
1680.36	32.3274
1681.89	30.4278
1683.42	28.5507
1684.94	26.1864
1686.47	24.5195
1687.99	22.7346
1689.51	20.5524
1691.04	19.2202
1692.56	18.4593
1694.08	18.0626
1695.61	17.101
1697.13	16.7414
1698.65	15.2554
1700.18	14.1427
1701.7	13.9166
1703.22	13.0928
1704.74	12.4704
1706.26	11.6024
1707.78	11.1021
1709.3	10.9958
1710.82	9.69446
1712.35	8.92878
1713.86	8.33791
1715.39	7.66826
1716.9	6.98063
1718.42	6.57144
1719.94	6.323
1721.46	5.77214
1722.98	5.25816
1724.5	4.97241
1726.01	3.81175
1727.53	2.9617
1729.05	2.47984
1730.56	2.33576
1732.08	2.23673
1733.6	1.51886
1735.11	1.21507
1736.63	1.16448
1738.14	1.09559
1739.66	0.933835
1741.17	1.28223
1742.69	0.812236
1744.2	0.130518
1745.71	0.262914
1747.23	0.256764
1748.74	0.237338
1750.25	0.600205
1751.77	0.324376
1753.28	-0.439732
1754.79	-1.16086
1756.3	-1.24728
1757.81	-0.711364
1759.33	-0.935829
1760.84	-0.929685
1762.35	-1.17613
1763.86	-0.95115
1765.37	-0.859949
1766.88	0.326112
1768.39	0.423385
1769.9	0.243426
1771.41	0.334718
1772.91	0.670684
1774.42	0.680107
1775.93	0.976051
1777.44	1.50132
1778.95	1.538
1780.45	2.04502
1781.96	2.61124
1783.47	3.45102
1784.97	4.16136
1786.48	4.17569
1787.99	5.0016
1789.49	4.75239
1791	4.71502
1792.5	4.66019
1794.01	4.9758
1795.51	5.36438
1797.01	5.41984
1798.52	6.11274
1800.02	6.69398
1801.52	6.1244
1803.03	6.38644
1804.53	6.25464
1806.03	5.78517
1807.54	5.36882
1809.04	4.84912
1810.54	5.44478
1812.04	5.84266
1813.54	5.73592
1815.04	6.06292
1816.54	6.8006
1818.04	6.48268
1819.54	6.01367
1821.04	6.29929
1822.54	6.92448
1824.04	7.12202
1825.54	7.33248
1827.04	6.81161
1828.54	6.61078
1830.03	5.96671
1831.53	6.10796
1833.03	6.20852
1834.53	6.56764
1836.02	6.87323
1837.52	6.76071
1839.02	7.28653
1840.51	7.16507
1842.01	7.32066
1843.5	7.48104
1845	8.07194
1846.49	8.34637
1847.99	8.01317
1849.48	8.76481
1850.98	8.65862
1852.47	8.98892
1853.96	9.08031
1855.46	10.0098
1856.95	9.82298
1858.44	9.95974
1859.94	9.63712
1861.43	9.23132
1862.92	8.18841
1864.41	8.04787
1865.9	8.03179
1867.39	7.73968
1868.88	7.41126
1870.37	8.00645
1871.86	8.10383
1873.35	8.08254
1874.84	7.54723
1876.33	7.00871
1877.82	6.55636
1879.31	5.75523
1880.8	5.19836
1882.29	5.11669
1882.58	5.57775
1884.08	6.18523
1885.57	6.14092
1887.06	6.24688
1888.56	6.5459
1890.05	6.78291
1891.54	6.91159
1893.04	7.06039
1894.53	7.63736
1896.02	8.21602
1897.51	7.65334
1899	7.57937
1900.5	6.73355
1901.99	6.54225
1903.48	6.54202
1904.97	7.09333
1906.46	7.02041
1907.95	6.73342
1909.44	6.70805
1910.93	6.53449
1912.42	6.53506
1913.91	6.19406
1915.4	6.29889
1916.88	6.21792
1918.37	6.47461
1919.86	6.42434
1921.35	6.35846
1922.84	6.16254
1924.32	5.25803
1925.81	5.26113
1927.3	4.52958
1928.78	4.81889
1930.27	4.18653
1931.75	4.06532
1933.24	3.19909
1934.72	2.57338
1936.21	2.17221
1937.69	2.18687
1939.18	2.19462
1940.66	2.2954
1942.15	2.52747
1943.63	3.33012
1945.11	3.03483
1946.6	3.13536
1948.08	3.00916
1949.56	3.3047
1951.04	3.33
1952.53	3.14306
1954.01	3.88637
1955.49	4.50467
1956.97	5.34037
1958.45	5.48071
1959.93	5.41001
1961.41	5.56154
1962.89	6.31761
1964.37	6.17164
1965.85	7.2591
1967.33	7.03865
1968.81	7.23636
1970.29	7.19642
1971.77	6.857
1973.24	6.76212
1974.72	6.86145
1976.2	7.19443
1977.68	7.22489
1979.15	7.23736
1980.63	7.41759
1982.11	7.6687
1983.58	8.18661
1985.06	7.60358
1986.53	7.03768
1988.01	6.55304
1989.48	6.48736
1990.96	7.05127
1992.43	6.8527
1993.91	6.36406
1995.38	5.93142
1996.86	5.54857
1998.33	5.63137
1999.8	5.90774
2001.27	5.96389
2002.75	6.2256
2004.22	5.68858
2005.69	5.42334
2007.16	6.02403
2008.64	6.01536
2010.11	6.40424
2011.58	6.66779
2013.05	6.41783
2014.52	6.59313
2015.99	6.8954
2017.46	7.30945
2018.93	7.20972
2020.4	7.74489
2021.87	7.2274
2023.34	7.39611
2024.8	7.1902
2026.27	7.39515
2027.74	8.48966
2029.21	8.77842
2030.68	8.87281
2032.14	8.09119
2033.61	8.04716
2035.08	7.91763
2036.54	8.33672
2038.01	8.60674
2039.48	9.53271
2040.94	9.52412
2042.41	9.83438
2043.87	9.63789
2045.34	9.85609
2046.8	10.1929
2048.27	10.4583
2049.73	10.6517
2051.19	10.7922
2052.66	11.5135
2054.12	11.9141
2055.58	12.3785
2057.05	12.0735
2058.51	11.911
2059.97	12.1923
2061.43	12.5005
2062.9	12.8258
2064.36	13.4668
2065.82	13.1322
2067.28	13.7232
2068.74	13.5234
2070.2	13.3637
2071.66	13.032
2073.12	13.1055
2074.58	12.5864
2076.04	12.7483
2077.5	13.2872
2078.95	13.8832
2080.41	14.219
2081.87	13.041
2083.33	12.6697
2084.79	12.7593
2086.24	12.7159
2087.7	13.2763
2089.16	13.6144
2090.61	13.8537
2092.07	14.0454
2093.53	13.8536
2094.98	13.6451
2096.44	14.2909
2097.89	14.347
2099.35	15.1249
2100.8	14.7763
2102.26	14.8947
2103.71	14.5238
2105.16	14.4082
2106.62	15.0296
2108.07	15.7259
2109.53	16.4974
2110.98	17.8505
2112.43	18.3397
2113.88	19.0651
2115.33	19.493
2116.79	20.2119
2118.24	21.4737
2119.69	23.0089
2121.14	23.769
2122.59	25.133
2124.04	26.1669
2125.49	27.5232
2126.94	28.5623
2128.39	29.6735
2129.84	29.9998
2131.29	30.5514
2132.74	30.9213
2134.19	31.185
2135.63	31.8956
2137.08	33.0534
2138.53	33.2815
2139.98	34.1612
2141.43	34.8986
2142.87	36.1655
2144.32	36.6339
2145.77	37.2418
2147.21	38.0542
2148.66	39.3883
2150.1	40.7956
2151.55	41.8251
2152.99	43.1998
2154.44	44.1267
2155.88	45.995
2157.33	46.8396
2158.77	47.5676
2160.21	48.332
2161.66	49.248
2163.1	49.2874
2164.55	49.8681
2165.99	49.8657
2167.43	51.3239
2168.87	51.5212
2170.31	51.9749
2171.76	52.3785
2173.2	51.6423
2174.64	52.377
2176.08	52.9586
2177.52	52.8704
2178.96	52.7471
2180.4	52.5369
2181.84	52.036
2183.28	52.1073
2184.72	51.1315
2186.16	51.0681
2187.6	50.6316
2189.04	49.9804
2190.47	48.4862
2191.91	47.6164
2193.35	46.1154
2194.79	45.2803
2196.23	44.5159
2197.66	43.527
2199.1	42.7081
2200.54	41.5438
2201.97	39.7955
2203.41	37.6694
2204.84	36.2829
2206.28	35.7931
2207.71	34.7717
2209.15	33.8033
2210.58	32.5334
2212.02	31.7863
2213.45	30.6555
2214.89	29.3716
2216.32	28.0377
2217.75	27.0882
2219.19	27.1589
2220.62	26.7937
2222.05	27.202
2223.48	27.0642
2224.92	26.5152
2226.35	25.7391
2227.78	25.363
2229.21	24.6388
2230.64	24.1901
2232.07	23.9125
2233.5	23.3116
2234.93	22.8828
2236.36	23.415
2237.79	23.329
2239.22	23.6962
2240.65	23.0874
2242.08	23.3827
2243.51	22.7247
2244.94	23.1828
2246.37	23.4288
2247.79	22.7097
2249.22	21.7856
2250.65	22.3778
2252.08	22.4501
2253.5	22.6146
2254.93	22.0343
2256.36	21.168
2257.78	20.7696
2259.21	20.0276
2260.63	19.8189
2262.06	19.6656
2263.48	20.3978
2264.91	20.2642
2266.33	20.3696
2267.76	20.3782
2269.18	19.6978
2270.6	19.2092
2272.03	18.2657
2273.45	17.3859
2274.87	16.7279
2276.3	17.1114
2277.72	17.1393
2279.14	16.7679
2280.56	16.1687
2281.98	15.7756
2283.41	15.1959
2284.83	14.7999
2286.25	15.244
2287.67	15.0866
2289.09	14.6383
2290.51	14.8881
2291.93	13.4475
2293.35	13.1946
2294.77	12.2454
2296.19	12.3
2297.61	12.9111
2299.02	13.2203
2300.44	12.636
2301.86	12.1923
2303.28	13.162
2304.7	13.1482
2306.11	13.3536
2307.53	13.8983
2308.95	14.1685
2310.36	14.4971
2311.78	13.929
2313.2	13.7567
2314.61	14.3116
2316.03	14.8702
2317.44	14.358
2318.86	14.7269
2320.27	15.5301
2321.69	14.7505
2323.1	14.6354
2324.51	14.0322
2325.93	13.8023
2327.34	13.9519
2328.76	13.8541
2330.17	14.3278
2331.58	14.6042
2332.99	14.6817
2334.41	13.8935
2335.82	13.322
2337.23	13.2256
2338.64	12.7579
2340.05	11.5896
2341.46	10.9545
2342.87	10.2378
2344.28	10.111
2345.69	9.16955
2347.1	8.31912
2348.51	7.70636
2349.92	7.27074
2351.33	5.9588
2352.74	5.76513
2354.15	5.68233
2355.56	5.4799
2356.97	5.52126
2358.37	4.66416
2359.78	4.03203
2361.19	3.99073
2362.6	3.44245
2364	4.15169
2365.41	4.28967
2366.82	4.69514
2368.22	4.38737
2369.63	3.8293
2371.03	3.20568
2372.44	3.31306
2373.84	3.66798
2375.25	2.99083
2376.65	3.29969
2378.06	3.30576
2379.46	3.44421
2380.86	3.31479
2382.27	2.91386
2383.67	4.04158
2385.07	4.75084
2386.48	4.19567
2387.88	4.51883
2389.28	4.63983
2390.69	4.84557
2392.09	4.74267
2393.49	5.40641
2394.89	4.866
2396.29	5.19366
2397.69	4.95202
2399.09	5.45298
2400.49	5.95846
2401.89	6.20065
2403.29	6.83489
2404.69	6.2719
2406.09	6.21191
2407.49	6.58355
2408.89	5.66775
2410.29	5.35154
2411.69	5.57644
2413.08	6.11881
2414.48	6.45515
2415.88	6.69072
2417.28	7.23766
2418.67	7.96185
2420.07	8.53828
2421.47	8.63039
2422.86	9.14949
2424.26	9.5899
2425.65	9.98901
2427.05	10.2661
2428.45	10.1995
2429.84	10.0723
2431.23	10.1843
2432.63	9.53952
2434.02	9.48181
2435.42	8.78343
2436.81	8.44555
2438.2	8.67732
2439.6	8.9013
2440.99	8.84473
2442.38	8.72812
2443.78	9.13999
2445.17	8.8337
2446.56	8.87179
2447.95	8.68852
2449.34	9.00958
2450.73	8.6766
2452.13	8.75791
2453.52	9.34391
2454.91	8.88461
2456.3	8.66173
2457.69	9.11657
2459.08	8.69606
2460.47	8.37879
2461.85	8.09137
2463.24	8.1767
2464.63	8.64699
2466.02	9.01812
2467.41	9.18456
2468.8	9.00274
2470.19	8.53783
2471.57	8.65029
2472.96	8.07754
2474.35	7.0307
2475.73	7.33368
2477.12	7.20468
2478.51	6.21414
2479.89	6.43737
2481.28	6.1333
2482.66	6.47201
2484.05	5.9935
2485.43	6.46143
2486.82	5.95687
2488.2	5.79655
2489.59	5.5404
2490.97	4.81311
2492.35	4.68559
2493.74	5.28457
2495.12	4.94811
2496.5	4.4529
2497.89	4.12362
2499.27	3.89199
2500.65	3.5725
2502.03	2.60997
2503.42	2.77301
2504.8	2.38222
2506.18	2.93446
2507.56	3.09378
2508.94	2.79496
2510.32	2.47344
2511.7	2.19813
2513.08	2.94358
2514.46	2.99309
2515.84	2.68772
2517.22	2.47509
2518.6	2.74574
2519.98	2.69313
2521.36	3.38206
2522.73	3.50014
2524.11	3.52431
2525.49	3.6016
2526.87	3.91669
2528.25	3.88497
2529.62	3.81849
2531	4.69645
2532.38	4.9675
2533.75	5.04365
2535.13	4.75433
2536.5	5.27624
2537.88	5.47545
2539.25	5.4992
2540.63	5.7348
2542.01	5.02273
2543.38	5.37962
2544.75	5.62495
2546.13	5.49816
2547.5	6.01126
2548.88	6.31065
2550.25	7.30028
2551.62	7.44474
2553	7.26497
2554.37	7.53375
2555.74	7.88856
2557.11	7.89597
2558.49	8.206
2559.86	8.23466
2561.23	8.78994
2562.6	8.61259
2563.97	7.60311
2565.34	7.66942
2566.71	6.77095
2568.08	6.66471
2569.45	7.15279
2570.82	7.36117
2572.19	8.23974
2573.56	7.87172
2574.93	7.85018
2576.3	7.67297
2577.67	7.92151
2579.03	7.59311
2580.4	7.40344
2581.77	7.20774
2583.14	6.16485
2584.5	5.92296
2585.87	6.13018
2587.24	6.60448
2588.6	6.05872
2589.97	5.80821
2591.34	5.68046
2592.7	5.61437
2594.07	5.47182
2595.43	5.95311
2596.8	5.35006
2598.16	4.96831
2599.53	5.54859
2600.89	5.50756
2602.26	5.87974
2603.62	5.90265
2604.98	6.17669
2606.35	5.40111
2607.71	4.94305
2609.07	4.68297
2610.44	4.187
2611.8	4.71109
2613.16	4.63229
2614.52	4.8418
2615.88	4.92041
2617.25	4.62373
2618.61	4.85464
2619.97	4.08034
2621.33	4.47182
2622.69	4.39411
2624.05	5.03956
2625.41	4.59293
2626.77	4.29061
2628.13	3.89931
2629.49	3.66766
2630.85	3.11903
2632.21	3.11838
2633.56	3.79603
2634.92	3.95652
2636.28	4.7354
2637.64	5.31528
2639	5.02345
2640.35	4.51561
2641.71	4.20816
2643.07	4.38291
2644.42	4.34237
2645.78	4.3988
2647.14	3.81191
2648.49	3.8548
2649.85	3.40241
2651.2	3.32527
2652.56	3.4598
2653.91	3.65632
2655.27	3.09202
2656.62	2.54036
2657.98	3.52085
2659.33	3.93812
2660.68	4.28226
2662.04	4.20076
2663.39	3.89759
2664.74	3.66291
2666.1	4.00606
2667.45	5.06576
2668.8	5.6069
2670.15	5.60954
2671.5	5.8127
2672.86	5.96382
2674.21	5.61234
2675.56	5.53269
2676.91	5.20421
2678.26	5.80794
2679.61	5.94193
2680.96	6.08884
2682.31	5.93027
2683.66	5.75419
2685.01	5.52491
2686.36	5.81743
2687.71	5.79401
2689.06	6.42783
2690.4	6.10199
2691.75	6.19658
2693.1	5.86995
2694.45	5.50323
2695.8	5.68835
2697.14	5.37262
2698.49	5.71672
2699.84	5.55879
2701.18	5.89174
2702.53	5.84188
2703.88	6.02504
2705.22	6.36211
2706.57	6.17823
2707.91	6.59423
2709.26	7.31931
2710.6	8.11938
2711.95	8.26146
2713.29	8.25737
2714.64	7.97365
2715.98	8.28878
2717.32	8.176
2718.67	8.53112
2720.01	8.73467
2721.35	9.03946
2722.7	8.25339
2724.04	8.58076
2725.38	8.77166
2726.72	8.27619
2728.06	8.49582
2729.4	7.98154
2730.75	8.0934
2732.09	8.58832
2733.43	9.0132
2734.77	9.71277
2736.11	9.00092
2737.45	8.70662
2738.79	8.58033
2740.13	7.9567
2741.47	7.32097
2742.81	6.80133
2744.15	6.51841
2745.48	6.38151
2746.82	5.29032
2748.16	4.74803
2749.5	4.01913
2750.84	3.12118
2752.17	2.68719
2753.51	2.39234
2754.85	2.04261
2756.19	1.86627
2757.52	1.2198
2758.86	1.05652
2760.19	0.819905
2761.53	0.285008
2762.86	-0.0674959
2764.2	0.115275
2765.54	0.441571
2766.87	0.334321
2768.2	0.63995
2769.54	0.889368
2770.87	0.692728
2772.21	0.675011
2773.54	1.2789
2774.88	1.43917
2776.21	1.38245
2777.54	1.46512
2778.87	0.844004
2780.21	0.253166
2781.54	0.707535
2782.87	1.08858
2784.2	0.742383
2785.53	0.560488
2786.87	0.228631
2788.2	0.153845
2789.53	-0.149973
2790.86	0.174821
2792.19	0.311504
2793.52	0.754239
2794.85	0.882329
2796.18	0.597094
2797.51	0.689733
2798.84	0.796365
2800.17	0.903136
2801.49	0.91863
2802.82	0.310397
2804.15	0.52274
2805.48	0.420569
2806.81	0.234841
2808.13	-0.309745
2809.46	-0.498155
2810.79	-1.51399
2812.12	-2.20864
2813.44	-2.43331
2814.77	-2.20714
2816.09	-1.95849
2817.42	-1.6383
2818.75	-0.59503
2820.07	1.28119
2821.4	3.03723
2822.72	4.60765
2824.05	6.12877
2825.37	7.64374
2826.7	9.57852
2828.02	11.5731
2829.35	14.183
2830.67	16.7553
2831.99	19.4819
2833.31	22.0028
2834.64	25.3698
2835.96	28.6017
2837.28	31.5767
2838.61	35.2897
2839.93	38.6617
2841.25	41.8
2842.57	46.2517
2843.89	50.2196
2845.21	55.0452
2846.53	60.1269
2847.85	64.7773
2849.17	68.9074
2850.49	73.4731
2851.81	78.2804
2853.13	83.57
2854.45	88.6668
2855.77	93.5816
2857.09	98.8864
2858.41	103.706
2859.73	108.056
2861.05	112.481
2862.36	116.745
2863.68	121.744
2865	126.656
2866.32	131.496
2867.64	135.747
2868.95	139.25
2870.27	142.512
2871.59	146.003
2872.9	149.243
2874.22	151.549
2875.53	153.939
2876.85	156.535
2878.16	159.636
2879.48	162.159
2880.79	164.518
2882.11	167.111
2883.42	169.464
2884.74	172.433
2886.05	174.735
2887.36	176.937
2888.68	178.731
2889.99	180.551
2891.3	183.12
2892.62	185.532
2893.93	187.979
2895.24	190.96
2896.55	193.714
2897.86	196.971
2899.18	199.734
2900.49	203.033
2901.8	206.845
2903.11	210.811
2904.42	215.174
2905.73	219.591
2907.04	224.361
2908.35	229.102
2909.66	233.923
2910.97	239.521
2912.28	244.24
2913.59	248.771
2914.9	254.766
2916.21	260.349
2917.51	264.854
2918.82	269.372
2920.13	273.257
2921.44	276.826
2922.74	280.386
2924.05	283.145
2925.36	285.513
2926.67	287.865
2927.97	289.334
2929.28	291.329
2930.59	291.623
2931.89	291.413
2933.2	290.157
2934.5	288.78
2935.81	286.917
2937.11	284.764
2938.42	281.978
2939.72	277.705
2941.02	273.738
2942.33	269.066
2943.63	263.517
2944.94	258.35
2946.24	253.301
2947.54	248.247
2948.85	241.517
2950.15	236.153
2951.45	229.64
2952.75	223.409
2954.05	217.042
2955.36	211.206
2956.66	205.355
2957.96	199.754
2959.26	194.498
2960.56	189.048
2961.86	183.528
2963.16	178.358
2964.46	173.964
2965.76	169.459
2967.06	165.27
2968.36	160.664
2969.66	156.094
2970.96	152.378
2972.26	148.506
2973.56	144.928
2974.85	141.982
2976.15	138.995
2977.45	135.42
2978.75	131.795
2980.05	128.702
2981.34	124.613
2982.64	120.275
2983.94	116.956
2985.23	113.416
2986.53	109.961
2987.83	106.211
2989.12	101.416
2990.42	97.3215
2991.71	93.3681
2993.01	89.391
2994.3	86.1248
2995.6	81.0505
2996.89	77.6056
2998.19	73.4745
2999.48	68.9782
3000.77	64.3873
3002.07	60.03
3003.36	55.5903
3004.65	51.0972
3005.95	47.2431
3007.24	43.8664
3008.53	40.3272
3009.82	36.9842
3011.12	33.6986
3012.41	30.8608
3013.7	27.669
3014.99	25.5914
3016.28	22.8392
3017.57	20.1144
3018.86	18.5301
3020.15	16.2032
3021.44	14.3503
3022.73	13.1126
3024.02	11.5301
3025.31	10.2475
3026.6	8.99121
3027.89	8.36758
3029.18	8.30447
3030.47	7.36268
3031.76	6.70191
3033.04	6.35209
3034.33	6.44103
3035.62	6.49031
3036.91	5.93218
3038.19	5.88091
3039.48	6.22254
3040.77	6.18049
3042.05	5.6656
3043.34	6.35058
3044.63	7.12394
3045.91	7.12908
3047.2	7.19299
3048.48	8.09278
3049.77	8.0048
3051.05	8.00612
3052.34	7.56873
3053.62	7.47526
3054.91	8.02933
3056.19	7.9142
3057.48	7.92686
3058.76	7.82668
3060.04	7.07353
3061.33	7.1343
3062.61	6.4614
3063.89	5.80433
3065.17	5.29849
3066.46	4.8534
3067.74	4.68471
3069.02	4.87686
3070.3	4.72124
3071.59	4.68408
3072.87	3.79758
3074.15	3.85823
3075.43	4.12458
3076.71	4.32155
3077.99	3.8098
3079.27	3.47064
3080.55	3.05697
3081.83	2.47413
3083.11	1.77315
3084.39	1.0052
3085.67	1.09897
3086.94	1.58753
3088.22	1.15039
3089.5	1.15445
3090.78	1.03343
3092.06	1.26535
3093.34	0.711295
3094.61	0.541142
3095.89	0.284921
3097.17	0.74407
3098.44	0.955098
3099.72	0.63766
3101	0.812671
3102.27	1.18862
3103.55	1.0991
3104.82	0.983533
3106.1	0.815393
3107.38	1.59964
3108.65	1.31645
3109.93	1.18851
3111.2	1.37813
3112.47	1.68787
3113.75	1.52151
3115.02	2.38341
3116.3	2.36245
3117.57	2.91253
3118.84	3.15167
3120.12	3.43073
3121.39	3.66204
3122.66	3.72369
3123.93	3.68416
3125.2	3.86321
3126.48	4.22758
3127.75	4.29352
3129.02	4.4341
3130.29	5.14192
3131.56	5.83031
3132.83	6.20269
3134.1	6.68291
3135.37	7.07785
3136.64	7.39673
3137.91	8.22759
3139.18	8.60263
3140.45	8.56605
3141.72	8.46936
3142.99	8.48322
3144.26	8.45137
3145.53	8.64624
3146.8	9.20679
3148.07	8.80442
3149.33	7.85562
