#Acq. time (s)=	45
#Accumulations=	2
#Range (cm-¹)=	200...3150
#Windows=	2
#Auto scanning=	Off
#Autofocus=	Off
#Macrospot=	Off
#AutoExposure=	Off
#Spike filter=	Multiple accum.
#Delay time (s)=	0
#Binning=	1
#Readout mode=	Signal
#DeNoise=	Off
#ICS correction=	On
#Dark correction=	Off
#Inst. Process=	Off
#Detector Gain=	Best Dynamic Range
#Detector ADC=	20 kHz       
#Detector temperature (°C)=	-70.08
#Instrument=	LabRAM HR Evol
#Detector=	Synapse
#Objective=	x100
#Grating=	600 gr/mm
#ND Filter=	100%
#Laser (nm)=	532 
#Hole=	100.021
#Range=	Auto
#Laser Pol.=	No
#Raman. Pol.=	No
#Laser Pol. (°)=	-0.0007625
#Raman Pol. (°)=	89.9995
#Collection=	Microscope
#StageXY=	Marzhauser
#StageZ=	Marzhauser
#X (µm)=	-1124.5
#Y (µm)=	1292.6
#Z (µm)=	578.4
#Full time(mm:ss)=	3:09
#Project=	
#Sample=	
#Site=	
#Title=	Mbcal_20_25_34_2x_45s_532 nm_x100_100%_600 gr_mm
#Remark=	
#Date=	18.07.2022 12:37
#Acquired=	18.07.2022 12:37:05
#Base:Fit=	10.08.2022 10:55:08
#Base:Sub=	10.08.2022 10:55:14
#Filter:Polynom=	16.08.2022 10:07:28
#AxisType[0]=Intens
#AxisUnit[0]=Cnt
#AxisType[1]=Spectr
#AxisUnit[1]=1/cm
200.419	52.6596
202.234	43.9001
204.048	36.3175
205.862	31.1306
207.678	26.2642
209.491	22.6283
211.304	20.0991
213.116	18.0432
214.928	16.5779
216.742	15.3475
218.554	13.7218
220.365	11.6221
222.176	11.0916
223.986	9.94113
225.798	9.13576
227.608	8.10912
229.417	8.11047
231.226	7.95173
233.035	6.29751
234.843	6.28231
236.653	5.14121
238.46	5.24887
240.268	5.67402
242.074	5.84082
243.881	5.15927
245.687	4.76412
247.493	4.77663
249.298	4.64034
251.103	5.34137
252.908	4.53585
254.715	4.17159
256.519	4.74286
258.322	6.66747
260.126	7.5066
261.929	8.52555
263.731	8.65628
265.534	8.2936
267.336	8.24437
269.137	7.51444
270.938	5.8413
272.739	5.44361
274.54	5.54593
276.34	5.95274
278.14	4.17682
279.939	2.98858
281.739	3.19429
283.537	2.87978
285.336	0.241067
287.134	-0.115459
288.932	0.671086
290.729	0.992035
292.526	1.12316
294.323	1.46474
296.117	2.27552
297.913	4.15326
299.709	4.87277
301.504	5.89536
303.299	6.82031
305.093	8.45989
306.888	9.46862
308.682	10.1175
310.475	10.6764
312.268	12.038
314.059	13.6697
315.852	14.4267
317.644	14.8568
319.436	15.6001
321.227	16.51
323.018	17.4761
324.807	20.1044
326.597	21.3033
328.387	23.2885
330.177	24.2366
331.967	24.175
333.753	23.6895
335.542	25.084
337.331	24.8442
339.119	25.3538
340.906	25.9555
342.691	26.3233
344.478	27.6592
346.265	28.3857
348.051	28.7415
349.835	29.2927
351.621	29.1828
353.406	28.2777
355.189	27.1162
356.973	25.8537
358.757	23.965
360.541	23.7301
362.323	23.4593
364.106	22.9314
365.889	21.9104
367.669	21.0067
369.451	19.7817
371.233	19.0123
373.012	16.7544
374.793	15.4869
376.574	14.9206
378.353	15.1605
380.133	15.1751
381.91	14.1293
383.69	14.8065
385.469	15.6969
387.245	15.1082
389.024	14.7849
390.8	15.584
392.577	15.5988
394.353	15.7786
396.129	15.1851
397.906	15.0778
399.68	15.4932
401.456	16.4147
403.23	16.6982
405.005	16.5673
406.778	17.1592
408.552	18.4307
410.325	19.9137
412.099	19.4708
413.87	20.6066
415.643	19.5503
417.414	19.0556
419.187	18.4505
420.957	17.9078
422.728	17.1907
424.498	17.1532
426.269	16.0837
428.038	15.5187
429.806	14.6816
431.576	15.3476
433.344	14.9656
435.114	13.8954
436.881	13.9034
438.649	13.105
440.416	12.1604
442.182	11.0282
443.949	10.1546
445.715	10.616
447.48	10.1541
449.247	10.3581
451.011	9.08362
452.777	9.30778
454.541	9.84084
456.304	9.59352
458.069	10.0054
459.832	10.8196
461.594	9.82162
463.358	9.97097
465.119	10.4806
466.881	11.6256
468.642	11.1233
470.404	11.2176
472.165	12.5975
473.925	13.8411
475.684	14.3829
477.445	15.744
479.204	17.7732
480.963	19.162
482.721	20.7325
484.481	22.053
486.239	24.1552
487.996	25.4639
489.753	26.4286
491.511	28.0084
493.268	29.1012
495.023	29.7317
496.779	30.4261
498.534	30.2724
500.289	31.5583
502.046	32.7801
503.8	32.665
505.554	32.161
507.307	32.6819
509.06	33.7374
510.813	33.148
512.566	33.8394
514.32	34.7982
516.072	34.9417
517.823	35.3473
519.574	36.1083
521.325	35.2101
523.076	35.6655
524.826	36.5059
526.576	36.7463
528.325	36.4476
530.074	36.6472
531.823	37.0406
533.572	36.9286
535.32	36.5341
537.068	37.0799
538.815	37.2477
540.562	37.4966
542.309	37.7353
544.056	36.2459
545.802	36.7555
547.547	34.0447
549.293	32.2784
551.038	31.7439
552.783	31.2839
554.527	29.3933
556.271	28.5667
558.015	28.6372
559.759	27.4826
561.502	27.5439
563.245	26.9151
564.987	26.6556
566.729	26.1663
568.471	24.7044
570.213	23.5668
571.954	22.6118
573.693	20.9553
575.433	18.6365
577.173	17.1282
578.913	16.8418
580.652	15.8425
582.392	14.6376
584.13	12.8579
585.867	11.0612
587.605	10.4813
589.343	8.43442
591.08	6.5191
592.817	5.70171
594.552	6.26504
596.289	5.9281
598.025	5.05311
599.761	5.37509
601.496	5.55838
603.229	5.12226
604.964	6.43545
606.699	6.1453
608.433	7.19846
610.165	7.4141
611.898	7.58922
613.631	7.9671
615.364	8.23383
617.095	9.40298
618.827	8.68245
620.559	8.98958
622.288	9.37049
624.02	9.24773
625.75	9.62627
627.479	10.056
629.209	11.4286
630.939	12.1991
632.667	13.7067
634.396	11.9183
636.125	13.0908
637.851	13.5958
639.58	14.2253
641.305	14.363
643.033	14.5302
644.76	15.7134
646.485	15.9938
648.212	17.0309
649.936	17.0712
651.662	16.4975
653.388	16.4516
655.111	17.0936
656.836	17.0803
658.558	17.8976
660.283	17.6198
662.005	18.0164
663.728	18.3012
665.45	17.9476
667.173	16.9248
668.893	15.5282
670.616	16.1347
672.336	16.9058
674.057	18.0521
675.777	18.8649
677.498	18.9511
679.216	20.2436
680.937	20.6007
682.655	21.2648
684.375	21.7799
686.092	22.8216
687.809	23.3238
689.528	23.4
691.244	23.9879
692.962	21.7957
694.678	23.294
696.393	22.6152
698.111	23.8065
699.825	23.9923
701.54	24.3079
703.256	24.6597
704.97	24.9201
706.685	25.6588
708.398	25.542
710.111	26.9984
711.826	28.2583
713.538	29.5545
715.25	29.751
716.961	28.8181
718.675	28.9013
720.386	27.1704
722.096	28.6452
723.808	28.7219
725.518	28.6767
727.228	28.6051
728.937	29.6675
730.648	30.8079
732.357	30.4372
734.065	30.5918
735.773	31.4275
737.483	31.5462
739.19	33.5093
740.897	33.8908
742.604	34.7955
744.31	35.9629
746.018	34.2721
747.724	35.5965
749.429	36.7925
751.134	38.7772
752.839	40.9991
754.544	42.8279
756.248	45.5224
757.953	46.6065
759.657	47.4851
761.36	48.6982
763.063	48.3565
764.765	49.2371
766.468	50.8673
768.169	52.0349
769.871	53.4416
771.572	54.9411
773.273	55.5745
774.976	56.6898
776.676	57.8711
778.376	58.7275
780.075	60.7276
781.775	61.5273
783.474	62.4111
785.172	62.4017
786.871	62.7759
788.569	63.5232
790.266	64.5094
791.964	64.8861
793.661	65.8521
795.358	67.3649
797.054	67.7249
798.75	67.6372
800.446	66.2074
802.141	66.3169
803.834	67.0632
805.529	65.7117
807.224	66.8519
808.918	65.0576
810.612	64.2385
812.305	64.331
813.998	63.3022
815.691	62.8653
817.384	63.7692
819.076	63.4464
820.766	62.8701
822.458	63.0364
824.149	62.8946
825.84	63.3725
827.531	64.4645
829.221	64.6864
830.909	65.7277
832.599	68.3316
834.288	68.242
835.977	69.5803
837.666	69.3328
839.353	69.868
841.041	70.9547
842.729	70.729
844.416	69.8724
846.103	70.7677
847.788	70.7723
849.475	71.2928
851.161	72.629
852.845	71.8098
854.53	73.0578
856.216	72.0342
857.901	71.2127
859.583	70.2362
861.268	69.3982
862.952	68.6384
864.633	68.111
866.317	67.0827
868	64.9273
869.681	62.6783
871.363	61.1704
873.045	60.3473
874.725	59.1284
876.406	57.299
878.088	55.0549
879.767	53.2257
881.447	50.4484
883.125	47.9731
884.805	46.9853
886.483	44.7298
888.162	41.4628
889.841	39.0282
891.518	38.0353
893.196	35.9595
894.872	35.343
896.55	34.2028
898.225	32.7395
899.902	32.1836
901.577	31.0131
903.254	29.7511
904.928	30.0041
906.604	29.5632
908.277	30.6947
909.952	31.2161
911.625	31.1005
913.3	31.6189
914.972	32.0102
916.646	31.8584
918.318	32.2609
919.991	32.1971
921.662	31.5318
923.333	33.0621
925.005	33.8005
926.675	34.0191
928.347	34.9809
930.017	36.6961
931.686	36.8038
933.357	36.0657
935.025	35.9095
936.693	34.5456
938.363	35.1151
940.031	33.5206
941.698	33.5618
943.367	32.7391
945.034	31.7541
946.7	30.0328
948.368	28.9495
950.034	27.0573
951.699	26.6906
953.367	25.4004
955.031	25.5622
956.696	24.8094
958.36	22.7039
960.026	20.694
961.689	19.1981
963.353	18.5338
965.016	17.6363
966.68	17.728
968.343	16.7379
970.005	15.0934
971.666	15.1626
973.328	15.4642
974.991	16.1292
976.652	15.1778
978.312	13.7982
979.972	13.01
981.632	12.9133
983.292	13.4218
984.953	13.0378
986.612	13.0349
988.27	12.4652
989.929	12.0235
991.587	13.4657
993.244	12.5513
994.902	13.6724
996.559	14.4455
998.216	14.9741
999.872	16.1453
1001.53	16.0293
1003.19	15.6817
1004.84	16.8695
1006.5	18.0758
1008.15	17.8593
1009.81	17.9041
1011.46	17.6758
1013.11	17.9304
1014.77	19.0349
1016.42	18.9375
1018.07	19.7517
1019.73	22.3969
1021.38	23.9312
1023.03	24.9463
1024.68	25.9626
1026.34	26.4213
1027.99	27.3259
1029.64	28.3353
1031.29	28.8608
1032.94	29.2721
1034.59	28.9964
1036.24	28.3071
1037.89	27.7593
1039.53	26.6956
1041.18	24.9161
1042.83	25.8474
1044.48	25.1845
1046.13	25.7047
1047.77	25.5156
1049.42	24.8538
1051.07	23.4568
1052.71	23.2814
1054.36	22.9547
1056	21.3156
1057.65	21.3827
1059.3	19.4992
1060.94	19.4958
1062.59	19.1034
1064.23	19.2516
1065.87	18.6496
1067.52	17.968
1069.16	17.8811
1070.8	17.3548
1072.44	17.9747
1074.09	18.5778
1075.73	17.8801
1077.37	18.6588
1079.01	18.3888
1080.65	18.7765
1082.29	18.9247
1083.93	17.7705
1085.57	18.0065
1087.21	19.1425
1088.85	19.8938
1090.49	21.7235
1092.13	23.5254
1093.77	26.5067
1095.41	29.4618
1097.04	30.8676
1098.68	32.261
1100.32	35.0107
1101.95	37.3013
1103.59	37.9065
1105.23	38.466
1106.86	39.2503
1108.5	39.4214
1110.13	39.9911
1111.77	39.6868
1113.4	39.8124
1115.04	39.2622
1116.67	38.222
1118.31	38.2052
1119.94	38.0736
1121.57	38.6528
1123.2	37.3903
1124.84	37.914
1126.47	36.0968
1128.1	36.6114
1129.73	35.0719
1131.36	33.7762
1132.99	32.9517
1134.62	32.0957
1136.25	31.5131
1137.88	31.0203
1139.51	31.0814
1141.14	30.0739
1142.77	29.4824
1144.4	28.4545
1146.03	27.4442
1147.66	25.9741
1149.28	23.6859
1150.91	21.5286
1152.54	21.549
1154.16	20.0491
1155.79	18.4505
1157.42	16.9752
1159.04	15.1956
1160.67	13.798
1162.29	12.1194
1163.92	11.2263
1165.54	9.22991
1167.17	9.07749
1168.79	9.30247
1170.41	9.4034
1172.04	9.43097
1173.66	8.10275
1175.28	7.41814
1176.9	6.81357
1178.53	6.60687
1180.15	6.68751
1181.77	7.5043
1183.39	6.15418
1185.01	6.64341
1186.63	6.50836
1188.25	7.51989
1189.87	8.63113
1191.49	9.54557
1193.11	9.43595
1194.73	10.0011
1196.35	10.4267
1197.96	12.0258
1199.58	14.3488
1201.2	15.4351
1202.82	15.8276
1204.43	16.6074
1206.05	17.6129
1207.66	18.5841
1209.28	20.0501
1210.9	21.5523
1212.51	24.7192
1214.13	26.4617
1215.74	29.2615
1217.36	33.027
1218.97	34.9188
1220.58	37.5238
1222.2	39.3934
1223.81	42.4564
1225.42	44.3921
1227.04	46.0984
1228.65	47.5022
1230.26	49.1383
1231.87	52.0371
1233.48	54.4775
1235.1	55.0104
1236.71	56.7715
1238.32	58.8359
1239.93	59.7104
1241.53	60.8527
1243.14	62.1114
1244.75	65.245
1246.36	65.834
1247.97	67.6196
1249.58	68.6531
1251.19	69.4768
1252.8	69.573
1254.4	69.8795
1256.01	71.1034
1257.62	72.0816
1259.22	72.8673
1260.83	73.2755
1262.43	74.0122
1264.04	74.8208
1265.64	76.8638
1267.25	76.6532
1268.85	78.3982
1270.46	79.4701
1272.06	79.0784
1273.66	79.1804
1275.27	79.3971
1276.87	80.4958
1278.48	80.6758
1280.08	80.9956
1281.68	81.169
1283.28	81.5372
1284.88	82.146
1286.48	82.3731
1288.08	83.8028
1289.68	85.4777
1291.28	87.6797
1292.88	88.9514
1294.48	90.0857
1296.08	91.915
1297.68	91.7918
1299.28	92.384
1300.88	95.5177
1302.48	96.0761
1304.07	97.859
1305.67	97.8811
1307.27	98.4553
1308.87	98.9606
1310.46	100.313
1312.06	102.387
1313.65	103.733
1315.25	104.341
1316.85	105.36
1318.44	106.364
1320.03	105.66
1321.63	105.373
1323.22	107.406
1324.82	108.208
1326.41	107.276
1328	107.429
1329.6	107.431
1331.19	107.651
1332.78	106.961
1334.37	107.155
1335.96	108.441
1337.56	108.82
1339.15	109.807
1340.74	108.868
1342.33	110.203
1343.92	111.376
1345.51	111.057
1347.1	110.844
1348.69	110.994
1350.28	110.334
1351.86	109.14
1353.45	108.995
1355.04	106.882
1356.63	105.923
1358.21	104.102
1359.8	102.766
1361.39	101.025
1362.97	99.4872
1364.56	99.0234
1366.15	98.2609
1367.73	96.9172
1369.32	95.744
1370.9	93.9364
1372.49	92.2327
1374.07	90.2924
1375.65	88.3265
1377.24	86.0073
1378.82	84.7892
1380.41	84.0113
1381.99	80.9154
1383.57	79.4184
1385.15	77.1588
1386.73	76.0725
1388.32	74.7968
1389.9	73.5143
1391.48	72.5111
1393.06	69.8559
1394.64	68.5386
1396.22	67.789
1397.8	66.5984
1399.38	66.1373
1400.96	66.2042
1402.54	67.3733
1404.11	67.1838
1405.69	66.9947
1407.27	67.6553
1408.85	69.3807
1410.43	71.8608
1412	73.8426
1413.58	77.3319
1415.16	80.4523
1416.73	83.4758
1418.31	86.5816
1419.88	90.0696
1421.46	94.8652
1423.03	97.8324
1424.61	102.264
1426.18	106.903
1427.76	110.879
1429.33	115.765
1430.9	119.774
1432.48	124.178
1434.05	127.051
1435.62	131.555
1437.2	135.683
1438.77	139.31
1440.34	143.091
1441.91	146.216
1443.48	148.159
1445.05	149.466
1446.62	150.152
1448.19	151.961
1449.76	153.148
1451.33	152.985
1452.9	152.686
1454.47	153.692
1456.04	153.417
1457.61	153.785
1459.17	154.682
1460.74	155.083
1462.31	155.801
1463.88	155.541
1465.44	155.557
1467.01	154.866
1468.58	153.825
1470.14	154.525
1471.71	154.212
1473.27	154.591
1474.84	153.398
1476.4	151.583
1477.97	149.908
1479.53	147.183
1481.1	145.236
1482.66	142.41
1484.22	140.159
1485.78	137.995
1487.35	136.836
1488.91	134.237
1490.47	131.168
1492.03	128.046
1493.59	125.05
1495.16	121.726
1496.72	118.033
1498.28	114.425
1499.84	110.611
1501.4	106.919
1502.96	104.058
1504.52	100.378
1506.08	96.4771
1507.64	93.584
1509.19	89.8355
1510.75	85.011
1512.31	80.3227
1513.87	76.5513
1515.42	72.1104
1516.98	67.1559
1518.54	63.2085
1520.1	58.0476
1521.65	53.3743
1523.21	49.6098
1524.76	47.4529
1526.32	45.4272
1527.87	43.0901
1529.43	40.7384
1530.98	39.5037
1532.54	39.1066
1534.09	38.659
1535.64	37.9825
1537.2	38.7905
1538.75	39.1933
1540.3	40.151
1541.85	42.431
1543.41	43.4927
1544.96	44.9513
1546.51	46.3554
1548.06	48.6796
1549.61	49.4492
1551.16	50.87
1552.71	52.0056
1554.26	53.3409
1555.81	55.1161
1557.36	56.3071
1558.91	57.8963
1560.46	59.0263
1562.01	60.6715
1563.56	61.9161
1565.1	64.1944
1566.65	63.9142
1568.2	64.6333
1569.75	65.5342
1571.29	66.8732
1572.84	68.2842
1574.38	70.4403
1575.93	72.45
1577.48	74.5221
1579.02	76.3188
1580.57	78.9985
1582.11	81.3471
1583.65	82.8143
1585.2	84.6255
1586.74	85.2008
1588.29	85.2659
1589.83	87.0508
1591.37	87.4642
1592.92	88.3226
1594.46	88.9542
1596	89.9971
1597.54	89.752
1599.08	89.513
1600.62	89.5704
1602.16	89.3163
1603.7	88.6549
1605.24	87.8179
1606.78	85.9204
1608.32	85.4165
1609.86	85.2577
1611.4	84.3592
1612.94	83.3814
1614.48	83.6795
1616.02	83.9681
1617.56	85.6407
1619.09	85.5129
1620.63	84.4044
1622.17	85.2396
1623.71	86.3794
1625.24	87.3345
1626.78	87.5179
1628.31	87.9378
1629.85	88.1613
1631.39	88.998
1632.92	89.8841
1634.46	91.1766
1635.99	92.5319
1637.52	93.2039
1639.06	95.3241
1640.59	97.0826
1642.12	97.6849
1643.66	98.1371
1645.19	100.031
1646.72	101.314
1648.25	102.578
1649.79	103.275
1651.32	104.446
1652.85	104.389
1654.38	103.76
1655.91	103.229
1657.44	103.062
1658.97	101.628
1660.5	99.9208
1662.03	98.7954
1663.56	97.6884
1665.09	95.9286
1666.62	94.7627
1668.15	92.9761
1669.67	90.2888
1671.2	87.1359
1672.73	83.6359
1674.26	79.7576
1675.79	76.4576
1677.31	71.8764
1678.84	68.3798
1680.36	63.5489
1681.89	58.242
1683.42	54.7423
1684.94	52.3502
1686.47	49.1055
1687.99	45.647
1689.51	42.0722
1691.04	39.3827
1692.56	36.4706
1694.08	33.5973
1695.61	29.9612
1697.13	28.1208
1698.65	26.5098
1700.18	23.7415
1701.7	21.5178
1703.22	19.8836
1704.74	18.8608
1706.26	17.6911
1707.78	16.7133
1709.3	16.1972
1710.82	15.4119
1712.35	14.0529
1713.86	12.9223
1715.39	12.6674
1716.9	11.3309
1718.42	9.47178
1719.94	9.372
1721.46	8.04264
1722.98	7.60822
1724.5	6.53578
1726.01	5.84784
1727.53	5.6867
1729.05	4.91065
1730.56	3.78372
1732.08	3.11202
1733.6	3.15886
1735.11	3.20622
1736.63	3.71574
1738.14	4.08877
1739.66	4.3667
1741.17	3.7794
1742.69	4.05273
1744.2	3.32438
1745.71	1.87938
1747.23	1.98908
1748.74	1.17301
1750.25	1.16772
1751.77	0.205516
1753.28	-1.01568
1754.79	-1.0352
1756.3	-1.51178
1757.81	-0.657345
1759.33	0.291721
1760.84	-0.253431
1762.35	-1.3425
1763.86	-2.11311
1765.37	-2.34972
1766.88	-2.02369
1768.39	-2.2158
1769.9	-1.67993
1771.41	-1.41051
1772.91	-0.386909
1774.42	-0.408336
1775.93	-0.204946
1777.44	0.373847
1778.95	0.522859
1780.45	0.347045
1781.96	-0.069216
1783.47	0.0289791
1784.97	0.828116
1786.48	0.899755
1787.99	1.07685
1789.49	1.31256
1791	1.79597
1792.5	1.77633
1794.01	1.69783
1795.51	1.9373
1797.01	1.40551
1798.52	2.12898
1800.02	2.34753
1801.52	2.94825
1803.03	2.93264
1804.53	3.48229
1806.03	3.18323
1807.54	3.67334
1809.04	4.35211
1810.54	4.63718
1812.04	4.46979
1813.54	4.90059
1815.04	5.54991
1816.54	5.03867
1818.04	4.92138
1819.54	4.06596
1821.04	3.83077
1822.54	4.39549
1824.04	4.69234
1825.54	5.18309
1827.04	4.71619
1828.54	4.89456
1830.03	5.23061
1831.53	5.16727
1833.03	4.87099
1834.53	4.46521
1836.02	4.42666
1837.52	3.61363
1839.02	3.90637
1840.51	3.11829
1842.01	2.55479
1843.5	2.64258
1845	3.21394
1846.49	3.49569
1847.99	3.80738
1849.48	3.46268
1850.98	3.51992
1852.47	2.96451
1853.96	2.06696
1855.46	2.03789
1856.95	1.76753
1858.44	1.63059
1859.94	1.95215
1861.43	2.26918
1862.92	2.03812
1864.41	2.23873
1865.9	2.04955
1867.39	2.37985
1868.88	3.02233
1870.37	2.76916
1871.86	2.86932
1873.35	3.60103
1874.84	4.4093
1876.33	4.4833
1877.82	4.50609
1879.31	5.87947
1880.8	5.34187
1882.29	5.20968
1882.58	5.71858
1884.08	6.7782
1885.57	7.88034
1887.06	8.56628
1888.56	9.15073
1890.05	8.48842
1891.54	8.76705
1893.04	8.42129
1894.53	9.26957
1896.02	10.717
1897.51	10.6447
1899	10.6616
1900.5	10.9959
1901.99	11.7307
1903.48	12.5759
1904.97	12.2766
1906.46	12.0876
1907.95	12.1155
1909.44	12.2837
1910.93	12.3936
1912.42	13.3107
1913.91	13.3917
1915.4	14.017
1916.88	14.935
1918.37	15.6579
1919.86	15.2537
1921.35	14.6133
1922.84	13.6179
1924.32	13.2097
1925.81	12.6093
1927.3	12.5007
1928.78	12.8351
1930.27	12.3549
1931.75	11.5989
1933.24	11.4642
1934.72	11.5011
1936.21	11.2136
1937.69	11.3114
1939.18	11.1667
1940.66	12.1529
1942.15	11.1287
1943.63	10.2109
1945.11	11.289
1946.6	12.1351
1948.08	12.5706
1949.56	12.5143
1951.04	12.0886
1952.53	12.173
1954.01	10.9734
1955.49	10.5698
1956.97	10.7453
1958.45	10.4153
1959.93	9.34811
1961.41	8.88416
1962.89	8.87208
1964.37	7.71179
1965.85	7.45877
1967.33	7.07825
1968.81	7.40146
1970.29	7.41159
1971.77	6.8586
1973.24	7.04001
1974.72	6.89633
1976.2	6.61991
1977.68	5.87223
1979.15	5.36384
1980.63	5.97978
1982.11	6.38882
1983.58	6.18899
1985.06	6.25058
1986.53	5.95533
1988.01	6.36951
1989.48	6.70461
1990.96	7.11763
1992.43	7.29504
1993.91	7.2002
1995.38	7.00708
1996.86	7.50356
1998.33	7.68484
1999.8	8.1393
2001.27	8.49411
2002.75	8.90584
2004.22	9.71464
2005.69	10.0053
2007.16	11.1511
2008.64	11.6896
2010.11	11.9167
2011.58	12.7908
2013.05	13.7037
2014.52	14.3203
2015.99	13.6842
2017.46	14.5237
2018.93	14.9338
2020.4	14.4772
2021.87	14.1514
2023.34	13.8258
2024.8	13.4572
2026.27	12.8918
2027.74	12.382
2029.21	12.1532
2030.68	12.5821
2032.14	13.3906
2033.61	13.132
2035.08	13.3672
2036.54	13.5719
2038.01	12.5874
2039.48	13.467
2040.94	13.2127
2042.41	13.1198
2043.87	12.9003
2045.34	12.3895
2046.8	12.4043
2048.27	12.8127
2049.73	13.511
2051.19	14.2351
2052.66	14.5337
2054.12	15.1714
2055.58	15.2479
2057.05	15.6818
2058.51	16.4547
2059.97	16.7857
2061.43	16.9339
2062.9	17.4499
2064.36	17.2515
2065.82	18.37
2067.28	18.1954
2068.74	17.9424
2070.2	17.9291
2071.66	17.3643
2073.12	17.1234
2074.58	17.1386
2076.04	17.3965
2077.5	17.2894
2078.95	17.0411
2080.41	17.3077
2081.87	16.7834
2083.33	17.2677
2084.79	18.0816
2086.24	18.1436
2087.7	18.1123
2089.16	18.1154
2090.61	18.2543
2092.07	18.5317
2093.53	18.7966
2094.98	18.7431
2096.44	19.1554
2097.89	20.0211
2099.35	19.9222
2100.8	21.6863
2102.26	22.576
2103.71	23.5379
2105.16	24.5009
2106.62	24.7408
2108.07	25.4227
2109.53	26.7557
2110.98	26.6246
2112.43	28.0617
2113.88	28.4801
2115.33	29.8724
2116.79	30.9098
2118.24	32.4107
2119.69	34.1045
2121.14	35.5856
2122.59	36.6038
2124.04	38.0568
2125.49	39.1847
2126.94	40.9332
2128.39	42.2552
2129.84	43.0767
2131.29	44.6537
2132.74	45.7824
2134.19	47.0752
2135.63	48.9781
2137.08	49.8082
2138.53	51.4795
2139.98	51.8547
2141.43	53.1484
2142.87	53.4536
2144.32	55.2902
2145.77	56.9035
2147.21	59.2192
2148.66	60.8582
2150.1	61.6117
2151.55	62.9309
2152.99	64.5085
2154.44	65.5262
2155.88	67.0977
2157.33	68.9154
2158.77	70.1488
2160.21	71.4222
2161.66	72.2704
2163.1	72.5692
2164.55	73.5148
2165.99	73.766
2167.43	74.638
2168.87	75.4806
2170.31	76.0094
2171.76	75.8215
2173.2	77.0095
2174.64	76.2481
2176.08	76.4905
2177.52	76.4541
2178.96	76.4172
2180.4	76.2038
2181.84	76.6457
2183.28	76.1623
2184.72	76.0545
2186.16	75.7382
2187.6	74.4796
2189.04	73.5512
2190.47	73.277
2191.91	72.1054
2193.35	71.5447
2194.79	70.7723
2196.23	70.2537
2197.66	68.7036
2199.1	67.2429
2200.54	65.9812
2201.97	64.6285
2203.41	63.9021
2204.84	62.0138
2206.28	60.0644
2207.71	58.9699
2209.15	57.1822
2210.58	55.565
2212.02	54.2395
2213.45	52.6478
2214.89	50.2682
2216.32	48.6768
2217.75	47.199
2219.19	46.0215
2220.62	44.5428
2222.05	42.8805
2223.48	41.8362
2224.92	41.0482
2226.35	39.4744
2227.78	39.5299
2229.21	38.3324
2230.64	35.677
2232.07	34.2117
2233.5	32.0855
2234.93	30.597
2236.36	30.0683
2237.79	29.1527
2239.22	28.7267
2240.65	28.2431
2242.08	28.1852
2243.51	26.9414
2244.94	27.3175
2246.37	26.3914
2247.79	26.0497
2249.22	25.9432
2250.65	25.4337
2252.08	24.9195
2253.5	25.0804
2254.93	24.7596
2256.36	24.4558
2257.78	23.4722
2259.21	22.775
2260.63	23.0105
2262.06	21.6581
2263.48	20.8727
2264.91	20.3578
2266.33	19.7742
2267.76	20.1525
2269.18	19.3525
2270.6	18.5325
2272.03	18.4718
2273.45	17.5468
2274.87	16.6787
2276.3	15.3371
2277.72	14.8724
2279.14	15.5148
2280.56	14.1146
2281.98	13.9088
2283.41	13.4523
2284.83	12.5675
2286.25	11.8728
2287.67	12.0362
2289.09	12.5048
2290.51	12.1658
2291.93	10.2826
2293.35	9.45548
2294.77	9.05318
2296.19	9.00972
2297.61	8.80851
2299.02	8.40208
2300.44	7.34764
2301.86	7.26891
2303.28	8.28991
2304.7	8.00666
2306.11	8.33229
2307.53	9.23725
2308.95	9.38541
2310.36	9.96363
2311.78	11.0123
2313.2	11.2051
2314.61	10.7647
2316.03	11.4062
2317.44	10.9571
2318.86	10.542
2320.27	11.1251
2321.69	10.5947
2323.1	9.73074
2324.51	9.52768
2325.93	9.08703
2327.34	8.63937
2328.76	7.6792
2330.17	7.74437
2331.58	7.62819
2332.99	7.18325
2334.41	7.03329
2335.82	6.58362
2337.23	6.52071
2338.64	6.19354
2340.05	5.00525
2341.46	5.66201
2342.87	6.00342
2344.28	5.50042
2345.69	5.27832
2347.1	6.08623
2348.51	6.70141
2349.92	7.08329
2351.33	5.98054
2352.74	5.58466
2354.15	5.26342
2355.56	4.5133
2356.97	4.21818
2358.37	3.98866
2359.78	3.58265
2361.19	3.12825
2362.6	2.03078
2364	3.32239
2365.41	3.47355
2366.82	3.8322
2368.22	4.22242
2369.63	3.78314
2371.03	4.39035
2372.44	4.38494
2373.84	4.56351
2375.25	4.8255
2376.65	5.2052
2378.06	6.64823
2379.46	6.67541
2380.86	7.21421
2382.27	6.87733
2383.67	6.31591
2385.07	5.46257
2386.48	5.09842
2387.88	4.83012
2389.28	4.53021
2390.69	4.66449
2392.09	4.0754
2393.49	4.03886
2394.89	4.49713
2396.29	4.75828
2397.69	4.73292
2399.09	4.84511
2400.49	4.63181
2401.89	4.91101
2403.29	4.82974
2404.69	3.91783
2406.09	4.65824
2407.49	4.90588
2408.89	5.2903
2410.29	6.31655
2411.69	7.1274
2413.08	7.04693
2414.48	6.46139
2415.88	5.99068
2417.28	7.1509
2418.67	6.62035
2420.07	6.85308
2421.47	6.53856
2422.86	5.36583
2424.26	5.1941
2425.65	4.39728
2427.05	4.53219
2428.45	4.45348
2429.84	4.34835
2431.23	3.75853
2432.63	3.44421
2434.02	4.59528
2435.42	4.65512
2436.81	4.52035
2438.2	4.23863
2439.6	3.72566
2440.99	4.43449
2442.38	3.76623
2443.78	3.84273
2445.17	3.66177
2446.56	3.2421
2447.95	3.21469
2449.34	2.20158
2450.73	2.15122
2452.13	2.7243
2453.52	3.64458
2454.91	3.339
2456.3	3.43929
2457.69	3.02812
2459.08	2.72764
2460.47	1.97342
2461.85	1.63743
2463.24	1.27177
2464.63	1.11455
2466.02	1.62657
2467.41	1.7852
2468.8	2.02156
2470.19	1.12226
2471.57	1.13874
2472.96	1.05219
2474.35	1.55343
2475.73	2.43646
2477.12	2.34777
2478.51	2.68649
2479.89	3.18542
2481.28	2.72728
2482.66	2.90239
2484.05	2.41876
2485.43	3.39083
2486.82	3.88876
2488.2	3.5749
2489.59	3.51655
2490.97	3.02358
2492.35	1.98085
2493.74	2.17482
2495.12	2.60221
2496.5	3.49786
2497.89	3.95142
2499.27	4.80763
2500.65	4.9322
2502.03	5.13402
2503.42	5.56389
2504.8	5.31038
2506.18	4.69519
2507.56	4.70475
2508.94	4.60373
2510.32	4.64113
2511.7	4.02603
2513.08	4.31889
2514.46	4.16732
2515.84	4.12832
2517.22	5.10771
2518.6	5.68423
2519.98	6.36491
2521.36	7.00597
2522.73	6.85129
2524.11	6.36525
2525.49	5.89022
2526.87	5.32172
2528.25	5.84208
2529.62	6.01005
2531	6.33886
2532.38	6.92679
2533.75	7.27173
2535.13	7.27581
2536.5	7.5127
2537.88	7.57642
2539.25	8.00783
2540.63	8.65436
2542.01	9.50386
2543.38	10.214
2544.75	10.2551
2546.13	9.90732
2547.5	10.0907
2548.88	10.1524
2550.25	10.3667
2551.62	11.013
2553	10.8384
2554.37	10.9974
2555.74	10.1851
2557.11	9.97049
2558.49	9.47016
2559.86	9.63078
2561.23	9.29686
2562.6	9.62819
2563.97	10.3071
2565.34	10.2677
2566.71	9.56659
2568.08	9.51968
2569.45	8.74564
2570.82	7.60521
2572.19	7.45554
2573.56	7.25613
2574.93	6.83269
2576.3	6.56422
2577.67	6.31056
2579.03	6.06366
2580.4	5.98427
2581.77	5.74364
2583.14	5.78333
2584.5	6.16989
2585.87	6.62908
2587.24	5.99032
2588.6	5.83995
2589.97	6.10437
2591.34	6.26794
2592.7	6.04191
2594.07	5.56792
2595.43	5.71404
2596.8	5.40184
2598.16	5.06735
2599.53	4.67267
2600.89	4.96044
2602.26	4.39884
2603.62	4.74817
2604.98	5.05138
2606.35	5.32782
2607.71	5.15524
2609.07	5.52462
2610.44	5.97908
2611.8	5.44888
2613.16	5.07546
2614.52	4.88512
2615.88	4.79351
2617.25	4.83156
2618.61	4.7753
2619.97	4.87441
2621.33	4.85176
2622.69	5.35734
2624.05	4.67063
2625.41	4.61959
2626.77	5.10704
2628.13	5.95743
2629.49	6.45257
2630.85	6.88184
2632.21	6.37018
2633.56	6.13956
2634.92	6.32299
2636.28	6.88581
2637.64	6.99572
2639	6.93902
2640.35	7.51777
2641.71	8.15917
2643.07	8.27254
2644.42	7.35601
2645.78	8.45141
2647.14	8.48203
2648.49	9.05468
2649.85	9.40674
2651.2	9.75967
2652.56	9.9423
2653.91	9.52052
2655.27	9.68265
2656.62	10.413
2657.98	10.8894
2659.33	10.7423
2660.68	10.2438
2662.04	10.2699
2663.39	10.5337
2664.74	9.82629
2666.1	10.03
2667.45	10.055
2668.8	10.6555
2670.15	10.77
2671.5	11.6058
2672.86	11.8235
2674.21	11.8994
2675.56	11.3141
2676.91	11.2982
2678.26	10.864
2679.61	10.4711
2680.96	11.1512
2682.31	11.4373
2683.66	11.6701
2685.01	12.4072
2686.36	13.1847
2687.71	13.6054
2689.06	13.7209
2690.4	14.4118
2691.75	13.9103
2693.1	13.8524
2694.45	14.3885
2695.8	14.4346
2697.14	14.8106
2698.49	14.254
2699.84	14.2994
2701.18	14.7033
2702.53	14.9004
2703.88	15.5608
2705.22	15.3593
2706.57	15.0161
2707.91	15.0149
2709.26	15.6495
2710.6	15.1954
2711.95	15.2844
2713.29	17.0176
2714.64	16.7679
2715.98	17.4436
2717.32	16.8794
2718.67	16.7952
2720.01	17.3922
2721.35	17.8638
2722.7	18.6695
2724.04	19.1075
2725.38	19.0669
2726.72	18.2067
2728.06	18.6303
2729.4	19.0729
2730.75	19.3213
2732.09	18.4497
2733.43	18.7371
2734.77	18.7315
2736.11	18.7762
2737.45	18.4995
2738.79	18.1981
2740.13	17.5377
2741.47	17.0499
2742.81	16.8491
2744.15	16.9866
2745.48	17.5948
2746.82	17.5036
2748.16	17.304
2749.5	17.4246
2750.84	17.3806
2752.17	16.4442
2753.51	15.9043
2754.85	14.3094
2756.19	13.3342
2757.52	12.7701
2758.86	11.0628
2760.19	9.71048
2761.53	9.08429
2762.86	8.40501
2764.2	8.20736
2765.54	6.84719
2766.87	6.67819
2768.2	5.93977
2769.54	5.73583
2770.87	5.02745
2772.21	4.05424
2773.54	4.40397
2774.88	3.74317
2776.21	3.32518
2777.54	3.3298
2778.87	3.0972
2780.21	2.95435
2781.54	1.99852
2782.87	1.57916
2784.2	0.821421
2785.53	1.00614
2786.87	1.04824
2788.2	0.651008
2789.53	0.282875
2790.86	0.0999094
2792.19	0.278344
2793.52	-0.010107
2794.85	1.50437
2796.18	1.7644
2797.51	1.27879
2798.84	1.36761
2800.17	2.0946
2801.49	2.58384
2802.82	3.08407
2804.15	3.66585
2805.48	3.43934
2806.81	4.30016
2808.13	4.52114
2809.46	4.79815
2810.79	4.83353
2812.12	5.13791
2813.44	5.01753
2814.77	5.45393
2816.09	5.82802
2817.42	6.581
2818.75	7.38092
2820.07	9.61583
2821.4	11.5009
2822.72	13.7132
2824.05	16.5145
2825.37	18.8408
2826.7	21.4508
2828.02	24.3875
2829.35	28.3443
2830.67	31.3095
2831.99	34.2595
2833.31	38.535
2834.64	41.9515
2835.96	46.2604
2837.28	50.4187
2838.61	55.0573
2839.93	59.7808
2841.25	63.7148
2842.57	69.1055
2843.89	74.4174
2845.21	79.6727
2846.53	84.8513
2847.85	91.3029
2849.17	98.2148
2850.49	104.617
2851.81	111.879
2853.13	119.321
2854.45	127.198
2855.77	134.317
2857.09	141.444
2858.41	148.253
2859.73	154.941
2861.05	161.688
2862.36	168.129
2863.68	174.503
2865	180.536
2866.32	185.862
2867.64	190.467
2868.95	195.321
2870.27	200.381
2871.59	204.563
2872.9	209.454
2874.22	213.507
2875.53	217.002
2876.85	220.019
2878.16	223.573
2879.48	227.575
2880.79	230.784
2882.11	234.355
2883.42	238.798
2884.74	241.775
2886.05	245.456
2887.36	249.068
2888.68	251.695
2889.99	255.411
2891.3	258.807
2892.62	261.89
2893.93	265.361
2895.24	268.841
2896.55	271.877
2897.86	276.49
2899.18	281.516
2900.49	286.549
2901.8	292.005
2903.11	297.439
2904.42	303.117
2905.73	309.639
2907.04	315.261
2908.35	322.676
2909.66	328.965
2910.97	336.888
2912.28	344.446
2913.59	353.102
2914.9	360.441
2916.21	367.782
2917.51	375.48
2918.82	382.566
2920.13	388.312
2921.44	393.102
2922.74	397.985
2924.05	402.343
2925.36	406.999
2926.67	409.934
2927.97	412.249
2929.28	413.147
2930.59	413.05
2931.89	412.744
2933.2	411.644
2934.5	411.369
2935.81	408.772
2937.11	404.767
2938.42	401.474
2939.72	396.588
2941.02	391.163
2942.33	385.306
2943.63	379.871
2944.94	372.609
2946.24	364.942
2947.54	357.928
2948.85	349.769
2950.15	341.903
2951.45	333.822
2952.75	325.622
2954.05	316.558
2955.36	307.929
2956.66	299.64
2957.96	290.592
2959.26	282.616
2960.56	274.961
2961.86	267.874
2963.16	261.33
2964.46	254.012
2965.76	246.808
2967.06	239.781
2968.36	233.323
2969.66	226.844
2970.96	220.802
2972.26	214.565
2973.56	209.478
2974.85	203.577
2976.15	198.641
2977.45	192.859
2978.75	187.287
2980.05	181.753
2981.34	176.303
2982.64	170.592
2983.94	164.994
2985.23	158.747
2986.53	153.083
2987.83	147.415
2989.12	141.522
2990.42	135.492
2991.71	129.095
2993.01	122.758
2994.3	116.967
2995.6	111.303
2996.89	105.23
2998.19	99.6304
2999.48	93.9164
3000.77	87.6188
3002.07	81.6685
3003.36	76.0793
3004.65	69.9317
3005.95	64.3299
3007.24	58.2724
3008.53	53.4072
3009.82	47.4965
3011.12	43.2827
3012.41	38.6976
3013.7	34.3817
3014.99	31.236
3016.28	28.0332
3017.57	25.2075
3018.86	21.8233
3020.15	18.9555
3021.44	17.3289
3022.73	15.5034
3024.02	14.2779
3025.31	13.1243
3026.6	11.4676
3027.89	10.6122
3029.18	9.1645
3030.47	8.61454
3031.76	8.62541
3033.04	8.79407
3034.33	8.62299
3035.62	8.94938
3036.91	9.26424
3038.19	9.6179
3039.48	9.30867
3040.77	9.59583
3042.05	10.0804
3043.34	10.8851
3044.63	10.9388
3045.91	11.0198
3047.2	11.6109
3048.48	11.7276
3049.77	11.8691
3051.05	11.7935
3052.34	11.9495
3053.62	11.9919
3054.91	12.5514
3056.19	12.9707
3057.48	12.8231
3058.76	12.4178
3060.04	11.9168
3061.33	10.9448
3062.61	10.3668
3063.89	9.84243
3065.17	8.97754
3066.46	7.64683
3067.74	6.87389
3069.02	6.92088
3070.3	6.02294
3071.59	5.1241
3072.87	5.0295
3074.15	4.31726
3075.43	4.03893
3076.71	3.98131
3077.99	3.91728
3079.27	3.86943
3080.55	3.25153
3081.83	1.95749
3083.11	0.921977
3084.39	0.78105
3085.67	0.98564
3086.94	0.617391
3088.22	-0.262717
3089.5	-0.519456
3090.78	-0.815322
3092.06	-0.268542
3093.34	-0.282515
3094.61	0.257724
3095.89	0.556313
3097.17	1.28001
3098.44	0.959748
3099.72	0.990408
3101	1.24717
3102.27	1.33117
3103.55	1.36451
3104.82	2.26587
3106.1	2.30095
3107.38	2.94103
3108.65	3.69556
3109.93	4.84624
3111.2	5.43937
3112.47	5.92034
3113.75	7.23102
3115.02	7.88841
3116.3	8.78258
3117.57	9.75145
3118.84	10.6072
3120.12	10.9417
3121.39	11.3488
3122.66	11.8499
3123.93	12.9425
3125.2	13.7293
3126.48	14.4739
3127.75	15.4104
3129.02	16.152
3130.29	17.4008
3131.56	18.7585
3132.83	20.1546
3134.1	20.5113
3135.37	21.5545
3136.64	22.8686
3137.91	23.1497
3139.18	23.6608
3140.45	24.1538
3141.72	24.1049
3142.99	24.137
3144.26	24.2945
3145.53	24.4901
3146.8	24.7827
3148.07	24.8233
3149.33	25.446
