#Acq. time (s)=	45
#Accumulations=	2
#Range (cm-¹)=	200...3150
#Windows=	2
#Auto scanning=	Off
#Autofocus=	Off
#Macrospot=	Off
#AutoExposure=	Off
#Spike filter=	Multiple accum.
#Delay time (s)=	0
#Binning=	1
#Readout mode=	Signal
#DeNoise=	Off
#ICS correction=	On
#Dark correction=	Off
#Inst. Process=	Off
#Detector Gain=	Best Dynamic Range
#Detector ADC=	20 kHz       
#Detector temperature (°C)=	-69.85
#Instrument=	LabRAM HR Evol
#Detector=	Synapse
#Objective=	x100
#Grating=	600 gr/mm
#ND Filter=	100%
#Laser (nm)=	532 
#Hole=	100.021
#Range=	Auto
#Laser Pol.=	No
#Raman. Pol.=	No
#Laser Pol. (°)=	-0.0007625
#Raman Pol. (°)=	89.9995
#Collection=	Microscope
#StageXY=	Marzhauser
#StageZ=	Marzhauser
#X (µm)=	-1107.4
#Y (µm)=	1296.8
#Z (µm)=	578.55
#Full time(mm:ss)=	3:18
#Project=	
#Sample=	
#Site=	
#Title=	Mbcal_20_25_38_2x_45s_532 nm_x100_100%_600 gr_mm
#Remark=	
#Date=	18.07.2022 13:05
#Acquired=	18.07.2022 13:05:44
#Base:Fit=	10.08.2022 10:55:08
#Base:Sub=	10.08.2022 10:55:14
#Filter:Polynom=	16.08.2022 10:07:28
#AxisType[0]=Intens
#AxisUnit[0]=Cnt
#AxisType[1]=Spectr
#AxisUnit[1]=1/cm
200.419	10.1811
202.234	10.0257
204.048	7.59537
205.862	7.51855
207.678	6.00722
209.491	5.00833
211.304	4.77002
213.116	4.33926
214.928	3.80205
216.742	3.64657
218.554	4.50134
220.365	5.53713
222.176	5.41048
223.986	4.0712
225.798	2.81296
227.608	3.07779
229.417	5.29519
231.226	5.28841
233.035	4.94214
234.843	6.53764
236.653	5.6568
238.46	6.17608
240.268	6.54991
242.074	7.00435
243.881	7.86276
245.687	8.35342
247.493	9.21364
249.298	9.27148
251.103	10.0784
252.908	10.2478
254.715	9.80021
256.519	10.3814
258.322	10.2308
260.126	10.2959
261.929	10.3733
263.731	10.7275
265.534	10.8566
267.336	10.098
269.137	8.77989
270.938	8.71663
272.739	6.89667
274.54	6.56694
276.34	6.99166
278.14	6.329
279.939	5.75471
281.739	4.77761
283.537	3.54655
285.336	2.40749
287.134	2.24065
288.932	1.06303
290.729	0.404897
292.526	1.16997
294.323	1.21541
296.117	0.0788082
297.913	2.47378
299.709	4.61533
301.504	5.743
303.299	6.96051
305.093	8.7907
306.888	11.487
308.682	12.6244
310.475	13.4877
312.268	14.0348
314.059	16.2126
315.852	18.4061
317.644	22.1263
319.436	23.7134
321.227	23.3863
323.018	26.9198
324.807	29.4303
326.597	30.5708
328.387	33.9401
330.177	36.2018
331.967	37.1591
333.753	38.7904
335.542	38.9524
337.331	40.1101
339.119	40.7347
340.906	41.6827
342.691	41.4419
344.478	41.297
346.265	42.4997
348.051	42.5907
349.835	41.2706
351.621	41.9124
353.406	39.9367
355.189	37.1087
356.973	35.5113
358.757	36.2191
360.541	33.9292
362.323	32.8014
364.106	32.5096
365.889	30.6543
367.669	29.2721
369.451	28.0647
371.233	26.8983
373.012	25.7756
374.793	26.1618
376.574	26.2626
378.353	25.9938
380.133	26.9124
381.91	27.4301
383.69	26.4268
385.469	27.8189
387.245	29.83
389.024	31.0335
390.8	30.1861
392.577	30.5502
394.353	30.6071
396.129	30.7986
397.906	30.5516
399.68	32.4728
401.456	32.3603
403.23	32.6975
405.005	31.2805
406.778	31.7034
408.552	30.9372
410.325	31.9831
412.099	32.9833
413.87	33.0372
415.643	33.6189
417.414	33.7495
419.187	32.1778
420.957	30.8025
422.728	30.5263
424.498	29.3613
426.269	28.3387
428.038	25.7228
429.806	24.6653
431.576	23.7903
433.344	23.9956
435.114	22.9586
436.881	21.1577
438.649	18.679
440.416	17.33
442.182	15.5092
443.949	15.8746
445.715	16.9094
447.48	17.4711
449.247	16.1444
451.011	17.197
452.777	16.9066
454.541	18.081
456.304	18.1175
458.069	18.0096
459.832	18.3568
461.594	17.8156
463.358	18.9161
465.119	19.6613
466.881	21.1686
468.642	23.3153
470.404	25.3398
472.165	27.2051
473.925	28.797
475.684	29.6937
477.445	30.0811
479.204	30.7873
480.963	32.8387
482.721	33.9465
484.481	35.2205
486.239	36.8503
487.996	37.3804
489.753	36.3957
491.511	37.1582
493.268	39.2344
495.023	40.9755
496.779	42.5219
498.534	42.6497
500.289	43.2167
502.046	45.2348
503.8	44.6597
505.554	44.9085
507.307	44.2121
509.06	45.2358
510.813	46.334
512.566	47.4209
514.32	47.0616
516.072	47.6989
517.823	48.5826
519.574	48.2505
521.325	48.3828
523.076	46.8646
524.826	45.8349
526.576	45.8649
528.325	46.3962
530.074	47.5799
531.823	47.3742
533.572	46.9027
535.32	46.1499
537.068	45.0912
538.815	43.7046
540.562	42.8911
542.309	42.9317
544.056	41.6219
545.802	41.3256
547.547	41.2979
549.293	40.4965
551.038	39.5162
552.783	38.7834
554.527	38.2232
556.271	37.7676
558.015	35.9259
559.759	33.8382
561.502	33.4703
563.245	32.2893
564.987	32.295
566.729	32.4947
568.471	31.2017
570.213	28.7888
571.954	28.5897
573.693	27.3048
575.433	25.9945
577.173	24.6417
578.913	23.3483
580.652	21.6387
582.392	19.5107
584.13	18.4237
585.867	17.0094
587.605	17.1671
589.343	16.1702
591.08	15.5785
592.817	14.4499
594.552	13.4082
596.289	13.9208
598.025	13.2487
599.761	11.8342
601.496	11.2155
603.229	11.6984
604.964	11.057
606.699	10.7152
608.433	10.074
610.165	8.7381
611.898	9.29644
613.631	10.5833
615.364	10.4138
617.095	10.4005
618.827	8.63156
620.559	8.81104
622.288	7.97493
624.02	7.58346
625.75	7.93802
627.479	7.75784
629.209	7.94486
630.939	7.969
632.667	7.65123
634.396	7.31516
636.125	6.87592
637.851	5.6127
639.58	6.83994
641.305	7.80431
643.033	8.29716
644.76	7.93142
646.485	10.3882
648.212	11.8998
649.936	11.3982
651.662	11.6835
653.388	10.6102
655.111	10.161
656.836	10.2247
658.558	10.4878
660.283	11.0785
662.005	10.8606
663.728	9.777
665.45	9.39128
667.173	8.62887
668.893	10.4799
670.616	9.98686
672.336	9.8299
674.057	10.3083
675.777	9.67613
677.498	10.6004
679.216	11.443
680.937	13.0134
682.655	13.7614
684.375	14.7805
686.092	16.1908
687.809	17.227
689.528	17.5293
691.244	17.7519
692.962	18.3346
694.678	19.9565
696.393	20.9182
698.111	21.9709
699.825	23.1545
701.54	22.5873
703.256	22.4633
704.97	22.2796
706.685	23.4187
708.398	23.1758
710.111	23.9179
711.826	22.6503
713.538	22.0793
715.25	23.6867
716.961	24.5207
718.675	24.2272
720.386	24.3542
722.096	24.6213
723.808	23.4622
725.518	25.0293
727.228	25.732
728.937	25.6866
730.648	26.566
732.357	27.1839
734.065	27.0838
735.773	27.0547
737.483	27.5459
739.19	28.3575
740.897	28.8253
742.604	28.1179
744.31	28.071
746.018	30.0254
747.724	30.3787
749.429	30.698
751.134	31.3826
752.839	31.8063
754.544	34.0589
756.248	34.594
757.953	36.5361
759.657	38.0869
761.36	38.9721
763.063	41.0157
764.765	43.2231
766.468	43.392
768.169	44.9702
769.871	47.6144
771.572	49.2891
773.273	51.0323
774.976	51.5104
776.676	53.136
778.376	54.2845
780.075	56.081
781.775	55.8713
783.474	57.1545
785.172	59.0763
786.871	58.6368
788.569	59.6685
790.266	59.9728
791.964	60.2154
793.661	60.3482
795.358	60.2463
797.054	59.9319
798.75	63.0405
800.446	65.4149
802.141	66.0748
803.834	65.2828
805.529	65.3025
807.224	65.0481
808.918	64.1317
810.612	65.2707
812.305	64.3718
813.998	64.856
815.691	65.6497
817.384	65.9139
819.076	66.5031
820.766	66.4463
822.458	66.4857
824.149	66.2951
825.84	66.087
827.531	65.5074
829.221	68.3704
830.909	70.8179
832.599	71.5896
834.288	71.7955
835.977	73.1881
837.666	73.7027
839.353	75.3362
841.041	76.3134
842.729	77.334
844.416	77.5737
846.103	78.349
847.788	79.2928
849.475	79.2849
851.161	78.0971
852.845	78.7481
854.53	79.7465
856.216	78.8365
857.901	77.7227
859.583	74.9766
861.268	75.9731
862.952	73.7722
864.633	72.962
866.317	71.3474
868	70.1831
869.681	68.2046
871.363	65.4595
873.045	64.1803
874.725	62.4375
876.406	60.1306
878.088	58.6592
879.767	56.6486
881.447	54.8661
883.125	52.2462
884.805	49.415
886.483	45.7616
888.162	43.1812
889.841	41.0447
891.518	37.7809
893.196	35.911
894.872	35.7035
896.55	33.1462
898.225	32.5156
899.902	30.7742
901.577	29.8426
903.254	30.0303
904.928	30.4031
906.604	29.3804
908.277	29.3456
909.952	29.1445
911.625	28.487
913.3	29.9854
914.972	29.9027
916.646	29.1247
918.318	29.4354
919.991	29.8185
921.662	29.2622
923.333	29.9266
925.005	29.4623
926.675	29.2515
928.347	28.008
930.017	28.1889
931.686	27.7057
933.357	26.988
935.025	27.9658
936.693	28.7141
938.363	28.107
940.031	25.5645
941.698	24.5516
943.367	23.2831
945.034	22.0012
946.7	19.6371
948.368	18.8013
950.034	17.8465
951.699	17.2477
953.367	17.4023
955.031	16.9116
956.696	15.7537
958.36	14.6567
960.026	12.5523
961.689	12.0851
963.353	11.9626
965.016	11.4436
966.68	12.244
968.343	13.9668
970.005	13.9727
971.666	13.9659
973.328	12.8818
974.991	13.4713
976.652	14.7728
978.312	14.2602
979.972	13.2457
981.632	13.4832
983.292	13.8609
984.953	15.3572
986.612	16.1275
988.27	15.1057
989.929	13.4994
991.587	13.513
993.244	12.1358
994.902	12.8493
996.559	11.9577
998.216	12.7094
999.872	12.8214
1001.53	13.5655
1003.19	13.43
1004.84	12.7772
1006.5	13.1862
1008.15	13.5585
1009.81	14.0242
1011.46	16.0134
1013.11	16.81
1014.77	17.6016
1016.42	19.1514
1018.07	19.6486
1019.73	19.6463
1021.38	19.1668
1023.03	20.4914
1024.68	21.3447
1026.34	22.2549
1027.99	21.7689
1029.64	23.2122
1031.29	24.0653
1032.94	24.8177
1034.59	24.8831
1036.24	24.7017
1037.89	24.4019
1039.53	24.4075
1041.18	24.773
1042.83	23.5326
1044.48	25.3413
1046.13	26.0345
1047.77	24.4058
1049.42	25.4745
1051.07	23.3213
1052.71	21.1254
1054.36	19.5619
1056	19.0176
1057.65	18.5236
1059.3	17.2217
1060.94	16.0325
1062.59	15.7655
1064.23	14.6312
1065.87	14.3624
1067.52	13.5978
1069.16	12.3505
1070.8	10.9016
1072.44	9.06166
1074.09	7.60455
1075.73	6.82502
1077.37	6.94603
1079.01	5.06056
1080.65	6.64551
1082.29	6.48401
1083.93	5.54327
1085.57	6.00319
1087.21	7.11675
1088.85	7.39603
1090.49	8.72391
1092.13	10.388
1093.77	12.2053
1095.41	12.4918
1097.04	14.891
1098.68	15.2816
1100.32	16.0422
1101.95	16.7236
1103.59	18.0065
1105.23	20.1059
1106.86	20.9207
1108.5	21.9455
1110.13	21.7745
1111.77	23.215
1113.4	23.6718
1115.04	24.3558
1116.67	24.0758
1118.31	24.0997
1119.94	24.2404
1121.57	23.9413
1123.2	24.1335
1124.84	24.774
1126.47	25.6046
1128.1	24.5801
1129.73	24.0865
1131.36	25.5199
1132.99	25.1184
1134.62	26.5159
1136.25	27.3298
1137.88	28.7267
1139.51	27.9893
1141.14	27.5446
1142.77	26.2434
1144.4	25.7347
1146.03	24.1935
1147.66	23.643
1149.28	22.3654
1150.91	21.4836
1152.54	19.9966
1154.16	18.735
1155.79	18.2886
1157.42	18.4634
1159.04	17.2319
1160.67	16.2338
1162.29	16.3844
1163.92	15.2327
1165.54	14.8185
1167.17	14.6446
1168.79	14.9011
1170.41	14.2913
1172.04	15.447
1173.66	16.0138
1175.28	15.2432
1176.9	15.2508
1178.53	15.0174
1180.15	14.4479
1181.77	15.7225
1183.39	16.8738
1185.01	18.631
1186.63	19.0212
1188.25	20.2039
1189.87	19.5762
1191.49	20.2598
1193.11	20.5599
1194.73	21.2438
1196.35	21.7448
1197.96	21.8226
1199.58	23.9958
1201.2	26.1083
1202.82	28.0883
1204.43	29.7326
1206.05	31.4247
1207.66	32.4909
1209.28	34.5756
1210.9	36.3009
1212.51	40.0823
1214.13	43.3149
1215.74	44.3232
1217.36	45.6059
1218.97	47.6165
1220.58	48.114
1222.2	50.4514
1223.81	52.1341
1225.42	54.1533
1227.04	56.7497
1228.65	58.7383
1230.26	59.5845
1231.87	61.4483
1233.48	64.0716
1235.1	65.7757
1236.71	67.9152
1238.32	69.6011
1239.93	71.4214
1241.53	73.4048
1243.14	74.665
1244.75	76.2944
1246.36	77.6005
1247.97	79.2434
1249.58	81.4397
1251.19	82.4612
1252.8	84.0954
1254.4	85.3611
1256.01	86.2505
1257.62	87.6978
1259.22	88.9407
1260.83	90.8031
1262.43	92.1444
1264.04	93.5831
1265.64	95.1394
1267.25	96.8558
1268.85	97.3066
1270.46	98.1103
1272.06	100.546
1273.66	101.752
1275.27	103.658
1276.87	105.399
1278.48	106.997
1280.08	109.018
1281.68	110.688
1283.28	112.462
1284.88	114.344
1286.48	115.827
1288.08	117.191
1289.68	119.556
1291.28	122.273
1292.88	124.331
1294.48	126.333
1296.08	126.526
1297.68	129.429
1299.28	130.574
1300.88	132.079
1302.48	134.811
1304.07	136.814
1305.67	138.309
1307.27	141.719
1308.87	144.25
1310.46	146.327
1312.06	150.657
1313.65	154.635
1315.25	157.236
1316.85	160.986
1318.44	164.62
1320.03	167.689
1321.63	170.972
1323.22	174.721
1324.82	179.363
1326.41	181.46
1328	184.827
1329.6	187.886
1331.19	191.184
1332.78	193.979
1334.37	196.165
1335.96	198.285
1337.56	200.47
1339.15	201.99
1340.74	203.952
1342.33	204.827
1343.92	205.043
1345.51	205.045
1347.1	203.98
1348.69	201.615
1350.28	200.619
1351.86	198.537
1353.45	195.959
1355.04	193.34
1356.63	190.496
1358.21	186.38
1359.8	183.807
1361.39	179.235
1362.97	174.342
1364.56	169.865
1366.15	164.827
1367.73	160.354
1369.32	154.389
1370.9	147.882
1372.49	142.218
1374.07	138.195
1375.65	131.013
1377.24	125.307
1378.82	119.827
1380.41	115.526
1381.99	110.385
1383.57	106.625
1385.15	104.19
1386.73	102.053
1388.32	99.9322
1389.9	97.3836
1391.48	95.8206
1393.06	94.0789
1394.64	93.1022
1396.22	91.3041
1397.8	90.922
1399.38	89.8598
1400.96	90.6999
1402.54	91.4776
1404.11	91.1108
1405.69	91.2618
1407.27	93.972
1408.85	96.8095
1410.43	99.1337
1412	101.513
1413.58	105.654
1415.16	109.389
1416.73	113.774
1418.31	117.719
1419.88	123.194
1421.46	127.433
1423.03	131.549
1424.61	137.037
1426.18	142.357
1427.76	148.999
1429.33	154.629
1430.9	161.039
1432.48	166.394
1434.05	171.694
1435.62	178.372
1437.2	182.251
1438.77	187.847
1440.34	191.514
1441.91	196.959
1443.48	201.348
1445.05	204.726
1446.62	206.148
1448.19	207.032
1449.76	208.294
1451.33	209.868
1452.9	210
1454.47	210.363
1456.04	211.841
1457.61	212.884
1459.17	213.381
1460.74	213.837
1462.31	216.62
1463.88	216.358
1465.44	216.673
1467.01	217.739
1468.58	217.535
1470.14	216.856
1471.71	216.2
1473.27	215.094
1474.84	212.845
1476.4	210.931
1477.97	208.09
1479.53	205.414
1481.1	201.28
1482.66	197.497
1484.22	194.866
1485.78	191.689
1487.35	188.281
1488.91	183.318
1490.47	179.351
1492.03	176.088
1493.59	170.491
1495.16	165.551
1496.72	161.086
1498.28	156.301
1499.84	151.751
1501.4	147.228
1502.96	142.079
1504.52	137.529
1506.08	132.934
1507.64	126.213
1509.19	121.534
1510.75	116.27
1512.31	111.663
1513.87	106.748
1515.42	100.436
1516.98	97.2878
1518.54	92.7266
1520.1	88.2737
1521.65	83.2099
1523.21	78.7832
1524.76	74.2841
1526.32	71.3516
1527.87	68.1669
1529.43	67.3163
1530.98	65.7376
1532.54	64.0472
1534.09	63.7878
1535.64	63.1543
1537.2	63.397
1538.75	63.6665
1540.3	66.6975
1541.85	68.9664
1543.41	74.1407
1544.96	78.2517
1546.51	83.2484
1548.06	89.3992
1549.61	96.3839
1551.16	103.98
1552.71	111.155
1554.26	118.17
1555.81	126.715
1557.36	134.922
1558.91	141.367
1560.46	148.511
1562.01	155.502
1563.56	161.667
1565.1	162.562
1566.65	167.684
1568.2	174.922
1569.75	181.429
1571.29	185.975
1572.84	192.634
1574.38	199.091
1575.93	204.133
1577.48	208.611
1579.02	210.895
1580.57	212.273
1582.11	214.465
1583.65	215.627
1585.2	217.147
1586.74	217.24
1588.29	216.518
1589.83	216.009
1591.37	213.883
1592.92	211.917
1594.46	209.548
1596	205.608
1597.54	202.169
1599.08	197.12
1600.62	191.77
1602.16	186.115
1603.7	179.687
1605.24	172.05
1606.78	165.612
1608.32	157.221
1609.86	149.978
1611.4	144.526
1612.94	137.707
1614.48	132.173
1616.02	128.015
1617.56	125.628
1619.09	124.475
1620.63	123.5
1622.17	121.721
1623.71	121.279
1625.24	122.062
1626.78	121.88
1628.31	121.196
1629.85	120.98
1631.39	120.903
1632.92	121.757
1634.46	121.283
1635.99	119.161
1637.52	119.555
1639.06	120.794
1640.59	121.141
1642.12	121.191
1643.66	128.102
1645.19	131.05
1646.72	133.08
1648.25	134.172
1649.79	135.68
1651.32	136.885
1652.85	136.917
1654.38	136.749
1655.91	135.809
1657.44	135.97
1658.97	136.108
1660.5	136.267
1662.03	135.489
1663.56	133.113
1665.09	131.261
1666.62	130.198
1668.15	127.427
1669.67	125.653
1671.2	122.696
1672.73	118.838
1674.26	115.757
1675.79	109.908
1677.31	105.984
1678.84	100.586
1680.36	95.0864
1681.89	89.2647
1683.42	84.0257
1684.94	78.5002
1686.47	73.9293
1687.99	69.6484
1689.51	64.6599
1691.04	59.1697
1692.56	55.1602
1694.08	51.1265
1695.61	48.7986
1697.13	43.8167
1698.65	40.0345
1700.18	37.4103
1701.7	34.41
1703.22	31.2915
1704.74	28.595
1706.26	26.3493
1707.78	24.0099
1709.3	21.566
1710.82	19.1058
1712.35	16.769
1713.86	16.3486
1715.39	15.1915
1716.9	13.5468
1718.42	12.0815
1719.94	11.9221
1721.46	10.2584
1722.98	9.33627
1724.5	8.19588
1726.01	6.97924
1727.53	7.01765
1729.05	5.11205
1730.56	4.82019
1732.08	4.54941
1733.6	5.30898
1735.11	4.92612
1736.63	4.36747
1738.14	2.84084
1739.66	2.71132
1741.17	2.46829
1742.69	2.50089
1744.2	1.72702
1745.71	1.43978
1747.23	0.723068
1748.74	0.541232
1750.25	0.603296
1751.77	0.0715112
1753.28	0.0901894
1754.79	-0.318413
1756.3	0.157892
1757.81	0.153788
1759.33	0.0305561
1760.84	0.360128
1762.35	0.599754
1763.86	0.729285
1765.37	0.182935
1766.88	-0.41593
1768.39	0.373052
1769.9	0.720196
1771.41	1.16224
1772.91	0.704109
1774.42	1.56972
1775.93	2.00773
1777.44	2.41385
1778.95	2.93416
1780.45	3.42197
1781.96	3.39773
1783.47	3.6978
1784.97	4.24709
1786.48	5.16063
1787.99	4.7253
1789.49	5.40694
1791	5.37708
1792.5	5.98103
1794.01	6.2861
1795.51	6.73012
1797.01	5.60826
1798.52	5.66819
1800.02	5.33127
1801.52	4.53339
1803.03	4.49334
1804.53	4.68885
1806.03	5.43159
1807.54	5.75323
1809.04	5.42048
1810.54	4.88182
1812.04	3.98944
1813.54	4.14001
1815.04	4.97014
1816.54	4.17467
1818.04	4.30202
1819.54	4.35431
1821.04	4.05921
1822.54	4.28082
1824.04	4.34309
1825.54	3.92017
1827.04	3.56556
1828.54	3.05368
1830.03	2.61281
1831.53	2.202
1833.03	1.79951
1834.53	1.74058
1836.02	1.97812
1837.52	1.8617
1839.02	1.80989
1840.51	2.22469
1842.01	2.38756
1843.5	2.51359
1845	2.69588
1846.49	2.90546
1847.99	2.77998
1849.48	3.35616
1850.98	3.18673
1852.47	3.02987
1853.96	3.32194
1855.46	4.10555
1856.95	3.45535
1858.44	3.17922
1859.94	3.90696
1861.43	4.49084
1862.92	4.53225
1864.41	4.75766
1865.9	4.30031
1867.39	5.05484
1868.88	4.99447
1870.37	4.58274
1871.86	4.00918
1873.35	4.89991
1874.84	4.93843
1876.33	5.10561
1877.82	6.23408
1879.31	6.69019
1880.8	6.47591
1882.29	6.69302
1882.58	5.91269
1884.08	6.10805
1885.57	6.82138
1887.06	6.51814
1888.56	6.30102
1890.05	5.71666
1891.54	5.65253
1893.04	5.23518
1894.53	5.12412
1896.02	5.98835
1897.51	5.66154
1899	5.63321
1900.5	6.01222
1901.99	5.56063
1903.48	5.30622
1904.97	6.66723
1906.46	6.84956
1907.95	6.99048
1909.44	7.50877
1910.93	7.72287
1912.42	7.37419
1913.91	6.99852
1915.4	6.44307
1916.88	6.48479
1918.37	6.21895
1919.86	5.68322
1921.35	5.08664
1922.84	5.80283
1924.32	4.59121
1925.81	5.0781
1927.3	4.84222
1928.78	4.52177
1930.27	3.52232
1931.75	3.5159
1933.24	4.71739
1934.72	4.65272
1936.21	3.7326
1937.69	3.84925
1939.18	4.06076
1940.66	4.17234
1942.15	3.22996
1943.63	3.17555
1945.11	2.56643
1946.6	2.42792
1948.08	1.98131
1949.56	2.00989
1951.04	1.88866
1952.53	0.921492
1954.01	0.622883
1955.49	0.487022
1956.97	1.21911
1958.45	2.26126
1959.93	2.1455
1961.41	1.36678
1962.89	2.41543
1964.37	2.07499
1965.85	2.33072
1967.33	2.56061
1968.81	2.16518
1970.29	2.96863
1971.77	3.20665
1973.24	3.34318
1974.72	4.12127
1976.2	3.60834
1977.68	4.06378
1979.15	4.86623
1980.63	4.8122
1982.11	4.71012
1983.58	4.84194
1985.06	3.95825
1986.53	3.45223
1988.01	3.87455
1989.48	4.58448
1990.96	4.07191
1992.43	2.82244
1993.91	2.70803
1995.38	2.58288
1996.86	2.95286
1998.33	3.21135
1999.8	3.61189
2001.27	3.1974
2002.75	3.57199
2004.22	3.58797
2005.69	3.50263
2007.16	4.13745
2008.64	3.63134
2010.11	3.31688
2011.58	2.767
2013.05	2.31763
2014.52	2.13985
2015.99	1.66043
2017.46	1.7529
2018.93	1.42311
2020.4	2.0986
2021.87	2.15324
2023.34	3.00266
2024.8	3.78038
2026.27	4.39259
2027.74	4.82684
2029.21	4.94894
2030.68	5.81788
2032.14	5.52063
2033.61	4.84129
2035.08	4.93657
2036.54	5.96126
2038.01	5.96522
2039.48	6.77739
2040.94	7.21002
2042.41	7.87103
2043.87	9.22357
2045.34	9.3524
2046.8	9.57472
2048.27	9.60896
2049.73	9.10256
2051.19	9.85809
2052.66	10.8612
2054.12	10.8327
2055.58	10.7742
2057.05	11.1555
2058.51	11.5587
2059.97	12.3465
2061.43	12.6156
2062.9	13.136
2064.36	12.4824
2065.82	13.2442
2067.28	13.9337
2068.74	14.1142
2070.2	14.4548
2071.66	13.7346
2073.12	14.5728
2074.58	14.9419
2076.04	16.3974
2077.5	16.7616
2078.95	16.7009
2080.41	17.6934
2081.87	17.4545
2083.33	17.7522
2084.79	17.3098
2086.24	17.6018
2087.7	18.0698
2089.16	19.172
2090.61	20.0098
2092.07	20.3215
2093.53	20.94
2094.98	20.921
2096.44	21.5772
2097.89	21.9383
2099.35	21.8057
2100.8	21.3691
2102.26	22.4575
2103.71	24.2146
2105.16	24.8843
2106.62	26.1504
2108.07	27.9299
2109.53	29.3844
2110.98	29.9723
2112.43	30.9824
2113.88	32.4447
2115.33	33.3339
2116.79	34.472
2118.24	35.6305
2119.69	36.5699
2121.14	37.0309
2122.59	38.1621
2124.04	39.434
2125.49	40.4709
2126.94	40.5275
2128.39	42.4541
2129.84	44.2231
2131.29	45.7928
2132.74	46.7132
2134.19	47.9672
2135.63	49.7568
2137.08	50.4966
2138.53	52.6715
2139.98	53.9465
2141.43	56.121
2142.87	58.2
2144.32	60.4291
2145.77	64.2022
2147.21	65.2996
2148.66	67.7827
2150.1	68.6253
2151.55	69.5771
2152.99	72.0306
2154.44	73.1297
2155.88	74.6711
2157.33	75.7659
2158.77	77.6771
2160.21	80.2063
2161.66	82.73
2163.1	83.3557
2164.55	84.8964
2165.99	86.467
2167.43	87.6968
2168.87	90.2548
2170.31	92.7501
2171.76	93.4021
2173.2	95.0353
2174.64	96.5766
2176.08	96.9745
2177.52	97.9015
2178.96	97.9076
2180.4	98.0153
2181.84	97.292
2183.28	97.5115
2184.72	96.3546
2186.16	94.8752
2187.6	92.6104
2189.04	90.9234
2190.47	89.1406
2191.91	86.8318
2193.35	85.4209
2194.79	83.0019
2196.23	81.8202
2197.66	79.3389
2199.1	77.0121
2200.54	75.3073
2201.97	72.0389
2203.41	69.2197
2204.84	66.7201
2206.28	64.2089
2207.71	61.9696
2209.15	60.3667
2210.58	58.235
2212.02	55.4954
2213.45	53.6664
2214.89	50.9549
2216.32	48.2093
2217.75	45.5579
2219.19	42.9075
2220.62	40.6093
2222.05	37.7091
2223.48	36.1215
2224.92	34.1397
2226.35	32.5447
2227.78	30.8866
2229.21	29.6255
2230.64	28.4097
2232.07	28.0076
2233.5	27.3352
2234.93	25.7199
2236.36	25.9082
2237.79	25.3797
2239.22	25.6223
2240.65	25.5339
2242.08	24.8657
2243.51	24.2857
2244.94	25.0165
2246.37	24.3118
2247.79	24.5965
2249.22	24.6613
2250.65	23.2226
2252.08	22.8789
2253.5	22.6605
2254.93	22.3975
2256.36	21.578
2257.78	21.179
2259.21	21.0103
2260.63	21.8968
2262.06	22.3113
2263.48	22.498
2264.91	22.5326
2266.33	21.901
2267.76	21.801
2269.18	20.7922
2270.6	20.1492
2272.03	20.0747
2273.45	20.0748
2274.87	20.5483
2276.3	19.2555
2277.72	19.0333
2279.14	17.773
2280.56	17.8376
2281.98	16.0565
2283.41	15.2414
2284.83	14.5213
2286.25	13.8001
2287.67	12.393
2289.09	11.5775
2290.51	11.0959
2291.93	9.27048
2293.35	8.49981
2294.77	8.33465
2296.19	7.17338
2297.61	7.12475
2299.02	6.84356
2300.44	7.00095
2301.86	6.48178
2303.28	6.76962
2304.7	6.70696
2306.11	7.03255
2307.53	7.28352
2308.95	7.31112
2310.36	7.15535
2311.78	7.17251
2313.2	7.78608
2314.61	8.81019
2316.03	8.6441
2317.44	7.82294
2318.86	8.20324
2320.27	8.16086
2321.69	8.72189
2323.1	9.42808
2324.51	9.84
2325.93	9.22172
2327.34	9.16528
2328.76	9.04595
2330.17	9.53837
2331.58	9.73226
2332.99	9.85846
2334.41	9.93351
2335.82	9.2749
2337.23	8.81649
2338.64	7.99957
2340.05	7.95507
2341.46	8.11598
2342.87	8.63878
2344.28	7.16726
2345.69	6.38117
2347.1	6.16494
2348.51	6.24879
2349.92	4.8689
2351.33	4.81254
2352.74	3.02747
2354.15	2.81498
2355.56	2.49599
2356.97	1.78747
2358.37	0.289801
2359.78	0.460294
2361.19	-0.0710823
2362.6	-0.562556
2364	-0.192045
2365.41	-0.18597
2366.82	-0.633501
2368.22	-0.911013
2369.63	-0.665336
2371.03	-1.26865
2372.44	-1.71263
2373.84	-1.49662
2375.25	-1.78447
2376.65	-0.934798
2378.06	-0.810708
2379.46	-0.278437
2380.86	0.0110286
2382.27	1.04167
2383.67	1.44512
2385.07	1.42117
2386.48	0.188263
2387.88	0.892915
2389.28	1.86854
2390.69	2.23767
2392.09	2.56323
2393.49	3.01795
2394.89	2.87327
2396.29	3.28825
2397.69	3.53531
2399.09	3.59691
2400.49	3.52082
2401.89	4.11177
2403.29	5.12314
2404.69	5.25863
2406.09	5.20006
2407.49	5.86955
2408.89	6.05386
2410.29	7.31712
2411.69	7.95891
2413.08	7.73156
2414.48	7.95102
2415.88	8.90225
2417.28	9.93506
2418.67	8.90618
2420.07	8.16454
2421.47	8.65726
2422.86	9.50943
2424.26	9.55303
2425.65	9.34579
2427.05	8.96033
2428.45	8.54008
2429.84	8.39633
2431.23	7.59137
2432.63	8.32523
2434.02	8.23185
2435.42	8.08745
2436.81	7.80463
2438.2	7.34792
2439.6	7.23523
2440.99	7.11164
2442.38	6.81053
2443.78	6.75559
2445.17	6.97797
2446.56	7.50679
2447.95	6.87305
2449.34	7.2203
2450.73	6.13007
2452.13	5.54401
2453.52	4.43141
2454.91	4.37034
2456.3	4.3685
2457.69	4.69484
2459.08	3.62237
2460.47	3.14753
2461.85	3.39079
2463.24	2.96318
2464.63	2.34227
2466.02	2.42927
2467.41	1.78666
2468.8	2.14587
2470.19	2.09462
2471.57	2.75327
2472.96	2.82346
2474.35	2.49362
2475.73	2.51493
2477.12	3.13249
2478.51	3.61124
2479.89	4.49915
2481.28	4.50613
2482.66	4.64659
2484.05	4.363
2485.43	3.87437
2486.82	3.96301
2488.2	3.61676
2489.59	3.82699
2490.97	4.42006
2492.35	2.98889
2493.74	2.53628
2495.12	3.09088
2496.5	2.68265
2497.89	3.11908
2499.27	3.4109
2500.65	3.63637
2502.03	3.26941
2503.42	2.53259
2504.8	1.71725
2506.18	1.15507
2507.56	1.17413
2508.94	2.00869
2510.32	2.31499
2511.7	1.76329
2513.08	2.22838
2514.46	1.92512
2515.84	1.97969
2517.22	2.1685
2518.6	2.37185
2519.98	2.09317
2521.36	2.83817
2522.73	3.02729
2524.11	3.60786
2525.49	3.71314
2526.87	3.8576
2528.25	5.45001
2529.62	6.50898
2531	6.77758
2532.38	6.51017
2533.75	6.91314
2535.13	7.36168
2536.5	7.97856
2537.88	8.91731
2539.25	8.69965
2540.63	9.53902
2542.01	10.4713
2543.38	10.1536
2544.75	10.875
2546.13	11.4049
2547.5	11.1744
2548.88	11.2943
2550.25	11.321
2551.62	11.1038
2553	10.4157
2554.37	11.124
2555.74	11.0794
2557.11	10.7539
2558.49	10.2905
2559.86	9.60691
2561.23	8.70864
2562.6	9.28563
2563.97	8.50097
2565.34	7.59735
2566.71	7.94704
2568.08	7.06989
2569.45	6.24754
2570.82	5.84483
2572.19	5.94068
2573.56	5.43744
2574.93	5.62593
2576.3	5.23141
2577.67	4.46484
2579.03	3.80426
2580.4	3.83071
2581.77	4.74428
2583.14	4.72463
2584.5	4.86317
2585.87	5.27893
2587.24	4.96641
2588.6	5.27955
2589.97	5.02645
2591.34	5.35354
2592.7	6.04809
2594.07	6.28542
2595.43	7.56723
2596.8	7.94029
2598.16	7.48549
2599.53	7.94438
2600.89	8.25714
2602.26	9.87354
2603.62	11.2238
2604.98	11.8149
2606.35	11.9794
2607.71	11.5752
2609.07	11.968
2610.44	12.2228
2611.8	12.0212
2613.16	13.118
2614.52	12.6144
2615.88	12.2253
2617.25	13.0061
2618.61	12.5114
2619.97	12.1121
2621.33	12.6247
2622.69	13.444
2624.05	13.7619
2625.41	14.0072
2626.77	14.5273
2628.13	14.9859
2629.49	15.406
2630.85	17.0491
2632.21	17.5535
2633.56	18.2302
2634.92	19.2346
2636.28	19.8915
2637.64	19.8959
2639	20.9194
2640.35	21.7199
2641.71	22.8828
2643.07	23.3907
2644.42	24.097
2645.78	25.4418
2647.14	26.7375
2648.49	27.6017
2649.85	27.8394
2651.2	28.1338
2652.56	27.8047
2653.91	29.0794
2655.27	30.6704
2656.62	32.4261
2657.98	34.0627
2659.33	35.4592
2660.68	37.426
2662.04	39.2595
2663.39	41.1832
2664.74	41.5406
2666.1	43.5908
2667.45	45.5432
2668.8	47.1883
2670.15	49.2889
2671.5	50.3651
2672.86	51.1047
2674.21	52.5848
2675.56	54.1154
2676.91	55.8826
2678.26	57.6177
2679.61	58.5721
2680.96	60.5243
2682.31	60.8953
2683.66	62.0528
2685.01	63.4121
2686.36	64.4172
2687.71	65.6593
2689.06	67.4933
2690.4	68.2492
2691.75	68.7152
2693.1	68.7881
2694.45	69.4732
2695.8	70.2873
2697.14	70.9702
2698.49	72.369
2699.84	72.7881
2701.18	73.8371
2702.53	74.5446
2703.88	75.3458
2705.22	75.8269
2706.57	76.4908
2707.91	76.1591
2709.26	75.8542
2710.6	74.6511
2711.95	73.6619
2713.29	72.8572
2714.64	71.8996
2715.98	70.8041
2717.32	69.7133
2718.67	68.6856
2720.01	67.3629
2721.35	67.4113
2722.7	65.8083
2724.04	63.7135
2725.38	62.1248
2726.72	59.9437
2728.06	58.9371
2729.4	56.9822
2730.75	54.8761
2732.09	53.2346
2733.43	52.631
2734.77	51.0908
2736.11	49.4082
2737.45	47.4706
2738.79	45.8991
2740.13	43.4454
2741.47	41.7941
2742.81	39.5913
2744.15	38.0541
2745.48	35.4224
2746.82	33.1891
2748.16	32.102
2749.5	29.2186
2750.84	27.3721
2752.17	25.1463
2753.51	23.4927
2754.85	20.8668
2756.19	19.6853
2757.52	17.6773
2758.86	15.5441
2760.19	13.7515
2761.53	13.4209
2762.86	11.9576
2764.2	11.504
2765.54	10.2674
2766.87	8.96805
2768.2	8.11484
2769.54	6.86903
2770.87	7.03849
2772.21	6.39449
2773.54	5.1269
2774.88	4.13753
2776.21	4.39848
2777.54	3.6364
2778.87	3.30441
2780.21	3.474
2781.54	3.29818
2782.87	2.66799
2784.2	2.02403
2785.53	2.01
2786.87	1.60735
2788.2	1.57163
2789.53	0.649877
2790.86	0.820777
2792.19	0.88497
2793.52	1.57044
2794.85	1.19397
2796.18	1.07096
2797.51	1.23926
2798.84	1.38931
2800.17	2.48346
2801.49	2.01768
2802.82	2.0861
2804.15	1.22186
2805.48	0.948864
2806.81	0.0898368
2808.13	-0.129836
2809.46	-0.469414
2810.79	-0.123056
2812.12	-0.192485
2813.44	0.163052
2814.77	0.228521
2816.09	0.752501
2817.42	1.23641
2818.75	2.03951
2820.07	3.90638
2821.4	6.29244
2822.72	8.96882
2824.05	10.6731
2825.37	13.0354
2826.7	16.267
2828.02	20.3786
2829.35	23.207
2830.67	27.9603
2831.99	31.566
2833.31	37.1639
2834.64	41.9752
2835.96	46.2661
2837.28	51.1109
2838.61	55.4225
2839.93	60.3747
2841.25	66.0453
2842.57	71.911
2843.89	77.8189
2845.21	84.4957
2846.53	90.8769
2847.85	98.8421
2849.17	106.148
2850.49	114.344
2851.81	122.666
2853.13	131.316
2854.45	139.832
2855.77	147.814
2857.09	156.78
2858.41	165.649
2859.73	173.803
2861.05	180.838
2862.36	188.707
2863.68	196.625
2865	203.605
2866.32	210.257
2867.64	215.769
2868.95	221.242
2870.27	226.356
2871.59	231.409
2872.9	236.17
2874.22	241.493
2875.53	246.306
2876.85	251.458
2878.16	256.683
2879.48	260.989
2880.79	266.037
2882.11	271.013
2883.42	275.403
2884.74	279.652
2886.05	285.062
2887.36	290.148
2888.68	293.652
2889.99	298.521
2891.3	303.424
2892.62	309.063
2893.93	314.94
2895.24	318.944
2896.55	323.718
2897.86	327.843
2899.18	333.979
2900.49	338.271
2901.8	344.475
2903.11	351.308
2904.42	359.369
2905.73	367.474
2907.04	376.178
2908.35	385.693
2909.66	396.528
2910.97	407.212
2912.28	418.392
2913.59	430.359
2914.9	441.021
2916.21	452.661
2917.51	462.758
2918.82	473.234
2920.13	482.325
2921.44	491.226
2922.74	499.794
2924.05	506.532
2925.36	512.44
2926.67	517.548
2927.97	521.167
2929.28	524.13
2930.59	525.504
2931.89	526.401
2933.2	525.742
2934.5	524.56
2935.81	521.855
2937.11	517.922
2938.42	514.154
2939.72	509.002
2941.02	502.826
2942.33	495.773
2943.63	487.938
2944.94	478.385
2946.24	468.969
2947.54	459.195
2948.85	449.054
2950.15	438.188
2951.45	428.127
2952.75	416.887
2954.05	406.171
2955.36	395.679
2956.66	384.222
2957.96	373.246
2959.26	361.099
2960.56	349.366
2961.86	338.861
2963.16	328.496
2964.46	319.072
2965.76	309.415
2967.06	301.507
2968.36	292.492
2969.66	284.158
2970.96	276.451
2972.26	269.155
2973.56	262.645
2974.85	255.93
2976.15	248.826
2977.45	241.755
2978.75	235.198
2980.05	228.392
2981.34	221.245
2982.64	213.994
2983.94	207.503
2985.23	200.085
2986.53	192.951
2987.83	185.792
2989.12	177.086
2990.42	169.147
2991.71	160.917
2993.01	152.585
2994.3	144.681
2995.6	136.467
2996.89	128.066
2998.19	119.354
2999.48	111.889
3000.77	103.158
3002.07	95.7414
3003.36	88.2488
3004.65	80.3922
3005.95	73.562
3007.24	66.0464
3008.53	59.2376
3009.82	52.9844
3011.12	47.4372
3012.41	41.9295
3013.7	36.7286
3014.99	32.3657
3016.28	28.8076
3017.57	25.4069
3018.86	21.4799
3020.15	17.9038
3021.44	14.4652
3022.73	12.4894
3024.02	10.311
3025.31	8.6546
3026.6	7.1249
3027.89	5.49416
3029.18	4.87817
3030.47	4.34329
3031.76	3.52528
3033.04	2.78863
3034.33	3.18459
3035.62	3.72446
3036.91	3.8262
3038.19	4.89827
3039.48	5.77474
3040.77	7.31966
3042.05	9.09628
3043.34	10.8563
3044.63	11.0102
3045.91	12.7014
3047.2	14.5002
3048.48	15.6634
3049.77	16.7385
3051.05	17.7315
3052.34	17.5455
3053.62	16.6265
3054.91	16.8878
3056.19	17.0967
3057.48	17.9015
3058.76	17.3917
3060.04	17.6462
3061.33	18.2614
3062.61	18.386
3063.89	18.6082
3065.17	17.9242
3066.46	18.073
3067.74	17.5163
3069.02	16.7979
3070.3	15.8341
3071.59	14.4705
3072.87	13.6635
3074.15	12.7785
3075.43	12.442
3076.71	11.2844
3077.99	10.101
3079.27	9.49444
3080.55	8.34837
3081.83	6.66571
3083.11	5.86391
3084.39	5.53287
3085.67	4.51652
3086.94	4.35823
3088.22	2.81365
3089.5	2.39607
3090.78	1.76413
3092.06	1.68113
3093.34	2.09335
3094.61	2.69796
3095.89	2.90331
3097.17	3.30272
3098.44	3.51204
3099.72	4.17792
3101	5.60078
3102.27	6.75363
3103.55	7.30406
3104.82	8.48969
3106.1	9.66789
3107.38	10.8216
3108.65	12.1856
3109.93	14.2941
3111.2	14.9511
3112.47	15.4479
3113.75	15.3095
3115.02	15.9256
3116.3	16.7159
3117.57	17.3236
3118.84	18.795
3120.12	20.5421
3121.39	22.1113
3122.66	22.7473
3123.93	24.5744
3125.2	25.7862
3126.48	26.5091
3127.75	27.3316
3129.02	28.3552
3130.29	29.4638
3131.56	29.6989
3132.83	30.2199
3134.1	31.0481
3135.37	32.3195
3136.64	33.2114
3137.91	33.6745
3139.18	34.6651
3140.45	34.7031
3141.72	35.5417
3142.99	36.3504
3144.26	37.0231
3145.53	37.9009
3146.8	38.3189
3148.07	40.0978
3149.33	41.9391
