#Acq. time (s)=	45
#Accumulations=	2
#Range (cm-¹)=	200...3150
#Windows=	2
#Auto scanning=	Off
#Autofocus=	Off
#Macrospot=	Off
#AutoExposure=	Off
#Spike filter=	Multiple accum.
#Delay time (s)=	0
#Binning=	1
#Readout mode=	Signal
#DeNoise=	Off
#ICS correction=	On
#Dark correction=	Off
#Inst. Process=	Off
#Detector Gain=	Best Dynamic Range
#Detector ADC=	20 kHz       
#Detector temperature (°C)=	-69.85
#Instrument=	LabRAM HR Evol
#Detector=	Synapse
#Objective=	x100
#Grating=	600 gr/mm
#ND Filter=	100%
#Laser (nm)=	532 
#Hole=	100.021
#Range=	Auto
#Laser Pol.=	No
#Raman. Pol.=	No
#Laser Pol. (°)=	-0.0007625
#Raman Pol. (°)=	89.9995
#Collection=	Microscope
#StageXY=	Marzhauser
#StageZ=	Marzhauser
#X (µm)=	-1166
#Y (µm)=	1264.4
#Z (µm)=	578.2
#Full time(mm:ss)=	3:18
#Project=	
#Sample=	
#Site=	
#Title=	Mbcal_20_25_20_2x_45s_532 nm_x100_100%_600 gr_mm
#Remark=	
#Date=	18.07.2022 10:53
#Acquired=	18.07.2022 10:53:30
#Base:Fit=	10.08.2022 10:55:08
#Base:Sub=	10.08.2022 10:55:14
#Filter:Polynom=	16.08.2022 10:07:28
#AxisType[0]=Intens
#AxisUnit[0]=Cnt
#AxisType[1]=Spectr
#AxisUnit[1]=1/cm
200.419	24.7341
202.234	22.6469
204.048	18.7207
205.862	15.1316
207.678	12.8683
209.491	11.0387
211.304	10.1585
213.116	8.9012
214.928	7.7966
216.742	7.0862
218.554	6.86957
220.365	7.09881
222.176	6.57366
223.986	6.97937
225.798	6.93274
227.608	5.55686
229.417	4.77719
231.226	4.75405
233.035	4.88089
234.843	5.19958
236.653	5.61551
238.46	5.23586
240.268	4.88207
242.074	5.31625
243.881	5.20214
245.687	5.75357
247.493	6.56965
249.298	7.40258
251.103	8.22444
252.908	8.31978
254.715	9.01865
256.519	9.28462
258.322	9.22875
260.126	8.39445
261.929	9.25924
263.731	9.31171
265.534	9.68119
267.336	10.3034
269.137	10.0427
270.938	9.77536
272.739	10.0726
274.54	9.87375
276.34	10.1971
278.14	10.3608
279.939	10.9318
281.739	11.2627
283.537	11.5915
285.336	12.3884
287.134	11.1984
288.932	11.4154
290.729	11.9522
292.526	13.2811
294.323	14.8442
296.117	15.7988
297.913	15.9383
299.709	17.4714
301.504	18.1543
303.299	17.7171
305.093	18.5718
306.888	19.444
308.682	19.8243
310.475	20.0257
312.268	19.7683
314.059	19.5607
315.852	19.2362
317.644	18.8105
319.436	19.1909
321.227	19.7542
323.018	20.1257
324.807	19.9666
326.597	19.5219
328.387	19.5787
330.177	19.6613
331.967	20.1114
333.753	19.2548
335.542	19.4635
337.331	19.392
339.119	19.2875
340.906	18.4478
342.691	18.2953
344.478	17.9966
346.265	17.3686
348.051	17.6431
349.835	17.4907
351.621	18.0056
353.406	17.9247
355.189	18.5788
356.973	18.4995
358.757	18.0223
360.541	17.1718
362.323	17.1876
364.106	16.413
365.889	16.5443
367.669	17.8294
369.451	17.7571
371.233	17.5757
373.012	17.4176
374.793	16.8099
376.574	16.2194
378.353	17.23
380.133	18.0472
381.91	18.4431
383.69	18.8051
385.469	19.0995
387.245	18.9477
389.024	19.3059
390.8	18.9525
392.577	18.4776
394.353	18.5094
396.129	17.0024
397.906	16.1226
399.68	15.7984
401.456	15.4803
403.23	14.5584
405.005	14.709
406.778	13.5678
408.552	12.9928
410.325	12.168
412.099	12.2712
413.87	10.7755
415.643	10.3426
417.414	10.5484
419.187	10.2832
420.957	10.0143
422.728	9.74929
424.498	10.0231
426.269	9.70732
428.038	9.46048
429.806	8.95967
431.576	8.98302
433.344	9.35468
435.114	9.11058
436.881	9.41801
438.649	8.94263
440.416	9.18301
442.182	8.79973
443.949	8.22808
445.715	6.82106
447.48	6.1045
449.247	6.04221
451.011	6.72547
452.777	6.47122
454.541	6.83502
456.304	6.5662
458.069	6.62109
459.832	7.48537
461.594	8.49821
463.358	8.41273
465.119	10.1284
466.881	11.617
468.642	12.3007
470.404	13.0688
472.165	13.2639
473.925	13.2533
475.684	13.0564
477.445	13.4445
479.204	13.783
480.963	13.6654
482.721	13.585
484.481	13.5286
486.239	15.0691
487.996	16.3289
489.753	17.3173
491.511	17.4529
493.268	18.2397
495.023	18.2815
496.779	18.7317
498.534	19.2863
500.289	20.7555
502.046	21.3584
503.8	22.7449
505.554	23.4479
507.307	23.6938
509.06	24.2679
510.813	24.5097
512.566	24.8773
514.32	25.0512
516.072	25.5621
517.823	24.8287
519.574	24.7334
521.325	24.4269
523.076	23.5898
524.826	23.4158
526.576	23.7067
528.325	23.5524
530.074	23.2613
531.823	22.7554
533.572	22.761
535.32	23.2955
537.068	23.2112
538.815	22.6039
540.562	21.4496
542.309	21.1282
544.056	20.1521
545.802	19.8673
547.547	19.186
549.293	18.4873
551.038	16.6712
552.783	16.1783
554.527	15.2981
556.271	13.7774
558.015	12.5885
559.759	10.5222
561.502	10.1132
563.245	9.01532
564.987	8.62393
566.729	8.70993
568.471	7.526
570.213	6.75613
571.954	6.39757
573.693	6.01237
575.433	5.57048
577.173	4.74661
578.913	4.02857
580.652	4.57384
582.392	4.72737
584.13	4.90144
585.867	5.4411
587.605	5.3019
589.343	5.17771
591.08	4.42201
592.817	4.80605
594.552	5.37606
596.289	5.02513
598.025	4.75937
599.761	4.85069
601.496	3.96636
603.229	3.6442
604.964	3.24596
606.699	3.17387
608.433	4.15779
610.165	4.92855
611.898	5.73101
613.631	6.27168
615.364	6.16336
617.095	6.41738
618.827	6.48418
620.559	6.93186
622.288	6.72701
624.02	6.77954
625.75	7.92589
627.479	8.70588
629.209	9.70837
630.939	10.411
632.667	10.4393
634.396	10.5752
636.125	10.4249
637.851	10.1183
639.58	11.2385
641.305	12.0522
643.033	11.9887
644.76	13.0209
646.485	13.8182
648.212	14.6038
649.936	14.4396
651.662	14.8241
653.388	15.5459
655.111	15.6515
656.836	16.5211
658.558	17.6032
660.283	18.9836
662.005	19.9757
663.728	20.9369
665.45	21.6719
667.173	21.9114
668.893	22.1306
670.616	22.7163
672.336	22.6998
674.057	22.7729
675.777	23.4738
677.498	23.8772
679.216	24.2009
680.937	24.1761
682.655	24.2304
684.375	24.6743
686.092	24.9231
687.809	25.1397
689.528	25.7368
691.244	26.9653
692.962	27.8629
694.678	29.5095
696.393	29.1348
698.111	29.5847
699.825	29.8744
701.54	30.5228
703.256	31.124
704.97	31.7427
706.685	33.0313
708.398	34.5525
710.111	35.8138
711.826	37.3699
713.538	37.2366
715.25	37.1765
716.961	36.6815
718.675	36.6794
720.386	37.5358
722.096	38.1943
723.808	38.625
725.518	39.6094
727.228	39.8028
728.937	40.4367
730.648	41.3679
732.357	41.1614
734.065	41.2986
735.773	41.0742
737.483	42.1093
739.19	43.8594
740.897	44.0039
742.604	43.5437
744.31	44.1341
746.018	44.3655
747.724	44.8206
749.429	45.2423
751.134	45.9328
752.839	47.2593
754.544	48.9956
756.248	49.8429
757.953	49.8144
759.657	50.7153
761.36	51.8456
763.063	52.8839
764.765	54.0542
766.468	55.7623
768.169	56.959
769.871	58.1042
771.572	59.8218
773.273	61.3934
774.976	63.2993
776.676	64.8418
778.376	65.6589
780.075	66.5035
781.775	68.2152
783.474	70.1505
785.172	72.2056
786.871	72.9822
788.569	74.0302
790.266	75.1171
791.964	77.2573
793.661	78.5617
795.358	78.8418
797.054	79.4992
798.75	79.7966
800.446	80.1278
802.141	81.2948
803.834	82.8864
805.529	83.6592
807.224	84.2824
808.918	84.7201
810.612	84.9441
812.305	84.4504
813.998	84.6527
815.691	84.3734
817.384	83.649
819.076	83.2419
820.766	82.1467
822.458	81.7343
824.149	80.7696
825.84	79.6845
827.531	79.0843
829.221	78.8944
830.909	78.6475
832.599	78.4577
834.288	77.3277
835.977	76.9767
837.666	76.0231
839.353	74.5462
841.041	72.838
842.729	71.6383
844.416	71.6113
846.103	71.3853
847.788	71.0382
849.475	71.3884
851.161	70.9917
852.845	70.261
854.53	69.2957
856.216	68.11
857.901	67.5707
859.583	66.4255
861.268	65.0155
862.952	63.7587
864.633	62.6839
866.317	62.2879
868	60.1296
869.681	58.671
871.363	56.8114
873.045	55.5244
874.725	55.082
876.406	55.2582
878.088	54.3286
879.767	52.9178
881.447	52.3994
883.125	52.2174
884.805	50.724
886.483	50.474
888.162	49.8681
889.841	48.9726
891.518	47.3959
893.196	45.939
894.872	45.3036
896.55	45.3374
898.225	45.4734
899.902	44.5555
901.577	43.8095
903.254	43.7117
904.928	43.2974
906.604	43.401
908.277	44.1354
909.952	44.9229
911.625	45.459
913.3	45.3877
914.972	46.156
916.646	46.1556
918.318	45.8892
919.991	46.3526
921.662	46.8484
923.333	47.3232
925.005	48.0149
926.675	49.2465
928.347	50.5409
930.017	50.7252
931.686	50.8156
933.357	51.1628
935.025	50.4082
936.693	50.3075
938.363	50.0249
940.031	50.002
941.698	49.8099
943.367	48.641
945.034	47.1778
946.7	46.2693
948.368	45.6177
950.034	45.3542
951.699	44.7948
953.367	44.6713
955.031	43.3422
956.696	42.0522
958.36	41.4494
960.026	40.4711
961.689	39.6298
963.353	38.2243
965.016	37.7952
966.68	36.973
968.343	35.0431
970.005	34.1977
971.666	33.4003
973.328	32.2881
974.991	31.4648
976.652	31.2701
978.312	31.3448
979.972	30.6948
981.632	30.0381
983.292	29.2161
984.953	28.6481
986.612	28.1336
988.27	27.214
989.929	27.0772
991.587	27.4197
993.244	27.0648
994.902	26.8806
996.559	25.4806
998.216	25.1413
999.872	24.494
1001.53	24.2253
1003.19	24.4823
1004.84	24.751
1006.5	23.8988
1008.15	23.5583
1009.81	23.5443
1011.46	22.9311
1013.11	21.9449
1014.77	22.1851
1016.42	22.3474
1018.07	22.0686
1019.73	21.9
1021.38	20.9267
1023.03	20.3401
1024.68	20.1446
1026.34	20.3952
1027.99	20.4836
1029.64	20.3885
1031.29	20.6537
1032.94	20.6198
1034.59	19.8339
1036.24	19.3603
1037.89	18.9016
1039.53	18.71
1041.18	19.0832
1042.83	19.9321
1044.48	20.2271
1046.13	19.2706
1047.77	18.9795
1049.42	17.9293
1051.07	17.2186
1052.71	17.0344
1054.36	17.2387
1056	16.6491
1057.65	17.59
1059.3	17.953
1060.94	18.4897
1062.59	18.7164
1064.23	18.6622
1065.87	18.1816
1067.52	17.9092
1069.16	17.8779
1070.8	17.9251
1072.44	18.0913
1074.09	17.8511
1075.73	17.5902
1077.37	16.9593
1079.01	15.8283
1080.65	15.7045
1082.29	15.2782
1083.93	15.2382
1085.57	14.3024
1087.21	14.2087
1088.85	13.5411
1090.49	13.798
1092.13	13.4019
1093.77	13.6018
1095.41	13.4658
1097.04	13.4708
1098.68	13.7511
1100.32	13.6398
1101.95	13.8886
1103.59	14.0445
1105.23	14.8067
1106.86	14.8178
1108.5	14.4501
1110.13	13.6327
1111.77	12.8336
1113.4	13.0215
1115.04	11.9118
1116.67	11.6199
1118.31	11.737
1119.94	11.6239
1121.57	11.959
1123.2	11.9266
1124.84	11.7054
1126.47	10.7419
1128.1	10.3009
1129.73	10.3575
1131.36	10.0646
1132.99	10.3656
1134.62	10.5796
1136.25	10.7292
1137.88	10.5888
1139.51	11.8841
1141.14	11.1908
1142.77	10.5834
1144.4	9.16022
1146.03	8.35957
1147.66	8.28447
1149.28	8.02401
1150.91	8.17001
1152.54	7.36601
1154.16	6.84527
1155.79	6.44079
1157.42	6.02457
1159.04	5.26309
1160.67	4.91678
1162.29	4.27346
1163.92	4.07979
1165.54	3.38907
1167.17	2.97402
1168.79	3.44339
1170.41	3.47547
1172.04	3.6369
1173.66	2.85656
1175.28	2.83942
1176.9	1.82215
1178.53	2.04562
1180.15	1.29663
1181.77	0.71887
1183.39	1.02467
1185.01	0.347807
1186.63	-0.130903
1188.25	-0.84005
1189.87	-0.886649
1191.49	-0.389015
1193.11	-0.730128
1194.73	-0.513244
1196.35	-0.236422
1197.96	0.55832
1199.58	0.933286
1201.2	0.973278
1202.82	1.57201
1204.43	1.72197
1206.05	2.95439
1207.66	3.60553
1209.28	4.87804
1210.9	5.73993
1212.51	6.25981
1214.13	7.941
1215.74	7.98482
1217.36	8.56585
1218.97	9.80074
1220.58	11.0504
1222.2	10.3554
1223.81	12.1104
1225.42	13.214
1227.04	15.2801
1228.65	16.5463
1230.26	18.1369
1231.87	18.6831
1233.48	19.2621
1235.1	21.0961
1236.71	22.3691
1238.32	23.0458
1239.93	23.141
1241.53	23.3592
1243.14	23.7863
1244.75	25.121
1246.36	25.1932
1247.97	26.8917
1249.58	27.4151
1251.19	27.9656
1252.8	27.9809
1254.4	27.8802
1256.01	28.377
1257.62	29.1846
1259.22	29.6574
1260.83	29.7203
1262.43	30.832
1264.04	30.8797
1265.64	30.6987
1267.25	30.9438
1268.85	31.525
1270.46	33.0726
1272.06	33.6882
1273.66	33.6123
1275.27	34.137
1276.87	34.9595
1278.48	35.6571
1280.08	34.9162
1281.68	35.6125
1283.28	36.8967
1284.88	37.3722
1286.48	38.0497
1288.08	37.7853
1289.68	38.093
1291.28	38.0293
1292.88	37.8692
1294.48	37.7333
1296.08	37.0603
1297.68	38.2043
1299.28	38.4627
1300.88	37.6919
1302.48	37.7439
1304.07	39.4071
1305.67	39.4918
1307.27	39.9568
1308.87	40.2544
1310.46	40.6955
1312.06	40.4812
1313.65	40.978
1315.25	40.9394
1316.85	39.9109
1318.44	38.7316
1320.03	37.9381
1321.63	37.9293
1323.22	38.2272
1324.82	38.5082
1326.41	37.3271
1328	38.0732
1329.6	37.544
1331.19	37.3168
1332.78	36.8491
1334.37	36.5337
1335.96	36.3513
1337.56	35.7543
1339.15	34.929
1340.74	34.2873
1342.33	34.1824
1343.92	33.6328
1345.51	33.912
1347.1	33.7164
1348.69	34.4565
1350.28	35.134
1351.86	34.6804
1353.45	34.3802
1355.04	34.2652
1356.63	33.9709
1358.21	32.8267
1359.8	31.8113
1361.39	32.0883
1362.97	31.0901
1364.56	30.1822
1366.15	29.4073
1367.73	28.6105
1369.32	28.5602
1370.9	28.1266
1372.49	27.9742
1374.07	27.4087
1375.65	27.3274
1377.24	26.5265
1378.82	26.1412
1380.41	25.6406
1381.99	25.8519
1383.57	26.4419
1385.15	26.4012
1386.73	25.7857
1388.32	26.4627
1389.9	26.9075
1391.48	26.2848
1393.06	25.7702
1394.64	25.5574
1396.22	25.3238
1397.8	24.7069
1399.38	24.3142
1400.96	24.2484
1402.54	24.4792
1404.11	24.5678
1405.69	24.4402
1407.27	25.7451
1408.85	25.607
1410.43	25.592
1412	26.0251
1413.58	26.7061
1415.16	27.8455
1416.73	29.1622
1418.31	31.0863
1419.88	32.8665
1421.46	34.4151
1423.03	35.9481
1424.61	38.2053
1426.18	40.0353
1427.76	42.6501
1429.33	44.7015
1430.9	45.7526
1432.48	47.503
1434.05	49.2767
1435.62	50.7342
1437.2	52.1284
1438.77	53.9572
1440.34	54.4995
1441.91	55.4826
1443.48	56.9591
1445.05	57.9262
1446.62	58.5452
1448.19	59.5195
1449.76	59.8885
1451.33	60.3576
1452.9	60.0745
1454.47	60.465
1456.04	60.1144
1457.61	60.1738
1459.17	59.2055
1460.74	58.211
1462.31	58.5947
1463.88	57.523
1465.44	56.7106
1467.01	55.7231
1468.58	53.1843
1470.14	50.8632
1471.71	49.3237
1473.27	47.0139
1474.84	44.3875
1476.4	41.9709
1477.97	40.4425
1479.53	38.9974
1481.1	37.5864
1482.66	36.298
1484.22	34.527
1485.78	32.9431
1487.35	30.8688
1488.91	29.1093
1490.47	27.8262
1492.03	27.0831
1493.59	26.0139
1495.16	24.5775
1496.72	23.3769
1498.28	21.9671
1499.84	20.3554
1501.4	19.303
1502.96	18.7042
1504.52	18.299
1506.08	17.7691
1507.64	16.8803
1509.19	16.0125
1510.75	16.3653
1512.31	15.1157
1513.87	13.5711
1515.42	13.0228
1516.98	12.5449
1518.54	11.7965
1520.1	11.6473
1521.65	11.6089
1523.21	12.0092
1524.76	12.3325
1526.32	13.3699
1527.87	13.2396
1529.43	13.6641
1530.98	13.402
1532.54	13.6226
1534.09	12.9477
1535.64	12.6981
1537.2	12.9107
1538.75	13.0858
1540.3	13.9201
1541.85	14.3777
1543.41	14.9674
1544.96	15.1
1546.51	16.0471
1548.06	16.8127
1549.61	16.775
1551.16	16.377
1552.71	17.6394
1554.26	18.5263
1555.81	19.18
1557.36	19.1556
1558.91	19.0707
1560.46	19.5513
1562.01	20.2888
1563.56	20.5433
1565.1	20.4701
1566.65	20.7805
1568.2	21.1048
1569.75	21.4746
1571.29	21.7866
1572.84	22.1962
1574.38	22.5939
1575.93	23.2045
1577.48	23.4246
1579.02	24.5255
1580.57	25.3971
1582.11	25.78
1583.65	25.5027
1585.2	25.737
1586.74	26.5761
1588.29	26.9842
1589.83	26.7214
1591.37	27.4556
1592.92	29.0464
1594.46	29.1828
1596	29.4777
1597.54	29.8738
1599.08	30.2302
1600.62	32.024
1602.16	32.424
1603.7	32.0691
1605.24	31.9153
1606.78	31.6172
1608.32	30.7512
1609.86	30.2381
1611.4	29.8604
1612.94	29.6179
1614.48	30.041
1616.02	30.2054
1617.56	31.0233
1619.09	30.9476
1620.63	30.0995
1622.17	30.1174
1623.71	30.0388
1625.24	29.7443
1626.78	29.8452
1628.31	29.8636
1629.85	30.898
1631.39	30.8081
1632.92	30.876
1634.46	30.7691
1635.99	31.8589
1637.52	33.4849
1639.06	34.306
1640.59	34.0484
1642.12	34.5145
1643.66	35.7771
1645.19	37.3645
1646.72	38.0812
1648.25	39.4416
1649.79	40.7514
1651.32	41.1751
1652.85	41.8922
1654.38	42.2289
1655.91	42.7025
1657.44	42.0099
1658.97	42.5058
1660.5	42.4901
1662.03	42.8579
1663.56	42.9542
1665.09	42.4698
1666.62	41.8362
1668.15	40.7092
1669.67	39.9916
1671.2	39.1513
1672.73	38.1403
1674.26	37.6374
1675.79	36.6683
1677.31	36.4027
1678.84	34.0272
1680.36	32.1163
1681.89	30.677
1683.42	28.8522
1684.94	27.6702
1686.47	26.4341
1687.99	25.9032
1689.51	23.7983
1691.04	22.5972
1692.56	21.2317
1694.08	19.701
1695.61	17.8742
1697.13	17.1564
1698.65	16.5088
1700.18	15.5264
1701.7	14.8664
1703.22	13.8255
1704.74	13.0699
1706.26	12.8226
1707.78	12.2745
1709.3	12.4202
1710.82	12.3294
1712.35	12.5171
1713.86	12.5942
1715.39	13.048
1716.9	13.4083
1718.42	14.3565
1719.94	14.6776
1721.46	14.6961
1722.98	14.2273
1724.5	14.6557
1726.01	14.3572
1727.53	13.3181
1729.05	13.2663
1730.56	13.4161
1732.08	13.0505
1733.6	13.0778
1735.11	12.9435
1736.63	12.4626
1738.14	12.0228
1739.66	11.1434
1741.17	10.4883
1742.69	9.72894
1744.2	8.90911
1745.71	9.38136
1747.23	9.28654
1748.74	8.45414
1750.25	8.11614
1751.77	7.48013
1753.28	7.13835
1754.79	6.29128
1756.3	6.01964
1757.81	5.56767
1759.33	5.50719
1760.84	4.63923
1762.35	3.80106
1763.86	3.20913
1765.37	2.01415
1766.88	1.94941
1768.39	1.72113
1769.9	1.30034
1771.41	1.73451
1772.91	1.69347
1774.42	1.80967
1775.93	1.87921
1777.44	1.83121
1778.95	1.56128
1780.45	1.65877
1781.96	1.69682
1783.47	2.44316
1784.97	3.32334
1786.48	3.56262
1787.99	4.54248
1789.49	5.37175
1791	6.0637
1792.5	5.95462
1794.01	6.09392
1795.51	5.95654
1797.01	6.20067
1798.52	6.42811
1800.02	6.91318
1801.52	7.13978
1803.03	7.51248
1804.53	7.84933
1806.03	8.06752
1807.54	7.83367
1809.04	7.421
1810.54	7.05283
1812.04	7.02036
1813.54	6.57629
1815.04	6.0527
1816.54	6.50714
1818.04	6.39229
1819.54	5.95945
1821.04	6.07137
1822.54	5.81701
1824.04	5.61597
1825.54	5.64155
1827.04	5.56539
1828.54	5.30305
1830.03	5.50581
1831.53	5.69314
1833.03	5.05049
1834.53	4.62052
1836.02	4.18188
1837.52	4.28898
1839.02	4.36898
1840.51	4.69274
1842.01	4.87043
1843.5	5.14528
1845	5.30874
1846.49	5.48682
1847.99	5.35891
1849.48	5.75437
1850.98	5.68616
1852.47	6.05045
1853.96	6.14333
1855.46	7.17391
1856.95	7.74452
1858.44	7.78916
1859.94	8.35532
1861.43	8.52301
1862.92	8.60411
1864.41	8.34293
1865.9	8.74867
1867.39	9.27408
1868.88	9.76979
1870.37	10.0455
1871.86	10.6919
1873.35	11.1467
1874.84	11.4544
1876.33	11.0834
1877.82	10.8145
1879.31	11.0794
1880.8	10.9956
1882.29	11.0107
1882.58	10.8319
1884.08	10.8566
1885.57	10.7797
1887.06	10.3781
1888.56	10.0647
1890.05	10.2408
1891.54	9.90823
1893.04	9.5474
1894.53	9.50402
1896.02	9.36893
1897.51	9.45796
1899	8.69222
1900.5	8.22803
1901.99	8.11589
1903.48	7.5393
1904.97	6.8843
1906.46	6.61291
1907.95	6.90751
1909.44	6.39576
1910.93	6.03469
1912.42	6.08992
1913.91	5.79067
1915.4	5.29648
1916.88	4.74728
1918.37	4.51964
1919.86	4.38246
1921.35	4.06582
1922.84	3.47939
1924.32	3.1884
1925.81	2.7944
1927.3	2.00685
1928.78	2.2277
1930.27	1.12874
1931.75	0.513715
1933.24	0.570158
1934.72	0.0444123
1936.21	0.210853
1937.69	0.217435
1939.18	0.386579
1940.66	0.260863
1942.15	0.0320366
1943.63	0.0134352
1945.11	-0.308071
1946.6	-0.630873
1948.08	-0.838471
1949.56	-0.870788
1951.04	-0.235932
1952.53	0.469074
1954.01	0.298624
1955.49	0.36205
1956.97	0.33809
1958.45	0.867546
1959.93	1.09576
1961.41	0.715637
1962.89	1.13809
1964.37	1.616
1965.85	1.90271
1967.33	2.25237
1968.81	2.81336
1970.29	3.13222
1971.77	3.67596
1973.24	2.89795
1974.72	3.52034
1976.2	3.52484
1977.68	3.404
1979.15	3.69813
1980.63	3.36725
1982.11	3.02984
1983.58	2.69732
1985.06	3.12952
1986.53	3.24652
1988.01	3.36301
1989.48	3.39641
1990.96	3.88395
1992.43	4.2071
1993.91	3.80208
1995.38	3.86898
1996.86	4.19551
1998.33	4.46189
1999.8	4.13717
2001.27	4.5773
2002.75	4.73294
2004.22	4.19631
2005.69	3.98358
2007.16	4.40143
2008.64	4.52465
2010.11	4.92239
2011.58	4.46491
2013.05	4.54861
2014.52	4.94447
2015.99	4.54822
2017.46	4.8847
2018.93	5.15017
2020.4	6.07217
2021.87	6.46302
2023.34	6.45374
2024.8	7.03592
2026.27	6.88159
2027.74	6.77739
2029.21	6.90985
2030.68	6.41541
2032.14	6.90474
2033.61	6.66998
2035.08	6.53841
2036.54	6.85997
2038.01	7.1948
2039.48	7.13719
2040.94	6.88337
2042.41	6.5295
2043.87	6.2572
2045.34	6.11826
2046.8	6.04053
2048.27	6.12577
2049.73	5.20741
2051.19	5.00542
2052.66	4.8924
2054.12	4.99259
2055.58	4.94486
2057.05	4.96998
2058.51	5.347
2059.97	5.36119
2061.43	5.60295
2062.9	5.27141
2064.36	5.62586
2065.82	5.43087
2067.28	5.51399
2068.74	5.64533
2070.2	5.30978
2071.66	5.25393
2073.12	5.2208
2074.58	5.08295
2076.04	4.5679
2077.5	5.13758
2078.95	5.33404
2080.41	5.71468
2081.87	5.43257
2083.33	5.81324
2084.79	6.2694
2086.24	6.82243
2087.7	7.22495
2089.16	7.47943
2090.61	8.41411
2092.07	8.87506
2093.53	9.36598
2094.98	9.15606
2096.44	9.53225
2097.89	9.87039
2099.35	9.45759
2100.8	9.91949
2102.26	10.7651
2103.71	10.6669
2105.16	11.8756
2106.62	11.9967
2108.07	12.8063
2109.53	13.2046
2110.98	13.7404
2112.43	13.8152
2113.88	14.2863
2115.33	15.0124
2116.79	15.7247
2118.24	15.8246
2119.69	16.371
2121.14	16.867
2122.59	17.4883
2124.04	18.2914
2125.49	18.7776
2126.94	19.1307
2128.39	19.226
2129.84	19.9237
2131.29	20.3705
2132.74	20.4978
2134.19	20.6693
2135.63	20.9155
2137.08	21.7628
2138.53	22.1817
2139.98	22.4621
2141.43	22.0955
2142.87	22.5376
2144.32	23.2359
2145.77	23.7194
2147.21	24.162
2148.66	25.2856
2150.1	26.3496
2151.55	26.3763
2152.99	27.0702
2154.44	27.8634
2155.88	28.5985
2157.33	29.5925
2158.77	29.8783
2160.21	30.2399
2161.66	31.0646
2163.1	31.3963
2164.55	31.8774
2165.99	32.2561
2167.43	32.4418
2168.87	32.7398
2170.31	32.4567
2171.76	32.3277
2173.2	32.7964
2174.64	32.0905
2176.08	31.3378
2177.52	31.7775
2178.96	31.6141
2180.4	31.4727
2181.84	31.2143
2183.28	31.1613
2184.72	30.6166
2186.16	30.5494
2187.6	30.1978
2189.04	29.9759
2190.47	29.8565
2191.91	29.8017
2193.35	29.5941
2194.79	28.5483
2196.23	27.9116
2197.66	27.0483
2199.1	26.3314
2200.54	25.8304
2201.97	24.7215
2203.41	23.8157
2204.84	23.0664
2206.28	22.1123
2207.71	21.1713
2209.15	20.2978
2210.58	19.3275
2212.02	18.6763
2213.45	17.8265
2214.89	17.767
2216.32	17.4875
2217.75	16.9054
2219.19	15.8909
2220.62	15.3578
2222.05	14.1697
2223.48	13.2204
2224.92	12.9276
2226.35	12.6332
2227.78	12.5845
2229.21	12.0399
2230.64	11.5494
2232.07	11.4152
2233.5	11.5572
2234.93	10.9518
2236.36	10.4325
2237.79	10.0249
2239.22	9.35303
2240.65	8.31224
2242.08	7.9961
2243.51	7.62845
2244.94	7.24625
2246.37	7.24284
2247.79	7.38805
2249.22	7.69481
2250.65	7.34329
2252.08	7.2937
2253.5	7.63268
2254.93	7.22457
2256.36	7.31595
2257.78	7.50836
2259.21	7.62324
2260.63	7.78784
2262.06	7.8842
2263.48	7.46941
2264.91	7.8833
2266.33	7.45475
2267.76	7.53171
2269.18	7.30282
2270.6	7.08232
2272.03	7.18975
2273.45	6.50181
2274.87	6.58006
2276.3	6.10055
2277.72	5.81002
2279.14	5.89962
2280.56	6.52597
2281.98	6.32509
2283.41	6.72252
2284.83	6.54983
2286.25	6.64313
2287.67	6.22208
2289.09	5.38259
2290.51	4.93444
2291.93	4.66124
2293.35	4.12934
2294.77	4.21223
2296.19	4.81373
2297.61	5.67196
2299.02	6.11933
2300.44	6.55851
2301.86	6.93783
2303.28	7.47119
2304.7	7.41791
2306.11	7.25502
2307.53	7.37635
2308.95	7.42179
2310.36	7.72895
2311.78	7.81199
2313.2	8.16773
2314.61	8.40772
2316.03	8.08633
2317.44	7.88078
2318.86	7.21916
2320.27	7.55117
2321.69	7.47302
2323.1	7.64787
2324.51	7.77334
2325.93	7.65799
2327.34	7.54027
2328.76	7.55543
2330.17	7.94622
2331.58	7.46377
2332.99	7.41178
2334.41	6.93455
2335.82	6.708
2337.23	5.8226
2338.64	5.60041
2340.05	5.39409
2341.46	5.37694
2342.87	5.16565
2344.28	4.50982
2345.69	4.23447
2347.1	3.93991
2348.51	3.70318
2349.92	3.36357
2351.33	3.20979
2352.74	2.95896
2354.15	3.69443
2355.56	3.17444
2356.97	2.5668
2358.37	2.10356
2359.78	1.6126
2361.19	1.63881
2362.6	1.86323
2364	2.04033
2365.41	3.20879
2366.82	4.08891
2368.22	4.54369
2369.63	4.33939
2371.03	4.16931
2372.44	4.10575
2373.84	4.65954
2375.25	4.61316
2376.65	4.55204
2378.06	4.88272
2379.46	4.64013
2380.86	4.55519
2382.27	4.073
2383.67	3.72367
2385.07	3.27113
2386.48	2.10506
2387.88	2.12186
2389.28	2.50354
2390.69	2.61193
2392.09	2.26213
2393.49	1.95813
2394.89	1.69595
2396.29	1.72737
2397.69	1.125
2399.09	1.58796
2400.49	1.1872
2401.89	0.182927
2403.29	-0.133069
2404.69	-0.639277
2406.09	-0.88059
2407.49	-0.764456
2408.89	-0.640288
2410.29	-0.67242
2411.69	-0.804239
2413.08	-1.17806
2414.48	-1.27003
2415.88	-1.38273
2417.28	-1.10701
2418.67	-1.21502
2420.07	-0.779551
2421.47	-0.223257
2422.86	0.197091
2424.26	0.241281
2425.65	0.10744
2427.05	0.436137
2428.45	0.995603
2429.84	1.24994
2431.23	1.84769
2432.63	2.70887
2434.02	2.502
2435.42	3.09242
2436.81	2.83304
2438.2	3.17956
2439.6	3.16562
2440.99	3.46324
2442.38	4.19418
2443.78	3.94569
2445.17	3.97441
2446.56	4.10937
2447.95	4.33478
2449.34	4.03191
2450.73	3.87948
2452.13	3.54728
2453.52	3.455
2454.91	3.49531
2456.3	3.64497
2457.69	3.83486
2459.08	3.56307
2460.47	3.54583
2461.85	3.61046
2463.24	3.74434
2464.63	3.62734
2466.02	4.13749
2467.41	3.35276
2468.8	3.50707
2470.19	2.84149
2471.57	2.43963
2472.96	2.70416
2474.35	2.50226
2475.73	2.36917
2477.12	2.5212
2478.51	2.2483
2479.89	2.13563
2481.28	2.23035
2482.66	1.96162
2484.05	2.2789
2485.43	2.38632
2486.82	2.76317
2488.2	2.67882
2489.59	2.64081
2490.97	2.94562
2492.35	3.39023
2493.74	3.39597
2495.12	3.61608
2496.5	3.4897
2497.89	3.37169
2499.27	3.24844
2500.65	2.88358
2502.03	2.74937
2503.42	1.90694
2504.8	2.59943
2506.18	3.24785
2507.56	3.42323
2508.94	3.25094
2510.32	3.60884
2511.7	3.82454
2513.08	3.27076
2514.46	3.54585
2515.84	3.53063
2517.22	3.17311
2518.6	3.56672
2519.98	3.56916
2521.36	3.47135
2522.73	3.81625
2524.11	3.96091
2525.49	3.77416
2526.87	3.54081
2528.25	4.07709
2529.62	4.63443
2531	4.27141
2532.38	3.85789
2533.75	3.8989
2535.13	3.93881
2536.5	3.30831
2537.88	3.42672
2539.25	3.61065
2540.63	3.52976
2542.01	3.675
2543.38	3.35096
2544.75	3.55408
2546.13	4.2123
2547.5	4.15805
2548.88	4.29736
2550.25	4.61724
2551.62	4.48561
2553	4.75223
2554.37	4.48873
2555.74	4.4872
2557.11	4.5626
2558.49	4.79767
2559.86	4.8945
2561.23	4.50702
2562.6	4.16306
2563.97	4.24443
2565.34	4.01761
2566.71	3.75829
2568.08	3.43931
2569.45	3.45494
2570.82	3.46736
2572.19	3.19185
2573.56	3.47722
2574.93	3.14007
2576.3	2.42432
2577.67	2.28445
2579.03	1.95403
2580.4	1.5709
2581.77	1.41336
2583.14	1.49058
2584.5	1.87311
2585.87	2.17534
2587.24	2.97143
2588.6	2.21874
2589.97	2.23872
2591.34	2.45296
2592.7	2.50039
2594.07	2.35504
2595.43	2.51196
2596.8	2.47324
2598.16	1.71185
2599.53	1.30572
2600.89	1.26475
2602.26	1.44302
2603.62	1.14097
2604.98	0.850493
2606.35	1.08662
2607.71	1.34295
2609.07	1.57554
2610.44	1.51057
2611.8	1.60605
2613.16	1.73417
2614.52	2.06284
2615.88	1.99368
2617.25	1.72949
2618.61	2.2142
2619.97	2.33011
2621.33	2.64298
2622.69	3.07495
2624.05	3.34362
2625.41	3.61884
2626.77	3.19253
2628.13	2.772
2629.49	2.56825
2630.85	2.65149
2632.21	2.59733
2633.56	2.71056
2634.92	2.68303
2636.28	3.18303
2637.64	3.6125
2639	2.87968
2640.35	2.58303
2641.71	2.9382
2643.07	3.18693
2644.42	3.43886
2645.78	3.6547
2647.14	3.68399
2648.49	3.79917
2649.85	3.75489
2651.2	3.94144
2652.56	4.15406
2653.91	3.94897
2655.27	3.5407
2656.62	2.6466
2657.98	2.84463
2659.33	2.81995
2660.68	2.44485
2662.04	2.22596
2663.39	1.81544
2664.74	1.49249
2666.1	1.3267
2667.45	2.03941
2668.8	1.59198
2670.15	1.35604
2671.5	0.713037
2672.86	0.414075
2674.21	0.575301
2675.56	0.524505
2676.91	0.552524
2678.26	0.109062
2679.61	0.213892
2680.96	0.161092
2682.31	0.815839
2683.66	0.621802
2685.01	0.764613
2686.36	1.21885
2687.71	0.85364
2689.06	0.864455
2690.4	1.06824
2691.75	1.09324
2693.1	1.25792
2694.45	1.49419
2695.8	1.70491
2697.14	2.03907
2698.49	2.62269
2699.84	3.43278
2701.18	4.8341
2702.53	5.40551
2703.88	5.97549
2705.22	6.08814
2706.57	6.55451
2707.91	7.55718
2709.26	8.14667
2710.6	8.64103
2711.95	8.83499
2713.29	8.94761
2714.64	9.09741
2715.98	9.13342
2717.32	9.75402
2718.67	9.93968
2720.01	10.2992
2721.35	11.232
2722.7	11.4506
2724.04	11.886
2725.38	12.4406
2726.72	12.6911
2728.06	12.7176
2729.4	12.6276
2730.75	12.2861
2732.09	12.2552
2733.43	11.9956
2734.77	12.0044
2736.11	11.3329
2737.45	10.8168
2738.79	10.8461
2740.13	10.8671
2741.47	10.4175
2742.81	10.1743
2744.15	9.74143
2745.48	9.2055
2746.82	9.10273
2748.16	8.46139
2749.5	8.22738
2750.84	7.64916
2752.17	7.4619
2753.51	6.74679
2754.85	6.61302
2756.19	6.65973
2757.52	6.12409
2758.86	5.63994
2760.19	5.13997
2761.53	4.73194
2762.86	4.32917
2764.2	3.93323
2765.54	3.73647
2766.87	4.42922
2768.2	4.57061
2769.54	4.07813
2770.87	3.99404
2772.21	3.97111
2773.54	4.06551
2774.88	3.40263
2776.21	2.76268
2777.54	2.99599
2778.87	2.4582
2780.21	2.52947
2781.54	3.18757
2782.87	3.12272
2784.2	3.31376
2785.53	2.81709
2786.87	3.0805
2788.2	2.93723
2789.53	2.36255
2790.86	2.21557
2792.19	2.24179
2793.52	2.04539
2794.85	1.64056
2796.18	0.93401
2797.51	0.925416
2798.84	0.649084
2800.17	0.585835
2801.49	0.416352
2802.82	-0.0494668
2804.15	-0.103223
2805.48	-0.0416225
2806.81	-0.544488
2808.13	-0.756612
2809.46	-0.662591
2810.79	-0.229639
2812.12	-0.211189
2813.44	-0.137145
2814.77	-0.140409
2816.09	0.99267
2817.42	1.14628
2818.75	1.76008
2820.07	3.00869
2821.4	4.24271
2822.72	5.5033
2824.05	6.40218
2825.37	8.06382
2826.7	9.78128
2828.02	11.3557
2829.35	13.5694
2830.67	15.3107
2831.99	17.5065
2833.31	20.0443
2834.64	21.8163
2835.96	23.8946
2837.28	25.7544
2838.61	27.7047
2839.93	29.5233
2841.25	31.7393
2842.57	34.6253
2843.89	37.819
2845.21	40.5563
2846.53	43.7519
2847.85	46.729
2849.17	49.5101
2850.49	52.756
2851.81	56.063
2853.13	59.5412
2854.45	62.2791
2855.77	65.3807
2857.09	68.1334
2858.41	70.9736
2859.73	73.6711
2861.05	75.8831
2862.36	78.629
2863.68	81.4018
2865	83.8805
2866.32	86.386
2867.64	88.5642
2868.95	90.8755
2870.27	93.4344
2871.59	94.868
2872.9	96.3281
2874.22	97.9
2875.53	99.7631
2876.85	101.416
2878.16	102.228
2879.48	104.058
2880.79	105.868
2882.11	107.342
2883.42	108.597
2884.74	110.801
2886.05	112.379
2887.36	113.296
2888.68	114.716
2889.99	115.455
2891.3	116.556
2892.62	117.665
2893.93	118.73
2895.24	119.745
2896.55	120.469
2897.86	121.757
2899.18	123.303
2900.49	124.58
2901.8	126.106
2903.11	127.735
2904.42	130.073
2905.73	132.417
2907.04	135.523
2908.35	138.437
2909.66	140.562
2910.97	142.888
2912.28	146.273
2913.59	149.554
2914.9	152.767
2916.21	155.017
2917.51	157.565
2918.82	159.867
2920.13	162.014
2921.44	164.268
2922.74	166.061
2924.05	167.558
2925.36	169.217
2926.67	170.716
2927.97	171.719
2929.28	171.507
2930.59	171.6
2931.89	171.067
2933.2	170.905
2934.5	170.341
2935.81	169.023
2937.11	167.068
2938.42	165.501
2939.72	163.841
2941.02	161.661
2942.33	159.367
2943.63	157.012
2944.94	154.675
2946.24	151.736
2947.54	148.669
2948.85	145.835
2950.15	142.174
2951.45	138.5
2952.75	134.643
2954.05	131.248
2955.36	127.312
2956.66	123.872
2957.96	120.271
2959.26	116.697
2960.56	113.193
2961.86	109.802
2963.16	106.53
2964.46	103.59
2965.76	100.223
2967.06	97.5477
2968.36	94.6572
2969.66	91.928
2970.96	89.0215
2972.26	86.5321
2973.56	83.8176
2974.85	81.557
2976.15	79.5437
2977.45	77.576
2978.75	74.453
2980.05	71.6663
2981.34	68.8738
2982.64	66.971
2983.94	64.6934
2985.23	61.9109
2986.53	59.0035
2987.83	56.468
2989.12	53.6699
2990.42	51.049
2991.71	48.1693
2993.01	45.3375
2994.3	42.9833
2995.6	40.7801
2996.89	38.3408
2998.19	35.8381
2999.48	33.8911
3000.77	31.2213
3002.07	28.7611
3003.36	26.5563
3004.65	24.2735
3005.95	22.3565
3007.24	20.6619
3008.53	18.7486
3009.82	17.0378
3011.12	15.2993
3012.41	13.5287
3013.7	12.146
3014.99	10.5767
3016.28	9.80473
3017.57	8.79258
3018.86	8.21081
3020.15	7.41448
3021.44	6.61526
3022.73	5.8887
3024.02	5.18742
3025.31	4.70884
3026.6	4.05633
3027.89	4.11628
3029.18	3.69099
3030.47	3.07028
3031.76	3.22432
3033.04	2.82942
3034.33	2.91701
3035.62	3.22135
3036.91	3.69647
3038.19	3.70969
3039.48	4.09165
3040.77	3.87917
3042.05	4.13243
3043.34	4.26344
3044.63	5.21695
3045.91	5.56664
3047.2	6.47952
3048.48	6.46086
3049.77	6.41808
3051.05	6.59542
3052.34	6.86334
3053.62	6.84456
3054.91	6.87685
3056.19	7.03451
3057.48	7.14501
3058.76	7.07374
3060.04	6.69669
3061.33	6.2531
3062.61	6.15362
3063.89	6.30562
3065.17	5.19712
3066.46	4.69131
3067.74	4.53114
3069.02	4.3329
3070.3	4.38318
3071.59	4.20418
3072.87	3.79466
3074.15	3.44409
3075.43	2.85199
3076.71	2.82783
3077.99	2.78519
3079.27	2.45689
3080.55	2.0185
3081.83	1.55032
3083.11	1.86964
3084.39	1.51889
3085.67	1.30885
3086.94	1.31479
3088.22	1.33776
3089.5	1.24916
3090.78	1.14762
3092.06	1.4301
3093.34	1.51429
3094.61	2.24203
3095.89	2.57179
3097.17	2.68428
3098.44	3.08308
3099.72	3.4941
3101	3.86255
3102.27	4.05175
3103.55	4.78402
3104.82	5.23872
3106.1	5.94779
3107.38	6.90108
3108.65	7.44321
3109.93	7.7013
3111.2	8.54199
3112.47	8.35437
3113.75	9.03389
3115.02	9.51556
3116.3	9.92633
3117.57	10.3904
3118.84	10.768
3120.12	11.2343
3121.39	12.0328
3122.66	12.7597
3123.93	12.8347
3125.2	13.0221
3126.48	13.7895
3127.75	14.0475
3129.02	14.2228
3130.29	14.8348
3131.56	15.3996
3132.83	15.7221
3134.1	16.2847
3135.37	16.4991
3136.64	16.6993
3137.91	17.2886
3139.18	17.7375
3140.45	18.5076
3141.72	19.0468
3142.99	19.7868
3144.26	20.5505
3145.53	21.1109
3146.8	21.2531
3148.07	22.3041
3149.33	22.3925
