#Acq. time (s)=	45
#Accumulations=	2
#Range (cm-¹)=	200...3150
#Windows=	2
#Auto scanning=	Off
#Autofocus=	Off
#Macrospot=	Off
#AutoExposure=	Off
#Spike filter=	Multiple accum.
#Delay time (s)=	0
#Binning=	1
#Readout mode=	Signal
#DeNoise=	Off
#ICS correction=	On
#Dark correction=	Off
#Inst. Process=	Off
#Detector Gain=	Best Dynamic Range
#Detector ADC=	20 kHz       
#Detector temperature (°C)=	-69.85
#Instrument=	LabRAM HR Evol
#Detector=	Synapse
#Objective=	x100
#Grating=	600 gr/mm
#ND Filter=	100%
#Laser (nm)=	532 
#Hole=	100.021
#Range=	Auto
#Laser Pol.=	No
#Raman. Pol.=	No
#Laser Pol. (°)=	-0.0007625
#Raman Pol. (°)=	89.9995
#Collection=	Microscope
#StageXY=	Marzhauser
#StageZ=	Marzhauser
#X (µm)=	-1133.4
#Y (µm)=	1294.5
#Z (µm)=	578.05
#Full time(mm:ss)=	3:18
#Project=	
#Sample=	
#Site=	
#Title=	Mbcal_20_25_32_2x_45s_532 nm_x100_100%_600 gr_mm
#Remark=	
#Date=	18.07.2022 12:27
#Acquired=	18.07.2022 12:27:31
#Base:Fit=	10.08.2022 10:55:08
#Base:Sub=	10.08.2022 10:55:14
#Filter:Polynom=	16.08.2022 10:07:28
#AxisType[0]=Intens
#AxisUnit[0]=Cnt
#AxisType[1]=Spectr
#AxisUnit[1]=1/cm
200.419	45.8714
202.234	42.3074
204.048	37.5869
205.862	32.7474
207.678	28.183
209.491	24.7366
211.304	21.8641
213.116	19.1022
214.928	18.3284
216.742	17.1898
218.554	16.0424
220.365	14.0211
222.176	13.9938
223.986	13.0048
225.798	11.8838
227.608	10.3755
229.417	10.0383
231.226	9.34093
233.035	8.42355
234.843	8.30025
236.653	8.57922
238.46	7.35298
240.268	7.35456
242.074	6.58731
243.881	6.03769
245.687	5.66484
247.493	5.7361
249.298	6.49158
251.103	8.30581
252.908	9.17783
254.715	7.35804
256.519	6.42736
258.322	6.94866
260.126	7.72892
261.929	7.87482
263.731	8.38594
265.534	7.71096
267.336	9.36185
269.137	8.16526
270.938	8.81902
272.739	8.70063
274.54	7.94131
276.34	7.45976
278.14	6.91347
279.939	4.48105
281.739	3.33427
283.537	2.04021
285.336	0.828686
287.134	-0.00207499
288.932	-1.4014
290.729	-0.438161
292.526	-0.522973
294.323	0.500848
296.117	2.97786
297.913	3.93019
299.709	4.99707
301.504	5.55107
303.299	7.42974
305.093	8.85555
306.888	9.62481
308.682	11.2078
310.475	11.778
312.268	14.0555
314.059	14.8019
315.852	17.4931
317.644	20.2802
319.436	22.1359
321.227	23.6187
323.018	24.9827
324.807	26.4721
326.597	26.7989
328.387	28.3558
330.177	30.5354
331.967	31.6894
333.753	33.6724
335.542	34.3429
337.331	35.8306
339.119	37.1555
340.906	37.8008
342.691	36.4052
344.478	35.033
346.265	34.9306
348.051	36.2431
349.835	35.6652
351.621	35.1819
353.406	34.4585
355.189	31.7566
356.973	31.6921
358.757	30.0072
360.541	29.1501
362.323	26.5724
364.106	24.76
365.889	24.4197
367.669	22.0787
369.451	21.377
371.233	19.8984
373.012	19.5359
374.793	19.1206
376.574	18.2762
378.353	19.1433
380.133	19.8125
381.91	18.6215
383.69	19.2981
385.469	19.1145
387.245	18.2641
389.024	18.3071
390.8	17.8887
392.577	19.2198
394.353	18.8911
396.129	20.1559
397.906	20.1251
399.68	20.966
401.456	23.202
403.23	24.4117
405.005	24.8298
406.778	24.2898
408.552	23.4144
410.325	23.6101
412.099	23.8046
413.87	23.8066
415.643	24.5915
417.414	25.1042
419.187	24.0427
420.957	24.2874
422.728	23.7631
424.498	22.1283
426.269	22.5681
428.038	22.4128
429.806	22.1043
431.576	20.6948
433.344	20.6265
435.114	20.1555
436.881	19.3428
438.649	16.7312
440.416	16.2397
442.182	15.5747
443.949	15.1768
445.715	16.8588
447.48	16.2019
449.247	16.3207
451.011	17.1695
452.777	18.4032
454.541	18.2357
456.304	17.6736
458.069	18.3946
459.832	18.7683
461.594	19.3615
463.358	19.8207
465.119	20.8278
466.881	21.5153
468.642	21.1828
470.404	21.417
472.165	21.1835
473.925	21.1007
475.684	22.9843
477.445	22.8021
479.204	23.9548
480.963	25.1828
482.721	26.7006
484.481	29.1103
486.239	29.9118
487.996	31.6582
489.753	31.859
491.511	31.7376
493.268	31.6275
495.023	33.2414
496.779	32.9214
498.534	33.852
500.289	34.5598
502.046	34.8167
503.8	35.9393
505.554	36.3388
507.307	37.423
509.06	38.8749
510.813	38.8904
512.566	39.7695
514.32	40.8567
516.072	42.2005
517.823	42.823
519.574	42.1617
521.325	42.6464
523.076	42.9376
524.826	42.554
526.576	43.4587
528.325	44.9039
530.074	46.5694
531.823	46.7045
533.572	48.3083
535.32	47.2944
537.068	48.4659
538.815	49.4232
540.562	48.2986
542.309	48.7958
544.056	47.9615
545.802	47.4004
547.547	46.4283
549.293	45.3
551.038	44.9694
552.783	43.8064
554.527	42.4554
556.271	41.1266
558.015	39.2717
559.759	37.4378
561.502	37.1224
563.245	36.3232
564.987	33.5635
566.729	31.9827
568.471	30.4257
570.213	28.9203
571.954	26.4657
573.693	23.7917
575.433	19.8088
577.173	18.4395
578.913	16.4375
580.652	13.9634
582.392	12.6642
584.13	11.1289
585.867	11.6958
587.605	11.08
589.343	9.03891
591.08	7.29573
592.817	5.7744
594.552	4.48861
596.289	3.64409
598.025	3.5423
599.761	3.37949
601.496	2.33766
603.229	3.3653
604.964	2.91876
606.699	3.21896
608.433	4.6224
610.165	5.65993
611.898	6.28451
613.631	7.00202
615.364	7.4031
617.095	8.71041
618.827	8.64194
620.559	10.0444
622.288	9.75245
624.02	10.4567
625.75	10.7156
627.479	10.067
629.209	11.6039
630.939	11.2672
632.667	11.9912
634.396	12.789
636.125	13.2418
637.851	13.3563
639.58	13.7904
641.305	13.7829
643.033	12.0395
644.76	11.2673
646.485	11.4083
648.212	11.2874
649.936	10.2713
651.662	9.50424
653.388	9.2865
655.111	9.33007
656.836	9.22847
658.558	8.09909
660.283	7.0299
662.005	7.00353
663.728	7.62679
665.45	5.60545
667.173	4.54441
668.893	4.84445
670.616	4.92191
672.336	3.94292
674.057	2.78166
675.777	1.39307
677.498	1.02011
679.216	1.94358
680.937	3.57176
682.655	4.22328
684.375	5.16153
686.092	6.52256
687.809	7.51384
689.528	9.69807
691.244	10.9202
692.962	12.1875
694.678	12.7813
696.393	13.6168
698.111	14.5773
699.825	15.4205
701.54	17.5059
703.256	18.9227
704.97	19.994
706.685	20.6669
708.398	22.3546
710.111	23.7501
711.826	26.0763
713.538	27.9919
715.25	29.3917
716.961	29.9873
718.675	31.0738
720.386	31.5593
722.096	32.1846
723.808	33.0202
725.518	33.1813
727.228	32.1253
728.937	31.8292
730.648	32.2821
732.357	32.8755
734.065	33.3682
735.773	32.993
737.483	33.879
739.19	33.6788
740.897	34.1081
742.604	34.1422
744.31	34.2549
746.018	34.5975
747.724	35.1608
749.429	32.9798
751.134	33.4661
752.839	34.0309
754.544	35.5358
756.248	36.2893
757.953	37.6362
759.657	39.7235
761.36	41.0587
763.063	42.6221
764.765	45.2992
766.468	47.0373
768.169	46.9717
769.871	47.6809
771.572	48.7654
773.273	50.3074
774.976	51.3381
776.676	51.7835
778.376	52.9818
780.075	54.8536
781.775	56.8849
783.474	57.6747
785.172	58.9993
786.871	59.9993
788.569	59.37
790.266	59.9523
791.964	60.9945
793.661	62.2813
795.358	61.3762
797.054	61.903
798.75	62.5149
800.446	62.6519
802.141	62.3143
803.834	62.7744
805.529	61.8598
807.224	63.0643
808.918	62.7468
810.612	62.5044
812.305	61.4378
813.998	63.0146
815.691	62.404
817.384	63.089
819.076	63.7158
820.766	63.1756
822.458	64.0171
824.149	64.2822
825.84	66.8975
827.531	67.1929
829.221	68.9329
830.909	69.9143
832.599	70.2573
834.288	71.1021
835.977	74.2511
837.666	76.1978
839.353	79.399
841.041	80.4359
842.729	82.4195
844.416	83.3277
846.103	82.8441
847.788	82.5651
849.475	82.2216
851.161	81.5453
852.845	80.5388
854.53	80.0429
856.216	80.6433
857.901	82.2431
859.583	82.3464
861.268	81.2381
862.952	81.3281
864.633	80.1441
866.317	77.5488
868	74.8643
869.681	71.8121
871.363	70.9147
873.045	69.0995
874.725	68.0221
876.406	65.5274
878.088	63.3644
879.767	60.3297
881.447	59.5106
883.125	58.0128
884.805	55.897
886.483	53.7146
888.162	52.1831
889.841	48.7824
891.518	48.5134
893.196	46.0971
894.872	44.6286
896.55	43.1993
898.225	42.4887
899.902	40.6049
901.577	41.4223
903.254	41.6157
904.928	41.2247
906.604	41.3423
908.277	43.0228
909.952	44.4744
911.625	43.7642
913.3	45.66
914.972	46.1189
916.646	46.8824
918.318	48.2482
919.991	49.6635
921.662	48.7758
923.333	49.1261
925.005	48.3847
926.675	49.5048
928.347	49.8482
930.017	49.257
931.686	49.7831
933.357	48.9193
935.025	49.0083
936.693	48.5634
938.363	49.0681
940.031	50.5156
941.698	51.0474
943.367	49.632
945.034	47.6444
946.7	47.5926
948.368	45.9284
950.034	44.8234
951.699	44.4292
953.367	43.6588
955.031	43.4661
956.696	40.0997
958.36	37.0569
960.026	33.7181
961.689	32.1909
963.353	30.9328
965.016	31.7957
966.68	31.3429
968.343	31.2177
970.005	30.1428
971.666	30.1265
973.328	29.9115
974.991	30.8262
976.652	29.9535
978.312	29.5057
979.972	29.3021
981.632	28.9114
983.292	29.4196
984.953	30.0685
986.612	28.5786
988.27	27.614
989.929	26.8623
991.587	28.23
993.244	27.8571
994.902	28.4364
996.559	29.0022
998.216	28.6391
999.872	27.7731
1001.53	28.5368
1003.19	28.1258
1004.84	28.2981
1006.5	30.4013
1008.15	31.7724
1009.81	33.1995
1011.46	33.665
1013.11	34.4129
1014.77	35.4777
1016.42	36.0551
1018.07	37.6562
1019.73	39.5685
1021.38	41.7109
1023.03	42.7492
1024.68	44.1242
1026.34	44.5084
1027.99	46.7517
1029.64	47.3471
1031.29	47.146
1032.94	47.2574
1034.59	46.1428
1036.24	44.9244
1037.89	43.5196
1039.53	43.4966
1041.18	43.6656
1042.83	43.2291
1044.48	43.6261
1046.13	44.0075
1047.77	43.2273
1049.42	41.8477
1051.07	40.931
1052.71	39.1315
1054.36	38.4304
1056	36.6587
1057.65	35.2351
1059.3	33.8961
1060.94	33.286
1062.59	32.8377
1064.23	32.6826
1065.87	31.7719
1067.52	31.155
1069.16	30.5093
1070.8	29.5079
1072.44	30.4573
1074.09	31.1809
1075.73	30.1521
1077.37	30.4086
1079.01	28.6473
1080.65	28.4252
1082.29	28.9908
1083.93	29.0956
1085.57	28.4923
1087.21	30.2919
1088.85	31.5339
1090.49	31.9883
1092.13	32.3223
1093.77	33.3147
1095.41	34.8206
1097.04	35.7243
1098.68	35.5121
1100.32	36.8088
1101.95	38.619
1103.59	38.774
1105.23	39.7905
1106.86	40.8717
1108.5	40.6648
1110.13	41.1876
1111.77	40.5726
1113.4	39.9254
1115.04	39.7025
1116.67	39.6181
1118.31	38.987
1119.94	38.3709
1121.57	37.7849
1123.2	37.0689
1124.84	36.7847
1126.47	36.6243
1128.1	36.7098
1129.73	36.0138
1131.36	35.681
1132.99	34.701
1134.62	35.6866
1136.25	36.2123
1137.88	35.2737
1139.51	35.6467
1141.14	36.3108
1142.77	36.9193
1144.4	36.3611
1146.03	34.4777
1147.66	33.2028
1149.28	31.756
1150.91	30.7403
1152.54	27.6705
1154.16	27.3266
1155.79	24.7162
1157.42	23.0075
1159.04	21.0209
1160.67	19.2373
1162.29	18.1925
1163.92	16.9157
1165.54	14.6842
1167.17	13.3056
1168.79	13.362
1170.41	12.7382
1172.04	12.0862
1173.66	12.0212
1175.28	13.0382
1176.9	12.9773
1178.53	13.3141
1180.15	12.7412
1181.77	13.675
1183.39	13.527
1185.01	13.8213
1186.63	15.2075
1188.25	15.2926
1189.87	16.7656
1191.49	18.8428
1193.11	20.3017
1194.73	21.5409
1196.35	23.0953
1197.96	25.1024
1199.58	26.9276
1201.2	29.3325
1202.82	31.8059
1204.43	34.0265
1206.05	36.2797
1207.66	38.4817
1209.28	41.1058
1210.9	41.777
1212.51	44.5464
1214.13	47.8648
1215.74	50.9186
1217.36	52.8085
1218.97	54.1486
1220.58	56.4892
1222.2	57.5594
1223.81	58.3281
1225.42	59.6628
1227.04	60.8322
1228.65	63.4261
1230.26	64.6967
1231.87	65.954
1233.48	66.6011
1235.1	69.5009
1236.71	70.4905
1238.32	72.7069
1239.93	74.8345
1241.53	77.6442
1243.14	78.6297
1244.75	80.3176
1246.36	81.1641
1247.97	83.1045
1249.58	86.2935
1251.19	87.3507
1252.8	89.125
1254.4	91.59
1256.01	93.1251
1257.62	94.205
1259.22	96.068
1260.83	96.6612
1262.43	98.2935
1264.04	100.857
1265.64	103.564
1267.25	105.81
1268.85	107.156
1270.46	110.245
1272.06	112.484
1273.66	113.953
1275.27	116.393
1276.87	118.65
1278.48	120.542
1280.08	122.155
1281.68	123.787
1283.28	126.408
1284.88	127.698
1286.48	131.693
1288.08	134.15
1289.68	135.363
1291.28	137.076
1292.88	140.192
1294.48	142.307
1296.08	143.862
1297.68	145.857
1299.28	146.832
1300.88	147.745
1302.48	150.343
1304.07	152.986
1305.67	154.957
1307.27	157.176
1308.87	158.533
1310.46	159.317
1312.06	160.457
1313.65	162.584
1315.25	164.847
1316.85	166.27
1318.44	167.242
1320.03	168.703
1321.63	167.87
1323.22	167.526
1324.82	167.753
1326.41	167.152
1328	167.644
1329.6	167.383
1331.19	166.144
1332.78	165.672
1334.37	164.299
1335.96	162.612
1337.56	162.12
1339.15	161.447
1340.74	159.74
1342.33	158.481
1343.92	157.934
1345.51	156.232
1347.1	155.192
1348.69	153.852
1350.28	153.299
1351.86	151.066
1353.45	149.321
1355.04	147.824
1356.63	145.844
1358.21	143.367
1359.8	141.131
1361.39	138.974
1362.97	137.665
1364.56	135.299
1366.15	134.226
1367.73	130.913
1369.32	128.937
1370.9	127.312
1372.49	124.977
1374.07	120.54
1375.65	120.045
1377.24	117.358
1378.82	114.591
1380.41	112.909
1381.99	112.312
1383.57	109.934
1385.15	107.896
1386.73	107.51
1388.32	105.435
1389.9	104.312
1391.48	103.376
1393.06	103.276
1394.64	101.109
1396.22	100.78
1397.8	99.3918
1399.38	99.7434
1400.96	98.9851
1402.54	100.477
1404.11	101.61
1405.69	102.299
1407.27	103.787
1408.85	105.632
1410.43	108.591
1412	111.955
1413.58	115.292
1415.16	119.508
1416.73	123.562
1418.31	127.871
1419.88	132.535
1421.46	137.479
1423.03	143.896
1424.61	150.282
1426.18	156.551
1427.76	162.146
1429.33	167.896
1430.9	173.514
1432.48	180.088
1434.05	186.587
1435.62	191.245
1437.2	195.892
1438.77	201.019
1440.34	205.294
1441.91	209.85
1443.48	212.209
1445.05	215.029
1446.62	216.852
1448.19	218.601
1449.76	218.763
1451.33	217.91
1452.9	218.293
1454.47	220.646
1456.04	219.569
1457.61	219.907
1459.17	221.082
1460.74	221.45
1462.31	221.462
1463.88	221.678
1465.44	220.429
1467.01	218.908
1468.58	218.619
1470.14	216.178
1471.71	213.844
1473.27	211.057
1474.84	209.026
1476.4	205.255
1477.97	202.51
1479.53	199.888
1481.1	196.442
1482.66	191.167
1484.22	186.758
1485.78	181.701
1487.35	177.668
1488.91	173.259
1490.47	167.462
1492.03	162.238
1493.59	157.663
1495.16	152.642
1496.72	147.998
1498.28	143.773
1499.84	139.548
1501.4	136.354
1502.96	132.378
1504.52	127.862
1506.08	122.731
1507.64	118.042
1509.19	113.907
1510.75	109.263
1512.31	104.52
1513.87	99.0507
1515.42	94.8917
1516.98	91.2604
1518.54	86.5447
1520.1	81.8734
1521.65	77.9607
1523.21	73.6749
1524.76	69.7366
1526.32	67.7116
1527.87	64.3389
1529.43	62.1924
1530.98	62.6119
1532.54	62.6871
1534.09	63.9775
1535.64	64.4222
1537.2	64.2315
1538.75	65.2088
1540.3	65.9768
1541.85	67.1427
1543.41	67.8213
1544.96	69.3819
1546.51	70.1108
1548.06	69.9417
1549.61	72.1978
1551.16	73.1862
1552.71	72.8713
1554.26	73.5742
1555.81	74.5287
1557.36	74.5408
1558.91	74.698
1560.46	75.037
1562.01	75.8678
1563.56	75.5711
1565.1	77.6304
1566.65	78.8679
1568.2	80.6531
1569.75	82.7449
1571.29	84.9732
1572.84	85.972
1574.38	87.8273
1575.93	90.6628
1577.48	92.4985
1579.02	95.6807
1580.57	97.0982
1582.11	99.0183
1583.65	100.652
1585.2	102.71
1586.74	104.892
1588.29	107.795
1589.83	110.048
1591.37	112.017
1592.92	113.385
1594.46	114.162
1596	115.381
1597.54	116.441
1599.08	116.576
1600.62	116.972
1602.16	118.745
1603.7	118.76
1605.24	118.442
1606.78	119.37
1608.32	119.816
1609.86	120.506
1611.4	120.445
1612.94	118.322
1614.48	117.18
1616.02	117.548
1617.56	117.408
1619.09	117.389
1620.63	118.631
1622.17	119.306
1623.71	119.936
1625.24	121.284
1626.78	121.636
1628.31	121.481
1629.85	120.994
1631.39	122.564
1632.92	123.854
1634.46	124.465
1635.99	126.956
1637.52	127.648
1639.06	129.432
1640.59	131.251
1642.12	133.557
1643.66	134.523
1645.19	136.109
1646.72	137.361
1648.25	137.8
1649.79	137.889
1651.32	139.026
1652.85	140.641
1654.38	141.985
1655.91	142.686
1657.44	142.113
1658.97	141.625
1660.5	141.091
1662.03	140.36
1663.56	139.541
1665.09	138.442
1666.62	136.531
1668.15	133.801
1669.67	131.527
1671.2	128.478
1672.73	125.51
1674.26	121.496
1675.79	116.847
1677.31	113.504
1678.84	108.555
1680.36	102.725
1681.89	98.2103
1683.42	92.2556
1684.94	87.0973
1686.47	82.2558
1687.99	75.7655
1689.51	69.4666
1691.04	65.1477
1692.56	61.1111
1694.08	56.7321
1695.61	53.1729
1697.13	49.4654
1698.65	43.9384
1700.18	39.914
1701.7	36.8169
1703.22	33.2103
1704.74	30.4333
1706.26	26.9954
1707.78	24.9856
1709.3	21.7425
1710.82	19.9857
1712.35	18.4673
1713.86	16.3624
1715.39	14.7643
1716.9	12.2007
1718.42	10.4032
1719.94	8.64506
1721.46	7.55598
1722.98	6.59883
1724.5	5.57403
1726.01	5.11659
1727.53	5.80525
1729.05	6.38868
1730.56	6.34609
1732.08	5.06859
1733.6	4.70529
1735.11	4.07274
1736.63	5.24644
1738.14	6.0168
1739.66	5.91445
1741.17	6.95574
1742.69	7.09176
1744.2	6.26649
1745.71	6.50308
1747.23	6.04963
1748.74	6.41419
1750.25	6.96262
1751.77	6.545
1753.28	6.70465
1754.79	6.54145
1756.3	6.33173
1757.81	6.98045
1759.33	7.07643
1760.84	6.95092
1762.35	6.15648
1763.86	5.6388
1765.37	5.52036
1766.88	5.26949
1768.39	5.53816
1769.9	5.35613
1771.41	5.90108
1772.91	6.49629
1774.42	6.22217
1775.93	6.9331
1777.44	7.31353
1778.95	7.15193
1780.45	6.80616
1781.96	7.3342
1783.47	7.40358
1784.97	7.26713
1786.48	7.86052
1787.99	7.47992
1789.49	7.17165
1791	6.18705
1792.5	5.59888
1794.01	4.9907
1795.51	4.88778
1797.01	5.23456
1798.52	5.56455
1800.02	4.94756
1801.52	4.80123
1803.03	5.49841
1804.53	4.95555
1806.03	4.63615
1807.54	4.12492
1809.04	3.66897
1810.54	4.00679
1812.04	4.05433
1813.54	3.44479
1815.04	2.40515
1816.54	2.46868
1818.04	1.38775
1819.54	0.968564
1821.04	0.685683
1822.54	0.284745
1824.04	0.115732
1825.54	-0.751428
1827.04	-0.891382
1828.54	-0.97377
1830.03	-1.39074
1831.53	-1.50148
1833.03	-1.90582
1834.53	-3.01267
1836.02	-3.625
1837.52	-2.96041
1839.02	-2.30471
1840.51	-2.04206
1842.01	-1.0914
1843.5	-0.0461341
1845	-0.0170259
1846.49	0.604329
1847.99	1.41462
1849.48	0.994519
1850.98	1.74841
1852.47	3.03618
1853.96	3.30456
1855.46	4.05695
1856.95	5.41298
1858.44	5.80653
1859.94	6.71229
1861.43	8.08842
1862.92	8.25246
1864.41	8.71606
1865.9	9.20346
1867.39	10.6051
1868.88	12.1493
1870.37	13.7472
1871.86	14.1992
1873.35	13.982
1874.84	14.1273
1876.33	15.5464
1877.82	15.9982
1879.31	15.931
1880.8	15.8993
1882.29	15.9051
1882.58	14.6021
1884.08	14.7258
1885.57	14.434
1887.06	13.9595
1888.56	14.6073
1890.05	13.7625
1891.54	12.7213
1893.04	11.5363
1894.53	10.9114
1896.02	10.0894
1897.51	9.67509
1899	8.72505
1900.5	8.87797
1901.99	7.72792
1903.48	6.29707
1904.97	5.53697
1906.46	5.30838
1907.95	4.78966
1909.44	5.10872
1910.93	5.39843
1912.42	5.08648
1913.91	4.76367
1915.4	5.04815
1916.88	5.13148
1918.37	4.94778
1919.86	4.56293
1921.35	4.61137
1922.84	4.98492
1924.32	5.12732
1925.81	6.16384
1927.3	5.25392
1928.78	5.79373
1930.27	6.48778
1931.75	6.9609
1933.24	7.54698
1934.72	7.74433
1936.21	7.93429
1937.69	9.1673
1939.18	9.17112
1940.66	9.49637
1942.15	9.58929
1943.63	9.00468
1945.11	8.45114
1946.6	8.97853
1948.08	9.72629
1949.56	9.41417
1951.04	8.50785
1952.53	8.49823
1954.01	7.77003
1955.49	7.45588
1956.97	6.18948
1958.45	6.83002
1959.93	6.90052
1961.41	7.00973
1962.89	6.93266
1964.37	6.57433
1965.85	6.89052
1967.33	6.35343
1968.81	6.49828
1970.29	6.2463
1971.77	6.75875
1973.24	6.56531
1974.72	6.45514
1976.2	6.47615
1977.68	6.71416
1979.15	6.31871
1980.63	6.81793
1982.11	7.26407
1983.58	7.69931
1985.06	7.51513
1986.53	8.10139
1988.01	8.36758
1989.48	8.56918
1990.96	8.72958
1992.43	8.1132
1993.91	7.58396
1995.38	7.03175
1996.86	7.22667
1998.33	6.92713
1999.8	7.35623
2001.27	7.79589
2002.75	9.30131
2004.22	9.97226
2005.69	9.96934
2007.16	8.91117
2008.64	8.50975
2010.11	8.84826
2011.58	9.05278
2013.05	7.88578
2014.52	8.41256
2015.99	8.12289
2017.46	8.15446
2018.93	7.43106
2020.4	7.3955
2021.87	6.16556
2023.34	5.53898
2024.8	4.48638
2026.27	3.85418
2027.74	2.73298
2029.21	3.5303
2030.68	4.13234
2032.14	4.59465
2033.61	4.5858
2035.08	4.70207
2036.54	5.79205
2038.01	6.197
2039.48	5.81166
2040.94	6.06447
2042.41	6.6876
2043.87	7.56487
2045.34	8.24224
2046.8	8.44228
2048.27	8.40639
2049.73	9.18766
2051.19	9.56217
2052.66	10.1344
2054.12	11.3129
2055.58	11.2651
2057.05	11.3058
2058.51	12.3458
2059.97	14.0493
2061.43	14.347
2062.9	14.4946
2064.36	14.8014
2065.82	13.7694
2067.28	13.6905
2068.74	14.831
2070.2	15.6867
2071.66	15.8185
2073.12	16.5996
2074.58	16.9952
2076.04	16.6896
2077.5	16.6645
2078.95	17.3237
2080.41	17.6329
2081.87	19.2712
2083.33	20.3608
2084.79	20.6854
2086.24	20.5606
2087.7	20.9093
2089.16	21.3005
2090.61	22.0879
2092.07	21.7353
2093.53	22.4198
2094.98	22.5853
2096.44	22.6953
2097.89	23.1845
2099.35	24.7579
2100.8	26.0191
2102.26	26.8585
2103.71	26.5547
2105.16	26.2957
2106.62	27.1689
2108.07	28.9938
2109.53	30.0713
2110.98	30.2763
2112.43	31.4889
2113.88	33.6609
2115.33	34.2549
2116.79	35.8249
2118.24	37.1556
2119.69	38.6573
2121.14	39.66
2122.59	41.7906
2124.04	43.4505
2125.49	44.7192
2126.94	46.2796
2128.39	48.5376
2129.84	51.235
2131.29	52.9311
2132.74	54.0522
2134.19	55.705
2135.63	57.4353
2137.08	58.8561
2138.53	59.8842
2139.98	62.3661
2141.43	64.5492
2142.87	65.0888
2144.32	67.5428
2145.77	69.045
2147.21	70.8355
2148.66	73.6692
2150.1	76.1435
2151.55	78.2241
2152.99	79.8795
2154.44	82.9493
2155.88	85.0448
2157.33	87.0754
2158.77	88.8413
2160.21	90.739
2161.66	92.8197
2163.1	94.8477
2164.55	96.2433
2165.99	97.0034
2167.43	97.8328
2168.87	98.2593
2170.31	99.968
2171.76	100.302
2173.2	100.443
2174.64	101.087
2176.08	101.706
2177.52	102.135
2178.96	102.567
2180.4	103.047
2181.84	101.625
2183.28	101.043
2184.72	100.335
2186.16	98.96
2187.6	96.5832
2189.04	95.5188
2190.47	93.7348
2191.91	92.5417
2193.35	90.4204
2194.79	88.3269
2196.23	86.3294
2197.66	83.9133
2199.1	82.7179
2200.54	80.2059
2201.97	78.4605
2203.41	75.4517
2204.84	73.7895
2206.28	71.4927
2207.71	68.4637
2209.15	64.5823
2210.58	62.4241
2212.02	60.0338
2213.45	56.9217
2214.89	54.4332
2216.32	53.5789
2217.75	51.2763
2219.19	50.1642
2220.62	48.7645
2222.05	47.7226
2223.48	47.3531
2224.92	46.6164
2226.35	45.9341
2227.78	44.4199
2229.21	42.8483
2230.64	40.4194
2232.07	38.823
2233.5	37.7341
2234.93	36.5786
2236.36	34.6522
2237.79	32.9659
2239.22	31.7872
2240.65	31.2202
2242.08	30.6169
2243.51	30.2422
2244.94	29.0494
2246.37	29.0909
2247.79	28.4605
2249.22	27.1805
2250.65	26.7434
2252.08	25.7423
2253.5	24.5228
2254.93	23.7152
2256.36	23.5046
2257.78	22.8908
2259.21	22.2893
2260.63	21.6722
2262.06	20.9
2263.48	20.0821
2264.91	19.0517
2266.33	18.5724
2267.76	18.3163
2269.18	18.3093
2270.6	18.4856
2272.03	17.4488
2273.45	17.4706
2274.87	16.7129
2276.3	16.8558
2277.72	16.0445
2279.14	15.8379
2280.56	15.31
2281.98	15.1857
2283.41	14.9915
2284.83	14.6596
2286.25	15.646
2287.67	15.957
2289.09	15.0512
2290.51	14.6513
2291.93	14.1065
2293.35	13.6842
2294.77	12.8904
2296.19	11.4517
2297.61	10.5234
2299.02	10.2655
2300.44	9.98963
2301.86	9.32624
2303.28	9.71955
2304.7	9.74774
2306.11	9.05055
2307.53	8.89775
2308.95	8.80457
2310.36	8.79008
2311.78	9.47567
2313.2	9.06178
2314.61	9.89084
2316.03	9.64601
2317.44	11.0864
2318.86	10.8163
2320.27	10.1793
2321.69	10.2064
2323.1	9.75847
2324.51	10.3056
2325.93	9.96654
2327.34	10.2903
2328.76	9.68333
2330.17	9.14419
2331.58	8.78434
2332.99	8.61367
2334.41	7.76323
2335.82	7.20124
2337.23	6.85182
2338.64	6.25089
2340.05	6.52326
2341.46	6.18538
2342.87	5.81753
2344.28	5.63206
2345.69	5.30044
2347.1	4.84828
2348.51	4.24288
2349.92	3.59392
2351.33	2.96601
2352.74	2.45349
2354.15	2.85155
2355.56	2.40872
2356.97	2.64113
2358.37	1.78614
2359.78	1.12122
2361.19	0.538505
2362.6	-0.216588
2364	-0.212856
2365.41	-0.34219
2366.82	0.0950739
2368.22	0.46608
2369.63	0.408197
2371.03	-0.139491
2372.44	-0.562434
2373.84	0.021997
2375.25	-0.439868
2376.65	-0.539
2378.06	-0.514084
2379.46	0.0817069
2380.86	-0.0829047
2382.27	-0.73382
2383.67	-0.523186
2385.07	0.689137
2386.48	1.13898
2387.88	1.61057
2389.28	0.775036
2390.69	0.155408
2392.09	0.919508
2393.49	1.71789
2394.89	2.02108
2396.29	0.975129
2397.69	1.21856
2399.09	0.696172
2400.49	0.97834
2401.89	0.784312
2403.29	0.472364
2404.69	0.272181
2406.09	1.06181
2407.49	1.42114
2408.89	1.23761
2410.29	1.81054
2411.69	1.35229
2413.08	1.11026
2414.48	0.996108
2415.88	1.40892
2417.28	1.59147
2418.67	1.57969
2420.07	1.54703
2421.47	1.66373
2422.86	2.1608
2424.26	1.59536
2425.65	1.49914
2427.05	1.19875
2428.45	0.144924
2429.84	0.283434
2431.23	0.152804
2432.63	0.176687
2434.02	0.168424
2435.42	-0.118916
2436.81	0.598653
2438.2	0.800446
2439.6	0.621648
2440.99	1.34557
2442.38	1.5102
2443.78	1.6774
2445.17	1.68258
2446.56	2.54828
2447.95	2.39359
2449.34	2.181
2450.73	1.7747
2452.13	1.95582
2453.52	2.70247
2454.91	3.01449
2456.3	2.64608
2457.69	1.89498
2459.08	1.38056
2460.47	1.76232
2461.85	2.20424
2463.24	1.62798
2464.63	1.22966
2466.02	1.32431
2467.41	2.1819
2468.8	1.85835
2470.19	2.75078
2471.57	2.55158
2472.96	1.83496
2474.35	1.74413
2475.73	1.16651
2477.12	0.287302
2478.51	0.73892
2479.89	0.944256
2481.28	0.943791
2482.66	1.78115
2484.05	2.11803
2485.43	1.9098
2486.82	2.01518
2488.2	2.29337
2489.59	2.24132
2490.97	1.73285
2492.35	1.56091
2493.74	0.915444
2495.12	1.15699
2496.5	1.13145
2497.89	1.98462
2499.27	2.47607
2500.65	2.36343
2502.03	2.49168
2503.42	2.03296
2504.8	2.12998
2506.18	2.84475
2507.56	3.62758
2508.94	3.63189
2510.32	3.4465
2511.7	2.99265
2513.08	3.28905
2514.46	3.45208
2515.84	3.21419
2517.22	2.53426
2518.6	2.54552
2519.98	3.07136
2521.36	3.04629
2522.73	2.74453
2524.11	2.66002
2525.49	2.99782
2526.87	2.87137
2528.25	2.93882
2529.62	3.02643
2531	2.63105
2532.38	2.89883
2533.75	3.26607
2535.13	3.4924
2536.5	3.21223
2537.88	2.78619
2539.25	3.3051
2540.63	2.60048
2542.01	2.97695
2543.38	3.89563
2544.75	4.68995
2546.13	5.39343
2547.5	5.54129
2548.88	5.31644
2550.25	5.85386
2551.62	5.87461
2553	5.6133
2554.37	5.14514
2555.74	5.53917
2557.11	4.45895
2558.49	3.98105
2559.86	3.67688
2561.23	3.92297
2562.6	4.23449
2563.97	3.86673
2565.34	4.07346
2566.71	4.21125
2568.08	3.32213
2569.45	3.914
2570.82	3.50035
2572.19	3.13167
2573.56	4.3106
2574.93	4.294
2576.3	4.74675
2577.67	3.67946
2579.03	3.05614
2580.4	2.84439
2581.77	2.79981
2583.14	2.78447
2584.5	3.19743
2585.87	3.75028
2587.24	3.78381
2588.6	3.75029
2589.97	3.54035
2591.34	3.70075
2592.7	3.6738
2594.07	3.99242
2595.43	2.88885
2596.8	2.42449
2598.16	2.88186
2599.53	3.50718
2600.89	4.04007
2602.26	4.05422
2603.62	3.59358
2604.98	3.80577
2606.35	4.09099
2607.71	4.84711
2609.07	4.64036
2610.44	4.46626
2611.8	4.4576
2613.16	3.97865
2614.52	3.60221
2615.88	3.49386
2617.25	3.74292
2618.61	3.96906
2619.97	3.38067
2621.33	3.4265
2622.69	2.45542
2624.05	3.0077
2625.41	3.64504
2626.77	4.89854
2628.13	5.10962
2629.49	5.75627
2630.85	6.46724
2632.21	6.18309
2633.56	6.74408
2634.92	7.17718
2636.28	7.87035
2637.64	8.57702
2639	9.09404
2640.35	9.51958
2641.71	10.6792
2643.07	9.57539
2644.42	10.6278
2645.78	10.5613
2647.14	10.9337
2648.49	11.4
2649.85	12.2348
2651.2	12.9422
2652.56	12.6624
2653.91	12.1856
2655.27	11.9746
2656.62	11.6711
2657.98	12.4414
2659.33	12.5943
2660.68	12.2271
2662.04	11.9489
2663.39	11.0561
2664.74	11.9372
2666.1	11.9809
2667.45	11.8956
2668.8	11.053
2670.15	10.6779
2671.5	10.1233
2672.86	9.13292
2674.21	8.44258
2675.56	8.18698
2676.91	7.76646
2678.26	7.27106
2679.61	7.89724
2680.96	7.30419
2682.31	7.02226
2683.66	6.35276
2685.01	6.10082
2686.36	5.99742
2687.71	5.43408
2689.06	5.99016
2690.4	6.46307
2691.75	7.59566
2693.1	7.96407
2694.45	8.57891
2695.8	8.94776
2697.14	9.22704
2698.49	9.526
2699.84	9.62485
2701.18	10.4987
2702.53	11.9175
2703.88	12.2473
2705.22	12.9688
2706.57	13.9259
2707.91	15.069
2709.26	16.2679
2710.6	16.8911
2711.95	18.4037
2713.29	18.5291
2714.64	18.346
2715.98	19.3239
2717.32	19.3643
2718.67	19.6774
2720.01	19.3011
2721.35	19.593
2722.7	20.3394
2724.04	20.5535
2725.38	21.3325
2726.72	19.9773
2728.06	19.6744
2729.4	18.9744
2730.75	18.703
2732.09	19.2394
2733.43	18.8826
2734.77	18.9822
2736.11	18.5716
2737.45	18.1711
2738.79	17.3844
2740.13	16.2317
2741.47	16.0853
2742.81	15.361
2744.15	14.4535
2745.48	13.6309
2746.82	12.8645
2748.16	11.465
2749.5	11.3483
2750.84	10.1798
2752.17	9.37229
2753.51	8.76064
2754.85	8.24043
2756.19	7.90271
2757.52	7.49892
2758.86	7.12654
2760.19	6.60377
2761.53	6.10107
2762.86	5.46702
2764.2	4.89529
2765.54	5.58315
2766.87	5.55515
2768.2	5.58232
2769.54	5.89105
2770.87	5.78442
2772.21	6.48171
2773.54	6.43467
2774.88	5.68881
2776.21	4.76449
2777.54	4.18307
2778.87	3.36457
2780.21	2.1782
2781.54	2.44329
2782.87	3.00876
2784.2	1.64445
2785.53	1.58075
2786.87	0.708317
2788.2	0.954359
2789.53	1.24727
2790.86	0.614578
2792.19	0.103317
2793.52	-0.76363
2794.85	-0.186951
2796.18	0.0702887
2797.51	0.596783
2798.84	0.34833
2800.17	0.0274904
2801.49	-0.388317
2802.82	-1.07589
2804.15	-1.37856
2805.48	-1.92074
2806.81	-2.38861
2808.13	-3.25693
2809.46	-3.63209
2810.79	-4.4444
2812.12	-4.53418
2813.44	-4.87369
2814.77	-4.66974
2816.09	-3.69317
2817.42	-3.0224
2818.75	-1.39558
2820.07	1.0494
2821.4	3.61748
2822.72	6.96435
2824.05	10.3435
2825.37	13.505
2826.7	16.4771
2828.02	20.5962
2829.35	24.4933
2830.67	29.1638
2831.99	34.1071
2833.31	38.6286
2834.64	43.3016
2835.96	48.0988
2837.28	52.9126
2838.61	57.1958
2839.93	63.6115
2841.25	70.1436
2842.57	77.8899
2843.89	84.91
2845.21	92.5437
2846.53	101.124
2847.85	110.376
2849.17	118.412
2850.49	127.324
2851.81	136.518
2853.13	145.189
2854.45	154.723
2855.77	163.463
2857.09	172.757
2858.41	181.536
2859.73	190.778
2861.05	199.384
2862.36	207.083
2863.68	214.449
2865	221.708
2866.32	229.463
2867.64	236.595
2868.95	243.184
2870.27	249.63
2871.59	255.375
2872.9	261.081
2874.22	265.62
2875.53	271.516
2876.85	276.004
2878.16	281.571
2879.48	286.38
2880.79	292.268
2882.11	298.091
2883.42	303.604
2884.74	309.569
2886.05	315.069
2887.36	319.908
2888.68	324.747
2889.99	328.972
2891.3	333.537
2892.62	338.534
2893.93	342.608
2895.24	347.242
2896.55	353.297
2897.86	359.027
2899.18	365.092
2900.49	371.092
2901.8	378.042
2903.11	386.152
2904.42	395.522
2905.73	405.84
2907.04	414.475
2908.35	423.518
2909.66	433.269
2910.97	444.495
2912.28	455.492
2913.59	465.224
2914.9	475.43
2916.21	485.225
2917.51	493.819
2918.82	503.207
2920.13	512.026
2921.44	519.075
2922.74	525.714
2924.05	531.388
2925.36	536.361
2926.67	539.236
2927.97	542.199
2929.28	544.101
2930.59	544.719
2931.89	544.645
2933.2	544.231
2934.5	541.97
2935.81	538.503
2937.11	534.65
2938.42	529.5
2939.72	522.407
2941.02	515.806
2942.33	508.033
2943.63	500.235
2944.94	491.377
2946.24	482.769
2947.54	472.42
2948.85	462.38
2950.15	451.789
2951.45	439.795
2952.75	428.484
2954.05	417.495
2955.36	406.917
2956.66	395.675
2957.96	384.462
2959.26	373.336
2960.56	363.73
2961.86	355.263
2963.16	346.194
2964.46	337.376
2965.76	329.008
2967.06	322.024
2968.36	314.571
2969.66	306.991
2970.96	299.352
2972.26	292.113
2973.56	285.572
2974.85	279.779
2976.15	273.667
2977.45	266.556
2978.75	259.727
2980.05	252.999
2981.34	245.045
2982.64	237.916
2983.94	229.978
2985.23	221.587
2986.53	213.303
2987.83	205.206
2989.12	196.973
2990.42	188.378
2991.71	179.3
2993.01	171.626
2994.3	163.278
2995.6	154.773
2996.89	146.551
2998.19	138.347
2999.48	128.722
3000.77	120.446
3002.07	112.013
3003.36	103.022
3004.65	94.1592
3005.95	86.8533
3007.24	78.8848
3008.53	71.4167
3009.82	64.5157
3011.12	58.3607
3012.41	52.2083
3013.7	46.6074
3014.99	40.7359
3016.28	35.7176
3017.57	31.5955
3018.86	27.3116
3020.15	24.2226
3021.44	19.9089
3022.73	16.8458
3024.02	15.2554
3025.31	13.7041
3026.6	12.7328
3027.89	10.7109
3029.18	9.43897
3030.47	9.35631
3031.76	8.32289
3033.04	6.44042
3034.33	5.97764
3035.62	6.61025
3036.91	7.08608
3038.19	7.50607
3039.48	7.81047
3040.77	8.38981
3042.05	8.80001
3043.34	8.90514
3044.63	8.90139
3045.91	9.54938
3047.2	10.4797
3048.48	11.0465
3049.77	12.3242
3051.05	13.2278
3052.34	14.1142
3053.62	15.0323
3054.91	15.5929
3056.19	15.8786
3057.48	16.639
3058.76	17.0826
3060.04	17.1777
3061.33	17.3403
3062.61	17.7731
3063.89	17.3387
3065.17	17.5575
3066.46	17.5653
3067.74	17.1771
3069.02	17.0121
3070.3	16.7991
3071.59	16.4639
3072.87	15.7665
3074.15	14.7422
3075.43	13.8924
3076.71	12.8217
3077.99	12.2631
3079.27	11.3649
3080.55	10.2181
3081.83	8.84549
3083.11	7.84511
3084.39	7.41039
3085.67	6.41846
3086.94	5.77119
3088.22	5.64367
3089.5	4.46347
3090.78	3.51092
3092.06	3.14882
3093.34	2.18725
3094.61	1.3454
3095.89	0.0290172
3097.17	0.174256
3098.44	0.737704
3099.72	1.41417
3101	1.4069
3102.27	1.61291
3103.55	1.88164
3104.82	2.71113
3106.1	3.12827
3107.38	3.23628
3108.65	4.52805
3109.93	5.13967
3111.2	5.85311
3112.47	7.31123
3113.75	8.69427
3115.02	9.974
3116.3	11.3726
3117.57	11.9229
3118.84	13.0881
3120.12	14.4377
3121.39	15.8901
3122.66	17.7411
3123.93	19.039
3125.2	20.2777
3126.48	22.3853
3127.75	23.6861
3129.02	25.6183
3130.29	27.3405
3131.56	28.1261
3132.83	29.7624
3134.1	31.3607
3135.37	33.1082
3136.64	34.3048
3137.91	36.3117
3139.18	38.2873
3140.45	40.0289
3141.72	41.636
3142.99	42.8798
3144.26	44.6692
3145.53	46.5776
3146.8	48.0539
3148.07	49.6156
3149.33	51.0468
