#Acq. time (s)=	45
#Accumulations=	2
#Range (cm-¹)=	200...3150
#Windows=	2
#Auto scanning=	Off
#Autofocus=	Off
#Macrospot=	Off
#AutoExposure=	Off
#Spike filter=	Multiple accum.
#Delay time (s)=	0
#Binning=	1
#Readout mode=	Signal
#DeNoise=	Off
#ICS correction=	On
#Dark correction=	Off
#Inst. Process=	Off
#Detector Gain=	Best Dynamic Range
#Detector ADC=	20 kHz       
#Detector temperature (°C)=	-69.85
#Instrument=	LabRAM HR Evol
#Detector=	Synapse
#Objective=	x100
#Grating=	600 gr/mm
#ND Filter=	100%
#Laser (nm)=	532 
#Hole=	100.021
#Range=	Auto
#Laser Pol.=	No
#Raman. Pol.=	No
#Laser Pol. (°)=	-0.0007625
#Raman Pol. (°)=	89.9995
#Collection=	Microscope
#StageXY=	Marzhauser
#StageZ=	Marzhauser
#X (µm)=	-1186.8
#Y (µm)=	1277.3
#Z (µm)=	577.8
#Full time(mm:ss)=	3:18
#Project=	
#Sample=	
#Site=	
#Title=	Mbcal_20_25_21_2x_45s_532 nm_x100_100%_600 gr_mm
#Remark=	
#Date=	18.07.2022 11:02
#Acquired=	18.07.2022 11:02:05
#Base:Fit=	10.08.2022 10:55:08
#Base:Sub=	10.08.2022 10:55:14
#Filter:Polynom=	16.08.2022 10:07:28
#AxisType[0]=Intens
#AxisUnit[0]=Cnt
#AxisType[1]=Spectr
#AxisUnit[1]=1/cm
200.419	25.3371
202.234	20.2548
204.048	16.1794
205.862	13.1138
207.678	9.70853
209.491	7.46346
211.304	6.39454
213.116	5.73023
214.928	5.28682
216.742	4.49701
218.554	4.38522
220.365	3.83364
222.176	3.03267
223.986	3.90167
225.798	3.11028
227.608	3.76946
229.417	4.97154
231.226	3.44461
233.035	3.44602
234.843	2.90701
236.653	2.84868
238.46	3.22266
240.268	3.08101
242.074	3.60607
243.881	3.38664
245.687	2.39926
247.493	2.88524
249.298	3.61805
251.103	4.84063
252.908	6.05026
254.715	6.30066
256.519	6.51136
258.322	6.21935
260.126	5.2726
261.929	5.62571
263.731	6.58563
265.534	6.12762
267.336	6.25593
269.137	7.36346
270.938	6.89815
272.739	5.93176
274.54	5.33671
276.34	4.46478
278.14	4.39964
279.939	3.98091
281.739	2.50608
283.537	2.03981
285.336	1.32318
287.134	0.366092
288.932	0.811771
290.729	1.71483
292.526	2.47908
294.323	2.76111
296.117	3.94895
297.913	6.26748
299.709	6.90549
301.504	8.7782
303.299	10.2115
305.093	11.4838
306.888	11.555
308.682	12.7462
310.475	13.1826
312.268	14.3786
314.059	15.4565
315.852	15.8003
317.644	17.4886
319.436	17.987
321.227	17.2497
323.018	18.7929
324.807	19.3605
326.597	20.0562
328.387	20.5705
330.177	20.4319
331.967	20.9806
333.753	20.7516
335.542	20.845
337.331	21.6123
339.119	21.428
340.906	21.3115
342.691	21.4862
344.478	21.0513
346.265	20.2608
348.051	19.8377
349.835	19.9353
351.621	19.5904
353.406	19.6071
355.189	17.6688
356.973	18.0462
358.757	17.247
360.541	14.8204
362.323	12.8852
364.106	11.8264
365.889	10.7371
367.669	9.92778
369.451	8.65945
371.233	7.27611
373.012	7.15426
374.793	5.63525
376.574	5.07255
378.353	5.5349
380.133	5.51653
381.91	5.71267
383.69	6.598
385.469	7.30948
387.245	6.71573
389.024	7.04502
390.8	7.74886
392.577	6.97342
394.353	5.28951
396.129	3.67908
397.906	4.01277
399.68	4.02504
401.456	5.46517
403.23	4.75322
405.005	4.84743
406.778	4.51058
408.552	4.03898
410.325	4.18592
412.099	4.98691
413.87	5.7983
415.643	5.52366
417.414	6.29656
419.187	6.55849
420.957	6.5764
422.728	6.56113
424.498	5.66288
426.269	5.34395
428.038	4.79983
429.806	5.03082
431.576	5.86603
433.344	5.97691
435.114	5.8808
436.881	6.38771
438.649	7.2825
440.416	7.333
442.182	8.03886
443.949	8.26384
445.715	8.58327
447.48	7.20266
449.247	6.82059
451.011	7.02558
452.777	7.03781
454.541	8.2469
456.304	8.93465
458.069	8.20716
459.832	8.04713
461.594	7.80717
463.358	8.22784
465.119	10.4139
466.881	11.394
468.642	12.5195
470.404	13.2895
472.165	13.1853
473.925	12.8555
475.684	13.6655
477.445	15.2724
479.204	16.4996
480.963	16.2148
482.721	17.6127
484.481	18.9432
486.239	20.9811
487.996	22.1026
489.753	22.5338
491.511	22.3228
493.268	23.0751
495.023	24.2879
496.779	24.9394
498.534	26.415
500.289	26.5032
502.046	26.877
503.8	26.8628
505.554	28.0218
507.307	27.9237
509.06	28.3762
510.813	29.1565
512.566	28.1857
514.32	28.404
516.072	28.888
517.823	29.7787
519.574	31.4483
521.325	32.3056
523.076	33.8936
524.826	34.7047
526.576	35.2815
528.325	34.6246
530.074	35.534
531.823	36.3643
533.572	36.5873
535.32	36.9989
537.068	37.3913
538.815	36.9667
540.562	37.0857
542.309	37.1022
544.056	36.3741
545.802	34.8342
547.547	34.832
549.293	34.689
551.038	33.7685
552.783	33.6772
554.527	32.1856
556.271	31.0538
558.015	30.2987
559.759	29.6571
561.502	29.823
563.245	30.2452
564.987	29.049
566.729	28.3392
568.471	26.1846
570.213	25.4219
571.954	23.7781
573.693	22.1587
575.433	20.1008
577.173	18.6091
578.913	17.6449
580.652	16.8981
582.392	16.2547
584.13	15.53
585.867	15.089
587.605	13.4648
589.343	13.6622
591.08	13.297
592.817	12.4069
594.552	12.8361
596.289	13.3751
598.025	12.5882
599.761	12.8758
601.496	13.9771
603.229	15.7952
604.964	16.6712
606.699	17.9567
608.433	18.9005
610.165	19.4736
611.898	19.0699
613.631	20.5472
615.364	21.0968
617.095	22.7661
618.827	22.9168
620.559	24.2299
622.288	24.6309
624.02	25.8662
625.75	26.5875
627.479	28.255
629.209	29.1773
630.939	29.964
632.667	30.1432
634.396	31.6818
636.125	32.5127
637.851	31.7419
639.58	33.0015
641.305	33.2894
643.033	34.5406
644.76	36.2919
646.485	37.7774
648.212	38.7379
649.936	38.5014
651.662	37.8655
653.388	37.5458
655.111	37.0692
656.836	37.985
658.558	38.0614
660.283	38.4414
662.005	39.7463
663.728	40.028
665.45	39.8544
667.173	40.2569
668.893	39.455
670.616	39.0452
672.336	37.3241
674.057	37.017
675.777	37.4985
677.498	37.7634
679.216	37.9871
680.937	38.6445
682.655	38.8506
684.375	38.4682
686.092	40.2155
687.809	40.0112
689.528	40.6058
691.244	40.9064
692.962	40.5127
694.678	41.0236
696.393	40.3898
698.111	40.1154
699.825	40.1821
701.54	40.0073
703.256	41.0843
704.97	42.1566
706.685	43.5666
708.398	43.2462
710.111	44.1462
711.826	45.2167
713.538	46.3454
715.25	46.7246
716.961	47.1188
718.675	48.8431
720.386	49.0785
722.096	48.9812
723.808	49.4293
725.518	50.1541
727.228	51.7498
728.937	52.1506
730.648	52.8485
732.357	53.8595
734.065	54.5307
735.773	54.6821
737.483	56.1447
739.19	57.6358
740.897	59.6744
742.604	61.6521
744.31	62.2422
746.018	63.562
747.724	64.0662
749.429	64.4815
751.134	65.5289
752.839	67.6009
754.544	69.0719
756.248	69.8153
757.953	71.1136
759.657	74.029
761.36	76.0695
763.063	77.6498
764.765	78.9702
766.468	80.5432
768.169	82.3675
769.871	83.583
771.572	86.0761
773.273	87.2846
774.976	89.4951
776.676	90.6421
778.376	91.2128
780.075	92.9573
781.775	93.4734
783.474	94.1861
785.172	95.7404
786.871	97.2346
788.569	98.355
790.266	100.31
791.964	100.886
793.661	101.995
795.358	103.728
797.054	104.793
798.75	105.409
800.446	105.866
802.141	106.663
803.834	107.372
805.529	106.866
807.224	107.548
808.918	106.526
810.612	107.106
812.305	107.703
813.998	105.727
815.691	106.228
817.384	105.643
819.076	105.352
820.766	105.458
822.458	106.084
824.149	105.359
825.84	104.669
827.531	104.998
829.221	104.988
830.909	105.382
832.599	106.359
834.288	106.544
835.977	106.38
837.666	106.175
839.353	105.659
841.041	104.811
842.729	104.62
844.416	105.462
846.103	104.077
847.788	102.964
849.475	102.467
851.161	101.801
852.845	101.746
854.53	101.036
856.216	101.045
857.901	100.409
859.583	99.6353
861.268	98.3137
862.952	97.0496
864.633	97.1977
866.317	96.2752
868	95.8458
869.681	95.3216
871.363	93.9024
873.045	92.6325
874.725	92.8642
876.406	90.9217
878.088	90.159
879.767	88.9789
881.447	87.1511
883.125	86.2101
884.805	83.7928
886.483	81.4122
888.162	79.8298
889.841	78.5072
891.518	76.8706
893.196	75.0037
894.872	74.1646
896.55	72.0449
898.225	71.3806
899.902	71.7706
901.577	71.6879
903.254	70.9838
904.928	70.6954
906.604	70.8593
908.277	70.7124
909.952	71.6202
911.625	72.3281
913.3	72.2797
914.972	72.7945
916.646	71.3066
918.318	70.8539
919.991	72.5948
921.662	72.9909
923.333	73.4024
925.005	73.4489
926.675	73.2863
928.347	72.1076
930.017	70.3616
931.686	70.8299
933.357	71.3962
935.025	71.5827
936.693	71.8473
938.363	71.8385
940.031	72.9509
941.698	72.7257
943.367	71.973
945.034	71.0234
946.7	69.4058
948.368	69.0832
950.034	67.6883
951.699	67.3841
953.367	66.0808
955.031	64.757
956.696	64.0611
958.36	63.8181
960.026	60.6565
961.689	58.2629
963.353	57.5448
965.016	56.6163
966.68	55.7788
968.343	55.3038
970.005	56.1438
971.666	57.5155
973.328	56.8973
974.991	56.8149
976.652	55.5873
978.312	55.8699
979.972	55.7626
981.632	55.6323
983.292	55.8834
984.953	55.8984
986.612	55.7739
988.27	56.4476
989.929	57.437
991.587	56.5143
993.244	57.0241
994.902	57.041
996.559	56.609
998.216	56.5958
999.872	56.2392
1001.53	57.6192
1003.19	57.8211
1004.84	56.4488
1006.5	56.0687
1008.15	56.3703
1009.81	54.7586
1011.46	54.4547
1013.11	56.7238
1014.77	56.9125
1016.42	57.2688
1018.07	56.8595
1019.73	56.3991
1021.38	55.6211
1023.03	55.5348
1024.68	55.2392
1026.34	54.5172
1027.99	54.25
1029.64	54.819
1031.29	55.5975
1032.94	56.5918
1034.59	56.5847
1036.24	55.2805
1037.89	54.4118
1039.53	53.9259
1041.18	52.4273
1042.83	51.3287
1044.48	52.3443
1046.13	53.2914
1047.77	53.3847
1049.42	53.5609
1051.07	54.7208
1052.71	54.9794
1054.36	53.9892
1056	52.5918
1057.65	51.7721
1059.3	51.0046
1060.94	51.2926
1062.59	50.5106
1064.23	51.4251
1065.87	51.4916
1067.52	50.3355
1069.16	49.6677
1070.8	48.1412
1072.44	48.3493
1074.09	47.2936
1075.73	46.7574
1077.37	45.2586
1079.01	44.4602
1080.65	45.2339
1082.29	45.5573
1083.93	44.6223
1085.57	44.5074
1087.21	44.2362
1088.85	44.6818
1090.49	44.3346
1092.13	43.677
1093.77	45.6267
1095.41	46.3292
1097.04	45.8293
1098.68	46.5241
1100.32	45.8367
1101.95	46.5732
1103.59	47.0229
1105.23	47.8277
1106.86	48.1505
1108.5	48.1206
1110.13	48.9086
1111.77	49.1197
1113.4	48.3971
1115.04	48.459
1116.67	46.6152
1118.31	45.7459
1119.94	45.3968
1121.57	44.8752
1123.2	44.1728
1124.84	43.7395
1126.47	43.5093
1128.1	42.252
1129.73	42.051
1131.36	40.1968
1132.99	39.034
1134.62	37.0714
1136.25	35.4011
1137.88	34.2529
1139.51	33.0979
1141.14	31.4735
1142.77	30.1023
1144.4	29.1404
1146.03	27.6959
1147.66	24.9001
1149.28	23.1842
1150.91	22.0292
1152.54	20.0206
1154.16	18.6742
1155.79	16.3876
1157.42	14.0173
1159.04	12.268
1160.67	10.1672
1162.29	9.12905
1163.92	7.91533
1165.54	6.15072
1167.17	6.67326
1168.79	5.63376
1170.41	5.15495
1172.04	4.11519
1173.66	4.15969
1175.28	4.17598
1176.9	3.98406
1178.53	4.23924
1180.15	4.25264
1181.77	4.76819
1183.39	6.22736
1185.01	6.43372
1186.63	6.46107
1188.25	6.84974
1189.87	7.99328
1191.49	9.07443
1193.11	8.73359
1194.73	9.53404
1196.35	10.2259
1197.96	10.4864
1199.58	12.2438
1201.2	14.3443
1202.82	15.6912
1204.43	17.0168
1206.05	18.1539
1207.66	20.259
1209.28	20.5608
1210.9	21.695
1212.51	22.9114
1214.13	25.6265
1215.74	28.1344
1217.36	30.024
1218.97	31.4908
1220.58	32.9133
1222.2	33.9843
1223.81	36.2789
1225.42	38.1045
1227.04	39.2393
1228.65	40.7774
1230.26	43.2217
1231.87	45.1214
1233.48	46.5433
1235.1	46.8978
1236.71	47.6089
1238.32	48.531
1239.93	49.9005
1241.53	51.5505
1243.14	54.1968
1244.75	55.3312
1246.36	56.4064
1247.97	57.8393
1249.58	57.798
1251.19	58.9221
1252.8	60.1805
1254.4	60.9784
1256.01	62.6062
1257.62	64.0299
1259.22	64.8087
1260.83	65.317
1262.43	65.6673
1264.04	65.7903
1265.64	65.8283
1267.25	65.9196
1268.85	67.2505
1270.46	68.0173
1272.06	67.3563
1273.66	66.8835
1275.27	68.3221
1276.87	68.2915
1278.48	69.797
1280.08	71.676
1281.68	73.2587
1283.28	73.3674
1284.88	74.1606
1286.48	74.4936
1288.08	75.2251
1289.68	76.5861
1291.28	78.3321
1292.88	80.5039
1294.48	81.6618
1296.08	83.0381
1297.68	83.7732
1299.28	83.8263
1300.88	85.0031
1302.48	85.4109
1304.07	86.8489
1305.67	88.6212
1307.27	88.8585
1308.87	90.1706
1310.46	90.6426
1312.06	90.6727
1313.65	90.5508
1315.25	90.3674
1316.85	91.4777
1318.44	91.1018
1320.03	90.6743
1321.63	90.3431
1323.22	89.6634
1324.82	88.6449
1326.41	87.8992
1328	86.8582
1329.6	85.2517
1331.19	84.4562
1332.78	83.4096
1334.37	82.0095
1335.96	81.4858
1337.56	79.7473
1339.15	77.8813
1340.74	76.0877
1342.33	73.7792
1343.92	73.0188
1345.51	72.194
1347.1	70.6693
1348.69	69.4239
1350.28	68.0266
1351.86	67.2047
1353.45	66.7131
1355.04	65.7724
1356.63	63.8081
1358.21	63.6618
1359.8	62.3891
1361.39	61.5324
1362.97	59.7658
1364.56	59.8593
1366.15	58.9765
1367.73	58.9443
1369.32	59.1386
1370.9	57.0303
1372.49	56.3599
1374.07	54.8427
1375.65	54.0584
1377.24	52.8959
1378.82	52.5425
1380.41	52.6037
1381.99	52.1378
1383.57	53.1135
1385.15	52.8974
1386.73	52.2904
1388.32	52.0802
1389.9	52.4772
1391.48	52.4849
1393.06	52.8994
1394.64	52.4009
1396.22	52.6013
1397.8	51.7021
1399.38	51.4916
1400.96	52.4945
1402.54	53.1887
1404.11	53.5484
1405.69	54.7373
1407.27	56.4576
1408.85	57.8382
1410.43	59.7516
1412	61.8134
1413.58	64.3285
1415.16	66.7489
1416.73	68.4279
1418.31	71.0927
1419.88	74.2052
1421.46	77.728
1423.03	81.5167
1424.61	84.3552
1426.18	86.9991
1427.76	89.8149
1429.33	93.2272
1430.9	96.4921
1432.48	98.7581
1434.05	101.083
1435.62	103.799
1437.2	106.699
1438.77	109.471
1440.34	111.524
1441.91	112.656
1443.48	114.07
1445.05	113.936
1446.62	114.104
1448.19	113.975
1449.76	113.488
1451.33	113.564
1452.9	113.246
1454.47	112.781
1456.04	111.747
1457.61	110.482
1459.17	107.772
1460.74	106.699
1462.31	104.975
1463.88	102.048
1465.44	99.2233
1467.01	96.1239
1468.58	94.4495
1470.14	90.5728
1471.71	87.5032
1473.27	83.2067
1474.84	81.0357
1476.4	76.8741
1477.97	74.0348
1479.53	71.6706
1481.1	67.8198
1482.66	64.1418
1484.22	61.3002
1485.78	57.9753
1487.35	54.5098
1488.91	51.1339
1490.47	48.6615
1492.03	45.5503
1493.59	42.4269
1495.16	39.6634
1496.72	36.6668
1498.28	34.2523
1499.84	31.5325
1501.4	29.1449
1502.96	27.6236
1504.52	25.3479
1506.08	23.6356
1507.64	22.3116
1509.19	20.4804
1510.75	17.6632
1512.31	15.7042
1513.87	13.9396
1515.42	12.7536
1516.98	12.238
1518.54	10.2354
1520.1	9.13889
1521.65	8.74017
1523.21	8.37048
1524.76	8.03531
1526.32	8.76413
1527.87	8.68832
1529.43	8.77022
1530.98	9.26255
1532.54	8.82887
1534.09	9.20257
1535.64	9.58576
1537.2	10.0459
1538.75	11.2784
1540.3	11.223
1541.85	12.2486
1543.41	13.3389
1544.96	14.577
1546.51	15.5414
1548.06	16.1664
1549.61	17.325
1551.16	18.0621
1552.71	20.8857
1554.26	21.2512
1555.81	21.7031
1557.36	22.5442
1558.91	23.27
1560.46	23.8329
1562.01	24.4292
1563.56	25.1867
1565.1	27.151
1566.65	28.119
1568.2	29.2307
1569.75	30.0503
1571.29	30.3871
1572.84	31.4566
1574.38	31.7595
1575.93	33.4941
1577.48	35.0108
1579.02	36.0556
1580.57	37.3102
1582.11	38.2442
1583.65	40.0267
1585.2	41.994
1586.74	43.0664
1588.29	43.4879
1589.83	44.6537
1591.37	46.1298
1592.92	47.4826
1594.46	47.9939
1596	48.2785
1597.54	49.2045
1599.08	50.2212
1600.62	49.855
1602.16	49.451
1603.7	49.6483
1605.24	48.7397
1606.78	49.4807
1608.32	48.9731
1609.86	48.8144
1611.4	49.1396
1612.94	48.034
1614.48	47.871
1616.02	47.5904
1617.56	47.0765
1619.09	48.5694
1620.63	48.7836
1622.17	48.7569
1623.71	50.0344
1625.24	51.384
1626.78	52.525
1628.31	54.3283
1629.85	55.2977
1631.39	56.9783
1632.92	58.109
1634.46	60.428
1635.99	61.9119
1637.52	62.8931
1639.06	64.3354
1640.59	67.0368
1642.12	68.9129
1643.66	69.9196
1645.19	71.5278
1646.72	72.381
1648.25	74.2714
1649.79	76.0287
1651.32	77.1963
1652.85	79.0613
1654.38	80.0226
1655.91	80.5794
1657.44	81.9439
1658.97	83.0049
1660.5	82.7945
1662.03	82.8328
1663.56	81.8751
1665.09	80.7367
1666.62	79.8139
1668.15	78.3925
1669.67	75.6877
1671.2	73.7241
1672.73	71.3488
1674.26	68.0858
1675.79	65.0635
1677.31	62.5584
1678.84	59.3635
1680.36	57.0553
1681.89	53.6688
1683.42	50.4746
1684.94	46.3002
1686.47	43.1812
1687.99	38.5378
1689.51	34.8166
1691.04	32.4537
1692.56	29.6749
1694.08	27.7485
1695.61	26.2278
1697.13	23.4694
1698.65	21.7363
1700.18	20.2952
1701.7	17.6887
1703.22	15.2867
1704.74	13.748
1706.26	12.217
1707.78	11.6922
1709.3	8.84211
1710.82	8.29251
1712.35	7.35084
1713.86	5.43677
1715.39	5.09521
1716.9	4.59205
1718.42	3.8474
1719.94	3.89622
1721.46	3.66476
1722.98	3.4997
1724.5	4.5479
1726.01	4.15817
1727.53	4.37038
1729.05	4.97829
1730.56	4.37019
1732.08	4.77404
1733.6	4.9609
1735.11	5.42592
1736.63	5.16629
1738.14	5.85788
1739.66	5.5979
1741.17	5.28663
1742.69	5.52262
1744.2	4.92832
1745.71	4.83258
1747.23	5.61258
1748.74	5.0513
1750.25	4.78072
1751.77	5.78664
1753.28	6.25615
1754.79	5.2942
1756.3	5.28502
1757.81	4.57768
1759.33	4.58821
1760.84	4.62432
1762.35	4.36505
1763.86	3.94642
1765.37	4.55735
1766.88	4.71478
1768.39	3.7355
1769.9	4.13241
1771.41	3.60781
1772.91	3.74859
1774.42	3.47341
1775.93	2.58581
1777.44	2.36985
1778.95	2.99915
1780.45	4.19326
1781.96	4.64438
1783.47	4.39156
1784.97	4.80342
1786.48	5.63635
1787.99	4.88272
1789.49	4.34949
1791	5.31841
1792.5	5.80298
1794.01	6.8529
1795.51	6.58361
1797.01	5.99018
1798.52	5.67923
1800.02	5.10112
1801.52	4.80641
1803.03	5.23948
1804.53	5.50257
1806.03	5.01584
1807.54	5.41706
1809.04	5.55708
1810.54	5.26747
1812.04	4.54727
1813.54	4.54184
1815.04	4.3182
1816.54	4.51978
1818.04	4.14839
1819.54	3.56095
1821.04	4.17364
1822.54	4.07416
1824.04	3.6873
1825.54	4.09558
1827.04	4.91381
1828.54	5.11515
1830.03	4.58371
1831.53	4.30689
1833.03	4.28992
1834.53	4.33017
1836.02	3.96504
1837.52	4.49638
1839.02	5.2877
1840.51	5.53891
1842.01	5.28376
1843.5	5.13106
1845	5.58162
1846.49	5.07859
1847.99	4.86007
1849.48	5.53433
1850.98	5.51709
1852.47	7.02829
1853.96	8.41898
1855.46	8.65569
1856.95	8.77742
1858.44	9.44216
1859.94	9.69599
1861.43	8.71478
1862.92	9.5385
1864.41	9.84006
1865.9	8.7325
1867.39	8.6017
1868.88	8.40395
1870.37	7.68935
1871.86	7.22643
1873.35	6.8154
1874.84	6.68925
1876.33	6.30586
1877.82	6.27046
1879.31	4.76505
1880.8	4.08705
1882.29	3.21013
1882.58	2.49572
1884.08	2.08939
1885.57	1.75788
1887.06	2.05729
1888.56	1.02912
1890.05	1.83723
1891.54	1.06151
1893.04	1.42553
1894.53	1.81258
1896.02	0.950763
1897.51	1.39836
1899	1.95267
1900.5	2.5343
1901.99	2.59148
1903.48	1.82402
1904.97	1.98741
1906.46	2.49969
1907.95	2.33933
1909.44	3.59544
1910.93	4.57137
1912.42	4.50486
1913.91	4.34792
1915.4	3.81943
1916.88	3.52175
1918.37	3.5887
1919.86	3.84667
1921.35	4.03648
1922.84	6.01436
1924.32	6.41346
1925.81	7.41406
1927.3	7.79435
1928.78	6.24589
1930.27	6.52709
1931.75	7.30612
1933.24	6.75583
1934.72	6.78559
1936.21	7.63631
1937.69	6.37213
1939.18	5.65108
1940.66	6.22614
1942.15	5.92159
1943.63	5.17842
1945.11	4.32364
1946.6	4.05118
1948.08	3.96598
1949.56	3.9185
1951.04	3.64016
1952.53	2.14963
1954.01	2.77668
1955.49	2.14613
1956.97	2.4414
1958.45	2.67027
1959.93	2.44934
1961.41	3.09426
1962.89	2.40004
1964.37	2.44947
1965.85	1.68158
1967.33	1.52916
1968.81	1.6021
1970.29	2.01222
1971.77	3.36015
1973.24	3.88487
1974.72	3.36993
1976.2	3.61267
1977.68	3.03357
1979.15	3.33203
1980.63	4.17351
1982.11	4.2543
1983.58	5.21249
1985.06	5.75182
1986.53	5.6992
1988.01	5.30927
1989.48	5.00755
1990.96	3.98645
1992.43	4.77261
1993.91	4.87526
1995.38	5.15171
1996.86	6.44888
1998.33	6.74969
1999.8	5.37597
2001.27	5.88745
2002.75	5.76155
2004.22	7.60972
2005.69	7.12895
2007.16	7.25772
2008.64	7.44377
2010.11	7.46978
2011.58	6.95736
2013.05	7.13547
2014.52	7.77694
2015.99	8.29875
2017.46	8.14634
2018.93	8.21373
2020.4	9.37942
2021.87	9.039
2023.34	9.60185
2024.8	10.0254
2026.27	10.6735
2027.74	10.7009
2029.21	10.4566
2030.68	11.3473
2032.14	11.6125
2033.61	11.5785
2035.08	11.6527
2036.54	11.0658
2038.01	11.2362
2039.48	11.8324
2040.94	12.6417
2042.41	13.4711
2043.87	14.5736
2045.34	15.0566
2046.8	15.3552
2048.27	15.7507
2049.73	16.5838
2051.19	16.6442
2052.66	18.2222
2054.12	18.9672
2055.58	18.9124
2057.05	19.0065
2058.51	18.5733
2059.97	17.7344
2061.43	16.7288
2062.9	14.9118
2064.36	14.2532
2065.82	15.5312
2067.28	16.0095
2068.74	16.0115
2070.2	15.7023
2071.66	15.4951
2073.12	15.0019
2074.58	15.725
2076.04	15.7018
2077.5	15.5983
2078.95	14.9815
2080.41	15.4141
2081.87	14.4852
2083.33	15.3939
2084.79	15.4661
2086.24	16.0943
2087.7	16.3552
2089.16	16.1894
2090.61	16.4293
2092.07	17.4602
2093.53	18.1648
2094.98	17.7454
2096.44	18.7924
2097.89	19.0055
2099.35	18.3166
2100.8	16.6275
2102.26	18.0858
2103.71	18.3608
2105.16	18.6249
2106.62	18.1003
2108.07	18.9415
2109.53	18.9036
2110.98	18.7126
2112.43	19.8891
2113.88	21.4584
2115.33	21.8392
2116.79	23.46
2118.24	24.7733
2119.69	25.4108
2121.14	26.397
2122.59	27.7133
2124.04	28.526
2125.49	29.9675
2126.94	30.3768
2128.39	31.1606
2129.84	31.9365
2131.29	32.8293
2132.74	34.2074
2134.19	35.5364
2135.63	38.1328
2137.08	40.9921
2138.53	43.3663
2139.98	44.6841
2141.43	45.7436
2142.87	48.1904
2144.32	51.2006
2145.77	53.5136
2147.21	55.5893
2148.66	57.6818
2150.1	59.1821
2151.55	60.7214
2152.99	61.6033
2154.44	64.676
2155.88	66.5985
2157.33	68.1452
2158.77	69.67
2160.21	71.402
2161.66	73.6016
2163.1	75.2631
2164.55	76.7849
2165.99	77.8533
2167.43	79.3018
2168.87	80.0514
2170.31	80.9862
2171.76	81.0885
2173.2	81.1406
2174.64	83.2439
2176.08	83.0348
2177.52	83.3102
2178.96	82.798
2180.4	82.9876
2181.84	82.1836
2183.28	82.5594
2184.72	82.7103
2186.16	82.1152
2187.6	80.5331
2189.04	78.8952
2190.47	78.0115
2191.91	76.4165
2193.35	75.1112
2194.79	74.2922
2196.23	71.8224
2197.66	70.5613
2199.1	68.2363
2200.54	66.5017
2201.97	64.59
2203.41	62.8973
2204.84	61.4328
2206.28	59.2006
2207.71	57.2938
2209.15	53.9596
2210.58	52.6463
2212.02	49.9323
2213.45	48.6699
2214.89	46.8744
2216.32	44.5147
2217.75	41.9549
2219.19	40.5441
2220.62	38.6921
2222.05	37.4764
2223.48	36.4219
2224.92	35.724
2226.35	35.8692
2227.78	34.3429
2229.21	34.8491
2230.64	34.1057
2232.07	34.1674
2233.5	33.185
2234.93	31.8292
2236.36	31.6497
2237.79	31.3115
2239.22	31.1019
2240.65	30.512
2242.08	30.0499
2243.51	28.6594
2244.94	28.3072
2246.37	28.0297
2247.79	27.8606
2249.22	27.1736
2250.65	27.4723
2252.08	26.8193
2253.5	27.9322
2254.93	28.413
2256.36	27.5497
2257.78	27.5769
2259.21	26.5287
2260.63	26.9911
2262.06	27.8278
2263.48	28.4746
2264.91	28.8676
2266.33	29.1381
2267.76	28.3855
2269.18	28.4821
2270.6	27.9182
2272.03	26.8897
2273.45	25.5488
2274.87	24.1012
2276.3	22.7961
2277.72	21.9787
2279.14	22.6635
2280.56	22.267
2281.98	21.6966
2283.41	20.9594
2284.83	21.7114
2286.25	20.4082
2287.67	20.4044
2289.09	20.0392
2290.51	20.4338
2291.93	19.022
2293.35	18.5626
2294.77	18.1486
2296.19	16.9595
2297.61	16.3786
2299.02	16.0722
2300.44	16.2035
2301.86	15.9937
2303.28	15.0758
2304.7	15.3584
2306.11	15.5587
2307.53	15.0372
2308.95	15.1391
2310.36	14.4764
2311.78	13.6795
2313.2	13.8277
2314.61	13.747
2316.03	14.574
2317.44	13.9248
2318.86	14.1729
2320.27	12.5684
2321.69	12.7249
2323.1	11.7782
2324.51	13.1453
2325.93	13.1856
2327.34	12.1257
2328.76	12.1345
2330.17	12.3406
2331.58	13.9823
2332.99	14.1101
2334.41	13.6837
2335.82	12.4465
2337.23	11.706
2338.64	10.5653
2340.05	10.2233
2341.46	9.68799
2342.87	9.31917
2344.28	8.83885
2345.69	9.01239
2347.1	10.2321
2348.51	10.9267
2349.92	11.234
2351.33	10.737
2352.74	10.4704
2354.15	10.0602
2355.56	9.51258
2356.97	8.71751
2358.37	9.88517
2359.78	9.19365
2361.19	9.30736
2362.6	9.49317
2364	10.7677
2365.41	11.0787
2366.82	11.1454
2368.22	12.3588
2369.63	13.4536
2371.03	14.3113
2372.44	14.9255
2373.84	14.6728
2375.25	15.4858
2376.65	14.9276
2378.06	14.3051
2379.46	15.0642
2380.86	14.2146
2382.27	14.172
2383.67	14.2488
2385.07	13.8869
2386.48	13.7367
2387.88	12.8864
2389.28	12.5822
2390.69	11.9198
2392.09	12.5978
2393.49	13.1439
2394.89	13.8643
2396.29	13.2585
2397.69	13.0516
2399.09	13.6814
2400.49	14.1617
2401.89	14.1852
2403.29	13.6291
2404.69	12.604
2406.09	13.7427
2407.49	14.4739
2408.89	14.6991
2410.29	15.3464
2411.69	15.2835
2413.08	15.1079
2414.48	14.7884
2415.88	15.8456
2417.28	15.5065
2418.67	14.8677
2420.07	14.2385
2421.47	14.1536
2422.86	12.2704
2424.26	11.6363
2425.65	11.571
2427.05	11.8056
2428.45	10.8941
2429.84	9.75277
2431.23	10.1048
2432.63	9.80649
2434.02	9.03114
2435.42	7.52961
2436.81	7.34043
2438.2	6.8054
2439.6	7.53763
2440.99	6.85903
2442.38	6.78702
2443.78	5.6735
2445.17	6.12443
2446.56	6.25204
2447.95	5.60277
2449.34	5.24172
2450.73	5.59324
2452.13	5.44947
2453.52	5.73395
2454.91	6.25696
2456.3	5.06016
2457.69	4.98142
2459.08	5.28251
2460.47	6.6989
2461.85	7.06836
2463.24	8.25636
2464.63	7.75379
2466.02	7.38937
2467.41	7.66257
2468.8	7.41294
2470.19	7.86157
2471.57	8.65641
2472.96	8.76655
2474.35	8.42153
2475.73	9.87139
2477.12	10.0587
2478.51	10.3608
2479.89	9.51812
2481.28	9.27642
2482.66	9.14017
2484.05	8.38271
2485.43	8.40712
2486.82	7.58653
2488.2	7.46473
2489.59	7.04795
2490.97	6.96195
2492.35	6.05038
2493.74	8.11534
2495.12	8.17377
2496.5	7.6776
2497.89	7.02015
2499.27	7.71363
2500.65	8.06878
2502.03	7.03835
2503.42	7.2934
2504.8	6.75077
2506.18	7.26979
2507.56	7.98982
2508.94	8.3544
2510.32	7.27378
2511.7	7.04885
2513.08	7.09087
2514.46	6.74052
2515.84	6.3032
2517.22	5.24524
2518.6	5.47644
2519.98	6.49939
2521.36	5.74274
2522.73	5.87334
2524.11	6.59097
2525.49	6.04095
2526.87	7.4737
2528.25	7.48434
2529.62	7.38254
2531	6.4782
2532.38	7.09808
2533.75	5.941
2535.13	5.77313
2536.5	6.02527
2537.88	6.81054
2539.25	7.87452
2540.63	7.96858
2542.01	7.88934
2543.38	7.8296
2544.75	8.73143
2546.13	8.94526
2547.5	9.56933
2548.88	9.30111
2550.25	9.49904
2551.62	9.5243
2553	10.1586
2554.37	11.2084
2555.74	11.3824
2557.11	11.6255
2558.49	12.2529
2559.86	13.0886
2561.23	13.8238
2562.6	14.0469
2563.97	12.9809
2565.34	12.4886
2566.71	13.1193
2568.08	13.7952
2569.45	13.3347
2570.82	12.9066
2572.19	13.5891
2573.56	12.7509
2574.93	13.2029
2576.3	13.0738
2577.67	11.7977
2579.03	11.7904
2580.4	12.0786
2581.77	12.278
2583.14	11.664
2584.5	11.8164
2585.87	11.265
2587.24	11.5093
2588.6	10.8032
2589.97	10.6977
2591.34	11.4454
2592.7	11.4924
2594.07	11.5089
2595.43	12.9485
2596.8	12.7895
2598.16	12.3826
2599.53	12.809
2600.89	12.9274
2602.26	11.1125
2603.62	10.6095
2604.98	10.7257
2606.35	10.2014
2607.71	9.55392
2609.07	9.74917
2610.44	9.78886
2611.8	9.75473
2613.16	10.1743
2614.52	10.5955
2615.88	10.2371
2617.25	9.58292
2618.61	8.63946
2619.97	9.06645
2621.33	9.06087
2622.69	8.45059
2624.05	8.84142
2625.41	9.31275
2626.77	10.4249
2628.13	10.5212
2629.49	11.1616
2630.85	10.7114
2632.21	11.5007
2633.56	12.2734
2634.92	13.13
2636.28	13.1787
2637.64	12.5782
2639	12.6741
2640.35	12.5369
2641.71	12.5032
2643.07	13.0558
2644.42	12.9382
2645.78	12.5685
2647.14	12.0859
2648.49	11.2287
2649.85	10.8895
2651.2	11.4461
2652.56	11.2612
2653.91	11.3674
2655.27	11.7001
2656.62	11.9174
2657.98	12.5772
2659.33	12.8642
2660.68	12.0355
2662.04	11.4729
2663.39	10.8502
2664.74	9.08518
2666.1	7.58565
2667.45	7.66829
2668.8	5.94747
2670.15	5.11702
2671.5	4.52446
2672.86	4.2895
2674.21	4.32866
2675.56	4.8292
2676.91	5.83707
2678.26	4.26081
2679.61	4.53736
2680.96	4.13614
2682.31	4.43692
2683.66	4.40454
2685.01	5.1361
2686.36	5.1781
2687.71	5.28911
2689.06	5.34002
2690.4	6.86544
2691.75	8.31718
2693.1	9.54521
2694.45	11.0896
2695.8	12.3091
2697.14	13.7936
2698.49	14.4024
2699.84	15.4208
2701.18	15.9047
2702.53	16.0954
2703.88	16.5238
2705.22	16.446
2706.57	16.845
2707.91	17.549
2709.26	18.4528
2710.6	18.2156
2711.95	17.914
2713.29	17.9408
2714.64	18.5948
2715.98	20.144
2717.32	21.3568
2718.67	21.9814
2720.01	22.2865
2721.35	22.1921
2722.7	22.659
2724.04	22.1663
2725.38	21.958
2726.72	21.5186
2728.06	20.6556
2729.4	20.2756
2730.75	21.2065
2732.09	21.1609
2733.43	21.1791
2734.77	20.5844
2736.11	19.5542
2737.45	19.4501
2738.79	18.0497
2740.13	18.2822
2741.47	18.1827
2742.81	17.6725
2744.15	17.2862
2745.48	16.3131
2746.82	16.9778
2748.16	15.8584
2749.5	15.131
2750.84	13.9394
2752.17	13.1353
2753.51	11.2699
2754.85	10.7091
2756.19	11.3606
2757.52	11.388
2758.86	10.9444
2760.19	11.3604
2761.53	10.2916
2762.86	9.31263
2764.2	8.34257
2765.54	7.11066
2766.87	5.63721
2768.2	5.10219
2769.54	4.79891
2770.87	4.42023
2772.21	3.22874
2773.54	3.42549
2774.88	3.31825
2776.21	3.15503
2777.54	2.4269
2778.87	2.7914
2780.21	3.45078
2781.54	3.68097
2782.87	3.71611
2784.2	3.931
2785.53	3.72562
2786.87	3.96551
2788.2	3.146
2789.53	3.2735
2790.86	2.98766
2792.19	2.75774
2793.52	2.83316
2794.85	3.26565
2796.18	3.60598
2797.51	3.97137
2798.84	3.39041
2800.17	2.43145
2801.49	1.95741
2802.82	2.42147
2804.15	2.83062
2805.48	3.27141
2806.81	3.43674
2808.13	3.3769
2809.46	2.88058
2810.79	2.19859
2812.12	2.0987
2813.44	1.38063
2814.77	0.669021
2816.09	1.52449
2817.42	3.04337
2818.75	4.58844
2820.07	6.18143
2821.4	8.52266
2822.72	11.3684
2824.05	13.5661
2825.37	16.2352
2826.7	19.3013
2828.02	21.5529
2829.35	25.905
2830.67	29.7087
2831.99	32.3618
2833.31	37.17
2834.64	40.9401
2835.96	46.1602
2837.28	50.8625
2838.61	55.9661
2839.93	60.4315
2841.25	66.1972
2842.57	72.1647
2843.89	78.1649
2845.21	84.6261
2846.53	91.0157
2847.85	97.1986
2849.17	103.922
2850.49	111.139
2851.81	118.455
2853.13	125.319
2854.45	132.106
2855.77	139.488
2857.09	145.9
2858.41	152.476
2859.73	158.96
2861.05	165.803
2862.36	171.848
2863.68	177.133
2865	181.982
2866.32	187.29
2867.64	192.374
2868.95	196.315
2870.27	200.471
2871.59	204.464
2872.9	208.042
2874.22	211.373
2875.53	216.13
2876.85	219.636
2878.16	223.891
2879.48	227.205
2880.79	230.985
2882.11	235.692
2883.42	237.864
2884.74	240.893
2886.05	244.883
2887.36	247.536
2888.68	250.926
2889.99	252.607
2891.3	255.473
2892.62	258.214
2893.93	260.609
2895.24	263.895
2896.55	267.01
2897.86	270.417
2899.18	274.699
2900.49	278.346
2901.8	285.074
2903.11	289.788
2904.42	295.491
2905.73	301.964
2907.04	309.211
2908.35	316.524
2909.66	323.815
2910.97	331.719
2912.28	339.928
2913.59	347.677
2914.9	355.588
2916.21	363.723
2917.51	371.158
2918.82	376.085
2920.13	382.595
2921.44	387.93
2922.74	392.996
2924.05	397.829
2925.36	401.843
2926.67	404.905
2927.97	405.706
2929.28	406.475
2930.59	406.704
2931.89	406.838
2933.2	405.756
2934.5	404.657
2935.81	402.586
2937.11	400.111
2938.42	396.638
2939.72	392.692
2941.02	388.591
2942.33	382.33
2943.63	375.891
2944.94	369.574
2946.24	362.882
2947.54	355.565
2948.85	346.065
2950.15	338.569
2951.45	330.133
2952.75	320.889
2954.05	312.664
2955.36	304.316
2956.66	295.963
2957.96	287.034
2959.26	278.414
2960.56	270.975
2961.86	264.006
2963.16	255.169
2964.46	248.098
2965.76	241.948
2967.06	234.943
2968.36	227.802
2969.66	221.287
2970.96	216.065
2972.26	210.004
2973.56	204.819
2974.85	199.09
2976.15	194.331
2977.45	188.553
2978.75	182.93
2980.05	177.871
2981.34	171.961
2982.64	165.402
2983.94	159.031
2985.23	153.504
2986.53	147.428
2987.83	141.693
2989.12	135.506
2990.42	128.646
2991.71	120.799
2993.01	114.073
2994.3	108.602
2995.6	101.783
2996.89	95.722
2998.19	89.9652
2999.48	82.9851
3000.77	76.7524
3002.07	72.1769
3003.36	67.0216
3004.65	62.2334
3005.95	56.277
3007.24	51.9341
3008.53	46.7739
3009.82	42.5597
3011.12	37.5883
3012.41	32.676
3013.7	28.5858
3014.99	25.6669
3016.28	22.675
3017.57	19.7425
3018.86	16.6621
3020.15	14.1781
3021.44	11.4574
3022.73	9.33288
3024.02	7.72664
3025.31	6.07661
3026.6	3.80762
3027.89	2.3133
3029.18	1.54993
3030.47	1.40147
3031.76	-0.302035
3033.04	0.448096
3034.33	0.597465
3035.62	1.28681
3036.91	1.25582
3038.19	1.93117
3039.48	2.80054
3040.77	3.2448
3042.05	4.18993
3043.34	4.0693
3044.63	3.69653
3045.91	3.78571
3047.2	5.02009
3048.48	5.5185
3049.77	5.41973
3051.05	6.14629
3052.34	6.09594
3053.62	6.8959
3054.91	7.19177
3056.19	8.08002
3057.48	8.4991
3058.76	8.00907
3060.04	8.0348
3061.33	8.4099
3062.61	8.23337
3063.89	8.15174
3065.17	9.45977
3066.46	9.18561
3067.74	9.03479
3069.02	9.24231
3070.3	8.28596
3071.59	8.49496
3072.87	7.51872
3074.15	6.7917
3075.43	6.72398
3076.71	6.52619
3077.99	6.22876
3079.27	5.94529
3080.55	5.68132
3081.83	4.97831
3083.11	4.34369
3084.39	4.38032
3085.67	2.50534
3086.94	1.62961
3088.22	1.3969
3089.5	1.19085
3090.78	0.912521
3092.06	0.97045
3093.34	0.923993
3094.61	1.69469
3095.89	1.01078
3097.17	2.17496
3098.44	2.09824
3099.72	2.02545
3101	2.88391
3102.27	3.09289
3103.55	2.60143
3104.82	2.74179
3106.1	2.57802
3107.38	1.92489
3108.65	2.96585
3109.93	4.33471
3111.2	4.60971
3112.47	4.89123
3113.75	5.96683
3115.02	8.10202
3116.3	9.22953
3117.57	10.592
3118.84	11.2284
3120.12	11.7695
3121.39	11.5829
3122.66	12.5137
3123.93	14.2587
3125.2	14.6965
3126.48	15.8146
3127.75	17.4264
3129.02	18.431
3130.29	19.0845
3131.56	21.0739
3132.83	22.0016
3134.1	22.4972
3135.37	24.1065
3136.64	25.0391
3137.91	26.1409
3139.18	27.3927
3140.45	28.1128
3141.72	28.5474
3142.99	29.2047
3144.26	29.9355
3145.53	31.0684
3146.8	32.5813
3148.07	34.4443
3149.33	37.7313
