#Acq. time (s)=	45
#Accumulations=	2
#Range (cm-¹)=	200...3150
#Windows=	2
#Auto scanning=	Off
#Autofocus=	Off
#Macrospot=	Off
#AutoExposure=	Off
#Spike filter=	Multiple accum.
#Delay time (s)=	0
#Binning=	1
#Readout mode=	Signal
#DeNoise=	Off
#ICS correction=	On
#Dark correction=	Off
#Inst. Process=	Off
#Detector Gain=	Best Dynamic Range
#Detector ADC=	20 kHz       
#Detector temperature (°C)=	-69.85
#Instrument=	LabRAM HR Evol
#Detector=	Synapse
#Objective=	x100
#Grating=	600 gr/mm
#ND Filter=	100%
#Laser (nm)=	532 
#Hole=	100.021
#Range=	Auto
#Laser Pol.=	No
#Raman. Pol.=	No
#Laser Pol. (°)=	-0.0007625
#Raman Pol. (°)=	89.9995
#Collection=	Microscope
#StageXY=	Marzhauser
#StageZ=	Marzhauser
#X (µm)=	-1173.1
#Y (µm)=	1255.1
#Z (µm)=	578.65
#Full time(mm:ss)=	3:19
#Project=	
#Sample=	
#Site=	
#Title=	Mbcal_20_25_17_2x_45s_532 nm_x100_100%_600 gr_mm
#Remark=	
#Date=	18.07.2022 10:38
#Acquired=	18.07.2022 10:38:27
#Base:Fit=	10.08.2022 10:55:08
#Base:Sub=	10.08.2022 10:55:14
#Filter:Polynom=	16.08.2022 10:07:28
#AxisType[0]=Intens
#AxisUnit[0]=Cnt
#AxisType[1]=Spectr
#AxisUnit[1]=1/cm
200.419	5.44112
202.234	7.77627
204.048	10.3724
205.862	9.08013
207.678	9.05392
209.491	8.92053
211.304	7.86922
213.116	8.39929
214.928	8.99291
216.742	8.98025
218.554	9.55642
220.365	10.2916
222.176	12.3914
223.986	13.8418
225.798	14.4256
227.608	14.5507
229.417	14.2934
231.226	15.8891
233.035	16.3134
234.843	14.9394
236.653	15.7546
238.46	16.9802
240.268	18.3513
242.074	19.6009
243.881	20.9714
245.687	21.7149
247.493	22.2849
249.298	22.7671
251.103	22.8829
252.908	26.1358
254.715	24.5816
256.519	26.7728
258.322	28.167
260.126	29.3548
261.929	28.1912
263.731	27.009
265.534	28.9584
267.336	27.6074
269.137	27.0965
270.938	24.5574
272.739	24.0852
274.54	25.0806
276.34	25.0634
278.14	26.981
279.939	26.9921
281.739	28.5634
283.537	28.6012
285.336	27.4717
287.134	25.4889
288.932	24.7018
290.729	23.304
292.526	24.0932
294.323	25.1075
296.117	26.2373
297.913	24.5342
299.709	24.539
301.504	24.1271
303.299	26.4555
305.093	25.447
306.888	24.0573
308.682	24.32
310.475	25.5149
312.268	25.8935
314.059	23.7404
315.852	23.5369
317.644	24.184
319.436	24.0063
321.227	24.2606
323.018	23.9685
324.807	23.8608
326.597	26.0786
328.387	26.6843
330.177	25.6182
331.967	26.9193
333.753	26.8414
335.542	26.1106
337.331	26.374
339.119	26.7222
340.906	25.9494
342.691	26.5542
344.478	23.5004
346.265	23.626
348.051	21.6335
349.835	21.1156
351.621	17.8416
353.406	16.455
355.189	16.5691
356.973	14.3837
358.757	14.6295
360.541	14.6509
362.323	16.6348
364.106	16.1706
365.889	15.6751
367.669	16.032
369.451	15.6501
371.233	13.6044
373.012	12.6152
374.793	11.9991
376.574	10.9049
378.353	10.7516
380.133	10.4029
381.91	11.1596
383.69	9.70063
385.469	7.73507
387.245	7.31004
389.024	7.2506
390.8	6.26515
392.577	5.4082
394.353	4.11724
396.129	3.59871
397.906	4.34656
399.68	5.52534
401.456	5.04187
403.23	4.40451
405.005	5.34188
406.778	5.22946
408.552	3.76598
410.325	4.93043
412.099	5.66985
413.87	6.81533
415.643	6.98552
417.414	7.07062
419.187	6.95253
420.957	7.69487
422.728	7.07222
424.498	7.76277
426.269	7.13157
428.038	7.30169
429.806	6.53303
431.576	7.60506
433.344	6.16711
435.114	6.49641
436.881	5.70967
438.649	5.90325
440.416	5.00496
442.182	5.9556
443.949	7.849
445.715	6.95715
447.48	8.0282
449.247	6.51799
451.011	6.13008
452.777	4.61426
454.541	6.10611
456.304	7.18386
458.069	7.80851
459.832	9.68216
461.594	10.5655
463.358	10.183
465.119	10.1907
466.881	10.6523
468.642	9.69808
470.404	11.2355
472.165	11.9733
473.925	13.0612
475.684	13.415
477.445	12.1655
479.204	11.7501
480.963	12.761
482.721	14.8843
484.481	15.5046
486.239	17.2707
487.996	18.158
489.753	18.4451
491.511	18.5728
493.268	17.8012
495.023	18.9775
496.779	19.8183
498.534	21.8202
500.289	22.0575
502.046	23.2459
503.8	21.1781
505.554	21.5153
507.307	21.0579
509.06	20.7567
510.813	22.71
512.566	21.6815
514.32	21.4492
516.072	21.4115
517.823	19.4743
519.574	18.7065
521.325	15.9919
523.076	15.3843
524.826	13.8157
526.576	14.4604
528.325	15.0343
530.074	15.2698
531.823	14.1354
533.572	13.4202
535.32	15.2209
537.068	15.8635
538.815	17.7028
540.562	20.1442
542.309	21.7299
544.056	21.2868
545.802	20.9622
547.547	21.0044
549.293	19.6132
551.038	19.1563
552.783	18.8639
554.527	19.2264
556.271	19.8229
558.015	20.0886
559.759	19.3006
561.502	17.6577
563.245	15.9133
564.987	16.0643
566.729	16.4419
568.471	17.6462
570.213	17.4325
571.954	15.9118
573.693	15.0994
575.433	12.7011
577.173	13.1391
578.913	12.8171
580.652	14.4276
582.392	16.6218
584.13	15.7612
585.867	15.2597
587.605	14.0461
589.343	12.794
591.08	11.1179
592.817	10.4156
594.552	9.54152
596.289	9.22587
598.025	8.69751
599.761	5.98686
601.496	6.78979
603.229	5.20256
604.964	5.12688
606.699	6.28089
608.433	4.63219
610.165	6.10323
611.898	7.10698
613.631	8.92592
615.364	9.79197
617.095	10.2338
618.827	9.39514
620.559	10.5185
622.288	11.0184
624.02	10.115
625.75	10.468
627.479	10.6453
629.209	10.6283
630.939	9.11323
632.667	8.417
634.396	9.66266
636.125	10.661
637.851	9.82723
639.58	10.3657
641.305	10.2111
643.033	8.91504
644.76	7.39001
646.485	6.53113
648.212	6.36607
649.936	7.71224
651.662	7.38651
653.388	7.07555
655.111	7.94816
656.836	7.90259
658.558	8.10619
660.283	8.04279
662.005	8.92735
663.728	11.176
665.45	11.9271
667.173	13.1303
668.893	11.5053
670.616	11.8029
672.336	12.7853
674.057	12.7981
675.777	13.4069
677.498	14.5875
679.216	15.7027
680.937	18.3558
682.655	20.4893
684.375	21.6358
686.092	23.1176
687.809	24.9353
689.528	23.8969
691.244	23.2864
692.962	24.5172
694.678	23.9503
696.393	26.7161
698.111	26.4622
699.825	26.2696
701.54	26.3082
703.256	26.5342
704.97	25.6027
706.685	26.3074
708.398	28.5935
710.111	27.9838
711.826	30.0318
713.538	29.7225
715.25	30.944
716.961	29.7779
718.675	30.8856
720.386	32.2235
722.096	32.4007
723.808	32.155
725.518	34.4102
727.228	33.6898
728.937	33.2561
730.648	34.6245
732.357	36.4999
734.065	39.3766
735.773	40.2838
737.483	40.9163
739.19	43.4222
740.897	43.5866
742.604	45.6484
744.31	47.047
746.018	48.08
747.724	51.3922
749.429	54.5495
751.134	57.7213
752.839	60.2308
754.544	61.3009
756.248	64.9921
757.953	67.8634
759.657	70.04
761.36	72.7483
763.063	76.1653
764.765	78.9137
766.468	80.9067
768.169	81.9631
769.871	83.4877
771.572	84.7606
773.273	86.3931
774.976	87.3868
776.676	90.0254
778.376	94.4366
780.075	95.024
781.775	98.3079
783.474	100.266
785.172	103.097
786.871	105.136
788.569	106.806
790.266	107.522
791.964	109.961
793.661	112.581
795.358	112.06
797.054	114.287
798.75	113.945
800.446	115.343
802.141	114.934
803.834	117.051
805.529	118.783
807.224	120.207
808.918	120.385
810.612	120.041
812.305	118.53
813.998	119.861
815.691	123.982
817.384	123.624
819.076	123.253
820.766	122.073
822.458	124.457
824.149	125.425
825.84	126.36
827.531	129.331
829.221	129.185
830.909	131.272
832.599	133.117
834.288	136.022
835.977	139.8
837.666	140.489
839.353	142.498
841.041	145.646
842.729	145.987
844.416	146.333
846.103	146.636
847.788	147.381
849.475	147.914
851.161	149.419
852.845	149.046
854.53	150.018
856.216	150.107
857.901	149.979
859.583	148.771
861.268	149.064
862.952	149.044
864.633	146.716
866.317	146.028
868	144.901
869.681	144.19
871.363	142.106
873.045	139.703
874.725	136.912
876.406	133.177
878.088	130.332
879.767	127.792
881.447	125.403
883.125	120.941
884.805	119.131
886.483	115.495
888.162	112.288
889.841	108.897
891.518	105.244
893.196	102.422
894.872	100.604
896.55	99.1019
898.225	97.5509
899.902	96.8895
901.577	93.7131
903.254	92.8333
904.928	92.9684
906.604	94.2844
908.277	93.3129
909.952	93.2838
911.625	93.2228
913.3	93.0315
914.972	94.1494
916.646	94.2876
918.318	96.956
919.991	96.7645
921.662	92.0474
923.333	92.5759
925.005	91.0276
926.675	89.7913
928.347	89.569
930.017	88.4927
931.686	87.9298
933.357	87.5718
935.025	85.6528
936.693	82.962
938.363	82.8044
940.031	82.048
941.698	80.7067
943.367	79.9852
945.034	80.1805
946.7	79.2972
948.368	77.1855
950.034	78.4294
951.699	78.3829
953.367	76.1754
955.031	70.5494
956.696	68.5766
958.36	66.0611
960.026	64.1289
961.689	63.0215
963.353	61.0328
965.016	59.0067
966.68	55.8789
968.343	55.4554
970.005	52.9808
971.666	51.8648
973.328	51.5358
974.991	51.0486
976.652	50.5101
978.312	48.5138
979.972	46.9381
981.632	46.6436
983.292	45.4565
984.953	43.2272
986.612	41.262
988.27	39.315
989.929	38.0346
991.587	35.4274
993.244	33.2577
994.902	32.5529
996.559	31.4212
998.216	31.0658
999.872	29.8128
1001.53	28.1862
1003.19	26.3998
1004.84	23.2194
1006.5	24.2558
1008.15	21.9303
1009.81	22.6661
1011.46	22.3478
1013.11	21.7491
1014.77	22.0199
1016.42	22.3019
1018.07	22.6999
1019.73	23.5545
1021.38	24.8905
1023.03	25.7668
1024.68	27.2026
1026.34	29.0737
1027.99	31.8727
1029.64	33.2796
1031.29	33.4355
1032.94	35.1827
1034.59	34.2408
1036.24	34.1303
1037.89	34.0865
1039.53	37.1573
1041.18	38.2256
1042.83	39.5549
1044.48	40.1153
1046.13	42.4855
1047.77	44.5939
1049.42	45.5758
1051.07	48.7518
1052.71	49.9179
1054.36	51.844
1056	52.3713
1057.65	52.8856
1059.3	52.5423
1060.94	51.8994
1062.59	53.1654
1064.23	53.7513
1065.87	51.7061
1067.52	51.6866
1069.16	51.5727
1070.8	52.4035
1072.44	53.7743
1074.09	52.4675
1075.73	53.4208
1077.37	53.8242
1079.01	52.0515
1080.65	51.8812
1082.29	49.1428
1083.93	48.3985
1085.57	47.4766
1087.21	45.8206
1088.85	44.5039
1090.49	44.2
1092.13	45.8543
1093.77	45.1948
1095.41	44.9513
1097.04	44.8646
1098.68	44.7453
1100.32	43.9099
1101.95	44.0008
1103.59	44.4463
1105.23	45.6973
1106.86	47.4093
1108.5	47.616
1110.13	45.991
1111.77	43.9085
1113.4	42.9961
1115.04	43.2425
1116.67	43.4846
1118.31	43.2349
1119.94	42.0962
1121.57	42.1702
1123.2	42.4524
1124.84	40.5817
1126.47	40.7002
1128.1	40.5992
1129.73	40.4802
1131.36	38.3765
1132.99	36.6637
1134.62	35.7194
1136.25	34.1301
1137.88	31.532
1139.51	30.5182
1141.14	30.358
1142.77	31.0971
1144.4	30.3114
1146.03	27.5524
1147.66	24.8349
1149.28	24.267
1150.91	23.3479
1152.54	21.3607
1154.16	19.0454
1155.79	16.511
1157.42	15.8974
1159.04	14.1042
1160.67	11.7321
1162.29	10.6422
1163.92	7.77647
1165.54	6.94663
1167.17	6.62725
1168.79	5.85336
1170.41	4.66409
1172.04	5.61922
1173.66	7.7173
1175.28	7.04197
1176.9	6.44965
1178.53	6.32057
1180.15	7.07493
1181.77	6.61293
1183.39	8.54531
1185.01	9.35074
1186.63	9.10297
1188.25	9.2719
1189.87	9.90949
1191.49	10.1043
1193.11	12.8867
1194.73	15.2437
1196.35	15.0045
1197.96	16.969
1199.58	16.6497
1201.2	16.463
1202.82	17.2905
1204.43	17.6178
1206.05	17.5346
1207.66	19.3202
1209.28	19.2769
1210.9	22.0608
1212.51	23.4537
1214.13	26.0243
1215.74	28.3946
1217.36	28.9449
1218.97	31.2434
1220.58	32.5325
1222.2	34.0054
1223.81	34.4698
1225.42	34.523
1227.04	35.8095
1228.65	37.9476
1230.26	40.1613
1231.87	40.9217
1233.48	42.4144
1235.1	45.3377
1236.71	47.0017
1238.32	49.4567
1239.93	50.7334
1241.53	53.2102
1243.14	54.3693
1244.75	55.6826
1246.36	58.5574
1247.97	60.8197
1249.58	62.347
1251.19	63.2566
1252.8	65.9654
1254.4	68.2782
1256.01	67.4508
1257.62	68.5928
1259.22	69.4859
1260.83	70.9136
1262.43	72.5794
1264.04	73.1902
1265.64	74.6288
1267.25	76.3159
1268.85	79.1659
1270.46	81.6201
1272.06	82.8895
1273.66	85.1165
1275.27	86.2177
1276.87	85.3568
1278.48	86.1133
1280.08	86.3349
1281.68	89.3818
1283.28	92.8588
1284.88	95.9802
1286.48	97.4827
1288.08	100.142
1289.68	102.652
1291.28	104.803
1292.88	105.701
1294.48	106.91
1296.08	108.269
1297.68	109.998
1299.28	110.968
1300.88	109.808
1302.48	112.252
1304.07	113.44
1305.67	116.147
1307.27	116.452
1308.87	117.266
1310.46	117.324
1312.06	119.921
1313.65	121.355
1315.25	121.917
1316.85	122.249
1318.44	124.621
1320.03	126.377
1321.63	126.364
1323.22	124.509
1324.82	126.731
1326.41	127.995
1328	128.131
1329.6	126.658
1331.19	125.23
1332.78	125.633
1334.37	125.71
1335.96	125.55
1337.56	126.163
1339.15	125.14
1340.74	125.348
1342.33	123.543
1343.92	122.829
1345.51	122.569
1347.1	122.38
1348.69	121.521
1350.28	121.221
1351.86	119.947
1353.45	118.187
1355.04	115.978
1356.63	113.881
1358.21	113.342
1359.8	113.573
1361.39	113.047
1362.97	110.572
1364.56	108.725
1366.15	106.525
1367.73	105.915
1369.32	104.844
1370.9	103.168
1372.49	102.84
1374.07	100.786
1375.65	98.3559
1377.24	96.573
1378.82	93.9185
1380.41	90.4616
1381.99	90.6934
1383.57	88.5538
1385.15	87.94
1386.73	86.6956
1388.32	86.6171
1389.9	85.4195
1391.48	85.3185
1393.06	83.0727
1394.64	80.8505
1396.22	81.1293
1397.8	81.5575
1399.38	81.8707
1400.96	81.247
1402.54	82.8195
1404.11	85.7998
1405.69	86.6705
1407.27	87.544
1408.85	88.4924
1410.43	92.7616
1412	95.8906
1413.58	100.159
1415.16	102.356
1416.73	105.85
1418.31	108.271
1419.88	113.129
1421.46	115.869
1423.03	121.12
1424.61	126.212
1426.18	130.96
1427.76	135.266
1429.33	138.094
1430.9	142.086
1432.48	145.193
1434.05	148.597
1435.62	152.835
1437.2	156.874
1438.77	160.838
1440.34	164.423
1441.91	166.601
1443.48	170.472
1445.05	171.497
1446.62	174.076
1448.19	175.642
1449.76	176.305
1451.33	177.185
1452.9	176.577
1454.47	176.878
1456.04	176.185
1457.61	174.444
1459.17	172.047
1460.74	171.837
1462.31	170.499
1463.88	168.922
1465.44	166.134
1467.01	162.249
1468.58	158.585
1470.14	155.78
1471.71	151.744
1473.27	147.944
1474.84	144.986
1476.4	142.261
1477.97	138.686
1479.53	133.315
1481.1	129.186
1482.66	124.498
1484.22	119.899
1485.78	115.148
1487.35	111.795
1488.91	108.913
1490.47	104.341
1492.03	100.65
1493.59	95.7062
1495.16	92.9567
1496.72	88.9035
1498.28	85.5286
1499.84	80.7817
1501.4	77.4696
1502.96	74.7831
1504.52	70.4525
1506.08	67.1991
1507.64	62.3826
1509.19	59.3747
1510.75	56.0253
1512.31	53.594
1513.87	51.7074
1515.42	50.03
1516.98	47.2511
1518.54	44.4732
1520.1	43.0856
1521.65	42.9655
1523.21	42.0059
1524.76	42.6145
1526.32	41.7456
1527.87	42.1894
1529.43	42.4766
1530.98	42.0884
1532.54	42.4801
1534.09	41.8878
1535.64	42.4727
1537.2	43.4418
1538.75	43.7842
1540.3	44.3995
1541.85	44.4251
1543.41	45.6319
1544.96	46.7544
1546.51	48.2839
1548.06	48.4539
1549.61	49.1039
1551.16	49.0307
1552.71	49.931
1554.26	51.9611
1555.81	52.6031
1557.36	52.4875
1558.91	53.6259
1560.46	55.0566
1562.01	57.1012
1563.56	58.1959
1565.1	61.2219
1566.65	61.8771
1568.2	62.7052
1569.75	63.7966
1571.29	65.6575
1572.84	68.2555
1574.38	68.9409
1575.93	70.7146
1577.48	71.4816
1579.02	73.2801
1580.57	76.3107
1582.11	78.5904
1583.65	79.4465
1585.2	80.73
1586.74	83.0115
1588.29	85.4118
1589.83	87.7807
1591.37	88.9358
1592.92	91.0008
1594.46	90.5093
1596	91.9286
1597.54	94.3611
1599.08	94.2257
1600.62	95.3134
1602.16	95.8841
1603.7	94.5859
1605.24	94.3636
1606.78	93.6091
1608.32	91.8214
1609.86	91.2157
1611.4	88.4707
1612.94	85.9055
1614.48	83.3193
1616.02	81.5854
1617.56	80.8196
1619.09	79.1309
1620.63	77.8704
1622.17	76.2689
1623.71	75.1505
1625.24	73.1667
1626.78	73.0126
1628.31	71.7991
1629.85	72.3464
1631.39	71.3234
1632.92	71.3961
1634.46	70.3102
1635.99	72.9008
1637.52	72.8904
1639.06	73.2146
1640.59	72.3628
1642.12	74.3466
1643.66	73.4648
1645.19	74.1392
1646.72	74.3782
1648.25	75.6291
1649.79	76.5677
1651.32	76.907
1652.85	78.2219
1654.38	79.32
1655.91	80.7339
1657.44	81.6978
1658.97	80.9662
1660.5	81.1546
1662.03	80.6723
1663.56	80.5503
1665.09	79.9527
1666.62	78.4045
1668.15	75.7066
1669.67	73.768
1671.2	71.4901
1672.73	70.4887
1674.26	68.9419
1675.79	65.7462
1677.31	64.2309
1678.84	60.6572
1680.36	57.2194
1681.89	53.7879
1683.42	49.2092
1684.94	44.3006
1686.47	40.7838
1687.99	37.6006
1689.51	35.0441
1691.04	31.7679
1692.56	29.0185
1694.08	26.5206
1695.61	24.0498
1697.13	22.9127
1698.65	20.7155
1700.18	17.5414
1701.7	16.8392
1703.22	16.2945
1704.74	14.6936
1706.26	13.4779
1707.78	11.8897
1709.3	11.3892
1710.82	8.72412
1712.35	8.45084
1713.86	5.4479
1715.39	5.57791
1716.9	5.34224
1718.42	6.14335
1719.94	3.96027
1721.46	2.20678
1722.98	2.51156
1724.5	3.26139
1726.01	3.2754
1727.53	3.59043
1729.05	4.77789
1730.56	4.53421
1732.08	3.32939
1733.6	3.41846
1735.11	3.01256
1736.63	2.76628
1738.14	1.23648
1739.66	1.55007
1741.17	1.82456
1742.69	0.617403
1744.2	1.42407
1745.71	2.31933
1747.23	3.04075
1748.74	2.72494
1750.25	2.52265
1751.77	2.23704
1753.28	2.49001
1754.79	2.08487
1756.3	1.48404
1757.81	0.897773
1759.33	1.43128
1760.84	2.10389
1762.35	2.82623
1763.86	4.24755
1765.37	3.03913
1766.88	2.98918
1768.39	4.18671
1769.9	4.93225
1771.41	4.38794
1772.91	4.45438
1774.42	4.82749
1775.93	4.88413
1777.44	6.21869
1778.95	5.96398
1780.45	5.71128
1781.96	4.73201
1783.47	4.813
1784.97	4.85385
1786.48	4.03865
1787.99	4.46984
1789.49	4.23535
1791	4.39069
1792.5	4.18789
1794.01	4.17376
1795.51	2.55409
1797.01	2.1312
1798.52	4.30589
1800.02	4.46979
1801.52	5.42068
1803.03	6.84511
1804.53	7.34865
1806.03	6.68481
1807.54	6.97442
1809.04	7.67937
1810.54	8.29053
1812.04	8.34415
1813.54	10.8348
1815.04	12.4864
1816.54	13.0351
1818.04	12.8895
1819.54	13.5927
1821.04	12.876
1822.54	12.3706
1824.04	11.9872
1825.54	12.4006
1827.04	12.3597
1828.54	12.6893
1830.03	12.9137
1831.53	12.7936
1833.03	13.5454
1834.53	13.703
1836.02	14.2676
1837.52	14.9931
1839.02	16.3314
1840.51	15.9672
1842.01	16.7719
1843.5	16.7159
1845	17.0018
1846.49	17.6313
1847.99	17.7053
1849.48	18.1628
1850.98	17.125
1852.47	16.5316
1853.96	15.3831
1855.46	13.9958
1856.95	14.5086
1858.44	15.2363
1859.94	15.3043
1861.43	15.3731
1862.92	15.797
1864.41	15.8128
1865.9	15.925
1867.39	15.0286
1868.88	14.3233
1870.37	14.0247
1871.86	13.7239
1873.35	14.6809
1874.84	15.0289
1876.33	14.4438
1877.82	14.4488
1879.31	13.7265
1880.8	13.6533
1882.29	13.2949
1882.58	12.988
1884.08	12.4861
1885.57	12.4698
1887.06	12.5191
1888.56	11.6244
1890.05	10.5448
1891.54	10.7333
1893.04	9.45748
1894.53	8.33579
1896.02	7.94537
1897.51	7.95732
1899	8.22236
1900.5	8.97896
1901.99	9.27952
1903.48	9.30203
1904.97	8.43939
1906.46	9.51093
1907.95	9.73985
1909.44	9.85064
1910.93	9.87112
1912.42	10.2813
1913.91	9.40576
1915.4	8.98164
1916.88	9.1331
1918.37	9.76239
1919.86	8.65926
1921.35	7.53714
1922.84	7.44089
1924.32	7.74171
1925.81	7.4795
1927.3	7.74235
1928.78	9.64387
1930.27	10.3272
1931.75	9.7574
1933.24	9.02009
1934.72	7.67893
1936.21	5.85965
1937.69	5.90197
1939.18	4.83278
1940.66	2.9679
1942.15	2.93016
1943.63	3.65434
1945.11	2.42301
1946.6	3.42454
1948.08	3.06535
1949.56	2.69832
1951.04	3.14671
1952.53	3.10716
1954.01	3.08421
1955.49	2.70152
1956.97	2.34564
1958.45	2.64782
1959.93	3.11053
1961.41	2.09043
1962.89	2.03107
1964.37	1.50561
1965.85	1.76288
1967.33	0.9728
1968.81	1.7734
1970.29	2.50527
1971.77	2.60222
1973.24	2.22848
1974.72	2.71995
1976.2	1.44721
1977.68	2.08528
1979.15	2.70319
1980.63	4.53216
1982.11	4.35818
1983.58	5.92894
1985.06	7.17503
1986.53	7.63766
1988.01	7.37126
1989.48	8.31836
1990.96	8.80645
1992.43	8.55776
1993.91	8.33274
1995.38	8.92087
1996.86	9.73741
1998.33	10.1316
1999.8	9.92487
2001.27	9.67233
2002.75	10.3552
2004.22	9.3636
2005.69	9.6617
2007.16	9.2193
2008.64	9.05924
2010.11	9.60237
2011.58	11.692
2013.05	10.6168
2014.52	11.3178
2015.99	13.2247
2017.46	14.3375
2018.93	14.171
2020.4	14.8526
2021.87	15.7901
2023.34	15.8728
2024.8	15.1306
2026.27	16.009
2027.74	15.1233
2029.21	14.8626
2030.68	15.3753
2032.14	14.8876
2033.61	15.647
2035.08	14.9738
2036.54	15.4324
2038.01	15.2863
2039.48	15.1152
2040.94	14.0147
2042.41	13.0292
2043.87	12.7641
2045.34	12.3032
2046.8	13.0579
2048.27	13.8965
2049.73	14.8848
2051.19	16.2884
2052.66	17.0375
2054.12	17.6656
2055.58	17.5519
2057.05	18.918
2058.51	18.8724
2059.97	18.7728
2061.43	18.3849
2062.9	18.0494
2064.36	18.653
2065.82	19.5243
2067.28	19.2821
2068.74	19.1435
2070.2	19.3382
2071.66	20.0084
2073.12	20.2761
2074.58	19.8673
2076.04	20.2778
2077.5	20.9691
2078.95	20.452
2080.41	21.137
2081.87	20.8747
2083.33	21.5975
2084.79	22.1224
2086.24	21.4207
2087.7	20.2713
2089.16	20.7973
2090.61	20.2941
2092.07	20.5257
2093.53	21.6516
2094.98	22.5882
2096.44	23.2353
2097.89	22.8975
2099.35	24.689
2100.8	24.4158
2102.26	25.5803
2103.71	27.421
2105.16	27.3512
2106.62	29.0699
2108.07	28.4029
2109.53	29.0831
2110.98	29.1758
2112.43	29.9828
2113.88	30.5026
2115.33	32.1843
2116.79	34.1471
2118.24	33.8796
2119.69	35.1452
2121.14	35.7429
2122.59	37.022
2124.04	37.315
2125.49	38.5072
2126.94	39.9029
2128.39	40.2551
2129.84	42.1589
2131.29	43.5509
2132.74	42.8933
2134.19	43.6685
2135.63	44.8519
2137.08	46.5212
2138.53	47.3478
2139.98	47.1155
2141.43	47.5267
2142.87	47.6753
2144.32	48.2309
2145.77	47.4953
2147.21	46.8489
2148.66	48.0412
2150.1	47.8742
2151.55	48.1767
2152.99	49.6916
2154.44	49.2983
2155.88	50.285
2157.33	52.3888
2158.77	53.555
2160.21	54.6977
2161.66	56.8634
2163.1	58.8621
2164.55	60.3843
2165.99	62.2707
2167.43	64.1124
2168.87	65.9817
2170.31	67.5411
2171.76	69.3011
2173.2	69.6937
2174.64	70.7085
2176.08	71.7015
2177.52	70.9923
2178.96	73.2308
2180.4	73.9408
2181.84	73.0164
2183.28	73.0045
2184.72	74.5353
2186.16	74.9185
2187.6	75.3455
2189.04	75.1322
2190.47	73.9067
2191.91	74.0135
2193.35	73.4625
2194.79	73.1922
2196.23	72.1622
2197.66	72.3156
2199.1	70.7723
2200.54	69.153
2201.97	67.9788
2203.41	66.003
2204.84	63.5021
2206.28	63.3868
2207.71	61.4047
2209.15	59.6786
2210.58	56.4877
2212.02	52.0595
2213.45	50.4907
2214.89	48.2982
2216.32	47.5229
2217.75	45.5488
2219.19	43.5629
2220.62	43.3169
2222.05	42.4987
2223.48	42.5074
2224.92	41.3343
2226.35	39.8752
2227.78	39.5092
2229.21	39.2768
2230.64	37.2292
2232.07	35.7885
2233.5	34.1127
2234.93	34.5386
2236.36	32.8305
2237.79	32.2592
2239.22	32.3575
2240.65	31.1516
2242.08	29.7723
2243.51	28.1333
2244.94	27.2678
2246.37	27.1033
2247.79	26.8501
2249.22	26.8629
2250.65	27.8287
2252.08	26.6464
2253.5	26.0671
2254.93	26.5613
2256.36	27.4921
2257.78	25.973
2259.21	26.2056
2260.63	26.0891
2262.06	25.3054
2263.48	25.3619
2264.91	25.0162
2266.33	25.2884
2267.76	25.7783
2269.18	25.8711
2270.6	25.0659
2272.03	25.3624
2273.45	24.5834
2274.87	24.2313
2276.3	24.06
2277.72	22.9755
2279.14	21.7287
2280.56	21.7024
2281.98	21.0521
2283.41	21.9581
2284.83	24.1155
2286.25	22.9284
2287.67	23.6492
2289.09	23.1168
2290.51	23.2634
2291.93	23.8745
2293.35	24.3929
2294.77	24.1933
2296.19	24.3829
2297.61	24.1012
2299.02	23.9408
2300.44	24.4584
2301.86	24.888
2303.28	23.5903
2304.7	22.9561
2306.11	23.4193
2307.53	22.2547
2308.95	22.5755
2310.36	22.9343
2311.78	21.4309
2313.2	21.3774
2314.61	21.748
2316.03	22.2442
2317.44	23.3029
2318.86	22.6867
2320.27	22.87
2321.69	22.1294
2323.1	22.0938
2324.51	21.7398
2325.93	20.6385
2327.34	19.8265
2328.76	18.9419
2330.17	18.471
2331.58	18.3284
2332.99	17.5514
2334.41	16.7524
2335.82	15.7683
2337.23	14.7436
2338.64	13.7391
2340.05	11.6302
2341.46	10.4352
2342.87	9.30241
2344.28	7.84682
2345.69	6.84716
2347.1	6.04616
2348.51	5.12111
2349.92	5.04813
2351.33	5.25023
2352.74	4.75529
2354.15	4.39837
2355.56	3.86753
2356.97	3.43373
2358.37	4.14801
2359.78	4.19483
2361.19	3.69823
2362.6	4.82805
2364	6.53275
2365.41	6.40119
2366.82	6.64945
2368.22	6.97345
2369.63	7.5553
2371.03	8.06704
2372.44	7.04554
2373.84	6.32935
2375.25	8.30868
2376.65	9.27614
2378.06	9.66024
2379.46	11.0109
2380.86	12.0955
2382.27	12.7974
2383.67	15.2209
2385.07	16.2258
2386.48	17.2052
2387.88	16.7825
2389.28	16.7872
2390.69	16.9017
2392.09	17.1943
2393.49	17.8627
2394.89	17.8167
2396.29	17.3423
2397.69	17.5353
2399.09	18.4024
2400.49	18.9014
2401.89	19.0624
2403.29	17.8656
2404.69	17.5543
2406.09	16.6269
2407.49	15.4208
2408.89	15.7291
2410.29	14.7667
2411.69	15.2978
2413.08	14.3279
2414.48	13.6005
2415.88	12.9343
2417.28	12.7136
2418.67	12.4872
2420.07	14.0117
2421.47	14.2016
2422.86	14.5912
2424.26	14.6133
2425.65	14.6331
2427.05	14.4674
2428.45	14.8081
2429.84	14.8336
2431.23	15.1213
2432.63	15.2916
2434.02	14.7447
2435.42	13.395
2436.81	14.0832
2438.2	14.3367
2439.6	13.8106
2440.99	13.4784
2442.38	14.4849
2443.78	14.8054
2445.17	15.3619
2446.56	14.4681
2447.95	14.2331
2449.34	14.0555
2450.73	12.8512
2452.13	12.3956
2453.52	12.7696
2454.91	11.3665
2456.3	11.5198
2457.69	11.8254
2459.08	11.8395
2460.47	11.366
2461.85	12.1337
2463.24	11.9239
2464.63	11.6581
2466.02	11.1785
2467.41	10.7841
2468.8	10.0596
2470.19	10.2788
2471.57	9.02594
2472.96	9.14001
2474.35	9.79351
2475.73	9.23663
2477.12	9.64154
2478.51	9.54242
2479.89	8.57914
2481.28	8.5115
2482.66	7.52802
2484.05	8.1383
2485.43	8.81296
2486.82	9.16374
2488.2	9.87526
2489.59	10.0574
2490.97	7.82948
2492.35	7.60157
2493.74	7.93232
2495.12	7.86885
2496.5	7.66845
2497.89	8.66399
2499.27	7.76519
2500.65	7.37572
2502.03	6.76373
2503.42	6.53762
2504.8	6.25719
2506.18	6.71761
2507.56	6.03142
2508.94	6.43817
2510.32	6.80106
2511.7	7.09542
2513.08	5.97076
2514.46	6.49557
2515.84	5.95058
2517.22	6.09898
2518.6	5.94917
2519.98	5.61233
2521.36	6.10259
2522.73	6.43668
2524.11	6.68408
2525.49	7.5822
2526.87	8.27533
2528.25	7.73194
2529.62	8.13164
2531	9.25116
2532.38	8.84778
2533.75	8.53239
2535.13	9.13034
2536.5	9.16826
2537.88	9.13961
2539.25	10.4107
2540.63	9.53657
2542.01	10.6755
2543.38	10.5626
2544.75	10.1509
2546.13	9.59974
2547.5	8.75908
2548.88	8.97073
2550.25	8.30598
2551.62	8.52377
2553	8.37986
2554.37	8.6693
2555.74	8.10355
2557.11	7.90081
2558.49	6.88392
2559.86	7.64681
2561.23	7.64658
2562.6	8.48457
2563.97	8.46824
2565.34	8.75584
2566.71	9.56127
2568.08	9.27447
2569.45	9.92995
2570.82	10.2373
2572.19	10.3306
2573.56	11.2059
2574.93	11.6172
2576.3	12.9078
2577.67	15.0798
2579.03	15.4817
2580.4	16.0777
2581.77	16.1582
2583.14	17.0024
2584.5	16.4618
2585.87	16.8172
2587.24	16.9083
2588.6	18.1347
2589.97	18.3547
2591.34	18.8709
2592.7	19.3595
2594.07	19.5089
2595.43	19.1558
2596.8	18.1252
2598.16	18.8653
2599.53	19.2709
2600.89	17.8019
2602.26	16.8703
2603.62	16.3832
2604.98	15.4525
2606.35	13.45
2607.71	12.9597
2609.07	11.1883
2610.44	10.9037
2611.8	10.1673
2613.16	9.44109
2614.52	8.40001
2615.88	8.06732
2617.25	7.03885
2618.61	6.24146
2619.97	6.21913
2621.33	5.67883
2622.69	5.56104
2624.05	4.81891
2625.41	5.02934
2626.77	4.35965
2628.13	3.96625
2629.49	3.76318
2630.85	5.00275
2632.21	5.20903
2633.56	6.27198
2634.92	5.95161
2636.28	5.57741
2637.64	5.76141
2639	5.84945
2640.35	6.76049
2641.71	7.60539
2643.07	8.65202
2644.42	9.81685
2645.78	10.403
2647.14	10.6747
2648.49	11.2618
2649.85	12.4771
2651.2	12.7876
2652.56	13.1296
2653.91	14.4856
2655.27	14.89
2656.62	15.6827
2657.98	15.5577
2659.33	16.1814
2660.68	18.1531
2662.04	19.1608
2663.39	19.1081
2664.74	19.9298
2666.1	20.6131
2667.45	19.6614
2668.8	19.0801
2670.15	18.5562
2671.5	18.7334
2672.86	18.2952
2674.21	17.8071
2675.56	18.7832
2676.91	19.4522
2678.26	20.3565
2679.61	20.4264
2680.96	20.0958
2682.31	20.0216
2683.66	19.4346
2685.01	19.1398
2686.36	19.6784
2687.71	19.6438
2689.06	20.1504
2690.4	20.0949
2691.75	19.9434
2693.1	19.0695
2694.45	18.7631
2695.8	19.0396
2697.14	19.4783
2698.49	19.9035
2699.84	20.2835
2701.18	20.2058
2702.53	19.9118
2703.88	21.2289
2705.22	21.4953
2706.57	22.4362
2707.91	22.8343
2709.26	23.3661
2710.6	23.9098
2711.95	24.1453
2713.29	25.4116
2714.64	25.7503
2715.98	25.2034
2717.32	25.6759
2718.67	24.7432
2720.01	25.7026
2721.35	25.9742
2722.7	26.057
2724.04	26.1789
2725.38	26.4909
2726.72	26.3009
2728.06	27.4553
2729.4	26.2562
2730.75	25.4252
2732.09	24.0658
2733.43	23.579
2734.77	22.5097
2736.11	23.2557
2737.45	23.1083
2738.79	22.8437
2740.13	23.1954
2741.47	24.2493
2742.81	23.4846
2744.15	23.0628
2745.48	22.3109
2746.82	20.6644
2748.16	20.3234
2749.5	20.2152
2750.84	18.778
2752.17	17.8368
2753.51	17.5096
2754.85	16.4964
2756.19	15.7406
2757.52	14.6605
2758.86	14.3505
2760.19	13.9713
2761.53	13.5967
2762.86	11.9146
2764.2	11.2788
2765.54	10.9603
2766.87	10.32
2768.2	9.3526
2769.54	9.03822
2770.87	7.84153
2772.21	6.68417
2773.54	7.2896
2774.88	7.24963
2776.21	6.92812
2777.54	5.88095
2778.87	5.43538
2780.21	5.40701
2781.54	3.51638
2782.87	3.09629
2784.2	3.00709
2785.53	2.32222
2786.87	2.05157
2788.2	1.25156
2789.53	0.72092
2790.86	0.473087
2792.19	0.446817
2793.52	-0.0612022
2794.85	-0.444905
2796.18	-0.466108
2797.51	-0.727492
2798.84	-1.35758
2800.17	-0.745035
2801.49	-1.35533
2802.82	-0.8605
2804.15	-1.36596
2805.48	-1.8411
2806.81	-2.63371
2808.13	-3.91136
2809.46	-5.37651
2810.79	-5.24749
2812.12	-6.22039
2813.44	-6.45509
2814.77	-4.49209
2816.09	-3.4531
2817.42	-1.84429
2818.75	1.42359
2820.07	5.32836
2821.4	9.71435
2822.72	14.4977
2824.05	18.6434
2825.37	23.7231
2826.7	28.1414
2828.02	33.29
2829.35	39.5077
2830.67	44.9558
2831.99	50.5392
2833.31	57.6657
2834.64	64.007
2835.96	70.5777
2837.28	77.6062
2838.61	84.666
2839.93	90.722
2841.25	98.6589
2842.57	105.425
2843.89	112.736
2845.21	120.053
2846.53	127.921
2847.85	135.046
2849.17	143.603
2850.49	151.277
2851.81	158.772
2853.13	166.279
2854.45	173.772
2855.77	182.045
2857.09	188.453
2858.41	194.786
2859.73	201.078
2861.05	207.794
2862.36	213.466
2863.68	217.721
2865	222.036
2866.32	224.892
2867.64	227.266
2868.95	229.745
2870.27	232.607
2871.59	233.934
2872.9	235.302
2874.22	238.497
2875.53	240.558
2876.85	242.205
2878.16	243.65
2879.48	247.408
2880.79	250.722
2882.11	252.778
2883.42	255.3
2884.74	257.62
2886.05	260.953
2887.36	264.504
2888.68	265.803
2889.99	267.338
2891.3	270.841
2892.62	272.331
2893.93	274.373
2895.24	276.157
2896.55	277.86
2897.86	280.736
2899.18	283.356
2900.49	285.384
2901.8	288.044
2903.11	291.104
2904.42	294.129
2905.73	298.501
2907.04	304.516
2908.35	308.257
2909.66	313.835
2910.97	320.033
2912.28	327.3
2913.59	333.886
2914.9	341.103
2916.21	346.539
2917.51	351.83
2918.82	357.057
2920.13	361.399
2921.44	365.171
2922.74	367.627
2924.05	370.786
2925.36	373.216
2926.67	373.904
2927.97	373.788
2929.28	373.166
2930.59	370.962
2931.89	367.994
2933.2	365.874
2934.5	364.069
2935.81	361.023
2937.11	356.431
2938.42	351.564
2939.72	347.317
2941.02	339.783
2942.33	334.868
2943.63	328.129
2944.94	321.527
2946.24	314.022
2947.54	306.758
2948.85	299.893
2950.15	293.145
2951.45	284.835
2952.75	276.773
2954.05	267.949
2955.36	260.343
2956.66	251.817
2957.96	243.354
2959.26	235.694
2960.56	227.681
2961.86	220.593
2963.16	213.75
2964.46	206.873
2965.76	200.75
2967.06	194.467
2968.36	188.56
2969.66	183.625
2970.96	179.696
2972.26	175.266
2973.56	172.076
2974.85	168.624
2976.15	164.313
2977.45	160.896
2978.75	155.898
2980.05	150.95
2981.34	145.451
2982.64	140.117
2983.94	134.877
2985.23	129.266
2986.53	123.983
2987.83	119.264
2989.12	113.189
2990.42	106.933
2991.71	100.061
2993.01	94.7237
2994.3	88.5622
2995.6	83.3104
2996.89	77.5106
2998.19	72.875
2999.48	68.2379
3000.77	62.0629
3002.07	57.1235
3003.36	51.7666
3004.65	47.4145
3005.95	41.4183
3007.24	38.2962
3008.53	33.0666
3009.82	29.17
3011.12	26.3255
3012.41	23.116
3013.7	19.8934
3014.99	16.0659
3016.28	12.5053
3017.57	10.2977
3018.86	7.42613
3020.15	5.39125
3021.44	3.23426
3022.73	2.4618
3024.02	1.24269
3025.31	0.532356
3026.6	-0.028195
3027.89	-0.845049
3029.18	-1.36161
3030.47	-2.11916
3031.76	-2.18296
3033.04	-1.89716
3034.33	-1.82402
3035.62	-1.35602
3036.91	-0.262269
3038.19	1.52555
3039.48	1.82006
3040.77	2.34026
3042.05	2.91009
3043.34	3.30226
3044.63	3.76286
3045.91	4.42965
3047.2	4.05386
3048.48	4.12863
3049.77	4.08608
3051.05	4.59767
3052.34	4.98172
3053.62	3.90532
3054.91	3.61131
3056.19	4.43222
3057.48	4.68046
3058.76	5.09732
3060.04	5.13532
3061.33	4.52464
3062.61	4.29035
3063.89	4.58482
3065.17	3.51536
3066.46	3.68762
3067.74	3.17545
3069.02	3.34637
3070.3	3.08932
3071.59	3.35781
3072.87	2.27341
3074.15	1.74376
3075.43	1.67252
3076.71	0.984635
3077.99	0.721169
3079.27	-0.193964
3080.55	-0.140113
3081.83	-0.224421
3083.11	-0.565452
3084.39	-0.133554
3085.67	0.743005
3086.94	0.570341
3088.22	0.418138
3089.5	0.393278
3090.78	-0.135799
3092.06	-0.0485525
3093.34	-0.127086
3094.61	-0.583223
3095.89	0.437159
3097.17	1.01764
3098.44	1.45403
3099.72	2.39695
3101	3.23961
3102.27	3.09162
3103.55	3.34006
3104.82	3.49733
3106.1	4.15705
3107.38	5.20084
3108.65	5.7075
3109.93	6.38627
3111.2	6.11176
3112.47	7.28474
3113.75	7.94593
3115.02	7.89981
3116.3	9.08927
3117.57	8.50883
3118.84	9.4866
3120.12	10.5858
3121.39	11.0616
3122.66	12.131
3123.93	12.437
3125.2	13.1964
3126.48	14.2066
3127.75	16.0356
3129.02	16.0278
3130.29	17.4642
3131.56	17.9195
3132.83	18.6236
3134.1	18.8485
3135.37	19.4108
3136.64	19.9984
3137.91	21.7774
3139.18	22.9991
3140.45	24.3503
3141.72	25.4239
3142.99	26.7004
3144.26	28.1054
3145.53	29.4144
3146.8	30.6317
3148.07	30.5801
3149.33	31.2308
