#Acq. time (s)=	45
#Accumulations=	2
#Range (cm-¹)=	200...3150
#Windows=	2
#Auto scanning=	Off
#Autofocus=	Off
#Macrospot=	Off
#AutoExposure=	Off
#Spike filter=	Multiple accum.
#Delay time (s)=	0
#Binning=	1
#Readout mode=	Signal
#DeNoise=	Off
#ICS correction=	On
#Dark correction=	Off
#Inst. Process=	Off
#Detector Gain=	Best Dynamic Range
#Detector ADC=	20 kHz       
#Detector temperature (°C)=	-69.85
#Instrument=	LabRAM HR Evol
#Detector=	Synapse
#Objective=	x100
#Grating=	600 gr/mm
#ND Filter=	100%
#Laser (nm)=	532 
#Hole=	100.021
#Range=	Auto
#Laser Pol.=	No
#Raman. Pol.=	No
#Laser Pol. (°)=	-0.0007625
#Raman Pol. (°)=	89.9995
#Collection=	Microscope
#StageXY=	Marzhauser
#StageZ=	Marzhauser
#X (µm)=	-1157.4
#Y (µm)=	1258.2
#Z (µm)=	578
#Full time(mm:ss)=	3:18
#Project=	
#Sample=	
#Site=	
#Title=	Mbcal_20_25_18_2x_45s_532 nm_x100_100%_600 gr_mm
#Remark=	
#Date=	18.07.2022 10:42
#Acquired=	18.07.2022 10:42:50
#Base:Fit=	10.08.2022 10:55:08
#Base:Sub=	10.08.2022 10:55:14
#Filter:Polynom=	16.08.2022 10:07:28
#AxisType[0]=Intens
#AxisUnit[0]=Cnt
#AxisType[1]=Spectr
#AxisUnit[1]=1/cm
200.419	2.464
202.234	2.46512
204.048	3.51985
205.862	3.33368
207.678	2.90812
209.491	2.73672
211.304	2.78907
213.116	3.34015
214.928	3.70056
216.742	4.28314
218.554	4.59035
220.365	3.85148
222.176	4.20154
223.986	4.31315
225.798	4.87738
227.608	5.28491
229.417	5.05107
231.226	4.21288
233.035	4.44739
234.843	5.34937
236.653	6.01811
238.46	5.92873
240.268	6.49499
242.074	6.96979
243.881	7.36565
245.687	7.37924
247.493	7.47329
249.298	8.81226
251.103	7.757
252.908	7.58941
254.715	8.65895
256.519	9.65917
258.322	10.139
260.126	9.74463
261.929	9.07494
263.731	8.36035
265.534	10.1789
267.336	10.422
269.137	10.5364
270.938	11.315
272.739	11.3192
274.54	11.8226
276.34	11.6658
278.14	11.526
279.939	11.2656
281.739	10.8951
283.537	9.86408
285.336	9.40693
287.134	9.24706
288.932	9.12024
290.729	9.38706
292.526	8.79682
294.323	8.41914
296.117	9.18248
297.913	9.66192
299.709	9.85131
301.504	9.64336
303.299	10.9861
305.093	10.1729
306.888	10.472
308.682	10.3211
310.475	10.7209
312.268	11.9585
314.059	12.6944
315.852	13.2759
317.644	13.5417
319.436	12.9624
321.227	13.8763
323.018	15.7453
324.807	16.45
326.597	17.1006
328.387	18.014
330.177	18.2577
331.967	18.4409
333.753	18.3198
335.542	18.0016
337.331	17.8826
339.119	18.1613
340.906	17.4396
342.691	18.7288
344.478	18.6989
346.265	17.9963
348.051	18.2441
349.835	17.3899
351.621	16.9039
353.406	16.28
355.189	15.9535
356.973	15.476
358.757	16.034
360.541	15.0426
362.323	14.8253
364.106	14.5836
365.889	13.9695
367.669	13.0204
369.451	13.0449
371.233	12.3138
373.012	11.3177
374.793	10.513
376.574	9.782
378.353	9.00298
380.133	8.60168
381.91	8.28179
383.69	8.10274
385.469	7.10403
387.245	7.064
389.024	6.9982
390.8	6.8342
392.577	7.08697
394.353	6.49749
396.129	6.73345
397.906	5.87893
399.68	5.55976
401.456	5.26907
403.23	5.36526
405.005	5.46187
406.778	5.28182
408.552	4.42458
410.325	4.70256
412.099	4.17421
413.87	3.85646
415.643	3.56233
417.414	2.94673
419.187	2.30132
420.957	2.65197
422.728	1.72484
424.498	1.41185
426.269	1.83395
428.038	2.67033
429.806	3.0155
431.576	2.82504
433.344	2.21525
435.114	2.06315
436.881	1.78003
438.649	1.72756
440.416	0.810294
442.182	0.957758
443.949	1.87607
445.715	3.00681
447.48	3.15347
449.247	3.15382
451.011	3.52731
452.777	3.25479
454.541	3.68731
456.304	4.20477
458.069	5.29131
459.832	5.02099
461.594	4.11744
463.358	4.92292
465.119	6.51498
466.881	7.38669
468.642	8.83221
470.404	9.3687
472.165	9.28601
473.925	9.98517
475.684	12.0109
477.445	12.5575
479.204	13.2893
480.963	14.8875
482.721	14.8295
484.481	14.6798
486.239	15.9823
487.996	16.696
489.753	17.5606
491.511	17.9259
493.268	18.3402
495.023	18.081
496.779	19.5648
498.534	20.1912
500.289	21.12
502.046	21.6669
503.8	22.5093
505.554	23.3569
507.307	23.8842
509.06	24.3885
510.813	24.4974
512.566	25.6331
514.32	26.1957
516.072	25.6713
517.823	25.4596
519.574	25.5034
521.325	25.1883
523.076	25.7492
524.826	25.0648
526.576	25.3322
528.325	24.1352
530.074	24.9716
531.823	24.7156
533.572	23.496
535.32	22.9901
537.068	22.6615
538.815	21.1383
540.562	20.6229
542.309	20.0003
544.056	19.2373
545.802	18.8932
547.547	18.1302
549.293	17.2709
551.038	18.0496
552.783	17.1065
554.527	15.2714
556.271	14.8072
558.015	12.7199
559.759	11.3874
561.502	10.6688
563.245	10.5656
564.987	10.1298
566.729	9.14443
568.471	8.46346
570.213	7.15859
571.954	6.2247
573.693	5.4733
575.433	4.72997
577.173	4.21611
578.913	4.23549
580.652	4.4867
582.392	4.48521
584.13	5.06612
585.867	3.70809
587.605	2.22733
589.343	2.48603
591.08	3.27988
592.817	2.93498
594.552	3.07169
596.289	3.68807
598.025	3.43054
599.761	3.47077
601.496	3.26945
603.229	3.00675
604.964	3.8319
606.699	4.54764
608.433	4.89456
610.165	4.25462
611.898	4.39293
613.631	5.07069
615.364	5.91524
617.095	5.57937
618.827	4.98077
620.559	3.68467
622.288	4.75025
624.02	4.99806
625.75	4.94177
627.479	6.17096
629.209	6.76452
630.939	7.36293
632.667	8.29252
634.396	8.27726
636.125	8.79753
637.851	8.74449
639.58	8.48176
641.305	8.27025
643.033	7.97835
644.76	7.30713
646.485	9.11866
648.212	10.713
649.936	11.1251
651.662	11.4881
653.388	10.743
655.111	10.7672
656.836	10.3897
658.558	9.22206
660.283	10.4629
662.005	10.92
663.728	10.5738
665.45	10.4304
667.173	9.92432
668.893	9.91267
670.616	10.0555
672.336	9.78394
674.057	9.38137
675.777	10.8434
677.498	10.6658
679.216	9.70887
680.937	10.1357
682.655	10.2656
684.375	9.3062
686.092	9.12851
687.809	9.32627
689.528	9.57807
691.244	10.6233
692.962	11.1463
694.678	11.4072
696.393	11.544
698.111	12.4938
699.825	11.7334
701.54	11.798
703.256	11.8716
704.97	13.0433
706.685	13.2843
708.398	15.7002
710.111	15.9281
711.826	17.0807
713.538	17.3878
715.25	18.3269
716.961	17.813
718.675	17.8012
720.386	18.1013
722.096	19.2453
723.808	19.1868
725.518	19.8913
727.228	21.046
728.937	21.5111
730.648	22.5891
732.357	23.7502
734.065	24.2798
735.773	24.7803
737.483	25.9889
739.19	26.5584
740.897	27.4732
742.604	28.4361
744.31	29.9863
746.018	32.157
747.724	33.1371
749.429	33.5303
751.134	34.0073
752.839	35.4591
754.544	36.7683
756.248	37.1549
757.953	36.7541
759.657	37.721
761.36	38.8081
763.063	39.2981
764.765	40.3048
766.468	40.9052
768.169	41.5559
769.871	42.3448
771.572	44.1566
773.273	45.8165
774.976	46.9606
776.676	48.8552
778.376	49.9036
780.075	50.1195
781.775	51.0289
783.474	50.2601
785.172	51.2072
786.871	53.1098
788.569	55.1273
790.266	55.738
791.964	56.706
793.661	56.8897
795.358	57.3404
797.054	58.0446
798.75	58.6098
800.446	59.0662
802.141	59.0951
803.834	59.8351
805.529	60.4638
807.224	60.802
808.918	60.0026
810.612	60.4652
812.305	60.8395
813.998	60.6139
815.691	60.6396
817.384	61.5209
819.076	61.6977
820.766	61.8462
822.458	61.9013
824.149	62.1452
825.84	62.5608
827.531	63.7931
829.221	65.3216
830.909	66.0554
832.599	67.3515
834.288	67.9709
835.977	69.2599
837.666	71.7484
839.353	73.0068
841.041	73.719
842.729	74.9358
844.416	77.1096
846.103	77.3216
847.788	78.1694
849.475	78.6526
851.161	77.9363
852.845	79.2825
854.53	79.1228
856.216	79.0502
857.901	78.6315
859.583	77.6505
861.268	78.1359
862.952	77.1927
864.633	75.9385
866.317	74.968
868	73.8461
869.681	73.8137
871.363	72.7955
873.045	71.6101
874.725	68.888
876.406	67.3927
878.088	65.35
879.767	63.6313
881.447	62.0429
883.125	59.3447
884.805	56.5907
886.483	54.2281
888.162	51.2526
889.841	49.4531
891.518	47.9019
893.196	46.4149
894.872	44.9165
896.55	43.187
898.225	41.7448
899.902	40.1275
901.577	39.3258
903.254	38.2328
904.928	38.3295
906.604	39.4557
908.277	40.6434
909.952	41.3114
911.625	43.0027
913.3	44.2794
914.972	44.9137
916.646	45.8485
918.318	46.398
919.991	47.5019
921.662	48.0065
923.333	48.0164
925.005	47.2598
926.675	47.4782
928.347	47.0876
930.017	46.578
931.686	44.5692
933.357	42.88
935.025	42.6644
936.693	42.0836
938.363	41.3034
940.031	41.3748
941.698	41.5527
943.367	41.1445
945.034	41.4707
946.7	39.9157
948.368	38.8046
950.034	38.0089
951.699	38.2269
953.367	37.4615
955.031	36.4633
956.696	35.5481
958.36	34.5726
960.026	34.9765
961.689	34.3882
963.353	32.9417
965.016	33.2981
966.68	32.1806
968.343	32.8266
970.005	33.0046
971.666	33.1097
973.328	33.7514
974.991	33.4692
976.652	33.5306
978.312	33.2639
979.972	33.432
981.632	32.7799
983.292	33.0732
984.953	32.5974
986.612	32.933
988.27	33.3084
989.929	33.7535
991.587	33.2714
993.244	32.334
994.902	31.9691
996.559	31.5085
998.216	30.571
999.872	30.4589
1001.53	28.6436
1003.19	28.3666
1004.84	27.6252
1006.5	27.5134
1008.15	26.0026
1009.81	25.2627
1011.46	24.6189
1013.11	25.2625
1014.77	24.7623
1016.42	27.3201
1018.07	28.5717
1019.73	28.541
1021.38	29.5346
1023.03	30.4697
1024.68	31.1148
1026.34	30.6494
1027.99	31.6389
1029.64	32.1539
1031.29	32.0234
1032.94	32.2841
1034.59	32.3327
1036.24	31.3746
1037.89	30.5553
1039.53	31.5642
1041.18	32.4606
1042.83	32.3721
1044.48	33.2833
1046.13	33.4337
1047.77	35.2621
1049.42	35.9492
1051.07	36.8199
1052.71	36.9272
1054.36	37.0776
1056	37.0667
1057.65	36.7002
1059.3	36.3019
1060.94	35.2948
1062.59	33.8348
1064.23	33.589
1065.87	33.9511
1067.52	33.1123
1069.16	33.0884
1070.8	32.8395
1072.44	32.1703
1074.09	31.2827
1075.73	28.8223
1077.37	27.6516
1079.01	26.6214
1080.65	25.0813
1082.29	24.8119
1083.93	23.5552
1085.57	23.9289
1087.21	23.2132
1088.85	23.1898
1090.49	22.8283
1092.13	23.7635
1093.77	24.6535
1095.41	24.4454
1097.04	24.0984
1098.68	24.5093
1100.32	24.1737
1101.95	24.3071
1103.59	24.5612
1105.23	24.5514
1106.86	23.6826
1108.5	22.6634
1110.13	22.7794
1111.77	22.438
1113.4	21.9886
1115.04	22.0694
1116.67	21.6292
1118.31	20.897
1119.94	21.457
1121.57	21.6836
1123.2	21.7694
1124.84	21.3754
1126.47	21.9097
1128.1	21.1469
1129.73	20.6988
1131.36	19.3286
1132.99	18.2453
1134.62	17.2907
1136.25	17.171
1137.88	16.4732
1139.51	16.4457
1141.14	15.2778
1142.77	14.553
1144.4	14.9138
1146.03	15.2913
1147.66	13.8008
1149.28	12.7313
1150.91	11.9058
1152.54	10.3118
1154.16	8.68778
1155.79	7.08596
1157.42	5.62832
1159.04	5.02977
1160.67	4.4756
1162.29	2.82663
1163.92	1.92221
1165.54	1.23441
1167.17	0.881478
1168.79	0.772754
1170.41	0.813643
1172.04	0.0689067
1173.66	0.368988
1175.28	0.0994249
1176.9	0.780294
1178.53	1.55465
1180.15	1.73822
1181.77	1.87865
1183.39	1.92654
1185.01	2.13448
1186.63	1.93887
1188.25	2.41748
1189.87	3.71839
1191.49	5.54874
1193.11	7.05717
1194.73	7.97644
1196.35	8.93605
1197.96	10.2561
1199.58	11.3727
1201.2	13.3144
1202.82	13.9208
1204.43	14.9102
1206.05	15.7351
1207.66	16.4698
1209.28	17.4541
1210.9	18.2805
1212.51	20.2021
1214.13	21.814
1215.74	23.7241
1217.36	25.8323
1218.97	27.4208
1220.58	29.1892
1222.2	30.3806
1223.81	32.8763
1225.42	35.3746
1227.04	35.8949
1228.65	36.9372
1230.26	39.0592
1231.87	40.4746
1233.48	41.9608
1235.1	43.6056
1236.71	44.3479
1238.32	45.5399
1239.93	46.8493
1241.53	48.7059
1243.14	49.6845
1244.75	51.4119
1246.36	53.6076
1247.97	54.5948
1249.58	55.2696
1251.19	54.9831
1252.8	55.1982
1254.4	56.1239
1256.01	57.0969
1257.62	56.6647
1259.22	55.998
1260.83	55.1986
1262.43	55.1991
1264.04	55.9039
1265.64	57.0861
1267.25	57.5682
1268.85	58.1508
1270.46	58.4968
1272.06	60.0253
1273.66	60.4851
1275.27	60.5826
1276.87	60.8572
1278.48	61.1423
1280.08	61.3528
1281.68	61.0854
1283.28	60.617
1284.88	61.1498
1286.48	61.5725
1288.08	62.1006
1289.68	63.1817
1291.28	63.0794
1292.88	63.7463
1294.48	64.2801
1296.08	65.1947
1297.68	65.5135
1299.28	67.1683
1300.88	67.76
1302.48	68.2053
1304.07	68.7673
1305.67	68.8742
1307.27	69.2221
1308.87	69.9732
1310.46	71.2377
1312.06	71.3874
1313.65	71.9545
1315.25	72.4833
1316.85	72.9597
1318.44	73.722
1320.03	74.6563
1321.63	74.5418
1323.22	74.1771
1324.82	73.0833
1326.41	72.8709
1328	71.518
1329.6	70.159
1331.19	69.628
1332.78	69.0042
1334.37	68.3813
1335.96	66.6933
1337.56	64.8876
1339.15	64.5701
1340.74	63.9859
1342.33	63.6601
1343.92	63.5336
1345.51	63.0694
1347.1	61.7733
1348.69	61.5218
1350.28	60.8843
1351.86	61.3626
1353.45	59.8294
1355.04	59.197
1356.63	58.8878
1358.21	58.4006
1359.8	57.2247
1361.39	56.5327
1362.97	56.7511
1364.56	56.3471
1366.15	55.563
1367.73	55.4611
1369.32	55.3423
1370.9	54.8153
1372.49	55.5811
1374.07	55.9256
1375.65	55.583
1377.24	54.851
1378.82	55.5695
1380.41	55.1058
1381.99	54.7663
1383.57	55.0448
1385.15	54.8749
1386.73	55.4736
1388.32	55.2679
1389.9	56.0922
1391.48	56.4852
1393.06	56.9713
1394.64	57.6164
1396.22	57.2755
1397.8	57.092
1399.38	57.4526
1400.96	58.8931
1402.54	59.1299
1404.11	59.8559
1405.69	60.5103
1407.27	61.9292
1408.85	62.8567
1410.43	64.0162
1412	64.7119
1413.58	66.7357
1415.16	68.3454
1416.73	70.388
1418.31	72.8271
1419.88	74.6623
1421.46	76.6212
1423.03	79.0549
1424.61	82.0203
1426.18	85.4012
1427.76	88.3105
1429.33	90.4174
1430.9	93.7995
1432.48	95.9803
1434.05	99.1556
1435.62	101.239
1437.2	103.673
1438.77	105.92
1440.34	108.239
1441.91	109.728
1443.48	111.097
1445.05	112.606
1446.62	113.63
1448.19	114.565
1449.76	114.807
1451.33	115.359
1452.9	115.068
1454.47	114.659
1456.04	113.614
1457.61	112.29
1459.17	110.775
1460.74	108.336
1462.31	106.594
1463.88	104.24
1465.44	102.052
1467.01	99.3125
1468.58	97.3059
1470.14	94.6031
1471.71	90.2844
1473.27	86.6245
1474.84	83.0742
1476.4	79.7554
1477.97	76.5642
1479.53	73.8148
1481.1	69.5766
1482.66	67.1161
1484.22	63.7048
1485.78	60.6766
1487.35	57.4387
1488.91	54.5522
1490.47	52.0179
1492.03	49.3636
1493.59	46.6248
1495.16	43.9341
1496.72	41.7142
1498.28	39.5334
1499.84	37.9739
1501.4	36.3374
1502.96	36.1216
1504.52	34.3462
1506.08	32.4906
1507.64	31.6338
1509.19	30.0134
1510.75	28.0105
1512.31	27.4533
1513.87	26.2205
1515.42	25.2948
1516.98	23.9299
1518.54	23.2064
1520.1	22.5844
1521.65	22.1032
1523.21	21.7542
1524.76	21.3149
1526.32	20.8772
1527.87	21.3097
1529.43	21.7544
1530.98	21.4441
1532.54	20.3518
1534.09	20.1358
1535.64	20.2594
1537.2	21.1605
1538.75	22.0376
1540.3	23.2637
1541.85	24.5039
1543.41	25.2785
1544.96	26.3753
1546.51	27.4277
1548.06	27.4553
1549.61	27.8423
1551.16	29.6173
1552.71	30.1107
1554.26	31.4037
1555.81	32.5978
1557.36	33.6398
1558.91	35.4585
1560.46	36.4319
1562.01	37.0312
1563.56	37.5417
1565.1	38.6082
1566.65	39.7762
1568.2	40.6516
1569.75	41.3377
1571.29	41.7502
1572.84	42.1015
1574.38	44.2186
1575.93	45.405
1577.48	46.2037
1579.02	47.7948
1580.57	49.872
1582.11	50.3289
1583.65	51.4965
1585.2	52.5314
1586.74	52.6594
1588.29	53.9374
1589.83	55.6157
1591.37	55.1849
1592.92	55.447
1594.46	56.2515
1596	56.7917
1597.54	55.8809
1599.08	56.2141
1600.62	56.8724
1602.16	56.6338
1603.7	56.6636
1605.24	56.9039
1606.78	56.3424
1608.32	56.0197
1609.86	56.5045
1611.4	57.5243
1612.94	56.9405
1614.48	57.0113
1616.02	56.9901
1617.56	56.9078
1619.09	56.5211
1620.63	56.0229
1622.17	56.1671
1623.71	56.866
1625.24	58.1156
1626.78	58.4529
1628.31	58.2869
1629.85	58.0385
1631.39	59.5836
1632.92	60.2718
1634.46	61.0805
1635.99	62.5033
1637.52	61.9912
1639.06	62.515
1640.59	63.4073
1642.12	64.4685
1643.66	64.8515
1645.19	64.5155
1646.72	65.1032
1648.25	66.4046
1649.79	67.6101
1651.32	69.4125
1652.85	69.6765
1654.38	70.5913
1655.91	71.872
1657.44	72.4004
1658.97	72.0633
1660.5	71.9144
1662.03	71.5393
1663.56	70.6841
1665.09	70.1432
1666.62	69.4141
1668.15	67.7601
1669.67	66.9343
1671.2	64.9864
1672.73	62.4506
1674.26	59.956
1675.79	58.4482
1677.31	56.3254
1678.84	54.1729
1680.36	51.5095
1681.89	49.2149
1683.42	47.2727
1684.94	45.6109
1686.47	43.069
1687.99	39.7612
1689.51	37.1678
1691.04	35.2337
1692.56	32.1161
1694.08	30.433
1695.61	28.8274
1697.13	26.99
1698.65	25.2115
1700.18	23.8818
1701.7	22.1905
1703.22	19.8473
1704.74	18.5345
1706.26	16.9493
1707.78	15.9866
1709.3	14.7193
1710.82	12.9923
1712.35	11.3379
1713.86	10.0296
1715.39	9.34299
1716.9	8.14895
1718.42	7.01838
1719.94	6.13879
1721.46	5.62007
1722.98	5.63452
1724.5	6.41197
1726.01	6.08654
1727.53	6.30307
1729.05	5.74467
1730.56	5.64037
1732.08	5.65186
1733.6	5.23465
1735.11	4.68685
1736.63	4.47355
1738.14	4.52114
1739.66	4.64487
1741.17	4.14895
1742.69	3.73551
1744.2	2.9333
1745.71	2.53138
1747.23	1.75073
1748.74	1.99663
1750.25	1.82207
1751.77	2.42494
1753.28	2.74947
1754.79	3.09425
1756.3	2.46193
1757.81	3.14904
1759.33	2.96664
1760.84	2.86175
1762.35	2.60001
1763.86	1.92437
1765.37	2.16815
1766.88	2.04373
1768.39	1.92899
1769.9	2.97987
1771.41	2.9423
1772.91	2.75536
1774.42	2.97265
1775.93	3.29336
1777.44	3.66868
1778.95	3.95965
1780.45	3.89525
1781.96	4.18857
1783.47	4.7327
1784.97	4.95177
1786.48	5.21992
1787.99	5.77124
1789.49	6.05589
1791	5.72486
1792.5	6.01997
1794.01	6.81524
1795.51	6.59287
1797.01	6.17486
1798.52	6.70216
1800.02	7.41129
1801.52	7.31191
1803.03	7.09725
1804.53	6.77448
1806.03	7.2417
1807.54	6.57729
1809.04	6.01883
1810.54	6.18227
1812.04	5.91044
1813.54	5.60701
1815.04	5.03403
1816.54	4.50635
1818.04	4.30962
1819.54	4.11507
1821.04	3.80153
1822.54	3.42782
1824.04	3.3125
1825.54	2.9407
1827.04	3.30751
1828.54	3.13637
1830.03	3.18101
1831.53	2.38948
1833.03	2.7787
1834.53	2.77594
1836.02	2.35013
1837.52	1.93456
1839.02	1.5715
1840.51	1.99433
1842.01	1.70705
1843.5	1.3621
1845	1.3601
1846.49	1.02691
1847.99	1.26017
1849.48	1.01092
1850.98	1.4587
1852.47	2.70472
1853.96	2.66034
1855.46	2.96281
1856.95	3.55754
1858.44	3.70329
1859.94	4.1593
1861.43	3.91033
1862.92	3.7229
1864.41	3.35409
1865.9	3.35679
1867.39	3.64296
1868.88	4.05696
1870.37	3.72614
1871.86	3.4618
1873.35	3.78435
1874.84	4.10144
1876.33	3.53044
1877.82	3.19647
1879.31	3.37453
1880.8	3.62426
1882.29	3.25616
1882.58	3.18739
1884.08	3.68565
1885.57	3.86469
1887.06	3.91465
1888.56	3.71546
1890.05	4.31524
1891.54	4.5546
1893.04	4.34659
1894.53	4.42329
1896.02	4.57895
1897.51	4.71864
1899	4.78832
1900.5	5.01712
1901.99	5.72608
1903.48	5.2763
1904.97	5.68954
1906.46	6.16246
1907.95	5.96757
1909.44	5.17008
1910.93	5.35663
1912.42	5.11038
1913.91	5.2929
1915.4	4.918
1916.88	6.00126
1918.37	6.33106
1919.86	6.35513
1921.35	6.90552
1922.84	6.90761
1924.32	6.58469
1925.81	5.84751
1927.3	5.06694
1928.78	4.83497
1930.27	4.28495
1931.75	3.53746
1933.24	2.91396
1934.72	2.34745
1936.21	2.71446
1937.69	2.39753
1939.18	2.6776
1940.66	2.53765
1942.15	2.38573
1943.63	1.47177
1945.11	0.960556
1946.6	0.710281
1948.08	1.23388
1949.56	0.64148
1951.04	1.02248
1952.53	0.977214
1954.01	0.632355
1955.49	0.407465
1956.97	0.385339
1958.45	0.917733
1959.93	1.08281
1961.41	0.436806
1962.89	0.881732
1964.37	1.59612
1965.85	1.4831
1967.33	1.16479
1968.81	1.47091
1970.29	2.1102
1971.77	2.55615
1973.24	2.93671
1974.72	3.26733
1976.2	3.89072
1977.68	3.93066
1979.15	4.85516
1980.63	4.72228
1982.11	4.86512
1983.58	5.16528
1985.06	5.51985
1986.53	5.84102
1988.01	6.50092
1989.48	6.69119
1990.96	7.01319
1992.43	6.06344
1993.91	6.07265
1995.38	5.94531
1996.86	5.5848
1998.33	5.14596
1999.8	5.58789
2001.27	6.58314
2002.75	6.69505
2004.22	7.62542
2005.69	8.10163
2007.16	8.71012
2008.64	9.34948
2010.11	9.76099
2011.58	9.19612
2013.05	9.46154
2014.52	8.87595
2015.99	8.74438
2017.46	8.46453
2018.93	8.04623
2020.4	8.1003
2021.87	8.65632
2023.34	8.42662
2024.8	8.57272
2026.27	8.54918
2027.74	8.43348
2029.21	8.61987
2030.68	8.87169
2032.14	9.4134
2033.61	9.56387
2035.08	9.25687
2036.54	10.1322
2038.01	10.4521
2039.48	10.5898
2040.94	10.9326
2042.41	10.6141
2043.87	10.7965
2045.34	10.2509
2046.8	9.83412
2048.27	9.5412
2049.73	9.90268
2051.19	9.572
2052.66	8.62429
2054.12	8.05649
2055.58	8.14815
2057.05	8.28174
2058.51	8.04793
2059.97	8.33181
2061.43	8.42209
2062.9	8.57799
2064.36	8.29492
2065.82	8.76383
2067.28	8.83471
2068.74	8.99664
2070.2	9.46724
2071.66	9.67366
2073.12	10.5122
2074.58	10.3666
2076.04	10.5095
2077.5	11.0667
2078.95	11.0197
2080.41	10.9992
2081.87	11.2025
2083.33	11.3482
2084.79	11.1604
2086.24	11.397
2087.7	11.6875
2089.16	11.7599
2090.61	12.4082
2092.07	13.1347
2093.53	13.8712
2094.98	13.8689
2096.44	13.9477
2097.89	14.3516
2099.35	15.283
2100.8	15.3556
2102.26	16.1685
2103.71	17.9774
2105.16	18.9186
2106.62	19.095
2108.07	19.8554
2109.53	20.9075
2110.98	21.6017
2112.43	21.9945
2113.88	22.2348
2115.33	22.4637
2116.79	23.4082
2118.24	23.6484
2119.69	23.9811
2121.14	24.2665
2122.59	24.3603
2124.04	25.0476
2125.49	25.756
2126.94	27.1954
2128.39	28.1851
2129.84	29.3025
2131.29	30.3575
2132.74	31.5433
2134.19	32.6101
2135.63	33.5275
2137.08	34.6546
2138.53	35.6096
2139.98	36.2414
2141.43	37.701
2142.87	38.6918
2144.32	39.9741
2145.77	41.0498
2147.21	41.8441
2148.66	42.9338
2150.1	44.173
2151.55	44.9946
2152.99	46.7293
2154.44	48.2782
2155.88	49.3833
2157.33	50.4179
2158.77	51.989
2160.21	53.3301
2161.66	54.6188
2163.1	55.9962
2164.55	56.721
2165.99	57.5083
2167.43	58.5018
2168.87	59.6895
2170.31	60.5529
2171.76	61.046
2173.2	61.1911
2174.64	62.2632
2176.08	63.1915
2177.52	62.8795
2178.96	62.702
2180.4	62.8817
2181.84	62.5497
2183.28	61.3884
2184.72	60.6987
2186.16	60.0672
2187.6	58.9194
2189.04	57.7022
2190.47	56.133
2191.91	54.5796
2193.35	53.8993
2194.79	53.0555
2196.23	52.654
2197.66	52.0454
2199.1	50.3427
2200.54	48.6293
2201.97	47.2007
2203.41	46.0595
2204.84	45.0606
2206.28	43.863
2207.71	42.639
2209.15	41.0481
2210.58	39.535
2212.02	38.0837
2213.45	36.7326
2214.89	34.9309
2216.32	34.1174
2217.75	32.7059
2219.19	31.2727
2220.62	30.1571
2222.05	29.9053
2223.48	29.6827
2224.92	28.7147
2226.35	27.6694
2227.78	26.6692
2229.21	26.2167
2230.64	25.0577
2232.07	24.1205
2233.5	23.7454
2234.93	22.5939
2236.36	22.4382
2237.79	21.9509
2239.22	20.7013
2240.65	20.3529
2242.08	19.185
2243.51	18.7177
2244.94	18.2654
2246.37	17.5719
2247.79	16.7716
2249.22	15.0608
2250.65	14.2276
2252.08	13.3255
2253.5	12.4844
2254.93	11.4411
2256.36	11.2581
2257.78	10.2957
2259.21	9.76301
2260.63	9.69261
2262.06	8.98738
2263.48	9.18359
2264.91	9.19248
2266.33	8.99032
2267.76	8.84828
2269.18	8.65143
2270.6	7.24558
2272.03	7.83645
2273.45	8.47965
2274.87	9.23342
2276.3	9.43216
2277.72	9.44593
2279.14	9.5504
2280.56	8.61598
2281.98	8.32667
2283.41	8.23961
2284.83	8.40183
2286.25	8.77189
2287.67	9.46106
2289.09	9.51442
2290.51	8.88834
2291.93	8.60337
2293.35	7.85888
2294.77	7.90192
2296.19	7.63461
2297.61	8.53272
2299.02	9.02777
2300.44	9.67505
2301.86	10.2517
2303.28	11.2073
2304.7	11.7491
2306.11	11.6476
2307.53	12.5521
2308.95	12.893
2310.36	13.3153
2311.78	13.6514
2313.2	12.7492
2314.61	13.3923
2316.03	13.2569
2317.44	12.3061
2318.86	12.3393
2320.27	11.784
2321.69	12.3433
2323.1	11.9392
2324.51	12.2873
2325.93	11.8864
2327.34	11.6453
2328.76	11.3328
2330.17	11.7321
2331.58	11.0462
2332.99	10.1314
2334.41	9.80626
2335.82	9.04055
2337.23	8.77587
2338.64	8.49262
2340.05	7.93141
2341.46	6.86882
2342.87	7.05514
2344.28	7.01514
2345.69	6.60789
2347.1	6.21052
2348.51	5.52517
2349.92	4.82906
2351.33	4.28621
2352.74	4.76435
2354.15	4.44924
2355.56	4.2292
2356.97	4.05003
2358.37	3.5863
2359.78	2.89482
2361.19	1.92063
2362.6	3.01581
2364	3.43384
2365.41	4.42034
2366.82	4.29358
2368.22	4.1623
2369.63	4.37016
2371.03	4.07916
2372.44	4.53553
2373.84	4.51081
2375.25	4.48577
2376.65	4.9864
2378.06	5.38956
2379.46	5.26886
2380.86	5.23285
2382.27	4.56309
2383.67	4.12612
2385.07	4.31078
2386.48	3.85572
2387.88	3.83373
2389.28	4.49104
2390.69	4.21393
2392.09	4.895
2393.49	4.78291
2394.89	5.16308
2396.29	4.18788
2397.69	4.03706
2399.09	3.73185
2400.49	3.60362
2401.89	3.50349
2403.29	3.39529
2404.69	3.93954
2406.09	4.2388
2407.49	4.16479
2408.89	4.46032
2410.29	4.16352
2411.69	4.51748
2413.08	4.87155
2414.48	5.65915
2415.88	5.36179
2417.28	5.29517
2418.67	5.40019
2420.07	5.99207
2421.47	6.37936
2422.86	6.16412
2424.26	6.01206
2425.65	6.11563
2427.05	6.09239
2428.45	5.58593
2429.84	5.4181
2431.23	5.46727
2432.63	5.71634
2434.02	4.63725
2435.42	4.19392
2436.81	4.05783
2438.2	4.33987
2439.6	4.68683
2440.99	4.71702
2442.38	4.83796
2443.78	4.99176
2445.17	4.59907
2446.56	4.84294
2447.95	4.63192
2449.34	5.07155
2450.73	4.95094
2452.13	4.72526
2453.52	5.02206
2454.91	5.70763
2456.3	5.56502
2457.69	6.23511
2459.08	6.16853
2460.47	6.55367
2461.85	6.75844
2463.24	7.07323
2464.63	7.68364
2466.02	7.6833
2467.41	7.7391
2468.8	8.55412
2470.19	9.43914
2471.57	9.88063
2472.96	9.46782
2474.35	9.39725
2475.73	9.19701
2477.12	8.78682
2478.51	8.92741
2479.89	8.54986
2481.28	8.89398
2482.66	8.12521
2484.05	8.064
2485.43	7.56536
2486.82	7.7394
2488.2	7.48744
2489.59	6.92891
2490.97	7.47736
2492.35	6.96882
2493.74	6.98713
2495.12	6.11507
2496.5	6.08812
2497.89	5.66858
2499.27	5.77142
2500.65	5.39041
2502.03	5.09377
2503.42	4.83573
2504.8	4.18292
2506.18	3.84809
2507.56	3.22887
2508.94	2.92694
2510.32	2.49894
2511.7	1.86939
2513.08	1.94795
2514.46	1.0222
2515.84	0.809672
2517.22	0.898365
2518.6	0.899486
2519.98	0.483933
2521.36	0.730499
2522.73	1.27185
2524.11	1.81836
2525.49	1.61048
2526.87	2.31872
2528.25	2.58542
2529.62	3.07167
2531	2.98824
2532.38	4.03081
2533.75	4.0623
2535.13	4.22083
2536.5	3.90841
2537.88	4.42917
2539.25	4.01509
2540.63	3.93417
2542.01	3.8653
2543.38	3.8486
2544.75	4.43579
2546.13	4.42225
2547.5	4.6964
2548.88	4.97653
2550.25	5.49983
2551.62	5.01446
2553	5.25363
2554.37	6.47315
2555.74	6.74884
2557.11	7.22527
2558.49	7.23386
2559.86	8.10378
2561.23	7.70632
2562.6	7.51584
2563.97	7.4745
2565.34	7.96908
2566.71	7.85002
2568.08	7.77465
2569.45	7.68193
2570.82	6.97894
2572.19	6.2666
2573.56	5.32308
2574.93	5.17893
2576.3	4.57439
2577.67	4.39228
2579.03	3.80954
2580.4	3.13155
2581.77	3.36312
2583.14	3.132
2584.5	3.22432
2585.87	3.42487
2587.24	3.55792
2588.6	3.59714
2589.97	3.67087
2591.34	3.53128
2592.7	2.65545
2594.07	2.35906
2595.43	2.44685
2596.8	2.03657
2598.16	1.61844
2599.53	1.81951
2600.89	2.21267
2602.26	1.72685
2603.62	1.63008
2604.98	1.61749
2606.35	2.1524
2607.71	2.25468
2609.07	2.75262
2610.44	2.70472
2611.8	3.10286
2613.16	3.41532
2614.52	3.42662
2615.88	3.78793
2617.25	4.29562
2618.61	4.79573
2619.97	4.66204
2621.33	5.29843
2622.69	6.18448
2624.05	6.29841
2625.41	6.67152
2626.77	6.54822
2628.13	7.25723
2629.49	7.37787
2630.85	7.32195
2632.21	7.78499
2633.56	8.09078
2634.92	8.13177
2636.28	8.12497
2637.64	7.7667
2639	7.24238
2640.35	7.76632
2641.71	7.90898
2643.07	7.81505
2644.42	8.04352
2645.78	8.08653
2647.14	8.47125
2648.49	8.37791
2649.85	8.69928
2651.2	8.54743
2652.56	8.63997
2653.91	8.82762
2655.27	8.57036
2656.62	7.80949
2657.98	6.99465
2659.33	6.61847
2660.68	6.50067
2662.04	6.87029
2663.39	6.62263
2664.74	6.71314
2666.1	6.60737
2667.45	6.48361
2668.8	5.9241
2670.15	5.81256
2671.5	6.44311
2672.86	6.32294
2674.21	6.32385
2675.56	6.22409
2676.91	5.83101
2678.26	5.57085
2679.61	5.34262
2680.96	4.6457
2682.31	4.78405
2683.66	4.48923
2685.01	4.48303
2686.36	4.69603
2687.71	4.22014
2689.06	4.45356
2690.4	4.3623
2691.75	3.9168
2693.1	3.41267
2694.45	3.49404
2695.8	3.20733
2697.14	3.31573
2698.49	4.07879
2699.84	4.3721
2701.18	4.89787
2702.53	5.23345
2703.88	5.25448
2705.22	5.54421
2706.57	5.81474
2707.91	5.98293
2709.26	5.67976
2710.6	6.16104
2711.95	6.56674
2713.29	6.82907
2714.64	7.62016
2715.98	7.64245
2717.32	8.03932
2718.67	8.03695
2720.01	8.80166
2721.35	8.72326
2722.7	8.66646
2724.04	8.70663
2725.38	9.14027
2726.72	9.83545
2728.06	10.2857
2729.4	10.3324
2730.75	10.1404
2732.09	10.2389
2733.43	9.88428
2734.77	10.1414
2736.11	10.3447
2737.45	10.1581
2738.79	9.90869
2740.13	9.39032
2741.47	9.32731
2742.81	8.6057
2744.15	7.3423
2745.48	7.29592
2746.82	6.3664
2748.16	6.11398
2749.5	5.85257
2750.84	5.24928
2752.17	5.25719
2753.51	5.0527
2754.85	4.21216
2756.19	3.76239
2757.52	3.08014
2758.86	2.37008
2760.19	2.21959
2761.53	2.03631
2762.86	1.69073
2764.2	1.48079
2765.54	1.52922
2766.87	1.33719
2768.2	1.01906
2769.54	0.38239
2770.87	-0.217104
2772.21	-0.468789
2773.54	-0.747141
2774.88	-0.65438
2776.21	-0.361253
2777.54	-0.203435
2778.87	-0.307153
2780.21	-0.101747
2781.54	-0.641563
2782.87	-0.434512
2784.2	-0.0358033
2785.53	0.0345367
2786.87	0.337236
2788.2	-0.294271
2789.53	-0.195079
2790.86	0.122945
2792.19	0.553156
2793.52	0.403082
2794.85	0.529334
2796.18	0.141508
2797.51	0.509411
2798.84	0.823028
2800.17	0.22756
2801.49	-0.565811
2802.82	-0.670633
2804.15	-0.933509
2805.48	-1.13674
2806.81	-1.34511
2808.13	-2.06912
2809.46	-2.62598
2810.79	-2.9667
2812.12	-2.97281
2813.44	-3.22252
2814.77	-2.3594
2816.09	-1.15016
2817.42	-0.480425
2818.75	0.866607
2820.07	1.91276
2821.4	3.74444
2822.72	5.85376
2824.05	7.92255
2825.37	10.3717
2826.7	12.5292
2828.02	15.3874
2829.35	18.2268
2830.67	21.7482
2831.99	25.0162
2833.31	27.896
2834.64	30.4701
2835.96	33.7732
2837.28	37.3909
2838.61	41.3527
2839.93	45.5643
2841.25	49.7671
2842.57	54.5509
2843.89	59.3032
2845.21	63.9376
2846.53	68.8252
2847.85	74.2794
2849.17	79.8294
2850.49	85.1845
2851.81	90.6896
2853.13	96.4087
2854.45	102.067
2855.77	108.094
2857.09	114.2
2858.41	119.655
2859.73	124.754
2861.05	130.378
2862.36	135.669
2863.68	141.133
2865	145.813
2866.32	149.902
2867.64	154.32
2868.95	158.866
2870.27	162.697
2871.59	166.425
2872.9	170.691
2874.22	174.565
2875.53	178.327
2876.85	181.106
2878.16	184.226
2879.48	187.875
2880.79	191.212
2882.11	194.409
2883.42	197.309
2884.74	200.838
2886.05	203.51
2887.36	206.69
2888.68	208.97
2889.99	211.114
2891.3	213.856
2892.62	216.146
2893.93	218.863
2895.24	222.066
2896.55	225.413
2897.86	227.998
2899.18	231.486
2900.49	235.096
2901.8	240.36
2903.11	245.345
2904.42	251.085
2905.73	256.8
2907.04	262.479
2908.35	268.901
2909.66	275.615
2910.97	281.587
2912.28	288.496
2913.59	296.116
2914.9	303.248
2916.21	310.123
2917.51	317.092
2918.82	323.627
2920.13	330.193
2921.44	335.325
2922.74	340.754
2924.05	345.154
2925.36	349.11
2926.67	351.657
2927.97	354.435
2929.28	355.803
2930.59	356.197
2931.89	355.592
2933.2	354.668
2934.5	353.368
2935.81	351.124
2937.11	348.328
2938.42	344.336
2939.72	339.967
2941.02	333.866
2942.33	327.366
2943.63	320.674
2944.94	314.177
2946.24	306.649
2947.54	298.826
2948.85	290.855
2950.15	282.419
2951.45	274.426
2952.75	265.788
2954.05	257.071
2955.36	248.833
2956.66	241.041
2957.96	233.17
2959.26	225.65
2960.56	218.987
2961.86	211.768
2963.16	204.873
2964.46	198.809
2965.76	193.13
2967.06	188.094
2968.36	182.95
2969.66	177.791
2970.96	173.33
2972.26	169.081
2973.56	165.245
2974.85	161.309
2976.15	157.153
2977.45	154.187
2978.75	151.419
2980.05	147.268
2981.34	143.095
2982.64	139.525
2983.94	135.417
2985.23	130.903
2986.53	125.661
2987.83	121.406
2989.12	116.22
2990.42	110.907
2991.71	105.621
2993.01	101.025
2994.3	95.6283
2995.6	90.2897
2996.89	85.0576
2998.19	80.3708
2999.48	75.2753
3000.77	70.1332
3002.07	65.239
3003.36	59.4242
3004.65	54.6344
3005.95	49.2641
3007.24	44.6717
3008.53	40.3606
3009.82	36.6069
3011.12	32.0599
3012.41	28.2975
3013.7	25.004
3014.99	22.0399
3016.28	18.9058
3017.57	16.0071
3018.86	14.0152
3020.15	11.797
3021.44	9.7822
3022.73	8.12498
3024.02	6.51844
3025.31	5.44376
3026.6	4.98217
3027.89	4.03874
3029.18	3.73312
3030.47	3.01997
3031.76	3.02035
3033.04	3.00498
3034.33	2.61603
3035.62	3.41364
3036.91	3.60848
3038.19	4.00738
3039.48	4.92751
3040.77	5.5445
3042.05	6.34118
3043.34	6.77297
3044.63	6.78624
3045.91	7.46835
3047.2	7.66132
3048.48	7.61902
3049.77	7.60898
3051.05	7.44359
3052.34	8.13191
3053.62	8.56325
3054.91	8.73584
3056.19	8.63087
3057.48	8.68437
3058.76	8.5864
3060.04	8.4666
3061.33	8.20242
3062.61	8.04429
3063.89	7.32779
3065.17	7.06955
3066.46	6.36806
3067.74	5.46448
3069.02	5.41778
3070.3	4.81925
3071.59	4.47266
3072.87	3.83866
3074.15	3.11767
3075.43	2.23094
3076.71	2.29812
3077.99	1.80094
3079.27	1.22094
3080.55	0.891016
3081.83	1.27181
3083.11	0.597466
3084.39	-0.115577
3085.67	0.139921
3086.94	-0.119561
3088.22	-0.135322
3089.5	0.200227
3090.78	0.355338
3092.06	-0.352617
3093.34	-0.258328
3094.61	-0.489543
3095.89	0.408598
3097.17	0.523073
3098.44	0.747657
3099.72	1.19186
3101	1.02291
3102.27	1.31587
3103.55	1.50973
3104.82	1.50405
3106.1	2.1649
3107.38	2.84579
3108.65	2.85927
3109.93	2.91318
3111.2	3.21735
3112.47	3.16217
3113.75	3.71285
3115.02	3.76853
3116.3	4.64675
3117.57	4.07576
3118.84	4.20119
3120.12	4.43731
3121.39	5.01943
3122.66	5.09045
3123.93	5.63625
3125.2	5.65551
3126.48	6.1283
3127.75	6.41122
3129.02	6.99391
3130.29	7.45668
3131.56	8.02979
3132.83	9.02808
3134.1	9.89991
3135.37	10.7839
3136.64	10.9219
3137.91	12.1524
3139.18	13.1631
3140.45	14.6896
3141.72	15.7377
3142.99	17.2055
3144.26	18.5269
3145.53	19.6475
3146.8	21.3888
3148.07	23.1161
3149.33	23.8251
