#Acq. time (s)=	45
#Accumulations=	2
#Range (cm-¹)=	200...3150
#Windows=	2
#Auto scanning=	Off
#Autofocus=	Off
#Macrospot=	Off
#AutoExposure=	Off
#Spike filter=	Multiple accum.
#Delay time (s)=	0
#Binning=	1
#Readout mode=	Signal
#DeNoise=	Off
#ICS correction=	On
#Dark correction=	Off
#Inst. Process=	Off
#Detector Gain=	Best Dynamic Range
#Detector ADC=	20 kHz       
#Detector temperature (°C)=	-69.85
#Instrument=	LabRAM HR Evol
#Detector=	Synapse
#Objective=	x100
#Grating=	600 gr/mm
#ND Filter=	100%
#Laser (nm)=	532 
#Hole=	100.021
#Range=	Auto
#Laser Pol.=	No
#Raman. Pol.=	No
#Laser Pol. (°)=	-0.0007625
#Raman Pol. (°)=	89.9995
#Collection=	Microscope
#StageXY=	Marzhauser
#StageZ=	Marzhauser
#X (µm)=	-1206.2
#Y (µm)=	1269.1
#Z (µm)=	577.95
#Full time(mm:ss)=	3:19
#Project=	
#Sample=	
#Site=	
#Title=	Mbcal_20_25_03_2x_45s_532 nm_x100_100%_600 gr_mm
#Remark=	
#Date=	18.07.2022 09:37
#Acquired=	18.07.2022 09:37:16
#Base:Fit=	10.08.2022 10:55:08
#Base:Sub=	10.08.2022 10:55:14
#Filter:Polynom=	16.08.2022 09:24:11
#Filter:Polynom=	16.08.2022 10:07:27
#AxisType[0]=Intens
#AxisUnit[0]=Cnt
#AxisType[1]=Spectr
#AxisUnit[1]=1/cm
200.419	8.02328
202.234	10.2445
204.048	9.11461
205.862	10.3902
207.678	11.4284
209.491	12.5672
211.304	14.0248
213.116	15.4413
214.928	16.6846
216.742	17.3337
218.554	16.111
220.365	18.2878
222.176	18.641
223.986	20.9673
225.798	22.2169
227.608	22.5923
229.417	25.0418
231.226	27.7407
233.035	30.9964
234.843	34.6434
236.653	36.6635
238.46	38.697
240.268	39.7555
242.074	41.4077
243.881	43.2058
245.687	45.5404
247.493	46.2419
249.298	47.2885
251.103	49.8279
252.908	50.2561
254.715	52.6166
256.519	54.1481
258.322	55.4137
260.126	54.5309
261.929	55.615
263.731	55.5596
265.534	55.5953
267.336	54.5093
269.137	55.427
270.938	55.5366
272.739	56.242
274.54	55.2042
276.34	56.8966
278.14	57.0598
279.939	55.9712
281.739	54.1791
283.537	53.8289
285.336	52.0477
287.134	50.4556
288.932	49.8199
290.729	47.4738
292.526	45.9883
294.323	46.1697
296.117	42.9502
297.913	40.9655
299.709	39.1926
301.504	38.2816
303.299	37.806
305.093	36.498
306.888	35.1175
308.682	34.3401
310.475	35.1544
312.268	34.2577
314.059	34.6175
315.852	34.4107
317.644	35.2601
319.436	36.5096
321.227	35.5212
323.018	35.5215
324.807	34.3277
326.597	32.9181
328.387	32.4826
330.177	33.2405
331.967	33.4256
333.753	34.2004
335.542	34.4923
337.331	33.7537
339.119	33.3463
340.906	32.7057
342.691	30.6313
344.478	30.0007
346.265	27.5243
348.051	24.2418
349.835	23.7459
351.621	23.5742
353.406	22.1769
355.189	22.3074
356.973	21.2175
358.757	22.1571
360.541	21.7993
362.323	20.5301
364.106	19.049
365.889	19.4986
367.669	17.9359
369.451	16.2354
371.233	16.6155
373.012	16.242
374.793	16.601
376.574	15.0682
378.353	12.9209
380.133	11.7043
381.91	13.0585
383.69	14.8222
385.469	13.4117
387.245	13.6726
389.024	14.684
390.8	16.2865
392.577	17.9048
394.353	17.7659
396.129	18.5685
397.906	19.742
399.68	19.5245
401.456	19.3827
403.23	20.9754
405.005	21.9564
406.778	22.4847
408.552	22.7192
410.325	21.9663
412.099	22.4395
413.87	22.5959
415.643	23.5181
417.414	23.5065
419.187	24.037
420.957	22.8556
422.728	22.8398
424.498	21.4888
426.269	20.34
428.038	17.9656
429.806	16.3978
431.576	15.5748
433.344	14.3287
435.114	14.1794
436.881	11.4668
438.649	12.6177
440.416	12.5068
442.182	12.0101
443.949	11.8002
445.715	11.4403
447.48	11.3881
449.247	10.3479
451.011	8.63602
452.777	10.0165
454.541	10.4616
456.304	7.99876
458.069	7.85452
459.832	9.16819
461.594	8.88297
463.358	10.6895
465.119	8.85232
466.881	10.5635
468.642	11.6948
470.404	12.2147
472.165	12.5169
473.925	11.6499
475.684	13.0527
477.445	15.9786
479.204	17.6529
480.963	18.5547
482.721	18.7527
484.481	19.6015
486.239	20.897
487.996	21.5418
489.753	24.147
491.511	26.8917
493.268	26.2271
495.023	27.6406
496.779	27.7467
498.534	27.7072
500.289	28.5085
502.046	28.6994
503.8	28.3786
505.554	28.4293
507.307	29.2643
509.06	29.6713
510.813	30.006
512.566	30.4694
514.32	29.538
516.072	28.6276
517.823	27.6029
519.574	28.7583
521.325	28.5608
523.076	28.6062
524.826	28.0068
526.576	29.259
528.325	30.1355
530.074	29.6969
531.823	29.8681
533.572	29.1955
535.32	28.8717
537.068	28.4269
538.815	28.2597
540.562	29.0662
542.309	28.437
544.056	27.4068
545.802	28.6006
547.547	28.2713
549.293	28.1559
551.038	26.6642
552.783	26.5582
554.527	27.9364
556.271	28.8277
558.015	27.4182
559.759	28.8385
561.502	28.7042
563.245	29.6455
564.987	29.5563
566.729	28.9297
568.471	29.5424
570.213	29.8034
571.954	30.1604
573.693	31.7455
575.433	31.4042
577.173	32.0741
578.913	30.7521
580.652	29.8728
582.392	31.0342
584.13	31.3577
585.867	30.5069
587.605	29.4577
589.343	27.7682
591.08	26.6677
592.817	26.1373
594.552	26.5626
596.289	24.1666
598.025	21.7757
599.761	21.3984
601.496	18.6001
603.229	17.7903
604.964	17.1408
606.699	18.0277
608.433	17.0247
610.165	15.4637
611.898	14.5162
613.631	13.4318
615.364	13.3787
617.095	11.925
618.827	12.4216
620.559	12.0102
622.288	11.9923
624.02	12.4018
625.75	10.901
627.479	10.7611
629.209	12.2852
630.939	12.567
632.667	9.65425
634.396	9.64763
636.125	9.85647
637.851	11.1536
639.58	13.3832
641.305	13.7456
643.033	15.0621
644.76	14.7705
646.485	17.6512
648.212	18.0921
649.936	19.4188
651.662	20.138
653.388	21.0028
655.111	22.4122
656.836	23.9757
658.558	25.7576
660.283	28.4839
662.005	29.568
663.728	31.5532
665.45	32.879
667.173	34.1653
668.893	35.4543
670.616	35.656
672.336	34.34
674.057	36.1456
675.777	37.071
677.498	38.1391
679.216	39.0455
680.937	39.5944
682.655	39.6545
684.375	40.7929
686.092	41.7574
687.809	40.4998
689.528	41.8118
691.244	42.2989
692.962	42.3599
694.678	40.7801
696.393	39.5834
698.111	40.0814
699.825	41.1306
701.54	41.7277
703.256	41.4282
704.97	41.7126
706.685	40.0591
708.398	38.9609
710.111	39.3554
711.826	39.0049
713.538	40.3355
715.25	41.5714
716.961	39.8297
718.675	37.0342
720.386	39.4247
722.096	38.9606
723.808	39.8741
725.518	39.8094
727.228	39.8337
728.937	39.5827
730.648	41.1289
732.357	40.7936
734.065	41.31
735.773	41.9416
737.483	42.607
739.19	44.6272
740.897	48.8633
742.604	51.1907
744.31	53.4672
746.018	56.2239
747.724	59.3676
749.429	61.9855
751.134	64.5269
752.839	66.6878
754.544	69.7885
756.248	73.0903
757.953	75.5705
759.657	78.5339
761.36	80.1225
763.063	81.7287
764.765	83.4946
766.468	85.8032
768.169	88.3516
769.871	89.1976
771.572	92.9598
773.273	94.6744
774.976	97.7988
776.676	100.873
778.376	101.46
780.075	102.889
781.775	103.414
783.474	106.214
785.172	108.993
786.871	110.769
788.569	111.711
790.266	113.364
791.964	114.934
793.661	116.052
795.358	118.737
797.054	117.737
798.75	118.509
800.446	118.508
802.141	117.959
803.834	117.245
805.529	117.651
807.224	119.17
808.918	119.875
810.612	118.689
812.305	118.083
813.998	118.012
815.691	119.627
817.384	117.632
819.076	120.939
820.766	119.909
822.458	120.558
824.149	123.528
825.84	124.618
827.531	126.346
829.221	128.454
830.909	129.106
832.599	131.205
834.288	132.18
835.977	133.236
837.666	134.777
839.353	136.645
841.041	137.261
842.729	137.231
844.416	137.445
846.103	138.687
847.788	139.404
849.475	138.586
851.161	139.038
852.845	139.953
854.53	139.806
856.216	141.006
857.901	139.719
859.583	140.666
861.268	140.871
862.952	137.419
864.633	137.34
866.317	136.112
868	137.006
869.681	135.839
871.363	133.813
873.045	131.088
874.725	127.524
876.406	125.848
878.088	124.131
879.767	122.396
881.447	118.967
883.125	117.435
884.805	114.13
886.483	112.318
888.162	109.639
889.841	108.033
891.518	105.542
893.196	100.572
894.872	96.9307
896.55	95.217
898.225	93.2577
899.902	91.8824
901.577	90.9504
903.254	90.2356
904.928	88.4148
906.604	90.0638
908.277	92.0451
909.952	91.4667
911.625	93.3897
913.3	91.9981
914.972	92.8617
916.646	94.5494
918.318	95.521
919.991	94.3283
921.662	95.5452
923.333	94.9928
925.005	93.3327
926.675	93.2978
928.347	94.7311
930.017	95.3655
931.686	96.3252
933.357	95.2655
935.025	96.1442
936.693	96.2225
938.363	95.0576
940.031	94.1001
941.698	93.6676
943.367	92.938
945.034	91.4052
946.7	89.1429
948.368	88.2463
950.034	88.0314
951.699	86.3762
953.367	84.7681
955.031	81.8472
956.696	81.1514
958.36	78.3278
960.026	77.253
961.689	75.8028
963.353	73.2972
965.016	69.6628
966.68	66.9745
968.343	65.857
970.005	63.1297
971.666	60.4908
973.328	58.6018
974.991	56.4985
976.652	54.5769
978.312	53.1165
979.972	51.5115
981.632	48.7896
983.292	46.3829
984.953	44.4059
986.612	42.8627
988.27	44.069
989.929	41.2429
991.587	39.5202
993.244	38.0124
994.902	37.8922
996.559	37.3392
998.216	38.0951
999.872	36.9934
1001.53	34.4805
1003.19	35.1371
1004.84	36.5446
1006.5	35.8874
1008.15	36.1963
1009.81	37.5418
1011.46	39.6601
1013.11	39.6819
1014.77	41.144
1016.42	40.1131
1018.07	39.5754
1019.73	40.7621
1021.38	41.1866
1023.03	42.6159
1024.68	46.22
1026.34	47.372
1027.99	48.9288
1029.64	51.1314
1031.29	52.6418
1032.94	54.3557
1034.59	53.0983
1036.24	54.1466
1037.89	53.9471
1039.53	54.1626
1041.18	53.6089
1042.83	53.9061
1044.48	54.6459
1046.13	54.544
1047.77	53.2842
1049.42	54.1033
1051.07	54.8323
1052.71	54.7074
1054.36	54.0927
1056	53.6297
1057.65	53.7148
1059.3	52.1019
1060.94	52.7821
1062.59	52.5248
1064.23	50.5457
1065.87	48.6787
1067.52	48.4862
1069.16	49.4856
1070.8	48.9408
1072.44	47.4785
1074.09	47.9236
1075.73	47.8413
1077.37	47.7367
1079.01	46.8199
1080.65	45.9104
1082.29	44.3484
1083.93	43.0489
1085.57	43.5479
1087.21	42.744
1088.85	41.3123
1090.49	40.7622
1092.13	42.9535
1093.77	43.5507
1095.41	42.7569
1097.04	40.4056
1098.68	39.7037
1100.32	38.4821
1101.95	41.4728
1103.59	41.3225
1105.23	43.1322
1106.86	43.4277
1108.5	42.6829
1110.13	41.8853
1111.77	41.3883
1113.4	39.9151
1115.04	39.0183
1116.67	37.7643
1118.31	38.7403
1119.94	37.3587
1121.57	36.6277
1123.2	38.3904
1124.84	36.5576
1126.47	36.5876
1128.1	35.8957
1129.73	34.9721
1131.36	33.46
1132.99	33.3409
1134.62	33.3101
1136.25	32.0671
1137.88	32.7878
1139.51	33.1473
1141.14	33.4022
1142.77	33.7158
1144.4	30.9898
1146.03	29.1208
1147.66	28.7893
1149.28	30.1626
1150.91	29.8242
1152.54	29.3977
1154.16	28.9573
1155.79	27.2518
1157.42	28.2106
1159.04	29.1299
1160.67	28.409
1162.29	27.8923
1163.92	26.9879
1165.54	27.5123
1167.17	26.4928
1168.79	26.3592
1170.41	24.4726
1172.04	22.2445
1173.66	21.23
1175.28	20.5367
1176.9	20.952
1178.53	19.535
1180.15	21.819
1181.77	21.546
1183.39	22.5039
1185.01	22.8304
1186.63	23.9302
1188.25	21.7762
1189.87	22.6092
1191.49	21.7488
1193.11	22.4578
1194.73	23.2083
1196.35	23.1767
1197.96	22.6763
1199.58	24.1436
1201.2	23.8062
1202.82	24.1258
1204.43	25.1613
1206.05	23.9652
1207.66	24.606
1209.28	22.6767
1210.9	23.3452
1212.51	25.3429
1214.13	27.1464
1215.74	28.0955
1217.36	28.7995
1218.97	29.1735
1220.58	31.3965
1222.2	33.6252
1223.81	32.9019
1225.42	33.9998
1227.04	35.2366
1228.65	38.0376
1230.26	39.6613
1231.87	41.2022
1233.48	41.3001
1235.1	42.7547
1236.71	44.7109
1238.32	48.0965
1239.93	49.2076
1241.53	51.1568
1243.14	53.1603
1244.75	54.0342
1246.36	56.1022
1247.97	57.1582
1249.58	58.7027
1251.19	59.4111
1252.8	60.3197
1254.4	62.7893
1256.01	65.6271
1257.62	65.6199
1259.22	65.5486
1260.83	68.3703
1262.43	67.5467
1264.04	69.3765
1265.64	71.2102
1267.25	71.1222
1268.85	70.8551
1270.46	73.3265
1272.06	74.1499
1273.66	76.7762
1275.27	76.186
1276.87	75.8805
1278.48	77.7851
1280.08	78.0701
1281.68	76.9851
1283.28	76.4695
1284.88	77.1025
1286.48	76.7711
1288.08	78.1757
1289.68	77.8538
1291.28	81.3929
1292.88	81.4906
1294.48	79.4047
1296.08	79.2603
1297.68	79.8151
1299.28	78.8264
1300.88	79.4887
1302.48	78.9909
1304.07	78.9309
1305.67	81.1362
1307.27	81.775
1308.87	83.718
1310.46	82.6134
1312.06	84.1529
1313.65	85.0882
1315.25	88.3025
1316.85	90.1412
1318.44	91.9675
1320.03	92.4315
1321.63	94.0801
1323.22	94.8167
1324.82	94.594
1326.41	95.705
1328	95.7578
1329.6	95.4981
1331.19	96.4743
1332.78	96.2129
1334.37	96.0087
1335.96	96.9731
1337.56	98.29
1339.15	99.4559
1340.74	100.456
1342.33	100.521
1343.92	101.968
1345.51	102.17
1347.1	101.488
1348.69	102.669
1350.28	104.375
1351.86	104.588
1353.45	104.56
1355.04	102.203
1356.63	102.725
1358.21	102.196
1359.8	100.767
1361.39	101.786
1362.97	101.789
1364.56	101.059
1366.15	100.834
1367.73	100.746
1369.32	98.7296
1370.9	96.8827
1372.49	94.7046
1374.07	93.5615
1375.65	93.6899
1377.24	93.9368
1378.82	92.8291
1380.41	93.4229
1381.99	92.6025
1383.57	93.2006
1385.15	92.5632
1386.73	90.9388
1388.32	88.5709
1389.9	86.1906
1391.48	85.4161
1393.06	84.3225
1394.64	83.1198
1396.22	82.2372
1397.8	81.6961
1399.38	83.4494
1400.96	84.6159
1402.54	85.5838
1404.11	85.0356
1405.69	85.5524
1407.27	86.7503
1408.85	88.1238
1410.43	89.0289
1412	88.0765
1413.58	89.7891
1415.16	91.5305
1416.73	94.1575
1418.31	95.8931
1419.88	96.9586
1421.46	100.001
1423.03	101.545
1424.61	104.875
1426.18	107.04
1427.76	110.835
1429.33	113.72
1430.9	117.344
1432.48	120.496
1434.05	122.619
1435.62	124.651
1437.2	127.328
1438.77	128.052
1440.34	129.919
1441.91	130.43
1443.48	131.663
1445.05	133.428
1446.62	134.239
1448.19	134.437
1449.76	133.507
1451.33	134.313
1452.9	133.724
1454.47	134.494
1456.04	133.946
1457.61	133.27
1459.17	132.947
1460.74	130.842
1462.31	129.917
1463.88	126.492
1465.44	123.758
1467.01	120.082
1468.58	118.4
1470.14	117.554
1471.71	117.656
1473.27	116.67
1474.84	114.621
1476.4	113.418
1477.97	112.533
1479.53	108.313
1481.1	105.352
1482.66	101.214
1484.22	97.9027
1485.78	93.6891
1487.35	90.5113
1488.91	87.5801
1490.47	86.0546
1492.03	84.7142
1493.59	81.8484
1495.16	80.7089
1496.72	76.9924
1498.28	74.2464
1499.84	72.7176
1501.4	70.6177
1502.96	68.7769
1504.52	66.4584
1506.08	64.3955
1507.64	63.2821
1509.19	61.4399
1510.75	58.396
1512.31	55.0252
1513.87	52.3178
1515.42	50.8906
1516.98	48.9448
1518.54	48.9469
1520.1	48.7405
1521.65	48.7339
1523.21	48.6411
1524.76	48.6421
1526.32	48.7909
1527.87	46.5444
1529.43	47.1273
1530.98	47.7201
1532.54	47.5413
1534.09	47.2841
1535.64	48.4181
1537.2	47.1291
1538.75	46.6319
1540.3	46.7154
1541.85	46.8636
1543.41	48.5735
1544.96	49.0228
1546.51	51.0953
1548.06	52.8182
1549.61	55.6671
1551.16	55.9612
1552.71	55.8283
1554.26	57.8418
1555.81	58.3682
1557.36	58.1673
1558.91	57.9858
1560.46	58.0048
1562.01	58.5282
1563.56	60.2418
1565.1	61.8888
1566.65	63.7467
1568.2	64.0665
1569.75	63.2163
1571.29	64.3179
1572.84	66.6317
1574.38	65.477
1575.93	67.2914
1577.48	67.7337
1579.02	68.54
1580.57	68.4776
1582.11	68.9189
1583.65	69.6899
1585.2	70.4097
1586.74	70.8642
1588.29	71.7947
1589.83	72.2885
1591.37	74.8969
1592.92	76.4746
1594.46	78.214
1596	78.2874
1597.54	79.1156
1599.08	79.8398
1600.62	80.3008
1602.16	79.2969
1603.7	79.4883
1605.24	79.1952
1606.78	79.6302
1608.32	78.2769
1609.86	77.3214
1611.4	75.5175
1612.94	74.6284
1614.48	71.6116
1616.02	70.9806
1617.56	68.8382
1619.09	67.2876
1620.63	66.5721
1622.17	64.2529
1623.71	62.8905
1625.24	61.9554
1626.78	63.1049
1628.31	63.4109
1629.85	62.9308
1631.39	63.6751
1632.92	63.0924
1634.46	63.1687
1635.99	62.866
1637.52	64.1661
1639.06	64.1774
1640.59	64.5657
1642.12	64.732
1643.66	66.1528
1645.19	66.0638
1646.72	67.6874
1648.25	69.3613
1649.79	69.7201
1651.32	69.5258
1652.85	69.692
1654.38	70.404
1655.91	71.5228
1657.44	71.0103
1658.97	71.4222
1660.5	71.7307
1662.03	72.544
1663.56	72.6942
1665.09	73.1699
1666.62	72.6782
1668.15	73.6258
1669.67	72.5108
1671.2	72.0026
1672.73	69.9551
1674.26	68.9868
1675.79	68.0141
1677.31	66.2806
1678.84	62.8473
1680.36	61.2847
1681.89	57.8215
1683.42	52.678
1684.94	49.3219
1686.47	44.6628
1687.99	39.9087
1689.51	37.3692
1691.04	33.7614
1692.56	31.2807
1694.08	28.7453
1695.61	27.1396
1697.13	24.8753
1698.65	21.8566
1700.18	20.6152
1701.7	18.5617
1703.22	17.8366
1704.74	16.7817
1706.26	13.6777
1707.78	11.1252
1709.3	9.10084
1710.82	6.96192
1712.35	5.78225
1713.86	5.62297
1715.39	4.45276
1716.9	4.73244
1718.42	4.39143
1719.94	3.57304
1721.46	3.74415
1722.98	5.45707
1724.5	6.27094
1726.01	6.94146
1727.53	6.19679
1729.05	5.54351
1730.56	6.23732
1732.08	6.45302
1733.6	6.27443
1735.11	7.28412
1736.63	7.69931
1738.14	9.22458
1739.66	8.36151
1741.17	9.41883
1742.69	9.98135
1744.2	10.5801
1745.71	9.81098
1747.23	8.94246
1748.74	8.02331
1750.25	8.25675
1751.77	8.27948
1753.28	8.24043
1754.79	8.23581
1756.3	9.39145
1757.81	8.91777
1759.33	8.96191
1760.84	8.83842
1762.35	7.65007
1763.86	8.09446
1765.37	7.9754
1766.88	7.79617
1768.39	7.19014
1769.9	7.06848
1771.41	5.31805
1772.91	4.18928
1774.42	4.14514
1775.93	4.22165
1777.44	3.08249
1778.95	3.5902
1780.45	3.99272
1781.96	3.1759
1783.47	3.16311
1784.97	3.77787
1786.48	3.88874
1787.99	4.6968
1789.49	4.36942
1791	3.36692
1792.5	3.65019
1794.01	3.95363
1795.51	4.79764
1797.01	4.97557
1798.52	5.17866
1800.02	4.74694
1801.52	3.90851
1803.03	3.16491
1804.53	2.90405
1806.03	2.38785
1807.54	2.22612
1809.04	1.05319
1810.54	0.639676
1812.04	0.304112
1813.54	0.281602
1815.04	-0.531433
1816.54	-0.511052
1818.04	-1.31036
1819.54	-1.24988
1821.04	-1.12075
1822.54	-0.750445
1824.04	-0.590003
1825.54	-0.630875
1827.04	0.299619
1828.54	1.43376
1830.03	2.35909
1831.53	1.8457
1833.03	0.940778
1834.53	0.326297
1836.02	0.842476
1837.52	1.7799
1839.02	2.06408
1840.51	1.5955
1842.01	2.17068
1843.5	2.51194
1845	3.1235
1846.49	3.03599
1847.99	5.85511
1849.48	6.39467
1850.98	6.79751
1852.47	7.27641
1853.96	7.51635
1855.46	8.33084
1856.95	9.13767
1858.44	9.45681
1859.94	9.33052
1861.43	9.93704
1862.92	9.60635
1864.41	8.51732
1865.9	8.44839
1867.39	9.92708
1868.88	9.7295
1870.37	9.69985
1871.86	9.35369
1873.35	9.51721
1874.84	9.63345
1876.33	8.65135
1877.82	8.86
1879.31	7.5281
1880.8	6.71835
1882.29	7.21636
1882.58	6.23724
1884.08	5.59558
1885.57	4.86537
1887.06	5.03328
1888.56	4.85723
1890.05	4.34491
1891.54	3.959
1893.04	5.06473
1894.53	5.10118
1896.02	4.3359
1897.51	3.62446
1899	3.92731
1900.5	3.23839
1901.99	2.4643
1903.48	0.470763
1904.97	0.159332
1906.46	0.350177
1907.95	0.596796
1909.44	1.71382
1910.93	1.66711
1912.42	0.770329
1913.91	1.75483
1915.4	2.24267
1916.88	3.55786
1918.37	4.94911
1919.86	6.16613
1921.35	6.94233
1922.84	5.97626
1924.32	7.15062
1925.81	7.46186
1927.3	7.95648
1928.78	9.48588
1930.27	10.684
1931.75	9.64054
1933.24	10.8503
1934.72	12.4772
1936.21	12.7478
1937.69	12.3216
1939.18	13.3828
1940.66	14.8874
1942.15	14.7585
1943.63	15.9618
1945.11	16.7125
1946.6	18.2854
1948.08	18.8905
1949.56	17.6506
1951.04	17.3072
1952.53	16.2073
1954.01	17.0046
1955.49	16.4149
1956.97	15.3531
1958.45	15.4695
1959.93	15.8744
1961.41	15.569
1962.89	15.427
1964.37	14.7404
1965.85	15.0516
1967.33	16.2813
1968.81	16.077
1970.29	14.5192
1971.77	14.3774
1973.24	13.6133
1974.72	13.2999
1976.2	13.6762
1977.68	13.4905
1979.15	13.7915
1980.63	12.9932
1982.11	13.2232
1983.58	12.9513
1985.06	12.9695
1986.53	12.7081
1988.01	12.4383
1989.48	12.3838
1990.96	13.9453
1992.43	13.2606
1993.91	12.1386
1995.38	11.5989
1996.86	12.0043
1998.33	12.5433
1999.8	12.7256
2001.27	13.3722
2002.75	12.8271
2004.22	11.6063
2005.69	11.2354
2007.16	12.8446
2008.64	12.2864
2010.11	12.0306
2011.58	11.7465
2013.05	13.0487
2014.52	14.245
2015.99	14.9102
2017.46	14.885
2018.93	14.6144
2020.4	13.864
2021.87	12.0549
2023.34	13.4575
2024.8	14.7506
2026.27	15.6147
2027.74	15.852
2029.21	15.4387
2030.68	15.7924
2032.14	16.3213
2033.61	17.0697
2035.08	17.9852
2036.54	18.259
2038.01	19.0677
2039.48	19.4814
2040.94	19.956
2042.41	18.7756
2043.87	18.0557
2045.34	19.4159
2046.8	18.8868
2048.27	18.8746
2049.73	18.597
2051.19	17.4865
2052.66	15.6088
2054.12	16.0579
2055.58	16.0416
2057.05	15.7371
2058.51	15.6265
2059.97	15.0198
2061.43	14.9931
2062.9	15.9072
2064.36	16.858
2065.82	16.5759
2067.28	16.9217
2068.74	17.4912
2070.2	18.2639
2071.66	17.801
2073.12	17.4756
2074.58	15.5033
2076.04	14.4163
2077.5	13.4548
2078.95	13.7503
2080.41	13.7418
2081.87	13.8505
2083.33	13.8
2084.79	14.2086
2086.24	15.1318
2087.7	14.9922
2089.16	15.1272
2090.61	13.9216
2092.07	14.4671
2093.53	15.187
2094.98	14.5527
2096.44	15.7288
2097.89	14.6553
2099.35	14.6641
2100.8	14.3428
2102.26	14.5502
2103.71	14.6281
2105.16	15.9186
2106.62	16.791
2108.07	16.5116
2109.53	16.0524
2110.98	17.4036
2112.43	17.6677
2113.88	18.4866
2115.33	19.5938
2116.79	21.4493
2118.24	22.6448
2119.69	22.154
2121.14	23.0379
2122.59	23.8789
2124.04	24.6337
2125.49	26.3732
2126.94	28.7126
2128.39	29.8341
2129.84	31.3313
2131.29	32.7286
2132.74	34.3868
2134.19	35.6891
2135.63	37.452
2137.08	39.269
2138.53	39.7869
2139.98	40.5452
2141.43	41.3255
2142.87	42.0172
2144.32	41.9599
2145.77	43.019
2147.21	43.676
2148.66	45.2902
2150.1	45.3581
2151.55	47.2543
2152.99	49.1062
2154.44	50.3865
2155.88	50.833
2157.33	51.5755
2158.77	51.0533
2160.21	50.7095
2161.66	50.9404
2163.1	50.6226
2164.55	50.5676
2165.99	51.5243
2167.43	50.8747
2168.87	52.3343
2170.31	53.4606
2171.76	53.3729
2173.2	53.8011
2174.64	54.625
2176.08	55.0415
2177.52	55.0725
2178.96	55.5566
2180.4	55.1394
2181.84	56.3728
2183.28	56.3325
2184.72	56.0645
2186.16	55.9282
2187.6	55.0518
2189.04	54.0318
2190.47	54.317
2191.91	53.2833
2193.35	52.7691
2194.79	51.1494
2196.23	49.8307
2197.66	48.0241
2199.1	46.7877
2200.54	45.9419
2201.97	45.0592
2203.41	44.6099
2204.84	42.8468
2206.28	41.9845
2207.71	42.3033
2209.15	41.3441
2210.58	40.4272
2212.02	39.7015
2213.45	38.5861
2214.89	37.7633
2216.32	37.2202
2217.75	36.2636
2219.19	35.7958
2220.62	34.5141
2222.05	33.2032
2223.48	33.8529
2224.92	32.8835
2226.35	31.002
2227.78	29.2675
2229.21	27.7871
2230.64	27.6334
2232.07	27.699
2233.5	27.848
2234.93	27.9424
2236.36	28.1175
2237.79	29.0993
2239.22	28.7681
2240.65	28.7531
2242.08	28.4819
2243.51	28.4527
2244.94	28.9421
2246.37	28.608
2247.79	28.9907
2249.22	29.6347
2250.65	30.4947
2252.08	30.8129
2253.5	31.6868
2254.93	31.7657
2256.36	33.0163
2257.78	33.028
2259.21	32.7491
2260.63	33.5062
2262.06	34.1313
2263.48	33.9886
2264.91	33.5905
2266.33	32.4412
2267.76	32.8277
2269.18	33.7947
2270.6	33.8673
2272.03	33.3367
2273.45	33.0671
2274.87	31.1341
2276.3	30.0083
2277.72	29.6883
2279.14	29.471
2280.56	27.4424
2281.98	26.7556
2283.41	25.5185
2284.83	25.2937
2286.25	24.067
2287.67	22.6936
2289.09	20.8059
2290.51	19.9865
2291.93	18.0465
2293.35	17.431
2294.77	16.9817
2296.19	15.2889
2297.61	14.1287
2299.02	14.5937
2300.44	13.1817
2301.86	14.1218
2303.28	15.1117
2304.7	14.8162
2306.11	14.8265
2307.53	14.5679
2308.95	14.889
2310.36	15.1435
2311.78	15.3376
2313.2	15.3557
2314.61	15.8193
2316.03	15.8253
2317.44	16.4852
2318.86	17.5461
2320.27	18.2544
2321.69	19.0032
2323.1	19.9159
2324.51	20.0745
2325.93	20.5284
2327.34	20.8679
2328.76	20.6516
2330.17	20.4114
2331.58	20.2822
2332.99	20.4215
2334.41	21.0869
2335.82	19.0794
2337.23	17.9277
2338.64	16.5019
2340.05	15.7758
2341.46	14.2589
2342.87	14.0676
2344.28	13.5333
2345.69	12.2448
2347.1	12.8229
2348.51	12.0061
2349.92	11.5449
2351.33	10.8965
2352.74	11.9444
2354.15	11.6127
2355.56	11.2365
2356.97	9.74068
2358.37	8.8203
2359.78	8.37225
2361.19	8.48318
2362.6	7.97978
2364	8.26561
2365.41	8.23658
2366.82	8.20039
2368.22	8.74264
2369.63	9.61392
2371.03	8.89039
2372.44	10.6604
2373.84	10.5246
2375.25	10.0545
2376.65	10.4622
2378.06	11.0963
2379.46	11.2542
2380.86	11.3522
2382.27	11.8408
2383.67	11.21
2385.07	12.7235
2386.48	12.8734
2387.88	13.7962
2389.28	13.9647
2390.69	14.1731
2392.09	14.5077
2393.49	15.1228
2394.89	14.5567
2396.29	14.4376
2397.69	13.9838
2399.09	13.7438
2400.49	12.8144
2401.89	13.1855
2403.29	12.1352
2404.69	10.9301
2406.09	9.85734
2407.49	10.7625
2408.89	12.0121
2410.29	13.7789
2411.69	14.541
2413.08	15.5412
2414.48	16.4105
2415.88	16.3819
2417.28	16.7348
2418.67	16.3522
2420.07	16.9754
2421.47	17.6752
2422.86	18.1706
2424.26	16.9008
2425.65	17.0009
2427.05	16.5482
2428.45	15.8486
2429.84	15.5709
2431.23	14.5167
2432.63	14.1449
2434.02	13.8352
2435.42	14.0423
2436.81	13.8869
2438.2	14.1523
2439.6	13.5404
2440.99	13.1849
2442.38	14.0458
2443.78	14.2997
2445.17	14.8615
2446.56	14.7822
2447.95	15.2885
2449.34	14.6362
2450.73	15.7222
2452.13	15.3032
2453.52	15.0398
2454.91	14.895
2456.3	14.593
2457.69	15.5187
2459.08	15.2385
2460.47	15.1048
2461.85	15.8714
2463.24	15.1386
2464.63	13.9963
2466.02	13.2095
2467.41	12.4164
2468.8	11.9527
2470.19	11.214
2471.57	12.3053
2472.96	10.7096
2474.35	11.3321
2475.73	11.7058
2477.12	11.9957
2478.51	11.4983
2479.89	10.0425
2481.28	8.56365
2482.66	7.95334
2484.05	6.82345
2485.43	5.27468
2486.82	4.53406
2488.2	4.28411
2489.59	5.04153
2490.97	5.37125
2492.35	5.19287
2493.74	4.77342
2495.12	3.90231
2496.5	3.42821
2497.89	2.83322
2499.27	2.97873
2500.65	3.33655
2502.03	3.79766
2503.42	4.26807
2504.8	5.35993
2506.18	5.02532
2507.56	5.17951
2508.94	5.77074
2510.32	6.6404
2511.7	7.28116
2513.08	6.05083
2514.46	5.04581
2515.84	4.99212
2517.22	5.38392
2518.6	4.25752
2519.98	3.8535
2521.36	3.16289
2522.73	3.53031
2524.11	4.01151
2525.49	4.91831
2526.87	5.1171
2528.25	5.90432
2529.62	6.44134
2531	7.32242
2532.38	5.83609
2533.75	6.73685
2535.13	6.09529
2536.5	6.1749
2537.88	7.34968
2539.25	7.58409
2540.63	7.69924
2542.01	6.78348
2543.38	7.82804
2544.75	7.79309
2546.13	8.31988
2547.5	8.24627
2548.88	7.76625
2550.25	8.56274
2551.62	11.0276
2553	11.4934
2554.37	13.2155
2555.74	14.1375
2557.11	15.1464
2558.49	15.8556
2559.86	15.4944
2561.23	16.5494
2562.6	16.1423
2563.97	16.0259
2565.34	17.6691
2566.71	17.26
2568.08	17.8514
2569.45	17.9399
2570.82	17.312
2572.19	16.5058
2573.56	15.1142
2574.93	14.6647
2576.3	14.1586
2577.67	13.7035
2579.03	12.902
2580.4	12.2777
2581.77	11.0204
2583.14	10.964
2584.5	10.1953
2585.87	9.42202
2587.24	9.04891
2588.6	9.07367
2589.97	8.98168
2591.34	8.49339
2592.7	8.35544
2594.07	9.14636
2595.43	8.01952
2596.8	7.65879
2598.16	5.81335
2599.53	5.03072
2600.89	4.02054
2602.26	4.62268
2603.62	3.08391
2604.98	3.51291
2606.35	4.33702
2607.71	3.92511
2609.07	3.87134
2610.44	5.01341
2611.8	5.33757
2613.16	4.72155
2614.52	4.22626
2615.88	4.10285
2617.25	4.76517
2618.61	6.00709
2619.97	5.7807
2621.33	4.9318
2622.69	4.98278
2624.05	4.42041
2625.41	3.49277
2626.77	3.11994
2628.13	1.79139
2629.49	2.05492
2630.85	1.27472
2632.21	2.5345
2633.56	2.85155
2634.92	1.73064
2636.28	2.6838
2637.64	2.35837
2639	1.50396
2640.35	1.65627
2641.71	2.49129
2643.07	4.18063
2644.42	3.96209
2645.78	4.55314
2647.14	5.06587
2648.49	4.82779
2649.85	4.42027
2651.2	3.77922
2652.56	3.95122
2653.91	4.83409
2655.27	3.93587
2656.62	3.12684
2657.98	3.0483
2659.33	3.0012
2660.68	3.42462
2662.04	4.79627
2663.39	3.76668
2664.74	4.35656
2666.1	4.71992
2667.45	5.61949
2668.8	7.15281
2670.15	8.05119
2671.5	7.68855
2672.86	8.6016
2674.21	9.0351
2675.56	9.49675
2676.91	11.2207
2678.26	11.8528
2679.61	10.552
2680.96	10.8537
2682.31	11.2408
2683.66	11.0272
2685.01	12.1483
2686.36	10.5683
2687.71	9.58547
2689.06	10.496
2690.4	10.9091
2691.75	11.5723
2693.1	10.8686
2694.45	11.6704
2695.8	12.4624
2697.14	13.9283
2698.49	14.437
2699.84	14.8179
2701.18	15.1694
2702.53	16.183
2703.88	17.6903
2705.22	17.6785
2706.57	18.8346
2707.91	19.0149
2709.26	19.51
2710.6	19.6988
2711.95	19.5192
2713.29	19.0971
2714.64	19.3605
2715.98	18.8423
2717.32	19.2919
2718.67	19.1766
2720.01	18.9756
2721.35	18.8128
2722.7	17.9277
2724.04	18.8135
2725.38	18.9475
2726.72	18.832
2728.06	18.3872
2729.4	18.5365
2730.75	16.3992
2732.09	15.7556
2733.43	15.8248
2734.77	14.7697
2736.11	14.5713
2737.45	13.155
2738.79	12.6072
2740.13	12.8272
2741.47	11.6407
2742.81	12.1061
2744.15	11.2839
2745.48	9.30658
2746.82	7.94278
2748.16	7.30575
2749.5	6.33375
2750.84	5.69462
2752.17	6.465
2753.51	5.6334
2754.85	6.10232
2756.19	6.76502
2757.52	6.52295
2758.86	6.1062
2760.19	5.00835
2761.53	5.51702
2762.86	5.30758
2764.2	5.45099
2765.54	5.11806
2766.87	5.14162
2768.2	5.99383
2769.54	5.6083
2770.87	5.15319
2772.21	5.00349
2773.54	4.92407
2774.88	4.86824
2776.21	5.22938
2777.54	5.11916
2778.87	5.37511
2780.21	4.92841
2781.54	5.15215
2782.87	4.99514
2784.2	5.44515
2785.53	5.16742
2786.87	5.10748
2788.2	5.81563
2789.53	6.01397
2790.86	6.0158
2792.19	5.13255
2793.52	4.1273
2794.85	3.97361
2796.18	4.18165
2797.51	3.64284
2798.84	4.10813
2800.17	4.15247
2801.49	3.52969
2802.82	3.27912
2804.15	2.91097
2805.48	3.79577
2806.81	3.26151
2808.13	2.48295
2809.46	3.19709
2810.79	2.82917
2812.12	2.77636
2813.44	3.86508
2814.77	5.2231
2816.09	7.4226
2817.42	8.56655
2818.75	8.94049
2820.07	9.81342
2821.4	11.398
2822.72	13.917
2824.05	15.2914
2825.37	16.9035
2826.7	18.241
2828.02	20.4694
2829.35	22.4789
2830.67	25.3502
2831.99	27.1541
2833.31	29.0047
2834.64	31.9761
2835.96	34.1686
2837.28	36.8135
2838.61	39.6445
2839.93	42.8281
2841.25	46.1046
2842.57	49.0344
2843.89	52.6615
2845.21	56.5375
2846.53	60.5472
2847.85	64.5752
2849.17	68.0288
2850.49	72.1304
2851.81	75.1308
2853.13	79.0576
2854.45	83.7536
2855.77	88.3133
2857.09	91.2988
2858.41	95.312
2859.73	99.2146
2861.05	102.05
2862.36	104.408
2863.68	107.501
2865	110.471
2866.32	113.583
2867.64	115.705
2868.95	118.378
2870.27	121.655
2871.59	124.322
2872.9	127.178
2874.22	130.215
2875.53	133.322
2876.85	136.924
2878.16	139.659
2879.48	143.285
2880.79	145.357
2882.11	147.837
2883.42	149.326
2884.74	151.474
2886.05	153.655
2887.36	155.877
2888.68	157.525
2889.99	159.529
2891.3	160.884
2892.62	162.466
2893.93	164.561
2895.24	167.063
2896.55	168.874
2897.86	170.84
2899.18	172.816
2900.49	175.041
2901.8	177.486
2903.11	180.544
2904.42	185.864
2905.73	189.361
2907.04	193.222
2908.35	196.893
2909.66	200.353
2910.97	204.446
2912.28	208.851
2913.59	212.675
2914.9	216.75
2916.21	220.712
2917.51	223.938
2918.82	227.942
2920.13	231.4
2921.44	234.144
2922.74	235.843
2924.05	237.996
2925.36	238.551
2926.67	240.108
2927.97	242.61
2929.28	244.218
2930.59	244.523
2931.89	244.523
2933.2	243.321
2934.5	242.562
2935.81	241.085
2937.11	238.996
2938.42	237.347
2939.72	233.015
2941.02	230.117
2942.33	226.731
2943.63	222.218
2944.94	217.684
2946.24	212.698
2947.54	207.719
2948.85	201.949
2950.15	195.909
2951.45	190.114
2952.75	185.734
2954.05	180.109
2955.36	174.612
2956.66	168.062
2957.96	163.957
2959.26	159.009
2960.56	154.43
2961.86	149.341
2963.16	145.456
2964.46	141.218
2965.76	138.004
2967.06	134.856
2968.36	132.284
2969.66	129.51
2970.96	126.221
2972.26	124.473
2973.56	122.066
2974.85	119.685
2976.15	117.909
2977.45	115.561
2978.75	113.48
2980.05	110.238
2981.34	107.087
2982.64	104.875
2983.94	102.854
2985.23	100.538
2986.53	97.5788
2987.83	94.8256
2989.12	91.6972
2990.42	88.847
2991.71	85.525
2993.01	82.713
2994.3	78.9421
2995.6	75.3603
2996.89	72.0329
2998.19	68.2558
2999.48	64.5105
3000.77	60.8719
3002.07	56.9946
3003.36	52.5601
3004.65	49.5288
3005.95	46.49
3007.24	42.0716
3008.53	38.0115
3009.82	34.796
3011.12	31.9436
3012.41	28.1453
3013.7	25.2725
3014.99	22.0079
3016.28	19.4258
3017.57	17.5402
3018.86	15.0301
3020.15	12.9456
3021.44	10.5212
3022.73	8.80564
3024.02	6.23564
3025.31	4.79803
3026.6	4.23466
3027.89	3.30433
3029.18	1.87911
3030.47	1.1093
3031.76	0.517618
3033.04	1.13912
3034.33	1.97583
3035.62	1.58326
3036.91	0.259711
3038.19	0.251992
3039.48	-0.597481
3040.77	-0.782253
3042.05	-0.910589
3043.34	0.067211
3044.63	-0.757746
3045.91	-0.00527849
3047.2	0.312715
3048.48	-0.0116088
3049.77	-0.484309
3051.05	-0.306265
3052.34	0.281734
3053.62	0.356738
3054.91	0.251547
3056.19	0.463187
3057.48	2.53096
3058.76	2.50052
3060.04	3.07226
3061.33	3.68709
3062.61	3.64942
3063.89	3.25841
3065.17	3.55361
3066.46	3.28198
3067.74	3.74727
3069.02	5.11197
3070.3	4.20897
3071.59	4.26195
3072.87	4.76434
3074.15	5.50276
3075.43	5.95153
3076.71	6.17473
3077.99	6.16869
3079.27	6.38293
3080.55	5.8783
3081.83	6.56808
3083.11	6.326
3084.39	5.66079
3085.67	4.91986
3086.94	5.04758
3088.22	5.18671
3089.5	5.7045
3090.78	6.33499
3092.06	5.60886
3093.34	6.1497
3094.61	6.55831
3095.89	6.243
3097.17	5.91817
3098.44	4.84134
3099.72	3.75247
3101	4.03032
3102.27	5.15842
3103.55	4.57266
3104.82	4.83885
3106.1	5.36979
3107.38	5.22206
3108.65	4.93949
3109.93	5.39105
3111.2	5.54838
3112.47	5.97623
3113.75	6.1045
3115.02	6.33577
3116.3	6.60223
3117.57	7.05888
3118.84	7.0586
3120.12	7.98911
3121.39	8.24155
3122.66	7.80178
3123.93	7.86793
3125.2	7.73501
3126.48	7.13103
3127.75	6.7288
3129.02	7.10676
3130.29	7.1547
3131.56	7.34086
3132.83	7.0684
3134.1	6.78512
3135.37	7.18646
3136.64	7.64261
3137.91	7.86552
3139.18	8.12005
3140.45	7.83292
3141.72	7.45054
3142.99	7.37911
3144.26	7.02197
3145.53	6.41382
3146.8	5.726
3148.07	5.09114
3149.33	3.79058
