#Acq. time (s)=	45
#Accumulations=	2
#Range (cm-¹)=	200...3150
#Windows=	2
#Auto scanning=	Off
#Autofocus=	Off
#Macrospot=	Off
#AutoExposure=	Off
#Spike filter=	Multiple accum.
#Delay time (s)=	0
#Binning=	1
#Readout mode=	Signal
#DeNoise=	Off
#ICS correction=	On
#Dark correction=	Off
#Inst. Process=	Off
#Detector Gain=	Best Dynamic Range
#Detector ADC=	20 kHz       
#Detector temperature (°C)=	-69.85
#Instrument=	LabRAM HR Evol
#Detector=	Synapse
#Objective=	x100
#Grating=	600 gr/mm
#ND Filter=	100%
#Laser (nm)=	532 
#Hole=	100.021
#Range=	Auto
#Laser Pol.=	No
#Raman. Pol.=	No
#Laser Pol. (°)=	-0.0007625
#Raman Pol. (°)=	89.9995
#Collection=	Microscope
#StageXY=	Marzhauser
#StageZ=	Marzhauser
#X (µm)=	-1180.5
#Y (µm)=	1254.7
#Z (µm)=	577.95
#Full time(mm:ss)=	3:18
#Project=	
#Sample=	
#Site=	
#Title=	Mbcal_20_25_15_2x_45s_532 nm_x100_100%_600 gr_mm
#Remark=	
#Date=	18.07.2022 10:29
#Acquired=	18.07.2022 10:29:59
#Base:Fit=	10.08.2022 10:55:08
#Base:Sub=	10.08.2022 10:55:14
#Filter:Polynom=	16.08.2022 10:07:28
#AxisType[0]=Intens
#AxisUnit[0]=Cnt
#AxisType[1]=Spectr
#AxisUnit[1]=1/cm
200.419	4.99028
202.234	6.80283
204.048	8.59382
205.862	10.4293
207.678	10.7879
209.491	11.0039
211.304	11.0513
213.116	11.3294
214.928	10.4819
216.742	8.9783
218.554	8.38096
220.365	8.316
222.176	9.04645
223.986	8.09463
225.798	7.95785
227.608	7.73561
229.417	8.22325
231.226	7.85362
233.035	9.49414
234.843	9.8055
236.653	10.0436
238.46	9.75884
240.268	10.0622
242.074	9.45839
243.881	9.22545
245.687	9.04791
247.493	8.86395
249.298	8.66384
251.103	7.92487
252.908	7.40937
254.715	7.84952
256.519	8.90827
258.322	10.2664
260.126	9.79171
261.929	11
263.731	11.2074
265.534	11.1711
267.336	12.0846
269.137	13.3861
270.938	14.6195
272.739	15.9712
274.54	16.9169
276.34	17.8704
278.14	18.9654
279.939	19.0003
281.739	17.3768
283.537	17.1869
285.336	17.4502
287.134	16.2117
288.932	16.2567
290.729	16.1634
292.526	16.7572
294.323	16.4248
296.117	15.748
297.913	15.4283
299.709	15.5484
301.504	14.7809
303.299	14.1121
305.093	13.6535
306.888	13.9641
308.682	15.2414
310.475	16.4705
312.268	16.5408
314.059	15.6871
315.852	15.8484
317.644	16.9718
319.436	17.5719
321.227	17.0572
323.018	16.7124
324.807	14.631
326.597	14.5796
328.387	13.9113
330.177	14.231
331.967	13.981
333.753	15.0703
335.542	14.8755
337.331	14.7261
339.119	14.597
340.906	13.472
342.691	13.6407
344.478	14.0647
346.265	13.6287
348.051	12.6156
349.835	12.1084
351.621	11.8843
353.406	11.6186
355.189	10.7587
356.973	11.8298
358.757	11.3859
360.541	11.6194
362.323	11.8313
364.106	9.88261
365.889	9.80309
367.669	8.89748
369.451	7.34149
371.233	6.57447
373.012	6.77998
374.793	6.56805
376.574	6.88592
378.353	6.58348
380.133	7.07689
381.91	6.50995
383.69	6.42408
385.469	6.19931
387.245	6.60799
389.024	7.73207
390.8	8.10802
392.577	9.44879
394.353	10.4762
396.129	11.4711
397.906	11.9992
399.68	12.4731
401.456	12.2188
403.23	11.8205
405.005	11.929
406.778	12.0011
408.552	11.4268
410.325	11.3104
412.099	12.6667
413.87	13.9625
415.643	15.0863
417.414	15.8889
419.187	16.9087
420.957	16.3088
422.728	14.9362
424.498	13.5894
426.269	13.2495
428.038	13.411
429.806	11.5014
431.576	11.486
433.344	10.8015
435.114	10.2711
436.881	10.9365
438.649	11.0307
440.416	10.891
442.182	11.0569
443.949	11.5167
445.715	12.8987
447.48	12.9979
449.247	13.6539
451.011	12.7378
452.777	13.2092
454.541	14.02
456.304	14.0478
458.069	13.9879
459.832	13.9313
461.594	13.8318
463.358	13.4643
465.119	13.6274
466.881	13.4048
468.642	14.3279
470.404	14.7242
472.165	15.8978
473.925	16.0065
475.684	16.0287
477.445	17.365
479.204	18.7599
480.963	19.3762
482.721	20.9778
484.481	22.2829
486.239	21.3314
487.996	22.595
489.753	23.1557
491.511	22.5744
493.268	23.6722
495.023	23.7615
496.779	25.6414
498.534	26.833
500.289	27.7004
502.046	27.3144
503.8	27.2681
505.554	27.0653
507.307	25.9613
509.06	25.536
510.813	25.8631
512.566	27.1266
514.32	27.4585
516.072	27.7865
517.823	27.5947
519.574	29.0799
521.325	29.9092
523.076	31.3244
524.826	32.185
526.576	32.5813
528.325	32.6683
530.074	33.2372
531.823	33.2906
533.572	33.5437
535.32	32.5943
537.068	31.4213
538.815	30.6941
540.562	30.6528
542.309	30.1171
544.056	29.6903
545.802	28.6969
547.547	27.8705
549.293	27.4341
551.038	26.7672
552.783	27.1842
554.527	26.6558
556.271	25.8185
558.015	24.1282
559.759	22.5377
561.502	22.2109
563.245	22.0242
564.987	22.1337
566.729	21.5875
568.471	20.3427
570.213	19.2812
571.954	17.5426
573.693	15.9046
575.433	15.8866
577.173	14.1083
578.913	13.0783
580.652	13.3557
582.392	11.6404
584.13	11.9422
585.867	10.8618
587.605	10.6084
589.343	10.3167
591.08	9.57417
592.817	9.47384
594.552	10.4849
596.289	11.7041
598.025	11.1772
599.761	10.9713
601.496	11.1008
603.229	11.0413
604.964	11.6761
606.699	12.4886
608.433	12.3801
610.165	13.1845
611.898	12.6212
613.631	12.0862
615.364	12.3518
617.095	12.6628
618.827	12.3379
620.559	11.8855
622.288	11.4636
624.02	12.4068
625.75	13.9672
627.479	15.3513
629.209	17.0488
630.939	16.8525
632.667	17.7216
634.396	18.3953
636.125	18.4758
637.851	19.2859
639.58	19.7022
641.305	18.5788
643.033	18.6246
644.76	18.6155
646.485	19.0084
648.212	19.5658
649.936	19.43
651.662	18.4544
653.388	18.8645
655.111	18.0763
656.836	18.6229
658.558	18.6106
660.283	19.1032
662.005	19.363
663.728	20.1485
665.45	20.6856
667.173	21.2768
668.893	21.8084
670.616	22.9527
672.336	24.0195
674.057	25.0973
675.777	24.8042
677.498	25.2189
679.216	26.3019
680.937	26.1808
682.655	26.2056
684.375	25.4243
686.092	26.3844
687.809	26.9194
689.528	27.3308
691.244	27.9079
692.962	28.4566
694.678	28.0491
696.393	29.4049
698.111	28.879
699.825	29.755
701.54	31.9402
703.256	31.9254
704.97	32.162
706.685	33.0569
708.398	34.9122
710.111	36.3756
711.826	37.3655
713.538	38.4694
715.25	38.2677
716.961	39.214
718.675	38.9555
720.386	38.9447
722.096	39.5035
723.808	39.8186
725.518	39.3844
727.228	39.8455
728.937	40.5096
730.648	39.7346
732.357	40.3518
734.065	40.6962
735.773	41.1746
737.483	41.4832
739.19	42.8578
740.897	43.0902
742.604	43.2931
744.31	44.3197
746.018	45.5615
747.724	46.2311
749.429	47.9399
751.134	48.719
752.839	50.1628
754.544	50.6385
756.248	50.7199
757.953	52.4249
759.657	53.3833
761.36	54.8284
763.063	56.4752
764.765	57.6902
766.468	58.8184
768.169	59.8343
769.871	61.2193
771.572	62.9478
773.273	64.1718
774.976	65.4489
776.676	66.8775
778.376	68.5124
780.075	69.5057
781.775	71.4225
783.474	71.5964
785.172	72.4979
786.871	73.5075
788.569	73.6142
790.266	74.8416
791.964	75.629
793.661	76.9298
795.358	76.6808
797.054	76.5502
798.75	76.56
800.446	75.6415
802.141	75.8445
803.834	76.6197
805.529	78.3249
807.224	79.1875
808.918	77.9923
810.612	77.635
812.305	77.4492
813.998	77.1005
815.691	76.5123
817.384	77.8906
819.076	78.3094
820.766	76.9592
822.458	76.9888
824.149	77.221
825.84	77.804
827.531	78.3802
829.221	80.7175
830.909	82.0075
832.599	82.6251
834.288	83.9156
835.977	83.9164
837.666	84.0234
839.353	83.9729
841.041	85.2771
842.729	85.8512
844.416	85.5786
846.103	84.6921
847.788	83.413
849.475	82.2169
851.161	81.3418
852.845	80.3132
854.53	78.3934
856.216	76.6277
857.901	75.7368
859.583	74.0406
861.268	73.9304
862.952	72.2391
864.633	70.1964
866.317	68.918
868	67.018
869.681	66.0185
871.363	63.7913
873.045	61.3328
874.725	60.1977
876.406	58.3357
878.088	56.2772
879.767	53.4977
881.447	52.1213
883.125	49.9982
884.805	48.632
886.483	47.4124
888.162	47.6296
889.841	45.9373
891.518	43.9825
893.196	42.135
894.872	42.7237
896.55	42.5311
898.225	43.2327
899.902	43.2075
901.577	44.6952
903.254	44.6885
904.928	45.0475
906.604	47.1922
908.277	49.614
909.952	51.2985
911.625	52.681
913.3	54.729
914.972	54.931
916.646	55.0344
918.318	55.6568
919.991	55.5053
921.662	56.1203
923.333	56.7548
925.005	57.2687
926.675	56.7916
928.347	56.4561
930.017	54.9939
931.686	54.5521
933.357	54.4884
935.025	54.4844
936.693	54.0555
938.363	53.0747
940.031	53.6471
941.698	52.8926
943.367	51.5778
945.034	50.2423
946.7	48.1867
948.368	46.8849
950.034	46.6607
951.699	45.9584
953.367	44.2203
955.031	42.0438
956.696	42.4453
958.36	40.8951
960.026	38.5857
961.689	36.574
963.353	36.0255
965.016	35.6989
966.68	34.2133
968.343	34.1015
970.005	33.2456
971.666	33.6929
973.328	33.0964
974.991	31.6016
976.652	31.385
978.312	31.2017
979.972	30.9081
981.632	30.0251
983.292	29.6602
984.953	30.0062
986.612	29.059
988.27	29.4017
989.929	28.197
991.587	28.7813
993.244	28.4477
994.902	27.5969
996.559	27.0383
998.216	26.0881
999.872	26.3797
1001.53	25.1492
1003.19	24.7427
1004.84	24.935
1006.5	24.7358
1008.15	25.2127
1009.81	25.7775
1011.46	25.1033
1013.11	25.2281
1014.77	26.3927
1016.42	27.4042
1018.07	27.5306
1019.73	27.7976
1021.38	27.3625
1023.03	27.4163
1024.68	27.5042
1026.34	28.5756
1027.99	28.4086
1029.64	28.9446
1031.29	29.0087
1032.94	29.6425
1034.59	28.9006
1036.24	28.4152
1037.89	28.3303
1039.53	28.7816
1041.18	27.4425
1042.83	27.54
1044.48	27.192
1046.13	28.124
1047.77	27.7182
1049.42	26.9887
1051.07	26.3869
1052.71	25.555
1054.36	24.8588
1056	24.0055
1057.65	23.2512
1059.3	22.6596
1060.94	22.288
1062.59	21.8215
1064.23	20.8136
1065.87	21.3538
1067.52	21.1437
1069.16	20.9879
1070.8	20.8697
1072.44	20.4037
1074.09	20.9346
1075.73	21.0695
1077.37	20.3307
1079.01	20.2878
1080.65	19.3075
1082.29	19.0679
1083.93	18.4736
1085.57	20.0665
1087.21	22.0564
1088.85	22.7762
1090.49	23.7447
1092.13	24.7511
1093.77	24.8383
1095.41	25.5086
1097.04	25.8391
1098.68	26.3823
1100.32	25.7945
1101.95	25.8721
1103.59	25.6167
1105.23	26.4064
1106.86	26.0806
1108.5	25.9289
1110.13	25.5163
1111.77	25.1777
1113.4	24.73
1115.04	24.149
1116.67	23.2146
1118.31	23.6769
1119.94	23.1769
1121.57	22.2954
1123.2	20.0512
1124.84	19.2375
1126.47	18.9548
1128.1	19.3343
1129.73	18.2046
1131.36	16.9382
1132.99	15.7506
1134.62	14.8621
1136.25	14.4449
1137.88	13.8546
1139.51	13.1835
1141.14	12.3195
1142.77	11.1349
1144.4	10.5575
1146.03	10.0535
1147.66	10.2454
1149.28	9.42455
1150.91	8.37559
1152.54	6.5545
1154.16	6.09082
1155.79	5.37467
1157.42	4.97255
1159.04	3.76377
1160.67	2.34892
1162.29	1.13814
1163.92	1.85265
1165.54	1.66741
1167.17	2.63427
1168.79	2.22295
1170.41	1.84091
1172.04	2.34912
1173.66	2.93207
1175.28	2.50739
1176.9	3.13422
1178.53	3.34066
1180.15	4.12405
1181.77	4.17594
1183.39	5.68029
1185.01	6.60667
1186.63	8.21371
1188.25	8.53238
1189.87	9.30122
1191.49	9.26934
1193.11	8.49797
1194.73	8.39337
1196.35	8.6651
1197.96	10.0209
1199.58	10.975
1201.2	12.3123
1202.82	13.3023
1204.43	14.2591
1206.05	15.9409
1207.66	16.9663
1209.28	17.7557
1210.9	18.8125
1212.51	19.9441
1214.13	21.5424
1215.74	21.9191
1217.36	23.0358
1218.97	24.1728
1220.58	25.6603
1222.2	26.5084
1223.81	26.9918
1225.42	28.577
1227.04	29.8154
1228.65	31.3731
1230.26	31.8978
1231.87	32.1811
1233.48	33.5401
1235.1	35.1558
1236.71	35.5043
1238.32	35.9442
1239.93	35.2884
1241.53	35.7104
1243.14	36.3105
1244.75	38.0434
1246.36	38.5661
1247.97	39.4614
1249.58	39.7534
1251.19	40.3435
1252.8	41.3996
1254.4	42.6685
1256.01	42.6977
1257.62	44.0916
1259.22	44.3599
1260.83	45.9474
1262.43	46.7961
1264.04	47.7748
1265.64	47.25
1267.25	47.416
1268.85	46.8348
1270.46	47.188
1272.06	47.4239
1273.66	47.9685
1275.27	49.2924
1276.87	50.7948
1278.48	52.5004
1280.08	53.1554
1281.68	54.8818
1283.28	55.7875
1284.88	56.427
1286.48	58.3241
1288.08	60.2008
1289.68	61.649
1291.28	63.6733
1292.88	64.7839
1294.48	65.9939
1296.08	66.3099
1297.68	67.0242
1299.28	68.7342
1300.88	69.5257
1302.48	70.774
1304.07	72.6033
1305.67	74.845
1307.27	76.0865
1308.87	76.9423
1310.46	76.8731
1312.06	77.1661
1313.65	77.934
1315.25	78.7369
1316.85	78.9148
1318.44	78.5199
1320.03	77.8593
1321.63	78.3352
1323.22	78.0308
1324.82	79.549
1326.41	78.8284
1328	78.6863
1329.6	78.8446
1331.19	78.2341
1332.78	78.6269
1334.37	77.7404
1335.96	77.0535
1337.56	77.3105
1339.15	75.7949
1340.74	74.4119
1342.33	73.1167
1343.92	70.9521
1345.51	69.2941
1347.1	68.3874
1348.69	67.1636
1350.28	66.8053
1351.86	65.4351
1353.45	64.124
1355.04	63.0659
1356.63	60.5581
1358.21	59.7474
1359.8	59.5531
1361.39	58.1989
1362.97	57.7947
1364.56	57.478
1366.15	57.0344
1367.73	55.5184
1369.32	54.6036
1370.9	54.1411
1372.49	53.4493
1374.07	52.9961
1375.65	51.9652
1377.24	51.7396
1378.82	52.7513
1380.41	51.7669
1381.99	50.8952
1383.57	49.8881
1385.15	49.7133
1386.73	49.1948
1388.32	49.1729
1389.9	48.124
1391.48	47.8185
1393.06	47.5713
1394.64	48.0984
1396.22	47.2629
1397.8	47.1995
1399.38	47.4713
1400.96	48.0058
1402.54	49.1676
1404.11	49.8229
1405.69	49.3536
1407.27	50.962
1408.85	51.943
1410.43	52.2029
1412	52.9801
1413.58	55.135
1415.16	56.8429
1416.73	57.8831
1418.31	59.0653
1419.88	61.0822
1421.46	64.0746
1423.03	65.3609
1424.61	68.9675
1426.18	71.8626
1427.76	75.3823
1429.33	78.1808
1430.9	79.7072
1432.48	81.982
1434.05	84.4516
1435.62	86.2455
1437.2	89.778
1438.77	92.4259
1440.34	93.9104
1441.91	96.8915
1443.48	98.5513
1445.05	99.5372
1446.62	99.877
1448.19	100.142
1449.76	100.726
1451.33	101.109
1452.9	101.697
1454.47	102.232
1456.04	101.809
1457.61	101.837
1459.17	100.642
1460.74	99.9752
1462.31	99.4793
1463.88	99.1975
1465.44	97.0851
1467.01	94.9488
1468.58	92.8549
1470.14	90.8288
1471.71	89.2053
1473.27	86.9406
1474.84	83.8964
1476.4	81.3757
1477.97	79.1123
1479.53	76.5766
1481.1	75.1713
1482.66	72.7695
1484.22	71.058
1485.78	67.9428
1487.35	64.4164
1488.91	61.3682
1490.47	59.0243
1492.03	57.7091
1493.59	54.798
1495.16	51.5886
1496.72	49.909
1498.28	48.249
1499.84	46.5992
1501.4	44.7358
1502.96	44.1162
1504.52	42.052
1506.08	39.9536
1507.64	37.2028
1509.19	35.0986
1510.75	33.4783
1512.31	31.9673
1513.87	30.0944
1515.42	29.3159
1516.98	28.3167
1518.54	26.5826
1520.1	25.1887
1521.65	24.6023
1523.21	23.7174
1524.76	23.2926
1526.32	23.3869
1527.87	23.8334
1529.43	23.59
1530.98	23.8905
1532.54	24.5366
1534.09	24.3374
1535.64	24.7448
1537.2	24.4366
1538.75	24.9186
1540.3	25.6009
1541.85	26.7707
1543.41	27.2364
1544.96	27.9008
1546.51	28.1969
1548.06	29.0467
1549.61	30.1485
1551.16	30.9872
1552.71	31.4778
1554.26	33.5114
1555.81	35.8605
1557.36	37.3457
1558.91	39.5489
1560.46	39.477
1562.01	39.655
1563.56	39.5047
1565.1	40.9268
1566.65	42.4801
1568.2	43.5442
1569.75	45.2627
1571.29	46.1736
1572.84	47.24
1574.38	49.3746
1575.93	49.8616
1577.48	51.5128
1579.02	52.8168
1580.57	53.5605
1582.11	54.491
1583.65	55.4125
1585.2	56.7699
1586.74	57.4159
1588.29	58.2248
1589.83	59.6663
1591.37	60.157
1592.92	61.2639
1594.46	61.2414
1596	61.0914
1597.54	61.1827
1599.08	61.3802
1600.62	61.7718
1602.16	61.3463
1603.7	60.7873
1605.24	59.9964
1606.78	59.8659
1608.32	60.3467
1609.86	60.1222
1611.4	58.7737
1612.94	57.6241
1614.48	57.174
1616.02	57.4938
1617.56	56.9666
1619.09	56.7608
1620.63	56.1806
1622.17	55.8992
1623.71	56.122
1625.24	56.4538
1626.78	56.2756
1628.31	56.2597
1629.85	56.6809
1631.39	57.7598
1632.92	58.1931
1634.46	57.7196
1635.99	57.1412
1637.52	57.3209
1639.06	57.1881
1640.59	58.5335
1642.12	60.1273
1643.66	62.0998
1645.19	63.7165
1646.72	64.9196
1648.25	65.7911
1649.79	67.0727
1651.32	67.4172
1652.85	68.3575
1654.38	69.776
1655.91	69.5665
1657.44	69.5875
1658.97	69.9955
1660.5	69.9803
1662.03	69.1488
1663.56	69.0299
1665.09	68.6591
1666.62	66.8819
1668.15	64.918
1669.67	63.7481
1671.2	61.5784
1672.73	59.95
1674.26	58.152
1675.79	56.7492
1677.31	54.7058
1678.84	52.5828
1680.36	50.3154
1681.89	47.8032
1683.42	46.3672
1684.94	44.1927
1686.47	41.4749
1687.99	39.5361
1689.51	37.416
1691.04	35.4297
1692.56	33.4922
1694.08	30.4219
1695.61	28.4084
1697.13	26.6791
1698.65	24.6918
1700.18	22.6051
1701.7	20.3946
1703.22	19.2863
1704.74	17.1566
1706.26	15.5696
1707.78	13.7986
1709.3	12.8287
1710.82	11.1184
1712.35	10.7804
1713.86	10.4027
1715.39	9.54681
1716.9	10.5189
1718.42	9.86881
1719.94	9.82999
1721.46	9.27402
1722.98	8.29976
1724.5	8.3977
1726.01	7.69449
1727.53	6.7359
1729.05	6.45159
1730.56	5.96156
1732.08	5.07943
1733.6	4.99055
1735.11	4.83831
1736.63	4.16032
1738.14	3.53822
1739.66	3.26664
1741.17	1.94207
1742.69	0.849714
1744.2	0.667754
1745.71	0.691325
1747.23	0.401152
1748.74	0.355133
1750.25	0.452714
1751.77	0.831214
1753.28	0.780543
1754.79	1.32058
1756.3	0.445215
1757.81	1.08483
1759.33	1.23286
1760.84	0.616107
1762.35	0.801858
1763.86	0.875851
1765.37	0.271295
1766.88	-0.0663615
1768.39	-0.105122
1769.9	-0.0691381
1771.41	0.774758
1772.91	1.66544
1774.42	1.26276
1775.93	1.60964
1777.44	1.78465
1778.95	2.01684
1780.45	0.97192
1781.96	0.933054
1783.47	1.17906
1784.97	1.53329
1786.48	1.48523
1787.99	2.25222
1789.49	2.42523
1791	2.54447
1792.5	2.51735
1794.01	2.15972
1795.51	2.56785
1797.01	2.58166
1798.52	2.24725
1800.02	2.54096
1801.52	2.0737
1803.03	2.68812
1804.53	3.3153
1806.03	3.03656
1807.54	2.97794
1809.04	2.99281
1810.54	3.10425
1812.04	2.67101
1813.54	2.68021
1815.04	3.00217
1816.54	3.31609
1818.04	3.4857
1819.54	3.98583
1821.04	4.56002
1822.54	4.42138
1824.04	4.58288
1825.54	4.60869
1827.04	4.24822
1828.54	4.17985
1830.03	4.31127
1831.53	4.35613
1833.03	5.17693
1834.53	5.03451
1836.02	5.03593
1837.52	5.3974
1839.02	5.3282
1840.51	5.59652
1842.01	5.87123
1843.5	6.56616
1845	6.59599
1846.49	6.7345
1847.99	6.50084
1849.48	6.61854
1850.98	6.68621
1852.47	5.98625
1853.96	5.31664
1855.46	4.83001
1856.95	5.20063
1858.44	4.77658
1859.94	4.82691
1861.43	4.66962
1862.92	4.58741
1864.41	3.89004
1865.9	3.26329
1867.39	2.7076
1868.88	2.36536
1870.37	1.91028
1871.86	1.46906
1873.35	1.26498
1874.84	1.29231
1876.33	0.953122
1877.82	1.40015
1879.31	1.31228
1880.8	1.42958
1882.29	1.51706
1882.58	0.968386
1884.08	1.09169
1885.57	0.78316
1887.06	1.27707
1888.56	0.91025
1890.05	1.15289
1891.54	1.54539
1893.04	1.44212
1894.53	1.48301
1896.02	1.49946
1897.51	2.04193
1899	1.31289
1900.5	0.97226
1901.99	1.12264
1903.48	1.50653
1904.97	0.907729
1906.46	0.819843
1907.95	0.650814
1909.44	0.75349
1910.93	1.05906
1912.42	0.970264
1913.91	0.941896
1915.4	0.737574
1916.88	1.07288
1918.37	0.735122
1919.86	0.992322
1921.35	1.22228
1922.84	1.4782
1924.32	0.849744
1925.81	1.36339
1927.3	1.86257
1928.78	1.90276
1930.27	2.66427
1931.75	1.81828
1933.24	2.0917
1934.72	2.40096
1936.21	2.19031
1937.69	1.90095
1939.18	1.88097
1940.66	1.61428
1942.15	1.47231
1943.63	1.5859
1945.11	2.15047
1946.6	2.65731
1948.08	3.54946
1949.56	4.61552
1951.04	5.34691
1952.53	4.96964
1954.01	4.55656
1955.49	3.85688
1956.97	3.60603
1958.45	4.35526
1959.93	4.0063
1961.41	4.15367
1962.89	4.83927
1964.37	5.90814
1965.85	5.55345
1967.33	5.29431
1968.81	5.18969
1970.29	4.48499
1971.77	3.83068
1973.24	3.51051
1974.72	3.62457
1976.2	3.69809
1977.68	3.90202
1979.15	3.93123
1980.63	4.11907
1982.11	4.5403
1983.58	3.85575
1985.06	3.2896
1986.53	3.04426
1988.01	2.9961
1989.48	3.45081
1990.96	4.05853
1992.43	3.61464
1993.91	3.62133
1995.38	3.95043
1996.86	3.41594
1998.33	3.3426
1999.8	3.50425
2001.27	3.23889
2002.75	3.70208
2004.22	3.77648
2005.69	2.94809
2007.16	3.36216
2008.64	4.09463
2010.11	4.09617
2011.58	4.16171
2013.05	4.28887
2014.52	4.1174
2015.99	4.16634
2017.46	4.57556
2018.93	5.09278
2020.4	5.56962
2021.87	5.65089
2023.34	5.14105
2024.8	4.55799
2026.27	3.94886
2027.74	4.10995
2029.21	4.40203
2030.68	4.34469
2032.14	4.5071
2033.61	4.69725
2035.08	5.15551
2036.54	5.67295
2038.01	5.00131
2039.48	4.81594
2040.94	5.11594
2042.41	5.13542
2043.87	5.74529
2045.34	6.73991
2046.8	7.36204
2048.27	6.76709
2049.73	7.47842
2051.19	7.79211
2052.66	7.28971
2054.12	6.21887
2055.58	5.92944
2057.05	5.64608
2058.51	6.04725
2059.97	6.88697
2061.43	6.9898
2062.9	7.47663
2064.36	7.76341
2065.82	7.882
2067.28	8.66696
2068.74	9.03518
2070.2	8.83402
2071.66	9.92972
2073.12	10.8324
2074.58	11.5276
2076.04	12.0667
2077.5	11.5339
2078.95	11.703
2080.41	12.3067
2081.87	12.409
2083.33	12.244
2084.79	12.923
2086.24	12.9822
2087.7	12.9444
2089.16	14.3961
2090.61	15.0911
2092.07	15.6111
2093.53	15.7314
2094.98	15.2371
2096.44	15.574
2097.89	16.2044
2099.35	17.0947
2100.8	17.3602
2102.26	17.2496
2103.71	17.5355
2105.16	18.4968
2106.62	19.7341
2108.07	19.5623
2109.53	20.7108
2110.98	21.4227
2112.43	22.0406
2113.88	22.2589
2115.33	22.7669
2116.79	22.8894
2118.24	23.4332
2119.69	23.691
2121.14	24.2316
2122.59	25.7075
2124.04	25.7026
2125.49	26.0701
2126.94	27.5831
2128.39	28.2931
2129.84	29.4588
2131.29	31.0639
2132.74	32.4271
2134.19	33.2578
2135.63	34.0469
2137.08	35.2979
2138.53	36.041
2139.98	36.1392
2141.43	37.669
2142.87	39.3205
2144.32	40.0297
2145.77	40.9921
2147.21	41.3467
2148.66	42.0257
2150.1	42.9544
2151.55	43.9749
2152.99	44.6209
2154.44	45.1516
2155.88	46.3204
2157.33	47.243
2158.77	47.2489
2160.21	48.7903
2161.66	49.4876
2163.1	48.5734
2164.55	49.0813
2165.99	49.9368
2167.43	50.2114
2168.87	50.7068
2170.31	51.1874
2171.76	52.1654
2173.2	51.4755
2174.64	51.8992
2176.08	52.1055
2177.52	51.8479
2178.96	51.1446
2180.4	50.4118
2181.84	50.5186
2183.28	49.7221
2184.72	48.8395
2186.16	48.5162
2187.6	47.9038
2189.04	46.9198
2190.47	47.0352
2191.91	46.391
2193.35	45.7805
2194.79	45.4358
2196.23	44.7141
2197.66	44.4118
2199.1	43.7738
2200.54	41.7573
2201.97	40.8527
2203.41	39.6301
2204.84	38.3627
2206.28	37.3536
2207.71	35.9344
2209.15	35.0166
2210.58	33.3571
2212.02	32.5755
2213.45	33.2105
2214.89	31.2291
2216.32	29.1507
2217.75	28.5016
2219.19	26.4883
2220.62	25.7624
2222.05	25.1739
2223.48	24.0633
2224.92	22.918
2226.35	22.6937
2227.78	22.0543
2229.21	21.4618
2230.64	20.7416
2232.07	20.2598
2233.5	18.6469
2234.93	18.6538
2236.36	18.9802
2237.79	18.9539
2239.22	18.4747
2240.65	17.9496
2242.08	18.1354
2243.51	17.9303
2244.94	16.7864
2246.37	16.5358
2247.79	15.9088
2249.22	15.8684
2250.65	15.8028
2252.08	15.8285
2253.5	15.8582
2254.93	15.5925
2256.36	15.3778
2257.78	14.8974
2259.21	14.0974
2260.63	14.0601
2262.06	13.9468
2263.48	14.1621
2264.91	14.0514
2266.33	13.8407
2267.76	13.1659
2269.18	12.095
2270.6	11.345
2272.03	10.2906
2273.45	10.0061
2274.87	10.0357
2276.3	10.9809
2277.72	10.1946
2279.14	9.33447
2280.56	9.23427
2281.98	9.42002
2283.41	9.60416
2284.83	9.61065
2286.25	9.36308
2287.67	9.65026
2289.09	9.82938
2290.51	9.39477
2291.93	9.78302
2293.35	9.6468
2294.77	9.59059
2296.19	10.0534
2297.61	10.5439
2299.02	10.4041
2300.44	10.9389
2301.86	11.0477
2303.28	11.9002
2304.7	12.3165
2306.11	13.3818
2307.53	13.8951
2308.95	15.0371
2310.36	15.238
2311.78	15.1556
2313.2	15.7545
2314.61	15.5663
2316.03	15.4126
2317.44	15.7328
2318.86	15.9955
2320.27	15.943
2321.69	15.4191
2323.1	15.1107
2324.51	14.8942
2325.93	14.164
2327.34	13.6419
2328.76	12.6756
2330.17	11.5001
2331.58	10.887
2332.99	10.5213
2334.41	10.4359
2335.82	10.1463
2337.23	9.73266
2338.64	8.57199
2340.05	8.17575
2341.46	7.72555
2342.87	7.60068
2344.28	7.47671
2345.69	7.05699
2347.1	6.88899
2348.51	5.70346
2349.92	5.53806
2351.33	5.38229
2352.74	4.8766
2354.15	4.57847
2355.56	4.38253
2356.97	3.88314
2358.37	3.18803
2359.78	2.89001
2361.19	3.28969
2362.6	3.63546
2364	4.20428
2365.41	4.67631
2366.82	5.06881
2368.22	5.38314
2369.63	5.09475
2371.03	5.14169
2372.44	5.14289
2373.84	5.38251
2375.25	5.20952
2376.65	5.60849
2378.06	5.55857
2379.46	5.72152
2380.86	5.11681
2382.27	4.86732
2383.67	4.53944
2385.07	4.46825
2386.48	4.36841
2387.88	4.9602
2389.28	4.62939
2390.69	4.029
2392.09	3.70653
2393.49	3.91655
2394.89	4.01233
2396.29	3.69383
2397.69	3.65585
2399.09	3.49276
2400.49	4.01594
2401.89	4.95227
2403.29	5.27122
2404.69	5.36807
2406.09	5.63365
2407.49	4.77525
2408.89	4.74738
2410.29	4.98682
2411.69	4.75922
2413.08	5.55772
2414.48	6.19345
2415.88	6.31589
2417.28	6.97354
2418.67	7.24859
2420.07	7.68693
2421.47	8.0829
2422.86	8.48173
2424.26	9.02524
2425.65	9.3906
2427.05	10.0667
2428.45	10.6675
2429.84	10.83
2431.23	10.6363
2432.63	10.3501
2434.02	9.65357
2435.42	8.92496
2436.81	8.71185
2438.2	8.14625
2439.6	7.20491
2440.99	7.82825
2442.38	7.31749
2443.78	6.3627
2445.17	5.95623
2446.56	5.80336
2447.95	5.46007
2449.34	5.93165
2450.73	5.64325
2452.13	5.89038
2453.52	5.36196
2454.91	5.64908
2456.3	5.52298
2457.69	5.58149
2459.08	5.42567
2460.47	5.43377
2461.85	5.71586
2463.24	6.18036
2464.63	5.37222
2466.02	5.24307
2467.41	4.89328
2468.8	4.7625
2470.19	3.89207
2471.57	3.21098
2472.96	2.45628
2474.35	2.28837
2475.73	2.78411
2477.12	3.17996
2478.51	3.5703
2479.89	4.26478
2481.28	4.9552
2482.66	5.22079
2484.05	5.40028
2485.43	4.88208
2486.82	5.03565
2488.2	5.21832
2489.59	5.30414
2490.97	5.0241
2492.35	4.76492
2493.74	4.64331
2495.12	4.77885
2496.5	3.86368
2497.89	3.6198
2499.27	3.07858
2500.65	2.79026
2502.03	2.36318
2503.42	1.82414
2504.8	1.8523
2506.18	1.73235
2507.56	1.34611
2508.94	1.05746
2510.32	1.10178
2511.7	-0.0181481
2513.08	0.00333812
2514.46	0.384078
2515.84	0.993488
2517.22	1.51814
2518.6	2.53953
2519.98	2.51539
2521.36	2.61482
2522.73	2.63427
2524.11	2.66522
2525.49	2.9984
2526.87	2.9927
2528.25	2.94649
2529.62	3.27912
2531	3.30479
2532.38	3.07814
2533.75	2.95628
2535.13	3.27923
2536.5	3.21364
2537.88	3.83406
2539.25	3.95128
2540.63	5.19102
2542.01	6.13403
2543.38	6.9581
2544.75	7.81636
2546.13	8.24386
2547.5	8.05139
2548.88	8.85278
2550.25	8.4748
2551.62	8.70103
2553	9.27977
2554.37	9.84997
2555.74	10.1801
2557.11	10.4323
2558.49	11.1923
2559.86	11.8013
2561.23	12.0113
2562.6	12.3608
2563.97	12.4546
2565.34	12.3575
2566.71	12.6616
2568.08	11.9124
2569.45	12.1438
2570.82	11.8756
2572.19	11.8149
2573.56	11.8913
2574.93	11.4258
2576.3	10.5633
2577.67	10.3356
2579.03	10.3854
2580.4	10.533
2581.77	10.9094
2583.14	10.8731
2584.5	11.2172
2585.87	10.9234
2587.24	11.0317
2588.6	10.3912
2589.97	10.2424
2591.34	9.87283
2592.7	8.92914
2594.07	8.92424
2595.43	8.43545
2596.8	8.2751
2598.16	8.38801
2599.53	7.28961
2600.89	6.91984
2602.26	6.6126
2603.62	6.44671
2604.98	6.82227
2606.35	7.0537
2607.71	7.28758
2609.07	7.58512
2610.44	6.72235
2611.8	6.76535
2613.16	7.29903
2614.52	7.09443
2615.88	7.09358
2617.25	7.79438
2618.61	7.43183
2619.97	7.77398
2621.33	7.31463
2622.69	7.31349
2624.05	7.57835
2625.41	7.377
2626.77	7.18939
2628.13	6.98544
2629.49	6.53755
2630.85	7.32264
2632.21	7.29328
2633.56	7.6872
2634.92	7.71865
2636.28	7.59907
2637.64	8.54271
2639	8.51444
2640.35	9.18713
2641.71	9.22941
2643.07	8.7356
2644.42	8.78899
2645.78	9.59306
2647.14	10.4452
2648.49	10.2333
2649.85	10.4291
2651.2	9.9651
2652.56	9.85038
2653.91	9.78484
2655.27	9.49302
2656.62	9.13394
2657.98	8.50925
2659.33	8.22316
2660.68	7.57538
2662.04	7.74107
2663.39	7.5975
2664.74	7.51852
2666.1	7.45942
2667.45	7.09079
2668.8	7.40101
2670.15	7.66405
2671.5	8.65538
2672.86	8.68805
2674.21	8.46348
2675.56	8.08281
2676.91	7.39243
2678.26	7.17637
2679.61	8.00147
2680.96	7.72177
2682.31	7.63683
2683.66	8.03534
2685.01	8.37804
2686.36	8.23094
2687.71	8.19398
2689.06	8.15598
2690.4	8.39519
2691.75	8.72709
2693.1	8.81924
2694.45	10.0398
2695.8	11.2841
2697.14	11.6406
2698.49	12.135
2699.84	12.0127
2701.18	12.7009
2702.53	13.1046
2703.88	13.9257
2705.22	15.2673
2706.57	15.3595
2707.91	16.1238
2709.26	15.8449
2710.6	16.3411
2711.95	16.5947
2713.29	16.8841
2714.64	17.3416
2715.98	16.4489
2717.32	16.969
2718.67	17.1121
2720.01	17.178
2721.35	17.1198
2722.7	16.7487
2724.04	16.6169
2725.38	16.9912
2726.72	17.5001
2728.06	17.3586
2729.4	17.2068
2730.75	17.0417
2732.09	16.7908
2733.43	16.2744
2734.77	15.9771
2736.11	15.9441
2737.45	15.7818
2738.79	15.8531
2740.13	15.1384
2741.47	14.6711
2742.81	14.0662
2744.15	13.1792
2745.48	12.8287
2746.82	12.3047
2748.16	12.2789
2749.5	12.249
2750.84	11.7829
2752.17	10.8803
2753.51	10.2802
2754.85	9.53818
2756.19	9.05662
2757.52	8.42914
2758.86	8.41068
2760.19	8.72306
2761.53	8.51238
2762.86	8.08623
2764.2	7.49865
2765.54	6.99617
2766.87	7.20194
2768.2	7.24177
2769.54	7.44775
2770.87	7.75723
2772.21	7.03119
2773.54	6.37572
2774.88	6.33144
2776.21	5.73913
2777.54	5.74796
2778.87	5.48958
2780.21	5.06565
2781.54	4.75309
2782.87	4.19978
2784.2	5.19642
2785.53	5.10225
2786.87	4.56535
2788.2	4.72424
2789.53	4.39496
2790.86	4.047
2792.19	4.01747
2793.52	3.33094
2794.85	3.08381
2796.18	2.60696
2797.51	2.13315
2798.84	1.50612
2800.17	1.38356
2801.49	1.51067
2802.82	1.5047
2804.15	1.04446
2805.48	0.368755
2806.81	-0.649652
2808.13	-1.75403
2809.46	-2.3353
2810.79	-2.61419
2812.12	-1.83368
2813.44	-1.24059
2814.77	-0.523167
2816.09	-0.221478
2817.42	0.439525
2818.75	1.84018
2820.07	3.7953
2821.4	5.38068
2822.72	7.0616
2824.05	9.71578
2825.37	12.2339
2826.7	14.2691
2828.02	16.3955
2829.35	19.1692
2830.67	21.053
2831.99	23.472
2833.31	26.705
2834.64	29.7682
2835.96	32.8728
2837.28	35.7633
2838.61	38.7886
2839.93	42.4856
2841.25	45.7657
2842.57	50.2964
2843.89	54.1988
2845.21	58.5569
2846.53	62.6512
2847.85	67.1243
2849.17	71.706
2850.49	76.3956
2851.81	80.8041
2853.13	85.3096
2854.45	90.3982
2855.77	94.3171
2857.09	99.5623
2858.41	103.859
2859.73	107.916
2861.05	112.261
2862.36	116.315
2863.68	119.89
2865	123.514
2866.32	127.612
2867.64	130.788
2868.95	133.142
2870.27	134.934
2871.59	137.766
2872.9	140.753
2874.22	143.353
2875.53	146.614
2876.85	149.909
2878.16	152.724
2879.48	155.184
2880.79	157.956
2882.11	160.936
2883.42	163.976
2884.74	166.669
2886.05	169.542
2887.36	172.402
2888.68	174.361
2889.99	177.22
2891.3	178.748
2892.62	180.959
2893.93	184.218
2895.24	186.835
2896.55	189.719
2897.86	193.15
2899.18	196.724
2900.49	200.599
2901.8	204.004
2903.11	208.58
2904.42	213.532
2905.73	218.27
2907.04	223.851
2908.35	230.057
2909.66	234.887
2910.97	241.1
2912.28	246.755
2913.59	252.981
2914.9	259.591
2916.21	265.767
2917.51	271.753
2918.82	276.447
2920.13	281.492
2921.44	285.629
2922.74	290.186
2924.05	292.65
2925.36	295.72
2926.67	298.503
2927.97	299.873
2929.28	300.479
2930.59	300.665
2931.89	300.527
2933.2	298.661
2934.5	297.213
2935.81	296.733
2937.11	294.726
2938.42	291.516
2939.72	287.946
2941.02	284.572
2942.33	280.357
2943.63	274.904
2944.94	269.731
2946.24	264.451
2947.54	259.151
2948.85	253.14
2950.15	247.163
2951.45	241.444
2952.75	234.581
2954.05	227.724
2955.36	221.864
2956.66	215.274
2957.96	209.701
2959.26	203.802
2960.56	197.536
2961.86	192.116
2963.16	186.327
2964.46	181.011
2965.76	176.564
2967.06	171.782
2968.36	167.654
2969.66	163.201
2970.96	159.079
2972.26	155.228
2973.56	150.688
2974.85	146.894
2976.15	144.064
2977.45	140.94
2978.75	137.5
2980.05	133.759
2981.34	129.876
2982.64	125.782
2983.94	121.555
2985.23	118.066
2986.53	113.842
2987.83	109.02
2989.12	103.762
2990.42	98.8331
2991.71	93.4694
2993.01	88.4786
2994.3	83.4852
2995.6	79.1171
2996.89	74.7634
2998.19	70.7164
2999.48	66.8639
3000.77	62.7971
3002.07	57.5171
3003.36	53.0241
3004.65	49.0575
3005.95	45.4136
3007.24	41.6168
3008.53	38.0312
3009.82	34.9219
3011.12	31.5125
3012.41	28.6484
3013.7	25.1346
3014.99	22.0647
3016.28	19.3662
3017.57	16.4849
3018.86	14.4937
3020.15	12.5937
3021.44	10.5453
3022.73	8.5827
3024.02	7.22715
3025.31	6.08768
3026.6	5.13824
3027.89	4.41838
3029.18	3.9218
3030.47	3.34472
3031.76	2.31541
3033.04	1.77708
3034.33	1.94354
3035.62	2.42524
3036.91	2.55196
3038.19	3.34796
3039.48	4.29334
3040.77	4.92822
3042.05	4.92931
3043.34	4.94586
3044.63	5.30694
3045.91	5.51009
3047.2	5.64137
3048.48	5.60925
3049.77	5.43692
3051.05	5.25601
3052.34	5.23123
3053.62	5.56288
3054.91	6.08318
3056.19	6.72738
3057.48	7.4751
3058.76	7.63952
3060.04	8.41994
3061.33	8.77943
3062.61	8.77571
3063.89	8.74576
3065.17	8.7599
3066.46	8.62133
3067.74	8.52356
3069.02	8.56884
3070.3	7.84188
3071.59	7.54291
3072.87	7.04418
3074.15	6.07816
3075.43	5.20482
3076.71	4.88376
3077.99	4.13595
3079.27	3.95856
3080.55	3.6077
3081.83	3.53995
3083.11	3.42392
3084.39	3.24865
3085.67	2.51378
3086.94	2.23705
3088.22	1.90818
3089.5	1.73898
3090.78	1.48188
3092.06	1.68477
3093.34	1.60095
3094.61	1.75527
3095.89	2.32124
3097.17	3.0555
3098.44	4.03641
3099.72	4.12669
3101	4.29652
3102.27	4.42515
3103.55	4.26474
3104.82	4.48498
3106.1	5.06237
3107.38	6.12796
3108.65	6.91825
3109.93	7.43574
3111.2	8.09258
3112.47	8.54197
3113.75	9.42046
3115.02	10.4075
3116.3	11.0515
3117.57	11.6113
3118.84	12.1312
3120.12	12.597
3121.39	12.8974
3122.66	13.3977
3123.93	14.2251
3125.2	15.0566
3126.48	15.2741
3127.75	16.0136
3129.02	16.2491
3130.29	16.787
3131.56	17.028
3132.83	17.1816
3134.1	17.6849
3135.37	18.7602
3136.64	19.0205
3137.91	19.2724
3139.18	19.9062
3140.45	20.2903
3141.72	20.5958
3142.99	20.8263
3144.26	20.9129
3145.53	20.755
3146.8	20.8963
3148.07	21.129
3149.33	23.1088
