#Acq. time (s)=	45
#Accumulations=	2
#Range (cm-¹)=	200...3150
#Windows=	2
#Auto scanning=	Off
#Autofocus=	Off
#Macrospot=	Off
#AutoExposure=	Off
#Spike filter=	Multiple accum.
#Delay time (s)=	0
#Binning=	1
#Readout mode=	Signal
#DeNoise=	Off
#ICS correction=	On
#Dark correction=	Off
#Inst. Process=	Off
#Detector Gain=	Best Dynamic Range
#Detector ADC=	20 kHz       
#Detector temperature (°C)=	-69.85
#Instrument=	LabRAM HR Evol
#Detector=	Synapse
#Objective=	x100
#Grating=	600 gr/mm
#ND Filter=	100%
#Laser (nm)=	532 
#Hole=	100.021
#Range=	Auto
#Laser Pol.=	No
#Raman. Pol.=	No
#Laser Pol. (°)=	-0.0007625
#Raman Pol. (°)=	89.9995
#Collection=	Microscope
#StageXY=	Marzhauser
#StageZ=	Marzhauser
#X (µm)=	-1149.3
#Y (µm)=	1306.7
#Z (µm)=	578
#Full time(mm:ss)=	3:18
#Project=	
#Sample=	
#Site=	
#Title=	Mbcal_20_25_29_2x_45s_532 nm_x100_100%_600 gr_mm
#Remark=	
#Date=	18.07.2022 11:49
#Acquired=	18.07.2022 11:49:56
#Base:Fit=	10.08.2022 10:55:08
#Base:Sub=	10.08.2022 10:55:14
#Filter:Polynom=	16.08.2022 10:07:28
#AxisType[0]=Intens
#AxisUnit[0]=Cnt
#AxisType[1]=Spectr
#AxisUnit[1]=1/cm
200.419	40.9094
202.234	35.6827
204.048	31.5266
205.862	28.0279
207.678	24.78
209.491	22.0925
211.304	20.2864
213.116	18.6998
214.928	18.5705
216.742	16.9014
218.554	16.0827
220.365	13.5676
222.176	13.0952
223.986	11.7509
225.798	11.2515
227.608	10.6372
229.417	9.77063
231.226	9.55886
233.035	8.93278
234.843	8.21107
236.653	7.04481
238.46	7.28776
240.268	8.48061
242.074	9.77596
243.881	9.36026
245.687	9.19042
247.493	8.8458
249.298	9.09611
251.103	8.89526
252.908	9.25018
254.715	9.19894
256.519	9.44065
258.322	10.2881
260.126	10.3068
261.929	11.8924
263.731	11.7515
265.534	11.9987
267.336	12.0037
269.137	11.7991
270.938	12.2621
272.739	12.1763
274.54	11.1905
276.34	10.4527
278.14	10.0654
279.939	8.85937
281.739	7.5773
283.537	7.46961
285.336	7.28147
287.134	7.27289
288.932	7.28359
290.729	7.00099
292.526	7.38949
294.323	7.41908
296.117	8.30222
297.913	8.74529
299.709	8.24492
301.504	8.65429
303.299	8.78424
305.093	9.13634
306.888	7.91442
308.682	8.47366
310.475	7.74852
312.268	8.64476
314.059	9.04388
315.852	9.08227
317.644	9.61424
319.436	10.0992
321.227	10.1873
323.018	11.7633
324.807	12.4702
326.597	13.4539
328.387	14.4998
330.177	15.1867
331.967	14.077
333.753	12.9954
335.542	12.9942
337.331	12.8407
339.119	13.0011
340.906	11.9198
342.691	12.1735
344.478	12.027
346.265	11.9607
348.051	11.0814
349.835	10.4104
351.621	10.0867
353.406	9.34125
355.189	9.62404
356.973	9.63672
358.757	9.98822
360.541	9.16836
362.323	7.85492
364.106	5.78449
365.889	4.75041
367.669	4.43406
369.451	3.81156
371.233	3.91301
373.012	4.0443
374.793	3.72751
376.574	3.08185
378.353	3.0031
380.133	2.62727
381.91	3.60495
383.69	3.89464
385.469	3.41264
387.245	3.39792
389.024	3.38956
390.8	4.13803
392.577	4.59068
394.353	4.85382
396.129	4.46993
397.906	5.01505
399.68	4.58225
401.456	5.58207
403.23	6.32998
405.005	5.80419
406.778	7.45601
408.552	7.92039
410.325	8.40177
412.099	9.16702
413.87	7.6281
415.643	7.44945
417.414	7.18348
419.187	7.20852
420.957	6.90513
422.728	7.67747
424.498	7.66302
426.269	6.88598
428.038	6.06234
429.806	5.60884
431.576	6.07862
433.344	5.56385
435.114	6.00007
436.881	5.33873
438.649	5.81807
440.416	5.27499
442.182	5.16035
443.949	5.64861
445.715	4.65201
447.48	4.32534
449.247	3.36405
451.011	2.87938
452.777	3.67938
454.541	3.98749
456.304	4.26843
458.069	4.64215
459.832	4.33656
461.594	4.93353
463.358	4.099
465.119	5.01145
466.881	5.87655
468.642	6.15799
470.404	7.48746
472.165	7.1933
473.925	7.2146
475.684	7.95512
477.445	8.72124
479.204	10.2178
480.963	10.9638
482.721	11.7707
484.481	11.6194
486.239	12.6968
487.996	12.9702
489.753	13.6553
491.511	14.28
493.268	15.086
495.023	16.7676
496.779	17.0644
498.534	17.9703
500.289	17.821
502.046	18.0602
503.8	19.6509
505.554	20.1757
507.307	20.9775
509.06	22.1875
510.813	22.6502
512.566	21.9828
514.32	22.0107
516.072	22.9002
517.823	24.0864
519.574	24.0711
521.325	23.895
523.076	24.582
524.826	24.0088
526.576	23.8353
528.325	23.937
530.074	25.1657
531.823	25.6693
533.572	25.1426
535.32	25.002
537.068	25.1167
538.815	25.3728
540.562	25.8803
542.309	24.9496
544.056	25.2759
545.802	25.4427
547.547	24.9027
549.293	24.6189
551.038	23.9323
552.783	24.1419
554.527	23.378
556.271	22.7602
558.015	22.1559
559.759	21.5855
561.502	20.9548
563.245	21.2364
564.987	20.8221
566.729	19.1475
568.471	16.5775
570.213	14.8569
571.954	13.4108
573.693	12.5597
575.433	10.6471
577.173	10.2186
578.913	9.5535
580.652	8.80643
582.392	8.29101
584.13	7.25741
585.867	7.35167
587.605	6.64867
589.343	6.44959
591.08	6.91781
592.817	5.94422
594.552	6.08586
596.289	5.71908
598.025	4.85839
599.761	4.63013
601.496	5.56132
603.229	5.39016
604.964	5.83942
606.699	5.44994
608.433	5.64572
610.165	6.64477
611.898	7.06464
613.631	7.12139
615.364	8.65783
617.095	8.96267
618.827	9.38115
620.559	10.1541
622.288	10.8617
624.02	11.9019
625.75	12.3458
627.479	14.0023
629.209	14.6233
630.939	15.4806
632.667	16.5844
634.396	17.3784
636.125	18.0934
637.851	18.492
639.58	18.9551
641.305	19.2093
643.033	19.3632
644.76	20.3394
646.485	20.6914
648.212	20.6285
649.936	20.6095
651.662	20.1375
653.388	19.836
655.111	19.7435
656.836	20.3839
658.558	20.8001
660.283	21.171
662.005	21.3329
663.728	23.3136
665.45	23.1996
667.173	24.3538
668.893	25.5869
670.616	25.5818
672.336	27.2374
674.057	27.9506
675.777	28.5497
677.498	29.2748
679.216	30.3548
680.937	31.5084
682.655	31.986
684.375	31.9238
686.092	33.7329
687.809	34.4994
689.528	34.7306
691.244	36.2044
692.962	36.6433
694.678	37.5296
696.393	39.1034
698.111	39.7961
699.825	40.3993
701.54	42.0671
703.256	41.8688
704.97	42.8249
706.685	42.904
708.398	43.9483
710.111	44.6489
711.826	45.476
713.538	46.3058
715.25	47.1303
716.961	48.5011
718.675	49.1811
720.386	49.3134
722.096	49.8683
723.808	49.7249
725.518	49.4855
727.228	48.9691
728.937	49.0237
730.648	49.969
732.357	50.4853
734.065	50.8146
735.773	50.5942
737.483	51.4261
739.19	50.7816
740.897	51.0913
742.604	51.8611
744.31	51.8708
746.018	52.3414
747.724	53.5977
749.429	55.2263
751.134	55.6157
752.839	57.603
754.544	59.2392
756.248	59.7785
757.953	61.5937
759.657	61.8374
761.36	63.0644
763.063	64.2554
764.765	66.0446
766.468	66.8376
768.169	67.695
769.871	68.2827
771.572	70.1256
773.273	69.6243
774.976	71.5637
776.676	72.3877
778.376	73.4152
780.075	75.7338
781.775	76.5581
783.474	77.6315
785.172	78.2321
786.871	78.9646
788.569	80.6613
790.266	82.0149
791.964	83.3568
793.661	84.7239
795.358	85.6822
797.054	86.5054
798.75	87.791
800.446	90.1581
802.141	90.102
803.834	90.3881
805.529	90.2563
807.224	90.6282
808.918	90.2843
810.612	90.1993
812.305	90.3248
813.998	90.9899
815.691	91.535
817.384	91.2303
819.076	89.6684
820.766	89.1128
822.458	89.6407
824.149	88.3293
825.84	88.2523
827.531	88.4922
829.221	88.4263
830.909	88.9242
832.599	89.7272
834.288	88.8462
835.977	87.8609
837.666	87.7812
839.353	86.6657
841.041	84.9398
842.729	84.4239
844.416	84.0904
846.103	83.0149
847.788	82.0403
849.475	80.4669
851.161	79.3431
852.845	77.5012
854.53	75.7551
856.216	75.953
857.901	75.9047
859.583	76.2408
861.268	74.7513
862.952	74.4568
864.633	74.2549
866.317	72.8047
868	72.304
869.681	71.412
871.363	71.4497
873.045	72.1328
874.725	70.6727
876.406	70.1582
878.088	69.1233
879.767	68.9626
881.447	68.2379
883.125	68.3159
884.805	68.0052
886.483	66.2599
888.162	65.8224
889.841	65.0839
891.518	65.1402
893.196	64.1276
894.872	63.8914
896.55	63.1995
898.225	63.7025
899.902	63.3403
901.577	62.6581
903.254	62.5126
904.928	62.3552
906.604	62.1351
908.277	61.5403
909.952	62.5517
911.625	63.2473
913.3	62.9534
914.972	62.4255
916.646	62.5862
918.318	62.1205
919.991	61.9206
921.662	63.041
923.333	62.6544
925.005	62.908
926.675	63.6297
928.347	62.9603
930.017	61.5659
931.686	61.8036
933.357	60.4868
935.025	59.733
936.693	58.8219
938.363	59.0675
940.031	59.9325
941.698	58.8093
943.367	58.4326
945.034	57.7718
946.7	57.9104
948.368	58.1402
950.034	56.9638
951.699	55.5717
953.367	55.5961
955.031	55.3609
956.696	54.698
958.36	52.6736
960.026	51.1452
961.689	50.7331
963.353	50.9347
965.016	51.3951
966.68	52.2144
968.343	52.57
970.005	52.3804
971.666	53.1343
973.328	53.9629
974.991	54.5527
976.652	54.1225
978.312	54.5539
979.972	54.276
981.632	54.7267
983.292	55.0883
984.953	54.072
986.612	53.2621
988.27	52.6425
989.929	53.3448
991.587	53.7656
993.244	53.8404
994.902	53.0698
996.559	52.4592
998.216	52.3549
999.872	51.9592
1001.53	51.4706
1003.19	51.789
1004.84	52.6339
1006.5	52.3513
1008.15	52.2214
1009.81	51.5634
1011.46	50.6432
1013.11	50.5633
1014.77	50.8719
1016.42	50.5271
1018.07	51.1873
1019.73	51.2202
1021.38	50.6328
1023.03	50.7066
1024.68	50.2058
1026.34	50.1046
1027.99	48.405
1029.64	47.3479
1031.29	46.6609
1032.94	45.1335
1034.59	45.3086
1036.24	46.0477
1037.89	45.3221
1039.53	44.6356
1041.18	43.5989
1042.83	42.8152
1044.48	43.5324
1046.13	44.0766
1047.77	43.303
1049.42	43.069
1051.07	41.7687
1052.71	41.7879
1054.36	41.2771
1056	41.1396
1057.65	40.0427
1059.3	40.2004
1060.94	39.7134
1062.59	39.0162
1064.23	38.4149
1065.87	38.3889
1067.52	37.7747
1069.16	37.2904
1070.8	37.3382
1072.44	37.3473
1074.09	36.5781
1075.73	36.6461
1077.37	36.7369
1079.01	37.0926
1080.65	37.5382
1082.29	38.2486
1083.93	38.903
1085.57	40.357
1087.21	40.9684
1088.85	41.5607
1090.49	42.0691
1092.13	42.5278
1093.77	42.732
1095.41	42.7774
1097.04	43.2727
1098.68	42.5465
1100.32	42.2405
1101.95	41.2542
1103.59	41.0763
1105.23	41.6926
1106.86	41.2117
1108.5	40.961
1110.13	40.4723
1111.77	39.9624
1113.4	40.3208
1115.04	38.8764
1116.67	38.1461
1118.31	36.6443
1119.94	35.1319
1121.57	33.9483
1123.2	32.5517
1124.84	32.0874
1126.47	32.0932
1128.1	30.7002
1129.73	29.5859
1131.36	29.1696
1132.99	27.6695
1134.62	28.0284
1136.25	27.7315
1137.88	27.6283
1139.51	27.4797
1141.14	27.1317
1142.77	25.3551
1144.4	24.3377
1146.03	23.6173
1147.66	23.5118
1149.28	22.2434
1150.91	20.5117
1152.54	19.2442
1154.16	17.6825
1155.79	17.0589
1157.42	16.4788
1159.04	15.4011
1160.67	14.834
1162.29	13.4563
1163.92	12.5112
1165.54	11.7912
1167.17	11.8423
1168.79	11.017
1170.41	10.8497
1172.04	10.0696
1173.66	9.97009
1175.28	9.97321
1176.9	9.95156
1178.53	9.93598
1180.15	9.56652
1181.77	9.82792
1183.39	10.0548
1185.01	10.1355
1186.63	10.4379
1188.25	10.6927
1189.87	10.8933
1191.49	10.7046
1193.11	11.0539
1194.73	12.0471
1196.35	12.408
1197.96	13.6867
1199.58	14.9503
1201.2	17.187
1202.82	18.82
1204.43	20.0678
1206.05	21.8618
1207.66	22.571
1209.28	24.3678
1210.9	26.3364
1212.51	28.6617
1214.13	31.0109
1215.74	34.069
1217.36	36.4526
1218.97	38.2067
1220.58	40.2151
1222.2	42.3476
1223.81	43.4781
1225.42	44.0155
1227.04	45.9411
1228.65	47.7118
1230.26	48.0358
1231.87	48.4661
1233.48	49.0167
1235.1	50.7472
1236.71	53.094
1238.32	54.7134
1239.93	55.0217
1241.53	55.437
1243.14	56.8254
1244.75	58.8341
1246.36	60.313
1247.97	61.1675
1249.58	61.9756
1251.19	62.7551
1252.8	63.9058
1254.4	65.1247
1256.01	66.1643
1257.62	66.9275
1259.22	67.6675
1260.83	68.6541
1262.43	68.9044
1264.04	69.4032
1265.64	69.6817
1267.25	70.5919
1268.85	71.3287
1270.46	71.9048
1272.06	72.0169
1273.66	73.0215
1275.27	73.3978
1276.87	74.2629
1278.48	75.0528
1280.08	75.4893
1281.68	77.0529
1283.28	77.9797
1284.88	78.194
1286.48	78.9933
1288.08	80.4559
1289.68	82.2579
1291.28	83.2201
1292.88	85.1242
1294.48	86.1922
1296.08	86.4089
1297.68	87.0686
1299.28	88.7404
1300.88	89.3166
1302.48	89.9022
1304.07	88.9473
1305.67	89.3077
1307.27	90.5269
1308.87	90.6946
1310.46	90.5206
1312.06	91.0488
1313.65	92.2704
1315.25	92.6239
1316.85	92.4749
1318.44	92.4416
1320.03	91.3533
1321.63	91.634
1323.22	91.7554
1324.82	90.6194
1326.41	89.2326
1328	87.8445
1329.6	86.562
1331.19	85.3469
1332.78	84.7125
1334.37	83.0574
1335.96	82.2034
1337.56	80.0268
1339.15	77.5213
1340.74	75.5053
1342.33	74.5443
1343.92	72.8485
1345.51	71.0424
1347.1	68.2916
1348.69	66.0456
1350.28	64.2185
1351.86	62.7514
1353.45	61.3118
1355.04	59.8719
1356.63	59.1034
1358.21	57.787
1359.8	56.6098
1361.39	56.7878
1362.97	55.7159
1364.56	54.7481
1366.15	54.7516
1367.73	55.4129
1369.32	54.6405
1370.9	54.0186
1372.49	54.4085
1374.07	54.0946
1375.65	53.2697
1377.24	54.0059
1378.82	53.9954
1380.41	52.8977
1381.99	52.2046
1383.57	52.005
1385.15	52.8661
1386.73	53.8537
1388.32	53.8122
1389.9	54.1814
1391.48	54.3657
1393.06	54.2586
1394.64	52.9857
1396.22	52.9566
1397.8	53.6179
1399.38	53.3614
1400.96	53.3784
1402.54	53.1668
1404.11	53.3488
1405.69	53.3537
1407.27	53.8514
1408.85	54.6621
1410.43	55.8736
1412	57.8786
1413.58	59.0527
1415.16	60.8853
1416.73	62.6329
1418.31	64.7794
1419.88	66.942
1421.46	69.8277
1423.03	71.3821
1424.61	74.5956
1426.18	77.5017
1427.76	80.9946
1429.33	84.9701
1430.9	88.1636
1432.48	91.6755
1434.05	96.0075
1435.62	99.0586
1437.2	101.237
1438.77	103.264
1440.34	106.431
1441.91	106.991
1443.48	109.17
1445.05	110.63
1446.62	111.879
1448.19	111.461
1449.76	111.761
1451.33	111.629
1452.9	110.337
1454.47	108.783
1456.04	107.228
1457.61	105.359
1459.17	102.716
1460.74	100.756
1462.31	98.2787
1463.88	95.4763
1465.44	92.0073
1467.01	88.1634
1468.58	84.3181
1470.14	80.0983
1471.71	76.65
1473.27	73.1414
1474.84	70.3095
1476.4	66.9975
1477.97	62.2469
1479.53	58.4929
1481.1	54.4034
1482.66	51.4684
1484.22	48.3722
1485.78	46.0983
1487.35	43.6916
1488.91	41.3842
1490.47	38.9279
1492.03	37.1979
1493.59	36.472
1495.16	35.0289
1496.72	34.1587
1498.28	32.0081
1499.84	31.3837
1501.4	30.3153
1502.96	29.3916
1504.52	28.6303
1506.08	27.8128
1507.64	27.4226
1509.19	26.7981
1510.75	26.6719
1512.31	25.8047
1513.87	24.1977
1515.42	22.4155
1516.98	22.7097
1518.54	23.4696
1520.1	22.3595
1521.65	23.5434
1523.21	23.6313
1524.76	23.1681
1526.32	22.6566
1527.87	22.8487
1529.43	22.4062
1530.98	22.3221
1532.54	22.5382
1534.09	22.1386
1535.64	22.2635
1537.2	22.2317
1538.75	22.5152
1540.3	22.4888
1541.85	23.1995
1543.41	24.404
1544.96	25.3899
1546.51	25.8176
1548.06	27.2514
1549.61	27.6883
1551.16	28.3771
1552.71	29.1392
1554.26	29.4001
1555.81	29.3805
1557.36	30.1894
1558.91	30.0287
1560.46	30.4515
1562.01	30.0291
1563.56	31.032
1565.1	31.4503
1566.65	32.7047
1568.2	33.8802
1569.75	35.3464
1571.29	36.7029
1572.84	36.5029
1574.38	37.2645
1575.93	37.8244
1577.48	38.6261
1579.02	39.6879
1580.57	40.7313
1582.11	42.2714
1583.65	42.921
1585.2	43.6155
1586.74	45.3975
1588.29	45.2775
1589.83	46.0744
1591.37	46.8039
1592.92	47.9233
1594.46	49.582
1596	50.7764
1597.54	50.5938
1599.08	51.3128
1600.62	50.3611
1602.16	50.3301
1603.7	50.0074
1605.24	50.5669
1606.78	50.7846
1608.32	50.561
1609.86	50.1958
1611.4	50.1861
1612.94	50.4635
1614.48	50.5665
1616.02	50.5814
1617.56	50.9625
1619.09	51.4795
1620.63	51.9411
1622.17	52.5347
1623.71	53.3224
1625.24	53.1
1626.78	53.4839
1628.31	55.5355
1629.85	56.2598
1631.39	57.2955
1632.92	57.2804
1634.46	58.5303
1635.99	59.0506
1637.52	61.288
1639.06	63.1481
1640.59	67.0735
1642.12	69.3868
1643.66	72.0789
1645.19	73.8936
1646.72	75.9374
1648.25	78.4155
1649.79	79.8538
1651.32	82.0366
1652.85	83.2538
1654.38	84.6432
1655.91	86.1816
1657.44	87.3035
1658.97	88.4448
1660.5	88.8994
1662.03	88.9717
1663.56	89.5038
1665.09	88.0686
1666.62	88.3047
1668.15	87.3702
1669.67	85.3638
1671.2	83.1351
1672.73	80.5415
1674.26	76.4384
1675.79	74.0693
1677.31	71.3666
1678.84	69.2682
1680.36	65.2246
1681.89	62.1907
1683.42	57.6987
1684.94	53.7138
1686.47	50.5634
1687.99	47.7908
1689.51	43.3043
1691.04	39.8204
1692.56	37.0369
1694.08	33.1223
1695.61	30.7811
1697.13	28.2775
1698.65	25.3051
1700.18	22.8045
1701.7	20.0847
1703.22	18.538
1704.74	16.4378
1706.26	13.7291
1707.78	11.7051
1709.3	9.42244
1710.82	8.39902
1712.35	7.79439
1713.86	7.60676
1715.39	6.38351
1716.9	6.61553
1718.42	5.30993
1719.94	4.93739
1721.46	3.81039
1722.98	3.52264
1724.5	3.15619
1726.01	2.73399
1727.53	2.01673
1729.05	2.07023
1730.56	2.98618
1732.08	2.53618
1733.6	2.55712
1735.11	2.40193
1736.63	1.74486
1738.14	1.75963
1739.66	2.02361
1741.17	1.37124
1742.69	1.60606
1744.2	1.17958
1745.71	0.601902
1747.23	0.78975
1748.74	0.676138
1750.25	0.737876
1751.77	1.20464
1753.28	1.09143
1754.79	0.697478
1756.3	0.0771745
1757.81	0.304424
1759.33	0.229011
1760.84	0.497269
1762.35	0.58279
1763.86	0.454091
1765.37	-0.24497
1766.88	0.25911
1768.39	0.13325
1769.9	-0.247449
1771.41	0.843619
1772.91	0.669281
1774.42	0.221263
1775.93	1.07429
1777.44	0.700811
1778.95	0.932405
1780.45	1.19777
1781.96	1.47595
1783.47	1.91201
1784.97	2.23162
1786.48	2.5496
1787.99	2.97114
1789.49	2.53294
1791	2.51928
1792.5	3.10848
1794.01	3.07304
1795.51	3.3454
1797.01	2.80736
1798.52	2.95608
1800.02	2.78552
1801.52	2.70987
1803.03	2.4437
1804.53	2.55503
1806.03	2.74349
1807.54	2.24419
1809.04	2.39058
1810.54	1.82063
1812.04	1.48301
1813.54	2.05437
1815.04	2.59005
1816.54	2.79096
1818.04	3.05735
1819.54	3.25443
1821.04	3.08466
1822.54	3.58609
1824.04	3.74246
1825.54	3.31819
1827.04	3.80871
1828.54	4.43864
1830.03	4.3122
1831.53	4.17244
1833.03	3.86942
1834.53	3.7223
1836.02	3.70291
1837.52	3.72543
1839.02	3.7638
1840.51	3.68427
1842.01	4.49471
1843.5	4.72274
1845	4.96946
1846.49	4.83708
1847.99	4.32478
1849.48	4.06456
1850.98	3.75111
1852.47	3.45186
1853.96	3.6225
1855.46	3.30461
1856.95	3.17361
1858.44	2.84647
1859.94	3.00435
1861.43	2.38922
1862.92	2.4606
1864.41	2.15622
1865.9	1.98711
1867.39	1.75948
1868.88	1.94348
1870.37	1.61369
1871.86	0.847846
1873.35	0.973364
1874.84	0.467343
1876.33	0.521061
1877.82	0.487841
1879.31	0.383413
1880.8	0.486158
1882.29	0.012753
1882.58	0.0348316
1884.08	-0.16332
1885.57	0.184062
1887.06	1.43013
1888.56	1.32633
1890.05	1.2205
1891.54	0.940846
1893.04	0.880859
1894.53	1.1404
1896.02	1.68595
1897.51	1.56488
1899	1.22849
1900.5	1.88171
1901.99	1.7835
1903.48	1.35916
1904.97	1.62209
1906.46	1.62123
1907.95	2.23718
1909.44	2.24043
1910.93	2.40416
1912.42	3.14136
1913.91	3.32504
1915.4	3.54025
1916.88	3.26329
1918.37	2.99268
1919.86	3.44736
1921.35	3.8137
1922.84	4.24586
1924.32	4.32428
1925.81	4.81256
1927.3	4.69838
1928.78	4.06193
1930.27	3.91171
1931.75	4.11314
1933.24	4.00603
1934.72	3.82888
1936.21	4.56108
1937.69	3.70965
1939.18	4.19427
1940.66	4.47297
1942.15	4.86024
1943.63	4.55614
1945.11	4.60372
1946.6	5.33201
1948.08	4.87105
1949.56	5.00009
1951.04	5.17601
1952.53	4.88395
1954.01	4.57876
1955.49	4.25218
1956.97	3.90983
1958.45	3.7087
1959.93	2.91134
1961.41	3.03094
1962.89	1.89394
1964.37	1.89573
1965.85	1.46507
1967.33	1.71149
1968.81	1.73107
1970.29	1.32622
1971.77	0.850299
1973.24	0.391447
1974.72	0.205001
1976.2	0.262556
1977.68	-0.0923631
1979.15	-0.269913
1980.63	0.337254
1982.11	0.835739
1983.58	1.0017
1985.06	1.59907
1986.53	2.45445
1988.01	2.74941
1989.48	3.05955
1990.96	3.46105
1992.43	4.04657
1993.91	4.90112
1995.38	4.29401
1996.86	3.73527
1998.33	3.6998
1999.8	4.03855
2001.27	3.98395
2002.75	3.796
2004.22	3.90595
2005.69	4.17148
2007.16	4.43873
2008.64	4.93552
2010.11	4.90917
2011.58	4.72959
2013.05	5.93608
2014.52	5.84132
2015.99	6.09861
2017.46	5.65433
2018.93	5.56854
2020.4	5.45559
2021.87	5.07592
2023.34	4.88562
2024.8	4.47333
2026.27	4.24878
2027.74	4.53613
2029.21	4.3555
2030.68	4.34695
2032.14	3.80785
2033.61	3.1984
2035.08	3.29134
2036.54	2.94356
2038.01	3.38146
2039.48	3.07423
2040.94	3.50435
2042.41	3.5898
2043.87	2.99641
2045.34	2.92256
2046.8	2.65311
2048.27	2.46667
2049.73	2.99749
2051.19	2.90466
2052.66	3.4676
2054.12	4.92736
2055.58	5.07734
2057.05	5.83015
2058.51	6.54751
2059.97	7.59902
2061.43	7.15219
2062.9	6.59308
2064.36	6.88695
2065.82	6.9637
2067.28	6.61847
2068.74	6.09396
2070.2	6.47938
2071.66	6.6079
2073.12	6.94766
2074.58	6.56556
2076.04	6.65623
2077.5	6.89873
2078.95	7.26218
2080.41	7.84466
2081.87	7.74994
2083.33	8.19766
2084.79	8.49987
2086.24	8.60726
2087.7	8.12754
2089.16	8.19759
2090.61	8.24389
2092.07	9.15018
2093.53	9.68528
2094.98	10.1089
2096.44	10.3212
2097.89	10.6139
2099.35	11.3329
2100.8	12.1307
2102.26	11.7499
2103.71	12.5955
2105.16	12.4564
2106.62	12.8854
2108.07	13.9127
2109.53	14.8619
2110.98	15.9906
2112.43	16.4435
2113.88	17.184
2115.33	17.6347
2116.79	17.5234
2118.24	18.341
2119.69	19.1005
2121.14	20.0298
2122.59	21.2495
2124.04	22.3353
2125.49	23.9233
2126.94	25.4143
2128.39	26.5256
2129.84	27.8446
2131.29	28.9623
2132.74	29.8617
2134.19	30.0203
2135.63	31.172
2137.08	33.0354
2138.53	33.7967
2139.98	34.4726
2141.43	35.3689
2142.87	36.4147
2144.32	37.2586
2145.77	39.2138
2147.21	40.2154
2148.66	41.3986
2150.1	42.2707
2151.55	43.6028
2152.99	45.4263
2154.44	46.7796
2155.88	49.037
2157.33	50.124
2158.77	51.0754
2160.21	52.2574
2161.66	53.7767
2163.1	54.8022
2164.55	55.8404
2165.99	57.2957
2167.43	58.2486
2168.87	59.0141
2170.31	59.9369
2171.76	61.7578
2173.2	62.9731
2174.64	62.7227
2176.08	63.6061
2177.52	64.0361
2178.96	64.0982
2180.4	64.3285
2181.84	64.3896
2183.28	63.4757
2184.72	63.2421
2186.16	62.4779
2187.6	61.8091
2189.04	61.3495
2190.47	60.7771
2191.91	59.8647
2193.35	58.9129
2194.79	58.0177
2196.23	56.6764
2197.66	55.3968
2199.1	53.6443
2200.54	52.0553
2201.97	49.88
2203.41	47.8788
2204.84	45.6706
2206.28	43.7269
2207.71	41.7645
2209.15	39.9766
2210.58	36.8427
2212.02	34.8304
2213.45	33.3742
2214.89	31.8831
2216.32	30.281
2217.75	29.005
2219.19	27.1542
2220.62	25.3503
2222.05	24.1547
2223.48	22.9511
2224.92	21.9508
2226.35	20.8413
2227.78	20.2641
2229.21	18.3903
2230.64	17.4131
2232.07	17.0893
2233.5	16.4913
2234.93	15.8084
2236.36	15.3467
2237.79	15.2897
2239.22	14.1467
2240.65	14.418
2242.08	14.7603
2243.51	15.1666
2244.94	14.3917
2246.37	14.3715
2247.79	14.8009
2249.22	14.6742
2250.65	13.7656
2252.08	13.7892
2253.5	13.5581
2254.93	13.3248
2256.36	13.5972
2257.78	13.3691
2259.21	13.4124
2260.63	13.3925
2262.06	13.4732
2263.48	13.4403
2264.91	13.5339
2266.33	13.1983
2267.76	12.8315
2269.18	12.8594
2270.6	12.6255
2272.03	12.4157
2273.45	12.5513
2274.87	12.3068
2276.3	11.8323
2277.72	11.1025
2279.14	10.311
2280.56	9.78591
2281.98	9.53733
2283.41	10.1689
2284.83	9.41836
2286.25	9.63835
2287.67	8.94965
2289.09	8.87822
2290.51	8.10892
2291.93	7.07091
2293.35	6.49253
2294.77	6.20206
2296.19	6.73688
2297.61	7.0607
2299.02	7.13527
2300.44	6.22278
2301.86	5.83279
2303.28	5.68926
2304.7	5.31473
2306.11	5.32641
2307.53	5.10978
2308.95	5.53597
2310.36	6.05164
2311.78	6.0552
2313.2	6.47126
2314.61	6.35753
2316.03	5.79771
2317.44	6.18606
2318.86	5.72553
2320.27	5.48265
2321.69	5.1082
2323.1	5.22248
2324.51	4.89814
2325.93	5.26094
2327.34	5.16409
2328.76	5.44062
2330.17	5.86002
2331.58	6.25356
2332.99	6.43972
2334.41	6.03626
2335.82	6.13583
2337.23	6.10195
2338.64	6.36905
2340.05	6.28183
2341.46	5.76692
2342.87	5.29268
2344.28	4.43734
2345.69	3.36842
2347.1	3.05316
2348.51	2.60624
2349.92	2.48727
2351.33	2.2874
2352.74	2.59403
2354.15	1.9779
2355.56	1.22209
2356.97	1.35021
2358.37	0.680794
2359.78	0.452689
2361.19	-0.337747
2362.6	-0.513393
2364	0.0779011
2365.41	0.96005
2366.82	1.32231
2368.22	1.39989
2369.63	1.17908
2371.03	0.591669
2372.44	0.954397
2373.84	1.2552
2375.25	1.91824
2376.65	1.83318
2378.06	2.24413
2379.46	2.82577
2380.86	3.25332
2382.27	2.82099
2383.67	3.75689
2385.07	3.50361
2386.48	3.24516
2387.88	3.71305
2389.28	3.81846
2390.69	4.02209
2392.09	4.30685
2393.49	5.11406
2394.89	5.75207
2396.29	5.90268
2397.69	6.3019
2399.09	6.7656
2400.49	7.16918
2401.89	7.04327
2403.29	6.82557
2404.69	6.86256
2406.09	6.71909
2407.49	6.53534
2408.89	6.25067
2410.29	5.76499
2411.69	5.63336
2413.08	5.36838
2414.48	4.96745
2415.88	5.40071
2417.28	5.34474
2418.67	4.94576
2420.07	4.95652
2421.47	4.49116
2422.86	4.88675
2424.26	4.89269
2425.65	5.04712
2427.05	4.76465
2428.45	4.95324
2429.84	4.71811
2431.23	5.02038
2432.63	5.17347
2434.02	5.26174
2435.42	5.29517
2436.81	4.64782
2438.2	3.98836
2439.6	3.3029
2440.99	2.97693
2442.38	3.0826
2443.78	2.5381
2445.17	2.7565
2446.56	2.48573
2447.95	2.56394
2449.34	2.36926
2450.73	2.05228
2452.13	1.94279
2453.52	2.22472
2454.91	1.89449
2456.3	2.04273
2457.69	2.8989
2459.08	3.15955
2460.47	2.69855
2461.85	3.02504
2463.24	3.08922
2464.63	3.68226
2466.02	3.4211
2467.41	3.63019
2468.8	3.36816
2470.19	3.08948
2471.57	3.53674
2472.96	3.30765
2474.35	3.10763
2475.73	3.27267
2477.12	4.18523
2478.51	4.4144
2479.89	5.00927
2481.28	5.57564
2482.66	5.68675
2484.05	6.32367
2485.43	7.12078
2486.82	6.41986
2488.2	7.27306
2489.59	7.38845
2490.97	8.18509
2492.35	8.68576
2493.74	8.52941
2495.12	7.57759
2496.5	7.3373
2497.89	7.54669
2499.27	7.17434
2500.65	7.05035
2502.03	6.6388
2503.42	5.9022
2504.8	5.80704
2506.18	5.33094
2507.56	5.08578
2508.94	5.37363
2510.32	6.00465
2511.7	5.96489
2513.08	6.07202
2514.46	5.98361
2515.84	5.84442
2517.22	5.45834
2518.6	5.76105
2519.98	6.30037
2521.36	6.7799
2522.73	6.46077
2524.11	6.6923
2525.49	6.82867
2526.87	6.56141
2528.25	6.50979
2529.62	6.22435
2531	6.91316
2532.38	7.30197
2533.75	8.01855
2535.13	7.40782
2536.5	7.07906
2537.88	7.03104
2539.25	7.19437
2540.63	7.80206
2542.01	7.64805
2543.38	8.05761
2544.75	8.47184
2546.13	8.95973
2547.5	8.61571
2548.88	9.38385
2550.25	9.13982
2551.62	9.19057
2553	9.36235
2554.37	9.20528
2555.74	8.97058
2557.11	9.84575
2558.49	9.33553
2559.86	9.26795
2561.23	8.34838
2562.6	7.89229
2563.97	7.85276
2565.34	8.11895
2566.71	8.06517
2568.08	8.18678
2569.45	8.63762
2570.82	9.12407
2572.19	8.94306
2573.56	9.5089
2574.93	9.12507
2576.3	9.13344
2577.67	9.33217
2579.03	9.10129
2580.4	8.50877
2581.77	7.88349
2583.14	7.11958
2584.5	7.57086
2585.87	7.7597
2587.24	7.95905
2588.6	8.08125
2589.97	7.77985
2591.34	7.23794
2592.7	7.43082
2594.07	6.6921
2595.43	6.46048
2596.8	6.4583
2598.16	5.87961
2599.53	5.85131
2600.89	5.79632
2602.26	5.80651
2603.62	5.60066
2604.98	5.5072
2606.35	5.97039
2607.71	6.47155
2609.07	6.55698
2610.44	6.34712
2611.8	6.5993
2613.16	6.34388
2614.52	6.07242
2615.88	6.19072
2617.25	6.53575
2618.61	6.23289
2619.97	7.02513
2621.33	7.05486
2622.69	7.05585
2624.05	7.27095
2625.41	7.07535
2626.77	7.19983
2628.13	7.18298
2629.49	7.58152
2630.85	7.67519
2632.21	8.37265
2633.56	8.7515
2634.92	9.37761
2636.28	9.8292
2637.64	9.63676
2639	9.67798
2640.35	8.8527
2641.71	8.72543
2643.07	8.53351
2644.42	8.50247
2645.78	8.22603
2647.14	8.01394
2648.49	7.4934
2649.85	6.89053
2651.2	6.68594
2652.56	7.01772
2653.91	6.46443
2655.27	6.0665
2656.62	6.09542
2657.98	5.77036
2659.33	5.19749
2660.68	5.00302
2662.04	4.08015
2663.39	4.26495
2664.74	4.35785
2666.1	4.00835
2667.45	4.48723
2668.8	5.11113
2670.15	5.14567
2671.5	4.80548
2672.86	4.74622
2674.21	4.7323
2675.56	5.09116
2676.91	4.54576
2678.26	4.49601
2679.61	4.6164
2680.96	4.33267
2682.31	4.78465
2683.66	5.61208
2685.01	5.79826
2686.36	6.6016
2687.71	6.63644
2689.06	6.77985
2690.4	7.14526
2691.75	7.49138
2693.1	7.94248
2694.45	8.9192
2695.8	9.22985
2697.14	9.67101
2698.49	9.98452
2699.84	10.6559
2701.18	10.9219
2702.53	10.9654
2703.88	11.4594
2705.22	11.5911
2706.57	12.3997
2707.91	12.5752
2709.26	13.0715
2710.6	13.265
2711.95	13.4233
2713.29	13.6555
2714.64	13.6421
2715.98	13.5029
2717.32	14.009
2718.67	14.1814
2720.01	14.8245
2721.35	14.8317
2722.7	14.7346
2724.04	15.0207
2725.38	14.2165
2726.72	13.4501
2728.06	12.9265
2729.4	12.3505
2730.75	12.8943
2732.09	12.5858
2733.43	12.4852
2734.77	12.5905
2736.11	12.1229
2737.45	11.4367
2738.79	11.207
2740.13	10.9782
2741.47	10.4534
2742.81	10.4891
2744.15	9.8099
2745.48	9.41342
2746.82	9.41874
2748.16	8.94872
2749.5	8.51805
2750.84	7.82578
2752.17	6.67131
2753.51	6.4846
2754.85	5.48726
2756.19	4.96204
2757.52	4.24482
2758.86	3.71044
2760.19	3.20923
2761.53	2.92439
2762.86	2.29922
2764.2	2.15821
2765.54	1.83638
2766.87	1.87887
2768.2	1.59906
2769.54	1.56787
2770.87	1.65909
2772.21	1.9639
2773.54	2.30441
2774.88	1.94933
2776.21	1.95835
2777.54	2.00911
2778.87	1.96354
2780.21	1.46537
2781.54	1.04492
2782.87	1.12909
2784.2	1.48668
2785.53	1.01339
2786.87	1.13512
2788.2	0.670103
2789.53	0.391604
2790.86	0.497554
2792.19	-0.0364093
2793.52	0.260564
2794.85	1.03416
2796.18	1.77597
2797.51	2.00439
2798.84	1.98279
2800.17	2.29944
2801.49	1.95748
2802.82	1.66551
2804.15	2.22024
2805.48	2.20501
2806.81	1.57596
2808.13	1.24119
2809.46	0.926313
2810.79	0.123484
2812.12	-0.688271
2813.44	-0.776654
2814.77	-1.14188
2816.09	-0.90465
2817.42	-0.162209
2818.75	0.27253
2820.07	1.63102
2821.4	2.40262
2822.72	3.71902
2824.05	5.1184
2825.37	6.68926
2826.7	8.55447
2828.02	10.6884
2829.35	13.0658
2830.67	14.9733
2831.99	17.0952
2833.31	19.0446
2834.64	20.8847
2835.96	24.1015
2837.28	27.2699
2838.61	30.5471
2839.93	33.276
2841.25	35.9996
2842.57	39.3996
2843.89	43.3856
2845.21	47.011
2846.53	51.1622
2847.85	55.6607
2849.17	60.5267
2850.49	65.0201
2851.81	69.8517
2853.13	75.0334
2854.45	80.3434
2855.77	85.6086
2857.09	90.7298
2858.41	95.739
2859.73	101.233
2861.05	106.455
2862.36	111.369
2863.68	115.624
2865	120.056
2866.32	124.133
2867.64	127.847
2868.95	131.229
2870.27	134.977
2871.59	137.65
2872.9	140.785
2874.22	143.726
2875.53	146.846
2876.85	150.016
2878.16	152.805
2879.48	155.967
2880.79	158.667
2882.11	161.055
2883.42	163.494
2884.74	165.663
2886.05	168.659
2887.36	171.093
2888.68	174.184
2889.99	176.434
2891.3	178.975
2892.62	181.946
2893.93	184.211
2895.24	186.765
2896.55	189.355
2897.86	192.086
2899.18	195.21
2900.49	198.775
2901.8	203.568
2903.11	207.804
2904.42	212.428
2905.73	217.69
2907.04	222.691
2908.35	228.611
2909.66	233.549
2910.97	238.976
2912.28	245.094
2913.59	250.833
2914.9	257.085
2916.21	263.323
2917.51	269.724
2918.82	275.435
2920.13	280.478
2921.44	285.068
2922.74	289.004
2924.05	292.93
2925.36	296.124
2926.67	298.521
2927.97	299.992
2929.28	301.324
2930.59	302.128
2931.89	301.873
2933.2	301.636
2934.5	300.699
2935.81	299.487
2937.11	297.826
2938.42	295.414
2939.72	291.929
2941.02	287.945
2942.33	283.427
2943.63	278.727
2944.94	274.075
2946.24	269.259
2947.54	264.411
2948.85	259.197
2950.15	253.484
2951.45	248.45
2952.75	242.14
2954.05	236.26
2955.36	229.862
2956.66	223.735
2957.96	217.999
2959.26	211.823
2960.56	206.654
2961.86	200.722
2963.16	194.75
2964.46	190.336
2965.76	185.369
2967.06	180.594
2968.36	175.733
2969.66	170.673
2970.96	166.066
2972.26	161.204
2973.56	156.735
2974.85	152.04
2976.15	148.583
2977.45	144.21
2978.75	139.801
2980.05	135.634
2981.34	131.016
2982.64	126.807
2983.94	121.581
2985.23	116.762
2986.53	112.014
2987.83	107.113
2989.12	102.109
2990.42	97.0551
2991.71	92.4957
2993.01	87.4486
2994.3	83.2989
2995.6	78.1911
2996.89	72.9727
2998.19	68.2206
2999.48	63.4819
3000.77	58.2353
3002.07	54.3881
3003.36	49.436
3004.65	45.2496
3005.95	41.0861
3007.24	37.9843
3008.53	34.938
3009.82	31.7604
3011.12	29.5268
3012.41	26.8154
3013.7	23.8855
3014.99	21.1545
3016.28	19.06
3017.57	16.22
3018.86	14.4088
3020.15	13.0916
3021.44	11.4192
3022.73	10.2007
3024.02	8.83117
3025.31	7.3913
3026.6	5.80749
3027.89	5.25496
3029.18	4.96054
3030.47	3.93698
3031.76	3.00798
3033.04	3.17949
3034.33	3.21846
3035.62	3.35807
3036.91	3.94253
3038.19	4.5328
3039.48	4.53154
3040.77	5.02747
3042.05	5.38332
3043.34	6.13027
3044.63	6.95108
3045.91	7.89963
3047.2	9.01419
3048.48	9.04212
3049.77	9.91077
3051.05	9.95955
3052.34	10.4451
3053.62	10.8933
3054.91	11.7194
3056.19	11.8222
3057.48	11.2917
3058.76	11.1582
3060.04	10.9684
3061.33	10.4377
3062.61	10.8841
3063.89	11.3867
3065.17	11.1341
3066.46	11.4839
3067.74	10.8254
3069.02	10.5801
3070.3	10.3658
3071.59	10.0312
3072.87	9.27993
3074.15	8.80375
3075.43	8.50272
3076.71	7.44556
3077.99	6.4949
3079.27	5.47083
3080.55	4.70963
3081.83	3.92831
3083.11	3.13328
3084.39	2.64673
3085.67	1.68882
3086.94	0.990138
3088.22	0.268991
3089.5	-0.335593
3090.78	-0.728404
3092.06	-0.637196
3093.34	-1.05197
3094.61	-1.44048
3095.89	-1.65725
3097.17	-0.676608
3098.44	-0.215513
3099.72	0.245727
3101	0.91022
3102.27	1.27832
3103.55	1.40947
3104.82	1.7416
3106.1	2.1158
3107.38	3.02529
3108.65	4.28777
3109.93	4.97859
3111.2	5.98211
3112.47	6.24863
3113.75	6.96365
3115.02	7.61283
3116.3	8.58444
3117.57	9.83161
3118.84	10.4984
3120.12	10.8074
3121.39	11.6308
3122.66	12.8669
3123.93	14.1966
3125.2	15.029
3126.48	16.4377
3127.75	16.8911
3129.02	17.2876
3130.29	17.8097
3131.56	18.4128
3132.83	18.7958
3134.1	19.5679
3135.37	19.7338
3136.64	20.601
3137.91	21.4348
3139.18	21.8236
3140.45	21.961
3141.72	22.1273
3142.99	22.1005
3144.26	22.2163
3145.53	22.4009
3146.8	22.5077
3148.07	22.3609
3149.33	22.6098
