#Acq. time (s)=	45
#Accumulations=	2
#Range (cm-¹)=	200...3150
#Windows=	2
#Auto scanning=	Off
#Autofocus=	Off
#Macrospot=	Off
#AutoExposure=	Off
#Spike filter=	Multiple accum.
#Delay time (s)=	0
#Binning=	1
#Readout mode=	Signal
#DeNoise=	Off
#ICS correction=	On
#Dark correction=	Off
#Inst. Process=	Off
#Detector Gain=	Best Dynamic Range
#Detector ADC=	20 kHz       
#Detector temperature (°C)=	-69.85
#Instrument=	LabRAM HR Evol
#Detector=	Synapse
#Objective=	x100
#Grating=	600 gr/mm
#ND Filter=	100%
#Laser (nm)=	532 
#Hole=	100.021
#Range=	Auto
#Laser Pol.=	No
#Raman. Pol.=	No
#Laser Pol. (°)=	-0.0007625
#Raman Pol. (°)=	89.9995
#Collection=	Microscope
#StageXY=	Marzhauser
#StageZ=	Marzhauser
#X (µm)=	-1125.8
#Y (µm)=	1303.8
#Z (µm)=	578.4
#Full time(mm:ss)=	3:18
#Project=	
#Sample=	
#Site=	
#Title=	Mbcal_20_25_37_2x_45s_532 nm_x100_100%_600 gr_mm
#Remark=	
#Date=	18.07.2022 13:00
#Acquired=	18.07.2022 13:00:16
#Base:Fit=	10.08.2022 10:55:08
#Base:Sub=	10.08.2022 10:55:14
#Filter:Polynom=	16.08.2022 10:07:28
#AxisType[0]=Intens
#AxisUnit[0]=Cnt
#AxisType[1]=Spectr
#AxisUnit[1]=1/cm
200.419	11.49
202.234	7.94409
204.048	5.85147
205.862	4.67479
207.678	4.40308
209.491	4.05506
211.304	4.29428
213.116	4.80576
214.928	5.05225
216.742	5.80493
218.554	7.60588
220.365	8.6492
222.176	9.96088
223.986	11.6101
225.798	12.548
227.608	13.186
229.417	13.5893
231.226	14.403
233.035	15.851
234.843	16.3521
236.653	15.9326
238.46	14.1848
240.268	14.3261
242.074	13.5995
243.881	12.2004
245.687	11.7261
247.493	10.1689
249.298	7.53776
251.103	2.05375
252.908	0.292739
254.715	-1.73915
256.519	1.2715
258.322	5.71917
260.126	15.7081
261.929	27.263
263.731	38.8983
265.534	49.6493
267.336	59.648
269.137	69.6261
270.938	79.009
272.739	88.9029
274.54	98.3275
276.34	106.225
278.14	113.208
279.939	119.815
281.739	125.092
283.537	131
285.336	135.28
287.134	140.076
288.932	143.979
290.729	147.519
292.526	151.244
294.323	153.171
296.117	155.163
297.913	156.676
299.709	158.158
301.504	158.339
303.299	157.792
305.093	157.074
306.888	155.46
308.682	152.785
310.475	148.786
312.268	144.827
314.059	140.508
315.852	134.655
317.644	128.292
319.436	121.901
321.227	114.904
323.018	106.451
324.807	97.1469
326.597	88.5604
328.387	79.0235
330.177	70.1303
331.967	60.2465
333.753	50.606
335.542	42.6787
337.331	34.3728
339.119	26.8153
340.906	23.249
342.691	25.2445
344.478	28.9883
346.265	34.9034
348.051	38.1342
349.835	42.1754
351.621	43.6513
353.406	43.3874
355.189	42.0915
356.973	41.4545
358.757	40.7204
360.541	40.97
362.323	40.4123
364.106	39.2127
365.889	37.9654
367.669	36.631
369.451	35.6128
371.233	35.6734
373.012	34.9743
374.793	33.7181
376.574	33.994
378.353	33.5426
380.133	33.0925
381.91	32.7161
383.69	32.8167
385.469	32.9851
387.245	32.4879
389.024	32.7206
390.8	32.2415
392.577	32.3429
394.353	32.5442
396.129	31.3178
397.906	31.4226
399.68	31.8178
401.456	32.8354
403.23	33.4965
405.005	33.0816
406.778	32.5792
408.552	32.6294
410.325	31.1189
412.099	29.9112
413.87	29.373
415.643	28.6687
417.414	26.6945
419.187	25.7241
420.957	24.0606
422.728	23.1211
424.498	22.2701
426.269	21.0511
428.038	20.1771
429.806	20.4827
431.576	19.0512
433.344	18.456
435.114	17.5997
436.881	15.4995
438.649	14.1465
440.416	12.5867
442.182	11.4722
443.949	10.7433
445.715	10.5885
447.48	9.21054
449.247	9.43273
451.011	9.7088
452.777	9.9882
454.541	10.6335
456.304	10.735
458.069	11.2111
459.832	11.4044
461.594	10.0635
463.358	10.7517
465.119	10.6181
466.881	10.6979
468.642	11.156
470.404	12.3562
472.165	14.017
473.925	14.7859
475.684	14.7503
477.445	15.8028
479.204	15.9697
480.963	16.7256
482.721	17.9449
484.481	18.6483
486.239	19.9583
487.996	20.0441
489.753	20.0619
491.511	20.1781
493.268	20.2596
495.023	20.2386
496.779	21.0318
498.534	20.7333
500.289	21.0371
502.046	22.484
503.8	23.5531
505.554	24.2544
507.307	25.385
509.06	25.9595
510.813	27.2275
512.566	28.5672
514.32	29.4299
516.072	30.1546
517.823	30.8019
519.574	30.9803
521.325	31.5952
523.076	30.9547
524.826	30.3813
526.576	30.6454
528.325	30.821
530.074	31.4261
531.823	31.4134
533.572	30.7785
535.32	29.9871
537.068	30.4312
538.815	30.1133
540.562	29.0914
542.309	28.6898
544.056	27.0086
545.802	26.6543
547.547	25.4463
549.293	24.2797
551.038	24.5285
552.783	23.7128
554.527	22.4993
556.271	21.3846
558.015	19.3733
559.759	17.7173
561.502	16.239
563.245	14.0646
564.987	13.7701
566.729	12.587
568.471	11.1361
570.213	10.4181
571.954	8.76873
573.693	6.89529
575.433	5.93402
577.173	4.65932
578.913	4.2275
580.652	3.9933
582.392	3.10939
584.13	2.12089
585.867	1.27393
587.605	0.987158
589.343	2.01479
591.08	1.58345
592.817	1.29531
594.552	1.58478
596.289	0.845169
598.025	1.29476
599.761	1.84159
601.496	1.82093
603.229	2.09312
604.964	2.36657
606.699	1.85878
608.433	1.06624
610.165	1.41739
611.898	2.36425
613.631	3.96219
615.364	4.49034
617.095	4.55519
618.827	4.85363
620.559	5.70572
622.288	6.48552
624.02	6.97549
625.75	7.23598
627.479	7.71979
629.209	8.34009
630.939	7.92409
632.667	8.97118
634.396	8.71486
636.125	9.00692
637.851	9.93596
639.58	9.22293
641.305	9.48065
643.033	9.32235
644.76	9.85102
646.485	10.6914
648.212	10.2023
649.936	9.70535
651.662	10.6369
653.388	10.8397
655.111	10.7626
656.836	10.5549
658.558	10.4106
660.283	10.0741
662.005	10.0181
663.728	9.62379
665.45	10.1513
667.173	10.2162
668.893	10.0325
670.616	9.53648
672.336	9.55746
674.057	10.1912
675.777	10.1715
677.498	9.70389
679.216	9.74069
680.937	9.90876
682.655	11.4473
684.375	12.3429
686.092	13.9356
687.809	16.936
689.528	19.4475
691.244	22.1961
692.962	24.7486
694.678	28.2292
696.393	31.6181
698.111	34.0667
699.825	35.6338
701.54	37.1304
703.256	38.7282
704.97	40.173
706.685	42.1987
708.398	42.5874
710.111	42.7181
711.826	43.7753
713.538	44.7809
715.25	45.3384
716.961	46.1492
718.675	45.9348
720.386	46.7669
722.096	46.7688
723.808	46.6704
725.518	46.2413
727.228	46.5629
728.937	45.3967
730.648	45.6094
732.357	44.4566
734.065	43.0352
735.773	43.0678
737.483	42.493
739.19	41.5211
740.897	40.2886
742.604	39.5383
744.31	38.4056
746.018	37.1324
747.724	36.1337
749.429	35.3727
751.134	33.9088
752.839	33.6542
754.544	33.0337
756.248	31.1279
757.953	30.5579
759.657	30.7175
761.36	30.9878
763.063	31.5976
764.765	32.0272
766.468	33.6779
768.169	36.1172
769.871	37.7695
771.572	40.0875
773.273	41.5397
774.976	43.899
776.676	44.8832
778.376	45.4448
780.075	46.9273
781.775	46.6437
783.474	47.2273
785.172	48.6116
786.871	48.9719
788.569	50.1647
790.266	51.6403
791.964	53.3408
793.661	53.647
795.358	54.5163
797.054	56.247
798.75	57.228
800.446	57.1013
802.141	58.2701
803.834	58.9708
805.529	60.1835
807.224	59.5838
808.918	59.7913
810.612	60.4577
812.305	59.8405
813.998	59.5838
815.691	59.8259
817.384	59.5057
819.076	59.5426
820.766	59.1858
822.458	59.4565
824.149	60.3498
825.84	61.5483
827.531	62.5458
829.221	63.3147
830.909	64.511
832.599	65.3976
834.288	66.8463
835.977	67.2656
837.666	68.2593
839.353	67.7021
841.041	67.6261
842.729	67.6867
844.416	67.7539
846.103	67.6713
847.788	67.5607
849.475	66.4739
851.161	67.6706
852.845	68.0033
854.53	66.994
856.216	66.4622
857.901	67.0144
859.583	67.7759
861.268	65.928
862.952	65.6069
864.633	65.1942
866.317	63.2582
868	63.4424
869.681	63.6064
871.363	61.9668
873.045	62.1095
874.725	60.4965
876.406	59.7136
878.088	58.5604
879.767	57.1577
881.447	55.6978
883.125	54.8643
884.805	52.7254
886.483	52.2853
888.162	49.8276
889.841	46.9222
891.518	45.2621
893.196	43.8532
894.872	42.4358
896.55	40.7167
898.225	39.7197
899.902	38.7372
901.577	37.436
903.254	36.8665
904.928	36.1538
906.604	37.3654
908.277	37.4601
909.952	38.0969
911.625	37.8448
913.3	37.8605
914.972	37.7291
916.646	37.7369
918.318	38.6061
919.991	38.5196
921.662	37.9708
923.333	37.2107
925.005	35.8504
926.675	35.0984
928.347	35.1289
930.017	36.279
931.686	36.3877
933.357	34.9561
935.025	35.5578
936.693	35.3031
938.363	34.8843
940.031	35.7102
941.698	34.0386
943.367	31.7824
945.034	29.8992
946.7	29.0412
948.368	27.9289
950.034	27.2612
951.699	27.335
953.367	26.6954
955.031	25.7458
956.696	24.9194
958.36	23.691
960.026	22.7533
961.689	21.1247
963.353	20.2992
965.016	19.8274
966.68	19.4551
968.343	17.4154
970.005	17.0942
971.666	16.1518
973.328	16.1741
974.991	15.5925
976.652	14.3955
978.312	13.6525
979.972	13.0783
981.632	12.6605
983.292	11.5797
984.953	10.955
986.612	11.6052
988.27	11.1196
989.929	11.4498
991.587	11.2219
993.244	11.3965
994.902	10.9263
996.559	11.196
998.216	11.2295
999.872	11.646
1001.53	11.6936
1003.19	10.742
1004.84	10.2408
1006.5	10.3169
1008.15	10.8305
1009.81	12.6108
1011.46	14.3929
1013.11	15.2723
1014.77	15.1545
1016.42	16.6051
1018.07	18.3153
1019.73	19.8627
1021.38	20.6768
1023.03	20.6385
1024.68	21.1931
1026.34	22.5608
1027.99	24.4715
1029.64	25.6167
1031.29	27.2869
1032.94	27.8468
1034.59	28.5587
1036.24	29.5682
1037.89	29.7024
1039.53	29.9885
1041.18	30.5395
1042.83	31.6487
1044.48	31.6996
1046.13	32.3325
1047.77	30.8522
1049.42	27.9242
1051.07	22.3697
1052.71	12.6071
1054.36	-2.68598
1056	-14.5637
1057.65	-16.6506
1059.3	-5.61083
1060.94	11.3065
1062.59	32.582
1064.23	53.6407
1065.87	73.8427
1067.52	94.3334
1069.16	114.21
1070.8	131.741
1072.44	149.066
1074.09	164.745
1075.73	178.476
1077.37	192.928
1079.01	206.251
1080.65	218.371
1082.29	228.387
1083.93	237.291
1085.57	245.129
1087.21	252.785
1088.85	258.867
1090.49	264.203
1092.13	267.503
1093.77	267.934
1095.41	267.4
1097.04	267.186
1098.68	266.696
1100.32	264.546
1101.95	262.072
1103.59	258.205
1105.23	252.221
1106.86	245.465
1108.5	236.9
1110.13	227.204
1111.77	215.607
1113.4	203.02
1115.04	189.008
1116.67	175.36
1118.31	160.723
1119.94	144.021
1121.57	126.539
1123.2	107.893
1124.84	88.2903
1126.47	68.6692
1128.1	49.384
1129.73	28.3839
1131.36	9.16667
1132.99	-7.2673
1134.62	-19.7466
1136.25	-21.5118
1137.88	-11.1123
1139.51	4.87
1141.14	17.8624
1142.77	25.404
1144.4	28.7862
1146.03	28.382
1147.66	26.9094
1149.28	25.7442
1150.91	24.4358
1152.54	22.7305
1154.16	20.8694
1155.79	18.4109
1157.42	16.5844
1159.04	16.4259
1160.67	14.6917
1162.29	12.4728
1163.92	9.85766
1165.54	9.52303
1167.17	9.14607
1168.79	9.48197
1170.41	8.49676
1172.04	6.89468
1173.66	5.00764
1175.28	4.2951
1176.9	5.93938
1178.53	6.62945
1180.15	7.66054
1181.77	8.56984
1183.39	9.91913
1185.01	9.7382
1186.63	9.1895
1188.25	9.29101
1189.87	10.3637
1191.49	10.3605
1193.11	10.9867
1194.73	13.1094
1196.35	15.5882
1197.96	18.4019
1199.58	20.0921
1201.2	21.1298
1202.82	22.688
1204.43	23.0837
1206.05	24.8168
1207.66	26.3711
1209.28	27.4301
1210.9	28.9347
1212.51	30.572
1214.13	32.7416
1215.74	32.8344
1217.36	35.0279
1218.97	35.8788
1220.58	36.3737
1222.2	36.9475
1223.81	37.7023
1225.42	38.2822
1227.04	39.5162
1228.65	40.3936
1230.26	41.8645
1231.87	42.9688
1233.48	43.3165
1235.1	43.8279
1236.71	44.824
1238.32	46.1884
1239.93	47.6049
1241.53	48.0733
1243.14	48.2626
1244.75	49.5551
1246.36	49.9769
1247.97	50.4393
1249.58	49.8831
1251.19	49.7074
1252.8	49.3353
1254.4	49.6612
1256.01	50.9469
1257.62	51.3972
1259.22	52.5197
1260.83	54.2386
1262.43	55.3363
1264.04	56.63
1265.64	57.4036
1267.25	58.5097
1268.85	59.967
1270.46	61.5048
1272.06	62.9052
1273.66	65.0389
1275.27	66.837
1276.87	68.0224
1278.48	69.1578
1280.08	69.8439
1281.68	71.348
1283.28	72.6745
1284.88	74.0357
1286.48	76.0927
1288.08	77.5876
1289.68	79.8305
1291.28	80.3583
1292.88	81.3822
1294.48	82.1886
1296.08	82.7099
1297.68	84.898
1299.28	85.5698
1300.88	86.7989
1302.48	87.2379
1304.07	87.2479
1305.67	87.9696
1307.27	88.5669
1308.87	89.0296
1310.46	88.8716
1312.06	89.4925
1313.65	90.4771
1315.25	91.5362
1316.85	92.7461
1318.44	93.1264
1320.03	93.2562
1321.63	93.3666
1323.22	93.8741
1324.82	94.7061
1326.41	94.6199
1328	95.6542
1329.6	95.3993
1331.19	96.2368
1332.78	96.0203
1334.37	97.523
1335.96	98.5541
1337.56	98.5633
1339.15	99.8352
1340.74	99.6805
1342.33	99.9872
1343.92	100.902
1345.51	99.8424
1347.1	99.6347
1348.69	99.9397
1350.28	99.4502
1351.86	98.6123
1353.45	98.2252
1355.04	97.8379
1356.63	97.0947
1358.21	96.7443
1359.8	95.9495
1361.39	94.5372
1362.97	93.8413
1364.56	92.9351
1366.15	91.3806
1367.73	90.607
1369.32	89.3837
1370.9	87.3941
1372.49	86.1833
1374.07	84.8203
1375.65	83.1329
1377.24	81.0709
1378.82	79.8482
1380.41	78.9502
1381.99	77.327
1383.57	77.1243
1385.15	76.6322
1386.73	76.1216
1388.32	74.6424
1389.9	74.8041
1391.48	74.6681
1393.06	74.2247
1394.64	73.4643
1396.22	73.0545
1397.8	73.0369
1399.38	73.7208
1400.96	73.8848
1402.54	73.3824
1404.11	74.4368
1405.69	75.3074
1407.27	77.0224
1408.85	78.7215
1410.43	81.4864
1412	84.2427
1413.58	87.1107
1415.16	90.5437
1416.73	93.1955
1418.31	98.7561
1419.88	102.042
1421.46	105.873
1423.03	108.34
1424.61	112.021
1426.18	116.48
1427.76	120.046
1429.33	124.009
1430.9	127.356
1432.48	131.739
1434.05	134.181
1435.62	137.159
1437.2	140.126
1438.77	142.874
1440.34	145.621
1441.91	147.964
1443.48	149.461
1445.05	150.103
1446.62	150.656
1448.19	150.824
1449.76	151.104
1451.33	151.222
1452.9	150.598
1454.47	150.231
1456.04	149.985
1457.61	150.016
1459.17	148.905
1460.74	148.077
1462.31	146.251
1463.88	144.066
1465.44	141.906
1467.01	138.478
1468.58	137.374
1470.14	133.243
1471.71	131.693
1473.27	128.742
1474.84	126.138
1476.4	122.996
1477.97	120.779
1479.53	116.907
1481.1	113.462
1482.66	112.5
1484.22	109.026
1485.78	105.542
1487.35	101.96
1488.91	100.27
1490.47	97.7571
1492.03	95.1907
1493.59	93.5128
1495.16	90.5715
1496.72	89.0539
1498.28	84.9527
1499.84	81.9218
1501.4	79.4809
1502.96	78.985
1504.52	75.7814
1506.08	73.6346
1507.64	71.4692
1509.19	67.9088
1510.75	64.8491
1512.31	61.6044
1513.87	59.4536
1515.42	56.4637
1516.98	54.8479
1518.54	52.5233
1520.1	48.6989
1521.65	47.5152
1523.21	45.3916
1524.76	43.674
1526.32	42.1238
1527.87	40.9183
1529.43	39.7782
1530.98	39.2721
1532.54	39.7312
1534.09	38.8938
1535.64	38.0239
1537.2	38.468
1538.75	38.2948
1540.3	38.3694
1541.85	39.6462
1543.41	40.5084
1544.96	41.5104
1546.51	43.22
1548.06	43.491
1549.61	45.2206
1551.16	45.7091
1552.71	47.1206
1554.26	47.8913
1555.81	49.118
1557.36	48.0511
1558.91	48.8155
1560.46	51.2783
1562.01	51.2808
1563.56	52.0779
1565.1	54.2108
1566.65	56.196
1568.2	57.9257
1569.75	58.8126
1571.29	60.3566
1572.84	60.9347
1574.38	62.3781
1575.93	63.6599
1577.48	65.9272
1579.02	67.4556
1580.57	68.7874
1582.11	69.12
1583.65	70.8978
1585.2	71.2123
1586.74	72.3122
1588.29	72.8098
1589.83	73.2507
1591.37	73.4542
1592.92	74.15
1594.46	75.4053
1596	76.0423
1597.54	75.1773
1599.08	76.597
1600.62	74.9754
1602.16	73.9086
1603.7	74.0598
1605.24	73.2931
1606.78	72.7233
1608.32	70.468
1609.86	68.9737
1611.4	67.3407
1612.94	66.0266
1614.48	65.2625
1616.02	64.1666
1617.56	64.3334
1619.09	63.5502
1620.63	62.9546
1622.17	61.7872
1623.71	60.3479
1625.24	60.7676
1626.78	60.8273
1628.31	61.1977
1629.85	61.5683
1631.39	61.1253
1632.92	60.3969
1634.46	60.8115
1635.99	61.9017
1637.52	62.341
1639.06	61.5254
1640.59	62.1873
1642.12	63.2168
1643.66	62.796
1645.19	63.5711
1646.72	63.4489
1648.25	64.1057
1649.79	65.3865
1651.32	66.9248
1652.85	67.5147
1654.38	67.8881
1655.91	67.8976
1657.44	69.2956
1658.97	68.4056
1660.5	68.8462
1662.03	68.4914
1663.56	69.3877
1665.09	67.8213
1666.62	66.6822
1668.15	66.465
1669.67	65.8156
1671.2	64.6543
1672.73	63.0292
1674.26	60.6479
1675.79	58.5858
1677.31	55.5182
1678.84	53.8847
1680.36	52.266
1681.89	48.8129
1683.42	46.768
1684.94	44.4916
1686.47	43.0281
1687.99	41.0991
1689.51	38.9336
1691.04	36.958
1692.56	36.01
1694.08	34.9035
1695.61	33.4876
1697.13	32.5278
1698.65	31.1548
1700.18	30.0533
1701.7	29.072
1703.22	28.4952
1704.74	27.3649
1706.26	25.5921
1707.78	23.512
1709.3	22.167
1710.82	21.3692
1712.35	20.0852
1713.86	18.7519
1715.39	17.5735
1716.9	16.4921
1718.42	15.8335
1719.94	14.7287
1721.46	14.5623
1722.98	14.591
1724.5	14.5236
1726.01	14.8399
1727.53	14.1656
1729.05	13.754
1730.56	14.2026
1732.08	13.9772
1733.6	13.969
1735.11	13.3332
1736.63	14.3139
1738.14	14.0988
1739.66	13.8908
1741.17	12.7175
1742.69	12.7775
1744.2	13.3092
1745.71	12.866
1747.23	13.0951
1748.74	12.85
1750.25	12.7182
1751.77	12.2679
1753.28	12.2728
1754.79	12.4721
1756.3	12.3257
1757.81	12.1562
1759.33	12.4326
1760.84	12.2111
1762.35	11.4578
1763.86	11.7409
1765.37	11.3455
1766.88	11.1083
1768.39	10.2573
1769.9	9.39145
1771.41	8.93749
1772.91	7.78444
1774.42	7.24144
1775.93	6.83189
1777.44	6.81407
1778.95	6.66224
1780.45	5.36017
1781.96	4.2137
1783.47	3.97237
1784.97	3.30086
1786.48	3.01208
1787.99	2.1405
1789.49	1.98378
1791	1.30452
1792.5	1.11217
1794.01	1.11878
1795.51	0.861125
1797.01	1.26691
1798.52	1.66675
1800.02	2.15946
1801.52	2.31254
1803.03	2.29184
1804.53	2.46892
1806.03	2.86687
1807.54	2.70924
1809.04	3.91899
1810.54	4.28917
1812.04	4.38021
1813.54	4.76989
1815.04	4.92155
1816.54	5.37628
1818.04	5.64858
1819.54	5.7275
1821.04	5.69169
1822.54	5.87688
1824.04	5.67257
1825.54	5.9594
1827.04	6.37059
1828.54	6.22194
1830.03	6.21428
1831.53	6.76995
1833.03	7.23602
1834.53	6.24877
1836.02	5.47892
1837.52	4.44739
1839.02	4.46992
1840.51	3.89571
1842.01	3.79298
1843.5	3.83074
1845	4.08871
1846.49	4.0453
1847.99	3.57342
1849.48	3.75749
1850.98	3.50229
1852.47	3.18845
1853.96	2.49444
1855.46	2.34296
1856.95	2.11685
1858.44	2.23898
1859.94	2.12102
1861.43	2.11468
1862.92	2.40136
1864.41	3.10541
1865.9	3.35407
1867.39	3.91364
1868.88	3.66867
1870.37	4.42357
1871.86	4.40779
1873.35	4.43332
1874.84	4.15918
1876.33	4.48802
1877.82	4.93418
1879.31	5.1907
1880.8	5.43254
1882.29	6.18
1882.58	6.45363
1884.08	5.75851
1885.57	5.63929
1887.06	5.5091
1888.56	5.49216
1890.05	5.19749
1891.54	5.05774
1893.04	5.44105
1894.53	5.6588
1896.02	5.42862
1897.51	4.70467
1899	4.79841
1900.5	4.47725
1901.99	3.82147
1903.48	4.57619
1904.97	4.45844
1906.46	4.45635
1907.95	3.88725
1909.44	3.95309
1910.93	4.81208
1912.42	5.53498
1913.91	6.16166
1915.4	6.99081
1916.88	6.93585
1918.37	6.77834
1919.86	6.71185
1921.35	7.02807
1922.84	7.07132
1924.32	6.52199
1925.81	7.16604
1927.3	7.35629
1928.78	7.90641
1930.27	8.66216
1931.75	8.7052
1933.24	9.16299
1934.72	9.4305
1936.21	9.94548
1937.69	9.39367
1939.18	9.70498
1940.66	8.85265
1942.15	8.12432
1943.63	7.83066
1945.11	6.90903
1946.6	6.54644
1948.08	6.65091
1949.56	6.62181
1951.04	6.09233
1952.53	5.69286
1954.01	5.28119
1955.49	5.10413
1956.97	4.26226
1958.45	3.48023
1959.93	2.89026
1961.41	2.12227
1962.89	2.07643
1964.37	1.03317
1965.85	0.422822
1967.33	-0.173153
1968.81	-0.555956
1970.29	-0.761354
1971.77	-1.5315
1973.24	-0.883075
1974.72	-1.05438
1976.2	-0.540189
1977.68	0.116935
1979.15	-0.164098
1980.63	0.102293
1982.11	-0.594835
1983.58	0.14539
1985.06	0.414279
1986.53	0.633949
1988.01	0.818795
1989.48	0.940969
1990.96	1.50082
1992.43	1.48381
1993.91	2.04225
1995.38	2.21576
1996.86	2.66838
1998.33	3.00011
1999.8	3.68223
2001.27	3.69414
2002.75	4.68997
2004.22	5.18573
2005.69	4.72907
2007.16	4.65339
2008.64	4.30656
2010.11	4.57456
2011.58	3.96278
2013.05	4.11319
2014.52	3.94117
2015.99	4.04392
2017.46	4.48053
2018.93	4.79617
2020.4	5.36865
2021.87	5.59403
2023.34	4.97763
2024.8	5.71519
2026.27	5.40222
2027.74	4.80795
2029.21	4.71299
2030.68	4.39394
2032.14	3.82256
2033.61	3.02635
2035.08	2.47269
2036.54	1.87837
2038.01	1.42282
2039.48	1.72502
2040.94	2.497
2042.41	3.13644
2043.87	3.34232
2045.34	2.82772
2046.8	3.5545
2048.27	3.57217
2049.73	4.1323
2051.19	4.25226
2052.66	4.08885
2054.12	4.66214
2055.58	4.90328
2057.05	5.29616
2058.51	4.51123
2059.97	5.04129
2061.43	5.49921
2062.9	5.94341
2064.36	6.30008
2065.82	5.58858
2067.28	5.79588
2068.74	5.81247
2070.2	5.79937
2071.66	5.89173
2073.12	6.28087
2074.58	6.24051
2076.04	6.88723
2077.5	6.48574
2078.95	6.25906
2080.41	5.85304
2081.87	5.29876
2083.33	6.45764
2084.79	5.64402
2086.24	6.30853
2087.7	6.60632
2089.16	6.74211
2090.61	7.16665
2092.07	7.10658
2093.53	7.23875
2094.98	7.58179
2096.44	8.4515
2097.89	9.32022
2099.35	9.08833
2100.8	9.60963
2102.26	9.82729
2103.71	10.0804
2105.16	10.2232
2106.62	10.5224
2108.07	11.362
2109.53	12.3092
2110.98	13.7951
2112.43	14.5288
2113.88	15.0233
2115.33	15.4472
2116.79	15.7093
2118.24	16.0982
2119.69	17.4289
2121.14	17.6692
2122.59	18.2965
2124.04	18.6419
2125.49	19.0935
2126.94	20.0281
2128.39	19.7275
2129.84	20.1513
2131.29	21.3287
2132.74	22.3691
2134.19	22.9307
2135.63	23.2584
2137.08	23.3091
2138.53	24.2083
2139.98	25.2685
2141.43	26.4078
2142.87	27.1305
2144.32	28.7183
2145.77	29.4616
2147.21	29.5932
2148.66	30.7872
2150.1	31.2606
2151.55	31.3627
2152.99	31.8946
2154.44	32.8869
2155.88	35.0888
2157.33	35.4024
2158.77	37.939
2160.21	38.9176
2161.66	40.2344
2163.1	41.208
2164.55	41.8585
2165.99	42.9039
2167.43	43.6492
2168.87	44.0868
2170.31	43.9469
2171.76	43.9059
2173.2	44.4682
2174.64	44.7361
2176.08	44.9883
2177.52	45.8112
2178.96	45.4576
2180.4	45.7045
2181.84	45.3543
2183.28	44.994
2184.72	44.3958
2186.16	43.9708
2187.6	43.5225
2189.04	43.4298
2190.47	42.8128
2191.91	41.9767
2193.35	41.0215
2194.79	40.6152
2196.23	39.9676
2197.66	39.9292
2199.1	39.2465
2200.54	38.1744
2201.97	37.7474
2203.41	37.2072
2204.84	35.9244
2206.28	34.8651
2207.71	34.2194
2209.15	33.1664
2210.58	33.3436
2212.02	32.3126
2213.45	31.4655
2214.89	30.8285
2216.32	30.0399
2217.75	29.1082
2219.19	27.8241
2220.62	27.7084
2222.05	27.5311
2223.48	27.024
2224.92	26.5193
2226.35	25.8332
2227.78	25.8695
2229.21	25.2809
2230.64	25.1769
2232.07	23.7816
2233.5	23.8275
2234.93	23.1351
2236.36	21.9524
2237.79	21.5322
2239.22	20.4809
2240.65	20.1509
2242.08	20.231
2243.51	20.3766
2244.94	20.0609
2246.37	19.3707
2247.79	18.8548
2249.22	18.632
2250.65	17.9825
2252.08	18.6312
2253.5	18.0264
2254.93	17.688
2256.36	16.6469
2257.78	16.167
2259.21	15.6502
2260.63	15.6463
2262.06	15.3105
2263.48	15.3154
2264.91	15.8902
2266.33	15.548
2267.76	16.0044
2269.18	16.3342
2270.6	15.8867
2272.03	15.3204
2273.45	15.4317
2274.87	15.0371
2276.3	14.7536
2277.72	14.2951
2279.14	14.0695
2280.56	13.7811
2281.98	13.5413
2283.41	12.9811
2284.83	12.2357
2286.25	12.1058
2287.67	11.4533
2289.09	10.861
2290.51	10.4954
2291.93	10.4616
2293.35	9.8069
2294.77	8.85252
2296.19	8.48437
2297.61	8.66414
2299.02	9.75803
2300.44	10.808
2301.86	10.7418
2303.28	10.6934
2304.7	10.7098
2306.11	10.2853
2307.53	10.2976
2308.95	11.2721
2310.36	10.968
2311.78	10.8756
2313.2	11.2654
2314.61	10.8973
2316.03	10.4452
2317.44	11.3071
2318.86	11.4915
2320.27	11.9967
2321.69	12.285
2323.1	11.9693
2324.51	11.4117
2325.93	11.5154
2327.34	11.3522
2328.76	12.2419
2330.17	12.1411
2331.58	12.3514
2332.99	13.0102
2334.41	12.5462
2335.82	12.4217
2337.23	12.1463
2338.64	12.9307
2340.05	12.1514
2341.46	10.9488
2342.87	10.3437
2344.28	9.76248
2345.69	8.71648
2347.1	8.3635
2348.51	7.62083
2349.92	7.21211
2351.33	7.22034
2352.74	7.00164
2354.15	6.83443
2355.56	6.14835
2356.97	5.941
2358.37	5.67651
2359.78	5.70157
2361.19	5.73281
2362.6	5.69092
2364	5.82441
2365.41	6.12007
2366.82	7.03265
2368.22	7.21757
2369.63	7.33351
2371.03	7.50562
2372.44	6.90314
2373.84	7.2458
2375.25	7.24102
2376.65	7.01461
2378.06	6.22969
2379.46	6.10208
2380.86	4.81496
2382.27	5.29654
2383.67	5.98034
2385.07	6.21969
2386.48	6.28277
2387.88	6.46262
2389.28	5.84207
2390.69	5.63188
2392.09	5.17461
2393.49	4.76475
2394.89	4.4566
2396.29	4.36643
2397.69	3.90751
2399.09	3.42257
2400.49	3.2096
2401.89	2.88332
2403.29	3.14115
2404.69	3.0293
2406.09	3.80339
2407.49	3.67643
2408.89	2.61865
2410.29	1.73935
2411.69	1.32787
2413.08	1.46631
2414.48	1.4802
2415.88	2.22071
2417.28	2.86365
2418.67	2.86103
2420.07	3.46036
2421.47	3.86758
2422.86	3.7063
2424.26	3.38861
2425.65	3.35262
2427.05	3.50583
2428.45	3.81347
2429.84	3.84515
2431.23	3.96511
2432.63	4.07658
2434.02	3.7513
2435.42	3.74778
2436.81	4.18306
2438.2	3.93843
2439.6	4.26412
2440.99	4.9353
2442.38	5.53771
2443.78	5.43815
2445.17	5.54354
2446.56	5.48924
2447.95	5.32387
2449.34	6.01101
2450.73	6.36999
2452.13	7.03421
2453.52	6.50663
2454.91	6.39841
2456.3	6.21143
2457.69	6.4085
2459.08	6.7379
2460.47	6.97128
2461.85	6.74204
2463.24	6.90408
2464.63	7.5646
2466.02	7.85829
2467.41	7.98665
2468.8	8.03994
2470.19	8.17712
2471.57	8.18347
2472.96	8.46795
2474.35	8.06113
2475.73	7.00115
2477.12	5.99764
2478.51	5.62606
2479.89	5.17518
2481.28	4.66205
2482.66	4.73588
2484.05	4.68408
2485.43	4.10432
2486.82	3.06751
2488.2	2.66356
2489.59	2.32798
2490.97	1.60022
2492.35	1.19212
2493.74	0.828077
2495.12	-0.113124
2496.5	-0.416381
2497.89	-0.320446
2499.27	-0.970347
2500.65	-1.16541
2502.03	-1.67157
2503.42	-1.91797
2504.8	-1.46583
2506.18	-1.19521
2507.56	-1.08136
2508.94	-0.606921
2510.32	-0.385771
2511.7	0.505272
2513.08	-0.200897
2514.46	-0.0461493
2515.84	-0.206534
2517.22	-0.186463
2518.6	0.575877
2519.98	0.846074
2521.36	1.17288
2522.73	1.95758
2524.11	3.15972
2525.49	4.16665
2526.87	4.53454
2528.25	5.46343
2529.62	5.91017
2531	6.14408
2532.38	7.38849
2533.75	7.62901
2535.13	7.63351
2536.5	8.02034
2537.88	8.37363
2539.25	8.48921
2540.63	8.86002
2542.01	9.11796
2543.38	9.26146
2544.75	9.1195
2546.13	9.50015
2547.5	9.71175
2548.88	9.79702
2550.25	10.0868
2551.62	10.1739
2553	10.0164
2554.37	10.2595
2555.74	10.357
2557.11	11.0146
2558.49	10.7357
2559.86	11.1648
2561.23	11.1896
2562.6	10.5603
2563.97	10.2071
2565.34	10.4607
2566.71	10.2583
2568.08	9.31096
2569.45	9.63504
2570.82	9.2168
2572.19	9.14332
2573.56	9.01946
2574.93	8.40517
2576.3	7.94133
2577.67	7.60644
2579.03	7.18473
2580.4	6.53972
2581.77	5.82305
2583.14	5.87023
2584.5	5.75719
2585.87	6.03371
2587.24	6.14227
2588.6	6.12479
2589.97	6.892
2591.34	6.6282
2592.7	6.3321
2594.07	6.41571
2595.43	6.21504
2596.8	6.9318
2598.16	6.39772
2599.53	6.02839
2600.89	6.224
2602.26	5.46443
2603.62	5.2453
2604.98	5.1562
2606.35	5.09579
2607.71	5.20402
2609.07	5.22645
2610.44	5.37526
2611.8	5.41484
2613.16	5.70556
2614.52	5.73255
2615.88	6.12306
2617.25	5.44238
2618.61	5.68665
2619.97	6.43241
2621.33	7.06865
2622.69	7.52757
2624.05	7.88874
2625.41	8.52282
2626.77	8.77916
2628.13	9.43766
2629.49	8.86318
2630.85	9.35984
2632.21	9.63497
2633.56	9.99427
2634.92	10.3754
2636.28	10.3737
2637.64	11.0547
2639	11.4478
2640.35	11.5034
2641.71	11.5122
2643.07	11.7565
2644.42	12.011
2645.78	12.1492
2647.14	12.1695
2648.49	12.0941
2649.85	12.4462
2651.2	12.3702
2652.56	12.6698
2653.91	13.0742
2655.27	12.8941
2656.62	12.7572
2657.98	12.8592
2659.33	12.2417
2660.68	12.1223
2662.04	12.0188
2663.39	11.7673
2664.74	11.5424
2666.1	11.0428
2667.45	11.0227
2668.8	11.3949
2670.15	10.7721
2671.5	10.5336
2672.86	10.2404
2674.21	10.4494
2675.56	10.5865
2676.91	9.94661
2678.26	10.518
2679.61	10.4837
2680.96	10.2362
2682.31	9.73109
2683.66	9.82663
2685.01	9.43085
2686.36	9.79144
2687.71	9.43512
2689.06	9.87192
2690.4	10.1475
2691.75	9.94553
2693.1	10.4044
2694.45	10.5217
2695.8	10.2604
2697.14	10.4727
2698.49	11.5948
2699.84	11.9472
2701.18	12.422
2702.53	12.6727
2703.88	13.2056
2705.22	13.9108
2706.57	14.0856
2707.91	13.9965
2709.26	14.6814
2710.6	14.6241
2711.95	14.4496
2713.29	14.4051
2714.64	14.6536
2715.98	15.4275
2717.32	16.0373
2718.67	16.3688
2720.01	17.3055
2721.35	17.149
2722.7	17.155
2724.04	16.8806
2725.38	17.4651
2726.72	16.7166
2728.06	16.2881
2729.4	15.9195
2730.75	15.8071
2732.09	15.4505
2733.43	15.8378
2734.77	15.3919
2736.11	14.6503
2737.45	13.4054
2738.79	12.9118
2740.13	12.6042
2741.47	12.364
2742.81	11.6441
2744.15	10.9877
2745.48	11.0276
2746.82	9.72446
2748.16	8.84235
2749.5	7.47001
2750.84	6.3201
2752.17	5.48759
2753.51	5.58378
2754.85	4.97683
2756.19	5.1995
2757.52	4.3231
2758.86	3.3351
2760.19	2.90223
2761.53	2.42649
2762.86	2.34472
2764.2	2.57319
2765.54	2.229
2766.87	1.5358
2768.2	1.46685
2769.54	1.61245
2770.87	1.69931
2772.21	1.5471
2773.54	1.53049
2774.88	1.84456
2776.21	1.61351
2777.54	1.2626
2778.87	2.07882
2780.21	2.04843
2781.54	2.40626
2782.87	2.35936
2784.2	1.93403
2785.53	1.32287
2786.87	1.55207
2788.2	1.29921
2789.53	0.941267
2790.86	0.390509
2792.19	0.41414
2793.52	-0.125708
2794.85	0.0343144
2796.18	0.29025
2797.51	0.489808
2798.84	1.08301
2800.17	1.23078
2801.49	0.202221
2802.82	-0.57979
2804.15	-0.716446
2805.48	-0.938925
2806.81	-1.04678
2808.13	-1.95899
2809.46	-2.2018
2810.79	-2.16967
2812.12	-2.56312
2813.44	-2.7692
2814.77	-2.6484
2816.09	-2.10554
2817.42	-0.60774
2818.75	1.32181
2820.07	3.5304
2821.4	5.11136
2822.72	7.82916
2824.05	10.595
2825.37	13.0085
2826.7	16.1899
2828.02	20.5233
2829.35	24.4134
2830.67	28.6217
2831.99	32.9991
2833.31	36.9994
2834.64	42.18
2835.96	46.8333
2837.28	50.8919
2838.61	55.1346
2839.93	59.3459
2841.25	64.2574
2842.57	69.3211
2843.89	73.8719
2845.21	79.2675
2846.53	83.4481
2847.85	88.5635
2849.17	93.4958
2850.49	99.0568
2851.81	104.632
2853.13	110.305
2854.45	115.645
2855.77	120.356
2857.09	125.496
2858.41	130.627
2859.73	135.781
2861.05	140.544
2862.36	144.752
2863.68	148.708
2865	152.682
2866.32	155.456
2867.64	157.956
2868.95	161.214
2870.27	164.352
2871.59	167.296
2872.9	169.858
2874.22	171.486
2875.53	173.657
2876.85	175.296
2878.16	177.397
2879.48	180.15
2880.79	183.103
2882.11	185.694
2883.42	188.925
2884.74	191.528
2886.05	193.966
2887.36	196.77
2888.68	199.315
2889.99	201.962
2891.3	204.574
2892.62	207.648
2893.93	210.899
2895.24	213.134
2896.55	215.557
2897.86	217.816
2899.18	219.566
2900.49	223.292
2901.8	225.564
2903.11	228.259
2904.42	232.083
2905.73	236.451
2907.04	240.693
2908.35	245.353
2909.66	248.995
2910.97	253.919
2912.28	257.637
2913.59	262.758
2914.9	267.603
2916.21	272.037
2917.51	276.968
2918.82	280.888
2920.13	284.967
2921.44	288.121
2922.74	291.787
2924.05	294.561
2925.36	297.061
2926.67	298.586
2927.97	298.997
2929.28	299.666
2930.59	299.648
2931.89	298.836
2933.2	297.542
2934.5	296.833
2935.81	294.509
2937.11	291.021
2938.42	287.052
2939.72	283.153
2941.02	279.528
2942.33	275.607
2943.63	271.309
2944.94	266.185
2946.24	260.886
2947.54	254.719
2948.85	248.647
2950.15	242.133
2951.45	235.791
2952.75	229.701
2954.05	223.365
2955.36	217.128
2956.66	210.902
2957.96	204.501
2959.26	198.51
2960.56	192.191
2961.86	186.816
2963.16	181.375
2964.46	175.624
2965.76	170.898
2967.06	166.116
2968.36	162.067
2969.66	157.63
2970.96	153.091
2972.26	148.87
2973.56	145.75
2974.85	141.711
2976.15	138.234
2977.45	134.547
2978.75	131.304
2980.05	127.218
2981.34	123.44
2982.64	120.46
2983.94	116.001
2985.23	112.255
2986.53	108.583
2987.83	104.809
2989.12	100.59
2990.42	95.9308
2991.71	91.0801
2993.01	86.6673
2994.3	82.5332
2995.6	77.969
2996.89	73.3221
2998.19	69.1436
2999.48	65.1217
3000.77	60.4664
3002.07	56.0249
3003.36	52.0626
3004.65	48.3459
3005.95	44.1945
3007.24	40.1133
3008.53	36.3139
3009.82	32.6736
3011.12	29.6519
3012.41	26.5074
3013.7	22.859
3014.99	20.0798
3016.28	17.7026
3017.57	15.6356
3018.86	13.4818
3020.15	11.5189
3021.44	9.85362
3022.73	8.27564
3024.02	6.80731
3025.31	5.09683
3026.6	4.08442
3027.89	2.82493
3029.18	2.14663
3030.47	1.34088
3031.76	1.03478
3033.04	0.0242462
3034.33	-1.01089
3035.62	-0.997919
3036.91	0.0571018
3038.19	0.69914
3039.48	0.994879
3040.77	1.08668
3042.05	1.64803
3043.34	2.09658
3044.63	2.78799
3045.91	3.3455
3047.2	3.74326
3048.48	3.77956
3049.77	4.34302
3051.05	4.38163
3052.34	4.02649
3053.62	4.55484
3054.91	4.48166
3056.19	4.90475
3057.48	5.56917
3058.76	5.42652
3060.04	5.29558
3061.33	5.12703
3062.61	5.95598
3063.89	5.75397
3065.17	5.85784
3066.46	5.62859
3067.74	5.67015
3069.02	5.85129
3070.3	5.6914
3071.59	6.42898
3072.87	6.44122
3074.15	5.67848
3075.43	5.59845
3076.71	4.89212
3077.99	4.25413
3079.27	4.17764
3080.55	3.87874
3081.83	3.27363
3083.11	2.84004
3084.39	2.25709
3085.67	1.79396
3086.94	1.70111
3088.22	1.67864
3089.5	0.877954
3090.78	0.927072
3092.06	0.696813
3093.34	0.249975
3094.61	-0.620443
3095.89	-0.574395
3097.17	0.198712
3098.44	0.381668
3099.72	1.31914
3101	2.33077
3102.27	2.35862
3103.55	2.31211
3104.82	3.10924
3106.1	4.02529
3107.38	4.64998
3108.65	4.97383
3109.93	4.94954
3111.2	5.4391
3112.47	6.23416
3113.75	7.02819
3115.02	7.43697
3116.3	8.4863
3117.57	9.23089
3118.84	9.71685
3120.12	10.3355
3121.39	11.0951
3122.66	11.4109
3123.93	12.3006
3125.2	13.379
3126.48	15.2038
3127.75	15.7387
3129.02	17.3823
3130.29	18.4581
3131.56	19.8357
3132.83	21.0034
3134.1	22.4326
3135.37	23.692
3136.64	24.2417
3137.91	25.1352
3139.18	26.7045
3140.45	27.8402
3141.72	29.1654
3142.99	30.59
3144.26	32.1821
3145.53	33.7588
3146.8	35.3973
3148.07	37.5158
3149.33	38.4819
