#Acq. time (s)=	45
#Accumulations=	2
#Range (cm-¹)=	200...3150
#Windows=	2
#Auto scanning=	Off
#Autofocus=	Off
#Macrospot=	Off
#AutoExposure=	Off
#Spike filter=	Multiple accum.
#Delay time (s)=	0
#Binning=	1
#Readout mode=	Signal
#DeNoise=	Off
#ICS correction=	On
#Dark correction=	Off
#Inst. Process=	Off
#Detector Gain=	Best Dynamic Range
#Detector ADC=	20 kHz       
#Detector temperature (°C)=	-69.85
#Instrument=	LabRAM HR Evol
#Detector=	Synapse
#Objective=	x100
#Grating=	600 gr/mm
#ND Filter=	100%
#Laser (nm)=	532 
#Hole=	100.021
#Range=	Auto
#Laser Pol.=	No
#Raman. Pol.=	No
#Laser Pol. (°)=	-0.0007625
#Raman Pol. (°)=	89.9995
#Collection=	Microscope
#StageXY=	Marzhauser
#StageZ=	Marzhauser
#X (µm)=	-1175.2
#Y (µm)=	1298.7
#Z (µm)=	577.85
#Full time(mm:ss)=	3:18
#Project=	
#Sample=	
#Site=	
#Title=	Mbcal_20_25_25_2x_45s_532 nm_x100_100%_600 gr_mm
#Remark=	
#Date=	18.07.2022 11:28
#Acquired=	18.07.2022 11:28:15
#Base:Fit=	10.08.2022 10:55:08
#Base:Sub=	10.08.2022 10:55:14
#Filter:Polynom=	16.08.2022 10:07:28
#AxisType[0]=Intens
#AxisUnit[0]=Cnt
#AxisType[1]=Spectr
#AxisUnit[1]=1/cm
200.419	6.18832
202.234	6.69124
204.048	6.46159
205.862	6.99466
207.678	8.06067
209.491	8.90902
211.304	9.65293
213.116	9.96488
214.928	11.204
216.742	11.4687
218.554	11.9209
220.365	13.9082
222.176	15.7853
223.986	16.7722
225.798	18.3937
227.608	19.7904
229.417	22.4369
231.226	24.1004
233.035	24.6985
234.843	24.9006
236.653	26.9356
238.46	28.3863
240.268	28.4757
242.074	29.2453
243.881	30.8144
245.687	32.4471
247.493	33.9589
249.298	35.4976
251.103	35.9328
252.908	36.8773
254.715	37.8233
256.519	38.4723
258.322	38.6004
260.126	38.8695
261.929	39.3842
263.731	40.4208
265.534	41.0256
267.336	40.5785
269.137	41.6154
270.938	43.2269
272.739	44.7156
274.54	47.0039
276.34	47.1386
278.14	45.8459
279.939	45.8176
281.739	43.998
283.537	42.8062
285.336	42.0032
287.134	43.2278
288.932	44.4055
290.729	45.4676
292.526	45.9543
294.323	46.1822
296.117	46.2334
297.913	47.2724
299.709	48.7886
301.504	50.1868
303.299	51.6977
305.093	54.1504
306.888	55.2019
308.682	57.431
310.475	58.5769
312.268	60.2637
314.059	60.6205
315.852	61.6946
317.644	61.6912
319.436	62.5446
321.227	63.6521
323.018	63.9274
324.807	64.2267
326.597	65.0062
328.387	64.2693
330.177	64.7378
331.967	66.6251
333.753	68.222
335.542	68.464
337.331	68.2145
339.119	67.2684
340.906	66.2584
342.691	65.8
344.478	65.9044
346.265	63.3818
348.051	62.4401
349.835	61.8088
351.621	61.6082
353.406	61.9664
355.189	60.7548
356.973	59.3595
358.757	57.6708
360.541	56.9664
362.323	56.0616
364.106	53.1912
365.889	50.139
367.669	47.0197
369.451	45.613
371.233	44.9469
373.012	43.4253
374.793	43.68
376.574	42.1637
378.353	41.1912
380.133	39.4423
381.91	37.0934
383.69	37.4203
385.469	37.0925
387.245	37.3307
389.024	35.8064
390.8	34.9392
392.577	34.6511
394.353	33.7388
396.129	31.5223
397.906	29.9119
399.68	28.8115
401.456	28.7471
403.23	27.5176
405.005	26.7533
406.778	26.1203
408.552	27.0139
410.325	27.361
412.099	25.6179
413.87	23.3664
415.643	22.8007
417.414	23.0792
419.187	23.8861
420.957	22.9691
422.728	22.4542
424.498	21.2918
426.269	20.6922
428.038	19.7866
429.806	19.6512
431.576	18.9848
433.344	19.0165
435.114	18.1871
436.881	17.6992
438.649	16.5005
440.416	15.5755
442.182	15.8664
443.949	14.4537
445.715	12.9526
447.48	13.0293
449.247	13.555
451.011	14.1233
452.777	14.2588
454.541	14.9668
456.304	14.8812
458.069	15.4069
459.832	16.3828
461.594	15.7561
463.358	17.1456
465.119	17.5355
466.881	18.663
468.642	18.5965
470.404	18.927
472.165	19.5515
473.925	19.6135
475.684	20.9859
477.445	20.8536
479.204	22.0323
480.963	24.0641
482.721	24.8322
484.481	25.116
486.239	26.3908
487.996	28.1916
489.753	29.6377
491.511	30.3055
493.268	30.7657
495.023	31.8017
496.779	32.5945
498.534	33.3078
500.289	33.1422
502.046	33.044
503.8	33.7085
505.554	33.6453
507.307	33.7557
509.06	33.4924
510.813	33.3925
512.566	32.111
514.32	31.7921
516.072	31.567
517.823	31.2594
519.574	30.3897
521.325	30.9775
523.076	31.7494
524.826	31.6907
526.576	31.473
528.325	32.8877
530.074	33.2816
531.823	32.6949
533.572	32.8796
535.32	33.0954
537.068	31.977
538.815	31.6774
540.562	30.647
542.309	29.4594
544.056	29.0012
545.802	28.4387
547.547	29.0409
549.293	28.4035
551.038	27.9094
552.783	27.2836
554.527	25.3884
556.271	22.9372
558.015	21.6625
559.759	20.2037
561.502	20.1607
563.245	19.3393
564.987	17.7464
566.729	17.7439
568.471	16.7411
570.213	14.9983
571.954	13.273
573.693	12.6232
575.433	12.0644
577.173	11.1688
578.913	8.95637
580.652	8.53126
582.392	7.73316
584.13	6.17111
585.867	5.95266
587.605	3.92372
589.343	2.87442
591.08	1.85966
592.817	1.23235
594.552	0.842954
596.289	0.775841
598.025	0.191436
599.761	-0.251155
601.496	1.44276
603.229	2.27704
604.964	2.24657
606.699	2.4261
608.433	2.96811
610.165	3.95085
611.898	4.89595
613.631	4.31941
615.364	4.81322
617.095	4.51759
618.827	4.26046
620.559	3.88322
622.288	3.83724
624.02	3.81277
625.75	5.51943
627.479	7.38312
629.209	7.58567
630.939	9.38246
632.667	10.4205
634.396	10.7598
636.125	9.69639
637.851	9.64148
639.58	9.79911
641.305	9.43354
643.033	9.14142
644.76	8.77942
646.485	9.22753
648.212	9.56815
649.936	8.39856
651.662	8.60997
653.388	9.60207
655.111	8.62449
656.836	9.35333
658.558	9.07378
660.283	8.86253
662.005	7.84689
663.728	7.43925
665.45	5.72404
667.173	5.93652
668.893	5.38159
670.616	5.40657
672.336	5.66711
674.057	5.94103
675.777	5.66987
677.498	4.3511
679.216	4.77832
680.937	5.16377
682.655	5.18554
684.375	4.79562
686.092	5.48375
687.809	6.81961
689.528	6.79095
691.244	6.68663
692.962	7.87266
694.678	8.29586
696.393	9.38461
698.111	9.34142
699.825	8.78131
701.54	9.7444
703.256	9.68224
704.97	10.5078
706.685	11.0207
708.398	12.4538
710.111	12.8554
711.826	14.1342
713.538	14.7883
715.25	15.8363
716.961	18.2535
718.675	17.4829
720.386	16.8235
722.096	17.2629
723.808	17.9386
725.518	18.7492
727.228	19.288
728.937	17.8852
730.648	17.8656
732.357	19.7964
734.065	19.1117
735.773	18.9287
737.483	19.9632
739.19	19.2133
740.897	18.8934
742.604	19.2178
744.31	18.9156
746.018	18.1291
747.724	17.5541
749.429	18.7468
751.134	19.5789
752.839	21.3705
754.544	22.0414
756.248	23.0115
757.953	23.9461
759.657	26.1265
761.36	24.8403
763.063	26.3587
764.765	28.6028
766.468	28.2881
768.169	29.1884
769.871	31.1379
771.572	32.8253
773.273	33.5537
774.976	34.4987
776.676	35.6883
778.376	36.2333
780.075	36.6209
781.775	38.0692
783.474	39.2381
785.172	40.5051
786.871	41.2782
788.569	41.9131
790.266	43.6985
791.964	44.5648
793.661	45.9674
795.358	48.2579
797.054	50.124
798.75	51.1748
800.446	52.2335
802.141	52.326
803.834	51.3674
805.529	52.5885
807.224	52.7493
808.918	52.501
810.612	52.423
812.305	51.6556
813.998	50.3407
815.691	50.8964
817.384	51.1054
819.076	49.2682
820.766	49.5259
822.458	49.9089
824.149	49.7121
825.84	51.1097
827.531	51.3796
829.221	52.1349
830.909	52.6197
832.599	54.1926
834.288	55.5447
835.977	55.7991
837.666	55.8231
839.353	56.0062
841.041	56.527
842.729	56.2035
844.416	55.5661
846.103	54.0202
847.788	54.9201
849.475	53.6234
851.161	52.7443
852.845	53.401
854.53	52.847
856.216	52.9369
857.901	52.8783
859.583	52.5157
861.268	52.7689
862.952	52.174
864.633	52.613
866.317	52.3755
868	50.9105
869.681	50.347
871.363	50.1244
873.045	50.8637
874.725	49.6025
876.406	47.806
878.088	46.5488
879.767	45.7942
881.447	44.7696
883.125	42.2035
884.805	41.1276
886.483	38.3901
888.162	36.6903
889.841	35.3948
891.518	32.5021
893.196	31.9833
894.872	29.6758
896.55	27.967
898.225	27.5914
899.902	26.1279
901.577	25.6732
903.254	24.1651
904.928	23.6898
906.604	22.1897
908.277	21.8403
909.952	22.0164
911.625	21.4775
913.3	20.7777
914.972	21.0468
916.646	20.3763
918.318	20.1775
919.991	20.2974
921.662	19.4041
923.333	18.4609
925.005	17.3374
926.675	16.7798
928.347	17.903
930.017	18.1366
931.686	17.7442
933.357	17.4501
935.025	19.3001
936.693	19.0321
938.363	18.4596
940.031	18.7987
941.698	19.3859
943.367	18.8142
945.034	19.2069
946.7	19.4803
948.368	20.1434
950.034	20.5416
951.699	20.1683
953.367	20.9086
955.031	22.01
956.696	20.8407
958.36	18.0507
960.026	17.1733
961.689	17.124
963.353	18.7264
965.016	20.2997
966.68	18.3771
968.343	20.6827
970.005	20.5488
971.666	22.4378
973.328	23.1993
974.991	23.0643
976.652	24.5107
978.312	22.3926
979.972	24.4996
981.632	24.6344
983.292	23.9137
984.953	23.9299
986.612	23.2979
988.27	23.1426
989.929	23.0805
991.587	24.0159
993.244	24.2429
994.902	24.0661
996.559	24.4276
998.216	24.3557
999.872	23.0944
1001.53	23.6913
1003.19	23.194
1004.84	22.574
1006.5	21.9239
1008.15	22.5827
1009.81	23.3525
1011.46	23.297
1013.11	22.1434
1014.77	21.8477
1016.42	22.014
1018.07	20.8432
1019.73	18.0395
1021.38	17.7514
1023.03	18.9005
1024.68	20.3134
1026.34	20.8071
1027.99	22.8627
1029.64	24.9768
1031.29	25.4109
1032.94	26.3343
1034.59	25.2403
1036.24	25.6886
1037.89	26.009
1039.53	25.0118
1041.18	24.8788
1042.83	26.1681
1044.48	29.1641
1046.13	31.1479
1047.77	32.5274
1049.42	32.5997
1051.07	35.0101
1052.71	34.5165
1054.36	34.9595
1056	33.4374
1057.65	32.7515
1059.3	32.4095
1060.94	32.8014
1062.59	34.6877
1064.23	33.8551
1065.87	33.9868
1067.52	33.9855
1069.16	34.8428
1070.8	35.7232
1072.44	36.0398
1074.09	36.7752
1075.73	37.0739
1077.37	37.0005
1079.01	37.4774
1080.65	36.8442
1082.29	36.7202
1083.93	37.7693
1085.57	36.5822
1087.21	35.1509
1088.85	34.3402
1090.49	34.7604
1092.13	33.4773
1093.77	32.9451
1095.41	33.3534
1097.04	33.6305
1098.68	33.4552
1100.32	33.0195
1101.95	32.7922
1103.59	35.0108
1105.23	35.1446
1106.86	34.9763
1108.5	35.3038
1110.13	35.2224
1111.77	34.4176
1113.4	34.0514
1115.04	33.8666
1116.67	31.8311
1118.31	30.5723
1119.94	29.2539
1121.57	28.7062
1123.2	28.2114
1124.84	27.9075
1126.47	27.6361
1128.1	25.7544
1129.73	25.3938
1131.36	22.9876
1132.99	21.2247
1134.62	19.5296
1136.25	17.8115
1137.88	16.4731
1139.51	16.6222
1141.14	16.242
1142.77	16.475
1144.4	15.0142
1146.03	14.2924
1147.66	13.478
1149.28	12.6321
1150.91	12.3355
1152.54	12.1178
1154.16	10.9566
1155.79	9.33
1157.42	9.06167
1159.04	7.90354
1160.67	6.75965
1162.29	5.24459
1163.92	3.90308
1165.54	2.12941
1167.17	-0.231355
1168.79	-0.948711
1170.41	-0.937562
1172.04	-0.792701
1173.66	-1.12671
1175.28	-0.746235
1176.9	0.17176
1178.53	-0.29212
1180.15	0.442733
1181.77	-0.35365
1183.39	-0.836438
1185.01	-0.485866
1186.63	0.127263
1188.25	1.85082
1189.87	4.1135
1191.49	5.16379
1193.11	5.20487
1194.73	6.23455
1196.35	7.20505
1197.96	7.64921
1199.58	10.0919
1201.2	12.2568
1202.82	14.8029
1204.43	16.6401
1206.05	18.1509
1207.66	20.8783
1209.28	22.8314
1210.9	25.029
1212.51	27.7304
1214.13	30.7765
1215.74	32.8693
1217.36	35.6749
1218.97	38.2866
1220.58	41.6482
1222.2	45.3435
1223.81	48.8422
1225.42	50.9822
1227.04	53.9477
1228.65	54.242
1230.26	56.3276
1231.87	58.3066
1233.48	59.5921
1235.1	61.4189
1236.71	63.8468
1238.32	67.0553
1239.93	68.5668
1241.53	70.1001
1243.14	72.3121
1244.75	73.9967
1246.36	74.6452
1247.97	76.625
1249.58	79.6478
1251.19	81.2782
1252.8	83.465
1254.4	83.1471
1256.01	84.6368
1257.62	86.4014
1259.22	87.9897
1260.83	89.9804
1262.43	90.8263
1264.04	93.3034
1265.64	96.9609
1267.25	100.879
1268.85	101.438
1270.46	103.562
1272.06	105.238
1273.66	106.785
1275.27	110.438
1276.87	113.737
1278.48	116.036
1280.08	119.218
1281.68	120.159
1283.28	122.82
1284.88	124.483
1286.48	126.85
1288.08	129.427
1289.68	130.941
1291.28	133.164
1292.88	134.643
1294.48	136.013
1296.08	137.877
1297.68	139.969
1299.28	140.059
1300.88	140.895
1302.48	142.088
1304.07	142.003
1305.67	141.787
1307.27	142.267
1308.87	141.435
1310.46	143.187
1312.06	142.692
1313.65	143.109
1315.25	144.391
1316.85	144.768
1318.44	144.554
1320.03	143.552
1321.63	141.129
1323.22	140.083
1324.82	137.893
1326.41	135.428
1328	134.431
1329.6	132.432
1331.19	129.419
1332.78	126.525
1334.37	124.215
1335.96	123.165
1337.56	122.234
1339.15	122.258
1340.74	121.221
1342.33	120.322
1343.92	119.392
1345.51	117.736
1347.1	114.943
1348.69	113.667
1350.28	114.326
1351.86	112.757
1353.45	110.635
1355.04	110.75
1356.63	109.277
1358.21	106.414
1359.8	104.768
1361.39	102.276
1362.97	102.128
1364.56	100.365
1366.15	99.442
1367.73	97.6354
1369.32	95.9319
1370.9	95.4551
1372.49	94.8857
1374.07	94.0261
1375.65	92.1306
1377.24	91.0579
1378.82	90.7349
1380.41	91.4682
1381.99	92.1074
1383.57	91.4667
1385.15	92.1447
1386.73	91.155
1388.32	89.8421
1389.9	89.9212
1391.48	89.5285
1393.06	90.5596
1394.64	90.4761
1396.22	90.2072
1397.8	90.6761
1399.38	91.055
1400.96	91.586
1402.54	94.2215
1404.11	96.3249
1405.69	99.7179
1407.27	102.632
1408.85	105.782
1410.43	109.973
1412	114.224
1413.58	120.75
1415.16	126.171
1416.73	132.761
1418.31	137.955
1419.88	143.167
1421.46	148.565
1423.03	154.247
1424.61	160.999
1426.18	167.803
1427.76	175.475
1429.33	181.46
1430.9	186.772
1432.48	193.913
1434.05	200.724
1435.62	204.23
1437.2	208.885
1438.77	213.977
1440.34	217.665
1441.91	221.863
1443.48	223.15
1445.05	226.051
1446.62	228.057
1448.19	229.445
1449.76	229.471
1451.33	228.294
1452.9	225.328
1454.47	224.207
1456.04	222.816
1457.61	220.208
1459.17	216.041
1460.74	211.903
1462.31	208.28
1463.88	204.024
1465.44	198.791
1467.01	192.741
1468.58	186.493
1470.14	180.268
1471.71	173.681
1473.27	166.349
1474.84	159.667
1476.4	153.433
1477.97	146.542
1479.53	139.665
1481.1	134.397
1482.66	129.266
1484.22	123.326
1485.78	116.787
1487.35	110.994
1488.91	105.391
1490.47	100.565
1492.03	95.5106
1493.59	89.8847
1495.16	85.3286
1496.72	80.929
1498.28	76.7214
1499.84	73.0608
1501.4	70.385
1502.96	68.2027
1504.52	64.9133
1506.08	64.2711
1507.64	62.49
1509.19	60.3382
1510.75	57.5146
1512.31	54.6513
1513.87	52.1607
1515.42	51.035
1516.98	50.2467
1518.54	48.9498
1520.1	48.1794
1521.65	46.8642
1523.21	46.2367
1524.76	45.6914
1526.32	44.3714
1527.87	44.0485
1529.43	44.4576
1530.98	43.299
1532.54	44.1915
1534.09	44.9547
1535.64	45.5949
1537.2	46.3063
1538.75	48.6952
1540.3	50.9362
1541.85	52.2828
1543.41	52.8167
1544.96	53.6307
1546.51	54.8861
1548.06	56.4276
1549.61	58.3499
1551.16	59.0835
1552.71	60.0125
1554.26	61.8111
1555.81	64.2066
1557.36	65.4766
1558.91	67.2308
1560.46	68.9897
1562.01	69.7986
1563.56	71.6279
1565.1	73.8969
1566.65	75.5001
1568.2	77.2513
1569.75	79.2939
1571.29	81.552
1572.84	83.5097
1574.38	85.2268
1575.93	87.1926
1577.48	90.3695
1579.02	93.4115
1580.57	95.2453
1582.11	96.816
1583.65	99.6649
1585.2	100.332
1586.74	101.679
1588.29	102.716
1589.83	104.396
1591.37	105.86
1592.92	107.954
1594.46	109.841
1596	109.706
1597.54	110.38
1599.08	111.119
1600.62	110.856
1602.16	111.101
1603.7	109.802
1605.24	109.639
1606.78	108.4
1608.32	106.645
1609.86	106.814
1611.4	106.491
1612.94	106.126
1614.48	104.43
1616.02	103.053
1617.56	101.606
1619.09	100.327
1620.63	98.8911
1622.17	98.5152
1623.71	97.3827
1625.24	97.43
1626.78	98.1362
1628.31	98.4465
1629.85	98.213
1631.39	100.158
1632.92	100.552
1634.46	101.076
1635.99	102.801
1637.52	104.826
1639.06	105.865
1640.59	106.824
1642.12	107.988
1643.66	108.468
1645.19	110.42
1646.72	112.972
1648.25	114.583
1649.79	115.895
1651.32	117.489
1652.85	118.684
1654.38	118.106
1655.91	119.438
1657.44	118.471
1658.97	118.814
1660.5	118.286
1662.03	117.511
1663.56	116.31
1665.09	114.977
1666.62	113.987
1668.15	113.083
1669.67	111.473
1671.2	108.294
1672.73	105.424
1674.26	101.712
1675.79	98.806
1677.31	92.9098
1678.84	89.49
1680.36	84.4257
1681.89	80.6688
1683.42	75.7446
1684.94	70.7307
1686.47	65.5602
1687.99	61.375
1689.51	56.6852
1691.04	51.4268
1692.56	47.5358
1694.08	44.2396
1695.61	41.4777
1697.13	38.2148
1698.65	35.3207
1700.18	33.0693
1701.7	31.0214
1703.22	28.8324
1704.74	27.2314
1706.26	24.4023
1707.78	23.6422
1709.3	21.3023
1710.82	20.854
1712.35	19.5581
1713.86	18.63
1715.39	16.6481
1716.9	15.4436
1718.42	15.4473
1719.94	15.0975
1721.46	15.5658
1722.98	15.9767
1724.5	15.9523
1726.01	15.3929
1727.53	15.5496
1729.05	15.156
1730.56	14.8967
1732.08	16.5091
1733.6	16.0098
1735.11	15.8992
1736.63	14.9977
1738.14	15.5586
1739.66	15.7518
1741.17	15.7413
1742.69	14.5008
1744.2	13.8851
1745.71	13.058
1747.23	13.0113
1748.74	12.5383
1750.25	11.2104
1751.77	11.2442
1753.28	10.0496
1754.79	10.9435
1756.3	9.56781
1757.81	9.21983
1759.33	8.21022
1760.84	7.48278
1762.35	6.9015
1763.86	7.18929
1765.37	6.11348
1766.88	5.39431
1768.39	5.06362
1769.9	4.88958
1771.41	4.70604
1772.91	3.89787
1774.42	3.61916
1775.93	3.93607
1777.44	3.86638
1778.95	3.27157
1780.45	3.70811
1781.96	2.94498
1783.47	3.28514
1784.97	3.02756
1786.48	2.90557
1787.99	2.51713
1789.49	2.25585
1791	1.85757
1792.5	3.33205
1794.01	4.39392
1795.51	5.23411
1797.01	6.05756
1798.52	6.34865
1800.02	6.53455
1801.52	6.5877
1803.03	6.9552
1804.53	7.26227
1806.03	7.58433
1807.54	8.30061
1809.04	7.75196
1810.54	7.17521
1812.04	7.19053
1813.54	7.0249
1815.04	7.27019
1816.54	5.86955
1818.04	5.38839
1819.54	5.92727
1821.04	5.9748
1822.54	6.33483
1824.04	6.06957
1825.54	6.35305
1827.04	5.85099
1828.54	5.33366
1830.03	4.82658
1831.53	3.98975
1833.03	3.93809
1834.53	3.91234
1836.02	4.24572
1837.52	4.81969
1839.02	4.95257
1840.51	5.49585
1842.01	5.56874
1843.5	5.86786
1845	5.6974
1846.49	5.47965
1847.99	5.67185
1849.48	5.27667
1850.98	4.72693
1852.47	4.56031
1853.96	4.46381
1855.46	4.53649
1856.95	3.95831
1858.44	4.07842
1859.94	3.46528
1861.43	3.58856
1862.92	4.50052
1864.41	5.51123
1865.9	5.84644
1867.39	6.35003
1868.88	6.30158
1870.37	5.93774
1871.86	6.15241
1873.35	6.59346
1874.84	7.12756
1876.33	7.62572
1877.82	7.3498
1879.31	7.26746
1880.8	7.41805
1882.29	6.76833
1882.58	6.29019
1884.08	6.26672
1885.57	5.19255
1887.06	5.19976
1888.56	5.10583
1890.05	4.07923
1891.54	3.6754
1893.04	3.70385
1894.53	3.06157
1896.02	3.39978
1897.51	2.23146
1899	1.36316
1900.5	0.540456
1901.99	0.604413
1903.48	0.776606
1904.97	1.42839
1906.46	1.83515
1907.95	1.9349
1909.44	3.02852
1910.93	4.01602
1912.42	3.55957
1913.91	4.10922
1915.4	3.46434
1916.88	3.65983
1918.37	3.27366
1919.86	4.37088
1921.35	4.47473
1922.84	3.98535
1924.32	4.09202
1925.81	4.61203
1927.3	4.4098
1928.78	4.33652
1930.27	4.9368
1931.75	5.83385
1933.24	5.26031
1934.72	6.44195
1936.21	7.40429
1937.69	7.00693
1939.18	6.00662
1940.66	5.99392
1942.15	6.05608
1943.63	5.90188
1945.11	5.34274
1946.6	5.51413
1948.08	5.27429
1949.56	5.27909
1951.04	4.64365
1952.53	4.92712
1954.01	4.76897
1955.49	4.09128
1956.97	4.95913
1958.45	4.69838
1959.93	3.99003
1961.41	3.9646
1962.89	2.91241
1964.37	2.13606
1965.85	1.71805
1967.33	1.74466
1968.81	1.07836
1970.29	1.48608
1971.77	0.404811
1973.24	0.596457
1974.72	0.547859
1976.2	0.350007
1977.68	1.06141
1979.15	1.08928
1980.63	1.45796
1982.11	2.20333
1983.58	2.23679
1985.06	2.36652
1986.53	1.37779
1988.01	2.16712
1989.48	2.69251
1990.96	2.96954
1992.43	3.19415
1993.91	3.17878
1995.38	3.06947
1996.86	4.41467
1998.33	5.0571
1999.8	4.88624
2001.27	4.52394
2002.75	4.25331
2004.22	4.92074
2005.69	4.36297
2007.16	4.14371
2008.64	5.56002
2010.11	5.23612
2011.58	5.0266
2013.05	4.69517
2014.52	4.83258
2015.99	5.10043
2017.46	5.27671
2018.93	5.19307
2020.4	6.66848
2021.87	6.8639
2023.34	7.01944
2024.8	7.3504
2026.27	7.26258
2027.74	7.22588
2029.21	7.65909
2030.68	7.78338
2032.14	7.36952
2033.61	6.44894
2035.08	6.44875
2036.54	7.15552
2038.01	7.3537
2039.48	7.05508
2040.94	6.65951
2042.41	6.76217
2043.87	6.7421
2045.34	6.20386
2046.8	7.51628
2048.27	7.79919
2049.73	8.16816
2051.19	8.5113
2052.66	7.8569
2054.12	8.07459
2055.58	8.2368
2057.05	7.78909
2058.51	8.35725
2059.97	7.59171
2061.43	7.86882
2062.9	7.7532
2064.36	7.21094
2065.82	7.7838
2067.28	7.60491
2068.74	8.72195
2070.2	8.22564
2071.66	6.80919
2073.12	6.09381
2074.58	5.99637
2076.04	6.66751
2077.5	8.12493
2078.95	7.51504
2080.41	7.90639
2081.87	8.4971
2083.33	8.48068
2084.79	9.28155
2086.24	9.44089
2087.7	10.4944
2089.16	11.0145
2090.61	11.3795
2092.07	11.592
2093.53	12.5794
2094.98	13.299
2096.44	13.7803
2097.89	15.3586
2099.35	15.9841
2100.8	17.3304
2102.26	18.4081
2103.71	18.9218
2105.16	20.1146
2106.62	20.622
2108.07	21.3916
2109.53	22.1703
2110.98	21.9385
2112.43	22.2277
2113.88	23.5732
2115.33	24.5189
2116.79	25.1498
2118.24	26.0978
2119.69	27.3321
2121.14	26.9957
2122.59	28.2472
2124.04	29.1529
2125.49	30.4753
2126.94	31.5341
2128.39	33.1577
2129.84	33.766
2131.29	34.8028
2132.74	36.1246
2134.19	37.7528
2135.63	39.3956
2137.08	40.6122
2138.53	41.8571
2139.98	43.2067
2141.43	45.5163
2142.87	47.9018
2144.32	50.4948
2145.77	53.0112
2147.21	55.2028
2148.66	56.9865
2150.1	58.8427
2151.55	59.879
2152.99	62.6542
2154.44	65.1154
2155.88	66.393
2157.33	68.3859
2158.77	69.7743
2160.21	71.1671
2161.66	72.2032
2163.1	73.6364
2164.55	74.9175
2165.99	76.6248
2167.43	77.7952
2168.87	78.7231
2170.31	79.2555
2171.76	78.9692
2173.2	79.5466
2174.64	79.8727
2176.08	79.5738
2177.52	78.74
2178.96	78.0849
2180.4	77.1038
2181.84	76.8419
2183.28	76.098
2184.72	76.0523
2186.16	74.4889
2187.6	73.1038
2189.04	71.2333
2190.47	70.0258
2191.91	68.6386
2193.35	67.3323
2194.79	66.2534
2196.23	64.3586
2197.66	62.753
2199.1	61.3925
2200.54	59.8969
2201.97	58.3701
2203.41	56.8752
2204.84	55.6211
2206.28	54.0584
2207.71	52.9861
2209.15	51.541
2210.58	50.3506
2212.02	49.5743
2213.45	48.6358
2214.89	47.5386
2216.32	45.5575
2217.75	43.531
2219.19	42.2391
2220.62	40.8238
2222.05	39.3516
2223.48	38.1214
2224.92	36.8468
2226.35	34.1974
2227.78	32.2777
2229.21	31.2782
2230.64	29.7274
2232.07	28.0926
2233.5	27.4446
2234.93	26.3686
2236.36	25.0021
2237.79	23.7479
2239.22	22.9118
2240.65	21.4963
2242.08	20.8955
2243.51	20.7749
2244.94	20.5308
2246.37	19.6391
2247.79	18.715
2249.22	17.6602
2250.65	17.5093
2252.08	16.256
2253.5	15.6261
2254.93	14.5157
2256.36	14.349
2257.78	12.5086
2259.21	12.3782
2260.63	11.7441
2262.06	11.4016
2263.48	10.9274
2264.91	10.7875
2266.33	9.97577
2267.76	9.67612
2269.18	9.53683
2270.6	8.70649
2272.03	8.00011
2273.45	8.42949
2274.87	8.09
2276.3	7.50909
2277.72	6.97626
2279.14	7.17766
2280.56	6.84531
2281.98	6.15441
2283.41	6.5632
2284.83	6.28031
2286.25	6.57893
2287.67	5.40442
2289.09	5.46035
2290.51	5.67274
2291.93	4.8474
2293.35	3.89983
2294.77	3.58169
2296.19	3.19093
2297.61	3.39424
2299.02	4.27885
2300.44	4.54299
2301.86	4.70426
2303.28	4.70722
2304.7	5.1574
2306.11	5.14221
2307.53	6.0205
2308.95	6.19759
2310.36	6.05954
2311.78	6.38205
2313.2	7.30777
2314.61	7.43848
2316.03	7.04672
2317.44	7.52194
2318.86	7.6124
2320.27	7.50138
2321.69	8.2338
2323.1	7.8966
2324.51	8.50726
2325.93	8.81715
2327.34	9.02854
2328.76	7.55279
2330.17	7.02336
2331.58	6.78928
2332.99	6.2248
2334.41	5.49998
2335.82	4.52442
2337.23	4.08546
2338.64	4.19843
2340.05	4.20063
2341.46	4.3143
2342.87	4.3877
2344.28	3.93709
2345.69	3.04751
2347.1	2.42585
2348.51	2.13265
2349.92	2.31957
2351.33	1.5161
2352.74	0.54339
2354.15	0.58547
2355.56	0.332667
2356.97	1.00384
2358.37	-0.0299678
2359.78	0.372486
2361.19	0.200201
2362.6	-0.515148
2364	-0.831435
2365.41	-1.09757
2366.82	-1.18207
2368.22	-1.01252
2369.63	-2.10755
2371.03	-2.17963
2372.44	-1.90746
2373.84	-1.07954
2375.25	-0.258905
2376.65	-0.273438
2378.06	-0.132193
2379.46	-0.485376
2380.86	-0.0820038
2382.27	1.25153
2383.67	1.67125
2385.07	1.86976
2386.48	1.58875
2387.88	2.12788
2389.28	2.44781
2390.69	3.09606
2392.09	3.36085
2393.49	3.47126
2394.89	3.51583
2396.29	3.22787
2397.69	2.84252
2399.09	2.96241
2400.49	3.05534
2401.89	3.14302
2403.29	2.67693
2404.69	2.68483
2406.09	3.0209
2407.49	4.08335
2408.89	4.01893
2410.29	4.59727
2411.69	4.67628
2413.08	3.80599
2414.48	4.03883
2415.88	4.05272
2417.28	4.82688
2418.67	5.45978
2420.07	6.48368
2421.47	6.82902
2422.86	7.29313
2424.26	7.87274
2425.65	8.1787
2427.05	7.6957
2428.45	6.4271
2429.84	6.22584
2431.23	6.29312
2432.63	5.45877
2434.02	5.19433
2435.42	5.33875
2436.81	5.85098
2438.2	6.63876
2439.6	7.05839
2440.99	8.08829
2442.38	8.75288
2443.78	8.46701
2445.17	8.49805
2446.56	8.89617
2447.95	8.9467
2449.34	9.22228
2450.73	9.11488
2452.13	9.41058
2453.52	8.78343
2454.91	8.65881
2456.3	8.46501
2457.69	8.48023
2459.08	8.85217
2460.47	8.34979
2461.85	7.75137
2463.24	7.88749
2464.63	6.70272
2466.02	6.14501
2467.41	5.66252
2468.8	5.60995
2470.19	3.89583
2471.57	3.33071
2472.96	2.88539
2474.35	2.54018
2475.73	2.77368
2477.12	3.27693
2478.51	2.78224
2479.89	3.12942
2481.28	3.76868
2482.66	3.45591
2484.05	3.53356
2485.43	2.91593
2486.82	3.20089
2488.2	3.40232
2489.59	2.92815
2490.97	2.64789
2492.35	2.54695
2493.74	1.94982
2495.12	2.04744
2496.5	1.40126
2497.89	1.50209
2499.27	1.73891
2500.65	1.83335
2502.03	2.03386
2503.42	2.18493
2504.8	3.01512
2506.18	2.94584
2507.56	3.1103
2508.94	3.69222
2510.32	3.25581
2511.7	3.36312
2513.08	3.06665
2514.46	4.49394
2515.84	3.88846
2517.22	3.94184
2518.6	4.51785
2519.98	4.63243
2521.36	4.4777
2522.73	4.14564
2524.11	4.44338
2525.49	4.6615
2526.87	4.95239
2528.25	5.2312
2529.62	5.103
2531	5.8158
2532.38	6.51585
2533.75	5.9339
2535.13	6.21801
2536.5	6.75267
2537.88	7.17854
2539.25	7.03589
2540.63	8.37823
2542.01	8.90958
2543.38	9.53686
2544.75	10.359
2546.13	10.8618
2547.5	11.3871
2548.88	12.5359
2550.25	13.2971
2551.62	13.2152
2553	13.343
2554.37	13.5566
2555.74	14.2005
2557.11	14.8743
2558.49	14.7752
2559.86	15.1408
2561.23	15.0007
2562.6	14.5146
2563.97	14.9082
2565.34	14.0672
2566.71	14.5489
2568.08	14.2305
2569.45	13.9705
2570.82	13.8269
2572.19	12.666
2573.56	12.1105
2574.93	11.4627
2576.3	11.7954
2577.67	11.6963
2579.03	11.4102
2580.4	11.1994
2581.77	11.0496
2583.14	11.1451
2584.5	10.5963
2585.87	10.6908
2587.24	10.1182
2588.6	9.64347
2589.97	8.85983
2591.34	8.90297
2592.7	9.00751
2594.07	9.20928
2595.43	8.84529
2596.8	8.23327
2598.16	8.30825
2599.53	7.8591
2600.89	7.42746
2602.26	6.86073
2603.62	7.17959
2604.98	7.64027
2606.35	7.36891
2607.71	7.06832
2609.07	6.69661
2610.44	6.29557
2611.8	6.69663
2613.16	7.42494
2614.52	8.30544
2615.88	8.88328
2617.25	8.79759
2618.61	8.98726
2619.97	8.54226
2621.33	8.03928
2622.69	7.8855
2624.05	8.0329
2625.41	8.75156
2626.77	8.89263
2628.13	8.90679
2629.49	9.02452
2630.85	9.31059
2632.21	9.29925
2633.56	8.80224
2634.92	9.0901
2636.28	8.38699
2637.64	8.09444
2639	8.10418
2640.35	8.4188
2641.71	8.88243
2643.07	10.0999
2644.42	10.5775
2645.78	10.5836
2647.14	11.2672
2648.49	11.4253
2649.85	12.3815
2651.2	12.6581
2652.56	12.831
2653.91	12.7557
2655.27	13.4217
2656.62	13.5701
2657.98	13.8225
2659.33	14.3531
2660.68	14.2344
2662.04	14.6547
2663.39	14.7231
2664.74	14.7599
2666.1	16.0376
2667.45	16.724
2668.8	17.2814
2670.15	17.5643
2671.5	17.2082
2672.86	17.4574
2674.21	16.8219
2675.56	17.0111
2676.91	17.1517
2678.26	17.8458
2679.61	17.7431
2680.96	17.9704
2682.31	17.9023
2683.66	17.5371
2685.01	17.224
2686.36	17.4868
2687.71	16.4536
2689.06	17.0033
2690.4	16.9167
2691.75	17.8034
2693.1	18.3562
2694.45	18.5643
2695.8	18.7906
2697.14	18.8541
2698.49	18.8982
2699.84	19.0942
2701.18	19.7175
2702.53	20.6049
2703.88	21.3251
2705.22	22.6639
2706.57	23.458
2707.91	24.3004
2709.26	25.2639
2710.6	26.8371
2711.95	27.2218
2713.29	27.9903
2714.64	28.8283
2715.98	29.6008
2717.32	30.3305
2718.67	30.6737
2720.01	31.1436
2721.35	31.6624
2722.7	32.1163
2724.04	32.1544
2725.38	32.2788
2726.72	32.4947
2728.06	32.688
2729.4	33.3243
2730.75	32.9878
2732.09	33.1389
2733.43	32.9732
2734.77	32.0999
2736.11	30.9455
2737.45	29.637
2738.79	28.3107
2740.13	27.4588
2741.47	25.4343
2742.81	24.4908
2744.15	23.427
2745.48	22.5845
2746.82	20.599
2748.16	19.6052
2749.5	18.2589
2750.84	17.2864
2752.17	16.3272
2753.51	14.3372
2754.85	12.4904
2756.19	12.1368
2757.52	10.8477
2758.86	10.4797
2760.19	9.18772
2761.53	7.86311
2762.86	7.06459
2764.2	6.01236
2765.54	5.20461
2766.87	4.35264
2768.2	3.74997
2769.54	3.14561
2770.87	2.57981
2772.21	1.60647
2773.54	1.09725
2774.88	0.864294
2776.21	0.993101
2777.54	0.638909
2778.87	-0.607163
2780.21	-1.03612
2781.54	-0.901263
2782.87	-0.925579
2784.2	-0.925356
2785.53	-1.36596
2786.87	-1.45674
2788.2	-1.2532
2789.53	-1.18523
2790.86	-1.10898
2792.19	-0.422289
2793.52	-0.425787
2794.85	-0.692201
2796.18	-0.348016
2797.51	-1.1689
2798.84	-0.894931
2800.17	-1.03097
2801.49	-0.647392
2802.82	-0.963903
2804.15	-2.08002
2805.48	-2.28493
2806.81	-2.1958
2808.13	-2.82602
2809.46	-2.15009
2810.79	-2.69361
2812.12	-3.11236
2813.44	-3.21022
2814.77	-1.52498
2816.09	0.275053
2817.42	3.19749
2818.75	6.59023
2820.07	10.8024
2821.4	16.7949
2822.72	23.5395
2824.05	29.7726
2825.37	37.7507
2826.7	44.5341
2828.02	52.925
2829.35	61.7302
2830.67	70.525
2831.99	79.9587
2833.31	89.4723
2834.64	99.8863
2835.96	109.535
2837.28	119.874
2838.61	129.704
2839.93	140.211
2841.25	150.259
2842.57	160.452
2843.89	170.691
2845.21	181.465
2846.53	192.827
2847.85	203.935
2849.17	215.907
2850.49	228.474
2851.81	240.825
2853.13	253.269
2854.45	265.837
2855.77	278.556
2857.09	291.18
2858.41	303.043
2859.73	312.685
2861.05	323.503
2862.36	333.82
2863.68	343.108
2865	352.461
2866.32	360.079
2867.64	366.44
2868.95	372.678
2870.27	378.065
2871.59	384.039
2872.9	388.933
2874.22	393.185
2875.53	397.855
2876.85	402.244
2878.16	407.424
2879.48	412.943
2880.79	418.193
2882.11	422.443
2883.42	427.789
2884.74	432.586
2886.05	437.075
2887.36	442.108
2888.68	446.131
2889.99	449.334
2891.3	452.779
2892.62	455.561
2893.93	458.988
2895.24	461.206
2896.55	464.95
2897.86	467.577
2899.18	470.24
2900.49	474.058
2901.8	477.506
2903.11	482.124
2904.42	486.197
2905.73	491.244
2907.04	497.343
2908.35	503.898
2909.66	511.245
2910.97	519.223
2912.28	527.686
2913.59	536.023
2914.9	545.537
2916.21	554.279
2917.51	561.079
2918.82	567.953
2920.13	574.921
2921.44	581.227
2922.74	585.79
2924.05	588.503
2925.36	589.832
2926.67	592.321
2927.97	593.525
2929.28	592.136
2930.59	590.066
2931.89	586.904
2933.2	583.892
2934.5	580.006
2935.81	574.642
2937.11	569.337
2938.42	563.169
2939.72	555.993
2941.02	547.725
2942.33	539.006
2943.63	529.476
2944.94	519.447
2946.24	509.123
2947.54	497.933
2948.85	486.461
2950.15	474.841
2951.45	462.426
2952.75	450.439
2954.05	437.577
2955.36	424.581
2956.66	411.612
2957.96	400.516
2959.26	387.906
2960.56	376.16
2961.86	365.222
2963.16	353.765
2964.46	343.664
2965.76	333.96
2967.06	323.926
2968.36	314.833
2969.66	305.706
2970.96	296.903
2972.26	288.703
2973.56	279.918
2974.85	271.565
2976.15	263.332
2977.45	254.855
2978.75	245.646
2980.05	237.306
2981.34	228.333
2982.64	218.853
2983.94	210.102
2985.23	201.352
2986.53	192.122
2987.83	181.564
2989.12	171.415
2990.42	162.224
2991.71	153.901
2993.01	144.83
2994.3	135.147
2995.6	126.679
2996.89	118.038
2998.19	109.918
2999.48	101.898
3000.77	94.4538
3002.07	87.8418
3003.36	80.5858
3004.65	73.4466
3005.95	66.5015
3007.24	60.359
3008.53	54.2792
3009.82	48.4442
3011.12	42.6787
3012.41	36.9126
3013.7	32.0327
3014.99	28.2676
3016.28	24.0745
3017.57	20.5364
3018.86	16.5106
3020.15	13.0935
3021.44	10.2894
3022.73	8.21035
3024.02	5.19621
3025.31	3.88786
3026.6	2.3545
3027.89	1.02383
3029.18	0.0744198
3030.47	-0.559257
3031.76	-1.26777
3033.04	-0.966207
3034.33	-1.01581
3035.62	-0.463911
3036.91	-0.512016
3038.19	0.110051
3039.48	1.0274
3040.77	1.34489
3042.05	2.2868
3043.34	3.05347
3044.63	4.31974
3045.91	5.13675
3047.2	6.04168
3048.48	6.69308
3049.77	7.78562
3051.05	8.95499
3052.34	9.37043
3053.62	10.9929
3054.91	12.1377
3056.19	12.594
3057.48	12.7315
3058.76	12.9627
3060.04	12.6109
3061.33	13.3514
3062.61	13.775
3063.89	14.0274
3065.17	13.709
3066.46	13.4532
3067.74	13.0195
3069.02	12.8323
3070.3	11.4335
3071.59	10.8821
3072.87	10.5941
3074.15	10.3985
3075.43	9.66381
3076.71	9.32744
3077.99	8.52971
3079.27	7.65202
3080.55	6.59389
3081.83	5.76972
3083.11	4.93164
3084.39	4.36239
3085.67	4.12693
3086.94	3.59762
3088.22	3.22693
3089.5	2.99882
3090.78	3.43055
3092.06	3.18827
3093.34	3.77751
3094.61	3.86438
3095.89	3.68498
3097.17	4.2214
3098.44	4.31307
3099.72	5.12824
3101	5.07031
3102.27	6.29604
3103.55	6.54777
3104.82	6.87326
3106.1	8.248
3107.38	8.94085
3108.65	10.204
3109.93	11.6431
3111.2	13.1685
3112.47	14.1344
3113.75	15.2518
3115.02	16.3137
3116.3	16.4667
3117.57	17.9286
3118.84	18.5077
3120.12	19.5268
3121.39	20.5578
3122.66	21.8937
3123.93	23.0643
3125.2	24.8422
3126.48	25.7852
3127.75	26.862
3129.02	28.0899
3130.29	29.6594
3131.56	31.4033
3132.83	32.7465
3134.1	33.8713
3135.37	36.2947
3136.64	38.257
3137.91	39.5157
3139.18	41.114
3140.45	43.0574
3141.72	44.7964
3142.99	46.8587
3144.26	48.9538
3145.53	51.1342
3146.8	53.6512
3148.07	56.0392
3149.33	57.8119
