#Acq. time (s)=	45
#Accumulations=	2
#Range (cm-¹)=	200...3150
#Windows=	2
#Auto scanning=	Off
#Autofocus=	Off
#Macrospot=	Off
#AutoExposure=	Off
#Spike filter=	Multiple accum.
#Delay time (s)=	0
#Binning=	1
#Readout mode=	Signal
#DeNoise=	Off
#ICS correction=	On
#Dark correction=	Off
#Inst. Process=	Off
#Detector Gain=	Best Dynamic Range
#Detector ADC=	20 kHz       
#Detector temperature (°C)=	-69.85
#Instrument=	LabRAM HR Evol
#Detector=	Synapse
#Objective=	x100
#Grating=	600 gr/mm
#ND Filter=	100%
#Laser (nm)=	532 
#Hole=	100.021
#Range=	Auto
#Laser Pol.=	No
#Raman. Pol.=	No
#Laser Pol. (°)=	-0.0007625
#Raman Pol. (°)=	89.9995
#Collection=	Microscope
#StageXY=	Marzhauser
#StageZ=	Marzhauser
#X (µm)=	-1170.7
#Y (µm)=	1261.6
#Z (µm)=	578.2
#Full time(mm:ss)=	3:18
#Project=	
#Sample=	
#Site=	
#Title=	Mbcal_20_25_19_2x_45s_532 nm_x100_100%_600 gr_mm
#Remark=	
#Date=	18.07.2022 10:49
#Acquired=	18.07.2022 10:49:06
#Base:Fit=	10.08.2022 10:55:08
#Base:Sub=	10.08.2022 10:55:14
#Filter:Polynom=	16.08.2022 10:07:28
#AxisType[0]=Intens
#AxisUnit[0]=Cnt
#AxisType[1]=Spectr
#AxisUnit[1]=1/cm
200.419	13.8636
202.234	13.9637
204.048	11.3945
205.862	9.17445
207.678	7.69401
209.491	6.42154
211.304	5.51143
213.116	4.23729
214.928	3.65297
216.742	3.24918
218.554	3.69554
220.365	2.95534
222.176	3.50573
223.986	3.91867
225.798	3.36487
227.608	3.93477
229.417	3.87195
231.226	3.73894
233.035	3.49447
234.843	4.93641
236.653	5.31862
238.46	6.26667
240.268	7.0797
242.074	7.5006
243.881	7.10605
245.687	7.45488
247.493	7.81437
249.298	7.54242
251.103	7.78107
252.908	8.01938
254.715	9.00064
256.519	10.3597
258.322	10.7811
260.126	10.3947
261.929	10.1649
263.731	10.3684
265.534	11.4442
267.336	12.2392
269.137	12.0179
270.938	11.1968
272.739	9.85574
274.54	8.52963
276.34	8.24566
278.14	9.17127
279.939	8.54143
281.739	8.39307
283.537	7.26508
285.336	6.42199
287.134	5.37682
288.932	5.81899
290.729	5.9742
292.526	4.90912
294.323	5.70827
296.117	6.26595
297.913	6.52341
299.709	6.91121
301.504	6.64928
303.299	7.03189
305.093	8.39917
306.888	9.27288
308.682	10.0592
310.475	10.7762
312.268	11.0715
314.059	11.2176
315.852	11.2438
317.644	12.184
319.436	12.3635
321.227	12.4458
323.018	13.5542
324.807	15.0607
326.597	15.6085
328.387	16.1703
330.177	15.1056
331.967	14.424
333.753	13.9092
335.542	14.3334
337.331	13.5311
339.119	14.03
340.906	15.0618
342.691	14.7828
344.478	15.2372
346.265	15.6169
348.051	15.117
349.835	14.9254
351.621	14.0751
353.406	14.6562
355.189	13.9199
356.973	13.6542
358.757	12.2202
360.541	11.7341
362.323	11.591
364.106	11.7686
365.889	11.4921
367.669	12.3083
369.451	12.3327
371.233	12.8997
373.012	12.266
374.793	12.9318
376.574	12.4731
378.353	13.2114
380.133	13.3981
381.91	12.9546
383.69	14.8522
385.469	16.0519
387.245	16.4606
389.024	17.053
390.8	16.902
392.577	17.7596
394.353	17.2058
396.129	18.2406
397.906	19.2742
399.68	19.2378
401.456	17.9903
403.23	18.2345
405.005	18.7771
406.778	18.5196
408.552	18.4625
410.325	18.7213
412.099	19.9011
413.87	19.6036
415.643	19.236
417.414	17.9696
419.187	17.7551
420.957	18.5134
422.728	18.2801
424.498	17.9872
426.269	17.9625
428.038	18.9697
429.806	18.7401
431.576	17.7656
433.344	18.1131
435.114	17.94
436.881	17.3941
438.649	17.2303
440.416	16.9221
442.182	16.6213
443.949	15.8069
445.715	17.5169
447.48	17.4903
449.247	17.9724
451.011	18.5282
452.777	19.4114
454.541	18.9533
456.304	20.6914
458.069	21.6336
459.832	21.7266
461.594	22.2051
463.358	23.5967
465.119	22.4943
466.881	22.7529
468.642	23.9465
470.404	23.8868
472.165	24.6642
473.925	24.9536
475.684	24.1971
477.445	24.4729
479.204	24.402
480.963	25.0312
482.721	25.6701
484.481	26.5048
486.239	26.038
487.996	25.081
489.753	24.1678
491.511	25.0469
493.268	26.2999
495.023	25.5394
496.779	25.5951
498.534	25.6735
500.289	25.2517
502.046	25.056
503.8	25.7341
505.554	25.4576
507.307	26.2906
509.06	25.471
510.813	25.0656
512.566	25.3944
514.32	26.0657
516.072	26.4425
517.823	26.3452
519.574	25.2708
521.325	24.7371
523.076	23.9976
524.826	24.2763
526.576	24.1501
528.325	23.434
530.074	23.7694
531.823	25.1976
533.572	25.7139
535.32	25.5015
537.068	24.7507
538.815	25.3915
540.562	24.29
542.309	23.4637
544.056	23.477
545.802	21.5068
547.547	20.7743
549.293	19.296
551.038	18.1771
552.783	16.8767
554.527	16.1431
556.271	15.6773
558.015	14.3103
559.759	15.1667
561.502	14.7491
563.245	14.0565
564.987	14.3472
566.729	13.5439
568.471	12.5308
570.213	12.5739
571.954	11.6344
573.693	11.935
575.433	12.201
577.173	12.7789
578.913	12.9537
580.652	11.6991
582.392	10.8506
584.13	10.7791
585.867	11.2254
587.605	10.023
589.343	10.7093
591.08	10.7853
592.817	10.4037
594.552	11.2629
596.289	11.7315
598.025	13.1105
599.761	12.9979
601.496	13.9507
603.229	13.7884
604.964	14.0269
606.699	13.9064
608.433	13.7351
610.165	14.3738
611.898	15.3879
613.631	15.58
615.364	15.5236
617.095	16.2131
618.827	15.8232
620.559	14.7636
622.288	13.8022
624.02	12.7176
625.75	14.0914
627.479	13.3986
629.209	13.5437
630.939	14.2314
632.667	14.2243
634.396	15.2812
636.125	15.4245
637.851	16.2847
639.58	16.7552
641.305	17.1016
643.033	17.8023
644.76	19.1194
646.485	18.5907
648.212	18.4589
649.936	18.4795
651.662	17.9664
653.388	17.8092
655.111	18.3175
656.836	18.9207
658.558	18.6045
660.283	19.0635
662.005	18.5715
663.728	18.4037
665.45	16.9659
667.173	16.9853
668.893	17.568
670.616	17.7486
672.336	18.5973
674.057	19.2521
675.777	21.4286
677.498	22.4974
679.216	23.1545
680.937	23.9819
682.655	24.885
684.375	25.2319
686.092	25.7515
687.809	27.1275
689.528	27.0376
691.244	27.9377
692.962	28.5296
694.678	28.8995
696.393	29.348
698.111	29.9852
699.825	30.628
701.54	31.0486
703.256	32.0696
704.97	33.2922
706.685	34.8808
708.398	35.7874
710.111	37.1817
711.826	38.2903
713.538	39.2938
715.25	39.4442
716.961	40.956
718.675	40.4979
720.386	42.1667
722.096	42.9295
723.808	43.8504
725.518	44.7484
727.228	45.6504
728.937	45.9234
730.648	45.6619
732.357	45.5375
734.065	46.934
735.773	47.1229
737.483	47.3149
739.19	48.0918
740.897	48.8165
742.604	48.5712
744.31	49.7119
746.018	50.602
747.724	51.0461
749.429	52.8731
751.134	53.9258
752.839	54.8247
754.544	56.9775
756.248	59.2241
757.953	59.8617
759.657	60.5728
761.36	61.9765
763.063	62.9787
764.765	63.6916
766.468	65.2469
768.169	66.9327
769.871	68.4413
771.572	69.6578
773.273	69.9643
774.976	70.4272
776.676	71.2988
778.376	72.4932
780.075	72.9682
781.775	73.9445
783.474	75.2171
785.172	76.0915
786.871	76.5008
788.569	77.9302
790.266	78.7036
791.964	79.4432
793.661	79.8345
795.358	80.3097
797.054	81.5737
798.75	82.9066
800.446	83.2781
802.141	83.6387
803.834	83.6934
805.529	84.3308
807.224	84.5981
808.918	85.1939
810.612	85.1017
812.305	85.1588
813.998	84.6463
815.691	84.4773
817.384	83.2907
819.076	82.0719
820.766	81.6557
822.458	81.3095
824.149	81.1764
825.84	81.4906
827.531	81.2809
829.221	82.7326
830.909	82.1722
832.599	81.7854
834.288	82.5126
835.977	82.5719
837.666	82.3504
839.353	83.3603
841.041	83.0014
842.729	81.6705
844.416	81.838
846.103	82.61
847.788	81.8479
849.475	81.5839
851.161	80.9499
852.845	79.239
854.53	78.3473
856.216	76.7909
857.901	75.4522
859.583	74.3718
861.268	73.7268
862.952	72.921
864.633	72.714
866.317	72.2101
868	71.4774
869.681	69.9302
871.363	69.0588
873.045	68.2264
874.725	66.4865
876.406	65.8418
878.088	65.2775
879.767	63.2541
881.447	62.9826
883.125	61.8405
884.805	59.6916
886.483	57.702
888.162	56.41
889.841	55.2523
891.518	55.033
893.196	53.8929
894.872	53.7548
896.55	52.6606
898.225	52.5091
899.902	51.7998
901.577	51.364
903.254	52.2736
904.928	52.9431
906.604	53.2964
908.277	53.1097
909.952	54.0271
911.625	53.4476
913.3	53.3801
914.972	53.3332
916.646	54.4178
918.318	54.9427
919.991	54.39
921.662	54.2077
923.333	54.3846
925.005	53.7496
926.675	53.4437
928.347	53.7973
930.017	53.453
931.686	52.9022
933.357	51.6681
935.025	50.9964
936.693	50.2265
938.363	50.0197
940.031	48.7997
941.698	47.7765
943.367	47.7164
945.034	47.5518
946.7	46.7783
948.368	45.4392
950.034	44.5344
951.699	42.8374
953.367	40.2264
955.031	39.5022
956.696	38.7161
958.36	36.7001
960.026	35.0417
961.689	33.1948
963.353	31.3972
965.016	31.3312
966.68	30.0053
968.343	29.1926
970.005	29.0331
971.666	29.0115
973.328	30.3558
974.991	30.6198
976.652	30.7552
978.312	31.0969
979.972	30.9137
981.632	31.5002
983.292	31.2664
984.953	31.3353
986.612	30.6778
988.27	30.5425
989.929	29.6045
991.587	29.0432
993.244	29.0415
994.902	29.1976
996.559	30.0483
998.216	31.3052
999.872	31.4347
1001.53	30.7088
1003.19	31.2189
1004.84	31.8783
1006.5	31.8144
1008.15	32.6707
1009.81	33.5126
1011.46	33.3036
1013.11	33.7051
1014.77	34.5706
1016.42	35.5414
1018.07	36.3933
1019.73	36.5306
1021.38	36.6725
1023.03	36.7805
1024.68	37.1474
1026.34	38.1798
1027.99	37.5276
1029.64	37.7949
1031.29	37.6983
1032.94	37.5284
1034.59	35.8109
1036.24	35.3398
1037.89	34.5457
1039.53	33.2111
1041.18	31.0731
1042.83	31.296
1044.48	31.597
1046.13	31.2155
1047.77	31.3825
1049.42	31.2324
1051.07	30.7648
1052.71	30.3207
1054.36	30.2113
1056	29.3228
1057.65	28.5519
1059.3	27.8373
1060.94	27.8035
1062.59	26.922
1064.23	25.6625
1065.87	25.5545
1067.52	25.5354
1069.16	26.1204
1070.8	26.3236
1072.44	26.3039
1074.09	26.8916
1075.73	27.6823
1077.37	29.2425
1079.01	29.5226
1080.65	30.1526
1082.29	30.3253
1083.93	30.7224
1085.57	32.2675
1087.21	32.2424
1088.85	33.2678
1090.49	34.6756
1092.13	35.1524
1093.77	35.5799
1095.41	36.4768
1097.04	37.9762
1098.68	38.6894
1100.32	37.8626
1101.95	37.8535
1103.59	37.5624
1105.23	37.5559
1106.86	37.9322
1108.5	38.598
1110.13	38.1518
1111.77	37.1426
1113.4	36.05
1115.04	34.2936
1116.67	33.2517
1118.31	31.781
1119.94	29.8182
1121.57	28
1123.2	26.8696
1124.84	24.6799
1126.47	22.2687
1128.1	20.8949
1129.73	20.4898
1131.36	19.0923
1132.99	17.2482
1134.62	16.7818
1136.25	15.214
1137.88	12.9842
1139.51	12.7798
1141.14	12.194
1142.77	11.208
1144.4	10.2209
1146.03	9.96532
1147.66	10.0306
1149.28	9.6067
1150.91	9.34385
1152.54	7.58703
1154.16	6.98219
1155.79	6.29394
1157.42	6.32424
1159.04	6.1257
1160.67	6.02635
1162.29	5.68083
1163.92	4.52201
1165.54	4.03671
1167.17	5.0121
1168.79	5.05786
1170.41	5.6267
1172.04	5.46936
1173.66	5.68376
1175.28	6.06327
1176.9	6.36394
1178.53	7.21565
1180.15	6.9607
1181.77	7.33869
1183.39	8.61798
1185.01	9.70358
1186.63	11.0539
1188.25	11.385
1189.87	11.6167
1191.49	11.8883
1193.11	11.5269
1194.73	11.2897
1196.35	11.408
1197.96	11.206
1199.58	11.6672
1201.2	13.3441
1202.82	13.5382
1204.43	15.0534
1206.05	15.3863
1207.66	17.9188
1209.28	20.3415
1210.9	21.8517
1212.51	22.3513
1214.13	23.7753
1215.74	24.5966
1217.36	24.9428
1218.97	26.0382
1220.58	27.4816
1222.2	28.9287
1223.81	30.4509
1225.42	31.9388
1227.04	32.7173
1228.65	33.8573
1230.26	34.5361
1231.87	35.9052
1233.48	36.236
1235.1	37.9547
1236.71	39.0158
1238.32	40.7883
1239.93	41.4306
1241.53	42.1927
1243.14	42.3507
1244.75	43.8196
1246.36	46.4763
1247.97	47.9491
1249.58	48.4327
1251.19	49.4964
1252.8	50.4838
1254.4	51.4965
1256.01	52.7446
1257.62	54.2595
1259.22	55.2017
1260.83	55.7803
1262.43	56.2674
1264.04	56.8999
1265.64	56.489
1267.25	56.76
1268.85	56.7669
1270.46	57.381
1272.06	58.2158
1273.66	57.764
1275.27	58.1053
1276.87	60.1675
1278.48	61.071
1280.08	62.2107
1281.68	64.0151
1283.28	64.1582
1284.88	65.7048
1286.48	66.4506
1288.08	67.2661
1289.68	68.9993
1291.28	69.141
1292.88	69.0658
1294.48	69.9953
1296.08	70.0217
1297.68	71.951
1299.28	72.6698
1300.88	73.8464
1302.48	75.078
1304.07	75.1551
1305.67	74.653
1307.27	74.6596
1308.87	75.4723
1310.46	75.5277
1312.06	77.1912
1313.65	77.5657
1315.25	78.5092
1316.85	78.4599
1318.44	79.4493
1320.03	79.6176
1321.63	81.1453
1323.22	82.7722
1324.82	83.6651
1326.41	83.311
1328	82.6722
1329.6	82.7933
1331.19	82.6672
1332.78	82.2722
1334.37	81.256
1335.96	80.8555
1337.56	81.0646
1339.15	79.1504
1340.74	78.4084
1342.33	77.982
1343.92	77.0897
1345.51	76.0582
1347.1	75.6019
1348.69	74.7817
1350.28	73.1549
1351.86	72.1341
1353.45	70.6633
1355.04	69.99
1356.63	69.5357
1358.21	68.411
1359.8	66.3587
1361.39	65.6959
1362.97	64.6032
1364.56	63.2659
1366.15	61.3744
1367.73	60.2457
1369.32	58.9737
1370.9	56.2704
1372.49	55.5634
1374.07	55.0157
1375.65	53.8767
1377.24	53.2264
1378.82	51.2487
1380.41	50.4842
1381.99	49.6668
1383.57	49.0975
1385.15	49.2615
1386.73	49.8944
1388.32	50.3526
1389.9	50.4483
1391.48	51.9574
1393.06	51.5816
1394.64	51.6026
1396.22	51.234
1397.8	51.6898
1399.38	51.8985
1400.96	51.8753
1402.54	50.9923
1404.11	50.5305
1405.69	50.948
1407.27	51.5855
1408.85	52.5031
1410.43	53.6932
1412	55.4554
1413.58	56.92
1415.16	58.9551
1416.73	61.0105
1418.31	62.1308
1419.88	64.717
1421.46	66.5981
1423.03	68.8312
1424.61	71.0104
1426.18	73.803
1427.76	76.8216
1429.33	78.9291
1430.9	81.5503
1432.48	84.1086
1434.05	85.8902
1435.62	87.0945
1437.2	89.3
1438.77	90.4556
1440.34	92.3521
1441.91	94.2579
1443.48	95.5206
1445.05	96.1055
1446.62	97.296
1448.19	98.0964
1449.76	98.4641
1451.33	99.5585
1452.9	99.0377
1454.47	98.9661
1456.04	99.7947
1457.61	99.4566
1459.17	100.005
1460.74	100.131
1462.31	99.6019
1463.88	99.2578
1465.44	98.3594
1467.01	96.1059
1468.58	93.6493
1470.14	90.9948
1471.71	87.498
1473.27	84.2864
1474.84	81.1538
1476.4	78.782
1477.97	76.0406
1479.53	72.8148
1481.1	70.2414
1482.66	68.3025
1484.22	66.1553
1485.78	63.9435
1487.35	62.4799
1488.91	61.0651
1490.47	58.6684
1492.03	56.1062
1493.59	53.4512
1495.16	51.6879
1496.72	49.9556
1498.28	48.5772
1499.84	46.2048
1501.4	44.9403
1502.96	43.516
1504.52	43.1322
1506.08	41.6727
1507.64	39.7258
1509.19	38.2692
1510.75	37.0938
1512.31	35.3571
1513.87	34.1243
1515.42	34.6899
1516.98	33.2969
1518.54	32.6308
1520.1	32.0163
1521.65	31.1067
1523.21	30.3839
1524.76	29.9194
1526.32	29.4742
1527.87	29.4228
1529.43	29.9624
1530.98	30.1416
1532.54	30.9575
1534.09	31.2184
1535.64	31.76
1537.2	32.6753
1538.75	33.0669
1540.3	33.254
1541.85	34.0114
1543.41	34.1094
1544.96	33.2229
1546.51	33.7458
1548.06	34.7262
1549.61	35.5773
1551.16	36.5468
1552.71	37.0468
1554.26	37.9139
1555.81	39.1882
1557.36	39.9855
1558.91	40.6103
1560.46	41.0252
1562.01	41.4131
1563.56	41.7217
1565.1	42.0028
1566.65	41.5352
1568.2	40.8992
1569.75	41.5311
1571.29	41.8576
1572.84	42.6254
1574.38	42.9852
1575.93	43.9886
1577.48	44.0396
1579.02	45.2189
1580.57	45.9585
1582.11	46.4444
1583.65	45.6683
1585.2	46.1871
1586.74	46.2678
1588.29	46.9517
1589.83	47.2273
1591.37	47.5188
1592.92	48.3669
1594.46	47.8503
1596	47.0392
1597.54	47.2944
1599.08	47.3524
1600.62	46.8895
1602.16	46.9238
1603.7	47.8142
1605.24	48.2201
1606.78	48.0943
1608.32	48.1944
1609.86	48.6771
1611.4	48.6305
1612.94	49.4418
1614.48	48.8997
1616.02	49.5844
1617.56	49.3202
1619.09	49.7019
1620.63	49.5799
1622.17	49.6833
1623.71	51.0213
1625.24	51.9678
1626.78	52.836
1628.31	53.6518
1629.85	54.6299
1631.39	56.33
1632.92	57.9725
1634.46	58.1896
1635.99	58.8228
1637.52	60.2907
1639.06	62.1379
1640.59	63.4737
1642.12	64.7342
1643.66	65.5998
1645.19	66.9912
1646.72	68.1909
1648.25	69.7177
1649.79	70.9981
1651.32	72.2552
1652.85	73.0883
1654.38	73.2367
1655.91	73.3095
1657.44	73.7713
1658.97	73.0066
1660.5	72.0146
1662.03	71.8256
1663.56	70.7869
1665.09	69.609
1666.62	67.6665
1668.15	66.4136
1669.67	65.1572
1671.2	63.5278
1672.73	61.7718
1674.26	60.6356
1675.79	58.2569
1677.31	56.0495
1678.84	54.3237
1680.36	51.5272
1681.89	48.914
1683.42	46.4336
1684.94	43.1908
1686.47	40.861
1687.99	37.6354
1689.51	35.1688
1691.04	32.5953
1692.56	30.7969
1694.08	28.1547
1695.61	26.7595
1697.13	24.2746
1698.65	23.4749
1700.18	21.9458
1701.7	20.7977
1703.22	19.6557
1704.74	18.114
1706.26	17.4629
1707.78	16.3357
1709.3	15.3303
1710.82	14.0781
1712.35	13.1461
1713.86	12.4604
1715.39	11.2532
1716.9	10.1329
1718.42	9.0027
1719.94	8.74183
1721.46	8.3821
1722.98	8.35232
1724.5	8.67016
1726.01	7.37413
1727.53	6.72924
1729.05	5.58186
1730.56	4.24955
1732.08	3.55797
1733.6	2.87025
1735.11	1.89101
1736.63	2.20761
1738.14	1.94788
1739.66	1.32289
1741.17	1.24979
1742.69	1.2112
1744.2	1.72635
1745.71	1.84186
1747.23	1.68343
1748.74	1.19076
1750.25	0.789194
1751.77	0.616529
1753.28	0.949513
1754.79	1.25609
1756.3	1.13226
1757.81	1.73344
1759.33	1.58856
1760.84	1.62255
1762.35	1.86177
1763.86	2.09069
1765.37	2.51922
1766.88	2.79627
1768.39	3.07602
1769.9	3.24932
1771.41	3.62255
1772.91	3.94838
1774.42	4.27697
1775.93	4.18326
1777.44	4.80062
1778.95	5.02979
1780.45	5.07894
1781.96	5.04315
1783.47	4.92532
1784.97	4.99792
1786.48	4.53021
1787.99	4.73442
1789.49	4.82834
1791	4.98315
1792.5	4.87646
1794.01	4.26201
1795.51	4.62457
1797.01	4.27464
1798.52	4.45667
1800.02	4.09109
1801.52	3.67814
1803.03	3.83488
1804.53	3.60027
1806.03	3.63869
1807.54	4.35199
1809.04	4.18869
1810.54	4.31951
1812.04	3.88701
1813.54	2.58927
1815.04	2.28228
1816.54	2.34597
1818.04	2.19083
1819.54	2.76241
1821.04	2.75958
1822.54	2.78424
1824.04	2.96705
1825.54	3.22213
1827.04	3.4199
1828.54	3.58165
1830.03	3.68646
1831.53	3.42501
1833.03	3.74399
1834.53	3.04424
1836.02	3.2933
1837.52	3.17425
1839.02	3.77691
1840.51	3.57933
1842.01	3.66885
1843.5	4.16234
1845	4.28674
1846.49	4.19141
1847.99	4.45882
1849.48	4.26219
1850.98	5.0643
1852.47	5.05106
1853.96	4.98091
1855.46	4.8323
1856.95	4.87749
1858.44	5.6839
1859.94	5.67885
1861.43	5.79962
1862.92	6.11181
1864.41	6.43856
1865.9	5.98699
1867.39	6.49114
1868.88	6.22795
1870.37	6.72154
1871.86	7.44399
1873.35	7.71302
1874.84	7.45828
1876.33	7.61824
1877.82	6.89533
1879.31	6.80506
1880.8	6.21401
1882.29	5.89455
1882.58	5.10416
1884.08	4.96073
1885.57	5.06825
1887.06	4.95916
1888.56	4.91282
1890.05	5.03624
1891.54	5.24851
1893.04	5.01241
1894.53	4.97939
1896.02	5.33387
1897.51	5.60584
1899	5.58058
1900.5	5.68172
1901.99	5.65755
1903.48	5.585
1904.97	4.68469
1906.46	4.09908
1907.95	3.88607
1909.44	3.93336
1910.93	3.57016
1912.42	3.77551
1913.91	3.78146
1915.4	3.45297
1916.88	3.75269
1918.37	3.52127
1919.86	3.64293
1921.35	3.87096
1922.84	4.07142
1924.32	3.60683
1925.81	3.30922
1927.3	3.85949
1928.78	3.83193
1930.27	3.53443
1931.75	3.14281
1933.24	2.85555
1934.72	2.85467
1936.21	2.60165
1937.69	2.37469
1939.18	1.81926
1940.66	2.40387
1942.15	1.579
1943.63	1.51319
1945.11	1.89794
1946.6	1.19483
1948.08	0.922774
1949.56	0.988838
1951.04	1.31653
1952.53	1.84939
1954.01	2.07795
1955.49	2.90385
1956.97	3.04042
1958.45	3.47987
1959.93	3.43899
1961.41	3.08473
1962.89	3.29155
1964.37	3.74161
1965.85	4.1643
1967.33	4.46326
1968.81	5.41544
1970.29	5.86138
1971.77	5.89914
1973.24	5.88173
1974.72	5.69806
1976.2	5.12087
1977.68	4.94954
1979.15	4.50665
1980.63	4.69086
1982.11	4.49556
1983.58	4.13547
1985.06	4.34114
1986.53	4.4795
1988.01	4.42904
1989.48	4.46815
1990.96	5.23558
1992.43	5.06318
1993.91	5.42064
1995.38	5.47519
1996.86	5.68629
1998.33	5.5889
1999.8	5.74355
2001.27	5.72695
2002.75	5.2868
2004.22	4.65541
2005.69	4.90567
2007.16	5.18404
2008.64	5.09621
2010.11	5.16097
2011.58	5.25723
2013.05	5.49257
2014.52	5.71335
2015.99	5.35605
2017.46	5.35303
2018.93	5.94487
2020.4	6.46135
2021.87	7.21772
2023.34	7.61089
2024.8	8.26389
2026.27	8.16762
2027.74	8.35724
2029.21	8.41928
2030.68	8.37878
2032.14	8.15813
2033.61	8.69185
2035.08	8.84586
2036.54	9.72504
2038.01	9.6527
2039.48	9.72218
2040.94	10.0709
2042.41	10.6111
2043.87	10.4662
2045.34	10.5061
2046.8	10.8193
2048.27	10.3055
2049.73	10.0925
2051.19	10.3019
2052.66	9.753
2054.12	9.24439
2055.58	9.26111
2057.05	9.71392
2058.51	9.75105
2059.97	9.48459
2061.43	9.81857
2062.9	10.2617
2064.36	10.0633
2065.82	9.82142
2067.28	9.8613
2068.74	10.1793
2070.2	10.2123
2071.66	9.91936
2073.12	9.53593
2074.58	9.81189
2076.04	9.84179
2077.5	9.0393
2078.95	9.43041
2080.41	9.33586
2081.87	8.72686
2083.33	8.27905
2084.79	7.63055
2086.24	7.53022
2087.7	7.8858
2089.16	7.71263
2090.61	8.07215
2092.07	8.55462
2093.53	8.56688
2094.98	8.25764
2096.44	8.69557
2097.89	8.83622
2099.35	9.10289
2100.8	10.0326
2102.26	10.9474
2103.71	11.2153
2105.16	12.008
2106.62	13.1699
2108.07	13.4928
2109.53	14.3321
2110.98	14.7446
2112.43	15.344
2113.88	16.8256
2115.33	17.2715
2116.79	18.1598
2118.24	19.1047
2119.69	19.9069
2121.14	20.3245
2122.59	21.3348
2124.04	22.244
2125.49	22.9045
2126.94	24.2118
2128.39	25.4526
2129.84	26.5783
2131.29	26.9998
2132.74	27.7462
2134.19	29.2695
2135.63	30.1502
2137.08	31.1428
2138.53	32.3391
2139.98	33.4395
2141.43	34.7723
2142.87	35.9719
2144.32	36.9142
2145.77	37.7672
2147.21	38.8413
2148.66	39.9118
2150.1	40.6846
2151.55	42.2045
2152.99	43.4005
2154.44	44.1139
2155.88	45.5307
2157.33	46.7289
2158.77	47.9934
2160.21	48.4166
2161.66	49.2696
2163.1	50.369
2164.55	51.3893
2165.99	52.296
2167.43	53.3301
2168.87	54.566
2170.31	55.1183
2171.76	55.748
2173.2	56.3208
2174.64	56.0133
2176.08	55.528
2177.52	56.0098
2178.96	55.7156
2180.4	55.6706
2181.84	55.3726
2183.28	55.1373
2184.72	54.6648
2186.16	54.6679
2187.6	54.0213
2189.04	53.9754
2190.47	52.7153
2191.91	51.6952
2193.35	50.5765
2194.79	49.2601
2196.23	48.1723
2197.66	47.0938
2199.1	45.6693
2200.54	44.4955
2201.97	43.2269
2203.41	41.3751
2204.84	39.8947
2206.28	38.6843
2207.71	37.2815
2209.15	35.9475
2210.58	34.4351
2212.02	33.1113
2213.45	32.1772
2214.89	30.9688
2216.32	29.4954
2217.75	28.398
2219.19	27.6805
2220.62	26.7498
2222.05	25.9751
2223.48	25.4531
2224.92	24.5354
2226.35	23.6328
2227.78	22.9254
2229.21	21.3523
2230.64	20.7217
2232.07	19.7072
2233.5	19.5665
2234.93	18.8657
2236.36	17.8698
2237.79	17.1817
2239.22	17.2756
2240.65	17.0344
2242.08	15.8573
2243.51	15.9286
2244.94	15.2697
2246.37	14.9743
2247.79	14.8573
2249.22	14.3996
2250.65	13.8205
2252.08	14.0125
2253.5	13.5264
2254.93	13.4186
2256.36	13.4454
2257.78	13.3082
2259.21	13.57
2260.63	13.3328
2262.06	13.2028
2263.48	13.5778
2264.91	13.1433
2266.33	13.3971
2267.76	13.4369
2269.18	12.8672
2270.6	12.2318
2272.03	12.4459
2273.45	11.6275
2274.87	11.2089
2276.3	11.4391
2277.72	11.1678
2279.14	10.9193
2280.56	10.7656
2281.98	10.342
2283.41	10.1575
2284.83	9.87531
2286.25	9.84689
2287.67	9.46666
2289.09	9.14828
2290.51	8.7478
2291.93	7.90861
2293.35	7.36273
2294.77	6.60525
2296.19	6.44393
2297.61	6.58177
2299.02	6.83108
2300.44	6.83419
2301.86	7.3811
2303.28	7.25253
2304.7	7.43315
2306.11	7.82049
2307.53	8.03108
2308.95	9.05988
2310.36	9.17732
2311.78	8.60792
2313.2	8.16584
2314.61	8.51008
2316.03	7.7364
2317.44	8.32244
2318.86	7.93153
2320.27	7.60517
2321.69	8.51721
2323.1	9.34828
2324.51	8.93992
2325.93	9.46226
2327.34	9.88441
2328.76	9.63082
2330.17	9.3007
2331.58	9.28961
2332.99	8.45174
2334.41	7.75635
2335.82	7.06444
2337.23	7.19271
2338.64	6.16309
2340.05	5.99951
2341.46	5.90108
2342.87	5.61487
2344.28	5.24356
2345.69	5.17474
2347.1	4.67592
2348.51	3.6305
2349.92	3.65886
2351.33	3.35284
2352.74	2.50123
2354.15	1.91977
2355.56	1.38879
2356.97	1.26521
2358.37	0.87825
2359.78	0.520807
2361.19	-0.274288
2362.6	0.0790712
2364	-0.022751
2365.41	0.389803
2366.82	0.810334
2368.22	1.57202
2369.63	1.63771
2371.03	1.02363
2372.44	0.961723
2373.84	0.445229
2375.25	0.161618
2376.65	0.519941
2378.06	0.594411
2379.46	-0.151253
2380.86	-0.978537
2382.27	-0.891657
2383.67	-1.21639
2385.07	-0.911651
2386.48	-0.444209
2387.88	0.0573168
2389.28	-0.231712
2390.69	0.406556
2392.09	1.16317
2393.49	1.23983
2394.89	1.00007
2396.29	1.15111
2397.69	1.21865
2399.09	0.946257
2400.49	0.750313
2401.89	1.13623
2403.29	0.595099
2404.69	1.70523
2406.09	2.34174
2407.49	3.10605
2408.89	3.07962
2410.29	3.33218
2411.69	3.27624
2413.08	3.49565
2414.48	3.89235
2415.88	3.66297
2417.28	4.42945
2418.67	5.24761
2420.07	5.744
2421.47	5.73588
2422.86	5.85203
2424.26	5.82717
2425.65	6.23666
2427.05	6.40772
2428.45	6.47555
2429.84	6.4205
2431.23	6.8285
2432.63	7.31147
2434.02	7.01688
2435.42	7.1106
2436.81	7.4288
2438.2	7.76408
2439.6	7.50587
2440.99	6.85657
2442.38	6.67811
2443.78	6.18711
2445.17	6.9205
2446.56	6.68855
2447.95	5.97823
2449.34	5.13632
2450.73	5.53821
2452.13	5.49093
2453.52	5.76084
2454.91	6.36061
2456.3	6.6548
2457.69	6.37064
2459.08	6.56601
2460.47	6.84846
2461.85	6.4715
2463.24	6.68775
2464.63	6.47157
2466.02	6.28321
2467.41	6.20814
2468.8	5.43877
2470.19	5.28755
2471.57	5.35726
2472.96	5.10073
2474.35	5.3528
2475.73	4.87975
2477.12	4.45536
2478.51	3.72261
2479.89	3.47799
2481.28	3.15494
2482.66	2.92599
2484.05	3.07025
2485.43	2.9515
2486.82	3.08778
2488.2	2.29202
2489.59	1.79359
2490.97	1.42028
2492.35	1.43419
2493.74	1.32413
2495.12	1.78882
2496.5	1.47939
2497.89	1.5096
2499.27	1.37954
2500.65	1.39853
2502.03	1.39528
2503.42	1.23968
2504.8	1.00362
2506.18	1.2798
2507.56	0.99064
2508.94	0.351495
2510.32	0.0353435
2511.7	0.463868
2513.08	1.24654
2514.46	1.46107
2515.84	0.542298
2517.22	0.743152
2518.6	1.05289
2519.98	1.35664
2521.36	1.75624
2522.73	2.61767
2524.11	2.99704
2525.49	2.93106
2526.87	2.60995
2528.25	2.93104
2529.62	2.91326
2531	3.15266
2532.38	3.681
2533.75	3.44827
2535.13	3.93096
2536.5	4.19205
2537.88	4.24317
2539.25	4.22905
2540.63	4.59466
2542.01	4.42407
2543.38	4.59945
2544.75	4.53143
2546.13	4.68635
2547.5	4.83472
2548.88	5.24645
2550.25	5.35793
2551.62	5.77011
2553	5.94983
2554.37	5.85116
2555.74	5.68354
2557.11	5.84041
2558.49	6.43065
2559.86	6.5556
2561.23	6.76376
2562.6	7.37904
2563.97	7.30034
2565.34	6.51825
2566.71	6.49669
2568.08	6.37805
2569.45	6.48797
2570.82	6.16885
2572.19	5.82046
2573.56	5.62797
2574.93	5.32561
2576.3	4.91626
2577.67	5.13478
2579.03	5.86539
2580.4	5.61451
2581.77	5.34463
2583.14	5.05607
2584.5	4.63029
2585.87	4.77055
2587.24	4.78674
2588.6	3.9073
2589.97	3.53546
2591.34	3.16911
2592.7	3.25078
2594.07	2.78026
2595.43	2.57505
2596.8	2.70463
2598.16	3.04635
2599.53	3.43911
2600.89	3.37968
2602.26	3.50161
2603.62	4.2285
2604.98	4.38419
2606.35	4.3905
2607.71	4.7349
2609.07	5.02914
2610.44	4.47784
2611.8	5.31685
2613.16	5.65146
2614.52	5.54749
2615.88	5.80239
2617.25	6.00017
2618.61	6.00833
2619.97	5.81476
2621.33	5.46424
2622.69	5.77443
2624.05	5.55794
2625.41	5.56451
2626.77	5.6346
2628.13	5.3796
2629.49	6.11611
2630.85	5.8925
2632.21	5.15958
2633.56	4.57937
2634.92	4.23349
2636.28	4.09963
2637.64	3.61904
2639	3.78043
2640.35	3.53542
2641.71	3.2332
2643.07	3.06296
2644.42	3.23871
2645.78	3.45654
2647.14	3.19873
2648.49	2.74036
2649.85	2.87068
2651.2	2.27104
2652.56	1.78565
2653.91	1.53284
2655.27	1.38819
2656.62	0.996108
2657.98	1.45906
2659.33	1.90599
2660.68	2.04517
2662.04	1.52649
2663.39	1.80284
2664.74	2.57517
2666.1	3.37639
2667.45	3.5594
2668.8	3.87782
2670.15	4.46671
2671.5	4.7365
2672.86	4.53306
2674.21	4.19376
2675.56	3.99423
2676.91	3.62435
2678.26	3.63592
2679.61	3.60157
2680.96	3.03102
2682.31	3.00274
2683.66	3.14766
2685.01	3.75136
2686.36	4.20888
2687.71	3.82784
2689.06	4.1378
2690.4	4.26836
2691.75	4.00971
2693.1	4.24055
2694.45	4.47798
2695.8	4.52701
2697.14	4.70054
2698.49	4.31975
2699.84	4.83381
2701.18	4.57168
2702.53	4.57734
2703.88	4.82946
2705.22	4.84763
2706.57	5.28237
2707.91	4.89227
2709.26	5.27279
2710.6	6.22686
2711.95	6.42582
2713.29	6.61603
2714.64	6.64071
2715.98	6.99998
2717.32	6.76937
2718.67	6.66538
2720.01	6.93084
2721.35	6.69477
2722.7	6.8771
2724.04	6.82151
2725.38	6.57085
2726.72	6.4487
2728.06	6.08047
2729.4	5.95017
2730.75	6.36613
2732.09	6.26369
2733.43	5.93022
2734.77	5.48893
2736.11	5.82519
2737.45	5.73361
2738.79	5.27463
2740.13	4.91087
2741.47	4.81477
2742.81	4.762
2744.15	4.95085
2745.48	4.79891
2746.82	4.35728
2748.16	4.99795
2749.5	5.62663
2750.84	5.25815
2752.17	5.30233
2753.51	4.74729
2754.85	4.33718
2756.19	4.38995
2757.52	3.89481
2758.86	3.95219
2760.19	3.88521
2761.53	3.65493
2762.86	2.99869
2764.2	2.95654
2765.54	3.13931
2766.87	2.62761
2768.2	2.36122
2769.54	1.88573
2770.87	1.69124
2772.21	1.48499
2773.54	1.13046
2774.88	1.4796
2776.21	1.73349
2777.54	1.78665
2778.87	0.850082
2780.21	0.621636
2781.54	0.131459
2782.87	0.232942
2784.2	-0.0267241
2785.53	-0.0635644
2786.87	-0.890983
2788.2	-0.840657
2789.53	-0.994993
2790.86	-1.46447
2792.19	-1.67153
2793.52	-1.49861
2794.85	-1.6062
2796.18	-1.43431
2797.51	-0.993593
2798.84	-0.768667
2800.17	-0.780492
2801.49	-0.78713
2802.82	-0.345865
2804.15	-0.915436
2805.48	-1.45065
2806.81	-1.20374
2808.13	-1.44195
2809.46	-1.66651
2810.79	-2.0425
2812.12	-2.40146
2813.44	-2.22444
2814.77	-1.47465
2816.09	-1.15286
2817.42	-1.1687
2818.75	0.155219
2820.07	1.64594
2821.4	3.1655
2822.72	4.75841
2824.05	5.52846
2825.37	7.03578
2826.7	8.34456
2828.02	10.135
2829.35	11.4783
2830.67	13.881
2831.99	15.8746
2833.31	17.9233
2834.64	20.1989
2835.96	22.6825
2837.28	25.3728
2838.61	28.2436
2839.93	32.0073
2841.25	35.7671
2842.57	38.3394
2843.89	41.8404
2845.21	46.1004
2846.53	50.3071
2847.85	54.5545
2849.17	59.5763
2850.49	64.9281
2851.81	69.4983
2853.13	74.4446
2854.45	80.0853
2855.77	84.7894
2857.09	90.0266
2858.41	95.546
2859.73	100.345
2861.05	104.722
2862.36	109.351
2863.68	113.435
2865	117.684
2866.32	121.958
2867.64	126.309
2868.95	130.182
2870.27	134.097
2871.59	137.333
2872.9	140.972
2874.22	144.319
2875.53	148.252
2876.85	151.149
2878.16	154.232
2879.48	157.253
2880.79	160.204
2882.11	163.032
2883.42	165.071
2884.74	167.236
2886.05	169.401
2887.36	171.041
2888.68	172.859
2889.99	174.718
2891.3	177.215
2892.62	179.408
2893.93	182.053
2895.24	184.869
2896.55	187.21
2897.86	189.796
2899.18	192.458
2900.49	195.485
2901.8	199.548
2903.11	203.456
2904.42	207.69
2905.73	212.427
2907.04	216.499
2908.35	221.089
2909.66	227.075
2910.97	232.305
2912.28	237.789
2913.59	243.117
2914.9	248.845
2916.21	254.029
2917.51	258.204
2918.82	263.359
2920.13	267.782
2921.44	271.449
2922.74	275.364
2924.05	278.425
2925.36	280.466
2926.67	282.506
2927.97	284.298
2929.28	285.988
2930.59	287.475
2931.89	287.611
2933.2	287.333
2934.5	286.948
2935.81	285.593
2937.11	283.27
2938.42	281.389
2939.72	278.068
2941.02	274.226
2942.33	269.418
2943.63	264.903
2944.94	259.952
2946.24	254.759
2947.54	249.664
2948.85	243.651
2950.15	238.396
2951.45	232.871
2952.75	226.686
2954.05	221.094
2955.36	215.354
2956.66	209.45
2957.96	203.451
2959.26	197.99
2960.56	192.75
2961.86	186.331
2963.16	181.985
2964.46	176.923
2965.76	172.466
2967.06	167.756
2968.36	163.041
2969.66	158.916
2970.96	154.829
2972.26	150.387
2973.56	146.656
2974.85	142.967
2976.15	138.998
2977.45	135.443
2978.75	130.661
2980.05	126.729
2981.34	122.512
2982.64	118.157
2983.94	114.388
2985.23	110.02
2986.53	105.345
2987.83	101.017
2989.12	96.2245
2990.42	91.8678
2991.71	88.0893
2993.01	84.1832
2994.3	79.7703
2995.6	75.3135
2996.89	71.0571
2998.19	66.7623
2999.48	62.7328
3000.77	58.1447
3002.07	54.4837
3003.36	50.5478
3004.65	46.2012
3005.95	43.0044
3007.24	39.6397
3008.53	36.1807
3009.82	33.1524
3011.12	30.2274
3012.41	27.5678
3013.7	24.7227
3014.99	22.1958
3016.28	19.8513
3017.57	17.5353
3018.86	15.6696
3020.15	14.0977
3021.44	12.3894
3022.73	10.6066
3024.02	9.73714
3025.31	8.3695
3026.6	7.0318
3027.89	6.44682
3029.18	5.35756
3030.47	4.60189
3031.76	4.0619
3033.04	3.87519
3034.33	3.98287
3035.62	3.84361
3036.91	4.07249
3038.19	4.21477
3039.48	4.25116
3040.77	4.35465
3042.05	4.31763
3043.34	4.33322
3044.63	4.69952
3045.91	4.71658
3047.2	5.73147
3048.48	6.42904
3049.77	6.65427
3051.05	6.46979
3052.34	6.78213
3053.62	7.34029
3054.91	7.78083
3056.19	7.74014
3057.48	7.57758
3058.76	7.09753
3060.04	7.36423
3061.33	7.78237
3062.61	7.59482
3063.89	8.25911
3065.17	8.35573
3066.46	8.27117
3067.74	7.47313
3069.02	7.25475
3070.3	7.46061
3071.59	7.07445
3072.87	6.72708
3074.15	6.6962
3075.43	6.24873
3076.71	5.96541
3077.99	5.39628
3079.27	4.60444
3080.55	3.99279
3081.83	3.29322
3083.11	2.81351
3084.39	2.16658
3085.67	1.49582
3086.94	0.926252
3088.22	0.647745
3089.5	0.273093
3090.78	0.495962
3092.06	0.649396
3093.34	0.843991
3094.61	0.668615
3095.89	0.677316
3097.17	0.793181
3098.44	1.44725
3099.72	2.10407
3101	2.14727
3102.27	2.55973
3103.55	3.23348
3104.82	3.95494
3106.1	4.61088
3107.38	5.33097
3108.65	6.23724
3109.93	7.38997
3111.2	8.70004
3112.47	8.6834
3113.75	9.07055
3115.02	9.59905
3116.3	10.1432
3117.57	10.9892
3118.84	11.459
3120.12	12.2724
3121.39	13.1622
3122.66	13.8746
3123.93	15.2255
3125.2	16.4043
3126.48	16.914
3127.75	17.8416
3129.02	18.2472
3130.29	18.7639
3131.56	19.4952
3132.83	20.8767
3134.1	21.5798
3135.37	22.4412
3136.64	23.3711
3137.91	24.1732
3139.18	24.9857
3140.45	25.9792
3141.72	27.0367
3142.99	28.2334
3144.26	29.5149
3145.53	30.8189
3146.8	32.5136
3148.07	34.7782
3149.33	36.7595
