#Acq. time (s)=	45
#Accumulations=	2
#Range (cm-¹)=	200...3150
#Windows=	2
#Auto scanning=	Off
#Autofocus=	Off
#Macrospot=	Off
#AutoExposure=	Off
#Spike filter=	Multiple accum.
#Delay time (s)=	0
#Binning=	1
#Readout mode=	Signal
#DeNoise=	Off
#ICS correction=	On
#Dark correction=	Off
#Inst. Process=	Off
#Detector Gain=	Best Dynamic Range
#Detector ADC=	20 kHz       
#Detector temperature (°C)=	-69.85
#Instrument=	LabRAM HR Evol
#Detector=	Synapse
#Objective=	x100
#Grating=	600 gr/mm
#ND Filter=	100%
#Laser (nm)=	532 
#Hole=	100.021
#Range=	Auto
#Laser Pol.=	No
#Raman. Pol.=	No
#Laser Pol. (°)=	-0.0007625
#Raman Pol. (°)=	89.9995
#Collection=	Microscope
#StageXY=	Marzhauser
#StageZ=	Marzhauser
#X (µm)=	-1202.3
#Y (µm)=	1255.6
#Z (µm)=	577.85
#Full time(mm:ss)=	3:18
#Project=	
#Sample=	
#Site=	
#Title=	Mbcal_20_25_05_2x_45s_532 nm_x100_100%_600 gr_mm
#Remark=	
#Date=	18.07.2022 09:45
#Acquired=	18.07.2022 09:45:21
#Base:Fit=	10.08.2022 10:55:08
#Base:Sub=	10.08.2022 10:55:14
#Filter:Polynom=	16.08.2022 10:07:27
#AxisType[0]=Intens
#AxisUnit[0]=Cnt
#AxisType[1]=Spectr
#AxisUnit[1]=1/cm
200.419	4.15146
202.234	2.75168
204.048	3.22361
205.862	2.80884
207.678	2.67485
209.491	2.13213
211.304	1.88163
213.116	2.17659
214.928	1.63822
216.742	1.81636
218.554	2.48353
220.365	1.78745
222.176	0.569907
223.986	0.707331
225.798	1.58593
227.608	2.57969
229.417	3.2142
231.226	4.00854
233.035	4.46692
234.843	4.82181
236.653	4.619
238.46	5.17411
240.268	5.2239
242.074	5.99176
243.881	6.57816
245.687	6.70804
247.493	7.18245
249.298	7.77984
251.103	8.38465
252.908	9.60773
254.715	10.6215
256.519	10.4001
258.322	11.3766
260.126	11.7133
261.929	11.419
263.731	11.3768
265.534	13.188
267.336	12.8861
269.137	12.3972
270.938	12.5516
272.739	13.074
274.54	14.1425
276.34	12.8765
278.14	11.6589
279.939	11.9009
281.739	11.8247
283.537	11.2163
285.336	10.0434
287.134	10.4059
288.932	10.4253
290.729	10.9086
292.526	10.0787
294.323	9.24231
296.117	9.06029
297.913	9.04907
299.709	11.0971
301.504	12.1577
303.299	12.3649
305.093	12.0439
306.888	12.3665
308.682	11.9569
310.475	12.1096
312.268	13.3833
314.059	14.8787
315.852	15.8759
317.644	16.3416
319.436	16.975
321.227	17.2339
323.018	17.7949
324.807	18.0582
326.597	18.419
328.387	19.4436
330.177	19.4111
331.967	19.8257
333.753	20.0414
335.542	20.0091
337.331	20.4351
339.119	21.6497
340.906	21.2864
342.691	20.6479
344.478	20.4117
346.265	18.9803
348.051	18.8107
349.835	17.3807
351.621	16.3312
353.406	16.2401
355.189	14.5283
356.973	12.869
358.757	13.2284
360.541	12.4658
362.323	11.5403
364.106	10.8568
365.889	9.34394
367.669	8.09126
369.451	7.38795
371.233	7.14189
373.012	6.0986
374.793	6.24532
376.574	6.31993
378.353	6.72983
380.133	6.14335
381.91	5.4799
383.69	5.68542
385.469	5.47052
387.245	6.39201
389.024	7.09068
390.8	5.59975
392.577	4.64241
394.353	4.25595
396.129	3.79325
397.906	4.4312
399.68	5.55776
401.456	5.50118
403.23	5.96965
405.005	7.00287
406.778	7.02731
408.552	7.60876
410.325	7.3901
412.099	7.66868
413.87	6.99849
415.643	7.33154
417.414	7.48647
419.187	6.98118
420.957	7.36462
422.728	7.19849
424.498	7.23236
426.269	7.08202
428.038	7.65617
429.806	6.68292
431.576	6.7467
433.344	6.48838
435.114	6.40485
436.881	6.99591
438.649	6.37927
440.416	7.03982
442.182	7.84278
443.949	7.18241
445.715	8.8592
447.48	8.98081
449.247	8.97984
451.011	9.34894
452.777	9.13392
454.541	9.16956
456.304	9.31835
458.069	10.5131
459.832	11.118
461.594	11.3748
463.358	12.1598
465.119	11.6729
466.881	11.8231
468.642	11.4544
470.404	11.5984
472.165	12.2459
473.925	11.7982
475.684	11.9816
477.445	11.1565
479.204	10.5969
480.963	11.2363
482.721	12.1109
484.481	12.4189
486.239	13.355
487.996	14.1324
489.753	14.2411
491.511	13.2453
493.268	12.3673
495.023	11.8248
496.779	12.1415
498.534	11.8876
500.289	11.9604
502.046	12.7198
503.8	13.3381
505.554	12.6859
507.307	12.9943
509.06	13.6003
510.813	14.4772
512.566	15.783
514.32	16.6627
516.072	17.4133
517.823	17.715
519.574	17.8192
521.325	18.8215
523.076	18.9801
524.826	19.411
526.576	18.9369
528.325	19.3642
530.074	19.2979
531.823	18.2582
533.572	18.553
535.32	18.0547
537.068	19.1657
538.815	18.8038
540.562	19.1342
542.309	19.498
544.056	18.8435
545.802	19.4351
547.547	18.5577
549.293	19.1722
551.038	19.2394
552.783	18.4121
554.527	18.3021
556.271	18.5657
558.015	17.3357
559.759	16.6352
561.502	15.1102
563.245	14.6141
564.987	13.9781
566.729	14.056
568.471	13.6726
570.213	13.3278
571.954	11.4109
573.693	10.9759
575.433	9.26504
577.173	7.8213
578.913	6.26511
580.652	6.364
582.392	5.93082
584.13	5.4446
585.867	5.17093
587.605	5.04135
589.343	5.36881
591.08	4.35216
592.817	3.07858
594.552	3.66462
596.289	4.64408
598.025	4.82341
599.761	4.95783
601.496	5.12748
603.229	4.9301
604.964	5.80219
606.699	5.57213
608.433	6.71166
610.165	6.46739
611.898	7.7572
613.631	7.98464
615.364	8.33284
617.095	8.31571
618.827	8.15615
620.559	8.97139
622.288	9.19985
624.02	10.1177
625.75	10.1589
627.479	11.3197
629.209	11.1815
630.939	11.651
632.667	12.4353
634.396	12.9121
636.125	14.7705
637.851	15.2129
639.58	14.91
641.305	15.7575
643.033	15.8654
644.76	15.7531
646.485	16.4797
648.212	16.8727
649.936	17.1754
651.662	18.0608
653.388	18.9185
655.111	19.2952
656.836	19.7743
658.558	19.6687
660.283	20.5362
662.005	20.5636
663.728	20.0599
665.45	20.0979
667.173	19.9279
668.893	20.6909
670.616	21.6341
672.336	21.8805
674.057	21.8787
675.777	21.8123
677.498	21.2717
679.216	22.0431
680.937	23.1932
682.655	23.3482
684.375	23.5097
686.092	23.4614
687.809	23.1653
689.528	23.9069
691.244	24.7814
692.962	23.9839
694.678	24.9832
696.393	24.8479
698.111	24.5262
699.825	24.268
701.54	24.2465
703.256	24.1449
704.97	24.2966
706.685	23.7197
708.398	23.4465
710.111	24.4039
711.826	24.7357
713.538	25.5097
715.25	24.9076
716.961	25.8259
718.675	26.8823
720.386	28.0072
722.096	28.8106
723.808	28.9543
725.518	28.8524
727.228	29.0083
728.937	29.4138
730.648	30.4764
732.357	31.1439
734.065	32.0613
735.773	32.9241
737.483	34.1544
739.19	34.4954
740.897	34.8152
742.604	36.0035
744.31	36.6099
746.018	36.8272
747.724	37.7222
749.429	38.2741
751.134	39.9942
752.839	40.7244
754.544	41.5582
756.248	41.7266
757.953	42.5846
759.657	43.9257
761.36	44.5273
763.063	45.7586
764.765	47.5322
766.468	47.2885
768.169	47.8515
769.871	49.7091
771.572	49.3935
773.273	51.7837
774.976	53.5463
776.676	54.6297
778.376	54.6089
780.075	56.1628
781.775	58.0993
783.474	60.3557
785.172	61.1409
786.871	62.4559
788.569	63.2866
790.266	63.9258
791.964	64.7821
793.661	67.2868
795.358	69.2064
797.054	71.1499
798.75	73.0514
800.446	74.1858
802.141	75.5359
803.834	76.4074
805.529	76.1518
807.224	76.539
808.918	76.8849
810.612	76.406
812.305	76.8561
813.998	76.7102
815.691	76.7535
817.384	76.046
819.076	75.4289
820.766	75.4093
822.458	75.3036
824.149	75.1984
825.84	75.5368
827.531	75.8948
829.221	74.8468
830.909	74.94
832.599	75.3295
834.288	74.5376
835.977	73.7464
837.666	73.2107
839.353	72.4196
841.041	70.6989
842.729	69.9439
844.416	68.3535
846.103	66.1051
847.788	64.9454
849.475	63.6934
851.161	61.2791
852.845	60.3494
854.53	59.1448
856.216	57.5673
857.901	56.9142
859.583	54.7829
861.268	54.3605
862.952	53.7418
864.633	53.3891
866.317	53.7644
868	51.9061
869.681	50.5315
871.363	51.3006
873.045	50.5838
874.725	49.9251
876.406	50.2509
878.088	49.7016
879.767	48.6599
881.447	47.8993
883.125	46.679
884.805	45.3925
886.483	44.7621
888.162	44.1639
889.841	43.4186
891.518	43.8526
893.196	42.6824
894.872	41.6721
896.55	41.9843
898.225	41.3358
899.902	42.5362
901.577	42.8398
903.254	43.7731
904.928	44.9418
906.604	45.3596
908.277	46.144
909.952	46.4721
911.625	46.7315
913.3	47.383
914.972	48.0695
916.646	47.5284
918.318	46.1545
919.991	46.584
921.662	45.3665
923.333	44.6023
925.005	42.9596
926.675	42.7322
928.347	42.4796
930.017	42.0396
931.686	40.7605
933.357	40.2093
935.025	39.4494
936.693	38.8527
938.363	37.6392
940.031	36.588
941.698	35.8159
943.367	35.5437
945.034	35.689
946.7	34.6277
948.368	33.794
950.034	33.3866
951.699	32.2447
953.367	32.2122
955.031	31.3818
956.696	30.1527
958.36	28.7023
960.026	27.1637
961.689	26.0614
963.353	26.736
965.016	25.9843
966.68	26.1316
968.343	25.7831
970.005	26.4349
971.666	25.7461
973.328	25.916
974.991	25.737
976.652	24.1061
978.312	25.0664
979.972	24.4372
981.632	24.0638
983.292	24.6255
984.953	24.1465
986.612	23.5021
988.27	23.0841
989.929	21.6561
991.587	21.0896
993.244	20.6262
994.902	19.8887
996.559	18.4374
998.216	17.3313
999.872	15.7895
1001.53	15.356
1003.19	15.4739
1004.84	14.3231
1006.5	13.173
1008.15	12.0559
1009.81	11.8815
1011.46	11.7006
1013.11	9.98783
1014.77	9.53228
1016.42	9.56362
1018.07	9.81915
1019.73	9.81064
1021.38	9.30428
1023.03	8.63573
1024.68	8.77236
1026.34	9.64572
1027.99	9.90684
1029.64	10.3343
1031.29	10.399
1032.94	10.0884
1034.59	10.4159
1036.24	10.6625
1037.89	10.1966
1039.53	10.6243
1041.18	10.4883
1042.83	11.2987
1044.48	11.5155
1046.13	12.0454
1047.77	10.6383
1049.42	11.1937
1051.07	10.5383
1052.71	10.6602
1054.36	10.1411
1056	9.9911
1057.65	9.64581
1059.3	9.02993
1060.94	9.37481
1062.59	7.91067
1064.23	8.13923
1065.87	8.37054
1067.52	6.89553
1069.16	5.89179
1070.8	6.7267
1072.44	6.43516
1074.09	6.34169
1075.73	7.08828
1077.37	5.59245
1079.01	5.07404
1080.65	4.87866
1082.29	3.99807
1083.93	3.73399
1085.57	3.13888
1087.21	2.97264
1088.85	2.09494
1090.49	3.23029
1092.13	3.52535
1093.77	3.96693
1095.41	4.60037
1097.04	6.1422
1098.68	5.43176
1100.32	7.30094
1101.95	6.36549
1103.59	5.70602
1105.23	5.51513
1106.86	6.65473
1108.5	7.47746
1110.13	6.98036
1111.77	6.50203
1113.4	6.73078
1115.04	7.51621
1116.67	7.60014
1118.31	6.75802
1119.94	6.3465
1121.57	7.23182
1123.2	6.52396
1124.84	6.47319
1126.47	5.13135
1128.1	5.22931
1129.73	3.94879
1131.36	4.18574
1132.99	4.02097
1134.62	4.69489
1136.25	4.81005
1137.88	5.03907
1139.51	4.03991
1141.14	4.00334
1142.77	4.51686
1144.4	4.72829
1146.03	5.20472
1147.66	4.86171
1149.28	4.06085
1150.91	5.25703
1152.54	6.05267
1154.16	5.07702
1155.79	4.63586
1157.42	5.218
1159.04	3.50898
1160.67	4.28823
1162.29	4.82518
1163.92	5.17329
1165.54	4.67518
1167.17	5.17252
1168.79	5.57198
1170.41	6.02201
1172.04	7.30208
1173.66	7.37852
1175.28	8.42544
1176.9	7.84298
1178.53	6.86791
1180.15	5.57725
1181.77	5.76971
1183.39	4.35818
1185.01	5.42502
1186.63	5.98116
1188.25	6.83571
1189.87	5.76877
1191.49	6.0187
1193.11	5.91309
1194.73	6.46433
1196.35	5.763
1197.96	5.10907
1199.58	5.45868
1201.2	6.25347
1202.82	6.51779
1204.43	6.62254
1206.05	6.71685
1207.66	6.22358
1209.28	6.42975
1210.9	6.84887
1212.51	7.76128
1214.13	8.82743
1215.74	9.25674
1217.36	9.04603
1218.97	9.22552
1220.58	9.10653
1222.2	10.9436
1223.81	12.4705
1225.42	12.9546
1227.04	13.9845
1228.65	14.5997
1230.26	15.7173
1231.87	17.3414
1233.48	19.2861
1235.1	20.5992
1236.71	21.7196
1238.32	23.0708
1239.93	24.727
1241.53	25.8061
1243.14	26.1058
1244.75	26.3852
1246.36	26.6563
1247.97	27.6605
1249.58	28.4661
1251.19	28.4278
1252.8	28.6784
1254.4	28.2808
1256.01	28.4626
1257.62	27.7758
1259.22	27.9924
1260.83	28.2218
1262.43	28.9884
1264.04	29.4552
1265.64	30.5762
1267.25	29.63
1268.85	29.2971
1270.46	28.8059
1272.06	30.454
1273.66	30.5332
1275.27	30.9446
1276.87	31.434
1278.48	32.5288
1280.08	33.3748
1281.68	33.9677
1283.28	34.7968
1284.88	35.6448
1286.48	37.1718
1288.08	37.5142
1289.68	38.6882
1291.28	39.6215
1292.88	40.0543
1294.48	40.5727
1296.08	40.8067
1297.68	41.4601
1299.28	42.5097
1300.88	44.1689
1302.48	45.8885
1304.07	47.4122
1305.67	47.9575
1307.27	48.8966
1308.87	49.3064
1310.46	50.6878
1312.06	52.0648
1313.65	52.8041
1315.25	51.8746
1316.85	52.2095
1318.44	52.3284
1320.03	52.7289
1321.63	51.9949
1323.22	52.4981
1324.82	52.0934
1326.41	52.023
1328	51.5272
1329.6	52.0145
1331.19	51.9079
1332.78	51.4399
1334.37	51.5631
1335.96	51.8283
1337.56	51.3679
1339.15	50.5684
1340.74	49.9806
1342.33	49.4655
1343.92	49.0527
1345.51	48.6289
1347.1	48.3672
1348.69	48.873
1350.28	48.9012
1351.86	48.7772
1353.45	48.9526
1355.04	47.8547
1356.63	47.5076
1358.21	47.394
1359.8	46.8628
1361.39	47.2594
1362.97	47.1542
1364.56	46.8847
1366.15	46.9983
1367.73	45.3905
1369.32	45.0911
1370.9	44.2379
1372.49	43.5452
1374.07	43.5328
1375.65	42.6672
1377.24	42.1418
1378.82	41.9725
1380.41	41.6702
1381.99	40.8683
1383.57	40.3069
1385.15	39.7796
1386.73	39.1758
1388.32	38.6842
1389.9	38.1095
1391.48	38.2539
1393.06	37.1606
1394.64	36.5005
1396.22	36.7711
1397.8	36.5262
1399.38	37.5255
1400.96	37.3755
1402.54	37.7513
1404.11	37.8778
1405.69	39.1319
1407.27	39.4547
1408.85	40.6289
1410.43	40.3119
1412	40.5005
1413.58	41.9666
1415.16	42.7236
1416.73	44.2189
1418.31	45.726
1419.88	47.1671
1421.46	48.8501
1423.03	50.9608
1424.61	53.0889
1426.18	55.6427
1427.76	56.1885
1429.33	57.603
1430.9	59.9423
1432.48	61.8162
1434.05	63.2503
1435.62	65.5291
1437.2	67.7431
1438.77	68.4181
1440.34	70.5418
1441.91	72.0276
1443.48	71.902
1445.05	72.2712
1446.62	72.7088
1448.19	73.4406
1449.76	72.9987
1451.33	72.1385
1452.9	71.6427
1454.47	70.9834
1456.04	71.6479
1457.61	71.4949
1459.17	72.2649
1460.74	71.4852
1462.31	70.9458
1463.88	70.1563
1465.44	69.4406
1467.01	69.2384
1468.58	67.9737
1470.14	66.5761
1471.71	63.8891
1473.27	62.0274
1474.84	60.4556
1476.4	59.1527
1477.97	57.6472
1479.53	55.6072
1481.1	54.9931
1482.66	52.6208
1484.22	50.7775
1485.78	48.946
1487.35	47.2781
1488.91	44.9155
1490.47	43.755
1492.03	41.9776
1493.59	41.4682
1495.16	41.1042
1496.72	39.4612
1498.28	37.9508
1499.84	37.3623
1501.4	36.555
1502.96	36.4534
1504.52	35.3861
1506.08	34.0118
1507.64	34.191
1509.19	33.8303
1510.75	33.2301
1512.31	32.4956
1513.87	31.0441
1515.42	29.874
1516.98	28.3789
1518.54	28.464
1520.1	27.5938
1521.65	26.1458
1523.21	27.0635
1524.76	26.6349
1526.32	26.4682
1527.87	25.9972
1529.43	26.6307
1530.98	26.7606
1532.54	27.0767
1534.09	27.1671
1535.64	27.5937
1537.2	27.7714
1538.75	27.1144
1540.3	27.0329
1541.85	27.5538
1543.41	27.8678
1544.96	27.4408
1546.51	26.9208
1548.06	26.903
1549.61	27.1098
1551.16	26.9854
1552.71	27.7818
1554.26	28.4068
1555.81	28.7212
1557.36	29.1195
1558.91	29.7218
1560.46	29.4352
1562.01	29.5964
1563.56	30.6427
1565.1	29.8413
1566.65	29.9335
1568.2	31.1499
1569.75	31.565
1571.29	32.8804
1572.84	33.4941
1574.38	33.8582
1575.93	34.3143
1577.48	35.0713
1579.02	35.1455
1580.57	36.8314
1582.11	37.0643
1583.65	39.0586
1585.2	39.8727
1586.74	41.3444
1588.29	42.2779
1589.83	42.509
1591.37	43.2511
1592.92	44.6744
1594.46	46.5321
1596	47.9899
1597.54	48.5047
1599.08	49.0927
1600.62	50.2088
1602.16	49.726
1603.7	50.2886
1605.24	49.4937
1606.78	49.3841
1608.32	48.7827
1609.86	49.4963
1611.4	50.2423
1612.94	50.8127
1614.48	51.2544
1616.02	51.9155
1617.56	50.9503
1619.09	51.4672
1620.63	51.0033
1622.17	50.9883
1623.71	51.4706
1625.24	51.6157
1626.78	51.2566
1628.31	51.1482
1629.85	51.2861
1631.39	50.4399
1632.92	50.2683
1634.46	49.7007
1635.99	48.9269
1637.52	47.5566
1639.06	46.6352
1640.59	46.6301
1642.12	45.3064
1643.66	45.1902
1645.19	45.3993
1646.72	45.1373
1648.25	45.5583
1649.79	45.4002
1651.32	44.8261
1652.85	44.5092
1654.38	44.8135
1655.91	44.8602
1657.44	45.7507
1658.97	44.6513
1660.5	43.6671
1662.03	41.4608
1663.56	41.4135
1665.09	39.1878
1666.62	38.8345
1668.15	37.9028
1669.67	37.6557
1671.2	36.2598
1672.73	33.9595
1674.26	32.1801
1675.79	30.6655
1677.31	29.5224
1678.84	28.0157
1680.36	27.1802
1681.89	26.5741
1683.42	26.0518
1684.94	25.2331
1686.47	24.0966
1687.99	22.8461
1689.51	21.4096
1691.04	20.2492
1692.56	18.1884
1694.08	16.7835
1695.61	16.8348
1697.13	16.4684
1698.65	15.8437
1700.18	14.4537
1701.7	13.4052
1703.22	12.2173
1704.74	11.0477
1706.26	10.454
1707.78	9.72926
1709.3	9.04096
1710.82	7.79872
1712.35	6.98396
1713.86	6.55497
1715.39	6.90656
1716.9	6.66593
1718.42	6.19545
1719.94	6.3098
1721.46	6.63671
1722.98	6.73291
1724.5	6.28941
1726.01	5.4711
1727.53	5.91141
1729.05	6.28382
1730.56	6.37901
1732.08	6.03282
1733.6	5.78208
1735.11	5.12382
1736.63	5.34621
1738.14	5.68807
1739.66	5.99387
1741.17	5.66728
1742.69	6.72707
1744.2	6.1585
1745.71	6.44348
1747.23	5.82933
1748.74	5.05232
1750.25	5.19099
1751.77	5.35875
1753.28	6.43486
1754.79	6.00848
1756.3	5.918
1757.81	5.98175
1759.33	5.50634
1760.84	5.01039
1762.35	4.67969
1763.86	5.12744
1765.37	5.11947
1766.88	5.48756
1768.39	5.49356
1769.9	6.19392
1771.41	6.15358
1772.91	5.72228
1774.42	4.55033
1775.93	4.0258
1777.44	4.17513
1778.95	4.30638
1780.45	3.88913
1781.96	3.74062
1783.47	2.79135
1784.97	1.95067
1786.48	1.3049
1787.99	1.50645
1789.49	1.28091
1791	1.04398
1792.5	0.659508
1794.01	0.39119
1795.51	-0.106484
1797.01	-0.241272
1798.52	0.0981723
1800.02	0.136449
1801.52	0.474674
1803.03	1.03894
1804.53	0.384411
1806.03	0.511044
1807.54	0.407065
1809.04	0.378465
1810.54	0.0572628
1812.04	-0.0336452
1813.54	-0.709682
1815.04	-0.905272
1816.54	-0.798717
1818.04	-0.969039
1819.54	-0.854635
1821.04	-0.472871
1822.54	-0.581748
1824.04	-0.355302
1825.54	0.476672
1827.04	1.17378
1828.54	1.32023
1830.03	1.308
1831.53	2.16025
1833.03	2.44854
1834.53	2.60646
1836.02	2.84659
1837.52	3.39602
1839.02	4.03756
1840.51	4.40325
1842.01	5.22078
1843.5	5.28327
1845	5.94852
1846.49	6.10615
1847.99	6.42241
1849.48	6.95345
1850.98	7.77845
1852.47	7.90784
1853.96	7.66166
1855.46	7.49568
1856.95	7.68639
1858.44	8.42968
1859.94	8.57103
1861.43	8.04831
1862.92	8.69745
1864.41	7.81059
1865.9	7.37761
1867.39	6.62389
1868.88	6.46196
1870.37	5.98819
1871.86	6.2191
1873.35	6.27874
1874.84	6.09655
1876.33	5.73209
1877.82	5.1747
1879.31	4.57999
1880.8	4.95122
1882.29	4.51386
1882.58	4.43045
1884.08	3.95686
1885.57	3.84388
1887.06	3.85223
1888.56	3.78309
1890.05	3.78914
1891.54	3.65196
1893.04	3.77799
1894.53	3.05348
1896.02	3.26933
1897.51	3.33549
1899	3.13063
1900.5	3.00187
1901.99	2.91884
1903.48	3.47708
1904.97	2.9265
1906.46	2.58868
1907.95	1.94967
1909.44	2.64706
1910.93	2.9617
1912.42	3.06241
1913.91	3.05128
1915.4	3.44817
1916.88	3.14089
1918.37	3.23676
1919.86	3.30187
1921.35	3.4703
1922.84	3.22789
1924.32	2.97013
1925.81	3.30661
1927.3	3.71604
1928.78	4.48275
1930.27	4.9447
1931.75	4.61793
1933.24	3.73049
1934.72	3.32629
1936.21	3.59253
1937.69	3.59792
1939.18	3.93088
1940.66	4.07849
1942.15	4.28145
1943.63	4.58491
1945.11	4.10342
1946.6	3.9005
1948.08	3.74891
1949.56	3.76837
1951.04	3.81158
1952.53	4.62836
1954.01	5.34346
1955.49	5.84653
1956.97	5.90589
1958.45	5.68356
1959.93	6.31222
1961.41	5.65861
1962.89	5.66766
1964.37	5.49171
1965.85	5.31704
1967.33	5.44916
1968.81	5.56337
1970.29	5.75781
1971.77	5.47302
1973.24	4.70303
1974.72	5.20403
1976.2	5.07145
1977.68	4.8509
1979.15	4.28435
1980.63	4.09379
1982.11	3.73248
1983.58	4.80227
1985.06	4.82421
1986.53	4.62344
1988.01	5.01668
1989.48	5.29418
1990.96	5.6084
1992.43	6.44148
1993.91	6.57208
1995.38	7.53449
1996.86	7.6306
1998.33	8.47196
1999.8	8.43407
2001.27	7.78904
2002.75	7.29538
2004.22	6.43113
2005.69	6.16784
2007.16	5.98035
2008.64	6.329
2010.11	6.4639
2011.58	6.54068
2013.05	5.96311
2014.52	5.69629
2015.99	5.77383
2017.46	6.53624
2018.93	6.5046
2020.4	7.264
2021.87	7.87604
2023.34	8.08628
2024.8	8.17054
2026.27	8.46745
2027.74	8.7147
2029.21	8.69666
2030.68	8.15659
2032.14	7.90577
2033.61	8.72436
2035.08	7.13626
2036.54	7.59351
2038.01	7.03621
2039.48	6.71243
2040.94	6.68409
2042.41	6.51982
2043.87	5.99609
2045.34	5.37091
2046.8	4.94161
2048.27	5.21507
2049.73	4.85911
2051.19	4.84345
2052.66	5.40036
2054.12	5.24456
2055.58	5.5844
2057.05	6.36013
2058.51	6.32679
2059.97	6.09815
2061.43	5.66104
2062.9	6.14807
2064.36	6.51343
2065.82	6.48314
2067.28	6.28947
2068.74	7.08367
2070.2	6.62276
2071.66	5.91509
2073.12	5.47568
2074.58	5.25752
2076.04	5.03927
2077.5	5.26846
2078.95	5.94938
2080.41	6.21726
2081.87	6.1555
2083.33	5.93439
2084.79	6.07609
2086.24	6.42025
2087.7	7.37801
2089.16	8.45841
2090.61	8.88878
2092.07	8.38654
2093.53	8.74045
2094.98	8.56964
2096.44	9.19745
2097.89	9.8621
2099.35	10.3382
2100.8	10.685
2102.26	11.1839
2103.71	11.1004
2105.16	11.4382
2106.62	11.6668
2108.07	10.4706
2109.53	11.114
2110.98	10.8503
2112.43	11.0265
2113.88	10.8538
2115.33	11.0887
2116.79	11.8195
2118.24	12.4188
2119.69	13.2733
2121.14	13.6567
2122.59	14.5501
2124.04	15.1202
2125.49	15.8795
2126.94	16.185
2128.39	16.3794
2129.84	16.4935
2131.29	16.8205
2132.74	17.3572
2134.19	18.1077
2135.63	19.5973
2137.08	20.0875
2138.53	20.4661
2139.98	21.176
2141.43	21.8324
2142.87	22.1842
2144.32	22.7474
2145.77	24.0346
2147.21	24.9744
2148.66	26.3354
2150.1	27.0675
2151.55	28.0275
2152.99	28.9368
2154.44	29.4557
2155.88	31.143
2157.33	32.8842
2158.77	33.6811
2160.21	34.7596
2161.66	34.8657
2163.1	35.4623
2164.55	36.1813
2165.99	37.6346
2167.43	38.6752
2168.87	39.7028
2170.31	39.5698
2171.76	39.8573
2173.2	39.8915
2174.64	40.3309
2176.08	39.5302
2177.52	39.5872
2178.96	39.1891
2180.4	38.854
2181.84	39.1351
2183.28	38.7387
2184.72	38.5503
2186.16	38.0128
2187.6	38.063
2189.04	37.9678
2190.47	37.2023
2191.91	36.6418
2193.35	36.0363
2194.79	35.324
2196.23	34.5372
2197.66	33.537
2199.1	33.1823
2200.54	32.2725
2201.97	31.5863
2203.41	30.897
2204.84	30.4378
2206.28	29.5796
2207.71	28.9365
2209.15	28.2132
2210.58	28.0362
2212.02	28.0309
2213.45	28.1331
2214.89	27.7127
2216.32	27.9069
2217.75	27.2889
2219.19	26.8716
2220.62	26.2794
2222.05	25.5305
2223.48	25.3531
2224.92	24.956
2226.35	24.444
2227.78	24.5281
2229.21	23.7069
2230.64	22.8595
2232.07	22.6676
2233.5	22.8518
2234.93	22.6957
2236.36	22.2278
2237.79	22.1248
2239.22	21.395
2240.65	19.7008
2242.08	19.301
2243.51	18.8503
2244.94	18.5931
2246.37	17.8748
2247.79	16.509
2249.22	16.4605
2250.65	16.0173
2252.08	15.8265
2253.5	16.2866
2254.93	15.8122
2256.36	15.3499
2257.78	14.762
2259.21	14.0861
2260.63	13.9539
2262.06	12.9953
2263.48	12.3624
2264.91	11.3293
2266.33	10.732
2267.76	11.1956
2269.18	10.9415
2270.6	10.6572
2272.03	9.41261
2273.45	8.6951
2274.87	8.42937
2276.3	8.16142
2277.72	7.54697
2279.14	8.10401
2280.56	8.14657
2281.98	7.73584
2283.41	7.28474
2284.83	6.53141
2286.25	5.62367
2287.67	5.15848
2289.09	4.07618
2290.51	3.34941
2291.93	2.45599
2293.35	2.10258
2294.77	2.05575
2296.19	2.48081
2297.61	3.03879
2299.02	3.66974
2300.44	4.07657
2301.86	4.76548
2303.28	5.46456
2304.7	6.36634
2306.11	6.4626
2307.53	7.33951
2308.95	7.45547
2310.36	7.8336
2311.78	8.05138
2313.2	8.9831
2314.61	8.77255
2316.03	9.48543
2317.44	9.60926
2318.86	10.4673
2320.27	12.1239
2321.69	12.9255
2323.1	13.778
2324.51	13.676
2325.93	12.8386
2327.34	12.4244
2328.76	12.0482
2330.17	11.8638
2331.58	12.412
2332.99	11.8621
2334.41	11.7913
2335.82	11.1699
2337.23	11.1955
2338.64	10.6696
2340.05	9.70848
2341.46	8.66623
2342.87	7.81159
2344.28	7.82801
2345.69	7.46988
2347.1	6.76778
2348.51	6.27393
2349.92	5.91915
2351.33	4.8627
2352.74	3.81444
2354.15	3.33266
2355.56	2.53969
2356.97	1.98473
2358.37	1.67892
2359.78	1.38704
2361.19	0.666513
2362.6	0.701801
2364	0.917832
2365.41	1.39805
2366.82	1.40694
2368.22	1.65132
2369.63	2.04334
2371.03	2.59759
2372.44	2.60151
2373.84	2.75124
2375.25	2.74432
2376.65	2.66214
2378.06	2.37726
2379.46	2.1263
2380.86	2.68616
2382.27	2.80013
2383.67	3.38137
2385.07	3.27859
2386.48	3.80692
2387.88	4.48128
2389.28	4.70422
2390.69	5.10426
2392.09	5.19302
2393.49	5.23125
2394.89	5.30739
2396.29	5.37207
2397.69	5.3169
2399.09	5.55919
2400.49	5.65774
2401.89	5.84377
2403.29	5.6012
2404.69	5.74844
2406.09	6.22934
2407.49	6.94516
2408.89	6.96337
2410.29	7.53364
2411.69	7.56552
2413.08	7.93143
2414.48	8.79417
2415.88	8.82008
2417.28	8.91382
2418.67	9.05545
2420.07	9.07918
2421.47	9.82647
2422.86	10.1104
2424.26	10.2593
2425.65	10.0734
2427.05	9.81486
2428.45	9.98316
2429.84	9.64308
2431.23	9.29869
2432.63	9.36813
2434.02	9.2729
2435.42	9.60466
2436.81	9.22815
2438.2	9.11446
2439.6	9.22194
2440.99	9.49374
2442.38	8.85572
2443.78	8.14129
2445.17	7.67795
2446.56	7.04683
2447.95	6.57112
2449.34	6.37084
2450.73	5.89454
2452.13	5.95951
2453.52	5.42531
2454.91	4.85056
2456.3	5.0886
2457.69	4.84387
2459.08	3.99707
2460.47	3.58277
2461.85	3.71129
2463.24	3.24489
2464.63	2.25874
2466.02	1.4751
2467.41	1.40423
2468.8	0.852825
2470.19	0.641425
2471.57	0.657667
2472.96	0.56137
2474.35	0.430121
2475.73	0.357462
2477.12	0.0698402
2478.51	-0.351066
2479.89	-0.23815
2481.28	0.0265606
2482.66	0.31935
2484.05	0.796139
2485.43	0.648938
2486.82	0.800382
2488.2	1.04672
2489.59	1.56065
2490.97	1.70449
2492.35	1.38162
2493.74	1.52992
2495.12	1.32809
2496.5	1.3422
2497.89	1.8623
2499.27	1.67421
2500.65	2.14836
2502.03	2.13509
2503.42	2.20147
2504.8	2.49804
2506.18	2.26555
2507.56	2.24029
2508.94	2.38086
2510.32	2.41265
2511.7	1.59547
2513.08	1.57256
2514.46	2.19226
2515.84	2.88216
2517.22	2.86956
2518.6	3.14195
2519.98	3.86343
2521.36	4.43238
2522.73	4.63614
2524.11	4.59879
2525.49	5.04707
2526.87	4.52669
2528.25	4.64691
2529.62	4.79373
2531	4.64274
2532.38	4.3081
2533.75	4.17206
2535.13	4.53929
2536.5	4.61718
2537.88	4.44644
2539.25	5.1859
2540.63	4.84447
2542.01	4.82102
2543.38	4.71751
2544.75	4.71569
2546.13	4.65851
2547.5	4.56611
2548.88	5.04773
2550.25	4.47365
2551.62	4.3919
2553	4.03328
2554.37	3.58467
2555.74	3.63793
2557.11	3.40843
2558.49	3.41156
2559.86	3.1598
2561.23	3.4013
2562.6	3.51408
2563.97	3.40353
2565.34	3.64816
2566.71	4.09116
2568.08	4.0044
2569.45	4.61755
2570.82	4.13633
2572.19	4.05469
2573.56	4.23962
2574.93	3.80798
2576.3	4.02929
2577.67	4.24177
2579.03	4.82908
2580.4	4.91971
2581.77	5.5847
2583.14	5.7843
2584.5	5.78665
2585.87	5.31346
2587.24	5.72822
2588.6	5.88973
2589.97	5.55036
2591.34	6.03698
2592.7	5.7341
2594.07	6.37735
2595.43	6.00789
2596.8	6.49612
2598.16	6.96512
2599.53	7.12226
2600.89	7.67139
2602.26	7.02217
2603.62	7.05588
2604.98	7.09413
2606.35	6.85633
2607.71	6.78064
2609.07	5.97952
2610.44	6.01338
2611.8	5.93761
2613.16	5.44203
2614.52	5.28577
2615.88	5.41837
2617.25	4.95682
2618.61	4.26865
2619.97	4.92624
2621.33	4.26189
2622.69	4.42062
2624.05	4.31986
2625.41	3.73563
2626.77	3.52999
2628.13	3.74632
2629.49	3.44148
2630.85	3.51096
2632.21	2.89106
2633.56	3.17492
2634.92	3.68852
2636.28	3.20119
2637.64	3.46746
2639	3.14988
2640.35	3.45166
2641.71	3.55029
2643.07	3.72053
2644.42	3.7715
2645.78	3.55012
2647.14	3.88062
2648.49	3.65942
2649.85	3.88977
2651.2	3.5523
2652.56	3.59716
2653.91	3.94248
2655.27	4.24667
2656.62	4.6861
2657.98	5.23958
2659.33	5.87116
2660.68	6.34902
2662.04	6.74129
2663.39	6.54532
2664.74	6.84714
2666.1	6.91701
2667.45	7.00561
2668.8	6.81808
2670.15	6.1618
2671.5	7.08076
2672.86	7.23419
2674.21	7.71759
2675.56	7.57374
2676.91	7.01459
2678.26	7.25076
2679.61	7.04764
2680.96	6.9243
2682.31	6.51829
2683.66	5.92402
2685.01	5.35785
2686.36	5.35904
2687.71	5.17402
2689.06	4.62595
2690.4	4.82848
2691.75	4.86794
2693.1	4.42845
2694.45	4.51701
2695.8	5.08298
2697.14	5.02031
2698.49	5.54513
2699.84	6.14628
2701.18	6.82329
2702.53	7.04528
2703.88	7.13467
2705.22	8.32121
2706.57	8.47456
2707.91	8.9186
2709.26	8.3535
2710.6	9.48542
2711.95	9.65185
2713.29	10.0656
2714.64	10.2259
2715.98	10.2624
2717.32	10.9943
2718.67	11.1516
2720.01	11.2558
2721.35	10.7678
2722.7	10.9002
2724.04	11.0204
2725.38	11.134
2726.72	11.1165
2728.06	10.9126
2729.4	10.1817
2730.75	9.87889
2732.09	9.65906
2733.43	9.7546
2734.77	8.90268
2736.11	8.32369
2737.45	8.66427
2738.79	8.35034
2740.13	7.84561
2741.47	7.37373
2742.81	6.28838
2744.15	5.85286
2745.48	5.73273
2746.82	5.36846
2748.16	4.35468
2749.5	3.67789
2750.84	3.38888
2752.17	3.57913
2753.51	3.14005
2754.85	2.69109
2756.19	2.34927
2757.52	2.41306
2758.86	2.75463
2760.19	1.99177
2761.53	1.84849
2762.86	2.18163
2764.2	1.92015
2765.54	1.82982
2766.87	1.59142
2768.2	0.805378
2769.54	1.50637
2770.87	1.66849
2772.21	1.59518
2773.54	0.914213
2774.88	1.00504
2776.21	0.318513
2777.54	1.35616
2778.87	0.415322
2780.21	0.156031
2781.54	0.186149
2782.87	0.745981
2784.2	0.717379
2785.53	0.0564828
2786.87	-0.377717
2788.2	-0.45915
2789.53	0.525398
2790.86	0.805025
2792.19	1.17782
2793.52	1.63986
2794.85	1.26738
2796.18	1.0736
2797.51	1.23091
2798.84	1.38301
2800.17	1.48089
2801.49	0.881048
2802.82	1.40348
2804.15	1.07354
2805.48	0.347606
2806.81	0.62102
2808.13	0.946706
2809.46	0.4858
2810.79	0.206664
2812.12	-0.0219237
2813.44	-0.000736392
2814.77	-0.252599
2816.09	0.770216
2817.42	0.782905
2818.75	1.55817
2820.07	1.65108
2821.4	3.03286
2822.72	4.59215
2824.05	5.98957
2825.37	7.04116
2826.7	7.6247
2828.02	9.37424
2829.35	11.2653
2830.67	13.0021
2831.99	15.4718
2833.31	16.7536
2834.64	19.2871
2835.96	21.6192
2837.28	23.7316
2838.61	25.9755
2839.93	28.2551
2841.25	30.9672
2842.57	33.8019
2843.89	36.9691
2845.21	39.6981
2846.53	42.6224
2847.85	46.0567
2849.17	49.2635
2850.49	52.7989
2851.81	55.9774
2853.13	59.6234
2854.45	63.312
2855.77	67.3478
2857.09	70.5591
2858.41	73.2098
2859.73	76.6797
2861.05	78.9955
2862.36	82.1545
2863.68	85.1846
2865	87.8485
2866.32	90.3182
2867.64	92.7834
2868.95	94.7724
2870.27	96.5974
2871.59	99.1788
2872.9	101.146
2874.22	103.304
2875.53	104.311
2876.85	106.119
2878.16	108.039
2879.48	110.141
2880.79	112.076
2882.11	114.087
2883.42	116.375
2884.74	118.746
2886.05	121.147
2887.36	123.46
2888.68	125.274
2889.99	127.232
2891.3	129.736
2892.62	131.485
2893.93	133.88
2895.24	135.746
2896.55	138.096
2897.86	140.769
2899.18	142.758
2900.49	146.503
2901.8	149.351
2903.11	152.517
2904.42	154.766
2905.73	158
2907.04	161.011
2908.35	163.849
2909.66	167.383
2910.97	171.32
2912.28	175.338
2913.59	179.976
2914.9	184.249
2916.21	188.01
2917.51	190.503
2918.82	194.514
2920.13	197.808
2921.44	200.908
2922.74	202.772
2924.05	204.574
2925.36	207.354
2926.67	208.087
2927.97	209.119
2929.28	209.769
2930.59	209.397
2931.89	208.754
2933.2	207.883
2934.5	206.39
2935.81	205.295
2937.11	203.306
2938.42	201.249
2939.72	198.761
2941.02	195.707
2942.33	192.85
2943.63	189.465
2944.94	186.061
2946.24	182.057
2947.54	178.571
2948.85	174.498
2950.15	169.912
2951.45	165.065
2952.75	160.497
2954.05	156.75
2955.36	152.275
2956.66	148.193
2957.96	143.73
2959.26	140.21
2960.56	136.607
2961.86	133.902
2963.16	130.533
2964.46	126.844
2965.76	123.973
2967.06	119.931
2968.36	116.425
2969.66	113.702
2970.96	111.514
2972.26	109.432
2973.56	107.441
2974.85	106.11
2976.15	104.185
2977.45	102.076
2978.75	99.8255
2980.05	97.485
2981.34	94.8153
2982.64	92.6333
2983.94	90.4833
2985.23	87.3335
2986.53	84.4898
2987.83	81.2037
2989.12	78.4818
2990.42	76.0783
2991.71	72.5973
2993.01	69.6416
2994.3	66.4558
2995.6	63.0409
2996.89	60.0767
2998.19	56.876
2999.48	53.5985
3000.77	50.2864
3002.07	46.9474
3003.36	43.9061
3004.65	40.3347
3005.95	36.973
3007.24	34.2315
3008.53	31.5743
3009.82	28.7181
3011.12	25.6893
3012.41	23.4536
3013.7	20.7138
3014.99	18.9889
3016.28	16.8927
3017.57	15.618
3018.86	14.485
3020.15	12.4702
3021.44	11.7148
3022.73	10.0888
3024.02	9.1461
3025.31	7.83145
3026.6	6.91971
3027.89	5.14553
3029.18	4.30638
3030.47	3.98872
3031.76	2.88174
3033.04	2.92366
3034.33	2.82097
3035.62	2.89093
3036.91	3.29499
3038.19	2.7163
3039.48	2.22623
3040.77	2.41934
3042.05	2.18521
3043.34	2.16889
3044.63	2.1066
3045.91	1.98877
3047.2	2.17498
3048.48	2.20688
3049.77	2.86758
3051.05	3.54122
3052.34	3.69009
3053.62	4.20761
3054.91	4.74238
3056.19	4.62126
3057.48	4.41351
3058.76	4.03247
3060.04	4.28569
3061.33	4.1113
3062.61	3.73859
3063.89	4.0504
3065.17	3.7332
3066.46	3.5626
3067.74	3.36902
3069.02	3.77758
3070.3	4.00501
3071.59	4.33189
3072.87	4.16344
3074.15	3.60471
3075.43	3.4632
3076.71	3.68244
3077.99	3.9903
3079.27	4.42204
3080.55	4.43881
3081.83	4.53563
3083.11	4.33502
3084.39	3.70885
3085.67	3.71034
3086.94	3.61715
3088.22	4.22765
3089.5	3.70832
3090.78	3.95485
3092.06	3.95534
3093.34	4.26344
3094.61	4.45313
3095.89	4.60459
3097.17	5.20914
3098.44	5.51837
3099.72	5.54099
3101	5.65285
3102.27	5.3939
3103.55	5.38162
3104.82	6.03768
3106.1	6.28341
3107.38	6.87775
3108.65	7.55347
3109.93	9.00039
3111.2	10.2005
3112.47	11.1822
3113.75	11.9656
3115.02	12.7221
3116.3	13.4876
3117.57	14.0933
3118.84	14.5885
3120.12	14.9032
3121.39	15.4506
3122.66	16.3056
3123.93	17.5408
3125.2	18.042
3126.48	18.7902
3127.75	19.8655
3129.02	20.4001
3130.29	21.5072
3131.56	22.7286
3132.83	24.066
3134.1	24.815
3135.37	25.798
3136.64	26.7108
3137.91	27.6536
3139.18	28.8009
3140.45	30.0239
3141.72	30.981
3142.99	31.6758
3144.26	32.3161
3145.53	33.1208
3146.8	34.08
3148.07	34.4551
3149.33	33.9494
