#Acq. time (s)=	45
#Accumulations=	2
#Range (cm-¹)=	200...3150
#Windows=	2
#Auto scanning=	Off
#Autofocus=	Off
#Macrospot=	Off
#AutoExposure=	Off
#Spike filter=	Multiple accum.
#Delay time (s)=	0
#Binning=	1
#Readout mode=	Signal
#DeNoise=	Off
#ICS correction=	On
#Dark correction=	Off
#Inst. Process=	Off
#Detector Gain=	Best Dynamic Range
#Detector ADC=	20 kHz       
#Detector temperature (°C)=	-69.85
#Instrument=	LabRAM HR Evol
#Detector=	Synapse
#Objective=	x100
#Grating=	600 gr/mm
#ND Filter=	100%
#Laser (nm)=	532 
#Hole=	100.021
#Range=	Auto
#Laser Pol.=	No
#Raman. Pol.=	No
#Laser Pol. (°)=	-0.0007625
#Raman Pol. (°)=	89.9995
#Collection=	Microscope
#StageXY=	Marzhauser
#StageZ=	Marzhauser
#X (µm)=	-1134.3
#Y (µm)=	1258.5
#Z (µm)=	578.4
#Full time(mm:ss)=	3:18
#Project=	
#Sample=	
#Site=	
#Title=	Mbcal_20_25_42_2x_45s_532 nm_x100_100%_600 gr_mm
#Remark=	
#Date=	18.07.2022 13:22
#Acquired=	18.07.2022 13:22:35
#Base:Fit=	10.08.2022 10:55:08
#Base:Sub=	10.08.2022 10:55:14
#Filter:Polynom=	16.08.2022 10:07:28
#AxisType[0]=Intens
#AxisUnit[0]=Cnt
#AxisType[1]=Spectr
#AxisUnit[1]=1/cm
200.419	-1.79454
202.234	0.870057
204.048	2.11988
205.862	3.9801
207.678	5.85134
209.491	6.80309
211.304	7.52525
213.116	7.56523
214.928	8.5257
216.742	8.96231
218.554	9.7272
220.365	8.92013
222.176	8.48991
223.986	6.61859
225.798	7.09116
227.608	7.38817
229.417	6.69162
231.226	6.32932
233.035	7.57766
234.843	7.56446
236.653	7.17988
238.46	8.11901
240.268	8.69601
242.074	9.11803
243.881	9.65296
245.687	9.83376
247.493	8.75042
249.298	7.93307
251.103	8.51753
252.908	7.64953
254.715	8.32109
256.519	8.82503
258.322	8.6809
260.126	9.93427
261.929	9.30605
263.731	10.339
265.534	9.94296
267.336	9.25668
269.137	8.94984
270.938	9.06126
272.739	8.44595
274.54	8.72808
276.34	10.4288
278.14	9.90155
279.939	10.3779
281.739	10.4677
283.537	10.6723
285.336	10.6761
287.134	9.79743
288.932	8.74082
290.729	8.92683
292.526	9.13342
294.323	8.3865
296.117	7.95726
297.913	7.30488
299.709	8.24807
301.504	7.82773
303.299	7.95463
305.093	8.2653
306.888	7.28504
308.682	7.00597
310.475	6.5113
312.268	7.50064
314.059	7.56622
315.852	8.67312
317.644	8.77118
319.436	9.54467
321.227	10.7369
323.018	11.9125
324.807	11.314
326.597	11.3251
328.387	12.1653
330.177	11.1614
331.967	11.783
333.753	11.3769
335.542	11.4345
337.331	11.7241
339.119	11.9843
340.906	13.0743
342.691	11.8207
344.478	12.5181
346.265	12.9634
348.051	12.9494
349.835	12.5841
351.621	12.6185
353.406	12.6963
355.189	11.6219
356.973	11.2283
358.757	12.6531
360.541	13.5306
362.323	13.6941
364.106	13.7234
365.889	13.308
367.669	11.5208
369.451	11.0203
371.233	10.9753
373.012	10.6304
374.793	11.4358
376.574	11.1966
378.353	11.1415
380.133	11.0372
381.91	11.1662
383.69	11.9571
385.469	13.0579
387.245	12.6427
389.024	13.0445
390.8	12.9038
392.577	13.5821
394.353	13.5206
396.129	13.89
397.906	13.5284
399.68	13.7758
401.456	14.525
403.23	14.466
405.005	15.9421
406.778	16.1946
408.552	16.5
410.325	15.3605
412.099	15.4553
413.87	15.7956
415.643	15.6762
417.414	16.1619
419.187	15.2045
420.957	15.4921
422.728	15.0238
424.498	15.1185
426.269	13.743
428.038	11.8211
429.806	12.0592
431.576	11.2931
433.344	11.5446
435.114	11.2544
436.881	11.0781
438.649	10.2804
440.416	11.0264
442.182	10.2261
443.949	10.0638
445.715	9.51789
447.48	10.437
449.247	10.3916
451.011	9.71376
452.777	9.08812
454.541	10.1654
456.304	10.3143
458.069	10.955
459.832	11.2343
461.594	11.2371
463.358	11.5082
465.119	11.4084
466.881	12.7669
468.642	12.9287
470.404	12.7479
472.165	12.3695
473.925	12.6101
475.684	12.5606
477.445	14.0204
479.204	14.39
480.963	14.8785
482.721	14.7744
484.481	15.8259
486.239	16.713
487.996	18.6693
489.753	19.9434
491.511	20.1007
493.268	21.4098
495.023	20.6925
496.779	21.234
498.534	21.2586
500.289	22.4516
502.046	22.7231
503.8	21.9959
505.554	21.9187
507.307	20.7582
509.06	21.6905
510.813	21.9952
512.566	21.47
514.32	21.7401
516.072	22.1537
517.823	22.1556
519.574	21.8967
521.325	21.8016
523.076	21.6777
524.826	21.8395
526.576	22.211
528.325	22.6293
530.074	22.2024
531.823	22.7455
533.572	22.1996
535.32	22.6594
537.068	23.0213
538.815	23.1725
540.562	22.7062
542.309	22.1789
544.056	21.3423
545.802	20.303
547.547	18.5115
549.293	18.8238
551.038	17.9685
552.783	17.186
554.527	16.2393
556.271	14.4432
558.015	14.1215
559.759	14.2776
561.502	13.3132
563.245	12.3893
564.987	12.7758
566.729	11.467
568.471	10.4592
570.213	10.2741
571.954	10.0412
573.693	8.99894
575.433	8.09546
577.173	7.81571
578.913	7.14659
580.652	6.89531
582.392	5.35962
584.13	4.75731
585.867	4.05133
587.605	3.20452
589.343	2.94213
591.08	3.23568
592.817	3.19593
594.552	2.4073
596.289	2.20191
598.025	1.19027
599.761	0.959421
601.496	1.01564
603.229	0.192463
604.964	-0.767043
606.699	-0.308834
608.433	0.572952
610.165	1.26163
611.898	1.70661
613.631	2.68433
615.364	2.61881
617.095	2.91841
618.827	3.98659
620.559	3.62646
622.288	4.64037
624.02	5.92312
625.75	5.72964
627.479	4.89793
629.209	5.01427
630.939	5.92326
632.667	6.25965
634.396	7.45357
636.125	8.80244
637.851	9.34097
639.58	10.7274
641.305	11.7082
643.033	12.5157
644.76	14.6004
646.485	15.7773
648.212	16.2996
649.936	17.0064
651.662	17.9415
653.388	18.0297
655.111	17.7307
656.836	18.7661
658.558	19.065
660.283	19.724
662.005	19.9507
663.728	20.4664
665.45	20.237
667.173	20.4585
668.893	19.9305
670.616	20.9291
672.336	21.3742
674.057	21.964
675.777	22.5898
677.498	23.2127
679.216	22.3878
680.937	22.4887
682.655	22.6738
684.375	23.8153
686.092	25.3547
687.809	27.3764
689.528	28.1498
691.244	28.7588
692.962	30.5033
694.678	31.6548
696.393	31.5392
698.111	31.3432
699.825	31.8393
701.54	31.8596
703.256	32.0007
704.97	33.0172
706.685	32.9175
708.398	33.8043
710.111	34.8763
711.826	35.2003
713.538	36.009
715.25	37.7362
716.961	39.4124
718.675	40.5427
720.386	41.3999
722.096	41.7484
723.808	42.8075
725.518	43.0787
727.228	43.8141
728.937	44.9151
730.648	46.0493
732.357	45.2281
734.065	44.465
735.773	44.2324
737.483	43.7088
739.19	43.5823
740.897	43.7458
742.604	44.6995
744.31	44.7554
746.018	45.1351
747.724	45.9143
749.429	46.4012
751.134	47.5013
752.839	48.5388
754.544	49.4881
756.248	51.1123
757.953	51.2512
759.657	52.2538
761.36	53.8103
763.063	55.0772
764.765	56.5093
766.468	58.1878
768.169	58.747
769.871	61.6717
771.572	62.5719
773.273	64.3119
774.976	63.9598
776.676	64.4399
778.376	65.5513
780.075	65.0275
781.775	64.9736
783.474	65.5701
785.172	66.4796
786.871	66.7476
788.569	68.4444
790.266	70.2441
791.964	70.7249
793.661	71.8234
795.358	71.8312
797.054	72.3348
798.75	72.5876
800.446	73.5677
802.141	73.0441
803.834	72.7044
805.529	72.0009
807.224	71.2083
808.918	70.5517
810.612	70.7908
812.305	70.8175
813.998	70.1472
815.691	69.3122
817.384	67.7883
819.076	66.4596
820.766	66.2075
822.458	64.8102
824.149	66.1024
825.84	66.2816
827.531	66.1184
829.221	66.3821
830.909	66.0754
832.599	66.3342
834.288	66.3255
835.977	67.8588
837.666	68.1602
839.353	68.9524
841.041	68.8573
842.729	69.9933
844.416	71.1219
846.103	71.1885
847.788	71.2338
849.475	71.8187
851.161	71.0637
852.845	71.0791
854.53	70.795
856.216	69.0739
857.901	69.6993
859.583	68.9497
861.268	67.8799
862.952	67.5255
864.633	66.0394
866.317	65.1867
868	64.7239
869.681	62.9039
871.363	61.6569
873.045	61.1074
874.725	59.7651
876.406	57.7569
878.088	57.1239
879.767	55.6629
881.447	54.4955
883.125	52.3402
884.805	51.0864
886.483	49.5207
888.162	48.4123
889.841	47.2224
891.518	46.5466
893.196	45.8893
894.872	44.6361
896.55	42.6979
898.225	40.9505
899.902	40.6833
901.577	39.8092
903.254	39.1191
904.928	39.6346
906.604	38.7224
908.277	39.3146
909.952	38.3727
911.625	38.2292
913.3	38.411
914.972	38.5609
916.646	39.9054
918.318	40.4536
919.991	40.8276
921.662	40.9247
923.333	40.7725
925.005	40.2892
926.675	40.5373
928.347	39.2952
930.017	38.6467
931.686	39.0461
933.357	38.8225
935.025	38.0059
936.693	37.8465
938.363	36.6588
940.031	36.0539
941.698	34.8929
943.367	33.0243
945.034	30.3454
946.7	29.9117
948.368	28.6144
950.034	27.5196
951.699	26.7844
953.367	24.6898
955.031	24.5828
956.696	24.0349
958.36	23.3258
960.026	21.9267
961.689	21.2236
963.353	19.3531
965.016	18.3027
966.68	18.1489
968.343	18.0157
970.005	18.0451
971.666	17.9687
973.328	17.3955
974.991	16.8468
976.652	16.703
978.312	16.629
979.972	16.5458
981.632	17.198
983.292	17.7764
984.953	16.8694
986.612	16.2907
988.27	16.5247
989.929	15.5834
991.587	16.4588
993.244	16.5156
994.902	16.6074
996.559	16.5574
998.216	15.7997
999.872	15.8871
1001.53	15.6806
1003.19	14.9787
1004.84	15.1935
1006.5	14.0793
1008.15	14.1249
1009.81	14.1608
1011.46	14.391
1013.11	15.2001
1014.77	14.7829
1016.42	14.2079
1018.07	12.9659
1019.73	13.8357
1021.38	12.7223
1023.03	11.8322
1024.68	11.3596
1026.34	13.2797
1027.99	13.5362
1029.64	14.0114
1031.29	13.4505
1032.94	13.3519
1034.59	13.3719
1036.24	13.4305
1037.89	14.4667
1039.53	14.0474
1041.18	13.5109
1042.83	13.5276
1044.48	14.3036
1046.13	14.5536
1047.77	14.6938
1049.42	14.5925
1051.07	14.9495
1052.71	15.2878
1054.36	15.5372
1056	14.7154
1057.65	14.6437
1059.3	15.7989
1060.94	15.0512
1062.59	15.5315
1064.23	16.4445
1065.87	15.6643
1067.52	15.224
1069.16	15.0148
1070.8	15.3532
1072.44	14.7997
1074.09	15.1199
1075.73	14.4023
1077.37	13.9219
1079.01	13.0568
1080.65	12.8798
1082.29	13.2095
1083.93	12.9487
1085.57	12.3038
1087.21	12.8989
1088.85	12.3771
1090.49	13.0682
1092.13	13.2228
1093.77	13.12
1095.41	13.1042
1097.04	12.3026
1098.68	12.9934
1100.32	13.3845
1101.95	14.5626
1103.59	13.291
1105.23	14.3794
1106.86	14.9759
1108.5	16.6723
1110.13	15.8271
1111.77	15.4568
1113.4	15.8507
1115.04	16.7032
1116.67	16.317
1118.31	16.5525
1119.94	16.3222
1121.57	15.5124
1123.2	14.5506
1124.84	14.395
1126.47	13.679
1128.1	12.2643
1129.73	11.4943
1131.36	11.5799
1132.99	10.9705
1134.62	10.108
1136.25	10.2706
1137.88	9.45614
1139.51	8.88965
1141.14	8.80409
1142.77	8.18447
1144.4	8.43273
1146.03	7.57638
1147.66	6.24658
1149.28	6.25275
1150.91	5.75335
1152.54	5.55456
1154.16	4.8711
1155.79	4.25324
1157.42	2.93974
1159.04	2.50057
1160.67	2.25685
1162.29	2.25573
1163.92	1.76093
1165.54	1.85014
1167.17	1.9792
1168.79	2.46714
1170.41	2.10481
1172.04	1.73142
1173.66	2.15975
1175.28	2.10719
1176.9	3.14487
1178.53	4.29273
1180.15	6.72261
1181.77	7.94456
1183.39	9.66348
1185.01	10.3603
1186.63	12.0944
1188.25	12.924
1189.87	14.0561
1191.49	14.1052
1193.11	13.9011
1194.73	14.4745
1196.35	15.4845
1197.96	15.4677
1199.58	16.3542
1201.2	16.771
1202.82	16.4101
1204.43	17.3458
1206.05	17.9476
1207.66	18.4634
1209.28	19.3514
1210.9	20.8375
1212.51	21.95
1214.13	22.4692
1215.74	22.9564
1217.36	24.1302
1218.97	24.4783
1220.58	25.0778
1222.2	26.1703
1223.81	28.224
1225.42	28.8159
1227.04	29.3276
1228.65	30.1322
1230.26	30.4969
1231.87	30.3922
1233.48	29.9402
1235.1	29.6387
1236.71	29.7997
1238.32	29.683
1239.93	30.4023
1241.53	30.0577
1243.14	30.9559
1244.75	31.985
1246.36	32.9826
1247.97	33.4738
1249.58	34.2843
1251.19	34.721
1252.8	35.5119
1254.4	37.5083
1256.01	39.3038
1257.62	41.1502
1259.22	41.6649
1260.83	42.5229
1262.43	42.7174
1264.04	43.1704
1265.64	42.9715
1267.25	44.1123
1268.85	44.6513
1270.46	45.5087
1272.06	46.4169
1273.66	47.4587
1275.27	49.2383
1276.87	50.4716
1278.48	51.9472
1280.08	53.1435
1281.68	54.9705
1283.28	55.9494
1284.88	57.3662
1286.48	58.1298
1288.08	59.6698
1289.68	60.9384
1291.28	62.6537
1292.88	62.9556
1294.48	63.8524
1296.08	64.4888
1297.68	65.3709
1299.28	65.8682
1300.88	65.9537
1302.48	67.3154
1304.07	68.3176
1305.67	68.3109
1307.27	69.1814
1308.87	69.9664
1310.46	69.845
1312.06	69.5652
1313.65	69.976
1315.25	71.0102
1316.85	72.0121
1318.44	71.9199
1320.03	72.8219
1321.63	73.1359
1323.22	74.2948
1324.82	73.9655
1326.41	74.2732
1328	74.4227
1329.6	74.5356
1331.19	74.1616
1332.78	73.6903
1334.37	74.287
1335.96	73.9283
1337.56	72.777
1339.15	71.9021
1340.74	72.8868
1342.33	72.4339
1343.92	72.2257
1345.51	73.1873
1347.1	72.6088
1348.69	72.4761
1350.28	72.9199
1351.86	72.586
1353.45	72.0287
1355.04	70.9671
1356.63	69.8614
1358.21	69.7596
1359.8	68.5225
1361.39	69.0185
1362.97	68.0814
1364.56	67.549
1366.15	67.5141
1367.73	66.8927
1369.32	66.6002
1370.9	65.9392
1372.49	65.7484
1374.07	65.8151
1375.65	64.3
1377.24	64.2884
1378.82	64.4427
1380.41	63.3341
1381.99	64.1809
1383.57	63.2275
1385.15	62.8505
1386.73	62.3003
1388.32	60.9956
1389.9	60.5324
1391.48	59.818
1393.06	59.7687
1394.64	58.6795
1396.22	57.2959
1397.8	55.9004
1399.38	54.2449
1400.96	53.4465
1402.54	53.0134
1404.11	53.106
1405.69	52.8793
1407.27	52.9966
1408.85	52.5033
1410.43	52.766
1412	52.7358
1413.58	52.6979
1415.16	53.275
1416.73	54.8868
1418.31	56.4971
1419.88	58.6819
1421.46	60.1906
1423.03	62.3131
1424.61	63.9649
1426.18	65.5907
1427.76	68.4653
1429.33	69.8064
1430.9	71.0758
1432.48	73.9408
1434.05	76.7994
1435.62	79.3674
1437.2	80.8681
1438.77	82.6012
1440.34	84.2883
1441.91	85.1337
1443.48	86.4769
1445.05	88.3624
1446.62	89.4913
1448.19	91.3795
1449.76	92.9548
1451.33	95.1365
1452.9	94.7813
1454.47	96.3813
1456.04	99.2941
1457.61	99.3281
1459.17	100.187
1460.74	101.605
1462.31	102.656
1463.88	103.44
1465.44	103.762
1467.01	104.252
1468.58	105.536
1470.14	105.751
1471.71	106.105
1473.27	106.397
1474.84	106.532
1476.4	106.607
1477.97	106.682
1479.53	107.624
1481.1	107.456
1482.66	107.536
1484.22	106.207
1485.78	105.648
1487.35	104.083
1488.91	102.969
1490.47	101.28
1492.03	100.919
1493.59	100.26
1495.16	98.6623
1496.72	96.0543
1498.28	94.1882
1499.84	91.7903
1501.4	89.3787
1502.96	86.7823
1504.52	84.0462
1506.08	80.2457
1507.64	77.6619
1509.19	75.0224
1510.75	71.8841
1512.31	67.5295
1513.87	61.9566
1515.42	57.8608
1516.98	55.1665
1518.54	51.5943
1520.1	48.9543
1521.65	47.4116
1523.21	45.4123
1524.76	42.7681
1526.32	41.2747
1527.87	39.3614
1529.43	38.4065
1530.98	37.827
1532.54	38.3017
1534.09	37.0332
1535.64	35.8591
1537.2	36.25
1538.75	36.295
1540.3	36.7369
1541.85	36.3865
1543.41	36.5341
1544.96	37.5864
1546.51	38.5786
1548.06	39.2591
1549.61	40.2291
1551.16	40.9588
1552.71	41.6272
1554.26	42.0917
1555.81	43.2812
1557.36	44.2402
1558.91	44.2062
1560.46	44.7163
1562.01	45.5672
1563.56	46.5002
1565.1	46.1166
1566.65	46.1947
1568.2	47.2283
1569.75	47.8462
1571.29	48.1509
1572.84	49.2344
1574.38	49.8114
1575.93	50.8762
1577.48	51.7969
1579.02	52.5881
1580.57	52.7614
1582.11	52.7411
1583.65	52.6989
1585.2	53.0885
1586.74	53.5854
1588.29	53.4402
1589.83	52.9559
1591.37	52.4206
1592.92	54.5059
1594.46	55.2513
1596	55.4838
1597.54	55.2859
1599.08	55.4092
1600.62	54.4868
1602.16	54.6537
1603.7	55.0846
1605.24	55.4287
1606.78	56.2048
1608.32	55.9801
1609.86	55.6671
1611.4	55.5514
1612.94	55.9356
1614.48	56.3246
1616.02	56.5234
1617.56	56.817
1619.09	56.8135
1620.63	56.5156
1622.17	57.1331
1623.71	57.1376
1625.24	58.1682
1626.78	58.7032
1628.31	58.7118
1629.85	59.6629
1631.39	60.5429
1632.92	61.6716
1634.46	63.1042
1635.99	63.5861
1637.52	65.5879
1639.06	67.0103
1640.59	67.5625
1642.12	68.3071
1643.66	70.3643
1645.19	70.9945
1646.72	72.7534
1648.25	74.5484
1649.79	75.2783
1651.32	75.6824
1652.85	75.9292
1654.38	76.0943
1655.91	75.9218
1657.44	75.5827
1658.97	75.3928
1660.5	74.6738
1662.03	74.4167
1663.56	73.7937
1665.09	72.1928
1666.62	71.2941
1668.15	71.1957
1669.67	70.4635
1671.2	68.4106
1672.73	66.4707
1674.26	64.3405
1675.79	63.1244
1677.31	61.2416
1678.84	60.0208
1680.36	57.7591
1681.89	55.5474
1683.42	53.4475
1684.94	50.8497
1686.47	49.1721
1687.99	46.7649
1689.51	43.7079
1691.04	41.2256
1692.56	39.1764
1694.08	36.4854
1695.61	33.4828
1697.13	31.0134
1698.65	29.6975
1700.18	28.1106
1701.7	27.4455
1703.22	25.1529
1704.74	23.228
1706.26	22.5879
1707.78	20.9324
1709.3	19.445
1710.82	18.8355
1712.35	17.2507
1713.86	16.6217
1715.39	15.6717
1716.9	14.6114
1718.42	14.3348
1719.94	14.2925
1721.46	13.6884
1722.98	14.9577
1724.5	14.018
1726.01	13.5659
1727.53	12.9428
1729.05	12.3643
1730.56	12.147
1732.08	11.5641
1733.6	11.0075
1735.11	10.6175
1736.63	9.85539
1738.14	9.70474
1739.66	9.47932
1741.17	9.21985
1742.69	9.11045
1744.2	8.88912
1745.71	8.15782
1747.23	8.63817
1748.74	8.59851
1750.25	8.2381
1751.77	7.99077
1753.28	7.47357
1754.79	7.18708
1756.3	6.84297
1757.81	6.82527
1759.33	6.65669
1760.84	6.71529
1762.35	6.38729
1763.86	5.58527
1765.37	5.13023
1766.88	5.66944
1768.39	6.08588
1769.9	5.48333
1771.41	5.44016
1772.91	5.66122
1774.42	5.73334
1775.93	5.49335
1777.44	4.87194
1778.95	3.99525
1780.45	4.14656
1781.96	4.35038
1783.47	4.39286
1784.97	4.82789
1786.48	5.45511
1787.99	5.56119
1789.49	6.6523
1791	7.22757
1792.5	7.42368
1794.01	8.25053
1795.51	8.66844
1797.01	8.77699
1798.52	9.20455
1800.02	8.74831
1801.52	9.10249
1803.03	8.74682
1804.53	8.7534
1806.03	8.44184
1807.54	8.31354
1809.04	8.43167
1810.54	8.55332
1812.04	8.63562
1813.54	8.78026
1815.04	8.31344
1816.54	8.21635
1818.04	8.45864
1819.54	8.21807
1821.04	8.19373
1822.54	8.41083
1824.04	7.68192
1825.54	7.3237
1827.04	6.88128
1828.54	6.48367
1830.03	6.24209
1831.53	6.32687
1833.03	6.14795
1834.53	6.16159
1836.02	5.95668
1837.52	5.98174
1839.02	6.36981
1840.51	6.42599
1842.01	6.24208
1843.5	6.21007
1845	6.11172
1846.49	5.92502
1847.99	5.80151
1849.48	5.72704
1850.98	5.24103
1852.47	5.15389
1853.96	4.86445
1855.46	4.52651
1856.95	4.07585
1858.44	4.33735
1859.94	4.52331
1861.43	4.35561
1862.92	4.65963
1864.41	4.94156
1865.9	4.53251
1867.39	4.11599
1868.88	4.34883
1870.37	4.62543
1871.86	4.49453
1873.35	4.5347
1874.84	4.43151
1876.33	5.57849
1877.82	5.61582
1879.31	5.55671
1880.8	5.50434
1882.29	6.43249
1882.58	6.27019
1884.08	6.71112
1885.57	6.55568
1887.06	5.74517
1888.56	5.85822
1890.05	6.13899
1891.54	6.78146
1893.04	6.75112
1894.53	6.98622
1896.02	6.64027
1897.51	6.9254
1899	7.15179
1900.5	7.32219
1901.99	7.81986
1903.48	7.91398
1904.97	8.05155
1906.46	8.08563
1907.95	8.75562
1909.44	9.13827
1910.93	9.23149
1912.42	9.65014
1913.91	8.90116
1915.4	8.77304
1916.88	8.67485
1918.37	8.44757
1919.86	8.12504
1921.35	7.10583
1922.84	6.76887
1924.32	5.629
1925.81	5.61411
1927.3	4.50965
1928.78	4.27144
1930.27	4.22067
1931.75	3.79313
1933.24	3.35311
1934.72	3.01017
1936.21	2.65658
1937.69	1.89435
1939.18	2.02886
1940.66	1.48321
1942.15	1.92609
1943.63	1.21757
1945.11	0.811786
1946.6	0.80534
1948.08	0.84404
1949.56	1.0704
1951.04	0.39336
1952.53	0.226708
1954.01	0.479005
1955.49	0.911716
1956.97	0.529479
1958.45	0.422948
1959.93	0.400736
1961.41	0.315995
1962.89	1.56291
1964.37	1.68609
1965.85	1.91247
1967.33	2.44272
1968.81	2.80046
1970.29	3.60199
1971.77	4.36594
1973.24	4.51577
1974.72	5.10548
1976.2	5.2169
1977.68	5.48089
1979.15	6.17971
1980.63	6.37517
1982.11	6.88381
1983.58	7.03792
1985.06	6.86559
1986.53	6.94307
1988.01	6.60975
1989.48	6.35474
1990.96	5.5449
1992.43	5.39764
1993.91	5.06065
1995.38	4.71254
1996.86	5.18644
1998.33	4.3711
1999.8	3.82372
2001.27	3.67254
2002.75	3.6462
2004.22	3.46376
2005.69	3.5074
2007.16	3.64026
2008.64	3.89593
2010.11	2.9648
2011.58	2.99744
2013.05	3.03612
2014.52	1.78333
2015.99	2.39221
2017.46	2.22156
2018.93	2.84539
2020.4	3.03395
2021.87	2.57367
2023.34	2.75755
2024.8	2.95144
2026.27	3.09806
2027.74	3.38773
2029.21	3.32841
2030.68	3.17477
2032.14	3.46947
2033.61	3.9876
2035.08	4.2662
2036.54	4.59685
2038.01	5.00913
2039.48	5.32551
2040.94	6.69917
2042.41	6.58198
2043.87	6.89588
2045.34	6.45488
2046.8	7.09913
2048.27	7.99163
2049.73	7.90077
2051.19	8.44933
2052.66	8.29319
2054.12	8.39181
2055.58	8.94878
2057.05	9.24883
2058.51	8.88841
2059.97	8.84135
2061.43	8.73418
2062.9	7.58889
2064.36	7.11823
2065.82	7.11613
2067.28	6.77122
2068.74	6.89776
2070.2	6.61601
2071.66	5.77947
2073.12	5.42944
2074.58	6.39853
2076.04	6.08407
2077.5	6.34804
2078.95	6.76525
2080.41	6.06692
2081.87	5.58915
2083.33	4.84298
2084.79	4.95417
2086.24	5.02747
2087.7	5.28211
2089.16	6.22573
2090.61	5.2661
2092.07	4.92146
2093.53	4.99471
2094.98	5.49982
2096.44	6.28275
2097.89	6.91871
2099.35	6.64498
2100.8	6.73491
2102.26	6.73025
2103.71	6.93001
2105.16	7.52821
2106.62	7.64635
2108.07	8.14775
2109.53	8.71517
2110.98	9.42988
2112.43	10.088
2113.88	11.3898
2115.33	12.0389
2116.79	13.1951
2118.24	13.9219
2119.69	14.8724
2121.14	14.9936
2122.59	15.6908
2124.04	16.2009
2125.49	16.4813
2126.94	17.3125
2128.39	17.2999
2129.84	17.841
2131.29	18.7237
2132.74	19.4684
2134.19	19.8706
2135.63	20.8333
2137.08	22.3423
2138.53	23.2995
2139.98	24.8954
2141.43	25.4178
2142.87	26.1313
2144.32	26.6524
2145.77	27.5234
2147.21	28.8928
2148.66	28.9069
2150.1	30.469
2151.55	30.5416
2152.99	30.405
2154.44	31.3511
2155.88	32.1952
2157.33	33.5481
2158.77	34.5486
2160.21	35.4432
2161.66	36.3421
2163.1	37.1629
2164.55	39.291
2165.99	40.7345
2167.43	41.7942
2168.87	42.0719
2170.31	42.2129
2171.76	42.3537
2173.2	42.9178
2174.64	42.9882
2176.08	43.6873
2177.52	44.4187
2178.96	44.3618
2180.4	44.3195
2181.84	44.6142
2183.28	44.373
2184.72	45.2602
2186.16	45.4553
2187.6	45.7547
2189.04	45.4267
2190.47	44.3031
2191.91	43.7495
2193.35	42.7212
2194.79	42.4961
2196.23	41.0555
2197.66	40.5815
2199.1	39.495
2200.54	39.0121
2201.97	38.7065
2203.41	38.5059
2204.84	37.519
2206.28	37.1433
2207.71	36.3158
2209.15	35.4281
2210.58	34.145
2212.02	33.0999
2213.45	32.0611
2214.89	31.6538
2216.32	30.5362
2217.75	29.5746
2219.19	28.4081
2220.62	27.5314
2222.05	27.9087
2223.48	26.084
2224.92	25.7025
2226.35	25.1914
2227.78	24.718
2229.21	24.5092
2230.64	22.9649
2232.07	22.662
2233.5	21.7583
2234.93	21.2689
2236.36	20.657
2237.79	19.4447
2239.22	18.8312
2240.65	17.4461
2242.08	17.0729
2243.51	16.6779
2244.94	15.5306
2246.37	14.8647
2247.79	14.1376
2249.22	13.7226
2250.65	12.7228
2252.08	12.7183
2253.5	12.2388
2254.93	11.3595
2256.36	11.5711
2257.78	10.5685
2259.21	9.70481
2260.63	7.91027
2262.06	7.1872
2263.48	6.04735
2264.91	4.93015
2266.33	4.24648
2267.76	3.25315
2269.18	2.83346
2270.6	1.84831
2272.03	2.12815
2273.45	1.47892
2274.87	0.919466
2276.3	0.736819
2277.72	1.32545
2279.14	0.895273
2280.56	0.728678
2281.98	0.590895
2283.41	0.900268
2284.83	1.35934
2286.25	0.879213
2287.67	0.551386
2289.09	0.516476
2290.51	0.580174
2291.93	1.06852
2293.35	1.50195
2294.77	1.05247
2296.19	1.29121
2297.61	2.10372
2299.02	3.04558
2300.44	3.26905
2301.86	3.32472
2303.28	4.63991
2304.7	5.87631
2306.11	6.67624
2307.53	7.14386
2308.95	7.79211
2310.36	8.94451
2311.78	9.53787
2313.2	10.4496
2314.61	10.5051
2316.03	10.3073
2317.44	11.1333
2318.86	12.0755
2320.27	12.6248
2321.69	12.1111
2323.1	12.0793
2324.51	11.5059
2325.93	11.7628
2327.34	11.8868
2328.76	11.265
2330.17	10.818
2331.58	10.4096
2332.99	11.1263
2334.41	10.2941
2335.82	9.84008
2337.23	10.1076
2338.64	9.79034
2340.05	9.26089
2341.46	8.70467
2342.87	8.84167
2344.28	7.94171
2345.69	7.79874
2347.1	8.36178
2348.51	7.92644
2349.92	6.76735
2351.33	6.16645
2352.74	6.07501
2354.15	5.97259
2355.56	5.03258
2356.97	4.41941
2358.37	4.43942
2359.78	4.4133
2361.19	3.70585
2362.6	3.89623
2364	3.9024
2365.41	4.10014
2366.82	3.57469
2368.22	4.07924
2369.63	3.55041
2371.03	3.37962
2372.44	3.59405
2373.84	3.95453
2375.25	4.30997
2376.65	3.85442
2378.06	3.78112
2379.46	3.63049
2380.86	3.72514
2382.27	3.10468
2383.67	2.62955
2385.07	1.77744
2386.48	1.77419
2387.88	1.99249
2389.28	2.05463
2390.69	1.27189
2392.09	1.49271
2393.49	1.2384
2394.89	1.47726
2396.29	1.84472
2397.69	1.86747
2399.09	1.65625
2400.49	1.99821
2401.89	2.62307
2403.29	3.38834
2404.69	3.04506
2406.09	3.22374
2407.49	3.6584
2408.89	3.80965
2410.29	4.188
2411.69	4.32003
2413.08	4.09433
2414.48	4.06572
2415.88	5.30276
2417.28	5.94803
2418.67	6.05471
2420.07	6.09823
2421.47	6.25672
2422.86	6.40221
2424.26	6.93082
2425.65	6.6225
2427.05	6.65642
2428.45	6.69469
2429.84	6.28522
2431.23	5.72036
2432.63	5.90421
2434.02	5.52921
2435.42	5.67356
2436.81	5.11297
2438.2	5.11443
2439.6	4.71633
2440.99	4.55164
2442.38	4.49797
2443.78	4.4321
2445.17	4.19392
2446.56	3.88827
2447.95	3.40985
2449.34	3.65965
2450.73	3.86701
2452.13	2.88471
2453.52	2.52767
2454.91	2.0683
2456.3	2.66477
2457.69	2.35256
2459.08	2.26065
2460.47	1.53368
2461.85	1.43348
2463.24	0.941008
2464.63	1.05716
2466.02	0.860807
2467.41	0.566126
2468.8	0.26157
2470.19	0.564132
2471.57	0.554222
2472.96	0.408458
2474.35	0.0771135
2475.73	0.565381
2477.12	0.603647
2478.51	0.633712
2479.89	0.276739
2481.28	0.298837
2482.66	0.705707
2484.05	1.63303
2485.43	2.16831
2486.82	1.45868
2488.2	1.07265
2489.59	0.562143
2490.97	0.446957
2492.35	1.21295
2493.74	1.86233
2495.12	1.55929
2496.5	2.07527
2497.89	2.66222
2499.27	2.48351
2500.65	2.38752
2502.03	2.51565
2503.42	3.08246
2504.8	3.51956
2506.18	3.45163
2507.56	3.97579
2508.94	4.81358
2510.32	5.12547
2511.7	5.51736
2513.08	6.20502
2514.46	6.91951
2515.84	7.55608
2517.22	7.96072
2518.6	8.49609
2519.98	8.24929
2521.36	8.35108
2522.73	8.48831
2524.11	8.24642
2525.49	8.92314
2526.87	8.79544
2528.25	9.63615
2529.62	9.46189
2531	9.82434
2532.38	9.47599
2533.75	9.55183
2535.13	9.14024
2536.5	9.02369
2537.88	8.93878
2539.25	9.11213
2540.63	8.69447
2542.01	8.64786
2543.38	8.81871
2544.75	9.10563
2546.13	8.20567
2547.5	8.68088
2548.88	8.76993
2550.25	8.85327
2551.62	8.7939
2553	8.1368
2554.37	8.13047
2555.74	8.02031
2557.11	8.52919
2558.49	8.54837
2559.86	8.65444
2561.23	9.56997
2562.6	9.22084
2563.97	9.5504
2565.34	10.1792
2566.71	9.49025
2568.08	9.47187
2569.45	9.94654
2570.82	10.5764
2572.19	10.2872
2573.56	9.99833
2574.93	10.0834
2576.3	10.8444
2577.67	10.825
2579.03	10.1808
2580.4	10.4113
2581.77	10.3346
2583.14	10.4034
2584.5	10.0211
2585.87	10.1296
2587.24	9.94232
2588.6	10.449
2589.97	10.8358
2591.34	10.2783
2592.7	10.9356
2594.07	11.8079
2595.43	11.3865
2596.8	11.3816
2598.16	10.5604
2599.53	11.1704
2600.89	10.5157
2602.26	10.5907
2603.62	10.8891
2604.98	10.8646
2606.35	10.7729
2607.71	10.2046
2609.07	10.1125
2610.44	10.2192
2611.8	10.7109
2613.16	11.0304
2614.52	10.5548
2615.88	10.978
2617.25	10.6039
2618.61	10.8419
2619.97	10.7281
2621.33	10.8877
2622.69	11.4402
2624.05	11.4135
2625.41	11.2568
2626.77	10.6935
2628.13	10.9925
2629.49	11.1883
2630.85	10.9894
2632.21	11.2855
2633.56	11.077
2634.92	10.7565
2636.28	10.957
2637.64	10.556
2639	10.3594
2640.35	10.0792
2641.71	10.9075
2643.07	10.9237
2644.42	10.8647
2645.78	9.65035
2647.14	9.25297
2648.49	9.29033
2649.85	9.14536
2651.2	9.77309
2652.56	9.8414
2653.91	10.1138
2655.27	10.1913
2656.62	10.454
2657.98	10.4808
2659.33	10.5976
2660.68	10.8954
2662.04	11.0939
2663.39	10.657
2664.74	11.1764
2666.1	11.1774
2667.45	11.0851
2668.8	10.4801
2670.15	11.0392
2671.5	11.3069
2672.86	10.7121
2674.21	10.8218
2675.56	10.7046
2676.91	11.6497
2678.26	11.833
2679.61	12.2098
2680.96	11.8729
2682.31	11.364
2683.66	11.7644
2685.01	11.7581
2686.36	11.8015
2687.71	11.6253
2689.06	11.3775
2690.4	10.7908
2691.75	10.4719
2693.1	10.4212
2694.45	10.6419
2695.8	10.6782
2697.14	10.3763
2698.49	10.5228
2699.84	10.4881
2701.18	10.7941
2702.53	10.7573
2703.88	11.0724
2705.22	12.3289
2706.57	12.3186
2707.91	12.4687
2709.26	12.5558
2710.6	11.939
2711.95	12.1126
2713.29	12.1433
2714.64	12.9189
2715.98	13.6665
2717.32	14.0411
2718.67	14.1577
2720.01	14.0909
2721.35	14.2767
2722.7	14.6409
2724.04	15.0023
2725.38	14.759
2726.72	14.7117
2728.06	14.4489
2729.4	14.7398
2730.75	14.1215
2732.09	14.3837
2733.43	13.7196
2734.77	13.5406
2736.11	13.5521
2737.45	13.1671
2738.79	12.4068
2740.13	11.8386
2741.47	11.5238
2742.81	11.5478
2744.15	11.3298
2745.48	10.3368
2746.82	9.79579
2748.16	9.10508
2749.5	8.62739
2750.84	7.83985
2752.17	7.35052
2753.51	7.25318
2754.85	7.26493
2756.19	6.86703
2757.52	6.30163
2758.86	5.65762
2760.19	5.72543
2761.53	5.73818
2762.86	5.28736
2764.2	5.11082
2765.54	4.92986
2766.87	4.82866
2768.2	5.11008
2769.54	5.2009
2770.87	5.62016
2772.21	5.23612
2773.54	4.4382
2774.88	4.57064
2776.21	4.28709
2777.54	4.13126
2778.87	4.34568
2780.21	3.97535
2781.54	3.49102
2782.87	3.16044
2784.2	2.72677
2785.53	2.65457
2786.87	2.56057
2788.2	2.39454
2789.53	2.23448
2790.86	1.59323
2792.19	1.68252
2793.52	1.9934
2794.85	1.98947
2796.18	1.28764
2797.51	0.439915
2798.84	0.00776492
2800.17	-0.0965633
2801.49	-0.548339
2802.82	-0.948922
2804.15	-1.59684
2805.48	-1.47642
2806.81	-1.63088
2808.13	-0.871832
2809.46	-0.383894
2810.79	-1.08163
2812.12	-1.06138
2813.44	-0.85232
2814.77	-0.508753
2816.09	0.285707
2817.42	0.8094
2818.75	2.02878
2820.07	3.34039
2821.4	4.41215
2822.72	4.44971
2824.05	5.34177
2825.37	6.99298
2826.7	9.1143
2828.02	11.026
2829.35	12.494
2830.67	13.7835
2831.99	15.5245
2833.31	17.8055
2834.64	20.4421
2835.96	21.9994
2837.28	24.2933
2838.61	26.0757
2839.93	28.2928
2841.25	30.4196
2842.57	33.2143
2843.89	36.2411
2845.21	39.6937
2846.53	42.3416
2847.85	45.7224
2849.17	49.5275
2850.49	53.3085
2851.81	56.9826
2853.13	60.7203
2854.45	64.8639
2855.77	69.2817
2857.09	73.0349
2858.41	77.234
2859.73	80.6677
2861.05	84.0361
2862.36	87.5437
2863.68	90.7825
2865	94.4226
2866.32	97.8582
2867.64	100.493
2868.95	103.729
2870.27	106.505
2871.59	109.353
2872.9	111.549
2874.22	115.133
2875.53	116.935
2876.85	119.028
2878.16	121.588
2879.48	123.883
2880.79	125.826
2882.11	127.724
2883.42	129.088
2884.74	131.309
2886.05	133.18
2887.36	135.179
2888.68	136.781
2889.99	138.98
2891.3	141.183
2892.62	143.398
2893.93	145.441
2895.24	147.743
2896.55	150.147
2897.86	152.897
2899.18	155.782
2900.49	158.315
2901.8	160.699
2903.11	164.725
2904.42	167.874
2905.73	172.067
2907.04	176.631
2908.35	181.672
2909.66	186.546
2910.97	190.952
2912.28	195.208
2913.59	200.655
2914.9	206.258
2916.21	211.566
2917.51	216.009
2918.82	220.888
2920.13	225.16
2921.44	229.533
2922.74	232.559
2924.05	235.603
2925.36	237.86
2926.67	239.756
2927.97	241.506
2929.28	242.437
2930.59	243.482
2931.89	243.936
2933.2	243.757
2934.5	242.634
2935.81	241.385
2937.11	239.807
2938.42	237.61
2939.72	235.202
2941.02	232.322
2942.33	228.503
2943.63	224.296
2944.94	219.813
2946.24	214.719
2947.54	209.701
2948.85	204.5
2950.15	199.722
2951.45	194.951
2952.75	189.947
2954.05	184.301
2955.36	178.785
2956.66	173.557
2957.96	168.119
2959.26	162.489
2960.56	157.11
2961.86	151.578
2963.16	147.015
2964.46	142.651
2965.76	138.353
2967.06	134.46
2968.36	131.681
2969.66	128.14
2970.96	124.845
2972.26	121.551
2973.56	118.351
2974.85	115.299
2976.15	112.217
2977.45	109.095
2978.75	106.284
2980.05	103.124
2981.34	99.7937
2982.64	96.5864
2983.94	93.9211
2985.23	90.1635
2986.53	87.3664
2987.83	83.4464
2989.12	79.9803
2990.42	76.0961
2991.71	73.0984
2993.01	69.6736
2994.3	66.3062
2995.6	62.4392
2996.89	58.868
2998.19	54.8985
2999.48	51.4671
3000.77	48.8085
3002.07	45.0806
3003.36	41.6711
3004.65	38.4252
3005.95	35.42
3007.24	31.1783
3008.53	28.5803
3009.82	25.382
3011.12	22.6262
3012.41	19.7659
3013.7	17.7752
3014.99	15.3823
3016.28	13.4559
3017.57	11.5418
3018.86	9.42908
3020.15	7.42877
3021.44	5.91865
3022.73	4.23277
3024.02	2.88602
3025.31	1.94972
3026.6	1.48057
3027.89	1.51107
3029.18	0.602125
3030.47	0.513028
3031.76	0.681955
3033.04	0.391627
3034.33	-0.212587
3035.62	-0.507029
3036.91	-0.4647
3038.19	-0.387736
3039.48	-0.200337
3040.77	-0.221163
3042.05	-0.422846
3043.34	0.367438
3044.63	0.708081
3045.91	1.6428
3047.2	2.03542
3048.48	1.93369
3049.77	1.87609
3051.05	2.2408
3052.34	2.0265
3053.62	1.72173
3054.91	1.6858
3056.19	1.97654
3057.48	1.84498
3058.76	2.20528
3060.04	1.95034
3061.33	2.61062
3062.61	3.04977
3063.89	3.45657
3065.17	3.35206
3066.46	2.72176
3067.74	3.25929
3069.02	3.31692
3070.3	3.5855
3071.59	3.23758
3072.87	3.15359
3074.15	2.45847
3075.43	2.23953
3076.71	1.62956
3077.99	1.95628
3079.27	1.83107
3080.55	2.05523
3081.83	2.18071
3083.11	1.53979
3084.39	1.36347
3085.67	1.47651
3086.94	0.806569
3088.22	0.850559
3089.5	0.996556
3090.78	1.05565
3092.06	1.08427
3093.34	0.979449
3094.61	1.59581
3095.89	1.82846
3097.17	1.76632
3098.44	2.30341
3099.72	2.66686
3101	3.09598
3102.27	3.77232
3103.55	4.32882
3104.82	4.50206
3106.1	4.91883
3107.38	5.66203
3108.65	6.5242
3109.93	7.20606
3111.2	7.39781
3112.47	7.8854
3113.75	8.85152
3115.02	9.89319
3116.3	10.5089
3117.57	11.5454
3118.84	12.6727
3120.12	13.5684
3121.39	14.7411
3122.66	15.9263
3123.93	16.6125
3125.2	18.1003
3126.48	18.7455
3127.75	19.5999
3129.02	20.499
3130.29	21.8348
3131.56	23.1043
3132.83	23.414
3134.1	23.8533
3135.37	23.9899
3136.64	24.8638
3137.91	25.8494
3139.18	27.0284
3140.45	27.9622
3141.72	28.8159
3142.99	29.2324
3144.26	29.5719
3145.53	29.7436
3146.8	29.9105
3148.07	29.8059
3149.33	29.8179
