#Acq. time (s)=	45
#Accumulations=	2
#Range (cm-¹)=	200...3150
#Windows=	2
#Auto scanning=	Off
#Autofocus=	Off
#Macrospot=	Off
#AutoExposure=	Off
#Spike filter=	Multiple accum.
#Delay time (s)=	0
#Binning=	1
#Readout mode=	Signal
#DeNoise=	Off
#ICS correction=	On
#Dark correction=	Off
#Inst. Process=	Off
#Detector Gain=	Best Dynamic Range
#Detector ADC=	20 kHz       
#Detector temperature (°C)=	-69.85
#Instrument=	LabRAM HR Evol
#Detector=	Synapse
#Objective=	x100
#Grating=	600 gr/mm
#ND Filter=	100%
#Laser (nm)=	532 
#Hole=	100.021
#Range=	Auto
#Laser Pol.=	No
#Raman. Pol.=	No
#Laser Pol. (°)=	-0.0007625
#Raman Pol. (°)=	89.9995
#Collection=	Microscope
#StageXY=	Marzhauser
#StageZ=	Marzhauser
#X (µm)=	-1207.1
#Y (µm)=	1250.2
#Z (µm)=	578.3
#Full time(mm:ss)=	3:19
#Project=	
#Sample=	
#Site=	
#Title=	Mbcal_20_25_08_2x_45s_532 nm_x100_100%_600 gr_mm
#Remark=	
#Date=	18.07.2022 10:01
#Acquired=	18.07.2022 10:01:07
#Edit:Spike=	18.07.2022 10:04:06
#Edit:Spike=	18.07.2022 10:04:08
#Base:Fit=	10.08.2022 10:55:08
#Base:Sub=	10.08.2022 10:55:14
#Filter:Polynom=	16.08.2022 10:07:28
#AxisType[0]=Intens
#AxisUnit[0]=Cnt
#AxisType[1]=Spectr
#AxisUnit[1]=1/cm
200.419	37.1922
202.234	34.8318
204.048	29.8697
205.862	25.9698
207.678	21.8535
209.491	18.9308
211.304	16.8911
213.116	15.6309
214.928	15.3883
216.742	14.0386
218.554	13.3385
220.365	14.1566
222.176	13.0051
223.986	12.5913
225.798	13.3869
227.608	14.2812
229.417	14.7419
231.226	13.8457
233.035	14.1064
234.843	13.8026
236.653	13.9102
238.46	13.7832
240.268	12.7818
242.074	12.6251
243.881	12.5955
245.687	13.4624
247.493	13.5477
249.298	14.0212
251.103	14.7938
252.908	15.5429
254.715	17.1387
256.519	16.7839
258.322	17.39
260.126	17.6341
261.929	16.8464
263.731	17.4048
265.534	17.6373
267.336	18.1051
269.137	18.1416
270.938	18.7896
272.739	19.5569
274.54	18.6602
276.34	17.6901
278.14	16.1259
279.939	14.7794
281.739	13.8663
283.537	12.3235
285.336	10.686
287.134	10.8343
288.932	10.6276
290.729	9.19122
292.526	8.13904
294.323	8.5544
296.117	8.59475
297.913	10.1477
299.709	9.68336
301.504	10.6485
303.299	10.3199
305.093	10.7723
306.888	10.3071
308.682	11.9672
310.475	13.1833
312.268	12.0283
314.059	12.5207
315.852	13.4852
317.644	13.1709
319.436	13.4616
321.227	13.9382
323.018	14.7016
324.807	14.7117
326.597	14.5704
328.387	14.5269
330.177	14.4585
331.967	15.6993
333.753	16.1091
335.542	16.0894
337.331	15.4882
339.119	16.1985
340.906	16.5224
342.691	16.3854
344.478	16.712
346.265	16.6948
348.051	16.9656
349.835	15.498
351.621	15.8787
353.406	15.4193
355.189	15.0252
356.973	14.5307
358.757	13.2151
360.541	12.392
362.323	10.567
364.106	9.44539
365.889	8.79838
367.669	7.57887
369.451	6.72747
371.233	5.16085
373.012	3.49119
374.793	3.79016
376.574	4.96601
378.353	4.94869
380.133	5.93196
381.91	5.36787
383.69	5.88823
385.469	6.87587
387.245	7.87333
389.024	8.2709
390.8	8.89535
392.577	8.99646
394.353	10.8827
396.129	12.1064
397.906	12.1352
399.68	12.347
401.456	12.3916
403.23	12.676
405.005	14.3463
406.778	15.183
408.552	16.7515
410.325	17.2779
412.099	16.8155
413.87	17.0725
415.643	17.6034
417.414	18.7098
419.187	18.9191
420.957	18.452
422.728	17.4636
424.498	17.2292
426.269	17.2665
428.038	17.7614
429.806	18.0357
431.576	17.1531
433.344	16.4282
435.114	14.6052
436.881	13.1265
438.649	13.5132
440.416	12.8263
442.182	11.2083
443.949	10.996
445.715	9.76474
447.48	8.97811
449.247	8.63389
451.011	8.51104
452.777	7.86551
454.541	6.60851
456.304	5.43362
458.069	4.70312
459.832	3.7505
461.594	3.85464
463.358	4.9668
465.119	4.35795
466.881	5.2536
468.642	5.56984
470.404	4.8851
472.165	6.2285
473.925	6.92255
475.684	6.79701
477.445	7.29233
479.204	6.66129
480.963	7.19525
482.721	9.31574
484.481	9.78315
486.239	9.07077
487.996	10.9142
489.753	10.8552
491.511	11.3291
493.268	12.4147
495.023	13.8547
496.779	14.2609
498.534	15.3548
500.289	16.4005
502.046	18.3704
503.8	19.2663
505.554	20.3095
507.307	20.5533
509.06	21.6206
510.813	22.672
512.566	23.7918
514.32	25.5175
516.072	26.4752
517.823	27.0739
519.574	27.2769
521.325	28.0922
523.076	29.1884
524.826	31.6545
526.576	32.6679
528.325	32.1885
530.074	32.4528
531.823	33.5379
533.572	32.89
535.32	31.5677
537.068	30.9754
538.815	30.6023
540.562	29.2113
542.309	28.1795
544.056	27.8234
545.802	27.1056
547.547	26.08
549.293	26.2174
551.038	26.0821
552.783	25.0179
554.527	24.0238
556.271	22.5615
558.015	21.8742
559.759	21.3687
561.502	19.8688
563.245	18.2254
564.987	18.0494
566.729	16.8987
568.471	17.4421
570.213	16.2215
571.954	14.4514
573.693	13.0097
575.433	11.8599
577.173	10.098
578.913	9.79511
580.652	9.26426
582.392	9.70664
584.13	7.7534
585.867	7.73776
587.605	7.27414
589.343	7.22149
591.08	6.32532
592.817	5.89411
594.552	5.61155
596.289	4.96739
598.025	4.98156
599.761	3.86989
601.496	4.77695
603.229	4.23972
604.964	4.49526
606.699	4.62039
608.433	5.0636
610.165	4.41685
611.898	4.35515
613.631	3.98507
615.364	2.48398
617.095	1.44575
618.827	0.336774
620.559	-0.241596
622.288	-0.638984
624.02	0.639212
625.75	0.252664
627.479	0.357849
629.209	1.14423
630.939	2.25526
632.667	2.01909
634.396	2.26797
636.125	2.69106
637.851	3.68512
639.58	4.17997
641.305	4.28522
643.033	5.45229
644.76	6.15282
646.485	6.25761
648.212	6.3561
649.936	7.57146
651.662	7.78047
653.388	7.94685
655.111	8.45786
656.836	7.97748
658.558	10.5058
660.283	9.92341
662.005	10.0705
663.728	10.8139
665.45	11.3068
667.173	10.4519
668.893	10.884
670.616	12.5007
672.336	13.5084
674.057	14.6038
675.777	14.7465
677.498	14.4833
679.216	14.5842
680.937	16.4284
682.655	15.8325
684.375	16.9668
686.092	16.2057
687.809	18.1392
689.528	17.0581
691.244	17.5426
692.962	18.2044
694.678	17.5116
696.393	15.6611
698.111	14.4164
699.825	15.0421
701.54	14.9226
703.256	16.2914
704.97	17.0383
706.685	18.3637
708.398	18.8646
710.111	20.1748
711.826	19.9116
713.538	20.6131
715.25	19.2074
716.961	20.4876
718.675	18.8646
720.386	20.1348
722.096	20.4411
723.808	21.2366
725.518	20.5328
727.228	19.4431
728.937	20.4126
730.648	20.4868
732.357	19.771
734.065	19.6969
735.773	19.4466
737.483	19.7977
739.19	21.4294
740.897	21.9125
742.604	23.3232
744.31	24.5162
746.018	24.1551
747.724	26.7099
749.429	27.7965
751.134	29.6878
752.839	31.5564
754.544	34.4739
756.248	35.6079
757.953	35.8438
759.657	37.9055
761.36	38.2417
763.063	40.6809
764.765	42.5223
766.468	43.9391
768.169	43.9279
769.871	45.2617
771.572	46.5803
773.273	47.888
774.976	49.1739
776.676	51.5286
778.376	51.0913
780.075	50.3719
781.775	51.2185
783.474	52.4
785.172	54.8583
786.871	54.7717
788.569	53.9547
790.266	54.5976
791.964	56.088
793.661	56.135
795.358	56.2836
797.054	56.711
798.75	56.6207
800.446	56.9328
802.141	57.5318
803.834	57.0298
805.529	57.4751
807.224	56.3587
808.918	54.8725
810.612	53.6035
812.305	52.3755
813.998	52.5584
815.691	49.8629
817.384	48.6207
819.076	48.2718
820.766	47.7648
822.458	49.4768
824.149	50.4804
825.84	51.2495
827.531	53.6535
829.221	56.1212
830.909	59.0599
832.599	60.8759
834.288	62.2052
835.977	64.6221
837.666	66.52
839.353	69.1329
841.041	70.0659
842.729	71.542
844.416	72.5743
846.103	73.4969
847.788	75.9113
849.475	77.0411
851.161	78.466
852.845	79.62
854.53	80.1975
856.216	79.8671
857.901	79.236
859.583	78.3185
861.268	75.7654
862.952	72.3854
864.633	71.0193
866.317	70.9726
868	69.018
869.681	67.517
871.363	65.2183
873.045	63.1742
874.725	62.4994
876.406	59.7236
878.088	56.6222
879.767	53.5129
881.447	50.8022
883.125	47.2172
884.805	43.1946
886.483	39.873
888.162	36.8453
889.841	33.4113
891.518	31.1939
893.196	27.578
894.872	25.3116
896.55	23.1542
898.225	20.9132
899.902	19.4933
901.577	19.2455
903.254	18.9425
904.928	20.1473
906.604	20.4195
908.277	20.3625
909.952	21.3362
911.625	22.4525
913.3	24.4015
914.972	25.2144
916.646	25.2978
918.318	27.4097
919.991	27.8528
921.662	29.3566
923.333	29.4339
925.005	28.7377
926.675	28.9056
928.347	29.234
930.017	29.7288
931.686	30.4737
933.357	29.2231
935.025	28.437
936.693	27.0782
938.363	26.1907
940.031	25.6912
941.698	26.0361
943.367	25.4548
945.034	24.7798
946.7	25.0176
948.368	26.1885
950.034	27.115
951.699	25.5429
953.367	25.3916
955.031	23.9106
956.696	23.8832
958.36	22.7365
960.026	19.9168
961.689	19.348
963.353	18.6188
965.016	19.2975
966.68	19.7671
968.343	19.7914
970.005	21.7238
971.666	22.5604
973.328	24.5453
974.991	24.4567
976.652	23.8056
978.312	24.2133
979.972	24.0954
981.632	23.1613
983.292	23.4316
984.953	22.599
986.612	21.6342
988.27	22.0853
989.929	21.4239
991.587	22.408
993.244	23.7442
994.902	23.8376
996.559	24.6637
998.216	24.0809
999.872	22.4997
1001.53	21.8611
1003.19	19.8879
1004.84	18.3032
1006.5	16.5179
1008.15	16.1818
1009.81	16.301
1011.46	16.457
1013.11	17.3776
1014.77	18.2657
1016.42	18.5243
1018.07	18.9512
1019.73	20.2089
1021.38	21.4367
1023.03	23.9622
1024.68	24.3918
1026.34	25.064
1027.99	24.6311
1029.64	25.6379
1031.29	26.4741
1032.94	27.1702
1034.59	27.0518
1036.24	27.3454
1037.89	27.2475
1039.53	27.4546
1041.18	26.6875
1042.83	27.4471
1044.48	29.7602
1046.13	30.2314
1047.77	31.7031
1049.42	33.0931
1051.07	33.6644
1052.71	35.1081
1054.36	34.9897
1056	34.4524
1057.65	32.7909
1059.3	32.2553
1060.94	31.2876
1062.59	30.6369
1064.23	29.8763
1065.87	29.3705
1067.52	28.3876
1069.16	28.1543
1070.8	29.1123
1072.44	28.8224
1074.09	28.3978
1075.73	27.7938
1077.37	26.1462
1079.01	25.5001
1080.65	23.7275
1082.29	21.9893
1083.93	21.3476
1085.57	20.2414
1087.21	19.7066
1088.85	21.0026
1090.49	21.3721
1092.13	22.5198
1093.77	21.5045
1095.41	22.0493
1097.04	21.7991
1098.68	21.2272
1100.32	20.866
1101.95	22.6705
1103.59	22.8061
1105.23	23.7778
1106.86	22.0363
1108.5	21.7985
1110.13	19.9763
1111.77	21.0208
1113.4	21.4571
1115.04	19.8874
1116.67	20.3186
1118.31	20.684
1119.94	19.8244
1121.57	18.6006
1123.2	18.6927
1124.84	18.5692
1126.47	19.1969
1128.1	18.0507
1129.73	18.3064
1131.36	18.0895
1132.99	16.7763
1134.62	15.4102
1136.25	14.4402
1137.88	13.2676
1139.51	13.2242
1141.14	12.8544
1142.77	11.4828
1144.4	10.9148
1146.03	11.0752
1147.66	9.81104
1149.28	9.23418
1150.91	9.36875
1152.54	7.98164
1154.16	7.87186
1155.79	6.69478
1157.42	6.1248
1159.04	5.90085
1160.67	4.82058
1162.29	2.73707
1163.92	2.48721
1165.54	1.731
1167.17	1.16896
1168.79	1.25644
1170.41	1.52252
1172.04	1.46527
1173.66	2.67028
1175.28	1.51675
1176.9	2.76248
1178.53	2.46492
1180.15	3.61303
1181.77	5.39866
1183.39	6.6805
1185.01	7.47446
1186.63	7.64402
1188.25	6.9734
1189.87	7.78862
1191.49	7.1611
1193.11	9.18916
1194.73	8.52911
1196.35	9.21076
1197.96	10.8514
1199.58	10.8989
1201.2	10.4426
1202.82	13.0064
1204.43	14.5617
1206.05	15.7473
1207.66	17.648
1209.28	16.4892
1210.9	18.1742
1212.51	20.1572
1214.13	21.5126
1215.74	23.9778
1217.36	26.2702
1218.97	27.0086
1220.58	29.1407
1222.2	29.6731
1223.81	31.2085
1225.42	32.6925
1227.04	33.7129
1228.65	34.2041
1230.26	36.0285
1231.87	39.4325
1233.48	40.061
1235.1	43.0691
1236.71	44.1989
1238.32	47.3715
1239.93	49.2655
1241.53	50.6416
1243.14	53.015
1244.75	55.3228
1246.36	57.1164
1247.97	59.7201
1249.58	60.8935
1251.19	62.8377
1252.8	64.6934
1254.4	67.7018
1256.01	67.9041
1257.62	69.7238
1259.22	70.5332
1260.83	73.226
1262.43	74.424
1264.04	74.4682
1265.64	74.4952
1267.25	73.8687
1268.85	73.9417
1270.46	75.753
1272.06	75.642
1273.66	76.9879
1275.27	77.4655
1276.87	79.604
1278.48	80.6967
1280.08	81.4001
1281.68	82.3027
1283.28	84.5927
1284.88	84.5858
1286.48	86.0703
1288.08	86.9534
1289.68	87.5505
1291.28	90.7188
1292.88	91.388
1294.48	92.0409
1296.08	93.4897
1297.68	92.881
1299.28	93.268
1300.88	94.8752
1302.48	96.2556
1304.07	97.7253
1305.67	99.0783
1307.27	101.903
1308.87	104.686
1310.46	105.335
1312.06	108.284
1313.65	109.225
1315.25	111.879
1316.85	113.168
1318.44	114.919
1320.03	116.268
1321.63	116.405
1323.22	117.658
1324.82	117.792
1326.41	119.061
1328	119.517
1329.6	119.124
1331.19	119.536
1332.78	119.505
1334.37	119.339
1335.96	117.274
1337.56	116.859
1339.15	116.59
1340.74	115.552
1342.33	114.931
1343.92	112.683
1345.51	111.445
1347.1	110.225
1348.69	109.805
1350.28	109.058
1351.86	107.013
1353.45	106.086
1355.04	104.614
1356.63	103.182
1358.21	102.879
1359.8	100.844
1361.39	100.852
1362.97	99.6567
1364.56	97.3325
1366.15	95.6817
1367.73	93.5054
1369.32	91.8139
1370.9	90.4304
1372.49	88.2395
1374.07	87.1244
1375.65	85.7688
1377.24	83.1212
1378.82	82.6859
1380.41	82.6466
1381.99	81.9879
1383.57	79.7113
1385.15	79.2279
1386.73	77.8817
1388.32	76.784
1389.9	73.902
1391.48	74.8201
1393.06	74.2277
1394.64	73.8198
1396.22	73.5642
1397.8	72.8427
1399.38	73.2805
1400.96	73.5613
1402.54	74.8739
1404.11	76.2081
1405.69	78.5853
1407.27	79.4076
1408.85	81.2784
1410.43	83.7718
1412	87.3239
1413.58	90.2951
1415.16	92.5193
1416.73	95.5201
1418.31	99.2998
1419.88	102.272
1421.46	106.502
1423.03	108.562
1424.61	112.807
1426.18	118.117
1427.76	123.028
1429.33	127.838
1430.9	132.477
1432.48	136.403
1434.05	140.385
1435.62	144.575
1437.2	148.499
1438.77	150.444
1440.34	153.799
1441.91	155.694
1443.48	157.133
1445.05	158.441
1446.62	159.594
1448.19	160.489
1449.76	161.925
1451.33	161.706
1452.9	160.603
1454.47	160.141
1456.04	159.127
1457.61	157.448
1459.17	156.846
1460.74	154.552
1462.31	152.469
1463.88	151.105
1465.44	148.975
1467.01	146.562
1468.58	143.92
1470.14	143.263
1471.71	141.313
1473.27	137.399
1474.84	134.373
1476.4	130.584
1477.97	128.862
1479.53	126.568
1481.1	123.197
1482.66	120.453
1484.22	118.006
1485.78	114.092
1487.35	110.964
1488.91	107.062
1490.47	103.037
1492.03	98.5078
1493.59	94.529
1495.16	91.3541
1496.72	88.4554
1498.28	84.5247
1499.84	81.4576
1501.4	78.4476
1502.96	75.9338
1504.52	74.3392
1506.08	70.0987
1507.64	67.1148
1509.19	64.2846
1510.75	61.182
1512.31	58.36
1513.87	55.3828
1515.42	49.9899
1516.98	47.1921
1518.54	44.9329
1520.1	42.9688
1521.65	41.9904
1523.21	41.1083
1524.76	41.2295
1526.32	40.696
1527.87	42.0305
1529.43	41.4792
1530.98	41.9146
1532.54	42.9408
1534.09	43.3139
1535.64	44.0578
1537.2	46.4273
1538.75	46.9267
1540.3	47.5217
1541.85	50.037
1543.41	52.3192
1544.96	54.5473
1546.51	57.5074
1548.06	59.7257
1549.61	60.7731
1551.16	61.55
1552.71	63.8992
1554.26	64.7831
1555.81	67.1672
1557.36	68.1339
1558.91	68.426
1560.46	69.4581
1562.01	70.6238
1563.56	69.7957
1565.1	69.9727
1566.65	70.2466
1568.2	71.4486
1569.75	72.6087
1571.29	73.9224
1572.84	74.3691
1574.38	75.2274
1575.93	75.9505
1577.48	77.9689
1579.02	78.4606
1580.57	79.1406
1582.11	79.8624
1583.65	79.6544
1585.2	81.0222
1586.74	80.7735
1588.29	80.0951
1589.83	80.0208
1591.37	79.9057
1592.92	79.8434
1594.46	82.744
1596	82.9298
1597.54	83.5116
1599.08	83.1789
1600.62	82.1639
1602.16	82.6295
1603.7	81.9016
1605.24	82.6842
1606.78	80.9094
1608.32	80.6264
1609.86	80.7841
1611.4	81.0769
1612.94	80.4962
1614.48	80.5
1616.02	80.0436
1617.56	79.3489
1619.09	81.0226
1620.63	81.1957
1622.17	81.1453
1623.71	81.4344
1625.24	81.9696
1626.78	81.3641
1628.31	81.7035
1629.85	81.5623
1631.39	82.0101
1632.92	82.9934
1634.46	82.7022
1635.99	82.2069
1637.52	82.3174
1639.06	82.8837
1640.59	83.3515
1642.12	84.5072
1643.66	85.3459
1645.19	87.1877
1646.72	87.1485
1648.25	87.6049
1649.79	88.2477
1651.32	89.3918
1652.85	90.3467
1654.38	90.5347
1655.91	90.4078
1657.44	90.4875
1658.97	90.304
1660.5	89.2931
1662.03	88.1748
1663.56	87.4595
1665.09	85.7395
1666.62	83.2917
1668.15	80.3159
1669.67	77.6267
1671.2	74.5937
1672.73	72.0455
1674.26	69.7344
1675.79	67.6144
1677.31	63.9156
1678.84	61.4034
1680.36	58.9075
1681.89	56.5768
1683.42	53.6096
1684.94	50.9783
1686.47	48.284
1687.99	44.89
1689.51	41.5332
1691.04	39.6372
1692.56	36.5506
1694.08	34.2741
1695.61	32.8902
1697.13	30.825
1698.65	28.437
1700.18	25.5226
1701.7	23.4106
1703.22	20.5132
1704.74	18.4793
1706.26	17.1819
1707.78	15.9181
1709.3	13.648
1710.82	11.7324
1712.35	9.66856
1713.86	9.01954
1715.39	8.59305
1716.9	7.64541
1718.42	6.61672
1719.94	6.04139
1721.46	5.4054
1722.98	3.8338
1724.5	3.99804
1726.01	4.59029
1727.53	4.0467
1729.05	3.69241
1730.56	4.04099
1732.08	4.19888
1733.6	4.00103
1735.11	3.50217
1736.63	3.12293
1738.14	3.36577
1739.66	3.46034
1741.17	2.33792
1742.69	1.93961
1744.2	1.4011
1745.71	1.92028
1747.23	2.21134
1748.74	2.89412
1750.25	2.13091
1751.77	1.66081
1753.28	0.669664
1754.79	1.78539
1756.3	2.36956
1757.81	2.22427
1759.33	2.26091
1760.84	1.83728
1762.35	2.34519
1763.86	2.43789
1765.37	2.65541
1766.88	2.25793
1768.39	1.40047
1769.9	1.86639
1771.41	1.50582
1772.91	1.279
1774.42	0.660507
1775.93	0.34853
1777.44	1.59521
1778.95	1.52618
1780.45	1.96814
1781.96	2.57959
1783.47	2.00603
1784.97	2.21962
1786.48	2.29724
1787.99	0.851889
1789.49	1.22248
1791	1.32941
1792.5	1.48531
1794.01	1.39061
1795.51	1.86424
1797.01	1.71501
1798.52	1.84452
1800.02	2.59062
1801.52	2.88332
1803.03	2.53124
1804.53	2.79563
1806.03	3.52661
1807.54	3.3558
1809.04	3.52449
1810.54	3.24341
1812.04	3.95391
1813.54	4.21727
1815.04	4.55312
1816.54	4.74494
1818.04	4.30226
1819.54	4.17561
1821.04	4.27626
1822.54	4.5809
1824.04	4.52527
1825.54	3.58698
1827.04	3.99867
1828.54	4.22218
1830.03	4.40214
1831.53	4.98788
1833.03	4.40346
1834.53	4.39311
1836.02	4.55138
1837.52	4.98624
1839.02	5.19334
1840.51	5.40784
1842.01	5.67763
1843.5	6.01599
1845	6.91969
1846.49	6.91697
1847.99	7.42507
1849.48	7.32331
1850.98	7.81023
1852.47	8.11024
1853.96	7.92577
1855.46	7.09459
1856.95	6.0726
1858.44	5.75773
1859.94	5.41027
1861.43	4.33604
1862.92	3.50408
1864.41	4.55877
1865.9	4.95338
1867.39	5.00003
1868.88	4.86019
1870.37	5.37621
1871.86	5.27754
1873.35	4.70507
1874.84	4.21725
1876.33	3.66294
1877.82	3.52067
1879.31	3.72641
1880.8	4.84189
1882.29	4.7975
1882.58	4.64315
1884.08	4.8035
1885.57	5.12748
1887.06	5.70789
1888.56	6.13261
1890.05	6.41303
1891.54	6.0605
1893.04	5.86083
1894.53	5.62929
1896.02	6.02526
1897.51	6.15322
1899	5.83446
1900.5	5.88282
1901.99	5.45549
1903.48	6.1316
1904.97	6.12959
1906.46	5.01108
1907.95	5.83547
1909.44	6.00545
1910.93	6.99514
1912.42	7.35585
1913.91	7.31565
1915.4	7.81889
1916.88	8.29342
1918.37	8.16198
1919.86	7.48157
1921.35	7.18689
1922.84	6.82852
1924.32	7.27788
1925.81	6.60773
1927.3	5.39113
1928.78	4.90518
1930.27	4.9956
1931.75	5.45084
1933.24	4.83099
1934.72	4.20496
1936.21	3.79588
1937.69	5.05512
1939.18	5.00255
1940.66	4.1437
1942.15	4.27184
1943.63	4.37603
1945.11	3.95529
1946.6	3.93625
1948.08	4.21065
1949.56	5.5066
1951.04	5.613
1952.53	5.75002
1954.01	6.30831
1955.49	6.04727
1956.97	6.16547
1958.45	6.00804
1959.93	6.09666
1961.41	6.97492
1962.89	6.80688
1964.37	6.24481
1965.85	6.30494
1967.33	6.24223
1968.81	7.04934
1970.29	7.13401
1971.77	7.66143
1973.24	7.0168
1974.72	6.93472
1976.2	7.25215
1977.68	7.75296
1979.15	7.37424
1980.63	7.86698
1982.11	8.0448
1983.58	8.85924
1985.06	9.49042
1986.53	8.07029
1988.01	7.81519
1989.48	7.6446
1990.96	6.93103
1992.43	6.12822
1993.91	6.32815
1995.38	7.11989
1996.86	7.61406
1998.33	6.59091
1999.8	5.95161
2001.27	5.53734
2002.75	5.56117
2004.22	4.83589
2005.69	4.70087
2007.16	3.93786
2008.64	3.7461
2010.11	3.54139
2011.58	3.99274
2013.05	2.89595
2014.52	2.75529
2015.99	3.48383
2017.46	3.45603
2018.93	3.26275
2020.4	3.84465
2021.87	4.11377
2023.34	4.70899
2024.8	3.79042
2026.27	4.27059
2027.74	4.51843
2029.21	4.78098
2030.68	5.16255
2032.14	5.8156
2033.61	6.75262
2035.08	8.83101
2036.54	9.08139
2038.01	10.0915
2039.48	10.7411
2040.94	11.203
2042.41	11.8384
2043.87	11.476
2045.34	12.3467
2046.8	12.2402
2048.27	12.8644
2049.73	13.6534
2051.19	13.942
2052.66	14.3684
2054.12	14.5011
2055.58	13.8425
2057.05	14.0728
2058.51	13.24
2059.97	13.0245
2061.43	13.9428
2062.9	14.3865
2064.36	15.7567
2065.82	16.1994
2067.28	16.8749
2068.74	16.6945
2070.2	16.8027
2071.66	15.4726
2073.12	15.7622
2074.58	16.1818
2076.04	15.865
2077.5	15.5188
2078.95	15.685
2080.41	15.7973
2081.87	16.0585
2083.33	15.6681
2084.79	16.5663
2086.24	16.7051
2087.7	17.1491
2089.16	17.4836
2090.61	17.5379
2092.07	17.8568
2093.53	19.1186
2094.98	19.2607
2096.44	20.2431
2097.89	20.6426
2099.35	21.7572
2100.8	22.1028
2102.26	23.3537
2103.71	24.4081
2105.16	25.4223
2106.62	26.2117
2108.07	26.7707
2109.53	27.025
2110.98	27.7698
2112.43	27.1889
2113.88	27.9193
2115.33	28.3506
2116.79	28.4717
2118.24	29.2581
2119.69	30.4254
2121.14	30.963
2122.59	31.9729
2124.04	32.6721
2125.49	34.2767
2126.94	34.8064
2128.39	35.7655
2129.84	37.3594
2131.29	39.4255
2132.74	40.507
2134.19	42.0011
2135.63	43.684
2137.08	44.7178
2138.53	45.1223
2139.98	46.5836
2141.43	47.8392
2142.87	49.838
2144.32	50.4646
2145.77	51.9304
2147.21	54.0399
2148.66	54.4937
2150.1	55.4052
2151.55	57.3093
2152.99	58.603
2154.44	59.8306
2155.88	60.2617
2157.33	61.6818
2158.77	62.5706
2160.21	64.096
2161.66	64.8995
2163.1	65.0741
2164.55	65.8529
2165.99	67.1553
2167.43	67.9265
2168.87	68.7211
2170.31	68.7592
2171.76	69.1024
2173.2	68.7191
2174.64	69.6427
2176.08	69.0825
2177.52	68.2386
2178.96	67.9797
2180.4	67.0252
2181.84	66.9281
2183.28	65.3342
2184.72	63.1933
2186.16	63.3633
2187.6	62.0961
2189.04	60.7815
2190.47	60.8448
2191.91	60.6896
2193.35	59.1015
2194.79	57.8812
2196.23	56.9328
2197.66	56.2704
2199.1	54.8317
2200.54	53.9732
2201.97	52.4133
2203.41	51.1294
2204.84	49.5321
2206.28	49.2135
2207.71	48.3094
2209.15	47.5189
2210.58	46.8631
2212.02	46.5497
2213.45	45.744
2214.89	45.1993
2216.32	44.3994
2217.75	43.6235
2219.19	42.6668
2220.62	41.1501
2222.05	40.0825
2223.48	40.1566
2224.92	39.8423
2226.35	39.6644
2227.78	38.147
2229.21	38.5687
2230.64	37.7418
2232.07	36.787
2233.5	34.8236
2234.93	34.3362
2236.36	33.6446
2237.79	33.1627
2239.22	32.1725
2240.65	31.0936
2242.08	29.7617
2243.51	28.9193
2244.94	28.3978
2246.37	27.8967
2247.79	26.3359
2249.22	25.7537
2250.65	24.2728
2252.08	23.0854
2253.5	21.7244
2254.93	20.2737
2256.36	19.2283
2257.78	19.4205
2259.21	18.666
2260.63	18.3246
2262.06	18.1036
2263.48	17.2623
2264.91	15.8728
2266.33	16.0125
2267.76	16.0687
2269.18	15.5216
2270.6	15.4653
2272.03	14.1182
2273.45	13.9951
2274.87	14.5931
2276.3	14.217
2277.72	13.7984
2279.14	13.3666
2280.56	13.3156
2281.98	13.334
2283.41	13.1962
2284.83	12.523
2286.25	12.8702
2287.67	12.6164
2289.09	11.4525
2290.51	10.9599
2291.93	11.1249
2293.35	10.3274
2294.77	10.2814
2296.19	10.7662
2297.61	9.83869
2299.02	9.2994
2300.44	9.49179
2301.86	9.49905
2303.28	9.44091
2304.7	9.26039
2306.11	10.0781
2307.53	9.93966
2308.95	10.2034
2310.36	10.298
2311.78	10.3454
2313.2	10.5495
2314.61	10.8044
2316.03	10.5318
2317.44	10.2554
2318.86	9.93296
2320.27	10.1847
2321.69	10.2394
2323.1	10.8554
2324.51	10.1453
2325.93	10.5494
2327.34	10.8791
2328.76	11.1969
2330.17	10.5051
2331.58	9.91946
2332.99	9.78261
2334.41	9.65594
2335.82	9.58518
2337.23	9.61039
2338.64	8.97342
2340.05	8.35321
2341.46	7.42568
2342.87	6.06074
2344.28	6.71032
2345.69	5.59748
2347.1	3.97633
2348.51	3.03896
2349.92	2.28888
2351.33	1.68865
2352.74	1.18795
2354.15	0.787329
2355.56	0.67704
2356.97	-0.27299
2358.37	-1.28229
2359.78	-2.14553
2361.19	-2.13234
2362.6	-1.85437
2364	-1.7874
2365.41	-1.03151
2366.82	-0.443044
2368.22	-1.25807
2369.63	-0.670637
2371.03	-0.587373
2372.44	-0.132986
2373.84	0.152455
2375.25	1.74802
2376.65	2.46187
2378.06	2.85662
2379.46	2.96756
2380.86	3.16331
2382.27	2.74776
2383.67	3.75361
2385.07	4.08552
2386.48	4.5795
2387.88	4.85207
2389.28	4.99554
2390.69	5.34656
2392.09	5.98629
2393.49	5.4692
2394.89	6.05795
2396.29	6.71823
2397.69	6.54031
2399.09	6.28268
2400.49	6.64735
2401.89	7.74272
2403.29	8.21652
2404.69	8.5998
2406.09	7.97922
2407.49	7.71651
2408.89	7.57698
2410.29	6.99413
2411.69	6.67923
2413.08	6.24088
2414.48	5.87763
2415.88	4.9477
2417.28	4.78405
2418.67	4.47261
2420.07	4.01882
2421.47	4.4157
2422.86	4.48414
2424.26	5.09663
2425.65	4.63255
2427.05	3.79692
2428.45	4.10566
2429.84	4.35715
2431.23	3.71391
2432.63	4.22869
2434.02	4.28429
2435.42	3.95962
2436.81	3.8183
2438.2	4.49423
2439.6	5.67962
2440.99	5.41772
2442.38	6.41019
2443.78	8.07123
2445.17	8.16045
2446.56	7.90716
2447.95	7.86191
2449.34	7.72051
2450.73	7.90648
2452.13	8.13678
2453.52	9.05939
2454.91	7.98875
2456.3	8.27795
2457.69	8.07237
2459.08	9.0252
2460.47	9.5395
2461.85	10.0875
2463.24	9.36403
2464.63	9.82518
2466.02	9.68856
2467.41	9.28652
2468.8	9.29384
2470.19	9.46168
2471.57	9.01367
2472.96	8.42515
2474.35	7.95415
2475.73	7.12865
2477.12	7.19958
2478.51	6.55954
2479.89	5.87609
2481.28	5.55131
2482.66	5.11168
2484.05	4.43042
2485.43	4.30369
2486.82	3.52625
2488.2	2.87528
2489.59	2.27794
2490.97	2.92965
2492.35	2.56468
2493.74	2.52857
2495.12	1.55392
2496.5	1.35191
2497.89	0.224445
2499.27	0.463702
2500.65	0.163396
2502.03	0.646919
2503.42	1.23528
2504.8	1.60574
2506.18	2.3682
2507.56	3.15474
2508.94	2.53322
2510.32	2.23661
2511.7	2.95311
2513.08	2.9776
2514.46	2.45246
2515.84	2.65655
2517.22	2.41697
2518.6	2.2674
2519.98	2.06041
2521.36	1.61494
2522.73	1.22301
2524.11	2.29657
2525.49	3.37112
2526.87	3.38422
2528.25	4.13835
2529.62	4.17867
2531	4.46289
2532.38	4.35623
2533.75	5.32398
2535.13	5.34723
2536.5	5.78485
2537.88	6.23322
2539.25	7.02696
2540.63	7.06597
2542.01	7.41669
2543.38	7.84505
2544.75	8.25951
2546.13	8.5176
2547.5	8.70599
2548.88	8.3961
2550.25	8.08896
2551.62	7.91673
2553	7.66552
2554.37	8.22934
2555.74	8.6573
2557.11	9.17884
2558.49	9.07634
2559.86	9.39223
2561.23	8.46626
2562.6	8.26245
2563.97	7.91299
2565.34	8.74873
2566.71	8.428
2568.08	9.42246
2569.45	8.66421
2570.82	8.81235
2572.19	9.22455
2573.56	9.02408
2574.93	8.39135
2576.3	7.61939
2577.67	7.2529
2579.03	7.37459
2580.4	7.18241
2581.77	7.15954
2583.14	7.63592
2584.5	7.8471
2585.87	7.16174
2587.24	7.15553
2588.6	7.59599
2589.97	8.01283
2591.34	8.23635
2592.7	9.62633
2594.07	9.21601
2595.43	9.65729
2596.8	9.53291
2598.16	9.13519
2599.53	8.74764
2600.89	8.32694
2602.26	8.59662
2603.62	8.65247
2604.98	9.14017
2606.35	9.19468
2607.71	9.40345
2609.07	9.30553
2610.44	9.46216
2611.8	9.13354
2613.16	8.6796
2614.52	7.69677
2615.88	7.25562
2617.25	6.29453
2618.61	6.47933
2619.97	7.36566
2621.33	7.40192
2622.69	7.98114
2624.05	8.08649
2625.41	7.06019
2626.77	6.78841
2628.13	6.66843
2629.49	6.61675
2630.85	7.40358
2632.21	7.57752
2633.56	7.68837
2634.92	6.9399
2636.28	6.38937
2637.64	6.59757
2639	7.50757
2640.35	8.13302
2641.71	8.19333
2643.07	8.46806
2644.42	8.55975
2645.78	9.44629
2647.14	10.2052
2648.49	10.0701
2649.85	11.002
2651.2	11.4822
2652.56	10.8851
2653.91	10.1256
2655.27	10.7092
2656.62	10.8066
2657.98	10.7671
2659.33	11.04
2660.68	11.6124
2662.04	10.9009
2663.39	10.3022
2664.74	9.84651
2666.1	10.3584
2667.45	10.1396
2668.8	10.2183
2670.15	10.6467
2671.5	10.5274
2672.86	10.0097
2674.21	9.82983
2675.56	9.37349
2676.91	9.29815
2678.26	8.37424
2679.61	7.78337
2680.96	8.11843
2682.31	7.34413
2683.66	7.79591
2685.01	7.34868
2686.36	7.80738
2687.71	7.46017
2689.06	7.34644
2690.4	7.11971
2691.75	6.66912
2693.1	6.8481
2694.45	7.04258
2695.8	7.78632
2697.14	7.93283
2698.49	8.58643
2699.84	9.25602
2701.18	9.84517
2702.53	10.1373
2703.88	10.6786
2705.22	11.6178
2706.57	11.9731
2707.91	12.3554
2709.26	13.1598
2710.6	14.1616
2711.95	14.6305
2713.29	16.2439
2714.64	17.0679
2715.98	17.0111
2717.32	17.5071
2718.67	17.4622
2720.01	17.5437
2721.35	18.3218
2722.7	18.8833
2724.04	19.2715
2725.38	19.9308
2726.72	19.943
2728.06	19.9949
2729.4	19.8106
2730.75	20.0793
2732.09	19.2294
2733.43	19.1532
2734.77	18.0721
2736.11	17.7589
2737.45	16.9897
2738.79	15.4056
2740.13	14.9498
2741.47	14.2106
2742.81	13.5647
2744.15	13.2681
2745.48	12.1367
2746.82	11.4666
2748.16	10.8191
2749.5	9.802
2750.84	9.25621
2752.17	8.28301
2753.51	7.91911
2754.85	6.58009
2756.19	6.8419
2757.52	5.73734
2758.86	5.43725
2760.19	4.82304
2761.53	3.97924
2762.86	3.86552
2764.2	3.63026
2765.54	3.69138
2766.87	3.86653
2768.2	3.3379
2769.54	2.75214
2770.87	3.33822
2772.21	3.84154
2773.54	4.3961
2774.88	5.2249
2776.21	5.58718
2777.54	5.54972
2778.87	6.34787
2780.21	6.33305
2781.54	6.31801
2782.87	5.4512
2784.2	4.92595
2785.53	5.61532
2786.87	5.65237
2788.2	6.25326
2789.53	5.93265
2790.86	5.41618
2792.19	4.9201
2793.52	4.38684
2794.85	4.44706
2796.18	3.90194
2797.51	3.50675
2798.84	2.44731
2800.17	2.80149
2801.49	1.60013
2802.82	0.942755
2804.15	0.537791
2805.48	0.212478
2806.81	0.336939
2808.13	-0.242742
2809.46	-0.0370013
2810.79	0.00401728
2812.12	-0.765675
2813.44	-0.982669
2814.77	-1.0135
2816.09	-0.62834
2817.42	-0.641671
2818.75	0.571249
2820.07	2.16049
2821.4	4.24371
2822.72	7.29463
2824.05	8.36792
2825.37	11.1816
2826.7	13.4982
2828.02	16.9913
2829.35	20.4693
2830.67	23.6595
2831.99	26.4627
2833.31	30.4116
2834.64	33.8056
2835.96	37.5345
2837.28	42.0642
2838.61	46.5024
2839.93	51.0207
2841.25	55.5639
2842.57	60.4148
2843.89	66.1037
2845.21	71.0418
2846.53	75.5674
2847.85	80.8678
2849.17	85.996
2850.49	91.5849
2851.81	97.6133
2853.13	103.028
2854.45	108.931
2855.77	114.403
2857.09	119.678
2858.41	125.026
2859.73	130.44
2861.05	135.851
2862.36	139.77
2863.68	144.932
2865	148.701
2866.32	153.637
2867.64	157.672
2868.95	162.417
2870.27	165.941
2871.59	169.504
2872.9	172.69
2874.22	176.407
2875.53	180.686
2876.85	184.345
2878.16	187.243
2879.48	189.998
2880.79	193.267
2882.11	197.165
2883.42	201.157
2884.74	205.009
2886.05	208.549
2887.36	212.2
2888.68	214.934
2889.99	218.279
2891.3	222.214
2892.62	226.156
2893.93	230.576
2895.24	234.485
2896.55	238.423
2897.86	244.253
2899.18	249.943
2900.49	255.163
2901.8	260.944
2903.11	266.91
2904.42	273.439
2905.73	279.785
2907.04	286.827
2908.35	293.708
2909.66	300.843
2910.97	307.597
2912.28	314.716
2913.59	321.589
2914.9	329.121
2916.21	335.864
2917.51	342.208
2918.82	348.508
2920.13	353.565
2921.44	358.853
2922.74	361.435
2924.05	363.977
2925.36	367.226
2926.67	369.218
2927.97	370.878
2929.28	372.494
2930.59	371.435
2931.89	371.006
2933.2	369.403
2934.5	366.419
2935.81	363.141
2937.11	359.061
2938.42	354.037
2939.72	348.698
2941.02	343.57
2942.33	336.435
2943.63	328.831
2944.94	321.456
2946.24	315.063
2947.54	307.865
2948.85	300.746
2950.15	292.926
2951.45	285.59
2952.75	278.45
2954.05	271.21
2955.36	264.984
2956.66	256.937
2957.96	250.381
2959.26	243.662
2960.56	236.839
2961.86	229.915
2963.16	224.634
2964.46	218.057
2965.76	212.009
2967.06	207.585
2968.36	202.927
2969.66	197.981
2970.96	193.733
2972.26	190.239
2973.56	186.909
2974.85	184.062
2976.15	179.838
2977.45	176.278
2978.75	172.796
2980.05	169.975
2981.34	165.524
2982.64	161.209
2983.94	157.076
2985.23	152.203
2986.53	147.175
2987.83	140.824
2989.12	135.812
2990.42	131.847
2991.71	126.533
2993.01	121.48
2994.3	115.3
2995.6	109.546
2996.89	104.084
2998.19	99.0148
2999.48	92.64
3000.77	87.6842
3002.07	81.933
3003.36	76.3588
3004.65	71.7063
3005.95	67.1096
3007.24	61.2675
3008.53	56.6911
3009.82	53.0224
3011.12	49.6262
3012.41	45.3456
3013.7	42.0788
3014.99	38.2262
3016.28	35.3627
3017.57	32.1911
3018.86	28.9399
3020.15	25.957
3021.44	22.4679
3022.73	20.6859
3024.02	17.7849
3025.31	15.7268
3026.6	13.16
3027.89	12.1714
3029.18	10.6212
3030.47	9.58503
3031.76	9.36181
3033.04	7.9995
3034.33	7.40982
3035.62	7.81121
3036.91	7.27403
3038.19	6.6121
3039.48	5.77449
3040.77	5.19306
3042.05	5.63227
3043.34	5.10875
3044.63	5.0086
3045.91	4.3093
3047.2	4.1824
3048.48	4.23612
3049.77	3.96648
3051.05	3.42407
3052.34	3.50508
3053.62	3.879
3054.91	4.25819
3056.19	3.77557
3057.48	3.46929
3058.76	3.46442
3060.04	3.54482
3061.33	3.81029
3062.61	4.2106
3063.89	3.96043
3065.17	3.82475
3066.46	4.0635
3067.74	3.97863
3069.02	3.69854
3070.3	3.80335
3071.59	4.12614
3072.87	4.7099
3074.15	5.14586
3075.43	5.58625
3076.71	5.15124
3077.99	5.37604
3079.27	4.98056
3080.55	4.68979
3081.83	3.82267
3083.11	3.51352
3084.39	3.44139
3085.67	2.92294
3086.94	2.29988
3088.22	1.92369
3089.5	1.91438
3090.78	1.35102
3092.06	2.26515
3093.34	2.4145
3094.61	2.86164
3095.89	2.30905
3097.17	1.69096
3098.44	1.79972
3099.72	1.74408
3101	1.07189
3102.27	1.02316
3103.55	1.26954
3104.82	1.1804
3106.1	1.46692
3107.38	2.09893
3108.65	2.50656
3109.93	2.80039
3111.2	3.08765
3112.47	3.62068
3113.75	3.01985
3115.02	3.09837
3116.3	3.21983
3117.57	3.27668
3118.84	3.47472
3120.12	4.08024
3121.39	4.76207
3122.66	5.467
3123.93	6.34943
3125.2	7.20073
3126.48	7.845
3127.75	8.45553
3129.02	8.95788
3130.29	10.3465
3131.56	10.5984
3132.83	11.2322
3134.1	13.2258
3135.37	13.8006
3136.64	14.3261
3137.91	15.2445
3139.18	16.1389
3140.45	16.2475
3141.72	17.2015
3142.99	18.1373
3144.26	19.2779
3145.53	20.5702
3146.8	21.9283
3148.07	23.6558
3149.33	25.1423
