#Acq. time (s)=	45
#Accumulations=	2
#Range (cm-¹)=	200...3150
#Windows=	2
#Auto scanning=	Off
#Autofocus=	Off
#Macrospot=	Off
#AutoExposure=	Off
#Spike filter=	Multiple accum.
#Delay time (s)=	0
#Binning=	1
#Readout mode=	Signal
#DeNoise=	Off
#ICS correction=	On
#Dark correction=	Off
#Inst. Process=	Off
#Detector Gain=	Best Dynamic Range
#Detector ADC=	20 kHz       
#Detector temperature (°C)=	-69.85
#Instrument=	LabRAM HR Evol
#Detector=	Synapse
#Objective=	x100
#Grating=	600 gr/mm
#ND Filter=	100%
#Laser (nm)=	532 
#Hole=	100.021
#Range=	Auto
#Laser Pol.=	No
#Raman. Pol.=	No
#Laser Pol. (°)=	-0.0007625
#Raman Pol. (°)=	89.9995
#Collection=	Microscope
#StageXY=	Marzhauser
#StageZ=	Marzhauser
#X (µm)=	-1135.1
#Y (µm)=	1288.2
#Z (µm)=	578.45
#Full time(mm:ss)=	3:18
#Project=	
#Sample=	
#Site=	
#Title=	Mbcal_20_25_31_2x_45s_532 nm_x100_100%_600 gr_mm
#Remark=	
#Date=	18.07.2022 12:03
#Acquired=	18.07.2022 12:03:15
#Base:Fit=	10.08.2022 10:55:08
#Base:Sub=	10.08.2022 10:55:14
#Filter:Polynom=	16.08.2022 10:07:28
#AxisType[0]=Intens
#AxisUnit[0]=Cnt
#AxisType[1]=Spectr
#AxisUnit[1]=1/cm
200.419	5.66549
202.234	7.8234
204.048	9.59025
205.862	11.1072
207.678	12.4499
209.491	13.3916
211.304	14.1731
213.116	13.5713
214.928	13.532
216.742	13.0204
218.554	12.526
220.365	13.1405
222.176	12.0136
223.986	11.6284
225.798	10.5884
227.608	10.7657
229.417	10.0026
231.226	9.30828
233.035	8.25186
234.843	7.54791
236.653	7.21627
238.46	7.49802
240.268	6.96008
242.074	6.51035
243.881	6.91521
245.687	7.55665
247.493	7.19219
249.298	7.41031
251.103	7.0747
252.908	6.71612
254.715	6.0342
256.519	6.91445
258.322	5.75155
260.126	6.34204
261.929	5.3847
263.731	5.77343
265.534	5.98125
267.336	6.36669
269.137	5.65318
270.938	6.56943
272.739	7.81651
274.54	9.30193
276.34	9.1854
278.14	10.1567
279.939	11.2698
281.739	11.409
283.537	11.2495
285.336	10.0439
287.134	10.3231
288.932	10.6849
290.729	11.5852
292.526	12.4574
294.323	12.9952
296.117	13.0923
297.913	12.5646
299.709	11.5496
301.504	12.4255
303.299	12.3953
305.093	12.6787
306.888	12.4516
308.682	11.8308
310.475	11.8727
312.268	10.2653
314.059	10.7916
315.852	10.231
317.644	9.99455
319.436	8.90777
321.227	8.65824
323.018	8.19723
324.807	8.16402
326.597	8.30616
328.387	8.60833
330.177	8.32035
331.967	9.39676
333.753	9.53123
335.542	10.0314
337.331	8.65602
339.119	8.14854
340.906	6.96823
342.691	6.70267
344.478	6.68841
346.265	6.49998
348.051	5.79143
349.835	5.9933
351.621	5.07602
353.406	4.51308
355.189	3.5694
356.973	2.98135
358.757	3.08147
360.541	1.71159
362.323	2.35971
364.106	3.11928
365.889	3.85718
367.669	5.18417
369.451	5.93958
371.233	4.93903
373.012	5.27662
374.793	5.19209
376.574	5.50357
378.353	5.94137
380.133	6.74017
381.91	6.52328
383.69	6.46424
385.469	6.56004
387.245	6.92863
389.024	7.6613
390.8	9.40022
392.577	8.29578
394.353	8.39007
396.129	9.30632
397.906	9.15202
399.68	9.33309
401.456	9.76834
403.23	11.0964
405.005	10.7984
406.778	11.6043
408.552	12.2119
410.325	12.7962
412.099	12.8129
413.87	13.1653
415.643	13.9013
417.414	14.2509
419.187	14.6039
420.957	14.5729
422.728	14.0851
424.498	14.7569
426.269	13.5355
428.038	14.2315
429.806	14.2852
431.576	14.0469
433.344	14.0617
435.114	12.9498
436.881	13.1284
438.649	12.6509
440.416	11.5289
442.182	10.637
443.949	10.5583
445.715	11.2044
447.48	10.8382
449.247	9.57085
451.011	9.96016
452.777	9.99832
454.541	9.57745
456.304	8.09077
458.069	6.93045
459.832	5.53871
461.594	5.11553
463.358	5.46778
465.119	5.75268
466.881	6.50867
468.642	5.75856
470.404	5.96153
472.165	6.34018
473.925	7.55206
475.684	8.68551
477.445	9.25363
479.204	10.0835
480.963	10.4842
482.721	11.8322
484.481	11.799
486.239	12.0437
487.996	12.3058
489.753	14.7628
491.511	14.9544
493.268	15.2024
495.023	16.1551
496.779	16.5322
498.534	16.3819
500.289	16.8998
502.046	17.4364
503.8	18.3886
505.554	18.9908
507.307	19.8335
509.06	20.7045
510.813	22.135
512.566	23.1004
514.32	22.9734
516.072	22.6267
517.823	22.7351
519.574	23.6411
521.325	24.475
523.076	24.9197
524.826	25.8271
526.576	25.9015
528.325	25.1589
530.074	24.7599
531.823	25.6547
533.572	25.4782
535.32	24.5367
537.068	24.829
538.815	25.1748
540.562	25.8075
542.309	25.5966
544.056	25.0993
545.802	25.509
547.547	25.1821
549.293	25.1725
551.038	25.3635
552.783	25.0174
554.527	25.151
556.271	24.726
558.015	25.0685
559.759	24.4353
561.502	24.4894
563.245	23.7043
564.987	23.0487
566.729	22.5822
568.471	21.4205
570.213	19.9297
571.954	19.41
573.693	18.5032
575.433	18.1882
577.173	17.4416
578.913	15.2224
580.652	14.4969
582.392	13.8526
584.13	13.3358
585.867	11.5774
587.605	11.015
589.343	9.93519
591.08	8.81528
592.817	8.40399
594.552	7.6696
596.289	6.97254
598.025	6.21739
599.761	5.73997
601.496	4.679
603.229	4.44731
604.964	5.0349
606.699	3.84392
608.433	2.94079
610.165	3.43287
611.898	3.33932
613.631	2.46975
615.364	2.24987
617.095	2.72619
618.827	3.16403
620.559	2.89301
622.288	3.61236
624.02	4.31939
625.75	4.69813
627.479	5.14963
629.209	5.0766
630.939	5.33809
632.667	5.81622
634.396	6.02031
636.125	7.94387
637.851	9.98242
639.58	11.477
641.305	13.047
643.033	12.8219
644.76	13.1988
646.485	14.097
648.212	15.6954
649.936	17.0371
651.662	17.9091
653.388	17.877
655.111	18.5536
656.836	19.3828
658.558	21.2502
660.283	21.7285
662.005	23.5336
663.728	23.9796
665.45	24.3977
667.173	24.4255
668.893	24.058
670.616	24.1047
672.336	24.3369
674.057	25.5886
675.777	26.6811
677.498	27.2308
679.216	28.7571
680.937	28.6509
682.655	29.1565
684.375	29.5652
686.092	29.6412
687.809	29.45
689.528	30.0734
691.244	30.1655
692.962	29.5912
694.678	31.113
696.393	32.7471
698.111	33.0825
699.825	33.8849
701.54	35.0106
703.256	36.1705
704.97	36.3481
706.685	36.7414
708.398	38.2973
710.111	39.6735
711.826	40.7565
713.538	42.0149
715.25	42.9951
716.961	44.3101
718.675	45.3309
720.386	46.7565
722.096	48.2912
723.808	48.8373
725.518	49.1031
727.228	49.0262
728.937	48.2996
730.648	49.4217
732.357	50.3942
734.065	51.6587
735.773	52.132
737.483	52.3805
739.19	52.8919
740.897	53.736
742.604	54.3398
744.31	55.4989
746.018	56.8364
747.724	57.6622
749.429	57.4509
751.134	57.1247
752.839	58.5137
754.544	60.5523
756.248	63.1991
757.953	65.4484
759.657	66.3335
761.36	67.2456
763.063	68.326
764.765	69.4035
766.468	69.626
768.169	70.509
769.871	71.0203
771.572	71.6848
773.273	72.9918
774.976	73.8138
776.676	73.2049
778.376	73.5693
780.075	75.7476
781.775	76.0518
783.474	75.9998
785.172	76.9844
786.871	77.5558
788.569	78.5972
790.266	79.6023
791.964	80.5527
793.661	81.8019
795.358	82.376
797.054	82.3842
798.75	82.8
800.446	83.2328
802.141	83.4148
803.834	83.8141
805.529	84.8955
807.224	84.7701
808.918	83.6767
810.612	83.5026
812.305	83.5788
813.998	83.3528
815.691	83.6759
817.384	84.3975
819.076	83.8225
820.766	83.3695
822.458	82.5017
824.149	81.8279
825.84	82.4845
827.531	83.2219
829.221	83.0015
830.909	83.5849
832.599	82.6795
834.288	83.683
835.977	84.0723
837.666	84.5851
839.353	85.3589
841.041	85.3044
842.729	85.0501
844.416	84.4267
846.103	85.0484
847.788	84.8697
849.475	84.4786
851.161	84.4371
852.845	83.7886
854.53	82.5831
856.216	80.6223
857.901	80.0578
859.583	78.2261
861.268	76.6763
862.952	75.9756
864.633	74.7533
866.317	73.728
868	73.9206
869.681	74.1865
871.363	72.9896
873.045	72.7537
874.725	71.8332
876.406	69.8385
878.088	68.9598
879.767	68.0879
881.447	66.4823
883.125	66.0917
884.805	65.2441
886.483	63.3011
888.162	62.3421
889.841	60.4103
891.518	58.1931
893.196	56.6651
894.872	56.3871
896.55	55.2671
898.225	54.0156
899.902	52.8945
901.577	52.1044
903.254	51.8101
904.928	51.731
906.604	50.5926
908.277	50.9359
909.952	51.5374
911.625	51.1597
913.3	51.8431
914.972	52.5912
916.646	53.4213
918.318	53.8325
919.991	53.5232
921.662	53.0921
923.333	53.8528
925.005	53.8379
926.675	54.5066
928.347	55.5689
930.017	55.1816
931.686	54.4856
933.357	53.4022
935.025	52.3367
936.693	50.686
938.363	49.6731
940.031	49.0251
941.698	48.9788
943.367	47.5831
945.034	47.0647
946.7	46.3104
948.368	45.8798
950.034	46.5867
951.699	45.3426
953.367	44.1761
955.031	43.6924
956.696	43.305
958.36	41.5423
960.026	40.2208
961.689	39.9126
963.353	38.222
965.016	37.0923
966.68	36.4003
968.343	33.8926
970.005	32.2764
971.666	32.6614
973.328	32.2327
974.991	32.1551
976.652	32.1512
978.312	31.8796
979.972	31.0393
981.632	30.0986
983.292	29.7559
984.953	29.0677
986.612	28.8582
988.27	27.7941
989.929	27.3946
991.587	27.3781
993.244	27.0347
994.902	27.1348
996.559	27.1341
998.216	26.0005
999.872	25.4964
1001.53	23.7938
1003.19	23.3494
1004.84	22.8887
1006.5	23.7826
1008.15	24.126
1009.81	24.5067
1011.46	24.5267
1013.11	22.6688
1014.77	23.2669
1016.42	23.5381
1018.07	24.3637
1019.73	24.8635
1021.38	26.0873
1023.03	26.4383
1024.68	26.0703
1026.34	27.1215
1027.99	27.8938
1029.64	28.335
1031.29	29.5403
1032.94	30.577
1034.59	30.2356
1036.24	31.1516
1037.89	31.8484
1039.53	31.9325
1041.18	32.2956
1042.83	32.6024
1044.48	32.9795
1046.13	32.0898
1047.77	33.0551
1049.42	32.6938
1051.07	32.699
1052.71	34.0256
1054.36	35.322
1056	35.4166
1057.65	34.7946
1059.3	34.6386
1060.94	34.2107
1062.59	32.9623
1064.23	32.5735
1065.87	31.8769
1067.52	31.3271
1069.16	30.2907
1070.8	30.0072
1072.44	29.0727
1074.09	28.6673
1075.73	27.5958
1077.37	26.7494
1079.01	26.0981
1080.65	25.2522
1082.29	24.7571
1083.93	24.5537
1085.57	24.6058
1087.21	24.8163
1088.85	24.4114
1090.49	24.7601
1092.13	24.3556
1093.77	23.7327
1095.41	22.1318
1097.04	23.2554
1098.68	22.8456
1100.32	22.6847
1101.95	22.4655
1103.59	22.1121
1105.23	21.8137
1106.86	22.1411
1108.5	22.8048
1110.13	22.84
1111.77	23.1422
1113.4	23.9557
1115.04	23.562
1116.67	23.4933
1118.31	23.1919
1119.94	22.8713
1121.57	22.3195
1123.2	21.9347
1124.84	20.7456
1126.47	20.049
1128.1	19.4457
1129.73	19.3667
1131.36	18.3501
1132.99	17.6571
1134.62	17.5765
1136.25	17.3423
1137.88	16.8302
1139.51	15.8488
1141.14	15.4707
1142.77	15.2544
1144.4	14.0306
1146.03	13.5882
1147.66	12.8139
1149.28	12.5243
1150.91	11.1116
1152.54	10.6918
1154.16	9.42379
1155.79	8.75792
1157.42	7.47135
1159.04	8.04181
1160.67	8.67391
1162.29	8.23867
1163.92	8.60675
1165.54	8.38369
1167.17	8.08345
1168.79	7.90941
1170.41	7.59671
1172.04	7.52162
1173.66	6.48175
1175.28	5.85305
1176.9	6.3856
1178.53	6.83048
1180.15	6.38868
1181.77	6.95832
1183.39	7.3371
1185.01	7.38555
1186.63	7.91599
1188.25	7.82631
1189.87	7.99312
1191.49	8.4031
1193.11	8.93771
1194.73	9.84027
1196.35	10.0532
1197.96	10.2147
1199.58	10.4629
1201.2	11.7853
1202.82	12.2275
1204.43	13.0002
1206.05	12.3587
1207.66	13.2621
1209.28	13.6213
1210.9	14.2336
1212.51	14.6406
1214.13	15.6217
1215.74	17.1263
1217.36	17.9702
1218.97	19.2083
1220.58	19.9969
1222.2	20.7357
1223.81	21.3093
1225.42	21.3854
1227.04	23.4438
1228.65	24.2644
1230.26	25.3335
1231.87	26.259
1233.48	27.1145
1235.1	28.716
1236.71	30.3746
1238.32	31.7991
1239.93	33.5218
1241.53	34.1832
1243.14	34.1416
1244.75	35.0363
1246.36	35.8319
1247.97	35.6077
1249.58	35.8013
1251.19	35.1438
1252.8	34.679
1254.4	34.9001
1256.01	35.501
1257.62	36.0531
1259.22	35.3048
1260.83	36.1717
1262.43	37.6311
1264.04	38.0044
1265.64	37.7692
1267.25	38.8138
1268.85	40.3736
1270.46	41.8626
1272.06	42.9692
1273.66	43.9122
1275.27	44.6187
1276.87	45.0154
1278.48	46.3072
1280.08	47.1043
1281.68	48.6325
1283.28	48.9104
1284.88	50.2362
1286.48	50.2472
1288.08	50.9519
1289.68	52.4316
1291.28	53.9688
1292.88	54.6379
1294.48	55.5539
1296.08	56.2973
1297.68	56.9458
1299.28	58.2344
1300.88	58.5114
1302.48	59.4154
1304.07	60.9921
1305.67	62.1532
1307.27	63.6431
1308.87	63.7939
1310.46	64.4712
1312.06	64.9477
1313.65	65.9192
1315.25	66.5022
1316.85	67.466
1318.44	67.2559
1320.03	67.7289
1321.63	67.721
1323.22	67.8269
1324.82	68.6628
1326.41	67.7943
1328	66.5801
1329.6	65.9905
1331.19	64.2755
1332.78	64.0925
1334.37	64.3306
1335.96	63.7891
1337.56	63.3034
1339.15	63.7725
1340.74	62.8968
1342.33	62.7094
1343.92	61.4306
1345.51	60.7521
1347.1	61.1826
1348.69	61.5821
1350.28	61.0316
1351.86	60.1555
1353.45	59.7515
1355.04	59.6605
1356.63	59.4215
1358.21	59.4171
1359.8	59.1569
1361.39	59.4021
1362.97	58.3287
1364.56	57.9673
1366.15	56.0166
1367.73	55.4241
1369.32	55.7721
1370.9	54.5121
1372.49	53.5424
1374.07	53.027
1375.65	51.9657
1377.24	50.9404
1378.82	49.5752
1380.41	48.4806
1381.99	48.2514
1383.57	47.4022
1385.15	46.5559
1386.73	46.8539
1388.32	46.4147
1389.9	45.4501
1391.48	44.8269
1393.06	45.1913
1394.64	44.4611
1396.22	44.9936
1397.8	44.7555
1399.38	44.5319
1400.96	43.9796
1402.54	44.1991
1404.11	43.9285
1405.69	43.4312
1407.27	43.4086
1408.85	44.4096
1410.43	45.4984
1412	46.9452
1413.58	47.8959
1415.16	48.6286
1416.73	50.0715
1418.31	50.9006
1419.88	52.1444
1421.46	55.0751
1423.03	57.2836
1424.61	59.4079
1426.18	62.3323
1427.76	64.4384
1429.33	66.2579
1430.9	69.0411
1432.48	71.265
1434.05	73.1904
1435.62	74.1196
1437.2	75.1233
1438.77	76.4396
1440.34	77.4258
1441.91	78.8238
1443.48	80.0827
1445.05	80.4651
1446.62	81.0262
1448.19	80.3957
1449.76	79.965
1451.33	79.8896
1452.9	79.7694
1454.47	79.304
1456.04	79.2753
1457.61	78.3153
1459.17	77.8738
1460.74	77.8873
1462.31	77.0359
1463.88	75.8882
1465.44	74.8843
1467.01	73.4936
1468.58	72.0521
1470.14	70.812
1471.71	70.4263
1473.27	68.6426
1474.84	67.3344
1476.4	64.9663
1477.97	62.0781
1479.53	59.71
1481.1	57.6451
1482.66	56.0026
1484.22	54.1879
1485.78	52.6278
1487.35	52.0263
1488.91	50.0029
1490.47	47.6774
1492.03	46.0216
1493.59	44.3663
1495.16	42.7673
1496.72	41.6535
1498.28	41.4356
1499.84	40.2659
1501.4	39.0036
1502.96	38.6445
1504.52	37.9339
1506.08	36.78
1507.64	35.8651
1509.19	34.3842
1510.75	32.4851
1512.31	30.5202
1513.87	28.3393
1515.42	27.2224
1516.98	26.0279
1518.54	25.2598
1520.1	24.4507
1521.65	23.1728
1523.21	21.6057
1524.76	20.0755
1526.32	19.2945
1527.87	19.5937
1529.43	19.2167
1530.98	18.9114
1532.54	18.5348
1534.09	17.6922
1535.64	17.199
1537.2	16.8352
1538.75	17.1326
1540.3	16.4709
1541.85	16.2754
1543.41	17.53
1544.96	18.6459
1546.51	18.6903
1548.06	19.0053
1549.61	19.5774
1551.16	20.072
1552.71	20.8341
1554.26	21.0258
1555.81	22.0784
1557.36	22.4274
1558.91	23.8293
1560.46	25.187
1562.01	25.7607
1563.56	27.1451
1565.1	28.4556
1566.65	30.1575
1568.2	29.9375
1569.75	30.5791
1571.29	31.393
1572.84	32.6975
1574.38	34.843
1575.93	36.1789
1577.48	37.0481
1579.02	37.8328
1580.57	39.3655
1582.11	39.4022
1583.65	40.0918
1585.2	40.6753
1586.74	40.9473
1588.29	41.2701
1589.83	40.9719
1591.37	41.5102
1592.92	41.4422
1594.46	42.1902
1596	43.5123
1597.54	43.8946
1599.08	43.6003
1600.62	43.3485
1602.16	43.6211
1603.7	43.7855
1605.24	43.4313
1606.78	43.1138
1608.32	43.667
1609.86	43.7125
1611.4	43.6688
1612.94	43.8886
1614.48	43.7202
1616.02	43.9695
1617.56	44.743
1619.09	44.8208
1620.63	45.7496
1622.17	46.1414
1623.71	46.2039
1625.24	47.199
1626.78	47.399
1628.31	47.6522
1629.85	48.2878
1631.39	49.0146
1632.92	49.8006
1634.46	49.7482
1635.99	50.4777
1637.52	51.7877
1639.06	51.7289
1640.59	52.5301
1642.12	53.3995
1643.66	54.2377
1645.19	53.6598
1646.72	54.5885
1648.25	55.4522
1649.79	56.5146
1651.32	57.7808
1652.85	58.6387
1654.38	58.347
1655.91	58.7375
1657.44	59.1095
1658.97	58.6377
1660.5	59.4897
1662.03	59.9679
1663.56	59.7689
1665.09	58.796
1666.62	58.6972
1668.15	58.5748
1669.67	56.8354
1671.2	56.3227
1672.73	54.7615
1674.26	52.836
1675.79	51.7922
1677.31	50.1941
1678.84	48.0701
1680.36	45.5259
1681.89	43.0481
1683.42	41.3384
1684.94	39.107
1686.47	35.7007
1687.99	32.6204
1689.51	29.7628
1691.04	26.863
1692.56	24.8355
1694.08	22.8677
1695.61	20.7711
1697.13	19.7585
1698.65	17.6845
1700.18	14.9767
1701.7	13.0848
1703.22	10.6474
1704.74	9.90195
1706.26	9.91516
1707.78	8.62564
1709.3	7.3819
1710.82	6.05268
1712.35	4.7247
1713.86	4.03878
1715.39	2.84025
1716.9	2.78716
1718.42	2.63455
1719.94	2.04659
1721.46	1.36493
1722.98	1.26069
1724.5	1.40807
1726.01	1.87915
1727.53	2.35108
1729.05	2.4561
1730.56	1.69438
1732.08	2.36035
1733.6	2.50021
1735.11	3.41833
1736.63	4.46036
1738.14	4.66299
1739.66	4.74346
1741.17	4.53312
1742.69	5.42518
1744.2	5.43892
1745.71	4.83191
1747.23	5.61372
1748.74	6.0407
1750.25	6.31762
1751.77	7.18437
1753.28	6.41733
1754.79	6.04838
1756.3	6.15154
1757.81	6.48451
1759.33	6.25085
1760.84	5.51121
1762.35	5.40356
1763.86	5.75311
1765.37	6.14143
1766.88	6.55412
1768.39	7.11383
1769.9	6.69821
1771.41	6.71891
1772.91	6.48043
1774.42	5.68607
1775.93	5.6378
1777.44	6.45013
1778.95	6.57517
1780.45	7.25635
1781.96	7.34228
1783.47	6.53884
1784.97	6.03035
1786.48	5.12472
1787.99	5.55105
1789.49	5.56061
1791	5.74836
1792.5	5.55949
1794.01	6.05927
1795.51	5.65756
1797.01	5.38134
1798.52	4.74329
1800.02	4.40078
1801.52	4.50577
1803.03	4.24846
1804.53	4.07476
1806.03	3.88231
1807.54	3.83558
1809.04	4.54413
1810.54	5.02326
1812.04	5.26236
1813.54	5.38562
1815.04	4.80033
1816.54	4.7088
1818.04	4.95172
1819.54	5.17579
1821.04	5.28156
1822.54	5.6183
1824.04	5.22165
1825.54	5.19928
1827.04	5.1344
1828.54	4.53145
1830.03	4.31612
1831.53	4.35295
1833.03	4.42614
1834.53	3.77455
1836.02	3.58976
1837.52	3.51526
1839.02	3.67078
1840.51	3.78925
1842.01	3.33794
1843.5	3.14117
1845	2.84204
1846.49	2.63131
1847.99	2.41442
1849.48	1.72825
1850.98	1.67384
1852.47	1.98069
1853.96	2.2513
1855.46	2.4573
1856.95	1.985
1858.44	2.19576
1859.94	1.92956
1861.43	2.609
1862.92	3.36309
1864.41	3.50434
1865.9	3.56961
1867.39	3.65977
1868.88	3.14426
1870.37	3.02149
1871.86	2.82061
1873.35	3.07184
1874.84	4.00413
1876.33	4.0473
1877.82	3.86165
1879.31	4.41245
1880.8	4.66289
1882.29	5.299
1882.58	5.3856
1884.08	5.04228
1885.57	5.83976
1887.06	5.75476
1888.56	6.11584
1890.05	6.54563
1891.54	7.02421
1893.04	7.19191
1894.53	7.08441
1896.02	6.94701
1897.51	7.21093
1899	7.64623
1900.5	7.40098
1901.99	7.54182
1903.48	6.94985
1904.97	6.7628
1906.46	6.22095
1907.95	5.34756
1909.44	5.64617
1910.93	5.76564
1912.42	5.79534
1913.91	5.05241
1915.4	4.28666
1916.88	4.4136
1918.37	4.28595
1919.86	4.25407
1921.35	4.70574
1922.84	4.55275
1924.32	5.17336
1925.81	5.65366
1927.3	5.09563
1928.78	4.67361
1930.27	4.47648
1931.75	4.89291
1933.24	4.09085
1934.72	4.29205
1936.21	4.10997
1937.69	4.27788
1939.18	3.40172
1940.66	3.04238
1942.15	2.71254
1943.63	3.45988
1945.11	3.11239
1946.6	3.1581
1948.08	2.37485
1949.56	1.44096
1951.04	1.0379
1952.53	1.39792
1954.01	1.48793
1955.49	1.89041
1956.97	1.98335
1958.45	2.55018
1959.93	2.96526
1961.41	2.29943
1962.89	2.57733
1964.37	2.44461
1965.85	2.63476
1967.33	2.14264
1968.81	2.14092
1970.29	1.66243
1971.77	1.48153
1973.24	1.14857
1974.72	1.09744
1976.2	0.950402
1977.68	0.298292
1979.15	0.871017
1980.63	0.558622
1982.11	0.452139
1983.58	0.991071
1985.06	0.770693
1986.53	1.58902
1988.01	1.41548
1989.48	1.86449
1990.96	2.53991
1992.43	3.03023
1993.91	3.22485
1995.38	3.27566
1996.86	2.60759
1998.33	2.79594
1999.8	2.26001
2001.27	1.99518
2002.75	2.28723
2004.22	2.09644
2005.69	2.25831
2007.16	2.63623
2008.64	3.38481
2010.11	3.58224
2011.58	3.45869
2013.05	2.58242
2014.52	2.1822
2015.99	2.36573
2017.46	2.63502
2018.93	2.33538
2020.4	2.35416
2021.87	2.28535
2023.34	2.71066
2024.8	3.19038
2026.27	3.56443
2027.74	3.39843
2029.21	3.62073
2030.68	3.44589
2032.14	3.9313
2033.61	3.99566
2035.08	3.49526
2036.54	4.14266
2038.01	4.32109
2039.48	4.35032
2040.94	4.89443
2042.41	5.01588
2043.87	4.82936
2045.34	5.43021
2046.8	5.38145
2048.27	5.40378
2049.73	5.19784
2051.19	5.26034
2052.66	5.58417
2054.12	5.33958
2055.58	5.67087
2057.05	6.34156
2058.51	5.8585
2059.97	5.9475
2061.43	5.5971
2062.9	5.78051
2064.36	5.5697
2065.82	5.58159
2067.28	5.4802
2068.74	5.1968
2070.2	4.79315
2071.66	4.71895
2073.12	4.44244
2074.58	4.88698
2076.04	4.80144
2077.5	4.992
2078.95	5.3505
2080.41	5.31895
2081.87	4.61697
2083.33	4.19953
2084.79	4.79728
2086.24	5.29152
2087.7	5.54863
2089.16	5.84372
2090.61	6.7071
2092.07	6.95683
2093.53	7.13732
2094.98	7.32949
2096.44	7.32306
2097.89	7.5123
2099.35	7.05559
2100.8	7.38844
2102.26	8.15755
2103.71	8.59572
2105.16	9.28432
2106.62	9.30428
2108.07	9.77107
2109.53	11.3221
2110.98	11.4214
2112.43	11.3784
2113.88	11.8934
2115.33	11.8221
2116.79	12.1526
2118.24	12.735
2119.69	12.7995
2121.14	13.2526
2122.59	14.4616
2124.04	15.2397
2125.49	15.6609
2126.94	16.3017
2128.39	16.703
2129.84	17.3568
2131.29	17.693
2132.74	19.2379
2134.19	20.3886
2135.63	21.1854
2137.08	21.6548
2138.53	22.7006
2139.98	22.7404
2141.43	23.5215
2142.87	24.2694
2144.32	25.2046
2145.77	26.7326
2147.21	27.7144
2148.66	28.6862
2150.1	30.3714
2151.55	30.7448
2152.99	31.4641
2154.44	32.7226
2155.88	34.3987
2157.33	35.5326
2158.77	36.2417
2160.21	36.2045
2161.66	36.8768
2163.1	38.1735
2164.55	38.9279
2165.99	39.2527
2167.43	39.6778
2168.87	39.9112
2170.31	39.9662
2171.76	40.1185
2173.2	40.548
2174.64	41.0955
2176.08	41.4028
2177.52	41.5956
2178.96	41.4251
2180.4	41.1567
2181.84	40.6239
2183.28	39.9714
2184.72	39.6661
2186.16	39.2993
2187.6	38.4607
2189.04	37.5431
2190.47	36.3291
2191.91	35.3984
2193.35	35.0851
2194.79	34.6069
2196.23	33.4249
2197.66	32.2577
2199.1	31.7463
2200.54	30.8362
2201.97	30.0777
2203.41	28.7904
2204.84	27.5291
2206.28	26.4447
2207.71	25.394
2209.15	24.1807
2210.58	23.2461
2212.02	22.6164
2213.45	22.5296
2214.89	21.2427
2216.32	20.5106
2217.75	20.0465
2219.19	19.2224
2220.62	18.7818
2222.05	18.0256
2223.48	16.7898
2224.92	17.1543
2226.35	17.0032
2227.78	16.2572
2229.21	15.3248
2230.64	15.1272
2232.07	15.1697
2233.5	14.9286
2234.93	14.4972
2236.36	14.1195
2237.79	12.966
2239.22	12.5338
2240.65	12.1637
2242.08	11.8754
2243.51	12.0067
2244.94	11.3894
2246.37	11.1973
2247.79	10.9677
2249.22	10.221
2250.65	9.71426
2252.08	9.45637
2253.5	9.15186
2254.93	8.7551
2256.36	7.53355
2257.78	6.53297
2259.21	6.18838
2260.63	6.2286
2262.06	5.86295
2263.48	5.78326
2264.91	5.67975
2266.33	4.94461
2267.76	4.52729
2269.18	4.11522
2270.6	4.179
2272.03	3.66868
2273.45	3.31565
2274.87	2.84511
2276.3	2.97925
2277.72	2.9313
2279.14	2.90039
2280.56	2.81297
2281.98	2.65133
2283.41	3.17065
2284.83	2.38487
2286.25	1.86892
2287.67	2.54344
2289.09	2.54664
2290.51	1.8787
2291.93	1.40099
2293.35	0.70516
2294.77	0.948605
2296.19	0.964619
2297.61	0.653252
2299.02	1.42815
2300.44	2.08573
2301.86	3.03187
2303.28	3.02025
2304.7	2.78908
2306.11	2.84733
2307.53	3.24402
2308.95	3.63058
2310.36	4.45024
2311.78	4.62671
2313.2	4.98513
2314.61	4.8946
2316.03	4.47896
2317.44	4.60877
2318.86	5.36138
2320.27	5.27499
2321.69	5.66049
2323.1	5.75706
2324.51	5.41952
2325.93	5.25469
2327.34	5.35351
2328.76	5.78555
2330.17	6.37904
2331.58	6.087
2332.99	5.99269
2334.41	6.02837
2335.82	6.03217
2337.23	5.59219
2338.64	5.85188
2340.05	6.34222
2341.46	6.35423
2342.87	6.40155
2344.28	6.36889
2345.69	6.01357
2347.1	5.68122
2348.51	5.27723
2349.92	5.17717
2351.33	4.74085
2352.74	4.32198
2354.15	3.6584
2355.56	2.94436
2356.97	3.01147
2358.37	3.10306
2359.78	2.03961
2361.19	1.98998
2362.6	2.80079
2364	3.23553
2365.41	3.85673
2366.82	4.29169
2368.22	4.9652
2369.63	5.3734
2371.03	4.71996
2372.44	4.65862
2373.84	4.53455
2375.25	4.89585
2376.65	4.2839
2378.06	4.14082
2379.46	4.49775
2380.86	4.11047
2382.27	3.80083
2383.67	4.15716
2385.07	4.01624
2386.48	4.17146
2387.88	4.55501
2389.28	5.06276
2390.69	4.63206
2392.09	4.76929
2393.49	4.61391
2394.89	4.7432
2396.29	4.96139
2397.69	5.02195
2399.09	4.76384
2400.49	5.11262
2401.89	5.43524
2403.29	5.53877
2404.69	5.40117
2406.09	5.86008
2407.49	6.01096
2408.89	6.57101
2410.29	6.41794
2411.69	6.39793
2413.08	5.96111
2414.48	5.01303
2415.88	4.17582
2417.28	3.71874
2418.67	3.33576
2420.07	2.90853
2421.47	2.75031
2422.86	2.48915
2424.26	2.13776
2425.65	2.50376
2427.05	2.4567
2428.45	2.31065
2429.84	1.9398
2431.23	2.20793
2432.63	2.26299
2434.02	1.4998
2435.42	1.12658
2436.81	1.19298
2438.2	0.851472
2439.6	0.485338
2440.99	0.492741
2442.38	0.809457
2443.78	0.742668
2445.17	0.800945
2446.56	0.287295
2447.95	0.315324
2449.34	0.984018
2450.73	0.494217
2452.13	0.769398
2453.52	0.747671
2454.91	0.965345
2456.3	1.02103
2457.69	1.04514
2459.08	1.2654
2460.47	1.50497
2461.85	2.15829
2463.24	1.64621
2464.63	1.96921
2466.02	1.86043
2467.41	1.89285
2468.8	2.59361
2470.19	3.37004
2471.57	3.67185
2472.96	3.79739
2474.35	4.4756
2475.73	4.83443
2477.12	4.64235
2478.51	4.67978
2479.89	4.57503
2481.28	4.37601
2482.66	4.32193
2484.05	4.14762
2485.43	4.11915
2486.82	4.42865
2488.2	4.71925
2489.59	5.12771
2490.97	5.6253
2492.35	5.08435
2493.74	5.3453
2495.12	5.10377
2496.5	4.94783
2497.89	4.67816
2499.27	4.34135
2500.65	4.62642
2502.03	4.45839
2503.42	3.77785
2504.8	3.84528
2506.18	3.78892
2507.56	3.41504
2508.94	3.42786
2510.32	4.23106
2511.7	3.94114
2513.08	3.15647
2514.46	2.74386
2515.84	2.36813
2517.22	2.27088
2518.6	2.50991
2519.98	1.79832
2521.36	1.72141
2522.73	1.62353
2524.11	2.1061
2525.49	1.98433
2526.87	1.96455
2528.25	2.07418
2529.62	2.15735
2531	2.16722
2532.38	2.0008
2533.75	2.6842
2535.13	2.97212
2536.5	3.45317
2537.88	4.13603
2539.25	4.39799
2540.63	5.00437
2542.01	5.1498
2543.38	5.40971
2544.75	5.95361
2546.13	6.20079
2547.5	6.84344
2548.88	7.34142
2550.25	7.52578
2551.62	8.08191
2553	8.3291
2554.37	8.55415
2555.74	9.39654
2557.11	10.0682
2558.49	10.239
2559.86	10.5014
2561.23	10.1103
2562.6	10.4096
2563.97	9.60795
2565.34	10.45
2566.71	10.3723
2568.08	10.3494
2569.45	11.0468
2570.82	11.1147
2572.19	11.8904
2573.56	12.4005
2574.93	12.1251
2576.3	11.7341
2577.67	12.352
2579.03	12.3278
2580.4	11.2577
2581.77	10.7368
2583.14	11.4759
2584.5	11.4887
2585.87	10.947
2587.24	11.0287
2588.6	10.418
2589.97	10.0231
2591.34	10.149
2592.7	10.1785
2594.07	9.28269
2595.43	8.9239
2596.8	8.14086
2598.16	7.76161
2599.53	7.91684
2600.89	7.68999
2602.26	7.4312
2603.62	7.1359
2604.98	6.66734
2606.35	6.29581
2607.71	5.7216
2609.07	5.54175
2610.44	5.10342
2611.8	5.06481
2613.16	5.18822
2614.52	5.21226
2615.88	5.31029
2617.25	4.74919
2618.61	4.74252
2619.97	5.25786
2621.33	5.53075
2622.69	5.53301
2624.05	5.99169
2625.41	6.05491
2626.77	6.05278
2628.13	6.36901
2629.49	6.35634
2630.85	6.5339
2632.21	7.2655
2633.56	8.49059
2634.92	8.30822
2636.28	8.78655
2637.64	9.46987
2639	9.30585
2640.35	9.0517
2641.71	8.24705
2643.07	7.65528
2644.42	7.69361
2645.78	8.43404
2647.14	8.3725
2648.49	8.31834
2649.85	8.64028
2651.2	8.22176
2652.56	7.62551
2653.91	7.90293
2655.27	7.93648
2656.62	7.66453
2657.98	7.35656
2659.33	7.18525
2660.68	6.94649
2662.04	6.77825
2663.39	7.10153
2664.74	7.14108
2666.1	7.7583
2667.45	7.76562
2668.8	7.29733
2670.15	6.78602
2671.5	6.8211
2672.86	6.71526
2674.21	6.78301
2675.56	6.8823
2676.91	6.79111
2678.26	7.02007
2679.61	6.80547
2680.96	6.9855
2682.31	6.72726
2683.66	6.33101
2685.01	6.39055
2686.36	6.61091
2687.71	7.01854
2689.06	6.70251
2690.4	6.52994
2691.75	6.67363
2693.1	6.57337
2694.45	6.60156
2695.8	6.59002
2697.14	6.49905
2698.49	6.6021
2699.84	6.57883
2701.18	6.53669
2702.53	6.55842
2703.88	6.92188
2705.22	7.13743
2706.57	7.25243
2707.91	7.39883
2709.26	7.40748
2710.6	7.7162
2711.95	7.5552
2713.29	7.63593
2714.64	8.05007
2715.98	7.79617
2717.32	7.72524
2718.67	7.2321
2720.01	7.91388
2721.35	8.2959
2722.7	7.98013
2724.04	7.97151
2725.38	7.63472
2726.72	7.95773
2728.06	8.26218
2729.4	8.66821
2730.75	9.59611
2732.09	9.59908
2733.43	9.37934
2734.77	9.50318
2736.11	9.67939
2737.45	9.35677
2738.79	9.51305
2740.13	9.08197
2741.47	8.64256
2742.81	7.73005
2744.15	7.44541
2745.48	7.74701
2746.82	7.19455
2748.16	7.32518
2749.5	6.87456
2750.84	6.70232
2752.17	6.42195
2753.51	6.24123
2754.85	6.35339
2756.19	5.55084
2757.52	5.09837
2758.86	5.30245
2760.19	5.09986
2761.53	4.94893
2762.86	4.54015
2764.2	4.11001
2765.54	4.77375
2766.87	4.29045
2768.2	4.9385
2769.54	4.88387
2770.87	4.61455
2772.21	4.4148
2773.54	3.80287
2774.88	3.01332
2776.21	2.35986
2777.54	2.41209
2778.87	2.0428
2780.21	2.0869
2781.54	2.4641
2782.87	1.61404
2784.2	1.72244
2785.53	1.65127
2786.87	1.42912
2788.2	1.0975
2789.53	0.818912
2790.86	0.624747
2792.19	0.706349
2793.52	1.05671
2794.85	0.904981
2796.18	1.5963
2797.51	1.89746
2798.84	0.976686
2800.17	0.733326
2801.49	0.978107
2802.82	0.695253
2804.15	0.325432
2805.48	0.37206
2806.81	0.393859
2808.13	-0.0208121
2809.46	0.218365
2810.79	0.411208
2812.12	0.0597126
2813.44	0.509306
2814.77	0.734152
2816.09	0.811373
2817.42	1.74272
2818.75	2.35744
2820.07	3.15491
2821.4	4.11636
2822.72	5.06192
2824.05	6.25674
2825.37	8.14089
2826.7	9.6991
2828.02	11.165
2829.35	12.9483
2830.67	15.1395
2831.99	17.6548
2833.31	18.9258
2834.64	21.6947
2835.96	23.601
2837.28	25.897
2838.61	28.4111
2839.93	30.914
2841.25	33.2295
2842.57	36.5684
2843.89	40.0542
2845.21	43.0438
2846.53	46.239
2847.85	49.8137
2849.17	53.2364
2850.49	57.529
2851.81	61.3733
2853.13	65.3836
2854.45	69.7072
2855.77	73.8283
2857.09	77.6987
2858.41	82.1972
2859.73	86.3366
2861.05	89.9958
2862.36	93.6111
2863.68	96.0313
2865	98.8253
2866.32	101.395
2867.64	104.42
2868.95	107.071
2870.27	109.451
2871.59	111.585
2872.9	113.535
2874.22	115.563
2875.53	117.596
2876.85	119.082
2878.16	121.255
2879.48	123.236
2880.79	124.859
2882.11	126.79
2883.42	128.875
2884.74	130.432
2886.05	132.452
2887.36	134.443
2888.68	135.932
2889.99	138.114
2891.3	140.509
2892.62	142.702
2893.93	144.249
2895.24	146.514
2896.55	148.252
2897.86	150.692
2899.18	153.344
2900.49	156.497
2901.8	159.051
2903.11	161.971
2904.42	165.092
2905.73	168.592
2907.04	172.693
2908.35	177.009
2909.66	181.132
2910.97	185.209
2912.28	190.317
2913.59	194.908
2914.9	199.262
2916.21	203.358
2917.51	207.306
2918.82	210.903
2920.13	214.13
2921.44	217.089
2922.74	219.73
2924.05	222.397
2925.36	223.703
2926.67	224.75
2927.97	225.403
2929.28	225.664
2930.59	226.464
2931.89	226.439
2933.2	226.118
2934.5	225.063
2935.81	223.777
2937.11	221.549
2938.42	219.715
2939.72	217.355
2941.02	214.348
2942.33	211.617
2943.63	208.144
2944.94	204.213
2946.24	200.76
2947.54	196.539
2948.85	192.832
2950.15	188.501
2951.45	183.999
2952.75	179.297
2954.05	175.157
2955.36	170.862
2956.66	165.998
2957.96	161.246
2959.26	156.247
2960.56	152.676
2961.86	148.271
2963.16	144.468
2964.46	140.737
2965.76	136.47
2967.06	132.28
2968.36	129.061
2969.66	125.966
2970.96	122.517
2972.26	119.491
2973.56	115.231
2974.85	111.934
2976.15	108.642
2977.45	105.632
2978.75	101.258
2980.05	97.9063
2981.34	94.5136
2982.64	91.4213
2983.94	87.785
2985.23	84.4285
2986.53	80.6191
2987.83	77.3852
2989.12	74.3811
2990.42	70.5917
2991.71	67.2423
2993.01	62.8779
2994.3	59.2229
2995.6	56.2487
2996.89	53.0588
2998.19	49.8696
2999.48	46.0633
3000.77	42.9405
3002.07	39.5953
3003.36	37.0612
3004.65	33.9811
3005.95	30.9232
3007.24	28.0525
3008.53	25.1185
3009.82	22.8801
3011.12	20.907
3012.41	18.7812
3013.7	16.8654
3014.99	14.3698
3016.28	12.4037
3017.57	10.8321
3018.86	9.43186
3020.15	8.05459
3021.44	6.88147
3022.73	6.33597
3024.02	5.10392
3025.31	4.43584
3026.6	3.13181
3027.89	2.47482
3029.18	1.80973
3030.47	1.20162
3031.76	0.801749
3033.04	0.282885
3034.33	-0.555653
3035.62	-1.26208
3036.91	-1.58886
3038.19	-1.70247
3039.48	-1.80894
3040.77	-1.94653
3042.05	-1.94144
3043.34	-1.94065
3044.63	-1.7577
3045.91	-1.56011
3047.2	-1.04627
3048.48	-0.573386
3049.77	-0.0987575
3051.05	-0.112294
3052.34	0.74397
3053.62	0.777109
3054.91	0.799672
3056.19	1.19657
3057.48	1.59643
3058.76	2.46477
3060.04	2.63969
3061.33	2.92426
3062.61	2.64093
3063.89	2.46905
3065.17	3.3038
3066.46	3.53003
3067.74	3.6109
3069.02	3.76515
3070.3	4.23504
3071.59	4.45464
3072.87	4.38482
3074.15	4.19067
3075.43	4.29493
3076.71	4.22001
3077.99	4.28605
3079.27	4.0534
3080.55	4.73926
3081.83	5.11211
3083.11	5.5509
3084.39	5.31367
3085.67	5.21113
3086.94	5.24909
3088.22	4.57752
3089.5	5.10146
3090.78	5.04879
3092.06	5.21447
3093.34	4.86666
3094.61	4.86801
3095.89	4.56772
3097.17	4.59963
3098.44	4.85973
3099.72	4.94689
3101	5.24955
3102.27	5.75123
3103.55	5.77593
3104.82	6.14538
3106.1	7.38032
3107.38	8.34573
3108.65	8.63657
3109.93	9.57827
3111.2	10.5738
3112.47	10.9515
3113.75	11.3133
3115.02	11.9776
3116.3	13.1916
3117.57	14.1737
3118.84	15.1644
3120.12	16.0303
3121.39	16.7036
3122.66	17.0879
3123.93	17.8048
3125.2	18.9766
3126.48	19.6694
3127.75	20.8499
3129.02	21.5542
3130.29	22.5571
3131.56	23.6617
3132.83	24.8472
3134.1	25.6754
3135.37	26.0715
3136.64	27.0012
3137.91	28.4691
3139.18	29.911
3140.45	30.9531
3141.72	32.0531
3142.99	32.9864
3144.26	33.7958
3145.53	34.4561
3146.8	35.0378
3148.07	36.2384
3149.33	35.9461
