#Acq. time (s)=	45
#Accumulations=	2
#Range (cm-¹)=	200...3150
#Windows=	2
#Auto scanning=	Off
#Autofocus=	Off
#Macrospot=	Off
#AutoExposure=	Off
#Spike filter=	Multiple accum.
#Delay time (s)=	0
#Binning=	1
#Readout mode=	Signal
#DeNoise=	Off
#ICS correction=	On
#Dark correction=	Off
#Inst. Process=	Off
#Detector Gain=	Best Dynamic Range
#Detector ADC=	20 kHz       
#Detector temperature (°C)=	-69.85
#Instrument=	LabRAM HR Evol
#Detector=	Synapse
#Objective=	x100
#Grating=	600 gr/mm
#ND Filter=	100%
#Laser (nm)=	532 
#Hole=	100.021
#Range=	Auto
#Laser Pol.=	No
#Raman. Pol.=	No
#Laser Pol. (°)=	-0.0007625
#Raman Pol. (°)=	89.9995
#Collection=	Microscope
#StageXY=	Marzhauser
#StageZ=	Marzhauser
#X (µm)=	-1107.8
#Y (µm)=	1263.3
#Z (µm)=	578.25
#Full time(mm:ss)=	3:18
#Project=	
#Sample=	
#Site=	
#Title=	Mbcal_20_25_44_2x_45s_532 nm_x100_100%_600 gr_mm
#Remark=	
#Date=	18.07.2022 13:31
#Acquired=	18.07.2022 13:31:00
#Base:Fit=	10.08.2022 10:55:08
#Base:Sub=	10.08.2022 10:55:14
#Filter:Polynom=	16.08.2022 10:07:28
#AxisType[0]=Intens
#AxisUnit[0]=Cnt
#AxisType[1]=Spectr
#AxisUnit[1]=1/cm
200.419	8.53287
202.234	8.94331
204.048	9.13315
205.862	9.48524
207.678	9.86391
209.491	9.85955
211.304	9.81907
213.116	8.83491
214.928	7.5616
216.742	6.05016
218.554	6.33826
220.365	5.37111
222.176	4.86424
223.986	3.35579
225.798	4.1432
227.608	5.29374
229.417	5.16129
231.226	5.01924
233.035	4.7242
234.843	6.23141
236.653	5.52581
238.46	5.79365
240.268	5.98446
242.074	5.0905
243.881	5.83038
245.687	6.19391
247.493	6.28146
249.298	5.64376
251.103	6.0188
252.908	5.50327
254.715	5.19974
256.519	5.05903
258.322	6.29919
260.126	6.15434
261.929	6.43822
263.731	7.4816
265.534	9.68218
267.336	11.1962
269.137	11.9843
270.938	12.1417
272.739	12.3371
274.54	13.2983
276.34	13.442
278.14	14.0231
279.939	14.1463
281.739	15.3094
283.537	15.0021
285.336	15.2791
287.134	14.7314
288.932	14.9326
290.729	15.4075
292.526	15.8862
294.323	16.4954
296.117	16.2917
297.913	15.9008
299.709	15.2707
301.504	15.6487
303.299	14.7761
305.093	15.3938
306.888	16.7097
308.682	17.6567
310.475	17.9847
312.268	18.2028
314.059	18.3889
315.852	20.239
317.644	20.1585
319.436	19.8648
321.227	19.7366
323.018	19.3621
324.807	19.1836
326.597	18.4817
328.387	18.466
330.177	18.459
331.967	17.8446
333.753	18.7123
335.542	18.8939
337.331	18.6982
339.119	18.3068
340.906	19.5402
342.691	19.803
344.478	20.1091
346.265	20.1679
348.051	19.9076
349.835	19.3362
351.621	19.0318
353.406	19.4204
355.189	19.0146
356.973	17.262
358.757	16.2061
360.541	15.0935
362.323	13.2723
364.106	12.8491
365.889	11.9482
367.669	10.8928
369.451	10.8866
371.233	11.5261
373.012	11.4325
374.793	11.7468
376.574	11.4267
378.353	11.2288
380.133	11.2272
381.91	11.0388
383.69	11.4476
385.469	10.9721
387.245	11.5878
389.024	12.2973
390.8	12.3053
392.577	12.4567
394.353	12.8761
396.129	13.2925
397.906	13.1005
399.68	13.4717
401.456	12.9812
403.23	12.9545
405.005	13.4992
406.778	13.1515
408.552	12.4778
410.325	11.3681
412.099	11.4218
413.87	12.1684
415.643	12.6732
417.414	11.5541
419.187	11.5737
420.957	10.6978
422.728	11.2168
424.498	11.2771
426.269	10.5094
428.038	11.0874
429.806	11.3275
431.576	10.3468
433.344	9.52138
435.114	8.71939
436.881	8.33991
438.649	7.26396
440.416	6.81621
442.182	7.56607
443.949	6.80266
445.715	5.76638
447.48	5.88813
449.247	5.57474
451.011	5.83337
452.777	5.88441
454.541	6.37351
456.304	6.37006
458.069	8.49108
459.832	8.35156
461.594	8.48808
463.358	8.27477
465.119	8.01973
466.881	8.86127
468.642	9.45823
470.404	10.2745
472.165	11.3927
473.925	12.177
475.684	13.3801
477.445	13.5873
479.204	14.3113
480.963	15.2664
482.721	15.9812
484.481	16.3727
486.239	16.6728
487.996	17.2972
489.753	18.0886
491.511	18.0171
493.268	18.7681
495.023	18.2393
496.779	17.7128
498.534	18.2042
500.289	18.1966
502.046	18.1411
503.8	17.8072
505.554	18.2059
507.307	18.3057
509.06	18.5923
510.813	19.3465
512.566	20.2038
514.32	20.4383
516.072	21.344
517.823	20.7466
519.574	19.8456
521.325	20.115
523.076	20.3238
524.826	19.9239
526.576	19.7116
528.325	20.5563
530.074	20.857
531.823	20.2177
533.572	20.841
535.32	20.882
537.068	19.9317
538.815	19.4783
540.562	17.3371
542.309	17.2756
544.056	16.2598
545.802	15.9405
547.547	15.6308
549.293	15.4194
551.038	15.2746
552.783	15.4598
554.527	16.295
556.271	15.9464
558.015	15.5589
559.759	15.7777
561.502	15.0285
563.245	15.4058
564.987	15.0939
566.729	15.0378
568.471	13.4608
570.213	12.3612
571.954	10.6489
573.693	10.1081
575.433	9.89022
577.173	9.22537
578.913	9.11722
580.652	8.76615
582.392	8.31435
584.13	7.76617
585.867	7.66188
587.605	7.02995
589.343	7.66504
591.08	8.06763
592.817	8.21663
594.552	6.42761
596.289	6.14272
598.025	5.96912
599.761	6.17481
601.496	5.71697
603.229	5.69999
604.964	4.9804
606.699	4.99671
608.433	5.74111
610.165	6.98882
611.898	7.2543
613.631	8.20726
615.364	8.36654
617.095	8.30095
618.827	8.17739
620.559	7.89741
622.288	6.75499
624.02	6.36728
625.75	6.29359
627.479	6.03431
629.209	6.89136
630.939	8.0462
632.667	9.0517
634.396	9.46872
636.125	9.49816
637.851	10.3249
639.58	11.0336
641.305	11.6208
643.033	12.2445
644.76	12.269
646.485	12.8499
648.212	13.1835
649.936	13.7408
651.662	12.9119
653.388	12.9441
655.111	12.9724
656.836	13.4333
658.558	13.5784
660.283	15.3824
662.005	15.7642
663.728	16.5483
665.45	16.7079
667.173	16.6064
668.893	16.5773
670.616	15.8641
672.336	17.0723
674.057	17.7685
675.777	18.5954
677.498	18.9609
679.216	18.4777
680.937	18.1908
682.655	19.4734
684.375	21.1031
686.092	22.5164
687.809	23.0855
689.528	23.7698
691.244	24.0341
692.962	24.8582
694.678	25.8781
696.393	26.8713
698.111	25.6633
699.825	26.0243
701.54	25.287
703.256	25.6672
704.97	25.805
706.685	25.5562
708.398	26.0227
710.111	26.2793
711.826	26.0902
713.538	27.0296
715.25	28.0917
716.961	28.3542
718.675	27.4101
720.386	26.6775
722.096	27.6099
723.808	28.4487
725.518	29.254
727.228	30.6168
728.937	31.0148
730.648	31.0305
732.357	31.0399
734.065	31.545
735.773	31.6514
737.483	32.729
739.19	33.5504
740.897	34.1801
742.604	34.2887
744.31	34.9546
746.018	35.9005
747.724	35.7373
749.429	36.958
751.134	37.7922
752.839	38.9606
754.544	39.7113
756.248	41.1893
757.953	43.1042
759.657	43.7294
761.36	44.3127
763.063	46.2464
764.765	47.0249
766.468	48.741
768.169	50.4589
769.871	51.6104
771.572	51.9409
773.273	52.8282
774.976	53.2887
776.676	54.4184
778.376	55.6206
780.075	57.5939
781.775	57.6966
783.474	57.8832
785.172	59.4089
786.871	60.1651
788.569	61.8794
790.266	63.6224
791.964	64.79
793.661	66.0492
795.358	66.2871
797.054	66.1053
798.75	67.8639
800.446	67.7272
802.141	67.6793
803.834	68.4221
805.529	69.4269
807.224	71.2419
808.918	71.8989
810.612	72.4493
812.305	72.4862
813.998	72.3287
815.691	72.7968
817.384	72.6093
819.076	73.0797
820.766	73.871
822.458	74.3828
824.149	74.4859
825.84	74.3566
827.531	75.3629
829.221	76.1234
830.909	76.118
832.599	76.6431
834.288	77.0967
835.977	77.8565
837.666	76.6904
839.353	76.2163
841.041	75.5539
842.729	74.0611
844.416	72.6975
846.103	72.5801
847.788	72.6436
849.475	70.3882
851.161	69.337
852.845	67.1308
854.53	65.1054
856.216	64.317
857.901	62.422
859.583	61.7667
861.268	60.6728
862.952	59.4473
864.633	58.9917
866.317	57.1063
868	55.703
869.681	55.1777
871.363	54.604
873.045	53.4892
874.725	52.1121
876.406	50.029
878.088	47.861
879.767	46.3336
881.447	44.9057
883.125	44.6235
884.805	42.3676
886.483	41.2898
888.162	38.8856
889.841	37.9468
891.518	36.834
893.196	35.9237
894.872	35.3734
896.55	34.93
898.225	35.2657
899.902	34.9931
901.577	34.7949
903.254	35.5228
904.928	35.8201
906.604	36.4774
908.277	37.2958
909.952	37.9204
911.625	40.6327
913.3	40.5345
914.972	41.2444
916.646	40.8023
918.318	40.6375
919.991	40.8643
921.662	39.9856
923.333	40.5066
925.005	40.2544
926.675	39.5071
928.347	40.0766
930.017	40.8898
931.686	39.9626
933.357	39.6838
935.025	40.1174
936.693	40.0326
938.363	40.79
940.031	41.22
941.698	41.1588
943.367	42.4818
945.034	41.6034
946.7	42.3243
948.368	42.0463
950.034	41.4437
951.699	41.1592
953.367	42.3435
955.031	41.8164
956.696	40.842
958.36	39.2545
960.026	37.8491
961.689	36.411
963.353	36.1968
965.016	35.7094
966.68	35.4394
968.343	34.165
970.005	34.0952
971.666	33.2837
973.328	34.343
974.991	34.1234
976.652	34.1338
978.312	34.1417
979.972	34.042
981.632	33.9678
983.292	33.6219
984.953	33.3766
986.612	33.3766
988.27	33.1681
989.929	34.0067
991.587	34.2429
993.244	33.7138
994.902	33.0992
996.559	31.1004
998.216	29.771
999.872	28.2157
1001.53	28.0053
1003.19	27.7297
1004.84	26.8319
1006.5	26.9036
1008.15	26.7057
1009.81	26.2488
1011.46	25.5575
1013.11	25.7085
1014.77	26.0858
1016.42	26.2547
1018.07	26.4306
1019.73	26.4809
1021.38	26.6583
1023.03	27.6012
1024.68	27.5976
1026.34	28.3316
1027.99	28.4941
1029.64	29.1028
1031.29	28.7389
1032.94	29.2109
1034.59	29.5257
1036.24	29.7872
1037.89	28.6008
1039.53	28.113
1041.18	28.9559
1042.83	29.5661
1044.48	30.5197
1046.13	31.4984
1047.77	31.3426
1049.42	31.3237
1051.07	31.0522
1052.71	31.5991
1054.36	31.5347
1056	32.854
1057.65	32.6469
1059.3	32.3897
1060.94	31.9501
1062.59	31.5383
1064.23	30.951
1065.87	29.6178
1067.52	28.1728
1069.16	27.1953
1070.8	26.8126
1072.44	26.6334
1074.09	25.3412
1075.73	23.8414
1077.37	22.3375
1079.01	21.1736
1080.65	20.0773
1082.29	18.9594
1083.93	18.2493
1085.57	17.9764
1087.21	18.0058
1088.85	17.9711
1090.49	16.9441
1092.13	16.1599
1093.77	17.2556
1095.41	18.7929
1097.04	18.4514
1098.68	19.2997
1100.32	20.3232
1101.95	21.7123
1103.59	21.2402
1105.23	21.5382
1106.86	21.6413
1108.5	21.671
1110.13	20.7975
1111.77	20.5012
1113.4	20.6563
1115.04	21.6521
1116.67	20.446
1118.31	20.9647
1119.94	20.2479
1121.57	20.8823
1123.2	21.138
1124.84	20.2006
1126.47	20.1578
1128.1	19.0375
1129.73	18.8284
1131.36	18.8009
1132.99	18.73
1134.62	18.6143
1136.25	17.4243
1137.88	16.7812
1139.51	14.7267
1141.14	13.621
1142.77	11.9598
1144.4	10.9359
1146.03	10.1934
1147.66	9.21629
1149.28	8.76015
1150.91	8.87181
1152.54	9.10127
1154.16	7.82084
1155.79	6.00883
1157.42	5.64167
1159.04	4.56482
1160.67	3.91046
1162.29	3.47724
1163.92	2.92777
1165.54	2.96119
1167.17	2.88041
1168.79	3.0625
1170.41	1.62372
1172.04	2.07647
1173.66	2.21034
1175.28	2.1584
1176.9	1.52397
1178.53	1.71436
1180.15	2.99042
1181.77	2.60321
1183.39	2.92617
1185.01	1.77032
1186.63	2.79907
1188.25	2.74649
1189.87	1.97605
1191.49	3.02626
1193.11	3.77066
1194.73	4.396
1196.35	4.27659
1197.96	3.50197
1199.58	5.33711
1201.2	5.14997
1202.82	6.85833
1204.43	7.63273
1206.05	8.73913
1207.66	8.5031
1209.28	9.11761
1210.9	10.9093
1212.51	12.4935
1214.13	13.1484
1215.74	12.8545
1217.36	13.8844
1218.97	15.1322
1220.58	15.9415
1222.2	17.1825
1223.81	18.9758
1225.42	20.5497
1227.04	21.4663
1228.65	21.9832
1230.26	22.9948
1231.87	24.7392
1233.48	25.8314
1235.1	25.8945
1236.71	27.6601
1238.32	29.2391
1239.93	30.0509
1241.53	30.0996
1243.14	31.0585
1244.75	31.556
1246.36	31.4981
1247.97	32.5504
1249.58	32.8985
1251.19	33.5929
1252.8	35.0264
1254.4	35.1821
1256.01	36.4575
1257.62	38.3288
1259.22	38.5506
1260.83	39.5351
1262.43	39.6744
1264.04	40.1181
1265.64	41.457
1267.25	42.1127
1268.85	42.0052
1270.46	43.1112
1272.06	44.3829
1273.66	44.6692
1275.27	45.6014
1276.87	45.9251
1278.48	46.7298
1280.08	48.1545
1281.68	49.2083
1283.28	49.8266
1284.88	50.0142
1286.48	50.1269
1288.08	50.5755
1289.68	52.4984
1291.28	53.3142
1292.88	54.6955
1294.48	54.5724
1296.08	54.6774
1297.68	56.0789
1299.28	56.6241
1300.88	57.6874
1302.48	58.4941
1304.07	59.7175
1305.67	59.6979
1307.27	60.3295
1308.87	61.0354
1310.46	61.841
1312.06	62.8682
1313.65	61.94
1315.25	61.7469
1316.85	62.0142
1318.44	61.2718
1320.03	61.213
1321.63	59.7973
1323.22	59.5156
1324.82	57.9979
1326.41	56.8883
1328	56.994
1329.6	55.7547
1331.19	55.432
1332.78	54.605
1334.37	53.9424
1335.96	53.1656
1337.56	52.2133
1339.15	51.2616
1340.74	51.5225
1342.33	49.6107
1343.92	48.7869
1345.51	48.1595
1347.1	46.6201
1348.69	46.368
1350.28	45.6111
1351.86	44.7127
1353.45	42.7364
1355.04	41.6402
1356.63	40.5299
1358.21	40.2978
1359.8	39.2202
1361.39	38.2967
1362.97	36.8366
1364.56	36.1293
1366.15	35.2298
1367.73	35.5023
1369.32	35.1354
1370.9	35.2936
1372.49	35.1597
1374.07	33.7338
1375.65	34.1079
1377.24	34.3294
1378.82	33.7942
1380.41	33.6086
1381.99	32.9918
1383.57	33.796
1385.15	34.3084
1386.73	34.8744
1388.32	34.0899
1389.9	33.8306
1391.48	34.4033
1393.06	33.2802
1394.64	33.1632
1396.22	32.8603
1397.8	33.4008
1399.38	33.5649
1400.96	33.7836
1402.54	34.6071
1404.11	36.2824
1405.69	38.3036
1407.27	40.4086
1408.85	41.7532
1410.43	43.4349
1412	45.0049
1413.58	46.4884
1415.16	48.5777
1416.73	49.8912
1418.31	52.0448
1419.88	54.21
1421.46	55.1842
1423.03	57.6349
1424.61	60.678
1426.18	63.5666
1427.76	65.7016
1429.33	67.6449
1430.9	69.8343
1432.48	71.3088
1434.05	73.4107
1435.62	75.5834
1437.2	77.624
1438.77	79.03
1440.34	80.2865
1441.91	81.151
1443.48	82.6696
1445.05	82.9441
1446.62	83.9673
1448.19	83.9124
1449.76	84.6312
1451.33	83.4707
1452.9	82.7078
1454.47	82.0096
1456.04	79.4713
1457.61	78.4665
1459.17	77.5873
1460.74	75.6495
1462.31	74.2228
1463.88	71.0421
1465.44	67.7066
1467.01	64.089
1468.58	61.2474
1470.14	58.3899
1471.71	54.8668
1473.27	51.9063
1474.84	49.5617
1476.4	47.1909
1477.97	45.207
1479.53	42.9011
1481.1	40.1217
1482.66	37.6528
1484.22	34.522
1485.78	31.8691
1487.35	28.7251
1488.91	26.245
1490.47	23.829
1492.03	21.2717
1493.59	19.1663
1495.16	17.1386
1496.72	16.5098
1498.28	15.2165
1499.84	13.5848
1501.4	13.2251
1502.96	13.3558
1504.52	12.0288
1506.08	11.2451
1507.64	11.3425
1509.19	10.3295
1510.75	9.73449
1512.31	9.9075
1513.87	10.5339
1515.42	10.7356
1516.98	9.69446
1518.54	9.49734
1520.1	9.70523
1521.65	10.4551
1523.21	10.0025
1524.76	10.295
1526.32	10.7265
1527.87	11.1914
1529.43	10.8216
1530.98	11.2243
1532.54	11.499
1534.09	11.9196
1535.64	12.6984
1537.2	12.5886
1538.75	12.0574
1540.3	12.8992
1541.85	13.5977
1543.41	14.8847
1544.96	15.649
1546.51	16.6209
1548.06	17.6436
1549.61	18.7908
1551.16	19.3868
1552.71	20.3443
1554.26	21.1112
1555.81	21.5379
1557.36	21.5756
1558.91	21.6187
1560.46	21.7586
1562.01	22.5955
1563.56	22.6884
1565.1	23.4382
1566.65	24.0306
1568.2	24.7369
1569.75	25.0708
1571.29	25.6772
1572.84	25.9575
1574.38	27.314
1575.93	28.0822
1577.48	28.0956
1579.02	28.649
1580.57	29.7113
1582.11	29.7008
1583.65	30.8919
1585.2	31.7051
1586.74	32.0273
1588.29	31.9642
1589.83	32.8682
1591.37	33.4884
1592.92	33.9381
1594.46	34.5402
1596	35.8205
1597.54	35.8896
1599.08	35.9711
1600.62	35.3531
1602.16	35.4311
1603.7	36.3438
1605.24	36.2158
1606.78	35.9051
1608.32	35.966
1609.86	36.525
1611.4	36.4717
1612.94	36.2229
1614.48	37.0332
1616.02	36.5129
1617.56	37.7987
1619.09	38.2386
1620.63	37.9865
1622.17	38.0081
1623.71	37.1279
1625.24	36.5915
1626.78	36.9223
1628.31	37.3123
1629.85	37.8114
1631.39	39.1635
1632.92	39.8669
1634.46	40.8954
1635.99	41.1969
1637.52	42.5
1639.06	44.0735
1640.59	44.8047
1642.12	46.0175
1643.66	46.968
1645.19	48.2844
1646.72	48.9061
1648.25	50.1902
1649.79	51.3611
1651.32	53.5678
1652.85	53.6951
1654.38	54.1505
1655.91	56.0888
1657.44	56.4774
1658.97	56.1782
1660.5	56.5792
1662.03	56.9694
1663.56	56.803
1665.09	56.957
1666.62	57.343
1668.15	57.0314
1669.67	55.5983
1671.2	54.1743
1672.73	51.9152
1674.26	50.8179
1675.79	49.6662
1677.31	48.6469
1678.84	48.0736
1680.36	46.1265
1681.89	43.737
1683.42	41.5978
1684.94	39.6882
1686.47	37.4771
1687.99	34.8608
1689.51	32.7361
1691.04	30.3744
1692.56	26.9128
1694.08	25.124
1695.61	22.357
1697.13	19.5218
1698.65	17.6893
1700.18	15.2735
1701.7	15.1458
1703.22	14.4738
1704.74	12.6005
1706.26	11.8101
1707.78	11.0202
1709.3	9.57418
1710.82	8.38374
1712.35	7.39398
1713.86	6.93893
1715.39	6.71037
1716.9	6.10691
1718.42	5.33785
1719.94	5.41519
1721.46	5.196
1722.98	4.59209
1724.5	4.48063
1726.01	4.55425
1727.53	4.69401
1729.05	4.33393
1730.56	5.06086
1732.08	5.34455
1733.6	4.81974
1735.11	5.12842
1736.63	5.78778
1738.14	6.22039
1739.66	6.31487
1741.17	6.3605
1742.69	6.02387
1744.2	6.28537
1745.71	5.91838
1747.23	6.65908
1748.74	7.44755
1750.25	8.40698
1751.77	8.13794
1753.28	8.22016
1754.79	8.34671
1756.3	7.56439
1757.81	7.03197
1759.33	6.70056
1760.84	6.54346
1762.35	6.04658
1763.86	5.50703
1765.37	5.15779
1766.88	4.90772
1768.39	4.73388
1769.9	4.66334
1771.41	4.67023
1772.91	3.80685
1774.42	4.01352
1775.93	3.71832
1777.44	3.79131
1778.95	2.84576
1780.45	2.19064
1781.96	2.15689
1783.47	1.30969
1784.97	0.936343
1786.48	0.399999
1787.99	0.470163
1789.49	0.604099
1791	0.407679
1792.5	-0.239593
1794.01	-0.558052
1795.51	-0.391951
1797.01	-0.248392
1798.52	-0.311737
1800.02	0.115191
1801.52	-0.0014305
1803.03	0.176734
1804.53	0.319499
1806.03	0.355948
1807.54	-0.220502
1809.04	0.123497
1810.54	0.24371
1812.04	0.127356
1813.54	-0.0376387
1815.04	-0.110895
1816.54	0.163865
1818.04	0.633864
1819.54	0.969316
1821.04	1.26266
1822.54	1.69073
1824.04	1.62435
1825.54	1.7677
1827.04	1.99014
1828.54	2.14191
1830.03	2.30427
1831.53	2.19571
1833.03	2.28717
1834.53	1.93581
1836.02	1.66875
1837.52	1.81286
1839.02	2.4573
1840.51	3.35493
1842.01	3.53745
1843.5	3.48607
1845	2.94507
1846.49	2.75005
1847.99	2.4416
1849.48	2.69892
1850.98	2.46063
1852.47	2.42853
1853.96	2.74743
1855.46	2.99935
1856.95	3.18569
1858.44	3.48523
1859.94	3.76794
1861.43	4.08161
1862.92	4.44487
1864.41	4.17743
1865.9	4.07442
1867.39	3.93224
1868.88	4.00236
1870.37	3.98944
1871.86	4.33856
1873.35	4.33185
1874.84	4.58225
1876.33	4.17525
1877.82	4.62701
1879.31	4.42938
1880.8	4.57663
1882.29	4.25424
1882.58	4.81581
1884.08	4.68836
1885.57	4.4174
1887.06	4.8936
1888.56	5.49408
1890.05	5.64881
1891.54	5.79286
1893.04	6.22086
1894.53	6.19917
1896.02	6.18503
1897.51	6.12738
1899	6.2901
1900.5	6.22997
1901.99	6.18591
1903.48	6.33805
1904.97	5.54876
1906.46	5.25835
1907.95	5.02307
1909.44	5.02422
1910.93	5.02424
1912.42	5.02293
1913.91	4.85365
1915.4	4.24487
1916.88	4.67414
1918.37	4.64386
1919.86	4.61045
1921.35	4.49467
1922.84	4.44729
1924.32	4.68825
1925.81	4.59864
1927.3	4.3305
1928.78	4.24896
1930.27	4.2309
1931.75	3.66848
1933.24	3.50531
1934.72	3.588
1936.21	3.03092
1937.69	3.12926
1939.18	3.23149
1940.66	3.34842
1942.15	3.60962
1943.63	3.55634
1945.11	3.49822
1946.6	2.75067
1948.08	2.68478
1949.56	1.9014
1951.04	2.00069
1952.53	1.45667
1954.01	1.69624
1955.49	1.40885
1956.97	1.92819
1958.45	1.49778
1959.93	1.9484
1961.41	2.40229
1962.89	2.77749
1964.37	2.91022
1965.85	3.64833
1967.33	4.04509
1968.81	4.03998
1970.29	4.58132
1971.77	5.06209
1973.24	5.2138
1974.72	4.92625
1976.2	5.07815
1977.68	5.41391
1979.15	4.86689
1980.63	5.44005
1982.11	5.8058
1983.58	5.92091
1985.06	6.06222
1986.53	6.59972
1988.01	6.77481
1989.48	6.86611
1990.96	7.3764
1992.43	7.51421
1993.91	7.27036
1995.38	7.28504
1996.86	7.74203
1998.33	8.13804
1999.8	8.14592
2001.27	8.2007
2002.75	8.34599
2004.22	8.25867
2005.69	8.35293
2007.16	8.90985
2008.64	9.5538
2010.11	9.55694
2011.58	9.45681
2013.05	8.98071
2014.52	8.70654
2015.99	8.02116
2017.46	7.19868
2018.93	6.92037
2020.4	6.41593
2021.87	6.75431
2023.34	6.20211
2024.8	6.20485
2026.27	6.40489
2027.74	6.85389
2029.21	7.1484
2030.68	7.89202
2032.14	8.18729
2033.61	8.93725
2035.08	9.13193
2036.54	9.47002
2038.01	9.79688
2039.48	10.2404
2040.94	10.6212
2042.41	10.4646
2043.87	10.7452
2045.34	10.4137
2046.8	10.2367
2048.27	10.1226
2049.73	10.704
2051.19	9.86026
2052.66	9.58198
2054.12	9.63872
2055.58	9.72312
2057.05	9.02515
2058.51	8.24873
2059.97	8.62923
2061.43	8.2408
2062.9	8.28838
2064.36	8.76482
2065.82	9.02843
2067.28	8.51833
2068.74	8.46759
2070.2	8.47811
2071.66	7.98169
2073.12	7.49656
2074.58	7.26542
2076.04	7.32704
2077.5	7.3674
2078.95	7.3663
2080.41	7.20625
2081.87	7.06634
2083.33	6.37735
2084.79	6.32704
2086.24	5.63202
2087.7	5.83517
2089.16	5.86145
2090.61	5.71271
2092.07	5.37726
2093.53	4.92807
2094.98	5.17529
2096.44	5.63427
2097.89	5.83935
2099.35	6.46397
2100.8	6.71974
2102.26	7.16479
2103.71	7.25497
2105.16	7.5884
2106.62	8.23301
2108.07	8.42664
2109.53	8.53532
2110.98	8.85038
2112.43	9.13875
2113.88	9.68687
2115.33	10.5138
2116.79	11.3043
2118.24	11.2218
2119.69	11.7087
2121.14	11.6472
2122.59	11.9849
2124.04	11.7464
2125.49	12.5793
2126.94	12.8981
2128.39	13.759
2129.84	14.3418
2131.29	15.3903
2132.74	16.1449
2134.19	16.8983
2135.63	18.2685
2137.08	18.927
2138.53	19.5705
2139.98	19.8798
2141.43	20.8232
2142.87	22.0017
2144.32	22.9712
2145.77	24.1506
2147.21	25.61
2148.66	26.9822
2150.1	28.0822
2151.55	29.3732
2152.99	30.4501
2154.44	31.0676
2155.88	31.9825
2157.33	32.613
2158.77	33.0547
2160.21	34.4845
2161.66	35.4954
2163.1	36.262
2164.55	37.5534
2165.99	38.9827
2167.43	40.317
2168.87	40.8959
2170.31	41.2415
2171.76	41.4188
2173.2	41.2143
2174.64	41.6567
2176.08	41.6053
2177.52	41.9674
2178.96	42.0071
2180.4	41.8035
2181.84	41.5235
2183.28	41.5903
2184.72	41.234
2186.16	40.9287
2187.6	40.5587
2189.04	39.382
2190.47	38.285
2191.91	36.9756
2193.35	36.3314
2194.79	35.6702
2196.23	34.9949
2197.66	34.4981
2199.1	33.8364
2200.54	32.8346
2201.97	31.274
2203.41	30.1928
2204.84	28.989
2206.28	28.3296
2207.71	27.2954
2209.15	26.0269
2210.58	25.4787
2212.02	24.9831
2213.45	24.5982
2214.89	23.6237
2216.32	22.4528
2217.75	21.7396
2219.19	21.161
2220.62	20.3585
2222.05	19.5059
2223.48	18.9268
2224.92	18.3556
2226.35	17.8037
2227.78	17.4239
2229.21	16.7238
2230.64	16.1604
2232.07	15.9594
2233.5	15.234
2234.93	14.6582
2236.36	13.8287
2237.79	12.6822
2239.22	11.1556
2240.65	9.89913
2242.08	9.24393
2243.51	8.24172
2244.94	7.62241
2246.37	7.59699
2247.79	6.8743
2249.22	7.01002
2250.65	6.44965
2252.08	6.16812
2253.5	5.83092
2254.93	5.5823
2256.36	5.50707
2257.78	5.84027
2259.21	5.3623
2260.63	5.04099
2262.06	4.67804
2263.48	4.5375
2264.91	5.18733
2266.33	5.23532
2267.76	4.50592
2269.18	4.68599
2270.6	4.34678
2272.03	4.03631
2273.45	4.01226
2274.87	4.87312
2276.3	5.02299
2277.72	5.03845
2279.14	5.14408
2280.56	5.07752
2281.98	5.06737
2283.41	5.23306
2284.83	5.32357
2286.25	4.98739
2287.67	4.66406
2289.09	5.12525
2290.51	5.13178
2291.93	5.12615
2293.35	4.6555
2294.77	4.57964
2296.19	4.39588
2297.61	3.93211
2299.02	4.45041
2300.44	4.77094
2301.86	4.47601
2303.28	4.55008
2304.7	4.24568
2306.11	5.04182
2307.53	5.39416
2308.95	5.69741
2310.36	5.68193
2311.78	6.6664
2313.2	6.75251
2314.61	7.02405
2316.03	6.95386
2317.44	7.08362
2318.86	7.38152
2320.27	7.36412
2321.69	6.71774
2323.1	7.00506
2324.51	7.07275
2325.93	6.92019
2327.34	7.18849
2328.76	6.38606
2330.17	5.94053
2331.58	6.42865
2332.99	5.9874
2334.41	5.82389
2335.82	5.59692
2337.23	5.56037
2338.64	5.20798
2340.05	5.53538
2341.46	5.27344
2342.87	5.29622
2344.28	4.79006
2345.69	4.95955
2347.1	4.15591
2348.51	3.28956
2349.92	2.94289
2351.33	2.45727
2352.74	1.95589
2354.15	1.9215
2355.56	1.58091
2356.97	0.638863
2358.37	0.165895
2359.78	0.268374
2361.19	0.226148
2362.6	0.337418
2364	0.196433
2365.41	0.485938
2366.82	0.589217
2368.22	1.173
2369.63	1.76858
2371.03	1.58161
2372.44	1.53149
2373.84	2.10619
2375.25	2.92237
2376.65	3.41184
2378.06	3.44177
2379.46	2.62398
2380.86	2.34003
2382.27	2.45647
2383.67	2.17935
2385.07	2.32446
2386.48	2.2044
2387.88	2.23072
2389.28	2.86096
2390.69	2.65059
2392.09	2.80901
2393.49	3.75759
2394.89	3.53482
2396.29	3.59267
2397.69	4.1558
2399.09	3.85664
2400.49	4.19568
2401.89	4.55724
2403.29	4.15159
2404.69	4.85476
2406.09	5.31175
2407.49	5.4185
2408.89	5.59594
2410.29	5.95308
2411.69	5.96871
2413.08	5.427
2414.48	5.36813
2415.88	5.99315
2417.28	5.01341
2418.67	4.85621
2420.07	5.78189
2421.47	5.68201
2422.86	5.41074
2424.26	5.48343
2425.65	4.70977
2427.05	4.13899
2428.45	3.96851
2429.84	4.2931
2431.23	3.97484
2432.63	3.13016
2434.02	2.81547
2435.42	2.86522
2436.81	2.73981
2438.2	2.2923
2439.6	1.82403
2440.99	1.92021
2442.38	1.17079
2443.78	0.956332
2445.17	0.27879
2446.56	-0.112541
2447.95	-0.47249
2449.34	-0.532131
2450.73	0.155397
2452.13	0.462519
2453.52	0.38657
2454.91	0.155609
2456.3	0.825588
2457.69	0.756998
2459.08	0.89129
2460.47	1.07337
2461.85	1.39974
2463.24	1.61727
2464.63	0.773735
2466.02	1.93012
2467.41	1.93523
2468.8	1.40517
2470.19	1.78942
2471.57	2.41052
2472.96	2.19583
2474.35	2.46302
2475.73	2.35632
2477.12	2.16299
2478.51	2.12121
2479.89	2.22244
2481.28	2.45502
2482.66	2.5164
2484.05	3.06561
2485.43	3.08659
2486.82	3.10026
2488.2	3.62731
2489.59	3.55597
2490.97	2.85168
2492.35	1.86714
2493.74	1.90501
2495.12	1.81343
2496.5	1.96923
2497.89	2.51832
2499.27	2.46716
2500.65	1.79887
2502.03	1.88283
2503.42	2.54824
2504.8	2.4242
2506.18	1.88375
2507.56	1.93489
2508.94	1.96441
2510.32	2.125
2511.7	1.74932
2513.08	2.41997
2514.46	2.32594
2515.84	3.353
2517.22	3.74808
2518.6	4.25503
2519.98	4.55892
2521.36	4.61346
2522.73	5.24272
2524.11	5.0609
2525.49	5.27392
2526.87	4.65716
2528.25	4.8573
2529.62	5.25044
2531	5.26238
2532.38	5.31599
2533.75	5.3123
2535.13	6.27113
2536.5	5.91118
2537.88	6.51854
2539.25	7.224
2540.63	7.27101
2542.01	7.07366
2543.38	7.48898
2544.75	8.18497
2546.13	8.17153
2547.5	8.51675
2548.88	9.10321
2550.25	9.06459
2551.62	8.38587
2553	8.59318
2554.37	8.30115
2555.74	8.59117
2557.11	7.947
2558.49	7.92189
2559.86	7.8937
2561.23	7.62151
2562.6	8.2456
2563.97	8.53542
2565.34	8.42965
2566.71	8.65448
2568.08	8.76805
2569.45	8.26238
2570.82	8.39546
2572.19	8.17819
2573.56	7.53601
2574.93	7.02373
2576.3	7.08906
2577.67	6.42815
2579.03	6.66653
2580.4	6.75833
2581.77	7.18512
2583.14	7.27644
2584.5	7.75522
2585.87	7.28026
2587.24	7.07133
2588.6	6.58401
2589.97	6.21642
2591.34	5.67199
2592.7	4.81544
2594.07	5.35632
2595.43	5.73349
2596.8	5.73576
2598.16	6.31174
2599.53	6.43048
2600.89	6.39449
2602.26	6.15522
2603.62	6.55772
2604.98	6.82488
2606.35	6.58537
2607.71	5.92292
2609.07	5.84221
2610.44	5.55763
2611.8	5.4425
2613.16	5.45309
2614.52	4.9219
2615.88	4.76231
2617.25	4.35006
2618.61	4.34225
2619.97	4.77443
2621.33	4.88459
2622.69	5.0077
2624.05	5.2936
2625.41	4.97113
2626.77	4.70848
2628.13	4.25518
2629.49	4.0503
2630.85	4.02233
2632.21	4.06127
2633.56	3.80486
2634.92	3.49564
2636.28	2.96699
2637.64	2.28477
2639	2.61542
2640.35	2.7834
2641.71	2.8665
2643.07	3.09555
2644.42	2.96903
2645.78	2.9244
2647.14	3.35753
2648.49	3.65993
2649.85	4.23262
2651.2	3.96485
2652.56	3.78238
2653.91	3.62672
2655.27	4.26621
2656.62	4.03194
2657.98	4.72821
2659.33	5.02493
2660.68	5.51136
2662.04	5.78932
2663.39	5.8416
2664.74	5.70291
2666.1	6.40636
2667.45	6.34696
2668.8	6.47794
2670.15	6.78493
2671.5	7.04498
2672.86	7.11455
2674.21	6.89072
2675.56	7.13262
2676.91	7.54889
2678.26	7.18606
2679.61	7.68802
2680.96	7.5319
2682.31	7.81878
2683.66	8.48362
2685.01	8.78294
2686.36	9.1417
2687.71	9.22503
2689.06	8.81754
2690.4	9.17359
2691.75	8.90881
2693.1	8.71436
2694.45	8.56061
2695.8	9.06137
2697.14	8.93505
2698.49	8.97755
2699.84	9.26037
2701.18	9.63688
2702.53	9.50345
2703.88	9.63657
2705.22	10.3674
2706.57	10.2415
2707.91	10.1784
2709.26	10.1448
2710.6	10.6204
2711.95	10.2667
2713.29	10.6902
2714.64	10.5807
2715.98	11.3858
2717.32	11.1718
2718.67	10.9576
2720.01	11.4707
2721.35	11.5731
2722.7	11.9356
2724.04	11.7838
2725.38	12.1858
2726.72	12.086
2728.06	11.6952
2729.4	11.6032
2730.75	11.6954
2732.09	12.0624
2733.43	11.4939
2734.77	11.2629
2736.11	11.0581
2737.45	10.5407
2738.79	10.2436
2740.13	10.3192
2741.47	9.89306
2742.81	9.6427
2744.15	9.30063
2745.48	9.66855
2746.82	9.62408
2748.16	9.67395
2749.5	10.1664
2750.84	10.2175
2752.17	9.85624
2753.51	9.71165
2754.85	9.78904
2756.19	9.76247
2757.52	9.66589
2758.86	9.12293
2760.19	9.28489
2761.53	8.92361
2762.86	9.08716
2764.2	8.71873
2765.54	8.79612
2766.87	8.73531
2768.2	8.13407
2769.54	7.36695
2770.87	7.07282
2772.21	7.17075
2773.54	6.64648
2774.88	6.6548
2776.21	6.89783
2777.54	6.21264
2778.87	5.569
2780.21	5.37145
2781.54	4.59948
2782.87	4.58067
2784.2	3.6748
2785.53	3.51659
2786.87	3.08939
2788.2	2.52783
2789.53	2.34102
2790.86	1.92023
2792.19	1.28215
2793.52	0.576214
2794.85	-0.00419953
2796.18	-0.45466
2797.51	-0.42091
2798.84	-0.554653
2800.17	-1.55839
2801.49	-0.932736
2802.82	-0.978806
2804.15	-0.869542
2805.48	-0.0119968
2806.81	0.176117
2808.13	0.0953734
2809.46	0.00125582
2810.79	0.265775
2812.12	0.516227
2813.44	-0.0982032
2814.77	0.346159
2816.09	1.02697
2817.42	1.38943
2818.75	1.66045
2820.07	1.99499
2821.4	3.08329
2822.72	4.18412
2824.05	5.70422
2825.37	6.21994
2826.7	7.93976
2828.02	9.3905
2829.35	11.5963
2830.67	13.3846
2831.99	15.3793
2833.31	17.2302
2834.64	19.3802
2835.96	21.3267
2837.28	23.6673
2838.61	25.8676
2839.93	28.0518
2841.25	30.176
2842.57	32.8604
2843.89	35.3061
2845.21	38.0512
2846.53	40.5147
2847.85	43.1017
2849.17	46.2643
2850.49	49.7784
2851.81	52.6587
2853.13	56.5548
2854.45	59.7238
2855.77	63.5833
2857.09	66.6167
2858.41	69.7154
2859.73	73.0836
2861.05	76.6527
2862.36	79.8591
2863.68	83.3438
2865	86.3924
2866.32	89.2497
2867.64	92.7005
2868.95	94.9939
2870.27	97.6278
2871.59	99.8206
2872.9	101.749
2874.22	103.922
2875.53	105.91
2876.85	107.809
2878.16	109.539
2879.48	111.623
2880.79	113.939
2882.11	116.428
2883.42	117.484
2884.74	119.435
2886.05	121.383
2887.36	123.945
2888.68	125.788
2889.99	127.381
2891.3	128.661
2892.62	131.056
2893.93	133.092
2895.24	134.757
2896.55	136.692
2897.86	139.025
2899.18	140.795
2900.49	142.609
2901.8	144.48
2903.11	146.896
2904.42	148.628
2905.73	152.035
2907.04	154.818
2908.35	157.868
2909.66	161.831
2910.97	165.179
2912.28	168.89
2913.59	171.951
2914.9	176.184
2916.21	179.69
2917.51	182.071
2918.82	185.267
2920.13	187.665
2921.44	190.724
2922.74	192.413
2924.05	194.355
2925.36	196.055
2926.67	196.928
2927.97	197.391
2929.28	198.051
2930.59	198.048
2931.89	197.614
2933.2	197.92
2934.5	196.797
2935.81	195.495
2937.11	193.982
2938.42	192.49
2939.72	190.334
2941.02	187.669
2942.33	184.529
2943.63	181.82
2944.94	178.782
2946.24	175.487
2947.54	172.076
2948.85	168.288
2950.15	164.731
2951.45	160.792
2952.75	156.773
2954.05	152.713
2955.36	149.312
2956.66	145.392
2957.96	141.719
2959.26	138.119
2960.56	134.344
2961.86	131.496
2963.16	128.62
2964.46	125.258
2965.76	122.144
2967.06	119.293
2968.36	116.753
2969.66	114.66
2970.96	113.018
2972.26	110.132
2973.56	107.956
2974.85	106.264
2976.15	103.409
2977.45	100.404
2978.75	97.3391
2980.05	94.9631
2981.34	91.6963
2982.64	88.3659
2983.94	85.7271
2985.23	82.5081
2986.53	79.1595
2987.83	75.3668
2989.12	71.5539
2990.42	68.0257
2991.71	64.8987
2993.01	61.7153
2994.3	58.6276
2995.6	54.8984
2996.89	52.0542
2998.19	48.8668
2999.48	44.6534
3000.77	41.0423
3002.07	37.9266
3003.36	34.9902
3004.65	31.8763
3005.95	29.262
3007.24	26.0979
3008.53	23.7611
3009.82	20.8732
3011.12	18.5708
3012.41	16.5298
3013.7	14.2343
3014.99	11.8904
3016.28	10.79
3017.57	9.68165
3018.86	8.42519
3020.15	6.9953
3021.44	5.66619
3022.73	4.78276
3024.02	3.44973
3025.31	2.95377
3026.6	2.45556
3027.89	1.8878
3029.18	1.41689
3030.47	1.1751
3031.76	1.22306
3033.04	1.22062
3034.33	1.00577
3035.62	0.365853
3036.91	-0.0634256
3038.19	0.403239
3039.48	0.930473
3040.77	1.32925
3042.05	1.56347
3043.34	1.62803
3044.63	1.5123
3045.91	1.58035
3047.2	1.40565
3048.48	1.53094
3049.77	1.577
3051.05	1.82914
3052.34	2.01649
3053.62	2.01139
3054.91	2.4844
3056.19	2.95791
3057.48	2.93483
3058.76	2.99039
3060.04	2.81822
3061.33	3.11272
3062.61	2.55486
3063.89	2.78955
3065.17	3.24156
3066.46	3.56044
3067.74	3.67472
3069.02	3.82628
3070.3	3.59012
3071.59	2.18121
3072.87	2.4931
3074.15	2.28819
3075.43	2.72127
3076.71	2.88138
3077.99	2.59477
3079.27	2.81281
3080.55	2.60862
3081.83	2.18158
3083.11	1.56915
3084.39	1.36614
3085.67	1.40883
3086.94	0.888323
3088.22	0.746055
3089.5	1.25721
3090.78	0.809325
3092.06	1.39238
3093.34	1.74781
3094.61	1.75668
3095.89	1.42765
3097.17	1.39846
3098.44	1.85573
3099.72	2.32009
3101	3.05319
3102.27	3.64201
3103.55	3.9722
3104.82	4.12321
3106.1	4.31821
3107.38	4.56026
3108.65	5.28431
3109.93	5.86151
3111.2	6.36082
3112.47	6.74384
3113.75	7.77155
3115.02	8.60489
3116.3	9.74109
3117.57	10.0623
3118.84	11.0058
3120.12	11.6002
3121.39	12.2273
3122.66	12.5543
3123.93	13.2167
3125.2	14.0404
3126.48	14.6004
3127.75	15.6801
3129.02	16.234
3130.29	16.4049
3131.56	16.7037
3132.83	17.2335
3134.1	17.0802
3135.37	17.4501
3136.64	19.1561
3137.91	19.5397
3139.18	20.0521
3140.45	20.2812
3141.72	20.2518
3142.99	20.2733
3144.26	20.2917
3145.53	20.1683
3146.8	20.1124
3148.07	19.5332
3149.33	18.5468
