#Acq. time (s)=	45
#Accumulations=	2
#Range (cm-¹)=	200...3150
#Windows=	2
#Auto scanning=	Off
#Autofocus=	Off
#Macrospot=	Off
#AutoExposure=	Off
#Spike filter=	Multiple accum.
#Delay time (s)=	0
#Binning=	1
#Readout mode=	Signal
#DeNoise=	Off
#ICS correction=	On
#Dark correction=	Off
#Inst. Process=	Off
#Detector Gain=	Best Dynamic Range
#Detector ADC=	20 kHz       
#Detector temperature (°C)=	-69.85
#Instrument=	LabRAM HR Evol
#Detector=	Synapse
#Objective=	x100
#Grating=	600 gr/mm
#ND Filter=	100%
#Laser (nm)=	532 
#Hole=	100.021
#Range=	Auto
#Laser Pol.=	No
#Raman. Pol.=	No
#Laser Pol. (°)=	-0.0007625
#Raman Pol. (°)=	89.9995
#Collection=	Microscope
#StageXY=	Marzhauser
#StageZ=	Marzhauser
#X (µm)=	-1125.7
#Y (µm)=	1288.2
#Z (µm)=	578.4
#Full time(mm:ss)=	3:19
#Project=	
#Sample=	
#Site=	
#Title=	Mbcal_20_25_35_2x_45s_532 nm_x100_100%_600 gr_mm
#Remark=	
#Date=	18.07.2022 12:41
#Acquired=	18.07.2022 12:41:29
#Base:Fit=	10.08.2022 10:55:08
#Base:Sub=	10.08.2022 10:55:14
#Filter:Polynom=	16.08.2022 10:07:28
#AxisType[0]=Intens
#AxisUnit[0]=Cnt
#AxisType[1]=Spectr
#AxisUnit[1]=1/cm
200.419	21.2171
202.234	16.388
204.048	14.8562
205.862	12.182
207.678	10.2593
209.491	8.64763
211.304	7.44037
213.116	5.46918
214.928	4.02752
216.742	4.05015
218.554	4.31202
220.365	4.05328
222.176	3.86082
223.986	2.8021
225.798	1.64986
227.608	2.36821
229.417	2.53263
231.226	2.70958
233.035	2.73225
234.843	3.68565
236.653	3.02392
238.46	3.98086
240.268	2.6437
242.074	2.81933
243.881	2.81302
245.687	2.90856
247.493	3.99445
249.298	4.5878
251.103	5.60375
252.908	5.17007
254.715	4.84578
256.519	5.62681
258.322	5.56381
260.126	6.1887
261.929	4.5227
263.731	4.42551
265.534	4.86616
267.336	6.14732
269.137	5.52954
270.938	4.47114
272.739	4.22144
274.54	2.55752
276.34	2.49863
278.14	2.58204
279.939	3.0796
281.739	4.10403
283.537	2.6756
285.336	2.06119
287.134	1.60141
288.932	1.06681
290.729	1.77169
292.526	1.93125
294.323	1.18228
296.117	3.10434
297.913	3.1351
299.709	3.44701
301.504	4.05978
303.299	4.01163
305.093	5.97633
306.888	6.54689
308.682	6.91557
310.475	7.44903
312.268	7.54978
314.059	8.18843
315.852	9.06146
317.644	10.2979
319.436	11.556
321.227	12.8893
323.018	12.8241
324.807	13.7577
326.597	13.4761
328.387	14.8525
330.177	13.8724
331.967	14.8813
333.753	15.936
335.542	16.4429
337.331	16.3968
339.119	16.7832
340.906	16.8793
342.691	16.498
344.478	16.186
346.265	15.7151
348.051	15.1133
349.835	13.6152
351.621	12.6361
353.406	12.4048
355.189	11.8238
356.973	10.9087
358.757	8.48486
360.541	8.1045
362.323	6.8338
364.106	5.44974
365.889	5.21518
367.669	4.72544
369.451	4.51317
371.233	4.74098
373.012	3.42422
374.793	3.50152
376.574	5.33412
378.353	7.06416
380.133	7.73041
381.91	8.18091
383.69	10.18
385.469	10.946
387.245	11.3102
389.024	11.6368
390.8	12.029
392.577	13.2542
394.353	14.2898
396.129	13.8413
397.906	16.5167
399.68	18.1105
401.456	18.9507
403.23	20.6484
405.005	22.2934
406.778	23.3666
408.552	25.7643
410.325	26.2327
412.099	27.1566
413.87	28.9884
415.643	28.201
417.414	28.8958
419.187	28.3357
420.957	28.8557
422.728	28.4395
424.498	26.8365
426.269	26.1161
428.038	26.9833
429.806	26.386
431.576	25.5677
433.344	24.3638
435.114	23.4993
436.881	21.9826
438.649	20.1093
440.416	19.98
442.182	19.7288
443.949	18.1313
445.715	17.1001
447.48	15.0395
449.247	14.9995
451.011	13.7025
452.777	12.6819
454.541	13.7467
456.304	13.5969
458.069	13.2711
459.832	13.9044
461.594	14.575
463.358	15.3394
465.119	16.373
466.881	17.0474
468.642	17.7415
470.404	17.5125
472.165	17.3787
473.925	16.4382
475.684	18.0485
477.445	17.7317
479.204	18.6911
480.963	20.0948
482.721	21.4774
484.481	22.268
486.239	24.2612
487.996	24.2602
489.753	25.1349
491.511	26.4482
493.268	26.4412
495.023	27.4468
496.779	28.8397
498.534	28.8717
500.289	29.2638
502.046	27.8758
503.8	26.4415
505.554	27.2062
507.307	27.7365
509.06	27.8506
510.813	27.8523
512.566	28.4276
514.32	30.1112
516.072	31.5924
517.823	30.6532
519.574	30.5941
521.325	29.6577
523.076	30.7979
524.826	30.4159
526.576	29.9035
528.325	29.9091
530.074	29.6945
531.823	28.7604
533.572	30.4401
535.32	30.2518
537.068	30.6407
538.815	30.0409
540.562	30.1565
542.309	30.9136
544.056	30.0508
545.802	30.4516
547.547	31.1017
549.293	30.1971
551.038	30.3747
552.783	30.6101
554.527	30.756
556.271	29.0339
558.015	27.3898
559.759	27.0977
561.502	28.081
563.245	27.1074
564.987	25.2262
566.729	23.3959
568.471	22.9564
570.213	21.4177
571.954	18.3048
573.693	17.1205
575.433	16.5891
577.173	15.6738
578.913	14.7968
580.652	13.6426
582.392	13.9264
584.13	11.4669
585.867	10.5781
587.605	9.68098
589.343	8.97813
591.08	9.59989
592.817	9.41588
594.552	8.85278
596.289	7.22571
598.025	7.00686
599.761	5.94348
601.496	5.88134
603.229	5.51298
604.964	5.45496
606.699	6.7064
608.433	5.71148
610.165	6.74844
611.898	6.48947
613.631	5.9612
615.364	6.26115
617.095	7.3361
618.827	8.06791
620.559	8.69639
622.288	8.12712
624.02	7.46273
625.75	8.37989
627.479	9.71831
629.209	10.2091
630.939	9.93139
632.667	9.89632
634.396	11.0147
636.125	10.8649
637.851	12.4641
639.58	12.7053
641.305	10.823
643.033	9.82379
644.76	10.35
646.485	10.1417
648.212	9.43834
649.936	7.49724
651.662	7.75876
653.388	6.87318
655.111	7.12921
656.836	5.91461
658.558	5.25226
660.283	6.48144
662.005	6.75697
663.728	5.86029
665.45	6.25601
667.173	5.66771
668.893	5.9827
670.616	4.95622
672.336	6.67503
674.057	7.03343
675.777	7.28388
677.498	6.04622
679.216	5.63833
680.937	6.41077
682.655	6.99306
684.375	7.3083
686.092	8.20088
687.809	10.2995
689.528	11.2962
691.244	12.3187
692.962	13.0525
694.678	14.4423
696.393	16.1948
698.111	17.7134
699.825	19.2025
701.54	20.623
703.256	23.0744
704.97	23.7889
706.685	24.6754
708.398	25.1885
710.111	27.2197
711.826	28.6978
713.538	30.4192
715.25	30.3373
716.961	31.0524
718.675	32.2459
720.386	33.4639
722.096	33.1261
723.808	34.6206
725.518	35.5264
727.228	35.133
728.937	36.6821
730.648	36.9878
732.357	36.4552
734.065	35.6903
735.773	37.1652
737.483	35.8769
739.19	35.3468
740.897	35.3931
742.604	35.6565
744.31	35.9944
746.018	37.6522
747.724	37.7319
749.429	38.4683
751.134	40.4624
752.839	41.7346
754.544	43.7314
756.248	43.9807
757.953	45.6454
759.657	45.7388
761.36	46.0506
763.063	47.0171
764.765	49.1485
766.468	51.0313
768.169	52.2453
769.871	54.4462
771.572	55.8043
773.273	56.1447
774.976	57.0081
776.676	58.4778
778.376	59.1418
780.075	60.5789
781.775	61.0277
783.474	62.3885
785.172	63.1041
786.871	62.6091
788.569	63.59
790.266	63.1366
791.964	63.0898
793.661	63.6335
795.358	65.6651
797.054	64.3356
798.75	63.079
800.446	61.8941
802.141	60.6507
803.834	58.2588
805.529	57.2215
807.224	57.0959
808.918	56.4957
810.612	55.7511
812.305	53.268
813.998	51.2717
815.691	49.0664
817.384	48.2911
819.076	48.043
820.766	48.2704
822.458	46.6738
824.149	47.4892
825.84	48.1577
827.531	50.5708
829.221	51.3101
830.909	53.1243
832.599	53.955
834.288	56.1596
835.977	58.004
837.666	58.3828
839.353	60.0541
841.041	60.7582
842.729	62.5256
844.416	63.4898
846.103	64.4786
847.788	66.5456
849.475	67.8207
851.161	68.859
852.845	69.0105
854.53	68.3315
856.216	67.2429
857.901	66.9197
859.583	67.0072
861.268	65.8974
862.952	65.7047
864.633	66.0558
866.317	66.1069
868	65.4424
869.681	63.9052
871.363	62.4972
873.045	61.9749
874.725	60.0263
876.406	58.7942
878.088	57.5388
879.767	55.3903
881.447	51.4687
883.125	48.9694
884.805	48.4769
886.483	45.6916
888.162	43.8794
889.841	42.1396
891.518	40.0765
893.196	37.1375
894.872	35.762
896.55	35.1666
898.225	33.4287
899.902	32.1051
901.577	30.7726
903.254	30.3425
904.928	29.4443
906.604	28.26
908.277	28.2796
909.952	30.5999
911.625	30.9774
913.3	30.2754
914.972	31.4987
916.646	32.6529
918.318	33.1539
919.991	33.4171
921.662	33.8888
923.333	34.868
925.005	35.0177
926.675	35.5426
928.347	35.3076
930.017	35.129
931.686	34.9713
933.357	34.6681
935.025	33.5904
936.693	32.4901
938.363	31.0757
940.031	30.6813
941.698	29.9613
943.367	30.0332
945.034	30.1855
946.7	30.3741
948.368	29.9317
950.034	29.6777
951.699	28.4181
953.367	27.7299
955.031	27.7429
956.696	26.4023
958.36	24.3578
960.026	24.2104
961.689	21.9689
963.353	20.5828
965.016	20.6434
966.68	21.7153
968.343	22.1357
970.005	21.0364
971.666	20.2803
973.328	20.3738
974.991	20.0504
976.652	19.0545
978.312	18.4414
979.972	18.1313
981.632	16.6304
983.292	16.3279
984.953	15.8756
986.612	16.8515
988.27	16.442
989.929	16.7269
991.587	18.3592
993.244	19.5449
994.902	18.663
996.559	19.2644
998.216	19.2389
999.872	18.8728
1001.53	17.9709
1003.19	18.7772
1004.84	18.3569
1006.5	17.7999
1008.15	18.7074
1009.81	18.5157
1011.46	18.7119
1013.11	19.2763
1014.77	20.0483
1016.42	21.3587
1018.07	20.7938
1019.73	21.425
1021.38	20.9422
1023.03	21.8053
1024.68	22.9878
1026.34	23.5928
1027.99	24.5856
1029.64	24.8611
1031.29	24.4719
1032.94	24.0343
1034.59	24.0178
1036.24	22.8625
1037.89	22.473
1039.53	22.2472
1041.18	22.5661
1042.83	23.4386
1044.48	23.2616
1046.13	24.9475
1047.77	26.5608
1049.42	25.9913
1051.07	25.1881
1052.71	24.0821
1054.36	23.4837
1056	23.3756
1057.65	21.2236
1059.3	20.3637
1060.94	20.9716
1062.59	22.8068
1064.23	23.1404
1065.87	22.1995
1067.52	21.6936
1069.16	22.2445
1070.8	22.5634
1072.44	22.0002
1074.09	23.1538
1075.73	23.3348
1077.37	22.2799
1079.01	23.3001
1080.65	22.7705
1082.29	23.1086
1083.93	23.2659
1085.57	24.8834
1087.21	25.053
1088.85	25.7714
1090.49	27.3839
1092.13	27.4862
1093.77	29.5349
1095.41	30.4944
1097.04	30.2997
1098.68	30.7071
1100.32	30.636
1101.95	31.1549
1103.59	31.2216
1105.23	33.0954
1106.86	33.7085
1108.5	34.168
1110.13	35.4284
1111.77	34.4576
1113.4	33.6709
1115.04	34.6196
1116.67	34.7573
1118.31	34.3783
1119.94	34.7579
1121.57	35.0684
1123.2	34.2317
1124.84	33.3908
1126.47	32.7058
1128.1	32.6583
1129.73	32.213
1131.36	31.495
1132.99	31.1838
1134.62	30.9694
1136.25	30.6313
1137.88	30.5697
1139.51	29.6482
1141.14	29.4167
1142.77	27.1449
1144.4	21.487
1146.03	20.5768
1147.66	20.2255
1149.28	21.351
1150.91	22.1359
1152.54	22.424
1154.16	21.6342
1155.79	22.5229
1157.42	21.4901
1159.04	20.0359
1160.67	21.1023
1162.29	19.92
1163.92	20.6378
1165.54	19.6817
1167.17	20.9104
1168.79	20.4673
1170.41	20.116
1172.04	21.6646
1173.66	22.1653
1175.28	23.053
1176.9	22.5429
1178.53	22.3341
1180.15	23.0565
1181.77	23.9461
1183.39	24.5159
1185.01	26.1675
1186.63	27.0712
1188.25	28.2171
1189.87	28.9878
1191.49	29.9699
1193.11	29.9778
1194.73	31.159
1196.35	32.5006
1197.96	32.6783
1199.58	34.1068
1201.2	35.4134
1202.82	37.0972
1204.43	38.1451
1206.05	39.1559
1207.66	40.7146
1209.28	42.6773
1210.9	43.3045
1212.51	44.2379
1214.13	44.8928
1215.74	45.9887
1217.36	46.508
1218.97	46.6144
1220.58	47.0453
1222.2	46.4031
1223.81	46.8619
1225.42	49.6137
1227.04	55.8573
1228.65	57.9538
1230.26	59.2727
1231.87	60.9799
1233.48	62.9492
1235.1	64.0683
1236.71	66.2494
1238.32	67.984
1239.93	68.8853
1241.53	71.3831
1243.14	72.6011
1244.75	74.1137
1246.36	75.2253
1247.97	77.0287
1249.58	76.9716
1251.19	77.5497
1252.8	78.9039
1254.4	79.179
1256.01	80.309
1257.62	80.3994
1259.22	80.5836
1260.83	81.6501
1262.43	82.3421
1264.04	82.3148
1265.64	82.7393
1267.25	83.2462
1268.85	84.0111
1270.46	85.2797
1272.06	86.2913
1273.66	86.5597
1275.27	87.5966
1276.87	89.7295
1278.48	91.5179
1280.08	92.7807
1281.68	94.3574
1283.28	95.9719
1284.88	98.18
1286.48	100.182
1288.08	101.83
1289.68	102.893
1291.28	105.058
1292.88	107.517
1294.48	108.931
1296.08	110.432
1297.68	111.584
1299.28	112.958
1300.88	115.122
1302.48	117.516
1304.07	120.205
1305.67	121.476
1307.27	123.886
1308.87	127.309
1310.46	130.216
1312.06	133.321
1313.65	134.858
1315.25	136.923
1316.85	138.243
1318.44	138.656
1320.03	138.781
1321.63	140.179
1323.22	141.695
1324.82	142.278
1326.41	143.086
1328	143.049
1329.6	142.534
1331.19	142.57
1332.78	141.766
1334.37	140.895
1335.96	139.903
1337.56	138.444
1339.15	137.524
1340.74	137.067
1342.33	135.985
1343.92	134.643
1345.51	133.684
1347.1	133.614
1348.69	131.501
1350.28	129.612
1351.86	126.846
1353.45	124.4
1355.04	124.247
1356.63	122.976
1358.21	120.479
1359.8	119.314
1361.39	117.489
1362.97	116.425
1364.56	113.739
1366.15	111.642
1367.73	108.487
1369.32	106.262
1370.9	105.119
1372.49	103.632
1374.07	100.641
1375.65	97.6732
1377.24	95.6337
1378.82	94.4375
1380.41	94.0927
1381.99	92.9447
1383.57	91.6236
1385.15	91.3449
1386.73	91.3723
1388.32	90.8371
1389.9	90.2247
1391.48	89.4826
1393.06	86.8975
1394.64	85.4258
1396.22	84.7252
1397.8	84.8715
1399.38	84.5304
1400.96	84.4768
1402.54	85.3393
1404.11	86.1785
1405.69	87.3678
1407.27	86.7585
1408.85	87.7389
1410.43	88.7147
1412	91.2102
1413.58	94.7724
1415.16	97.9433
1416.73	101.921
1418.31	104.896
1419.88	109.17
1421.46	113.915
1423.03	118.906
1424.61	124.23
1426.18	129.756
1427.76	134.124
1429.33	138.704
1430.9	144.894
1432.48	150.108
1434.05	155.921
1435.62	160.303
1437.2	166.02
1438.77	170.102
1440.34	173.963
1441.91	178.442
1443.48	179.951
1445.05	182.908
1446.62	184.536
1448.19	187.368
1449.76	189.21
1451.33	191.615
1452.9	191.002
1454.47	191.087
1456.04	193.091
1457.61	194.245
1459.17	196.406
1460.74	198.724
1462.31	201.372
1463.88	203.833
1465.44	205.006
1467.01	206.385
1468.58	207.808
1470.14	207.771
1471.71	206.784
1473.27	207.589
1474.84	207.54
1476.4	205.53
1477.97	204.005
1479.53	202.295
1481.1	200.199
1482.66	198.031
1484.22	194.803
1485.78	190.576
1487.35	188.059
1488.91	183.456
1490.47	180.302
1492.03	175.706
1493.59	171.38
1495.16	167.043
1496.72	161.7
1498.28	157.875
1499.84	153.919
1501.4	148.345
1502.96	141.768
1504.52	136.639
1506.08	130.179
1507.64	124.428
1509.19	118.911
1510.75	111.905
1512.31	105.102
1513.87	99.7623
1515.42	93.3978
1516.98	85.7656
1518.54	80.7233
1520.1	74.3121
1521.65	68.3635
1523.21	64.4137
1524.76	60.4629
1526.32	56.6287
1527.87	53.8503
1529.43	50.8519
1530.98	48.1564
1532.54	47.3792
1534.09	47.6172
1535.64	48.5204
1537.2	50.592
1538.75	52.9193
1540.3	53.4628
1541.85	55.9201
1543.41	57.631
1544.96	59.4163
1546.51	61.1311
1548.06	62.5358
1549.61	63.5104
1551.16	64.9929
1552.71	66.3851
1554.26	67.6788
1555.81	69.0124
1557.36	70.0855
1558.91	71.805
1560.46	73.9946
1562.01	75.2643
1563.56	75.4037
1565.1	76.9421
1566.65	78.1859
1568.2	79.7191
1569.75	82.2944
1571.29	84.2876
1572.84	85.9062
1574.38	87.9672
1575.93	89.9064
1577.48	91.9549
1579.02	92.7937
1580.57	94.6838
1582.11	96.8229
1583.65	97.4644
1585.2	99.2612
1586.74	99.7166
1588.29	100.71
1589.83	101.824
1591.37	103.592
1592.92	103.167
1594.46	103.892
1596	104.621
1597.54	103.658
1599.08	104.291
1600.62	104.705
1602.16	103.272
1603.7	102.213
1605.24	101.873
1606.78	100.219
1608.32	99.2397
1609.86	98.8449
1611.4	97.8749
1612.94	96.8733
1614.48	95.7194
1616.02	94.5424
1617.56	93.374
1619.09	93.8389
1620.63	94.1655
1622.17	94.3754
1623.71	94.5364
1625.24	95.0716
1626.78	94.5911
1628.31	96.4358
1629.85	97.4191
1631.39	98.1112
1632.92	99.8306
1634.46	102.241
1635.99	104.606
1637.52	106.408
1639.06	107.614
1640.59	109.516
1642.12	112.126
1643.66	113.428
1645.19	115.499
1646.72	117.888
1648.25	119.906
1649.79	120.802
1651.32	122.506
1652.85	123.321
1654.38	124.505
1655.91	125.227
1657.44	126.515
1658.97	127.157
1660.5	127.58
1662.03	126.477
1663.56	124.953
1665.09	124.094
1666.62	121.553
1668.15	118.578
1669.67	115.164
1671.2	112.492
1672.73	108.574
1674.26	104.288
1675.79	101.261
1677.31	95.7392
1678.84	90.4857
1680.36	86.4958
1681.89	81.8906
1683.42	76.9231
1684.94	72.6494
1686.47	68.6157
1687.99	63.2091
1689.51	58.4215
1691.04	54.845
1692.56	51.3295
1694.08	47.7578
1695.61	44.132
1697.13	40.7172
1698.65	36.3466
1700.18	32.8019
1701.7	30.5966
1703.22	27.9349
1704.74	25.8187
1706.26	22.1762
1707.78	19.691
1709.3	17.7004
1710.82	15.6192
1712.35	13.3977
1713.86	11.5248
1715.39	9.61164
1716.9	8.82816
1718.42	7.23685
1719.94	6.03088
1721.46	6.00886
1722.98	5.21699
1724.5	5.16005
1726.01	4.22962
1727.53	4.85882
1729.05	4.56763
1730.56	4.68954
1732.08	5.13518
1733.6	5.55047
1735.11	4.73293
1736.63	3.9894
1738.14	3.20849
1739.66	3.45093
1741.17	3.09298
1742.69	2.01287
1744.2	2.57056
1745.71	1.97332
1747.23	2.23898
1748.74	2.4349
1750.25	2.04016
1751.77	2.28945
1753.28	2.39644
1754.79	3.36037
1756.3	3.96021
1757.81	3.51264
1759.33	3.64976
1760.84	4.15806
1762.35	3.60639
1763.86	3.38286
1765.37	2.96184
1766.88	3.72017
1768.39	3.29934
1769.9	2.69718
1771.41	2.74837
1772.91	2.64299
1774.42	2.88389
1775.93	3.15755
1777.44	3.26982
1778.95	2.92925
1780.45	2.33446
1781.96	2.51035
1783.47	2.92185
1784.97	3.35278
1786.48	3.34246
1787.99	3.45818
1789.49	3.87699
1791	3.49357
1792.5	4.09298
1794.01	3.92399
1795.51	3.98543
1797.01	4.53407
1798.52	4.85751
1800.02	5.19274
1801.52	5.12709
1803.03	5.16801
1804.53	5.35029
1806.03	6.10054
1807.54	6.06865
1809.04	6.3868
1810.54	6.22599
1812.04	6.43577
1813.54	6.11523
1815.04	6.42104
1816.54	6.29039
1818.04	5.81808
1819.54	5.26851
1821.04	4.55368
1822.54	5.12181
1824.04	4.50607
1825.54	3.41643
1827.04	3.07333
1828.54	2.98885
1830.03	2.48955
1831.53	2.56506
1833.03	2.36296
1834.53	3.09163
1836.02	2.93257
1837.52	2.58488
1839.02	2.94016
1840.51	3.06397
1842.01	3.68797
1843.5	2.66715
1845	2.52298
1846.49	2.84762
1847.99	3.17944
1849.48	4.22569
1850.98	4.3392
1852.47	5.44429
1853.96	5.68335
1855.46	6.33141
1856.95	5.97454
1858.44	5.87474
1859.94	5.70088
1861.43	5.10449
1862.92	6.02346
1864.41	6.00231
1865.9	5.39428
1867.39	6.12237
1868.88	5.59829
1870.37	5.48986
1871.86	6.25587
1873.35	6.87182
1874.84	6.79202
1876.33	7.50624
1877.82	7.76762
1879.31	8.64593
1880.8	8.91048
1882.29	9.01053
1882.58	9.38683
1884.08	9.65752
1885.57	8.85652
1887.06	9.1734
1888.56	8.91864
1890.05	7.59552
1891.54	7.71199
1893.04	8.22244
1894.53	8.65239
1896.02	9.1292
1897.51	8.67811
1899	8.3323
1900.5	8.83474
1901.99	9.8446
1903.48	10.7418
1904.97	11.8608
1906.46	11.1048
1907.95	11.0587
1909.44	11.411
1910.93	10.7834
1912.42	10.3065
1913.91	9.61295
1915.4	8.85918
1916.88	9.11374
1918.37	9.10342
1919.86	9.68906
1921.35	9.86934
1922.84	9.51799
1924.32	8.91034
1925.81	9.31222
1927.3	8.46871
1928.78	7.937
1930.27	6.2554
1931.75	6.24032
1933.24	5.87967
1934.72	6.10618
1936.21	6.24634
1937.69	4.90971
1939.18	4.62882
1940.66	5.32096
1942.15	4.50377
1943.63	5.29821
1945.11	5.29201
1946.6	5.34981
1948.08	5.37503
1949.56	5.97213
1951.04	6.53214
1952.53	7.01967
1954.01	7.0852
1955.49	7.38988
1956.97	7.12606
1958.45	6.42834
1959.93	6.52803
1961.41	7.64095
1962.89	7.21085
1964.37	7.72137
1965.85	8.80098
1967.33	8.87235
1968.81	8.85825
1970.29	9.4213
1971.77	9.38669
1973.24	9.84943
1974.72	10.8367
1976.2	11.0643
1977.68	10.8342
1979.15	9.48748
1980.63	8.07879
1982.11	8.07979
1983.58	6.91826
1985.06	5.51322
1986.53	5.2475
1988.01	5.50961
1989.48	5.52711
1990.96	6.59288
1992.43	6.91309
1993.91	7.28015
1995.38	6.72825
1996.86	6.39244
1998.33	6.7214
1999.8	7.05809
2001.27	5.93629
2002.75	6.30554
2004.22	5.66554
2005.69	5.58079
2007.16	5.60571
2008.64	5.81213
2010.11	5.68273
2011.58	5.31495
2013.05	6.38289
2014.52	6.58814
2015.99	6.3252
2017.46	6.4128
2018.93	6.26613
2020.4	6.81921
2021.87	7.27869
2023.34	7.17222
2024.8	7.62206
2026.27	7.00245
2027.74	7.73497
2029.21	7.86199
2030.68	7.75874
2032.14	8.15014
2033.61	9.81658
2035.08	10.2753
2036.54	9.87768
2038.01	10.2365
2039.48	11.5141
2040.94	11.9758
2042.41	11.5347
2043.87	12.1447
2045.34	12.2131
2046.8	12.4088
2048.27	12.0958
2049.73	10.9596
2051.19	10.1284
2052.66	10.0198
2054.12	10.9674
2055.58	10.706
2057.05	10.7676
2058.51	11.3129
2059.97	12.396
2061.43	12.6605
2062.9	12.977
2064.36	13.8017
2065.82	14.4297
2067.28	14.5191
2068.74	14.7551
2070.2	14.7089
2071.66	15.1717
2073.12	15.2211
2074.58	14.5015
2076.04	15.225
2077.5	15.4073
2078.95	15.1442
2080.41	15.2016
2081.87	15.243
2083.33	15.7603
2084.79	15.8247
2086.24	15.9849
2087.7	15.7009
2089.16	16.2842
2090.61	17.5903
2092.07	18.5693
2093.53	18.7838
2094.98	19.1008
2096.44	19.932
2097.89	20.6851
2099.35	21.4168
2100.8	22.4102
2102.26	22.2806
2103.71	22.7301
2105.16	24.6595
2106.62	25.8715
2108.07	26.4915
2109.53	27.2229
2110.98	28.0815
2112.43	28.8725
2113.88	29.1799
2115.33	30.271
2116.79	31.7715
2118.24	32.9883
2119.69	33.8711
2121.14	34.7445
2122.59	35.6308
2124.04	37.0721
2125.49	39.1627
2126.94	40.2519
2128.39	40.9201
2129.84	43.1411
2131.29	44.4206
2132.74	46.5379
2134.19	47.2023
2135.63	49.4982
2137.08	51.4538
2138.53	53.4175
2139.98	54.5613
2141.43	56.2019
2142.87	57.7989
2144.32	60.2521
2145.77	60.8775
2147.21	62.8494
2148.66	65.283
2150.1	66.9928
2151.55	67.6593
2152.99	70.09
2154.44	72.1843
2155.88	74.2591
2157.33	75.2783
2158.77	76.7387
2160.21	78.3592
2161.66	80.1564
2163.1	80.8424
2164.55	81.0154
2165.99	81.7
2167.43	82.9336
2168.87	84.0131
2170.31	83.9981
2171.76	85.0164
2173.2	84.8378
2174.64	85.1964
2176.08	86.001
2177.52	86.9977
2178.96	86.8866
2180.4	86.6817
2181.84	86.6647
2183.28	85.8595
2184.72	85.0926
2186.16	85.2159
2187.6	83.7962
2189.04	82.784
2190.47	81.982
2191.91	80.3627
2193.35	78.9707
2194.79	78.0211
2196.23	76.5469
2197.66	74.9239
2199.1	72.6318
2200.54	70.9545
2201.97	69.361
2203.41	67.1133
2204.84	64.9872
2206.28	63.0974
2207.71	60.7547
2209.15	58.6713
2210.58	56.1172
2212.02	54.5361
2213.45	53.0432
2214.89	50.9329
2216.32	48.1993
2217.75	45.348
2219.19	44.5577
2220.62	43.1697
2222.05	41.4515
2223.48	39.3112
2224.92	38.6821
2226.35	37.0231
2227.78	36.3031
2229.21	35.1269
2230.64	34.5697
2232.07	33.7893
2233.5	32.9509
2234.93	31.6941
2236.36	31.5817
2237.79	31.3171
2239.22	30.5748
2240.65	29.0747
2242.08	28.2788
2243.51	27.9304
2244.94	27.1817
2246.37	27.3048
2247.79	26.6258
2249.22	26.6417
2250.65	26.2045
2252.08	25.4876
2253.5	25.4948
2254.93	24.3361
2256.36	23.6506
2257.78	24.3047
2259.21	22.7146
2260.63	22.8379
2262.06	22.6361
2263.48	22.2365
2264.91	22.3388
2266.33	22.6403
2267.76	21.8308
2269.18	20.9015
2270.6	20.0677
2272.03	19.2007
2273.45	17.6551
2274.87	16.942
2276.3	16.2163
2277.72	16.1673
2279.14	14.9459
2280.56	14.7572
2281.98	14.3516
2283.41	14.6519
2284.83	13.4785
2286.25	13.0611
2287.67	12.4298
2289.09	13.5061
2290.51	13.4237
2291.93	13.3953
2293.35	12.3728
2294.77	12.9649
2296.19	13.7257
2297.61	14.1214
2299.02	14.3593
2300.44	14.4518
2301.86	15.1294
2303.28	15.0323
2304.7	15.2742
2306.11	15.8758
2307.53	16.0624
2308.95	15.8448
2310.36	15.1475
2311.78	15.2894
2313.2	14.9919
2314.61	15.0069
2316.03	15.5041
2317.44	14.6173
2318.86	13.9141
2320.27	13.7833
2321.69	13.2266
2323.1	12.5652
2324.51	12.8366
2325.93	11.9196
2327.34	10.7951
2328.76	10.7828
2330.17	9.47596
2331.58	9.68465
2332.99	9.75282
2334.41	8.97364
2335.82	8.65227
2337.23	7.85968
2338.64	6.48424
2340.05	5.27754
2341.46	4.30289
2342.87	3.61348
2344.28	3.56832
2345.69	3.65127
2347.1	3.05565
2348.51	2.38583
2349.92	1.88877
2351.33	1.30601
2352.74	0.595652
2354.15	-0.292054
2355.56	-0.616127
2356.97	-0.674469
2358.37	-1.58921
2359.78	-1.75842
2361.19	-2.41558
2362.6	-1.65412
2364	-1.18909
2365.41	-0.0813799
2366.82	0.739282
2368.22	1.48648
2369.63	0.916304
2371.03	1.34433
2372.44	1.26133
2373.84	1.39359
2375.25	1.62422
2376.65	1.71925
2378.06	2.19449
2379.46	2.08654
2380.86	2.01611
2382.27	2.13151
2383.67	2.32415
2385.07	3.17121
2386.48	3.03523
2387.88	2.8564
2389.28	3.58632
2390.69	4.02779
2392.09	4.40983
2393.49	4.47099
2394.89	5.34132
2396.29	4.56538
2397.69	4.20378
2399.09	5.38008
2400.49	5.47414
2401.89	6.06862
2403.29	6.51004
2404.69	6.88493
2406.09	7.57956
2407.49	7.79599
2408.89	8.11815
2410.29	9.01315
2411.69	9.04629
2413.08	10.0671
2414.48	10.3927
2415.88	10.2615
2417.28	10.8823
2418.67	11.5996
2420.07	11.8991
2421.47	11.1692
2422.86	11.8256
2424.26	12.1416
2425.65	12.4458
2427.05	11.754
2428.45	11.9161
2429.84	12.227
2431.23	12.6025
2432.63	12.8524
2434.02	12.2411
2435.42	11.6624
2436.81	11.2897
2438.2	10.2559
2439.6	9.21908
2440.99	8.43634
2442.38	7.78149
2443.78	7.49743
2445.17	6.82342
2446.56	6.62218
2447.95	6.02992
2449.34	4.6343
2450.73	3.61935
2452.13	3.69962
2453.52	3.76046
2454.91	3.01527
2456.3	2.27713
2457.69	2.19251
2459.08	1.0248
2460.47	0.971238
2461.85	0.0779982
2463.24	-1.13595
2464.63	-0.930343
2466.02	-2.06364
2467.41	-1.48176
2468.8	-0.927076
2470.19	-0.992863
2471.57	-1.38062
2472.96	-1.21718
2474.35	-0.505291
2475.73	-0.476606
2477.12	-0.180459
2478.51	0.380305
2479.89	0.23033
2481.28	0.713326
2482.66	1.26047
2484.05	1.53211
2485.43	1.35108
2486.82	1.94114
2488.2	2.75303
2489.59	3.14071
2490.97	3.3596
2492.35	4.20723
2493.74	3.31547
2495.12	3.75038
2496.5	4.41361
2497.89	5.25423
2499.27	5.75679
2500.65	5.77603
2502.03	6.53405
2503.42	5.92676
2504.8	5.79993
2506.18	5.60972
2507.56	5.98161
2508.94	5.71683
2510.32	5.14431
2511.7	5.51633
2513.08	5.68098
2514.46	5.86051
2515.84	5.39497
2517.22	4.76625
2518.6	4.88772
2519.98	5.28573
2521.36	6.82955
2522.73	5.9353
2524.11	5.47913
2525.49	5.90323
2526.87	6.41231
2528.25	5.74963
2529.62	6.5435
2531	5.78551
2532.38	5.34222
2533.75	6.27413
2535.13	5.44432
2536.5	6.11813
2537.88	6.25773
2539.25	5.89707
2540.63	6.08046
2542.01	7.17507
2543.38	7.59693
2544.75	7.1674
2546.13	8.05876
2547.5	7.95739
2548.88	7.54781
2550.25	8.84943
2551.62	7.95952
2553	7.8613
2554.37	7.65487
2555.74	7.89601
2557.11	8.32444
2558.49	7.82562
2559.86	7.99892
2561.23	8.82351
2562.6	8.90205
2563.97	10.2964
2565.34	10.528
2566.71	10.3393
2568.08	10.8083
2569.45	10.414
2570.82	11.2838
2572.19	10.8368
2573.56	11.3637
2574.93	11.6904
2576.3	11.7173
2577.67	11.6395
2579.03	12.2427
2580.4	12.6327
2581.77	12.8151
2583.14	12.8732
2584.5	12.2452
2585.87	12.4122
2587.24	12.5241
2588.6	12.4865
2589.97	12.7241
2591.34	11.5149
2592.7	11.8716
2594.07	11.5612
2595.43	11.2221
2596.8	10.7782
2598.16	10.9335
2599.53	10.3999
2600.89	9.89252
2602.26	10.2094
2603.62	9.52921
2604.98	9.84239
2606.35	9.79534
2607.71	9.88259
2609.07	9.7241
2610.44	9.50519
2611.8	9.5787
2613.16	9.56767
2614.52	9.88888
2615.88	8.55831
2617.25	8.13808
2618.61	8.01827
2619.97	6.47828
2621.33	6.86876
2622.69	7.14646
2624.05	7.2438
2625.41	8.14137
2626.77	8.02966
2628.13	8.59301
2629.49	8.70485
2630.85	9.26876
2632.21	9.66613
2633.56	10.051
2634.92	10.4405
2636.28	11.9529
2637.64	12.1086
2639	12.7001
2640.35	14.0007
2641.71	14.6248
2643.07	14.7296
2644.42	14.7529
2645.78	15.3513
2647.14	15.9346
2648.49	15.765
2649.85	15.6893
2651.2	15.6746
2652.56	15.3535
2653.91	15.8687
2655.27	16.6943
2656.62	16.8959
2657.98	17.0352
2659.33	16.1532
2660.68	16.6847
2662.04	16.3253
2663.39	16.8323
2664.74	17.2205
2666.1	16.7783
2667.45	16.0909
2668.8	16.1614
2670.15	15.6274
2671.5	15.214
2672.86	15.7893
2674.21	15.2916
2675.56	14.4762
2676.91	13.7777
2678.26	13.94
2679.61	13.0689
2680.96	11.5979
2682.31	10.7755
2683.66	9.642
2685.01	9.13543
2686.36	9.26569
2687.71	8.51926
2689.06	8.61028
2690.4	8.27833
2691.75	8.12189
2693.1	8.52951
2694.45	8.13649
2695.8	9.30716
2697.14	10.3471
2698.49	10.9164
2699.84	10.4935
2701.18	11.5509
2702.53	12.0395
2703.88	13.3991
2705.22	13.4494
2706.57	14.1118
2707.91	15.4358
2709.26	15.526
2710.6	15.6912
2711.95	16.7752
2713.29	17.7066
2714.64	18.5993
2715.98	18.9689
2717.32	20.1232
2718.67	20.4289
2720.01	21.4169
2721.35	22.4485
2722.7	23.2154
2724.04	23.5993
2725.38	23.8481
2726.72	24.0071
2728.06	24.8529
2729.4	24.7249
2730.75	25.0708
2732.09	24.7777
2733.43	24.3494
2734.77	23.828
2736.11	23.3419
2737.45	23.2702
2738.79	23.119
2740.13	22.5248
2741.47	21.4432
2742.81	20.6993
2744.15	19.7818
2745.48	18.9721
2746.82	17.0252
2748.16	16.0397
2749.5	15.4264
2750.84	14.0164
2752.17	13.0657
2753.51	12.46
2754.85	12.1607
2756.19	12.1086
2757.52	12.28
2758.86	12.1827
2760.19	11.8395
2761.53	11.157
2762.86	10.9396
2764.2	9.73183
2765.54	8.23755
2766.87	8.02145
2768.2	7.94762
2769.54	6.91875
2770.87	6.20223
2772.21	5.51063
2773.54	5.34242
2774.88	4.91741
2776.21	4.03914
2777.54	3.44936
2778.87	4.03463
2780.21	3.89758
2781.54	3.86741
2782.87	3.59482
2784.2	3.93317
2785.53	3.35911
2786.87	3.80161
2788.2	3.38813
2789.53	3.27135
2790.86	2.9713
2792.19	1.99438
2793.52	2.44317
2794.85	2.6424
2796.18	2.09911
2797.51	2.19579
2798.84	2.51993
2800.17	3.14669
2801.49	2.74369
2802.82	2.80489
2804.15	3.71067
2805.48	3.02562
2806.81	2.78035
2808.13	2.71973
2809.46	2.05112
2810.79	1.8194
2812.12	2.11594
2813.44	1.7505
2814.77	2.29165
2816.09	4.03316
2817.42	5.2301
2818.75	6.8621
2820.07	8.48871
2821.4	11.7362
2822.72	13.7648
2824.05	15.824
2825.37	18.1337
2826.7	21.5259
2828.02	24.4915
2829.35	27.8951
2830.67	31.3246
2831.99	35.1577
2833.31	38.828
2834.64	42.8568
2835.96	47.41
2837.28	52.6039
2838.61	57.9374
2839.93	63.494
2841.25	70.0338
2842.57	76.4879
2843.89	83.6729
2845.21	90.3427
2846.53	97.0421
2847.85	104.507
2849.17	112.168
2850.49	120.476
2851.81	128.952
2853.13	136.86
2854.45	144.981
2855.77	153.05
2857.09	161.051
2858.41	169.029
2859.73	176.802
2861.05	184.127
2862.36	191.36
2863.68	199.546
2865	206.999
2866.32	214.526
2867.64	220.519
2868.95	226.783
2870.27	232.426
2871.59	237.503
2872.9	242.445
2874.22	247.584
2875.53	252.196
2876.85	256.741
2878.16	261.833
2879.48	266.668
2880.79	271.625
2882.11	276.187
2883.42	279.397
2884.74	283.585
2886.05	288.617
2887.36	293.629
2888.68	296.697
2889.99	301.11
2891.3	305.172
2892.62	309.909
2893.93	314.143
2895.24	318.661
2896.55	323.382
2897.86	329.026
2899.18	334.857
2900.49	341.805
2901.8	347.977
2903.11	354.618
2904.42	363.091
2905.73	371.487
2907.04	380.762
2908.35	388.387
2909.66	397.233
2910.97	406.044
2912.28	415.701
2913.59	425.552
2914.9	436.03
2916.21	445.624
2917.51	455.025
2918.82	463.192
2920.13	470.776
2921.44	477.682
2922.74	484.517
2924.05	489.843
2925.36	494.505
2926.67	498.507
2927.97	501.499
2929.28	503.974
2930.59	504.852
2931.89	505.378
2933.2	503.538
2934.5	501.451
2935.81	498.442
2937.11	495.391
2938.42	491.542
2939.72	485.682
2941.02	479.052
2942.33	473.106
2943.63	465.616
2944.94	457.062
2946.24	448.198
2947.54	438.929
2948.85	430.235
2950.15	421.099
2951.45	410.321
2952.75	398.649
2954.05	387.955
2955.36	378.724
2956.66	368.318
2957.96	359.267
2959.26	348.701
2960.56	338.365
2961.86	328.485
2963.16	318.798
2964.46	309.338
2965.76	300.642
2967.06	291.822
2968.36	284.146
2969.66	277.651
2970.96	269.403
2972.26	262.763
2973.56	255.39
2974.85	248.434
2976.15	241.93
2977.45	235.318
2978.75	228.838
2980.05	222.872
2981.34	215.588
2982.64	208.428
2983.94	201.574
2985.23	193.633
2986.53	186.168
2987.83	178.174
2989.12	170.745
2990.42	162.574
2991.71	155.185
2993.01	148.123
2994.3	140.389
2995.6	133.256
2996.89	125.811
2998.19	117.73
2999.48	110.591
3000.77	104.283
3002.07	97.6441
3003.36	90.5926
3004.65	83.5447
3005.95	77.8074
3007.24	71.8256
3008.53	65.2068
3009.82	59.7245
3011.12	54.7583
3012.41	50.0442
3013.7	44.9185
3014.99	39.233
3016.28	34.1894
3017.57	30.2621
3018.86	26.9713
3020.15	23.8661
3021.44	20.4401
3022.73	16.8079
3024.02	13.5358
3025.31	11.4744
3026.6	9.45213
3027.89	8.53874
3029.18	7.68844
3030.47	6.01314
3031.76	4.87897
3033.04	4.61955
3034.33	4.53671
3035.62	3.84585
3036.91	3.82285
3038.19	3.41504
3039.48	3.37439
3040.77	4.03899
3042.05	4.38604
3043.34	5.28451
3044.63	6.79115
3045.91	7.21237
3047.2	8.29337
3048.48	9.72764
3049.77	9.58311
3051.05	10.1027
3052.34	10.5864
3053.62	11.8634
3054.91	11.6352
3056.19	12.5871
3057.48	12.815
3058.76	13.074
3060.04	13.8305
3061.33	13.4576
3062.61	14.0608
3063.89	14.0534
3065.17	13.8178
3066.46	13.2743
3067.74	13.1182
3069.02	13.0359
3070.3	12.3169
3071.59	11.4455
3072.87	10.8319
3074.15	9.75522
3075.43	9.06563
3076.71	8.24597
3077.99	7.02371
3079.27	6.04184
3080.55	5.17737
3081.83	4.265
3083.11	4.23229
3084.39	4.05479
3085.67	3.50151
3086.94	2.75336
3088.22	2.05447
3089.5	1.112
3090.78	-0.0174722
3092.06	-0.788558
3093.34	-1.45364
3094.61	-1.95332
3095.89	-1.37813
3097.17	-1.50984
3098.44	-1.35361
3099.72	-0.80198
3101	-1.18422
3102.27	-1.04479
3103.55	-0.0411572
3104.82	0.428021
3106.1	1.37219
3107.38	1.90871
3108.65	2.10192
3109.93	2.30659
3111.2	3.44916
3112.47	3.84713
3113.75	4.30453
3115.02	4.35721
3116.3	5.17293
3117.57	5.7582
3118.84	6.29288
3120.12	7.0336
3121.39	7.8071
3122.66	8.43281
3123.93	8.63951
3125.2	9.11151
3126.48	10.1086
3127.75	10.513
3129.02	11.6123
3130.29	12.5278
3131.56	13.2798
3132.83	13.6456
3134.1	13.9717
3135.37	14.6426
3136.64	15.2385
3137.91	16.391
3139.18	17.6863
3140.45	18.5267
3141.72	19.0257
3142.99	19.4353
3144.26	19.7383
3145.53	19.7713
3146.8	19.2992
3148.07	19.3753
3149.33	20.2622
