#Acq. time (s)=	45
#Accumulations=	2
#Range (cm-¹)=	200...3150
#Windows=	2
#Auto scanning=	Off
#Autofocus=	Off
#Macrospot=	Off
#AutoExposure=	Off
#Spike filter=	Multiple accum.
#Delay time (s)=	0
#Binning=	1
#Readout mode=	Signal
#DeNoise=	Off
#ICS correction=	On
#Dark correction=	Off
#Inst. Process=	Off
#Detector Gain=	Best Dynamic Range
#Detector ADC=	20 kHz       
#Detector temperature (°C)=	-69.85
#Instrument=	LabRAM HR Evol
#Detector=	Synapse
#Objective=	x100
#Grating=	600 gr/mm
#ND Filter=	100%
#Laser (nm)=	532 
#Hole=	100.021
#Range=	Auto
#Laser Pol.=	No
#Raman. Pol.=	No
#Laser Pol. (°)=	-0.0007625
#Raman Pol. (°)=	89.9995
#Collection=	Microscope
#StageXY=	Marzhauser
#StageZ=	Marzhauser
#X (µm)=	-1181.5
#Y (µm)=	1252
#Z (µm)=	578.2
#Full time(mm:ss)=	3:18
#Project=	
#Sample=	
#Site=	
#Title=	Mbcal_20_25_14_2x_45s_532 nm_x100_100%_600 gr_mm
#Remark=	
#Date=	18.07.2022 10:26
#Acquired=	18.07.2022 10:26:07
#Base:Fit=	10.08.2022 10:55:08
#Base:Sub=	10.08.2022 10:55:14
#Filter:Polynom=	16.08.2022 10:07:28
#AxisType[0]=Intens
#AxisUnit[0]=Cnt
#AxisType[1]=Spectr
#AxisUnit[1]=1/cm
200.419	35.5696
202.234	33.2601
204.048	32.2246
205.862	30.1009
207.678	28.9251
209.491	28.8209
211.304	28.1205
213.116	27.3039
214.928	25.249
216.742	23.2944
218.554	23.411
220.365	21.6956
222.176	19.1387
223.986	18.1083
225.798	17.1581
227.608	17.3338
229.417	16.7023
231.226	16.1555
233.035	15.8942
234.843	15.8587
236.653	17.0664
238.46	16.7392
240.268	16.5542
242.074	17.8784
243.881	17.4057
245.687	16.6148
247.493	14.6286
249.298	14.0699
251.103	13.6353
252.908	13.5777
254.715	13.9622
256.519	14.4984
258.322	14.1413
260.126	13.9089
261.929	13.3051
263.731	13.9274
265.534	13.0927
267.336	13.2787
269.137	13.0016
270.938	12.2739
272.739	11.7692
274.54	11.8409
276.34	11.5797
278.14	10.9665
279.939	10.6099
281.739	9.75251
283.537	7.97387
285.336	7.29205
287.134	6.93351
288.932	7.72216
290.729	7.46096
292.526	8.16263
294.323	8.20574
296.117	10.8099
297.913	10.7496
299.709	10.1505
301.504	9.90624
303.299	11.5715
305.093	11.7603
306.888	13.124
308.682	14.1551
310.475	13.2222
312.268	13.8324
314.059	16.0535
315.852	18.2114
317.644	20.8622
319.436	23.1677
321.227	24.7643
323.018	26.5454
324.807	27.9949
326.597	29.4588
328.387	29.7018
330.177	31.2518
331.967	32.243
333.753	31.1261
335.542	31.5504
337.331	32.7546
339.119	35.0475
340.906	35.3505
342.691	35.6055
344.478	35.2584
346.265	34.2402
348.051	33.8091
349.835	32.6931
351.621	32.0847
353.406	31.5944
355.189	29.5428
356.973	28.2039
358.757	26.9118
360.541	25.0613
362.323	23.7711
364.106	22.3044
365.889	21.131
367.669	18.8284
369.451	18.3216
371.233	16.9394
373.012	15.8171
374.793	15.922
376.574	15.5594
378.353	15.4235
380.133	15.143
381.91	14.7349
383.69	15.4736
385.469	16.1395
387.245	15.0724
389.024	15.3152
390.8	15.95
392.577	15.3999
394.353	13.8125
396.129	12.2781
397.906	12.1816
399.68	12.1586
401.456	12.8719
403.23	13.73
405.005	15.3936
406.778	15.4956
408.552	15.6645
410.325	14.3949
412.099	14.2355
413.87	14.3506
415.643	15.0495
417.414	14.7156
419.187	14.8219
420.957	14.0779
422.728	13.9041
424.498	13.9754
426.269	13.7112
428.038	12.7583
429.806	11.5878
431.576	11.6521
433.344	10.3409
435.114	9.57275
436.881	8.87639
438.649	8.12174
440.416	8.07716
442.182	7.38374
443.949	7.98417
445.715	8.75574
447.48	8.43101
449.247	8.78895
451.011	8.02568
452.777	8.11223
454.541	8.37473
456.304	8.75503
458.069	10.6625
459.832	10.4896
461.594	11.1662
463.358	12.2151
465.119	13.2535
466.881	14.2442
468.642	15.0027
470.404	15.747
472.165	17.0239
473.925	17.148
475.684	17.5634
477.445	17.6762
479.204	19.3687
480.963	19.028
482.721	18.47
484.481	17.9327
486.239	19.278
487.996	19.5515
489.753	19.674
491.511	20.697
493.268	22.3989
495.023	22.9366
496.779	24.6813
498.534	25.4466
500.289	27.2171
502.046	29.1125
503.8	29.9091
505.554	30.2292
507.307	32.7087
509.06	33.8806
510.813	34.7164
512.566	35.9703
514.32	37.1125
516.072	37.5633
517.823	37.7807
519.574	38.2586
521.325	37.1818
523.076	38.9974
524.826	39.5552
526.576	41.0943
528.325	41.7829
530.074	42.0721
531.823	41.974
533.572	40.9753
535.32	39.8864
537.068	39.4221
538.815	37.5658
540.562	38.7039
542.309	38.3356
544.056	37.6395
545.802	36.2518
547.547	34.1095
549.293	33.884
551.038	32.3432
552.783	31.106
554.527	29.0601
556.271	26.1147
558.015	24.9241
559.759	23.1251
561.502	21.2576
563.245	19.4236
564.987	17.6717
566.729	16.2611
568.471	13.3785
570.213	11.8764
571.954	9.98081
573.693	8.93555
575.433	8.03412
577.173	7.68827
578.913	8.27406
580.652	7.37802
582.392	7.61238
584.13	7.13662
585.867	7.15227
587.605	7.11643
589.343	6.28244
591.08	5.05496
592.817	4.96088
594.552	5.33659
596.289	3.96892
598.025	2.85229
599.761	4.41938
601.496	3.74612
603.229	4.03418
604.964	4.7915
606.699	5.29928
608.433	6.15126
610.165	7.83728
611.898	8.1347
613.631	7.60296
615.364	5.98654
617.095	5.60723
618.827	5.61244
620.559	5.33382
622.288	3.97041
624.02	3.75344
625.75	4.94609
627.479	5.65326
629.209	4.36759
630.939	3.45079
632.667	3.34771
634.396	4.53624
636.125	6.18615
637.851	5.9032
639.58	6.34861
641.305	6.13608
643.033	6.31436
644.76	7.45413
646.485	7.51284
648.212	7.18638
649.936	7.12409
651.662	7.70453
653.388	7.93801
655.111	9.68664
656.836	9.95712
658.558	9.47566
660.283	10.7126
662.005	10.1
663.728	10.6464
665.45	10.9551
667.173	11.2007
668.893	11.7972
670.616	11.5738
672.336	11.7761
674.057	11.5561
675.777	11.401
677.498	12.1153
679.216	12.8115
680.937	13.5001
682.655	14.0737
684.375	14.9974
686.092	17.15
687.809	17.0056
689.528	17.9035
691.244	18.7002
692.962	19.1655
694.678	20.6761
696.393	21.3104
698.111	21.0014
699.825	20.559
701.54	21.1674
703.256	23.0014
704.97	24.2321
706.685	25.516
708.398	26.1085
710.111	27.7495
711.826	29.6566
713.538	30.0732
715.25	30.7226
716.961	30.9821
718.675	33.4196
720.386	34.1117
722.096	33.3481
723.808	32.6199
725.518	33.1961
727.228	33.1869
728.937	32.9205
730.648	32.3103
732.357	31.6915
734.065	31.5306
735.773	31.7633
737.483	31.9993
739.19	32.497
740.897	33.589
742.604	32.6677
744.31	32.5422
746.018	32.7481
747.724	31.4531
749.429	33.6655
751.134	34.3609
752.839	34.9925
754.544	35.2949
756.248	36.3852
757.953	36.8907
759.657	38.4492
761.36	40.2533
763.063	41.9126
764.765	42.2648
766.468	43.7694
768.169	45.2736
769.871	46.6319
771.572	48.5446
773.273	50.3925
774.976	51.6737
776.676	52.5934
778.376	54.8618
780.075	57.6912
781.775	59.6928
783.474	60.9475
785.172	63.303
786.871	65.136
788.569	66.5678
790.266	67.7041
791.964	68.0926
793.661	67.5707
795.358	67.1169
797.054	67.8652
798.75	68.0016
800.446	66.3393
802.141	65.3414
803.834	64.2736
805.529	63.1701
807.224	61.8405
808.918	62.5765
810.612	61.9563
812.305	60.972
813.998	59.9941
815.691	59.6926
817.384	59.2275
819.076	58.4306
820.766	57.5706
822.458	57.9587
824.149	59.4491
825.84	60.9171
827.531	61.8877
829.221	62.6224
830.909	64.2563
832.599	65.5373
834.288	69.033
835.977	70.2868
837.666	71.5818
839.353	73.3978
841.041	76.2026
842.729	78.2344
844.416	81.8673
846.103	83.9364
847.788	84.6888
849.475	85.0909
851.161	86.1544
852.845	88.0447
854.53	89.1703
856.216	89.4598
857.901	89.7974
859.583	89.4514
861.268	89.6846
862.952	91.1358
864.633	90.5521
866.317	88.0947
868	86.7783
869.681	84.7811
871.363	82.7229
873.045	80.929
874.725	79.1248
876.406	76.5776
878.088	74.5508
879.767	72.6232
881.447	70.2281
883.125	66.653
884.805	62.691
886.483	59.4416
888.162	56.69
889.841	54.8805
891.518	52.5029
893.196	51.0919
894.872	49.2154
896.55	47.5536
898.225	45.4065
899.902	43.771
901.577	42.0515
903.254	41.6682
904.928	40.6503
906.604	40.7169
908.277	40.7967
909.952	41.3248
911.625	40.8652
913.3	41.3348
914.972	43.0964
916.646	44.1666
918.318	45.9411
919.991	45.971
921.662	47.5544
923.333	49.5424
925.005	50.2109
926.675	50.9083
928.347	52.4762
930.017	51.5624
931.686	51.2991
933.357	51.5365
935.025	52.1239
936.693	51.8367
938.363	50.415
940.031	49.6912
941.698	49.6993
943.367	48.5448
945.034	47.0763
946.7	46.7246
948.368	46.794
950.034	45.9898
951.699	46.1071
953.367	45.9082
955.031	45.9591
956.696	45.9657
958.36	45.1067
960.026	43.3827
961.689	41.8781
963.353	40.5163
965.016	39.0556
966.68	38.1837
968.343	37.6164
970.005	37.3899
971.666	36.5801
973.328	36.2981
974.991	35.922
976.652	36.334
978.312	36.1461
979.972	35.062
981.632	33.824
983.292	33.4921
984.953	33.7508
986.612	32.5273
988.27	32.9983
989.929	32.8353
991.587	33.6237
993.244	34.3911
994.902	33.7397
996.559	34.804
998.216	34.7096
999.872	33.564
1001.53	33.1248
1003.19	33.2212
1004.84	32.7281
1006.5	33.1177
1008.15	34.734
1009.81	36.1967
1011.46	36.996
1013.11	38.0133
1014.77	39.4613
1016.42	40.6285
1018.07	42.9552
1019.73	44.4051
1021.38	46.2604
1023.03	47.6845
1024.68	48.9962
1026.34	50.3576
1027.99	51.8209
1029.64	54.1208
1031.29	54.7705
1032.94	54.7753
1034.59	55.5044
1036.24	55.5635
1037.89	54.5559
1039.53	53.6356
1041.18	52.4239
1042.83	50.8087
1044.48	50.3353
1046.13	51.6997
1047.77	51.6158
1049.42	50.3242
1051.07	48.9371
1052.71	48.8942
1054.36	47.0833
1056	47.4012
1057.65	47.3111
1059.3	46.8695
1060.94	45.0007
1062.59	43.8571
1064.23	44.0083
1065.87	43.8886
1067.52	44.4047
1069.16	42.9113
1070.8	43.1576
1072.44	40.7654
1074.09	40.9441
1075.73	39.7098
1077.37	39.3254
1079.01	38.7324
1080.65	37.5961
1082.29	37.6329
1083.93	37.9358
1085.57	38.1056
1087.21	37.9384
1088.85	40.1338
1090.49	42.0252
1092.13	41.9834
1093.77	43.3656
1095.41	44.7126
1097.04	45.6857
1098.68	46.7653
1100.32	47.9814
1101.95	47.7797
1103.59	47.6126
1105.23	48.2733
1106.86	47.783
1108.5	48.0218
1110.13	46.8695
1111.77	46.1972
1113.4	44.6597
1115.04	43.7645
1116.67	43.0886
1118.31	40.7939
1119.94	39.9685
1121.57	40.017
1123.2	39.4213
1124.84	39.3854
1126.47	39.7366
1128.1	39.3274
1129.73	37.7436
1131.36	35.9158
1132.99	35.4974
1134.62	35.3581
1136.25	34.017
1137.88	33.88
1139.51	32.3883
1141.14	30.464
1142.77	29.6479
1144.4	29.6194
1146.03	29.7302
1147.66	27.4403
1149.28	25.8417
1150.91	24.4533
1152.54	23.1193
1154.16	21.1831
1155.79	19.2544
1157.42	16.9349
1159.04	15.6754
1160.67	13.4193
1162.29	12.0287
1163.92	10.1058
1165.54	8.33621
1167.17	6.95703
1168.79	7.00155
1170.41	6.53903
1172.04	5.95409
1173.66	4.53478
1175.28	5.16216
1176.9	4.30673
1178.53	3.82263
1180.15	3.4419
1181.77	3.75558
1183.39	3.87378
1185.01	4.18027
1186.63	4.51746
1188.25	4.86524
1189.87	5.71374
1191.49	5.53004
1193.11	6.79875
1194.73	7.31449
1196.35	8.60508
1197.96	10.0327
1199.58	11.5602
1201.2	14.222
1202.82	17.5287
1204.43	19.1049
1206.05	21.7279
1207.66	22.267
1209.28	24.8912
1210.9	26.5038
1212.51	28.4376
1214.13	31.3029
1215.74	33.5794
1217.36	36.655
1218.97	38.7113
1220.58	40.6794
1222.2	42.4486
1223.81	45.189
1225.42	47.2893
1227.04	49.1739
1228.65	50.644
1230.26	53.0086
1231.87	55.4689
1233.48	56.6627
1235.1	59.0612
1236.71	60.7718
1238.32	63.341
1239.93	64.9271
1241.53	65.6484
1243.14	67.7598
1244.75	69.5272
1246.36	71.4462
1247.97	73.3078
1249.58	75.2978
1251.19	76.2049
1252.8	78.0476
1254.4	79.4997
1256.01	80.8643
1257.62	79.833
1259.22	80.6022
1260.83	81.4833
1262.43	83.216
1264.04	83.7458
1265.64	85.4801
1267.25	86.341
1268.85	87.8369
1270.46	88.4098
1272.06	90.0953
1273.66	90.9932
1275.27	92.0416
1276.87	93.0887
1278.48	93.8925
1280.08	96.0179
1281.68	97.2594
1283.28	99.205
1284.88	99.9005
1286.48	101.276
1288.08	102.484
1289.68	104.797
1291.28	105.354
1292.88	108.136
1294.48	109.993
1296.08	111.776
1297.68	113.2
1299.28	113.988
1300.88	115.245
1302.48	116.489
1304.07	117.115
1305.67	118.42
1307.27	120.018
1308.87	120.297
1310.46	121.354
1312.06	122.608
1313.65	124.273
1315.25	124.812
1316.85	123.904
1318.44	123.75
1320.03	124.996
1321.63	125.15
1323.22	126.636
1324.82	125.661
1326.41	125.758
1328	125.255
1329.6	125.481
1331.19	124.509
1332.78	124.174
1334.37	122.613
1335.96	120.255
1337.56	119.174
1339.15	117.74
1340.74	116.873
1342.33	115.847
1343.92	114.357
1345.51	112.438
1347.1	110.643
1348.69	109.733
1350.28	108.062
1351.86	107.035
1353.45	105.627
1355.04	104.575
1356.63	102.839
1358.21	102.058
1359.8	101.735
1361.39	99.1921
1362.97	96.9898
1364.56	95.22
1366.15	94.6006
1367.73	92.8605
1369.32	91.8858
1370.9	90.686
1372.49	90.3049
1374.07	88.8618
1375.65	87.0752
1377.24	85.4378
1378.82	84.2757
1380.41	83.3845
1381.99	81.7555
1383.57	80.349
1385.15	80.1141
1386.73	78.9054
1388.32	77.6541
1389.9	78.712
1391.48	79.0075
1393.06	78.9028
1394.64	78.2295
1396.22	77.958
1397.8	78.3
1399.38	79.8542
1400.96	79.8091
1402.54	81.1103
1404.11	82.55
1405.69	84.7395
1407.27	86.6661
1408.85	88.581
1410.43	89.073
1412	91.6336
1413.58	93.4536
1415.16	96.1282
1416.73	99.6703
1418.31	102.651
1419.88	107.741
1421.46	111.663
1423.03	116.382
1424.61	120.998
1426.18	126.506
1427.76	132.006
1429.33	136.453
1430.9	141.76
1432.48	146.945
1434.05	150.801
1435.62	154.555
1437.2	159.128
1438.77	162.376
1440.34	164.351
1441.91	167.996
1443.48	171.075
1445.05	172.642
1446.62	173.939
1448.19	175.626
1449.76	176.026
1451.33	176.339
1452.9	175.507
1454.47	174.581
1456.04	173.754
1457.61	172.574
1459.17	170.745
1460.74	168.454
1462.31	166.033
1463.88	163.464
1465.44	160.889
1467.01	158.68
1468.58	155.117
1470.14	150.657
1471.71	145.721
1473.27	141.364
1474.84	136.808
1476.4	132.891
1477.97	129.167
1479.53	125.023
1481.1	120.182
1482.66	115.928
1484.22	110.411
1485.78	105.274
1487.35	99.7459
1488.91	94.9208
1490.47	91.5912
1492.03	88.3396
1493.59	84.7479
1495.16	81.151
1496.72	78.724
1498.28	75.6221
1499.84	71.9524
1501.4	69.7665
1502.96	66.4635
1504.52	63.9738
1506.08	62.1643
1507.64	59.7569
1509.19	58.1625
1510.75	56.1814
1512.31	53.7335
1513.87	52.4763
1515.42	50.9364
1516.98	48.8785
1518.54	47.2329
1520.1	46.0555
1521.65	43.6187
1523.21	42.4957
1524.76	41.6063
1526.32	40.4797
1527.87	39.104
1529.43	37.8435
1530.98	38.074
1532.54	36.8735
1534.09	36.4433
1535.64	36.0295
1537.2	36.8109
1538.75	36.8385
1540.3	36.9479
1541.85	38.2097
1543.41	37.8762
1544.96	38.3348
1546.51	38.0401
1548.06	39.1083
1549.61	40.2379
1551.16	42.2037
1552.71	42.8762
1554.26	43.5395
1555.81	43.5168
1557.36	44.6991
1558.91	45.6932
1560.46	47.2427
1562.01	47.3988
1563.56	48.2481
1565.1	49.5161
1566.65	50.8081
1568.2	52.7274
1569.75	54.4982
1571.29	55.3127
1572.84	56.3602
1574.38	58.0345
1575.93	58.7328
1577.48	60.7968
1579.02	62.9879
1580.57	64.0269
1582.11	66.5299
1583.65	67.6008
1585.2	69.0067
1586.74	70.3972
1588.29	72.0881
1589.83	73.3435
1591.37	74.9316
1592.92	75.6024
1594.46	77.07
1596	76.836
1597.54	76.5199
1599.08	76.9557
1600.62	77.9378
1602.16	77.7893
1603.7	78.8678
1605.24	79.6432
1606.78	79.9725
1608.32	81.2561
1609.86	81.0893
1611.4	82.0134
1612.94	82.3258
1614.48	82.8115
1616.02	83.1201
1617.56	84.0959
1619.09	84.8643
1620.63	85.506
1622.17	86.4971
1623.71	87.3736
1625.24	87.7994
1626.78	88.9439
1628.31	90.0747
1629.85	91.2028
1631.39	92.5103
1632.92	93.269
1634.46	95.0924
1635.99	96.8377
1637.52	98.5656
1639.06	99.3109
1640.59	100.7
1642.12	102.007
1643.66	102.87
1645.19	103.754
1646.72	104.829
1648.25	105.228
1649.79	105.629
1651.32	107.661
1652.85	108.676
1654.38	109.513
1655.91	108.58
1657.44	108.459
1658.97	108.769
1660.5	108.098
1662.03	107.408
1663.56	106.111
1665.09	104.54
1666.62	102.539
1668.15	100.47
1669.67	97.998
1671.2	95.1884
1672.73	91.8778
1674.26	89.3352
1675.79	86.3603
1677.31	82.886
1678.84	79.0663
1680.36	76.0978
1681.89	72.0546
1683.42	67.9109
1684.94	63.8139
1686.47	60.0519
1687.99	55.5943
1689.51	51.5284
1691.04	46.9035
1692.56	43.7466
1694.08	39.8534
1695.61	36.0144
1697.13	32.6055
1698.65	28.9286
1700.18	26.2445
1701.7	22.8905
1703.22	21.0554
1704.74	19.5258
1706.26	16.954
1707.78	14.2517
1709.3	12.4724
1710.82	11.5184
1712.35	10.1836
1713.86	8.20324
1715.39	6.1681
1716.9	4.83513
1718.42	3.83289
1719.94	3.11695
1721.46	3.22634
1722.98	3.09507
1724.5	2.81687
1726.01	3.00084
1727.53	3.47263
1729.05	2.66925
1730.56	2.0097
1732.08	1.91642
1733.6	2.28939
1735.11	2.89609
1736.63	1.99788
1738.14	1.5973
1739.66	1.89561
1741.17	1.3457
1742.69	1.17629
1744.2	1.18682
1745.71	1.39055
1747.23	1.10803
1748.74	1.3341
1750.25	1.32559
1751.77	1.08842
1753.28	1.4766
1754.79	1.43152
1756.3	1.32747
1757.81	1.03728
1759.33	1.25313
1760.84	0.821016
1762.35	0.780928
1763.86	0.134721
1765.37	-0.035611
1766.88	-0.475522
1768.39	0.365163
1769.9	0.658683
1771.41	0.52723
1772.91	0.806147
1774.42	0.605927
1775.93	0.270602
1777.44	0.217336
1778.95	0.665564
1780.45	0.334544
1781.96	0.181616
1783.47	0.976427
1784.97	1.33235
1786.48	0.711539
1787.99	0.390829
1789.49	0.982464
1791	1.13452
1792.5	0.901023
1794.01	1.41354
1795.51	1.71585
1797.01	2.01296
1798.52	1.46783
1800.02	1.17045
1801.52	1.34613
1803.03	1.04333
1804.53	0.997116
1806.03	1.03648
1807.54	1.36508
1809.04	1.72848
1810.54	2.08634
1812.04	1.48045
1813.54	1.88864
1815.04	1.95341
1816.54	1.68353
1818.04	1.67052
1819.54	1.79038
1821.04	1.65701
1822.54	0.987658
1824.04	1.01819
1825.54	1.5957
1827.04	1.36729
1828.54	0.914114
1830.03	0.604313
1831.53	0.528161
1833.03	1.06533
1834.53	1.5257
1836.02	1.34323
1837.52	1.19837
1839.02	1.75888
1840.51	1.6177
1842.01	1.84228
1843.5	2.13996
1845	2.21633
1846.49	1.75233
1847.99	1.84914
1849.48	1.65148
1850.98	1.84292
1852.47	1.99699
1853.96	1.65023
1855.46	1.76837
1856.95	2.2673
1858.44	1.86724
1859.94	3.03339
1861.43	2.98632
1862.92	2.93653
1864.41	3.06799
1865.9	2.38901
1867.39	2.1327
1868.88	2.91685
1870.37	3.4555
1871.86	3.73201
1873.35	3.47935
1874.84	3.47384
1876.33	3.81966
1877.82	3.67252
1879.31	3.78435
1880.8	3.93841
1882.29	3.40655
1882.58	3.70462
1884.08	3.23205
1885.57	3.14164
1887.06	2.67484
1888.56	2.82517
1890.05	2.60165
1891.54	1.85903
1893.04	2.32438
1894.53	2.04209
1896.02	1.80937
1897.51	1.5928
1899	1.46429
1900.5	1.20451
1901.99	1.88367
1903.48	2.38143
1904.97	2.37054
1906.46	2.51505
1907.95	2.41447
1909.44	1.86435
1910.93	1.74643
1912.42	1.72531
1913.91	2.13963
1915.4	2.36223
1916.88	2.28052
1918.37	2.71814
1919.86	2.6429
1921.35	2.53994
1922.84	2.85462
1924.32	3.30703
1925.81	2.89603
1927.3	3.57025
1928.78	3.9915
1930.27	4.06643
1931.75	4.42227
1933.24	4.81843
1934.72	2.96981
1936.21	2.45146
1937.69	2.58969
1939.18	2.74952
1940.66	2.70279
1942.15	3.63632
1943.63	3.74156
1945.11	3.87361
1946.6	3.82399
1948.08	3.98058
1949.56	4.00485
1951.04	3.69717
1952.53	3.28867
1954.01	3.37678
1955.49	3.15552
1956.97	3.68943
1958.45	3.40817
1959.93	4.14468
1961.41	4.41109
1962.89	4.48497
1964.37	4.69883
1965.85	5.76277
1967.33	5.85255
1968.81	5.45814
1970.29	5.55081
1971.77	5.92806
1973.24	6.7491
1974.72	7.15563
1976.2	7.05661
1977.68	7.1008
1979.15	7.41092
1980.63	7.79614
1982.11	8.42059
1983.58	8.97897
1985.06	9.57784
1986.53	9.98662
1988.01	10.5576
1989.48	11.1097
1990.96	10.8259
1992.43	10.9924
1993.91	11.3574
1995.38	11.57
1996.86	12.333
1998.33	12.1395
1999.8	11.5533
2001.27	11.2853
2002.75	10.4569
2004.22	10.337
2005.69	9.92846
2007.16	9.39047
2008.64	8.98584
2010.11	9.75601
2011.58	10.1666
2013.05	9.72701
2014.52	9.87096
2015.99	10.6147
2017.46	10.1991
2018.93	10.5204
2020.4	10.6112
2021.87	10.8223
2023.34	10.6898
2024.8	11.1898
2026.27	11.8792
2027.74	13.5272
2029.21	14.1839
2030.68	14.5461
2032.14	15.252
2033.61	16.0362
2035.08	16.1034
2036.54	15.9043
2038.01	16.936
2039.48	17.2896
2040.94	16.89
2042.41	17.6334
2043.87	17.4672
2045.34	17.1192
2046.8	17.4869
2048.27	17.873
2049.73	17.8221
2051.19	18.2531
2052.66	18.1441
2054.12	17.8211
2055.58	17.821
2057.05	18.1425
2058.51	17.8966
2059.97	17.892
2061.43	18.0602
2062.9	18.8078
2064.36	17.8564
2065.82	18.0463
2067.28	18.6695
2068.74	18.1604
2070.2	18.2087
2071.66	17.408
2073.12	16.8726
2074.58	17.4213
2076.04	17.8052
2077.5	18.1116
2078.95	18.4361
2080.41	18.603
2081.87	18.804
2083.33	20.1441
2084.79	20.369
2086.24	20.4977
2087.7	21.3595
2089.16	22.1924
2090.61	22.8894
2092.07	24.4967
2093.53	25.3756
2094.98	26.4929
2096.44	27.5922
2097.89	29.2301
2099.35	29.8008
2100.8	30.1448
2102.26	30.2577
2103.71	30.3891
2105.16	31.3658
2106.62	32.5646
2108.07	33.3184
2109.53	33.8401
2110.98	35.3412
2112.43	36.0407
2113.88	36.7644
2115.33	37.6073
2116.79	38.2485
2118.24	39.6804
2119.69	40.2268
2121.14	41.3001
2122.59	42.1233
2124.04	44.0185
2125.49	45.0308
2126.94	45.9056
2128.39	47.5589
2129.84	48.5649
2131.29	49.6657
2132.74	51.0681
2134.19	52.103
2135.63	52.6652
2137.08	53.3891
2138.53	54.953
2139.98	57.5988
2141.43	58.5928
2142.87	59.849
2144.32	61.02
2145.77	63.0476
2147.21	65.0535
2148.66	66.5951
2150.1	68.4049
2151.55	70.1289
2152.99	71.6384
2154.44	73.3799
2155.88	75.8256
2157.33	77.4182
2158.77	79.8743
2160.21	81.9822
2161.66	83.3789
2163.1	84.2248
2164.55	85.8053
2165.99	86.6935
2167.43	88.4365
2168.87	89.265
2170.31	90.1133
2171.76	89.9492
2173.2	91.0189
2174.64	91.5726
2176.08	91.5861
2177.52	92.3751
2178.96	91.8888
2180.4	90.8336
2181.84	90.3275
2183.28	89.7771
2184.72	88.5865
2186.16	87.4299
2187.6	86.5358
2189.04	86.0492
2190.47	84.594
2191.91	82.2766
2193.35	81.8505
2194.79	80.0349
2196.23	78.5388
2197.66	76.0066
2199.1	73.8052
2200.54	72.6453
2201.97	70.45
2203.41	68.7993
2204.84	66.3835
2206.28	64.5181
2207.71	62.4765
2209.15	60.9919
2210.58	59.182
2212.02	57.582
2213.45	54.8984
2214.89	53.2041
2216.32	52.2779
2217.75	51.2065
2219.19	49.8595
2220.62	48.3949
2222.05	46.8953
2223.48	45.8677
2224.92	45.1486
2226.35	43.9149
2227.78	42.9091
2229.21	41.8658
2230.64	40.7872
2232.07	38.6224
2233.5	37.1945
2234.93	36.8403
2236.36	36.2347
2237.79	34.7854
2239.22	34.0017
2240.65	32.5449
2242.08	31.5965
2243.51	30.0851
2244.94	29.0937
2246.37	27.8628
2247.79	26.8932
2249.22	26.0479
2250.65	24.816
2252.08	24.0337
2253.5	23.4257
2254.93	23.2385
2256.36	23.4848
2257.78	23.3824
2259.21	23.5649
2260.63	23.8002
2262.06	22.7484
2263.48	21.862
2264.91	21.8895
2266.33	21.5257
2267.76	21.1646
2269.18	21.0391
2270.6	21.1276
2272.03	21.598
2273.45	20.456
2274.87	20.0989
2276.3	19.5135
2277.72	18.9315
2279.14	18.0837
2280.56	17.807
2281.98	17.7691
2283.41	17.441
2284.83	17.1919
2286.25	17.182
2287.67	16.9341
2289.09	16.4524
2290.51	15.8618
2291.93	15.1367
2293.35	14.8638
2294.77	14.7317
2296.19	14.6276
2297.61	14.7571
2299.02	15.269
2300.44	14.9349
2301.86	15.1334
2303.28	14.7945
2304.7	15.0892
2306.11	14.806
2307.53	14.2053
2308.95	14.5042
2310.36	15.0134
2311.78	15.335
2313.2	15.7932
2314.61	15.7171
2316.03	16.4503
2317.44	16.7501
2318.86	16.1168
2320.27	16.324
2321.69	16.9898
2323.1	16.8162
2324.51	17.3651
2325.93	17.7643
2327.34	17.8004
2328.76	17.6417
2330.17	17.6205
2331.58	17.5879
2332.99	16.6559
2334.41	16.6227
2335.82	17.0457
2337.23	17.2466
2338.64	16.082
2340.05	15.784
2341.46	14.9784
2342.87	14.0915
2344.28	13.0792
2345.69	12.2171
2347.1	11.763
2348.51	11.1884
2349.92	10.3026
2351.33	9.69059
2352.74	9.32334
2354.15	9.18085
2355.56	8.86981
2356.97	7.97746
2358.37	6.84772
2359.78	6.76926
2361.19	5.87666
2362.6	5.70988
2364	5.58304
2365.41	5.36965
2366.82	5.40681
2368.22	4.72426
2369.63	3.43255
2371.03	2.56094
2372.44	2.88313
2373.84	2.1094
2375.25	2.64572
2376.65	2.67681
2378.06	2.95525
2379.46	3.48248
2380.86	3.15066
2382.27	3.31343
2383.67	3.40051
2385.07	3.71014
2386.48	3.80445
2387.88	4.0046
2389.28	4.18282
2390.69	5.18675
2392.09	5.2996
2393.49	5.06896
2394.89	6.15344
2396.29	6.71817
2397.69	7.99524
2399.09	8.73598
2400.49	8.81985
2401.89	9.31619
2403.29	8.99057
2404.69	9.74555
2406.09	10.0936
2407.49	9.28208
2408.89	8.51285
2410.29	9.06893
2411.69	9.1317
2413.08	8.8231
2414.48	8.70006
2415.88	8.84396
2417.28	9.40082
2418.67	9.45456
2420.07	9.4963
2421.47	10.0702
2422.86	10.6433
2424.26	10.3786
2425.65	10.1523
2427.05	9.52908
2428.45	9.88441
2429.84	9.78229
2431.23	8.15245
2432.63	8.24531
2434.02	7.78391
2435.42	6.99916
2436.81	6.96447
2438.2	6.35011
2439.6	5.85005
2440.99	5.63642
2442.38	5.36062
2443.78	4.45357
2445.17	4.55611
2446.56	3.46747
2447.95	3.73327
2449.34	4.44497
2450.73	4.70397
2452.13	4.78026
2453.52	5.21578
2454.91	5.93989
2456.3	5.85913
2457.69	5.78286
2459.08	5.41507
2460.47	5.29798
2461.85	4.48758
2463.24	4.6982
2464.63	4.56004
2466.02	5.10887
2467.41	5.2773
2468.8	5.21647
2470.19	5.261
2471.57	5.1723
2472.96	4.86575
2474.35	5.02621
2475.73	5.25897
2477.12	4.96057
2478.51	5.34666
2479.89	5.28244
2481.28	5.78064
2482.66	5.86475
2484.05	6.52087
2485.43	7.45124
2486.82	8.03658
2488.2	8.54405
2489.59	8.62455
2490.97	8.49961
2492.35	8.21333
2493.74	7.86085
2495.12	7.97866
2496.5	7.46608
2497.89	7.08076
2499.27	6.32175
2500.65	6.2688
2502.03	6.67758
2503.42	5.70611
2504.8	5.16195
2506.18	4.80892
2507.56	4.16625
2508.94	3.48872
2510.32	3.20931
2511.7	3.33874
2513.08	3.57812
2514.46	4.57288
2515.84	4.89355
2517.22	4.87622
2518.6	4.60113
2519.98	3.57239
2521.36	3.44017
2522.73	3.39144
2524.11	2.88194
2525.49	2.17147
2526.87	1.39353
2528.25	1.40019
2529.62	1.3226
2531	1.56908
2532.38	2.0538
2533.75	1.99732
2535.13	2.80298
2536.5	2.4629
2537.88	2.78114
2539.25	2.34985
2540.63	1.76551
2542.01	1.52932
2543.38	1.52952
2544.75	2.0951
2546.13	1.99523
2547.5	1.75606
2548.88	1.79226
2550.25	2.07014
2551.62	1.8414
2553	1.72498
2554.37	1.66161
2555.74	1.47612
2557.11	1.72753
2558.49	1.47193
2559.86	0.917924
2561.23	1.36074
2562.6	2.28245
2563.97	2.31144
2565.34	1.91824
2566.71	2.12987
2568.08	2.16149
2569.45	1.8148
2570.82	1.27569
2572.19	1.25702
2573.56	2.21442
2574.93	2.01983
2576.3	2.68373
2577.67	2.69519
2579.03	3.17518
2580.4	3.67615
2581.77	3.32944
2583.14	3.29575
2584.5	2.96181
2585.87	2.88265
2587.24	3.93952
2588.6	3.90668
2589.97	4.401
2591.34	4.68575
2592.7	4.94632
2594.07	5.52101
2595.43	4.91879
2596.8	5.53302
2598.16	5.411
2599.53	5.35234
2600.89	4.85648
2602.26	4.07484
2603.62	3.98843
2604.98	3.89033
2606.35	4.01184
2607.71	3.85114
2609.07	3.61787
2610.44	3.76759
2611.8	3.51626
2613.16	3.79022
2614.52	4.22255
2615.88	3.63008
2617.25	2.80043
2618.61	2.19308
2619.97	2.16601
2621.33	1.8468
2622.69	2.43204
2624.05	2.66219
2625.41	3.18841
2626.77	2.86215
2628.13	2.58659
2629.49	3.23483
2630.85	4.04522
2632.21	3.38746
2633.56	3.57814
2634.92	4.31294
2636.28	4.26745
2637.64	4.41455
2639	4.94765
2640.35	5.21588
2641.71	5.50711
2643.07	5.1681
2644.42	5.76592
2645.78	5.87863
2647.14	5.97992
2648.49	6.10225
2649.85	6.14865
2651.2	6.95087
2652.56	6.99658
2653.91	6.91452
2655.27	6.88181
2656.62	6.52187
2657.98	7.1238
2659.33	7.22467
2660.68	6.70879
2662.04	6.49968
2663.39	6.19848
2664.74	6.85445
2666.1	6.12072
2667.45	5.6429
2668.8	5.33666
2670.15	5.18563
2671.5	6.19147
2672.86	5.95522
2674.21	5.69437
2675.56	5.71832
2676.91	5.59799
2678.26	5.53079
2679.61	5.4236
2680.96	4.99793
2682.31	4.40398
2683.66	3.49642
2685.01	3.38273
2686.36	3.76941
2687.71	4.2664
2689.06	4.34369
2690.4	5.15477
2691.75	5.25593
2693.1	5.51094
2694.45	5.94132
2695.8	6.40843
2697.14	7.6208
2698.49	8.33451
2699.84	8.26047
2701.18	8.56201
2702.53	8.68617
2703.88	9.047
2705.22	9.57471
2706.57	9.5001
2707.91	9.09987
2709.26	8.96664
2710.6	9.3143
2711.95	9.16164
2713.29	9.88496
2714.64	9.43394
2715.98	9.08422
2717.32	8.78653
2718.67	8.35912
2720.01	8.17569
2721.35	7.91231
2722.7	7.57853
2724.04	7.16138
2725.38	7.10788
2726.72	7.11329
2728.06	7.49424
2729.4	7.91169
2730.75	8.52292
2732.09	8.50661
2733.43	8.50292
2734.77	8.60206
2736.11	9.76025
2737.45	10.02
2738.79	10.4064
2740.13	9.92404
2741.47	10.1298
2742.81	10.2915
2744.15	10.0852
2745.48	9.81186
2746.82	9.38771
2748.16	8.86401
2749.5	9.3066
2750.84	9.76555
2752.17	9.4768
2753.51	9.31676
2754.85	9.09847
2756.19	9.23237
2757.52	9.07568
2758.86	9.01394
2760.19	9.064
2761.53	9.09505
2762.86	8.79767
2764.2	8.22126
2765.54	8.12747
2766.87	7.95889
2768.2	7.36632
2769.54	7.11118
2770.87	6.26102
2772.21	5.54438
2773.54	3.98344
2774.88	3.52381
2776.21	3.25395
2777.54	2.92935
2778.87	2.37726
2780.21	1.95455
2781.54	0.206025
2782.87	-0.392703
2784.2	-0.378626
2785.53	-0.965459
2786.87	-1.05364
2788.2	-1.70445
2789.53	-1.96068
2790.86	-1.62689
2792.19	-1.43452
2793.52	-1.01424
2794.85	-1.2472
2796.18	-1.54111
2797.51	-1.67368
2798.84	-2.32518
2800.17	-2.25181
2801.49	-2.90409
2802.82	-2.18661
2804.15	-1.96726
2805.48	-2.12335
2806.81	-2.45089
2808.13	-2.70606
2809.46	-2.52192
2810.79	-2.09481
2812.12	-2.02337
2813.44	-2.21106
2814.77	-1.8807
2816.09	-0.891104
2817.42	0.323303
2818.75	1.16439
2820.07	3.16015
2821.4	5.09223
2822.72	8.1659
2824.05	10.6359
2825.37	12.9916
2826.7	15.2456
2828.02	18.458
2829.35	21.5817
2830.67	25.0088
2831.99	28.9439
2833.31	31.8988
2834.64	35.3399
2835.96	39.045
2837.28	42.7961
2838.61	47.954
2839.93	52.4652
2841.25	57.4405
2842.57	62.5978
2843.89	68.7955
2845.21	74.6504
2846.53	80.9447
2847.85	87.3689
2849.17	93.5766
2850.49	100.355
2851.81	106.557
2853.13	112.82
2854.45	119.818
2855.77	126.946
2857.09	133.516
2858.41	140.383
2859.73	147.154
2861.05	153.436
2862.36	160.328
2863.68	167.164
2865	173.679
2866.32	180.04
2867.64	186.126
2868.95	192.35
2870.27	197.621
2871.59	202.405
2872.9	207.377
2874.22	212.143
2875.53	216.775
2876.85	221.463
2878.16	226.387
2879.48	230.964
2880.79	235.949
2882.11	240.994
2883.42	245.394
2884.74	250.619
2886.05	255.421
2887.36	260.223
2888.68	264.688
2889.99	268.608
2891.3	272.977
2892.62	278.123
2893.93	283.519
2895.24	288.266
2896.55	293.593
2897.86	297.96
2899.18	303.499
2900.49	309.214
2901.8	314.933
2903.11	321.05
2904.42	328.183
2905.73	335.011
2907.04	343.884
2908.35	352.332
2909.66	361.322
2910.97	369.247
2912.28	377.782
2913.59	386.045
2914.9	394.849
2916.21	403.345
2917.51	412.054
2918.82	420.263
2920.13	428.069
2921.44	434.798
2922.74	440.577
2924.05	446.079
2925.36	451.439
2926.67	455.126
2927.97	458.824
2929.28	461.06
2930.59	462.119
2931.89	461.375
2933.2	460.742
2934.5	459.034
2935.81	456.215
2937.11	452.482
2938.42	447.517
2939.72	441.759
2941.02	436.379
2942.33	430.1
2943.63	423.324
2944.94	414.996
2946.24	407.554
2947.54	399.598
2948.85	390.639
2950.15	381.418
2951.45	371.546
2952.75	362.155
2954.05	352.495
2955.36	343.045
2956.66	333.27
2957.96	323.728
2959.26	314.624
2960.56	304.909
2961.86	295.65
2963.16	286.23
2964.46	278.631
2965.76	270.771
2967.06	263.805
2968.36	257.03
2969.66	250.622
2970.96	244.723
2972.26	239.125
2973.56	232.417
2974.85	227.323
2976.15	220.911
2977.45	215.43
2978.75	210.458
2980.05	205.173
2981.34	199.465
2982.64	195.043
2983.94	189.651
2985.23	183.622
2986.53	178.271
2987.83	172.142
2989.12	165.858
2990.42	160.19
2991.71	152.49
2993.01	146.374
2994.3	139.526
2995.6	132.426
2996.89	125.656
2998.19	119.213
2999.48	112.543
3000.77	105.702
3002.07	99.2214
3003.36	93.1321
3004.65	87.1235
3005.95	81.8299
3007.24	76.2736
3008.53	70.3124
3009.82	64.9837
3011.12	60.8044
3012.41	55.2945
3013.7	49.4651
3014.99	44.9384
3016.28	41.3057
3017.57	37.6401
3018.86	34.5642
3020.15	31.2354
3021.44	27.9979
3022.73	25.4197
3024.02	22.9203
3025.31	20.403
3026.6	18.58
3027.89	16.4191
3029.18	15.2842
3030.47	13.9321
3031.76	12.4466
3033.04	11.2905
3034.33	10.4455
3035.62	10.3487
3036.91	9.75305
3038.19	10.1968
3039.48	9.72514
3040.77	9.32278
3042.05	10.3907
3043.34	10.8718
3044.63	11.1644
3045.91	11.8977
3047.2	12.3697
3048.48	12.4298
3049.77	11.6585
3051.05	11.8453
3052.34	11.9236
3053.62	11.4281
3054.91	12.184
3056.19	11.777
3057.48	12.4862
3058.76	12.1937
3060.04	12.1275
3061.33	12.1264
3062.61	11.183
3063.89	11.2444
3065.17	10.4121
3066.46	9.99696
3067.74	9.81918
3069.02	9.62781
3070.3	8.86814
3071.59	8.14752
3072.87	7.08501
3074.15	6.98159
3075.43	6.77347
3076.71	6.341
3077.99	5.41885
3079.27	5.42461
3080.55	5.04045
3081.83	4.13744
3083.11	3.8076
3084.39	3.15003
3085.67	2.3084
3086.94	2.37206
3088.22	2.12138
3089.5	1.78439
3090.78	2.03981
3092.06	2.16518
3093.34	2.53544
3094.61	2.33234
3095.89	2.60108
3097.17	2.77171
3098.44	3.27304
3099.72	3.28092
3101	3.1075
3102.27	3.44437
3103.55	3.0366
3104.82	3.98843
3106.1	4.62285
3107.38	5.13533
3108.65	5.48313
3109.93	5.86874
3111.2	6.10589
3112.47	6.31312
3113.75	6.91189
3115.02	8.00692
3116.3	8.375
3117.57	8.29775
3118.84	8.95208
3120.12	8.81136
3121.39	9.29981
3122.66	9.19577
3123.93	9.56746
3125.2	9.45003
3126.48	9.40576
3127.75	10.1517
3129.02	10.1812
3130.29	11.4322
3131.56	11.9927
3132.83	12.4514
3134.1	12.3177
3135.37	13.1148
3136.64	13.9671
3137.91	14.5841
3139.18	15.1829
3140.45	15.3506
3141.72	15.117
3142.99	15.4978
3144.26	15.6779
3145.53	15.7368
3146.8	14.8078
3148.07	14.0539
3149.33	13.2315
