#Acq. time (s)=	45
#Accumulations=	2
#Range (cm-¹)=	200...3150
#Windows=	2
#Auto scanning=	Off
#Autofocus=	Off
#Macrospot=	Off
#AutoExposure=	Off
#Spike filter=	Multiple accum.
#Delay time (s)=	0
#Binning=	1
#Readout mode=	Signal
#DeNoise=	Off
#ICS correction=	On
#Dark correction=	Off
#Inst. Process=	Off
#Detector Gain=	Best Dynamic Range
#Detector ADC=	20 kHz       
#Detector temperature (°C)=	-69.85
#Instrument=	LabRAM HR Evol
#Detector=	Synapse
#Objective=	x100
#Grating=	600 gr/mm
#ND Filter=	100%
#Laser (nm)=	532 
#Hole=	100.021
#Range=	Auto
#Laser Pol.=	No
#Raman. Pol.=	No
#Laser Pol. (°)=	-0.0007625
#Raman Pol. (°)=	89.9995
#Collection=	Microscope
#StageXY=	Marzhauser
#StageZ=	Marzhauser
#X (µm)=	-1173.3
#Y (µm)=	1305.7
#Z (µm)=	578
#Full time(mm:ss)=	3:18
#Project=	
#Sample=	
#Site=	
#Title=	Mbcal_20_25_24_2x_45s_532 nm_x100_100%_600 gr_mm
#Remark=	
#Date=	18.07.2022 11:24
#Acquired=	18.07.2022 11:24:15
#Base:Fit=	10.08.2022 10:55:08
#Base:Sub=	10.08.2022 10:55:14
#Filter:Polynom=	16.08.2022 10:07:28
#AxisType[0]=Intens
#AxisUnit[0]=Cnt
#AxisType[1]=Spectr
#AxisUnit[1]=1/cm
200.419	40.1926
202.234	35.7647
204.048	33.6384
205.862	30.8021
207.678	27.53
209.491	24.9952
211.304	22.4693
213.116	19.3377
214.928	17.0247
216.742	16.0917
218.554	15.3772
220.365	12.5557
222.176	12.12
223.986	13.5965
225.798	13.5699
227.608	13.2733
229.417	11.8415
231.226	12.9753
233.035	12.8043
234.843	13.1361
236.653	13.6578
238.46	14.0965
240.268	15.0751
242.074	15.6894
243.881	16.0438
245.687	16.9362
247.493	16.6601
249.298	17.0736
251.103	17.3166
252.908	17.8941
254.715	18.6239
256.519	19.7987
258.322	20.0201
260.126	20.8914
261.929	20.9253
263.731	21.3317
265.534	21.2105
267.336	20.0219
269.137	19.8929
270.938	19.5054
272.739	19.4283
274.54	18.1254
276.34	16.6347
278.14	14.55
279.939	12.5889
281.739	10.2008
283.537	10.7242
285.336	9.02011
287.134	6.21496
288.932	3.78065
290.729	4.0646
292.526	3.66959
294.323	3.56303
296.117	3.3362
297.913	4.66438
299.709	4.21618
301.504	4.66881
303.299	5.67493
305.093	6.87538
306.888	8.64215
308.682	10.0847
310.475	11.6809
312.268	15.2648
314.059	17.1056
315.852	17.7908
317.644	19.3839
319.436	21.4756
321.227	24.12
323.018	24.0482
324.807	25.334
326.597	27.3394
328.387	29.0532
330.177	30.0999
331.967	30.9908
333.753	31.8746
335.542	32.9141
337.331	32.4826
339.119	32.8119
340.906	33.5547
342.691	33.3011
344.478	33.5175
346.265	33.2459
348.051	32.2752
349.835	31.367
351.621	31.0867
353.406	29.6535
355.189	29.1991
356.973	27.7465
358.757	27.1247
360.541	25.6511
362.323	23.8818
364.106	21.9453
365.889	21.3557
367.669	21.5306
369.451	20.3698
371.233	19.3277
373.012	18.3429
374.793	17.5929
376.574	17.0521
378.353	18.1843
380.133	19.7268
381.91	20.9472
383.69	21.5336
385.469	21.1368
387.245	22.6151
389.024	22.2947
390.8	23.5795
392.577	23.0155
394.353	23.1333
396.129	24.9438
397.906	25.1814
399.68	25.3404
401.456	24.7908
403.23	24.8047
405.005	25.7523
406.778	26.9775
408.552	26.765
410.325	26.2842
412.099	25.7505
413.87	26.7186
415.643	26.7163
417.414	26.316
419.187	26.0113
420.957	25.7061
422.728	24.9249
424.498	24.4007
426.269	23.5066
428.038	23.5068
429.806	23.1225
431.576	21.4858
433.344	21.6021
435.114	19.3105
436.881	18.8015
438.649	17.9104
440.416	17.0658
442.182	15.62
443.949	16.6253
445.715	16.6801
447.48	16.086
449.247	16.0854
451.011	15.4496
452.777	15.9069
454.541	17.0454
456.304	16.7942
458.069	16.3331
459.832	15.7319
461.594	15.4702
463.358	15.6646
465.119	16.3863
466.881	18.0582
468.642	18.8782
470.404	20.2805
472.165	19.2135
473.925	19.6253
475.684	20.6652
477.445	20.6944
479.204	21.627
480.963	22.1417
482.721	23.754
484.481	25.1866
486.239	26.5474
487.996	28.3421
489.753	30.3283
491.511	33.3837
493.268	34.6795
495.023	35.3786
496.779	35.8733
498.534	36.7735
500.289	38.6325
502.046	39.4118
503.8	41.254
505.554	42.7276
507.307	44.1212
509.06	45.2035
510.813	46.7766
512.566	49.1114
514.32	49.6088
516.072	51.7189
517.823	53.7651
519.574	54.0402
521.325	54.7147
523.076	55.3148
524.826	57.4205
526.576	58.4902
528.325	59.595
530.074	60.3586
531.823	61.8044
533.572	62.7225
535.32	63.466
537.068	63.2775
538.815	64.0607
540.562	64.9254
542.309	63.6851
544.056	63.2624
545.802	62.9904
547.547	61.2168
549.293	60.2172
551.038	58.9201
552.783	58.4148
554.527	56.3758
556.271	54.5536
558.015	53.0091
559.759	51.0606
561.502	49.8342
563.245	48.0871
564.987	45.6678
566.729	44.4393
568.471	42.1026
570.213	39.2059
571.954	36.4999
573.693	33.0756
575.433	29.1767
577.173	26.1039
578.913	22.9241
580.652	19.496
582.392	17.9496
584.13	17.313
585.867	15.2555
587.605	16.1319
589.343	14.1204
591.08	14.1833
592.817	12.582
594.552	12.4174
596.289	11.4666
598.025	11.8947
599.761	12.4793
601.496	12.8516
603.229	14.5532
604.964	15.4683
606.699	14.3503
608.433	15.6502
610.165	17.4602
611.898	18.3027
613.631	18.9055
615.364	19.5496
617.095	21.0055
618.827	22.8135
620.559	24.2701
622.288	24.6689
624.02	25.0545
625.75	27.1449
627.479	28.1359
629.209	28.5299
630.939	29.9713
632.667	30.9429
634.396	31.657
636.125	32.5176
637.851	33.661
639.58	35.0743
641.305	34.7526
643.033	35.5099
644.76	35.2962
646.485	34.1549
648.212	34.2227
649.936	34.226
651.662	34.1598
653.388	33.6196
655.111	31.1193
656.836	29.2439
658.558	28.6933
660.283	26.3916
662.005	25.3106
663.728	24.3093
665.45	23.6759
667.173	23.373
668.893	24.0376
670.616	23.075
672.336	22.6725
674.057	23.6467
675.777	21.8199
677.498	22.3244
679.216	23.3388
680.937	23.8869
682.655	24.1301
684.375	25.9689
686.092	26.9969
687.809	28.2626
689.528	28.294
691.244	29.0103
692.962	28.9403
694.678	30.6108
696.393	30.7373
698.111	31.1418
699.825	30.4128
701.54	29.6089
703.256	30.4902
704.97	30.441
706.685	30.9193
708.398	31.2207
710.111	31.2211
711.826	30.8768
713.538	30.637
715.25	30.8956
716.961	30.6724
718.675	30.2278
720.386	29.5028
722.096	29.6097
723.808	30.565
725.518	30.4339
727.228	30.4716
728.937	32.5165
730.648	32.3858
732.357	33.403
734.065	34.8038
735.773	35.104
737.483	35.1779
739.19	33.9649
740.897	34.0339
742.604	34.7818
744.31	35.6861
746.018	34.7524
747.724	36.81
749.429	37.9413
751.134	38.9518
752.839	40.0988
754.544	42.375
756.248	43.866
757.953	46.5108
759.657	49.3771
761.36	51.4505
763.063	53.7218
764.765	57.1395
766.468	59.038
768.169	60.768
769.871	64.6678
771.572	66.6638
773.273	67.8476
774.976	69.3499
776.676	70.9433
778.376	70.9712
780.075	71.7076
781.775	71.1201
783.474	71.9713
785.172	71.9567
786.871	72.8055
788.569	73.5802
790.266	73.1936
791.964	73.3746
793.661	73.2794
795.358	72.7715
797.054	73.2156
798.75	73.2983
800.446	73.7634
802.141	74.3127
803.834	74.1067
805.529	75.3266
807.224	76.369
808.918	76.0023
810.612	75.8171
812.305	75.854
813.998	75.4869
815.691	73.4115
817.384	72.8997
819.076	72.6566
820.766	72.4092
822.458	72.9321
824.149	73.3977
825.84	76.2052
827.531	78.4379
829.221	82.0525
830.909	85.1886
832.599	89.0293
834.288	92.6668
835.977	95.8414
837.666	99.672
839.353	102.982
841.041	106.905
842.729	109.593
844.416	112.912
846.103	115.805
847.788	118.97
849.475	121.691
851.161	121.709
852.845	123.235
854.53	123.54
856.216	123.251
857.901	123.926
859.583	124.125
861.268	123.012
862.952	122.691
864.633	122.733
866.317	122.453
868	120.479
869.681	118.159
871.363	114.88
873.045	112.089
874.725	108.988
876.406	105.884
878.088	102.466
879.767	99.0732
881.447	94.7101
883.125	90.4339
884.805	85.6854
886.483	81.0297
888.162	76.4787
889.841	72.5801
891.518	68.5471
893.196	64.0587
894.872	59.823
896.55	56.3623
898.225	53.8872
899.902	51.9001
901.577	51.4298
903.254	50.2208
904.928	49.894
906.604	51.1231
908.277	51.852
909.952	53.7455
911.625	55.5993
913.3	56.6092
914.972	57.8619
916.646	59.2908
918.318	61.0624
919.991	61.2101
921.662	62.0234
923.333	62.8643
925.005	64.5083
926.675	64.1103
928.347	65.669
930.017	66.6032
931.686	65.3964
933.357	63.9147
935.025	62.6284
936.693	63.4807
938.363	62.3897
940.031	63.0581
941.698	62.7743
943.367	61.4563
945.034	59.2699
946.7	58.3435
948.368	56.7514
950.034	56.0314
951.699	53.1039
953.367	53.0648
955.031	52.6421
956.696	51.4751
958.36	47.9689
960.026	45.708
961.689	43.9618
963.353	42.7974
965.016	42.6805
966.68	43.6989
968.343	44.4828
970.005	46.3867
971.666	47.0977
973.328	48.2802
974.991	49.8367
976.652	50.6764
978.312	52.3878
979.972	54.3242
981.632	55.7248
983.292	56.6641
984.953	56.6594
986.612	57.0258
988.27	59.1891
989.929	59.7021
991.587	59.4696
993.244	60.9481
994.902	62.074
996.559	61.3437
998.216	63.4218
999.872	63.7737
1001.53	64.2241
1003.19	63.8716
1004.84	63.626
1006.5	63.372
1008.15	64.74
1009.81	65.0844
1011.46	66.6271
1013.11	66.9813
1014.77	66.9881
1016.42	69.286
1018.07	70.4545
1019.73	71.4457
1021.38	72.3062
1023.03	72.7223
1024.68	72.6422
1026.34	73.1164
1027.99	72.9468
1029.64	73.757
1031.29	73.9267
1032.94	73.1374
1034.59	72.7401
1036.24	72.3354
1037.89	70.9345
1039.53	67.8599
1041.18	65.5022
1042.83	65.7983
1044.48	67.2224
1046.13	68.0997
1047.77	68.8637
1049.42	68.8147
1051.07	68.421
1052.71	67.4361
1054.36	61.1183
1056	59.4894
1057.65	59.4236
1059.3	61.229
1060.94	62.5834
1062.59	63.1859
1064.23	63.9831
1065.87	63.8236
1067.52	63.3586
1069.16	65.4389
1070.8	66.1075
1072.44	65.6133
1074.09	65.2308
1075.73	65.6089
1077.37	65.7156
1079.01	65.9872
1080.65	67.5147
1082.29	67.7504
1083.93	68.321
1085.57	69.612
1087.21	71.6558
1088.85	74.2777
1090.49	76.417
1092.13	77.801
1093.77	81.1939
1095.41	82.8758
1097.04	85.2509
1098.68	87.6156
1100.32	87.0738
1101.95	87.8264
1103.59	89.2467
1105.23	89.9243
1106.86	88.7089
1108.5	88.7037
1110.13	85.7656
1111.77	84.7945
1113.4	83.0901
1115.04	80.7985
1116.67	79.4707
1118.31	77.0577
1119.94	74.6936
1121.57	70.8433
1123.2	68.9259
1124.84	66.8432
1126.47	64.6916
1128.1	61.1236
1129.73	57.3567
1131.36	53.0531
1132.99	49.4014
1134.62	46.3441
1136.25	42.6786
1137.88	45.7028
1139.51	46.5083
1141.14	46.4697
1142.77	44.7106
1144.4	42.4528
1146.03	39.1795
1147.66	36.9198
1149.28	34.6768
1150.91	32.9535
1152.54	29.2957
1154.16	25.5836
1155.79	23.2081
1157.42	21.0035
1159.04	18.8221
1160.67	15.7385
1162.29	13.0648
1163.92	10.7267
1165.54	9.12456
1167.17	7.71779
1168.79	7.09463
1170.41	6.41796
1172.04	5.59937
1173.66	6.98217
1175.28	7.35917
1176.9	7.66109
1178.53	8.1502
1180.15	7.69844
1181.77	8.59028
1183.39	10.6048
1185.01	11.528
1186.63	12.5514
1188.25	12.8547
1189.87	15.6268
1191.49	17.8432
1193.11	20.7727
1194.73	22.3464
1196.35	24.2699
1197.96	27.2168
1199.58	30.0209
1201.2	31.7822
1202.82	35.0409
1204.43	38.451
1206.05	41.392
1207.66	45.523
1209.28	49.8319
1210.9	53.3108
1212.51	57.4567
1214.13	62.8966
1215.74	66.9887
1217.36	71.017
1218.97	74.2133
1220.58	77.2153
1222.2	80.9507
1223.81	84.427
1225.42	86.6827
1227.04	90.8916
1228.65	94.1674
1230.26	96.3777
1231.87	99.0929
1233.48	101.742
1235.1	103.927
1236.71	106.573
1238.32	109.668
1239.93	113.052
1241.53	116.12
1243.14	119.643
1244.75	122.528
1246.36	126.156
1247.97	128.36
1249.58	131.982
1251.19	133.135
1252.8	135.557
1254.4	138.103
1256.01	140.257
1257.62	142.989
1259.22	144.747
1260.83	146.402
1262.43	149.787
1264.04	151.182
1265.64	152.664
1267.25	154.24
1268.85	155.741
1270.46	158.163
1272.06	159.141
1273.66	159.853
1275.27	161.415
1276.87	162.347
1278.48	163.965
1280.08	164.489
1281.68	165.336
1283.28	167.532
1284.88	169.715
1286.48	171.429
1288.08	174.211
1289.68	175.932
1291.28	177.493
1292.88	178.716
1294.48	179.227
1296.08	179.299
1297.68	179.777
1299.28	179.677
1300.88	179.858
1302.48	181.911
1304.07	183.316
1305.67	183.594
1307.27	186.005
1308.87	186.127
1310.46	186.287
1312.06	188.259
1313.65	189.796
1315.25	190.753
1316.85	192.31
1318.44	193.728
1320.03	194.425
1321.63	193.494
1323.22	193.443
1324.82	192.593
1326.41	191.887
1328	191.039
1329.6	191.681
1331.19	190.294
1332.78	190.37
1334.37	189.65
1335.96	188.806
1337.56	185.942
1339.15	183.596
1340.74	182.391
1342.33	181.394
1343.92	178.581
1345.51	176.654
1347.1	174.164
1348.69	171.851
1350.28	170.45
1351.86	167.269
1353.45	164.449
1355.04	161.967
1356.63	157.986
1358.21	155.711
1359.8	152.801
1361.39	150.621
1362.97	148.667
1364.56	146.765
1366.15	144.243
1367.73	143.074
1369.32	139.573
1370.9	135.809
1372.49	131.477
1374.07	128.374
1375.65	126.336
1377.24	123.868
1378.82	122.3
1380.41	119.803
1381.99	118.699
1383.57	117.663
1385.15	116.34
1386.73	116.379
1388.32	115.396
1389.9	113.778
1391.48	113.382
1393.06	112.644
1394.64	111.529
1396.22	112.354
1397.8	111.944
1399.38	113.733
1400.96	114.437
1402.54	117.31
1404.11	119.974
1405.69	123.349
1407.27	127.392
1408.85	130.762
1410.43	134.179
1412	138.72
1413.58	143.677
1415.16	150.041
1416.73	154.51
1418.31	162.744
1419.88	170.998
1421.46	177.655
1423.03	185.557
1424.61	194.158
1426.18	202.847
1427.76	210.442
1429.33	218.987
1430.9	226.042
1432.48	232.713
1434.05	239.846
1435.62	245.802
1437.2	252.828
1438.77	257.55
1440.34	262.094
1441.91	266.27
1443.48	269.774
1445.05	271.874
1446.62	271.838
1448.19	270.517
1449.76	270.816
1451.33	270.27
1452.9	269.039
1454.47	266.923
1456.04	263.398
1457.61	258.961
1459.17	254.861
1460.74	249.993
1462.31	245.546
1463.88	239.637
1465.44	233.032
1467.01	226.136
1468.58	218.199
1470.14	210.389
1471.71	203.605
1473.27	195.6
1474.84	188.869
1476.4	181.325
1477.97	174.857
1479.53	166.789
1481.1	159.078
1482.66	151.566
1484.22	143.088
1485.78	135.839
1487.35	128.644
1488.91	123.89
1490.47	118.017
1492.03	113.078
1493.59	107.95
1495.16	102.605
1496.72	99.6686
1498.28	95.0051
1499.84	91.0627
1501.4	88.5975
1502.96	85.3942
1504.52	82.6476
1506.08	78.7746
1507.64	75.3672
1509.19	72.3359
1510.75	70.2793
1512.31	66.9974
1513.87	63.9832
1515.42	61.0759
1516.98	57.4321
1518.54	54.7959
1520.1	52.6245
1521.65	50.1782
1523.21	47.5423
1524.76	45.4479
1526.32	44.5952
1527.87	44.1221
1529.43	43.1062
1530.98	42.1493
1532.54	41.6214
1534.09	41.3462
1535.64	41.9792
1537.2	43.7259
1538.75	44.6918
1540.3	46.3452
1541.85	47.1684
1543.41	47.5188
1544.96	49.3432
1546.51	51.8772
1548.06	53.3688
1549.61	56.655
1551.16	58.47
1552.71	60.9641
1554.26	62.4176
1555.81	63.8697
1557.36	65.6974
1558.91	66.9323
1560.46	68.7669
1562.01	70.4076
1563.56	72.7884
1565.1	75.3865
1566.65	79.352
1568.2	81.0613
1569.75	84.1249
1571.29	86.31
1572.84	89.1721
1574.38	91.4869
1575.93	94.2772
1577.48	97.3431
1579.02	99.8271
1580.57	102.446
1582.11	105.141
1583.65	106.492
1585.2	108.901
1586.74	111.962
1588.29	113.463
1589.83	114.568
1591.37	116.751
1592.92	117.365
1594.46	118.447
1596	119.131
1597.54	118.759
1599.08	119.252
1600.62	119.444
1602.16	120.256
1603.7	119.781
1605.24	119.495
1606.78	118.669
1608.32	118.162
1609.86	117.993
1611.4	117.383
1612.94	117.29
1614.48	117.118
1616.02	117.074
1617.56	117.948
1619.09	118.057
1620.63	119.167
1622.17	120.274
1623.71	121.518
1625.24	123.155
1626.78	124.692
1628.31	125.902
1629.85	128.681
1631.39	131.441
1632.92	135.265
1634.46	138.111
1635.99	140.386
1637.52	144.269
1639.06	148.735
1640.59	152.83
1642.12	158.22
1643.66	162.611
1645.19	164.805
1646.72	168.23
1648.25	171.452
1649.79	174.417
1651.32	177.815
1652.85	180.354
1654.38	182.341
1655.91	183.876
1657.44	185.574
1658.97	186.348
1660.5	187.028
1662.03	186.867
1663.56	184.707
1665.09	183.157
1666.62	180.736
1668.15	176.36
1669.67	172.643
1671.2	168.077
1672.73	162.835
1674.26	157.646
1675.79	152.529
1677.31	146.326
1678.84	139.699
1680.36	132.388
1681.89	125.535
1683.42	117.943
1684.94	111.211
1686.47	104.52
1687.99	97.8265
1689.51	91.5026
1691.04	84.9774
1692.56	78.8587
1694.08	72.8012
1695.61	66.2773
1697.13	60.7186
1698.65	56.5121
1700.18	52.527
1701.7	48.4343
1703.22	43.1593
1704.74	40.4259
1706.26	37.0403
1707.78	33.1375
1709.3	30.0856
1710.82	26.3631
1712.35	23.5943
1713.86	21.2036
1715.39	19.9628
1716.9	17.7315
1718.42	16.247
1719.94	13.772
1721.46	12.1642
1722.98	12.0582
1724.5	10.6841
1726.01	9.73999
1727.53	9.01432
1729.05	7.87275
1730.56	7.21411
1732.08	6.5062
1733.6	6.44883
1735.11	6.08273
1736.63	5.43783
1738.14	3.76343
1739.66	3.07798
1741.17	2.93764
1742.69	2.66262
1744.2	1.71347
1745.71	2.24209
1747.23	1.76855
1748.74	2.15348
1750.25	1.94942
1751.77	2.55219
1753.28	2.95329
1754.79	3.09823
1756.3	3.62224
1757.81	3.24886
1759.33	3.29788
1760.84	3.56436
1762.35	4.03001
1763.86	3.20122
1765.37	3.17343
1766.88	3.29951
1768.39	3.2522
1769.9	2.71089
1771.41	3.42473
1772.91	3.16972
1774.42	3.04208
1775.93	2.23154
1777.44	1.5655
1778.95	1.53556
1780.45	1.70364
1781.96	1.21138
1783.47	0.784439
1784.97	0.937671
1786.48	1.00015
1787.99	1.53161
1789.49	1.80269
1791	2.36145
1792.5	1.83659
1794.01	1.77294
1795.51	1.59169
1797.01	1.46704
1798.52	1.35583
1800.02	1.33493
1801.52	1.46585
1803.03	1.24183
1804.53	1.11661
1806.03	1.28673
1807.54	1.13115
1809.04	1.28311
1810.54	1.60874
1812.04	2.20468
1813.54	2.30322
1815.04	2.84625
1816.54	3.3787
1818.04	4.27782
1819.54	4.23769
1821.04	5.22747
1822.54	5.41139
1824.04	5.19694
1825.54	5.18555
1827.04	6.26202
1828.54	5.76618
1830.03	6.27489
1831.53	6.35442
1833.03	6.26536
1834.53	6.57716
1836.02	6.31468
1837.52	6.25901
1839.02	6.01397
1840.51	6.13756
1842.01	5.92501
1843.5	6.01788
1845	6.27986
1846.49	6.90828
1847.99	6.53786
1849.48	6.50283
1850.98	6.5479
1852.47	5.7606
1853.96	5.72849
1855.46	5.76736
1856.95	5.05799
1858.44	4.14259
1859.94	3.75534
1861.43	3.33218
1862.92	2.8633
1864.41	2.73283
1865.9	2.25475
1867.39	2.56812
1868.88	2.60947
1870.37	2.55554
1871.86	2.56785
1873.35	2.81121
1874.84	2.75957
1876.33	2.18275
1877.82	2.62653
1879.31	2.97479
1880.8	3.30764
1882.29	3.7791
1882.58	3.83079
1884.08	4.15204
1885.57	4.07327
1887.06	3.05309
1888.56	3.19119
1890.05	3.2668
1891.54	3.16975
1893.04	3.27071
1894.53	3.13083
1896.02	3.70756
1897.51	4.22326
1899	4.65035
1900.5	5.4356
1901.99	5.3786
1903.48	6.54684
1904.97	6.60447
1906.46	7.1843
1907.95	7.59807
1909.44	7.7709
1910.93	8.0794
1912.42	8.52183
1913.91	8.47625
1915.4	8.98056
1916.88	9.94933
1918.37	10.495
1919.86	10.9405
1921.35	10.4089
1922.84	10.2526
1924.32	10.2306
1925.81	10.1439
1927.3	10.592
1928.78	10.4031
1930.27	10.0725
1931.75	10.0481
1933.24	10.8247
1934.72	11.6946
1936.21	11.829
1937.69	11.2913
1939.18	10.8259
1940.66	10.6262
1942.15	10.3613
1943.63	10.1829
1945.11	10.1449
1946.6	10.0096
1948.08	9.63677
1949.56	9.18413
1951.04	8.7365
1952.53	8.30702
1954.01	7.53842
1955.49	6.79407
1956.97	5.95094
1958.45	6.00973
1959.93	4.95491
1961.41	5.09693
1962.89	5.60235
1964.37	5.43325
1965.85	5.44943
1967.33	5.41047
1968.81	4.47587
1970.29	4.42066
1971.77	3.65764
1973.24	3.7705
1974.72	3.58009
1976.2	3.27363
1977.68	3.82741
1979.15	3.27106
1980.63	3.47331
1982.11	2.65492
1983.58	2.13602
1985.06	2.17158
1986.53	3.05063
1988.01	3.80451
1989.48	4.86924
1990.96	5.19469
1992.43	5.47113
1993.91	5.70892
1995.38	5.99147
1996.86	6.8302
1998.33	7.45388
1999.8	8.85864
2001.27	8.71413
2002.75	9.26323
2004.22	9.20972
2005.69	9.53868
2007.16	9.47981
2008.64	8.91854
2010.11	8.71163
2011.58	8.20829
2013.05	8.12981
2014.52	8.17827
2015.99	8.86765
2017.46	8.75142
2018.93	8.81399
2020.4	9.03253
2021.87	9.30788
2023.34	9.89762
2024.8	10.2126
2026.27	10.8091
2027.74	10.9504
2029.21	12.323
2030.68	12.8453
2032.14	13.7268
2033.61	13.1355
2035.08	13.8088
2036.54	13.5791
2038.01	12.9649
2039.48	12.3034
2040.94	11.3484
2042.41	10.7848
2043.87	11.0466
2045.34	10.964
2046.8	11.3496
2048.27	10.8879
2049.73	11.6703
2051.19	11.4749
2052.66	10.8878
2054.12	10.6894
2055.58	10.2201
2057.05	10.6467
2058.51	11.7427
2059.97	12.4807
2061.43	12.3773
2062.9	12.485
2064.36	12.8614
2065.82	13.0783
2067.28	13.1144
2068.74	13.8739
2070.2	14.7187
2071.66	15.0692
2073.12	15.419
2074.58	14.6479
2076.04	15.8366
2077.5	16.1285
2078.95	16.4264
2080.41	15.8028
2081.87	15.7677
2083.33	15.9403
2084.79	15.4835
2086.24	15.6543
2087.7	16.4923
2089.16	17.3121
2090.61	17.6079
2092.07	18.4726
2093.53	20.2804
2094.98	20.7881
2096.44	21.2163
2097.89	22.024
2099.35	22.8415
2100.8	23.8415
2102.26	25.1092
2103.71	25.0464
2105.16	25.7578
2106.62	25.5728
2108.07	25.8317
2109.53	26.3747
2110.98	27.1785
2112.43	28.4063
2113.88	29.6542
2115.33	30.7975
2116.79	31.9063
2118.24	33.4878
2119.69	35.427
2121.14	36.7331
2122.59	38.2398
2124.04	39.0601
2125.49	41.4606
2126.94	43.1783
2128.39	45.6304
2129.84	48.929
2131.29	51.5454
2132.74	54.4809
2134.19	57.498
2135.63	60.163
2137.08	63.0206
2138.53	65.6797
2139.98	69.2331
2141.43	73.6848
2142.87	76.7013
2144.32	79.575
2145.77	82.8363
2147.21	86.5214
2148.66	89.4031
2150.1	93.48
2151.55	95.6092
2152.99	99.0897
2154.44	101.835
2155.88	104.899
2157.33	107.351
2158.77	110.201
2160.21	113.102
2161.66	116.123
2163.1	118.954
2164.55	122.19
2165.99	125.239
2167.43	126.601
2168.87	128.315
2170.31	129.998
2171.76	130.665
2173.2	131.558
2174.64	132.305
2176.08	132.385
2177.52	132.741
2178.96	132.185
2180.4	131.995
2181.84	131.865
2183.28	131.003
2184.72	129.454
2186.16	127.938
2187.6	125.614
2189.04	124.077
2190.47	123.222
2191.91	120.953
2193.35	118.631
2194.79	115.787
2196.23	112.928
2197.66	109.782
2199.1	106.916
2200.54	104.009
2201.97	100.921
2203.41	97.4277
2204.84	94.95
2206.28	91.8227
2207.71	88.7024
2209.15	85.8035
2210.58	82.9473
2212.02	80.6925
2213.45	78.6889
2214.89	75.6434
2216.32	73.3438
2217.75	70.5178
2219.19	68.1936
2220.62	65.5874
2222.05	63.4465
2223.48	59.5745
2224.92	58.4263
2226.35	55.3486
2227.78	53.5334
2229.21	51.2656
2230.64	49.2471
2232.07	47.5164
2233.5	46.3656
2234.93	44.5718
2236.36	43.2231
2237.79	41.1377
2239.22	39.3176
2240.65	37.8898
2242.08	36.9079
2243.51	34.7087
2244.94	33.8784
2246.37	33.1948
2247.79	31.7346
2249.22	30.8921
2250.65	29.014
2252.08	27.7965
2253.5	26.1264
2254.93	24.9344
2256.36	23.719
2257.78	22.3377
2259.21	20.9432
2260.63	20.1578
2262.06	19.6729
2263.48	18.387
2264.91	17.5288
2266.33	16.7554
2267.76	16.2179
2269.18	15.5722
2270.6	15.6206
2272.03	14.7758
2273.45	15.128
2274.87	14.9749
2276.3	14.8049
2277.72	14.517
2279.14	14.0157
2280.56	12.9133
2281.98	13.4969
2283.41	13.3587
2284.83	12.5348
2286.25	11.7735
2287.67	10.8059
2289.09	10.2275
2290.51	9.96373
2291.93	9.13033
2293.35	7.96401
2294.77	7.67548
2296.19	7.56837
2297.61	6.83999
2299.02	6.9926
2300.44	6.86689
2301.86	7.19775
2303.28	7.39997
2304.7	7.84611
2306.11	8.14036
2307.53	7.90829
2308.95	7.73239
2310.36	8.43594
2311.78	8.17998
2313.2	7.63693
2314.61	7.0183
2316.03	7.53135
2317.44	7.3736
2318.86	6.48648
2320.27	6.41905
2321.69	5.4929
2323.1	5.04991
2324.51	5.06657
2325.93	4.35136
2327.34	4.24671
2328.76	4.22564
2330.17	4.62969
2331.58	4.87435
2332.99	5.26212
2334.41	5.83519
2335.82	5.54823
2337.23	5.76226
2338.64	4.75564
2340.05	4.86648
2341.46	4.73391
2342.87	4.36619
2344.28	4.51567
2345.69	3.42365
2347.1	3.41246
2348.51	2.38173
2349.92	1.81523
2351.33	1.30663
2352.74	1.39869
2354.15	0.895481
2355.56	0.144704
2356.97	0.185451
2358.37	-0.228826
2359.78	-0.257473
2361.19	-0.522078
2362.6	-0.582147
2364	-0.884429
2365.41	-0.252542
2366.82	0.08296
2368.22	0.725334
2369.63	0.708578
2371.03	0.835078
2372.44	1.04154
2373.84	0.516021
2375.25	1.81102
2376.65	1.53467
2378.06	1.79329
2379.46	1.90075
2380.86	1.73146
2382.27	1.73059
2383.67	1.87297
2385.07	1.77514
2386.48	1.56387
2387.88	1.70954
2389.28	2.18676
2390.69	2.48273
2392.09	2.54782
2393.49	2.06868
2394.89	2.39762
2396.29	2.23157
2397.69	2.24159
2399.09	1.96766
2400.49	2.81397
2401.89	2.98216
2403.29	2.77235
2404.69	2.92248
2406.09	2.29351
2407.49	1.87247
2408.89	1.5969
2410.29	1.5548
2411.69	1.21067
2413.08	1.28686
2414.48	1.16912
2415.88	0.574318
2417.28	0.819904
2418.67	0.0434194
2420.07	1.00891
2421.47	0.967605
2422.86	1.20269
2424.26	1.16155
2425.65	0.636145
2427.05	1.23224
2428.45	1.96553
2429.84	1.56441
2431.23	1.20078
2432.63	0.84562
2434.02	0.115756
2435.42	0.178103
2436.81	-0.0881272
2438.2	0.144168
2439.6	0.098008
2440.99	1.06298
2442.38	1.15459
2443.78	1.57744
2445.17	2.37224
2446.56	1.98026
2447.95	2.69478
2449.34	2.80566
2450.73	3.38675
2452.13	3.95796
2453.52	3.78544
2454.91	3.30523
2456.3	4.61508
2457.69	4.91601
2459.08	5.29672
2460.47	5.4036
2461.85	5.68576
2463.24	6.02105
2464.63	6.92406
2466.02	7.36644
2467.41	7.04699
2468.8	7.35899
2470.19	7.97256
2471.57	7.16814
2472.96	6.3515
2474.35	6.65169
2475.73	6.01724
2477.12	5.53736
2478.51	5.55316
2479.89	5.57496
2481.28	6.33024
2482.66	6.8464
2484.05	6.8412
2485.43	6.57352
2486.82	6.7321
2488.2	6.25622
2489.59	6.03231
2490.97	5.60652
2492.35	5.36085
2493.74	4.96631
2495.12	4.99371
2496.5	4.94092
2497.89	4.60385
2499.27	2.85062
2500.65	2.25808
2502.03	1.34975
2503.42	1.0459
2504.8	1.19289
2506.18	0.826849
2507.56	1.3964
2508.94	1.3713
2510.32	1.36122
2511.7	0.729785
2513.08	0.783239
2514.46	0.645186
2515.84	0.713618
2517.22	0.88028
2518.6	0.644836
2519.98	0.51915
2521.36	1.02591
2522.73	1.54574
2524.11	1.88175
2525.49	3.4214
2526.87	3.6874
2528.25	4.53693
2529.62	5.21702
2531	5.57743
2532.38	5.99944
2533.75	6.04042
2535.13	5.57734
2536.5	5.73617
2537.88	6.2962
2539.25	6.00079
2540.63	6.22096
2542.01	6.2736
2543.38	7.14636
2544.75	6.56379
2546.13	7.03065
2547.5	7.00221
2548.88	6.96314
2550.25	6.13707
2551.62	5.9393
2553	5.77287
2554.37	5.54198
2555.74	5.58811
2557.11	5.36174
2558.49	5.67297
2559.86	5.8797
2561.23	5.83125
2562.6	6.26646
2563.97	6.34972
2565.34	6.18128
2566.71	5.53644
2568.08	4.86023
2569.45	4.6797
2570.82	4.8644
2572.19	5.34586
2573.56	5.13868
2574.93	4.90306
2576.3	5.25504
2577.67	4.6294
2579.03	4.06054
2580.4	4.28911
2581.77	4.63948
2583.14	5.38324
2584.5	5.96429
2585.87	6.4825
2587.24	6.85775
2588.6	7.63028
2589.97	8.2908
2591.34	8.39118
2592.7	9.24122
2594.07	9.84607
2595.43	10.1371
2596.8	10.8194
2598.16	10.8661
2599.53	11.4127
2600.89	12.0213
2602.26	12.6853
2603.62	12.7222
2604.98	13.5351
2606.35	12.6133
2607.71	11.928
2609.07	12.25
2610.44	12.0829
2611.8	11.9002
2613.16	10.9792
2614.52	10.2222
2615.88	9.8642
2617.25	9.31794
2618.61	8.90496
2619.97	9.53126
2621.33	9.33303
2622.69	9.1009
2624.05	8.76314
2625.41	8.20707
2626.77	8.65289
2628.13	8.48883
2629.49	8.35311
2630.85	8.17519
2632.21	7.33441
2633.56	6.63832
2634.92	5.864
2636.28	5.76564
2637.64	5.14138
2639	4.6648
2640.35	4.29394
2641.71	4.07312
2643.07	4.03049
2644.42	4.36152
2645.78	3.93797
2647.14	4.24886
2648.49	5.15082
2649.85	5.13137
2651.2	5.01447
2652.56	4.64106
2653.91	4.56101
2655.27	4.92381
2656.62	5.19484
2657.98	5.33602
2659.33	5.00202
2660.68	6.06015
2662.04	5.59789
2663.39	5.88071
2664.74	5.90538
2666.1	5.66421
2667.45	6.23604
2668.8	6.35204
2670.15	5.94966
2671.5	5.58102
2672.86	5.8367
2674.21	5.98405
2675.56	6.23394
2676.91	6.75564
2678.26	6.67798
2679.61	6.37186
2680.96	6.38265
2682.31	6.67801
2683.66	7.73274
2685.01	7.87548
2686.36	8.58223
2687.71	9.02791
2689.06	9.33171
2690.4	9.73583
2691.75	9.93531
2693.1	10.5088
2694.45	11.8501
2695.8	12.1063
2697.14	11.8743
2698.49	12.99
2699.84	12.9017
2701.18	13.4664
2702.53	13.6685
2703.88	15.1658
2705.22	16.0834
2706.57	17.2625
2707.91	18.1596
2709.26	18.8159
2710.6	19.0625
2711.95	20.3708
2713.29	20.5347
2714.64	21.1658
2715.98	21.7778
2717.32	21.9506
2718.67	22.3986
2720.01	22.7559
2721.35	23.1273
2722.7	23.0909
2724.04	22.6737
2725.38	22.2419
2726.72	21.7494
2728.06	22.1019
2729.4	21.9057
2730.75	22.1923
2732.09	21.7547
2733.43	22.1151
2734.77	21.6316
2736.11	21.4038
2737.45	21.2838
2738.79	20.9365
2740.13	20.5263
2741.47	19.537
2742.81	18.9853
2744.15	18.3559
2745.48	17.9163
2746.82	17.654
2748.16	17.8883
2749.5	17.5335
2750.84	16.5599
2752.17	15.4625
2753.51	14.1919
2754.85	12.9636
2756.19	12.6444
2757.52	12.7082
2758.86	12.0623
2760.19	11.117
2761.53	10.758
2762.86	10.553
2764.2	9.32984
2765.54	9.2936
2766.87	7.9593
2768.2	7.67514
2769.54	6.69104
2770.87	6.20799
2772.21	5.41579
2773.54	4.74392
2774.88	3.99128
2776.21	3.35648
2777.54	2.9432
2778.87	3.09962
2780.21	1.98268
2781.54	2.09778
2782.87	2.0695
2784.2	2.18985
2785.53	1.70531
2786.87	1.93592
2788.2	1.52396
2789.53	1.46101
2790.86	1.44395
2792.19	1.64809
2793.52	2.045
2794.85	2.67442
2796.18	2.47154
2797.51	2.00534
2798.84	1.811
2800.17	1.99471
2801.49	1.81225
2802.82	1.75456
2804.15	1.88676
2805.48	1.32913
2806.81	1.36207
2808.13	1.54592
2809.46	1.82345
2810.79	2.37745
2812.12	3.12357
2813.44	3.86042
2814.77	5.05901
2816.09	5.46277
2817.42	7.20588
2818.75	9.51241
2820.07	11.9378
2821.4	15.6713
2822.72	19.4509
2824.05	22.7764
2825.37	26.0437
2826.7	30.5914
2828.02	35.4652
2829.35	40.1976
2830.67	44.1437
2831.99	49.0179
2833.31	53.0215
2834.64	58.9408
2835.96	64.2164
2837.28	70.0725
2838.61	76.5052
2839.93	82.0919
2841.25	88.0485
2842.57	94.8299
2843.89	103.165
2845.21	111.453
2846.53	120.171
2847.85	129.107
2849.17	137.893
2850.49	148.096
2851.81	157.926
2853.13	168.652
2854.45	178.549
2855.77	188.774
2857.09	198.934
2858.41	209.487
2859.73	219.888
2861.05	229.412
2862.36	238.816
2863.68	248.796
2865	258.453
2866.32	267.235
2867.64	274.995
2868.95	282.06
2870.27	289.748
2871.59	296.832
2872.9	304.323
2874.22	311.506
2875.53	318.501
2876.85	326.205
2878.16	332.324
2879.48	338.742
2880.79	345.139
2882.11	351.924
2883.42	358.697
2884.74	364.645
2886.05	371.767
2887.36	378.425
2888.68	385.101
2889.99	391.175
2891.3	398.852
2892.62	405.238
2893.93	411.15
2895.24	418.654
2896.55	425.655
2897.86	433.446
2899.18	441.445
2900.49	450.369
2901.8	458.511
2903.11	468.172
2904.42	478.675
2905.73	490.17
2907.04	502.336
2908.35	515.929
2909.66	530.069
2910.97	543.87
2912.28	558.297
2913.59	572.495
2914.9	587.424
2916.21	602.229
2917.51	615.743
2918.82	629.628
2920.13	641.531
2921.44	652.307
2922.74	662.34
2924.05	670.956
2925.36	678.293
2926.67	684.49
2927.97	689.396
2929.28	692.753
2930.59	693.865
2931.89	694.384
2933.2	693.482
2934.5	691.645
2935.81	689.06
2937.11	684.777
2938.42	678.833
2939.72	671.353
2941.02	662.705
2942.33	653.008
2943.63	641.465
2944.94	629.911
2946.24	618.083
2947.54	604.143
2948.85	590.181
2950.15	576.592
2951.45	563.603
2952.75	549.27
2954.05	535.014
2955.36	520.054
2956.66	505.773
2957.96	490.165
2959.26	476.241
2960.56	462.998
2961.86	449.22
2963.16	435.815
2964.46	423.26
2965.76	411.413
2967.06	400.922
2968.36	391.969
2969.66	381.696
2970.96	372.404
2972.26	363.096
2973.56	354.967
2974.85	346.451
2976.15	338.01
2977.45	329.78
2978.75	322.117
2980.05	314.276
2981.34	306.294
2982.64	298.087
2983.94	289.112
2985.23	279.117
2986.53	270.512
2987.83	261.189
2989.12	252.282
2990.42	243.162
2991.71	233.097
2993.01	222.673
2994.3	212.564
2995.6	202.568
2996.89	193.06
2998.19	182.663
2999.48	172.232
3000.77	162.276
3002.07	151.664
3003.36	141.33
3004.65	131.44
3005.95	121.696
3007.24	112.883
3008.53	104.553
3009.82	96.1748
3011.12	88.1268
3012.41	80.1767
3013.7	74.3331
3014.99	67.9345
3016.28	61.4156
3017.57	55.2662
3018.86	49.2411
3020.15	43.7811
3021.44	39.2632
3022.73	34.9483
3024.02	30.9781
3025.31	27.7133
3026.6	25.4318
3027.89	23.4947
3029.18	21.4962
3030.47	19.8004
3031.76	18.7477
3033.04	17.5369
3034.33	15.8048
3035.62	15.4392
3036.91	15.3706
3038.19	15.6166
3039.48	15.7124
3040.77	16.3982
3042.05	17.8401
3043.34	19.0608
3044.63	19.8017
3045.91	19.7538
3047.2	20.669
3048.48	21.4854
3049.77	22.4173
3051.05	22.9277
3052.34	23.0004
3053.62	22.6522
3054.91	22.2502
3056.19	22.195
3057.48	22.7262
3058.76	22.5706
3060.04	22.7311
3061.33	22.6623
3062.61	22.8213
3063.89	22.328
3065.17	21.6219
3066.46	20.621
3067.74	20.5522
3069.02	20.0947
3070.3	19.7691
3071.59	19.5592
3072.87	19.0354
3074.15	17.1172
3075.43	15.8253
3076.71	14.5616
3077.99	13.0302
3079.27	11.9799
3080.55	10.889
3081.83	9.77426
3083.11	8.11648
3084.39	7.19267
3085.67	6.68373
3086.94	5.28489
3088.22	4.26775
3089.5	3.97675
3090.78	3.47722
3092.06	2.96163
3093.34	2.16533
3094.61	2.36368
3095.89	2.15619
3097.17	1.99691
3098.44	1.99882
3099.72	1.92775
3101	2.61067
3102.27	3.38718
3103.55	4.20465
3104.82	4.93307
3106.1	5.89038
3107.38	5.69491
3108.65	6.05017
3109.93	6.54171
3111.2	7.96196
3112.47	8.82357
3113.75	9.66136
3115.02	10.6292
3116.3	11.322
3117.57	11.5953
3118.84	13.067
3120.12	14.3642
3121.39	15.3169
3122.66	16.0673
3123.93	17.3526
3125.2	18.2319
3126.48	19.2162
3127.75	19.774
3129.02	20.5383
3130.29	21.8422
3131.56	23.3909
3132.83	24.2042
3134.1	25.2763
3135.37	25.8541
3136.64	26.6173
3137.91	26.8317
3139.18	28.3212
3140.45	29.7533
3141.72	31.1092
3142.99	32.5325
3144.26	33.8472
3145.53	35.6419
3146.8	37.5013
3148.07	38.8111
3149.33	41.1
