#Acq. time (s)=	45
#Accumulations=	2
#Range (cm-¹)=	200...3150
#Windows=	2
#Auto scanning=	Off
#Autofocus=	Off
#Macrospot=	Off
#AutoExposure=	Off
#Spike filter=	Multiple accum.
#Delay time (s)=	0
#Binning=	1
#Readout mode=	Signal
#DeNoise=	Off
#ICS correction=	On
#Dark correction=	Off
#Inst. Process=	Off
#Detector Gain=	Best Dynamic Range
#Detector ADC=	20 kHz       
#Detector temperature (°C)=	-69.85
#Instrument=	LabRAM HR Evol
#Detector=	Synapse
#Objective=	x100
#Grating=	600 gr/mm
#ND Filter=	100%
#Laser (nm)=	532 
#Hole=	100.021
#Range=	Auto
#Laser Pol.=	No
#Raman. Pol.=	No
#Laser Pol. (°)=	-0.0007625
#Raman Pol. (°)=	89.9995
#Collection=	Microscope
#StageXY=	Marzhauser
#StageZ=	Marzhauser
#X (µm)=	4718.2
#Y (µm)=	-7715.8
#Z (µm)=	584.45
#Full time(mm:ss)=	3:19
#Project=	
#Sample=	
#Site=	
#Title=	Thy_30_10_41_2x_45s_532 nm_x100_100%_600 gr_mm
#Remark=	
#Date=	30.06.2022 14:22
#Acquired=	30.06.2022 14:22:17
#Base:Fit=	10.08.2022 09:58:11
#Base:Sub=	10.08.2022 09:58:44
#Filter:Polynom=	16.08.2022 10:22:53
#AxisType[0]=Intens
#AxisUnit[0]=Cnt
#AxisType[1]=Spectr
#AxisUnit[1]=1/cm
200.533	0.337663
202.348	3.8502
204.162	4.39525
205.976	5.83351
207.792	7.15941
209.605	8.82044
211.418	10.0354
213.23	11.1019
215.044	12.7946
216.856	13.8563
218.667	15.2845
220.478	14.7074
222.289	14.1896
224.102	13.5274
225.912	13.3541
227.721	13.3874
229.531	12.996
231.34	12.5375
233.148	13.2509
234.956	14.0043
236.766	13.0346
238.574	12.8634
240.381	12.6646
242.188	11.678
243.994	10.9447
245.801	11.1767
247.606	10.8641
249.412	10.1274
251.217	10.0033
253.024	10.1414
254.828	9.2009
256.632	9.00725
258.436	10.1117
260.239	9.86253
262.042	9.62994
263.845	9.65883
265.647	9.16338
267.449	8.85409
269.25	9.20916
271.052	8.81605
272.852	8.16951
274.653	7.74079
276.453	7.28953
278.253	7.51806
280.052	7.11476
281.852	8.23606
283.65	8.44963
285.449	8.65656
287.247	9.35322
289.044	9.51071
290.842	9.73328
292.639	10.3659
294.436	12.52
296.232	12.4194
298.028	12.7448
299.821	12.9516
301.617	12.6966
303.412	13.3146
305.206	13.9261
307	13.2655
308.794	13.4647
310.588	12.8147
312.381	13.6221
314.172	14.0573
315.964	14.1371
317.756	13.9434
319.548	13.7319
321.34	13.7358
323.131	13.6712
324.921	12.4821
326.71	11.7743
328.5	11.9214
330.29	11.7097
332.079	11.8516
333.868	12.2111
335.654	12.7109
337.443	12.9953
339.231	12.9733
341.018	12.7657
342.804	11.8406
344.591	11.4066
346.377	11.1231
348.163	11.1661
349.947	9.81832
351.733	9.08789
353.518	8.5719
355.303	7.82517
357.085	7.39259
358.869	6.54761
360.653	5.69836
362.435	4.67745
364.218	5.19311
366.001	6.09491
367.781	5.7183
369.563	5.05731
371.345	5.28508
373.124	4.7843
374.905	5.87878
376.686	6.32572
378.464	5.91624
380.244	5.86448
382.022	6.17737
383.801	5.84862
385.58	4.78226
387.357	5.77909
389.135	6.3072
390.911	6.08499
392.689	6.10564
394.466	6.48749
396.241	7.23179
398.018	7.26866
399.792	7.22305
401.568	6.84685
403.341	6.79549
405.117	6.62828
406.889	6.85274
408.664	7.66915
410.436	7.87401
412.21	8.62747
413.981	9.4897
415.755	10.5908
417.525	10.4008
419.298	10.7187
421.068	10.9642
422.84	11.0489
424.609	11.0566
426.38	11.6879
428.149	10.9805
429.919	10.5691
431.688	9.86317
433.455	8.90345
435.225	8.27173
436.992	7.91343
438.76	7.00473
440.527	6.83933
442.293	6.37248
444.06	6.57386
445.826	7.74301
447.593	6.75934
449.357	6.7198
451.122	5.82514
452.888	5.9924
454.651	5.12896
456.415	3.77602
458.18	3.72184
459.942	3.21923
461.705	3.83346
463.469	3.942
465.23	2.45609
466.991	2.17639
468.752	2.24708
470.515	1.93052
472.275	1.23322
474.035	1.74928
475.797	2.62218
477.556	2.42817
479.315	2.98585
481.073	3.01593
482.834	4.00088
484.592	4.28465
486.349	4.50415
488.106	5.58219
489.863	6.55967
491.622	7.97494
493.378	7.88399
495.134	9.19474
496.889	10.1486
498.645	10.8237
500.401	11.6363
502.156	12.3781
503.91	12.598
505.664	12.6645
507.417	13.3076
509.171	13.4992
510.923	13.6061
512.678	13.4833
514.43	13.4809
516.182	13.1853
517.933	12.8772
519.684	12.1671
521.435	12.8086
523.186	12.5875
524.936	12.6926
526.686	12.2735
528.435	12.7987
530.184	12.6372
531.933	12.7705
533.682	12.5726
535.43	11.2391
537.18	10.4916
538.927	9.2465
540.674	9.46369
542.421	8.67935
544.167	8.25035
545.913	8.35731
547.659	7.26112
549.403	7.39286
551.148	6.84932
552.893	6.24021
554.637	6.32298
556.381	6.39419
558.125	6.2107
559.868	6.53174
561.611	6.87524
563.354	7.29386
565.097	6.41302
566.839	5.75645
568.581	5.31199
570.322	4.99284
572.063	4.77116
573.802	4.7233
575.542	4.88602
577.283	4.91826
579.022	4.61999
580.762	4.69794
582.501	5.86377
584.24	5.63812
585.976	5.65265
587.714	5.5591
589.452	5.51057
591.19	4.92393
592.927	5.03923
594.663	5.04562
596.398	5.00882
598.134	5.36117
599.87	5.39269
601.605	5.95478
603.338	6.19292
605.073	5.36527
606.808	5.3321
608.542	5.43719
610.274	5.44291
612.007	6.01074
613.74	5.74853
615.473	6.55113
617.204	6.46577
618.936	6.58504
620.668	7.09963
622.397	5.89225
624.128	5.23243
625.859	5.77731
627.588	6.98482
629.318	7.66224
631.048	9.05564
632.775	9.37649
634.505	9.65616
636.233	11.0106
637.96	11.8607
639.688	11.642
641.416	12.2018
643.142	13.5151
644.869	13.6653
646.594	14.1084
648.32	14.4045
650.045	14.3247
651.771	14.0633
653.496	14.859
655.219	15.8475
656.944	16.2623
658.667	17.0902
660.391	18.4446
662.113	20.657
663.837	21.0125
665.558	20.9741
667.281	22.1561
669.002	22.4134
670.724	23.5539
672.444	24.7959
674.166	25.8413
675.885	26.9321
677.606	28.1065
679.325	28.4935
681.045	28.3853
682.763	29.1342
684.483	30.3124
686.2	30.226
687.917	30.8733
689.636	30.7691
691.352	31.473
693.07	32.21
694.786	32.7444
696.501	33.1625
698.219	31.9062
699.933	31.6575
701.65	32.5649
703.364	32.7004
705.078	33.1942
706.793	33.5871
708.506	33.3012
710.219	34.0403
711.934	34.551
713.646	35.1543
715.358	35.2027
717.071	35.4482
718.782	35.1615
720.493	35.3748
722.204	36.0674
723.916	35.9571
725.626	35.4784
727.336	36.6871
729.045	37.8202
730.756	38.3368
732.464	39.2468
734.173	39.9303
735.881	40.1251
737.59	41.7193
739.297	43.1062
741.004	44.1438
742.711	45.0736
744.417	46.8465
746.125	48.621
747.831	49.6836
749.537	49.5885
751.242	50.9485
752.946	53.5036
754.651	54.4067
756.357	56.3426
758.061	57.1725
759.764	58.4944
761.467	59.9017
763.17	61.1098
764.872	61.8746
766.575	63.1806
768.276	65.776
769.978	67.6877
771.679	68.0538
773.382	68.9648
775.083	69.7804
776.783	70.6388
778.483	70.756
780.182	71.8408
781.882	73.2419
783.581	73.6625
785.279	75.2996
786.978	76.7162
788.676	76.8527
790.373	77.0194
792.071	78.3159
793.768	78.6444
795.464	78.6471
797.161	79.7362
798.857	81.0063
800.552	81.5378
802.248	82.5
803.941	83.5636
805.636	83.9794
807.33	84.5823
809.024	84.8403
810.718	86.125
812.412	87.4936
814.105	87.4475
815.798	88.2189
817.49	88.4284
819.183	88.2472
820.873	88.5157
822.564	89.1012
824.256	89.7888
825.947	89.3648
827.637	89.2048
829.328	89.44
831.016	88.339
832.705	87.9698
834.395	87.003
836.084	86.376
837.772	85.905
839.459	84.0355
841.147	83.0135
842.835	82.1216
844.522	80.7795
846.209	79.4834
847.894	78.3882
849.581	77.1996
851.267	75.2642
852.953	74.5513
854.637	72.496
856.322	70.1987
858.007	68.5544
859.689	67.3701
861.374	66.7725
863.058	65.8766
864.739	64.9913
866.423	63.1118
868.106	61.0295
869.787	59.9687
871.469	59.073
873.151	58.9351
874.831	58.3398
876.512	57.9707
878.193	57.2982
879.872	56.7589
881.553	57.4763
883.231	57.5118
884.911	56.8876
886.591	57.4793
888.268	57.4369
889.947	56.6883
891.623	56.859
893.302	57.1237
894.978	57.4355
896.656	56.6926
898.331	56.1176
900.008	56.7247
901.683	57.0713
903.359	56.6909
905.033	57.1443
906.709	56.9251
908.383	56.8341
910.058	55.692
911.731	55.9051
913.405	55.5864
915.078	55.184
916.752	54.9958
918.423	53.7024
920.096	53.3617
921.768	52.7956
923.438	51.1164
925.111	49.9881
926.781	49.7557
928.452	48.2554
930.122	48.1715
931.791	47.0643
933.462	46.2477
935.13	44.8435
936.799	44.7568
938.468	43.514
940.136	42.286
941.803	40.9272
943.472	38.6411
945.139	38.5421
946.805	37.4727
948.473	36.6891
950.139	35.9093
951.804	35.8365
953.471	35.835
955.136	35.7333
956.801	35.2836
958.465	33.6131
960.131	33.4283
961.794	32.9495
963.458	32.2891
965.12	33.8668
966.785	34.3709
968.447	34.396
970.109	35.3215
971.771	35.2408
973.432	35.6292
975.095	36.6057
976.756	37.2272
978.417	37.5783
980.077	37.9014
981.737	38.3703
983.396	40.1128
985.057	40.4226
986.716	41.04
988.375	41.9264
990.033	42.4765
991.691	43.115
993.349	44.0822
995.006	45.3304
996.663	45.0551
998.32	45.5435
999.976	45.3533
1001.63	45.4694
1003.29	45.1117
1004.95	45.4025
1006.6	45.7286
1008.26	45.1102
1009.91	45.4253
1011.56	44.8974
1013.22	45.1806
1014.87	43.9965
1016.53	43.773
1018.18	42.5919
1019.83	41.5411
1021.48	40.1178
1023.14	39.3492
1024.79	38.3798
1026.44	37.8813
1028.09	38.9415
1029.74	37.744
1031.39	37.252
1033.04	35.5582
1034.69	34.6583
1036.34	33.3549
1037.99	32.7464
1039.64	31.3481
1041.29	30.7447
1042.94	30.3223
1044.58	30.6162
1046.23	30.9012
1047.88	31.2688
1049.52	30.842
1051.17	30.3189
1052.82	30.1122
1054.46	29.7074
1056.11	29.0953
1057.75	29.7871
1059.4	29.0406
1061.04	28.9438
1062.69	28.7158
1064.33	29.1403
1065.98	29.6953
1067.62	29.3465
1069.26	29.9707
1070.9	29.7015
1072.55	30.0247
1074.19	29.7758
1075.83	29.6367
1077.47	29.4267
1079.11	28.8132
1080.76	28.6982
1082.4	27.9921
1084.04	27.7485
1085.68	27.5459
1087.32	27.86
1088.95	27.5402
1090.59	26.8523
1092.23	27.5602
1093.87	27.6366
1095.51	27.4567
1097.15	27.3327
1098.78	27.7308
1100.42	27.6778
1102.06	28.1019
1103.69	28.4751
1105.33	29.0583
1106.97	28.5658
1108.6	28.7985
1110.24	28.737
1111.87	28.2179
1113.51	27.533
1115.14	26.5034
1116.77	25.4151
1118.41	24.2174
1120.04	23.694
1121.67	22.5489
1123.31	22.5644
1124.94	22.3523
1126.57	22.2746
1128.2	20.6869
1129.83	20.1059
1131.47	19.155
1133.1	18.3136
1134.72	17.7083
1136.36	16.9177
1137.98	16.6351
1139.62	16.5595
1141.24	14.8961
1142.87	14.3051
1144.5	13.5929
1146.13	13.8614
1147.76	13.061
1149.38	12.4093
1151.01	11.2804
1152.64	10.7305
1154.27	10.0598
1155.89	9.29663
1157.52	9.02014
1159.14	8.34488
1160.77	7.5753
1162.39	6.96714
1164.02	6.22521
1165.64	6.54159
1167.27	6.84387
1168.89	7.17319
1170.51	7.96759
1172.14	7.74627
1173.76	7.76196
1175.38	7.66598
1177	8.05872
1178.63	9.04222
1180.25	9.92535
1181.87	10.4864
1183.49	11.192
1185.11	11.861
1186.73	11.8291
1188.35	11.7183
1189.97	12.2303
1191.59	12.5907
1193.21	12.3774
1194.83	12.7063
1196.45	13.3776
1198.07	13.647
1199.68	14.7376
1201.3	16.5395
1202.92	17.9475
1204.53	18.9668
1206.15	19.4044
1207.77	20.2834
1209.38	20.7515
1211	21.9517
1212.62	23.8815
1214.23	25.873
1215.84	26.7762
1217.46	28.1262
1219.07	28.7968
1220.69	29.7817
1222.3	30.9349
1223.91	32.927
1225.53	34.6647
1227.14	37.0333
1228.75	37.4003
1230.36	38.3742
1231.97	39.414
1233.59	41.2858
1235.2	41.9907
1236.81	42.272
1238.42	44.1215
1240.03	44.6215
1241.64	45.4369
1243.25	45.7215
1244.85	46.9374
1246.46	48.2591
1248.07	48.8971
1249.68	49.9109
1251.29	50.0976
1252.9	50.9094
1254.5	51.7824
1256.11	52.2155
1257.72	53.7
1259.32	54.402
1260.93	54.5963
1262.54	54.7083
1264.14	56.1928
1265.75	56.6424
1267.35	57.226
1268.96	58.3277
1270.56	59.0738
1272.16	60.2643
1273.77	60.8035
1275.37	61.8203
1276.97	61.8304
1278.57	62.7777
1280.18	64.1753
1281.78	65.2188
1283.38	65.4644
1284.98	66.1954
1286.58	67.4893
1288.18	68.6219
1289.78	69.0733
1291.38	70.0129
1292.99	71.0309
1294.58	69.6428
1296.18	69.0266
1297.78	69.0748
1299.38	69.4541
1300.98	69.7683
1302.58	69.4555
1304.17	69.7525
1305.77	69.7696
1307.37	69.9675
1308.97	69.6193
1310.56	69.7107
1312.16	69.8027
1313.76	70.2106
1315.35	69.7914
1316.95	69.8978
1318.54	70.3592
1320.14	68.8939
1321.73	68.5556
1323.32	67.7209
1324.92	68.0949
1326.51	67.0874
1328.1	66.4672
1329.7	65.6707
1331.29	64.9018
1332.88	64.449
1334.47	63.8699
1336.07	63.5162
1337.66	63.4481
1339.25	62.6218
1340.84	62.7692
1342.43	62.59
1344.02	62.1855
1345.61	60.7503
1347.2	59.8174
1348.79	58.3667
1350.37	57.2495
1351.96	57.2945
1353.55	56.0128
1355.14	55.7227
1356.73	54.8499
1358.31	54.3079
1359.9	52.0356
1361.49	50.3784
1363.07	49.2458
1364.66	48.1442
1366.25	46.9867
1367.83	45.3459
1369.42	43.9931
1371	42.3289
1372.59	40.7958
1374.17	39.2588
1375.75	39.1446
1377.34	38.8935
1378.92	38.3239
1380.5	37.0453
1382.09	36.9427
1383.67	36.7893
1385.25	36.4877
1386.83	35.57
1388.42	35.1755
1390	34.2458
1391.58	32.7515
1393.16	32.0594
1394.74	31.4783
1396.32	31.4755
1397.9	30.5045
1399.48	29.9516
1401.06	30.4529
1402.64	30.0151
1404.21	29.952
1405.79	29.9718
1407.37	30.7237
1408.95	31.8331
1410.53	32.4498
1412.1	33.8876
1413.68	35.2682
1415.26	35.7678
1416.83	37.3204
1418.41	38.7728
1419.98	40.3467
1421.56	41.8509
1423.13	43.7601
1424.71	45.1133
1426.28	47.8832
1427.86	49.887
1429.43	52.6459
1431	54.4533
1432.58	55.5442
1434.15	57.6684
1435.72	58.3199
1437.29	59.5891
1438.87	60.2676
1440.44	62.1895
1442.01	63.8086
1443.58	65.3112
1445.15	66.9877
1446.72	67.6686
1448.29	67.4613
1449.86	67.4126
1451.43	67.8396
1453	67.2474
1454.57	67.105
1456.14	66.2327
1457.71	64.1874
1459.27	63.2288
1460.84	61.9908
1462.41	60.3979
1463.98	58.104
1465.54	55.696
1467.11	53.342
1468.67	50.3036
1470.24	48.2913
1471.81	46.3923
1473.37	43.873
1474.94	40.177
1476.5	36.6711
1478.07	34.0796
1479.63	32.0212
1481.19	29.1598
1482.76	26.7151
1484.32	24.9839
1485.88	22.8593
1487.45	21.2257
1489.01	18.5447
1490.57	17.7597
1492.13	15.491
1493.69	14.0929
1495.26	13.592
1496.82	12.6108
1498.38	12.6934
1499.94	12.1992
1501.5	11.8748
1503.06	11.4208
1504.62	12.1875
1506.17	11.6185
1507.73	11.121
1509.29	10.0918
1510.85	10.5154
1512.41	11.173
1513.97	11.1195
1515.52	11.8758
1517.08	12.1023
1518.64	13.6551
1520.19	14.9716
1521.75	15.56
1523.31	16.3256
1524.86	16.4981
1526.42	16.9293
1527.97	17.8352
1529.52	18.7858
1531.08	19.4498
1532.63	21.1942
1534.19	21.7667
1535.74	23.2987
1537.29	25.2096
1538.85	26.3628
1540.4	28.1943
1541.95	29.4088
1543.5	30.5414
1545.06	31.8286
1546.61	32.9636
1548.16	34.8072
1549.71	35.7018
1551.26	36.9741
1552.81	37.8926
1554.36	39.5
1555.91	41.0542
1557.46	42.7658
1559.01	43.6835
1560.56	44.5953
1562.11	45.8632
1563.65	46.5859
1565.2	47.9441
1566.75	48.8574
1568.29	50.4293
1569.84	51.3926
1571.39	52.8135
1572.94	54.2554
1574.48	54.7614
1576.03	55.891
1577.57	55.65
1579.12	56.5686
1580.66	57.2201
1582.21	58.1371
1583.75	58.1452
1585.3	57.6255
1586.84	58.1845
1588.38	58.6099
1589.93	58.9567
1591.47	58.8709
1593.01	58.7001
1594.55	58.4503
1596.1	58.3335
1597.64	57.5546
1599.18	57.2534
1600.72	56.2368
1602.26	55.7028
1603.8	54.7095
1605.34	54.2781
1606.88	53.986
1608.42	54.2916
1609.96	54.3562
1611.5	54.6261
1613.04	55.1124
1614.58	54.4544
1616.12	54.5288
1617.65	55.0546
1619.19	54.3059
1620.73	54.6564
1622.27	55.6614
1623.8	56.2759
1625.34	57.6237
1626.87	57.9197
1628.41	58.2924
1629.95	59.6172
1631.48	60.9216
1633.02	63.0742
1634.55	64.519
1636.09	66.2536
1637.62	67.6942
1639.15	69.0921
1640.69	70.1288
1642.22	71.7419
1643.76	73.4585
1645.29	74.7643
1646.82	76.0721
1648.35	76.9485
1649.88	77.695
1651.42	77.8986
1652.95	79.0516
1654.48	79.4679
1656.01	80.2941
1657.54	80.686
1659.07	80.8509
1660.6	80.6527
1662.13	80.5662
1663.66	79.8479
1665.19	78.5855
1666.72	77.8764
1668.24	76.6881
1669.77	75.0635
1671.3	73.5271
1672.83	71.0006
1674.35	68.8818
1675.88	66.0908
1677.41	62.841
1678.93	60.46
1680.46	57.8914
1681.99	55.6146
1683.51	53.2705
1685.04	51.1189
1686.56	48.7685
1688.09	45.9636
1689.61	42.9012
1691.13	40.1828
1692.66	37.5323
1694.18	35.5151
1695.71	32.6722
1697.23	30.5934
1698.75	28.3987
1700.27	26.1233
1701.8	23.5789
1703.32	21.3992
1704.84	19.4364
1706.36	17.885
1707.88	16.5191
1709.4	15.1072
1710.92	13.1188
1712.44	11.4405
1713.96	9.74419
1715.48	8.4719
1717	7.3655
1718.52	6.33942
1720.04	5.88267
1721.56	4.99528
1723.07	4.30602
1724.59	3.58279
1726.11	3.33259
1727.63	2.92425
1729.14	3.07423
1730.66	3.02746
1732.18	2.84081
1733.69	3.27997
1735.21	3.48069
1736.72	2.92708
1738.24	2.54912
1739.75	2.0775
1741.27	2.46184
1742.78	2.7844
1744.3	2.52668
1745.81	2.05983
1747.32	1.64497
1748.84	1.12806
1750.35	1.65473
1751.86	1.50123
1753.37	2.23535
1754.89	2.38024
1756.4	2.9711
1757.91	2.68486
1759.42	2.94823
1760.93	2.74057
1762.44	2.60549
1763.95	2.27625
1765.46	2.47
1766.97	2.51706
1768.48	1.63397
1769.99	1.99378
1771.5	1.21633
1773.01	0.951635
1774.52	0.962995
1776.03	0.430258
1777.53	0.106707
1779.04	0.0307609
1780.55	-0.0474296
1782.06	0.567141
1783.56	0.919658
1785.07	0.96235
1786.57	0.986322
1788.08	0.929698
1789.59	1.05508
1791.09	0.614251
1792.6	0.717332
1794.1	0.814702
1795.6	0.946449
1797.11	1.11249
1798.61	1.47108
1800.12	1.80256
1801.62	2.26941
1803.12	2.5436
1804.63	3.37342
1806.13	3.75556
1807.63	4.17522
1809.13	4.1121
1810.63	4.41919
1812.14	4.54854
1813.64	5.32592
1815.14	5.45642
1816.64	5.51612
1818.14	5.35442
1819.64	5.74425
1821.14	6.38936
1822.64	7.16175
1824.14	7.13617
1825.63	7.77885
1827.13	7.70109
1828.63	8.08101
1830.13	7.7826
1831.63	7.88476
1833.12	7.584
1834.62	7.68773
1836.12	7.91771
1837.62	8.45088
1839.11	8.23553
1840.61	7.87106
1842.1	7.88296
1843.6	7.82597
1845.09	8.41727
1846.59	8.56731
1848.08	8.40478
1849.58	8.44267
1851.07	8.66565
1852.57	8.42381
1854.06	8.50157
1855.55	8.76106
1857.04	8.79453
1858.54	9.02151
1860.03	9.71115
1861.52	9.37776
1863.01	9.33967
1864.5	9.58781
1866	9.49263
1867.49	9.58611
1868.98	9.83954
1870.47	10.0864
1871.96	10.0586
1873.45	10.8552
1874.94	10.6599
1876.43	11.4422
1877.92	11.671
1879.41	12.0617
1880.89	11.8616
1882.38	12.1704
1882.48	12.2142
1883.97	12.3733
1885.47	12.6562
1886.96	13.2594
1888.46	13.5811
1889.95	14.099
1891.44	14.553
1892.94	14.7047
1894.43	14.608
1895.92	14.5303
1897.41	13.9982
1898.9	14.7363
1900.4	14.2011
1901.89	13.675
1903.38	12.9046
1904.87	12.6777
1906.36	12.7294
1907.85	12.9426
1909.34	13.2951
1910.83	12.6333
1912.32	12.086
1913.81	12.506
1915.29	12.2854
1916.78	12.7463
1918.27	12.5806
1919.76	12.3794
1921.25	11.8569
1922.74	11.6757
1924.22	11.5996
1925.71	10.9346
1927.2	11.2827
1928.68	11.5922
1930.17	11.8862
1931.65	12.1271
1933.14	12.4268
1934.63	11.683
1936.11	11.9395
1937.59	12.2304
1939.08	11.8124
1940.56	11.7244
1942.05	12.0574
1943.53	11.9803
1945.01	11.907
1946.5	12.4594
1947.98	11.9383
1949.46	12.5818
1950.94	12.4846
1952.43	12.7636
1953.91	13.0243
1955.39	13.3208
1956.87	13.5145
1958.35	13.2728
1959.83	13.4763
1961.31	13.7309
1962.79	13.5339
1964.27	13.6802
1965.75	14.0488
1967.23	13.8845
1968.71	14.2692
1970.19	14.7158
1971.67	14.8434
1973.14	15.0128
1974.62	14.9562
1976.1	14.5588
1977.58	14.9087
1979.05	14.9498
1980.53	14.8097
1982.01	14.5131
1983.48	14.4188
1984.96	14.4537
1986.43	14.7918
1987.91	14.9224
1989.38	14.9366
1990.86	15.6216
1992.33	15.3001
1993.81	15.056
1995.28	14.6066
1996.76	14.8799
1998.23	15.2259
1999.7	15.696
2001.18	16.35
2002.65	16.4698
2004.12	16.4722
2005.59	17.1056
2007.06	17.2562
2008.54	17.0473
2010.01	17.5268
2011.48	17.3588
2012.95	17.3806
2014.42	17.8114
2015.89	18.1234
2017.36	18.4366
2018.83	18.8266
2020.3	18.696
2021.77	18.5901
2023.24	18.5487
2024.71	18.4817
2026.17	18.2332
2027.64	18.7012
2029.11	18.5498
2030.58	18.5159
2032.04	18.4271
2033.51	18.8086
2034.98	19.7421
2036.45	19.658
2037.91	20.1222
2039.38	20.1808
2040.84	19.5127
2042.31	19.3932
2043.77	19.1528
2045.24	19.1887
2046.7	19.2078
2048.17	19.0577
2049.63	18.5755
2051.1	18.6642
2052.56	18.0527
2054.02	18.2017
2055.48	18.4303
2056.95	19.2319
2058.41	19.8507
2059.87	19.357
2061.33	18.8945
2062.8	18.8423
2064.26	19.0108
2065.72	18.7817
2067.18	18.7045
2068.64	19.3605
2070.1	20.3112
2071.56	20.311
2073.02	20.5852
2074.48	20.4545
2075.94	21.0565
2077.4	21.1324
2078.86	21.1049
2080.31	21.0946
2081.77	21.3806
2083.23	22.4847
2084.69	22.9126
2086.14	23.8902
2087.6	24.1291
2089.06	24.4394
2090.52	24.5063
2091.97	24.5349
2093.43	24.5051
2094.88	24.8794
2096.34	24.9875
2097.79	26.1183
2099.25	26.5254
2100.7	27.5483
2102.16	27.7628
2103.61	28.4432
2105.07	29.5065
2106.52	30.2939
2107.97	30.5535
2109.43	30.8212
2110.88	31.4973
2112.33	31.8418
2113.78	32.9976
2115.24	34.1969
2116.69	35.3141
2118.14	37.3888
2119.59	38.2385
2121.04	39.1497
2122.49	40.6997
2123.94	41.5944
2125.39	42.5439
2126.84	43.8897
2128.29	45.2535
2129.74	46.4256
2131.19	47.9126
2132.64	48.6995
2134.09	50.2916
2135.54	52.2176
2136.98	53.8672
2138.43	54.6662
2139.88	56.1867
2141.33	57.8034
2142.77	58.7741
2144.22	60.1871
2145.67	61.7323
2147.11	63.0881
2148.56	64.7398
2150.01	65.3278
2151.45	66.8759
2152.9	68.6224
2154.34	69.8298
2155.79	71.4878
2157.23	72.5843
2158.67	73.7078
2160.12	74.627
2161.56	75.6524
2163	76.7631
2164.45	78.1117
2165.89	79.1694
2167.33	79.5505
2168.78	80.1384
2170.22	81.3227
2171.66	81.8155
2173.1	82.7811
2174.54	83.0608
2175.98	83.6115
2177.42	83.5798
2178.86	83.0288
2180.3	82.9184
2181.74	82.8244
2183.18	82.407
2184.62	82.771
2186.06	82.4889
2187.5	81.9677
2188.94	81.6328
2190.38	80.8209
2191.82	78.7792
2193.25	77.5377
2194.69	76.3786
2196.13	74.7474
2197.57	72.9953
2199	72.0493
2200.44	71.229
2201.88	69.7192
2203.31	68.5755
2204.75	66.0383
2206.18	64.2184
2207.62	62.3225
2209.05	60.0631
2210.49	57.8137
2211.92	56.2826
2213.36	54.579
2214.79	52.3276
2216.22	50.6548
2217.66	48.4232
2219.09	47.3049
2220.52	45.5756
2221.96	43.3754
2223.39	42.1369
2224.82	40.3945
2226.25	39.117
2227.68	37.7826
2229.11	36.5147
2230.55	35.674
2231.98	34.6957
2233.41	33.5775
2234.84	33.0394
2236.27	32.0019
2237.7	31.2915
2239.12	30.1731
2240.55	29.6597
2241.98	29.2733
2243.41	28.6321
2244.84	27.9859
2246.27	27.8146
2247.7	27.6514
2249.12	26.9116
2250.55	26.4132
2251.98	26.3659
2253.41	25.7848
2254.83	25.7877
2256.26	25.7946
2257.68	25.16
2259.11	24.579
2260.54	24.0595
2261.96	23.0001
2263.39	22.7675
2264.81	22.8804
2266.24	22.7282
2267.66	22.471
2269.08	22.1918
2270.51	22.1707
2271.93	21.7829
2273.35	21.4094
2274.78	20.8148
2276.2	20.2012
2277.62	19.9094
2279.04	19.1314
2280.47	18.2828
2281.89	17.6961
2283.31	17.6047
2284.73	16.763
2286.15	16.1909
2287.57	16.5351
2288.99	16.2851
2290.41	16.2164
2291.83	15.4071
2293.25	15.0959
2294.67	15.6741
2296.09	15.9398
2297.51	16.8945
2298.93	16.8494
2300.35	17.1608
2301.76	17.3215
2303.18	17.2772
2304.6	17.6931
2306.02	18.138
2307.44	18.1075
2308.85	18.497
2310.27	18.2451
2311.69	18.6011
2313.1	19.4326
2314.52	19.9007
2315.93	19.8224
2317.35	19.4994
2318.76	19.6342
2320.18	19.4811
2321.59	19.3143
2323.01	19.2236
2324.42	18.8482
2325.83	19.1483
2327.25	18.7811
2328.66	18.0211
2330.07	17.9782
2331.49	18.3532
2332.9	18.1085
2334.31	17.7937
2335.72	17.2359
2337.13	16.3756
2338.55	15.6164
2339.96	15.2158
2341.37	14.5119
2342.78	13.6764
2344.19	13.0141
2345.6	12.1821
2347.01	11.4964
2348.42	10.5343
2349.83	9.90135
2351.24	9.48417
2352.65	9.10555
2354.05	9.06518
2355.46	8.16163
2356.87	8.39066
2358.28	7.85704
2359.69	7.16876
2361.09	7.65824
2362.5	7.95865
2363.91	8.12867
2365.31	8.7826
2366.72	8.93725
2368.13	8.34354
2369.53	7.66114
2370.94	7.74243
2372.34	7.70115
2373.75	7.81856
2375.15	7.91556
2376.56	7.50755
2377.96	7.31296
2379.37	6.77308
2380.77	6.54519
2382.17	6.76012
2383.58	6.90593
2384.98	6.91851
2386.38	6.93046
2387.79	6.95771
2389.19	7.37942
2390.59	7.06832
2391.99	6.68632
2393.39	6.50906
2394.8	6.4918
2396.2	6.54312
2397.6	5.76648
2399	5.76518
2400.4	6.06876
2401.8	5.99462
2403.2	5.55784
2404.6	4.87977
2406	5.17932
2407.4	5.02319
2408.79	4.87041
2410.19	5.19722
2411.59	4.94664
2412.99	5.02172
2414.39	5.58581
2415.78	5.61777
2417.18	5.25727
2418.58	5.14944
2419.98	5.07977
2421.37	5.06342
2422.77	5.03689
2424.16	5.45899
2425.56	5.11743
2426.96	5.23363
2428.35	4.89418
2429.74	5.27244
2431.14	5.34753
2432.53	5.2058
2433.93	5.4267
2435.32	5.31739
2436.72	4.65239
2438.11	4.11918
2439.5	4.30753
2440.9	4.3331
2442.29	4.00921
2443.68	3.85812
2445.07	3.87471
2446.47	3.83975
2447.86	4.0113
2449.25	4.19905
2450.64	4.35144
2452.03	4.27573
2453.42	4.05248
2454.81	3.78558
2456.2	3.42001
2457.59	3.05456
2458.98	3.01234
2460.37	2.90363
2461.76	2.29146
2463.15	2.17921
2464.54	1.77583
2465.93	1.57981
2467.32	1.54787
2468.7	1.68926
2470.09	1.94965
2471.48	2.23161
2472.87	1.79741
2474.25	1.53605
2475.64	2.21994
2477.03	1.57768
2478.41	1.45609
2479.8	1.92249
2481.18	2.14993
2482.57	1.9955
2483.95	1.87737
2485.34	1.80213
2486.72	1.86008
2488.11	1.8363
2489.49	2.0573
2490.88	2.13065
2492.26	1.80038
2493.65	1.91262
2495.03	1.87831
2496.41	1.82444
2497.79	1.62734
2499.18	1.95386
2500.56	1.87875
2501.94	2.09364
2503.32	2.10393
2504.7	1.93025
2506.09	1.89662
2507.47	1.74626
2508.85	1.67197
2510.23	1.40583
2511.61	1.36237
2512.99	1.701
2514.37	1.69037
2515.75	1.15973
2517.13	0.873341
2518.51	0.367826
2519.89	-0.174641
2521.26	-0.0175461
2522.64	-0.121735
2524.02	0.0567803
2525.4	0.165641
2526.78	-0.291841
2528.15	-0.419639
2529.53	-0.385834
2530.91	-0.733031
2532.28	-0.494256
2533.66	-0.231106
2535.04	-0.150158
2536.41	0.0348266
2537.79	0.284592
2539.16	0.318708
2540.54	0.3646
2541.91	0.0721761
2543.29	-0.0344383
2544.66	0.482062
2546.04	0.336217
2547.41	0.945086
2548.78	1.59739
2550.16	1.94379
2551.53	1.82292
2552.9	1.99433
2554.27	2.73773
2555.65	2.81604
2557.02	3.09682
2558.39	3.09596
2559.76	2.99172
2561.13	3.06529
2562.51	3.29538
2563.88	2.99919
2565.25	2.86111
2566.62	2.95689
2567.99	3.41514
2569.36	3.56841
2570.73	3.0586
2572.1	2.62174
2573.47	2.42928
2574.84	2.01317
2576.2	1.97446
2577.57	1.38022
2578.94	0.911436
2580.31	1.00972
2581.68	0.69889
2583.05	0.0940959
2584.41	0.254824
2585.78	0.550786
2587.15	0.309273
2588.51	0.402117
2589.88	0.406124
2591.24	0.644281
2592.61	0.488396
2593.98	0.323168
2595.34	0.385093
2596.71	1.00538
2598.07	1.09864
2599.44	0.633994
2600.8	0.654453
2602.16	0.724634
2603.53	0.385097
2604.89	0.451732
2606.26	0.530342
2607.62	0.168875
2608.98	0.137912
2610.34	0.290897
2611.71	0.362068
2613.07	0.903688
2614.43	1.22113
2615.79	1.60448
2617.15	1.32794
2618.52	1.0967
2619.88	0.754066
2621.24	0.695518
2622.6	1.31672
2623.96	0.684121
2625.32	0.56166
2626.68	-0.00557736
2628.04	0.34283
2629.4	0.382315
2630.75	0.64131
2632.11	0.635074
2633.47	1.28895
2634.83	1.04341
2636.19	1.02872
2637.55	0.304995
2638.9	-0.204509
2640.26	0.0690129
2641.62	0.521225
2642.98	0.514942
2644.33	0.304706
2645.69	-0.124819
2647.04	0.0939368
2648.4	0.322639
2649.76	0.982035
2651.11	1.11726
2652.47	1.20856
2653.82	1.32514
2655.18	1.24465
2656.53	1.39908
2657.88	1.65173
2659.24	1.90534
2660.59	1.59263
2661.95	1.68159
2663.3	1.53697
2664.65	1.30112
2666	0.590657
2667.36	0.524128
2668.71	0.664192
2670.06	0.751255
2671.41	0.554615
2672.76	0.801253
2674.12	0.612066
2675.47	0.511357
2676.82	0.918796
2678.17	1.38431
2679.52	0.929269
2680.87	1.07143
2682.22	1.53298
2683.57	1.38485
2684.92	0.932732
2686.27	1.09355
2687.62	1.2057
2688.97	0.945866
2690.31	1.26279
2691.66	0.734232
2693.01	0.745196
2694.36	1.09089
2695.71	1.63626
2697.05	1.60921
2698.4	1.64956
2699.75	1.39266
2701.09	1.29719
2702.44	1.19945
2703.78	1.66365
2705.13	1.80292
2706.48	2.374
2707.82	2.70923
2709.17	2.78428
2710.51	2.69611
2711.86	2.33434
2713.2	2.76716
2714.54	2.89515
2715.89	3.25533
2717.23	3.61636
2718.57	3.49873
2719.92	3.50633
2721.26	3.69991
2722.6	3.49973
2723.95	3.61684
2725.29	3.63913
2726.63	3.54638
2727.97	3.51303
2729.31	3.16981
2730.65	3.00333
2732	3.08265
2733.34	3.77145
2734.68	4.27978
2736.02	3.90643
2737.36	3.89497
2738.7	3.52146
2740.04	3.46841
2741.38	3.13633
2742.72	3.17309
2744.05	3.2065
2745.39	3.00062
2746.73	2.91876
2748.07	2.85458
2749.41	2.87339
2750.75	2.57218
2752.08	2.34178
2753.42	2.23925
2754.76	1.98327
2756.09	1.52414
2757.43	1.86953
2758.77	1.57666
2760.1	1.77881
2761.44	1.74062
2762.78	1.54354
2764.11	1.54333
2765.44	1.27881
2766.78	1.322
2768.11	1.28336
2769.45	1.35443
2770.78	1.29498
2772.12	1.04702
2773.45	0.745534
2774.78	0.739054
2776.12	0.420939
2777.45	0.832422
2778.78	0.50498
2780.12	0.856375
2781.45	1.01523
2782.78	0.81492
2784.11	1.12228
2785.44	1.45866
2786.78	1.01105
2788.11	1.06381
2789.44	1.1377
2790.77	1.20282
2792.1	1.24951
2793.43	1.2052
2794.76	1.4262
2796.09	1.43355
2797.42	1.62573
2798.75	1.69789
2800.08	2.09404
2801.4	1.7202
2802.73	1.24597
2804.06	0.834956
2805.39	1.13947
2806.72	1.05307
2808.05	0.898095
2809.37	0.778329
2810.7	0.432714
2812.03	0.729727
2813.35	1.02185
2814.68	0.836479
2816.01	1.14457
2817.33	1.30818
2818.66	1.15911
2819.98	1.46611
2821.31	2.56396
2822.63	3.26743
2823.96	4.50803
2825.28	5.57064
2826.61	6.3242
2827.93	7.48785
2829.25	9.03082
2830.58	10.7085
2831.9	12.0279
2833.23	13.5146
2834.55	15.4076
2835.87	16.7025
2837.19	19.0487
2838.52	21.4117
2839.84	23.0473
2841.16	25.3414
2842.48	27.7808
2843.8	30.8662
2845.12	33.5297
2846.44	36.6618
2847.77	40.7287
2849.08	43.9286
2850.4	48.496
2851.73	52.3562
2853.05	56.5328
2854.36	60.4679
2855.68	64.6431
2857	68.725
2858.32	73.3804
2859.64	77.8453
2860.96	82.1385
2862.28	86.0276
2863.59	90.0135
2864.91	93.7253
2866.23	96.9815
2867.55	100.128
2868.86	102.725
2870.18	105.493
2871.5	108.237
2872.81	110.459
2874.13	112.88
2875.44	115.346
2876.76	117.515
2878.07	120.513
2879.39	122.743
2880.7	124.619
2882.02	126.8
2883.33	128.758
2884.65	130.851
2885.96	133.185
2887.28	135.203
2888.59	136.433
2889.9	138.517
2891.21	140.571
2892.53	142.433
2893.84	144.286
2895.15	146.468
2896.46	149.139
2897.78	151.691
2899.09	154.636
2900.4	157.693
2901.71	160.902
2903.02	164.883
2904.33	168.554
2905.64	172.351
2906.95	176.888
2908.26	182.073
2909.57	187.046
2910.88	192.252
2912.19	198.065
2913.5	204.331
2914.81	209.769
2916.12	215.593
2917.43	220.791
2918.73	226.062
2920.04	230.623
2921.35	235.354
2922.66	239.873
2923.96	244.072
2925.27	247.209
2926.58	249.72
2927.88	251.845
2929.19	253.354
2930.5	254.115
2931.8	254.921
2933.11	255.902
2934.41	255.199
2935.72	254.383
2937.02	253.971
2938.33	252.77
2939.63	250.811
2940.94	248.468
2942.24	245.899
2943.54	242.81
2944.85	239.088
2946.15	235.509
2947.45	231.475
2948.76	226.959
2950.06	222.552
2951.36	217.555
2952.66	212.354
2953.97	207.963
2955.27	203.488
2956.57	198.636
2957.87	193.583
2959.17	188.603
2960.47	184.721
2961.77	180.072
2963.07	175.13
2964.37	170.194
2965.67	165.6
2966.97	161.784
2968.27	157.156
2969.57	153.053
2970.87	148.834
2972.17	144.848
2973.47	141.262
2974.77	137.511
2976.07	134.078
2977.36	130.694
2978.66	126.504
2979.96	122.808
2981.26	118.999
2982.55	115.475
2983.85	111.422
2985.15	107.033
2986.44	103.143
2987.74	99.1776
2989.03	94.9756
2990.33	90.8086
2991.63	86.4918
2992.92	82.6116
2994.21	78.8646
2995.51	75.6621
2996.8	72.7519
2998.1	69.1969
2999.39	65.4631
3000.69	62.4529
3001.98	59.3689
3003.27	56.0015
3004.57	52.7461
3005.86	49.8125
3007.15	47.031
3008.44	44.6543
3009.74	42.2849
3011.03	40.0306
3012.32	37.1586
3013.61	34.8353
3014.9	32.8218
3016.19	31.0161
3017.48	29.8174
3018.78	28.9205
3020.07	27.3999
3021.36	26.2285
3022.65	25.568
3023.94	24.6305
3025.23	23.7422
3026.51	22.3783
3027.8	21.276
3029.09	21.0217
3030.38	21.2358
3031.67	20.9266
3032.96	20.5048
3034.24	20.2168
3035.53	20.0506
3036.82	20.3995
3038.11	20.554
3039.39	20.7123
3040.68	21.3862
3041.97	21.74
3043.25	22.2111
3044.54	22.5506
3045.83	23.027
3047.11	23.2098
3048.4	23.3664
3049.68	23.3552
3050.97	23.764
3052.25	23.8541
3053.54	24.2891
3054.82	24.4175
3056.11	24.1844
3057.39	24.3095
3058.67	24.3699
3059.96	24.5018
3061.24	23.9111
3062.52	23.225
3063.81	22.6561
3065.09	21.5243
3066.37	20.6884
3067.65	20.1052
3068.94	19.1395
3070.22	18.613
3071.5	17.5198
3072.78	16.8706
3074.06	15.8287
3075.34	15.0266
3076.62	13.8604
3077.9	13.0821
3079.18	12.287
3080.46	11.5654
3081.74	10.4586
3083.02	9.54188
3084.3	8.48797
3085.58	7.5574
3086.86	6.77686
3088.14	5.51583
3089.42	4.92126
3090.69	4.58099
3091.97	4.19827
3093.25	4.1566
3094.53	3.87211
3095.8	3.32964
3097.08	3.22981
3098.36	3.02953
3099.63	3.50636
3100.91	3.87794
3102.19	3.95252
3103.46	3.98429
3104.74	3.90674
3106.01	3.44375
3107.29	3.74085
3108.56	3.23345
3109.84	4.03073
3111.11	3.81313
3112.39	3.92962
3113.66	3.65697
3114.94	3.67242
3116.21	3.96999
3117.48	3.70155
3118.76	3.38449
3120.03	3.15032
3121.3	3.37051
3122.57	3.39896
3123.85	3.25425
3125.12	2.82451
3126.39	2.79563
3127.66	2.42665
3128.93	1.99943
3130.21	2.33134
3131.48	2.21032
3132.75	2.11413
3134.02	1.78108
3135.29	1.37916
3136.56	1.23496
3137.83	0.77047
3139.1	0.108448
3140.37	-0.469361
3141.64	-0.64051
3142.91	-0.862691
3144.17	-0.964992
3145.44	-0.8836
3146.71	-0.811969
3147.98	-0.531646
3149.25	-0.386241
