#Acq. time (s)=	45
#Accumulations=	2
#Range (cm-¹)=	200...3150
#Windows=	2
#Auto scanning=	Off
#Autofocus=	Off
#Macrospot=	Off
#AutoExposure=	Off
#Spike filter=	Multiple accum.
#Delay time (s)=	0
#Binning=	1
#Readout mode=	Signal
#DeNoise=	Off
#ICS correction=	On
#Dark correction=	Off
#Inst. Process=	Off
#Detector Gain=	Best Dynamic Range
#Detector ADC=	20 kHz       
#Detector temperature (°C)=	-69.85
#Instrument=	LabRAM HR Evol
#Detector=	Synapse
#Objective=	x100
#Grating=	600 gr/mm
#ND Filter=	100%
#Laser (nm)=	532 
#Hole=	100.021
#Range=	Auto
#Laser Pol.=	No
#Raman. Pol.=	No
#Laser Pol. (°)=	-0.0007625
#Raman Pol. (°)=	89.9995
#Collection=	Microscope
#StageXY=	Marzhauser
#StageZ=	Marzhauser
#X (µm)=	4769
#Y (µm)=	-7711.4
#Z (µm)=	584.45
#Full time(mm:ss)=	3:18
#Project=	
#Sample=	
#Site=	
#Title=	Thy_30_10_27_2x_45s_532 nm_x100_100%_600 gr_mm
#Remark=	
#Date=	30.06.2022 13:25
#Acquired=	30.06.2022 13:25:17
#Base:Fit=	10.08.2022 09:58:11
#Base:Sub=	10.08.2022 09:58:44
#Filter:Polynom=	16.08.2022 10:22:53
#AxisType[0]=Intens
#AxisUnit[0]=Cnt
#AxisType[1]=Spectr
#AxisUnit[1]=1/cm
200.533	-4.16022
202.348	1.93225
204.162	7.13841
205.976	9.12122
207.792	10.9175
209.605	12.3091
211.418	13.5102
213.23	15.1505
215.044	15.9464
216.856	16.5223
218.667	17.1248
220.478	15.2718
222.289	14.5066
224.102	14.2745
225.912	14.8302
227.721	14.86
229.531	15.4008
231.34	15.9108
233.148	16.2543
234.956	15.8356
236.766	15.4978
238.574	14.6666
240.381	13.9611
242.188	13.9971
243.994	14.6486
245.801	15.2293
247.606	14.4962
249.412	14.1107
251.217	13.6229
253.024	12.2491
254.828	12.6455
256.632	11.728
258.436	11.4811
260.239	11.3433
262.042	11.0565
263.845	10.6191
265.647	10.1889
267.449	10.2516
269.25	10.6565
271.052	10.7509
272.852	9.43624
274.653	9.84307
276.453	10.3321
278.253	9.71051
280.052	10.8061
281.852	11.664
283.65	12.2305
285.449	12.4123
287.247	12.2906
289.044	12.9122
290.842	12.7364
292.639	12.7119
294.436	12.8758
296.232	14.4133
298.028	15.2214
299.821	16.0579
301.617	15.4686
303.412	15.9787
305.206	16.2394
307	16.3051
308.794	16.0751
310.588	16.2664
312.381	18.7966
314.172	20.8669
315.964	21.9793
317.756	21.7033
319.548	21.9094
321.34	21.1295
323.131	21.299
324.921	20.5531
326.71	20.5889
328.5	20.4427
330.29	20.8005
332.079	21.01
333.868	20.4408
335.654	19.3292
337.443	18.8085
339.231	18.2983
341.018	16.2155
342.804	15.2427
344.591	13.9538
346.377	13.1439
348.163	12.549
349.947	12.0547
351.733	10.6003
353.518	10.5742
355.303	10.7522
357.085	11.9906
358.869	11.3291
360.653	9.94642
362.435	9.37051
364.218	9.9162
366.001	8.94929
367.781	9.1089
369.563	9.50208
371.345	9.48734
373.124	10.493
374.905	10.1502
376.686	11.4261
378.464	12.2215
380.244	12.7606
382.022	12.8153
383.801	14.2094
385.58	14.7337
387.357	14.9371
389.135	14.7118
390.911	16.5167
392.689	17.4998
394.466	17.7293
396.241	17.4183
398.018	17.8812
399.792	18.248
401.568	17.9629
403.341	16.3309
405.117	15.5054
406.889	14.4248
408.664	13.4222
410.436	12.2766
412.21	11.0896
413.981	9.98844
415.755	10.38
417.525	9.41698
419.298	9.09927
421.068	8.03707
422.84	7.14968
424.609	6.34407
426.38	5.58709
428.149	4.33552
429.919	3.94459
431.688	4.79912
433.455	5.64228
435.225	5.93524
436.992	5.65768
438.76	6.50324
440.527	5.6252
442.293	6.81019
444.06	5.99999
445.826	5.72051
447.593	4.44088
449.357	5.61184
451.122	5.1465
452.888	5.75007
454.651	6.25421
456.415	6.5554
458.18	7.58648
459.942	9.46075
461.705	10.377
463.469	10.4349
465.23	12.327
466.991	12.4911
468.752	12.715
470.515	13.8331
472.275	14.2249
474.035	13.8485
475.797	14.5837
477.556	15.1435
479.315	15.7429
481.073	15.0559
482.834	15.6019
484.592	16.2655
486.349	16.0552
488.106	17.9213
489.863	18.0314
491.622	19.276
493.378	20.385
495.134	20.4233
496.889	20.4522
498.645	22.182
500.401	22.5414
502.156	24.7773
503.91	25.7577
505.664	26.7277
507.417	27.2077
509.171	28.278
510.923	29.0551
512.678	30.1232
514.43	30.3853
516.182	31.6587
517.933	30.8043
519.684	31.5146
521.435	31.5332
523.186	31.0943
524.936	31.7803
526.686	31.1707
528.435	29.759
530.184	29.0853
531.933	27.0163
533.682	25.6301
535.43	24.1661
537.18	23.7453
538.927	21.8041
540.674	21.9567
542.421	20.842
544.167	20.4358
545.913	20.8864
547.659	20.1196
549.403	18.5154
551.148	16.9762
552.893	17.2989
554.637	16.649
556.381	15.2659
558.125	14.5036
559.868	13.2887
561.611	13.56
563.354	13.3908
565.097	12.9906
566.839	12.2696
568.581	11.9061
570.322	11.4309
572.063	11.0584
573.802	10.6409
575.542	11.5485
577.283	9.16658
579.022	9.09162
580.762	7.36191
582.501	7.85241
584.24	7.62593
585.976	7.34254
587.714	6.68091
589.452	7.53162
591.19	7.60975
592.927	7.4585
594.663	6.73696
596.398	7.37407
598.134	6.54959
599.87	6.26738
601.605	5.55159
603.338	6.00877
605.073	6.58442
606.808	7.91761
608.542	7.74426
610.274	8.11008
612.007	8.63786
613.74	8.07216
615.473	6.78624
617.204	6.42481
618.936	6.83523
620.668	7.52849
622.397	7.38042
624.128	7.43606
625.859	8.192
627.588	8.73272
629.318	9.32014
631.048	10.5341
632.775	11.8371
634.505	12.5794
636.233	11.8289
637.96	11.6059
639.688	13.6065
641.416	12.5888
643.142	11.9899
644.869	12.0707
646.594	12.4235
648.32	13.7202
650.045	15.1015
651.771	15.9031
653.496	15.3755
655.219	16.0803
656.944	16.1664
658.667	17.1509
660.391	16.8463
662.113	15.756
663.837	13.1632
665.558	13.3092
667.281	13.8316
669.002	13.9942
670.724	13.358
672.444	14.3127
674.166	15.807
675.885	15.2522
677.606	15.0489
679.325	14.8991
681.045	15.5165
682.763	16.1268
684.483	17.7019
686.2	18.4846
687.917	19.5737
689.636	20.3081
691.352	21.4969
693.07	20.9859
694.786	22.4263
696.501	22.4836
698.219	22.0626
699.933	22.9646
701.65	22.9495
703.364	22.9159
705.078	23.7287
706.793	23.3814
708.506	23.6974
710.219	24.5034
711.934	26.6971
713.646	27.5843
715.358	29.5802
717.071	31.8198
718.782	34.124
720.493	33.8949
722.204	33.3843
723.916	34.7393
725.626	36.9571
727.336	37.2882
729.045	39.2512
730.756	41.2564
732.464	43.0547
734.173	45.6666
735.881	47.4251
737.59	48.2104
739.297	49.6033
741.004	50.5951
742.711	52.6724
744.417	54.0262
746.125	55.0892
747.831	57.479
749.537	59.7584
751.242	63.9624
752.946	66.263
754.651	68.0932
756.357	70.9326
758.061	73.7504
759.764	75.6545
761.467	76.543
763.17	79.0987
764.872	79.8897
766.575	81.7285
768.276	83.7087
769.978	84.6889
771.679	84.6573
773.382	84.0917
775.083	85.0421
776.783	86.6194
778.483	86.3428
780.182	86.7498
781.882	86.0964
783.581	86.3661
785.279	87.849
786.978	86.5419
788.676	87.2985
790.373	87.5928
792.071	87.8978
793.768	90.0936
795.464	89.8936
797.161	91.279
798.857	91.3267
800.552	90.8797
802.248	89.6981
803.941	89.7073
805.636	86.7339
807.33	85.5235
809.024	84.8498
810.718	84.8869
812.412	83.7794
814.105	83.4826
815.798	83.0407
817.49	83.1266
819.183	83.6527
820.873	83.0147
822.564	82.2873
824.256	82.6791
825.947	82.6186
827.637	83.3961
829.328	81.5682
831.016	82.5241
832.705	83.4009
834.395	82.5527
836.084	82.4796
837.772	81.234
839.459	81.0059
841.147	81.0119
842.835	79.5377
844.522	77.7136
846.209	75.6249
847.894	73.7642
849.581	71.7879
851.267	70.6151
852.953	68.3649
854.637	66.9801
856.322	65.2743
858.007	63.986
859.689	63.3354
861.374	62.1394
863.058	60.5436
864.739	60.1143
866.423	59.5515
868.106	57.7222
869.787	56.6655
871.469	56.5669
873.151	57.0628
874.831	55.6946
876.512	55.872
878.193	55.4591
879.872	54.208
881.553	53.8025
883.231	52.3368
884.911	51.1212
886.591	49.4633
888.268	49.1097
889.947	48.0259
891.623	47.7411
893.302	48.1035
894.978	48.0877
896.656	47.8202
898.331	47.0758
900.008	46.79
901.683	46.7942
903.359	45.5206
905.033	45.1093
906.709	45.9419
908.383	46.6884
910.058	46.1672
911.731	45.373
913.405	45.4055
915.078	46.9138
916.752	47.4957
918.423	47.1906
920.096	46.5699
921.768	46.2826
923.438	44.6737
925.111	43.3985
926.781	42.3264
928.452	42.5704
930.122	41.478
931.791	40.1794
933.462	39.8639
935.13	38.6131
936.799	38.1476
938.468	37.5403
940.136	35.3523
941.803	35.2964
943.472	33.6303
945.139	32.6944
946.805	32.7058
948.473	32.3662
950.139	32.9071
951.804	32.9145
953.471	34.9823
955.136	36.8664
956.801	36.9983
958.465	36.7386
960.131	37.4001
961.794	38.6124
963.458	38.0349
965.12	37.8359
966.785	38.5447
968.447	39.8449
970.109	41.4425
971.771	42.201
973.432	43.985
975.095	44.5571
976.756	46.1661
978.417	46.68
980.077	47.4925
981.737	47.9857
983.396	50.0952
985.057	49.7601
986.716	50.1125
988.375	51.342
990.033	52.9759
991.691	52.3288
993.349	51.7656
995.006	51.8963
996.663	52.1803
998.32	53.0175
999.976	53.7019
1001.63	52.8762
1003.29	52.7987
1004.95	52.0727
1006.6	51.8435
1008.26	53.631
1009.91	54.035
1011.56	53.7416
1013.22	53.3717
1014.87	54.3622
1016.53	54.9765
1018.18	54.6461
1019.83	53.8787
1021.48	53.4433
1023.14	54.3102
1024.79	55.7487
1026.44	55.0697
1028.09	56.4656
1029.74	58.3841
1031.39	59.0897
1033.04	59.9503
1034.69	59.5034
1036.34	59.5316
1037.99	58.2604
1039.64	56.563
1041.29	55.5001
1042.94	55.1121
1044.58	53.5988
1046.23	50.7477
1047.88	49.5175
1049.52	48.7691
1051.17	46.4523
1052.82	43.7142
1054.46	41.4219
1056.11	41.2254
1057.75	39.7492
1059.4	36.9164
1061.04	34.6169
1062.69	32.2057
1064.33	30.5854
1065.98	28.7002
1067.62	26.2715
1069.26	26.0069
1070.9	24.4715
1072.55	23.6572
1074.19	22.0533
1075.83	20.81
1077.47	20.8135
1079.11	20.6068
1080.76	20.5201
1082.4	20.4529
1084.04	19.4314
1085.68	20
1087.32	20.3941
1088.95	20.5207
1090.59	19.8252
1092.23	19.2471
1093.87	20.0897
1095.51	20.4271
1097.15	21.6112
1098.78	21.3301
1100.42	21.8853
1102.06	22.1474
1103.69	23.8577
1105.33	24.546
1106.97	24.8081
1108.6	24.0873
1110.24	24.2311
1111.87	23.1676
1113.51	23.7937
1115.14	23.7648
1116.77	23.2621
1118.41	23.1951
1120.04	22.5815
1121.67	21.456
1123.31	19.5202
1124.94	18.064
1126.57	17.0306
1128.2	16.4235
1129.83	15.5674
1131.47	14.3781
1133.1	13.1102
1134.72	12.1185
1136.36	12.5977
1137.98	12.4305
1139.62	11.8176
1141.24	10.1913
1142.87	10.7817
1144.5	10.0481
1146.13	9.9403
1147.76	8.99924
1149.38	9.26913
1151.01	9.10914
1152.64	7.97235
1154.27	7.6949
1155.89	6.30274
1157.52	5.13098
1159.14	5.14742
1160.77	5.1805
1162.39	4.52155
1164.02	3.70729
1165.64	1.98676
1167.27	2.04222
1168.89	0.776487
1170.51	-0.123921
1172.14	0.821766
1173.76	-0.16299
1175.38	-0.558409
1177	0.195112
1178.63	0.742895
1180.25	0.18849
1181.87	0.889638
1183.49	0.202335
1185.11	0.41624
1186.73	-0.273417
1188.35	0.531359
1189.97	1.18618
1191.59	1.82292
1193.21	3.18479
1194.83	4.36064
1196.45	5.44463
1198.07	6.46298
1199.68	8.71419
1201.3	9.19835
1202.92	8.86675
1204.53	11.1448
1206.15	13.6354
1207.77	14.845
1209.38	16.0868
1211	17.8726
1212.62	19.748
1214.23	23.4835
1215.84	26.1779
1217.46	30.4925
1219.07	33.0142
1220.69	34.8545
1222.3	36.7717
1223.91	39.357
1225.53	40.9571
1227.14	44.108
1228.75	46.3586
1230.36	49.9551
1231.97	51.9663
1233.59	53.9249
1235.2	55.6344
1236.81	57.5384
1238.42	60.1844
1240.03	61.8494
1241.64	63.7604
1243.25	63.452
1244.85	64.7188
1246.46	66.2964
1248.07	68.5849
1249.68	69.602
1251.29	71.6303
1252.9	71.8109
1254.5	71.9094
1256.11	74.2689
1257.72	76.1879
1259.32	77.4522
1260.93	79.6519
1262.54	80.9921
1264.14	81.6016
1265.75	83.6949
1267.35	84.8242
1268.96	85.9664
1270.56	86.0271
1272.16	86.0638
1273.77	87.2252
1275.37	86.98
1276.97	89.2439
1278.57	90.353
1280.18	91.5426
1281.78	91.3138
1283.38	91.7869
1284.98	92.9381
1286.58	93.2849
1288.18	95.3391
1289.78	97.6973
1291.38	99.6185
1292.99	100.331
1294.58	101.337
1296.18	100.752
1297.78	100.85
1299.38	100.497
1300.98	100.666
1302.58	101.945
1304.17	101.938
1305.77	102.536
1307.37	102.807
1308.97	102.97
1310.56	103.609
1312.16	103.039
1313.76	104.296
1315.35	104.098
1316.95	104.374
1318.54	104.057
1320.14	103.502
1321.73	103.035
1323.32	102.295
1324.92	103.442
1326.51	104.538
1328.1	104.441
1329.7	104.225
1331.29	104.097
1332.88	103.557
1334.47	104.53
1336.07	105.047
1337.66	104.114
1339.25	103.932
1340.84	102.885
1342.43	100.277
1344.02	99.8187
1345.61	98.2961
1347.2	95.6894
1348.79	93.2797
1350.37	91.3355
1351.96	89.546
1353.55	87.3681
1355.14	85.0729
1356.73	84.0544
1358.31	82.6924
1359.9	80.7641
1361.49	78.8456
1363.07	77.0502
1364.66	75.8071
1366.25	74.2038
1367.83	72.3998
1369.42	70.2868
1371	67.899
1372.59	65.7836
1374.17	64.6261
1375.75	62.9848
1377.34	62.7635
1378.92	62.3716
1380.5	62.1315
1382.09	61.3527
1383.67	60.1829
1385.25	59.9797
1386.83	58.5607
1388.42	58.9903
1390	58.1236
1391.58	55.8735
1393.16	55.4858
1394.74	53.5022
1396.32	52.8057
1397.9	51.3001
1399.48	51.1702
1401.06	51.4615
1402.64	52.0943
1404.21	53.1901
1405.79	53.3972
1407.37	53.893
1408.95	54.805
1410.53	57.1994
1412.1	59.1827
1413.68	60.9043
1415.26	61.0482
1416.83	62.5766
1418.41	65.3904
1419.98	67.4618
1421.56	69.6196
1423.13	73.3776
1424.71	76.6223
1426.28	80.8658
1427.86	83.4274
1429.43	86.9361
1431	90.5813
1432.58	94.321
1434.15	98.5903
1435.72	102.621
1437.29	105.721
1438.87	108.51
1440.44	111.487
1442.01	113.88
1443.58	116.411
1445.15	117.438
1446.72	118.854
1448.29	119.885
1449.86	119.487
1451.43	119.35
1453	118.602
1454.57	117.343
1456.14	116.522
1457.71	114.099
1459.27	111.58
1460.84	107.922
1462.41	104
1463.98	99.8272
1465.54	95.2217
1467.11	91.1055
1468.67	84.9492
1470.24	79.25
1471.81	75.5629
1473.37	70.0602
1474.94	65.206
1476.5	60.0647
1478.07	54.6406
1479.63	50.7612
1481.19	46.3311
1482.76	42.529
1484.32	38.4083
1485.88	35.0216
1487.45	31.1915
1489.01	27.9804
1490.57	24.0934
1492.13	21.1436
1493.69	19.0826
1495.26	18.0925
1496.82	16.1504
1498.38	14.0744
1499.94	13.7954
1501.5	13.1692
1503.06	13.2494
1504.62	13.0616
1506.17	12.9217
1507.73	14.1178
1509.29	14.9297
1510.85	16.0009
1512.41	16.0905
1513.97	17.4478
1515.52	19.0085
1517.08	20.4844
1518.64	21.373
1520.19	22.1521
1521.75	22.9746
1523.31	23.3239
1524.86	24.4495
1526.42	26.2718
1527.97	28.5108
1529.52	29.6873
1531.08	31.3418
1532.63	34.5849
1534.19	35.9969
1535.74	37.7743
1537.29	40.2295
1538.85	41.175
1540.4	43.2883
1541.95	45.6364
1543.5	47.9689
1545.06	50.475
1546.61	52.6535
1548.16	56.379
1549.71	60.2438
1551.26	63.0706
1552.81	66.3538
1554.36	70.1061
1555.91	73.6008
1557.46	78.5176
1559.01	80.4522
1560.56	83.8099
1562.11	86.8613
1563.65	89.1834
1565.2	91.3475
1566.75	94.4989
1568.29	97.7212
1569.84	99.5342
1571.39	101.165
1572.94	102.86
1574.48	104.456
1576.03	105.919
1577.57	107.869
1579.12	109.055
1580.66	112.18
1582.21	114.576
1583.75	115.475
1585.3	115.273
1586.84	116.26
1588.38	117.125
1589.93	117.06
1591.47	118.46
1593.01	118.786
1594.55	116.032
1596.1	114.523
1597.64	114.332
1599.18	112.657
1600.72	111.435
1602.26	109.359
1603.8	108.256
1605.34	105.791
1606.88	103.862
1608.42	103.136
1609.96	101.778
1611.5	99.7001
1613.04	98.1648
1614.58	96.7099
1616.12	94.4864
1617.65	94.218
1619.19	93.9455
1620.73	93.7934
1622.27	93.0441
1623.8	93.3881
1625.34	94.2615
1626.87	95.2365
1628.41	95.4124
1629.95	96.1297
1631.48	97.8253
1633.02	98.7717
1634.55	100.569
1636.09	101.344
1637.62	104.784
1639.15	106.235
1640.69	107.556
1642.22	110.363
1643.76	112.932
1645.29	115.208
1646.82	115.616
1648.35	117.084
1649.88	118.9
1651.42	120.526
1652.95	122.726
1654.48	124.6
1656.01	124.583
1657.54	126.59
1659.07	126.063
1660.6	125.763
1662.13	125.785
1663.66	125.476
1665.19	124.415
1666.72	122.552
1668.24	121.186
1669.77	118.796
1671.3	114.038
1672.83	112.018
1674.35	108.992
1675.88	104.768
1677.41	101.455
1678.93	98.1392
1680.46	94.4322
1681.99	89.6024
1683.51	87.1234
1685.04	82.3649
1686.56	77.1945
1688.09	73.1136
1689.61	68.2598
1691.13	63.7272
1692.66	59.5177
1694.18	55.5468
1695.71	50.324
1697.23	46.2329
1698.75	42.5402
1700.27	39.8737
1701.8	37.1515
1703.32	33.9064
1704.84	30.5122
1706.36	28.5081
1707.88	27.2307
1709.4	24.883
1710.92	23.3598
1712.44	21.3464
1713.96	20.9839
1715.48	19.242
1717	18.0333
1718.52	16.9657
1720.04	15.336
1721.56	14.1985
1723.07	12.6865
1724.59	12.5249
1726.11	11.7908
1727.63	10.9754
1729.14	10.0394
1730.66	8.39317
1732.18	7.03867
1733.69	7.65273
1735.21	6.58261
1736.72	6.93201
1738.24	6.95912
1739.75	6.15224
1741.27	5.88744
1742.78	5.05472
1744.3	5.18869
1745.81	4.824
1747.32	3.60373
1748.84	4.02714
1750.35	3.56111
1751.86	4.02402
1753.37	3.10408
1754.89	3.05495
1756.4	2.59694
1757.91	2.44773
1759.42	2.45838
1760.93	0.784323
1762.44	0.170484
1763.95	-0.394598
1765.46	-0.863934
1766.97	-1.69989
1768.48	-1.97258
1769.99	-2.54543
1771.5	-2.68885
1773.01	-0.975917
1774.52	-1.03838
1776.03	-0.0486356
1777.53	0.42969
1779.04	-0.401533
1780.55	-0.120788
1782.06	0.513416
1783.56	1.24474
1785.07	1.09411
1786.57	1.79376
1788.08	2.16832
1789.59	2.91815
1791.09	2.59121
1792.6	2.74648
1794.1	2.38479
1795.6	2.68766
1797.11	2.50895
1798.61	2.03313
1800.12	1.64071
1801.62	2.01665
1803.12	2.7877
1804.63	3.31046
1806.13	3.51553
1807.63	4.80113
1809.13	4.86302
1810.63	4.83065
1812.14	5.26967
1813.64	6.08892
1815.14	6.21644
1816.64	6.66176
1818.14	7.09012
1819.64	7.85259
1821.14	7.79002
1822.64	7.60205
1824.14	7.651
1825.63	8.13124
1827.13	8.08182
1828.63	7.68395
1830.13	7.87087
1831.63	7.8447
1833.12	7.41202
1834.62	7.69798
1836.12	7.86027
1837.62	7.87676
1839.11	8.3845
1840.61	9.18045
1842.1	9.45132
1843.6	9.42011
1845.09	9.07595
1846.59	8.91293
1848.08	9.54095
1849.58	9.37431
1851.07	9.8659
1852.57	8.72832
1854.06	8.32082
1855.55	8.21173
1857.04	7.90216
1858.54	8.60947
1860.03	8.20648
1861.52	8.83015
1863.01	9.28323
1864.5	9.40923
1866	8.81292
1867.49	9.40619
1868.98	8.79449
1870.47	8.65048
1871.96	9.0485
1873.45	9.19759
1874.94	9.93056
1876.43	10.1132
1877.92	10.9749
1879.41	10.9727
1880.89	11.0708
1882.38	11.2768
1882.48	10.4515
1883.97	11.1706
1885.47	11.8905
1886.96	12.5269
1888.46	12.664
1889.95	13.1176
1891.44	12.8586
1892.94	12.4148
1894.43	12.2587
1895.92	13.1644
1897.41	12.9013
1898.9	13.0651
1900.4	13.117
1901.89	13.9763
1903.38	13.7885
1904.87	14.7255
1906.36	14.8652
1907.85	15.209
1909.34	14.1642
1910.83	13.6791
1912.32	13.1389
1913.81	12.5185
1915.29	11.5421
1916.78	11.1715
1918.27	10.5758
1919.76	10.3598
1921.25	10.9287
1922.74	10.1721
1924.22	9.90692
1925.71	8.919
1927.2	9.28247
1928.68	9.1541
1930.17	9.14919
1931.65	9.79006
1933.14	10.0939
1934.63	10.1979
1936.11	9.68273
1937.59	9.28759
1939.08	10.3497
1940.56	11.4741
1942.05	11.6386
1943.53	12.2042
1945.01	12.7554
1946.5	12.1635
1947.98	12.6217
1949.46	13.2591
1950.94	13.5072
1952.43	13.7848
1953.91	13.956
1955.39	14.4166
1956.87	14.9967
1958.35	15.3544
1959.83	14.6042
1961.31	14.4013
1962.79	13.5857
1964.27	13.865
1965.75	13.2944
1967.23	13.459
1968.71	14.1786
1970.19	14.9099
1971.67	14.9812
1973.14	14.2553
1974.62	14.8684
1976.1	14.085
1977.58	12.7303
1979.05	12.7797
1980.53	12.7285
1982.01	11.4919
1983.48	10.3103
1984.96	10.2261
1986.43	9.77296
1987.91	10.419
1989.38	10.2556
1990.86	10.3367
1992.33	9.76223
1993.81	10.1387
1995.28	10.1003
1996.76	9.20082
1998.23	9.5592
1999.7	10.1739
2001.18	9.94581
2002.65	10.926
2004.12	10.4298
2005.59	10.9682
2007.06	11.4027
2008.54	11.0374
2010.01	11.4484
2011.48	12.3143
2012.95	13.7317
2014.42	13.7661
2015.89	13.4867
2017.36	14.0115
2018.83	13.761
2020.3	14.4442
2021.77	15.6549
2023.24	16.3076
2024.71	17.0308
2026.17	18.5875
2027.64	18.0919
2029.11	18.8805
2030.58	19.5663
2032.04	19.2124
2033.51	19.0473
2034.98	19.5735
2036.45	20.148
2037.91	21.1399
2039.38	20.4419
2040.84	21.4381
2042.31	22.1665
2043.77	22.3039
2045.24	22.2028
2046.7	21.2503
2048.17	22.4661
2049.63	22.4188
2051.1	23.2591
2052.56	24.348
2054.02	24.3134
2055.48	23.1374
2056.95	23.8483
2058.41	25.2379
2059.87	26.3708
2061.33	27.1122
2062.8	26.8326
2064.26	26.4999
2065.72	26.6472
2067.18	27.4557
2068.64	28.6682
2070.1	29.1363
2071.56	29.9102
2073.02	30.7436
2074.48	30.1236
2075.94	31.1228
2077.4	31.3349
2078.86	31.731
2080.31	32.2641
2081.77	33.1385
2083.23	33.3768
2084.69	34.3973
2086.14	35.5003
2087.6	36.2527
2089.06	36.6956
2090.52	38.2613
2091.97	38.7301
2093.43	40.5097
2094.88	42.1741
2096.34	42.8083
2097.79	43.6351
2099.25	43.8477
2100.7	44.5105
2102.16	46.1137
2103.61	46.4817
2105.07	46.2662
2106.52	46.8337
2107.97	48.1565
2109.43	49.7257
2110.88	51.6888
2112.33	52.8878
2113.78	55.0921
2115.24	56.2736
2116.69	57.2041
2118.14	59.2056
2119.59	62.2509
2121.04	64.4074
2122.49	65.7512
2123.94	68.148
2125.39	69.6663
2126.84	71.3105
2128.29	74.4284
2129.74	78.7318
2131.19	81.2583
2132.64	83.5098
2134.09	85.4736
2135.54	87.9634
2136.98	90.4155
2138.43	93.8543
2139.88	97.6088
2141.33	101.022
2142.77	102.722
2144.22	104.893
2145.67	107.516
2147.11	109.194
2148.56	112.45
2150.01	114.787
2151.45	116.628
2152.9	117.936
2154.34	118.829
2155.79	120.905
2157.23	122.815
2158.67	123.971
2160.12	125.523
2161.56	125.993
2163	128.181
2164.45	129.006
2165.89	128.988
2167.33	129.749
2168.78	129.332
2170.22	129.116
2171.66	128.34
2173.1	127.967
2174.54	127.051
2175.98	126.061
2177.42	124.966
2178.86	124.473
2180.3	124.27
2181.74	123.515
2183.18	122.666
2184.62	120.704
2186.06	119.135
2187.5	118.015
2188.94	116.312
2190.38	114.738
2191.82	112.969
2193.25	109.28
2194.69	107.237
2196.13	105.251
2197.57	102.393
2199	100.552
2200.44	99.1332
2201.88	96.5058
2203.31	92.8159
2204.75	90.4904
2206.18	88.2082
2207.62	86.5414
2209.05	84.2019
2210.49	82.1509
2211.92	80.6271
2213.36	78.3079
2214.79	75.6162
2216.22	73.3731
2217.66	72.0119
2219.09	70.3108
2220.52	69.0235
2221.96	66.8249
2223.39	65.0342
2224.82	62.6028
2226.25	61.3832
2227.68	60.038
2229.11	58.5121
2230.55	57.6811
2231.98	57.3489
2233.41	55.6816
2234.84	55.549
2236.27	53.4594
2237.7	51.7133
2239.12	51.166
2240.55	49.8559
2241.98	48.469
2243.41	47.441
2244.84	46.7222
2246.27	45.912
2247.7	45.3728
2249.12	45.4519
2250.55	45.3709
2251.98	44.6541
2253.41	43.9408
2254.83	43.2602
2256.26	42.8717
2257.68	41.9987
2259.11	41.1549
2260.54	39.9633
2261.96	39.0757
2263.39	39.3203
2264.81	38.6796
2266.24	38.2033
2267.66	37.4655
2269.08	36.7277
2270.51	36.4329
2271.93	36.3064
2273.35	36.1032
2274.78	36.277
2276.2	36.4691
2277.62	37.022
2279.04	36.2343
2280.47	35.1303
2281.89	34.4375
2283.31	34.9696
2284.73	34.7551
2286.15	34.9421
2287.57	35.0026
2288.99	34.3578
2290.41	33.8526
2291.83	32.8838
2293.25	32.6236
2294.67	31.5953
2296.09	31.519
2297.51	30.351
2298.93	30.4528
2300.35	31.0275
2301.76	30.8477
2303.18	29.9743
2304.6	29.4019
2306.02	28.8211
2307.44	28.2739
2308.85	28.2476
2310.27	27.7402
2311.69	27.0883
2313.1	26.4817
2314.52	24.6519
2315.93	24.0548
2317.35	22.6839
2318.76	22.2135
2320.18	21.7586
2321.59	20.8383
2323.01	20.3074
2324.42	19.7161
2325.83	18.7306
2327.25	17.6304
2328.66	16.4172
2330.07	16.17
2331.49	16.043
2332.9	15.8429
2334.31	15.9826
2335.72	14.801
2337.13	13.9615
2338.55	13.6883
2339.96	13.8261
2341.37	13.457
2342.78	13.2021
2344.19	12.5002
2345.6	12.2597
2347.01	11.9129
2348.42	11.0285
2349.83	9.70954
2351.24	9.45495
2352.65	9.445
2354.05	8.92593
2355.46	9.33617
2356.87	8.7243
2358.28	7.95329
2359.69	7.65753
2361.09	7.15436
2362.5	6.81636
2363.91	6.94097
2365.31	6.87515
2366.72	7.06045
2368.13	6.48216
2369.53	6.42052
2370.94	5.8498
2372.34	5.3013
2373.75	4.56843
2375.15	5.16291
2376.56	5.00065
2377.96	5.52488
2379.37	4.90919
2380.77	4.27481
2382.17	4.16339
2383.58	4.21262
2384.98	3.22211
2386.38	4.25816
2387.79	3.32674
2389.19	4.86072
2390.59	5.1571
2391.99	4.88346
2393.39	4.49362
2394.8	4.46399
2396.2	4.53555
2397.6	5.01252
2399	6.96051
2400.4	6.79264
2401.8	6.89858
2403.2	6.63801
2404.6	6.35666
2406	6.20665
2407.4	6.2791
2408.79	6.31851
2410.19	6.69118
2411.59	6.4971
2412.99	7.35068
2414.39	8.71107
2415.78	9.43921
2417.18	9.61265
2418.58	9.07121
2419.98	9.35029
2421.37	9.9547
2422.77	10.2903
2424.16	10.8002
2425.56	11.7006
2426.96	11.6521
2428.35	11.4357
2429.74	11.4721
2431.14	11.1281
2432.53	12.121
2433.93	11.6032
2435.32	11.8894
2436.72	10.7557
2438.11	10.5527
2439.5	9.85079
2440.9	10.2363
2442.29	10.4895
2443.68	10.6763
2445.07	10.878
2446.47	10.5843
2447.86	10.9387
2449.25	10.667
2450.64	10.6299
2452.03	10.1819
2453.42	9.38523
2454.81	8.87333
2456.2	8.81715
2457.59	8.11509
2458.98	8.2509
2460.37	7.68675
2461.76	7.14606
2463.15	6.86208
2464.54	6.25522
2465.93	5.74616
2467.32	5.03644
2468.7	4.9234
2470.09	3.54875
2471.48	3.18988
2472.87	2.73051
2474.25	3.26265
2475.64	2.76659
2477.03	2.19018
2478.41	2.05659
2479.8	2.53025
2481.18	2.42464
2482.57	2.10607
2483.95	2.06361
2485.34	1.0168
2486.72	0.264633
2488.11	-0.39706
2489.49	-0.371639
2490.88	-0.978199
2492.26	-0.655738
2493.65	-0.674173
2495.03	-1.07865
2496.41	-1.37341
2497.79	-2.06733
2499.18	-1.83005
2500.56	-2.05292
2501.94	-2.63539
2503.32	-3.33806
2504.7	-3.01827
2506.09	-3.03662
2507.47	-2.87392
2508.85	-2.59329
2510.23	-2.87199
2511.61	-3.15941
2512.99	-3.63892
2514.37	-3.06016
2515.75	-2.81748
2517.13	-2.33687
2518.51	-2.90815
2519.89	-3.18216
2521.26	-2.91501
2522.64	-2.72027
2524.02	-1.66823
2525.4	-1.28483
2526.78	-0.631952
2528.15	-0.592359
2529.53	1.06717
2530.91	0.398279
2532.28	0.744162
2533.66	1.20558
2535.04	2.01001
2536.41	2.71392
2537.79	4.08528
2539.16	4.82651
2540.54	5.00197
2541.91	5.77523
2543.29	6.41045
2544.66	5.83384
2546.04	5.73385
2547.41	6.31476
2548.78	6.06608
2550.16	5.31056
2551.53	5.2118
2552.9	5.31004
2554.27	4.58133
2555.65	4.41043
2557.02	5.42768
2558.39	5.50521
2559.76	5.60892
2561.13	6.51041
2562.51	6.28496
2563.88	7.03248
2565.25	5.80207
2566.62	5.69977
2567.99	5.36806
2569.36	5.01456
2570.73	4.85861
2572.1	5.4188
2573.47	5.27971
2574.84	5.37183
2576.2	4.87682
2577.57	4.71805
2578.94	4.47114
2580.31	5.44661
2581.68	4.99138
2583.05	5.52155
2584.41	5.04924
2585.78	5.24564
2587.15	4.78259
2588.51	4.86243
2589.88	4.54883
2591.24	3.81007
2592.61	4.03582
2593.98	3.85844
2595.34	4.34948
2596.71	3.52815
2598.07	4.54454
2599.44	3.32552
2600.8	3.52904
2602.16	2.79347
2603.53	2.79408
2604.89	2.30165
2606.26	2.1939
2607.62	2.32615
2608.98	2.21635
2610.34	1.63171
2611.71	0.936039
2613.07	-0.113292
2614.43	0.0140548
2615.79	0.632938
2617.15	0.540006
2618.52	0.630019
2619.88	1.44443
2621.24	1.2377
2622.6	1.81434
2623.96	2.50523
2625.32	3.2007
2626.68	3.87276
2628.04	4.588
2629.4	5.43096
2630.75	5.49017
2632.11	5.13196
2633.47	4.20384
2634.83	5.36882
2636.19	6.08808
2637.55	6.91186
2638.9	7.27449
2640.26	8.27942
2641.62	7.99937
2642.98	8.1875
2644.33	8.19369
2645.69	8.3662
2647.04	8.52379
2648.4	8.18295
2649.76	7.5021
2651.11	7.3996
2652.47	6.79663
2653.82	6.19307
2655.18	6.04366
2656.53	6.10893
2657.88	5.92277
2659.24	5.63384
2660.59	5.99779
2661.95	5.71211
2663.3	5.54864
2664.65	5.06571
2666	5.41066
2667.36	4.4903
2668.71	3.67069
2670.06	3.8261
2671.41	3.98831
2672.76	3.77313
2674.12	4.48934
2675.47	4.32365
2676.82	4.21846
2678.17	3.67461
2679.52	4.40193
2680.87	5.56127
2682.22	6.79872
2683.57	7.03946
2684.92	7.60396
2686.27	8.11936
2687.62	9.28487
2688.97	9.79285
2690.31	11.5765
2691.66	12.5547
2693.01	13.2826
2694.36	15.3812
2695.71	15.7791
2697.05	16.1803
2698.4	16.722
2699.75	17.0521
2701.09	17.916
2702.44	18.2817
2703.78	18.1978
2705.13	18.591
2706.48	18.8857
2707.82	20.2869
2709.17	20.5578
2710.51	21.1696
2711.86	22.4769
2713.2	22.5322
2714.54	22.3411
2715.89	23.0326
2717.23	23.8357
2718.57	24.6496
2719.92	25.6842
2721.26	26.1745
2722.6	26.985
2723.95	27.3922
2725.29	27.6561
2726.63	27.935
2727.97	28.857
2729.31	29.1168
2730.65	29.561
2732	29.448
2733.34	29.502
2734.68	28.8356
2736.02	29.3078
2737.36	28.9985
2738.7	27.9412
2740.04	27.3417
2741.38	27.3006
2742.72	26.3265
2744.05	26.5418
2745.39	26.3546
2746.73	26.7841
2748.07	26.9166
2749.41	26.7503
2750.75	25.9626
2752.08	26.0919
2753.42	25.6468
2754.76	25.5508
2756.09	24.8927
2757.43	24.7758
2758.77	24.4129
2760.1	24.5803
2761.44	24.245
2762.78	22.7008
2764.11	21.8078
2765.44	22.3067
2766.78	21.3035
2768.11	21.0338
2769.45	20.5492
2770.78	20.7506
2772.12	21.4245
2773.45	21.7098
2774.78	21.7576
2776.12	21.5027
2777.45	21.8158
2778.78	21.8471
2780.12	21.344
2781.45	22.2263
2782.78	22.9549
2784.11	23.4039
2785.44	22.8194
2786.78	22.3346
2788.11	22.0064
2789.44	22.3841
2790.77	22.5748
2792.1	23.2836
2793.43	23.3947
2794.76	24.0102
2796.09	23.2808
2797.42	23.1208
2798.75	23.0562
2800.08	23.1543
2801.4	22.4242
2802.73	22.4257
2804.06	21.7278
2805.39	21.6945
2806.72	22.1309
2808.05	22.2962
2809.37	22.3963
2810.7	23.2965
2812.03	23.2338
2813.35	23.7166
2814.68	23.7517
2816.01	24.0182
2817.33	24.0392
2818.66	25.9772
2819.98	27.3127
2821.31	28.5763
2822.63	30.7666
2823.96	33.2949
2825.28	35.3215
2826.61	37.5913
2827.93	39.426
2829.25	43.659
2830.58	46.8821
2831.9	50.0785
2833.23	52.1294
2834.55	56.2953
2835.87	60.0745
2837.19	65.108
2838.52	69.4754
2839.84	74.2612
2841.16	78.3531
2842.48	83.949
2843.8	89.2923
2845.12	94.6066
2846.44	100.964
2847.77	106.788
2849.08	113.366
2850.4	119.897
2851.73	126.92
2853.05	134.984
2854.36	143.162
2855.68	150.765
2857	158.089
2858.32	166.024
2859.64	172.553
2860.96	179.314
2862.28	185.616
2863.59	192.521
2864.91	199.207
2866.23	205.028
2867.55	210.348
2868.86	216.261
2870.18	221.405
2871.5	226.214
2872.81	230.244
2874.13	234.684
2875.44	238.726
2876.76	242.589
2878.07	246.593
2879.39	250.052
2880.7	253.565
2882.02	257.833
2883.33	261.419
2884.65	264.896
2885.96	267.252
2887.28	270.712
2888.59	273.446
2889.9	276.86
2891.21	279.807
2892.53	283.686
2893.84	287.023
2895.15	291.223
2896.46	294.879
2897.78	299.974
2899.09	305.265
2900.4	311.815
2901.71	317.266
2903.02	323.949
2904.33	330.957
2905.64	338.218
2906.95	346.775
2908.26	356.162
2909.57	364.678
2910.88	374.84
2912.19	384.078
2913.5	393.058
2914.81	403.407
2916.12	412.942
2917.43	422.64
2918.73	430.957
2920.04	438.483
2921.35	444.475
2922.66	451.131
2923.96	457.408
2925.27	461.941
2926.58	465.644
2927.88	468.583
2929.19	470.77
2930.5	472.255
2931.8	473.093
2933.11	473.344
2934.41	472.661
2935.72	471.073
2937.02	469.057
2938.33	465.865
2939.63	462.432
2940.94	457.622
2942.24	452.622
2943.54	446.645
2944.85	439.522
2946.15	433.114
2947.45	425.894
2948.76	417.583
2950.06	409.166
2951.36	401.535
2952.66	393.087
2953.97	384.058
2955.27	377.182
2956.57	368.377
2957.87	359.777
2959.17	351.243
2960.47	343.736
2961.77	336.553
2963.07	329.141
2964.37	322.134
2965.67	316.184
2966.97	308.288
2968.27	302.573
2969.57	295.524
2970.87	288.513
2972.17	282.701
2973.47	275.49
2974.77	268.54
2976.07	262.273
2977.36	254.817
2978.66	247.727
2979.96	241.693
2981.26	234.421
2982.55	226.831
2983.85	218.49
2985.15	210.883
2986.44	203.223
2987.74	196.262
2989.03	188.677
2990.33	180.815
2991.63	173.255
2992.92	165.69
2994.21	159.221
2995.51	152.392
2996.8	145.869
2998.1	139.23
2999.39	132.059
3000.69	126.192
3001.98	120.133
3003.27	114.725
3004.57	109.205
3005.86	103.312
3007.15	98.3205
3008.44	93.1718
3009.74	89.0434
3011.03	85.3395
3012.32	81.1689
3013.61	77.6692
3014.9	74.5669
3016.19	71.5475
3017.48	68.8283
3018.78	66.934
3020.07	64.9643
3021.36	62.9652
3022.65	60.5892
3023.94	59.9856
3025.23	59.1202
3026.51	58.6734
3027.8	58.126
3029.09	57.7036
3030.38	56.9522
3031.67	55.4872
3032.96	55.6564
3034.24	54.7327
3035.53	55.4116
3036.82	55.7336
3038.11	54.9968
3039.39	55.2167
3040.68	55.6272
3041.97	56.5983
3043.25	56.3847
3044.54	57.8481
3045.83	57.4047
3047.11	57.4451
3048.4	57.3701
3049.68	57.9777
3050.97	58.4476
3052.25	59.0954
3053.54	58.7305
3054.82	58.9573
3056.11	58.1612
3057.39	57.5365
3058.67	57.239
3059.96	56.618
3061.24	56.6629
3062.52	55.7258
3063.81	54.4682
3065.09	53.644
3066.37	52.3371
3067.65	50.589
3068.94	48.1411
3070.22	46.98
3071.5	46.1543
3072.78	44.8424
3074.06	43.5094
3075.34	41.3289
3076.62	39.4929
3077.9	37.85
3079.18	36.4137
3080.46	34.6904
3081.74	33.7089
3083.02	32.0965
3084.3	30.1398
3085.58	28.9688
3086.86	27.0346
3088.14	25.733
3089.42	24.0945
3090.69	23.6896
3091.97	22.9235
3093.25	21.2845
3094.53	20.5054
3095.8	19.4583
3097.08	18.9112
3098.36	19.1781
3099.63	18.8924
3100.91	18.6931
3102.19	18.2711
3103.46	19.0899
3104.74	19.3637
3106.01	19.493
3107.29	18.693
3108.56	19.0114
3109.84	18.5972
3111.11	19.6601
3112.39	19.9603
3113.66	20.7785
3114.94	20.4183
3116.21	20.4235
3117.48	19.5523
3118.76	19.6166
3120.03	18.7576
3121.3	18.7541
3122.57	18.5169
3123.85	18.3584
3125.12	17.8517
3126.39	16.2877
3127.66	15.4981
3128.93	14.8286
3130.21	14.5269
3131.48	13.8213
3132.75	13.5885
3134.02	13.4007
3135.29	11.5286
3136.56	10.5278
3137.83	8.9221
3139.1	7.62466
3140.37	6.47377
3141.64	4.89118
3142.91	3.38615
3144.17	1.45733
3145.44	-0.495768
3146.71	-2.05811
3147.98	-3.00154
3149.25	-4.84793
