#Acq. time (s)=	45
#Accumulations=	2
#Range (cm-¹)=	200...3150
#Windows=	2
#Auto scanning=	Off
#Autofocus=	Off
#Macrospot=	Off
#AutoExposure=	Off
#Spike filter=	Multiple accum.
#Delay time (s)=	0
#Binning=	1
#Readout mode=	Signal
#DeNoise=	Off
#ICS correction=	On
#Dark correction=	Off
#Inst. Process=	Off
#Detector Gain=	Best Dynamic Range
#Detector ADC=	20 kHz       
#Detector temperature (°C)=	-69.85
#Instrument=	LabRAM HR Evol
#Detector=	Synapse
#Objective=	x100
#Grating=	600 gr/mm
#ND Filter=	100%
#Laser (nm)=	532 
#Hole=	100.021
#Range=	Auto
#Laser Pol.=	No
#Raman. Pol.=	No
#Laser Pol. (°)=	-0.0007625
#Raman Pol. (°)=	89.9995
#Collection=	Microscope
#StageXY=	Marzhauser
#StageZ=	Marzhauser
#X (µm)=	-5930.1
#Y (µm)=	2848.7
#Z (µm)=	-223.8
#Full time(mm:ss)=	3:19
#Project=	
#Sample=	
#Site=	
#Title=	Thy_20_09_47_2x_45s_532 nm_x100_100%_600 gr_mm
#Remark=	
#Date=	29.06.2022 13:56
#Acquired=	29.06.2022 13:56:36
#Base:Fit=	10.08.2022 09:52:02
#Base:Fit=	10.08.2022 09:52:12
#Base:Sub=	10.08.2022 09:54:21
#Filter:Polynom=	16.08.2022 10:24:04
#AxisType[0]=Intens
#AxisUnit[0]=Cnt
#AxisType[1]=Spectr
#AxisUnit[1]=1/cm
200.523	31.8099
202.339	29.6213
204.154	27.6758
205.967	24.9727
207.781	21.972
209.596	19.365
211.409	16.8187
213.222	14.6611
215.034	13.7534
216.848	12.297
218.659	11.2135
220.47	10.341
222.281	8.95133
224.091	7.76774
225.903	5.99954
227.713	4.53831
229.522	4.13643
231.331	4.53465
233.14	4.44044
234.948	4.39363
236.756	3.48552
238.566	3.19258
240.373	2.85304
242.18	2.40173
243.986	2.84019
245.792	3.30276
247.598	3.63663
249.403	3.83693
251.208	3.6187
253.013	3.5791
254.818	2.74002
256.624	2.11064
258.427	3.03505
260.231	4.77858
262.034	4.53406
263.836	5.3086
265.638	4.77768
267.44	4.34436
269.242	4.44026
271.043	4.95022
272.844	5.46086
274.645	5.90999
276.445	7.08882
278.245	7.212
280.044	7.89162
281.843	9.25004
283.642	9.97776
285.44	10.9049
287.238	11.7048
289.036	11.0529
290.833	12.1436
292.63	12.8829
294.425	12.9423
296.221	13.9627
298.017	14.4731
299.813	14.4457
301.608	14.1889
303.403	14.2979
305.198	14.4543
306.992	14.0503
308.786	14.9008
310.579	13.6615
312.371	13.8074
314.163	13.6365
315.956	13.1498
317.748	13.1491
319.54	14.3952
321.331	14.6968
323.122	13.7816
324.911	13.2249
326.701	12.476
328.491	12.2477
330.281	11.6727
332.071	12.0107
333.857	13.0971
335.646	12.4772
337.434	12.1219
339.222	11.069
341.008	10.436
342.795	11.4008
344.582	11.8348
346.369	11.5424
348.153	11.6658
349.939	11.292
351.724	10.2834
353.51	10.1982
355.292	9.73031
357.077	10.2516
358.861	10.7002
360.643	11.4499
362.426	11.859
364.21	11.9789
365.99	12.7353
367.773	13.6179
369.555	14.5953
371.335	15.205
373.116	15.0679
374.897	15.2244
376.676	14.4542
378.456	14.4283
380.236	14.6288
382.014	13.723
383.793	12.5899
385.57	12.2544
387.349	12.2609
389.127	12.1836
390.903	12.1418
392.681	12.7453
394.456	12.598
396.233	12.2237
398.007	11.7168
399.784	9.73992
401.56	9.46927
403.333	8.25957
405.108	7.8195
406.881	8.01007
408.656	7.97866
410.428	6.14624
412.202	5.58914
413.973	5.9971
415.746	6.04214
417.517	6.3697
419.29	7.02142
421.06	8.25346
422.831	8.59021
424.601	8.51012
426.37	8.9607
428.141	8.44195
429.909	9.91104
431.679	10.8071
433.447	9.75827
435.216	8.85303
436.983	8.30898
438.75	7.91586
440.519	7.12005
442.285	6.54664
444.052	6.76534
445.818	6.81182
447.583	6.83706
449.349	7.64089
451.114	7.33159
452.878	7.95027
454.643	8.38073
456.407	8.21052
458.169	8.12877
459.934	7.84578
461.696	7.16337
463.458	7.24622
465.222	8.28847
466.983	8.61632
468.744	8.55683
470.507	9.02255
472.267	9.5061
474.027	11.0068
475.787	12.0018
477.548	11.8787
479.307	12.5318
481.065	12.7606
482.823	12.1717
484.583	12.13
486.341	13.1467
488.098	13.1686
489.855	14.1071
491.612	14.4413
493.37	14.6811
495.126	15.5375
496.881	14.9168
498.636	15.5193
500.391	17.4015
502.148	18.041
503.902	18.6078
505.656	19.4036
507.409	20.0435
509.162	20.8712
510.915	21.2781
512.668	21.3526
514.42	21.3861
516.174	21.3916
517.925	21.0984
519.676	19.5477
521.427	18.6817
523.178	18.561
524.928	17.9007
526.678	17.932
528.427	17.1933
530.176	17.2675
531.925	17.3714
533.673	15.9016
535.422	15.2521
537.169	14.7186
538.917	14.2719
540.664	13.8326
542.411	12.79
544.157	13.2304
545.903	13.4388
547.649	12.3336
549.395	12.8439
551.14	12.5364
552.884	11.9278
554.629	11.3419
556.373	10.817
558.117	10.7396
559.86	10.5919
561.603	10.9077
563.346	9.39866
565.089	9.12661
566.831	8.87859
568.573	8.39848
570.314	8.08887
572.053	7.74341
573.794	8.48396
575.534	6.87612
577.274	6.25528
579.014	5.25151
580.754	5.85442
582.493	6.35342
584.23	5.24596
585.968	6.01606
587.706	6.97285
589.444	6.73305
591.181	7.14911
592.919	7.169
594.653	6.68079
596.39	6.85284
598.126	7.00138
599.862	6.63325
601.595	6.04206
603.33	6.21318
605.065	5.03029
606.8	5.98911
608.532	6.65014
610.266	7.34607
611.999	7.4512
613.732	7.2531
615.463	8.22026
617.196	8.44449
618.928	8.58052
620.66	8.15041
622.389	9.32088
624.12	9.64015
625.851	10.553
627.58	11.7945
629.31	13.13
631.04	14.3083
632.767	13.4202
634.497	13.1745
636.223	14.3575
637.952	14.096
639.68	14.659
641.406	14.6716
643.134	14.573
644.861	15.984
646.586	16.2586
648.312	17.3334
650.037	17.1631
651.762	18.5551
653.486	18.395
655.211	19.0983
656.936	18.6828
658.659	19.0229
660.383	19.53
662.105	19.4209
663.829	20.4266
665.55	21.0206
667.273	21.2952
668.994	21.0074
670.716	20.3829
672.436	21.4711
674.158	22.5306
675.877	22.7288
677.598	23.1562
679.317	23.5251
681.035	23.8226
682.755	24.6246
684.473	24.9785
686.192	25.0851
687.909	25.3084
689.628	26.2642
691.344	26.314
693.06	28.1254
694.778	29.404
696.493	30.718
698.211	31.7689
699.925	31.6908
701.64	33.5274
703.356	33.805
705.07	34.1777
706.783	34.7598
708.498	35.4168
710.211	36.0259
711.924	36.7359
713.638	37.7169
715.35	38.0865
717.061	38.3884
718.774	38.5893
720.485	39.8893
722.196	40.5405
723.906	41.6272
725.618	42.1803
727.328	42.9158
729.037	44.4226
730.746	45.4135
732.456	46.5317
734.165	47.4898
735.873	47.2879
737.58	47.5749
739.289	48.1319
740.997	49.4501
742.703	49.7456
744.41	50.7365
746.116	50.8073
747.823	52.1427
749.529	52.4907
751.234	52.9773
752.938	52.8768
754.643	53.5972
756.347	54.6867
758.051	55.6441
759.756	56.9233
761.459	57.54
763.162	57.5799
764.865	58.5551
766.567	59.4192
768.269	59.7635
769.97	60.844
771.671	61.2232
773.372	62.3061
775.073	63.6427
776.773	64.1322
778.473	64.9063
780.174	66.2814
781.874	66.809
783.573	67.9519
785.271	68.2806
786.97	69.8934
788.668	70.8153
790.365	70.7636
792.063	71.4595
793.76	71.6449
795.456	72.2563
797.153	72.5067
798.847	74.1762
800.543	75.3943
802.238	75.8957
803.933	76.4696
805.628	77.3335
807.322	78.3983
809.017	79.7728
810.71	79.3232
812.404	79.4947
814.097	79.6158
815.79	79.8503
817.483	80.6506
819.173	81.0952
820.865	81.351
822.556	81.3742
824.248	81.0555
825.939	80.4299
827.629	80.4841
829.318	78.8573
831.008	78.5004
832.697	77.8776
834.387	76.4281
836.076	75.2231
837.765	73.6514
839.451	72.8844
841.139	71.8615
842.827	70.3548
844.514	70.2462
846.2	68.5216
847.886	66.7398
849.573	65.7276
851.259	63.7529
852.943	61.625
854.629	60.6493
856.314	58.6792
857.997	57.462
859.682	55.9068
861.366	54.2257
863.05	53.8616
864.732	53.6219
866.415	53.1265
868.098	52.3933
869.779	51.2983
871.461	49.7768
873.141	48.6519
874.823	47.5626
876.505	47.7792
878.184	47.5703
879.865	47.0908
881.545	46.7714
883.223	46.9515
884.903	46.6524
886.581	46.4727
888.26	46.2357
889.937	46.0872
891.616	44.86
893.294	45.2501
894.97	44.6715
896.648	45.7701
898.323	46.4116
900	47.1638
901.675	48.2568
903.351	48.7234
905.026	48.0941
906.701	47.3152
908.375	47.0323
910.05	46.39
911.723	46.7343
913.398	44.8873
915.07	45.4026
916.742	44.5488
918.415	44.9496
920.087	44.4117
921.76	43.9918
923.43	43.4332
925.103	42.8309
926.773	42.8136
928.443	42.3962
930.114	40.6527
931.783	39.6755
933.454	39.2688
935.123	38.1803
936.791	38.2383
938.461	38.3188
940.128	37.8606
941.796	36.2551
943.464	35.6639
945.131	34.4173
946.797	32.9397
948.465	32.0372
950.131	31.4208
951.797	30.2393
953.462	29.8173
955.128	29.3853
956.793	29.3752
958.457	28.0181
960.121	27.2752
961.786	26.2439
963.45	25.3585
965.113	25.9215
966.775	26.3278
968.44	25.9794
970.102	26.0453
971.763	25.9217
973.425	26.0156
975.086	26.2662
976.748	28.138
978.409	27.8495
980.069	27.9703
981.729	27.6591
983.388	27.3987
985.048	26.726
986.708	25.8239
988.367	24.7038
990.025	23.4012
991.683	22.132
993.341	21.429
994.998	22.0423
996.655	20.7652
998.312	20.8801
999.969	20.6195
1001.62	20.8411
1003.28	19.9817
1004.94	20.3383
1006.59	20.3719
1008.25	20.9003
1009.9	20.9449
1011.56	19.6924
1013.21	19.5624
1014.86	20.1964
1016.52	20.9039
1018.17	20.2914
1019.82	20.0192
1021.48	19.6786
1023.13	19.0591
1024.78	18.566
1026.43	18.1167
1028.08	17.6431
1029.73	17.4484
1031.38	17.9056
1033.03	18.3289
1034.68	17.8444
1036.33	17.892
1037.98	17.8595
1039.63	17.3574
1041.28	17.0957
1042.93	18.6314
1044.57	19.657
1046.22	19.8867
1047.87	20.1714
1049.52	20.0556
1051.16	19.8555
1052.81	20.0702
1054.45	19.8262
1056.1	19.2931
1057.75	19.2375
1059.39	17.9057
1061.04	16.6925
1062.68	15.0115
1064.32	14.0982
1065.97	13.1405
1067.61	13.516
1069.25	12.2657
1070.9	11.3667
1072.54	10.6035
1074.18	10.2155
1075.82	10.3643
1077.47	10.1871
1079.11	10.209
1080.75	10.4006
1082.39	10.036
1084.03	9.59393
1085.67	9.44946
1087.31	10.8105
1088.95	10.8624
1090.59	11.3546
1092.22	11.2952
1093.86	10.9545
1095.5	12.1446
1097.14	12.4838
1098.78	13.0424
1100.41	13.781
1102.05	14.8762
1103.69	15.2887
1105.32	15.2753
1106.96	15.207
1108.59	13.9229
1110.23	13.9071
1111.86	14.091
1113.5	14.0425
1115.13	14.4039
1116.77	13.8095
1118.4	13.0876
1120.03	13.5634
1121.67	12.8503
1123.3	12.9132
1124.93	12.5128
1126.56	11.7916
1128.19	10.8392
1129.83	10.1912
1131.46	9.80101
1133.09	8.75405
1134.72	7.68667
1136.35	6.97011
1137.98	6.35822
1139.61	5.76995
1141.24	3.92939
1142.86	4.11244
1144.49	3.96681
1146.12	4.25415
1147.75	4.92983
1149.38	5.39859
1151	3.47939
1152.63	4.5508
1154.26	4.42128
1155.88	4.86755
1157.51	6.14672
1159.14	6.87132
1160.76	7.07933
1162.39	6.19624
1164.01	6.41527
1165.63	7.85881
1167.26	9.22508
1168.88	11.2088
1170.51	10.7721
1172.13	11.8689
1173.75	12.1839
1175.38	12.3205
1177	13.9364
1178.62	14.5573
1180.24	15.7176
1181.86	16.4547
1183.48	15.6045
1185.1	15.5963
1186.72	15.9463
1188.34	16.2249
1189.96	16.5128
1191.58	17.4658
1193.2	18.9786
1194.82	19.0015
1196.44	18.7413
1198.06	18.2055
1199.68	18.5073
1201.29	19.5103
1202.91	19.1446
1204.53	19.1178
1206.14	18.7547
1207.76	18.5836
1209.38	18.7333
1210.99	19.7327
1212.61	19.9457
1214.22	20.6911
1215.84	21.4918
1217.45	22.6713
1219.07	24.2827
1220.68	25.1901
1222.29	26.3189
1223.91	28.0785
1225.52	29.0931
1227.13	30.2102
1228.74	31.3637
1230.36	32.945
1231.97	33.6085
1233.58	35.5232
1235.19	36.7919
1236.8	38.3953
1238.41	39.8459
1240.02	39.9662
1241.63	40.5547
1243.24	42.2616
1244.85	44.7377
1246.46	46.4457
1248.07	47.4922
1249.67	48.4614
1251.28	49.7487
1252.89	50.451
1254.5	50.6151
1256.1	51.3283
1257.71	52.5593
1259.32	53.6443
1260.92	53.6715
1262.53	55.1525
1264.13	55.5242
1265.74	58.3077
1267.34	59.6128
1268.95	60.3502
1270.55	60.5874
1272.15	62.0062
1273.76	62.0665
1275.36	62.1721
1276.97	62.1666
1278.57	62.5952
1280.17	63.4829
1281.77	63.3978
1283.37	63.5145
1284.97	63.0429
1286.58	64.1645
1288.18	64.8674
1289.78	65.8219
1291.38	67.1946
1292.98	67.6791
1294.58	69.0355
1296.18	70.2772
1297.78	70.0886
1299.37	70.3766
1300.97	70.2006
1302.57	70.5268
1304.17	70.3065
1305.77	70.8726
1307.36	71.6916
1308.96	72.7187
1310.55	72.8093
1312.15	72.7474
1313.75	73.2644
1315.34	74.0052
1316.94	73.4735
1318.53	73.3136
1320.13	73.5236
1321.72	73.8131
1323.32	73.7326
1324.91	73.443
1326.5	72.5082
1328.1	71.8023
1329.69	71.0149
1331.28	70.5573
1332.87	68.1451
1334.47	68.2748
1336.06	68.2847
1337.65	68.5225
1339.24	68.8249
1340.83	67.3733
1342.42	67.6365
1344.01	66.8121
1345.6	67.0905
1347.19	65.4645
1348.78	63.5004
1350.37	62.9885
1351.96	62.6673
1353.54	61.6281
1355.13	61.1703
1356.72	60.3414
1358.31	59.4599
1359.89	59.5572
1361.48	59.0379
1363.07	58.6557
1364.65	57.8811
1366.24	57.684
1367.82	57.2454
1369.41	56.9033
1370.99	56.8447
1372.58	56.1286
1374.16	55.317
1375.75	54.0189
1377.33	52.3115
1378.91	52.1542
1380.5	50.7371
1382.08	50.1637
1383.66	50.4198
1385.25	49.8989
1386.83	49.4979
1388.41	49.3611
1389.99	47.5201
1391.57	48.0648
1393.15	47.5359
1394.73	47.1631
1396.31	46.1753
1397.89	45.8629
1399.47	45.6522
1401.05	45.232
1402.63	44.8487
1404.21	44.9956
1405.78	43.8152
1407.36	43.2608
1408.94	44.0497
1410.52	44.5862
1412.1	44.4726
1413.67	45.9419
1415.25	47.1201
1416.82	48.1159
1418.4	48.8733
1419.98	50.2707
1421.55	52.3881
1423.13	54.2705
1424.7	55.4489
1426.28	56.5788
1427.85	58.1059
1429.42	60.7274
1431	63.4486
1432.57	66.3241
1434.14	67.6811
1435.71	69.7486
1437.29	70.9047
1438.86	73.1311
1440.43	74.6761
1442	75.0398
1443.57	75.6377
1445.14	76.7888
1446.71	77.946
1448.28	77.3348
1449.85	76.4347
1451.42	76.7689
1452.99	76.0379
1454.56	75.3058
1456.13	74.2652
1457.7	73.604
1459.26	72.7191
1460.83	72.2309
1462.4	70.7194
1463.97	69.0933
1465.54	67.3307
1467.1	65.1048
1468.67	62.7072
1470.23	62.1406
1471.8	59.7354
1473.36	57.7868
1474.93	56.1792
1476.49	53.7531
1478.06	50.5436
1479.62	48.2801
1481.19	45.6858
1482.75	42.8819
1484.31	40.264
1485.88	39.3066
1487.44	38.1619
1489	35.9925
1490.56	34.2661
1492.13	33.737
1493.69	32.202
1495.25	30.5551
1496.81	30.1338
1498.37	29.8132
1499.93	29.0925
1501.49	28.2924
1503.05	27.6771
1504.61	27.1463
1506.17	27.4295
1507.73	27.3097
1509.28	27.2054
1510.84	26.3018
1512.4	26.0775
1513.96	26.5265
1515.52	26.6264
1517.07	27.3215
1518.63	27.4474
1520.19	27.4794
1521.74	28.3193
1523.3	29.0207
1524.85	29.3078
1526.41	29.7025
1527.96	31.4506
1529.52	33.0403
1531.07	33.2897
1532.63	34.6435
1534.18	35.3152
1535.73	37.2875
1537.29	38.7714
1538.84	40.3064
1540.39	41.6289
1541.94	42.7669
1543.5	43.8829
1545.05	45.1943
1546.6	47.0156
1548.15	48.6646
1549.7	49.7937
1551.25	50.3134
1552.8	51.8344
1554.35	52.5693
1555.9	53.3136
1557.45	55.3186
1559	55.722
1560.55	56.8086
1562.1	58.1751
1563.65	60.4509
1565.19	61.3106
1566.74	62.2686
1568.29	63.5485
1569.83	64.4165
1571.38	65.4683
1572.93	66.4816
1574.47	67.8787
1576.02	68.7515
1577.56	68.8548
1579.11	69.3158
1580.66	70.8858
1582.2	71.6298
1583.74	73.293
1585.29	74.2781
1586.83	74.3429
1588.38	74.737
1589.92	75.5568
1591.46	75.6814
1593.01	76.1247
1594.55	76.5983
1596.09	76.7268
1597.63	76.5938
1599.17	76.4137
1600.71	75.0245
1602.25	74.9117
1603.79	74.1423
1605.34	72.8626
1606.88	71.4598
1608.41	71.1257
1609.95	69.602
1611.49	69.5814
1613.03	68.7524
1614.57	67.6059
1616.11	66.3161
1617.65	64.2694
1619.18	63.028
1620.72	62.7402
1622.26	63.0128
1623.79	63.0157
1625.33	62.7815
1626.87	62.1915
1628.4	61.6009
1629.94	61.8294
1631.48	61.1067
1633.01	60.624
1634.55	60.5572
1636.08	60.4662
1637.61	61.7693
1639.15	62.4676
1640.68	63.4383
1642.21	63.2962
1643.75	63.9568
1645.28	64.5329
1646.81	65.7884
1648.34	67.2013
1649.88	67.3233
1651.41	68.505
1652.94	70.5952
1654.47	71.1306
1656	71.6541
1657.53	71.4352
1659.06	70.0892
1660.59	69.2369
1662.12	68.3637
1663.65	66.9896
1665.18	66.5366
1666.71	65.0805
1668.24	64.2219
1669.76	62.7145
1671.29	60.8831
1672.82	58.5394
1674.35	56.4125
1675.87	53.8522
1677.4	51.5211
1678.93	50.6123
1680.45	48.2591
1681.98	45.7725
1683.5	44.314
1685.03	41.825
1686.55	39.057
1688.08	37.5493
1689.6	34.527
1691.13	32.8536
1692.65	31.1066
1694.17	28.2254
1695.7	26.5823
1697.22	25.7636
1698.74	24.6983
1700.27	22.2604
1701.79	21.0352
1703.31	19.1458
1704.83	17.5154
1706.35	16.1891
1707.87	15.3816
1709.39	14.6357
1710.91	13.5947
1712.43	13.43
1713.95	13.4317
1715.47	13.4683
1716.99	13.2341
1718.51	12.7064
1720.03	12.5174
1721.55	12.0727
1723.07	12.3533
1724.58	11.5274
1726.1	11.054
1727.62	10.6541
1729.13	10.0533
1730.65	8.44173
1732.17	7.33415
1733.68	6.62291
1735.2	6.68905
1736.72	6.62969
1738.23	6.27054
1739.74	5.76113
1741.26	5.25956
1742.77	4.72621
1744.29	4.95595
1745.8	3.94078
1747.32	4.43563
1748.83	4.1241
1750.34	4.54315
1751.85	4.25287
1753.37	4.91117
1754.88	5.15411
1756.39	5.0286
1757.9	4.56938
1759.41	4.48174
1760.92	3.68529
1762.44	3.75724
1763.95	3.47629
1765.46	2.70436
1766.96	2.38903
1768.47	2.21473
1769.98	1.68821
1771.49	2.50238
1773	3.0567
1774.51	3.14814
1776.02	3.24148
1777.53	3.02972
1779.03	2.20279
1780.54	2.38719
1782.05	2.75655
1783.55	3.21814
1785.06	3.68909
1786.57	3.95127
1788.07	4.37475
1789.58	4.77874
1791.08	4.83175
1792.59	4.73358
1794.09	4.68203
1795.6	4.843
1797.1	5.08163
1798.61	5.15976
1800.11	5.10669
1801.61	4.83541
1803.12	4.60126
1804.62	4.65754
1806.12	4.22127
1807.62	4.11153
1809.12	4.1347
1810.63	4.44898
1812.13	3.8878
1813.63	4.07143
1815.13	4.52061
1816.63	4.63595
1818.13	4.44059
1819.63	4.47224
1821.13	4.53934
1822.63	5.52685
1824.13	5.35405
1825.63	6.01406
1827.13	5.37603
1828.62	5.28521
1830.12	5.02296
1831.62	4.70369
1833.12	3.81809
1834.61	3.81907
1836.11	3.93047
1837.61	3.13512
1839.1	2.9592
1840.6	2.98374
1842.09	3.83911
1843.59	3.9952
1845.09	3.88008
1846.58	3.8925
1848.08	3.87479
1849.57	4.23338
1851.06	4.13769
1852.56	4.00987
1854.05	4.12667
1855.54	4.00993
1857.04	4.14268
1858.53	4.15617
1860.02	3.69555
1861.51	3.8009
1863.01	4.19928
1864.5	4.53619
1865.99	5.34675
1867.48	4.97018
1868.97	4.65852
1870.46	4.82891
1871.95	4.61665
1873.44	3.82188
1874.93	3.64295
1876.42	3.26438
1877.91	4.01032
1879.4	3.29864
1880.89	3.91289
1882.37	4.53172
1882.46	4.36123
1883.95	4.66135
1885.45	4.79047
1886.94	4.95604
1888.43	4.10011
1889.93	4.2091
1891.42	3.8597
1892.91	3.93662
1894.41	3.61638
1895.9	3.44101
1897.39	2.842
1898.88	1.82361
1900.37	1.58825
1901.86	1.22228
1903.36	1.26914
1904.85	1.17773
1906.34	0.721048
1907.83	0.860867
1909.32	0.479368
1910.81	-0.169683
1912.29	0.0112668
1913.78	-0.0819598
1915.27	0.256686
1916.76	0.556115
1918.25	0.72395
1919.74	0.738187
1921.23	0.709211
1922.71	1.11822
1924.2	0.948104
1925.69	0.73069
1927.17	0.523123
1928.66	-0.140936
1930.15	0.800654
1931.63	1.02769
1933.12	1.8538
1934.6	2.22618
1936.09	2.69993
1937.57	3.3172
1939.06	3.29679
1940.54	2.75473
1942.02	2.97683
1943.51	3.31053
1944.99	2.79879
1946.47	2.88144
1947.96	3.20461
1949.44	3.71182
1950.92	4.04821
1952.4	4.09766
1953.88	4.66467
1955.37	4.52636
1956.85	4.91333
1958.33	4.72893
1959.81	4.60885
1961.29	4.53577
1962.77	4.25686
1964.25	4.81849
1965.73	4.47839
1967.21	4.92926
1968.69	4.65493
1970.16	4.24587
1971.64	3.63182
1973.12	3.01167
1974.6	3.54828
1976.08	2.66922
1977.55	2.75511
1979.03	2.81744
1980.51	2.92071
1981.98	2.74084
1983.46	3.08214
1984.94	3.21497
1986.41	3.54007
1987.89	4.20666
1989.36	4.44629
1990.84	4.65585
1992.31	4.7221
1993.79	4.5877
1995.26	5.09373
1996.73	4.75974
1998.21	4.25768
1999.68	4.42184
2001.15	4.49434
2002.63	4.34441
2004.1	5.36188
2005.57	5.20819
2007.04	4.82182
2008.51	4.74831
2009.99	5.38607
2011.46	6.08823
2012.93	6.06495
2014.4	6.08947
2015.87	5.44025
2017.34	5.79336
2018.81	5.70204
2020.28	6.45291
2021.75	6.52147
2023.21	6.5327
2024.68	6.91315
2026.15	7.33067
2027.62	7.65176
2029.09	8.13316
2030.56	8.0306
2032.02	7.25172
2033.49	7.28624
2034.96	6.84581
2036.42	6.648
2037.89	7.20633
2039.36	6.62269
2040.82	6.43203
2042.29	5.67534
2043.75	5.46011
2045.22	5.89906
2046.68	5.83009
2048.14	5.92783
2049.61	5.46373
2051.07	6.14731
2052.54	6.48034
2054	6.61047
2055.46	6.62117
2056.93	7.19763
2058.39	6.78951
2059.85	7.1126
2061.31	7.19181
2062.77	7.19308
2064.23	7.55718
2065.7	7.80055
2067.16	7.85003
2068.62	8.23281
2070.08	7.73195
2071.54	7.85012
2073	8.43648
2074.46	8.03136
2075.92	8.51527
2077.38	8.99667
2078.83	9.25106
2080.29	9.03092
2081.75	10.3008
2083.21	10.2546
2084.67	11.1522
2086.12	10.9335
2087.58	10.8271
2089.04	10.5028
2090.49	10.6096
2091.95	10.6536
2093.41	10.8226
2094.86	11.2295
2096.32	11.1625
2097.77	11.3838
2099.23	11.5893
2100.68	10.8767
2102.14	10.6472
2103.59	10.2224
2105.05	9.60126
2106.5	10.177
2107.95	10.3019
2109.41	10.0076
2110.86	9.90352
2112.31	9.48357
2113.76	9.50182
2115.21	10.4415
2116.67	11.252
2118.12	10.936
2119.57	10.2987
2121.02	10.5266
2122.47	11.3976
2123.92	12.4213
2125.37	13.2761
2126.82	14.0374
2128.27	15.0365
2129.72	15.6732
2131.17	16.9912
2132.62	18.6035
2134.07	18.9228
2135.51	20.1312
2136.96	21.3219
2138.41	22.1849
2139.86	22.7231
2141.31	23.9846
2142.75	24.8898
2144.2	25.9496
2145.65	27.0806
2147.09	28.3754
2148.54	30.4232
2149.98	31.092
2151.43	32.0736
2152.87	32.2178
2154.32	33.7979
2155.76	34.233
2157.21	35.258
2158.65	35.298
2160.1	35.2204
2161.54	35.9314
2162.98	36.9437
2164.43	37.9467
2165.87	38.3924
2167.31	39.1969
2168.75	38.8867
2170.2	39.0163
2171.64	39.6489
2173.08	38.4427
2174.52	39.1263
2175.96	38.6439
2177.4	37.7514
2178.84	37.7498
2180.28	35.708
2181.72	34.7069
2183.16	34.4522
2184.6	34.2603
2186.04	33.7285
2187.48	33.8281
2188.92	32.4292
2190.36	31.112
2191.79	30.3668
2193.23	30.5343
2194.67	30.5855
2196.11	29.6072
2197.54	28.6192
2198.98	27.9852
2200.42	27.2504
2201.85	26.1636
2203.29	25.746
2204.72	24.6118
2206.16	23.2819
2207.59	23.7676
2209.03	22.8794
2210.46	22.3038
2211.9	22.3458
2213.33	22.4749
2214.77	21.8649
2216.2	20.9489
2217.63	20.5216
2219.07	20.193
2220.5	19.5614
2221.93	18.4261
2223.36	18.1066
2224.8	17.6555
2226.23	17.7229
2227.66	17.0336
2229.09	16.9189
2230.52	16.8242
2231.95	16.4466
2233.39	16.9022
2234.81	16.509
2236.25	16.5052
2237.67	16.1947
2239.1	16.1068
2240.53	15.5278
2241.96	15.8087
2243.39	15.6111
2244.82	14.1998
2246.25	14.7615
2247.68	13.9659
2249.1	13.321
2250.53	13.1302
2251.96	13.1161
2253.38	13.3281
2254.81	13.7773
2256.24	13.2541
2257.66	12.8353
2259.09	12.5884
2260.51	11.8885
2261.94	10.9704
2263.36	10.3336
2264.79	10.771
2266.21	10.2375
2267.64	9.41642
2269.06	9.44188
2270.49	9.54559
2271.91	9.79597
2273.33	9.74573
2274.76	9.68912
2276.18	9.25669
2277.6	9.2647
2279.02	9.43588
2280.44	8.45832
2281.87	7.95694
2283.29	7.3622
2284.71	6.1012
2286.13	6.13186
2287.55	5.6862
2288.97	5.50695
2290.39	4.86546
2291.81	4.2817
2293.23	3.97537
2294.65	3.83161
2296.07	3.5794
2297.49	3.569
2298.91	4.19245
2300.33	4.45295
2301.74	4.49784
2303.16	5.36607
2304.58	5.65667
2306	6.24815
2307.41	6.53774
2308.83	6.70904
2310.25	7.07116
2311.66	7.23193
2313.08	7.83227
2314.5	7.72127
2315.91	7.75036
2317.33	8.55559
2318.74	8.41849
2320.16	8.56607
2321.57	8.90746
2322.98	8.91635
2324.4	8.62036
2325.81	8.91539
2327.23	8.40483
2328.64	8.62078
2330.05	8.48875
2331.46	7.74805
2332.88	7.48903
2334.29	8.18505
2335.7	8.17205
2337.11	8.19041
2338.52	8.11695
2339.94	8.33836
2341.35	8.26845
2342.76	8.21389
2344.17	7.37793
2345.58	6.54883
2346.99	6.00917
2348.4	5.52011
2349.81	4.49032
2351.22	3.88019
2352.62	3.43642
2354.03	3.134
2355.44	2.88691
2356.85	2.95239
2358.26	2.43782
2359.67	2.21634
2361.07	2.33688
2362.48	2.35537
2363.89	3.09964
2365.29	3.78877
2366.7	4.19165
2368.11	5.06342
2369.51	5.76917
2370.92	5.73617
2372.32	5.82244
2373.73	6.33085
2375.13	5.24754
2376.54	5.84456
2377.94	4.78108
2379.35	4.67249
2380.75	4.61182
2382.15	4.38156
2383.56	4.52077
2384.96	4.77475
2386.36	4.16643
2387.76	3.95687
2389.17	3.96575
2390.57	3.53141
2391.97	3.62931
2393.37	3.51754
2394.77	3.81829
2396.17	3.60984
2397.58	3.49734
2398.98	3.61745
2400.38	3.26051
2401.78	3.32655
2403.18	4.00749
2404.58	4.07879
2405.97	4.49821
2407.37	5.58485
2408.77	5.94867
2410.17	6.4171
2411.57	6.96767
2412.97	7.01639
2414.37	7.30929
2415.76	7.4838
2417.16	7.86767
2418.56	7.96207
2419.95	7.92933
2421.35	8.57856
2422.75	9.0423
2424.14	9.42364
2425.54	9.9134
2426.93	10.3811
2428.33	11.5019
2429.72	11.8331
2431.12	12.0687
2432.51	12.448
2433.91	12.8222
2435.3	13.1528
2436.7	12.5874
2438.09	12.0634
2439.48	11.6177
2440.88	11.0745
2442.27	10.8539
2443.66	11.4177
2445.05	10.819
2446.44	10.9495
2447.84	10.1912
2449.23	11.003
2450.62	10.3236
2452.01	9.80736
2453.4	9.201
2454.79	8.65291
2456.18	7.55893
2457.57	7.10179
2458.96	7.17916
2460.35	6.30618
2461.74	6.23223
2463.13	6.00703
2464.52	5.2458
2465.91	4.7759
2467.29	4.08464
2468.68	4.1605
2470.07	3.56926
2471.46	3.63819
2472.85	3.27855
2474.23	2.82636
2475.62	3.28016
2477.01	3.06194
2478.39	2.23388
2479.78	1.74621
2481.16	0.990062
2482.55	0.479749
2483.93	0.190752
2485.32	0.447878
2486.7	0.134897
2488.09	0.457779
2489.47	0.225647
2490.86	0.256477
2492.24	0.00859818
2493.62	0.262478
2495.01	0.41376
2496.39	0.378378
2497.77	0.752048
2499.15	-0.0895019
2500.54	-0.159524
2501.92	0.288913
2503.3	-0.0272829
2504.68	0.134247
2506.06	-0.020579
2507.45	0.478432
2508.83	1.42497
2510.21	2.10914
2511.59	2.77373
2512.97	3.38724
2514.35	3.37282
2515.73	3.3647
2517.11	3.34394
2518.48	3.77863
2519.86	3.53095
2521.24	3.4783
2522.62	3.62217
2524	4.01515
2525.38	4.30419
2526.75	4.45233
2528.13	4.96883
2529.51	4.5687
2530.89	5.26352
2532.26	5.69441
2533.64	5.77778
2535.02	6.81404
2536.39	6.78525
2537.77	7.58434
2539.14	6.99919
2540.52	7.22038
2541.89	7.40563
2543.27	7.90703
2544.64	7.76514
2546.01	7.42209
2547.39	7.46047
2548.76	8.48501
2550.14	8.73704
2551.51	9.34731
2552.88	9.41542
2554.25	10.0231
2555.63	9.56568
2557	9.89214
2558.37	9.5115
2559.74	8.8475
2561.11	8.6727
2562.49	8.69179
2563.86	8.59782
2565.23	9.02405
2566.6	8.89542
2567.97	8.43346
2569.34	8.52465
2570.71	8.62937
2572.08	7.9527
2573.45	6.99902
2574.82	6.62996
2576.18	6.92558
2577.55	6.26661
2578.92	5.56373
2580.29	5.08758
2581.66	4.84494
2583.02	4.17028
2584.39	3.51925
2585.76	3.42413
2587.13	3.58405
2588.49	3.41106
2589.86	2.63441
2591.22	2.91124
2592.59	2.48861
2593.96	2.50815
2595.32	2.16847
2596.69	2.37905
2598.05	2.18732
2599.42	2.71335
2600.78	2.46938
2602.14	2.57924
2603.51	3.03779
2604.87	2.80926
2606.23	3.30526
2607.6	2.87775
2608.96	3.29955
2610.32	3.0021
2611.69	2.35075
2613.05	2.69818
2614.41	3.49815
2615.77	3.88997
2617.13	4.28786
2618.49	4.00242
2619.86	4.24377
2621.22	4.53555
2622.58	4.86354
2623.94	4.84873
2625.3	5.04609
2626.66	5.26012
2628.02	5.36329
2629.37	6.02525
2630.73	6.45711
2632.09	6.86736
2633.45	6.6342
2634.81	5.91597
2636.17	5.85602
2637.53	5.34656
2638.88	5.94458
2640.24	5.6851
2641.6	5.39703
2642.96	5.95223
2644.31	6.07382
2645.67	5.6171
2647.02	6.10127
2648.38	6.90052
2649.74	6.91635
2651.09	6.61792
2652.45	6.67798
2653.8	7.14596
2655.16	7.20102
2656.51	6.9631
2657.86	6.76831
2659.22	6.45566
2660.57	6.31495
2661.93	6.43771
2663.28	5.64863
2664.63	5.74586
2665.98	5.54265
2667.34	5.51377
2668.69	5.37918
2670.04	5.15911
2671.39	4.70923
2672.75	4.54395
2674.09	4.05029
2675.45	3.52598
2676.8	3.44062
2678.15	3.36947
2679.5	3.67705
2680.85	4.49424
2682.2	4.40933
2683.55	4.32039
2684.9	4.61325
2686.25	4.60868
2687.6	4.61888
2688.94	4.80428
2690.29	4.70395
2691.64	4.94552
2692.99	5.08539
2694.34	5.64614
2695.68	4.82536
2697.03	4.30164
2698.38	4.79463
2699.73	5.35173
2701.07	5.49939
2702.42	5.89451
2703.76	6.19489
2705.11	6.49184
2706.45	6.88098
2707.8	6.71818
2709.15	6.77716
2710.49	7.3287
2711.83	8.58641
2713.18	9.03808
2714.52	9.56817
2715.87	9.95958
2717.21	10.017
2718.55	10.3198
2719.9	10.8851
2721.24	11.701
2722.58	11.8191
2723.93	11.6163
2725.27	11.74
2726.61	11.6333
2727.95	12.5806
2729.29	12.2901
2730.63	11.9739
2731.98	11.4652
2733.32	11.4068
2734.66	11.2334
2736	11.1533
2737.34	10.8766
2738.68	10.7233
2740.02	10.584
2741.36	9.88533
2742.7	9.61364
2744.03	9.07377
2745.37	9.39056
2746.71	9.09637
2748.05	8.72213
2749.39	8.69717
2750.72	7.88069
2752.06	7.54403
2753.4	7.25604
2754.74	7.41221
2756.07	7.49085
2757.41	6.67989
2758.75	6.17587
2760.08	5.66346
2761.42	4.78529
2762.76	3.48594
2764.09	4.04412
2765.42	4.20304
2766.76	3.34878
2768.09	2.9659
2769.43	2.18871
2770.76	1.7504
2772.1	1.6764
2773.43	1.47784
2774.76	1.78411
2776.1	2.11043
2777.43	2.32505
2778.76	2.32255
2780.1	1.76911
2781.43	2.28126
2782.76	2.45161
2784.09	2.71632
2785.42	2.47475
2786.75	2.44087
2788.09	2.85862
2789.42	2.52824
2790.75	2.33335
2792.08	2.75299
2793.41	3.07774
2794.74	3.34244
2796.07	3.22889
2797.4	3.46628
2798.73	2.79044
2800.06	3.63496
2801.39	3.49476
2802.71	3.79491
2804.04	3.30155
2805.37	2.64549
2806.7	2.34165
2808.03	2.111
2809.35	2.12276
2810.68	2.3904
2812.01	2.85117
2813.33	2.45991
2814.66	2.19459
2815.99	2.4071
2817.31	2.51831
2818.64	3.28559
2819.96	4.11624
2821.29	4.40491
2822.61	4.42184
2823.94	4.36879
2825.26	5.04012
2826.59	5.98347
2827.91	6.78052
2829.23	7.93645
2830.56	9.47515
2831.88	10.1979
2833.21	11.0662
2834.53	12.2128
2835.85	13.317
2837.17	15.235
2838.5	17.1293
2839.82	19.1116
2841.14	21.262
2842.46	23.4138
2843.78	25.6093
2845.1	28.5732
2846.42	31.5236
2847.74	33.9949
2849.06	36.6558
2850.38	39.6843
2851.71	43.0909
2853.03	46.4034
2854.34	50.1318
2855.66	52.7593
2856.98	57.0175
2858.3	60.6962
2859.62	64.5241
2860.94	67.5721
2862.26	70.8198
2863.57	73.1695
2864.89	75.6172
2866.21	78.2889
2867.53	80.7776
2868.84	83.0191
2870.16	84.3484
2871.48	86.1351
2872.79	88.2491
2874.11	89.8073
2875.42	91.766
2876.74	93.6779
2878.05	94.6885
2879.37	95.6449
2880.68	97.2084
2882	98.6253
2883.31	100.24
2884.63	101.639
2885.94	102.799
2887.26	103.541
2888.57	104.197
2889.88	105.178
2891.19	106.395
2892.51	106.952
2893.82	108.564
2895.13	110.227
2896.44	110.965
2897.76	112.763
2899.07	114.293
2900.38	116.648
2901.69	119.304
2903	121.662
2904.31	123.925
2905.62	126.79
2906.93	130.039
2908.24	133.764
2909.55	138.029
2910.86	142.115
2912.17	145.36
2913.48	149.41
2914.79	154.456
2916.1	158.224
2917.41	162.058
2918.71	165.138
2920.02	168.201
2921.33	170.768
2922.64	174.049
2923.94	175.964
2925.25	177.725
2926.56	179.058
2927.86	180.021
2929.17	180.43
2930.48	181.384
2931.78	181.813
2933.09	182.113
2934.39	181.788
2935.7	180.508
2937	179.366
2938.31	178.24
2939.61	176.448
2940.92	175.159
2942.22	172.86
2943.53	170.03
2944.83	167.74
2946.13	165.062
2947.43	161.826
2948.74	159.118
2950.04	156.215
2951.34	152.437
2952.64	148.682
2953.95	144.439
2955.25	141.147
2956.55	137.777
2957.85	134.136
2959.15	132.117
2960.45	128.491
2961.75	124.484
2963.05	122.505
2964.35	119.447
2965.65	116.694
2966.95	113.857
2968.25	111.011
2969.55	108.441
2970.85	106.597
2972.15	104.703
2973.45	102.636
2974.75	100.53
2976.05	97.3943
2977.34	94.4228
2978.64	92.0209
2979.94	89.1398
2981.24	85.5224
2982.53	82.4723
2983.83	79.3056
2985.13	75.6955
2986.42	72.9169
2987.72	70.0338
2989.01	66.9989
2990.31	63.3079
2991.61	60.3609
2992.9	57.0075
2994.19	54.458
2995.49	51.9059
2996.78	48.7903
2998.08	45.823
2999.37	42.9427
3000.67	39.7336
3001.96	37.5797
3003.25	35.7127
3004.55	33.463
3005.84	31.3216
3007.13	28.7486
3008.42	26.66
3009.72	24.746
3011.01	22.6503
3012.3	21.384
3013.59	19.5825
3014.88	18.245
3016.17	16.2625
3017.46	15.6295
3018.76	15.1793
3020.05	15.1361
3021.34	14.6246
3022.63	14.3793
3023.92	14.0712
3025.21	13.3561
3026.49	12.9136
3027.78	13.0682
3029.07	12.5897
3030.36	12.2722
3031.65	12.2272
3032.94	11.7609
3034.23	11.6666
3035.51	11.7279
3036.8	11.6704
3038.09	12.1372
3039.38	12.0267
3040.66	11.6937
3041.95	11.9281
3043.23	12.6709
3044.52	12.4081
3045.81	12.2822
3047.09	12.3134
3048.38	12.6844
3049.66	12.6632
3050.95	12.7854
3052.23	12.4024
3053.52	12.2997
3054.8	12.0331
3056.09	12.281
3057.37	12.0189
3058.65	11.8583
3059.94	11.905
3061.22	11.2607
3062.5	10.9118
3063.79	10.6876
3065.07	10.2528
3066.35	10.0552
3067.63	9.44935
3068.92	8.6495
3070.2	7.82447
3071.48	7.19276
3072.76	6.71715
3074.04	6.21871
3075.32	6.03687
3076.6	5.55804
3077.88	4.99155
3079.16	5.40594
3080.44	4.84768
3081.72	4.97574
3083	4.59499
3084.28	3.72586
3085.56	3.10686
3086.84	2.90027
3088.12	2.2085
3089.4	2.13435
3090.67	2.05777
3091.95	1.85393
3093.23	1.05052
3094.51	0.448834
3095.78	0.0641803
3097.06	0.019486
3098.34	0.161924
3099.61	0.197564
3100.89	-0.31841
3102.17	-0.00241186
3103.44	-0.370244
3104.72	-0.604314
3105.99	-0.63217
3107.27	-0.398388
3108.54	-1.02489
3109.82	-0.53102
3111.09	0.0278601
3112.37	0.165926
3113.64	0.0743392
3114.92	0.317866
3116.19	0.488295
3117.46	0.610447
3118.74	0.762932
3120.01	0.957795
3121.28	0.926262
3122.55	1.12351
3123.83	1.32658
3125.1	0.871997
3126.37	1.12141
3127.64	1.40217
3128.91	1.22526
3130.19	1.4685
3131.46	1.50031
3132.73	1.9564
3134	2.41246
3135.27	2.88492
3136.54	3.15097
3137.81	3.61704
3139.08	4.07777
3140.35	4.555
3141.62	5.37901
3142.89	6.01229
3144.16	6.58601
3145.42	7.10719
3146.69	7.67185
3147.96	8.49233
3149.23	8.45607
