#Acq. time (s)=	45
#Accumulations=	2
#Range (cm-¹)=	200...3150
#Windows=	2
#Auto scanning=	Off
#Autofocus=	Off
#Macrospot=	Off
#AutoExposure=	Off
#Spike filter=	Multiple accum.
#Delay time (s)=	0
#Binning=	1
#Readout mode=	Signal
#DeNoise=	Off
#ICS correction=	On
#Dark correction=	Off
#Inst. Process=	Off
#Detector Gain=	Best Dynamic Range
#Detector ADC=	20 kHz       
#Detector temperature (°C)=	-69.85
#Instrument=	LabRAM HR Evol
#Detector=	Synapse
#Objective=	x100
#Grating=	600 gr/mm
#ND Filter=	100%
#Laser (nm)=	532 
#Hole=	100.021
#Range=	Auto
#Laser Pol.=	No
#Raman. Pol.=	No
#Laser Pol. (°)=	-0.0007625
#Raman Pol. (°)=	89.9995
#Collection=	Microscope
#StageXY=	Marzhauser
#StageZ=	Marzhauser
#X (µm)=	-5904.6
#Y (µm)=	2839.4
#Z (µm)=	-223.25
#Full time(mm:ss)=	3:18
#Project=	
#Sample=	
#Site=	
#Title=	Thy_20_09_08_2x_45s_532 nm_x100_100%_600 gr_mm
#Remark=	
#Date=	29.06.2022 11:18
#Acquired=	29.06.2022 11:18:20
#Base:Fit=	10.08.2022 09:49:32
#Base:Fit=	10.08.2022 09:49:42
#Base:Fit=	10.08.2022 09:49:53
#Base:Fit=	10.08.2022 09:50:12
#Base:Fit=	10.08.2022 09:50:26
#Base:Fit=	10.08.2022 09:50:30
#Base:Fit=	10.08.2022 09:50:43
#Base:Fit=	10.08.2022 09:52:02
#Base:Fit=	10.08.2022 09:52:12
#Base:Sub=	10.08.2022 09:54:21
#Filter:Polynom=	16.08.2022 10:24:04
#AxisType[0]=Intens
#AxisUnit[0]=Cnt
#AxisType[1]=Spectr
#AxisUnit[1]=1/cm
200.523	23.0473
202.339	19.7815
204.154	16.5643
205.967	15.1415
207.781	13.6796
209.596	12.794
211.409	12.325
213.222	11.1855
215.034	10.6699
216.848	10.0369
218.659	10.5693
220.47	10.4519
222.281	11.3571
224.091	10.9813
225.903	10.1149
227.713	10.1212
229.522	10.5239
231.331	9.35037
233.14	9.2871
234.948	8.35772
236.756	9.0834
238.566	8.3484
240.373	8.47277
242.18	8.1936
243.986	7.86728
245.792	7.39095
247.598	7.16707
249.403	7.60017
251.208	7.75948
253.013	7.22774
254.818	7.24985
256.624	6.8378
258.427	5.99714
260.231	5.72494
262.034	4.2559
263.836	4.50786
265.638	2.80721
267.44	1.74789
269.242	0.620548
271.043	0.771525
272.844	0.953564
274.645	0.628799
276.445	0.524354
278.245	-0.117242
280.044	0.115219
281.843	1.0066
283.642	1.79642
285.44	1.63171
287.238	2.01222
289.036	3.72635
290.833	5.59643
292.63	6.3053
294.425	7.10621
296.221	7.1594
298.017	8.01521
299.813	8.52755
301.608	8.24574
303.403	8.24092
305.198	8.41422
306.992	9.7455
308.786	11.319
310.579	12.5726
312.371	13.4679
314.163	13.8802
315.956	13.8491
317.748	14.6199
319.54	15.4197
321.331	15.1206
323.122	16.5719
324.911	16.4458
326.701	17.544
328.491	16.7707
330.281	17.0742
332.071	17.038
333.857	17.2037
335.646	16.8929
337.434	16.3959
339.222	15.0553
341.008	14.5824
342.795	13.1765
344.582	13.2186
346.369	12.4357
348.153	11.2193
349.939	10.5237
351.724	9.72832
353.51	10.333
355.292	9.29833
357.077	9.33947
358.861	7.88382
360.643	7.7275
362.426	7.18542
364.21	6.74066
365.99	6.87574
367.773	6.10056
369.555	5.80675
371.335	5.67626
373.116	5.01575
374.897	4.30277
376.676	4.09353
378.456	4.94504
380.236	4.76701
382.014	3.06579
383.793	2.17873
385.57	2.03057
387.349	2.56723
389.127	2.15188
390.903	2.79905
392.681	3.35231
394.456	4.05003
396.233	6.22395
398.007	7.19513
399.784	8.22069
401.56	7.29811
403.333	7.47106
405.108	7.02572
406.881	7.30751
408.656	7.49711
410.428	8.02664
412.202	8.74379
413.973	8.48288
415.746	9.50328
417.517	9.6653
419.29	10.1269
421.06	10.6898
422.831	10.878
424.601	10.3217
426.37	10.0664
428.141	9.83738
429.909	11.1633
431.679	11.0216
433.447	11.758
435.216	10.3966
436.983	9.97458
438.75	10.0165
440.519	9.98032
442.285	9.8084
444.052	8.31233
445.818	7.07222
447.583	6.49422
449.349	7.01168
451.114	6.64827
452.878	7.19695
454.643	6.90546
456.407	5.43552
458.169	4.09761
459.934	3.35797
461.696	3.86336
463.458	3.59475
465.222	3.17794
466.983	3.42172
468.744	2.97039
470.507	3.70924
472.267	5.26102
474.027	6.22666
475.787	6.92831
477.548	7.29399
479.307	7.93142
481.065	8.25316
482.823	8.60296
484.583	9.43933
486.341	10.3444
488.098	9.75693
489.855	9.71217
491.612	10.6478
493.37	11.0134
495.126	11.5957
496.881	12.1544
498.636	13.667
500.391	14.5712
502.148	15.2568
503.902	16.5476
505.656	16.974
507.409	17.2404
509.162	17.8185
510.915	18.2173
512.668	17.3911
514.42	17.2271
516.174	17.9563
517.925	18.9735
519.676	18.9615
521.427	18.5414
523.178	18.0169
524.928	18.7198
526.678	18.8999
528.427	18.2699
530.176	18.0347
531.925	17.7054
533.673	17.668
535.422	17.724
537.169	16.9691
538.917	16.2977
540.664	15.284
542.411	13.9674
544.157	12.6985
545.903	11.7644
547.649	11.796
549.395	11.6677
551.14	10.4836
552.884	10.5783
554.629	11.163
556.373	11.7866
558.117	11.9258
559.86	11.9195
561.603	11.3959
563.346	11.1798
565.089	11.4224
566.831	11.0374
568.573	10.991
570.314	10.8503
572.053	10.4965
573.794	10.2247
575.534	9.07181
577.274	9.43919
579.014	9.12734
580.754	8.11187
582.493	8.1202
584.23	7.28845
585.968	8.27498
587.706	7.41496
589.444	6.06842
591.181	5.70689
592.919	5.01991
594.653	4.86636
596.39	3.82695
598.126	3.81483
599.862	3.13722
601.595	4.20091
603.33	4.40905
605.065	5.44254
606.8	5.77262
608.532	6.31351
610.266	6.72434
611.999	6.85784
613.732	7.33291
615.463	7.58367
617.196	7.64186
618.928	7.70388
620.66	7.48375
622.389	7.24926
624.12	6.97189
625.851	8.02834
627.58	8.39023
629.31	9.46517
631.04	8.9002
632.767	8.87197
634.497	10.7282
636.223	11.3873
637.952	12.6821
639.68	14.0938
641.406	14.8703
643.134	16.2237
644.861	16.9699
646.586	18.2471
648.312	18.6921
650.037	19.7331
651.762	20.6502
653.486	20.4877
655.211	20.4438
656.936	20.5299
658.659	20.9282
660.383	21.8332
662.105	21.7416
663.829	22.1091
665.55	22.1392
667.273	22.4945
668.994	22.9244
670.716	22.6359
672.436	23.3643
674.158	23.0591
675.877	24.4458
677.598	24.3394
679.317	25.0477
681.035	24.5673
682.755	24.6431
684.473	25.2631
686.192	25.7495
687.909	27.0833
689.628	27.2004
691.344	28.7721
693.06	28.659
694.778	28.6548
696.493	27.7936
698.211	28.1613
699.925	29.1141
701.64	29.2072
703.356	29.2334
705.07	30.3402
706.783	30.9286
708.498	31.5729
710.211	33.0335
711.924	34.1968
713.638	35.0042
715.35	35.8879
717.061	36.9124
718.774	39.0862
720.485	40.8131
722.196	41.7128
723.906	43.1091
725.618	43.7798
727.328	44.918
729.037	45.4994
730.746	46.0319
732.456	47.5133
734.165	48.3046
735.873	49.5612
737.58	50.2723
739.289	51.5251
740.997	52.9748
742.703	53.7009
744.41	55.3262
746.116	56.7774
747.823	57.089
749.529	59.2687
751.234	59.8533
752.938	61.5301
754.643	62.3513
756.347	64.4609
758.051	65.0712
759.756	65.4921
761.459	66.4542
763.162	67.0462
764.865	68.5479
766.567	69.136
768.269	69.9253
769.97	70.3385
771.671	71.3378
773.372	71.9174
775.073	70.8861
776.773	71.9981
778.473	72.6082
780.174	73.1135
781.874	72.7932
783.573	73.7932
785.271	74.5153
786.97	74.1469
788.668	74.5906
790.365	75.3228
792.063	74.9761
793.76	76.6313
795.456	76.7695
797.153	77.9154
798.847	78.8848
800.543	78.4675
802.238	79.983
803.933	79.4706
805.628	79.2744
807.322	80.0733
809.017	80.2773
810.71	80.7945
812.404	81.0024
814.097	80.7788
815.79	81.82
817.483	81.7635
819.173	81.3248
820.865	81.8791
822.556	81.6335
824.248	81.3385
825.939	81.4984
827.629	80.7323
829.318	81.0772
831.008	79.8506
832.697	79.3004
834.387	79.0177
836.076	76.645
837.765	76.7237
839.451	75.7451
841.139	74.7828
842.827	72.1813
844.514	71.3922
846.2	70.3947
847.886	69.4772
849.573	67.4122
851.259	66.1809
852.943	64.8481
854.629	63.2318
856.314	62.1019
857.997	60.5144
859.682	58.9498
861.366	59.0176
863.05	57.0544
864.732	55.5146
866.415	53.565
868.098	53.2704
869.779	52.4279
871.461	51.7092
873.141	51.0854
874.823	51.4165
876.505	51.1425
878.184	51.5614
879.865	50.3698
881.545	51.4853
883.223	51.2084
884.903	50.8712
886.581	51.8279
888.26	50.5357
889.937	51.2354
891.616	51.8146
893.294	51.3314
894.97	50.8863
896.648	51.0125
898.323	51.221
900	52.5029
901.675	51.7733
903.351	51.7017
905.026	51.6723
906.701	50.7811
908.375	50.4051
910.05	50.2612
911.723	49.0851
913.398	48.2595
915.07	46.3998
916.742	46.4664
918.415	44.5004
920.087	43.2457
921.76	43.4108
923.43	42.9171
925.103	42.5418
926.773	41.4662
928.443	41.7287
930.114	41.9772
931.783	41.1866
933.454	39.9378
935.123	39.7262
936.791	39.2949
938.461	38.3791
940.128	38.6391
941.796	37.8619
943.464	37.2267
945.131	36.5122
946.797	35.6785
948.465	34.8861
950.131	33.9172
951.797	33.0394
953.462	31.7808
955.128	31.3687
956.793	29.6173
958.457	28.587
960.121	27.9618
961.786	27.4292
963.45	27.6796
965.113	29.1609
966.775	29.6459
968.44	30.3446
970.102	31.3943
971.763	31.5568
973.425	32.7766
975.086	34.0256
976.748	34.522
978.409	36.2812
980.069	37.2475
981.729	38.0247
983.388	39.0339
985.048	38.6711
986.708	38.8637
988.367	40.7402
990.025	40.8735
991.683	41.6635
993.341	41.913
994.998	42.5476
996.655	43.2401
998.312	44.0376
999.969	45.1104
1001.62	44.6184
1003.28	45.6657
1004.94	46.7934
1006.59	47.2499
1008.25	46.9044
1009.9	46.3405
1011.56	46.7652
1013.21	46.5391
1014.86	44.1966
1016.52	44.2212
1018.17	43.4551
1019.82	42.5929
1021.48	40.6999
1023.13	38.8478
1024.78	37.3768
1026.43	35.6618
1028.08	34.585
1029.73	33.3386
1031.38	31.641
1033.03	29.6538
1034.68	27.5206
1036.33	25.8397
1037.98	24.4231
1039.63	23.6272
1041.28	23.4305
1042.93	23.4702
1044.57	23.8394
1046.22	24.4929
1047.87	24.7325
1049.52	23.726
1051.16	23.0844
1052.81	22.4642
1054.45	21.9571
1056.1	22.1047
1057.75	23.0762
1059.39	22.5078
1061.04	23.032
1062.68	22.8449
1064.32	23.7248
1065.97	24.1022
1067.61	24.4851
1069.25	24.648
1070.9	25.3558
1072.54	23.8829
1074.18	23.4739
1075.82	23.3006
1077.47	23.891
1079.11	24.1376
1080.75	23.2943
1082.39	22.7051
1084.03	22.3597
1085.67	23.608
1087.31	23.601
1088.95	22.7623
1090.59	23.3421
1092.22	23.251
1093.86	23.5778
1095.5	23.8079
1097.14	23.475
1098.78	23.7453
1100.41	23.4214
1102.05	23.6931
1103.69	23.5027
1105.32	24.019
1106.96	24.4053
1108.59	24.4284
1110.23	24.2126
1111.86	23.0738
1113.5	22.8123
1115.13	21.7558
1116.77	21.1032
1118.4	20.9047
1120.03	20.478
1121.67	20.3639
1123.3	18.9587
1124.93	18.4146
1126.56	18.493
1128.19	17.7272
1129.83	16.4166
1131.46	15.4013
1133.09	14.306
1134.72	13.786
1136.35	13.397
1137.98	13.0682
1139.61	12.3254
1141.24	10.9744
1142.86	9.76283
1144.49	9.22458
1146.12	8.1888
1147.75	7.25502
1149.38	6.30431
1151	5.0067
1152.63	3.94757
1154.26	2.97823
1155.88	2.53805
1157.51	2.32964
1159.14	2.651
1160.76	2.49859
1162.39	2.40363
1164.01	3.10634
1165.63	3.08463
1167.26	4.25323
1168.88	3.48725
1170.51	3.63378
1172.13	5.20705
1173.75	5.10653
1175.38	6.63051
1177	8.08257
1178.62	7.86641
1180.24	8.25073
1181.86	10.637
1183.48	11.6042
1185.1	12.4599
1186.72	13.101
1188.34	13.6851
1189.96	14.5086
1191.58	14.5485
1193.2	14.8912
1194.82	16.5737
1196.44	16.9962
1198.06	18.2101
1199.68	19.4493
1201.29	20.451
1202.91	22.3627
1204.53	23.6135
1206.14	25.3685
1207.76	26.1399
1209.38	28.5116
1210.99	29.8086
1212.61	31.6456
1214.22	34.1531
1215.84	36.8051
1217.45	38.2139
1219.07	39.7719
1220.68	42.2718
1222.29	44.0024
1223.91	46.2278
1225.52	48.6933
1227.13	50.3521
1228.74	52.6668
1230.36	54.9998
1231.97	57.072
1233.58	58.7122
1235.19	60.9753
1236.8	62.8315
1238.41	65.0337
1240.02	66.7367
1241.63	67.3461
1243.24	69.3165
1244.85	70.2689
1246.46	70.5807
1248.07	71.8955
1249.67	71.8534
1251.28	72.9533
1252.89	74.159
1254.5	75.1828
1256.1	74.795
1257.71	74.5421
1259.32	74.6754
1260.92	75.1934
1262.53	75.6996
1264.13	74.6618
1265.74	74.7631
1267.34	74.9427
1268.95	74.8404
1270.55	75.2049
1272.15	75.5363
1273.76	76.0059
1275.36	76.0447
1276.97	76.7077
1278.57	77.4996
1280.17	77.7484
1281.77	79.0842
1283.37	79.9747
1284.97	80.3906
1286.58	81.0078
1288.18	81.6882
1289.78	83.2815
1291.38	83.6034
1292.98	84.6157
1294.58	85.5728
1296.18	85.4872
1297.78	86.5002
1299.37	88.1908
1300.97	89.0539
1302.57	89.0418
1304.17	90.7247
1305.77	91.891
1307.36	93.9255
1308.96	94.997
1310.55	96.3311
1312.15	96.0967
1313.75	97.0726
1315.34	97.4418
1316.94	97.6377
1318.53	98.0974
1320.13	97.6099
1321.72	97.3705
1323.32	97.734
1324.91	96.3455
1326.5	95.1684
1328.1	94.4383
1329.69	93.715
1331.28	92.3093
1332.87	90.927
1334.47	89.4688
1336.06	88.0147
1337.65	88.1468
1339.24	88.1291
1340.83	86.5427
1342.42	85.5633
1344.01	83.684
1345.6	83.1539
1347.19	81.046
1348.78	79.6324
1350.37	77.965
1351.96	76.5417
1353.54	74.9905
1355.13	73.652
1356.72	73.0992
1358.31	72.0481
1359.89	70.527
1361.48	68.8755
1363.07	67.6393
1364.65	66.8236
1366.24	65.498
1367.82	64.3309
1369.41	63.9148
1370.99	63.7988
1372.58	62.7467
1374.16	61.5047
1375.75	60.5598
1377.33	60.2212
1378.91	58.9394
1380.5	57.9498
1382.08	58.1511
1383.66	58.5052
1385.25	58.1679
1386.83	57.1467
1388.41	55.6579
1389.99	55.1446
1391.57	54.3078
1393.15	54.2871
1394.73	53.2232
1396.31	52.6294
1397.89	51.3093
1399.47	49.5744
1401.05	48.5832
1402.63	48.4893
1404.21	47.8104
1405.78	47.2168
1407.36	48.0807
1408.94	48.5705
1410.52	48.2352
1412.1	49.1476
1413.67	50.7621
1415.25	52.2128
1416.82	53.6918
1418.4	55.29
1419.98	56.6061
1421.55	58.2393
1423.13	60.6943
1424.7	63.0952
1426.28	65.0169
1427.85	68.4079
1429.42	70.9881
1431	74.5683
1432.57	77.4841
1434.14	80.7095
1435.71	84.0983
1437.29	87.0207
1438.86	88.7542
1440.43	90.6371
1442	92.5545
1443.57	93.8577
1445.14	94.1493
1446.71	94.838
1448.28	96.1994
1449.85	95.7781
1451.42	94.9206
1452.99	94.8367
1454.56	93.8289
1456.13	93.8242
1457.7	93.0348
1459.26	91.7953
1460.83	90.5261
1462.4	88.8961
1463.97	86.1063
1465.54	83.2167
1467.1	80.4078
1468.67	77.2375
1470.23	74.6569
1471.8	71.5398
1473.36	68.1265
1474.93	64.4948
1476.49	61.0028
1478.06	59.0221
1479.62	56.2572
1481.19	52.5046
1482.75	49.2894
1484.31	46.1251
1485.88	44.4776
1487.44	41.4106
1489	39.6287
1490.56	38.3643
1492.13	36.9992
1493.69	35.2187
1495.25	34.2064
1496.81	33.4518
1498.37	32.354
1499.93	31.4706
1501.49	30.9217
1503.05	30.3625
1504.61	30.2843
1506.17	30.0033
1507.73	30.6245
1509.28	30.1557
1510.84	29.938
1512.4	30.0536
1513.96	29.4946
1515.52	28.549
1517.07	28.5996
1518.63	28.2347
1520.19	28.6277
1521.74	29.577
1523.3	29.7459
1524.85	30.8811
1526.41	32.6013
1527.96	32.831
1529.52	33.5085
1531.07	35.046
1532.63	35.9579
1534.18	38.4949
1535.73	38.6106
1537.29	39.8517
1538.84	41.9936
1540.39	42.9134
1541.94	44.0636
1543.5	45.7957
1545.05	47.5093
1546.6	49.157
1548.15	51.1519
1549.7	53.2028
1551.25	55.3479
1552.8	57.8171
1554.35	59.461
1555.9	61.3114
1557.45	61.911
1559	64.0921
1560.55	66.7002
1562.1	68.7755
1563.65	70.712
1565.19	72.9069
1566.74	74.6546
1568.29	75.7314
1569.83	76.9907
1571.38	78.2263
1572.93	80.1344
1574.47	81.181
1576.02	82.2523
1577.56	83.6121
1579.11	84.6482
1580.66	86.368
1582.2	87.7888
1583.74	89.2363
1585.29	90.1224
1586.83	89.997
1588.38	90.1925
1589.92	90.0807
1591.46	89.0292
1593.01	89.2936
1594.55	88.6707
1596.09	87.0596
1597.63	87.1854
1599.17	86.2965
1600.71	85.0817
1602.25	84.4108
1603.79	83.7634
1605.34	82.5485
1606.88	81.6124
1608.41	80.634
1609.95	79.6125
1611.49	78.3733
1613.03	76.6583
1614.57	76.5978
1616.11	75.446
1617.65	74.6688
1619.18	74.7684
1620.72	74.7446
1622.26	74.5299
1623.79	74.9461
1625.33	75.0932
1626.87	76.1774
1628.4	76.8909
1629.94	77.6196
1631.48	78.2297
1633.01	79.3173
1634.55	80.683
1636.08	82.169
1637.61	83.4068
1639.15	85.7551
1640.68	87.6139
1642.21	90.8184
1643.75	92.0596
1645.28	94.3655
1646.81	96.3433
1648.34	97.9972
1649.88	100.964
1651.41	102.629
1652.94	104.595
1654.47	106.679
1656	107.736
1657.53	109.504
1659.06	110.335
1660.59	110.007
1662.12	109.501
1663.65	108.959
1665.18	107.792
1666.71	106.94
1668.24	105.251
1669.76	103.85
1671.29	101.774
1672.82	99.937
1674.35	98.5898
1675.87	96.4139
1677.4	94.0487
1678.93	91.6283
1680.45	88.3692
1681.98	84.9953
1683.5	80.7646
1685.03	76.5461
1686.55	72.7559
1688.08	69.4345
1689.6	66.483
1691.13	63.2285
1692.65	59.1871
1694.17	56.1762
1695.7	53.1031
1697.22	49.4735
1698.74	46.3171
1700.27	43.2181
1701.79	39.4719
1703.31	37.1902
1704.83	34.3651
1706.35	31.7897
1707.87	29.5532
1709.39	27.8961
1710.91	26.2231
1712.43	24.3519
1713.95	23.2999
1715.47	22.2447
1716.99	20.8156
1718.51	19.3305
1720.03	17.5933
1721.55	16.9587
1723.07	15.5957
1724.58	15.181
1726.1	15.3665
1727.62	14.193
1729.13	13.6216
1730.65	13.1385
1732.17	11.9494
1733.68	12.1778
1735.2	11.171
1736.72	10.2323
1738.23	9.44609
1739.74	9.12471
1741.26	8.31201
1742.77	7.47939
1744.29	6.96821
1745.8	6.96736
1747.32	7.72721
1748.83	7.67197
1750.34	7.62375
1751.85	7.59353
1753.37	7.10406
1754.88	6.59431
1756.39	5.91126
1757.9	5.76804
1759.41	4.97444
1760.92	4.89943
1762.44	4.83897
1763.95	5.47174
1765.46	5.34099
1766.96	4.6599
1768.47	4.1415
1769.98	4.08381
1771.49	4.06154
1773	3.10486
1774.51	3.17601
1776.02	2.64807
1777.53	3.13601
1779.03	3.64637
1780.54	3.62802
1782.05	3.67166
1783.55	4.36457
1785.06	4.51605
1786.57	3.91932
1788.07	3.75471
1789.58	3.91802
1791.08	3.9407
1792.59	3.90908
1794.09	3.89601
1795.6	4.13465
1797.1	4.24595
1798.61	4.10962
1800.11	4.73482
1801.61	4.43729
1803.12	3.41271
1804.62	3.07791
1806.12	2.51664
1807.62	3.00314
1809.12	3.17304
1810.63	2.28415
1812.13	2.11488
1813.63	1.89397
1815.13	1.65131
1816.63	1.52689
1818.13	1.87336
1819.63	2.03611
1821.13	2.10968
1822.63	1.81223
1824.13	1.77642
1825.63	1.56955
1827.13	1.81596
1828.62	1.43608
1830.12	0.892719
1831.62	0.943553
1833.12	0.864845
1834.61	0.330336
1836.11	0.218622
1837.61	0.396987
1839.1	0.348968
1840.6	0.559572
1842.09	0.527164
1843.59	0.794751
1845.09	1.02653
1846.58	1.33009
1848.08	1.13439
1849.57	1.53758
1851.06	2.12279
1852.56	2.37861
1854.05	2.38941
1855.54	2.38594
1857.04	2.07151
1858.53	2.39701
1860.02	1.6644
1861.51	1.65707
1863.01	1.7439
1864.5	1.90729
1865.99	2.7051
1867.48	2.73612
1868.97	3.11886
1870.46	3.10253
1871.95	3.09416
1873.44	2.92738
1874.93	2.70256
1876.42	2.30027
1877.91	2.00416
1879.4	2.08049
1880.89	1.9775
1882.37	2.20814
1882.46	1.89282
1883.95	1.83715
1885.45	1.59403
1886.94	1.25209
1888.43	1.22497
1889.93	1.16966
1891.42	1.36584
1892.91	1.41062
1894.41	1.28154
1895.9	1.55577
1897.39	2.24116
1898.88	2.27997
1900.37	1.97054
1901.86	2.28355
1903.36	2.48729
1904.85	2.81311
1906.34	2.68375
1907.83	3.08563
1909.32	3.60165
1910.81	4.30862
1912.29	4.28861
1913.78	4.67433
1915.27	4.89579
1916.76	4.96688
1918.25	5.56106
1919.74	5.77133
1921.23	6.15955
1922.71	5.97104
1924.2	6.06653
1925.69	5.37099
1927.17	5.49836
1928.66	5.06064
1930.15	5.1347
1931.63	5.49955
1933.12	5.5472
1934.6	6.72335
1936.09	6.56297
1937.57	6.4484
1939.06	6.70889
1940.54	6.34969
1942.02	7.01024
1943.51	6.93925
1944.99	6.87273
1946.47	7.36204
1947.96	7.52592
1949.44	7.53445
1950.92	6.87623
1952.4	6.5257
1953.88	6.16227
1955.37	6.10149
1956.85	5.91623
1958.33	5.64075
1959.81	5.43929
1961.29	5.87769
1962.77	6.47708
1964.25	6.72719
1965.73	7.55062
1967.21	7.45468
1968.69	7.65963
1970.16	7.60232
1971.64	7.49169
1973.12	7.86358
1974.6	7.86306
1976.08	8.25652
1977.55	8.28866
1979.03	8.18685
1980.51	8.04458
1981.98	8.11541
1983.46	7.61786
1984.94	7.29788
1986.41	6.87482
1987.89	7.1224
1989.36	7.11545
1990.84	7.35752
1992.31	7.31712
1993.79	6.84845
1995.26	6.83136
1996.73	6.18699
1998.21	7.07529
1999.68	6.63429
2001.15	6.91822
2002.63	6.9718
2004.1	6.53956
2005.57	5.99581
2007.04	6.16111
2008.51	6.11488
2009.99	5.18884
2011.46	5.28945
2012.93	5.47374
2014.4	5.35643
2015.87	5.66959
2017.34	5.38919
2018.81	5.72835
2020.28	5.89385
2021.75	5.26513
2023.21	5.29
2024.68	5.16523
2026.15	6.1588
2027.62	6.29065
2029.09	7.36293
2030.56	7.38518
2032.02	7.72953
2033.49	8.28308
2034.96	8.52087
2036.42	8.68894
2037.89	8.93013
2039.36	8.98423
2040.82	8.92145
2042.29	8.51854
2043.75	8.3238
2045.22	8.77969
2046.68	9.37379
2048.14	9.26229
2049.61	9.24124
2051.07	9.15549
2052.54	9.1766
2054	9.23412
2055.46	9.44775
2056.93	8.90972
2058.39	9.66103
2059.85	10.1885
2061.31	10.7604
2062.77	10.6974
2064.23	11.3623
2065.7	11.1757
2067.16	11.3931
2068.62	11.9936
2070.08	12.115
2071.54	12.5866
2073	12.2637
2074.46	12.3317
2075.92	12.2366
2077.38	12.3186
2078.83	12.7967
2080.29	13.332
2081.75	13.3791
2083.21	13.8093
2084.67	13.9822
2086.12	14.5624
2087.58	15.0084
2089.04	15.9339
2090.49	16.3762
2091.95	16.6433
2093.41	16.3695
2094.86	16.6459
2096.32	17.3165
2097.77	17.6439
2099.23	18.3996
2100.68	18.6738
2102.14	19.3937
2103.59	19.1764
2105.05	19.6224
2106.5	19.6108
2107.95	20.1967
2109.41	20.9741
2110.86	21.787
2112.31	22.3306
2113.76	23.0678
2115.21	23.9422
2116.67	24.7751
2118.12	26.0477
2119.57	27.2085
2121.02	27.8937
2122.47	28.1667
2123.92	28.7236
2125.37	29.9835
2126.82	30.8358
2128.27	31.8345
2129.72	33.3366
2131.17	35.3599
2132.62	36.3618
2134.07	38.0711
2135.51	39.2129
2136.96	40.197
2138.41	41.4024
2139.86	43.1896
2141.31	44.0534
2142.75	45.3364
2144.2	46.7417
2145.65	48.3133
2147.09	49.5826
2148.54	51.8036
2149.98	53.8364
2151.43	55.2795
2152.87	56.4
2154.32	57.2902
2155.76	58.6555
2157.21	59.6039
2158.65	61.1992
2160.1	62.4932
2161.54	63.5267
2162.98	64.0963
2164.43	64.881
2165.87	65.6746
2167.31	67.0751
2168.75	68.0428
2170.2	68.0897
2171.64	68.2673
2173.08	68.4461
2174.52	68.1714
2175.96	67.8082
2177.4	67.61
2178.84	67.7039
2180.28	68.0476
2181.72	67.4983
2183.16	66.9774
2184.6	65.6692
2186.04	64.9503
2187.48	64.4486
2188.92	62.8272
2190.36	61.8462
2191.79	59.8921
2193.23	58.2181
2194.67	57.011
2196.11	56.0113
2197.54	54.8387
2198.98	53.4813
2200.42	52.2196
2201.85	50.9722
2203.29	49.3988
2204.72	47.781
2206.16	46.4823
2207.59	44.2666
2209.03	42.7262
2210.46	41.5165
2211.9	40.5232
2213.33	39.2297
2214.77	38.7529
2216.2	38.213
2217.63	37.1254
2219.07	35.9842
2220.5	34.4267
2221.93	32.8279
2223.36	31.2702
2224.8	30.2987
2226.23	29.7887
2227.66	29.9846
2229.09	29.0147
2230.52	28.105
2231.95	27.7144
2233.39	26.622
2234.81	25.946
2236.25	25.257
2237.67	24.4706
2239.1	23.6005
2240.53	23.1016
2241.96	22.2205
2243.39	22.1868
2244.82	21.8022
2246.25	21.1372
2247.68	20.5531
2249.1	20.4646
2250.53	19.9402
2251.96	19.5588
2253.38	19.0337
2254.81	19.1178
2256.24	18.3571
2257.66	18.63
2259.09	18.0716
2260.51	16.7643
2261.94	16.6945
2263.36	16.9021
2264.79	17.2947
2266.21	17.2013
2267.64	16.5716
2269.06	16.4568
2270.49	16.9045
2271.91	16.8331
2273.33	16.5022
2274.76	16.0077
2276.18	15.5253
2277.6	15.6
2279.02	15.6273
2280.44	16.0758
2281.87	16.1076
2283.29	16.3184
2284.71	16.256
2286.13	15.8949
2287.55	16.0421
2288.97	15.1182
2290.39	14.4682
2291.81	13.6181
2293.23	13.8627
2294.65	13.9952
2296.07	14.8437
2297.49	14.8409
2298.91	14.3746
2300.33	14.0485
2301.74	14.7418
2303.16	15.2564
2304.58	14.6594
2306	14.162
2307.41	13.4367
2308.83	13.0668
2310.25	13.2004
2311.66	13.5743
2313.08	12.875
2314.5	12.3694
2315.91	11.4494
2317.33	10.9981
2318.74	9.99541
2320.16	10.0406
2321.57	8.93317
2322.98	8.50129
2324.4	8.12817
2325.81	7.25845
2327.23	6.16539
2328.64	6.85153
2330.05	6.30843
2331.46	6.09168
2332.88	6.46579
2334.29	5.42093
2335.7	4.9761
2337.11	3.68677
2338.52	2.71036
2339.94	3.03222
2341.35	2.76886
2342.76	2.18519
2344.17	2.10429
2345.58	2.04473
2346.99	2.10804
2348.4	2.24111
2349.81	2.22075
2351.22	1.92867
2352.62	1.55929
2354.03	1.76896
2355.44	1.64171
2356.85	0.991937
2358.26	1.26041
2359.67	0.955455
2361.07	1.29315
2362.48	1.69869
2363.89	2.35414
2365.29	3.37103
2366.7	4.1041
2368.11	4.12912
2369.51	4.57648
2370.92	5.18844
2372.32	5.63871
2373.73	4.81018
2375.13	4.65176
2376.54	4.87091
2377.94	4.54605
2379.35	5.01002
2380.75	5.73723
2382.15	5.2729
2383.56	4.82317
2384.96	4.5121
2386.36	4.19255
2387.76	4.40957
2389.17	4.34092
2390.57	5.06084
2391.97	4.53022
2393.37	4.71263
2394.77	4.29717
2396.17	3.88353
2397.58	4.42453
2398.98	5.10464
2400.38	3.94732
2401.78	3.9676
2403.18	3.393
2404.58	2.28394
2405.97	2.55913
2407.37	2.16227
2408.77	3.51246
2410.17	4.47117
2411.57	4.52398
2412.97	4.59877
2414.37	5.08843
2415.76	5.13734
2417.16	5.23451
2418.56	5.73297
2419.95	6.26446
2421.35	6.02352
2422.75	6.07354
2424.14	5.98505
2425.54	5.65828
2426.93	6.22452
2428.33	6.16957
2429.72	6.32739
2431.12	7.04723
2432.51	7.02306
2433.91	7.30438
2435.3	7.53652
2436.7	7.53103
2438.09	7.66344
2439.48	7.67586
2440.88	7.14668
2442.27	7.3612
2443.66	6.83881
2445.05	7.01855
2446.44	6.68195
2447.84	6.3414
2449.23	6.66847
2450.62	7.01097
2452.01	6.44213
2453.4	6.90509
2454.79	6.9224
2456.18	7.09209
2457.57	7.22916
2458.96	6.63168
2460.35	6.23688
2461.74	5.75526
2463.13	5.56689
2464.52	4.78357
2465.91	5.38618
2467.29	5.8653
2468.68	6.11427
2470.07	6.3351
2471.46	6.36356
2472.85	6.13572
2474.23	6.49908
2475.62	7.23428
2477.01	7.51978
2478.39	7.74374
2479.78	7.33752
2481.16	7.16613
2482.55	7.20513
2483.93	6.81837
2485.32	6.29069
2486.7	5.64818
2488.09	5.88496
2489.47	4.8827
2490.86	3.82066
2492.24	3.55999
2493.62	3.04198
2495.01	2.96789
2496.39	3.10206
2497.77	2.30397
2499.15	2.28741
2500.54	2.66579
2501.92	1.87543
2503.3	1.85139
2504.68	1.74187
2506.06	1.78063
2507.45	1.51297
2508.83	1.03858
2510.21	0.927843
2511.59	1.22254
2512.97	0.976425
2514.35	1.05062
2515.73	1.14636
2517.11	1.8791
2518.48	2.46459
2519.86	2.98931
2521.24	3.15731
2522.62	3.68924
2524	3.74769
2525.38	3.70429
2526.75	3.65459
2528.13	3.48162
2529.51	4.32902
2530.89	4.50515
2532.26	4.69407
2533.64	4.80175
2535.02	5.79676
2536.39	6.58294
2537.77	6.67235
2539.14	6.19735
2540.52	5.85994
2541.89	6.00013
2543.27	6.13405
2544.64	5.9887
2546.01	5.88854
2547.39	5.24901
2548.76	4.73989
2550.14	4.21128
2551.51	4.47456
2552.88	3.7742
2554.25	3.46677
2555.63	3.5684
2557	3.53404
2558.37	2.73128
2559.74	3.02292
2561.11	3.03607
2562.49	3.78731
2563.86	3.66949
2565.23	3.5305
2566.6	3.30348
2567.97	3.50525
2569.34	4.02829
2570.71	3.97451
2572.08	4.15687
2573.45	3.67927
2574.82	3.71514
2576.18	3.8281
2577.55	3.61842
2578.92	3.80098
2580.29	3.55195
2581.66	3.74904
2583.02	3.58404
2584.39	3.89539
2585.76	4.79292
2587.13	4.86255
2588.49	4.73364
2589.86	4.67143
2591.22	4.65262
2592.59	4.51986
2593.96	4.51302
2595.32	4.85776
2596.69	4.64522
2598.05	4.82959
2599.42	4.27154
2600.78	4.80119
2602.14	4.98385
2603.51	5.25654
2604.87	5.36569
2606.23	4.97005
2607.6	4.59699
2608.96	5.08648
2610.32	5.38923
2611.69	5.23463
2613.05	5.08216
2614.41	4.91766
2615.77	4.38177
2617.13	4.62336
2618.49	4.77399
2619.86	5.68115
2621.22	5.23507
2622.58	5.43575
2623.94	5.45639
2625.3	5.19945
2626.66	5.61954
2628.02	5.97414
2629.37	5.97517
2630.73	6.28341
2632.09	5.37949
2633.45	5.65639
2634.81	5.65348
2636.17	5.49678
2637.53	5.31133
2638.88	5.21725
2640.24	4.1804
2641.6	3.37598
2642.96	3.44067
2644.31	3.13028
2645.67	2.77471
2647.02	2.74203
2648.38	2.4293
2649.74	1.98782
2651.09	1.60732
2652.45	1.6779
2653.8	1.20597
2655.16	0.914186
2656.51	0.658459
2657.86	0.60965
2659.22	0.425268
2660.57	0.629376
2661.93	0.48226
2663.28	0.397473
2664.63	0.104713
2665.98	0.485842
2667.34	0.478616
2668.69	0.789346
2670.04	0.318129
2671.39	0.480695
2672.75	0.464369
2674.09	0.546163
2675.45	0.402593
2676.8	0.642915
2678.15	0.715577
2679.5	0.399954
2680.85	0.528059
2682.2	0.453269
2683.55	0.461694
2684.9	0.711952
2686.25	0.79403
2687.6	1.52608
2688.94	1.28491
2690.29	1.65585
2691.64	2.30729
2692.99	3.41987
2694.34	3.9301
2695.68	4.33108
2697.03	4.40012
2698.38	4.85886
2699.73	4.92235
2701.07	5.31036
2702.42	5.7912
2703.76	6.27917
2705.11	6.97119
2706.45	7.39728
2707.8	7.20129
2709.15	8.13915
2710.49	8.85396
2711.83	8.84395
2713.18	8.75232
2714.52	8.67358
2715.87	9.0163
2717.21	9.07391
2718.55	9.24449
2719.9	10.0249
2721.24	10.5583
2722.58	10.9028
2723.93	11.3536
2725.27	11.5198
2726.61	11.5394
2727.95	12.1332
2729.29	11.5182
2730.63	11.4158
2731.98	11.3424
2733.32	11.1798
2734.66	10.1967
2736	10.0364
2737.34	9.6635
2738.68	9.35821
2740.02	8.97235
2741.36	8.80573
2742.7	8.33231
2744.03	8.14314
2745.37	7.76153
2746.71	7.0267
2748.05	6.55389
2749.39	6.36859
2750.72	6.35916
2752.06	6.1314
2753.4	6.4513
2754.74	6.59713
2756.07	5.9422
2757.41	5.62515
2758.75	5.57861
2760.08	4.96674
2761.42	4.22145
2762.76	4.10073
2764.09	3.82816
2765.42	3.3119
2766.76	2.85723
2768.09	3.36527
2769.43	3.15024
2770.76	2.90666
2772.1	2.53845
2773.43	1.84242
2774.76	1.07298
2776.1	1.25949
2777.43	0.64513
2778.76	0.838965
2780.1	1.16117
2781.43	0.886028
2782.76	1.00712
2784.09	0.594483
2785.42	0.687713
2786.75	1.42006
2788.09	0.783982
2789.42	0.683197
2790.75	1.02369
2792.08	0.284058
2793.41	-0.0478146
2794.74	-0.0688201
2796.07	-0.832104
2797.4	-0.660814
2798.73	-0.841995
2800.06	-1.12955
2801.39	-1.54262
2802.71	-1.26407
2804.04	-1.63955
2805.37	-1.61872
2806.7	-1.18428
2808.03	-1.686
2809.35	-1.91221
2810.68	-2.1495
2812.01	-3.06469
2813.33	-3.54496
2814.66	-3.07664
2815.99	-2.68561
2817.31	-2.35457
2818.64	-2.12076
2819.96	-0.944377
2821.29	0.0380958
2822.61	1.32362
2823.94	3.08629
2825.26	5.16725
2826.59	7.41787
2827.91	9.34759
2829.23	12.0406
2830.56	14.5042
2831.88	16.6981
2833.21	19.1839
2834.53	21.7856
2835.85	24.4906
2837.17	27.7415
2838.5	31.1449
2839.82	35.3264
2841.14	39.4891
2842.46	44.6502
2843.78	49.6176
2845.1	55.0555
2846.42	59.8793
2847.74	65.533
2849.06	71.7204
2850.38	78.4009
2851.71	84.8158
2853.03	91.5276
2854.34	97.1624
2855.66	103.418
2856.98	109.792
2858.3	115.208
2859.62	120.938
2860.94	126.538
2862.26	131.876
2863.57	137.205
2864.89	141.951
2866.21	146.8
2867.53	150.967
2868.84	155.44
2870.16	158.564
2871.48	162.277
2872.79	165.53
2874.11	168.196
2875.42	170.806
2876.74	172.858
2878.05	175.734
2879.37	178.251
2880.68	180.613
2882	183.268
2883.31	185.4
2884.63	187.883
2885.94	190.597
2887.26	192.856
2888.57	194.432
2889.88	196.92
2891.19	199.537
2892.51	201.924
2893.82	204.132
2895.13	206.775
2896.44	209.274
2897.76	211.956
2899.07	216.046
2900.38	220.566
2901.69	225.953
2903	231.471
2904.31	237.422
2905.62	243.423
2906.93	250.432
2908.24	257.499
2909.55	264.948
2910.86	272.822
2912.17	280.77
2913.48	288.666
2914.79	296.487
2916.1	304.327
2917.41	311.284
2918.71	317.738
2920.02	323.266
2921.33	329.415
2922.64	334.878
2923.94	338.545
2925.25	343.022
2926.56	345.992
2927.86	348.767
2929.17	350.132
2930.48	350.74
2931.78	351.017
2933.09	350.63
2934.39	349.385
2935.7	346.746
2937	344.691
2938.31	341.945
2939.61	338.535
2940.92	334.06
2942.22	329.388
2943.53	324.447
2944.83	318.442
2946.13	312.595
2947.43	306.484
2948.74	299.374
2950.04	292.434
2951.34	285.867
2952.64	278.817
2953.95	271.639
2955.25	265.549
2956.55	258.081
2957.85	251.341
2959.15	245.146
2960.45	238.757
2961.75	232.263
2963.05	226.256
2964.35	220.477
2965.65	214.081
2966.95	208.773
2968.25	203.133
2969.55	197.68
2970.85	192.66
2972.15	187.759
2973.45	182.369
2974.75	177.816
2976.05	173.544
2977.34	168.282
2978.64	162.867
2979.94	158.123
2981.24	152.49
2982.53	146.33
2983.83	140.308
2985.13	134.698
2986.42	129.096
2987.72	123.276
2989.01	116.478
2990.31	110.931
2991.61	104.209
2992.9	97.9449
2994.19	91.6677
2995.49	86.1984
2996.78	81.2656
2998.08	75.5261
2999.37	69.8724
3000.67	64.9394
3001.96	60.5416
3003.25	56.2753
3004.55	51.5221
3005.84	46.9657
3007.13	43.4089
3008.42	39.9122
3009.72	36.2815
3011.01	32.3581
3012.3	29.2615
3013.59	26.849
3014.88	24.9574
3016.17	23.3984
3017.46	21.2874
3018.76	19.5347
3020.05	18.7916
3021.34	17.5121
3022.63	17.3093
3023.92	17.1235
3025.21	15.7055
3026.49	14.7778
3027.78	14.5039
3029.07	14.4202
3030.36	14.539
3031.65	15.0174
3032.94	15.3118
3034.23	15.7586
3035.51	16.253
3036.8	17.3519
3038.09	18.0788
3039.38	19.0716
3040.66	19.8291
3041.95	19.8486
3043.23	20.3544
3044.52	21.1277
3045.81	21.5888
3047.09	22.3603
3048.38	23.513
3049.66	24.0561
3050.95	24.4374
3052.23	24.8903
3053.52	24.6084
3054.8	25.0133
3056.09	24.8077
3057.37	24.9801
3058.65	25.3405
3059.94	25.6385
3061.22	25.7521
3062.5	25.1398
3063.79	25.1422
3065.07	24.9032
3066.35	24.6151
3067.63	24.1462
3068.92	23.5956
3070.2	23.3424
3071.48	22.3677
3072.76	21.424
3074.04	20.0071
3075.32	18.9088
3076.6	17.9503
3077.88	17.0206
3079.16	16.0275
3080.44	14.4597
3081.72	12.9751
3083	11.7719
3084.28	11.222
3085.56	9.98631
3086.84	9.13197
3088.12	7.87051
3089.4	6.51569
3090.67	5.96491
3091.95	5.52472
3093.23	5.5592
3094.51	5.09936
3095.78	5.2057
3097.06	5.11956
3098.34	5.22395
3099.61	5.31789
3100.89	5.64963
3102.17	5.28394
3103.44	5.33386
3104.72	5.40518
3105.99	5.7988
3107.27	6.11481
3108.54	7.11537
3109.82	7.5327
3111.09	7.78195
3112.37	7.8832
3113.64	7.80424
3114.92	8.49263
3116.19	9.37057
3117.46	9.67754
3118.74	10.5137
3120.01	11.3792
3121.28	12.3401
3122.55	13.3227
3123.83	14.3775
3125.1	15.076
3126.37	15.5084
3127.64	16.357
3128.91	17.1943
3130.19	18.2693
3131.46	18.8246
3132.73	19.2766
3134	19.82
3135.27	19.9405
3136.54	20.7095
3137.81	20.6773
3139.08	21.4847
3140.35	22.1728
3141.62	23.1829
3142.89	24.1251
3144.16	25.396
3145.42	27.0522
3146.69	28.8198
3147.96	30.8524
3149.23	33.5166
