#Acq. time (s)=	45
#Accumulations=	2
#Range (cm-¹)=	200...3150
#Windows=	2
#Auto scanning=	Off
#Autofocus=	Off
#Macrospot=	Off
#AutoExposure=	Off
#Spike filter=	Multiple accum.
#Delay time (s)=	0
#Binning=	1
#Readout mode=	Signal
#DeNoise=	Off
#ICS correction=	On
#Dark correction=	Off
#Inst. Process=	Off
#Detector Gain=	Best Dynamic Range
#Detector ADC=	20 kHz       
#Detector temperature (°C)=	-69.85
#Instrument=	LabRAM HR Evol
#Detector=	Synapse
#Objective=	x100
#Grating=	600 gr/mm
#ND Filter=	100%
#Laser (nm)=	532 
#Hole=	100.021
#Range=	Auto
#Laser Pol.=	No
#Raman. Pol.=	No
#Laser Pol. (°)=	-0.0007625
#Raman Pol. (°)=	89.9995
#Collection=	Microscope
#StageXY=	Marzhauser
#StageZ=	Marzhauser
#X (µm)=	4733.7
#Y (µm)=	-7700.4
#Z (µm)=	584.4
#Full time(mm:ss)=	3:18
#Project=	
#Sample=	
#Site=	
#Title=	Thy_30_10_49_2x_45s_532 nm_x100_100%_600 gr_mm
#Remark=	
#Date=	30.06.2022 14:54
#Acquired=	30.06.2022 14:54:37
#Base:Fit=	10.08.2022 09:58:11
#Base:Sub=	10.08.2022 09:58:44
#Filter:Polynom=	16.08.2022 10:22:53
#AxisType[0]=Intens
#AxisUnit[0]=Cnt
#AxisType[1]=Spectr
#AxisUnit[1]=1/cm
200.533	-0.47895
202.348	1.74178
204.162	2.47711
205.976	2.59687
207.792	2.67816
209.605	2.95971
211.418	3.30693
213.23	3.23688
215.044	3.24424
216.856	3.29247
218.667	3.6405
220.478	4.31552
222.289	4.78542
224.102	4.26389
225.912	3.91942
227.721	3.48569
229.531	3.63912
231.34	4.33395
233.148	4.69398
234.956	4.16301
236.766	3.47545
238.574	3.81062
240.381	3.55181
242.188	2.94631
243.994	3.19587
245.801	2.8595
247.606	2.52944
249.412	2.65485
251.217	2.72437
253.024	3.00522
254.828	2.70659
256.632	2.53668
258.436	1.91239
260.239	2.32014
262.042	2.11079
263.845	3.43705
265.647	3.69117
267.449	4.13494
269.25	4.61062
271.052	4.68839
272.852	4.43308
274.653	4.55622
276.453	4.12455
278.253	3.84757
280.052	4.34997
281.852	3.96052
283.65	3.74686
285.449	3.09948
287.247	2.83031
289.044	3.41694
290.842	3.47122
292.639	4.12837
294.436	4.74831
296.232	5.17208
298.028	5.79055
299.821	5.96292
301.617	6.36309
303.412	6.92154
305.206	8.29789
307	9.18287
308.794	10.1132
310.588	10.2505
312.381	9.64464
314.172	9.6013
315.964	11.186
317.756	11.7279
319.548	13.2221
321.34	13.5509
323.131	14.185
324.921	14.3104
326.71	14.9945
328.5	16.0447
330.29	16.5789
332.079	17.0133
333.868	18.102
335.654	18.1098
337.443	18.3988
339.231	18.8944
341.018	19.0388
342.804	18.7624
344.591	17.6309
346.377	18.0615
348.163	17.7676
349.947	17.8748
351.733	17.3026
353.518	17.6873
355.303	16.1477
357.085	15.6855
358.869	14.6976
360.653	14.1119
362.435	13.4999
364.218	13.1054
366.001	11.7449
367.781	11.273
369.563	11.4936
371.345	9.73278
373.124	9.60555
374.905	8.87765
376.686	9.37119
378.464	8.91536
380.244	7.99144
382.022	8.19183
383.801	7.32074
385.58	7.9777
387.357	8.44727
389.135	8.5178
390.911	9.08127
392.689	9.18704
394.466	9.90645
396.241	9.44283
398.018	9.58572
399.792	9.17876
401.568	9.24259
403.341	10.53
405.117	11.2382
406.889	11.2058
408.664	12.1471
410.436	12.5375
412.21	13.8941
413.981	13.8378
415.755	14.601
417.525	14.6049
419.298	14.8898
421.068	14.0577
422.84	13.2443
424.609	12.3976
426.38	11.4868
428.149	11.4012
429.919	11.4235
431.688	10.4709
433.455	9.99079
435.225	9.85228
436.992	8.95544
438.76	8.51514
440.527	7.6601
442.293	6.72064
444.06	6.7145
445.826	6.01475
447.593	5.05405
449.357	4.57618
451.122	4.15625
452.888	3.6615
454.651	3.55678
456.415	3.4684
458.18	3.65443
459.942	3.23822
461.705	4.08865
463.469	4.63769
465.23	5.21972
466.991	5.91201
468.752	7.30407
470.515	8.2515
472.275	9.17823
474.035	10.4726
475.797	10.9481
477.556	12.6457
479.315	14.059
481.073	15.1007
482.834	16.9343
484.592	17.4277
486.349	19.034
488.106	20.0839
489.863	21.4549
491.622	22.4204
493.378	23.8966
495.134	25.5606
496.889	27.4162
498.645	28.9327
500.401	29.5687
502.156	30.3025
503.91	31.1225
505.664	30.0968
507.417	30.0687
509.171	29.6969
510.923	29.5098
512.678	29.6027
514.43	29.5456
516.182	30.0316
517.933	29.4956
519.684	28.4022
521.435	27.8015
523.186	26.9053
524.936	26.6591
526.686	25.2037
528.435	24.1121
530.184	22.8461
531.933	22.5676
533.682	21.1222
535.43	20.8499
537.18	20.3144
538.927	20.1562
540.674	19.5365
542.421	18.1434
544.167	16.3778
545.913	15.5544
547.659	14.3351
549.403	13.3623
551.148	12.9447
552.893	12.0284
554.637	12.1011
556.381	11.1674
558.125	10.2067
559.868	9.68456
561.611	9.04738
563.354	8.77732
565.097	8.51058
566.839	6.88717
568.581	5.76238
570.322	4.88954
572.063	4.13107
573.802	4.62218
575.542	4.17999
577.283	3.8161
579.022	3.75505
580.762	5.13405
582.501	5.59965
584.24	5.80146
585.976	5.73565
587.714	5.85301
589.452	6.26852
591.19	5.86298
592.927	4.3898
594.663	4.76411
596.398	5.76185
598.134	5.58726
599.87	6.47728
601.605	7.90858
603.338	8.44307
605.073	8.63348
606.808	9.57051
608.542	10.2938
610.274	10.9614
612.007	11.1767
613.74	10.7362
615.473	11.7009
617.204	12.2201
618.936	13.6266
620.668	14.051
622.397	14.3797
624.128	14.9535
625.859	15.0338
627.588	13.9368
629.318	14.0014
631.048	15.045
632.775	15.5526
634.505	16.2316
636.233	16.0289
637.96	16.3818
639.688	16.2916
641.416	17.092
643.142	17.1103
644.869	16.4302
646.594	15.8635
648.32	15.8854
650.045	16.0877
651.771	15.6949
653.496	15.4151
655.219	16.4497
656.944	16.7075
658.667	17.6539
660.391	17.9511
662.113	17.5002
663.837	17.7963
665.558	18.8143
667.281	19.5487
669.002	19.4794
670.724	19.6843
672.444	20.3254
674.166	20.4595
675.885	20.2212
677.606	20.4711
679.325	21.1022
681.045	23.0641
682.763	24.6262
684.483	25.1766
686.2	26.6792
687.917	27.1576
689.636	27.1805
691.352	27.2655
693.07	27.5712
694.786	28.6219
696.501	29.4721
698.219	29.2716
699.933	30.759
701.65	31.0436
703.364	31.8587
705.078	32.1338
706.793	31.5817
708.506	32.2477
710.219	32.9272
711.934	33.2749
713.646	34.3688
715.358	35.8302
717.071	36.6699
718.782	36.7983
720.493	38.2417
722.204	37.7922
723.916	39.1916
725.626	39.8599
727.336	40.2773
729.045	41.0492
730.756	40.5977
732.464	41.6813
734.173	42.5456
735.881	43.2713
737.59	43.8197
739.297	44.6539
741.004	45.163
742.711	45.0661
744.417	47.194
746.125	48.1251
747.831	49.6822
749.537	51.2869
751.242	52.0768
752.946	52.6263
754.651	54.0641
756.357	55.243
758.061	56.5809
759.764	57.6155
761.467	58.7592
763.17	59.9915
764.872	61.3616
766.575	62.8905
768.276	64.3041
769.978	64.8322
771.679	65.4722
773.382	65.8373
775.083	66.6197
776.783	67.2273
778.483	68.6283
780.182	69.6445
781.882	70.0983
783.581	69.8147
785.279	70.9217
786.978	70.8142
788.676	71.9198
790.373	72.4466
792.071	73.2715
793.768	74.6901
795.464	75.0972
797.161	75.3284
798.857	75.8229
800.552	76.842
802.248	77.7124
803.941	78.4918
805.636	79.5297
807.33	79.687
809.024	81.3932
810.718	82.3142
812.412	82.8186
814.105	83.1384
815.798	82.8057
817.49	83.2362
819.183	83.7056
820.873	84.5828
822.564	84.6148
824.256	85.017
825.947	85.9015
827.637	85.9452
829.328	86.1685
831.016	85.2242
832.705	84.5891
834.395	84.3271
836.084	83.5675
837.772	82.9516
839.459	82.0037
841.147	80.6586
842.835	79.8142
844.522	78.0467
846.209	77.174
847.894	76.2023
849.581	75.7511
851.267	75.0001
852.953	72.7443
854.637	70.4791
856.322	68.5666
858.007	67.1902
859.689	66.3136
861.374	65.1467
863.058	63.8694
864.739	62.2912
866.423	61.2577
868.106	59.2766
869.787	58.7217
871.469	57.7137
873.151	57.3742
874.831	56.23
876.512	54.7055
878.193	53.7003
879.872	53.3114
881.553	53.1038
883.231	53.0765
884.911	53.1344
886.591	53.059
888.268	52.8728
889.947	53.5062
891.623	53.6964
893.302	54.099
894.978	54.4657
896.656	53.6123
898.331	53.0883
900.008	52.8123
901.683	52.7193
903.359	52.8851
905.033	52.0765
906.709	51.5411
908.383	51.4288
910.058	51.1251
911.731	50.0101
913.405	50.0264
915.078	49.2465
916.752	48.0329
918.423	48.1433
920.096	47.2019
921.768	45.9685
923.438	44.84
925.111	43.9499
926.781	42.9445
928.452	41.5883
930.122	40.9408
931.791	39.6746
933.462	38.127
935.13	37.0059
936.799	35.2577
938.468	34.9611
940.136	34.9609
941.803	35.0459
943.472	34.4031
945.139	33.6035
946.805	33.9068
948.473	33.6567
950.139	33.8773
951.804	33.3594
953.471	34.1666
955.136	34.8025
956.801	35.1683
958.465	34.3805
960.131	33.6484
961.794	33.9216
963.458	34.2789
965.12	34.1773
966.785	35.1785
968.447	37.0539
970.109	38.1659
971.771	39.5302
973.432	40.7565
975.095	41.0337
976.756	41.3944
978.417	41.7189
980.077	41.6559
981.737	42.4654
983.396	42.8636
985.057	44.1411
986.716	44.6083
988.375	45.5037
990.033	46.8412
991.691	46.9011
993.349	47.9085
995.006	48.5253
996.663	48.1015
998.32	47.4108
999.976	47.7693
1001.63	48.4261
1003.29	47.3452
1004.95	46.6485
1006.6	45.5303
1008.26	45.2701
1009.91	45.0523
1011.56	44.2195
1013.22	43.9873
1014.87	42.6946
1016.53	41.8269
1018.18	41.6916
1019.83	41.5418
1021.48	41.6232
1023.14	41.1191
1024.79	40.2075
1026.44	39.4802
1028.09	40.1549
1029.74	40.0533
1031.39	39.0774
1033.04	38.1299
1034.69	36.7687
1036.34	37.1715
1037.99	36.6234
1039.64	34.141
1041.29	33.1569
1042.94	31.9376
1044.58	31.5677
1046.23	31.9428
1047.88	31.6001
1049.52	30.6989
1051.17	30.2185
1052.82	28.2288
1054.46	27.7978
1056.11	26.6987
1057.75	26.2194
1059.4	25.2798
1061.04	25.2763
1062.69	25.2046
1064.33	25.2176
1065.98	24.4098
1067.62	24.5533
1069.26	24.6326
1070.9	24.7427
1072.55	24.4028
1074.19	23.5674
1075.83	23.5909
1077.47	23.1835
1079.11	21.5015
1080.76	21.4332
1082.4	20.5664
1084.04	20.6724
1085.68	20.0209
1087.32	19.961
1088.95	19.3596
1090.59	19.472
1092.23	19.3936
1093.87	19.1154
1095.51	19.1753
1097.15	18.9571
1098.78	19.3881
1100.42	19.703
1102.06	20.242
1103.69	19.9663
1105.33	20.2714
1106.97	21.0135
1108.6	20.0519
1110.24	20.009
1111.87	18.2483
1113.51	18.2071
1115.14	17.49
1116.77	17.2671
1118.41	17.516
1120.04	16.505
1121.67	14.5778
1123.31	14.7124
1124.94	13.8686
1126.57	13.0236
1128.2	11.7826
1129.83	10.1265
1131.47	9.08231
1133.1	8.74288
1134.72	7.89454
1136.36	8.27996
1137.98	7.49084
1139.62	6.89785
1141.24	6.38135
1142.87	6.81369
1144.5	6.59415
1146.13	6.73631
1147.76	6.05562
1149.38	6.33846
1151.01	5.80924
1152.64	4.91232
1154.27	4.27846
1155.89	3.82562
1157.52	3.45359
1159.14	3.14571
1160.77	2.38347
1162.39	1.94483
1164.02	0.946005
1165.64	0.900514
1167.27	0.445255
1168.89	0.738519
1170.51	1.22206
1172.14	2.06455
1173.76	2.85102
1175.38	2.96122
1177	3.95081
1178.63	4.15547
1180.25	4.86209
1181.87	5.38093
1183.49	6.05469
1185.11	6.45296
1186.73	6.81164
1188.35	7.16412
1189.97	6.85821
1191.59	7.86026
1193.21	7.64292
1194.83	10.093
1196.45	10.6173
1198.07	12.3224
1199.68	12.7044
1201.3	13.3395
1202.92	14.0861
1204.53	16.0861
1206.15	16.6866
1207.77	17.3294
1209.38	18.8342
1211	21.0958
1212.62	22.5141
1214.23	24.3314
1215.84	26.1742
1217.46	27.5308
1219.07	29.0957
1220.69	31.5981
1222.3	34.0531
1223.91	35.4418
1225.53	37.2957
1227.14	39.1623
1228.75	40.9706
1230.36	42.1058
1231.97	42.5526
1233.59	43.9696
1235.2	44.5975
1236.81	45.7532
1238.42	46.4387
1240.03	48.092
1241.64	49.1915
1243.25	49.6643
1244.85	51.4166
1246.46	52.155
1248.07	53.9047
1249.68	55.3752
1251.29	56.3873
1252.9	56.6378
1254.5	57.6085
1256.11	58.3203
1257.72	59.0117
1259.32	58.5171
1260.93	59.1591
1262.54	59.8148
1264.14	60.7396
1265.75	61.3919
1267.35	62.4697
1268.96	63.5554
1270.56	63.7856
1272.16	64.448
1273.77	64.9842
1275.37	66.3046
1276.97	66.1866
1278.57	66.9107
1280.18	66.7331
1281.78	67.1589
1283.38	66.8055
1284.98	66.2937
1286.58	65.6696
1288.18	66.0474
1289.78	66.1961
1291.38	67.2368
1292.99	67.5404
1294.58	67.4434
1296.18	68.3843
1297.78	69.1585
1299.38	69.9345
1300.98	69.4142
1302.58	69.8815
1304.17	69.81
1305.77	70.2792
1307.37	70.01
1308.97	69.8651
1310.56	69.197
1312.16	69.4034
1313.76	69.8362
1315.35	70.1123
1316.95	70.7528
1318.54	69.9866
1320.14	69.6306
1321.73	68.2944
1323.32	67.3134
1324.92	67.0352
1326.51	65.1986
1328.1	64.4122
1329.7	63.6722
1331.29	62.02
1332.88	61.0846
1334.47	60.8619
1336.07	59.3996
1337.66	57.8213
1339.25	56.8609
1340.84	56.6172
1342.43	55.5949
1344.02	54.278
1345.61	53.2148
1347.2	52.6598
1348.79	50.4981
1350.37	49.2071
1351.96	47.9895
1353.55	46.2602
1355.14	45.2415
1356.73	44.4457
1358.31	42.8402
1359.9	40.9549
1361.49	38.9683
1363.07	38.3586
1364.66	38.1465
1366.25	38.2027
1367.83	37.9577
1369.42	37.3979
1371	36.7751
1372.59	35.2703
1374.17	33.5176
1375.75	33.5622
1377.34	32.2258
1378.92	31.4305
1380.5	30.5743
1382.09	31.1031
1383.67	29.912
1385.25	30.4726
1386.83	29.9254
1388.42	28.8775
1390	28.5593
1391.58	27.5476
1393.16	26.5137
1394.74	24.9001
1396.32	24.7499
1397.9	23.2074
1399.48	22.709
1401.06	22.0587
1402.64	21.8035
1404.21	20.7874
1405.79	20.5796
1407.37	20.0786
1408.95	19.8134
1410.53	19.6125
1412.1	21.2786
1413.68	21.1305
1415.26	22.6029
1416.83	24.0112
1418.41	26.2127
1419.98	27.9358
1421.56	29.6889
1423.13	32.5652
1424.71	34.9769
1426.28	38.3224
1427.86	40.2336
1429.43	43.9498
1431	46.9273
1432.58	49.8053
1434.15	53.5449
1435.72	56.495
1437.29	59.3028
1438.87	61.6707
1440.44	64.6538
1442.01	67.0337
1443.58	69.2798
1445.15	70.6738
1446.72	71.3307
1448.29	71.8199
1449.86	72.4161
1451.43	72.6017
1453	72.6378
1454.57	72.5002
1456.14	71.4998
1457.71	70.7324
1459.27	68.875
1460.84	67.147
1462.41	65.1114
1463.98	63.5926
1465.54	58.9991
1467.11	55.6595
1468.67	52.7077
1470.24	49.2571
1471.81	45.48
1473.37	41.8722
1474.94	39.6707
1476.5	35.6298
1478.07	32.4246
1479.63	29.0898
1481.19	26.1985
1482.76	22.3804
1484.32	19.5024
1485.88	16.4393
1487.45	14.7194
1489.01	12.987
1490.57	10.8519
1492.13	8.46311
1493.69	7.39429
1495.26	5.5306
1496.82	3.82786
1498.38	2.54984
1499.94	1.85522
1501.5	1.53349
1503.06	0.661394
1504.62	0.519941
1506.17	-0.351336
1507.73	0.0945073
1509.29	-0.0483658
1510.85	-0.215106
1512.41	0.237687
1513.97	1.07118
1515.52	2.21839
1517.08	2.00654
1518.64	2.95962
1520.19	3.0578
1521.75	3.94986
1523.31	4.16931
1524.86	4.44557
1526.42	4.98167
1527.97	5.99689
1529.52	5.69586
1531.08	6.01656
1532.63	5.81107
1534.19	6.0456
1535.74	5.81843
1537.29	6.47428
1538.85	7.37483
1540.4	7.99453
1541.95	9.37353
1543.5	9.59373
1545.06	12.2797
1546.61	14.725
1548.16	16.7194
1549.71	18.667
1551.26	21.431
1552.81	23.5438
1554.36	25.1664
1555.91	26.6221
1557.46	28.8364
1559.01	30.2797
1560.56	31.3116
1562.11	32.7194
1563.65	34.462
1565.2	35.8557
1566.75	37.0663
1568.29	38.3936
1569.84	40.7768
1571.39	42.1209
1572.94	43.8529
1574.48	45.723
1576.03	47.4628
1577.57	48.4942
1579.12	49.9285
1580.66	51.1835
1582.21	53.4245
1583.75	54.9385
1585.3	55.9184
1586.84	56.5409
1588.38	57.2164
1589.93	58.8177
1591.47	59.5409
1593.01	59.4067
1594.55	59.5567
1596.1	59.7042
1597.64	59.528
1599.18	59.5543
1600.72	59.4998
1602.26	59.3405
1603.8	58.7018
1605.34	58.6744
1606.88	57.1592
1608.42	56.7275
1609.96	55.8293
1611.5	54.9712
1613.04	54.8855
1614.58	55.0951
1616.12	54.5123
1617.65	55.3095
1619.19	55.6012
1620.73	56.2144
1622.27	57.8159
1623.8	57.86
1625.34	58.2268
1626.87	58.3188
1628.41	58.8711
1629.95	59.0936
1631.48	59.8951
1633.02	61.3909
1634.55	62.8479
1636.09	63.7316
1637.62	65.7387
1639.15	67.2641
1640.69	70.4097
1642.22	72.9487
1643.76	75.0102
1645.29	76.8526
1646.82	78.7834
1648.35	80.9851
1649.88	82.4609
1651.42	84.5332
1652.95	85.9096
1654.48	88.0323
1656.01	90.0011
1657.54	90.9298
1659.07	91.1874
1660.6	91.1781
1662.13	91.4467
1663.66	91.0379
1665.19	90.8792
1666.72	91.1763
1668.24	89.7805
1669.77	88.6705
1671.3	87.0908
1672.83	84.5611
1674.35	83.1979
1675.88	81.26
1677.41	78.9357
1678.93	76.4801
1680.46	73.1268
1681.99	69.9758
1683.51	66.2666
1685.04	62.8639
1686.56	59.1776
1688.09	56.1596
1689.61	53.1922
1691.13	50.045
1692.66	47.0122
1694.18	44.2066
1695.71	40.5382
1697.23	38.0522
1698.75	34.3901
1700.27	30.9716
1701.8	28.5613
1703.32	25.3366
1704.84	23.4941
1706.36	21.4343
1707.88	19.45
1709.4	18.1017
1710.92	16.0593
1712.44	14.5485
1713.96	13.7748
1715.48	12.4589
1717	11.9528
1718.52	9.84187
1720.04	8.61312
1721.56	8.03745
1723.07	7.13183
1724.59	7.07681
1726.11	6.05635
1727.63	5.9623
1729.14	5.73945
1730.66	5.71279
1732.18	4.60009
1733.69	3.88966
1735.21	3.3984
1736.72	3.76814
1738.24	3.33491
1739.75	2.81437
1741.27	3.25762
1742.78	2.92999
1744.3	1.84591
1745.81	1.50694
1747.32	1.45464
1748.84	1.61813
1750.35	1.59783
1751.86	1.1295
1753.37	0.808841
1754.89	0.52347
1756.4	0.0274868
1757.91	-0.457769
1759.42	-0.644118
1760.93	-0.559133
1762.44	-0.484881
1763.95	-0.346102
1765.46	-0.781801
1766.97	-0.994096
1768.48	-1.4282
1769.99	-1.63429
1771.5	-1.60398
1773.01	-1.53831
1774.52	-1.79349
1776.03	-1.06312
1777.53	-0.785694
1779.04	-1.07592
1780.55	-0.594173
1782.06	-0.509701
1783.56	-0.498756
1785.07	-0.43446
1786.57	-0.308211
1788.08	0.386171
1789.59	0.48952
1791.09	0.183609
1792.6	0.0943396
1794.1	-0.178629
1795.6	0.170113
1797.11	0.273689
1798.61	0.47645
1800.12	1.13807
1801.62	1.22872
1803.12	1.3002
1804.63	1.77891
1806.13	1.76022
1807.63	1.48068
1809.13	2.10931
1810.63	2.20449
1812.14	3.08
1813.64	3.58869
1815.14	3.49581
1816.64	3.4861
1818.14	2.83601
1819.64	2.6619
1821.14	2.61301
1822.64	2.92047
1824.14	3.04162
1825.63	2.96612
1827.13	2.82659
1828.63	2.74806
1830.13	3.33538
1831.63	3.09839
1833.12	2.91224
1834.62	3.1403
1836.12	3.58041
1837.62	3.38312
1839.11	3.60233
1840.61	3.21136
1842.1	3.9119
1843.6	4.58698
1845.09	5.47019
1846.59	6.13087
1848.08	6.01139
1849.58	6.27836
1851.07	6.65583
1852.57	6.55189
1854.06	6.66919
1855.55	6.75152
1857.04	6.82913
1858.54	6.58167
1860.03	6.5401
1861.52	7.31073
1863.01	7.8131
1864.5	7.57014
1866	7.40127
1867.49	7.52052
1868.98	7.00943
1870.47	6.99525
1871.96	7.19768
1873.45	7.67578
1874.94	7.50314
1876.43	7.35662
1877.92	7.87466
1879.41	8.3401
1880.89	8.27889
1882.38	9.25687
1882.48	9.43672
1883.97	10.0765
1885.47	10.6335
1886.96	10.3079
1888.46	9.86969
1889.95	10.0339
1891.44	10.3621
1892.94	10.7118
1894.43	10.7587
1895.92	11.0015
1897.41	11.0465
1898.9	11.0481
1900.4	11.3245
1901.89	11.3612
1903.38	11.6853
1904.87	10.5941
1906.36	11.027
1907.85	11.7868
1909.34	11.9791
1910.83	11.9124
1912.32	12.1778
1913.81	12.2748
1915.29	12.5291
1916.78	13.2414
1918.27	13.2501
1919.76	12.8763
1921.25	12.3265
1922.74	12.7653
1924.22	12.8898
1925.71	12.6419
1927.2	13.0412
1928.68	12.871
1930.17	13.2314
1931.65	13.1566
1933.14	13.5103
1934.63	14.0993
1936.11	13.2464
1937.59	12.6349
1939.08	12.4511
1940.56	12.6852
1942.05	12.316
1943.53	13.3229
1945.01	13.9731
1946.5	14.0569
1947.98	14.5534
1949.46	15.1983
1950.94	16.3081
1952.43	16.602
1953.91	16.9697
1955.39	17.3733
1956.87	16.8212
1958.35	16.7638
1959.83	16.2434
1961.31	16.0618
1962.79	16.0179
1964.27	16.1971
1965.75	16.7375
1967.23	16.8766
1968.71	16.8345
1970.19	16.5869
1971.67	16.605
1973.14	16.8395
1974.62	17.2946
1976.1	16.7039
1977.58	16.4272
1979.05	15.939
1980.53	16.3806
1982.01	16.3582
1983.48	15.5865
1984.96	15.312
1986.43	15.1281
1987.91	14.7956
1989.38	14.5359
1990.86	15.0024
1992.33	14.4413
1993.81	14.478
1995.28	14.3276
1996.76	13.4836
1998.23	13.1424
1999.7	12.9234
2001.18	13.3341
2002.65	12.9494
2004.12	12.9032
2005.59	12.8715
2007.06	13.2107
2008.54	13.6041
2010.01	13.1811
2011.48	13.973
2012.95	14.4215
2014.42	15.2812
2015.89	15.6176
2017.36	16.3844
2018.83	15.9876
2020.3	16.2048
2021.77	17.128
2023.24	17.396
2024.71	18.2894
2026.17	18.4858
2027.64	18.5965
2029.11	19.2251
2030.58	19.8555
2032.04	20.5901
2033.51	21.4187
2034.98	22.3762
2036.45	22.9203
2037.91	24
2039.38	25.1028
2040.84	25.3901
2042.31	25.1722
2043.77	25.4245
2045.24	26.0145
2046.7	26.4792
2048.17	26.1849
2049.63	25.3446
2051.1	25.779
2052.56	26.4031
2054.02	26.5989
2055.48	26.3974
2056.95	25.9703
2058.41	26.553
2059.87	26.3273
2061.33	26.7466
2062.8	27.166
2064.26	26.9003
2065.72	26.5665
2067.18	26.0737
2068.64	25.5417
2070.1	25.2048
2071.56	25.5087
2073.02	25.8756
2074.48	26.0545
2075.94	26.1972
2077.4	26.6556
2078.86	26.6714
2080.31	26.7739
2081.77	27.1602
2083.23	27.869
2084.69	28.1604
2086.14	28.5748
2087.6	29.0539
2089.06	29.0457
2090.52	29.1635
2091.97	29.5201
2093.43	30.7266
2094.88	31.3299
2096.34	31.983
2097.79	33.0351
2099.25	33.5262
2100.7	34.3316
2102.16	35.5748
2103.61	36.8307
2105.07	37.7145
2106.52	38.515
2107.97	40.3759
2109.43	41.186
2110.88	42.194
2112.33	43.2123
2113.78	43.8176
2115.24	45.5215
2116.69	46.989
2118.14	48.4765
2119.59	50.6048
2121.04	51.7857
2122.49	53.9118
2123.94	55.9564
2125.39	57.357
2126.84	58.7434
2128.29	61.1052
2129.74	62.9374
2131.19	65.1641
2132.64	66.2171
2134.09	68.0553
2135.54	69.4001
2136.98	70.6833
2138.43	72.4401
2139.88	73.861
2141.33	75.8534
2142.77	77.5443
2144.22	79.007
2145.67	81.0109
2147.11	82.3201
2148.56	83.6252
2150.01	85.3528
2151.45	86.3832
2152.9	88.2217
2154.34	89.9246
2155.79	91.7922
2157.23	92.3308
2158.67	93.4107
2160.12	94.116
2161.56	95.0683
2163	95.8072
2164.45	97.1132
2165.89	98.1083
2167.33	98.4674
2168.78	99.4359
2170.22	99.7124
2171.66	99.9285
2173.1	100.589
2174.54	100.692
2175.98	100.362
2177.42	99.625
2178.86	99.0946
2180.3	99.0531
2181.74	97.492
2183.18	96.8694
2184.62	96.7169
2186.06	96.2957
2187.5	96.0228
2188.94	94.8424
2190.38	94.2257
2191.82	93.152
2193.25	91.5858
2194.69	90.8367
2196.13	88.884
2197.57	87.5967
2199	85.7195
2200.44	83.5459
2201.88	81.3316
2203.31	79.4694
2204.75	77.3696
2206.18	76.203
2207.62	74.4851
2209.05	73.2458
2210.49	70.9936
2211.92	68.319
2213.36	66.3449
2214.79	64.1551
2216.22	62.069
2217.66	60.4734
2219.09	58.3792
2220.52	56.8752
2221.96	55.4767
2223.39	53.5865
2224.82	51.9563
2226.25	50.5764
2227.68	49.3263
2229.11	47.5545
2230.55	46.4803
2231.98	45.7079
2233.41	44.6816
2234.84	43.8068
2236.27	42.7516
2237.7	41.3581
2239.12	39.7634
2240.55	38.8495
2241.98	37.7345
2243.41	37.2435
2244.84	36.3284
2246.27	35.0995
2247.7	34.804
2249.12	34.789
2250.55	33.9601
2251.98	34.212
2253.41	33.8913
2254.83	34.4535
2256.26	34.6537
2257.68	34.6348
2259.11	34.3695
2260.54	34.3362
2261.96	35.0256
2263.39	34.7294
2264.81	34.2841
2266.24	34.038
2267.66	33.2317
2269.08	32.6854
2270.51	32.5139
2271.93	32.1963
2273.35	32.1265
2274.78	31.9935
2276.2	31.849
2277.62	31.536
2279.04	30.2162
2280.47	29.487
2281.89	27.629
2283.31	26.3688
2284.73	26.2162
2286.15	25.9319
2287.57	25.3854
2288.99	24.7263
2290.41	23.4051
2291.83	22.6081
2293.25	21.6524
2294.67	20.827
2296.09	20.3061
2297.51	20.7237
2298.93	20.7177
2300.35	20.2115
2301.76	19.9016
2303.18	19.0228
2304.6	18.6333
2306.02	18.3884
2307.44	18.4939
2308.85	18.205
2310.27	17.8867
2311.69	18.0407
2313.1	18.3337
2314.52	18.9734
2315.93	18.84
2317.35	19.152
2318.76	19.5113
2320.18	19.7547
2321.59	19.3966
2323.01	19.7711
2324.42	19.3083
2325.83	19.5482
2327.25	19.2964
2328.66	19.8526
2330.07	19.7915
2331.49	19.9236
2332.9	20.2099
2334.31	19.3566
2335.72	18.7116
2337.13	18.7279
2338.55	18.3329
2339.96	18.1944
2341.37	18.1002
2342.78	17.5633
2344.19	17.49
2345.6	17.2665
2347.01	15.7612
2348.42	15.0289
2349.83	14.616
2351.24	14.4707
2352.65	14.0499
2354.05	13.9269
2355.46	13.8221
2356.87	13.3848
2358.28	12.7299
2359.69	12.7966
2361.09	12.232
2362.5	12.325
2363.91	12.698
2365.31	12.8117
2366.72	13.3375
2368.13	13.3003
2369.53	12.7792
2370.94	12.2705
2372.34	11.972
2373.75	11.6866
2375.15	12.0663
2376.56	11.6875
2377.96	11.22
2379.37	10.5527
2380.77	10.402
2382.17	10.7552
2383.58	10.8572
2384.98	10.4951
2386.38	9.54299
2387.79	9.51356
2389.19	8.98031
2390.59	8.64954
2391.99	7.8864
2393.39	8.02987
2394.8	7.70051
2396.2	8.03956
2397.6	7.92689
2399	8.02577
2400.4	7.80196
2401.8	7.84418
2403.2	7.90154
2404.6	7.68427
2406	8.32785
2407.4	8.83788
2408.79	8.8829
2410.19	9.27105
2411.59	9.85137
2412.99	10.9257
2414.39	10.8267
2415.78	10.6181
2417.18	10.7232
2418.58	11.5236
2419.98	11.4389
2421.37	11.8125
2422.77	11.7992
2424.16	11.4402
2425.56	11.4199
2426.96	11.605
2428.35	11.8981
2429.74	12.4559
2431.14	12.2362
2432.53	12.5127
2433.93	12.6736
2435.32	12.3963
2436.72	12.3004
2438.11	11.6019
2439.5	10.8787
2440.9	10.4808
2442.29	10.2806
2443.68	10.1357
2445.07	9.63704
2446.47	9.65216
2447.86	9.4143
2449.25	9.12603
2450.64	8.40292
2452.03	8.72063
2453.42	8.52742
2454.81	8.07196
2456.2	7.66201
2457.59	7.65376
2458.98	7.42868
2460.37	7.25144
2461.76	7.41991
2463.15	7.64003
2464.54	7.33416
2465.93	7.69153
2467.32	7.6104
2468.7	7.4006
2470.09	7.58451
2471.48	7.64851
2472.87	7.68177
2474.25	8.04994
2475.64	7.9581
2477.03	7.15044
2478.41	6.86759
2479.8	6.98045
2481.18	6.80568
2482.57	7.12108
2483.95	6.2695
2485.34	6.00897
2486.72	5.39391
2488.11	4.92286
2489.49	4.77008
2490.88	4.82446
2492.26	4.02378
2493.65	3.39162
2495.03	3.58695
2496.41	3.54334
2497.79	3.39156
2499.18	2.69625
2500.56	2.0424
2501.94	1.34803
2503.32	0.560422
2504.7	0.129525
2506.09	-0.463311
2507.47	-1.05951
2508.85	-0.94898
2510.23	-0.670988
2511.61	-0.758257
2512.99	-0.786638
2514.37	-0.594788
2515.75	-0.553283
2517.13	-0.899591
2518.51	-0.664798
2519.89	0.403712
2521.26	1.09277
2522.64	0.912907
2524.02	0.992081
2525.4	1.29176
2526.78	2.22147
2528.15	2.89624
2529.53	3.29539
2530.91	4.13435
2532.28	4.69363
2533.66	5.19429
2535.04	5.74873
2536.41	5.71835
2537.79	6.26486
2539.16	6.86355
2540.54	7.21878
2541.91	7.68786
2543.29	8.10459
2544.66	7.66757
2546.04	7.14734
2547.41	7.07723
2548.78	7.18025
2550.16	6.93098
2551.53	7.06055
2552.9	6.5768
2554.27	6.5946
2555.65	6.08403
2557.02	6.29262
2558.39	6.12303
2559.76	6.16657
2561.13	5.50212
2562.51	4.97523
2563.88	4.37054
2565.25	4.03097
2566.62	3.46369
2567.99	2.47621
2569.36	2.35738
2570.73	2.11333
2572.1	2.19206
2573.47	2.29085
2574.84	2.34199
2576.2	2.69352
2577.57	3.09832
2578.94	2.87262
2580.31	2.74663
2581.68	2.99955
2583.05	3.2663
2584.41	3.17564
2585.78	3.64634
2587.15	4.1234
2588.51	4.3826
2589.88	3.60053
2591.24	3.43976
2592.61	3.87211
2593.98	4.06914
2595.34	4.71809
2596.71	5.26638
2598.07	5.41442
2599.44	5.577
2600.8	5.63132
2602.16	5.46861
2603.53	4.78369
2604.89	4.4832
2606.26	5.03692
2607.62	4.54395
2608.98	4.22137
2610.34	3.94442
2611.71	3.18829
2613.07	2.33586
2614.43	1.76398
2615.79	1.6529
2617.15	1.69424
2618.52	1.64328
2619.88	1.73915
2621.24	1.55316
2622.6	0.922166
2623.96	0.949914
2625.32	0.623187
2626.68	0.235777
2628.04	0.342471
2629.4	-0.660544
2630.75	-0.494933
2632.11	-0.64311
2633.47	-0.542839
2634.83	-0.996571
2636.19	-1.38316
2637.55	-0.821899
2638.9	-0.585725
2640.26	-0.223751
2641.62	-0.129236
2642.98	-0.0103823
2644.33	0.0712974
2645.69	0.299776
2647.04	0.416829
2648.4	0.69392
2649.76	1.41282
2651.11	1.83311
2652.47	1.78183
2653.82	2.07959
2655.18	2.41723
2656.53	1.70915
2657.88	1.18613
2659.24	1.25444
2660.59	1.91849
2661.95	2.52056
2663.3	2.84082
2664.65	3.49854
2666	3.85808
2667.36	3.84065
2668.71	3.85034
2670.06	3.94298
2671.41	3.92175
2672.76	4.83438
2674.12	5.15797
2675.47	4.76523
2676.82	4.86942
2678.17	5.13734
2679.52	5.30691
2680.87	5.17169
2682.22	4.95347
2683.57	5.13463
2684.92	5.32094
2686.27	5.62436
2687.62	5.52354
2688.97	5.51712
2690.31	5.30896
2691.66	5.68248
2693.01	5.20589
2694.36	5.84261
2695.71	6.09457
2697.05	6.05247
2698.4	6.34291
2699.75	6.4239
2701.09	6.65461
2702.44	7.11173
2703.78	7.5651
2705.13	8.27024
2706.48	8.3967
2707.82	8.65432
2709.17	8.97756
2710.51	9.06702
2711.86	9.52788
2713.2	9.87893
2714.54	10.6629
2715.89	10.6478
2717.23	11.1186
2718.57	10.7773
2719.92	10.7655
2721.26	10.6211
2722.6	10.881
2723.95	10.4996
2725.29	11.0651
2726.63	11.6016
2727.97	12.4634
2729.31	12.6782
2730.65	12.993
2732	13.0794
2733.34	12.9499
2734.68	12.6638
2736.02	12.5664
2737.36	12.13
2738.7	12.0426
2740.04	12.0074
2741.38	11.8945
2742.72	11.4502
2744.05	11.0345
2745.39	10.5081
2746.73	10.4684
2748.07	10.1378
2749.41	9.84644
2750.75	9.79128
2752.08	9.90381
2753.42	10.0149
2754.76	9.80424
2756.09	9.5052
2757.43	9.1128
2758.77	9.47668
2760.1	9.40768
2761.44	9.32532
2762.78	9.16098
2764.11	9.05064
2765.44	9.14101
2766.78	9.16638
2768.11	8.73154
2769.45	8.53533
2770.78	8.24081
2772.12	8.09248
2773.45	7.57967
2774.78	7.25154
2776.12	7.33124
2777.45	7.15903
2778.78	7.37775
2780.12	7.48751
2781.45	7.89199
2782.78	7.1385
2784.11	7.24389
2785.44	6.74098
2786.78	6.90952
2788.11	6.85599
2789.44	7.17708
2790.77	6.88437
2792.1	6.96122
2793.43	7.48502
2794.76	7.60767
2796.09	7.66498
2797.42	7.95012
2798.75	7.81824
2800.08	8.02806
2801.4	7.63101
2802.73	7.34727
2804.06	7.70863
2805.39	8.43077
2806.72	8.53951
2808.05	8.67958
2809.37	8.07924
2810.7	7.5628
2812.03	8.24535
2813.35	8.60654
2814.68	8.56063
2816.01	8.92606
2817.33	10.0044
2818.66	10.9711
2819.98	11.5926
2821.31	12.0206
2822.63	12.7103
2823.96	13.8847
2825.28	16.0958
2826.61	17.4592
2827.93	19.8117
2829.25	21.8627
2830.58	24.0421
2831.9	25.995
2833.23	28.6201
2834.55	31.2798
2835.87	33.3686
2837.19	35.6474
2838.52	38.5463
2839.84	41.1913
2841.16	44.2353
2842.48	47.8984
2843.8	51.4153
2845.12	55.9301
2846.44	60.4735
2847.77	65.0608
2849.08	69.5139
2850.4	74.4059
2851.73	79.4324
2853.05	84.9643
2854.36	90.1617
2855.68	95.1784
2857	100.716
2858.32	106.086
2859.64	111.084
2860.96	115.194
2862.28	119.764
2863.59	124.549
2864.91	128.578
2866.23	132.092
2867.55	135.512
2868.86	139.942
2870.18	144.037
2871.5	147.3
2872.81	149.922
2874.13	152.867
2875.44	155.568
2876.76	158.597
2878.07	161.744
2879.39	164.142
2880.7	167.724
2882.02	171.122
2883.33	174.358
2884.65	177.05
2885.96	179.172
2887.28	181.377
2888.59	184.114
2889.9	186.984
2891.21	190.836
2892.53	193.484
2893.84	196.934
2895.15	199.201
2896.46	202.444
2897.78	204.944
2899.09	208.294
2900.4	211.788
2901.71	215.784
2903.02	220.979
2904.33	226.215
2905.64	231.471
2906.95	237.641
2908.26	244.396
2909.57	251.184
2910.88	258.517
2912.19	265.51
2913.5	272.517
2914.81	279.135
2916.12	285.837
2917.43	292.726
2918.73	299.052
2920.04	304.113
2921.35	308.781
2922.66	313.404
2923.96	317.497
2925.27	320.706
2926.58	323.386
2927.88	325.575
2929.19	327.544
2930.5	328.309
2931.8	328.724
2933.11	328.717
2934.41	328.917
2935.72	327.567
2937.02	325.794
2938.33	323.491
2939.63	320.978
2940.94	318.249
2942.24	315.209
2943.54	311.555
2944.85	307.181
2946.15	302.702
2947.45	297.592
2948.76	292.065
2950.06	286.44
2951.36	280.106
2952.66	274.377
2953.97	269.065
2955.27	263.282
2956.57	257.401
2957.87	250.625
2959.17	244.505
2960.47	238.243
2961.77	232.391
2963.07	225.898
2964.37	220.496
2965.67	215.996
2966.97	210.522
2968.27	205.446
2969.57	200.066
2970.87	195.555
2972.17	191.538
2973.47	186.877
2974.77	182.343
2976.07	177.95
2977.36	173.043
2978.66	168.103
2979.96	162.888
2981.26	157.996
2982.55	153.123
2983.85	147.698
2985.15	142.213
2986.44	136.904
2987.74	132.334
2989.03	127.332
2990.33	121.828
2991.63	116.4
2992.92	111.087
2994.21	106.414
2995.51	101.338
2996.8	96.6051
2998.1	92.2951
2999.39	88.2656
3000.69	83.8755
3001.98	79.855
3003.27	76.0489
3004.57	72.5716
3005.86	69.5023
3007.15	65.6957
3008.44	62.3576
3009.74	59.6942
3011.03	57.654
3012.32	55.8787
3013.61	53.4396
3014.9	50.9312
3016.19	48.7017
3017.48	46.8337
3018.78	44.9694
3020.07	43.3014
3021.36	42.2875
3022.65	41.0439
3023.94	39.8116
3025.23	38.6128
3026.51	37.3603
3027.8	36.4882
3029.09	36.212
3030.38	35.8061
3031.67	34.9799
3032.96	34.9389
3034.24	34.7011
3035.53	34.7698
3036.82	34.3561
3038.11	33.7749
3039.39	33.5903
3040.68	33.369
3041.97	33.437
3043.25	33.986
3044.54	34.2669
3045.83	34.9913
3047.11	35.1935
3048.4	35.5211
3049.68	35.5735
3050.97	35.7201
3052.25	36.261
3053.54	36.4332
3054.82	36.1934
3056.11	35.7169
3057.39	35.1821
3058.67	35.2602
3059.96	34.9806
3061.24	34.9656
3062.52	34.0358
3063.81	33.5014
3065.09	33.1182
3066.37	32.5423
3067.65	32.1803
3068.94	31.2288
3070.22	30.3433
3071.5	29.7491
3072.78	29.5472
3074.06	28.8124
3075.34	27.8384
3076.62	26.7364
3077.9	25.5195
3079.18	24.2784
3080.46	23.6148
3081.74	22.6924
3083.02	21.3569
3084.3	20.3945
3085.58	18.6478
3086.86	17.0776
3088.14	15.671
3089.42	14.5499
3090.69	13.3377
3091.97	12.4615
3093.25	11.4036
3094.53	10.7869
3095.8	10.0462
3097.08	9.18677
3098.36	8.11841
3099.63	7.25057
3100.91	6.60923
3102.19	6.21739
3103.46	5.55016
3104.74	5.6034
3106.01	5.42149
3107.29	5.36122
3108.56	4.5522
3109.84	4.08223
3111.11	3.17278
3112.39	3.25256
3113.66	2.79234
3114.94	2.32841
3116.21	2.21228
3117.48	1.88302
3118.76	1.07523
3120.03	0.739271
3121.3	0.622189
3122.57	0.786956
3123.85	0.539619
3125.12	0.460001
3126.39	0.0194496
3127.66	0.455596
3128.93	0.392657
3130.21	0.172788
3131.48	0.287153
3132.75	-0.0548436
3134.02	0.289015
3135.29	0.692292
3136.56	0.669778
3137.83	0.552916
3139.1	0.796464
3140.37	0.624488
3141.64	0.604609
3142.91	0.387109
3144.17	0.393091
3145.44	0.542266
3146.71	1.5825
3147.98	2.43375
3149.25	4.0228
