#Acq. time (s)=	45
#Accumulations=	2
#Range (cm-¹)=	200...3150
#Windows=	2
#Auto scanning=	Off
#Autofocus=	Off
#Macrospot=	Off
#AutoExposure=	Off
#Spike filter=	Multiple accum.
#Delay time (s)=	0
#Binning=	1
#Readout mode=	Signal
#DeNoise=	Off
#ICS correction=	On
#Dark correction=	Off
#Inst. Process=	Off
#Detector Gain=	Best Dynamic Range
#Detector ADC=	20 kHz       
#Detector temperature (°C)=	-69.85
#Instrument=	LabRAM HR Evol
#Detector=	Synapse
#Objective=	x100
#Grating=	600 gr/mm
#ND Filter=	100%
#Laser (nm)=	532 
#Hole=	100.021
#Range=	Auto
#Laser Pol.=	No
#Raman. Pol.=	No
#Laser Pol. (°)=	-0.0007625
#Raman Pol. (°)=	89.9995
#Collection=	Microscope
#StageXY=	Marzhauser
#StageZ=	Marzhauser
#X (µm)=	-5935.5
#Y (µm)=	2871.1
#Z (µm)=	-223.3
#Full time(mm:ss)=	3:19
#Project=	
#Sample=	
#Site=	
#Title=	Thy_20_09_50_2x_45s_532 nm_x100_100%_600 gr_mm
#Remark=	
#Date=	29.06.2022 14:08
#Acquired=	29.06.2022 14:08:00
#Base:Fit=	10.08.2022 09:52:02
#Base:Fit=	10.08.2022 09:52:12
#Base:Sub=	10.08.2022 09:54:21
#Filter:Polynom=	16.08.2022 10:24:04
#AxisType[0]=Intens
#AxisUnit[0]=Cnt
#AxisType[1]=Spectr
#AxisUnit[1]=1/cm
200.523	38.0297
202.339	37.6524
204.154	36.4959
205.967	34.6011
207.781	32.5007
209.596	30.3931
211.409	28.5439
213.222	25.8149
215.034	23.8317
216.848	22.0886
218.659	21.137
220.47	18.9521
222.281	17.6401
224.091	15.7636
225.903	14.4313
227.713	13.1352
229.522	11.713
231.331	9.88849
233.14	8.76765
234.948	7.39456
236.756	7.1397
238.566	5.28216
240.373	4.17178
242.18	3.55132
243.986	3.06497
245.792	2.61384
247.598	1.45574
249.403	0.803251
251.208	0.619905
253.013	0.269561
254.818	-0.297692
256.624	0.146716
258.427	1.30189
260.231	2.90241
262.034	5.03327
263.836	7.71276
265.638	9.93852
267.44	9.77295
269.242	9.993
271.043	9.55149
272.844	9.05059
274.645	9.30919
276.445	9.49801
278.245	9.88923
280.044	11.2844
281.843	11.3232
283.642	12.2332
285.44	12.7499
287.238	13.6804
289.036	12.7322
290.833	11.4832
292.63	11.7014
294.425	12.0016
296.221	11.8567
298.017	11.8004
299.813	12.4098
301.608	12.2538
303.403	11.5806
305.198	12.4608
306.992	12.9263
308.786	11.7521
310.579	11.5661
312.371	11.8152
314.163	10.8227
315.956	11.0413
317.748	10.9405
319.54	11.1719
321.331	10.8854
323.122	10.7533
324.911	10.4532
326.701	10.9556
328.491	10.5061
330.281	10.7558
332.071	11.389
333.857	10.8885
335.646	10.1761
337.434	10.9456
339.222	11.6154
341.008	11.804
342.795	11.6072
344.582	12.5195
346.369	13.6329
348.153	14.5125
349.939	13.3494
351.724	13.3443
353.51	13.1434
355.292	12.6752
357.077	11.8003
358.861	11.3797
360.643	10.2256
362.426	9.56394
364.21	9.54479
365.99	9.87513
367.773	9.62043
369.555	10.0411
371.335	8.66887
373.116	9.35822
374.897	8.7337
376.676	7.48144
378.456	6.15189
380.236	6.03213
382.014	6.62384
383.793	6.61323
385.57	5.97703
387.349	6.29761
389.127	5.90004
390.903	5.79971
392.681	5.65871
394.456	6.0085
396.233	5.64717
398.007	5.05201
399.784	6.30584
401.56	5.6637
403.333	5.39502
405.108	6.54789
406.881	6.33352
408.656	6.0038
410.428	6.34267
412.202	6.60789
413.973	7.57819
415.746	7.58785
417.517	6.66599
419.29	5.97772
421.06	6.5269
422.831	6.03893
424.601	6.48242
426.37	7.75696
428.141	6.95974
429.909	7.28146
431.679	7.70246
433.447	8.57944
435.216	7.32762
436.983	6.96066
438.75	6.20332
440.519	6.19806
442.285	5.93619
444.052	5.90214
445.818	5.35668
447.583	4.24513
449.349	4.06641
451.114	4.09332
452.878	5.34583
454.643	5.57244
456.407	5.75211
458.169	5.53429
459.934	4.12966
461.696	4.27106
463.458	4.58035
465.222	4.57057
466.983	4.82323
468.744	5.11162
470.507	5.85143
472.267	6.92307
474.027	6.99286
475.787	7.35256
477.548	8.83609
479.307	10.3776
481.065	10.7954
482.823	11.3628
484.583	12.4125
486.341	13.5302
488.098	14.0943
489.855	14.5639
491.612	15.6235
493.37	16.9185
495.126	17.5726
496.881	19.7086
498.636	22.0444
500.391	22.6977
502.148	23.2554
503.902	23.7951
505.656	24.0987
507.409	25.3983
509.162	26.1678
510.915	26.1107
512.668	25.6539
514.42	26.3504
516.174	25.9612
517.925	26.3628
519.676	25.9432
521.427	24.7328
523.178	22.9803
524.928	22.879
526.678	22.5576
528.427	21.6428
530.176	21.3102
531.925	20.704
533.673	19.7
535.422	19.4905
537.169	18.6598
538.917	17.2833
540.664	16.4359
542.411	15.423
544.157	14.8221
545.903	13.0335
547.649	13.2091
549.395	12.7193
551.14	12.4596
552.884	10.6959
554.629	10.1524
556.373	9.99297
558.117	10.1627
559.86	9.49374
561.603	8.54175
563.346	7.71772
565.089	7.52533
566.831	6.1941
568.573	5.62719
570.314	5.21374
572.053	5.54312
573.794	4.79086
575.534	4.9269
577.274	5.0858
579.014	5.42329
580.754	5.46223
582.493	5.70708
584.23	6.29398
585.968	5.97189
587.706	5.05876
589.444	4.31479
591.181	3.67613
592.919	2.89175
594.653	3.07192
596.39	2.46334
598.126	2.093
599.862	1.51895
601.595	1.33813
603.33	0.305407
605.065	0.172159
606.8	-1.04618
608.532	-0.774821
610.266	-0.507348
611.999	-0.397799
613.732	1.16009
615.463	1.99178
617.196	2.767
618.928	3.34443
620.66	4.44139
622.389	4.60944
624.12	5.15544
625.851	6.09589
627.58	6.99471
629.31	8.13464
631.04	9.30091
632.767	9.99473
634.497	10.9096
636.223	10.4262
637.952	11.049
639.68	11.5902
641.406	11.9705
643.134	12.7443
644.861	13.1853
646.586	13.7857
648.312	14.7467
650.037	14.7238
651.762	16.506
653.486	17.5085
655.211	17.9975
656.936	19.7822
658.659	20.8288
660.383	21.8706
662.105	21.7209
663.829	22.1051
665.55	22.0385
667.273	22.6895
668.994	22.8232
670.716	22.4883
672.436	22.8359
674.158	22.9889
675.877	22.4744
677.598	21.9264
679.317	22.2992
681.035	22.8507
682.755	23.0907
684.473	22
686.192	21.5053
687.909	21.0323
689.628	21.7634
691.344	23.14
693.06	22.5886
694.778	24.5667
696.493	26.2292
698.211	27.5887
699.925	28.8502
701.64	29.1246
703.356	29.7352
705.07	30.9497
706.783	32.5337
708.498	33.6273
710.211	36.1882
711.924	37.8479
713.638	39.0109
715.35	41.254
717.061	42.5754
718.774	43.355
720.485	44.6585
722.196	45.7324
723.906	46.8361
725.618	48.2561
727.328	48.4008
729.037	49.4903
730.746	51.2116
732.456	51.9866
734.165	53.2044
735.873	55.0833
737.58	57.0477
739.289	57.9099
740.997	59.3914
742.703	60.9729
744.41	60.9296
746.116	62.621
747.823	63.1246
749.529	64.4451
751.234	64.9258
752.938	66.2901
754.643	67.0807
756.347	67.5743
758.051	68.0792
759.756	68.5228
761.459	69.3983
763.162	70.2642
764.865	71.7002
766.567	72.1691
768.269	73.3021
769.97	72.3088
771.671	72.9389
773.372	73.2595
775.073	74.0736
776.773	73.5577
778.473	72.1337
780.174	73.2501
781.874	74.5455
783.573	73.906
785.271	74.3674
786.97	75.5719
788.668	76.5182
790.365	76.8572
792.063	76.6907
793.76	76.32
795.456	77.6074
797.153	77.5707
798.847	76.5778
800.543	77.4415
802.238	76.5758
803.933	76.4285
805.628	75.607
807.322	74.782
809.017	74.6942
810.71	73.9694
812.404	74.283
814.097	74.9358
815.79	75.6404
817.483	75.7517
819.173	77.129
820.865	77.2027
822.556	75.6702
824.248	76.0635
825.939	75.2246
827.629	75.905
829.318	76.17
831.008	76.0993
832.697	75.2164
834.387	74.231
836.076	74.1486
837.765	74.036
839.451	73.8972
841.139	72.7699
842.827	72.4634
844.514	72.8979
846.2	71.9096
847.886	69.1678
849.573	69.2091
851.259	69.0616
852.943	68.2701
854.629	65.9892
856.314	65.0951
857.997	63.6208
859.682	62.7261
861.366	61.7125
863.05	61.4525
864.732	61.8035
866.415	61.4209
868.098	59.5934
869.779	58.685
871.461	58.3207
873.141	56.2698
874.823	55.1895
876.505	54.5604
878.184	54.4454
879.865	54.5183
881.545	53.0566
883.223	52.9924
884.903	53.3529
886.581	52.8131
888.26	53.0414
889.937	52.5494
891.616	53.1512
893.294	53.555
894.97	53.1287
896.648	53.463
898.323	52.3628
900	52.0729
901.675	52.4003
903.351	51.8396
905.026	50.5568
906.701	49.7449
908.375	50.1383
910.05	49.1331
911.723	49.3489
913.398	48.6032
915.07	47.5922
916.742	46.9288
918.415	46.71
920.087	46.5304
921.76	46.3716
923.43	45.091
925.103	43.8433
926.773	43.5259
928.443	43.1464
930.114	42.764
931.783	42.6175
933.454	44.6368
935.123	44.1161
936.791	43.3828
938.461	43.1102
940.128	42.026
941.796	40.9032
943.464	41.1996
945.131	39.8606
946.797	38.9338
948.465	37.7895
950.131	36.5567
951.797	36.2753
953.462	36.7544
955.128	35.8195
956.793	34.7031
958.457	33.4208
960.121	32.49
961.786	32.7145
963.45	33.1712
965.113	34.2839
966.775	34.7981
968.44	35.299
970.102	36.5359
971.763	37.334
973.425	37.9073
975.086	39.0569
976.748	39.0844
978.409	39.3908
980.069	40.2601
981.729	40.3091
983.388	40.5444
985.048	41.2408
986.708	40.6994
988.367	40.2916
990.025	40.4549
991.683	40.9382
993.341	40.5817
994.998	40.2035
996.655	40.7626
998.312	40.0518
999.969	40.3525
1001.62	40.6306
1003.28	40.5495
1004.94	40.8838
1006.59	40.3362
1008.25	40.8687
1009.9	41.5143
1011.56	40.7456
1013.21	40.2405
1014.86	40.0974
1016.52	39.5854
1018.17	38.4773
1019.82	37.022
1021.48	35.869
1023.13	34.4919
1024.78	32.8054
1026.43	32.0779
1028.08	30.1175
1029.73	28.7467
1031.38	27.3974
1033.03	26.449
1034.68	25.1543
1036.33	23.7486
1037.98	21.7977
1039.63	20.827
1041.28	19.3291
1042.93	19.7548
1044.57	20.3424
1046.22	19.6702
1047.87	18.6394
1049.52	17.5406
1051.16	17.4627
1052.81	16.5534
1054.45	16.2398
1056.1	15.6495
1057.75	15.0273
1059.39	13.8118
1061.04	14.4021
1062.68	14.536
1064.32	14.3614
1065.97	14.7417
1067.61	14.7098
1069.25	14.5261
1070.9	15.2209
1072.54	16.3707
1074.18	17.092
1075.82	17.7806
1077.47	19.6832
1079.11	20.7624
1080.75	21.0393
1082.39	21.4371
1084.03	22.4028
1085.67	23.5583
1087.31	23.9059
1088.95	23.8802
1090.59	24.5356
1092.22	25.4744
1093.86	25.495
1095.5	25.6849
1097.14	26.4832
1098.78	27.1752
1100.41	27.4838
1102.05	27.0625
1103.69	28.221
1105.32	27.4419
1106.96	27.4546
1108.59	28.1641
1110.23	27.891
1111.86	28.4884
1113.5	28.5678
1115.13	27.7869
1116.77	26.6046
1118.4	25.4231
1120.03	23.7351
1121.67	22.9633
1123.3	21.6437
1124.93	20.1833
1126.56	17.6576
1128.19	16.5266
1129.83	15.6186
1131.46	15.3929
1133.09	14.8977
1134.72	15.1286
1136.35	15.3633
1137.98	14.1486
1139.61	14.0667
1141.24	13.621
1142.86	14.1853
1144.49	14.2135
1146.12	13.0309
1147.75	12.1675
1149.38	12.1572
1151	12.1216
1152.63	12.1916
1154.26	11.6079
1155.88	11.2316
1157.51	11.4508
1159.14	10.2184
1160.76	8.4919
1162.39	7.7198
1164.01	7.43816
1165.63	7.33986
1167.26	6.52466
1168.88	6.30302
1170.51	6.77973
1172.13	6.85043
1173.75	6.98006
1175.38	6.44073
1177	6.55442
1178.62	7.78936
1180.24	8.43806
1181.86	8.24402
1183.48	8.41446
1185.1	9.79378
1186.72	10.2399
1188.34	10.8278
1189.96	11.4024
1191.58	12.0462
1193.2	12.1089
1194.82	11.3778
1196.44	12.0041
1198.06	12.399
1199.68	13.4505
1201.29	14.1312
1202.91	15.2393
1204.53	15.7455
1206.14	17.1935
1207.76	18.3399
1209.38	20.8611
1210.99	22.5954
1212.61	25.2992
1214.22	26.6671
1215.84	28.3641
1217.45	30.0712
1219.07	31.2799
1220.68	33.3404
1222.29	34.8437
1223.91	36.9389
1225.52	38.9134
1227.13	39.7326
1228.74	42.2545
1230.36	43.6627
1231.97	45.0795
1233.58	46.3888
1235.19	47.0728
1236.8	48.86
1238.41	50.1147
1240.02	50.5381
1241.63	50.4636
1243.24	50.2246
1244.85	50.5201
1246.46	51.2604
1248.07	52.3946
1249.67	55.0012
1251.28	57.1274
1252.89	59.0375
1254.5	60.6476
1256.1	62.7945
1257.71	64.424
1259.32	65.8688
1260.92	67.5442
1262.53	68.6088
1264.13	69.5831
1265.74	71.8238
1267.34	73.5138
1268.95	74.4064
1270.55	76.1324
1272.15	77.3734
1273.76	77.0025
1275.36	78.3717
1276.97	80.5555
1278.57	81.1672
1280.17	81.9827
1281.77	82.3372
1283.37	83.5742
1284.97	84.1942
1286.58	84.469
1288.18	84.7162
1289.78	85.8749
1291.38	87.8217
1292.98	88.1237
1294.58	87.775
1296.18	89.4781
1297.78	89.8756
1299.37	90.0169
1300.97	89.8202
1302.57	89.8572
1304.17	90.1822
1305.77	90.3947
1307.36	89.5333
1308.96	89.7081
1310.55	88.8274
1312.15	88.2248
1313.75	87.1542
1315.34	86.3826
1316.94	85.7736
1318.53	84.7439
1320.13	83.5189
1321.72	81.0768
1323.32	81.3932
1324.91	82.0795
1326.5	83.6855
1328.1	84.8396
1329.69	85.7469
1331.28	84.6519
1332.87	84.8537
1334.47	84.237
1336.06	83.4944
1337.65	82.2548
1339.24	82.3478
1340.83	82.3353
1342.42	81.4098
1344.01	81.265
1345.6	80.4917
1347.19	79.6295
1348.78	78.508
1350.37	77.1276
1351.96	75.714
1353.54	73.6068
1355.13	73.6275
1356.72	72.8739
1358.31	70.2323
1359.89	68.6874
1361.48	68.0196
1363.07	66.8029
1364.65	65.4743
1366.24	63.6307
1367.82	63.2639
1369.41	62.3803
1370.99	62.0856
1372.58	60.5625
1374.16	59.414
1375.75	59.2379
1377.33	57.8898
1378.91	56.7769
1380.5	55.797
1382.08	55.5113
1383.66	55.1052
1385.25	54.4318
1386.83	53.0607
1388.41	52.7088
1389.99	51.3727
1391.57	50.2566
1393.15	49.3938
1394.73	48.5377
1396.31	47.7169
1397.89	46.8481
1399.47	45.7227
1401.05	44.9674
1402.63	45.5795
1404.21	45.5542
1405.78	44.9297
1407.36	44.2096
1408.94	44.1585
1410.52	44.9214
1412.1	46.5008
1413.67	46.1517
1415.25	47.1789
1416.82	49.0674
1418.4	51.6779
1419.98	53.5023
1421.55	55.0782
1423.13	56.4209
1424.7	58.2134
1426.28	60.6122
1427.85	62.1603
1429.42	63.4
1431	65.0548
1432.57	66.5112
1434.14	69.6784
1435.71	71.6307
1437.29	72.6613
1438.86	75.1909
1440.43	76.5224
1442	77.4726
1443.57	78.4612
1445.14	79.1956
1446.71	80.1407
1448.28	80.1702
1449.85	81.1164
1451.42	80.3466
1452.99	79.8343
1454.56	80.5862
1456.13	79.6213
1457.7	78.1578
1459.26	76.6343
1460.83	75.0517
1462.4	72.8042
1463.97	69.4592
1465.54	67.0171
1467.1	63.8184
1468.67	60.7321
1470.23	57.8481
1471.8	55.0797
1473.36	51.213
1474.93	48.6194
1476.49	45.4573
1478.06	43.0702
1479.62	40.9636
1481.19	38.4671
1482.75	36.0592
1484.31	33.4745
1485.88	31.7144
1487.44	30.1557
1489	27.6606
1490.56	25.5289
1492.13	24.5436
1493.69	24.1428
1495.25	23.2547
1496.81	22.4999
1498.37	21.8681
1499.93	21.6992
1501.49	21.3576
1503.05	21.3526
1504.61	22.0237
1506.17	22.327
1507.73	22.3225
1509.28	22.2796
1510.84	22.9625
1512.4	24.0618
1513.96	23.7832
1515.52	23.7143
1517.07	24.5312
1518.63	24.4415
1520.19	26.1752
1521.74	26.7538
1523.3	28.2799
1524.85	28.625
1526.41	30.868
1527.96	32.7162
1529.52	33.6035
1531.07	35.4299
1532.63	37.7283
1534.18	38.2506
1535.73	39.7726
1537.29	40.8742
1538.84	42.7913
1540.39	43.7326
1541.94	44.794
1543.5	47.6511
1545.05	49.0843
1546.6	51.8837
1548.15	54.2029
1549.7	56.661
1551.25	57.7271
1552.8	60.7946
1554.35	62.544
1555.9	64.8969
1557.45	66.7869
1559	67.609
1560.55	69.1391
1562.1	70.2098
1563.65	72.1141
1565.19	74.2775
1566.74	75.7814
1568.29	77.2917
1569.83	79.5642
1571.38	81.0053
1572.93	83.1481
1574.47	84.5445
1576.02	86.1219
1577.56	87.4738
1579.11	88.343
1580.66	89.687
1582.2	90.6593
1583.74	89.9169
1585.29	89.017
1586.83	88.3451
1588.38	88.6497
1589.92	88.1318
1591.46	87.5966
1593.01	86.589
1594.55	85.9897
1596.09	85.2897
1597.63	85.6574
1599.17	84.398
1600.71	83.7667
1602.25	82.2759
1603.79	82.6194
1605.34	81.3812
1606.88	80.7405
1608.41	80.5364
1609.95	79.6129
1611.49	76.6659
1613.03	76.1489
1614.57	74.5748
1616.11	73.8499
1617.65	73.0502
1619.18	72.2254
1620.72	72.6025
1622.26	72.133
1623.79	72.4616
1625.33	72.2315
1626.87	71.5562
1628.4	71.3711
1629.94	72.1587
1631.48	72.1839
1633.01	72.0789
1634.55	71.9045
1636.08	72.0031
1637.61	72.7459
1639.15	73.1965
1640.68	73.249
1642.21	72.4324
1643.75	72.2613
1645.28	73.139
1646.81	74.8582
1648.34	75.4472
1649.88	76.4681
1651.41	76.5181
1652.94	76.5153
1654.47	77.0628
1656	76.4978
1657.53	76.1178
1659.06	74.6761
1660.59	73.8003
1662.12	72.5593
1663.65	71.4346
1665.18	70.3918
1666.71	68.5573
1668.24	66.9608
1669.76	65.3232
1671.29	63.7085
1672.82	61.4903
1674.35	59.1873
1675.87	56.6269
1677.4	54.8897
1678.93	53.0801
1680.45	50.989
1681.98	48.3509
1683.5	46.4824
1685.03	43.5987
1686.55	40.8416
1688.08	37.6864
1689.6	36.922
1691.13	33.8904
1692.65	32.0939
1694.17	30.1307
1695.7	28.0793
1697.22	26.7956
1698.74	25.1527
1700.27	23.8676
1701.79	21.5505
1703.31	20.6088
1704.83	19.6027
1706.35	17.6675
1707.87	15.4015
1709.39	14.1042
1710.91	13.299
1712.43	11.8114
1713.95	10.6152
1715.47	9.71397
1716.99	8.73456
1718.51	8.52177
1720.03	9.09847
1721.55	9.52948
1723.07	8.94604
1724.58	8.39622
1726.1	8.17192
1727.62	7.77739
1729.13	7.20798
1730.65	7.80439
1732.17	7.20261
1733.68	7.10691
1735.2	5.97772
1736.72	5.77951
1738.23	5.20501
1739.74	3.95506
1741.26	3.49891
1742.77	3.28628
1744.29	3.24218
1745.8	3.08166
1747.32	2.18222
1748.83	1.80848
1750.34	1.38659
1751.85	1.49466
1753.37	1.29021
1754.88	0.941767
1756.39	0.807879
1757.9	0.664744
1759.41	0.756844
1760.92	0.244895
1762.44	0.350615
1763.95	-0.327515
1765.46	0.332417
1766.96	-0.442636
1768.47	0.410278
1769.98	0.695272
1771.49	0.426942
1773	0.776491
1774.51	0.709952
1776.02	0.973418
1777.53	0.681308
1779.03	1.2173
1780.54	0.834571
1782.05	0.747505
1783.55	0.741454
1785.06	1.30774
1786.57	1.28502
1788.07	1.28855
1789.58	2.29926
1791.08	2.25646
1792.59	2.46449
1794.09	2.70381
1795.6	2.91196
1797.1	3.39103
1798.61	3.53611
1800.11	3.84689
1801.61	3.88171
1803.12	3.59406
1804.62	3.32139
1806.12	3.61492
1807.62	3.38066
1809.12	3.59449
1810.63	3.35653
1812.13	3.53666
1813.63	3.25601
1815.13	2.69515
1816.63	3.32822
1818.13	3.2729
1819.63	3.74829
1821.13	3.74415
1822.63	3.55666
1824.13	3.45382
1825.63	3.15173
1827.13	2.86108
1828.62	2.46696
1830.12	2.77488
1831.62	2.65141
1833.12	2.36014
1834.61	2.42454
1836.11	1.49066
1837.61	1.16699
1839.1	1.39444
1840.6	1.95357
1842.09	1.54711
1843.59	1.688
1845.09	1.41731
1846.58	1.18306
1848.08	1.15201
1849.57	1.37621
1851.06	1.25923
1852.56	0.994806
1854.05	1.08862
1855.54	1.42058
1857.04	1.13874
1858.53	1.11249
1860.02	1.34935
1861.51	1.16571
1863.01	1.69252
1864.5	1.59394
1865.99	1.30702
1867.48	1.75659
1868.97	2.00006
1870.46	2.13052
1871.95	2.32155
1873.44	2.39993
1874.93	2.17711
1876.42	2.19142
1877.91	1.95107
1879.4	2.81477
1880.89	3.42633
1882.37	3.27247
1882.46	3.18427
1883.95	2.95648
1885.45	3.0747
1886.94	3.37717
1888.43	3.62718
1889.93	4.16182
1891.42	4.3327
1892.91	4.43218
1894.41	4.13032
1895.9	3.87282
1897.39	3.43902
1898.88	3.16598
1900.37	3.2456
1901.86	3.6785
1903.36	4.44227
1904.85	4.38695
1906.34	4.46769
1907.83	4.58424
1909.32	4.62342
1910.81	4.91577
1912.29	5.27067
1913.78	4.88578
1915.27	4.82713
1916.76	4.83341
1918.25	5.01825
1919.74	5.13264
1921.23	4.73126
1922.71	4.73595
1924.2	4.28333
1925.69	5.31624
1927.17	5.18487
1928.66	5.35548
1930.15	5.38026
1931.63	5.36328
1933.12	5.26888
1934.6	5.83974
1936.09	5.97325
1937.57	6.24018
1939.06	6.66365
1940.54	6.69256
1942.02	6.22415
1943.51	6.7868
1944.99	6.96096
1946.47	7.36045
1947.96	7.19438
1949.44	6.61862
1950.92	6.07571
1952.4	6.33711
1953.88	6.20339
1955.37	5.53952
1956.85	5.37755
1958.33	4.88204
1959.81	4.38611
1961.29	4.76894
1962.77	4.70891
1964.25	4.76902
1965.73	4.837
1967.21	5.04482
1968.69	5.16828
1970.16	5.29439
1971.64	5.84785
1973.12	6.40824
1974.6	6.67779
1976.08	6.18025
1977.55	6.55638
1979.03	6.15181
1980.51	6.4478
1981.98	6.73524
1983.46	6.29665
1984.94	6.30192
1986.41	6.1629
1987.89	6.63043
1989.36	6.64256
1990.84	6.78943
1992.31	7.50518
1993.79	7.69815
1995.26	8.309
1996.73	8.57386
1998.21	8.64488
1999.68	9.0482
2001.15	8.48096
2002.63	8.27652
2004.1	8.02154
2005.57	7.76583
2007.04	8.16146
2008.51	8.67833
2009.99	7.61204
2011.46	8.25461
2012.93	7.80297
2014.4	7.6046
2015.87	7.26914
2017.34	7.77819
2018.81	7.44165
2020.28	7.07482
2021.75	6.35626
2023.21	5.74187
2024.68	6.08799
2026.15	6.50633
2027.62	6.40268
2029.09	6.09514
2030.56	6.64306
2032.02	7.34648
2033.49	7.99359
2034.96	8.98502
2036.42	9.35962
2037.89	9.47037
2039.36	9.71355
2040.82	10.153
2042.29	10.2557
2043.75	10.5765
2045.22	11.6277
2046.68	11.7062
2048.14	11.9053
2049.61	12.2755
2051.07	13.7252
2052.54	13.6935
2054	14.8259
2055.46	14.8261
2056.93	14.8504
2058.39	16.081
2059.85	15.9281
2061.31	17.0245
2062.77	17.6643
2064.23	18.2095
2065.7	18.3326
2067.16	18.1563
2068.62	18.7969
2070.08	17.3925
2071.54	17.4395
2073	17.3363
2074.46	16.9328
2075.92	15.8855
2077.38	15.9334
2078.83	15.9692
2080.29	15.3778
2081.75	15.1692
2083.21	14.7323
2084.67	15.2784
2086.12	14.8524
2087.58	15.0053
2089.04	14.8441
2090.49	14.5168
2091.95	14.4768
2093.41	13.9964
2094.86	13.4084
2096.32	13.5507
2097.77	13.9223
2099.23	13.6895
2100.68	13.897
2102.14	14.5234
2103.59	15.2625
2105.05	15.0621
2106.5	14.8497
2107.95	15.1847
2109.41	15.8351
2110.86	15.8498
2112.31	16.9724
2113.76	17.2409
2115.21	17.3454
2116.67	18.2795
2118.12	19.9624
2119.57	20.262
2121.02	21.2939
2122.47	22.1198
2123.92	23.3866
2125.37	24.2205
2126.82	26.2962
2128.27	27.0199
2129.72	28.3874
2131.17	29.3677
2132.62	30.0671
2134.07	31.857
2135.51	33.0945
2136.96	33.6565
2138.41	35.0424
2139.86	36.0237
2141.31	37.1977
2142.75	37.2427
2144.2	38.5367
2145.65	38.7777
2147.09	39.8224
2148.54	40.2221
2149.98	41.5856
2151.43	42.4589
2152.87	43.1893
2154.32	44.3787
2155.76	44.8776
2157.21	45.5631
2158.65	46.0902
2160.1	46.2083
2161.54	46.455
2162.98	46.786
2164.43	47.5558
2165.87	48.0303
2167.31	48.4043
2168.75	48.8896
2170.2	49.4953
2171.64	50.1315
2173.08	50.6662
2174.52	51.2575
2175.96	50.9375
2177.4	50.27
2178.84	50.6823
2180.28	50.6863
2181.72	50.3141
2183.16	49.4391
2184.6	49.3791
2186.04	48.7157
2187.48	48.0776
2188.92	48.2484
2190.36	48.1626
2191.79	47.2056
2193.23	46.5048
2194.67	45.8033
2196.11	45.6142
2197.54	44.9907
2198.98	44.1131
2200.42	42.932
2201.85	42.1636
2203.29	40.9881
2204.72	40.2723
2206.16	39.6508
2207.59	38.4191
2209.03	36.7352
2210.46	35.7316
2211.9	34.0242
2213.33	33.0455
2214.77	31.7203
2216.2	30.2882
2217.63	29.3455
2219.07	28.6801
2220.5	27.7467
2221.93	27.2138
2223.36	26.3324
2224.8	25.2031
2226.23	24.17
2227.66	23.5993
2229.09	23.4154
2230.52	22.9201
2231.95	22.454
2233.39	22.6586
2234.81	21.74
2236.25	21.0933
2237.67	20.6365
2239.1	20.6353
2240.53	20.5167
2241.96	20.737
2243.39	20.8398
2244.82	20.2746
2246.25	20.0531
2247.68	19.2297
2249.1	19.1993
2250.53	19.0867
2251.96	19.3049
2253.38	19.0986
2254.81	19.1908
2256.24	19.1288
2257.66	18.8689
2259.09	18.1983
2260.51	19.0856
2261.94	18.7703
2263.36	17.7742
2264.79	17.1945
2266.21	17.2671
2267.64	17.3819
2269.06	17.1578
2270.49	16.4553
2271.91	16.5446
2273.33	16.0629
2274.76	15.354
2276.18	14.9216
2277.6	14.8615
2279.02	13.8725
2280.44	13.5447
2281.87	13.6566
2283.29	13.3137
2284.71	13.4515
2286.13	13.1225
2287.55	12.3766
2288.97	12.5135
2290.39	11.6178
2291.81	10.989
2293.23	10.0143
2294.65	10.0521
2296.07	10.6686
2297.49	11.5584
2298.91	12.3428
2300.33	13.0279
2301.74	12.9445
2303.16	12.9407
2304.58	13.4343
2306	13.3778
2307.41	13.9372
2308.83	14.4635
2310.25	15.4062
2311.66	15.411
2313.08	14.7319
2314.5	14.5681
2315.91	14.4181
2317.33	14.7333
2318.74	14.5803
2320.16	14.6956
2321.57	14.489
2322.98	15.0009
2324.4	13.9645
2325.81	13.9111
2327.23	13.9327
2328.64	13.6389
2330.05	13.2384
2331.46	12.8611
2332.88	11.4475
2334.29	10.5895
2335.7	10.311
2337.11	9.7461
2338.52	8.99465
2339.94	7.67919
2341.35	6.28069
2342.76	5.97414
2344.17	5.25258
2345.58	4.04328
2346.99	3.71872
2348.4	3.60134
2349.81	2.82702
2351.22	2.73123
2352.62	2.49116
2354.03	2.15597
2355.44	1.45458
2356.85	0.983609
2358.26	0.451616
2359.67	0.52141
2361.07	0.500319
2362.48	1.1877
2363.89	2.19575
2365.29	3.22267
2366.7	3.65378
2368.11	3.55943
2369.51	3.91716
2370.92	3.98497
2372.32	3.75041
2373.73	3.95466
2375.13	4.34607
2376.54	4.06507
2377.94	4.35287
2379.35	4.32664
2380.75	4.0019
2382.15	3.86143
2383.56	3.57557
2384.96	3.96789
2386.36	3.96382
2387.76	3.80615
2389.17	3.58988
2390.57	3.96784
2391.97	4.48484
2393.37	5.02357
2394.77	4.93462
2396.17	5.48638
2397.58	5.58985
2398.98	4.97026
2400.38	4.16543
2401.78	3.68043
2403.18	3.61776
2404.58	3.26291
2405.97	3.01681
2407.37	2.55974
2408.77	2.32084
2410.17	2.18997
2411.57	2.6135
2412.97	2.72458
2414.37	2.89223
2415.76	3.13029
2417.16	3.53926
2418.56	3.50868
2419.95	3.36738
2421.35	3.65084
2422.75	3.96771
2424.14	3.61137
2425.54	3.61291
2426.93	3.69933
2428.33	3.97784
2429.72	4.20997
2431.12	4.60689
2432.51	4.49276
2433.91	4.30929
2435.3	3.77924
2436.7	4.114
2438.09	4.14647
2439.48	4.52163
2440.88	4.18278
2442.27	4.23535
2443.66	4.46811
2445.05	4.9861
2446.44	4.73824
2447.84	5.22677
2449.23	4.92283
2450.62	4.75792
2452.01	5.29818
2453.4	4.47749
2454.79	4.31565
2456.18	4.55098
2457.57	4.98475
2458.96	5.64203
2460.35	6.50576
2461.74	6.6954
2463.13	6.03711
2464.52	5.66554
2465.91	5.08224
2467.29	4.68997
2468.68	4.11693
2470.07	3.78974
2471.46	4.04808
2472.85	3.82567
2474.23	3.14427
2475.62	2.92516
2477.01	3.03881
2478.39	3.04344
2479.78	3.01796
2481.16	3.3641
2482.55	2.83549
2483.93	3.12455
2485.32	2.71219
2486.7	2.05781
2488.09	1.82801
2489.47	2.39363
2490.86	2.7219
2492.24	2.33501
2493.62	1.84298
2495.01	2.09085
2496.39	1.41063
2497.77	1.58685
2499.15	1.08984
2500.54	1.04126
2501.92	0.855102
2503.3	0.467532
2504.68	0.696254
2506.06	0.745644
2507.45	0.992291
2508.83	1.33549
2510.21	1.50451
2511.59	1.26768
2512.97	1.49515
2514.35	1.07563
2515.73	0.646494
2517.11	0.731188
2518.48	0.196856
2519.86	0.285775
2521.24	0.372583
2522.62	0.0828309
2524	0.441976
2525.38	0.479201
2526.75	0.641206
2528.13	0.998693
2529.51	1.13555
2530.89	0.854252
2532.26	0.99615
2533.64	1.32786
2535.02	1.53126
2536.39	2.3037
2537.77	2.46997
2539.14	2.37656
2540.52	1.90658
2541.89	2.04425
2543.27	1.92432
2544.64	2.17096
2546.01	2.56693
2547.39	3.25639
2548.76	3.51541
2550.14	3.83612
2551.51	3.49098
2552.88	3.42718
2554.25	3.86346
2555.63	4.51845
2557	5.1962
2558.37	5.88578
2559.74	5.32667
2561.11	5.12685
2562.49	4.96346
2563.86	5.43065
2565.23	5.3313
2566.6	6.13211
2567.97	6.46386
2569.34	6.3814
2570.71	6.41374
2572.08	6.18084
2573.45	6.43247
2574.82	6.31387
2576.18	6.49714
2577.55	6.21753
2578.92	6.07778
2580.29	5.40214
2581.66	5.16018
2583.02	5.00161
2584.39	5.11169
2585.76	5.04614
2587.13	4.88759
2588.49	4.99253
2589.86	4.87424
2591.22	4.77811
2592.59	4.62288
2593.96	4.86798
2595.32	4.88868
2596.69	5.23718
2598.05	5.05218
2599.42	4.56079
2600.78	4.11574
2602.14	3.84069
2603.51	3.52212
2604.87	2.77868
2606.23	2.2229
2607.6	1.35069
2608.96	1.13625
2610.32	1.43571
2611.69	1.41424
2613.05	1.12792
2614.41	1.18374
2615.77	1.53969
2617.13	1.26759
2618.49	1.60881
2619.86	1.82349
2621.22	2.4973
2622.58	3.51511
2623.94	3.59758
2625.3	3.57423
2626.66	3.25278
2628.02	2.97053
2629.37	3.1689
2630.73	3.48064
2632.09	4.01338
2633.45	3.87099
2634.81	4.57068
2636.17	4.19047
2637.53	3.77209
2638.88	3.99929
2640.24	3.96103
2641.6	4.0164
2642.96	3.94277
2644.31	4.10749
2645.67	4.46408
2647.02	4.25671
2648.38	4.35808
2649.74	4.37012
2651.09	4.94109
2652.45	4.90794
2653.8	4.63417
2655.16	4.18911
2656.51	4.60493
2657.86	4.50415
2659.22	4.35191
2660.57	4.53626
2661.93	4.5287
2663.28	4.37893
2664.63	4.5024
2665.98	3.80764
2667.34	3.81306
2668.69	3.93931
2670.04	4.07177
2671.39	3.71452
2672.75	3.37533
2674.09	3.81324
2675.45	3.64698
2676.8	3.98268
2678.15	4.75865
2679.5	5.19347
2680.85	5.22283
2682.2	5.98482
2683.55	6.30269
2684.9	6.50615
2686.25	6.55043
2687.6	6.60886
2688.94	6.31186
2690.29	6.14913
2691.64	6.0429
2692.99	5.65866
2694.34	5.56937
2695.68	5.955
2697.03	6.42405
2698.38	6.5011
2699.73	6.0457
2701.07	6.29188
2702.42	6.40822
2703.76	6.18772
2705.11	6.67441
2706.45	6.95987
2707.8	6.90348
2709.15	7.04213
2710.49	7.84849
2711.83	8.11331
2713.18	8.69272
2714.52	8.87665
2715.87	9.62187
2717.21	9.67124
2718.55	10.1467
2719.9	10.0792
2721.24	10.2485
2722.58	10.5566
2723.93	11.3002
2725.27	11.0051
2726.61	11.3074
2727.95	11.2463
2729.29	10.7351
2730.63	10.8963
2731.98	10.7731
2733.32	10.5703
2734.66	10.4508
2736	10.5211
2737.34	10.4944
2738.68	10.9477
2740.02	10.6744
2741.36	10.5544
2742.7	9.91075
2744.03	9.29283
2745.37	8.81646
2746.71	8.18439
2748.05	7.45751
2749.39	6.97755
2750.72	6.05163
2752.06	5.22027
2753.4	4.49002
2754.74	4.14626
2756.07	3.35844
2757.41	3.25671
2758.75	2.94983
2760.08	2.33012
2761.42	2.4767
2762.76	2.64499
2764.09	2.78807
2765.42	2.6362
2766.76	2.7565
2768.09	2.89457
2769.43	2.78755
2770.76	2.99456
2772.1	3.11666
2773.43	2.84504
2774.76	2.86352
2776.1	3.16746
2777.43	3.62852
2778.76	3.26222
2780.1	3.76711
2781.43	4.59983
2782.76	4.78219
2784.09	4.66479
2785.42	4.75112
2786.75	4.76439
2788.09	5.243
2789.42	5.01031
2790.75	4.91208
2792.08	3.91007
2793.41	3.81512
2794.74	3.39436
2796.07	3.11808
2797.4	3.23149
2798.73	3.01264
2800.06	3.02824
2801.39	2.74429
2802.71	2.71805
2804.04	2.0849
2805.37	1.6406
2806.7	0.325451
2808.03	-0.531324
2809.35	-1.03372
2810.68	-1.12004
2812.01	-1.48102
2813.33	-1.52526
2814.66	-1.03271
2815.99	-1.24101
2817.31	-1.19313
2818.64	-0.000170184
2819.96	1.46866
2821.29	3.29715
2822.61	5.30274
2823.94	7.19185
2825.26	9.55636
2826.59	11.8527
2827.91	14.1324
2829.23	16.1886
2830.56	18.2522
2831.88	20.0854
2833.21	22.3132
2834.53	24.4778
2835.85	27.0184
2837.17	29.8251
2838.5	32.9291
2839.82	35.7808
2841.14	39.0477
2842.46	42.3162
2843.78	45.4988
2845.1	49.378
2846.42	53.5594
2847.74	57.3893
2849.06	61.1445
2850.38	66.37
2851.71	70.9725
2853.03	76.0638
2854.34	80.2375
2855.66	84.6094
2856.98	88.8164
2858.3	93.0076
2859.62	97.6277
2860.94	101.668
2862.26	106.147
2863.57	109.917
2864.89	113.648
2866.21	117.438
2867.53	120.338
2868.84	122.971
2870.16	125.906
2871.48	128.621
2872.79	130.446
2874.11	133.138
2875.42	135.599
2876.74	138.275
2878.05	140.049
2879.37	142.541
2880.68	144.887
2882	146.387
2883.31	148.619
2884.63	151.136
2885.94	153.228
2887.26	155.603
2888.57	157.308
2889.88	158.372
2891.19	160.176
2892.51	161.606
2893.82	163.553
2895.13	165.574
2896.44	167.584
2897.76	169.162
2899.07	171.862
2900.38	174.723
2901.69	177.751
2903	180.866
2904.31	184.622
2905.62	188.4
2906.93	192.692
2908.24	197.319
2909.55	201.983
2910.86	207.533
2912.17	213.057
2913.48	218.441
2914.79	223.935
2916.1	228.827
2917.41	232.786
2918.71	236.649
2920.02	239.979
2921.33	243.389
2922.64	245.85
2923.94	248.04
2925.25	249.963
2926.56	251.86
2927.86	253.182
2929.17	253.139
2930.48	253.267
2931.78	252.714
2933.09	251.646
2934.39	250.185
2935.7	248.781
2937	246.242
2938.31	243.403
2939.61	241.155
2940.92	237.732
2942.22	234.41
2943.53	230.154
2944.83	226.505
2946.13	222.676
2947.43	218.4
2948.74	213.959
2950.04	210.136
2951.34	206.113
2952.64	201.727
2953.95	197.092
2955.25	192.283
2956.55	187.653
2957.85	183.215
2959.15	178.832
2960.45	174.141
2961.75	170.133
2963.05	166.282
2964.35	163.454
2965.65	159.632
2966.95	155.971
2968.25	152.76
2969.55	149.704
2970.85	147.195
2972.15	143.817
2973.45	140.141
2974.75	136.243
2976.05	132.764
2977.34	129.132
2978.64	124.86
2979.94	120.408
2981.24	116.383
2982.53	112.52
2983.83	108.281
2985.13	104.06
2986.42	99.7361
2987.72	95.5017
2989.01	91.1254
2990.31	86.735
2991.61	82.3743
2992.9	77.9605
2994.19	73.6375
2995.49	70.189
2996.78	66.1546
2998.08	62.6047
2999.37	58.7275
3000.67	55.281
3001.96	51.7035
3003.25	48.3029
3004.55	45.4923
3005.84	42.616
3007.13	40.2576
3008.42	37.4462
3009.72	35.4223
3011.01	33.176
3012.3	31.0821
3013.59	29.3456
3014.88	27.6523
3016.17	25.9501
3017.46	24.4747
3018.76	22.8149
3020.05	21.2504
3021.34	20.5178
3022.63	20.1921
3023.92	19.6425
3025.21	19.1298
3026.49	18.7429
3027.78	18.0424
3029.07	17.7298
3030.36	17.0979
3031.65	17.004
3032.94	16.8265
3034.23	17.1579
3035.51	17.652
3036.8	16.8497
3038.09	16.9745
3039.38	17.7457
3040.66	18.7511
3041.95	19.0782
3043.23	19.4845
3044.52	20.23
3045.81	21.0584
3047.09	21.5684
3048.38	22.0382
3049.66	21.8333
3050.95	21.8475
3052.23	21.5536
3053.52	21.2241
3054.8	21.0965
3056.09	21.2055
3057.37	21.0684
3058.65	21.2211
3059.94	20.5005
3061.22	19.7726
3062.5	19.2711
3063.79	18.6359
3065.07	17.6532
3066.35	16.3412
3067.63	15.7107
3068.92	15.8378
3070.2	14.7667
3071.48	14.3339
3072.76	13.1447
3074.04	12.3574
3075.32	11.1017
3076.6	10.5082
3077.88	8.87392
3079.16	7.71016
3080.44	7.29526
3081.72	6.55221
3083	5.38673
3084.28	4.42173
3085.56	3.47233
3086.84	2.70387
3088.12	1.40428
3089.4	0.683118
3090.67	0.275256
3091.95	0.0197335
3093.23	0.0078974
3094.51	-0.232275
3095.78	0.105451
3097.06	0.0384358
3098.34	-0.0350826
3099.61	-0.187024
3100.89	-0.150686
3102.17	0.277795
3103.44	0.831332
3104.72	1.06883
3105.99	1.32378
3107.27	2.32809
3108.54	2.68296
3109.82	2.72915
3111.09	3.02535
3112.37	3.22479
3113.64	3.11024
3114.92	3.5671
3116.19	4.10801
3117.46	4.42255
3118.74	5.03913
3120.01	5.46981
3121.28	5.83115
3122.55	6.30803
3123.83	6.01743
3125.1	6.98476
3126.37	7.12711
3127.64	7.63909
3128.91	7.82114
3130.19	8.49089
3131.46	9.60952
3132.73	9.82399
3134	9.45358
3135.27	10.1162
3136.54	9.87218
3137.81	9.95231
3139.08	10.311
3140.35	10.5775
3141.62	10.4797
3142.89	10.842
3144.16	10.947
3145.42	11.1545
3146.69	11.66
3147.96	12.3406
3149.23	12.5004
