#Acq. time (s)=	45
#Accumulations=	2
#Range (cm-¹)=	200...3150
#Windows=	2
#Auto scanning=	Off
#Autofocus=	Off
#Macrospot=	Off
#AutoExposure=	Off
#Spike filter=	Multiple accum.
#Delay time (s)=	0
#Binning=	1
#Readout mode=	Signal
#DeNoise=	Off
#ICS correction=	On
#Dark correction=	Off
#Inst. Process=	Off
#Detector Gain=	Best Dynamic Range
#Detector ADC=	20 kHz       
#Detector temperature (°C)=	-69.85
#Instrument=	LabRAM HR Evol
#Detector=	Synapse
#Objective=	x100
#Grating=	600 gr/mm
#ND Filter=	100%
#Laser (nm)=	532 
#Hole=	100.021
#Range=	Auto
#Laser Pol.=	No
#Raman. Pol.=	No
#Laser Pol. (°)=	-0.0007625
#Raman Pol. (°)=	89.9995
#Collection=	Microscope
#StageXY=	Marzhauser
#StageZ=	Marzhauser
#X (µm)=	-5120.9
#Y (µm)=	1523
#Z (µm)=	63.25
#Full time(mm:ss)=	3:18
#Project=	
#Sample=	
#Site=	
#Title=	Thy_50_12_43_2x_45s_532 nm_x100_100%_600 gr_mm
#Remark=	
#Date=	07.07.2022 12:23
#Acquired=	07.07.2022 12:23:57
#Base:Fit=	10.08.2022 10:04:30
#Base:Sub=	10.08.2022 10:04:45
#Filter:Polynom=	16.08.2022 10:20:25
#AxisType[0]=Intens
#AxisUnit[0]=Cnt
#AxisType[1]=Spectr
#AxisUnit[1]=1/cm
200.43	42.0881
202.246	38.376
204.061	35.7376
205.875	33.9823
207.688	31.4781
209.501	28.7933
211.316	26.4491
213.129	24.6635
214.941	21.9332
216.753	19.4639
218.566	17.9222
220.377	15.4681
222.188	15.1022
223.999	13.2921
225.809	11.6544
227.618	9.37215
229.43	7.69463
231.239	6.91695
233.047	7.20518
234.855	6.87188
236.663	6.7341
238.471	4.66076
240.278	3.47072
242.087	2.9646
243.894	1.77845
245.7	1.84069
247.506	1.53373
249.311	1.93945
251.116	2.06656
252.921	2.64442
254.725	2.04836
256.529	2.44381
258.333	3.30815
260.136	2.85012
261.939	2.57281
263.744	3.72116
265.546	4.3414
267.348	4.87053
269.15	6.55311
270.951	6.50598
272.752	7.27696
274.552	7.08659
276.353	8.23041
278.152	7.47162
279.952	6.65449
281.751	6.54753
283.55	6.74574
285.348	7.1955
287.146	7.35439
288.942	8.58853
290.739	8.82885
292.536	9.38607
294.333	9.1564
296.129	9.04701
297.925	9.8939
299.721	10.4915
301.516	11.3383
303.311	11.1292
305.106	11.5523
306.9	12.6382
308.694	13.6328
310.486	13.7657
312.279	14.6972
314.072	13.5743
315.864	14.4123
317.656	14.4478
319.448	14.2837
321.24	15.4233
323.029	15.8727
324.819	14.6103
326.61	13.7692
328.4	12.2857
330.19	12.041
331.977	12.4523
333.766	12.7686
335.555	12.7335
337.343	12.4711
339.131	12.1403
340.917	11.0912
342.704	11.1238
344.491	11.3944
346.277	12.0065
348.062	12.0285
349.848	10.8331
351.633	11.5298
353.416	11.3413
355.201	10.3674
356.986	9.32181
358.77	8.42695
360.552	6.62173
362.335	5.27488
364.118	3.60677
365.899	4.59214
367.682	4.24211
369.464	3.93358
371.243	5.14168
373.025	5.35715
374.806	5.37146
376.585	4.44066
378.365	4.5858
380.143	5.71157
381.923	6.27948
383.702	6.52943
385.479	6.28611
387.258	6.49493
389.034	6.79526
390.812	7.64881
392.59	7.15139
394.365	8.05263
396.142	7.12744
397.916	6.52148
399.693	6.23843
401.467	6.14654
403.242	6.12523
405.015	6.29397
406.79	6.52387
408.565	6.18189
410.337	6.99245
412.111	6.26969
413.882	5.24649
415.656	4.94041
417.426	4.04214
419.197	4.61931
420.969	5.71472
422.739	5.35564
424.51	4.69699
426.279	5.59142
428.05	4.35305
429.819	4.97172
431.589	5.76109
433.356	6.1168
435.124	6.19174
436.893	5.62562
438.66	4.52626
440.428	4.64461
442.194	3.87176
443.96	3.73628
445.727	4.09276
447.492	4.68697
449.259	6.17748
451.023	6.67526
452.787	8.16222
454.553	9.75902
456.316	9.07103
458.079	9.68203
459.844	10.863
461.606	10.8069
463.368	12.2119
465.132	12.9667
466.893	13.274
468.654	14.5909
470.415	14.3555
472.177	14.0952
473.937	13.9082
475.696	14.8025
477.456	15.0425
479.217	14.948
480.975	14.3596
482.733	14.9408
484.491	15.5714
486.251	16.593
488.008	18.3256
489.765	19.7004
491.522	20.1833
493.278	21.026
495.036	22.3371
496.791	21.5042
498.546	21.4193
500.301	21.0451
502.056	20.6119
503.81	20.7283
505.566	21.3265
507.319	22.7042
509.073	22.4414
510.825	22.122
512.578	21.9947
514.33	22.4318
516.082	22.1999
517.833	22.8579
519.587	21.6173
521.337	21.4333
523.088	21.2176
524.838	20.6952
526.588	20.6135
528.337	20.3334
530.087	20.4352
531.835	20.1528
533.584	20.5133
535.332	20.0978
537.08	19.882
538.827	19.1937
540.574	19.8945
542.321	19.3313
544.068	18.1064
545.814	18.3398
547.56	17.6766
549.305	16.1088
551.05	15.24
552.795	14.0522
554.54	13.2209
556.284	13.1653
558.027	11.77
559.771	11.2566
561.514	10.6568
563.257	9.92651
564.999	9.92703
566.742	8.61982
568.481	8.18263
570.223	7.98933
571.964	7.87789
573.705	6.98369
575.445	6.27633
577.185	5.52042
578.925	4.11169
580.665	3.71214
582.402	3.60648
584.141	2.22972
585.879	2.59628
587.617	2.67332
589.355	2.79986
591.092	2.71841
592.828	1.99959
594.564	1.48726
596.301	1.3883
598.037	2.45657
599.773	2.57298
601.506	3.54743
603.242	2.50112
604.976	2.6476
606.711	2.46002
608.443	2.96292
610.177	3.2866
611.91	4.37372
613.644	5.14259
615.374	5.12987
617.107	6.39128
618.839	6.08799
620.569	8.84764
622.3	9.281
624.032	10.5951
625.761	11.4664
627.491	11.8567
629.221	11.0928
630.949	11.8967
632.679	13.3411
634.408	13.8172
636.135	14.7619
637.863	15.802
639.592	16.0698
641.318	16.5607
643.045	17.174
644.77	16.9223
646.497	18.1552
648.224	18.3559
649.948	18.2164
651.674	18.7568
653.398	18.2889
655.123	19.4711
656.846	20.0148
658.57	20.4426
660.293	21.0847
662.017	21.5195
663.738	22.4598
665.462	22.608
667.185	23.8141
668.905	24.018
670.628	23.6053
672.348	23.9948
674.067	22.6659
675.789	22.479
677.508	21.9309
679.228	22.6933
680.947	23.9806
682.667	25.1241
684.385	26.0238
686.104	25.8542
687.821	25.9156
689.538	25.898
691.256	27.397
692.972	27.6971
694.69	28.9843
696.406	30.2103
698.121	31.5306
699.837	32.5308
701.552	32.8416
703.268	34.3037
704.982	35.7085
706.695	37.8122
708.41	37.105
710.123	38.2281
711.836	38.549
713.55	39.0883
715.262	39.3966
716.973	41.1588
718.685	41.4059
720.398	41.3465
722.108	41.9394
723.818	42.1648
725.53	42.7782
727.24	44.5485
728.949	46.005
730.658	45.8519
732.369	46.7849
734.077	47.2427
735.785	47.8709
737.493	48.873
739.2	49.0813
740.909	49.5517
742.616	49.7046
744.322	50.1466
746.028	51.7882
747.734	52.4782
749.441	52.5053
751.146	53.8746
752.851	54.8511
754.555	55.5317
756.26	56.8367
757.963	57.7729
759.667	59.7685
761.372	62.298
763.075	64.2462
764.777	66.3816
766.479	68.1112
768.181	69.6852
769.883	71.1615
771.584	72.3736
773.285	73.6816
774.986	76.1057
776.686	78.3891
778.386	80.0859
780.085	81.6177
781.785	82.5756
783.484	85.1118
785.182	86.418
786.881	87.3731
788.579	88.6142
790.276	90.1734
791.974	90.4513
793.671	90.6738
795.367	90.7858
797.064	91.2182
798.76	92.0416
800.456	92.5987
802.151	93.3529
803.846	92.8272
805.541	93.0865
807.236	93.3818
808.93	93.7715
810.624	93.1751
812.317	93.3313
814.01	92.9888
815.703	92.0144
817.394	91.6804
819.086	90.2112
820.778	89.0501
822.47	87.661
824.161	86.128
825.852	86.1752
827.543	85.6779
829.231	86.6094
830.921	86.3442
832.611	84.6933
834.3	84.2928
835.989	84.5846
837.676	83.1084
839.364	82.1783
841.053	80.8229
842.74	79.5566
844.426	78.8512
846.113	77.248
847.8	76.5733
849.486	75.6137
851.171	73.9877
852.857	71.9399
854.542	70.7592
856.227	69.7858
857.911	68.5605
859.595	67.4226
861.279	66.1641
862.961	64.9795
864.645	63.6723
866.329	63.1211
868.01	62.0398
869.692	59.9284
871.375	59.1124
873.055	57.4828
874.737	56.35
876.418	54.9823
878.097	53.8855
879.778	52.8971
881.457	53.4299
883.137	53.0893
884.817	52.2519
886.495	51.6827
888.174	50.3502
889.851	51.0664
891.53	50.9209
893.206	50.6793
894.884	49.3957
896.562	49.9604
898.237	50.5312
899.914	50.3879
901.589	50.6399
903.265	49.5784
904.94	51.0823
906.615	52.0092
908.289	53.1383
909.964	54.6638
911.637	55.6377
913.31	57.0094
914.984	56.1155
916.656	57.0964
918.33	56.6131
920.001	55.8397
921.674	55.9644
923.345	56.2705
925.015	56.4155
926.687	56.331
928.357	56.9408
930.028	56.6148
931.698	55.7656
933.366	54.5778
935.037	53.4003
936.705	53.4531
938.373	53.311
940.043	52.4257
941.71	51.0447
943.379	49.8601
945.046	48.2104
946.712	46.2025
948.378	44.9339
950.046	44.3345
951.711	43.283
953.376	42.424
955.043	41.8376
956.708	41.7387
958.372	41.8355
960.036	41.8981
961.701	41.2225
963.364	41.4338
965.027	42.1789
966.69	41.8144
968.354	41.5221
970.016	41.1912
971.678	40.3479
973.339	40.1465
975	39.6421
976.661	39.7809
978.324	40.4947
979.984	41.3082
981.644	41.8668
983.303	41.9827
984.962	41.947
986.621	41.9881
988.282	43.072
989.94	42.4478
991.598	43.1792
993.256	43.7216
994.913	43.7192
996.57	43.5225
998.227	43.5347
999.884	44.1603
1001.54	43.4512
1003.2	43.5526
1004.85	43.1464
1006.51	43.0537
1008.16	42.515
1009.82	40.7492
1011.47	39.927
1013.12	39.4378
1014.78	39.1263
1016.43	39.2208
1018.08	38.0172
1019.74	37.9205
1021.39	37.7779
1023.04	37.1171
1024.69	37.2309
1026.34	38.5201
1028	39.0119
1029.65	39.9336
1031.3	41.205
1032.95	41.9152
1034.6	42.8569
1036.25	42.8332
1037.9	44.2708
1039.55	44.9259
1041.19	43.4006
1042.84	44.3709
1044.49	44.8215
1046.14	44.9522
1047.79	44.7162
1049.43	44.1457
1051.08	43.2683
1052.73	42.6765
1054.37	42.2489
1056.02	40.9205
1057.66	41.1078
1059.31	40.38
1060.95	39.2151
1062.6	38.0623
1064.24	37.1559
1065.88	36.3362
1067.53	35.3821
1069.17	34.7581
1070.81	32.884
1072.46	31.2208
1074.1	30.7803
1075.74	28.7691
1077.38	27.2893
1079.02	26.6748
1080.66	25.9208
1082.3	24.6208
1083.94	22.9469
1085.58	21.9435
1087.22	21.8627
1088.86	21.1511
1090.5	19.8286
1092.14	19.1214
1093.78	20.4751
1095.42	20.8616
1097.05	20.2115
1098.69	20.4407
1100.33	20.2392
1101.97	21.3973
1103.6	21.2612
1105.24	21.0574
1106.87	21.098
1108.51	21.4118
1110.15	19.7612
1111.78	18.8046
1113.41	18.4298
1115.05	17.1568
1116.68	16.5752
1118.31	15.4493
1119.95	15.7253
1121.58	14.5979
1123.21	14.5969
1124.85	15.7517
1126.48	14.6631
1128.11	13.7991
1129.74	13.2236
1131.37	12.7102
1133	12.0159
1134.63	11.6169
1136.26	11.0808
1137.89	9.99095
1139.52	9.87242
1141.15	9.65752
1142.78	9.095
1144.41	9.57284
1146.04	9.28591
1147.66	9.39119
1149.29	9.1908
1150.92	8.31651
1152.55	7.64984
1154.17	8.2132
1155.8	8.68699
1157.43	8.56082
1159.05	9.2978
1160.68	10.3073
1162.3	10.8394
1163.93	11.0852
1165.55	10.9839
1167.17	11.6645
1168.8	11.1827
1170.42	10.8055
1172.05	11.4364
1173.67	12.6058
1175.29	12.867
1176.91	12.5756
1178.54	12.3318
1180.16	12.6198
1181.78	12.2399
1183.4	12.5636
1185.02	11.9027
1186.64	11.6415
1188.26	11.0492
1189.88	10.686
1191.5	10.3339
1193.12	10.2829
1194.74	10.8933
1196.36	11.2168
1197.97	12.1722
1199.59	13.0685
1201.21	13.7361
1202.83	14.2295
1204.44	15.0835
1206.06	15.57
1207.68	16.468
1209.29	18.3749
1210.91	18.978
1212.52	19.4083
1214.14	20.5011
1215.75	21.5334
1217.37	22.1579
1218.98	22.767
1220.6	24.3113
1222.21	26.2142
1223.82	27.7395
1225.44	29.5665
1227.05	30.1021
1228.66	31.3407
1230.27	32.1808
1231.88	32.9488
1233.49	34.1282
1235.1	35.2376
1236.72	36.4574
1238.33	36.7405
1239.94	38.5506
1241.55	40.7446
1243.16	40.7084
1244.76	41.1262
1246.37	42.1795
1247.98	44.3094
1249.59	44.6897
1251.2	46.6799
1252.8	47.3141
1254.41	47.9683
1256.02	48.131
1257.63	48.9092
1259.23	50.2049
1260.84	50.8705
1262.44	51.0447
1264.05	51.3218
1265.66	52.3599
1267.26	53.8232
1268.87	55.2037
1270.47	56.7255
1272.07	58.4268
1273.68	59.1827
1275.28	59.707
1276.88	59.8354
1278.48	60.0747
1280.09	61.3209
1281.69	62.0675
1283.29	63.3049
1284.89	64.1166
1286.49	64.3078
1288.09	65.1085
1289.69	65.5935
1291.3	64.5323
1292.9	65.4231
1294.49	66.0001
1296.09	65.6291
1297.69	66.4105
1299.29	67.5334
1300.89	68.551
1302.49	68.3297
1304.09	68.4685
1305.68	68.1846
1307.28	67.5203
1308.88	68.6422
1310.47	68.0496
1312.07	67.8027
1313.66	67.5274
1315.26	68.1973
1316.86	68.0833
1318.45	67.4899
1320.05	68.3622
1321.64	68.1751
1323.23	66.0818
1324.83	66.1548
1326.42	66.4644
1328.01	65.619
1329.61	63.4188
1331.2	62.3171
1332.79	60.2529
1334.38	59.7275
1335.98	59.377
1337.57	58.5183
1339.16	58.3119
1340.75	56.9278
1342.34	56.142
1343.93	55.5675
1345.52	54.9728
1347.11	53.2114
1348.7	51.197
1350.29	49.9434
1351.87	47.597
1353.46	45.8101
1355.05	44.2577
1356.64	43.8569
1358.23	43.3568
1359.81	41.6281
1361.4	40.2958
1362.99	40.1632
1364.57	39.329
1366.16	38.0664
1367.74	38.4701
1369.33	38.3331
1370.91	38.1662
1372.5	38.2057
1374.08	37.3531
1375.67	37.5962
1377.25	38.0061
1378.83	37.4544
1380.42	36.3271
1382	35.8264
1383.58	36.2512
1385.16	36.0184
1386.75	36.3182
1388.33	36.9012
1389.91	36.4371
1391.49	36.0483
1393.07	36.8181
1394.65	36.6421
1396.23	36.7714
1397.81	37.4419
1399.39	38.393
1400.97	38.3867
1402.55	38.3313
1404.13	39.0643
1405.7	39.0794
1407.28	39.5855
1408.86	39.7044
1410.44	40.7166
1412.01	41.5932
1413.59	42.7957
1415.17	43.2559
1416.74	44.2323
1418.32	45.2459
1419.89	46.2251
1421.47	47.7276
1423.05	49.5439
1424.62	50.9282
1426.19	52.6861
1427.77	55.2788
1429.34	57.7905
1430.92	59.0175
1432.49	62.8304
1434.06	65.0484
1435.63	67.1056
1437.2	69.0722
1438.78	70.4153
1440.35	72.7957
1441.92	74.8017
1443.49	75.4582
1445.06	76.2772
1446.63	77.8445
1448.2	78.477
1449.77	78.9745
1451.34	78.7928
1452.91	78.4623
1454.48	78.974
1456.05	78.625
1457.62	78.5086
1459.18	78.4888
1460.75	78.2821
1462.32	76.8082
1463.89	74.5371
1465.45	72.6173
1467.02	71.1534
1468.59	68.6941
1470.15	65.5987
1471.72	63.9706
1473.28	60.7085
1474.85	58.555
1476.41	55.0069
1477.98	51.8089
1479.54	49.332
1481.11	46.2618
1482.67	43.7617
1484.23	41.3885
1485.8	39.3786
1487.36	36.2906
1488.92	34.1453
1490.48	32.1518
1492.05	30.6994
1493.61	28.3464
1495.17	26.9233
1496.73	24.9306
1498.29	24.5625
1499.85	23.7594
1501.41	23.5911
1502.97	23.2474
1504.53	23.5701
1506.09	23.5896
1507.65	23.2741
1509.2	23.4533
1510.76	24.3591
1512.32	24.013
1513.88	24.3606
1515.44	24.139
1516.99	24.1464
1518.55	24.0232
1520.1	24.0251
1521.66	24.7631
1523.22	25.841
1524.77	26.8473
1526.33	27.3595
1527.88	28.2969
1529.44	29.1024
1530.99	30.2514
1532.55	31.9374
1534.1	32.4574
1535.65	33.0824
1537.21	34.0121
1538.76	34.2337
1540.31	34.7707
1541.86	35.7401
1543.42	37.2655
1544.97	38.367
1546.52	38.8795
1548.07	39.9257
1549.62	41.8513
1551.17	42.6859
1552.72	44.0622
1554.27	44.9492
1555.82	46.1728
1557.37	47.5828
1558.92	48.1888
1560.47	49.4105
1562.02	50.1773
1563.57	50.5098
1565.11	51.5386
1566.66	52.8694
1568.21	54.5141
1569.75	55.56
1571.3	55.912
1572.85	57.1191
1574.39	58.3884
1575.94	60.4254
1577.49	61.8268
1579.03	63.4237
1580.58	63.6743
1582.12	64.0107
1583.67	65.3983
1585.21	66.2287
1586.75	66.4296
1588.3	66.9014
1589.84	67.0386
1591.38	66.8031
1592.93	65.5074
1594.47	65.3412
1596.01	65.0866
1597.55	64.9205
1599.09	65.257
1600.63	64.7616
1602.18	64.8097
1603.72	64.5735
1605.26	64.2629
1606.8	63.5484
1608.34	63.438
1609.87	62.8986
1611.41	62.8605
1612.95	62.6955
1614.49	62.0993
1616.03	61.3751
1617.57	61.0485
1619.11	61.3585
1620.64	61.5727
1622.18	60.9196
1623.72	61.2695
1625.25	61.3712
1626.79	61.5796
1628.32	62.0071
1629.86	62.0214
1631.4	62.5194
1632.93	63.4681
1634.47	64.5
1636	65.5748
1637.53	65.801
1639.07	67.0252
1640.6	67.559
1642.14	69.1498
1643.67	69.7666
1645.2	70.307
1646.73	70.7386
1648.27	71.4036
1649.8	71.5522
1651.33	72.357
1652.86	72.6824
1654.39	72.622
1655.92	72.1189
1657.45	71.9733
1658.98	71.8753
1660.51	72.0243
1662.04	70.7502
1663.57	69.3757
1665.1	67.6137
1666.63	65.3565
1668.16	63.9923
1669.69	61.3919
1671.21	60.8169
1672.74	59.2276
1674.27	57.4234
1675.79	55.4423
1677.32	53.4824
1678.85	51.8634
1680.37	48.6384
1681.9	46.2513
1683.42	43.7796
1684.95	41.3142
1686.47	38.5071
1688	36.2704
1689.52	33.5335
1691.05	30.9677
1692.57	28.6783
1694.1	26.6006
1695.62	25.0817
1697.14	23.287
1698.66	21.699
1700.19	21.4464
1701.71	20.0434
1703.23	18.993
1704.75	18.4772
1706.27	16.7552
1707.79	16.6221
1709.32	15.4133
1710.83	14.309
1712.35	13.5972
1713.88	12.9255
1715.39	12.4804
1716.91	11.6601
1718.43	11.3541
1719.95	11.1378
1721.47	10.7274
1722.99	10.5165
1724.5	10.3816
1726.02	9.48158
1727.54	9.47229
1729.06	9.27832
1730.57	9.25187
1732.09	9.10618
1733.61	9.49454
1735.12	9.1634
1736.64	9.09885
1738.15	8.22142
1739.67	7.96399
1741.18	8.08926
1742.7	8.2939
1744.21	8.96992
1745.72	8.90107
1747.24	9.35408
1748.75	9.22378
1750.26	9.1987
1751.78	9.13682
1753.29	9.24268
1754.8	8.86336
1756.31	8.26956
1757.82	7.93028
1759.34	7.53113
1760.85	7.13271
1762.36	7.12132
1763.87	6.85749
1765.38	6.50167
1766.89	5.53284
1768.4	5.27477
1769.91	5.77898
1771.41	5.89663
1772.92	5.77787
1774.43	5.74943
1775.94	5.26202
1777.45	4.61555
1778.96	4.34598
1780.46	4.06345
1781.97	3.6652
1783.48	3.59057
1784.98	3.26166
1786.49	3.12513
1788	2.79775
1789.5	2.60902
1791.01	2.2556
1792.51	2.22353
1794.01	1.90886
1795.52	1.55984
1797.02	0.926465
1798.53	0.79618
1800.03	0.48806
1801.54	0.320627
1803.04	0.334768
1804.54	0.749331
1806.04	0.831638
1807.54	1.09674
1809.05	1.09235
1810.55	1.00743
1812.05	1.15989
1813.55	1.50801
1815.05	1.88566
1816.55	1.75489
1818.05	1.09706
1819.55	1.32438
1821.05	1.11646
1822.55	0.792154
1824.05	0.94111
1825.55	0.792318
1827.05	0.657225
1828.55	0.0946362
1830.04	0.0630223
1831.54	0.153481
1833.04	0.280648
1834.54	0.372434
1836.03	0.890771
1837.53	1.7194
1839.03	1.57233
1840.52	1.49668
1842.02	1.51963
1843.51	1.65036
1845.01	1.70727
1846.5	1.79306
1848	1.80348
1849.49	1.47378
1850.99	1.04266
1852.48	1.3462
1853.97	1.06024
1855.47	1.35054
1856.96	1.61814
1858.45	2.01147
1859.94	2.13696
1861.44	1.7248
1862.93	1.40887
1864.42	2.062
1865.91	1.99568
1867.4	2.04692
1868.89	1.69525
1870.38	1.64877
1871.87	2.1063
1873.36	2.41799
1874.85	2.77475
1876.34	2.99807
1877.83	3.09342
1879.32	3.721
1880.81	4.16175
1882.3	4.57354
1882.56	4.19305
1884.06	4.32164
1885.55	4.02749
1887.04	4.39721
1888.54	3.98413
1890.03	4.14379
1891.52	4.78203
1893.02	5.41126
1894.51	5.10249
1896	5.25851
1897.49	4.87535
1898.99	4.41775
1900.48	4.76003
1901.97	5.32246
1903.46	5.57482
1904.95	6.78146
1906.44	6.40849
1907.93	6.85499
1909.42	7.32159
1910.91	7.51818
1912.4	7.20846
1913.89	6.71462
1915.38	6.28085
1916.86	6.16322
1918.35	6.17604
1919.84	5.55876
1921.33	6.00669
1922.82	5.50106
1924.3	5.45637
1925.79	5.53168
1927.28	5.34114
1928.76	4.99875
1930.25	5.0233
1931.74	5.08177
1933.22	4.58375
1934.71	4.17733
1936.19	4.26636
1937.67	4.9533
1939.16	4.45375
1940.64	4.19983
1942.13	3.9298
1943.61	3.4403
1945.09	3.59592
1946.58	3.3602
1948.06	2.80842
1949.54	2.39362
1951.03	2.95823
1952.51	3.72773
1953.99	2.79171
1955.47	1.98297
1956.95	1.53821
1958.43	1.7644
1959.91	1.99235
1961.39	2.41674
1962.87	1.86381
1964.35	2.47779
1965.83	2.47559
1967.31	1.39511
1968.79	0.744498
1970.27	0.998822
1971.75	1.00193
1973.22	1.49836
1974.7	1.98016
1976.18	1.81788
1977.66	1.60173
1979.13	1.90418
1980.61	1.21209
1982.09	1.71423
1983.56	1.4291
1985.04	2.31337
1986.52	2.47883
1987.99	2.72014
1989.47	3.20228
1990.94	3.95752
1992.41	3.8644
1993.89	4.29103
1995.36	4.76326
1996.84	3.53625
1998.31	4.2185
1999.78	4.27401
2001.26	4.43309
2002.73	4.85265
2004.2	4.86415
2005.67	5.47783
2007.15	5.2568
2008.62	5.55027
2010.09	5.64567
2011.56	5.51647
2013.03	4.55506
2014.5	4.63872
2015.97	5.14413
2017.44	4.90269
2018.91	5.1712
2020.38	5.30937
2021.85	5.09282
2023.32	5.21237
2024.79	5.3442
2026.25	4.58616
2027.72	3.65624
2029.19	4.1676
2030.66	5.07063
2032.13	6.06669
2033.59	6.22363
2035.06	6.42156
2036.53	6.64027
2037.99	7.30504
2039.46	6.76085
2040.92	7.04622
2042.39	7.67025
2043.85	7.81466
2045.32	8.24117
2046.78	7.93773
2048.25	8.30832
2049.71	8.87211
2051.18	9.42356
2052.64	9.94674
2054.1	11.0982
2055.56	10.634
2057.03	11.8677
2058.49	12.464
2059.95	12.9695
2061.42	13.0242
2062.88	13.8995
2064.34	14.2047
2065.8	13.6793
2067.26	14.7131
2068.72	14.8356
2070.18	15.4958
2071.64	16.8118
2073.1	16.9244
2074.56	18.2532
2076.02	19.0088
2077.48	18.8284
2078.94	19.402
2080.39	19.2113
2081.85	19.8244
2083.31	19.9252
2084.77	20.2919
2086.22	20.7661
2087.68	22.595
2089.14	22.9913
2090.6	23.6646
2092.05	24.6309
2093.51	25.6801
2094.96	26.0798
2096.42	27.3197
2097.87	28.0537
2099.33	29.2577
2100.78	30.7085
2102.24	32.4025
2103.69	34.5437
2105.15	36.2598
2106.6	37.0184
2108.05	38.5455
2109.51	39.6614
2110.96	41.6443
2112.41	42.7575
2113.86	44.9304
2115.32	46.4487
2116.77	48.1972
2118.22	49.9432
2119.67	51.1519
2121.12	53.0776
2122.57	53.9961
2124.02	54.997
2125.47	56.1346
2126.92	57.1114
2128.37	57.5769
2129.82	59.5415
2131.27	60.8027
2132.72	63.1233
2134.17	65.0825
2135.62	67.2023
2137.06	67.8409
2138.51	69.247
2139.96	71.2485
2141.41	71.9421
2142.85	73.5372
2144.3	74.6075
2145.75	75.4332
2147.19	77.0909
2148.64	78.6102
2150.09	79.5881
2151.53	80.669
2152.97	81.8946
2154.42	83.1402
2155.86	83.8897
2157.31	85.1515
2158.75	86.6804
2160.2	87.9901
2161.64	88.4768
2163.08	89.8645
2164.53	90.2947
2165.97	91.5631
2167.41	92.4754
2168.86	93.5596
2170.3	93.4156
2171.74	94.3676
2173.18	94.9162
2174.62	95.6359
2176.06	95.6323
2177.5	95.8398
2178.94	95.5497
2180.38	95.932
2181.82	95.1279
2183.26	94.5712
2184.7	93.1294
2186.14	92.393
2187.58	91.1335
2189.02	90.1529
2190.46	88.3035
2191.89	86.8511
2193.33	85.25
2194.77	83.2569
2196.21	82.2673
2197.64	80.9302
2199.08	79.6791
2200.52	78.2161
2201.95	77.0481
2203.39	75.8294
2204.83	74.3512
2206.26	72.7793
2207.7	70.6466
2209.13	68.6209
2210.57	67.0096
2212	65.2473
2213.43	63.3921
2214.87	62.1215
2216.3	60.6452
2217.73	59.1942
2219.17	57.8066
2220.6	56.1157
2222.03	54.297
2223.47	51.9283
2224.9	50.4797
2226.33	49.0411
2227.76	47.6292
2229.19	46.4007
2230.62	45.1171
2232.05	44.6341
2233.49	43.7994
2234.91	42.6329
2236.34	41.7076
2237.77	40.9641
2239.2	39.1572
2240.63	38.0095
2242.06	36.6052
2243.49	36.1559
2244.92	35.0579
2246.35	33.9685
2247.78	32.9053
2249.2	32.2912
2250.63	30.7528
2252.06	30.4638
2253.48	29.2945
2254.91	28.0864
2256.34	27.0919
2257.76	26.0598
2259.19	25.5958
2260.61	24.4462
2262.04	23.3118
2263.46	22.6219
2264.89	21.8375
2266.31	21.2078
2267.74	20.5799
2269.16	20.6604
2270.59	20.0823
2272.01	20.0097
2273.43	19.6236
2274.85	19.02
2276.28	18.4526
2277.7	17.9776
2279.12	17.3752
2280.54	15.6085
2281.97	14.3427
2283.39	13.4552
2284.81	12.9707
2286.23	12.3811
2287.65	11.7502
2289.07	10.7421
2290.49	9.60956
2291.91	8.95604
2293.33	8.3934
2294.75	8.14723
2296.17	9.25797
2297.59	9.30082
2299.01	9.9144
2300.42	10.5836
2301.84	11.0934
2303.26	11.747
2304.68	11.9264
2306.1	12.4714
2307.51	12.4611
2308.93	12.1668
2310.35	11.7543
2311.76	11.9421
2313.18	11.815
2314.59	11.9654
2316.01	11.5799
2317.43	11.7509
2318.84	11.5056
2320.26	11.1102
2321.67	10.8205
2323.08	11.0195
2324.5	10.2449
2325.91	10.2267
2327.33	10.0438
2328.74	9.46405
2330.15	9.29817
2331.56	8.39635
2332.98	8.28878
2334.39	7.85883
2335.8	7.91575
2337.21	8.02616
2338.62	8.37429
2340.04	8.35456
2341.45	7.39449
2342.86	6.78431
2344.27	5.01429
2345.68	4.04725
2347.09	3.1348
2348.5	2.64905
2349.91	1.89739
2351.31	1.13548
2352.72	1.81952
2354.13	2.43234
2355.54	2.48471
2356.95	2.28465
2358.36	2.14062
2359.76	2.21738
2361.17	2.21089
2362.58	3.28658
2363.98	4.56017
2365.39	5.37633
2366.8	5.77943
2368.21	5.587
2369.61	5.8168
2371.02	6.13625
2372.42	5.60479
2373.83	5.90153
2375.23	5.74751
2376.64	5.44757
2378.04	5.06347
2379.44	5.41363
2380.85	5.01658
2382.25	4.98945
2383.66	5.35955
2385.06	5.30109
2386.46	5.04704
2387.86	5.62039
2389.26	5.52973
2390.67	5.56803
2392.07	6.14936
2393.47	6.2979
2394.87	6.20196
2396.27	6.8383
2397.67	5.71806
2399.07	5.8443
2400.47	5.74779
2401.87	6.39449
2403.27	7.52614
2404.67	7.95314
2406.07	8.47566
2407.47	8.69055
2408.87	8.51574
2410.27	8.05407
2411.67	8.31908
2413.07	8.56874
2414.46	9.19032
2415.86	9.93736
2417.26	10.775
2418.66	10.7085
2420.05	11.0532
2421.45	11.3158
2422.84	11.9981
2424.24	11.9212
2425.64	11.8606
2427.03	11.3851
2428.43	11.3501
2429.82	11.671
2431.22	11.9709
2432.61	11.6409
2434.01	11.2354
2435.4	10.4901
2436.79	10.6197
2438.19	9.99392
2439.58	9.43176
2440.97	9.71066
2442.37	9.45409
2443.76	9.59221
2445.15	9.36109
2446.54	9.23418
2447.93	8.78227
2449.33	8.08192
2450.72	7.40524
2452.11	7.25354
2453.5	7.3144
2454.89	6.81906
2456.28	6.66878
2457.67	6.55927
2459.06	6.03867
2460.45	5.88068
2461.84	6.39046
2463.23	6.65459
2464.62	7.05995
2466	7.89385
2467.39	7.18911
2468.78	7.59631
2470.17	7.67122
2471.55	8.45763
2472.94	8.2328
2474.33	7.77474
2475.72	7.28867
2477.1	7.07618
2478.49	6.971
2479.87	7.33273
2481.26	7.55243
2482.65	7.56834
2484.03	7.01026
2485.42	6.4102
2486.8	5.9785
2488.19	5.62932
2489.57	5.79388
2490.95	5.99859
2492.34	6.24011
2493.72	5.4904
2495.1	5.26079
2496.49	4.97324
2497.87	5.62205
2499.25	5.72837
2500.63	4.84948
2502.02	3.98026
2503.4	3.96586
2504.78	4.28724
2506.16	3.95009
2507.54	3.54483
2508.92	3.622
2510.3	3.75742
2511.68	3.61577
2513.06	3.24781
2514.44	3.05776
2515.82	2.9571
2517.2	2.74122
2518.58	2.70289
2519.96	2.72912
2521.34	2.9314
2522.72	2.67073
2524.1	2.60216
2525.47	2.99728
2526.85	3.24286
2528.23	3.57915
2529.6	4.04385
2530.98	4.15863
2532.36	3.85321
2533.74	3.90739
2535.11	3.56154
2536.49	3.2814
2537.86	3.14497
2539.24	3.51538
2540.61	3.60159
2541.99	3.13112
2543.36	3.54366
2544.74	3.3753
2546.11	3.5714
2547.49	4.06895
2548.86	3.66715
2550.23	3.9224
2551.61	3.65684
2552.98	4.07002
2554.35	4.2147
2555.72	4.03676
2557.09	4.02184
2558.47	3.68009
2559.84	4.29142
2561.21	4.2053
2562.58	4.10109
2563.95	4.15654
2565.32	4.60702
2566.69	5.04236
2568.06	5.27933
2569.43	5.13656
2570.8	6.16063
2572.17	5.79731
2573.54	5.88458
2574.91	5.47919
2576.28	5.52114
2577.65	5.54005
2579.02	5.96357
2580.39	6.33446
2581.75	6.19691
2583.12	6.04087
2584.49	6.38657
2585.85	6.50929
2587.22	6.50462
2588.59	6.1375
2589.95	6.39387
2591.32	6.13246
2592.68	6.52178
2594.05	6.16272
2595.42	5.60386
2596.78	5.02619
2598.15	4.40294
2599.51	3.93299
2600.88	3.71143
2602.24	3.64266
2603.6	3.44146
2604.97	4.17536
2606.33	4.26424
2607.69	4.73276
2609.06	4.28545
2610.42	3.90088
2611.78	3.91345
2613.14	3.8098
2614.51	3.68624
2615.87	3.62283
2617.23	2.88947
2618.59	2.6788
2619.95	1.76996
2621.31	1.69124
2622.67	1.03441
2624.03	1.12981
2625.39	1.35927
2626.75	0.968416
2628.11	1.33505
2629.47	1.16028
2630.83	0.679206
2632.19	0.726595
2633.55	0.976251
2634.91	1.31383
2636.26	1.76786
2637.62	1.40876
2638.98	0.894395
2640.34	0.300708
2641.69	0.642494
2643.05	1.28861
2644.41	1.40283
2645.76	1.75062
2647.12	2.32236
2648.48	2.30502
2649.83	2.18229
2651.19	2.70689
2652.54	3.20095
2653.9	2.94545
2655.25	2.27064
2656.6	2.63079
2657.96	3.12496
2659.31	2.86649
2660.67	2.89947
2662.02	2.27847
2663.37	2.69792
2664.73	2.72774
2666.08	3.51744
2667.43	4.70457
2668.78	4.76937
2670.14	4.93602
2671.49	5.14284
2672.84	5.13591
2674.19	4.81818
2675.54	4.08947
2676.89	3.55833
2678.24	3.57343
2679.59	3.73679
2680.94	3.08969
2682.29	2.67797
2683.64	2.16104
2684.99	1.91991
2686.34	1.9068
2687.69	2.22996
2689.04	3.5287
2690.39	3.38796
2691.74	2.94649
2693.08	2.63257
2694.43	2.43231
2695.78	2.78944
2697.13	2.9406
2698.47	2.2733
2699.82	2.57915
2701.17	3.0305
2702.51	3.51368
2703.86	3.82866
2705.21	2.82166
2706.55	2.68049
2707.9	3.28356
2709.24	4.25127
2710.58	5.14416
2711.93	4.99624
2713.27	5.63883
2714.62	6.344
2715.96	6.59681
2717.3	7.17145
2718.65	7.60903
2719.99	7.45087
2721.33	7.48222
2722.68	8.36255
2724.02	8.82925
2725.36	8.46797
2726.71	8.37321
2728.05	8.72752
2729.39	8.73967
2730.73	9.11011
2732.07	9.48846
2733.41	9.85201
2734.75	9.17954
2736.09	8.26138
2737.43	8.41124
2738.77	8.7217
2740.11	9.27822
2741.45	8.83511
2742.79	8.37407
2744.13	8.35099
2745.47	8.01581
2746.81	7.70203
2748.14	7.24555
2749.48	7.41221
2750.82	7.44257
2752.16	7.55653
2753.49	7.97954
2754.83	7.87048
2756.17	7.87445
2757.5	6.622
2758.84	6.55368
2760.18	6.86064
2761.51	6.36646
2762.85	6.43187
2764.18	5.70423
2765.52	4.93788
2766.85	5.40732
2768.19	5.53236
2769.52	4.99491
2770.86	4.49997
2772.19	4.04376
2773.52	4.85729
2774.86	5.11632
2776.19	5.40054
2777.52	4.237
2778.86	3.77656
2780.19	3.75586
2781.52	3.51319
2782.85	2.56051
2784.19	2.23601
2785.52	1.48255
2786.85	1.32004
2788.18	1.60885
2789.51	1.85092
2790.84	0.933175
2792.17	0.908119
2793.5	0.808825
2794.83	0.859056
2796.16	0.635804
2797.49	1.10804
2798.82	1.70112
2800.15	1.344
2801.48	0.838211
2802.81	1.26128
2804.13	1.07033
2805.46	0.737001
2806.79	-0.133935
2808.12	-0.544359
2809.45	-1.47548
2810.77	-1.58035
2812.1	-1.79627
2813.43	-0.965242
2814.75	-0.937417
2816.08	-0.662555
2817.41	0.44151
2818.73	1.11788
2820.06	2.90828
2821.38	3.8411
2822.71	5.16345
2824.03	6.90343
2825.36	8.6639
2826.68	10.6544
2828	12.2746
2829.33	14.2771
2830.65	15.9455
2831.98	18.3614
2833.3	20.1128
2834.62	22.2885
2835.94	23.8648
2837.27	25.7635
2838.59	27.4219
2839.91	29.885
2841.23	31.3963
2842.55	33.8049
2843.87	35.742
2845.2	39.6554
2846.52	42.835
2847.84	46.7807
2849.16	50.1594
2850.48	54.3607
2851.8	58.7191
2853.12	62.9088
2854.44	66.9723
2855.76	70.7939
2857.08	74.5913
2858.39	78.4967
2859.71	81.7947
2861.03	85.4224
2862.35	89.2476
2863.67	91.8233
2864.98	94.5991
2866.3	97.4247
2867.62	100.269
2868.94	103.682
2870.25	105.556
2871.57	108.126
2872.88	110.743
2874.2	113.779
2875.52	115.286
2876.83	117.857
2878.15	120.312
2879.46	122.116
2880.78	123.643
2882.09	126.367
2883.41	129.004
2884.72	131.28
2886.03	133.464
2887.35	134.892
2888.66	136.592
2889.97	138.387
2891.29	139.619
2892.6	141.988
2893.91	143.48
2895.22	145.459
2896.54	147.377
2897.85	149.055
2899.16	151.36
2900.47	153.924
2901.78	156.163
2903.09	159.931
2904.4	163.417
2905.71	168.21
2907.02	171.797
2908.33	176.963
2909.64	181.66
2910.95	187.309
2912.26	191.557
2913.57	196.397
2914.88	200.782
2916.19	205.391
2917.5	209.868
2918.81	213.244
2920.11	216.64
2921.42	219.793
2922.73	222.598
2924.04	224.537
2925.34	226.511
2926.65	228.37
2927.96	229.35
2929.26	230.186
2930.57	232.107
2931.87	232.176
2933.18	232.018
2934.49	230.652
2935.79	228.334
2937.1	226.868
2938.4	224.391
2939.7	221.86
2941.01	218.686
2942.31	215.439
2943.62	212.175
2944.92	207.62
2946.22	204.919
2947.53	201.055
2948.83	196.881
2950.13	192.272
2951.43	187.53
2952.74	182.302
2954.04	177.411
2955.34	172.648
2956.64	168.531
2957.94	164.381
2959.24	159.847
2960.54	155.615
2961.84	151.272
2963.15	147.261
2964.45	144.23
2965.75	140.347
2967.05	137.218
2968.34	134.117
2969.64	130.91
2970.94	127.723
2972.24	123.825
2973.54	120.939
2974.84	117.119
2976.14	114
2977.43	110.324
2978.73	107.255
2980.03	103.895
2981.33	100.089
2982.62	96.144
2983.92	92.5892
2985.22	89.035
2986.51	85.4801
2987.81	81.7706
2989.11	77.8653
2990.4	74.1483
2991.7	70.0999
2992.99	66.4691
2994.29	63.3565
2995.58	59.2052
2996.88	55.3679
2998.17	51.8886
2999.46	48.0844
3000.76	45.0165
3002.05	42.591
3003.34	39.6101
3004.64	36.906
3005.93	33.7195
3007.22	31.283
3008.52	28.4265
3009.81	25.8079
3011.1	24.0561
3012.39	21.308
3013.68	19.0727
3014.97	16.8277
3016.27	14.6595
3017.56	13.1487
3018.85	11.8454
3020.14	10.8192
3021.43	10.1205
3022.72	8.99151
3024.01	7.9934
3025.3	6.66854
3026.59	5.73021
3027.88	5.14117
3029.16	5.20351
3030.45	4.73667
3031.74	4.46277
3033.03	4.33042
3034.32	4.37618
3035.6	4.26543
3036.89	4.82562
3038.18	5.43988
3039.47	6.17657
3040.75	6.85691
3042.04	6.90092
3043.33	7.0897
3044.61	7.20208
3045.9	7.50176
3047.18	7.65841
3048.47	8.0127
3049.75	8.20568
3051.04	8.15308
3052.32	8.67809
3053.61	8.99825
3054.89	9.11551
3056.18	9.23699
3057.46	9.91432
3058.74	9.89937
3060.03	9.69664
3061.31	10.0611
3062.59	9.77793
3063.88	9.44976
3065.16	9.24505
3066.44	8.78742
3067.72	8.04041
3069	7.52861
3070.29	7.64511
3071.57	7.2232
3072.85	7.02109
3074.13	7.20492
3075.41	7.07426
3076.69	6.68804
3077.97	5.88081
3079.25	5.81177
3080.53	5.24454
3081.81	4.90091
3083.09	3.92042
3084.37	3.90475
3085.65	3.15383
3086.93	2.25818
3088.21	1.33802
3089.49	1.26578
3090.76	1.25465
3092.04	1.64934
3093.32	1.70587
3094.6	1.59345
3095.87	1.43662
3097.15	2.18982
3098.43	2.85278
3099.7	2.67453
3100.98	3.348
3102.26	3.44623
3103.53	3.51814
3104.81	2.83343
3106.08	3.1571
3107.36	3.05558
3108.63	3.02063
3109.91	3.29452
3111.18	3.5455
3112.46	4.27788
3113.73	4.09385
3115	4.73325
3116.28	5.80564
3117.55	6.33265
3118.83	6.59088
3120.1	7.17313
3121.37	7.79732
3122.64	7.70217
3123.92	7.98752
3125.19	8.48201
3126.46	8.92093
3127.73	9.36446
3129	10.0971
3130.27	10.4517
3131.55	11.6581
3132.82	12.6055
3134.09	13.5896
3135.36	13.7349
3136.63	14.8587
3137.9	14.5639
3139.17	14.5049
3140.44	14.7508
3141.71	15.0783
3142.98	15.6784
3144.24	16.1446
3145.51	16.7625
3146.78	17.4415
3148.05	17.7398
3149.32	19.3306
