#Acq. time (s)=	45
#Accumulations=	2
#Range (cm-¹)=	200...3150
#Windows=	2
#Auto scanning=	Off
#Autofocus=	Off
#Macrospot=	Off
#AutoExposure=	Off
#Spike filter=	Multiple accum.
#Delay time (s)=	0
#Binning=	1
#Readout mode=	Signal
#DeNoise=	Off
#ICS correction=	On
#Dark correction=	Off
#Inst. Process=	Off
#Detector Gain=	Best Dynamic Range
#Detector ADC=	20 kHz       
#Detector temperature (°C)=	-69.85
#Instrument=	LabRAM HR Evol
#Detector=	Synapse
#Objective=	x100
#Grating=	600 gr/mm
#ND Filter=	100%
#Laser (nm)=	532 
#Hole=	100.021
#Range=	Auto
#Laser Pol.=	No
#Raman. Pol.=	No
#Laser Pol. (°)=	-0.0007625
#Raman Pol. (°)=	89.9995
#Collection=	Microscope
#StageXY=	Marzhauser
#StageZ=	Marzhauser
#X (µm)=	4748.5
#Y (µm)=	-7738.5
#Z (µm)=	584.6
#Full time(mm:ss)=	3:18
#Project=	
#Sample=	
#Site=	
#Title=	Thy_30_10_08_2x_45s_532 nm_x100_100%_600 gr_mm
#Remark=	
#Date=	30.06.2022 11:56
#Acquired=	30.06.2022 11:56:10
#Base:Fit=	10.08.2022 09:56:48
#Base:Fit=	10.08.2022 09:57:06
#Base:Fit=	10.08.2022 09:57:43
#Base:Fit=	10.08.2022 09:57:50
#Base:Fit=	10.08.2022 09:58:11
#Base:Sub=	10.08.2022 09:58:44
#Filter:Polynom=	16.08.2022 10:22:53
#AxisType[0]=Intens
#AxisUnit[0]=Cnt
#AxisType[1]=Spectr
#AxisUnit[1]=1/cm
200.533	-1.0653
202.348	4.33616
204.162	7.74252
205.976	10.9338
207.792	13.9863
209.605	16.2382
211.418	18.3695
213.23	19.758
215.044	20.4224
216.856	21.5825
218.667	21.7859
220.478	21.5321
222.289	22.2015
224.102	21.9531
225.912	21.7205
227.721	22.5938
229.531	21.7373
231.34	20.7932
233.148	19.2248
234.956	19.9674
236.766	20.1353
238.574	20.2258
240.381	20.4885
242.188	21.045
243.994	20.913
245.801	20.9744
247.606	19.4378
249.412	18.3539
251.217	17.2489
253.024	16.473
254.828	16.2915
256.632	15.7919
258.436	15.41
260.239	13.8358
262.042	13.2757
263.845	13.7471
265.647	14.6378
267.449	13.958
269.25	13.631
271.052	12.9142
272.852	13.832
274.653	12.8313
276.453	13.3948
278.253	13.7453
280.052	13.3999
281.852	13.4812
283.65	13.708
285.449	13.6135
287.247	13.8065
289.044	13.8498
290.842	13.4645
292.639	12.525
294.436	13.0724
296.232	12.6582
298.028	11.8118
299.821	11.7617
301.617	12.2379
303.412	11.7473
305.206	11.5209
307	12.8161
308.794	12.6814
310.588	12.4492
312.381	13.5069
314.172	13.7308
315.964	13.6432
317.756	13.4908
319.548	12.7363
321.34	13.1922
323.131	13.5048
324.921	15.0693
326.71	14.5179
328.5	14.0983
330.29	13.6692
332.079	13.7548
333.868	13.1617
335.654	12.7557
337.443	11.6518
339.231	11.8818
341.018	11.3939
342.804	11.4835
344.591	10.1484
346.377	9.29065
348.163	8.18941
349.947	7.64809
351.733	7.28606
353.518	7.24491
355.303	7.22872
357.085	6.08082
358.869	5.94666
360.653	5.34848
362.435	5.12363
364.218	3.55087
366.001	3.95466
367.781	3.77515
369.563	3.53285
371.345	3.05842
373.124	2.66437
374.905	1.45605
376.686	1.46248
378.464	0.64024
380.244	0.649605
382.022	1.06532
383.801	2.46627
385.58	2.30469
387.357	2.1565
389.135	2.80008
390.911	2.80173
392.689	2.71978
394.466	2.67603
396.241	3.71458
398.018	3.50016
399.792	3.21448
401.568	4.0486
403.341	3.94182
405.117	3.43327
406.889	3.48302
408.664	3.53471
410.436	3.65574
412.21	3.77213
413.981	3.97217
415.755	3.14902
417.525	3.05409
419.298	3.0698
421.068	3.37434
422.84	3.30137
424.609	3.74948
426.38	3.97421
428.149	4.78655
429.919	4.35204
431.688	3.66751
433.455	2.38885
435.225	2.92147
436.992	2.46635
438.76	2.86977
440.527	2.77342
442.293	3.12207
444.06	3.16327
445.826	2.27989
447.593	2.44354
449.357	2.83134
451.122	3.02233
452.888	2.58452
454.651	2.68563
456.415	2.72635
458.18	3.94923
459.942	4.11025
461.705	4.70078
463.469	4.96311
465.23	5.75421
466.991	5.75781
468.752	7.18973
470.515	7.52942
472.275	7.53668
474.035	7.05208
475.797	6.92217
477.556	7.48804
479.315	7.75265
481.073	8.66333
482.834	9.14669
484.592	9.81975
486.349	10.2422
488.106	10.7763
489.863	11.3468
491.622	11.6562
493.378	11.7024
495.134	12.0673
496.889	12.586
498.645	13.5078
500.401	13.9009
502.156	14.3475
503.91	14.0553
505.664	14.6978
507.417	15.489
509.171	15.795
510.923	15.806
512.678	15.5213
514.43	13.984
516.182	13.02
517.933	12.191
519.684	12.2106
521.435	12.2355
523.186	12.4037
524.936	11.617
526.686	11.4082
528.435	11.6354
530.184	11.3439
531.933	10.9267
533.682	10.7559
535.43	10.8307
537.18	10.3897
538.927	9.4953
540.674	8.85268
542.421	9.45858
544.167	10.0417
545.913	10.1446
547.659	9.57194
549.403	9.19778
551.148	8.14031
552.893	7.67272
554.637	6.90836
556.381	6.66341
558.125	5.4458
559.868	5.2237
561.611	5.30182
563.354	4.46272
565.097	4.37129
566.839	4.30147
568.581	3.89744
570.322	2.89269
572.063	2.80159
573.802	3.16998
575.542	2.64412
577.283	2.37535
579.022	2.52052
580.762	2.20937
582.501	1.75056
584.24	2.00862
585.976	1.51823
587.714	1.61293
589.452	1.03777
591.19	-0.254033
592.927	-0.717243
594.663	-0.99664
596.398	-2.05956
598.134	-1.97329
599.87	-1.908
601.605	-2.14042
603.338	-1.09674
605.073	-0.0343153
606.808	0.410092
608.542	0.181414
610.274	1.19026
612.007	1.44875
613.74	2.48141
615.473	3.1885
617.204	3.70057
618.936	4.26194
620.668	4.67188
622.397	5.57346
624.128	6.1977
625.859	6.57101
627.588	6.37516
629.318	7.45192
631.048	7.83552
632.775	8.20969
634.505	8.93649
636.233	9.09187
637.96	9.50051
639.688	10.3333
641.416	10.3029
643.142	10.9799
644.869	11.2864
646.594	12.0882
648.32	12.0487
650.045	11.904
651.771	12.8933
653.496	13.5072
655.219	13.5711
656.944	13.6308
658.667	14.6194
660.391	15.4576
662.113	16.012
663.837	16.2326
665.558	16.2588
667.281	17.1421
669.002	18.4607
670.724	19.6442
672.444	19.4589
674.166	20.3522
675.885	21.1002
677.606	21.9197
679.325	22.6659
681.045	23.6745
682.763	23.8098
684.483	24.9133
686.2	24.9753
687.917	25.854
689.636	26.6715
691.352	27.5486
693.07	29.2118
694.786	30.2724
696.501	30.9323
698.219	31.5432
699.933	33.3984
701.65	34.6732
703.364	35.5253
705.078	36.1136
706.793	36.5152
708.506	37.8021
710.219	38.794
711.934	38.685
713.646	38.93
715.358	40.4086
717.071	40.2027
718.782	41.3542
720.493	41.7281
722.204	42.3253
723.916	42.7119
725.626	42.7519
727.336	43.1269
729.045	44.9129
730.756	45.3693
732.464	45.5889
734.173	47.0096
735.881	48.2429
737.59	49.3706
739.297	50.1129
741.004	50.4065
742.711	51.7404
744.417	52.8536
746.125	54.6399
747.831	55.5334
749.537	56.5913
751.242	58.8228
752.946	61.0872
754.651	61.5965
756.357	62.5145
758.061	63.9308
759.764	65.3467
761.467	66.9243
763.17	66.4174
764.872	67.3762
766.575	68.3969
768.276	69.6507
769.978	71.6021
771.679	72.7949
773.382	73.9945
775.083	75.2943
776.783	77.4598
778.483	79.1865
780.182	80.5427
781.882	81.4012
783.581	83.4831
785.279	84.9874
786.978	84.8074
788.676	85.084
790.373	86.0427
792.071	87.3528
793.768	87.9306
795.464	88.2883
797.161	89.5673
798.857	90.5628
800.552	91.1413
802.248	91.7921
803.941	92.7129
805.636	93.1239
807.33	94.366
809.024	95.5019
810.718	96.3031
812.412	97.47
814.105	98.7894
815.798	98.3587
817.49	98.6434
819.183	100.775
820.873	100.18
822.564	99.9885
824.256	99.9273
825.947	99.2952
827.637	99.0624
829.328	98.6412
831.016	98.404
832.705	97.338
834.395	97.8592
836.084	97.2097
837.772	96.984
839.459	95.1611
841.147	94.6146
842.835	93.0713
844.522	91.9677
846.209	91.5454
847.894	90.6762
849.581	90.156
851.267	88.5396
852.953	88.7197
854.637	86.8699
856.322	85.3974
858.007	84.7739
859.689	84.2048
861.374	84.0491
863.058	83.0512
864.739	82.593
866.423	80.4071
868.106	79.0825
869.787	78.4919
871.469	76.7601
873.151	76.4055
874.831	75.8111
876.512	75.3842
878.193	73.8737
879.872	73.3888
881.553	72.4757
883.231	70.8378
884.911	70.5849
886.591	70.2646
888.268	69.5139
889.947	69.7501
891.623	69.2355
893.302	69.3918
894.978	68.5717
896.656	68.2959
898.331	66.7163
900.008	65.5448
901.683	66.2409
903.359	65.7424
905.033	63.9444
906.709	63.643
908.383	63.3459
910.058	62.7601
911.731	63.4047
913.405	63.1731
915.078	62.6485
916.752	62.568
918.423	62.887
920.096	62.1006
921.768	62.6451
923.438	62.3432
925.111	63.8046
926.781	64.3486
928.452	64.9677
930.122	64.6359
931.791	64.5196
933.462	64.2166
935.13	64.8731
936.799	65.1175
938.468	63.7746
940.136	64.1744
941.803	63.9959
943.472	63.5265
945.139	63.5248
946.805	62.7495
948.473	61.9521
950.139	61.5934
951.804	61.8971
953.471	62.3579
955.136	61.6068
956.801	61.3279
958.465	59.9344
960.131	59.3722
961.794	57.6131
963.458	57.3841
965.12	57.3029
966.785	58.0323
968.447	58.4657
970.109	58.9317
971.771	58.6859
973.432	58.6873
975.095	57.6959
976.756	57.6745
978.417	57.785
980.077	58.6034
981.737	58.5822
983.396	59.4333
985.057	60.1557
986.716	59.6373
988.375	59.4663
990.033	59.8428
991.691	59.8353
993.349	59.4993
995.006	60.3489
996.663	60.3604
998.32	61.0828
999.976	61.8278
1001.63	62.1175
1003.29	62.7847
1004.95	62.9631
1006.6	63.2213
1008.26	63.3579
1009.91	62.0796
1011.56	62.8433
1013.22	62.9662
1014.87	62.9127
1016.53	62.4277
1018.18	61.0218
1019.83	60.0092
1021.48	59.3664
1023.14	58.8068
1024.79	58.5732
1026.44	58.5934
1028.09	57.8747
1029.74	57.8677
1031.39	57.2119
1033.04	57.5068
1034.69	56.1475
1036.34	55.6826
1037.99	53.6429
1039.64	52.5094
1041.29	51.4054
1042.94	51.0911
1044.58	49.7305
1046.23	49.9119
1047.88	50.1324
1049.52	50.6984
1051.17	49.4947
1052.82	48.3049
1054.46	46.9541
1056.11	46.0498
1057.75	45.7133
1059.4	45.9164
1061.04	46.6485
1062.69	45.7285
1064.33	44.5784
1065.98	43.7749
1067.62	43.7533
1069.26	43.2162
1070.9	42.7769
1072.55	42.7273
1074.19	42.7755
1075.83	42.9534
1077.47	43.7238
1079.11	43.4095
1080.76	42.9534
1082.4	42.7894
1084.04	42.389
1085.68	42.2643
1087.32	42.3958
1088.95	43.1852
1090.59	43.8192
1092.23	44.7428
1093.87	46.2398
1095.51	45.1
1097.15	44.8215
1098.78	44.7774
1100.42	45.3625
1102.06	46.4556
1103.69	47.7475
1105.33	48.5669
1106.97	49.0696
1108.6	49.1396
1110.24	49.1273
1111.87	49.6616
1113.51	49.0755
1115.14	48.4923
1116.77	47.5285
1118.41	47.9955
1120.04	46.8693
1121.67	47.1296
1123.31	46.5324
1124.94	46.0531
1126.57	45.7667
1128.2	45.49
1129.83	44.8655
1131.47	43.7811
1133.1	42.0898
1134.72	42.7514
1136.36	42.6702
1137.98	42.3259
1139.62	41.6859
1141.24	41.0601
1142.87	40.9986
1144.5	39.5969
1146.13	38.3115
1147.76	37.7564
1149.38	37.1269
1151.01	35.8268
1152.64	34.8493
1154.27	33.8663
1155.89	33.3132
1157.52	32.1186
1159.14	31.4334
1160.77	30.1014
1162.39	29.5991
1164.02	28.7779
1165.64	27.5235
1167.27	27.4646
1168.89	28.2385
1170.51	28.1073
1172.14	27.9143
1173.76	28.3871
1175.38	27.9807
1177	27.4655
1178.63	27.5896
1180.25	27.3166
1181.87	27.7676
1183.49	27.6209
1185.11	28.0669
1186.73	27.7392
1188.35	28.1008
1189.97	28.9678
1191.59	29.5008
1193.21	29.3229
1194.83	29.9345
1196.45	30.8024
1198.07	32.0223
1199.68	33.4239
1201.3	34.1757
1202.92	36.1496
1204.53	37.4922
1206.15	38.5973
1207.77	40.3329
1209.38	41.5144
1211	42.4797
1212.62	44.5223
1214.23	46.9231
1215.84	49.575
1217.46	51.5274
1219.07	53.0608
1220.69	54.8276
1222.3	57.1824
1223.91	58.7673
1225.53	59.6835
1227.14	60.4819
1228.75	62.4116
1230.36	63.5704
1231.97	65.3348
1233.59	66.0581
1235.2	66.6982
1236.81	67.5806
1238.42	68.3622
1240.03	69.7526
1241.64	70.5965
1243.25	71.5185
1244.85	71.9888
1246.46	72.9873
1248.07	74.0462
1249.68	74.3598
1251.29	74.3774
1252.9	74.7002
1254.5	75.5323
1256.11	75.4398
1257.72	75.9788
1259.32	76.8354
1260.93	77.0782
1262.54	78.5774
1264.14	79.2101
1265.75	80.6493
1267.35	81.4858
1268.96	82.5468
1270.56	82.7708
1272.16	83.5076
1273.77	84.7367
1275.37	86.4293
1276.97	87.0391
1278.57	87.5313
1280.18	88.1064
1281.78	89.0379
1283.38	89.8295
1284.98	90.3067
1286.58	90.9692
1288.18	90.8822
1289.78	91.2411
1291.38	91.3997
1292.99	92.3478
1294.58	92.8725
1296.18	93.1301
1297.78	92.9995
1299.38	92.3712
1300.98	92.7262
1302.58	91.8673
1304.17	90.7759
1305.77	90.5644
1307.37	90.6958
1308.97	91.1174
1310.56	90.7649
1312.16	89.4485
1313.76	87.8072
1315.35	86.9558
1316.95	87.2671
1318.54	85.8866
1320.14	84.8303
1321.73	83.7466
1323.32	82.6302
1324.92	81.7484
1326.51	81.1451
1328.1	80.8683
1329.7	80.1078
1331.29	78.8748
1332.88	78.6289
1334.47	78.134
1336.07	77.952
1337.66	77.1129
1339.25	76.4688
1340.84	75.4406
1342.43	75.6049
1344.02	74.9921
1345.61	74.4586
1347.2	73.7764
1348.79	73.2278
1350.37	72.3693
1351.96	71.8017
1353.55	71.2765
1355.14	70.1564
1356.73	69.1601
1358.31	68.1894
1359.9	68.1554
1361.49	68.0435
1363.07	67.0569
1364.66	66.0913
1366.25	65.0647
1367.83	64.1189
1369.42	63.6039
1371	63.0584
1372.59	62.2298
1374.17	62.0721
1375.75	60.9056
1377.34	59.7434
1378.92	58.3075
1380.5	57.6413
1382.09	56.1637
1383.67	55.1899
1385.25	54.4826
1386.83	53.6539
1388.42	51.8193
1390	50.0688
1391.58	49.0816
1393.16	48.3035
1394.74	47.2293
1396.32	46.6567
1397.9	44.3026
1399.48	43.7264
1401.06	43.9213
1402.64	43.3378
1404.21	44.0694
1405.79	43.8352
1407.37	43.8633
1408.95	42.9105
1410.53	43.5327
1412.1	44.2281
1413.68	44.3051
1415.26	45.2258
1416.83	45.4979
1418.41	46.6526
1419.98	47.6218
1421.56	49.2381
1423.13	50.7794
1424.71	51.7516
1426.28	53.4896
1427.86	54.8159
1429.43	56.9125
1431	58.8364
1432.58	62.2649
1434.15	64.45
1435.72	66.8975
1437.29	69.2093
1438.87	71.3526
1440.44	72.5744
1442.01	73.9628
1443.58	74.9168
1445.15	76.8558
1446.72	77.5166
1448.29	77.7265
1449.86	78.2714
1451.43	77.4978
1453	77.378
1454.57	75.8587
1456.14	75.1708
1457.71	74.3914
1459.27	73.6015
1460.84	71.6598
1462.41	70.0566
1463.98	68.2493
1465.54	66.9375
1467.11	64.648
1468.67	62.8702
1470.24	61.0269
1471.81	58.2217
1473.37	55.4048
1474.94	53.0101
1476.5	50.9844
1478.07	49.1899
1479.63	47.4231
1481.19	44.6983
1482.76	41.9709
1484.32	38.7052
1485.88	35.5637
1487.45	32.8978
1489.01	30.1918
1490.57	27.7574
1492.13	25.3794
1493.69	23.9492
1495.26	22.143
1496.82	21.4065
1498.38	20.1092
1499.94	19.1667
1501.5	17.9538
1503.06	16.7544
1504.62	16.478
1506.17	16.7913
1507.73	17.1856
1509.29	18.1898
1510.85	18.6191
1512.41	17.6164
1513.97	17.6659
1515.52	16.3976
1517.08	16.3346
1518.64	16.3294
1520.19	16.7235
1521.75	17.1758
1523.31	17.7583
1524.86	17.2821
1526.42	18.0646
1527.97	18.8754
1529.52	19.5257
1531.08	20.5822
1532.63	21.7064
1534.19	23.3729
1535.74	23.5617
1537.29	24.6359
1538.85	25.9376
1540.4	26.7147
1541.95	28.4666
1543.5	29.7635
1545.06	30.9316
1546.61	31.5086
1548.16	33.7597
1549.71	34.4568
1551.26	36.2433
1552.81	38.6655
1554.36	40.7204
1555.91	41.5744
1557.46	42.962
1559.01	43.8295
1560.56	44.0762
1562.11	44.743
1563.65	44.9344
1565.2	46.6464
1566.75	47.8364
1568.29	49.9399
1569.84	50.5561
1571.39	51.7356
1572.94	52.9222
1574.48	54.1062
1576.03	54.9565
1577.57	56.0794
1579.12	57.3098
1580.66	58.9792
1582.21	60.0865
1583.75	60.6204
1585.3	60.5867
1586.84	60.7521
1588.38	59.7876
1589.93	58.9651
1591.47	59.173
1593.01	58.0704
1594.55	58.3688
1596.1	58.2231
1597.64	57.4528
1599.18	57.0359
1600.72	55.6939
1602.26	55.5951
1603.8	55.3724
1605.34	54.7066
1606.88	54.1899
1608.42	53.7512
1609.96	53.3806
1611.5	52.0723
1613.04	50.9722
1614.58	50.9195
1616.12	50.647
1617.65	49.8697
1619.19	50.484
1620.73	50.5123
1622.27	51.7117
1623.8	52.7561
1625.34	54.0169
1626.87	54.6204
1628.41	56.3519
1629.95	57.9293
1631.48	58.4751
1633.02	59.3733
1634.55	61.2192
1636.09	62.488
1637.62	63.9373
1639.15	66.1565
1640.69	68.4008
1642.22	71.371
1643.76	73.4724
1645.29	74.7026
1646.82	75.6561
1648.35	77.217
1649.88	79.1813
1651.42	80.9468
1652.95	82.4612
1654.48	82.479
1656.01	82.9761
1657.54	82.4472
1659.07	82.1893
1660.6	81.2746
1662.13	81.5052
1663.66	80.9594
1665.19	79.9704
1666.72	79.0857
1668.24	77.4843
1669.77	75.3544
1671.3	73.7416
1672.83	71.6268
1674.35	68.2772
1675.88	66.1355
1677.41	62.9823
1678.93	60.0225
1680.46	56.9312
1681.99	54.1583
1683.51	50.8553
1685.04	47.173
1686.56	43.6482
1688.09	39.3763
1689.61	36.558
1691.13	32.8112
1692.66	29.8237
1694.18	26.8831
1695.71	24.2874
1697.23	21.9042
1698.75	19.8881
1700.27	17.4669
1701.8	15.3308
1703.32	13.6275
1704.84	11.9118
1706.36	10.5685
1707.88	9.25418
1709.4	8.37077
1710.92	7.61603
1712.44	6.51311
1713.96	5.90631
1715.48	5.01673
1717	4.18824
1718.52	3.81298
1720.04	2.87749
1721.56	2.2929
1723.07	1.90122
1724.59	2.06241
1726.11	1.74722
1727.63	1.23262
1729.14	0.741063
1730.66	-0.0141806
1732.18	0.00369056
1733.69	-0.208547
1735.21	0.794717
1736.72	0.377822
1738.24	1.02859
1739.75	0.868108
1741.27	0.640928
1742.78	0.519255
1744.3	-0.499446
1745.81	-0.158109
1747.32	-0.399478
1748.84	-0.78425
1750.35	-1.1641
1751.86	-0.91698
1753.37	-1.10457
1754.89	-1.48122
1756.4	-1.10017
1757.91	-1.37418
1759.42	-1.85197
1760.93	-2.14829
1762.44	-2.22895
1763.95	-2.54739
1765.46	-1.75856
1766.97	-2.28153
1768.48	-2.25358
1769.99	-1.61271
1771.5	-1.8335
1773.01	-1.01159
1774.52	-0.982296
1776.03	-1.42354
1777.53	-1.18627
1779.04	-0.964963
1780.55	-0.251235
1782.06	-0.0429108
1783.56	0.434127
1785.07	0.410007
1786.57	1.1307
1788.08	1.49152
1789.59	1.87215
1791.09	1.58541
1792.6	2.10381
1794.1	2.17396
1795.6	2.28375
1797.11	2.52883
1798.61	2.4649
1800.12	3.26689
1801.62	3.23748
1803.12	3.5196
1804.63	4.15834
1806.13	4.27445
1807.63	4.26437
1809.13	5.07252
1810.63	5.46821
1812.14	5.49273
1813.64	6.11205
1815.14	6.41292
1816.64	6.38109
1818.14	6.10758
1819.64	5.85633
1821.14	5.94625
1822.64	5.76363
1824.14	6.84104
1825.63	7.17393
1827.13	7.08135
1828.63	7.33171
1830.13	7.38879
1831.63	7.68558
1833.12	7.77503
1834.62	7.98821
1836.12	8.2483
1837.62	8.396
1839.11	8.17039
1840.61	8.90571
1842.1	9.07856
1843.6	9.38982
1845.09	10.3079
1846.59	10.6671
1848.08	10.7652
1849.58	10.5606
1851.07	10.2958
1852.57	11.2451
1854.06	10.99
1855.55	10.5301
1857.04	10.807
1858.54	10.822
1860.03	10.1895
1861.52	9.85403
1863.01	9.15809
1864.5	8.44783
1866	8.25618
1867.49	8.72044
1868.98	8.52894
1870.47	8.2939
1871.96	8.38413
1873.45	8.04278
1874.94	7.88169
1876.43	7.93042
1877.92	7.4056
1879.41	7.60509
1880.89	8.09145
1882.38	8.0907
1882.48	7.71194
1883.97	7.36576
1885.47	7.71194
1886.96	7.96458
1888.46	7.68806
1889.95	7.58073
1891.44	7.28737
1892.94	7.08214
1894.43	6.85633
1895.92	7.89839
1897.41	8.63184
1898.9	7.81729
1900.4	7.80898
1901.89	7.88369
1903.38	8.08858
1904.87	8.12332
1906.36	7.99639
1907.85	8.23973
1909.34	8.81723
1910.83	9.11154
1912.32	9.7503
1913.81	11.0237
1915.29	11.2781
1916.78	11.5813
1918.27	11.9607
1919.76	11.7671
1921.25	11.5352
1922.74	12.0273
1924.22	11.9984
1925.71	12.3905
1927.2	11.6177
1928.68	12.0272
1930.17	11.9714
1931.65	11.3365
1933.14	10.8169
1934.63	11.1945
1936.11	10.9784
1937.59	11.0123
1939.08	10.8167
1940.56	10.9669
1942.05	10.735
1943.53	10.8344
1945.01	11.0062
1946.5	10.9316
1947.98	10.6536
1949.46	10.6555
1950.94	10.3496
1952.43	10.7767
1953.91	10.6853
1955.39	10.0322
1956.87	9.60283
1958.35	10.1649
1959.83	9.86699
1961.31	9.4636
1962.79	8.8443
1964.27	9.31153
1965.75	8.81352
1967.23	8.42143
1968.71	9.0558
1970.19	9.92704
1971.67	9.38692
1973.14	9.04434
1974.62	9.34858
1976.1	9.42224
1977.58	10.3231
1979.05	10.2986
1980.53	10.6724
1982.01	11.2436
1983.48	12.1805
1984.96	12.4556
1986.43	12.4378
1987.91	12.9935
1989.38	13.0382
1990.86	13.6036
1992.33	14.0123
1993.81	14.1519
1995.28	14.1589
1996.76	14.5323
1998.23	14.5364
1999.7	14.3782
2001.18	15.3217
2002.65	15.5581
2004.12	15.7891
2005.59	16.1763
2007.06	16.182
2008.54	16.9841
2010.01	16.4956
2011.48	17.0549
2012.95	17.0705
2014.42	17.7627
2015.89	17.7551
2017.36	17.5816
2018.83	16.8227
2020.3	16.5809
2021.77	16.6133
2023.24	16.8307
2024.71	17.3892
2026.17	17.507
2027.64	17.5547
2029.11	17.6223
2030.58	17.6927
2032.04	17.577
2033.51	17.2454
2034.98	17.249
2036.45	16.705
2037.91	17.4539
2039.38	17.4983
2040.84	17.708
2042.31	17.771
2043.77	17.8382
2045.24	17.8176
2046.7	17.9759
2048.17	17.8353
2049.63	17.627
2051.1	17.3634
2052.56	17.195
2054.02	17.1941
2055.48	17.2725
2056.95	17.5751
2058.41	17.3304
2059.87	17.6674
2061.33	17.9501
2062.8	17.5134
2064.26	17.8534
2065.72	17.6797
2067.18	17.9392
2068.64	18.3685
2070.1	19.3582
2071.56	19.0498
2073.02	19.2237
2074.48	19.4252
2075.94	19.7919
2077.4	20.2961
2078.86	20.9369
2080.31	21.3985
2081.77	22.953
2083.23	23.4456
2084.69	24.1595
2086.14	25.0274
2087.6	25.6737
2089.06	26.1946
2090.52	26.3193
2091.97	27.114
2093.43	27.5849
2094.88	28.9361
2096.34	29.4853
2097.79	30.8202
2099.25	31.1625
2100.7	31.8048
2102.16	32.8339
2103.61	33.6255
2105.07	34.2879
2106.52	35.3486
2107.97	36.4849
2109.43	37.6668
2110.88	38.9279
2112.33	39.1822
2113.78	39.467
2115.24	40.2784
2116.69	42.0895
2118.14	43.1986
2119.59	44.2638
2121.04	45.3899
2122.49	46.5777
2123.94	47.5052
2125.39	49.5699
2126.84	51.0085
2128.29	52.5022
2129.74	54.1286
2131.19	55.4106
2132.64	56.7085
2134.09	58.3318
2135.54	60.1154
2136.98	62.3125
2138.43	63.752
2139.88	65.4703
2141.33	66.9268
2142.77	68.7143
2144.22	69.5039
2145.67	71.1619
2147.11	73.2748
2148.56	75.2333
2150.01	76.7569
2151.45	78.8619
2152.9	80.1209
2154.34	82.6451
2155.79	83.5262
2157.23	84.5349
2158.67	85.8848
2160.12	86.1257
2161.56	87.2602
2163	88.1726
2164.45	89.5871
2165.89	90.0125
2167.33	91.545
2168.78	92.2696
2170.22	93.1103
2171.66	93.1981
2173.1	93.5818
2174.54	93.8362
2175.98	93.817
2177.42	93.7643
2178.86	93.3863
2180.3	92.7117
2181.74	91.7021
2183.18	90.5856
2184.62	90.6073
2186.06	90.238
2187.5	89.7685
2188.94	89.2575
2190.38	88.1526
2191.82	86.7782
2193.25	85.5859
2194.69	84.2387
2196.13	82.9326
2197.57	82.3602
2199	80.6387
2200.44	78.7834
2201.88	76.8409
2203.31	75.0214
2204.75	73.5809
2206.18	72.1699
2207.62	69.5519
2209.05	67.6639
2210.49	65.1804
2211.92	63.1723
2213.36	61.1251
2214.79	58.9743
2216.22	56.8057
2217.66	55.3305
2219.09	53.4506
2220.52	51.2334
2221.96	49.5437
2223.39	47.5296
2224.82	45.9141
2226.25	44.4255
2227.68	41.7031
2229.11	39.674
2230.55	37.9952
2231.98	36.6332
2233.41	35.7604
2234.84	34.8487
2236.27	33.9242
2237.7	32.2227
2239.12	31.7761
2240.55	30.6375
2241.98	30.064
2243.41	29.38
2244.84	28.674
2246.27	28.1963
2247.7	27.2429
2249.12	26.5784
2250.55	25.6835
2251.98	25.1394
2253.41	25.1822
2254.83	25.4966
2256.26	25.9834
2257.68	25.3895
2259.11	25.8339
2260.54	26.1452
2261.96	26.2136
2263.39	25.4576
2264.81	26.0764
2266.24	26.237
2267.66	25.8311
2269.08	25.6276
2270.51	25.2531
2271.93	24.7188
2273.35	24.3458
2274.78	24.3193
2276.2	24.0053
2277.62	23.6562
2279.04	23.0005
2280.47	23.4595
2281.89	22.9146
2283.31	22.8217
2284.73	22.2997
2286.15	21.9153
2287.57	21.8734
2288.99	21.0321
2290.41	19.8773
2291.83	19.4053
2293.25	18.1865
2294.67	17.4869
2296.09	16.8833
2297.51	15.8107
2298.93	15.2706
2300.35	15.6321
2301.76	15.7501
2303.18	16.1316
2304.6	16.2135
2306.02	16.2347
2307.44	16.1257
2308.85	15.4875
2310.27	15.6949
2311.69	15.6865
2313.1	15.8046
2314.52	15.1414
2315.93	14.4595
2317.35	14.4374
2318.76	14.2394
2320.18	14.6623
2321.59	14.1768
2323.01	14.3927
2324.42	14.7153
2325.83	14.8832
2327.25	14.6136
2328.66	14.3226
2330.07	14.2484
2331.49	13.9816
2332.9	13.8247
2334.31	13.6634
2335.72	13.945
2337.13	13.3218
2338.55	11.9477
2339.96	11.7602
2341.37	11.2775
2342.78	11.0182
2344.19	10.4726
2345.6	10.5452
2347.01	10.2165
2348.42	9.57133
2349.83	9.11804
2351.24	8.94679
2352.65	8.10762
2354.05	7.44489
2355.46	6.8339
2356.87	6.40259
2358.28	6.66911
2359.69	6.81
2361.09	6.00751
2362.5	5.41574
2363.91	5.15803
2365.31	5.44665
2366.72	5.74787
2368.13	5.59274
2369.53	5.88945
2370.94	5.81482
2372.34	5.80735
2373.75	6.18012
2375.15	6.07514
2376.56	6.18443
2377.96	6.04945
2379.37	5.65271
2380.77	5.81077
2382.17	6.04397
2383.58	5.65514
2384.98	5.71371
2386.38	5.67915
2387.79	6.4704
2389.19	6.06385
2390.59	5.8074
2391.99	6.01725
2393.39	6.11981
2394.8	6.25834
2396.2	6.52992
2397.6	5.91959
2399	6.17184
2400.4	6.48842
2401.8	7.07817
2403.2	7.46937
2404.6	7.29353
2406	6.87691
2407.4	6.70603
2408.79	6.51156
2410.19	7.14459
2411.59	7.19531
2412.99	7.42877
2414.39	7.27748
2415.78	7.40482
2417.18	7.50728
2418.58	7.43723
2419.98	7.60598
2421.37	8.08687
2422.77	8.04405
2424.16	8.64637
2425.56	9.66206
2426.96	10.3381
2428.35	10.9758
2429.74	10.6545
2431.14	9.92586
2432.53	10.7851
2433.93	11.0293
2435.32	10.5774
2436.72	10.5167
2438.11	9.87729
2439.5	9.55038
2440.9	9.33291
2442.29	9.70288
2443.68	9.49518
2445.07	9.15859
2446.47	8.94182
2447.86	8.6862
2449.25	8.1105
2450.64	7.79099
2452.03	8.01933
2453.42	7.43309
2454.81	7.20752
2456.2	6.74023
2457.59	6.65977
2458.98	5.89858
2460.37	6.16465
2461.76	6.13942
2463.15	5.65503
2464.54	5.82947
2465.93	5.27003
2467.32	5.015
2468.7	5.20307
2470.09	5.08215
2471.48	4.75404
2472.87	4.42566
2474.25	4.18187
2475.64	3.56563
2477.03	3.50718
2478.41	3.84335
2479.8	3.24829
2481.18	3.10592
2482.57	2.87822
2483.95	2.78651
2485.34	2.46858
2486.72	2.64294
2488.11	2.7394
2489.49	2.80509
2490.88	3.32405
2492.26	3.34054
2493.65	4.38564
2495.03	4.19164
2496.41	4.49283
2497.79	4.12292
2499.18	4.04847
2500.56	4.2182
2501.94	4.26567
2503.32	4.04364
2504.7	4.15232
2506.09	4.62463
2507.47	4.31519
2508.85	4.2924
2510.23	4.08446
2511.61	4.1762
2512.99	4.08192
2514.37	3.77596
2515.75	3.66325
2517.13	3.06557
2518.51	2.16737
2519.89	2.13285
2521.26	1.81745
2522.64	1.67183
2524.02	1.77606
2525.4	1.51549
2526.78	1.31122
2528.15	1.09617
2529.53	1.22528
2530.91	0.895998
2532.28	1.41598
2533.66	1.36955
2535.04	1.46425
2536.41	1.96273
2537.79	1.5381
2539.16	1.50258
2540.54	1.74561
2541.91	1.65063
2543.29	1.96401
2544.66	1.40412
2546.04	1.44968
2547.41	2.11363
2548.78	2.33308
2550.16	3.12126
2551.53	3.29007
2552.9	3.64887
2554.27	3.9782
2555.65	4.96539
2557.02	5.32972
2558.39	5.55312
2559.76	5.69599
2561.13	5.523
2562.51	6.22209
2563.88	6.48388
2565.25	7.194
2566.62	7.13386
2567.99	7.41188
2569.36	7.89714
2570.73	8.0229
2572.1	8.12424
2573.47	7.72836
2574.84	6.85811
2576.2	6.00265
2577.57	6.00471
2578.94	5.23571
2580.31	5.54131
2581.68	5.28739
2583.05	5.01358
2584.41	4.7218
2585.78	4.21212
2587.15	4.0833
2588.51	3.86292
2589.88	3.73166
2591.24	3.49669
2592.61	2.42327
2593.98	1.61657
2595.34	1.65294
2596.71	0.956172
2598.07	1.21805
2599.44	1.06754
2600.8	1.15322
2602.16	0.902509
2603.53	0.649404
2604.89	-0.233805
2606.26	-1.09165
2607.62	-1.03172
2608.98	-0.802718
2610.34	-1.4488
2611.71	-1.29207
2613.07	-1.94888
2614.43	-1.59432
2615.79	-1.11658
2617.15	-1.19911
2618.52	-1.78887
2619.88	-1.45051
2621.24	-1.56178
2622.6	-1.53008
2623.96	-1.82754
2625.32	-2.27483
2626.68	-1.8489
2628.04	-2.31076
2629.4	-2.0791
2630.75	-1.32322
2632.11	-1.69046
2633.47	-2.01192
2634.83	-1.66981
2636.19	-1.43315
2637.55	-1.36986
2638.9	-1.14975
2640.26	-1.20208
2641.62	-0.940704
2642.98	-1.01819
2644.33	0.0253143
2645.69	1.04892
2647.04	0.699029
2648.4	1.5327
2649.76	1.5049
2651.11	1.74697
2652.47	1.58146
2653.82	1.45326
2655.18	1.7648
2656.53	1.3329
2657.88	1.50299
2659.24	1.58296
2660.59	2.22479
2661.95	3.13788
2663.3	3.50284
2664.65	3.28105
2666	4.50706
2667.36	4.53206
2668.71	4.67547
2670.06	4.85539
2671.41	4.68109
2672.76	5.0842
2674.12	5.77457
2675.47	6.4276
2676.82	6.79154
2678.17	6.24301
2679.52	6.63285
2680.87	6.37444
2682.22	6.4998
2683.57	6.4537
2684.92	6.41573
2686.27	6.19726
2687.62	6.63397
2688.97	6.11976
2690.31	6.22329
2691.66	5.66272
2693.01	5.80016
2694.36	6.07027
2695.71	6.10434
2697.05	6.49919
2698.4	6.9852
2699.75	7.3014
2701.09	7.91012
2702.44	8.57466
2703.78	8.5646
2705.13	8.15976
2706.48	8.47661
2707.82	7.73558
2709.17	8.22015
2710.51	8.68425
2711.86	8.72284
2713.2	8.66927
2714.54	7.99428
2715.89	8.41469
2717.23	8.39589
2718.57	8.94488
2719.92	8.95007
2721.26	8.98761
2722.6	8.90998
2723.95	8.92778
2725.29	9.42992
2726.63	9.8231
2727.97	10.1782
2729.31	10.1122
2730.65	9.68427
2732	9.35826
2733.34	9.91648
2734.68	9.98755
2736.02	10.3616
2737.36	10.4794
2738.7	10.8767
2740.04	10.9588
2741.38	10.8761
2742.72	10.421
2744.05	10.0522
2745.39	9.01418
2746.73	9.04414
2748.07	8.43358
2749.41	8.00473
2750.75	7.73305
2752.08	7.27317
2753.42	6.50647
2754.76	6.08191
2756.09	4.96845
2757.43	4.44474
2758.77	4.24307
2760.1	4.64076
2761.44	5.22356
2762.78	5.33858
2764.11	4.95758
2765.44	4.83221
2766.78	4.68333
2768.11	4.41436
2769.45	4.04981
2770.78	3.81802
2772.12	3.3157
2773.45	3.30348
2774.78	3.56991
2776.12	3.89066
2777.45	3.58586
2778.78	3.20323
2780.12	3.74342
2781.45	3.61314
2782.78	4.09775
2784.11	4.09199
2785.44	4.3094
2786.78	3.79284
2788.11	3.56613
2789.44	3.58445
2790.77	4.10184
2792.1	4.6332
2793.43	4.51832
2794.76	5.32071
2796.09	5.56924
2797.42	5.40882
2798.75	5.06004
2800.08	5.54419
2801.4	5.79844
2802.73	5.51856
2804.06	5.63849
2805.39	5.46502
2806.72	4.86887
2808.05	5.23426
2809.37	5.04092
2810.7	4.73154
2812.03	4.21502
2813.35	4.45014
2814.68	4.12484
2816.01	3.69401
2817.33	4.03287
2818.66	4.58328
2819.98	5.25163
2821.31	6.91129
2822.63	8.48092
2823.96	10.7158
2825.28	13.1154
2826.61	15.7102
2827.93	18.0233
2829.25	19.994
2830.58	22.1324
2831.9	24.9282
2833.23	27.1531
2834.55	30.2725
2835.87	32.5653
2837.19	35.1386
2838.52	38.1465
2839.84	41.2079
2841.16	44.699
2842.48	48.0597
2843.8	52.285
2845.12	56.0699
2846.44	60.9913
2847.77	65.6669
2849.08	70.4262
2850.4	75.6387
2851.73	80.7316
2853.05	85.7044
2854.36	90.5991
2855.68	95.6194
2857	100.468
2858.32	104.912
2859.64	109.344
2860.96	114.055
2862.28	117.671
2863.59	121.35
2864.91	125.066
2866.23	129.086
2867.55	132.824
2868.86	135.65
2870.18	138.702
2871.5	141.768
2872.81	145.058
2874.13	147.876
2875.44	149.87
2876.76	151.653
2878.07	153.648
2879.39	156.165
2880.7	157.944
2882.02	160.034
2883.33	162.71
2884.65	165.281
2885.96	168.053
2887.28	170.597
2888.59	173.002
2889.9	175.334
2891.21	178.447
2892.53	180.929
2893.84	183.186
2895.15	185.717
2896.46	188.437
2897.78	191.729
2899.09	195.063
2900.4	198.694
2901.71	202.278
2903.02	206.512
2904.33	211.732
2905.64	216.703
2906.95	222.272
2908.26	228.661
2909.57	234.592
2910.88	240.932
2912.19	247.863
2913.5	254.046
2914.81	260.493
2916.12	266.982
2917.43	272.113
2918.73	276.901
2920.04	281.65
2921.35	285.622
2922.66	289.757
2923.96	293.072
2925.27	296.274
2926.58	298.73
2927.88	300.889
2929.19	301.866
2930.5	302.014
2931.8	302.598
2933.11	302.529
2934.41	301.709
2935.72	300.661
2937.02	298.858
2938.33	296.084
2939.63	292.432
2940.94	289.409
2942.24	285.12
2943.54	281.393
2944.85	277.234
2946.15	272.494
2947.45	268.208
2948.76	263.176
2950.06	257.852
2951.36	252.139
2952.66	246.494
2953.97	241.155
2955.27	235.726
2956.57	230.057
2957.87	223.414
2959.17	217.879
2960.47	212.103
2961.77	206.992
2963.07	202.256
2964.37	197.24
2965.67	192.228
2966.97	187.663
2968.27	182.804
2969.57	178.956
2970.87	174.424
2972.17	170.194
2973.47	166.926
2974.77	162.544
2976.07	158.59
2977.36	154.038
2978.66	150.067
2979.96	145.691
2981.26	141.087
2982.55	136.14
2983.85	131.501
2985.15	127.111
2986.44	121.85
2987.74	117.21
2989.03	112.26
2990.33	107.675
2991.63	103.065
2992.92	97.7186
2994.21	93.2498
2995.51	89.3119
2996.8	85.7537
2998.1	81.3071
2999.39	76.9772
3000.69	72.9723
3001.98	69.2025
3003.27	65.6282
3004.57	62.2137
3005.86	59.136
3007.15	55.567
3008.44	52.7638
3009.74	49.6319
3011.03	46.9403
3012.32	44.1974
3013.61	41.5385
3014.9	38.8204
3016.19	36.7276
3017.48	35.2798
3018.78	33.4763
3020.07	31.5811
3021.36	29.6683
3022.65	28.8368
3023.94	28.5226
3025.23	27.702
3026.51	27.1318
3027.8	26.8387
3029.09	26.5392
3030.38	25.9765
3031.67	25.4933
3032.96	25.7334
3034.24	25.8001
3035.53	25.4355
3036.82	26.104
3038.11	26.7746
3039.39	26.5451
3040.68	26.6166
3041.97	27.1416
3043.25	27.2799
3044.54	27.5517
3045.83	27.8322
3047.11	27.7815
3048.4	27.5285
3049.68	27.7694
3050.97	27.6569
3052.25	28.0331
3053.54	27.9118
3054.82	27.8033
3056.11	27.5849
3057.39	27.6637
3058.67	28.1709
3059.96	27.5415
3061.24	27.2097
3062.52	27.0847
3063.81	26.5776
3065.09	25.8585
3066.37	25.5882
3067.65	24.4611
3068.94	23.4692
3070.22	22.6088
3071.5	21.4853
3072.78	20.7368
3074.06	19.7093
3075.34	18.781
3076.62	17.8048
3077.9	16.6685
3079.18	15.4429
3080.46	14.9282
3081.74	13.9478
3083.02	12.9673
3084.3	12.221
3085.58	11.724
3086.86	10.7945
3088.14	10.3215
3089.42	9.41055
3090.69	8.91392
3091.97	8.49098
3093.25	7.87055
3094.53	7.21883
3095.8	7.00607
3097.08	6.63724
3098.36	5.80957
3099.63	5.93044
3100.91	5.82107
3102.19	5.5752
3103.46	5.33165
3104.74	4.93656
3106.01	4.57878
3107.29	3.87563
3108.56	3.78697
3109.84	3.52495
3111.11	3.22553
3112.39	2.70946
3113.66	2.72227
3114.94	2.3854
3116.21	2.33975
3117.48	2.02307
3118.76	2.21087
3120.03	2.15464
3121.3	2.2951
3122.57	2.02738
3123.85	1.83521
3125.12	1.95944
3126.39	1.70138
3127.66	0.968993
3128.93	0.740491
3130.21	0.726771
3131.48	-0.263386
3132.75	-0.236364
3134.02	-0.193011
3135.29	-0.596566
3136.56	-0.424113
3137.83	-0.872157
3139.1	-0.774545
3140.37	-0.770189
3141.64	-0.806149
3142.91	-0.637209
3144.17	-0.482463
3145.44	-0.16579
3146.71	-0.00715339
3147.98	0.514058
3149.25	1.39753
