#Acq. time (s)=	45
#Accumulations=	2
#Range (cm-¹)=	200...3150
#Windows=	2
#Auto scanning=	Off
#Autofocus=	Off
#Macrospot=	Off
#AutoExposure=	Off
#Spike filter=	Multiple accum.
#Delay time (s)=	0
#Binning=	1
#Readout mode=	Signal
#DeNoise=	Off
#ICS correction=	On
#Dark correction=	Off
#Inst. Process=	Off
#Detector Gain=	Best Dynamic Range
#Detector ADC=	20 kHz       
#Detector temperature (°C)=	-69.85
#Instrument=	LabRAM HR Evol
#Detector=	Synapse
#Objective=	x100
#Grating=	600 gr/mm
#ND Filter=	100%
#Laser (nm)=	532 
#Hole=	100.021
#Range=	Auto
#Laser Pol.=	No
#Raman. Pol.=	No
#Laser Pol. (°)=	-0.0007625
#Raman Pol. (°)=	89.9995
#Collection=	Microscope
#StageXY=	Marzhauser
#StageZ=	Marzhauser
#X (µm)=	256.3
#Y (µm)=	1672.9
#Z (µm)=	427.2
#Full time(mm:ss)=	3:18
#Project=	
#Sample=	
#Site=	
#Title=	Thy_40_11_29_2x_45s_532 nm_x100_100%_600 gr_mm
#Remark=	
#Date=	05.07.2022 12:05
#Acquired=	05.07.2022 12:05:56
#Base:Fit=	10.08.2022 10:01:35
#Base:Sub=	10.08.2022 10:01:52
#Filter:Polynom=	16.08.2022 10:21:53
#AxisType[0]=Intens
#AxisUnit[0]=Cnt
#AxisType[1]=Spectr
#AxisUnit[1]=1/cm
200.43	24.7904
202.244	23.5252
204.059	24.1242
205.873	21.8124
207.688	20.6521
209.501	19.0671
211.314	17.2963
213.127	15.8609
214.941	14.5589
216.753	13.8037
218.564	11.7559
220.375	11.6575
222.186	9.8472
223.999	9.54864
225.809	8.3256
227.618	8.13834
229.428	7.30433
231.236	6.49004
233.045	6.13124
234.855	6.10226
236.663	6.07091
238.471	5.87311
240.278	6.52644
242.085	7.44541
243.891	7.44495
245.698	7.09435
247.503	7.70817
249.309	8.82117
251.116	9.40011
252.921	9.331
254.725	9.62341
256.529	9.69554
258.333	9.71799
260.136	10.1675
261.939	10.3801
263.742	10.9605
265.544	10.9554
267.346	11.9283
269.148	12.501
270.949	13.1799
272.75	11.6752
274.55	12.861
276.351	13.4337
278.15	14.3261
279.95	14.8046
281.749	15.0691
283.548	15.3424
285.346	15.3141
287.144	14.9573
288.942	14.3551
290.739	14.4112
292.536	13.1536
294.333	11.996
296.129	12.8513
297.925	11.0732
299.721	10.6447
301.514	10.4118
303.309	11.2074
305.104	10.8756
306.898	11.823
308.692	11.3312
310.486	11.3101
312.279	10.5189
314.072	11.604
315.862	11.1607
317.654	11.7489
319.446	12.0592
321.238	12.2315
323.029	12.6059
324.819	13.1447
326.608	14.2432
328.398	14.218
330.188	14.4688
331.977	15.4126
333.766	14.4304
335.553	14.2144
337.341	14.7547
339.129	15.2265
340.917	14.2805
342.704	13.9541
344.489	13.9665
346.275	14.666
348.062	14.412
349.845	14.5439
351.631	14.0095
353.416	14.6335
355.201	14.7294
356.984	15.798
358.768	15.8692
360.552	15.7228
362.333	16.662
364.116	16.8949
365.899	16.5517
367.68	16.9329
369.462	16.8722
371.243	16.4106
373.023	15.1854
374.804	15.1861
376.585	15.8535
378.363	15.2665
380.143	14.2575
381.923	14.0304
383.7	14.0878
385.479	14.1814
387.256	13.6444
389.034	14.685
390.812	15.0203
392.588	15.8351
394.365	14.8305
396.14	14.3608
397.916	12.7078
399.691	11.7225
401.467	11.2526
403.24	11.5847
405.015	10.5813
406.788	10.113
408.563	9.81049
410.335	9.12497
412.109	8.91669
413.88	8.14742
415.654	7.02808
417.424	5.18291
419.197	5.3487
420.967	5.60643
422.739	5.20617
424.508	5.75067
426.279	5.5786
428.048	5.7135
429.819	5.10446
431.587	4.8301
433.356	5.73747
435.124	6.26095
436.891	5.85672
438.66	6.12668
440.426	6.48665
442.194	7.66102
443.96	8.005
445.725	8.07079
447.492	8.22416
449.257	8.12259
451.021	8.63201
452.787	8.62185
454.551	8.55865
456.314	9.3115
458.079	8.86333
459.842	8.87263
461.604	9.51199
463.368	11.0202
465.13	10.7732
466.891	11.0543
468.654	11.6536
470.415	12.225
472.175	12.9847
473.935	13.6658
475.696	14.7272
477.456	15.0142
479.215	13.8521
480.973	13.4962
482.733	12.4919
484.491	12.7483
486.249	13.2272
488.006	13.9556
489.765	14.7575
491.522	15.7398
493.278	15.9923
495.034	16.6633
496.789	18.2253
498.544	18.7633
500.301	18.3067
502.056	18.8235
503.81	20.0351
505.564	21.3191
507.317	22.8432
509.071	24.2903
510.825	25.241
512.578	25.4241
514.33	25.1476
516.082	25.3564
517.833	26.0934
519.585	25.761
521.335	26.2349
523.086	25.4834
524.836	25.5067
526.586	26.0326
528.335	25.2004
530.085	24.6573
531.835	24.0982
533.584	23.127
535.332	22.7887
537.08	22.1658
538.827	21.8384
540.574	20.9952
542.321	20.0974
544.068	19.111
545.814	17.9736
547.56	17.3801
549.305	16.712
551.05	15.6231
552.795	14.3543
554.54	14.2703
556.282	12.5884
558.025	12.4452
559.769	11.1066
561.512	9.30342
563.255	8.88271
564.997	7.4249
566.739	5.47115
568.481	5.01692
570.223	4.0877
571.964	3.95566
573.705	3.84418
575.443	3.19462
577.183	2.62911
578.923	1.87373
580.663	1.62721
582.402	1.26155
584.141	0.662171
585.879	-0.0585335
587.615	-0.512928
589.353	-0.0875407
591.09	-0.149387
592.828	-0.224442
594.564	-0.149056
596.299	0.331346
598.035	0.378061
599.771	0.761626
601.506	1.39537
603.242	1.43593
604.974	3.01477
606.709	2.81074
608.443	3.17256
610.177	3.16396
611.908	4.55404
613.642	4.61491
615.374	4.20808
617.105	4.80832
618.837	5.98203
620.569	6.60977
622.3	8.34912
624.03	9.47011
625.761	10.054
627.491	10.7183
629.219	11.9492
630.949	11.8836
632.677	13.2091
634.406	14.2367
636.135	15.7432
637.861	16.5981
639.59	17.5036
641.318	19.2061
643.043	20.0643
644.77	22.1156
646.495	22.3594
648.222	23.4582
649.948	24.1472
651.672	23.4422
653.398	23.0216
655.121	24.2973
656.846	24.4661
658.569	24.3459
660.293	23.8309
662.015	23.3237
663.738	23.6392
665.46	22.3262
667.183	22.7432
668.903	22.7744
670.626	22.5853
672.346	22.7909
674.067	22.9041
675.787	23.1533
677.508	24.1678
679.226	24.3849
680.947	24.6472
682.665	25.5975
684.385	25.9099
686.102	25.5777
687.821	26.4969
689.538	25.7153
691.254	26.5319
692.972	26.0905
694.688	25.8123
696.406	26.2973
698.121	27.1385
699.835	26.2023
701.552	26.9622
703.266	28.2858
704.98	30.6054
706.695	31.5272
708.409	32.8703
710.121	33.2475
711.836	33.11
713.548	33.9328
715.26	35.7092
716.973	35.8936
718.685	38.6656
720.396	40.009
722.108	41.6954
723.818	42.2069
725.528	44.1186
727.238	45.6435
728.949	46.4763
730.658	47.4044
732.367	48.0491
734.075	48.2949
735.785	49.6244
737.493	50.807
739.2	52.2836
740.907	53.3988
742.614	54.0392
744.322	54.7686
746.028	56.1925
747.734	57.726
749.439	58.6615
751.144	60.4806
752.849	63.7769
754.555	64.3655
756.26	65.6827
757.963	67.2426
759.667	68.2713
761.37	69.2425
763.073	69.9125
764.775	70.754
766.477	71.6785
768.179	72.0051
769.883	72.9034
771.584	73.5144
773.285	74.6477
774.986	75.176
776.686	76.0537
778.386	76.2459
780.085	76.1482
781.785	76.9911
783.484	77.9697
785.182	78.7848
786.881	80.714
788.579	81.098
790.276	82.0384
791.974	81.3912
793.671	80.7878
795.367	80.3627
797.064	79.7606
798.76	79.8014
800.456	80.1752
802.151	79.7092
803.846	80.0616
805.541	79.5572
807.234	80.1701
808.928	79.5774
810.622	80.0336
812.315	79.4352
814.008	79.6428
815.701	79.3635
817.394	79.5762
819.086	79.1321
820.778	80.2493
822.468	80.4001
824.159	80.4672
825.85	80.3007
827.541	80.3938
829.231	80.7444
830.921	79.7834
832.609	78.9493
834.298	78.6519
835.987	78.7526
837.676	78.1453
839.364	75.692
841.051	75.0035
842.738	74.338
844.426	73.0393
846.113	72.6137
847.798	72.5356
849.484	71.8421
851.171	70.8121
852.857	70.3497
854.54	70.791
856.226	70.108
857.911	70.2763
859.593	70.5872
861.278	70.0675
862.961	69.8774
864.645	69.7534
866.327	70.4771
868.01	69.8986
869.692	69.0916
871.373	67.5909
873.055	66.4195
874.735	65.35
876.416	63.5483
878.097	62.1975
879.776	61.7148
881.457	60.1122
883.135	60.5676
884.815	60.1101
886.495	59.7011
888.172	59.3556
889.851	59.811
891.528	59.2281
893.206	57.5542
894.882	57.5797
896.56	57.3296
898.237	57.4882
899.912	56.7166
901.589	56.5787
903.263	56.691
904.94	56.341
906.614	55.3
908.289	54.7924
909.962	53.1064
911.635	52.3099
913.31	51.705
914.982	50.4331
916.656	50.3629
918.328	49.8261
920.001	48.9149
921.672	47.6245
923.345	46.4867
925.015	45.3976
926.685	45.3274
928.357	44.3375
930.026	43.815
931.698	43.5399
933.366	42.761
935.035	43.1006
936.705	42.1775
938.373	41.8436
940.041	42.0284
941.71	42.095
943.377	41.5313
945.044	40.611
946.712	39.9421
948.378	39.8997
950.044	40.0577
951.709	39.0606
953.376	39.3719
955.041	39.2832
956.706	40.0468
958.372	39.1199
960.036	38.9857
961.699	39.386
963.362	40.4527
965.027	40.781
966.69	41.7419
968.352	41.691
970.014	43.8412
971.676	45.7229
973.339	46.4057
975	46.8846
976.661	47.2148
978.322	49.6469
979.982	50.2428
981.642	50.8093
983.303	51.0082
984.962	50.9864
986.621	51.0457
988.28	50.5868
989.938	50.1284
991.596	50.4751
993.254	50.6374
994.911	50.8874
996.57	51.563
998.227	51.1061
999.884	51.0425
1001.54	50.1285
1003.2	50.0027
1004.85	49.9197
1006.51	50.2434
1008.16	50.31
1009.82	50.1875
1011.47	49.6294
1013.12	49.3957
1014.78	49.5233
1016.43	49.363
1018.08	48.9311
1019.74	48.7602
1021.39	49.1736
1023.04	48.7615
1024.69	48.1352
1026.34	46.9484
1028	46.9921
1029.65	46.5986
1031.3	47.0966
1032.95	46.3452
1034.6	45.7314
1036.25	46.1224
1037.9	45.6047
1039.54	44.6756
1041.19	43.19
1042.84	43.999
1044.49	44.3143
1046.14	44.4067
1047.78	43.9783
1049.43	44.4951
1051.08	45.1627
1052.72	45.8703
1054.37	44.7481
1056.02	43.1806
1057.66	42.3166
1059.31	41.7563
1060.95	41.5616
1062.6	39.4511
1064.24	38.6859
1065.88	37.8679
1067.53	36.6361
1069.17	36.1952
1070.81	34.9472
1072.45	34.8395
1074.1	34.6316
1075.74	33.8075
1077.38	32.5563
1079.02	32.311
1080.66	31.5949
1082.3	31.4165
1083.94	31.0779
1085.58	30.704
1087.22	30.3841
1088.86	30.8826
1090.5	30.3239
1092.14	28.8457
1093.78	29.9322
1095.42	28.9536
1097.05	28.916
1098.69	28.0845
1100.33	27.6071
1101.96	26.8237
1103.6	25.3016
1105.24	25.3606
1106.87	25.3343
1108.51	24.5005
1110.14	24.6001
1111.78	25.1536
1113.41	25.145
1115.05	24.3754
1116.68	25.1058
1118.31	24.7886
1119.95	23.9721
1121.58	23.1004
1123.21	23.8918
1124.85	24.6914
1126.48	24.6183
1128.11	24.7994
1129.74	25.5561
1131.37	25.6658
1133	25.1653
1134.63	24.8764
1136.26	23.9773
1137.89	23.6842
1139.52	23.533
1141.15	23.5412
1142.78	23.3475
1144.41	23.0928
1146.04	23.0468
1147.66	22.8044
1149.29	21.7373
1150.92	21.1037
1152.55	20.1918
1154.17	18.9686
1155.8	17.1474
1157.43	15.7906
1159.05	15.0909
1160.68	14.6917
1162.3	14.2627
1163.93	13.5765
1165.55	12.4435
1167.17	11.6153
1168.8	11.2382
1170.42	10.5859
1172.05	9.92426
1173.67	9.21295
1175.29	8.71375
1176.91	7.60157
1178.54	7.98151
1180.16	7.96188
1181.78	8.43357
1183.4	9.18991
1185.02	9.60205
1186.64	10.512
1188.26	10.8534
1189.88	11.1786
1191.5	12.0406
1193.12	12.8108
1194.74	12.8337
1196.36	13.842
1197.97	14.4196
1199.59	15.2808
1201.21	16.6392
1202.83	17.9452
1204.44	20.3874
1206.06	21.3117
1207.68	22.9049
1209.29	24.2002
1210.91	25.8798
1212.52	26.7569
1214.14	28.5463
1215.75	30.1596
1217.37	32.4584
1218.98	34.2541
1220.59	35.944
1222.21	38.4228
1223.82	39.8413
1225.43	41.43
1227.05	42.1916
1228.66	42.9308
1230.27	43.2549
1231.88	44.916
1233.49	46.4096
1235.1	47.0968
1236.72	48.446
1238.33	50.3933
1239.94	52.3085
1241.55	53.517
1243.16	54.3195
1244.76	54.9528
1246.37	56.037
1247.98	57.7694
1249.59	58.8878
1251.2	59.945
1252.8	60.8574
1254.41	61.6565
1256.02	64.1983
1257.62	66.511
1259.23	67.2549
1260.84	68.9358
1262.44	70.1417
1264.05	70.9683
1265.66	70.9721
1267.26	71.196
1268.86	71.9777
1270.47	72.8288
1272.07	72.9994
1273.67	73.6645
1275.28	73.9755
1276.88	75.0183
1278.48	75.6889
1280.09	76.5799
1281.69	77.6052
1283.29	77.6964
1284.89	78.5433
1286.49	78.9497
1288.09	79.3792
1289.69	80.0372
1291.29	80.4606
1292.89	80.5892
1294.49	80.3381
1296.09	80.1239
1297.69	80.7452
1299.29	80.646
1300.89	80.6763
1302.49	81.2708
1304.08	80.2133
1305.68	80.4629
1307.28	80.1661
1308.88	80.4057
1310.47	81.109
1312.07	81.6384
1313.66	81.5949
1315.26	80.6155
1316.85	80.4169
1318.45	79.9126
1320.04	79.1561
1321.64	78.7566
1323.23	77.4533
1324.83	76.8285
1326.42	76.5943
1328.01	75.2671
1329.61	73.7656
1331.2	72.8292
1332.79	72.5303
1334.38	72.4686
1335.97	71.4648
1337.56	69.0221
1339.16	67.1751
1340.75	66.1324
1342.34	64.8877
1343.93	63.6886
1345.52	62.5836
1347.11	61.3088
1348.7	60.957
1350.29	59.8672
1351.87	58.4224
1353.46	57.4894
1355.05	56.5517
1356.64	56.6609
1358.22	54.2309
1359.81	52.5725
1361.4	51.9643
1362.98	50.3928
1364.57	49.2758
1366.16	47.9729
1367.74	46.4585
1369.33	45.0076
1370.91	43.6221
1372.5	43.3276
1374.08	42.207
1375.67	42.2655
1377.25	43.0377
1378.83	41.9239
1380.41	40.8967
1382	40.5297
1383.58	39.4198
1385.16	39.0549
1386.74	38.4825
1388.33	38.0761
1389.91	37.3294
1391.49	37.0047
1393.07	36.1921
1394.65	35.5596
1396.23	35.2327
1397.81	34.6918
1399.39	34.7479
1400.97	34.8897
1402.55	33.9403
1404.13	33.5346
1405.7	32.5529
1407.28	32.5599
1408.86	32.813
1410.44	33.444
1412.01	34.5683
1413.59	34.7628
1415.17	35.7525
1416.74	37.0016
1418.32	39.3732
1419.89	41.3253
1421.47	42.9692
1423.04	45.335
1424.62	47.6942
1426.19	49.634
1427.77	52.4153
1429.34	54.3516
1430.91	56.8717
1432.49	58.88
1434.06	61.2438
1435.63	63.3868
1437.2	64.887
1438.78	67.6833
1440.35	69.5201
1441.92	70.5247
1443.49	70.8639
1445.06	71.4806
1446.63	71.9909
1448.2	72.4397
1449.77	73.426
1451.34	73.0234
1452.91	71.8051
1454.48	71.4361
1456.05	71.2177
1457.62	68.9226
1459.18	67.5172
1460.75	65.7145
1462.32	63.9789
1463.89	61.2536
1465.45	59.1905
1467.02	57.3755
1468.59	54.8359
1470.15	52.1266
1471.72	49.0912
1473.28	45.5236
1474.85	42.8561
1476.41	39.9303
1477.98	37.2148
1479.54	34.0626
1481.1	29.9127
1482.67	26.965
1484.23	24.3427
1485.79	22.6517
1487.36	20.1216
1488.92	18.4111
1490.48	17.1237
1492.04	14.9722
1493.61	13.9558
1495.17	12.7935
1496.73	11.781
1498.29	11.004
1499.85	10.9498
1501.41	11.1892
1502.97	10.6349
1504.53	10.2683
1506.09	10.9564
1507.65	11.1266
1509.2	12.0273
1510.76	12.8857
1512.32	12.7853
1513.88	13.3589
1515.43	14.3396
1516.99	15.7214
1518.55	15.9761
1520.1	16.5289
1521.66	17.4546
1523.22	18.1515
1524.77	20.027
1526.33	20.7596
1527.88	21.4948
1529.44	22.3155
1530.99	23.8281
1532.54	25.4959
1534.1	26.878
1535.65	27.3521
1537.21	29.1316
1538.76	30.4421
1540.31	32.1863
1541.86	33.2395
1543.42	35.6639
1544.97	36.9559
1546.52	38.0546
1548.07	39.5227
1549.62	41.1194
1551.17	42.8486
1552.72	45.3887
1554.27	46.1033
1555.82	47.2528
1557.37	48.4508
1558.92	50.5472
1560.47	52.8866
1562.02	54.4053
1563.56	56.2018
1565.11	57.5714
1566.66	58.4523
1568.21	59.4695
1569.75	60.8212
1571.3	62.4792
1572.85	64.2688
1574.39	66.1361
1575.94	67.6563
1577.49	68.9253
1579.03	69.0567
1580.57	70.4653
1582.12	71.5268
1583.66	72.1483
1585.21	72.654
1586.75	73.5432
1588.3	73.2506
1589.84	73.3495
1591.38	74.4779
1592.92	75.189
1594.47	74.5666
1596.01	73.754
1597.55	73.3856
1599.09	72.3998
1600.63	71.285
1602.17	71.3502
1603.71	69.7734
1605.25	69.6828
1606.79	69.6428
1608.33	68.989
1609.87	68.2323
1611.41	67.7727
1612.95	67.2711
1614.49	66.9884
1616.03	66.4727
1617.57	66.5939
1619.1	66.7173
1620.64	66.6483
1622.18	67.0753
1623.72	67.8955
1625.25	67.7905
1626.79	68.8238
1628.32	69.4603
1629.86	69.1549
1631.39	69.9866
1632.93	71.3819
1634.46	72.9887
1636	74.5059
1637.53	75.1469
1639.07	75.944
1640.6	77.9876
1642.13	79.2377
1643.67	80.3563
1645.2	83.0384
1646.73	85.3817
1648.26	86.8782
1649.8	87.7197
1651.33	88.3743
1652.86	87.965
1654.39	89.069
1655.92	89.4875
1657.45	89.9229
1658.98	89.2105
1660.51	89.1741
1662.04	88.9629
1663.57	88.1384
1665.1	87.1787
1666.63	86.7701
1668.16	85.4421
1669.68	84.1941
1671.21	81.9704
1672.74	80.1838
1674.27	78.0423
1675.79	75.002
1677.32	72.4598
1678.85	70.1086
1680.37	66.9737
1681.9	64.2347
1683.42	60.864
1684.95	57.0963
1686.47	53.9799
1688	51.3635
1689.52	48.2449
1691.05	45.3647
1692.57	42.4757
1694.09	39.6705
1695.62	36.5115
1697.14	32.9881
1698.66	30.8255
1700.18	27.469
1701.71	24.7382
1703.23	22.5724
1704.75	19.6893
1706.27	17.289
1707.79	15.7972
1709.31	13.948
1710.83	12.4863
1712.35	11.3377
1713.87	9.91274
1715.39	8.98226
1716.91	8.60523
1718.43	7.46266
1719.95	6.74574
1721.47	6.79294
1722.99	5.4975
1724.5	4.04065
1726.02	2.92173
1727.54	2.7019
1729.06	2.16792
1730.57	2.4506
1732.09	1.63234
1733.61	1.4976
1735.12	1.01958
1736.64	1.38434
1738.15	1.35342
1739.67	1.97096
1741.18	2.14902
1742.7	1.86167
1744.21	1.13821
1745.72	1.46924
1747.24	0.746834
1748.75	0.90392
1750.26	1.0189
1751.77	0.656711
1753.29	0.909843
1754.8	2.03427
1756.31	2.1766
1757.82	2.30868
1759.33	2.47309
1760.84	2.67728
1762.36	3.69692
1763.87	3.6642
1765.38	3.58864
1766.89	3.30472
1768.4	3.5249
1769.91	3.2079
1771.41	2.86913
1772.92	3.20202
1774.43	3.1956
1775.94	2.729
1777.45	2.49671
1778.95	2.35344
1780.46	2.16403
1781.97	1.70238
1783.48	1.46311
1784.98	1.30679
1786.49	1.5673
1787.99	1.28949
1789.5	0.586247
1791.01	0.886699
1792.51	0.912608
1794.01	1.12642
1795.52	0.961891
1797.02	0.997088
1798.53	0.628602
1800.03	0.358578
1801.53	0.953974
1803.04	1.30967
1804.54	1.01651
1806.04	0.896982
1807.54	1.17307
1809.05	1.24757
1810.55	1.10108
1812.05	1.44929
1813.55	1.38238
1815.05	1.10965
1816.55	0.796624
1818.05	1.06397
1819.55	1.63323
1821.05	2.62053
1822.55	2.1441
1824.05	2.44568
1825.55	2.67194
1827.05	2.97158
1828.55	3.42206
1830.04	3.55571
1831.54	3.16561
1833.04	3.67469
1834.54	3.62228
1836.03	3.62418
1837.53	3.57789
1839.03	3.24856
1840.52	3.10695
1842.02	2.90417
1843.51	3.48007
1845.01	2.93089
1846.5	2.71271
1848	1.73092
1849.49	1.1931
1850.99	1.08883
1852.48	0.608207
1853.97	1.29971
1855.47	0.867746
1856.96	1.00394
1858.45	1.10517
1859.94	1.88476
1861.44	2.04137
1862.93	1.91704
1864.42	2.31852
1865.91	2.92311
1867.4	3.60682
1868.89	4.77668
1870.38	4.76051
1871.87	5.14331
1873.36	5.90367
1874.85	6.5635
1876.34	7.11386
1877.83	7.23576
1879.32	7.8188
1880.81	8.3811
1882.3	9.12506
1882.57	9.564
1884.07	10.019
1885.56	10.2314
1887.06	10.6783
1888.55	11.0012
1890.04	11.9875
1891.54	11.9456
1893.03	11.7102
1894.52	11.1845
1896.02	11.1395
1897.51	11.5454
1899	11.5815
1900.49	12.2495
1901.98	12.5414
1903.47	12.2637
1904.96	12.1955
1906.45	11.9843
1907.94	11.3005
1909.43	10.8584
1910.92	9.91372
1912.41	9.33748
1913.9	8.66514
1915.39	8.39025
1916.88	7.89088
1918.37	7.56601
1919.85	7.47519
1921.34	6.98525
1922.83	6.89862
1924.32	6.9579
1925.8	6.68979
1927.29	6.92519
1928.78	5.92614
1930.26	6.23203
1931.75	6.12698
1933.23	6.18677
1934.72	5.15297
1936.2	5.13437
1937.69	5.27906
1939.17	5.53068
1940.66	5.84668
1942.14	5.4892
1943.63	5.08372
1945.11	5.6563
1946.59	6.09866
1948.07	5.92848
1949.56	5.6864
1951.04	6.09374
1952.52	6.26152
1954	5.84878
1955.48	6.46901
1956.96	6.90807
1958.45	6.80654
1959.93	6.8192
1961.41	7.32505
1962.89	7.0168
1964.37	6.91674
1965.85	6.28836
1967.32	6.49223
1968.8	6.5441
1970.28	6.9808
1971.76	7.33565
1973.24	7.79356
1974.72	8.75697
1976.19	8.95876
1977.67	8.86941
1979.15	9.28047
1980.63	9.7164
1982.1	9.86054
1983.58	9.4508
1985.05	9.46947
1986.53	10.2124
1988	10.869
1989.48	11.6763
1990.95	11.9493
1992.43	12.4666
1993.9	12.5374
1995.38	12.2667
1996.85	12.6076
1998.32	12.5249
1999.8	12.0637
2001.27	12.209
2002.74	12.3934
2004.22	12.9139
2005.69	12.4458
2007.16	12.0648
2008.63	11.2802
2010.1	11.9838
2011.57	12.542
2013.04	12.5309
2014.51	12.5166
2015.98	12.1288
2017.45	12.4554
2018.92	12.502
2020.39	12.1561
2021.86	12.0804
2023.33	12.6693
2024.8	13.4429
2026.27	13.6279
2027.74	13.5274
2029.2	14.2912
2030.67	13.8403
2032.14	14.1242
2033.61	13.9703
2035.07	14.1051
2036.54	14.0946
2038.01	14.248
2039.47	15.2727
2040.94	16.3605
2042.4	16.9744
2043.87	18.054
2045.33	19.0856
2046.8	19.8863
2048.26	20.1275
2049.72	20.215
2051.19	20.9199
2052.65	21.2792
2054.12	21.8263
2055.58	21.9028
2057.04	22.2235
2058.5	22.787
2059.97	23.6992
2061.43	24.2316
2062.89	24.327
2064.35	24.6214
2065.81	24.917
2067.27	25.1224
2068.73	25.2663
2070.19	25.4123
2071.65	25.3532
2073.11	25.9273
2074.57	26.1704
2076.03	26.7415
2077.49	26.9426
2078.95	26.9941
2080.41	27.6553
2081.87	28.4762
2083.32	29.5592
2084.78	30.198
2086.24	30.8653
2087.7	31.5605
2089.15	32.0123
2090.61	33.0852
2092.07	33.9442
2093.52	34.4334
2094.98	35.8837
2096.43	37.0735
2097.89	38.1144
2099.34	39.2106
2100.8	40.183
2102.25	41.4486
2103.71	42.8047
2105.16	44.6558
2106.61	45.2799
2108.07	47.1811
2109.52	48.8618
2110.97	50.5485
2112.43	53.2151
2113.88	55.4594
2115.33	56.6258
2116.78	58.2134
2118.23	60.0258
2119.68	61.9385
2121.13	63.5627
2122.59	66.0371
2124.04	68.8781
2125.49	70.3265
2126.94	72.7886
2128.39	74.9027
2129.83	76.7174
2131.28	78.511
2132.73	80.639
2134.18	82.4735
2135.63	84.6259
2137.08	86.597
2138.53	88.8465
2139.97	90.6999
2141.42	92.6508
2142.87	94.7246
2144.31	96.8713
2145.76	98.8559
2147.21	100.252
2148.65	102.831
2150.1	104.956
2151.54	106.76
2152.99	108.849
2154.43	110.258
2155.88	111.951
2157.32	113.232
2158.77	114.248
2160.21	115.619
2161.65	116.692
2163.1	117.047
2164.54	117.504
2165.98	117.367
2167.43	118.033
2168.87	118.729
2170.31	119.258
2171.75	119.245
2173.19	118.908
2174.64	118.581
2176.07	118.595
2177.52	118.219
2178.96	117.456
2180.4	117.746
2181.84	116.511
2183.28	115.667
2184.72	114.202
2186.15	112.361
2187.59	110.318
2189.03	108.679
2190.47	106.85
2191.91	105.626
2193.35	103.73
2194.78	102.491
2196.22	100.68
2197.66	98.1584
2199.09	96.5122
2200.53	94.876
2201.97	92.6724
2203.4	90.7153
2204.84	89.1148
2206.27	87.5135
2207.71	85.8542
2209.14	83.3851
2210.58	81.4797
2212.01	79.0526
2213.45	77.4168
2214.88	75.4084
2216.31	73.5032
2217.75	71.6428
2219.18	69.5112
2220.61	68.4896
2222.05	66.3931
2223.48	64.7336
2224.91	63.2089
2226.34	61.1451
2227.78	59.9215
2229.21	58.1009
2230.64	56.8626
2232.07	55.8344
2233.5	54.1422
2234.93	52.3005
2236.36	51.3153
2237.79	50.4084
2239.22	49.6267
2240.65	48.7918
2242.08	47.654
2243.5	46.4827
2244.93	45.6888
2246.36	44.9253
2247.79	44.1656
2249.22	43.1977
2250.64	41.8034
2252.07	41.0428
2253.5	39.8438
2254.92	38.8305
2256.35	38.02
2257.78	37.5434
2259.2	36.7073
2260.63	36.155
2262.05	35.8569
2263.48	35.6449
2264.9	34.5464
2266.33	34.108
2267.75	33.1641
2269.18	32.4406
2270.6	32.3488
2272.02	32.3139
2273.45	31.4153
2274.87	30.5881
2276.29	29.7043
2277.71	29.3181
2279.14	28.2989
2280.56	26.8159
2281.98	26.2407
2283.4	25.6363
2284.82	25.1437
2286.24	24.2855
2287.66	24.332
2289.08	23.7249
2290.5	22.9474
2291.92	22.1649
2293.34	21.3561
2294.76	21.4152
2296.18	21.8971
2297.6	21.8313
2299.02	21.9787
2300.44	21.6568
2301.86	21.4625
2303.27	21.2507
2304.69	20.9507
2306.11	19.8753
2307.53	19.6238
2308.94	19.4957
2310.36	18.8537
2311.78	19.7241
2313.19	19.9574
2314.61	19.8342
2316.02	19.7897
2317.44	19.2754
2318.85	19.152
2320.27	18.9101
2321.68	18.5434
2323.1	18.994
2324.51	18.5022
2325.92	17.9785
2327.34	17.523
2328.75	17.2584
2330.16	16.8211
2331.58	17.0482
2332.99	16.572
2334.4	15.826
2335.81	15.3654
2337.23	15.8567
2338.64	15.311
2340.05	15.2178
2341.46	15.975
2342.87	15.8886
2344.28	15.201
2345.69	14.7262
2347.1	13.9783
2348.51	14.1663
2349.92	13.3416
2351.33	13.415
2352.74	13.7648
2354.15	12.8143
2355.55	12.4145
2356.96	11.4756
2358.37	10.8308
2359.78	9.95428
2361.19	9.05233
2362.59	7.91695
2364	8.46305
2365.41	9.11764
2366.81	8.51957
2368.22	7.89333
2369.62	7.28354
2371.03	6.90346
2372.44	6.36536
2373.84	5.25313
2375.24	4.13048
2376.65	3.138
2378.05	3.30969
2379.46	2.74942
2380.86	2.55564
2382.26	2.89445
2383.67	1.83343
2385.07	1.63128
2386.47	2.00919
2387.88	2.03038
2389.28	2.28981
2390.68	2.28218
2392.08	2.81446
2393.48	3.03191
2394.89	3.29524
2396.29	3.8183
2397.69	3.2888
2399.09	4.04343
2400.49	5.21906
2401.89	5.95686
2403.29	6.3419
2404.69	6.96175
2406.09	7.994
2407.48	8.66314
2408.88	8.7155
2410.28	9.69675
2411.68	10.624
2413.08	10.4345
2414.48	11.0885
2415.87	11.853
2417.27	12.2828
2418.67	12.9942
2420.06	13.9229
2421.46	14.1259
2422.86	14.2705
2424.25	14.3165
2425.65	14.9906
2427.04	15.2004
2428.44	15.6751
2429.83	16.0391
2431.23	16.5675
2432.62	16.8447
2434.02	18.2204
2435.41	17.854
2436.81	17.5053
2438.2	18.1992
2439.59	17.3905
2440.99	17.5155
2442.38	16.8726
2443.77	16.1712
2445.16	17.133
2446.56	17.1651
2447.95	16.9141
2449.34	17.0806
2450.73	17.3509
2452.12	17.3315
2453.51	17.1147
2454.9	16.8119
2456.29	16.6328
2457.68	15.946
2459.07	15.5462
2460.46	15.8347
2461.85	15.3413
2463.24	14.6561
2464.63	15.1906
2466.02	14.6033
2467.4	14.077
2468.79	14.1507
2470.18	13.6386
2471.57	12.5769
2472.95	12.2936
2474.34	11.9618
2475.73	11.6735
2477.12	10.8618
2478.5	10.1708
2479.89	9.81064
2481.27	9.69671
2482.66	9.6027
2484.04	9.62943
2485.43	9.48062
2486.81	9.22815
2488.2	9.02464
2489.58	8.78886
2490.97	8.65076
2492.35	8.4058
2493.73	8.36567
2495.12	8.00983
2496.5	7.79472
2497.88	7.65017
2499.27	7.74153
2500.65	7.28132
2502.03	7.1794
2503.41	6.77782
2504.79	6.176
2506.17	5.90596
2507.56	5.6415
2508.94	5.29783
2510.32	5.65562
2511.7	5.39982
2513.08	5.8438
2514.46	5.88447
2515.84	4.78952
2517.22	4.8174
2518.59	5.2827
2519.97	4.45633
2521.35	4.19606
2522.73	4.35285
2524.11	3.92616
2525.49	4.37057
2526.86	4.18858
2528.24	3.68702
2529.62	3.76532
2530.99	3.71903
2532.37	4.03193
2533.75	4.17932
2535.12	3.26948
2536.5	2.69307
2537.88	2.17652
2539.25	2.27334
2540.63	2.50182
2542	2.38268
2543.38	2.28569
2544.75	2.15658
2546.12	2.46039
2547.5	2.42453
2548.87	2.96645
2550.24	3.44993
2551.62	3.32705
2552.99	3.30936
2554.36	3.46081
2555.74	3.96539
2557.11	3.89399
2558.48	4.12598
2559.85	4.53739
2561.22	4.55152
2562.59	4.43738
2563.96	4.5598
2565.34	4.50326
2566.71	4.84396
2568.08	5.04198
2569.45	4.69752
2570.82	4.71554
2572.18	3.93634
2573.55	4.64528
2574.92	4.17715
2576.29	4.08335
2577.66	4.50295
2579.03	4.6912
2580.4	4.61551
2581.77	4.47394
2583.13	3.95314
2584.5	3.9204
2585.87	3.78291
2587.23	3.53439
2588.6	2.83369
2589.97	3.01727
2591.33	3.03355
2592.7	1.85527
2594.06	1.99709
2595.43	2.07097
2596.79	2.13977
2598.16	2.2583
2599.52	1.82466
2600.89	1.01982
2602.25	0.375959
2603.62	0.0635547
2604.98	-0.300916
2606.34	-0.130137
2607.71	-0.193709
2609.07	-0.301489
2610.43	-0.0837989
2611.79	-0.037436
2613.16	0.154521
2614.52	0.285828
2615.88	-0.302963
2617.24	-0.00515254
2618.6	0.147711
2619.96	0.437763
2621.32	0.256726
2622.68	0.217403
2624.04	0.514057
2625.4	-0.112656
2626.76	0.0108077
2628.12	-0.0538715
2629.48	0.0494168
2630.84	-0.259039
2632.2	0.464805
2633.56	0.756575
2634.92	1.10405
2636.28	0.742485
2637.63	0.541066
2638.99	0.814261
2640.35	1.02087
2641.71	0.803988
2643.06	0.250709
2644.42	0.362197
2645.77	0.960137
2647.13	0.863313
2648.49	1.07324
2649.84	1.17325
2651.2	1.32441
2652.55	1.50961
2653.91	1.22486
2655.26	1.38499
2656.62	1.81487
2657.97	1.91693
2659.33	2.58415
2660.68	2.67547
2662.03	3.68111
2663.39	3.89254
2664.74	3.75692
2666.09	3.44187
2667.44	3.60797
2668.8	3.95307
2670.15	4.31524
2671.5	4.32672
2672.85	4.1826
2674.2	4.73859
2675.55	4.48366
2676.91	4.7378
2678.26	4.60565
2679.61	4.75254
2680.96	4.65403
2682.31	5.06675
2683.66	5.66321
2685	5.79637
2686.35	5.5658
2687.7	5.32498
2689.05	4.64052
2690.4	4.69343
2691.75	5.18503
2693.1	5.36648
2694.44	5.2197
2695.79	5.12946
2697.14	4.98255
2698.49	5.07433
2699.83	4.80768
2701.18	5.32817
2702.52	5.33667
2703.87	4.8355
2705.22	4.66513
2706.56	4.33405
2707.91	3.82443
2709.25	3.5444
2710.6	3.9564
2711.94	3.94106
2713.29	4.1254
2714.63	4.28052
2715.97	4.68903
2717.32	4.28839
2718.66	4.42596
2720.01	4.76315
2721.35	5.13131
2722.69	5.52943
2724.03	5.8744
2725.38	6.14101
2726.72	6.24853
2728.06	6.16591
2729.4	6.06796
2730.74	6.29653
2732.08	6.30393
2733.42	5.84994
2734.76	5.72874
2736.1	5.81915
2737.44	5.80711
2738.78	5.68433
2740.12	5.51496
2741.46	5.67677
2742.8	5.61852
2744.14	5.23225
2745.48	4.98409
2746.82	5.04871
2748.16	4.5029
2749.49	4.82668
2750.83	4.17671
2752.17	3.73101
2753.51	3.20558
2754.84	3.1099
2756.18	2.77171
2757.52	2.47123
2758.85	2.86723
2760.19	2.05513
2761.53	1.40765
2762.86	1.49846
2764.2	1.45132
2765.53	0.861464
2766.87	1.09077
2768.2	1.32755
2769.54	0.364723
2770.87	-0.0186282
2772.2	-0.343537
2773.54	-0.506233
2774.87	-0.118407
2776.2	0.21723
2777.54	0.359082
2778.87	0.196001
2780.2	-0.170146
2781.53	0.0288316
2782.87	0.123184
2784.2	-0.122754
2785.53	0.124741
2786.86	0.188052
2788.19	-0.0266463
2789.52	-0.43598
2790.85	-0.686786
2792.18	-0.981049
2793.51	-0.980929
2794.84	-0.317038
2796.17	-0.897488
2797.5	-0.551245
2798.83	-1.04605
2800.16	-1.86213
2801.49	-1.74276
2802.82	-1.67735
2804.15	-1.89054
2805.47	-2.1368
2806.8	-2.84666
2808.13	-2.69229
2809.46	-2.88427
2810.78	-3.37173
2812.11	-3.06198
2813.44	-3.05986
2814.76	-3.23448
2816.09	-3.10451
2817.42	-3.19427
2818.74	-2.57013
2820.07	-2.50915
2821.39	-1.37067
2822.72	-0.313208
2824.04	1.06073
2825.37	3.09489
2826.69	4.84708
2828.02	7.05087
2829.34	8.73992
2830.66	10.6636
2831.99	12.205
2833.31	15.0158
2834.63	17.41
2835.96	19.6546
2837.28	22.1087
2838.6	24.5991
2839.92	27.901
2841.24	31.2464
2842.57	34.7036
2843.89	38.283
2845.21	41.9657
2846.53	46.5197
2847.85	51.3148
2849.17	55.7076
2850.49	61.0395
2851.81	66.2243
2853.13	71.1915
2854.45	75.7541
2855.77	80.5574
2857.09	85.4265
2858.41	90.8095
2859.72	95.4415
2861.04	99.6234
2862.36	103.157
2863.68	107.394
2865	111.068
2866.31	114.995
2867.63	118.567
2868.95	121.654
2870.26	124.353
2871.58	127.37
2872.9	129.75
2874.21	132.6
2875.53	134.986
2876.84	137.206
2878.16	139.709
2879.47	142.06
2880.79	144.5
2882.1	147.52
2883.42	150.195
2884.73	153.042
2886.05	155.47
2887.36	157.626
2888.67	159.816
2889.99	161.893
2891.3	164.622
2892.61	166.773
2893.92	168.854
2895.24	170.907
2896.55	174.149
2897.86	177.868
2899.17	181.549
2900.48	185.121
2901.79	188.997
2903.11	193.895
2904.42	199.543
2905.73	205.242
2907.04	211.427
2908.35	218.297
2909.66	224.756
2910.97	231.593
2912.27	238.458
2913.58	245.065
2914.89	251.96
2916.2	258.775
2917.51	263.984
2918.82	269.455
2920.13	274.812
2921.43	280.175
2922.74	284.667
2924.05	288.111
2925.35	291.537
2926.66	294.717
2927.97	296.537
2929.27	298.282
2930.58	299.541
2931.89	300.21
2933.19	300.149
2934.5	300.491
2935.8	300.143
2937.11	299.246
2938.41	297.325
2939.72	295.114
2941.02	292.835
2942.32	290.006
2943.63	286.906
2944.93	283.007
2946.24	279.196
2947.54	274.449
2948.84	268.848
2950.14	263.181
2951.45	256.532
2952.75	250.388
2954.05	244.91
2955.35	239.114
2956.65	233.397
2957.95	227.243
2959.26	221.49
2960.56	215.637
2961.86	210.551
2963.16	204.714
2964.46	198.698
2965.76	193.184
2967.06	188.22
2968.36	183.616
2969.66	178.937
2970.96	173.738
2972.25	168.915
2973.55	164.192
2974.85	159.112
2976.15	154.044
2977.45	148.722
2978.74	143.56
2980.04	138.152
2981.34	132.068
2982.64	126.542
2983.93	121.953
2985.23	116.96
2986.52	111.436
2987.82	106.135
2989.12	100.918
2990.41	96.3129
2991.71	90.8661
2993	86.0235
2994.3	81.7331
2995.59	77.9697
2996.89	73.7946
2998.18	69.8024
2999.48	65.8164
3000.77	61.3944
3002.06	57.2781
3003.36	53.6183
3004.65	50.1113
3005.94	47.1882
3007.23	44.1837
3008.53	40.9534
3009.82	38.2242
3011.11	35.611
3012.4	32.377
3013.69	29.8944
3014.99	28.0713
3016.28	25.6824
3017.57	24.9015
3018.86	23.4785
3020.15	22.1396
3021.44	20.9356
3022.73	19.5128
3024.02	18.8301
3025.31	17.6789
3026.6	17.2642
3027.89	16.144
3029.18	16.0501
3030.46	15.7353
3031.75	15.5116
3033.04	15.9095
3034.33	15.841
3035.62	15.6305
3036.9	16.1503
3038.19	16.8181
3039.48	16.9237
3040.76	17.4542
3042.05	17.916
3043.34	18.2615
3044.62	19.0053
3045.91	19.4875
3047.19	20.6208
3048.48	21.6011
3049.77	21.762
3051.05	21.6203
3052.34	22.3326
3053.62	22.3323
3054.9	22.7237
3056.19	23.1296
3057.47	23.3234
3058.76	23.352
3060.04	23.0942
3061.32	22.6163
3062.61	22.3053
3063.89	21.7915
3065.17	20.9348
3066.45	20.6631
3067.74	19.9843
3069.02	19.2917
3070.3	18.3393
3071.58	17.4024
3072.86	16.4112
3074.14	15.8714
3075.42	14.9069
3076.7	14.3764
3077.99	13.2784
3079.26	12.4446
3080.54	11.0325
3081.82	10.5246
3083.1	9.15783
3084.38	8.176
3085.66	6.53815
3086.94	4.97462
3088.22	4.40238
3089.5	3.76323
3090.78	2.65698
3092.05	1.85214
3093.33	1.36351
3094.61	0.815458
3095.89	0.401839
3097.16	0.632624
3098.44	0.900521
3099.72	0.509353
3100.99	0.940314
3102.27	0.823614
3103.54	0.263815
3104.82	0.26013
3106.1	-0.151239
3107.37	-0.18671
3108.65	0.166697
3109.92	0.439598
3111.2	0.752675
3112.47	0.761307
3113.74	1.05155
3115.02	1.41814
3116.29	2.04969
3117.56	1.9799
3118.84	2.52013
3120.11	2.80786
3121.38	2.86288
3122.66	3.28001
3123.93	3.41919
3125.2	4.02391
3126.47	4.38638
3127.74	4.64246
3129.01	5.07494
3130.29	5.81444
3131.56	6.17919
3132.83	6.63774
3134.1	7.11436
3135.37	7.88743
3136.64	8.55291
3137.91	8.90251
3139.18	9.14382
3140.45	9.47736
3141.72	9.40906
3142.99	9.78184
3144.26	9.95977
3145.52	10.0648
3146.79	10.5697
3148.06	11.3473
3149.33	12.7732
