#Acq. time (s)=	45
#Accumulations=	2
#Range (cm-¹)=	200...3150
#Windows=	2
#Auto scanning=	Off
#Autofocus=	Off
#Macrospot=	Off
#AutoExposure=	Off
#Spike filter=	Multiple accum.
#Delay time (s)=	0
#Binning=	1
#Readout mode=	Signal
#DeNoise=	Off
#ICS correction=	On
#Dark correction=	Off
#Inst. Process=	Off
#Detector Gain=	Best Dynamic Range
#Detector ADC=	20 kHz       
#Detector temperature (°C)=	-69.85
#Instrument=	LabRAM HR Evol
#Detector=	Synapse
#Objective=	x100
#Grating=	600 gr/mm
#ND Filter=	100%
#Laser (nm)=	532 
#Hole=	100.021
#Range=	Auto
#Laser Pol.=	No
#Raman. Pol.=	No
#Laser Pol. (°)=	-0.0007625
#Raman Pol. (°)=	89.9995
#Collection=	Microscope
#StageXY=	Marzhauser
#StageZ=	Marzhauser
#X (µm)=	-5141.5
#Y (µm)=	1475.7
#Z (µm)=	63.25
#Full time(mm:ss)=	3:18
#Project=	
#Sample=	
#Site=	
#Title=	Thy_50_12_17_2x_45s_532 nm_x100_100%_600 gr_mm
#Remark=	
#Date=	07.07.2022 10:29
#Acquired=	07.07.2022 10:29:16
#Base:Fit=	10.08.2022 10:04:29
#Base:Sub=	10.08.2022 10:04:45
#Filter:Polynom=	16.08.2022 10:20:24
#AxisType[0]=Intens
#AxisUnit[0]=Cnt
#AxisType[1]=Spectr
#AxisUnit[1]=1/cm
200.43	4.15608
202.246	5.56795
204.061	5.15387
205.875	5.26643
207.688	4.54382
209.501	4.10543
211.316	3.86342
213.129	3.77578
214.941	2.87976
216.753	3.1463
218.566	3.36305
220.377	3.64706
222.188	4.09615
223.999	4.2764
225.809	4.82672
227.618	4.15624
229.43	3.4702
231.239	3.80523
233.047	3.4032
234.855	3.63611
236.663	4.01389
238.471	4.70855
240.278	4.66368
242.087	5.39009
243.894	6.44958
245.7	6.82501
247.506	6.62644
249.311	6.71378
251.116	6.75329
252.921	7.80772
254.725	7.52679
256.529	6.63201
258.333	5.52981
260.136	7.03068
261.939	6.92797
263.744	6.94754
265.546	7.28833
267.348	7.60147
269.15	7.2523
270.951	7.09562
272.752	6.89054
274.552	7.03452
276.353	6.87008
278.152	6.87288
279.952	7.4809
281.751	7.93737
283.55	7.60182
285.348	8.05829
287.146	8.00086
288.942	7.39506
290.739	8.16183
292.536	7.55271
294.333	8.04912
296.129	8.62657
297.925	10.3938
299.721	11.0905
301.516	11.9844
303.311	13.0441
305.106	13.498
306.9	15.3592
308.694	15.5153
310.486	15.8224
312.279	16.0026
314.072	16.0718
315.864	16.2261
317.656	16.2355
319.448	16.7536
321.24	17.9104
323.029	17.8101
324.819	17.9924
326.61	17.9587
328.4	18.7941
330.19	18.957
331.977	20.1952
333.766	20.2763
335.555	19.7219
337.343	20.2996
339.131	21.2984
340.917	20.8333
342.704	20.432
344.491	20.3664
346.277	20.1543
348.062	20.1263
349.848	19.0913
351.633	18.7304
353.416	18.6778
355.201	19.7029
356.986	20.1439
358.77	20.9828
360.552	20.9456
362.335	20.9353
364.118	20.7215
365.899	20.162
367.682	20.3054
369.464	19.9926
371.243	19.3812
373.025	18.6837
374.806	18.9235
376.585	18.3377
378.365	17.0319
380.143	15.8499
381.923	14.6467
383.702	15.3125
385.479	16.9493
387.258	18.6174
389.034	20.027
390.812	21.3118
392.59	21.2827
394.365	21.0357
396.142	21.5398
397.916	21.1594
399.693	21.2757
401.467	21.5429
403.242	21.5358
405.015	21.8579
406.79	21.8501
408.565	21.7183
410.337	21.5368
412.111	20.487
413.882	21.3404
415.656	22.6313
417.426	23.5826
419.197	23.6385
420.969	24.3393
422.739	24.1414
424.51	24.4326
426.279	24.6384
428.05	23.5959
429.819	22.5244
431.589	21.519
433.356	20.5264
435.124	19.9164
436.893	19.3523
438.66	19.7067
440.428	20.5139
442.194	19.6111
443.96	19.098
445.727	18.5799
447.492	18.1353
449.259	16.5504
451.023	15.6628
452.787	14.3157
454.553	12.3639
456.316	11.3849
458.079	10.3178
459.844	9.6179
461.606	8.54702
463.368	8.50032
465.132	7.38293
466.893	7.29416
468.654	8.62362
470.415	11.1321
472.177	13.6327
473.937	14.8428
475.696	15.7627
477.456	16.2913
479.217	16.0609
480.975	16.6616
482.733	16.9364
484.491	17.1665
486.251	18.3056
488.008	19.0226
489.765	19.777
491.522	21.0825
493.278	21.8512
495.036	22.0517
496.791	21.8232
498.546	21.9962
500.301	23.0395
502.056	24.2157
503.81	23.6661
505.566	23.6705
507.319	23.9527
509.073	24.0913
510.825	23.4903
512.578	22.8981
514.33	22.2959
516.082	22.6562
517.833	22.4119
519.587	21.8067
521.337	21.4249
523.088	21.6513
524.838	21.0147
526.588	20.7182
528.337	19.5077
530.087	18.5221
531.835	17.5407
533.584	16.7049
535.332	14.7567
537.08	13.2174
538.827	12.0172
540.574	11.0637
542.321	10.9828
544.068	10.2744
545.814	9.63908
547.56	9.4645
549.305	9.34966
551.05	9.39248
552.795	9.01131
554.54	9.29004
556.284	9.73436
558.027	8.98582
559.771	8.18004
561.514	7.27486
563.257	7.87528
564.999	7.78431
566.742	6.46513
568.481	6.29181
570.223	5.86509
571.964	6.0853
573.705	6.87305
575.445	6.70434
577.185	5.3616
578.925	5.36244
580.665	4.22721
582.402	3.69776
584.141	3.59142
585.879	4.33646
587.617	4.29771
589.355	3.73683
591.092	3.69713
592.828	4.52006
594.564	4.04651
596.301	3.20444
598.037	2.79056
599.773	2.98354
601.506	4.1155
603.242	3.75
604.976	2.706
606.711	2.54249
608.443	2.17793
610.177	1.96215
611.91	1.65141
613.644	1.21326
615.374	0.572216
617.107	-0.0399616
618.839	-0.335996
620.569	0.305829
622.3	0.371468
624.032	0.718478
625.761	0.661466
627.491	0.795129
629.221	1.29204
630.949	1.2026
632.679	2.61795
634.408	3.75554
636.135	4.83238
637.863	5.35997
639.592	6.32232
641.318	7.17228
643.045	7.4918
644.77	8.1848
646.497	9.20791
648.224	10.3211
649.948	10.7583
651.674	11.5501
653.398	11.8225
655.123	13.0069
656.846	13.9839
658.57	14.2953
660.293	13.6637
662.017	13.9252
663.738	13.9327
665.462	15.6307
667.185	16.6858
668.905	17.1567
670.628	17.9858
672.348	18.3987
674.067	19.7628
675.789	20.8782
677.508	21.5068
679.228	22.2452
680.947	21.6828
682.667	22.9175
684.385	23.9771
686.104	24.9906
687.821	25.7655
689.538	25.7162
691.256	27.0861
692.972	26.6407
694.69	26.6507
696.406	27.7442
698.121	28.246
699.837	29.0837
701.552	29.2152
703.268	30.151
704.982	31.5534
706.695	31.6803
708.41	32.6308
710.123	32.2627
711.836	32.1102
713.55	32.7593
715.262	33.8705
716.973	34.9363
718.685	36.5601
720.398	36.9668
722.108	37.2838
723.818	37.6664
725.53	37.5954
727.24	37.1165
728.949	37.7769
730.658	37.9921
732.369	38.2342
734.077	38.6259
735.785	38.7847
737.493	39.1069
739.2	37.9427
740.909	37.6381
742.616	38.44
744.322	38.5975
746.028	39.1289
747.734	40.9887
749.441	41.4477
751.146	41.2278
752.851	41.6583
754.555	42.4027
756.26	44.1623
757.963	45.3917
759.667	46.3989
761.372	47.2561
763.075	48.343
764.777	49.1662
766.479	49.3492
768.181	50.9673
769.883	51.9252
771.584	52.7831
773.285	53.7186
774.986	54.441
776.686	54.6206
778.386	55.6302
780.085	56.8123
781.785	57.7824
783.484	57.2547
785.182	59.1398
786.881	59.8408
788.579	61.594
790.276	62.0432
791.974	62.9255
793.671	64.2144
795.367	64.7558
797.064	65.6472
798.76	67.0975
800.456	68.8176
802.151	70.0676
803.846	70.2466
805.541	69.4258
807.236	69.9612
808.93	68.9471
810.624	68.3494
812.317	68.1549
814.01	68.6444
815.703	68.3787
817.394	68.9076
819.086	69.1446
820.778	69.273
822.47	67.6531
824.161	66.746
825.852	66.9436
827.543	66.8904
829.231	65.6897
830.921	63.4344
832.611	61.4547
834.3	60.0687
835.989	58.792
837.676	58.9304
839.364	57.9912
841.053	56.8143
842.74	55.0047
844.426	53.0753
846.113	51.9929
847.8	49.6932
849.486	47.715
851.171	46.0761
852.857	45.3775
854.542	44.9009
856.227	43.5212
857.911	42.1634
859.595	41.3625
861.279	41.0748
862.961	39.9711
864.645	37.7926
866.329	38.5074
868.01	39.1424
869.692	38.246
871.375	38.1225
873.055	38.2448
874.737	38.6555
876.418	39.3941
878.097	39.4784
879.778	39.0055
881.457	37.4613
883.137	38.0107
884.817	38.5641
886.495	38.6314
888.174	38.4014
889.851	38.9691
891.53	39.4199
893.206	38.9576
894.884	40.1541
896.562	40.8375
898.237	41.914
899.914	41.8986
901.589	42.1776
903.265	41.587
904.94	40.8674
906.615	39.2416
908.289	38.353
909.964	37.7994
911.637	36.9803
913.31	35.9242
914.984	34.2208
916.656	33.7854
918.33	33.4176
920.001	32.2057
921.674	31.4848
923.345	30.2312
925.015	28.9578
926.687	27.4919
928.357	26.5294
930.028	25.7581
931.698	24.7015
933.366	24.1005
935.037	23.1195
936.705	22.8551
938.373	22.5947
940.043	22.0234
941.71	20.4452
943.379	19.7752
945.046	17.7203
946.712	16.5893
948.378	16.8313
950.046	17.9726
951.711	17.7142
953.376	16.5514
955.043	18.5484
956.708	17.7398
958.372	17.6014
960.036	17.0757
961.701	17.1775
963.364	16.7441
965.027	17.3161
966.69	18.8739
968.354	19.6823
970.016	20.0062
971.678	20.117
973.339	20.5827
975	20.6863
976.661	21.2306
978.324	21.7516
979.984	21.8808
981.644	21.8561
983.303	21.7525
984.962	21.3321
986.621	21.0786
988.282	21.3492
989.94	20.3835
991.598	20.5718
993.256	21.0367
994.913	19.271
996.57	19.2984
998.227	19.0291
999.884	18.94
1001.54	19.1069
1003.2	19.1465
1004.85	19.3162
1006.51	19.1162
1008.16	18.8839
1009.82	19.8057
1011.47	20.0609
1013.12	19.4093
1014.78	19.5319
1016.43	20.0843
1018.08	19.9473
1019.74	20.0351
1021.39	20.5351
1023.04	20.3082
1024.69	19.6494
1026.34	20.5252
1028	21.0175
1029.65	22.7261
1031.3	22.3182
1032.95	22.8755
1034.6	22.5596
1036.25	21.9363
1037.9	21.7786
1039.55	20.6464
1041.19	21.0694
1042.84	21.2045
1044.49	21.1906
1046.14	20.6769
1047.79	20.9664
1049.43	21.0661
1051.08	20.908
1052.73	20.8825
1054.37	20.404
1056.02	20.889
1057.66	20.5686
1059.31	20.3451
1060.95	18.8131
1062.6	17.6791
1064.24	17.6302
1065.88	16.7943
1067.53	15.9714
1069.17	16.3322
1070.81	14.8566
1072.46	14.1399
1074.1	14.3605
1075.74	13.3187
1077.38	12.7868
1079.02	13.9616
1080.66	13.6608
1082.3	13.9159
1083.94	14.8056
1085.58	15.1825
1087.22	15.0652
1088.86	14.4753
1090.5	15.3093
1092.14	15.7422
1093.78	15.7203
1095.42	15.7319
1097.05	16.476
1098.69	16.2932
1100.33	15.5006
1101.97	15.435
1103.6	15.6152
1105.24	15.3652
1106.87	15.5603
1108.51	15.3967
1110.15	14.2021
1111.78	14.0474
1113.41	13.2295
1115.05	13.7477
1116.68	13.5064
1118.31	13.5038
1119.95	12.4917
1121.58	12.9217
1123.21	12.5772
1124.85	11.5175
1126.48	10.7914
1128.11	11.0637
1129.74	10.5184
1131.37	10.3696
1133	10.0011
1134.63	8.79394
1136.26	7.45165
1137.89	6.8236
1139.52	5.57626
1141.15	4.86987
1142.78	3.84114
1144.41	4.54636
1146.04	3.6746
1147.66	3.05826
1149.29	2.64652
1150.92	2.85474
1152.55	1.4936
1154.17	2.27987
1155.8	1.74072
1157.43	1.28154
1159.05	1.29602
1160.68	1.68767
1162.3	2.49923
1163.93	3.40961
1165.55	3.48613
1167.17	3.19314
1168.8	2.97452
1170.42	2.92386
1172.05	4.47588
1173.67	4.32856
1175.29	3.92077
1176.91	4.30991
1178.54	4.65467
1180.16	4.66198
1181.78	5.80979
1183.4	6.0286
1185.02	7.01584
1186.64	7.8376
1188.26	8.26601
1189.88	8.24228
1191.5	8.01764
1193.12	8.9617
1194.74	9.27607
1196.36	10.6616
1197.97	11.9587
1199.59	12.6051
1201.21	13.4919
1202.83	15.1319
1204.44	15.8477
1206.06	17.4066
1207.68	18.6937
1209.29	20.3611
1210.91	20.7187
1212.52	21.0968
1214.14	21.6481
1215.75	21.6498
1217.37	23.1501
1218.98	25.2787
1220.6	27.7817
1222.21	29.8231
1223.82	31.6538
1225.44	33.5958
1227.05	34.9531
1228.66	37.3626
1230.27	37.8627
1231.88	39.2519
1233.49	40.444
1235.1	41.7908
1236.72	42.4187
1238.33	43.5392
1239.94	44.3022
1241.55	46.0936
1243.16	47.3147
1244.76	47.9538
1246.37	48.3551
1247.98	49.1373
1249.59	50.2253
1251.2	50.6538
1252.8	52.6227
1254.41	52.5819
1256.02	52.9596
1257.63	54.558
1259.23	55.2775
1260.84	55.9598
1262.44	56.9939
1264.05	57.1955
1265.66	58.6807
1267.26	59.424
1268.87	60.2113
1270.47	61.6114
1272.07	63.4554
1273.68	64.696
1275.28	66.8249
1276.88	68.7284
1278.48	70.0268
1280.09	70.7238
1281.69	72.3131
1283.29	73.1009
1284.89	73.7168
1286.49	73.7062
1288.09	74.2103
1289.69	75.1074
1291.3	75.5658
1292.9	76.2242
1294.49	77.6117
1296.09	78.7689
1297.69	80.5056
1299.29	81.7961
1300.89	81.9659
1302.49	81.8211
1304.09	81.3363
1305.68	80.9966
1307.28	81.8113
1308.88	80.5888
1310.47	80.4271
1312.07	80.9746
1313.66	80.7874
1315.26	79.2934
1316.86	78.4226
1318.45	78.072
1320.05	77.6387
1321.64	77.2018
1323.23	76.0412
1324.83	74.5082
1326.42	73.6358
1328.01	72.5486
1329.61	71.6345
1331.2	70.0653
1332.79	69.3263
1334.38	67.2977
1335.98	66.8435
1337.57	67.0685
1339.16	66.4642
1340.75	65.3488
1342.34	64.4618
1343.93	63.3231
1345.52	61.7665
1347.11	61.1286
1348.7	60.6148
1350.29	60.1877
1351.87	59.3176
1353.46	57.7217
1355.05	56.9789
1356.64	55.9144
1358.23	54.3733
1359.81	53.1252
1361.4	51.9278
1362.99	51.1073
1364.57	49.5839
1366.16	48.5992
1367.74	48.9346
1369.33	48.2929
1370.91	47.955
1372.5	47.1627
1374.08	47.3172
1375.67	47.0577
1377.25	46.9498
1378.83	47.0305
1380.42	46.9832
1382	47.1463
1383.58	47.3356
1385.16	47.7734
1386.75	48.2748
1388.33	47.7198
1389.91	47.8102
1391.49	46.4136
1393.07	45.8925
1394.65	45.6919
1396.23	44.5278
1397.81	43.8995
1399.39	44.3523
1400.97	44.6295
1402.55	44.3313
1404.13	44.9202
1405.7	45.653
1407.28	46.0532
1408.86	46.7762
1410.44	46.8763
1412.01	47.6857
1413.59	49.2127
1415.17	50.762
1416.74	51.6329
1418.32	52.2783
1419.89	53.2914
1421.47	54.6666
1423.05	56.3932
1424.62	57.959
1426.19	60.8567
1427.77	62.4884
1429.34	64.4281
1430.92	66.3717
1432.49	67.749
1434.06	69.2315
1435.63	70.7166
1437.2	72.1016
1438.78	73.7328
1440.35	74.51
1441.92	77.4755
1443.49	78.6886
1445.06	80.2153
1446.63	81.6244
1448.2	81.6796
1449.77	81.8725
1451.34	81.8248
1452.91	82.6491
1454.48	81.8968
1456.05	81.8561
1457.62	80.7653
1459.18	79.7855
1460.75	77.4395
1462.32	75.9362
1463.89	73.5871
1465.45	72.1277
1467.02	69.0709
1468.59	65.3776
1470.15	62.7488
1471.72	60.7817
1473.28	57.9765
1474.85	54.62
1476.41	52.6451
1477.98	51.0779
1479.54	47.3902
1481.11	44.7665
1482.67	43.3576
1484.23	40.7792
1485.8	38.5623
1487.36	36.7419
1488.92	35.3656
1490.48	34.268
1492.05	32.8668
1493.61	31.5982
1495.17	30.2165
1496.73	29.1715
1498.29	28.347
1499.85	27.466
1501.41	27.3861
1502.97	26.971
1504.53	27.6523
1506.09	27.4976
1507.65	27.7535
1509.2	28.32
1510.76	27.7959
1512.32	27.9084
1513.88	28.6345
1515.44	30.445
1516.99	30.8
1518.55	31.7804
1520.1	33.0155
1521.66	32.4894
1523.22	32.6374
1524.77	33.532
1526.33	34.3118
1527.88	35.6662
1529.44	36.9382
1530.99	38.6392
1532.55	40.3399
1534.1	42.394
1535.65	43.9451
1537.21	45.52
1538.76	46.415
1540.31	48.7785
1541.86	50.2846
1543.42	51.5504
1544.97	52.88
1546.52	54.7624
1548.07	57.7422
1549.62	60.0749
1551.17	61.9859
1552.72	63.9691
1554.27	65.2888
1555.82	67.4129
1557.37	69.1012
1558.92	71.9011
1560.47	73.9089
1562.02	75.0852
1563.57	77.0071
1565.11	79.33
1566.66	81.212
1568.21	81.5683
1569.75	82.6277
1571.3	84.1501
1572.85	85.4842
1574.39	86.6567
1575.94	87.3436
1577.49	88.4256
1579.03	90.1339
1580.58	91.1246
1582.12	91.7585
1583.67	91.3395
1585.21	91.0687
1586.75	90.7674
1588.3	89.4666
1589.84	88.9893
1591.38	89.0338
1592.93	87.7143
1594.47	86.7877
1596.01	86.1586
1597.55	85.1686
1599.09	85.1038
1600.63	84.0583
1602.18	83.9613
1603.72	83.1949
1605.26	82.1604
1606.8	80.7734
1608.34	80.0121
1609.87	80.0427
1611.41	78.468
1612.95	78.2852
1614.49	77.717
1616.03	77.3799
1617.57	77.8058
1619.11	77.3099
1620.64	77.6988
1622.18	78.4396
1623.72	78.5811
1625.25	79.9491
1626.79	80.4949
1628.32	80.3187
1629.86	81.0405
1631.4	81.8791
1632.93	83.325
1634.47	83.8459
1636	85.3088
1637.53	86.1146
1639.07	86.646
1640.6	88.1906
1642.14	89.2342
1643.67	89.3173
1645.2	88.7885
1646.73	89.951
1648.27	90.6524
1649.8	91.2436
1651.33	90.693
1652.86	90.7351
1654.39	91.6581
1655.92	91.5755
1657.45	90.6125
1658.98	89.0481
1660.51	87.3241
1662.04	86.1523
1663.57	84.531
1665.1	82.4493
1666.63	80.4879
1668.16	78.7635
1669.69	76.5691
1671.21	75.3495
1672.74	72.8361
1674.27	70.202
1675.79	67.2136
1677.32	64.1667
1678.85	61.5309
1680.37	58.6793
1681.9	55.3645
1683.42	52.6847
1684.95	50.2964
1686.47	48.2502
1688	44.8891
1689.52	43.0457
1691.05	39.6832
1692.57	37.3633
1694.1	34.6098
1695.62	31.8574
1697.14	30.022
1698.66	27.9243
1700.19	26.5754
1701.71	24.2725
1703.23	21.821
1704.75	19.4394
1706.27	18.8231
1707.79	17.0881
1709.32	16.0874
1710.83	14.3587
1712.35	13.1084
1713.88	11.6544
1715.39	10.7763
1716.91	10.8665
1718.43	9.28457
1719.95	8.5072
1721.47	8.05542
1722.99	8.64911
1724.5	8.73952
1726.02	8.85806
1727.54	9.04461
1729.06	9.42471
1730.57	9.65708
1732.09	9.2115
1733.61	9.13627
1735.12	8.96283
1736.64	9.24449
1738.15	9.66598
1739.67	9.84812
1741.18	9.1012
1742.7	9.20748
1744.21	9.76109
1745.72	10.6239
1747.24	11.0993
1748.75	11.1204
1750.26	11.3017
1751.78	11.0696
1753.29	11.8562
1754.8	11.7564
1756.31	11.9497
1757.82	11.1118
1759.34	11.0451
1760.85	10.7113
1762.36	10.8656
1763.87	10.1719
1765.38	10.1637
1766.89	9.66741
1768.4	10.0644
1769.91	9.63345
1771.41	9.40436
1772.92	9.60265
1774.43	8.94274
1775.94	7.94461
1777.45	7.5508
1778.96	7.25823
1780.46	7.02239
1781.97	6.73922
1783.48	5.88173
1784.98	5.60998
1786.49	4.69298
1788	4.35212
1789.5	4.7719
1791.01	4.88321
1792.51	4.52678
1794.01	3.89928
1795.52	4.451
1797.02	4.08624
1798.53	4.33263
1800.03	3.95807
1801.54	3.55912
1803.04	3.35277
1804.54	3.24654
1806.04	2.42666
1807.54	1.8529
1809.05	1.76878
1810.55	1.53846
1812.05	1.10647
1813.55	0.777244
1815.05	0.334644
1816.55	0.00330592
1818.05	0.707991
1819.55	0.910839
1821.05	1.22612
1822.55	0.833525
1824.05	0.891208
1825.55	0.936223
1827.05	1.19099
1828.55	1.68822
1830.04	1.58654
1831.54	1.63797
1833.04	1.48386
1834.54	1.6347
1836.03	1.62412
1837.53	1.87947
1839.03	2.19512
1840.52	2.77563
1842.02	3.02396
1843.51	3.07935
1845.01	2.76037
1846.5	2.69148
1848	3.10677
1849.49	2.74054
1850.99	3.15968
1852.48	3.0889
1853.97	3.01213
1855.47	3.46879
1856.96	3.17874
1858.45	3.23022
1859.94	2.89552
1861.44	2.84929
1862.93	2.80135
1864.42	2.96354
1865.91	2.30886
1867.4	1.94365
1868.89	2.53941
1870.38	2.10547
1871.87	1.74334
1873.36	1.86103
1874.85	1.06914
1876.34	0.736855
1877.83	0.555368
1879.32	0.874497
1880.81	0.582902
1882.3	1.20661
1882.56	1.37487
1884.06	1.45917
1885.55	1.87486
1887.04	2.92558
1888.54	3.29085
1890.03	3.54968
1891.52	3.46248
1893.02	3.46103
1894.51	3.80239
1896	3.76564
1897.49	4.21963
1898.99	4.56778
1900.48	5.04088
1901.97	5.1323
1903.46	4.5966
1904.95	5.09378
1906.44	5.05658
1907.93	5.78858
1909.42	6.55871
1910.91	7.02637
1912.4	7.11067
1913.89	6.8717
1915.38	6.67274
1916.86	6.5753
1918.35	6.38402
1919.84	6.8123
1921.33	6.84113
1922.82	6.55565
1924.3	6.30856
1925.79	5.71538
1927.28	6.21069
1928.76	5.25926
1930.25	4.15565
1931.74	3.95057
1933.22	3.85153
1934.71	4.05951
1936.19	3.80938
1937.67	3.70879
1939.16	3.1358
1940.64	3.11964
1942.13	3.01528
1943.61	2.13335
1945.09	2.25065
1946.58	2.27489
1948.06	1.63545
1949.54	2.11961
1951.03	2.57165
1952.51	3.05817
1953.99	2.9401
1955.47	3.34941
1956.95	3.25214
1958.43	3.22539
1959.91	3.3828
1961.39	3.67885
1962.87	3.33528
1964.35	3.16747
1965.83	3.67359
1967.31	3.63523
1968.79	4.03068
1970.27	4.304
1971.75	5.12806
1973.22	5.47799
1974.7	5.40568
1976.18	5.53015
1977.66	5.46949
1979.13	6.17714
1980.61	5.87726
1982.09	5.93564
1983.56	5.97753
1985.04	4.95849
1986.52	5.31233
1987.99	5.33448
1989.47	5.3277
1990.94	5.65182
1992.41	5.56472
1993.89	5.60498
1995.36	5.32762
1996.84	5.17268
1998.31	5.22397
1999.78	5.23129
2001.26	5.56145
2002.73	5.32856
2004.2	5.37124
2005.67	5.63136
2007.15	5.75341
2008.62	4.56911
2010.09	4.33869
2011.56	4.42692
2013.03	3.61169
2014.5	3.42893
2015.97	3.05663
2017.44	2.74388
2018.91	2.15156
2020.38	1.84805
2021.85	1.11744
2023.32	1.49949
2024.79	1.40204
2026.25	1.26938
2027.72	1.1627
2029.19	1.54561
2030.66	1.09113
2032.13	1.20536
2033.59	1.38469
2035.06	1.50273
2036.53	1.48691
2037.99	1.26232
2039.46	1.66626
2040.92	2.02526
2042.39	2.79095
2043.85	2.86578
2045.32	2.76831
2046.78	2.9636
2048.25	3.35024
2049.71	3.71509
2051.18	4.01481
2052.64	4.63059
2054.1	5.36586
2055.56	5.41015
2057.03	5.9356
2058.49	6.48641
2059.95	7.77585
2061.42	8.37344
2062.88	9.35436
2064.34	10.3492
2065.8	11.0373
2067.26	13.0109
2068.72	13.6685
2070.18	14.4268
2071.64	15.4768
2073.1	16.6273
2074.56	17.682
2076.02	18.3456
2077.48	18.9698
2078.94	19.7035
2080.39	21.0262
2081.85	21.9657
2083.31	23.8751
2084.77	24.8242
2086.22	25.0278
2087.68	25.5229
2089.14	26.3236
2090.6	26.8118
2092.05	27.7862
2093.51	29.0548
2094.96	29.8163
2096.42	31.6183
2097.87	32.7805
2099.33	33.9282
2100.78	34.9332
2102.24	36.3451
2103.69	36.5988
2105.15	37.9594
2106.6	38.6601
2108.05	40.719
2109.51	42.1301
2110.96	43.1612
2112.41	45.4492
2113.86	46.9964
2115.32	48.0492
2116.77	49.6515
2118.22	51.1875
2119.67	53.2567
2121.12	54.7093
2122.57	55.9696
2124.02	58.0238
2125.47	59.8482
2126.92	61.2583
2128.37	62.9082
2129.82	65.2181
2131.27	67.9414
2132.72	69.7992
2134.17	72.1
2135.62	73.6185
2137.06	75.8154
2138.51	78.2307
2139.96	80.4068
2141.41	81.6782
2142.85	84.2803
2144.3	86.3298
2145.75	87.7268
2147.19	90.0379
2148.64	92.1974
2150.09	93.9195
2151.53	95.9542
2152.97	97.7503
2154.42	98.9554
2155.86	99.974
2157.31	101.004
2158.75	102.185
2160.2	103.244
2161.64	104.789
2163.08	104.967
2164.53	105.513
2165.97	106.025
2167.41	106.359
2168.86	106.764
2170.3	106.572
2171.74	106.779
2173.18	106.084
2174.62	105.79
2176.06	105.267
2177.5	105.127
2178.94	104.489
2180.38	104.241
2181.82	103.454
2183.26	102.205
2184.7	101.389
2186.14	99.8485
2187.58	98.7043
2189.02	97.3381
2190.46	95.5842
2191.89	93.9605
2193.33	92.3264
2194.77	91.1498
2196.21	90.3889
2197.64	88.179
2199.08	86.9102
2200.52	85.1635
2201.95	83.506
2203.39	81.8396
2204.83	79.6237
2206.26	77.6746
2207.7	76.0242
2209.13	74.6413
2210.57	72.6626
2212	70.4847
2213.43	68.5417
2214.87	66.7583
2216.3	64.3601
2217.73	62.882
2219.17	61.4585
2220.6	59.2351
2222.03	57.5521
2223.47	56.3867
2224.9	54.096
2226.33	52.6207
2227.76	50.8734
2229.19	49.0051
2230.62	47.0748
2232.05	44.7754
2233.49	43.0757
2234.91	41.1783
2236.34	39.7296
2237.77	38.383
2239.2	36.1692
2240.63	35.0366
2242.06	33.9382
2243.49	32.3367
2244.92	30.6747
2246.35	29.6507
2247.78	28.8077
2249.2	27.9881
2250.63	27.2962
2252.06	26.5018
2253.48	25.6098
2254.91	24.1218
2256.34	23.7512
2257.76	23.2031
2259.19	22.8443
2260.61	22.1184
2262.04	21.7175
2263.46	21.5839
2264.89	21.5743
2266.31	21.2535
2267.74	20.7283
2269.16	19.9579
2270.59	19.7208
2272.01	19.5787
2273.43	19.7453
2274.85	19.138
2276.28	18.6782
2277.7	18.558
2279.12	18.1528
2280.54	17.6044
2281.97	16.8221
2283.39	17.1991
2284.81	16.7685
2286.23	15.9921
2287.65	15.1734
2289.07	14.8116
2290.49	13.1554
2291.91	11.9308
2293.33	11.5382
2294.75	10.6795
2296.17	9.61357
2297.59	9.59414
2299.01	8.62887
2300.42	8.49557
2301.84	8.63119
2303.26	9.0456
2304.68	9.2888
2306.1	9.13598
2307.51	8.69698
2308.93	8.8633
2310.35	8.55254
2311.76	8.88248
2313.18	8.48253
2314.59	8.40106
2316.01	8.31264
2317.43	8.78866
2318.84	8.96996
2320.26	8.8907
2321.67	8.78588
2323.08	8.40903
2324.5	8.65255
2325.91	8.40392
2327.33	8.08037
2328.74	7.48285
2330.15	7.25245
2331.56	6.82584
2332.98	6.41535
2334.39	6.6327
2335.8	6.15466
2337.21	5.71736
2338.62	5.97269
2340.04	5.41812
2341.45	4.8579
2342.86	4.93061
2344.27	4.32952
2345.68	3.66257
2347.09	3.86474
2348.5	3.47455
2349.91	2.74447
2351.31	2.67476
2352.72	2.4231
2354.13	1.98644
2355.54	0.93339
2356.95	0.285641
2358.36	-0.402719
2359.76	-0.672521
2361.17	-1.35565
2362.58	-0.807153
2363.98	0.239556
2365.39	0.474556
2366.8	0.674599
2368.21	1.32587
2369.61	1.60348
2371.02	2.79022
2372.42	2.71123
2373.83	2.74905
2375.23	2.59239
2376.64	2.69197
2378.04	2.71245
2379.44	2.42185
2380.85	2.33189
2382.25	2.70546
2383.66	2.53255
2385.06	3.2127
2386.46	3.04013
2387.86	3.74418
2389.26	3.50293
2390.67	3.63201
2392.07	3.83678
2393.47	4.07184
2394.87	4.19482
2396.27	3.40996
2397.67	3.21795
2399.07	3.34352
2400.47	3.21769
2401.87	3.58522
2403.27	3.72072
2404.67	4.15784
2406.07	4.31038
2407.47	4.46584
2408.87	4.41128
2410.27	3.96976
2411.67	4.92327
2413.07	6.01545
2414.46	6.63788
2415.86	6.75812
2417.26	6.82582
2418.66	6.94254
2420.05	7.42539
2421.45	8.07701
2422.84	8.4651
2424.24	8.67741
2425.64	9.28886
2427.03	9.12644
2428.43	8.86654
2429.82	9.21488
2431.22	8.50176
2432.61	8.79232
2434.01	8.82976
2435.4	9.00882
2436.79	8.95158
2438.19	8.79414
2439.58	8.56829
2440.97	7.89025
2442.37	7.05544
2443.76	7.27266
2445.15	7.25486
2446.54	7.42608
2447.93	7.01893
2449.33	6.41561
2450.72	6.43716
2452.11	6.49875
2453.5	6.07524
2454.89	6.8233
2456.28	6.55916
2457.67	6.22063
2459.06	6.12494
2460.45	5.85972
2461.84	5.39169
2463.23	5.45169
2464.62	4.27273
2466	3.95138
2467.39	3.78673
2468.78	3.74192
2470.17	3.99444
2471.55	4.11559
2472.94	3.72124
2474.33	3.81051
2475.72	3.96874
2477.1	4.23443
2478.49	4.14677
2479.87	4.22065
2481.26	4.39046
2482.65	3.923
2484.03	3.50699
2485.42	3.36356
2486.8	3.53545
2488.19	3.88671
2489.57	3.92489
2490.95	3.79279
2492.34	3.62517
2493.72	3.3116
2495.1	3.18981
2496.49	2.14747
2497.87	1.34467
2499.25	1.43148
2500.63	1.18628
2502.02	1.56998
2503.4	1.64673
2504.78	1.0461
2506.16	0.996576
2507.54	0.675996
2508.92	0.912388
2510.3	0.141814
2511.68	0.391555
2513.06	0.798627
2514.44	0.951551
2515.82	0.687862
2517.2	0.298298
2518.58	0.45638
2519.96	0.745299
2521.34	1.13217
2522.72	1.11324
2524.1	1.85175
2525.47	1.47913
2526.85	1.19034
2528.23	1.33877
2529.6	1.30375
2530.98	1.60769
2532.36	1.87642
2533.74	1.74177
2535.11	3.009
2536.49	2.77974
2537.86	3.26173
2539.24	3.40866
2540.61	2.65619
2541.99	3.32774
2543.36	4.20577
2544.74	4.21359
2546.11	3.84626
2547.49	3.48045
2548.86	3.09769
2550.23	2.83058
2551.61	3.67057
2552.98	3.49488
2554.35	3.60432
2555.72	3.93417
2557.09	3.75921
2558.47	3.65597
2559.84	3.51463
2561.21	3.83965
2562.58	3.96
2563.95	3.93763
2565.32	3.90701
2566.69	3.96149
2568.06	4.00176
2569.43	3.78303
2570.8	3.79548
2572.17	3.69769
2573.54	3.66897
2574.91	4.10732
2576.28	3.70831
2577.65	3.80466
2579.02	3.78985
2580.39	4.22021
2581.75	4.83198
2583.12	4.86446
2584.49	5.31847
2585.85	5.6019
2587.22	5.88068
2588.59	5.60699
2589.95	5.52782
2591.32	5.509
2592.68	5.33476
2594.05	4.7047
2595.42	4.65976
2596.78	4.65573
2598.15	4.79575
2599.51	4.80694
2600.88	4.89324
2602.24	4.85525
2603.6	4.51457
2604.97	4.01724
2606.33	4.6593
2607.69	3.91811
2609.06	3.9024
2610.42	4.31633
2611.78	3.90642
2613.14	3.39136
2614.51	3.48364
2615.87	3.47297
2617.23	2.94701
2618.59	3.56996
2619.95	3.88109
2621.31	3.3394
2622.67	4.17472
2624.03	3.98379
2625.39	3.78257
2626.75	4.24465
2628.11	4.63618
2629.47	4.71613
2630.83	4.51728
2632.19	4.11729
2633.55	3.88371
2634.91	3.19208
2636.26	3.33468
2637.62	3.6809
2638.98	3.94508
2640.34	4.06036
2641.69	4.11958
2643.05	3.99609
2644.41	3.81415
2645.76	3.75456
2647.12	4.03578
2648.48	4.09632
2649.83	4.12415
2651.19	4.04104
2652.54	4.62456
2653.9	3.84341
2655.25	3.58185
2656.6	2.57334
2657.96	2.20336
2659.31	2.3677
2660.67	2.37365
2662.02	2.67607
2663.37	3.56804
2664.73	3.81626
2666.08	4.37498
2667.43	4.61309
2668.78	5.46288
2670.14	5.30204
2671.49	5.58106
2672.84	6.04139
2674.19	6.0478
2675.54	5.66687
2676.89	6.49896
2678.24	7.00643
2679.59	7.15575
2680.94	7.37123
2682.29	7.50859
2683.64	7.37253
2684.99	7.84799
2686.34	8.31221
2687.69	7.88343
2689.04	8.65683
2690.39	9.21816
2691.74	9.65721
2693.08	10.4451
2694.43	10.9362
2695.78	10.8865
2697.13	10.6141
2698.47	10.5998
2699.82	11.0726
2701.17	11.5961
2702.51	12.0205
2703.86	12.4527
2705.21	12.8382
2706.55	13.0595
2707.9	12.9683
2709.24	13.277
2710.58	13.6651
2711.93	14.439
2713.27	14.59
2714.62	14.8295
2715.96	14.7056
2717.3	14.6854
2718.65	14.9519
2719.99	14.7597
2721.33	14.2353
2722.68	13.9003
2724.02	13.8636
2725.36	14.4486
2726.71	14.449
2728.05	14.39
2729.39	14.5166
2730.73	14.9154
2732.07	14.7882
2733.41	14.5794
2734.75	13.7293
2736.09	13.4322
2737.43	12.9692
2738.77	12.6035
2740.11	11.8953
2741.45	11.4978
2742.79	11.0133
2744.13	10.5582
2745.47	9.8927
2746.81	8.75577
2748.14	8.29197
2749.48	8.13774
2750.82	7.49281
2752.16	6.80897
2753.49	6.06074
2754.83	5.96593
2756.17	6.12717
2757.5	5.92937
2758.84	5.88259
2760.18	5.50545
2761.51	4.91802
2762.85	4.65597
2764.18	4.96167
2765.52	5.15162
2766.85	5.3543
2768.19	5.55865
2769.52	5.63021
2770.86	6.06711
2772.19	6.30676
2773.52	6.02929
2774.86	5.89033
2776.19	5.84354
2777.52	5.69881
2778.86	4.97249
2780.19	4.08936
2781.52	3.64441
2782.85	3.92806
2784.19	3.59462
2785.52	3.61145
2786.85	3.29805
2788.18	4.23806
2789.51	4.08219
2790.84	4.15882
2792.17	4.23218
2793.5	3.75922
2794.83	4.20659
2796.16	4.09239
2797.49	4.11836
2798.82	3.75776
2800.15	3.27299
2801.48	3.07098
2802.81	2.94799
2804.13	2.80137
2805.46	1.99234
2806.79	1.47928
2808.12	1.17312
2809.45	0.526763
2810.77	0.0777254
2812.1	-0.168586
2813.43	-0.542171
2814.75	-0.433486
2816.08	0.24914
2817.41	0.859179
2818.73	1.55305
2820.06	3.22251
2821.38	5.63599
2822.71	7.69528
2824.03	10.3347
2825.36	12.6571
2826.68	15.4529
2828	17.794
2829.33	20.7479
2830.65	23.9687
2831.98	26.3443
2833.3	29.3013
2834.62	32.0309
2835.94	34.7437
2837.27	37.0632
2838.59	39.4
2839.91	41.6548
2841.23	45.0877
2842.55	48.6672
2843.87	52.4915
2845.2	55.7544
2846.52	59.9148
2847.84	64.3293
2849.16	69.0046
2850.48	73.9656
2851.8	78.9661
2853.12	83.4611
2854.44	88.2182
2855.76	91.9802
2857.08	96.2103
2858.39	100.449
2859.71	103.999
2861.03	108.099
2862.35	111.892
2863.67	115.342
2864.98	118.013
2866.3	120.456
2867.62	122.692
2868.94	124.85
2870.25	127.1
2871.57	129.62
2872.88	132.323
2874.2	133.931
2875.52	135.499
2876.83	137.095
2878.15	138.988
2879.46	141.473
2880.78	144.011
2882.09	147.026
2883.41	148.681
2884.72	150.805
2886.03	153.864
2887.35	156.601
2888.66	158.16
2889.97	160.207
2891.29	161.815
2892.6	163.818
2893.91	165.974
2895.22	168.14
2896.54	170.282
2897.85	172.26
2899.16	174.884
2900.47	177.395
2901.78	180.563
2903.09	183.811
2904.4	188.571
2905.71	193.461
2907.02	198.738
2908.33	203.854
2909.64	208.453
2910.95	214.276
2912.26	219.643
2913.57	225.184
2914.88	230.103
2916.19	236.136
2917.5	240.281
2918.81	245.141
2920.11	249.498
2921.42	253.102
2922.73	255.642
2924.04	258.097
2925.34	259.469
2926.65	261.373
2927.96	262.272
2929.26	262.434
2930.57	262.813
2931.87	262.689
2933.18	262.846
2934.49	262.307
2935.79	261.01
2937.1	259.561
2938.4	256.946
2939.7	253.316
2941.01	250.552
2942.31	247.756
2943.62	244.707
2944.92	241.314
2946.22	237.212
2947.53	232.925
2948.83	228.217
2950.13	223.55
2951.43	217.94
2952.74	212.302
2954.04	206.256
2955.34	201.453
2956.64	196.376
2957.94	191.329
2959.24	186.446
2960.54	180.943
2961.84	175.719
2963.15	171.075
2964.45	166.553
2965.75	161.852
2967.05	157.521
2968.34	153.391
2969.64	149.046
2970.94	144.21
2972.24	139.52
2973.54	135.419
2974.84	130.939
2976.14	127.233
2977.43	122.161
2978.73	117.946
2980.03	113.364
2981.33	109.633
2982.62	104.31
2983.92	99.4926
2985.22	94.6474
2986.51	89.2623
2987.81	84.589
2989.11	80.0576
2990.4	75.5749
2991.7	71.9919
2992.99	67.218
2994.29	63.2896
2995.58	59.5315
2996.88	55.6569
2998.17	52.1523
2999.46	48.1701
3000.76	44.5551
3002.05	41.763
3003.34	38.4232
3004.64	35.9509
3005.93	33.7248
3007.22	31.1636
3008.52	28.7603
3009.81	26.6492
3011.1	24.2769
3012.39	22.442
3013.68	20.8144
3014.97	18.7865
3016.27	17.3892
3017.56	16.7306
3018.85	15.7629
3020.14	15.3401
3021.43	14.531
3022.72	13.5756
3024.01	13.053
3025.3	12.0084
3026.59	11.586
3027.88	11.2235
3029.16	10.9006
3030.45	10.5543
3031.74	10.4921
3033.03	10.1749
3034.32	9.82274
3035.6	10.1417
3036.89	10.4785
3038.18	11.4731
3039.47	11.3218
3040.75	11.6969
3042.04	11.6274
3043.33	11.6786
3044.61	12.2771
3045.9	12.9897
3047.18	12.9199
3048.47	13.1715
3049.75	13.5862
3051.04	13.7189
3052.32	14.262
3053.61	14.0998
3054.89	14.2811
3056.18	14.1161
3057.46	13.5432
3058.74	13.9016
3060.03	13.6073
3061.31	13.5524
3062.59	13.2088
3063.88	13.0741
3065.16	12.7741
3066.44	12.7005
3067.72	12.0049
3069	12.135
3070.29	11.8262
3071.57	11.2599
3072.85	10.5772
3074.13	10.061
3075.41	9.39399
3076.69	8.90622
3077.97	8.58264
3079.25	7.50696
3080.53	6.74566
3081.81	6.11945
3083.09	5.16682
3084.37	4.60804
3085.65	4.29081
3086.93	3.56632
3088.21	2.68757
3089.49	1.84463
3090.76	1.43979
3092.04	0.668459
3093.32	0.097453
3094.6	-0.254974
3095.87	-0.908697
3097.15	-1.272
3098.43	-1.35001
3099.7	-1.29556
3100.98	-1.08094
3102.26	-0.82583
3103.53	-1.10461
3104.81	-0.647992
3106.08	-0.240524
3107.36	0.448826
3108.63	0.928078
3109.91	1.16438
3111.18	1.23766
3112.46	1.72568
3113.73	2.47994
3115	2.86647
3116.28	3.24334
3117.55	3.50418
3118.83	3.87528
3120.1	4.31732
3121.37	4.7975
3122.64	5.4365
3123.92	5.96611
3125.19	6.5975
3126.46	6.83104
3127.73	7.41448
3129	7.92944
3130.27	8.64062
3131.55	9.20033
3132.82	10.1225
3134.09	10.1695
3135.36	10.1569
3136.63	10.3208
3137.9	10.9529
3139.17	11.1874
3140.44	11.4502
3141.71	11.7478
3142.98	11.6133
3144.24	11.6005
3145.51	11.4228
3146.78	11.1977
3148.05	10.3485
3149.32	9.86987
