#Acq. time (s)=	45
#Accumulations=	2
#Range (cm-¹)=	200...3150
#Windows=	2
#Auto scanning=	Off
#Autofocus=	Off
#Macrospot=	Off
#AutoExposure=	Off
#Spike filter=	Multiple accum.
#Delay time (s)=	0
#Binning=	1
#Readout mode=	Signal
#DeNoise=	Off
#ICS correction=	On
#Dark correction=	Off
#Inst. Process=	Off
#Detector Gain=	Best Dynamic Range
#Detector ADC=	20 kHz       
#Detector temperature (°C)=	-69.85
#Instrument=	LabRAM HR Evol
#Detector=	Synapse
#Objective=	x100
#Grating=	600 gr/mm
#ND Filter=	100%
#Laser (nm)=	532 
#Hole=	100.021
#Range=	Auto
#Laser Pol.=	No
#Raman. Pol.=	No
#Laser Pol. (°)=	-0.0007625
#Raman Pol. (°)=	89.9995
#Collection=	Microscope
#StageXY=	Marzhauser
#StageZ=	Marzhauser
#X (µm)=	2204.1
#Y (µm)=	1241.1
#Z (µm)=	442.45
#Full time(mm:ss)=	3:18
#Project=	
#Sample=	
#Site=	
#Title=	Thy_10_08_20_2x_45s_532 nm_x100_100%_600 gr_mm
#Remark=	
#Date=	05.07.2022 15:36
#Acquired=	05.07.2022 15:36:22
#Base:Fit=	10.08.2022 09:46:25
#Base:Sub=	10.08.2022 09:46:49
#Filter:Polynom=	16.08.2022 10:24:56
#AxisType[0]=Intens
#AxisUnit[0]=Cnt
#AxisType[1]=Spectr
#AxisUnit[1]=1/cm
200.43	-11.3004
202.244	-4.39011
204.059	2.80761
205.873	7.88054
207.688	11.5087
209.501	14.7433
211.314	17.5628
213.127	18.8753
214.941	18.8694
216.753	19.853
218.564	20.5439
220.375	20.3017
222.186	20.1427
223.999	20.5787
225.809	21.2137
227.618	21.6004
229.428	21.3438
231.236	21.7009
233.045	21.6631
234.855	21.8531
236.663	21.1809
238.471	20.0985
240.278	19.362
242.085	18.8914
243.891	18.6722
245.698	17.4136
247.503	15.406
249.309	14.5603
251.116	13.0757
252.921	12.3
254.725	11.2169
256.529	10.4194
258.333	10.5294
260.136	9.40696
261.939	8.54779
263.742	7.93384
265.544	8.61007
267.346	9.02001
269.148	9.12127
270.949	9.93694
272.75	10.6196
274.55	10.8251
276.351	11.3182
278.15	10.6942
279.95	9.45862
281.749	10.4377
283.548	10.0008
285.346	11.0657
287.144	11.5874
288.942	11.6553
290.739	11.6652
292.536	11.7379
294.333	11.6196
296.129	12.01
297.925	12.6029
299.721	11.6276
301.514	12.3492
303.309	11.7415
305.104	11.7173
306.898	13.3395
308.692	13.4998
310.486	13.6779
312.279	14.1902
314.072	14.829
315.862	14.7867
317.654	15.5428
319.446	16.0348
321.238	15.5057
323.029	15.0532
324.819	15.1964
326.608	14.649
328.398	14.4245
330.188	14.1026
331.977	13.2695
333.766	13.0854
335.553	12.6
337.341	13.2734
339.129	13.877
340.917	13.7754
342.704	13.6065
344.489	13.5475
346.275	12.8346
348.062	12.3302
349.845	11.582
351.631	11.506
353.416	11.3437
355.201	11.3034
356.984	10.9367
358.768	10.5986
360.552	10.1526
362.333	8.59474
364.116	7.42536
365.899	6.71681
367.68	5.56148
369.462	5.54872
371.243	5.60905
373.023	4.49258
374.804	4.43577
376.585	5.07029
378.363	5.3279
380.143	5.19073
381.923	5.24538
383.7	4.47585
385.479	4.18584
387.256	3.86316
389.034	3.40967
390.812	5.11536
392.588	5.07351
394.365	4.32378
396.14	5.16872
397.916	5.29256
399.691	5.39824
401.467	4.86073
403.24	5.52645
405.015	6.08238
406.788	6.95773
408.563	7.30887
410.335	7.65281
412.109	8.72077
413.88	9.42552
415.654	8.83432
417.424	8.56819
419.197	8.71288
420.967	8.90264
422.739	9.01608
424.508	8.78972
426.279	8.14865
428.048	8.10106
429.819	8.39761
431.587	7.11963
433.356	7.09723
435.124	6.95152
436.891	7.21867
438.66	7.32586
440.426	7.64102
442.194	7.88524
443.96	7.72594
445.725	8.00426
447.492	7.54646
449.257	5.93189
451.021	6.28558
452.787	6.53181
454.551	5.71953
456.314	5.92373
458.079	6.47481
459.842	7.00001
461.604	8.07897
463.368	8.20488
465.13	9.70119
466.891	10.5273
468.654	11.0492
470.415	11.9089
472.175	12.2333
473.935	12.6371
475.696	13.1437
477.456	13.9725
479.215	15.485
480.973	15.5979
482.733	16.2234
484.491	17.0683
486.249	18.2448
488.006	18.5197
489.765	19.0939
491.522	21.5941
493.278	22.838
495.034	23.9771
496.789	24.3876
498.544	24.8149
500.301	24.1476
502.056	24.7054
503.81	24.2398
505.564	24.6085
507.317	24.5173
509.071	24.7216
510.825	24.5028
512.578	25.2963
514.33	25.3643
516.082	25.4275
517.833	24.7287
519.585	24.671
521.335	24.3694
523.086	24.5992
524.836	23.8969
526.586	23.4846
528.335	23.3921
530.085	23.0256
531.835	21.2047
533.584	19.6579
535.332	17.8577
537.08	17.1465
538.827	17.5971
540.574	16.3135
542.321	14.8956
544.068	14.5225
545.814	14.1447
547.56	13.603
549.305	13.2695
551.05	13.0272
552.795	13.2812
554.54	11.0866
556.282	9.99449
558.025	9.17358
559.769	8.16377
561.512	7.76836
563.255	7.37146
564.997	6.7312
566.739	6.80407
568.481	7.01588
570.223	6.55116
571.964	6.27581
573.705	6.5974
575.443	5.73655
577.183	5.2121
578.923	4.59267
580.663	3.60982
582.402	2.49553
584.141	1.95183
585.879	2.57655
587.615	1.7941
589.353	1.88275
591.09	1.06028
592.828	2.14294
594.564	2.92363
596.299	3.57485
598.035	2.80673
599.771	2.97498
601.506	2.55414
603.242	2.67457
604.974	3.71021
606.709	4.21395
608.443	4.4351
610.177	5.25746
611.908	5.19237
613.642	5.49273
615.374	5.99199
617.105	5.97681
618.837	5.6317
620.569	6.72501
622.3	7.11455
624.03	7.75024
625.761	8.27772
627.491	8.39568
629.219	9.09572
630.949	9.22211
632.677	10.4529
634.406	11.1693
636.135	11.7763
637.861	13.3158
639.59	13.6487
641.318	14.182
643.043	14.609
644.77	15.9318
646.495	17.4868
648.222	18.5069
649.948	18.5567
651.672	19.4142
653.398	20.0083
655.121	19.9451
656.846	19.8495
658.569	20.1489
660.293	19.6172
662.015	19.6422
663.738	19.9038
665.46	19.8848
667.183	21.1713
668.903	21.5683
670.626	22.2913
672.346	22.5544
674.067	22.332
675.787	22.667
677.508	23.547
679.226	24.6154
680.947	24.917
682.665	24.1011
684.385	23.4677
686.102	24.118
687.821	23.7601
689.538	24.712
691.254	24.5699
692.972	24.7079
694.688	25.5036
696.406	25.8355
698.121	27.1522
699.835	28.9687
701.552	30.1929
703.266	30.2462
704.98	29.6191
706.695	29.7346
708.409	30.051
710.121	29.8163
711.836	30.8444
713.548	30.6951
715.26	29.8076
716.973	29.5206
718.685	30.8754
720.396	32.3406
722.108	33.9487
723.818	35.4057
725.528	35.7637
727.238	36.3195
728.949	37.1245
730.658	39.6238
732.367	40.466
734.075	41.0153
735.785	41.202
737.493	42.5827
739.2	42.8162
740.907	44.5781
742.614	46.4774
744.322	48.62
746.028	49.6752
747.734	51.0068
749.439	52.8982
751.144	53.6082
752.849	55.4131
754.555	55.564
756.26	56.4091
757.963	57.9011
759.667	58.648
761.37	59.3475
763.073	61.1729
764.775	62.5057
766.477	63.3731
768.179	64.0807
769.883	65.1432
771.584	66.4376
773.285	67.2637
774.986	68.8557
776.686	70.6026
778.386	73.0808
780.085	74.4485
781.785	76.3116
783.484	77.4329
785.182	78.5135
786.881	78.1636
788.579	78.2693
790.276	78.8738
791.974	80.4372
793.671	80.7326
795.367	80.698
797.064	82.0527
798.76	82.2959
800.456	83.1363
802.151	84.9413
803.846	86.2944
805.541	86.9488
807.234	87.6623
808.928	86.8399
810.622	87.0371
812.315	87.8114
814.008	88.466
815.701	88.2201
817.394	88.3866
819.086	88.7549
820.778	89.5543
822.468	88.7981
824.159	88.8398
825.85	89.0625
827.541	88.543
829.231	87.7733
830.921	86.1709
832.609	84.353
834.298	83.4101
835.987	81.6342
837.676	80.9164
839.364	79.7893
841.051	79.4047
842.738	78.7021
844.426	77.4964
846.113	75.7635
847.798	75.5269
849.484	74.4522
851.171	73.5401
852.857	71.5665
854.54	70.0298
856.226	68.471
857.911	68.2104
859.593	67.2051
861.278	67.0992
862.961	65.8881
864.645	65.1696
866.327	65.1411
868.01	64.1011
869.692	63.5475
871.373	62.4562
873.055	62.1057
874.735	61.8617
876.416	60.7484
878.097	59.4407
879.776	58.7623
881.457	57.4185
883.135	56.7767
884.815	56.7139
886.495	55.6421
888.172	54.5904
889.851	54.5579
891.528	53.4505
893.206	52.0775
894.882	52.1852
896.56	51.7651
898.237	51.9166
899.912	51.9466
901.589	52.2235
903.263	52.5886
904.94	52.0656
906.614	51.5638
908.289	51.8236
909.962	50.826
911.635	50.9604
913.31	50.228
914.982	50.3363
916.656	50.3062
918.328	51.2695
920.001	52.2566
921.672	52.7535
923.345	52.689
925.015	52.598
926.685	52.446
928.357	52.4928
930.026	52.141
931.698	53.4957
933.366	52.3084
935.035	52.0947
936.705	50.0338
938.373	50.2948
940.041	50.4152
941.71	51.2866
943.377	50.8885
945.044	50.2959
946.712	49.5777
948.378	49.8078
950.044	49.6534
951.709	48.6705
953.376	48.1491
955.041	47.0862
956.706	46.143
958.372	43.8368
960.036	42.0604
961.699	39.6094
963.362	39.2377
965.027	39.7771
966.69	41.0727
968.352	41.3285
970.014	41.2915
971.676	42.6957
973.339	42.2854
975	42.3979
976.661	43.3372
978.322	44.9796
979.982	46.2927
981.642	47.08
983.303	47.1445
984.962	47.5288
986.621	48.1523
988.28	47.9235
989.938	48.6478
991.596	48.2214
993.254	48.1113
994.911	49.0598
996.57	49.0056
998.227	49.3847
999.884	49.3805
1001.54	49.6695
1003.2	49.2826
1004.85	49.2624
1006.51	49.2156
1008.16	48.3984
1009.82	47.6449
1011.47	47.1906
1013.12	45.8631
1014.78	44.3978
1016.43	43.2867
1018.08	43.5459
1019.74	41.7343
1021.39	41.0596
1023.04	40.1004
1024.69	38.0427
1026.34	36.2731
1028	34.332
1029.65	32.9921
1031.3	31.6086
1032.95	29.3773
1034.6	27.4888
1036.25	25.3392
1037.9	22.8765
1039.54	21.3334
1041.19	18.9275
1042.84	18.3972
1044.49	18.4156
1046.14	20.2664
1047.78	20.8362
1049.43	20.8228
1051.08	21.1666
1052.72	21.6506
1054.37	20.8731
1056.02	18.5404
1057.66	19.8644
1059.31	19.341
1060.95	19.5961
1062.6	19.1391
1064.24	18.6059
1065.88	19.8499
1067.53	20.1831
1069.17	20.3794
1070.81	20.6718
1072.45	21.6632
1074.1	20.9823
1075.74	21.4018
1077.38	21.9253
1079.02	21.7629
1080.66	21.8445
1082.3	22.0175
1083.94	22.9274
1085.58	22.5214
1087.22	23.555
1088.86	24.1921
1090.5	24.0213
1092.14	23.7267
1093.78	24.7738
1095.42	24.5842
1097.05	24.4627
1098.69	24.7019
1100.33	23.527
1101.96	22.0777
1103.6	21.9618
1105.24	21.8711
1106.87	20.516
1108.51	19.9238
1110.14	18.0215
1111.78	16.5341
1113.41	16.045
1115.05	14.9726
1116.68	13.9575
1118.31	13.4766
1119.95	13.0027
1121.58	12.0034
1123.21	10.8004
1124.85	10.6197
1126.48	10.5668
1128.11	9.22712
1129.74	8.11893
1131.37	7.82632
1133	7.05534
1134.63	5.7935
1136.26	4.84541
1137.89	4.95704
1139.52	6.42841
1141.15	6.09188
1142.78	6.51626
1144.41	6.18712
1146.04	6.43244
1147.66	6.45625
1149.29	6.05594
1150.92	5.53323
1152.55	5.33148
1154.17	4.20777
1155.8	3.07815
1157.43	3.08318
1159.05	2.20643
1160.68	2.52923
1162.3	2.47215
1163.93	2.50684
1165.55	3.04972
1167.17	4.19129
1168.8	5.7947
1170.42	5.90124
1172.05	5.97285
1173.67	6.14924
1175.29	7.32318
1176.91	7.86793
1178.54	8.34491
1180.16	9.441
1181.78	9.88361
1183.4	11.2439
1185.02	11.7313
1186.64	11.8371
1188.26	11.8005
1189.88	12.431
1191.5	13.1487
1193.12	14.3949
1194.74	14.7964
1196.36	15.3365
1197.97	16.2757
1199.59	17.4248
1201.21	18.4232
1202.83	19.0632
1204.44	20.0427
1206.06	22.1463
1207.68	23.5783
1209.29	24.7289
1210.91	27.5302
1212.52	29.3833
1214.14	31.4277
1215.75	34.0608
1217.37	35.7772
1218.98	37.3641
1220.59	38.9234
1222.21	40.583
1223.82	41.0303
1225.43	41.7142
1227.05	43.3712
1228.66	43.7671
1230.27	44.5132
1231.88	44.0357
1233.49	45.8749
1235.1	45.6601
1236.72	46.9461
1238.33	48.1902
1239.94	49.4093
1241.55	49.9656
1243.16	50.7785
1244.76	51.9531
1246.37	54.5915
1247.98	56.2762
1249.59	56.4336
1251.2	56.3213
1252.8	58.1132
1254.41	59.0345
1256.02	59.6563
1257.62	60.0653
1259.23	59.9419
1260.84	60.6002
1262.44	59.7218
1264.05	59.3585
1265.66	58.511
1267.26	58.6532
1268.86	58.1965
1270.47	58.7623
1272.07	59.6817
1273.67	59.6678
1275.28	60.2614
1276.88	61.597
1278.48	62.5371
1280.09	63.572
1281.69	64.7109
1283.29	64.2367
1284.89	65.1639
1286.49	66.2607
1288.09	66.74
1289.69	68.5825
1291.29	69.29
1292.89	70.1553
1294.49	71.5419
1296.09	72.0572
1297.69	72.912
1299.29	73.9389
1300.89	75.3218
1302.49	76.4353
1304.08	76.99
1305.68	78.5846
1307.28	79.6884
1308.88	80.3439
1310.47	81.8293
1312.07	83.0919
1313.66	84.4976
1315.26	84.2869
1316.85	85.1745
1318.45	85.7881
1320.04	86.0251
1321.64	85.3438
1323.23	86.3982
1324.83	86.5883
1326.42	86.2617
1328.01	84.5309
1329.61	84.2001
1331.2	83.2409
1332.79	83.1742
1334.38	82.3678
1335.97	80.9223
1337.56	79.3845
1339.16	78.1687
1340.75	76.41
1342.34	73.8854
1343.93	72.6004
1345.52	71.7639
1347.11	69.6131
1348.7	68.8298
1350.29	67.9639
1351.87	66.4565
1353.46	64.6118
1355.05	62.6279
1356.64	61.2251
1358.22	60.5103
1359.81	58.76
1361.4	57.9007
1362.98	56.7867
1364.57	56.3241
1366.16	55.5015
1367.74	55.6593
1369.33	54.8931
1370.91	53.3891
1372.5	53.0692
1374.08	51.9996
1375.67	51.5797
1377.25	50.6681
1378.83	50.7694
1380.41	50.7155
1382	50.23
1383.58	49.3397
1385.16	48.7027
1386.74	48.2289
1388.33	46.3576
1389.91	44.9334
1391.49	43.2878
1393.07	41.7594
1394.65	40.1059
1396.23	39.0115
1397.81	38.6046
1399.39	37.4186
1400.97	36.1467
1402.55	36.4156
1404.13	35.0095
1405.7	33.8982
1407.28	34.0844
1408.86	34.2811
1410.44	33.4378
1412.01	35.1212
1413.59	35.8076
1415.17	36.0658
1416.74	36.6169
1418.32	37.9251
1419.89	40.0246
1421.47	42.1807
1423.04	44.6831
1424.62	47.0444
1426.19	49.6961
1427.77	53.6422
1429.34	56.4387
1430.91	59.7306
1432.49	62.4728
1434.06	65.1424
1435.63	68.958
1437.2	71.9321
1438.78	74.3243
1440.35	77.3861
1441.92	79.5968
1443.49	81.7194
1445.06	83.5965
1446.63	84.9782
1448.2	85.3964
1449.77	85.0115
1451.34	85.792
1452.91	86.7424
1454.48	86.9429
1456.05	86.7074
1457.62	86.6385
1459.18	85.0242
1460.75	83.88
1462.32	81.3736
1463.89	79.1724
1465.45	76.2797
1467.02	72.7134
1468.59	69.845
1470.15	67.2583
1471.72	64.01
1473.28	61.5736
1474.85	58.661
1476.41	54.9461
1477.98	51.1005
1479.54	47.7726
1481.1	44.5326
1482.67	40.2336
1484.23	36.8782
1485.79	33.8005
1487.36	31.3791
1488.92	28.9123
1490.48	27.763
1492.04	25.1782
1493.61	23.371
1495.17	21.0096
1496.73	19.6235
1498.29	18.4175
1499.85	17.2797
1501.41	15.7999
1502.97	14.8216
1504.53	14.0556
1506.09	13.2296
1507.65	13.0879
1509.2	11.708
1510.76	11.4181
1512.32	10.7192
1513.88	10.5159
1515.43	10.6515
1516.99	10.5977
1518.55	10.8663
1520.1	11.3277
1521.66	11.7484
1523.22	12.053
1524.77	13.182
1526.33	13.8848
1527.88	14.3763
1529.44	16.2929
1530.99	17.9959
1532.54	18.6205
1534.1	18.8048
1535.65	19.7848
1537.21	20.6886
1538.76	22.0047
1540.31	22.413
1541.86	23.7914
1543.42	24.6843
1544.97	25.7956
1546.52	27.0135
1548.07	28.8916
1549.62	30.3812
1551.17	31.6669
1552.72	33.1163
1554.27	35.1073
1555.82	36.471
1557.37	38.1262
1558.92	39.2371
1560.47	40.6138
1562.02	41.7363
1563.56	43.409
1565.11	45.8523
1566.66	46.1782
1568.21	47.5954
1569.75	49.6687
1571.3	51.0041
1572.85	52.0231
1574.39	53.6716
1575.94	54.9047
1577.49	56.473
1579.03	56.9796
1580.57	58.5969
1582.12	60.1666
1583.66	61.7622
1585.21	63.1201
1586.75	63.6386
1588.3	64.6486
1589.84	64.8279
1591.38	65.7531
1592.92	66.4197
1594.47	66.8807
1596.01	67.6744
1597.55	68.2035
1599.09	68.7541
1600.63	68.6202
1602.17	69.061
1603.71	68.3105
1605.25	67.7822
1606.79	67.5147
1608.33	67.2355
1609.87	65.3567
1611.41	63.778
1612.95	63.918
1614.49	63.8557
1616.03	64.5362
1617.57	63.9964
1619.1	63.9783
1620.64	64.0754
1622.18	63.7205
1623.72	64.5279
1625.25	65.4692
1626.79	67.0176
1628.32	67.4395
1629.86	68.5785
1631.39	68.5709
1632.93	68.9206
1634.46	70.8025
1636	71.8975
1637.53	73.1855
1639.07	74.5245
1640.6	77.2608
1642.13	78.3869
1643.67	79.8104
1645.2	82.7249
1646.73	85.7517
1648.26	87.1247
1649.8	89.0919
1651.33	90.895
1652.86	92.3747
1654.39	93.328
1655.92	95.1222
1657.45	97.1609
1658.98	97.3067
1660.51	97.0868
1662.04	97.3734
1663.57	96.3661
1665.1	96.0437
1666.63	95.5092
1668.16	94.5884
1669.68	92.9114
1671.21	91.6863
1672.74	90.409
1674.27	87.9877
1675.79	85.9542
1677.32	83.1259
1678.85	79.9849
1680.37	76.5659
1681.9	73.5573
1683.42	70.0464
1684.95	66.0387
1686.47	62.0306
1688	58.8711
1689.52	56.2087
1691.05	52.4759
1692.57	49.0788
1694.09	44.4762
1695.62	41.8061
1697.14	39.0233
1698.66	35.6539
1700.18	33.1827
1701.71	30.2192
1703.23	26.9515
1704.75	22.634
1706.27	19.9642
1707.79	17.1651
1709.31	15.0566
1710.83	13.7197
1712.35	11.8874
1713.87	11.3158
1715.39	10.3336
1716.91	8.97979
1718.43	7.81531
1719.95	7.91095
1721.47	7.20644
1722.99	6.75947
1724.5	5.95632
1726.02	5.73665
1727.54	4.75012
1729.06	4.01555
1730.57	4.15382
1732.09	4.55823
1733.61	3.92126
1735.12	2.9056
1736.64	3.37798
1738.15	4.02179
1739.67	3.74056
1741.18	4.56783
1742.7	4.30366
1744.21	4.7706
1745.72	4.32868
1747.24	5.0394
1748.75	5.5578
1750.26	5.46392
1751.77	5.93237
1753.29	5.61781
1754.8	4.95728
1756.31	5.16318
1757.82	5.25596
1759.33	4.47507
1760.84	4.54207
1762.36	4.40785
1763.87	4.01395
1765.38	3.92313
1766.89	3.45875
1768.4	4.32456
1769.91	4.07205
1771.41	4.57196
1772.92	3.86267
1774.43	2.44196
1775.94	2.04832
1777.45	1.93874
1778.95	1.13307
1780.46	0.703716
1781.97	0.745182
1783.48	0.348049
1784.98	0.85679
1786.49	1.08346
1787.99	1.0272
1789.5	0.599701
1791.01	-0.384895
1792.51	-0.260224
1794.01	-0.46869
1795.52	-1.00534
1797.02	-1.2236
1798.53	-0.476752
1800.03	-0.628634
1801.53	-0.795783
1803.04	-0.808823
1804.54	-0.629914
1806.04	-0.848246
1807.54	-1.23211
1809.05	-0.593607
1810.55	-0.0603754
1812.05	0.429311
1813.55	0.749855
1815.05	0.77626
1816.55	1.00613
1818.05	1.29012
1819.55	1.42788
1821.05	0.99563
1822.55	2.03251
1824.05	2.48781
1825.55	2.12047
1827.05	1.77395
1828.55	2.04766
1830.04	2.23474
1831.54	2.38528
1833.04	2.95122
1834.54	3.46446
1836.03	4.25775
1837.53	4.21967
1839.03	4.58551
1840.52	5.23813
1842.02	5.68064
1843.51	6.20901
1845.01	6.20751
1846.5	6.55336
1848	7.27639
1849.49	8.12564
1850.99	8.11831
1852.48	8.56907
1853.97	9.0497
1855.47	9.58205
1856.96	9.68446
1858.45	10.8526
1859.94	11.264
1861.44	11.2398
1862.93	11.652
1864.42	12.3307
1865.91	13.0802
1867.4	13.7648
1868.89	14.1089
1870.38	15.2237
1871.87	15.5099
1873.36	16.2104
1874.85	15.9782
1876.34	16.609
1877.83	17.3564
1879.32	17.5596
1880.81	17.4561
1882.3	17.3951
1882.57	18.2819
1884.07	18.4104
1885.56	18.5941
1887.06	19.0412
1888.55	19.1592
1890.04	19.2034
1891.54	19.5685
1893.03	19.4995
1894.52	19.2287
1896.02	19.4809
1897.51	18.8726
1899	17.9349
1900.49	18.0211
1901.98	18.0443
1903.47	17.7282
1904.96	17.8248
1906.45	18.7936
1907.94	18.8188
1909.43	18.8357
1910.92	18.2112
1912.41	18.0326
1913.9	17.7543
1915.39	17.7421
1916.88	17.9347
1918.37	18.3936
1919.85	18.2457
1921.34	18.7711
1922.83	18.8427
1924.32	17.8464
1925.8	18.4978
1927.29	18.3938
1928.78	17.7585
1930.26	17.1745
1931.75	17.4543
1933.23	16.8651
1934.72	17.098
1936.2	17.7223
1937.69	18.2551
1939.17	18.6578
1940.66	18.5723
1942.14	18.8937
1943.63	18.6107
1945.11	18.6899
1946.59	19.7248
1948.07	19.9567
1949.56	20.4075
1951.04	20.7979
1952.52	20.6233
1954	21.5223
1955.48	22.0529
1956.96	22.6765
1958.45	22.0341
1959.93	22.0661
1961.41	22.0649
1962.89	21.7038
1964.37	21.8645
1965.85	22.0932
1967.32	22.3859
1968.8	21.8767
1970.28	22.0554
1971.76	21.9763
1973.24	21.6376
1974.72	21.8347
1976.19	21.7311
1977.67	22.1366
1979.15	23.0123
1980.63	22.741
1982.1	22.5964
1983.58	22.0149
1985.05	20.9647
1986.53	21.3492
1988	21.1357
1989.48	21.5892
1990.95	22.1438
1992.43	22.1978
1993.9	22.1846
1995.38	22.6348
1996.85	22.3949
1998.32	21.8692
1999.8	21.7968
2001.27	21.9245
2002.74	21.7745
2004.22	21.9321
2005.69	22.3833
2007.16	22.3536
2008.63	22.2159
2010.1	22.5357
2011.57	22.6379
2013.04	22.768
2014.51	22.0194
2015.98	22.5243
2017.45	22.6395
2018.92	23.233
2020.39	23.6625
2021.86	23.4215
2023.33	23.9823
2024.8	24.7362
2026.27	24.4961
2027.74	24.8584
2029.2	24.2455
2030.67	24.3651
2032.14	25.3386
2033.61	26.3753
2035.07	26.899
2036.54	26.5908
2038.01	27.5076
2039.47	27.8742
2040.94	28.2445
2042.4	27.4452
2043.87	27.9411
2045.33	28.0467
2046.8	28.6304
2048.26	28.6934
2049.72	29.06
2051.19	29.6072
2052.65	30.0175
2054.12	29.3857
2055.58	30.1482
2057.04	29.8011
2058.5	30.5523
2059.97	31.5647
2061.43	31.361
2062.89	31.7185
2064.35	32.1013
2065.81	31.8073
2067.27	31.6437
2068.73	32.0367
2070.19	31.904
2071.65	31.3095
2073.11	31.0561
2074.57	31.344
2076.03	31.2674
2077.49	30.7375
2078.95	30.8969
2080.41	30.2365
2081.87	29.9062
2083.32	29.9096
2084.78	30.032
2086.24	29.0967
2087.7	27.9434
2089.15	28.4249
2090.61	28.3424
2092.07	28.4361
2093.52	28.2259
2094.98	28.7082
2096.43	29.1061
2097.89	29.0692
2099.34	28.5201
2100.8	28.8542
2102.25	29.0157
2103.71	29.4796
2105.16	29.8311
2106.61	29.549
2108.07	29.1179
2109.52	29.0899
2110.97	29.8791
2112.43	29.9958
2113.88	29.7188
2115.33	29.7671
2116.78	30.4927
2118.23	30.647
2119.68	31.53
2121.13	31.7823
2122.59	32.3607
2124.04	33.2462
2125.49	34.1918
2126.94	34.5118
2128.39	36.2225
2129.83	36.5955
2131.28	37.5573
2132.73	38.0401
2134.18	38.4
2135.63	39.4309
2137.08	40.6093
2138.53	40.6462
2139.97	41.5206
2141.42	42.2206
2142.87	42.5714
2144.31	43.3139
2145.76	44.4879
2147.21	45.2945
2148.65	45.5006
2150.1	45.9808
2151.54	47.1445
2152.99	47.4084
2154.43	48.0121
2155.88	48.9242
2157.32	49.6129
2158.77	49.864
2160.21	51.6127
2161.65	53.388
2163.1	53.9488
2164.54	54.3186
2165.98	54.9986
2167.43	56.1256
2168.87	55.932
2170.31	56.2224
2171.75	56.5707
2173.19	57.1864
2174.64	57.4674
2176.07	58.1091
2177.52	58.0158
2178.96	57.8269
2180.4	57.8937
2181.84	58.1075
2183.28	57.9518
2184.72	57.0979
2186.15	56.6934
2187.59	56.6467
2189.03	56.6899
2190.47	56.5927
2191.91	56.4566
2193.35	55.7217
2194.78	55.1688
2196.22	55.1178
2197.66	54.6661
2199.09	53.4444
2200.53	52.7454
2201.97	51.0428
2203.4	49.9277
2204.84	48.3006
2206.27	46.8733
2207.71	45.7575
2209.14	44.0417
2210.58	42.3834
2212.01	41.3472
2213.45	40.2031
2214.88	39.1971
2216.31	38.8678
2217.75	37.6657
2219.18	36.8615
2220.61	36.4157
2222.05	36.2393
2223.48	35.5661
2224.91	34.9811
2226.34	34.8687
2227.78	35.1579
2229.21	34.8613
2230.64	35.1715
2232.07	35.1201
2233.5	34.4335
2234.93	34.4012
2236.36	34.2654
2237.79	34.6055
2239.22	34.5883
2240.65	34.2065
2242.08	33.7674
2243.5	33.6111
2244.93	33.7528
2246.36	33.6129
2247.79	33.6074
2249.22	33.0126
2250.64	33.0113
2252.07	33.3675
2253.5	33.4407
2254.92	33.4083
2256.35	33.2496
2257.78	33.8465
2259.2	33.8359
2260.63	34.0808
2262.05	33.7218
2263.48	33.7076
2264.9	33.8527
2266.33	33.5623
2267.75	33.2022
2269.18	32.6556
2270.6	31.6635
2272.02	30.9709
2273.45	30.4605
2274.87	30.6492
2276.29	30.41
2277.71	29.6311
2279.14	29.6528
2280.56	29.2253
2281.98	29.5197
2283.4	28.9062
2284.82	29.6844
2286.24	29.4728
2287.66	28.9555
2289.08	28.0028
2290.5	28.025
2291.92	27.2498
2293.34	27.0262
2294.76	26.3983
2296.18	26.9801
2297.6	27.7424
2299.02	28.0303
2300.44	28.6216
2301.86	29.2804
2303.27	29.5884
2304.69	29.8757
2306.11	29.8412
2307.53	29.5385
2308.94	29.363
2310.36	29.1154
2311.78	28.6461
2313.19	27.8565
2314.61	28.0435
2316.02	27.8874
2317.44	27.6333
2318.85	27.5875
2320.27	26.8731
2321.68	27.2808
2323.1	27.4512
2324.51	27.6055
2325.92	27.4208
2327.34	26.9984
2328.75	26.9055
2330.16	26.7492
2331.58	26.4948
2332.99	26.0056
2334.4	25.173
2335.81	24.2454
2337.23	23.2294
2338.64	22.8702
2340.05	22.1193
2341.46	21.5604
2342.87	20.6163
2344.28	20.885
2345.69	20.7143
2347.1	19.7704
2348.51	18.735
2349.92	18.4271
2351.33	17.4435
2352.74	16.9133
2354.15	16.0728
2355.55	15.4259
2356.96	13.4886
2358.37	12.9718
2359.78	12.8103
2361.19	12.4191
2362.59	12.4669
2364	12.5261
2365.41	12.4537
2366.81	13.3369
2368.22	13.83
2369.62	13.4307
2371.03	13.065
2372.44	12.1603
2373.84	11.5294
2375.24	11.1988
2376.65	10.1964
2378.05	9.79239
2379.46	9.60821
2380.86	9.22385
2382.26	8.58611
2383.67	8.1992
2385.07	8.80922
2386.47	9.01573
2387.88	10.0255
2389.28	9.63601
2390.68	10.3578
2392.08	11.3022
2393.48	11.3722
2394.89	12.0285
2396.29	12.3716
2397.69	12.9434
2399.09	13.106
2400.49	13.5119
2401.89	13.5568
2403.29	14.2848
2404.69	14.5886
2406.09	15.1477
2407.48	15.9341
2408.88	17.1247
2410.28	17.6517
2411.68	17.874
2413.08	18.1456
2414.48	19.8202
2415.87	20.4093
2417.27	20.8347
2418.67	20.9368
2420.06	20.8103
2421.46	20.9095
2422.86	21.0249
2424.25	20.7011
2425.65	20.3752
2427.04	20.4829
2428.44	20.7684
2429.83	20.4214
2431.23	20.4727
2432.62	20.2593
2434.02	19.6437
2435.41	19.4642
2436.81	18.907
2438.2	18.5998
2439.59	17.3131
2440.99	16.8788
2442.38	16.2948
2443.77	15.7643
2445.16	15.4349
2446.56	14.6779
2447.95	13.9608
2449.34	13.8495
2450.73	13.4607
2452.12	13.078
2453.51	12.5175
2454.9	12.344
2456.29	11.839
2457.68	11.5203
2459.07	10.4739
2460.46	10.8142
2461.85	10.3521
2463.24	10.3684
2464.63	10.7969
2466.02	10.9274
2467.4	10.9217
2468.79	10.2667
2470.18	10.4927
2471.57	10.4499
2472.95	11.3209
2474.34	11.4791
2475.73	11.6293
2477.12	11.8803
2478.5	12.2516
2479.89	11.8552
2481.27	11.3684
2482.66	11.4435
2484.04	11.9688
2485.43	12.0796
2486.81	12.3475
2488.2	12.0638
2489.58	11.6912
2490.97	11.7319
2492.35	11.511
2493.73	11.3124
2495.12	11.0059
2496.5	10.8074
2497.88	10.7704
2499.27	11.4304
2500.65	11.1583
2502.03	10.8498
2503.41	10.7406
2504.79	10.2853
2506.17	10.0538
2507.56	10.1696
2508.94	9.93307
2510.32	9.86282
2511.7	9.16562
2513.08	8.09757
2514.46	8.20176
2515.84	7.24304
2517.22	6.72305
2518.59	6.77864
2519.97	6.1137
2521.35	5.45566
2522.73	4.67942
2524.11	4.42515
2525.49	4.08566
2526.86	4.51789
2528.24	3.90493
2529.62	3.80287
2530.99	3.39109
2532.37	3.31745
2533.75	3.59136
2535.12	3.67752
2536.5	3.1354
2537.88	3.12737
2539.25	3.2424
2540.63	3.67427
2542	3.87545
2543.38	3.27244
2544.75	3.20316
2546.12	3.36612
2547.5	3.19114
2548.87	2.61647
2550.24	2.38634
2551.62	2.88391
2552.99	3.38409
2554.36	3.90381
2555.74	3.75439
2557.11	2.73257
2558.48	2.29976
2559.85	2.584
2561.22	2.27245
2562.59	2.14576
2563.96	2.15284
2565.34	2.43508
2566.71	2.44986
2568.08	2.89006
2569.45	2.17211
2570.82	2.54015
2572.18	2.90616
2573.55	2.58359
2574.92	2.33283
2576.29	1.89114
2577.66	1.34402
2579.03	0.972591
2580.4	1.22024
2581.77	1.20463
2583.13	1.54851
2584.5	1.23379
2585.87	1.71828
2587.23	1.83246
2588.6	1.99083
2589.97	1.83388
2591.33	1.62325
2592.7	1.53288
2594.06	1.74428
2595.43	1.74319
2596.79	1.05033
2598.16	1.4753
2599.52	1.3208
2600.89	1.61179
2602.25	1.73945
2603.62	1.7856
2604.98	1.92478
2606.34	2.53026
2607.71	2.20912
2609.07	2.44615
2610.43	2.32948
2611.79	2.18767
2613.16	2.39267
2614.52	1.33022
2615.88	0.724466
2617.24	0.908612
2618.6	1.00696
2619.96	0.888866
2621.32	0.252991
2622.68	0.0506282
2624.04	-0.38398
2625.4	-0.972584
2626.76	-0.832134
2628.12	-0.541727
2629.48	-1.23729
2630.84	-1.39421
2632.2	-1.24273
2633.56	-1.42646
2634.92	-1.38939
2636.28	-0.857951
2637.63	-1.09897
2638.99	-0.807848
2640.35	-1.17969
2641.71	-1.47833
2643.06	-1.30037
2644.42	-0.394341
2645.77	-0.0236681
2647.13	0.856706
2648.49	0.798619
2649.84	0.988092
2651.2	1.67526
2652.55	2.17255
2653.91	2.30132
2655.26	2.46039
2656.62	2.08574
2657.97	1.75789
2659.33	1.99742
2660.68	2.39092
2662.03	2.74434
2663.39	2.4746
2664.74	2.68191
2666.09	2.88048
2667.44	2.88647
2668.8	2.99704
2670.15	2.9787
2671.5	3.02436
2672.85	3.04293
2674.2	2.76542
2675.55	2.31514
2676.91	2.51427
2678.26	2.44683
2679.61	2.28223
2680.96	1.89855
2682.31	1.40581
2683.66	1.88602
2685	1.74903
2686.35	1.48178
2687.7	1.60605
2689.05	1.71159
2690.4	2.35832
2691.75	2.64375
2693.1	2.27198
2694.44	2.61235
2695.79	2.9786
2697.14	2.72313
2698.49	2.78906
2699.83	3.01354
2701.18	3.19736
2702.52	3.68197
2703.87	3.76141
2705.22	3.96539
2706.56	3.61322
2707.91	4.11065
2709.25	4.50111
2710.6	4.67412
2711.94	4.95153
2713.29	4.26323
2714.63	4.77927
2715.97	5.12717
2717.32	5.96108
2718.66	5.95276
2720.01	6.04537
2721.35	6.41062
2722.69	6.1921
2724.03	6.5966
2725.38	6.56979
2726.72	6.9075
2728.06	6.8365
2729.4	6.02338
2730.74	5.19928
2732.08	5.49202
2733.42	5.37575
2734.76	5.0822
2736.1	4.83446
2737.44	5.11836
2738.78	5.2232
2740.12	4.6392
2741.46	4.53989
2742.8	4.83082
2744.14	4.73339
2745.48	4.3749
2746.82	4.06594
2748.16	3.56054
2749.49	3.66346
2750.83	3.93408
2752.17	3.57039
2753.51	3.44826
2754.84	3.57809
2756.18	3.60641
2757.52	3.18692
2758.85	2.8658
2760.19	2.54779
2761.53	2.41186
2762.86	2.63121
2764.2	1.92207
2765.53	1.93624
2766.87	1.49915
2768.2	1.6317
2769.54	1.12722
2770.87	0.737624
2772.2	0.835897
2773.54	0.809995
2774.87	1.27984
2776.2	0.891101
2777.54	0.435909
2778.87	0.608682
2780.2	0.338574
2781.53	0.905066
2782.87	0.628372
2784.2	0.825929
2785.53	1.11577
2786.86	1.38264
2788.19	0.803183
2789.52	0.45069
2790.85	0.737567
2792.18	0.225449
2793.51	0.358045
2794.84	-0.0387026
2796.17	-0.587325
2797.5	-0.683922
2798.83	-0.155794
2800.16	-0.291232
2801.49	-0.737608
2802.82	-0.842327
2804.15	-0.924209
2805.47	-1.60292
2806.8	-1.72407
2808.13	-1.20221
2809.46	-1.44233
2810.78	-2.23852
2812.11	-2.23177
2813.44	-1.84583
2814.76	-1.85589
2816.09	-1.19069
2817.42	-0.946077
2818.74	-0.994916
2820.07	-0.428506
2821.39	1.04654
2822.72	2.33128
2824.04	3.87556
2825.37	6.22367
2826.69	8.1809
2828.02	10.418
2829.34	13.2337
2830.66	15.4682
2831.99	18.3911
2833.31	20.7315
2834.63	24.1006
2835.96	26.6934
2837.28	30.1974
2838.6	33.9015
2839.92	37.5796
2841.24	41.2759
2842.57	45.884
2843.89	50.4226
2845.21	55.8096
2846.53	60.5697
2847.85	67.3394
2849.17	73.21
2850.49	79.7076
2851.81	86.3808
2853.13	92.2977
2854.45	98.566
2855.77	104.948
2857.09	111.121
2858.41	117.953
2859.72	124.546
2861.04	130.071
2862.36	136.571
2863.68	142.652
2865	148.095
2866.31	153.385
2867.63	158.482
2868.95	163.171
2870.26	168.307
2871.58	172.115
2872.9	176.538
2874.21	180.055
2875.53	183.162
2876.84	186.467
2878.16	189.476
2879.47	192.705
2880.79	195.121
2882.1	197.379
2883.42	199.832
2884.73	201.314
2886.05	203.324
2887.36	206.19
2888.67	208.7
2889.99	211.665
2891.3	213.899
2892.61	216.492
2893.92	219.976
2895.24	222.605
2896.55	225.537
2897.86	228.191
2899.17	231.61
2900.48	235.551
2901.79	239.89
2903.11	245.254
2904.42	250.75
2905.73	257.041
2907.04	263.331
2908.35	270.304
2909.66	277.777
2910.97	285.127
2912.27	292.393
2913.58	301.077
2914.89	307.783
2916.2	315.136
2917.51	321.796
2918.82	328.103
2920.13	334.549
2921.43	340.079
2922.74	345.386
2924.05	350.859
2925.35	354.113
2926.66	356.87
2927.97	360.02
2929.27	361.4
2930.58	362.326
2931.89	363.108
2933.19	363.12
2934.5	361.726
2935.8	360.428
2937.11	357.668
2938.41	354.558
2939.72	350.728
2941.02	346.363
2942.32	341.9
2943.63	336.606
2944.93	331.342
2946.24	324.611
2947.54	317.915
2948.84	311.568
2950.14	304.311
2951.45	298.476
2952.75	292.668
2954.05	286.119
2955.35	279.725
2956.65	272.366
2957.95	265.709
2959.26	259.146
2960.56	251.768
2961.86	245.282
2963.16	239.419
2964.46	233.702
2965.76	228.2
2967.06	223.056
2968.36	218.487
2969.66	213.264
2970.96	208.989
2972.25	203.532
2973.55	198.923
2974.85	194.243
2976.15	189.012
2977.45	184.288
2978.74	179.812
2980.04	173.795
2981.34	168.394
2982.64	163.024
2983.93	157.915
2985.23	151.992
2986.52	146.409
2987.82	140.626
2989.12	135.14
2990.41	128.878
2991.71	123.585
2993	117.559
2994.3	112.368
2995.59	106.709
2996.89	101.183
2998.18	96.0771
2999.48	90.0074
3000.77	85.1807
3002.06	80.0361
3003.36	75.2074
3004.65	70.7451
3005.94	66.2452
3007.23	62.4732
3008.53	58.2837
3009.82	54.4565
3011.11	51.0438
3012.4	48.338
3013.69	45.6009
3014.99	42.6968
3016.28	40.3832
3017.57	37.4575
3018.86	34.7181
3020.15	32.3596
3021.44	30.0108
3022.73	29.0304
3024.02	27.9259
3025.31	27.0504
3026.6	26.6268
3027.89	26.0139
3029.18	25.035
3030.46	24.9492
3031.75	24.4737
3033.04	24.1173
3034.33	23.5696
3035.62	23.5653
3036.9	23.4689
3038.19	24.0596
3039.48	24.961
3040.76	25.5043
3042.05	25.924
3043.34	26.4726
3044.62	26.6973
3045.91	27.4182
3047.19	28.4157
3048.48	28.8485
3049.77	29.5738
3051.05	30.1538
3052.34	30.3782
3053.62	31.4211
3054.9	31.6653
3056.19	32.0913
3057.47	32.0462
3058.76	32.8437
3060.04	32.5403
3061.32	32.1584
3062.61	31.787
3063.89	30.9781
3065.17	31.2996
3066.45	30.8023
3067.74	30.0585
3069.02	28.7218
3070.3	27.7473
3071.58	27.2046
3072.86	25.8172
3074.14	24.9164
3075.42	23.9725
3076.7	22.5565
3077.99	20.8604
3079.26	19.3586
3080.54	18.3058
3081.82	16.2657
3083.1	15.1078
3084.38	13.9776
3085.66	12.8014
3086.94	12.2301
3088.22	10.9518
3089.5	9.794
3090.78	8.78647
3092.05	7.7579
3093.33	6.89407
3094.61	5.81411
3095.89	4.81522
3097.16	4.29339
3098.44	3.80916
3099.72	3.43188
3100.99	3.56176
3102.27	3.49093
3103.54	3.44972
3104.82	2.63573
3106.1	2.42312
3107.37	2.31874
3108.65	1.94459
3109.92	1.71746
3111.2	1.89236
3112.47	1.39494
3113.74	0.983676
3115.02	1.09393
3116.29	1.42875
3117.56	1.44108
3118.84	1.11204
3120.11	1.24492
3121.38	1.07995
3122.66	1.30257
3123.93	0.970814
3125.2	0.6608
3126.47	0.694236
3127.74	0.95236
3129.01	0.995837
3130.29	0.200428
3131.56	-0.317392
3132.83	-0.524898
3134.1	-0.264319
3135.37	0.237675
3136.64	-0.129103
3137.91	0.0689604
3139.18	0.230941
3140.45	0.464817
3141.72	0.847334
3142.99	1.33783
3144.26	1.83635
3145.52	2.70618
3146.79	3.36978
3148.06	4.26466
3149.33	5.70721
