#Acq. time (s)=	45
#Accumulations=	2
#Range (cm-¹)=	200...3150
#Windows=	2
#Auto scanning=	Off
#Autofocus=	Off
#Macrospot=	Off
#AutoExposure=	Off
#Spike filter=	Multiple accum.
#Delay time (s)=	0
#Binning=	1
#Readout mode=	Signal
#DeNoise=	Off
#ICS correction=	On
#Dark correction=	Off
#Inst. Process=	Off
#Detector Gain=	Best Dynamic Range
#Detector ADC=	20 kHz       
#Detector temperature (°C)=	-69.85
#Instrument=	LabRAM HR Evol
#Detector=	Synapse
#Objective=	x100
#Grating=	600 gr/mm
#ND Filter=	100%
#Laser (nm)=	532 
#Hole=	100.021
#Range=	Auto
#Laser Pol.=	No
#Raman. Pol.=	No
#Laser Pol. (°)=	-0.0007625
#Raman Pol. (°)=	89.9995
#Collection=	Microscope
#StageXY=	Marzhauser
#StageZ=	Marzhauser
#X (µm)=	8999.8
#Y (µm)=	-3087.6
#Z (µm)=	-55.8
#Full time(mm:ss)=	3:05
#Project=	
#Sample=	
#Site=	
#Title=	Thy_00_07_1_2x_45s_532 nm_x100_100%_600 gr_mm
#Remark=	
#Date=	28.06.2022 09:53
#Acquired=	28.06.2022 09:53:41
#Edit:Spike=	28.06.2022 09:54:32
#Base:Fit=	10.08.2022 10:07:56
#Base:Sub=	10.08.2022 10:08:40
#Filter:Polynom=	16.08.2022 10:26:06
#AxisType[0]=Intens
#AxisUnit[0]=Cnt
#AxisType[1]=Spectr
#AxisUnit[1]=1/cm
200.407	77.9174
202.221	67.1048
204.035	59.9827
205.849	52.885
207.665	47.2471
209.478	42.8286
211.291	39.2726
213.104	36.2227
214.916	34.1748
216.73	31.2654
218.541	28.7774
220.352	27.2532
222.163	24.961
223.973	23.3384
225.785	21.3736
227.595	19.4107
229.404	16.8897
231.213	16.2267
233.022	15.7433
234.83	13.9453
236.638	12.7747
238.448	11.3769
240.255	10.567
242.062	9.57905
243.868	9.58175
245.675	9.41025
247.48	8.66757
249.286	8.31363
251.091	8.19846
252.896	8.19627
254.702	7.59837
256.506	7.41208
258.31	7.51658
260.113	7.45259
261.916	8.10468
263.719	9.33155
265.521	8.99324
267.323	8.70288
269.125	7.20623
270.926	6.14442
272.727	4.65298
274.527	4.58826
276.328	3.78546
278.127	2.47864
279.927	1.43598
281.726	0.970502
283.525	1.14866
285.323	1.36802
287.121	1.66359
288.919	2.00274
290.716	1.67352
292.513	3.16403
294.31	3.61665
296.104	4.52281
297.9	5.0071
299.696	4.42592
301.491	4.59641
303.286	5.48933
305.081	5.69155
306.875	5.46316
308.669	5.14215
310.463	4.94269
312.256	4.93913
314.047	4.94874
315.839	4.68041
317.631	5.12983
319.423	5.03965
321.215	7.10017
323.006	7.23418
324.794	6.76872
326.585	7.13193
328.375	6.63957
330.165	6.88525
331.954	6.83443
333.741	7.09897
335.53	7.53944
337.318	6.61189
339.106	6.22487
340.894	6.01425
342.679	5.9129
344.466	5.74477
346.253	5.97098
348.039	6.72191
349.823	6.87824
351.608	6.83463
353.393	6.2881
355.176	4.80359
356.961	4.2895
358.745	2.87675
360.529	3.33852
362.31	2.40249
364.093	2.89714
365.876	1.93518
367.657	2.30886
369.439	3.20958
371.221	3.65311
373	3.36466
374.781	3.37387
376.56	3.65059
378.34	2.43868
380.12	2.14167
381.898	3.18784
383.677	3.14836
385.456	2.95351
387.233	2.52745
389.011	2.41997
390.787	3.49947
392.565	3.58504
394.34	3.22652
396.117	3.12239
397.894	1.68184
399.668	2.70985
401.444	3.106
403.217	2.44871
404.993	3.09556
406.766	3.74283
408.54	4.20645
410.312	5.06692
412.086	4.51214
413.858	3.77735
415.631	3.21727
417.402	2.85988
419.174	3.39924
420.944	3.64341
422.716	3.89828
424.486	3.50828
426.257	2.40264
428.025	1.79751
429.794	1.44034
431.564	0.822054
433.332	-0.0787409
435.101	-1.5183
436.868	-1.42285
438.637	-1.67109
440.403	-1.80874
442.169	-1.76383
443.937	-1.06581
445.703	0.103057
447.468	1.97411
449.234	3.77283
450.999	5.64488
452.765	8.70575
454.528	10.2643
456.292	11.7201
458.057	14.3588
459.819	15.9314
461.582	17.9059
463.344	19.9127
465.107	21.8346
466.868	23.094
468.629	25.3199
470.392	27.3428
472.152	29.3186
473.912	30.9424
475.672	32.254
477.433	34.7372
479.192	36.8954
480.951	38.261
482.709	39.4373
484.469	40.9926
486.226	42.2231
487.984	44.4355
489.74	45.4107
491.499	45.4227
493.255	46.0524
495.011	46.7658
496.767	47.1621
498.522	46.5063
500.277	45.8011
502.033	45.3251
503.788	44.3554
505.541	42.8921
507.295	41.9416
509.048	40.3728
510.801	38.7119
512.553	36.4804
514.308	35.5784
516.06	33.4333
517.811	31.5678
519.562	29.5633
521.313	28.2899
523.063	27.5442
524.814	26.7725
526.563	26.1125
528.313	25.2398
530.062	24.9188
531.811	24.8187
533.559	24.611
535.308	24.3094
537.055	22.9818
538.803	23.5027
540.55	22.9608
542.297	20.594
544.043	20.0601
545.789	20.2222
547.535	19.8929
549.281	19.6449
551.026	19.1935
552.771	19.5033
554.515	18.4626
556.259	17.9315
558.003	18.7644
559.747	18.6163
561.49	18.5578
563.233	18.7056
564.975	18.8037
566.717	18.9519
568.459	17.8699
570.2	16.8501
571.942	17.0232
573.68	15.9397
575.421	15.4097
577.161	13.9787
578.901	12.7474
580.64	12.4493
582.379	12.4354
584.118	10.8888
585.855	9.89991
587.593	9.10456
589.331	8.23866
591.068	7.19689
592.805	7.28988
594.54	7.17969
596.277	6.20613
598.013	5.87602
599.749	5.489
601.484	5.60667
603.217	5.19284
604.952	5.36675
606.687	5.0516
608.421	5.88972
610.153	5.55981
611.886	4.71809
613.619	4.67338
615.35	4.18533
617.083	3.74373
618.815	3.07117
620.547	2.70066
622.276	3.50984
624.008	4.38051
625.738	5.19734
627.467	5.20927
629.197	4.97916
630.927	6.3495
632.655	7.61901
634.384	8.40795
636.113	8.32482
637.839	9.84157
639.568	11.2148
641.293	11.8588
643.021	12.8132
644.748	13.7059
646.473	14.2551
648.2	14.5812
649.924	15.1302
651.65	15.9267
653.376	17.0472
655.099	16.7654
656.824	18.2524
658.546	19.3425
660.271	19.338
661.993	19.443
663.716	19.8254
665.438	20.5055
667.161	20.9612
668.881	21.8582
670.604	22.551
672.324	24.0197
674.045	24.6107
675.765	25.5437
677.486	27.6379
679.204	28.3395
680.925	28.6998
682.643	29.4585
684.361	31.1813
686.08	32.0096
687.797	33.4209
689.516	34.4358
691.232	35.7713
692.95	36.2339
694.666	37.6497
696.382	36.6571
698.099	36.283
699.813	36.7333
701.528	37.992
703.244	37.7303
704.958	38.431
706.673	39.183
708.387	40.5543
710.099	40.9299
711.814	40.4999
713.526	41.4216
715.238	42.8238
716.949	43.6432
718.663	44.8959
720.374	44.9724
722.084	45.9036
723.796	47.3508
725.506	48.594
727.216	48.7273
728.925	49.6003
730.636	49.7263
732.345	50.6331
734.053	52.2466
735.761	54.0773
737.471	54.9757
739.178	56.9608
740.885	57.8552
742.592	60.2808
744.298	61.7761
746.006	63.9922
747.712	66.2984
749.417	69.6059
751.122	71.642
752.827	74.1302
754.532	76.0662
756.236	78.3341
757.942	80.2533
759.645	82.3202
761.348	83.943
763.051	85.7736
764.753	85.9871
766.456	87.1223
768.158	87.2611
769.859	88.2374
771.56	89.7136
773.261	91.4066
774.964	92.4745
776.664	93.2732
778.364	92.9965
780.064	93.3995
781.763	92.7822
783.462	92.8647
785.16	93.5709
786.859	93.5541
788.557	91.5054
790.255	92.5457
791.952	92.4693
793.649	92.906
795.346	92.4519
797.042	92.5129
798.738	93.1184
800.434	92.3817
802.127	91.3754
803.823	90.348
805.517	90.4675
807.212	90.4977
808.906	89.4509
810.6	88.8706
812.293	87.8194
813.987	88.4613
815.68	89.0651
817.372	90.7349
819.064	91.8156
820.754	92.8645
822.446	95.5518
824.137	96.9354
825.828	97.5876
827.519	99.4694
829.209	101.268
830.897	102.948
832.587	103.768
834.276	105.507
835.966	105.794
837.654	106.274
839.341	107.195
841.029	107.907
842.717	108.347
844.404	107.896
846.091	107.245
847.776	106.489
849.463	104.748
851.149	104.327
852.833	102.371
854.519	101.326
856.204	100.6
857.889	98.087
859.572	96.5613
861.256	94.5954
862.94	92.7579
864.622	91.4474
866.305	89.4125
867.988	87.1296
869.669	85.8377
871.351	83.2892
873.033	81.8347
874.713	80.9192
876.395	79.022
878.074	77.9224
879.755	76.1686
881.435	75.0593
883.114	72.4521
884.794	69.9873
886.471	69.5011
888.15	67.5918
889.829	67.3949
891.506	65.2075
893.184	63.8101
894.861	63.8148
896.538	64.7535
898.214	65.8912
899.891	66.1555
901.566	66.2785
903.242	66.4933
904.916	68.2747
906.592	69.5684
908.266	70.0173
909.941	72.3262
911.614	73.9335
913.288	76.2087
914.961	76.9843
916.635	78.6618
918.306	80.4398
919.979	81.3735
921.651	82.255
923.321	83.6074
924.994	82.6904
926.664	82.7819
928.336	82.3242
930.005	81.4368
931.674	80.8513
933.345	79.8378
935.014	78.5116
936.682	77.4242
938.352	77.1831
940.019	76.9069
941.687	75.6607
943.356	74.7002
945.022	72.9088
946.689	70.9992
948.357	69.3626
950.022	68.2366
951.688	66.6732
953.355	65.7452
955.02	64.6622
956.684	63.073
958.348	60.1622
960.014	57.1513
961.678	54.5539
963.341	53.2412
965.004	52.6989
966.669	51.9517
968.331	52.0634
969.993	52.7125
971.655	51.9217
973.316	52.1244
974.979	52.1914
976.64	52.911
978.3	53.5576
979.961	54.2056
981.62	54.3582
983.28	55.0808
984.941	54.9231
986.6	55.4193
988.259	56.7734
989.917	57.1478
991.575	58.038
993.233	58.6468
994.89	58.7222
996.547	60.1904
998.204	60.4063
999.86	61.557
1001.52	61.6384
1003.17	61.6843
1004.83	61.9698
1006.49	62.8843
1008.14	63.1811
1009.79	64.6347
1011.45	64.8929
1013.1	65.4743
1014.76	66.6754
1016.41	67.0358
1018.06	67.5874
1019.72	69.5344
1021.37	68.3728
1023.02	68.0026
1024.67	66.6466
1026.32	65.9993
1027.97	66.0801
1029.62	64.822
1031.27	64.5477
1032.92	63.6466
1034.57	61.4344
1036.22	59.6319
1037.87	57.4271
1039.52	55.7447
1041.17	55.3424
1042.82	55.8366
1044.47	57.2862
1046.11	59.0378
1047.76	59.9493
1049.41	60.1809
1051.06	60.1704
1052.7	59.9549
1054.35	60.0412
1055.99	60.245
1057.64	59.8103
1059.28	59.4229
1060.93	58.7551
1062.57	57.8547
1064.22	57.3638
1065.86	56.5192
1067.5	55.9756
1069.15	56.2719
1070.79	56.7333
1072.43	56.8648
1074.08	58.4293
1075.72	57.9155
1077.36	58.3525
1079	58.8329
1080.64	58.4477
1082.28	59.3375
1083.92	60.4509
1085.56	61.3828
1087.2	62.4322
1088.84	63.2232
1090.48	64.5027
1092.12	64.934
1093.76	66.1876
1095.39	68.3602
1097.03	69.7027
1098.67	70.7635
1100.31	71.0339
1101.94	70.8249
1103.58	70.5576
1105.22	70.8196
1106.85	70.2891
1108.49	70.7716
1110.12	70.2884
1111.76	68.3352
1113.39	67.5891
1115.03	66.0864
1116.66	64.1272
1118.29	63.8325
1119.93	63.8108
1121.56	64.06
1123.19	63.2773
1124.82	61.3225
1126.46	60.0238
1128.09	58.0814
1129.72	57.1447
1131.35	55.1985
1132.98	53.4348
1134.61	51.4729
1136.24	49.8287
1137.87	47.8747
1139.5	47.0744
1141.13	45.556
1142.76	43.9044
1144.39	42.2661
1146.01	40.6719
1147.64	38.6133
1149.27	36.8492
1150.9	34.5497
1152.53	32.6374
1154.15	29.7448
1155.78	27.8587
1157.4	23.9528
1159.03	22.4254
1160.65	19.5707
1162.28	18.3943
1163.9	17.4952
1165.53	16.0847
1167.15	14.7238
1168.78	14.6289
1170.4	14.8372
1172.02	15.5302
1173.65	15.6187
1175.27	16.8719
1176.89	17.1053
1178.51	17.7409
1180.14	17.1159
1181.76	17.5057
1183.38	17.9481
1185	19.4815
1186.62	19.6836
1188.24	20.187
1189.86	20.4684
1191.48	21.3964
1193.1	22.4251
1194.71	23.3967
1196.33	24.0061
1197.95	24.9552
1199.57	27.7095
1201.19	29.7074
1202.8	31.4013
1204.42	32.9037
1206.04	35.0158
1207.65	37.6265
1209.27	39.6113
1210.88	42.9899
1212.5	45.8822
1214.12	48.9506
1215.73	51.531
1217.35	54.7293
1218.96	58.7364
1220.57	62.1885
1222.19	64.418
1223.8	67.8334
1225.41	70.8855
1227.03	73.1608
1228.64	74.9791
1230.25	76.6286
1231.86	78.6269
1233.47	80.4253
1235.08	82.3619
1236.69	84.716
1238.31	85.5671
1239.92	87.9383
1241.52	89.2395
1243.13	90.6597
1244.74	91.4372
1246.35	91.826
1247.96	92.4738
1249.57	93.1697
1251.18	92.9104
1252.78	92.1833
1254.39	91.1577
1256	90.7678
1257.6	90.1486
1259.21	89.5711
1260.82	86.5406
1262.42	85.8962
1264.03	84.2625
1265.63	83.5226
1267.24	82.538
1268.84	80.9457
1270.45	79.4843
1272.05	78.4733
1273.65	77.0386
1275.26	75.2777
1276.86	74.5125
1278.46	73.6875
1280.06	73.3926
1281.67	73.3959
1283.27	73.3302
1284.87	74.0588
1286.47	74.5515
1288.07	74.5824
1289.67	75.5872
1291.27	76.9333
1292.87	78.9621
1294.47	80.6855
1296.07	82.106
1297.67	85.103
1299.27	87.9181
1300.87	90.0701
1302.47	92.7891
1304.06	95.9067
1305.66	98.3539
1307.26	100.781
1308.85	102.888
1310.45	105.585
1312.05	108.945
1313.64	112.999
1315.24	115.626
1316.83	118.532
1318.43	120.9
1320.02	122.984
1321.62	124.517
1323.21	125.616
1324.8	127.32
1326.4	127.769
1327.99	128.607
1329.59	128.716
1331.18	128.989
1332.77	129.305
1334.36	129.383
1335.95	129.971
1337.54	129.55
1339.14	127.908
1340.73	126.438
1342.32	127.354
1343.91	126.921
1345.5	125.644
1347.09	123.644
1348.67	121.865
1350.26	119.959
1351.85	118.276
1353.44	116.551
1355.03	114.346
1356.62	111.783
1358.2	109.941
1359.79	108.864
1361.38	107.22
1362.96	105.444
1364.55	102.825
1366.14	100.208
1367.72	98.5162
1369.31	97.5063
1370.89	95.5954
1372.48	93.7658
1374.06	91.2335
1375.64	89.096
1377.23	87.8833
1378.81	86.2406
1380.39	84.8706
1381.98	83.5347
1383.56	83.7726
1385.14	83.6483
1386.72	83.2945
1388.3	82.3785
1389.89	81.8362
1391.47	81.5745
1393.05	79.9873
1394.63	78.0652
1396.21	77.5606
1397.79	75.9522
1399.37	74.4003
1400.95	72.9325
1402.52	71.9152
1404.1	70.4248
1405.68	69.0552
1407.26	68.9203
1408.84	69.116
1410.42	69.109
1411.99	69.8803
1413.57	70.4035
1415.15	71.4642
1416.72	72.4554
1418.3	73.2129
1419.87	75.2619
1421.45	78.4163
1423.02	81.2046
1424.6	84.4168
1426.17	87.3841
1427.75	91.7306
1429.32	94.1315
1430.89	97.7792
1432.47	101.454
1434.04	105.138
1435.61	108.57
1437.18	112.457
1438.76	115.473
1440.33	119.059
1441.9	121.306
1443.47	123.289
1445.04	125.684
1446.61	128.206
1448.18	128.42
1449.75	128.541
1451.32	129.585
1452.89	129.353
1454.46	129.616
1456.03	128.451
1457.6	127.113
1459.16	125.133
1460.73	123.721
1462.3	121.752
1463.87	118.286
1465.43	114.79
1467	110.469
1468.56	105.136
1470.13	101.272
1471.7	96.7587
1473.26	92.9062
1474.83	87.6677
1476.39	82.9589
1477.96	77.6898
1479.52	72.1182
1481.08	66.958
1482.65	61.3744
1484.21	57.0655
1485.77	52.9696
1487.34	48.5121
1488.9	44.039
1490.46	40.373
1492.02	37.044
1493.58	33.9266
1495.15	31.7592
1496.71	29.931
1498.27	28.9341
1499.83	29.026
1501.39	27.7052
1502.95	26.2268
1504.51	25.035
1506.07	25.5188
1507.63	24.5457
1509.18	24.9099
1510.74	24.354
1512.3	23.8819
1513.86	23.473
1515.41	23.6665
1516.97	24.6833
1518.53	25.5412
1520.08	23.9953
1521.64	25.2874
1523.2	25.4234
1524.75	26.3463
1526.31	25.6926
1527.86	27.7521
1529.42	28.9106
1530.97	29.3135
1532.52	30.5613
1534.08	30.5383
1535.63	31.9388
1537.19	33.4966
1538.74	34.7573
1540.29	36.0756
1541.84	38.6443
1543.4	40.2429
1544.95	41.2348
1546.5	42.9038
1548.05	45.889
1549.6	47.2704
1551.15	48.9986
1552.7	50.5699
1554.25	53.0915
1555.8	54.4744
1557.35	56.2289
1558.9	58.8437
1560.45	61.418
1562	64.8264
1563.54	66.5324
1565.09	68.2774
1566.64	70.0266
1568.19	72.2471
1569.73	75.1316
1571.28	77.1289
1572.83	78.9704
1574.37	79.9034
1575.92	80.8077
1577.47	82.4201
1579.01	82.2935
1580.56	83.2439
1582.1	85.5247
1583.64	85.842
1585.19	86.546
1586.73	87.3845
1588.28	87.1565
1589.82	87.5554
1591.36	88.6594
1592.9	89.409
1594.45	89.1131
1595.99	88.0852
1597.53	87.6796
1599.07	88.0204
1600.61	86.5766
1602.15	86.5031
1603.69	85.2385
1605.23	84.6874
1606.77	83.9266
1608.31	83.4346
1609.85	81.7111
1611.39	79.2426
1612.93	78.6506
1614.47	78.7909
1616.01	77.5197
1617.55	77.9827
1619.08	78.5482
1620.62	77.9886
1622.16	78.1657
1623.7	78.5762
1625.23	78.0306
1626.77	78.4558
1628.3	79.6567
1629.84	80.4651
1631.37	82.3769
1632.91	82.9773
1634.44	83.497
1635.98	85.1025
1637.51	86.2903
1639.05	87.7423
1640.58	87.6953
1642.11	88.9769
1643.65	90.5042
1645.18	91.6238
1646.71	92.3784
1648.24	93.3328
1649.78	93.4859
1651.31	94.1926
1652.84	95.0338
1654.37	97.041
1655.9	98.1216
1657.43	99.6568
1658.96	101.018
1660.49	100.174
1662.02	100.614
1663.55	99.7348
1665.08	98.4667
1666.61	97.9227
1668.14	95.7192
1669.66	94.2029
1671.19	91.8553
1672.72	89.94
1674.25	88.1677
1675.77	85.422
1677.3	82.6302
1678.83	80.5004
1680.35	77.684
1681.88	74.4587
1683.4	71.4869
1684.93	67.6184
1686.45	63.2893
1687.98	59.8654
1689.5	57.9411
1691.03	55.7153
1692.55	52.0739
1694.07	50.3285
1695.6	46.7359
1697.12	43.5558
1698.64	39.5074
1700.17	36.6918
1701.69	34.154
1703.21	32.8921
1704.73	30.3355
1706.25	27.5202
1707.77	25.235
1709.29	23.1616
1710.81	21.8049
1712.33	20.7759
1713.85	19.3674
1715.37	17.742
1716.89	16.266
1718.41	15.5379
1719.93	14.7815
1721.45	14.1319
1722.97	13.2585
1724.49	13.016
1726	12.4441
1727.52	12.6883
1729.04	12.7335
1730.55	12.5704
1732.07	11.7177
1733.59	11.1662
1735.1	10.6137
1736.62	10.2173
1738.13	9.72328
1739.65	9.10241
1741.16	8.56504
1742.68	8.64727
1744.19	8.29708
1745.7	8.54978
1747.22	7.54023
1748.73	7.25835
1750.24	7.1123
1751.76	6.79149
1753.27	5.7411
1754.78	4.93897
1756.29	4.17147
1757.8	3.42277
1759.31	3.35756
1760.83	2.91418
1762.34	2.47696
1763.85	2.31879
1765.36	2.70966
1766.87	2.42855
1768.38	2.08633
1769.89	2.37038
1771.39	1.78541
1772.9	2.03482
1774.41	1.20471
1775.92	1.86189
1777.43	1.93814
1778.94	2.16445
1780.44	2.05368
1781.95	2.63863
1783.46	3.198
1784.96	3.72925
1786.47	3.80348
1787.97	4.08879
1789.48	4.21547
1790.99	4.97962
1792.49	4.94153
1794	5.25932
1795.5	5.33518
1797	5.96719
1798.51	5.80282
1800.01	6.00671
1801.51	6.09693
1803.02	6.12866
1804.52	5.83
1806.02	5.71211
1807.53	6.3008
1809.03	6.5625
1810.53	6.77466
1812.03	6.73808
1813.53	6.74538
1815.03	6.88385
1816.53	6.0725
1818.03	5.95845
1819.53	5.50796
1821.03	4.79866
1822.53	4.54236
1824.03	4.9645
1825.53	4.29135
1827.03	4.08834
1828.53	3.14912
1830.02	2.90987
1831.52	3.10793
1833.02	3.18128
1834.52	3.11557
1836.01	2.96628
1837.51	3.23601
1839.01	3.43531
1840.5	4.17691
1842	4.03361
1843.49	4.34164
1844.99	4.44466
1846.48	4.46227
1847.98	3.97076
1849.47	3.9523
1850.97	4.45991
1852.46	4.8631
1853.95	4.88094
1855.45	5.09541
1856.94	5.57467
1858.43	5.68817
1859.93	5.42223
1861.42	5.43886
1862.91	4.57608
1864.4	4.61166
1865.89	4.14743
1867.38	3.229
1868.87	3.38458
1870.36	3.03611
1871.85	3.15184
1873.34	2.9065
1874.83	3.1564
1876.32	3.96763
1877.81	4.1697
1879.3	3.79687
1880.79	3.44416
1882.28	3.33921
1882.52	3.19385
1884.02	3.33517
1885.51	3.65345
1887.01	3.86276
1888.5	3.29184
1889.99	3.31939
1891.49	3.07683
1892.98	2.99116
1894.47	2.60514
1895.97	3.34268
1897.46	3.35201
1898.95	3.05646
1900.44	3.75409
1901.93	4.00306
1903.42	4.54944
1904.91	5.03015
1906.4	5.85141
1907.89	5.81815
1909.38	5.90723
1910.87	6.23193
1912.36	6.78838
1913.85	6.6398
1915.34	5.7155
1916.83	5.4402
1918.32	5.97246
1919.8	5.6442
1921.29	5.51157
1922.78	6.47332
1924.27	6.53994
1925.75	6.16275
1927.24	6.0818
1928.73	7.25441
1930.21	6.94693
1931.7	6.03194
1933.18	5.24419
1934.67	5.39358
1936.15	4.14071
1937.64	4.36879
1939.12	4.26943
1940.61	3.8221
1942.09	4.13063
1943.57	4.21156
1945.06	5.07305
1946.54	5.0026
1948.02	5.05423
1949.51	4.91344
1950.99	4.16958
1952.47	3.69984
1953.95	3.49509
1955.43	3.39788
1956.91	3.33563
1958.4	3.65278
1959.88	2.79302
1961.36	2.35229
1962.84	1.62368
1964.32	2.07424
1965.8	1.52991
1967.27	2.02445
1968.75	1.90645
1970.23	2.62781
1971.71	1.89826
1973.19	2.18388
1974.67	2.4686
1976.14	2.34638
1977.62	2.69997
1979.1	2.82266
1980.58	2.65245
1982.05	2.07116
1983.53	2.36061
1985	2.85424
1986.48	2.6106
1987.95	2.61139
1989.43	3.23862
1990.9	4.56022
1992.38	5.09444
1993.85	5.2843
1995.33	5.17247
1996.8	5.32387
1998.27	5.27396
1999.75	4.81657
2001.22	5.75249
2002.69	5.93053
2004.16	5.47747
2005.64	5.68921
2007.11	6.61301
2008.58	6.69055
2010.05	6.82037
2011.52	7.4889
2012.99	7.539
2014.46	6.83736
2015.93	7.75169
2017.4	8.39156
2018.87	8.75833
2020.34	8.5402
2021.81	8.38068
2023.28	8.34158
2024.75	8.00656
2026.22	8.23999
2027.69	8.70541
2029.15	8.83944
2030.62	9.31485
2032.09	9.384
2033.56	8.74733
2035.02	9.84792
2036.49	9.95933
2037.96	10.2147
2039.42	9.92897
2040.89	9.81091
2042.35	9.66206
2043.82	10.2111
2045.28	10.2676
2046.75	10.104
2048.21	10.0961
2049.67	9.48964
2051.14	9.50122
2052.6	8.84669
2054.07	9.03807
2055.53	9.27274
2056.99	9.93475
2058.45	10.6075
2059.92	9.95602
2061.38	10.2534
2062.84	10.4901
2064.3	10.4233
2065.76	9.47805
2067.22	9.63303
2068.68	8.5761
2070.14	8.63883
2071.6	8.08917
2073.06	7.78664
2074.52	8.73498
2075.98	9.51619
2077.44	10.5439
2078.9	11.034
2080.36	10.869
2081.82	9.93727
2083.27	10.3718
2084.73	9.19911
2086.19	8.91569
2087.65	8.75624
2089.1	9.27721
2090.56	8.85799
2092.02	8.35843
2093.47	8.58711
2094.93	8.13745
2096.38	8.12821
2097.84	8.204
2099.29	7.85342
2100.75	7.31619
2102.2	7.51245
2103.66	7.21664
2105.11	6.71673
2106.56	6.68738
2108.02	7.33106
2109.47	7.07102
2110.92	7.39466
2112.38	7.12273
2113.83	6.63039
2115.28	6.75752
2116.73	6.58999
2118.18	5.97661
2119.63	5.52698
2121.09	6.22979
2122.54	6.41401
2123.99	6.717
2125.44	7.41995
2126.89	8.49606
2128.34	7.80855
2129.79	8.39245
2131.23	8.49006
2132.68	8.38084
2134.13	9.08983
2135.58	9.90805
2137.03	8.86944
2138.48	8.30889
2139.92	8.91675
2141.37	8.31674
2142.82	8.63015
2144.27	8.60446
2145.71	10.7554
2147.16	11.4401
2148.6	11.3746
2150.05	10.7471
2151.49	10.4511
2152.94	9.63668
2154.38	9.42483
2155.83	8.65208
2157.27	7.49389
2158.72	7.2383
2160.16	7.26206
2161.6	7.36911
2163.05	7.02345
2164.49	7.51965
2165.93	7.39066
2167.38	6.46904
2168.82	5.80926
2170.26	5.71217
2171.7	5.4598
2173.14	5.59369
2174.58	6.29837
2176.03	5.66745
2177.47	5.68895
2178.91	6.08216
2180.35	6.71593
2181.79	6.39651
2183.23	6.80897
2184.67	6.00718
2186.1	6.52414
2187.54	7.06027
2188.98	6.44264
2190.42	6.28365
2191.86	6.54593
2193.3	6.52095
2194.73	5.84665
2196.17	6.03678
2197.61	5.76693
2199.05	5.74827
2200.48	5.05118
2201.92	6.02382
2203.35	5.71332
2204.79	5.49399
2206.22	4.85288
2207.66	4.74994
2209.1	3.60871
2210.53	4.16957
2211.97	4.63082
2213.4	3.80437
2214.83	4.17831
2216.27	4.2073
2217.7	5.2324
2219.13	3.90984
2220.57	3.34609
2222	4.03472
2223.43	4.35713
2224.86	4.37687
2226.29	4.48887
2227.72	4.88793
2229.16	5.08146
2230.59	5.22107
2232.02	6.02856
2233.45	6.56357
2234.88	7.07562
2236.31	7.42448
2237.74	7.42445
2239.17	7.81234
2240.6	7.91789
2242.03	9.14001
2243.45	9.24836
2244.88	9.18351
2246.31	9.72053
2247.74	9.87097
2249.17	9.63245
2250.59	9.98837
2252.02	10.2733
2253.45	9.72499
2254.87	9.5177
2256.3	9.07222
2257.73	9.23874
2259.15	8.52574
2260.58	7.58881
2262	7.41129
2263.43	7.57393
2264.85	7.41531
2266.28	7.42984
2267.7	7.87989
2269.13	7.37467
2270.55	7.86152
2271.97	7.99126
2273.4	8.12094
2274.82	7.62526
2276.24	7.36389
2277.67	7.53079
2279.09	7.28713
2280.51	6.17822
2281.93	6.56893
2283.35	6.37259
2284.77	6.15704
2286.2	6.79797
2287.62	6.84888
2289.04	6.52631
2290.46	5.60487
2291.88	5.13726
2293.3	5.69858
2294.72	5.26154
2296.13	5.14172
2297.55	5.32532
2298.97	6.22467
2300.39	5.83271
2301.81	5.8935
2303.23	6.22864
2304.64	6.32157
2306.06	6.17698
2307.48	6.37043
2308.89	6.32865
2310.31	6.41334
2311.73	6.14482
2313.14	5.79065
2314.56	5.28114
2315.98	4.47015
2317.39	4.28251
2318.81	3.91316
2320.22	3.2052
2321.64	3.27454
2323.05	3.16023
2324.46	2.86884
2325.88	2.38828
2327.29	2.6456
2328.7	2.88846
2330.12	2.97937
2331.53	3.135
2332.94	3.80047
2334.35	3.90968
2335.77	3.83077
2337.18	3.89598
2338.59	4.33284
2340	4.29001
2341.41	4.38
2342.82	4.6817
2344.23	3.90628
2345.64	3.30957
2347.05	3.57218
2348.46	3.82607
2349.87	3.60331
2351.28	3.51844
2352.69	3.89535
2354.1	3.57436
2355.51	3.71911
2356.91	3.41863
2358.32	3.1601
2359.73	2.68591
2361.14	2.73871
2362.54	2.95992
2363.95	3.80505
2365.36	3.85391
2366.76	4.16719
2368.17	4.44086
2369.58	4.64792
2370.98	4.22517
2372.39	3.74292
2373.79	3.77232
2375.2	3.4387
2376.6	3.37159
2378	3.28359
2379.41	2.743
2380.81	2.76831
2382.22	2.58157
2383.62	1.71501
2385.02	1.7358
2386.43	0.916713
2387.83	1.11314
2389.23	0.691668
2390.63	-0.162266
2392.03	0.266167
2393.44	0.0921215
2394.84	-0.34368
2396.24	-0.431969
2397.64	0.267506
2399.04	0.43204
2400.44	0.447001
2401.84	0.344594
2403.24	0.184513
2404.64	-0.0550357
2406.04	0.164695
2407.44	0.498414
2408.84	0.891794
2410.23	1.28575
2411.63	1.32966
2413.03	1.68157
2414.43	1.60136
2415.83	2.66821
2417.22	4.39375
2418.62	5.12524
2420.02	5.5131
2421.41	5.3803
2422.81	6.21589
2424.21	7.10569
2425.6	7.56533
2427	7.61302
2428.39	8.36348
2429.79	7.8821
2431.18	8.23329
2432.58	9.04093
2433.97	9.21502
2435.36	8.97903
2436.76	9.41042
2438.15	10.1896
2439.54	10.5626
2440.94	10.3529
2442.33	9.99919
2443.72	9.91218
2445.12	9.39379
2446.51	9.58206
2447.9	9.58198
2449.29	9.25601
2450.68	9.29973
2452.07	8.59726
2453.46	8.22154
2454.85	7.42338
2456.24	7.2571
2457.64	6.25478
2459.02	5.79565
2460.41	5.8328
2461.8	6.27664
2463.19	5.58787
2464.58	4.92012
2465.97	4.95931
2467.36	5.03858
2468.75	4.81089
2470.13	4.94725
2471.52	4.89792
2472.91	5.14417
2474.3	5.06578
2475.68	4.42936
2477.07	3.95866
2478.45	4.07595
2479.84	3.88142
2481.23	3.20705
2482.61	3.20483
2484	3.19047
2485.38	3.92256
2486.77	3.66023
2488.15	2.5939
2489.54	1.94133
2490.92	1.57475
2492.3	1.99688
2493.69	2.02874
2495.07	1.43447
2496.45	1.30717
2497.84	1.18785
2499.22	0.938216
2500.6	1.17361
2501.98	0.868028
2503.36	0.800446
2504.75	1.70877
2506.13	2.60061
2507.51	2.6561
2508.89	2.40222
2510.27	2.31633
2511.65	2.48669
2513.03	2.51995
2514.41	2.56081
2515.79	2.9734
2517.17	3.22098
2518.55	2.53903
2519.93	2.87209
2521.3	2.56588
2522.68	2.38608
2524.06	2.17565
2525.44	2.90954
2526.82	2.48472
2528.19	2.87699
2529.57	2.93239
2530.95	2.54212
2532.32	2.18553
2533.7	2.50919
2535.08	3.32771
2536.45	3.66217
2537.83	3.83461
2539.2	4.03989
2540.58	3.57511
2541.95	3.74384
2543.33	3.6394
2544.7	3.18861
2546.08	3.35073
2547.45	3.38581
2548.82	2.65213
2550.2	2.61547
2551.57	2.83017
2552.94	3.29366
2554.32	3.83409
2555.69	3.81837
2557.06	4.24528
2558.43	4.63949
2559.8	4.85233
2561.18	5.36944
2562.55	5.61279
2563.92	5.48684
2565.29	5.98474
2566.66	6.52104
2568.03	6.92306
2569.4	7.02322
2570.77	7.66874
2572.14	7.6536
2573.51	7.96319
2574.88	7.32072
2576.25	6.79252
2577.61	6.82143
2578.98	6.7214
2580.35	6.56096
2581.72	6.87016
2583.09	6.93999
2584.45	6.55783
2585.82	6.25268
2587.19	5.65651
2588.55	5.80628
2589.92	4.92633
2591.29	4.66003
2592.65	4.94548
2594.02	4.87642
2595.38	3.92519
2596.75	3.69161
2598.11	3.26058
2599.48	3.12685
2600.84	3.20006
2602.21	3.19593
2603.57	2.83214
2604.93	2.72895
2606.3	2.79004
2607.66	2.98746
2609.02	3.06798
2610.39	4.04066
2611.75	3.85346
2613.11	3.89881
2614.47	4.76774
2615.83	4.94443
2617.19	5.64299
2618.56	6.04687
2619.92	6.36038
2621.28	6.96928
2622.64	6.86653
2624	7.38665
2625.36	7.75069
2626.72	7.86082
2628.08	8.64879
2629.44	8.97811
2630.8	9.2176
2632.15	9.1628
2633.51	9.68881
2634.87	10.7765
2636.23	10.3917
2637.59	10.6244
2638.94	10.7062
2640.3	10.2755
2641.66	10.3747
2643.02	10.0272
2644.37	10.1346
2645.73	10.3502
2647.09	10.112
2648.44	10.0115
2649.8	10.6925
2651.15	10.9567
2652.51	10.6245
2653.86	10.7352
2655.22	10.8691
2656.57	11.0597
2657.93	10.5531
2659.28	10.8739
2660.63	10.9583
2661.99	10.445
2663.34	9.58407
2664.69	9.19042
2666.05	9.00755
2667.4	9.0826
2668.75	8.53808
2670.1	8.00824
2671.45	7.92927
2672.81	7.90011
2674.16	7.79278
2675.51	7.1805
2676.86	7.63926
2678.21	7.78198
2679.56	7.38966
2680.91	7.43872
2682.26	7.18592
2683.61	6.51897
2684.96	6.12597
2686.31	5.68735
2687.66	5.53043
2689	5.84175
2690.35	5.78692
2691.7	6.21511
2693.05	6.44863
2694.4	6.57329
2695.74	7.15677
2697.09	6.75621
2698.44	7.06115
2699.79	6.91232
2701.13	7.51296
2702.48	7.93226
2703.83	7.60628
2705.17	8.10253
2706.52	7.898
2707.86	8.47889
2709.21	8.82428
2710.55	9.52957
2711.9	10.543
2713.24	11.644
2714.58	12.61
2715.93	13.9431
2717.27	15.2705
2718.62	15.6773
2719.96	16.0648
2721.3	16.7238
2722.65	17.7351
2723.99	18.3975
2725.33	18.4165
2726.67	19.5895
2728.01	19.7701
2729.35	19.8808
2730.7	20.1759
2732.04	19.804
2733.38	20.3283
2734.72	20.0939
2736.06	19.8566
2737.4	19.7535
2738.74	20.509
2740.08	20.7409
2741.42	20.9798
2742.76	21.0297
2744.1	21.8227
2745.43	21.1664
2746.77	20.8457
2748.11	20.3299
2749.45	20.2117
2750.79	20.2887
2752.12	19.9915
2753.46	19.3649
2754.8	18.3525
2756.14	17.5874
2757.47	16.9435
2758.81	15.7177
2760.14	14.6429
2761.48	13.8865
2762.81	13.1411
2764.15	11.5146
2765.49	10.6768
2766.82	9.85127
2768.16	9.92642
2769.49	9.48198
2770.82	8.73865
2772.16	8.08033
2773.49	7.1683
2774.82	7.12833
2776.16	6.08409
2777.49	5.18207
2778.82	5.15396
2780.16	4.80581
2781.49	4.02805
2782.82	3.65402
2784.15	3.1214
2785.48	2.52796
2786.82	2.21201
2788.15	2.14384
2789.48	2.33427
2790.81	1.4002
2792.14	1.20914
2793.47	1.6945
2794.8	0.864353
2796.13	0.845445
2797.46	0.371001
2798.79	0.260394
2800.12	0.522168
2801.44	0.577421
2802.77	0.930438
2804.1	1.24308
2805.43	1.99587
2806.76	1.86545
2808.08	1.91236
2809.41	1.66185
2810.74	1.88022
2812.07	2.2714
2813.39	3.23589
2814.72	4.11371
2816.05	5.54081
2817.37	6.55773
2818.7	7.13315
2820.02	8.3297
2821.35	9.97976
2822.67	12.6467
2824	14.7761
2825.32	17.757
2826.65	21.016
2827.97	24.9666
2829.3	28.103
2830.62	31.0635
2831.94	34.3471
2833.26	37.6697
2834.59	41.6802
2835.91	45.0366
2837.23	48.638
2838.56	52.6593
2839.88	56.7935
2841.2	62.459
2842.52	67.4583
2843.84	72.6488
2845.16	79.3482
2846.48	85.8158
2847.8	92.9807
2849.12	100.728
2850.45	108.722
2851.77	116.729
2853.08	124.669
2854.4	133.402
2855.72	141.222
2857.04	149.457
2858.36	158.194
2859.68	166.44
2861	175.085
2862.32	183.126
2863.63	191.219
2864.95	199.71
2866.27	208.494
2867.59	216.392
2868.9	224.219
2870.22	231.976
2871.54	240.858
2872.85	248.91
2874.17	257.057
2875.48	265.115
2876.8	273.835
2878.11	281.867
2879.43	289.889
2880.74	297.133
2882.06	304.549
2883.37	311.89
2884.69	318.345
2886	325.436
2887.31	331.514
2888.63	338.939
2889.94	345.224
2891.25	352.036
2892.57	357.22
2893.88	363.176
2895.19	368.507
2896.5	373.679
2897.82	379.358
2899.13	385.895
2900.44	392.345
2901.75	397.777
2903.06	404.445
2904.37	410.7
2905.68	417.82
2906.99	424.498
2908.3	431.098
2909.61	437.98
2910.92	445.79
2912.23	452.699
2913.54	460.272
2914.85	466.543
2916.16	472.607
2917.46	478.28
2918.77	482.418
2920.08	487.164
2921.39	490.767
2922.7	494.085
2924	496.484
2925.31	498.356
2926.62	499.88
2927.92	499.791
2929.23	500.327
2930.54	499.512
2931.84	498.858
2933.15	496.08
2934.45	493.915
2935.76	491.517
2937.06	488.324
2938.37	483.887
2939.67	478.344
2940.98	472.221
2942.28	465.902
2943.58	458.448
2944.89	451.22
2946.19	443.915
2947.49	435.459
2948.8	426.654
2950.1	417.587
2951.4	409.734
2952.7	401.038
2954.01	393.139
2955.31	384.217
2956.61	375.141
2957.91	366.189
2959.21	357.966
2960.51	349.724
2961.81	340.898
2963.11	332.682
2964.41	323.775
2965.71	314.809
2967.01	305.85
2968.31	298.054
2969.61	289.212
2970.91	280.903
2972.21	272.396
2973.51	264.356
2974.81	255.951
2976.1	247.087
2977.4	238.46
2978.7	230.205
2980	221.418
2981.29	212.548
2982.59	204.115
2983.89	194.82
2985.18	186.948
2986.48	177.951
2987.78	169.131
2989.07	160.605
2990.37	152.474
2991.66	144.211
2992.96	136.114
2994.25	127.59
2995.55	119.414
2996.84	112.047
2998.14	103.787
2999.43	96.4958
3000.73	89.8333
3002.02	82.4355
3003.31	75.8065
3004.61	69.0381
3005.9	63.0228
3007.19	57.159
3008.48	51.568
3009.77	46.3723
3011.07	41.8145
3012.36	36.4139
3013.65	33.1132
3014.94	29.8613
3016.23	26.7794
3017.52	23.9782
3018.81	21.249
3020.1	18.9141
3021.4	16.106
3022.68	13.8347
3023.97	12.0964
3025.26	10.0662
3026.55	7.81652
3027.84	6.09854
3029.13	4.70261
3030.42	3.88623
3031.71	2.85977
3033	1.79023
3034.28	0.831799
3035.57	0.720148
3036.86	1.02053
3038.15	0.916251
3039.43	1.3655
3040.72	1.36533
3042.01	2.66569
3043.29	3.31899
3044.58	4.38784
3045.87	5.27627
3047.15	6.30514
3048.44	6.92904
3049.72	8.2313
3051.01	8.51968
3052.29	8.68326
3053.58	9.05882
3054.86	10.0342
3056.15	10.3565
3057.43	10.5866
3058.71	10.431
3060	10.8099
3061.28	10.7972
3062.56	10.7488
3063.84	10.9503
3065.13	10.7238
3066.41	9.71945
3067.69	9.56095
3068.97	9.29694
3070.26	8.70748
3071.54	8.22361
3072.82	7.9595
3074.1	7.63806
3075.38	7.30295
3076.66	6.29516
3077.94	5.57197
3079.22	4.59409
3080.5	3.79816
3081.78	3.39357
3083.06	2.05019
3084.34	1.84918
3085.62	0.826688
3086.9	0.50717
3088.18	-0.168334
3089.45	-1.00511
3090.73	-0.972897
3092.01	-0.921012
3093.29	-0.713607
3094.56	-0.0128031
3095.84	0.271743
3097.12	0.758827
3098.4	1.69071
3099.67	2.568
3100.95	2.86632
3102.22	3.27809
3103.5	4.06526
3104.78	4.6936
3106.05	5.50287
3107.33	6.09789
3108.6	7.35649
3109.88	8.09825
3111.15	9.05535
3112.43	9.7483
3113.7	10.1802
3114.97	10.9639
3116.25	11.8334
3117.52	13.1496
3118.79	14.3717
3120.07	14.8374
3121.34	15.3928
3122.61	16.1609
3123.88	17.1472
3125.16	18.0976
3126.43	18.988
3127.7	19.6803
3128.97	20.2621
3130.24	21.2708
3131.51	22.599
3132.79	23.7307
3134.06	24.2571
3135.33	24.8052
3136.6	25.3947
3137.87	25.8412
3139.14	26.19
3140.41	26.8737
3141.67	27.8539
3142.94	28.8892
3144.21	29.6958
3145.48	30.3803
3146.75	31.3414
3148.02	31.2138
3149.29	33.4954
