#Acq. time (s)=	45
#Accumulations=	2
#Range (cm-¹)=	200...3150
#Windows=	2
#Auto scanning=	Off
#Autofocus=	Off
#Macrospot=	Off
#AutoExposure=	Off
#Spike filter=	Multiple accum.
#Delay time (s)=	0
#Binning=	1
#Readout mode=	Signal
#DeNoise=	Off
#ICS correction=	On
#Dark correction=	Off
#Inst. Process=	Off
#Detector Gain=	Best Dynamic Range
#Detector ADC=	20 kHz       
#Detector temperature (°C)=	-69.85
#Instrument=	LabRAM HR Evol
#Detector=	Synapse
#Objective=	x100
#Grating=	600 gr/mm
#ND Filter=	100%
#Laser (nm)=	532 
#Hole=	100.021
#Range=	Auto
#Laser Pol.=	No
#Raman. Pol.=	No
#Laser Pol. (°)=	-0.0007625
#Raman Pol. (°)=	89.9995
#Collection=	Microscope
#StageXY=	Marzhauser
#StageZ=	Marzhauser
#X (µm)=	9019.2
#Y (µm)=	-3084.6
#Z (µm)=	-54.6
#Full time(mm:ss)=	3:15
#Project=	
#Sample=	
#Site=	
#Title=	Thy_00_07_15_2x_45s_532 nm_x100_100%_600 gr_mm
#Remark=	
#Date=	28.06.2022 11:11
#Acquired=	28.06.2022 11:11:02
#Base:Fit=	10.08.2022 10:06:44
#Base:Fit=	10.08.2022 10:07:16
#Base:Fit=	10.08.2022 10:07:25
#Base:Fit=	10.08.2022 10:07:44
#Base:Fit=	10.08.2022 10:07:56
#Base:Sub=	10.08.2022 10:08:40
#Filter:Polynom=	16.08.2022 10:26:06
#AxisType[0]=Intens
#AxisUnit[0]=Cnt
#AxisType[1]=Spectr
#AxisUnit[1]=1/cm
200.407	45.033
202.221	44.6568
204.035	42.3977
205.849	40.4346
207.665	38.6863
209.478	37.2223
211.291	35.6797
213.104	34.2356
214.916	32.4319
216.73	30.8214
218.541	29.1865
220.352	28.2492
222.163	26.4874
223.973	26.2665
225.785	24.3214
227.595	21.5901
229.404	20.4221
231.213	19.0979
233.022	18.3599
234.83	17.7581
236.638	17.2523
238.448	16.1653
240.255	15.7267
242.062	14.6119
243.868	13.739
245.675	13.3888
247.48	12.2884
249.286	11.7848
251.091	11.887
252.896	10.7159
254.702	9.31849
256.506	9.64194
258.31	8.37673
260.113	7.24876
261.916	5.60554
263.719	4.68651
265.521	4.0511
267.323	4.29401
269.125	3.55928
270.926	4.33395
272.727	4.53479
274.527	4.18078
276.328	5.502
278.127	4.90789
279.927	5.08929
281.726	4.14974
283.525	3.57677
285.323	3.85383
287.121	3.39331
288.919	2.89648
290.716	2.2593
292.513	3.37624
294.31	4.01551
296.104	5.27658
297.9	4.32435
299.696	3.93398
301.491	3.9805
303.286	5.39408
305.081	6.16634
306.875	6.47086
308.669	6.30405
310.463	6.06323
312.256	6.4812
314.047	6.78345
315.839	6.20048
317.631	5.90718
319.423	7.20971
321.215	7.37241
323.006	6.96815
324.794	6.86826
326.585	7.5381
328.375	7.63895
330.165	8.29031
331.954	8.4235
333.741	8.51367
335.53	8.22089
337.318	7.7567
339.106	7.37043
340.894	7.19952
342.679	6.74628
344.466	7.06395
346.253	7.66368
348.039	6.20352
349.823	6.12657
351.608	5.22119
353.393	5.67535
355.176	6.05564
356.961	6.0588
358.745	6.01456
360.529	7.00068
362.31	6.69224
364.093	6.14705
365.876	6.46455
367.657	4.46497
369.439	3.39524
371.221	2.98974
373	3.54
374.781	3.8564
376.56	3.26896
378.34	3.60149
380.12	3.61134
381.898	4.00751
383.677	3.87122
385.456	4.04565
387.233	3.00271
389.011	3.92021
390.787	3.79623
392.565	4.55983
394.34	3.95668
396.117	3.42785
397.894	2.90758
399.668	2.95368
401.444	3.61436
403.217	3.3392
404.993	2.76879
406.766	2.30112
408.54	3.30883
410.312	3.69927
412.086	4.275
413.858	4.98007
415.631	5.17386
417.402	4.25294
419.174	4.35152
420.944	4.22461
422.716	3.91554
424.486	3.91166
426.257	4.78643
428.025	3.68344
429.794	4.44121
431.564	3.80748
433.332	3.42342
435.101	2.59433
436.868	1.07213
438.637	0.670669
440.403	1.46621
442.169	2.7576
443.937	3.32583
445.703	3.3464
447.468	4.17922
449.234	4.82577
450.999	5.62262
452.765	6.73391
454.528	7.53334
456.292	7.88159
458.057	9.38387
459.819	10.5021
461.582	11.5547
463.344	11.9017
465.107	12.2084
466.868	13.7131
468.629	13.9197
470.392	14.7674
472.152	16.1293
473.912	16.2803
475.672	17.5174
477.433	18.7638
479.192	20.1241
480.951	21.6259
482.709	22.6818
484.469	23.8726
486.226	23.8745
487.984	24.9486
489.74	25.4161
491.499	25.8195
493.255	26.136
495.011	26.9897
496.767	28.085
498.522	28.6738
500.277	28.1765
502.033	27.7596
503.788	27.4663
505.541	26.9564
507.295	28.4621
509.048	28.7799
510.801	28.7876
512.553	27.2823
514.308	26.2957
516.06	24.5414
517.811	24.066
519.562	22.946
521.313	22.1187
523.063	21.4059
524.814	21.3154
526.563	21.8973
528.313	21.704
530.062	20.6725
531.811	20.5018
533.559	19.2557
535.308	18.8272
537.055	18.8231
538.803	17.7322
540.55	17.3798
542.297	16.408
544.043	16.7521
545.789	15.8403
547.535	14.4798
549.281	14.485
551.026	13.5683
552.771	12.5417
554.515	11.7099
556.259	10.4312
558.003	10.1499
559.747	9.66394
561.49	9.62651
563.233	9.29236
564.975	8.82098
566.717	9.00676
568.459	8.75755
570.2	8.22796
571.942	8.08339
573.68	6.67397
575.421	6.23155
577.161	6.12448
578.901	6.8037
580.64	7.30853
582.379	7.53964
584.118	8.24068
585.855	8.74002
587.593	8.54673
589.331	8.88531
591.068	8.66429
592.805	8.32792
594.54	9.30777
596.277	8.35283
598.013	7.5884
599.749	6.97912
601.484	7.04857
603.217	7.19701
604.952	6.70195
606.687	6.55322
608.421	6.08419
610.153	6.52632
611.886	6.69295
613.619	6.25863
615.35	5.9797
617.083	6.00311
618.815	6.08909
620.547	4.92081
622.276	5.33848
624.008	5.20933
625.738	5.71906
627.467	6.48392
629.197	6.45106
630.927	6.36595
632.655	5.87956
634.384	6.27404
636.113	6.9179
637.839	6.48876
639.568	6.81726
641.293	7.48655
643.021	8.24979
644.748	9.42645
646.473	10.69
648.2	11.4051
649.924	11.9469
651.65	12.718
653.376	14.2175
655.099	14.6677
656.824	15.1215
658.546	15.8855
660.271	16.7076
661.993	18.0812
663.716	20.5613
665.438	21.4448
667.161	22.2572
668.881	23.0174
670.604	24.3537
672.324	24.3091
674.045	24.5577
675.765	25.2877
677.486	25.9767
679.204	26.5238
680.925	28.9399
682.643	29.2297
684.361	30.6957
686.08	31.9779
687.797	32.7052
689.516	33.9565
691.232	34.5972
692.95	35.4857
694.666	35.7648
696.382	36.1183
698.099	36.6752
699.813	36.959
701.528	37.5258
703.244	37.698
704.958	38.2471
706.673	38.64
708.387	39.8079
710.099	40.3797
711.814	40.9969
713.526	41.2547
715.238	42.5853
716.949	43.0832
718.663	44.7654
720.374	45.3274
722.084	46.5448
723.796	47.8611
725.506	48.8282
727.216	49.3739
728.925	50.1608
730.636	51.4715
732.345	52.3035
734.053	52.9113
735.761	53.7661
737.471	54.1855
739.178	56.5001
740.885	57.9478
742.592	59.3207
744.298	62.0717
746.006	64.6566
747.712	66.466
749.417	66.8839
751.122	66.7263
752.827	67.5579
754.532	69.1325
756.236	70.7443
757.942	71.3181
759.645	73.1515
761.348	73.9713
763.051	74.965
764.753	75.3181
766.456	76.8507
768.158	77.0338
769.859	78.3419
771.56	78.1761
773.261	78.1467
774.964	78.292
776.664	78.2684
778.364	78.2861
780.064	77.9936
781.763	78.3147
783.462	77.8652
785.16	77.786
786.859	77.9821
788.557	77.6387
790.255	77.7302
791.952	77.2033
793.649	77.5718
795.346	77.5417
797.042	77.7399
798.738	78.5273
800.434	78.9063
802.127	78.604
803.823	79.4007
805.517	77.9353
807.212	77.586
808.906	78.2667
810.6	78.1857
812.293	78.3754
813.987	78.8542
815.68	79.8097
817.372	79.7221
819.064	80.6656
820.754	81.4696
822.446	82.9674
824.137	84.8719
825.828	86.217
827.519	86.8471
829.209	87.4928
830.897	87.714
832.587	87.361
834.276	86.6808
835.966	87.8499
837.654	88.5436
839.341	88.971
841.029	87.9396
842.717	86.8882
844.404	85.8752
846.091	85.21
847.776	84.7503
849.463	83.9714
851.149	82.8142
852.833	81.4452
854.519	79.5563
856.204	78.4685
857.889	77.4853
859.572	75.6714
861.256	74.4455
862.94	72.9821
864.622	71.0772
866.305	68.9901
867.988	66.5303
869.669	66.6455
871.351	65.1951
873.033	63.4042
874.713	62.7247
876.395	62.5804
878.074	62.5611
879.755	61.1499
881.435	60.1135
883.114	59.5787
884.794	58.2923
886.471	57.8357
888.15	56.75
889.829	55.7414
891.506	55.4833
893.184	56.2439
894.861	55.1465
896.538	55.3014
898.214	55.7877
899.891	56.3514
901.566	56.1187
903.242	57.1215
904.916	57.7595
906.592	58.5896
908.266	58.7744
909.941	59.2204
911.614	59.9212
913.288	60.8497
914.961	61.8332
916.635	62.2264
918.306	62.8018
919.979	63.5313
921.651	63.3351
923.321	62.4514
924.994	64.017
926.664	63.7379
928.336	63.495
930.005	62.7957
931.674	62.0951
933.345	61.6042
935.014	60.6562
936.682	59.6709
938.352	58.0297
940.019	56.9528
941.687	55.7528
943.356	54.9451
945.022	54.7327
946.689	54.0058
948.357	52.8653
950.022	51.535
951.688	50.9946
953.355	51.4608
955.02	49.157
956.684	48.4492
958.348	46.8071
960.014	44.8233
961.678	43.7236
963.341	43.1106
965.004	43.5305
966.669	44.4876
968.331	44.6287
969.993	44.8777
971.655	45.3298
973.316	46.3209
974.979	46.0217
976.64	47.137
978.3	47.2349
979.961	48.5125
981.62	49.2388
983.28	48.8047
984.941	48.5016
986.6	48.3148
988.259	48.5409
989.917	48.2683
991.575	49.0195
993.233	50.2864
994.89	51.1472
996.547	50.7965
998.204	51.0055
999.86	51.7753
1001.52	51.8873
1003.17	52.4376
1004.83	52.0649
1006.49	52.4371
1008.14	52.979
1009.79	50.3366
1011.45	50.0171
1013.1	49.6895
1014.76	49.7703
1016.41	48.9572
1018.06	47.3593
1019.72	45.8737
1021.37	45.7347
1023.02	45.5393
1024.67	44.8816
1026.32	44.18
1027.97	43.8033
1029.62	42.4462
1031.27	40.4692
1032.92	38.3647
1034.57	37.006
1036.22	35.201
1037.87	32.2797
1039.52	31.3582
1041.17	30.2052
1042.82	31.2781
1044.47	32.7455
1046.11	33.2281
1047.76	33.9201
1049.41	34.1237
1051.06	33.7474
1052.7	33.9187
1054.35	34.3157
1055.99	33.4648
1057.64	32.8613
1059.28	33.6855
1060.93	33.3337
1062.57	32.8172
1064.22	32.5387
1065.86	31.9242
1067.5	31.9368
1069.15	32.1574
1070.79	32.3389
1072.43	32.3714
1074.08	33.1896
1075.72	32.1702
1077.36	32.4834
1079	32.9199
1080.64	33.5503
1082.28	33.7379
1083.92	33.5227
1085.56	33.3526
1087.2	33.674
1088.84	34.4088
1090.48	34.6152
1092.12	36.0382
1093.76	37.0378
1095.39	37.9659
1097.03	38.1548
1098.67	38.5486
1100.31	38.4828
1101.94	39.8166
1103.58	40.6497
1105.22	40.6469
1106.85	40.5003
1108.49	40.9895
1110.12	40.381
1111.76	39.1051
1113.39	38.1715
1115.03	37.599
1116.66	37.7471
1118.29	36.736
1119.93	36.5706
1121.56	36.3529
1123.19	36.3028
1124.82	36.5241
1126.46	35.8481
1128.09	35.1947
1129.72	35.2582
1131.35	34.9986
1132.98	34.3281
1134.61	34.4027
1136.24	33.7548
1137.87	33.11
1139.5	33.5623
1141.13	33.2485
1142.76	31.524
1144.39	30.4542
1146.01	29.7436
1147.64	27.7102
1149.27	25.3347
1150.9	23.8125
1152.53	22.075
1154.15	20.598
1155.78	19.5473
1157.4	17.8387
1159.03	16.767
1160.65	15.5728
1162.28	14.379
1163.9	13.3865
1165.53	12.8623
1167.15	11.8886
1168.78	11.8573
1170.4	11.9367
1172.02	12.3611
1173.65	12.4658
1175.27	11.853
1176.89	12.5285
1178.51	12.4002
1180.14	11.866
1181.76	11.3263
1183.38	11.6742
1185	11.2226
1186.62	11.0213
1188.24	11.4651
1189.86	11.7478
1191.48	12.1024
1193.1	12.3099
1194.71	12.3562
1196.33	14.2185
1197.95	14.8543
1199.57	14.6542
1201.19	16.6894
1202.8	17.6742
1204.42	19.6
1206.04	21.053
1207.65	21.9068
1209.27	23.2814
1210.88	26.3561
1212.5	28.531
1214.12	30.8736
1215.73	33.2891
1217.35	34.7808
1218.96	36.193
1220.57	38.0067
1222.19	38.9589
1223.8	39.711
1225.41	40.9846
1227.03	42.262
1228.64	43.0931
1230.25	45.3202
1231.86	47.001
1233.47	47.4218
1235.08	48.6305
1236.69	49.8131
1238.31	50.8457
1239.92	52.008
1241.52	52.8284
1243.13	54.1657
1244.74	54.1667
1246.35	55.1009
1247.96	55.0734
1249.57	55.6623
1251.18	56.5233
1252.78	56.9166
1254.39	57.0016
1256	56.6132
1257.6	55.772
1259.21	54.2052
1260.82	52.6984
1262.42	52.8379
1264.03	52.5146
1265.63	52.1759
1267.24	51.7232
1268.84	50.5637
1270.45	49.9101
1272.05	49.5588
1273.65	49.4793
1275.26	50.1025
1276.86	50.8207
1278.46	49.7085
1280.06	49.2267
1281.67	50.2967
1283.27	49.6486
1284.87	50.4758
1286.47	50.8417
1288.07	51.5586
1289.67	53.885
1291.27	55.4492
1292.87	55.9401
1294.47	57.3324
1296.07	58.2361
1297.67	58.5602
1299.27	60.1042
1300.87	61.8916
1302.47	63.6013
1304.06	65.877
1305.66	68.1355
1307.26	70.2615
1308.85	72.2052
1310.45	75.1077
1312.05	76.071
1313.64	78.2169
1315.24	80.4969
1316.83	82.4291
1318.43	83.6489
1320.02	84.6435
1321.62	84.7923
1323.21	86.6994
1324.8	86.4274
1326.4	87.0089
1327.99	86.3951
1329.59	86.6297
1331.18	87.0108
1332.77	86.9459
1334.36	85.3642
1335.95	84.4656
1337.54	84.2504
1339.14	83.7687
1340.73	83.2606
1342.32	82.5039
1343.91	81.9624
1345.5	80.4625
1347.09	80.0242
1348.67	78.4279
1350.26	78.3686
1351.85	76.7799
1353.44	75.8335
1355.03	74.0245
1356.62	72.4801
1358.2	70.6999
1359.79	69.5452
1361.38	69.0838
1362.96	67.6717
1364.55	66.4464
1366.14	64.9144
1367.72	64.3098
1369.31	63.6276
1370.89	61.8371
1372.48	60.9665
1374.06	60.0813
1375.64	59.4206
1377.23	58.7297
1378.81	59.3775
1380.39	58.9701
1381.98	58.7215
1383.56	58.3552
1385.14	58.1006
1386.72	57.659
1388.3	57.4106
1389.89	56.3747
1391.47	55.3481
1393.05	55.0249
1394.63	53.5733
1396.21	52.6371
1397.79	50.8142
1399.37	50.1733
1400.95	49.7293
1402.52	49.2217
1404.1	48.5443
1405.68	48.4861
1407.26	48.3683
1408.84	48.7161
1410.42	49.7331
1411.99	50.8985
1413.57	52.2931
1415.15	54.866
1416.72	56.1442
1418.3	56.7839
1419.87	58.4847
1421.45	60.7511
1423.02	62.9281
1424.6	64.6536
1426.17	67.9504
1427.75	68.5927
1429.32	71.051
1430.89	73.2099
1432.47	75.6635
1434.04	77.533
1435.61	79.3171
1437.18	81.2178
1438.76	82.9353
1440.33	84.8317
1441.9	85.9587
1443.47	86.5216
1445.04	88.2576
1446.61	88.7093
1448.18	88.865
1449.75	88.8323
1451.32	89.4876
1452.89	89.117
1454.46	88.183
1456.03	87.5766
1457.6	86.8066
1459.16	85.3102
1460.73	83.6506
1462.3	81.3214
1463.87	79.491
1465.43	75.9949
1467	72.5322
1468.56	69.8625
1470.13	67.8759
1471.7	64.8018
1473.26	59.6717
1474.83	56.7947
1476.39	53.3613
1477.96	51.0979
1479.52	47.494
1481.08	44.6669
1482.65	42.1728
1484.21	39.7143
1485.77	38.103
1487.34	36.2319
1488.9	34.5415
1490.46	31.9606
1492.02	29.7791
1493.58	27.6097
1495.15	25.4329
1496.71	24.4166
1498.27	23.7397
1499.83	22.9105
1501.39	21.4153
1502.95	21.0528
1504.51	19.9224
1506.07	18.904
1507.63	18.4789
1509.18	18.177
1510.74	17.8065
1512.3	17.8004
1513.86	18.2311
1515.41	18.4751
1516.97	18.9174
1518.53	19.4261
1520.08	19.5063
1521.64	19.9061
1523.2	20.7282
1524.75	20.9514
1526.31	21.6085
1527.86	22.0814
1529.42	23.4984
1530.97	23.4038
1532.52	24.9452
1534.08	27.0794
1535.63	27.584
1537.19	28.6491
1538.74	29.766
1540.29	30.601
1541.84	31.5011
1543.4	32.8199
1544.95	34.7735
1546.5	37.6298
1548.05	39.6361
1549.6	40.8353
1551.15	42.2421
1552.7	45.4348
1554.25	47.299
1555.8	48.8131
1557.35	50.0564
1558.9	52.379
1560.45	53.0972
1562	54.9192
1563.54	55.9763
1565.09	56.5975
1566.64	57.8231
1568.19	59.1633
1569.73	61.3188
1571.28	62.562
1572.83	63.634
1574.37	64.588
1575.92	65.2
1577.47	65.879
1579.01	66.1685
1580.56	66.7798
1582.1	67.5589
1583.64	68.1165
1585.19	67.787
1586.73	68.5578
1588.28	69.8966
1589.82	69.3306
1591.36	69.2774
1592.9	69.0663
1594.45	69.3284
1595.99	68.525
1597.53	67.7269
1599.07	67.0332
1600.61	66.1162
1602.15	65.8074
1603.69	65.4229
1605.23	64.9683
1606.77	65.1367
1608.31	64.3489
1609.85	64.7045
1611.39	64.393
1612.93	63.5337
1614.47	64.1998
1616.01	63.6358
1617.55	63.0924
1619.08	64.1912
1620.62	65.5472
1622.16	66.1325
1623.7	67.6433
1625.23	67.9352
1626.77	67.866
1628.3	68.4424
1629.84	68.905
1631.37	69.5196
1632.91	69.7562
1634.44	69.9005
1635.98	71.161
1637.51	72.3019
1639.05	73.981
1640.58	74.1851
1642.11	75.7214
1643.65	77.4166
1645.18	77.6154
1646.71	78.0973
1648.24	78.7763
1649.78	79.651
1651.31	80.5118
1652.84	81.4148
1654.37	81.3088
1655.9	81.4117
1657.43	81.0274
1658.96	80.8516
1660.49	80.8242
1662.02	80.2652
1663.55	80.0459
1665.08	79.375
1666.61	78.0571
1668.14	77.1253
1669.66	76.2386
1671.19	74.207
1672.72	71.9114
1674.25	70.8685
1675.77	69.2006
1677.3	67.2061
1678.83	64.5425
1680.35	61.4224
1681.88	58.2287
1683.4	55.8969
1684.93	53.125
1686.45	50.8935
1687.98	47.7479
1689.5	44.9368
1691.03	43.3832
1692.55	39.9222
1694.07	37.4017
1695.6	36.0487
1697.12	33.3283
1698.64	30.8437
1700.17	28.76
1701.69	26.5376
1703.21	24.3656
1704.73	22.198
1706.25	20.4173
1707.77	18.7709
1709.29	17.3065
1710.81	15.8494
1712.33	15.1799
1713.85	13.5443
1715.37	12.5379
1716.89	11.2078
1718.41	11.619
1719.93	10.8211
1721.45	9.53813
1722.97	10.117
1724.49	10.1227
1726	9.842
1727.52	9.28478
1729.04	9.36756
1730.55	8.46252
1732.07	8.43159
1733.59	8.46721
1735.1	8.81541
1736.62	9.36915
1738.13	8.56565
1739.65	8.63218
1741.16	8.52159
1742.68	8.48182
1744.19	8.37337
1745.7	8.91895
1747.22	8.36352
1748.73	8.812
1750.24	9.28149
1751.76	8.01574
1753.27	7.37399
1754.78	6.48229
1756.29	6.82167
1757.8	7.31988
1759.31	7.72499
1760.83	8.00641
1762.34	8.35455
1763.85	8.0565
1765.36	8.19934
1766.87	7.76142
1768.38	6.93161
1769.89	7.18338
1771.39	7.30152
1772.9	6.60914
1774.41	6.711
1775.92	6.9193
1777.43	6.84102
1778.94	5.97397
1780.44	5.55277
1781.95	5.2571
1783.46	5.05566
1784.96	5.18652
1786.47	4.47397
1787.97	4.1206
1789.48	4.05395
1790.99	3.92296
1792.49	3.32978
1794	3.27461
1795.5	2.73757
1797	2.78714
1798.51	2.88633
1800.01	2.58454
1801.51	2.57817
1803.02	1.91111
1804.52	1.76938
1806.02	1.02286
1807.53	1.22921
1809.03	1.21164
1810.53	1.04748
1812.03	1.48398
1813.53	1.47221
1815.03	2.16819
1816.53	2.60016
1818.03	2.9245
1819.53	3.19593
1821.03	2.96402
1822.53	2.75513
1824.03	2.9356
1825.53	2.54165
1827.03	2.28654
1828.53	2.18922
1830.02	2.63039
1831.52	3.31927
1833.02	3.40153
1834.52	3.37071
1836.01	3.53312
1837.51	3.60635
1839.01	3.90814
1840.5	3.75319
1842	3.80476
1843.49	4.03634
1844.99	4.45336
1846.48	4.86819
1847.98	4.82962
1849.47	5.12514
1850.97	5.03817
1852.46	5.06291
1853.95	4.70865
1855.45	4.61884
1856.94	4.47853
1858.43	4.81113
1859.93	4.47112
1861.42	3.48648
1862.91	3.4331
1864.4	3.0307
1865.89	2.90784
1867.38	2.87162
1868.87	2.89672
1870.36	2.88782
1871.85	2.83348
1873.34	2.94309
1874.83	2.92811
1876.32	2.69476
1877.81	2.65554
1879.3	3.19186
1880.79	3.6983
1882.28	3.53687
1882.52	3.79972
1884.02	4.18257
1885.51	4.97516
1887.01	4.99923
1888.5	5.16192
1889.99	5.42181
1891.49	5.19469
1892.98	5.01295
1894.47	5.22264
1895.97	4.69786
1897.46	3.97524
1898.95	4.09334
1900.44	4.25727
1901.93	4.27832
1903.42	5.28483
1904.91	5.56309
1906.4	5.45983
1907.89	5.90024
1909.38	6.94298
1910.87	6.91043
1912.36	7.3864
1913.85	6.99479
1915.34	7.67059
1916.83	7.97952
1918.32	8.57867
1919.8	9.21255
1921.29	9.11551
1922.78	9.31654
1924.27	9.00599
1925.75	8.7268
1927.24	8.40597
1928.73	8.16234
1930.21	8.00099
1931.7	7.21455
1933.18	7.10161
1934.67	6.66227
1936.15	6.65731
1937.64	6.77401
1939.12	7.42493
1940.61	7.59073
1942.09	7.5428
1943.57	7.86119
1945.06	7.76705
1946.54	7.54282
1948.02	7.22379
1949.51	6.67669
1950.99	6.49116
1952.47	6.59804
1953.95	6.46615
1955.43	6.5273
1956.91	7.24737
1958.4	7.00308
1959.88	7.4694
1961.36	6.68049
1962.84	6.13074
1964.32	5.72819
1965.8	4.60335
1967.27	3.88204
1968.75	3.64025
1970.23	3.14256
1971.71	3.23159
1973.19	4.19674
1974.67	3.83786
1976.14	3.96319
1977.62	4.58038
1979.1	4.10056
1980.58	3.88419
1982.05	4.2127
1983.53	4.37558
1985	4.42686
1986.48	5.07893
1987.95	5.12222
1989.43	5.39751
1990.9	5.76853
1992.38	6.31079
1993.85	6.17018
1995.33	5.93537
1996.8	5.95939
1998.27	6.15695
1999.75	6.60797
2001.22	6.78761
2002.69	7.35103
2004.16	7.65168
2005.64	7.93178
2007.11	8.80221
2008.58	8.75305
2010.05	9.2903
2011.52	9.58634
2012.99	9.84463
2014.46	9.46278
2015.93	8.83958
2017.4	8.80811
2018.87	8.86638
2020.34	8.60443
2021.81	8.69828
2023.28	8.66981
2024.75	9.1694
2026.22	9.29017
2027.69	9.30382
2029.15	9.37664
2030.62	9.15757
2032.09	8.83408
2033.56	9.01453
2035.02	8.59968
2036.49	8.04001
2037.96	8.44678
2039.42	8.17818
2040.89	8.45789
2042.35	8.64536
2043.82	9.04111
2045.28	8.85076
2046.75	9.22837
2048.21	8.96619
2049.67	9.15948
2051.14	9.8121
2052.6	9.35656
2054.07	9.78288
2055.53	10.6553
2056.99	10.9011
2058.45	10.9993
2059.92	10.8802
2061.38	11.0365
2062.84	11.7961
2064.3	13.0137
2065.76	12.9065
2067.22	12.6226
2068.68	12.9717
2070.14	12.677
2071.6	12.4964
2073.06	11.7072
2074.52	11.1982
2075.98	11.4999
2077.44	10.7992
2078.9	10.6189
2080.36	10.5103
2081.82	10.155
2083.27	9.79446
2084.73	8.9789
2086.19	8.59908
2087.65	8.51667
2089.1	8.0524
2090.56	8.29202
2092.02	8.08278
2093.47	7.41838
2094.93	7.55311
2096.38	7.4183
2097.84	7.17774
2099.29	6.96835
2100.75	7.3448
2102.2	7.98895
2103.66	7.70735
2105.11	7.72875
2106.56	7.67991
2108.02	7.38863
2109.47	7.1871
2110.92	7.7987
2112.38	7.72735
2113.83	8.06786
2115.28	8.22933
2116.73	8.35973
2118.18	8.39914
2119.63	8.64852
2121.09	8.33548
2122.54	8.25921
2123.99	8.99142
2125.44	8.91881
2126.89	9.48322
2128.34	9.79826
2129.79	9.62089
2131.23	9.61989
2132.68	10.598
2134.13	10.586
2135.58	10.4278
2137.03	9.82791
2138.48	8.35947
2139.92	8.1316
2141.37	7.44318
2142.82	6.45892
2144.27	5.86296
2145.71	5.73725
2147.16	5.63379
2148.6	5.4828
2150.05	5.17531
2151.49	5.14764
2152.94	4.5698
2154.38	4.37014
2155.83	4.05522
2157.27	3.76793
2158.72	3.91628
2160.16	4.10307
2161.6	3.81272
2163.05	3.71091
2164.49	3.1674
2165.93	3.97353
2167.38	4.16067
2168.82	3.81479
2170.26	3.43851
2171.7	3.68819
2173.14	3.35225
2174.58	3.60899
2176.03	3.30552
2177.47	3.77018
2178.91	3.28321
2180.35	3.818
2181.79	4.35463
2183.23	4.39516
2184.67	4.73536
2186.1	5.19261
2187.54	5.58013
2188.98	5.73601
2190.42	5.93407
2191.86	6.10198
2193.3	6.66758
2194.73	7.50277
2196.17	8.38995
2197.61	9.14421
2199.05	9.52936
2200.48	9.6677
2201.92	9.87705
2203.35	9.80286
2204.79	10.3551
2206.22	9.59356
2207.66	9.83922
2209.1	10.054
2210.53	9.3671
2211.97	9.06903
2213.4	8.51987
2214.83	8.783
2216.27	8.9332
2217.7	9.42029
2219.13	9.00843
2220.57	9.4362
2222	9.65529
2223.43	9.5449
2224.86	9.34145
2226.29	9.64591
2227.72	8.91482
2229.16	8.69051
2230.59	9.1347
2232.02	8.68463
2233.45	8.28666
2234.88	7.15856
2236.31	6.72126
2237.74	6.76288
2239.17	5.83057
2240.6	5.55164
2242.03	5.60851
2243.45	5.94771
2244.88	5.85791
2246.31	5.85844
2247.74	4.92435
2249.17	4.80427
2250.59	4.37925
2252.02	5.27836
2253.45	4.80138
2254.87	5.1706
2256.3	5.77224
2257.73	5.96116
2259.15	6.12023
2260.58	5.99391
2262	6.21534
2263.43	7.07087
2264.85	6.74657
2266.28	6.95223
2267.7	7.52707
2269.13	7.14147
2270.55	6.70897
2271.97	6.34789
2273.4	6.24739
2274.82	6.14398
2276.24	6.4987
2277.67	6.22146
2279.09	6.02389
2280.51	5.01497
2281.93	4.77875
2283.35	4.7571
2284.77	4.58256
2286.2	4.67917
2287.62	4.25582
2289.04	4.4591
2290.46	3.9557
2291.88	3.4609
2293.3	3.50856
2294.72	3.4667
2296.13	3.78654
2297.55	4.42613
2298.97	4.90017
2300.39	6.03522
2301.81	6.15247
2303.23	6.28654
2304.64	6.63685
2306.06	7.09175
2307.48	7.84586
2308.89	8.6014
2310.31	9.26126
2311.73	9.30178
2313.14	9.12114
2314.56	9.39393
2315.98	9.72625
2317.39	9.48371
2318.81	10.0885
2320.22	10.5147
2321.64	10.6927
2323.05	11.1581
2324.46	10.7686
2325.88	11.7238
2327.29	11.1564
2328.7	10.7774
2330.12	10.8571
2331.53	10.8489
2332.94	10.683
2334.35	10.3975
2335.77	9.56221
2337.18	9.55372
2338.59	9.28848
2340	8.18976
2341.41	7.86385
2342.82	7.09293
2344.23	6.87523
2345.64	6.15466
2347.05	5.45143
2348.46	4.41605
2349.87	3.82499
2351.28	3.03854
2352.69	2.60868
2354.1	1.51128
2355.51	0.815688
2356.91	1.11992
2358.32	0.954201
2359.73	1.30319
2361.14	0.887459
2362.54	0.896358
2363.95	1.25741
2365.36	1.0491
2366.76	1.47523
2368.17	1.68682
2369.58	1.5389
2370.98	1.31591
2372.39	0.513669
2373.79	0.429588
2375.2	-0.461146
2376.6	-0.374358
2378	-0.414698
2379.41	-0.155801
2380.81	-0.49047
2382.22	-0.795225
2383.62	-0.682382
2385.02	0.105883
2386.43	0.224025
2387.83	0.00523955
2389.23	-0.118692
2390.63	-0.500906
2392.03	0.229263
2393.44	0.439557
2394.84	0.540738
2396.24	0.674696
2397.64	0.251718
2399.04	0.77608
2400.44	1.03131
2401.84	1.13835
2403.24	1.22685
2404.64	1.31705
2406.04	1.39852
2407.44	1.89383
2408.84	2.28457
2410.23	2.8248
2411.63	3.50076
2413.03	3.9335
2414.43	5.21169
2415.83	5.32896
2417.22	5.9474
2418.62	6.38702
2420.02	6.79433
2421.41	7.14164
2422.81	7.69043
2424.21	7.87326
2425.6	8.1169
2427	8.47224
2428.39	8.40682
2429.79	8.25069
2431.18	8.31636
2432.58	8.24188
2433.97	8.48705
2435.36	8.16399
2436.76	8.38804
2438.15	8.45786
2439.54	7.97094
2440.94	7.41636
2442.33	7.67973
2443.72	7.66391
2445.12	7.47662
2446.51	7.69222
2447.9	7.23858
2449.29	6.66113
2450.68	5.99968
2452.07	5.80024
2453.46	5.47787
2454.85	5.47291
2456.24	5.4801
2457.64	4.91933
2459.02	4.72401
2460.41	3.97385
2461.8	3.33699
2463.19	2.69346
2464.58	2.03245
2465.97	1.385
2467.36	0.965547
2468.75	0.985707
2470.13	0.757329
2471.52	0.628901
2472.91	0.343528
2474.3	0.507008
2475.68	0.774048
2477.07	0.794384
2478.45	0.885849
2479.84	0.637959
2481.23	0.529287
2482.61	0.353714
2484	0.592399
2485.38	0.211939
2486.77	-0.219891
2488.15	-0.151658
2489.54	0.394615
2490.92	0.646423
2492.3	1.25827
2493.69	1.19556
2495.07	2.10467
2496.45	2.41247
2497.84	2.63529
2499.22	2.96317
2500.6	3.35097
2501.98	3.29039
2503.36	3.81312
2504.75	2.89909
2506.13	3.41312
2507.51	3.36223
2508.89	3.29672
2510.27	3.97481
2511.65	4.73943
2513.03	4.04819
2514.41	3.9345
2515.79	3.97294
2517.17	3.61697
2518.55	3.81963
2519.93	3.97843
2521.3	4.02374
2522.68	4.13483
2524.06	4.20163
2525.44	3.88244
2526.82	3.34484
2528.19	3.24218
2529.57	2.72231
2530.95	2.99829
2532.32	3.32753
2533.7	3.48914
2535.08	3.12663
2536.45	3.2059
2537.83	3.41333
2539.2	3.86849
2540.58	3.44944
2541.95	3.34666
2543.33	3.60289
2544.7	2.93806
2546.08	2.62691
2547.45	2.19661
2548.82	1.96506
2550.2	2.07397
2551.57	2.22025
2552.94	2.10158
2554.32	2.31599
2555.69	2.39057
2557.06	3.10134
2558.43	3.37129
2559.8	3.01859
2561.18	2.98279
2562.55	2.44414
2563.92	2.18696
2565.29	1.40141
2566.66	1.50792
2568.03	1.94833
2569.4	1.98449
2570.77	2.61285
2572.14	2.88616
2573.51	2.45792
2574.88	3.34751
2576.25	3.63352
2577.61	3.75036
2578.98	4.03905
2580.35	3.82212
2581.72	3.43531
2583.09	3.68501
2584.45	3.53251
2585.82	3.55247
2587.19	3.5174
2588.55	3.44326
2589.92	3.69316
2591.29	3.87315
2592.65	4.2318
2594.02	4.58481
2595.38	4.93418
2596.75	5.35977
2598.11	5.70892
2599.48	6.12058
2600.84	6.52188
2602.21	6.5043
2603.57	6.32654
2604.93	6.47134
2606.3	6.79105
2607.66	6.72988
2609.02	5.60745
2610.39	5.66653
2611.75	5.47539
2613.11	5.50018
2614.47	5.22646
2615.83	4.59144
2617.19	4.92814
2618.56	4.0937
2619.92	3.92351
2621.28	3.6012
2622.64	3.85022
2624	3.60417
2625.36	3.43827
2626.72	2.90897
2628.08	2.42248
2629.44	2.08477
2630.8	2.27008
2632.15	2.55596
2633.51	3.36628
2634.87	4.25723
2636.23	4.84563
2637.59	5.41325
2638.94	5.63409
2640.3	5.73487
2641.66	5.99416
2643.02	6.47365
2644.37	6.8423
2645.73	7.20508
2647.09	7.29012
2648.44	7.37628
2649.8	7.28461
2651.15	7.48876
2652.51	7.59593
2653.86	7.79852
2655.22	7.9061
2656.57	8.82065
2657.93	9.60577
2659.28	10.0429
2660.63	10.365
2661.99	10.6353
2663.34	10.9259
2664.69	11.8087
2666.05	11.7438
2667.4	11.6398
2668.75	11.9341
2670.1	11.8537
2671.45	12.282
2672.81	11.8192
2674.16	12.0677
2675.51	11.9163
2676.86	11.3096
2678.21	11.3325
2679.56	11.1773
2680.91	11.1546
2682.26	10.3241
2683.61	10.0355
2684.96	9.99165
2686.31	9.10404
2687.66	9.66848
2689	9.63217
2690.35	9.51494
2691.7	9.4067
2693.05	9.46216
2694.4	9.53179
2695.74	9.90132
2697.09	10.7034
2698.44	11.91
2699.79	12.6034
2701.13	13.3933
2702.48	13.7053
2703.83	14.208
2705.17	14.3722
2706.52	14.2245
2707.86	14.9514
2709.21	15.1089
2710.55	14.8586
2711.9	15.3158
2713.24	15.1174
2714.58	14.6316
2715.93	15.0075
2717.27	15.2025
2718.62	15.4986
2719.96	15.9045
2721.3	16.1618
2722.65	16.6063
2723.99	17.1086
2725.33	17.3278
2726.67	17.1186
2728.01	17.4402
2729.35	18.103
2730.7	18.1121
2732.04	17.6206
2733.38	17.3701
2734.72	17.1858
2736.06	16.845
2737.4	16.373
2738.74	16.1924
2740.08	15.758
2741.42	15.5914
2742.76	14.9828
2744.1	13.8878
2745.43	13.109
2746.77	12.5584
2748.11	12.0537
2749.45	11.3887
2750.79	11.2807
2752.12	10.9682
2753.46	10.5397
2754.8	10.4222
2756.14	10.0147
2757.47	9.93259
2758.81	10.0763
2760.14	10.867
2761.48	10.7535
2762.81	10.4753
2764.15	10.4761
2765.49	10.3884
2766.82	9.68985
2768.16	9.61604
2769.49	8.76541
2770.82	7.86882
2772.16	7.36253
2773.49	7.25366
2774.82	6.8998
2776.16	6.71634
2777.49	6.38735
2778.82	6.59941
2780.16	6.29392
2781.49	6.13633
2782.82	6.15115
2784.15	6.06264
2785.48	5.40458
2786.82	4.92228
2788.15	4.20417
2789.48	4.08057
2790.81	3.73856
2792.14	3.42047
2793.47	2.99691
2794.8	3.2371
2796.13	2.86549
2797.46	1.99399
2798.79	1.45472
2800.12	1.65814
2801.44	1.28683
2802.77	1.5496
2804.1	2.33577
2805.43	1.89895
2806.76	1.63884
2808.08	1.07139
2809.41	0.701611
2810.74	0.402849
2812.07	0.383394
2813.39	1.22394
2814.72	1.93268
2816.05	2.78078
2817.37	4.25883
2818.7	5.7349
2820.02	7.06995
2821.35	8.96312
2822.67	11.299
2824	13.5606
2825.32	15.695
2826.65	17.9574
2827.97	19.563
2829.3	22.1857
2830.62	24.4078
2831.94	26.8187
2833.26	29.0764
2834.59	31.8248
2835.91	34.3226
2837.23	37.4391
2838.56	41.2157
2839.88	44.7556
2841.2	48.7086
2842.52	53.2948
2843.84	57.2434
2845.16	61.4699
2846.48	65.7433
2847.8	70.8522
2849.12	75.6215
2850.45	80.6822
2851.77	85.5483
2853.08	91.1157
2854.4	96.6134
2855.72	102.625
2857.04	108.308
2858.36	114.401
2859.68	119.913
2861	125.099
2862.32	130.294
2863.63	135.84
2864.95	141.55
2866.27	146.855
2867.59	151.881
2868.9	156.91
2870.22	160.677
2871.54	164.746
2872.85	169.2
2874.17	172.809
2875.48	176.981
2876.8	181.4
2878.11	184.711
2879.43	188.657
2880.74	192.421
2882.06	196.185
2883.37	200.15
2884.69	203.705
2886	206.487
2887.31	209.506
2888.63	212.476
2889.94	214.907
2891.25	217.57
2892.57	220.244
2893.88	223.035
2895.19	225.568
2896.5	228.902
2897.82	231.975
2899.13	234.98
2900.44	238.329
2901.75	242.348
2903.06	246.52
2904.37	251.211
2905.68	255.411
2906.99	260.444
2908.3	265.104
2909.61	269.88
2910.92	275.274
2912.23	281.323
2913.54	286.877
2914.85	291.99
2916.16	297.033
2917.46	302.001
2918.77	306.754
2920.08	310.593
2921.39	315.091
2922.7	318.583
2924	321.496
2925.31	322.677
2926.62	323.911
2927.92	325.336
2929.23	326.318
2930.54	326.201
2931.84	325.27
2933.15	324.551
2934.45	322.584
2935.76	319.653
2937.06	317.453
2938.37	313.813
2939.67	310.411
2940.98	306.854
2942.28	302.303
2943.58	296.678
2944.89	292.19
2946.19	286.871
2947.49	281.941
2948.8	276.819
2950.1	270.47
2951.4	264.234
2952.7	258.358
2954.01	252.445
2955.31	246.314
2956.61	240.132
2957.91	234.437
2959.21	228.67
2960.51	223.043
2961.81	217.548
2963.11	211.904
2964.41	207.014
2965.71	202.216
2967.01	197.047
2968.31	191.73
2969.61	186.2
2970.91	181.083
2972.21	176.899
2973.51	172.359
2974.81	167.745
2976.1	163.356
2977.4	159.349
2978.7	154.284
2980	149.883
2981.29	145.154
2982.59	139.955
2983.89	135.06
2985.18	130.069
2986.48	124.955
2987.78	118.921
2989.07	113.04
2990.37	107.077
2991.66	102.103
2992.96	97.3078
2994.25	91.6905
2995.55	86.4322
2996.84	81.0713
2998.14	75.9837
2999.43	70.3434
3000.73	66.1559
3002.02	61.9041
3003.31	57.3135
3004.61	53.092
3005.9	48.6965
3007.19	44.3145
3008.48	40.9054
3009.77	37.5042
3011.07	33.9999
3012.36	31.0169
3013.65	27.9145
3014.94	24.9212
3016.23	22.6912
3017.52	19.9998
3018.81	17.868
3020.1	15.9543
3021.4	14.1086
3022.68	12.7622
3023.97	11.2382
3025.26	10.6659
3026.55	9.63907
3027.84	9.08548
3029.13	7.43854
3030.42	6.1423
3031.71	5.41803
3033	5.08776
3034.28	4.79549
3035.57	5.66942
3036.86	5.9446
3038.15	6.36917
3039.43	6.72657
3040.72	7.81955
3042.01	8.92522
3043.29	9.34665
3044.58	10.7318
3045.87	11.0701
3047.15	11.5417
3048.44	12.4166
3049.72	13.2631
3051.01	13.6994
3052.29	14.6765
3053.58	15.3409
3054.86	15.7256
3056.15	16.2246
3057.43	16.3292
3058.71	16.0647
3060	16.6264
3061.28	16.4824
3062.56	15.8345
3063.84	15.7689
3065.13	15.5919
3066.41	14.4183
3067.69	14.4057
3068.97	13.9165
3070.26	13.6376
3071.54	13.034
3072.82	12.5992
3074.1	11.3237
3075.38	10.9096
3076.66	9.99286
3077.94	9.53843
3079.22	8.60226
3080.5	7.5446
3081.78	6.77528
3083.06	5.85638
3084.34	5.28066
3085.62	4.14203
3086.9	3.54041
3088.18	2.92766
3089.45	2.22312
3090.73	1.15934
3092.01	0.353428
3093.29	0.0499211
3094.56	0.357414
3095.84	0.455209
3097.12	0.187122
3098.4	0.0064249
3099.67	0.176584
3100.95	-0.146624
3102.22	-0.0597736
3103.5	0.0198376
3104.78	0.414838
3106.05	0.879388
3107.33	1.07254
3108.6	1.55101
3109.88	2.00532
3111.15	3.0736
3112.43	3.45181
3113.7	4.12556
3114.97	4.51632
3116.25	4.64991
3117.52	5.19084
3118.79	5.51101
3120.07	5.82615
3121.34	6.08472
3122.61	6.38679
3123.88	6.79991
3125.16	6.96068
3126.43	7.22679
3127.7	8.36643
3128.97	8.79418
3130.24	9.55642
3131.51	10.6912
3132.79	10.8323
3134.06	11.6002
3135.33	11.9988
3136.6	12.6102
3137.87	13.1455
3139.14	13.623
3140.41	13.6216
3141.67	14.0498
3142.94	13.9924
3144.21	13.9306
3145.48	13.7882
3146.75	13.9131
3148.02	13.1003
3149.29	13.929
