#Acq. time (s)=	45
#Accumulations=	2
#Range (cm-¹)=	200...3150
#Windows=	2
#Auto scanning=	Off
#Autofocus=	Off
#Macrospot=	Off
#AutoExposure=	Off
#Spike filter=	Multiple accum.
#Delay time (s)=	0
#Binning=	1
#Readout mode=	Signal
#DeNoise=	Off
#ICS correction=	On
#Dark correction=	Off
#Inst. Process=	Off
#Detector Gain=	Best Dynamic Range
#Detector ADC=	20 kHz       
#Detector temperature (°C)=	-69.85
#Instrument=	LabRAM HR Evol
#Detector=	Synapse
#Objective=	x100
#Grating=	600 gr/mm
#ND Filter=	100%
#Laser (nm)=	532 
#Hole=	100.021
#Range=	Auto
#Laser Pol.=	No
#Raman. Pol.=	No
#Laser Pol. (°)=	-0.0007625
#Raman Pol. (°)=	89.9995
#Collection=	Microscope
#StageXY=	Marzhauser
#StageZ=	Marzhauser
#X (µm)=	-5111.6
#Y (µm)=	1527.7
#Z (µm)=	63.6
#Full time(mm:ss)=	3:19
#Project=	
#Sample=	
#Site=	
#Title=	Thy_50_12_47_2x_45s_532 nm_x100_100%_600 gr_mm
#Remark=	
#Date=	07.07.2022 12:42
#Acquired=	07.07.2022 12:42:26
#Base:Fit=	10.08.2022 10:04:30
#Base:Sub=	10.08.2022 10:04:45
#Filter:Polynom=	16.08.2022 10:20:25
#AxisType[0]=Intens
#AxisUnit[0]=Cnt
#AxisType[1]=Spectr
#AxisUnit[1]=1/cm
200.43	16.9656
202.246	20.5239
204.061	25.0088
205.875	26.4833
207.688	27.6327
209.501	27.9608
211.316	27.2838
213.129	25.7108
214.941	25.8302
216.753	24.7881
218.566	24.362
220.377	22.854
222.188	22.4791
223.999	22.379
225.809	22.7961
227.618	22.4352
229.43	21.3127
231.239	19.9127
233.047	18.4685
234.855	17.8232
236.663	17.6132
238.471	17.5147
240.278	17.6302
242.087	17.2402
243.894	16.3834
245.7	16.7308
247.506	15.9859
249.311	15.0767
251.116	14.4352
252.921	14.9878
254.725	14.6163
256.529	14.1363
258.333	13.7453
260.136	14.2864
261.939	14.0942
263.744	14.0571
265.546	13.8017
267.348	15.0722
269.15	14.9687
270.951	14.8321
272.752	14.9236
274.552	15.8816
276.353	17.1253
278.152	18.3594
279.952	18.8591
281.751	18.0091
283.55	16.8248
285.348	17.2968
287.146	17.173
288.942	16.1959
290.739	15.2841
292.536	15.7441
294.333	14.5223
296.129	15.5913
297.925	15.009
299.721	14.1686
301.516	15.0436
303.311	15.3955
305.106	16.3065
306.9	15.5718
308.694	16.4889
310.486	16.0252
312.279	18.0653
314.072	18.1585
315.864	17.6019
317.656	17.6885
319.448	16.8863
321.24	17.4754
323.029	16.585
324.819	17.1068
326.61	17.6479
328.4	17.3512
330.19	17.415
331.977	16.9716
333.766	17.5402
335.555	17.9238
337.343	17.0907
339.131	17.2398
340.917	17.44
342.704	18.0499
344.491	18.2987
346.277	18.7253
348.062	19.1592
349.848	18.7576
351.633	19.296
353.416	18.8155
355.201	18.6393
356.986	19.3441
358.77	18.4278
360.552	17.7228
362.335	17.112
364.118	16.7384
365.899	15.4232
367.682	13.2059
369.464	11.1384
371.243	10.3364
373.025	9.84407
374.806	9.78472
376.585	9.60987
378.365	9.66883
380.143	9.55595
381.923	9.85969
383.702	10.0795
385.479	9.43425
387.258	9.17738
389.034	9.7654
390.812	9.44694
392.59	8.40325
394.365	8.7354
396.142	8.71665
397.916	8.62555
399.693	8.28462
401.467	8.73944
403.242	7.50224
405.015	7.50238
406.79	8.76664
408.565	8.05807
410.337	8.55945
412.111	7.91994
413.882	9.10962
415.656	9.50756
417.426	9.69048
419.197	10.9348
420.969	11.2102
422.739	13.0407
424.51	13.1327
426.279	13.9018
428.05	14.725
429.819	15.5279
431.589	16.5962
433.356	16.3448
435.124	15.6679
436.893	15.5037
438.66	15.3031
440.428	15.3974
442.194	14.0814
443.96	14.3751
445.727	15.4657
447.492	14.5541
449.259	14.0947
451.023	12.5093
452.787	11.0532
454.553	10.8344
456.316	10.1173
458.079	10.4619
459.844	10.3101
461.606	10.4296
463.368	10.06
465.132	10.37
466.893	10.091
468.654	10.2076
470.415	10.6438
472.177	10.665
473.937	9.45642
475.696	10.1173
477.456	9.3791
479.217	8.74541
480.975	8.45289
482.733	8.42076
484.491	8.45475
486.251	9.14739
488.008	9.46861
489.765	9.9637
491.522	10.2952
493.278	10.8571
495.036	11.4036
496.791	11.1157
498.546	11.3753
500.301	11.1574
502.056	11.2648
503.81	11.652
505.566	12.2553
507.319	13.5224
509.073	14.6573
510.825	14.644
512.578	14.2524
514.33	13.6776
516.082	14.2369
517.833	14.114
519.587	14.0249
521.337	13.5643
523.088	13.8489
524.838	14.2988
526.588	14.2015
528.337	14.3855
530.087	14.5389
531.835	15.7543
533.584	14.9065
535.332	14.129
537.08	13.9954
538.827	13.4203
540.574	13.5214
542.321	14.6613
544.068	13.9701
545.814	13.5415
547.56	13.4163
549.305	13.2874
551.05	12.3548
552.795	13.629
554.54	12.7918
556.284	13.089
558.027	13.2231
559.771	13.1365
561.514	12.3
563.257	12.6776
564.999	11.8258
566.742	11.3625
568.481	10.0547
570.223	8.8419
571.964	8.84831
573.705	7.81791
575.445	7.39746
577.185	8.06197
578.925	7.42341
580.665	7.08594
582.402	5.97808
584.141	5.92528
585.879	5.63322
587.617	5.36804
589.355	6.06896
591.092	6.46566
592.828	6.47515
594.564	6.16753
596.301	5.03951
598.037	3.64967
599.773	4.18922
601.506	4.68884
603.242	4.93568
604.976	4.41847
606.711	4.93817
608.443	4.34733
610.177	3.94712
611.91	3.84625
613.644	3.255
615.374	3.44214
617.107	3.72507
618.839	4.37124
620.569	3.31519
622.3	4.2234
624.032	4.12129
625.761	4.19663
627.491	4.54348
629.221	5.57302
630.949	5.55485
632.679	6.11735
634.408	6.26577
636.135	6.56571
637.863	7.51993
639.592	8.18886
641.318	8.27982
643.045	8.93836
644.77	9.15971
646.497	9.6795
648.224	9.25418
649.948	9.70028
651.674	8.79031
653.398	9.21723
655.123	9.22
656.846	10.0058
658.57	11.01
660.293	11.7327
662.017	12.6603
663.738	13.0702
665.462	12.7592
667.185	13.5828
668.905	13.1591
670.628	14.2776
672.348	14.1127
674.067	14.4292
675.789	13.5081
677.508	13.3369
679.228	11.9748
680.947	12.5186
682.667	12.1555
684.385	12.0391
686.104	13.1399
687.821	13.2297
689.538	12.9975
691.256	14.2425
692.972	14.9654
694.69	14.774
696.406	15.5962
698.121	16.112
699.837	16.7719
701.552	17.7785
703.268	18.8553
704.982	18.8983
706.695	18.9641
708.41	20.7439
710.123	21.8323
711.836	23.7799
713.55	25.2201
715.262	26.1081
716.973	26.4011
718.685	26.7686
720.398	27.1168
722.108	28.5561
723.818	30.1895
725.53	31.0468
727.24	32.2754
728.949	32.6395
730.658	33.8635
732.369	34.4933
734.077	35.1069
735.785	36.0645
737.493	37.6644
739.2	38.6538
740.909	39.4127
742.616	40.8162
744.322	42.3633
746.028	42.7957
747.734	43.1781
749.441	43.8412
751.146	44.005
752.851	44.3705
754.555	44.1416
756.26	44.4443
757.963	43.6034
759.667	43.9467
761.372	43.9361
763.075	45.2812
764.777	45.4829
766.479	46.5168
768.181	48.0234
769.883	50.0761
771.584	51.8023
773.285	52.2574
774.986	54.5045
776.686	56.3373
778.386	56.7077
780.085	57.4877
781.785	59.1938
783.484	61.0343
785.182	62.6181
786.881	63.5611
788.579	64.3624
790.276	65.4167
791.974	67.611
793.671	69.2069
795.367	70.5585
797.064	71.3747
798.76	71.5354
800.456	71.4762
802.151	71.6628
803.846	70.7304
805.541	71.9412
807.236	72.7244
808.93	72.6965
810.624	72.5816
812.317	72.4126
814.01	72.1983
815.703	71.7889
817.394	71.3981
819.086	71.0328
820.778	70.9253
822.47	69.9135
824.161	68.2006
825.852	67.0469
827.543	64.5233
829.231	63.0042
830.921	60.3592
832.611	58.9173
834.3	58.2644
835.989	57.0805
837.676	56.0455
839.364	53.4248
841.053	51.2603
842.74	50.0836
844.426	49.1818
846.113	47.7432
847.8	46.8941
849.486	45.8041
851.171	44.1616
852.857	44.6878
854.542	42.1019
856.227	41.2789
857.911	40.5275
859.595	40.368
861.279	40.4562
862.961	39.3869
864.645	38.7201
866.329	37.733
868.01	36.4373
869.692	35.6745
871.375	35.782
873.055	36.5236
874.737	37.6166
876.418	37.3465
878.097	37.329
879.778	37.4719
881.457	37.1422
883.137	37.5999
884.817	37.544
886.495	37.2125
888.174	37.0957
889.851	38.561
891.53	37.7938
893.206	37.161
894.884	36.7748
896.562	36.5522
898.237	36.1154
899.914	35.8371
901.589	35.8183
903.265	34.0133
904.94	33.3913
906.615	30.9817
908.289	31.5686
909.964	31.0594
911.637	30.6678
913.31	32.1734
914.984	32.0636
916.656	31.6326
918.33	31.0176
920.001	29.9588
921.674	28.1074
923.345	26.5208
925.015	26.7734
926.687	25.3777
928.357	24.0361
930.028	23.8699
931.698	22.9669
933.366	21.8019
935.037	21.167
936.705	21.006
938.373	19.6163
940.043	19.5598
941.71	17.4748
943.379	16.2534
945.046	15.216
946.712	13.7465
948.378	12.791
950.046	12.8171
951.711	13.5552
953.376	13.4889
955.043	13.8443
956.708	11.9428
958.372	11.6533
960.036	11.9281
961.701	11.6073
963.364	12.7432
965.027	12.829
966.69	13.8669
968.354	13.3186
970.016	13.5854
971.678	13.7295
973.339	13.4902
975	13.1978
976.661	13.2201
978.324	12.0544
979.984	12.3592
981.644	12.7725
983.303	12.7537
984.962	12.5027
986.621	12.1405
988.282	13.3488
989.94	13.0591
991.598	15.1261
993.256	14.156
994.913	15.2919
996.57	15.716
998.227	15.2109
999.884	13.9696
1001.54	14.2009
1003.2	14.9621
1004.85	15.5097
1006.51	16.2765
1008.16	16.9701
1009.82	15.8141
1011.47	16.4604
1013.12	17.0904
1014.78	17.3947
1016.43	18.1391
1018.08	17.4938
1019.74	17.1444
1021.39	17.7638
1023.04	17.4064
1024.69	17.2389
1026.34	17.6715
1028	17.5062
1029.65	18.8696
1031.3	19.6436
1032.95	19.5878
1034.6	19.8019
1036.25	19.4365
1037.9	21.6114
1039.55	21.0775
1041.19	23.1173
1042.84	23.454
1044.49	23.1864
1046.14	24.7891
1047.79	23.9943
1049.43	24.1793
1051.08	23.1557
1052.73	22.4609
1054.37	21.8626
1056.02	21.0468
1057.66	20.4312
1059.31	19.6942
1060.95	19.3571
1062.6	20.0234
1064.24	19.2112
1065.88	18.262
1067.53	16.5805
1069.17	15.9358
1070.81	15.4195
1072.46	14.4486
1074.1	14.3758
1075.74	13.1479
1077.38	13.1466
1079.02	12.4639
1080.66	12.2407
1082.3	11.6315
1083.94	11.7519
1085.58	11.2259
1087.22	10.3412
1088.86	9.15773
1090.5	9.15048
1092.14	8.58361
1093.78	8.85157
1095.42	9.32955
1097.05	10.029
1098.69	10.3115
1100.33	9.73331
1101.97	10.7802
1103.6	11.5594
1105.24	11.3605
1106.87	11.6781
1108.51	11.0154
1110.15	11.7784
1111.78	13.3117
1113.41	11.8936
1115.05	10.9344
1116.68	11.5345
1118.31	11.2494
1119.95	12.1539
1121.58	10.702
1123.21	11.7424
1124.85	11.8046
1126.48	11.0638
1128.11	11.1613
1129.74	10.9663
1131.37	10.9196
1133	10.2912
1134.63	10.2647
1136.26	10.0321
1137.89	8.54639
1139.52	7.74884
1141.15	7.05869
1142.78	6.97917
1144.41	7.04469
1146.04	6.35968
1147.66	5.71385
1149.29	4.96244
1150.92	4.58376
1152.55	3.78373
1154.17	3.57052
1155.8	3.3491
1157.43	3.19957
1159.05	3.43848
1160.68	3.14199
1162.3	3.06234
1163.93	1.77218
1165.55	1.59614
1167.17	1.79332
1168.8	1.16587
1170.42	1.7358
1172.05	2.38167
1173.67	0.822246
1175.29	1.673
1176.91	2.18486
1178.54	1.81505
1180.16	1.57994
1181.78	1.39038
1183.4	1.70092
1185.02	1.26011
1186.64	1.746
1188.26	1.42209
1189.88	0.614782
1191.5	0.742336
1193.12	0.123319
1194.74	0.0353089
1196.36	2.03299
1197.97	3.12369
1199.59	3.91925
1201.21	4.63564
1202.83	5.13328
1204.44	6.5552
1206.06	5.63878
1207.68	6.08543
1209.29	7.12437
1210.91	7.81797
1212.52	8.25444
1214.14	9.09303
1215.75	10.0457
1217.37	10.3787
1218.98	11.0279
1220.6	13.0515
1222.21	15.0092
1223.82	17.2381
1225.44	18.6643
1227.05	18.6666
1228.66	19.333
1230.27	20.8562
1231.88	21.2265
1233.49	22.5352
1235.1	24.2143
1236.72	24.8415
1238.33	26.7843
1239.94	28.5215
1241.55	29.1714
1243.16	31.466
1244.76	32.1254
1246.37	33.6767
1247.98	34.3549
1249.59	35.1982
1251.2	36.8385
1252.8	37.6097
1254.41	38.6615
1256.02	42.0707
1257.63	43.0884
1259.23	43.7694
1260.84	45.8339
1262.44	47.3524
1264.05	48.6911
1265.66	50.5444
1267.26	51.9923
1268.87	53.1339
1270.47	53.7947
1272.07	56.26
1273.68	57.8151
1275.28	60.0641
1276.88	61.4798
1278.48	62.2962
1280.09	63.4221
1281.69	64.2535
1283.29	65.8047
1284.89	66.5359
1286.49	66.2741
1288.09	66.9273
1289.69	67.6681
1291.3	68.0667
1292.9	68.572
1294.49	68.5592
1296.09	68.4321
1297.69	69.0733
1299.29	69.739
1300.89	70.0828
1302.49	70.496
1304.09	69.5946
1305.68	68.4574
1307.28	67.848
1308.88	67.4808
1310.47	66.4791
1312.07	65.346
1313.66	65.5828
1315.26	66.0123
1316.86	64.4624
1318.45	64.6029
1320.05	62.9065
1321.64	61.1125
1323.23	60.9285
1324.83	59.6596
1326.42	58.8309
1328.01	57.9297
1329.61	56.8425
1331.2	55.8593
1332.79	55.4458
1334.38	55.711
1335.98	54.9566
1337.57	54.1686
1339.16	52.8634
1340.75	52.9413
1342.34	52.1982
1343.93	51.9123
1345.52	50.6488
1347.11	49.4191
1348.7	49.4146
1350.29	47.7528
1351.87	47.7944
1353.46	46.565
1355.05	46.4835
1356.64	45.762
1358.23	45.4124
1359.81	44.3757
1361.4	44.1099
1362.99	43.0899
1364.57	42.1882
1366.16	41.212
1367.74	40.6104
1369.33	41.1357
1370.91	40.5083
1372.5	40.0897
1374.08	39.0901
1375.67	39.3903
1377.25	39.2161
1378.83	39.1779
1380.42	38.4117
1382	38.6086
1383.58	37.9464
1385.16	37.9246
1386.75	37.8579
1388.33	37.0224
1389.91	37.4023
1391.49	37.5275
1393.07	37.1686
1394.65	36.4125
1396.23	35.3594
1397.81	35.9386
1399.39	35.6343
1400.97	36.0845
1402.55	36.667
1404.13	36.7628
1405.7	36.3959
1407.28	37.1419
1408.86	37.4989
1410.44	38.4582
1412.01	40.0128
1413.59	41.8035
1415.17	42.9566
1416.74	45.165
1418.32	46.7033
1419.89	48.2404
1421.47	50.1137
1423.05	52.6773
1424.62	54.5944
1426.19	57.2498
1427.77	59.0019
1429.34	61.1522
1430.92	64.6999
1432.49	68.1176
1434.06	71.2238
1435.63	73.9352
1437.2	75.5794
1438.78	76.9708
1440.35	79.0141
1441.92	79.9364
1443.49	81.1002
1445.06	81.8056
1446.63	81.7683
1448.2	82.703
1449.77	81.9845
1451.34	81.0813
1452.91	81.071
1454.48	80.733
1456.05	79.8342
1457.62	79.0672
1459.18	77.5718
1460.75	76.0703
1462.32	74.558
1463.89	72.486
1465.45	70.4437
1467.02	68.5317
1468.59	65.7812
1470.15	61.4916
1471.72	58.7877
1473.28	55.8177
1474.85	53.258
1476.41	50.023
1477.98	47.0883
1479.54	43.7683
1481.11	41.4003
1482.67	38.2718
1484.23	35.0775
1485.8	33.2095
1487.36	30.0898
1488.92	28.036
1490.48	27.143
1492.05	25.8747
1493.61	24.4213
1495.17	23.1221
1496.73	21.828
1498.29	20.7922
1499.85	20.5771
1501.41	20.2139
1502.97	20.1686
1504.53	19.359
1506.09	19.0598
1507.65	19.8482
1509.2	19.6595
1510.76	19.5064
1512.32	18.8914
1513.88	19.2571
1515.44	18.2302
1516.99	19.0165
1518.55	20.3336
1520.1	20.63
1521.66	20.4725
1523.22	21.538
1524.77	22.5625
1526.33	24.2904
1527.88	24.9601
1529.44	25.4785
1530.99	27.0043
1532.55	28.4752
1534.1	29.426
1535.65	30.5241
1537.21	32.0716
1538.76	33.5625
1540.31	34.5883
1541.86	35.5667
1543.42	36.4343
1544.97	37.7803
1546.52	39.0803
1548.07	40.8742
1549.62	44.0356
1551.17	45.5383
1552.72	47.2588
1554.27	48.1093
1555.82	49.6163
1557.37	51.1702
1558.92	52.201
1560.47	52.1745
1562.02	53.9175
1563.57	55.3905
1565.11	56.3886
1566.66	59.0979
1568.21	61.5998
1569.75	62.484
1571.3	64.1001
1572.85	65.6819
1574.39	67.3768
1575.94	68.5113
1577.49	69.9471
1579.03	71.3355
1580.58	72.0191
1582.12	72.8472
1583.67	74.7023
1585.21	74.651
1586.75	74.5937
1588.3	75.8391
1589.84	75.864
1591.38	76.1157
1592.93	76.2001
1594.47	76.2985
1596.01	76.0426
1597.55	74.5724
1599.09	74.2359
1600.63	73.8464
1602.18	73.3906
1603.72	72.7488
1605.26	71.2664
1606.8	70.7695
1608.34	69.9092
1609.87	68.9805
1611.41	67.0687
1612.95	66.5237
1614.49	65.8937
1616.03	64.6388
1617.57	63.4181
1619.11	62.7661
1620.64	63.0604
1622.18	63.5621
1623.72	63.619
1625.25	62.7115
1626.79	62.5054
1628.32	60.2867
1629.86	58.8546
1631.4	58.9053
1632.93	58.8492
1634.47	58.3955
1636	58.3188
1637.53	59.3191
1639.07	60.3091
1640.6	60.9374
1642.14	61.8129
1643.67	63.7954
1645.2	64.7882
1646.73	65.1109
1648.27	67.0954
1649.8	67.5033
1651.33	68.0847
1652.86	68.4038
1654.39	69.1108
1655.92	69.1309
1657.45	68.3505
1658.98	68.6084
1660.51	67.5661
1662.04	65.9501
1663.57	65.1711
1665.1	65.416
1666.63	64.1037
1668.16	63.6923
1669.69	63.1101
1671.21	61.3505
1672.74	61.1595
1674.27	60.7197
1675.79	59.5056
1677.32	57.1567
1678.85	55.4846
1680.37	52.8561
1681.9	50.8445
1683.42	49.6448
1684.95	46.6706
1686.47	44.7526
1688	42.2656
1689.52	39.5942
1691.05	37.2605
1692.57	34.543
1694.1	32.778
1695.62	30.4158
1697.14	28.8343
1698.66	26.3327
1700.19	23.8289
1701.71	22.3847
1703.23	20.6896
1704.75	19.0256
1706.27	18.1602
1707.79	17.5127
1709.32	16.2821
1710.83	15.1497
1712.35	15.1477
1713.88	14.3357
1715.39	13.6773
1716.91	12.8632
1718.43	12.5899
1719.95	12.9194
1721.47	12.0589
1722.99	11.2511
1724.5	11.6659
1726.02	10.3911
1727.54	10.7284
1729.06	9.89651
1730.57	9.53175
1732.09	9.0738
1733.61	8.79915
1735.12	9.3366
1736.64	9.71202
1738.15	10.0363
1739.67	10.5447
1741.18	11.1433
1742.7	10.8788
1744.21	11.2968
1745.72	11.5286
1747.24	11.3133
1748.75	11.107
1750.26	10.2724
1751.78	9.10149
1753.29	8.0932
1754.8	8.24635
1756.31	7.98146
1757.82	8.15357
1759.34	7.5597
1760.85	7.13367
1762.36	6.70429
1763.87	6.22096
1765.38	6.18242
1766.89	6.29559
1768.4	5.8309
1769.91	5.88295
1771.41	5.55421
1772.92	5.71996
1774.43	5.51299
1775.94	5.38564
1777.45	5.20091
1778.96	4.27735
1780.46	3.90935
1781.97	3.86634
1783.48	3.7684
1784.98	3.60396
1786.49	3.44942
1788	3.39387
1789.5	3.29074
1791.01	3.2601
1792.51	2.81009
1794.01	3.11704
1795.52	3.22367
1797.02	2.95091
1798.53	3.23252
1800.03	3.8775
1801.54	3.248
1803.04	4.00523
1804.54	3.47611
1806.04	4.19597
1807.54	4.44448
1809.05	4.97344
1810.55	5.27074
1812.05	5.40091
1813.55	5.17868
1815.05	4.84636
1816.55	4.07253
1818.05	4.14042
1819.55	4.18477
1821.05	4.29269
1822.55	4.33715
1824.05	4.34748
1825.55	4.2289
1827.05	4.32168
1828.55	4.02562
1830.04	4.59323
1831.54	4.38115
1833.04	4.91118
1834.54	5.19801
1836.03	5.63166
1837.53	5.2363
1839.03	5.51994
1840.52	5.68064
1842.02	5.73219
1843.51	6.05401
1845.01	5.97861
1846.5	5.67502
1848	5.40168
1849.49	5.23679
1850.99	4.94106
1852.48	4.3482
1853.97	4.87233
1855.47	4.5007
1856.96	4.46037
1858.45	3.62041
1859.94	3.30931
1861.44	3.5377
1862.93	3.78413
1864.42	3.56085
1865.91	3.38183
1867.4	3.2482
1868.89	3.6989
1870.38	4.15989
1871.87	4.19588
1873.36	4.70221
1874.85	5.49167
1876.34	6.02365
1877.83	6.80328
1879.32	6.37059
1880.81	6.89779
1882.3	7.47145
1882.56	7.66777
1884.06	7.90136
1885.55	7.85823
1887.04	7.93533
1888.54	7.81762
1890.03	7.93643
1891.52	8.09727
1893.02	7.65823
1894.51	7.7339
1896	7.68242
1897.49	7.53636
1898.99	7.49326
1900.48	8.08561
1901.97	8.50176
1903.46	8.37466
1904.95	8.7862
1906.44	9.05582
1907.93	9.00086
1909.42	8.57014
1910.91	8.85985
1912.4	8.63684
1913.89	8.46994
1915.38	8.11968
1916.86	7.02373
1918.35	7.00309
1919.84	6.45638
1921.33	5.74977
1922.82	4.36781
1924.3	3.62352
1925.79	2.91319
1927.28	2.88637
1928.76	1.56875
1930.25	1.5046
1931.74	1.01249
1933.22	1.38077
1934.71	1.34868
1936.19	1.44676
1937.67	0.810044
1939.16	1.15131
1940.64	0.988976
1942.13	1.95244
1943.61	1.97919
1945.09	2.68222
1946.58	3.26821
1948.06	3.50774
1949.54	3.30155
1951.03	3.33825
1952.51	3.01381
1953.99	3.66008
1955.47	3.54379
1956.95	3.1384
1958.43	3.31587
1959.91	2.91394
1961.39	3.27143
1962.87	3.03629
1964.35	3.1193
1965.83	2.95311
1967.31	3.33068
1968.79	4.29969
1970.27	4.48066
1971.75	4.46143
1973.22	4.89736
1974.7	5.16983
1976.18	4.48881
1977.66	4.07134
1979.13	4.16363
1980.61	3.8604
1982.09	3.62976
1983.56	3.34708
1985.04	3.42764
1986.52	2.62907
1987.99	3.24476
1989.47	3.11994
1990.94	3.09149
1992.41	3.0474
1993.89	1.93344
1995.36	1.64736
1996.84	1.29687
1998.31	1.12623
1999.78	1.30219
2001.26	2.01112
2002.73	1.73284
2004.2	2.30484
2005.67	2.30097
2007.15	2.6531
2008.62	1.88264
2010.09	2.3392
2011.56	2.03646
2013.03	2.37097
2014.5	1.71475
2015.97	1.99516
2017.44	2.09769
2018.91	2.44921
2020.38	2.56569
2021.85	2.65076
2023.32	3.31386
2024.79	3.44682
2026.25	3.03919
2027.72	3.56297
2029.19	3.41693
2030.66	3.89996
2032.13	4.23625
2033.59	4.04739
2035.06	4.60087
2036.53	5.02273
2037.99	5.8403
2039.46	6.36125
2040.92	7.11965
2042.39	7.4318
2043.85	7.1822
2045.32	7.07729
2046.78	7.51285
2048.25	7.80174
2049.71	7.54388
2051.18	8.38761
2052.64	9.48929
2054.1	9.76457
2055.56	10.4579
2057.03	10.8604
2058.49	11.536
2059.95	11.8302
2061.42	12.5747
2062.88	11.7569
2064.34	12.0269
2065.8	11.8257
2067.26	12.6055
2068.72	13.4589
2070.18	13.7343
2071.64	14.4521
2073.1	15.0723
2074.56	15.8727
2076.02	15.6209
2077.48	15.9225
2078.94	15.8823
2080.39	16.4706
2081.85	16.3901
2083.31	17.1852
2084.77	18.082
2086.22	18.916
2087.68	20.0327
2089.14	21.8995
2090.6	22.6814
2092.05	23.4545
2093.51	24.367
2094.96	24.7916
2096.42	25.9164
2097.87	26.7715
2099.33	27.5985
2100.78	29.0118
2102.24	29.955
2103.69	31.3071
2105.15	32.3268
2106.6	33.2162
2108.05	34.9035
2109.51	36.5003
2110.96	37.35
2112.41	38.18
2113.86	39.235
2115.32	40.1203
2116.77	41.1401
2118.22	42.2331
2119.67	43.6052
2121.12	44.8866
2122.57	46.019
2124.02	47.9608
2125.47	49.4418
2126.92	50.7557
2128.37	52.9615
2129.82	54.238
2131.27	55.1653
2132.72	56.0621
2134.17	57.6282
2135.62	58.5768
2137.06	60.9471
2138.51	61.9342
2139.96	63.4562
2141.41	65.1241
2142.85	66.2213
2144.3	68.0406
2145.75	68.6094
2147.19	70.2072
2148.64	70.9904
2150.09	72.9446
2151.53	74.2835
2152.97	75.8391
2154.42	76.3614
2155.86	77.916
2157.31	79.529
2158.75	79.8149
2160.2	80.8939
2161.64	81.3114
2163.08	81.853
2164.53	83.0735
2165.97	83.2177
2167.41	82.9608
2168.86	83.0084
2170.3	82.8102
2171.74	81.9725
2173.18	81.9172
2174.62	81.787
2176.06	81.111
2177.5	80.7208
2178.94	80.2656
2180.38	79.6197
2181.82	78.9287
2183.26	77.4928
2184.7	76.6612
2186.14	75.3601
2187.58	74.6031
2189.02	73.4013
2190.46	71.9866
2191.89	71.0263
2193.33	70.7665
2194.77	70.3873
2196.21	69.7193
2197.64	68.7178
2199.08	66.9954
2200.52	66.1089
2201.95	64.5978
2203.39	63.4109
2204.83	62.5695
2206.26	61.2503
2207.7	60.0273
2209.13	59.8605
2210.57	58.6029
2212	57.8542
2213.43	57.0854
2214.87	56.1082
2216.3	54.4778
2217.73	52.1863
2219.17	51.2822
2220.6	49.8839
2222.03	48.7407
2223.47	46.6836
2224.9	45.4018
2226.33	43.8733
2227.76	42.8445
2229.19	41.7051
2230.62	40.0481
2232.05	38.9703
2233.49	37.228
2234.91	36.2309
2236.34	34.5195
2237.77	32.4886
2239.2	30.8853
2240.63	29.8853
2242.06	28.9676
2243.49	27.9936
2244.92	27.5571
2246.35	26.8213
2247.78	25.616
2249.2	24.9194
2250.63	23.3678
2252.06	21.9449
2253.48	20.7053
2254.91	19.8757
2256.34	19.5169
2257.76	19.169
2259.19	19.0495
2260.61	18.1824
2262.04	18.5589
2263.46	18.3989
2264.89	18.2384
2266.31	17.9077
2267.74	16.6897
2269.16	16.3276
2270.59	15.9882
2272.01	17.1326
2273.43	16.7171
2274.85	16.5813
2276.28	16.1337
2277.7	15.6056
2279.12	15.8252
2280.54	15.8515
2281.97	14.9461
2283.39	14.3408
2284.81	13.8727
2286.23	13.1787
2287.65	11.7781
2289.07	11.2682
2290.49	10.824
2291.91	9.41574
2293.33	8.77881
2294.75	8.54996
2296.17	8.24571
2297.59	7.85525
2299.01	7.64863
2300.42	7.81876
2301.84	7.51076
2303.26	7.35258
2304.68	7.69008
2306.1	8.04596
2307.51	7.78453
2308.93	7.96971
2310.35	8.12455
2311.76	7.97074
2313.18	7.90144
2314.59	8.03841
2316.01	7.76062
2317.43	7.68181
2318.84	7.30358
2320.26	7.36245
2321.67	6.89078
2323.08	7.22938
2324.5	7.72588
2325.91	7.19744
2327.33	7.28088
2328.74	7.19721
2330.15	7.15355
2331.56	7.04497
2332.98	7.24028
2334.39	6.47725
2335.8	5.96638
2337.21	6.16567
2338.62	5.36988
2340.04	5.87089
2341.45	5.08409
2342.86	5.27672
2344.27	4.09323
2345.68	3.08672
2347.09	2.53122
2348.5	2.15385
2349.91	1.99664
2351.31	1.47823
2352.72	0.73457
2354.13	0.528345
2355.54	-0.00396369
2356.95	-0.608812
2358.36	-0.965852
2359.76	-1.4281
2361.17	-1.93863
2362.58	-1.93816
2363.98	-0.859948
2365.39	-0.0180433
2366.8	-0.238005
2368.21	-0.0219094
2369.61	0.809951
2371.02	1.44908
2372.42	1.25061
2373.83	1.4634
2375.23	2.07942
2376.64	2.09423
2378.04	2.62958
2379.44	2.6608
2380.85	2.62612
2382.25	2.45191
2383.66	3.02334
2385.06	3.69678
2386.46	4.05257
2387.86	4.97677
2389.26	5.28739
2390.67	6.03863
2392.07	6.43856
2393.47	6.66678
2394.87	6.66392
2396.27	6.33273
2397.67	6.87797
2399.07	6.67873
2400.47	7.0626
2401.87	6.69304
2403.27	6.9042
2404.67	6.28056
2406.07	6.13244
2407.47	6.44025
2408.87	5.94209
2410.27	6.29099
2411.67	6.04791
2413.07	6.52363
2414.46	5.72397
2415.86	5.89085
2417.26	6.08333
2418.66	6.10227
2420.05	6.25877
2421.45	6.1237
2422.84	6.05494
2424.24	5.63302
2425.64	5.38856
2427.03	5.48875
2428.43	4.98315
2429.82	4.68362
2431.22	5.24723
2432.61	5.30817
2434.01	5.42671
2435.4	4.92129
2436.79	4.43867
2438.19	4.62591
2439.58	5.21269
2440.97	4.77859
2442.37	4.57942
2443.76	4.75072
2445.15	4.68322
2446.54	4.41857
2447.93	4.66315
2449.33	4.28876
2450.72	4.48253
2452.11	4.72141
2453.5	5.30505
2454.89	6.13263
2456.28	6.77917
2457.67	6.58584
2459.06	6.97464
2460.45	7.30363
2461.84	6.48499
2463.23	6.21647
2464.62	6.0992
2466	5.44157
2467.39	5.23926
2468.78	5.34796
2470.17	5.79335
2471.55	5.71545
2472.94	5.464
2474.33	5.52525
2475.72	5.77319
2477.1	5.66175
2478.49	5.26172
2479.87	4.87196
2481.26	4.65042
2482.65	3.88968
2484.03	4.12329
2485.42	4.29283
2486.8	4.0353
2488.19	3.83278
2489.57	3.43032
2490.95	2.98126
2492.34	2.12146
2493.72	1.77631
2495.1	2.02644
2496.49	2.13656
2497.87	1.46708
2499.25	1.52164
2500.63	1.84512
2502.02	1.43837
2503.4	0.93695
2504.78	0.664112
2506.16	0.962141
2507.54	0.673769
2508.92	0.72568
2510.3	0.614354
2511.68	0.46118
2513.06	0.6589
2514.44	0.261253
2515.82	0.172096
2517.2	0.562558
2518.58	0.923409
2519.96	1.04029
2521.34	1.36452
2522.72	1.94928
2524.1	2.17294
2525.47	1.81421
2526.85	1.44916
2528.23	2.44944
2529.6	2.30624
2530.98	1.86499
2532.36	2.1124
2533.74	1.93109
2535.11	2.30679
2536.49	2.91599
2537.86	2.92931
2539.24	3.37735
2540.61	3.03653
2541.99	2.79264
2543.36	3.57968
2544.74	3.73369
2546.11	4.04852
2547.49	4.53997
2548.86	4.88013
2550.23	5.32775
2551.61	5.40348
2552.98	6.06755
2554.35	5.69382
2555.72	5.68575
2557.09	5.59097
2558.47	5.8155
2559.84	6.00131
2561.21	5.99774
2562.58	6.76921
2563.95	6.73158
2565.32	6.74878
2566.69	6.64294
2568.06	7.14744
2569.43	7.27389
2570.8	6.44129
2572.17	6.56601
2573.54	6.75549
2574.91	6.93737
2576.28	6.67393
2577.65	7.53559
2579.02	7.19212
2580.39	6.97263
2581.75	6.7906
2583.12	6.48988
2584.49	6.60851
2585.85	6.74808
2587.22	6.30365
2588.59	5.99619
2589.95	6.34659
2591.32	6.22332
2592.68	5.63312
2594.05	5.91571
2595.42	5.83808
2596.78	5.75392
2598.15	4.79585
2599.51	4.31407
2600.88	4.541
2602.24	5.16827
2603.6	5.28165
2604.97	4.83487
2606.33	4.78667
2607.69	4.88927
2609.06	4.9259
2610.42	4.48536
2611.78	4.54974
2613.14	4.13737
2614.51	3.44869
2615.87	3.10688
2617.23	2.85173
2618.59	2.92548
2619.95	3.20156
2621.31	3.0943
2622.67	3.2018
2624.03	3.00319
2625.39	2.922
2626.75	3.34355
2628.11	2.96181
2629.47	2.7493
2630.83	2.36397
2632.19	1.71725
2633.55	1.78376
2634.91	1.8419
2636.26	1.76305
2637.62	1.4433
2638.98	0.890041
2640.34	1.46568
2641.69	1.19429
2643.05	1.20635
2644.41	1.57416
2645.76	1.83998
2647.12	1.70325
2648.48	1.49064
2649.83	1.45234
2651.19	1.40312
2652.54	1.48813
2653.9	2.18011
2655.25	2.70489
2656.6	3.64225
2657.96	4.49032
2659.31	3.97091
2660.67	4.36719
2662.02	4.99966
2663.37	4.81624
2664.73	5.6135
2666.08	5.51989
2667.43	6.37068
2668.78	6.39236
2670.14	6.52479
2671.49	6.05709
2672.84	5.70971
2674.19	6.0792
2675.54	5.52858
2676.89	5.3055
2678.24	4.48576
2679.59	4.56067
2680.94	4.11354
2682.29	4.28039
2683.64	4.17867
2684.99	4.16259
2686.34	4.0026
2687.69	3.67782
2689.04	3.78429
2690.39	3.97056
2691.74	3.79254
2693.08	3.79966
2694.43	3.85992
2695.78	3.41484
2697.13	3.93454
2698.47	3.93537
2699.82	4.47104
2701.17	4.69011
2702.51	4.4422
2703.86	4.29097
2705.21	4.19405
2706.55	4.24471
2707.9	4.67203
2709.24	5.09042
2710.58	5.46799
2711.93	6.68375
2713.27	6.94671
2714.62	7.18314
2715.96	7.71706
2717.3	8.71602
2718.65	9.5436
2719.99	10.6871
2721.33	11.3346
2722.68	11.6181
2724.02	12.0541
2725.36	12.2464
2726.71	12.4489
2728.05	13.1024
2729.39	12.9363
2730.73	12.6574
2732.07	13.1043
2733.41	12.5196
2734.75	12.7334
2736.09	11.85
2737.43	12.1917
2738.77	12.0619
2740.11	11.6824
2741.45	11.0468
2742.79	9.74147
2744.13	9.4114
2745.47	9.0396
2746.81	8.22655
2748.14	7.56652
2749.48	7.39018
2750.82	6.88563
2752.16	7.01283
2753.49	6.88946
2754.83	6.84914
2756.17	6.91548
2757.5	6.43044
2758.84	5.45664
2760.18	5.31209
2761.51	4.84948
2762.85	4.50314
2764.18	4.10363
2765.52	3.04907
2766.85	2.64192
2768.19	2.13399
2769.52	1.80833
2770.86	1.6245
2772.19	1.81021
2773.52	1.29357
2774.86	0.96009
2776.19	1.66262
2777.52	1.74905
2778.86	1.84915
2780.19	1.73443
2781.52	1.9888
2782.85	1.87608
2784.19	0.96836
2785.52	1.04916
2786.85	0.971289
2788.18	0.767594
2789.51	0.919211
2790.84	0.833027
2792.17	0.997243
2793.5	0.78729
2794.83	0.234902
2796.16	0.0200189
2797.49	0.501739
2798.82	0.586664
2800.15	0.215797
2801.48	0.181858
2802.81	-0.0496149
2804.13	0.50165
2805.46	0.392873
2806.79	-0.357232
2808.12	-0.772118
2809.45	-1.14903
2810.77	-0.818883
2812.1	-0.704097
2813.43	-0.795068
2814.75	-0.271592
2816.08	0.328231
2817.41	1.26346
2818.73	2.40088
2820.06	3.62133
2821.38	5.40629
2822.71	6.79753
2824.03	8.23049
2825.36	9.87465
2826.68	12.036
2828	14.0867
2829.33	16.6043
2830.65	18.8277
2831.98	21.1286
2833.3	24.1644
2834.62	26.9272
2835.94	29.0969
2837.27	31.5804
2838.59	34.2443
2839.91	36.2687
2841.23	39.367
2842.55	42.4451
2843.87	44.413
2845.2	47.3405
2846.52	50.5076
2847.84	53.2489
2849.16	55.5227
2850.48	59.0274
2851.8	62.4865
2853.12	65.8521
2854.44	68.902
2855.76	71.6908
2857.08	75.1489
2858.39	78.8417
2859.71	81.3778
2861.03	83.9951
2862.35	86.3695
2863.67	88.8923
2864.98	90.903
2866.3	93.4217
2867.62	95.4824
2868.94	97.6049
2870.25	99.9567
2871.57	101.54
2872.88	102.463
2874.2	104.354
2875.52	105.81
2876.83	108.132
2878.15	109.777
2879.46	110.844
2880.78	112.413
2882.09	114.266
2883.41	116.2
2884.72	117.971
2886.03	120.105
2887.35	121.71
2888.66	123.51
2889.97	125.679
2891.29	127.245
2892.6	129.204
2893.91	131.158
2895.22	132.83
2896.54	134.91
2897.85	137.291
2899.16	139.091
2900.47	141.685
2901.78	144.1
2903.09	146.725
2904.4	149.108
2905.71	152.032
2907.02	154.849
2908.33	158.245
2909.64	161.79
2910.95	165.872
2912.26	169.524
2913.57	173.344
2914.88	177.396
2916.19	181.477
2917.5	184.556
2918.81	188.669
2920.11	191.668
2921.42	194.569
2922.73	197.601
2924.04	199.193
2925.34	199.932
2926.65	201.051
2927.96	201.785
2929.26	202.616
2930.57	203.269
2931.87	203.453
2933.18	203.302
2934.49	202.499
2935.79	201.383
2937.1	200.05
2938.4	198.132
2939.7	196.516
2941.01	194.003
2942.31	191.976
2943.62	189.024
2944.92	186.276
2946.22	183.941
2947.53	180.877
2948.83	177.451
2950.13	174.017
2951.43	171.096
2952.74	167.66
2954.04	163.853
2955.34	159.952
2956.64	155.565
2957.94	152.046
2959.24	148.106
2960.54	144.733
2961.84	141.457
2963.15	137.636
2964.45	133.764
2965.75	131.035
2967.05	127.358
2968.34	124.466
2969.64	120.993
2970.94	118.082
2972.24	114.205
2973.54	111.243
2974.84	107.742
2976.14	103.983
2977.43	100.808
2978.73	97.5232
2980.03	93.9349
2981.33	89.8999
2982.62	86.0591
2983.92	82.9275
2985.22	78.7245
2986.51	74.6164
2987.81	70.1564
2989.11	65.8836
2990.4	61.944
2991.7	58.535
2992.99	54.5415
2994.29	51.9541
2995.58	48.2197
2996.88	44.6023
2998.17	41.7425
2999.46	38.7484
3000.76	36.1925
3002.05	33.7835
3003.34	31.1245
3004.64	28.8856
3005.93	26.9703
3007.22	24.9822
3008.52	23.0267
3009.81	21.1689
3011.1	19.095
3012.39	17.1189
3013.68	15.5804
3014.97	14.3792
3016.27	13.2082
3017.56	11.6953
3018.85	10.8535
3020.14	10.1076
3021.43	9.52342
3022.72	9.05585
3024.01	8.60826
3025.3	8.42736
3026.59	7.69924
3027.88	7.53506
3029.16	7.73127
3030.45	7.95265
3031.74	8.11963
3033.03	8.3001
3034.32	7.52575
3035.6	7.28309
3036.89	7.10262
3038.18	7.40899
3039.47	7.73876
3040.75	7.93907
3042.04	8.71517
3043.33	9.01089
3044.61	9.33965
3045.9	9.5346
3047.18	10.1462
3048.47	10.3025
3049.75	9.69785
3051.04	9.56148
3052.32	9.63571
3053.61	10.0993
3054.89	10.2632
3056.18	10.7013
3057.46	10.1461
3058.74	10.3152
3060.03	9.43946
3061.31	9.70557
3062.59	9.41354
3063.88	8.82815
3065.16	8.40514
3066.44	8.2612
3067.72	8.05807
3069	7.28202
3070.29	6.55024
3071.57	5.65935
3072.85	5.06194
3074.13	4.59023
3075.41	3.87061
3076.69	3.69761
3077.97	3.21165
3079.25	2.78433
3080.53	2.54473
3081.81	2.55725
3083.09	2.66573
3084.37	2.167
3085.65	2.12791
3086.93	2.0888
3088.21	1.76433
3089.49	2.16181
3090.76	2.47525
3092.04	3.02555
3093.32	3.4042
3094.6	3.53717
3095.87	3.75561
3097.15	3.75949
3098.43	4.03161
3099.7	4.57466
3100.98	5.23722
3102.26	5.86215
3103.53	6.51487
3104.81	7.12713
3106.08	7.84608
3107.36	8.53595
3108.63	8.86659
3109.91	9.34034
3111.18	9.99045
3112.46	10.1048
3113.73	10.6616
3115	11.7647
3116.28	12.2034
3117.55	12.1912
3118.83	12.4687
3120.1	12.812
3121.37	12.6067
3122.64	13.0438
3123.92	13.3004
3125.19	13.6084
3126.46	13.6347
3127.73	14.2329
3129	14.8202
3130.27	14.7362
3131.55	14.7137
3132.82	14.4651
3134.09	14.9402
3135.36	15.4838
3136.63	16.2038
3137.9	16.8361
3139.17	17.0657
3140.44	17.8475
3141.71	18.4078
3142.98	19.0982
3144.24	19.6305
3145.51	20.1467
3146.78	20.6642
3148.05	21.3365
3149.32	22.3944
