#Acq. time (s)=	45
#Accumulations=	2
#Range (cm-¹)=	200...3150
#Windows=	2
#Auto scanning=	Off
#Autofocus=	Off
#Macrospot=	Off
#AutoExposure=	Off
#Spike filter=	Multiple accum.
#Delay time (s)=	0
#Binning=	1
#Readout mode=	Signal
#DeNoise=	Off
#ICS correction=	On
#Dark correction=	Off
#Inst. Process=	Off
#Detector Gain=	Best Dynamic Range
#Detector ADC=	20 kHz       
#Detector temperature (°C)=	-69.85
#Instrument=	LabRAM HR Evol
#Detector=	Synapse
#Objective=	x100
#Grating=	600 gr/mm
#ND Filter=	100%
#Laser (nm)=	532 
#Hole=	100.021
#Range=	Auto
#Laser Pol.=	No
#Raman. Pol.=	No
#Laser Pol. (°)=	-0.0007625
#Raman Pol. (°)=	89.9995
#Collection=	Microscope
#StageXY=	Marzhauser
#StageZ=	Marzhauser
#X (µm)=	4749.1
#Y (µm)=	-7717.1
#Z (µm)=	585
#Full time(mm:ss)=	3:19
#Project=	
#Sample=	
#Site=	
#Title=	Thy_30_10_34_2x_45s_532 nm_x100_100%_600 gr_mm
#Remark=	
#Date=	30.06.2022 13:54
#Acquired=	30.06.2022 13:54:14
#Base:Fit=	10.08.2022 09:58:11
#Base:Sub=	10.08.2022 09:58:44
#Filter:Polynom=	16.08.2022 10:22:53
#AxisType[0]=Intens
#AxisUnit[0]=Cnt
#AxisType[1]=Spectr
#AxisUnit[1]=1/cm
200.533	4.76495
202.348	2.0061
204.162	1.45109
205.976	1.05416
207.792	0.958835
209.605	0.947346
211.418	1.12922
213.23	1.4428
215.044	2.11315
216.856	2.51022
218.667	3.54732
220.478	3.75487
222.289	3.64242
224.102	3.52645
225.912	4.4677
227.721	4.0553
229.531	4.26876
231.34	5.46636
233.148	4.88625
234.956	4.72691
236.766	4.48339
238.574	3.97993
240.381	3.65761
242.188	3.97115
243.994	3.56936
245.801	4.15718
247.606	3.53134
249.412	3.61826
251.217	3.40041
253.024	4.20952
254.828	5.18153
256.632	5.17174
258.436	5.35484
260.239	4.86293
262.042	5.48619
263.845	5.05131
265.647	5.40658
267.449	5.36395
269.25	5.07007
271.052	4.5449
272.852	4.65786
274.653	5.25312
276.453	5.16316
278.253	5.50913
280.052	5.4813
281.852	6.41887
283.65	7.32887
285.449	8.20913
287.247	8.78771
289.044	9.73359
290.842	10.8251
292.639	11.6061
294.436	12.0038
296.232	13.0466
298.028	13.5176
299.821	14.0227
301.617	15.6108
303.412	16.0489
305.206	16.409
307	16.7918
308.794	17.1357
310.588	17.1735
312.381	17.7963
314.172	18.1288
315.964	18.8024
317.756	18.3988
319.548	19.2648
321.34	19.5005
323.131	18.8268
324.921	19.2281
326.71	20.2445
328.5	20.2089
330.29	20.6393
332.079	21.3873
333.868	20.9586
335.654	20.5722
337.443	18.6941
339.231	19.54
341.018	19.045
342.804	19.8497
344.591	19.4641
346.377	17.447
348.163	16.8711
349.947	16.2219
351.733	15.9564
353.518	15.4932
355.303	14.9629
357.085	15.5789
358.869	13.9965
360.653	13.9896
362.435	14.4539
364.218	13.8056
366.001	13.8494
367.781	14.1349
369.563	14.1364
371.345	14.7395
373.124	14.1242
374.905	13.3061
376.686	13.2054
378.464	13.5848
380.244	13.2473
382.022	13.5001
383.801	13.8819
385.58	13.5764
387.357	13.9374
389.135	13.7982
390.911	13.5048
392.689	12.394
394.466	12.0628
396.241	12.2852
398.018	12.4819
399.792	12.9839
401.568	12.3247
403.341	12.2868
405.117	13.1847
406.889	13.7447
408.664	14.3794
410.436	14.302
412.21	14.4293
413.981	15.639
415.755	16.6508
417.525	15.8896
419.298	16.17
421.068	15.8479
422.84	14.7415
424.609	14.4504
426.38	14.6323
428.149	15.2499
429.919	14.6264
431.688	14.7755
433.455	14.3298
435.225	14.6528
436.992	15.3833
438.76	15.5266
440.527	15.6736
442.293	15.7998
444.06	15.9595
445.826	15.49
447.593	14.8243
449.357	15.9543
451.122	16.5121
452.888	16.731
454.651	17.7196
456.415	17.8689
458.18	17.4144
459.942	17.5626
461.705	17.6795
463.469	18.3153
465.23	18.983
466.991	19.5513
468.752	20.0934
470.515	20.1807
472.275	20.4727
474.035	20.328
475.797	20.8968
477.556	20.5937
479.315	21.1325
481.073	21.7124
482.834	22.1848
484.592	22.7379
486.349	22.8756
488.106	22.8309
489.863	23.262
491.622	24.2122
493.378	24.5777
495.134	24.652
496.889	25.1503
498.645	25.4506
500.401	26.0549
502.156	27.622
503.91	28.382
505.664	27.1137
507.417	26.586
509.171	26.9622
510.923	26.6443
512.678	26.7622
514.43	25.6264
516.182	25.7847
517.933	26.1605
519.684	26.074
521.435	25.9692
523.186	25.7519
524.936	25.2548
526.686	24.4766
528.435	23.7587
530.184	22.9997
531.933	22.495
533.682	22.136
535.43	22.9563
537.18	22.9816
538.927	22.6542
540.674	22.3553
542.421	21.1324
544.167	20.2138
545.913	19.8815
547.659	19.7953
549.403	20.3462
551.148	20.2796
552.893	19.781
554.637	19.4826
556.381	19.3256
558.125	18.9934
559.868	19.3524
561.611	18.5403
563.354	18.3331
565.097	17.475
566.839	16.5026
568.581	15.2372
570.322	13.6811
572.063	12.4053
573.802	11.6132
575.542	11.1517
577.283	11.2214
579.022	10.3837
580.762	10.2912
582.501	10.4137
584.24	10.0819
585.976	9.41883
587.714	9.27279
589.452	9.17365
591.19	8.32023
592.927	6.16714
594.663	5.75442
596.398	6.02033
598.134	5.69727
599.87	5.72548
601.605	6.2768
603.338	7.11834
605.073	7.14648
606.808	7.33685
608.542	7.70574
610.274	8.03887
612.007	8.14967
613.74	8.03256
615.473	8.6749
617.204	9.18262
618.936	9.57674
620.668	9.69751
622.397	10.2605
624.128	11.5149
625.859	10.6493
627.588	11.1535
629.318	11.9459
631.048	13.934
632.775	15.5169
634.505	16.2225
636.233	17.5799
637.96	17.4496
639.688	17.6733
641.416	18.2441
643.142	19.1145
644.869	18.573
646.594	18.6121
648.32	17.6705
650.045	17.9012
651.771	17.7608
653.496	17.721
655.219	17.5337
656.944	17.3965
658.667	18.4309
660.391	18.9113
662.113	19.5111
663.837	20.2228
665.558	19.6908
667.281	20.4954
669.002	21.2887
670.724	21.8373
672.444	22.9696
674.166	23.2952
675.885	23.2982
677.606	23.9662
679.325	24.5529
681.045	26.2128
682.763	27.3102
684.483	28.2616
686.2	29.4012
687.917	30.32
689.636	30.4981
691.352	31.1623
693.07	31.5631
694.786	32.1289
696.501	32.517
698.219	32.9563
699.933	33.9456
701.65	34.703
703.364	35.2239
705.078	35.9937
706.793	36.8976
708.506	39.1199
710.219	40.7321
711.934	41.2704
713.646	43.4281
715.358	43.9624
717.071	44.9372
718.782	46.126
720.493	47.8535
722.204	48.0949
723.916	48.9212
725.626	49.7299
727.336	50.8898
729.045	51.3769
730.756	51.8024
732.464	53.1536
734.173	53.2384
735.881	53.7906
737.59	54.8986
739.297	55.4868
741.004	56.9018
742.711	58.0629
744.417	58.7753
746.125	59.0914
747.831	60.01
749.537	61.7512
751.242	63.336
752.946	64.9616
754.651	66.3199
756.357	66.5803
758.061	66.8586
759.764	66.7619
761.467	67.4803
763.17	68.9121
764.872	70.5064
766.575	70.9786
768.276	71.8969
769.978	72.908
771.679	72.9926
773.382	73.077
775.083	73.299
776.783	73.5853
778.483	74.0373
780.182	74.6439
781.882	74.5376
783.581	74.7341
785.279	75.7385
786.978	77.2229
788.676	77.9991
790.373	78.3872
792.071	79.3108
793.768	80.7968
795.464	80.8467
797.161	81.2012
798.857	82.8297
800.552	83.7799
802.248	85.1232
803.941	86.8998
805.636	87.5219
807.33	86.8222
809.024	87.8541
810.718	87.5191
812.412	87.4125
814.105	87.5543
815.798	87.3034
817.49	87.0896
819.183	86.3467
820.873	86.4224
822.564	86.7674
824.256	85.9365
825.947	86.316
827.637	85.1257
829.328	83.8523
831.016	83.399
832.705	83.1163
834.395	83.7487
836.084	81.932
837.772	80.3293
839.459	79.2155
841.147	77.6994
842.835	76.7281
844.522	75.6905
846.209	75.2466
847.894	73.8947
849.581	72.3334
851.267	70.4158
852.953	69.9877
854.637	67.53
856.322	65.849
858.007	65.3109
859.689	64.5654
861.374	64.0097
863.058	63.1587
864.739	61.7266
866.423	60.5897
868.106	60.8831
869.787	61.1564
871.469	61.1102
873.151	60.2377
874.831	59.6284
876.512	59.9767
878.193	60.4288
879.872	60.025
881.553	60.6188
883.231	61.0908
884.911	60.2395
886.591	60
888.268	59.9957
889.947	59.0694
891.623	57.8701
893.302	56.716
894.978	55.7178
896.656	56.0547
898.331	56.1528
900.008	55.7487
901.683	55.0144
903.359	53.9451
905.033	53.8833
906.709	53.3275
908.383	51.8591
910.058	51.2619
911.731	49.1448
913.405	48.4741
915.078	47.5308
916.752	47.0148
918.423	46.7835
920.096	44.629
921.768	43.9189
923.438	43.8178
925.111	43.1732
926.781	42.6222
928.452	41.7465
930.122	41.3244
931.791	39.8099
933.462	39.5892
935.13	39.8933
936.799	39.3968
938.468	38.643
940.136	39.1315
941.803	39.4251
943.472	39.0298
945.139	37.9251
946.805	38.0387
948.473	37.8683
950.139	39.0885
951.804	39.9868
953.471	40.2634
955.136	40.2779
956.801	39.6794
958.465	39.3351
960.131	39.6251
961.794	39.9047
963.458	40.0843
965.12	40.5741
966.785	41.2848
968.447	42.074
970.109	42.957
971.771	44.001
973.432	45.6099
975.095	46.8425
976.756	47.8982
978.417	49.553
980.077	51.1125
981.737	51.9624
983.396	52.861
985.057	52.4176
986.716	51.9225
988.375	51.883
990.033	50.6974
991.691	49.7689
993.349	49.9853
995.006	49.5284
996.663	49.3529
998.32	48.7001
999.976	48.9462
1001.63	48.9152
1003.29	47.6012
1004.95	47.8234
1006.6	48.0262
1008.26	47.3447
1009.91	47.1064
1011.56	46.5377
1013.22	46.6083
1014.87	46.1041
1016.53	45.7496
1018.18	45.0731
1019.83	44.3013
1021.48	44.2742
1023.14	44.1754
1024.79	42.9496
1026.44	42.3449
1028.09	41.8376
1029.74	42.4666
1031.39	41.1114
1033.04	40.8077
1034.69	39.9609
1036.34	39.2094
1037.99	38.4635
1039.64	37.6118
1041.29	36.873
1042.94	37.0177
1044.58	36.6335
1046.23	37.338
1047.88	37.3029
1049.52	37.112
1051.17	36.916
1052.82	37.1558
1054.46	37.636
1056.11	37.9474
1057.75	36.9228
1059.4	35.102
1061.04	34.5367
1062.69	33.8252
1064.33	33.9023
1065.98	32.2593
1067.62	30.5175
1069.26	29.2654
1070.9	28.8402
1072.55	27.1543
1074.19	27.0401
1075.83	26.4601
1077.47	25.6679
1079.11	24.7051
1080.76	24.84
1082.4	24.8544
1084.04	25.448
1085.68	25.6187
1087.32	26.6294
1088.95	26.6981
1090.59	26.2967
1092.23	25.6926
1093.87	25.5999
1095.51	26.6157
1097.15	25.5511
1098.78	25.8888
1100.42	26.4587
1102.06	27.0798
1103.69	26.6948
1105.33	26.8337
1106.97	25.9128
1108.6	25.0454
1110.24	24.597
1111.87	24.2286
1113.51	23.3576
1115.14	23.0907
1116.77	22.2416
1118.41	21.3029
1120.04	19.9766
1121.67	19.0318
1123.31	17.3972
1124.94	16.9332
1126.57	15.5034
1128.2	14.3372
1129.83	12.7136
1131.47	11.298
1133.1	11.4868
1134.72	11.1005
1136.36	9.7191
1137.98	8.43361
1139.62	7.30647
1141.24	6.8568
1142.87	7.37988
1144.5	7.36514
1146.13	7.47785
1147.76	6.88446
1149.38	6.28286
1151.01	6.1488
1152.64	5.5939
1154.27	5.44682
1155.89	5.96619
1157.52	5.68494
1159.14	5.99113
1160.77	6.44838
1162.39	6.69608
1164.02	6.63739
1165.64	7.43104
1167.27	8.04339
1168.89	8.5343
1170.51	8.34433
1172.14	8.14152
1173.76	8.11778
1175.38	9.03745
1177	9.17313
1178.63	8.65507
1180.25	10.1683
1181.87	10.2475
1183.49	9.52936
1185.11	9.66669
1186.73	10.5049
1188.35	9.96267
1189.97	9.92762
1191.59	10.7467
1193.21	10.2736
1194.83	11.4425
1196.45	11.9991
1198.07	12.8385
1199.68	13.6308
1201.3	15.0051
1202.92	16.3797
1204.53	16.0901
1206.15	16.992
1207.77	18.1904
1209.38	20.1002
1211	22.2587
1212.62	23.9585
1214.23	25.7816
1215.84	27.2425
1217.46	29.1977
1219.07	32.285
1220.69	35.2899
1222.3	37.6941
1223.91	40.594
1225.53	43.7019
1227.14	45.62
1228.75	48.1813
1230.36	50.5912
1231.97	52.5775
1233.59	53.8892
1235.2	55.7711
1236.81	56.8101
1238.42	58.6677
1240.03	60.1593
1241.64	61.3274
1243.25	62.4941
1244.85	64.4039
1246.46	66.2524
1248.07	66.9443
1249.68	67.4305
1251.29	67.1641
1252.9	66.8532
1254.5	67.3375
1256.11	67.8476
1257.72	67.885
1259.32	68.8349
1260.93	69.3055
1262.54	69.4981
1264.14	69.533
1265.75	70.2619
1267.35	70.5848
1268.96	70.938
1270.56	71.4167
1272.16	72.2435
1273.77	72.8285
1275.37	74.1128
1276.97	73.6962
1278.57	74.0678
1280.18	74.1965
1281.78	74.8216
1283.38	74.0441
1284.98	74.1114
1286.58	75.4881
1288.18	76.5744
1289.78	77.569
1291.38	77.3978
1292.99	77.5857
1294.58	78.2112
1296.18	79.0253
1297.78	79.7081
1299.38	80.2995
1300.98	81.1001
1302.58	81.4993
1304.17	82.4777
1305.77	82.1889
1307.37	81.9589
1308.97	82.677
1310.56	82.1981
1312.16	81.6324
1313.76	81.6996
1315.35	81.5273
1316.95	81.2271
1318.54	81.0162
1320.14	80.5695
1321.73	80.7204
1323.32	80.0919
1324.92	79.4741
1326.51	78.8941
1328.1	78.1706
1329.7	77.4041
1331.29	75.8387
1332.88	74.3567
1334.47	74.0469
1336.07	72.8877
1337.66	72.3849
1339.25	71.7438
1340.84	71.0163
1342.43	69.8653
1344.02	68.4211
1345.61	66.6732
1347.2	65.5787
1348.79	63.9575
1350.37	61.9998
1351.96	60.2854
1353.55	58.0554
1355.14	55.9672
1356.73	54.4068
1358.31	52.865
1359.9	51.2859
1361.49	49.6002
1363.07	47.6858
1364.66	46.7639
1366.25	44.7702
1367.83	42.0685
1369.42	40.5582
1371	38.0034
1372.59	36.7724
1374.17	35.2095
1375.75	32.9434
1377.34	32.4666
1378.92	30.7518
1380.5	30.7099
1382.09	29.9692
1383.67	29.8172
1385.25	28.9724
1386.83	29.2181
1388.42	28.9833
1390	29.0992
1391.58	29.8847
1393.16	29.3618
1394.74	29.0334
1396.32	28.9203
1397.9	28.4536
1399.48	29.5454
1401.06	29.2698
1402.64	29.0654
1404.21	29.1519
1405.79	29.3134
1407.37	29.4518
1408.95	30.2412
1410.53	30.9633
1412.1	32.4182
1413.68	35.0222
1415.26	36.9247
1416.83	39.1648
1418.41	41.5948
1419.98	44.5419
1421.56	47.3216
1423.13	49.0332
1424.71	51.809
1426.28	55.0663
1427.86	57.7366
1429.43	60.7339
1431	63.4076
1432.58	66.8504
1434.15	70.0465
1435.72	72.8635
1437.29	74.5738
1438.87	76.9746
1440.44	78.6829
1442.01	80.3847
1443.58	81.4446
1445.15	81.6346
1446.72	82.2718
1448.29	82.5852
1449.86	81.8636
1451.43	82.3299
1453	82.2544
1454.57	82.0083
1456.14	81.2808
1457.71	79.5019
1459.27	79.1389
1460.84	77.0468
1462.41	75.5408
1463.98	72.9326
1465.54	70.6542
1467.11	67.7994
1468.67	64.6859
1470.24	61.8678
1471.81	58.1459
1473.37	53.9168
1474.94	49.4527
1476.5	46.1121
1478.07	42.8722
1479.63	38.382
1481.19	35.437
1482.76	32.4113
1484.32	30.2821
1485.88	28.1881
1487.45	26.2213
1489.01	23.5144
1490.57	21.7447
1492.13	19.7106
1493.69	18.7291
1495.26	16.8882
1496.82	15.895
1498.38	14.72
1499.94	12.9977
1501.5	11.6133
1503.06	11.9484
1504.62	11.4558
1506.17	10.8238
1507.73	11.5582
1509.29	11.4811
1510.85	12.0294
1512.41	11.9361
1513.97	11.816
1515.52	11.5915
1517.08	12.6822
1518.64	13.0403
1520.19	13.0347
1521.75	13.9411
1523.31	13.9617
1524.86	15.2985
1526.42	15.6585
1527.97	16.9181
1529.52	17.7318
1531.08	17.9483
1532.63	18.1872
1534.19	18.1039
1535.74	19.1288
1537.29	21.2059
1538.85	22.0535
1540.4	23.2959
1541.95	24.7013
1543.5	25.6444
1545.06	27.3372
1546.61	29.3284
1548.16	31.2696
1549.71	33.0405
1551.26	33.8626
1552.81	35.9727
1554.36	37.9833
1555.91	39.6464
1557.46	41.2176
1559.01	43.7232
1560.56	45.3537
1562.11	46.7734
1563.65	47.5083
1565.2	48.6941
1566.75	49.4099
1568.29	51.5231
1569.84	53.9759
1571.39	55.4382
1572.94	56.6214
1574.48	57.8656
1576.03	59.2332
1577.57	60.6169
1579.12	62.4531
1580.66	64.289
1582.21	65.4772
1583.75	66.6224
1585.3	67.858
1586.84	68.5023
1588.38	69.309
1589.93	69.806
1591.47	70.5601
1593.01	70.9058
1594.55	71.4173
1596.1	71.5891
1597.64	70.9243
1599.18	71.029
1600.72	69.9185
1602.26	69.4403
1603.8	69.2278
1605.34	68.8314
1606.88	67.9934
1608.42	67.8858
1609.96	68.2672
1611.5	67.1173
1613.04	67.8102
1614.58	68.1832
1616.12	67.8059
1617.65	68.5086
1619.19	69.1329
1620.73	69.3325
1622.27	71.1562
1623.8	71.7487
1625.34	72.3365
1626.87	73.8587
1628.41	73.884
1629.95	74.9864
1631.48	76.7204
1633.02	78.4898
1634.55	79.573
1636.09	81.3428
1637.62	82.2504
1639.15	84.3186
1640.69	86.8933
1642.22	89.0838
1643.76	91.7707
1645.29	95.1566
1646.82	96.771
1648.35	97.4107
1649.88	100.285
1651.42	101.34
1652.95	102.919
1654.48	103.946
1656.01	104.823
1657.54	105.026
1659.07	104.482
1660.6	103.5
1662.13	102.734
1663.66	102.554
1665.19	101.472
1666.72	100.239
1668.24	98.7469
1669.77	96.5864
1671.3	94.9424
1672.83	92.858
1674.35	89.7923
1675.88	87.2452
1677.41	84.3112
1678.93	81.7707
1680.46	79.191
1681.99	75.036
1683.51	71.0577
1685.04	67.5098
1686.56	63.4508
1688.09	59.4745
1689.61	56.733
1691.13	52.9268
1692.66	49.1829
1694.18	45.9206
1695.71	42.3798
1697.23	39.7502
1698.75	36.6652
1700.27	33.5795
1701.8	31.4964
1703.32	29.1548
1704.84	26.4117
1706.36	24.7734
1707.88	22.9152
1709.4	21.4135
1710.92	20.6519
1712.44	20.0877
1713.96	19.83
1715.48	20.0049
1717	19.2564
1718.52	18.3617
1720.04	18.4622
1721.56	18.0527
1723.07	16.9846
1724.59	16.7536
1726.11	16.7991
1727.63	16.0151
1729.14	15.6587
1730.66	15.5115
1732.18	15.2623
1733.69	14.7495
1735.21	14.4716
1736.72	14.296
1738.24	14.6904
1739.75	15.1479
1741.27	15.181
1742.78	15.3951
1744.3	14.9434
1745.81	14.9065
1747.32	14.8751
1748.84	14.2194
1750.35	13.7848
1751.86	12.9998
1753.37	12.4061
1754.89	11.9716
1756.4	10.7827
1757.91	9.84499
1759.42	9.17347
1760.93	8.74696
1762.44	8.70545
1763.95	8.40426
1765.46	7.59413
1766.97	7.21054
1768.48	7.25394
1769.99	7.42926
1771.5	7.41507
1773.01	7.09973
1774.52	6.34802
1776.03	6.31765
1777.53	5.95385
1779.04	5.41009
1780.55	5.19412
1782.06	4.92097
1783.56	5.18345
1785.07	6.05693
1786.57	5.80119
1788.08	5.22786
1789.59	4.84113
1791.09	4.01178
1792.6	3.1775
1794.1	3.15065
1795.6	2.97264
1797.11	2.77204
1798.61	2.21272
1800.12	2.02012
1801.62	1.39287
1803.12	1.01873
1804.63	0.408337
1806.13	0.252705
1807.63	0.46555
1809.13	0.321436
1810.63	0.142552
1812.14	0.176666
1813.64	0.243133
1815.14	0.350578
1816.64	0.0884166
1818.14	-0.00953478
1819.64	-0.207326
1821.14	0.0939811
1822.64	0.250897
1824.14	-0.0297327
1825.63	0.0729335
1827.13	0.365426
1828.63	0.392517
1830.13	0.535136
1831.63	0.655052
1833.12	1.07364
1834.62	1.64126
1836.12	1.89485
1837.62	2.25476
1839.11	2.38435
1840.61	2.83803
1842.1	3.81397
1843.6	4.04646
1845.09	3.95844
1846.59	4.09432
1848.08	3.88115
1849.58	4.08149
1851.07	4.26047
1852.57	4.09211
1854.06	4.21063
1855.55	4.54574
1857.04	4.73415
1858.54	5.19828
1860.03	5.15753
1861.52	4.7023
1863.01	4.1616
1864.5	2.99462
1866	2.78402
1867.49	3.07871
1868.98	3.35231
1870.47	3.04711
1871.96	2.88746
1873.45	2.47757
1874.94	1.77877
1876.43	1.16347
1877.92	0.790431
1879.41	0.491414
1880.89	0.470199
1882.38	0.401931
1882.48	-0.00419804
1883.97	0.219298
1885.47	0.295931
1886.96	0.00383051
1888.46	0.725515
1889.95	0.77437
1891.44	1.32623
1892.94	2.05142
1894.43	1.53556
1895.92	1.36391
1897.41	1.23119
1898.9	1.23749
1900.4	1.16079
1901.89	0.854103
1903.38	1.06452
1904.87	1.25561
1906.36	0.92279
1907.85	1.26774
1909.34	1.33507
1910.83	1.57204
1912.32	2.19942
1913.81	2.29487
1915.29	2.76258
1916.78	3.00375
1918.27	3.41458
1919.76	3.54327
1921.25	3.47991
1922.74	4.14556
1924.22	4.11649
1925.71	4.26984
1927.2	4.88417
1928.68	5.36863
1930.17	5.03583
1931.65	5.43781
1933.14	4.97406
1934.63	4.52181
1936.11	4.89416
1937.59	5.02455
1939.08	5.46555
1940.56	5.16851
1942.05	4.92135
1943.53	5.11953
1945.01	5.07192
1946.5	4.57101
1947.98	4.84398
1949.46	5.14517
1950.94	5.00097
1952.43	6.00437
1953.91	6.80398
1955.39	7.26557
1956.87	7.42413
1958.35	7.46375
1959.83	7.42945
1961.31	7.52776
1962.79	8.70618
1964.27	7.95219
1965.75	8.09389
1967.23	8.25073
1968.71	7.32516
1970.19	7.58204
1971.67	7.96415
1973.14	8.17289
1974.62	8.67376
1976.1	8.99094
1977.58	9.41732
1979.05	9.60598
1980.53	10.0159
1982.01	10.3472
1983.48	10.9249
1984.96	11.4006
1986.43	12.0306
1987.91	12.4069
1989.38	12.8384
1990.86	13.6577
1992.33	13.6077
1993.81	13.9346
1995.28	13.7156
1996.76	14.2508
1998.23	14.4296
1999.7	14.6949
2001.18	14.4386
2002.65	14.3508
2004.12	14.1929
2005.59	13.9287
2007.06	13.692
2008.54	13.9859
2010.01	14.2391
2011.48	13.3224
2012.95	12.746
2014.42	13.0567
2015.89	13.5624
2017.36	13.5435
2018.83	12.8797
2020.3	13.0726
2021.77	13.5177
2023.24	13.2599
2024.71	13.3331
2026.17	13.9009
2027.64	13.595
2029.11	13.0696
2030.58	12.8402
2032.04	13.2082
2033.51	13.9494
2034.98	14.4465
2036.45	15.4711
2037.91	15.1743
2039.38	16.4088
2040.84	16.5144
2042.31	16.5509
2043.77	17.6318
2045.24	18.6341
2046.7	19.0765
2048.17	19.1471
2049.63	19.2357
2051.1	19.5833
2052.56	19.7429
2054.02	20.0876
2055.48	20.9411
2056.95	21.7648
2058.41	21.9579
2059.87	22.7024
2061.33	22.6568
2062.8	23.5368
2064.26	24.4144
2065.72	24.2962
2067.18	24.7645
2068.64	24.2686
2070.1	25.0274
2071.56	24.4552
2073.02	24.1939
2074.48	23.9231
2075.94	24.3799
2077.4	24.6121
2078.86	25.0707
2080.31	25.6203
2081.77	25.853
2083.23	25.551
2084.69	25.2961
2086.14	25.4313
2087.6	25.661
2089.06	25.1577
2090.52	25.2019
2091.97	25.7715
2093.43	26.4712
2094.88	26.8393
2096.34	27.0657
2097.79	27.7578
2099.25	28.6439
2100.7	29.4516
2102.16	29.8976
2103.61	30.6722
2105.07	32.4058
2106.52	33.7459
2107.97	35.13
2109.43	36.5262
2110.88	37.8262
2112.33	39.0721
2113.78	39.9662
2115.24	42.5751
2116.69	43.7734
2118.14	44.4328
2119.59	45.9983
2121.04	47.2414
2122.49	49.324
2123.94	51.4687
2125.39	54.0428
2126.84	55.592
2128.29	57.207
2129.74	58.4419
2131.19	60.5252
2132.64	62.7466
2134.09	64.8346
2135.54	67.1179
2136.98	68.6862
2138.43	70.1894
2139.88	72.374
2141.33	73.7042
2142.77	75.4252
2144.22	77.0692
2145.67	79.1915
2147.11	80.4689
2148.56	81.6264
2150.01	83.289
2151.45	84.6179
2152.9	85.4353
2154.34	86.6566
2155.79	87.0376
2157.23	88.6072
2158.67	89.4933
2160.12	91.2111
2161.56	92.2053
2163	93.1499
2164.45	93.8841
2165.89	94.2523
2167.33	94.8713
2168.78	94.7326
2170.22	95.1332
2171.66	94.7432
2173.1	94.4722
2174.54	93.9667
2175.98	93.5383
2177.42	93.0865
2178.86	92.7241
2180.3	92.0561
2181.74	91.768
2183.18	90.9405
2184.62	89.7643
2186.06	89.6606
2187.5	88.4515
2188.94	86.6308
2190.38	85.848
2191.82	85.4412
2193.25	83.6311
2194.69	82.5804
2196.13	80.9599
2197.57	79.5088
2199	77.3144
2200.44	75.992
2201.88	74.8082
2203.31	73.5318
2204.75	72.3159
2206.18	70.26
2207.62	67.9366
2209.05	65.7196
2210.49	63.561
2211.92	61.7509
2213.36	59.3551
2214.79	57.4218
2216.22	55.7011
2217.66	54.0955
2219.09	52.1726
2220.52	50.5293
2221.96	49.2631
2223.39	47.7305
2224.82	46.2704
2226.25	44.8874
2227.68	43.2943
2229.11	42.9079
2230.55	41.6137
2231.98	41.0841
2233.41	39.165
2234.84	37.6467
2236.27	36.6731
2237.7	35.3791
2239.12	34.6385
2240.55	33.3127
2241.98	33.1113
2243.41	32.1078
2244.84	31.8384
2246.27	31.4045
2247.7	30.7141
2249.12	30.4648
2250.55	30.6842
2251.98	30.5875
2253.41	30.972
2254.83	30.6662
2256.26	30.4686
2257.68	30.9222
2259.11	29.799
2260.54	29.7216
2261.96	29.7661
2263.39	29.7883
2264.81	29.406
2266.24	29.3427
2267.66	28.9024
2269.08	29.6371
2270.51	29.2147
2271.93	29.4364
2273.35	29.1955
2274.78	28.5331
2276.2	27.7981
2277.62	27.0893
2279.04	26.8944
2280.47	26.0957
2281.89	26.0861
2283.31	26.3722
2284.73	25.852
2286.15	25.19
2287.57	24.6471
2288.99	24.4495
2290.41	22.8893
2291.83	21.5081
2293.25	20.64
2294.67	20.6004
2296.09	20.1382
2297.51	20.2852
2298.93	20.1918
2300.35	21.2782
2301.76	21.2336
2303.18	20.7451
2304.6	20.2399
2306.02	19.8591
2307.44	19.9353
2308.85	19.85
2310.27	19.5794
2311.69	19.4175
2313.1	19.5525
2314.52	18.6993
2315.93	19.0604
2317.35	18.2932
2318.76	17.4077
2320.18	17.7255
2321.59	17.3114
2323.01	17.4594
2324.42	17.0319
2325.83	16.1074
2327.25	16.1361
2328.66	16.0908
2330.07	15.3671
2331.49	15.7611
2332.9	15.6835
2334.31	15.4143
2335.72	15.178
2337.13	14.6888
2338.55	13.9945
2339.96	13.9444
2341.37	12.9859
2342.78	12.2192
2344.19	11.1631
2345.6	10.6022
2347.01	10.0061
2348.42	9.93616
2349.83	9.85083
2351.24	9.36407
2352.65	9.27203
2354.05	8.56396
2355.46	7.57726
2356.87	6.96127
2358.28	7.02449
2359.69	6.93051
2361.09	6.30803
2362.5	6.50781
2363.91	7.06277
2365.31	7.34269
2366.72	7.2006
2368.13	7.11457
2369.53	7.25229
2370.94	7.65054
2372.34	6.65371
2373.75	6.29517
2375.15	6.71786
2376.56	6.67268
2377.96	6.755
2379.37	6.76724
2380.77	6.48698
2382.17	7.16512
2383.58	6.93291
2384.98	6.65064
2386.38	6.71943
2387.79	5.57483
2389.19	5.80238
2390.59	5.68418
2391.99	5.35527
2393.39	5.14462
2394.8	5.1916
2396.2	5.18445
2397.6	5.79825
2399	5.63647
2400.4	5.21345
2401.8	5.26374
2403.2	5.0477
2404.6	4.8951
2406	4.16729
2407.4	3.93532
2408.79	3.58063
2410.19	3.91108
2411.59	3.71833
2412.99	3.85956
2414.39	4.30855
2415.78	4.66012
2417.18	4.94661
2418.58	5.30691
2419.98	5.52921
2421.37	5.12416
2422.77	4.86394
2424.16	4.77852
2425.56	4.85093
2426.96	5.02256
2428.35	5.62106
2429.74	5.48923
2431.14	5.39208
2432.53	5.77085
2433.93	5.75864
2435.32	6.38493
2436.72	6.47676
2438.11	6.47805
2439.5	7.14884
2440.9	7.26725
2442.29	7.51846
2443.68	7.91148
2445.07	8.39857
2446.47	8.01866
2447.86	7.54827
2449.25	7.35533
2450.64	6.46125
2452.03	6.29415
2453.42	5.68204
2454.81	5.37895
2456.2	4.81917
2457.59	4.35813
2458.98	4.52703
2460.37	4.15964
2461.76	4.35092
2463.15	4.03631
2464.54	4.73118
2465.93	4.90054
2467.32	4.53044
2468.7	4.04813
2470.09	4.16095
2471.48	4.05108
2472.87	3.83125
2474.25	3.55222
2475.64	2.9124
2477.03	3.27101
2478.41	2.97865
2479.8	3.51942
2481.18	3.50102
2482.57	4.02881
2483.95	3.54966
2485.34	3.50338
2486.72	3.13341
2488.11	2.87425
2489.49	2.72187
2490.88	2.3921
2492.26	2.38149
2493.65	2.76022
2495.03	2.80521
2496.41	3.21195
2497.79	3.58901
2499.18	3.22825
2500.56	3.26998
2501.94	3.93944
2503.32	3.59616
2504.7	3.31036
2506.09	2.8024
2507.47	3.20303
2508.85	3.39896
2510.23	3.37633
2511.61	3.21568
2512.99	3.08047
2514.37	2.65343
2515.75	2.00762
2517.13	1.8224
2518.51	2.27359
2519.89	2.03793
2521.26	2.29469
2522.64	2.06392
2524.02	1.85413
2525.4	1.82102
2526.78	1.83543
2528.15	1.96986
2529.53	1.94468
2530.91	1.98812
2532.28	1.48088
2533.66	1.37013
2535.04	0.894716
2536.41	0.210683
2537.79	0.323741
2539.16	0.434954
2540.54	0.168076
2541.91	0.611906
2543.29	0.430906
2544.66	0.293555
2546.04	0.875699
2547.41	0.645228
2548.78	0.679451
2550.16	0.491591
2551.53	0.870817
2552.9	0.619672
2554.27	0.653771
2555.65	0.698556
2557.02	0.947799
2558.39	0.611185
2559.76	0.907954
2561.13	0.998786
2562.51	0.570106
2563.88	-0.288233
2565.25	-0.446709
2566.62	-0.813067
2567.99	-0.525132
2569.36	-0.241982
2570.73	-0.40074
2572.1	-0.485921
2573.47	-0.17283
2574.84	0.115557
2576.2	0.554619
2577.57	0.553611
2578.94	0.310388
2580.31	0.837205
2581.68	1.1714
2583.05	1.34571
2584.41	1.68352
2585.78	1.8249
2587.15	2.15109
2588.51	2.28176
2589.88	1.9715
2591.24	1.99178
2592.61	1.8758
2593.98	2.31447
2595.34	2.35696
2596.71	2.37993
2598.07	2.01721
2599.44	1.55327
2600.8	1.51186
2602.16	2.06844
2603.53	2.68788
2604.89	3.0716
2606.26	3.53515
2607.62	3.3688
2608.98	4.1423
2610.34	3.8258
2611.71	3.56107
2613.07	4.03385
2614.43	4.19466
2615.79	4.42952
2617.15	4.95997
2618.52	5.19239
2619.88	5.32391
2621.24	4.78695
2622.6	4.71246
2623.96	4.96487
2625.32	5.12332
2626.68	4.23959
2628.04	4.22996
2629.4	3.30281
2630.75	2.57383
2632.11	2.15187
2633.47	2.10208
2634.83	2.36028
2636.19	2.93123
2637.55	2.36845
2638.9	2.78515
2640.26	3.68265
2641.62	3.82224
2642.98	4.26829
2644.33	5.27465
2645.69	4.67409
2647.04	3.99718
2648.4	4.28379
2649.76	3.73493
2651.11	3.44447
2652.47	3.08953
2653.82	2.37392
2655.18	2.222
2656.53	1.83444
2657.88	1.22678
2659.24	1.2476
2660.59	1.23278
2661.95	1.22887
2663.3	0.871006
2664.65	0.591144
2666	0.829165
2667.36	0.531451
2668.71	0.896562
2670.06	0.889422
2671.41	0.827227
2672.76	0.539071
2674.12	0.126181
2675.47	-0.147869
2676.82	0.309504
2678.17	-0.524909
2679.52	-0.0236732
2680.87	0.261699
2682.22	0.183122
2683.57	0.323897
2684.92	0.802105
2686.27	0.905693
2687.62	1.5186
2688.97	1.62191
2690.31	2.30941
2691.66	2.46263
2693.01	2.47055
2694.36	2.39384
2695.71	2.9527
2697.05	3.44764
2698.4	3.9439
2699.75	4.61528
2701.09	5.493
2702.44	6.82673
2703.78	7.91583
2705.13	8.84954
2706.48	9.94139
2707.82	10.4642
2709.17	11.183
2710.51	11.2282
2711.86	11.8217
2713.2	11.1101
2714.54	11.6857
2715.89	12.6556
2717.23	12.8711
2718.57	13.1477
2719.92	13.4124
2721.26	13.8406
2722.6	14.4686
2723.95	14.9985
2725.29	15.5402
2726.63	15.4261
2727.97	15.9988
2729.31	15.6799
2730.65	15.5351
2732	15.3953
2733.34	15.2505
2734.68	14.5761
2736.02	14.3473
2737.36	13.8017
2738.7	13.6887
2740.04	13.6712
2741.38	13.3309
2742.72	13.3109
2744.05	13.0358
2745.39	12.5147
2746.73	12.5687
2748.07	12.231
2749.41	11.6443
2750.75	11.2058
2752.08	11.0947
2753.42	10.4449
2754.76	10.1806
2756.09	9.55723
2757.43	9.28107
2758.77	8.89856
2760.1	9.0549
2761.44	8.78229
2762.78	8.14187
2764.11	8.00365
2765.44	7.47679
2766.78	7.36282
2768.11	6.85535
2769.45	7.16515
2770.78	7.33273
2772.12	7.26973
2773.45	7.02645
2774.78	6.95776
2776.12	6.6393
2777.45	6.33334
2778.78	6.79477
2780.12	6.33464
2781.45	6.92817
2782.78	7.52081
2784.11	7.72925
2785.44	7.78426
2786.78	7.90778
2788.11	7.92176
2789.44	7.7714
2790.77	7.75027
2792.1	8.19739
2793.43	7.90245
2794.76	7.97814
2796.09	7.59366
2797.42	7.81009
2798.75	8.44045
2800.08	8.56198
2801.4	8.58338
2802.73	8.25656
2804.06	8.40315
2805.39	8.87855
2806.72	8.98247
2808.05	8.08661
2809.37	7.68919
2810.7	7.3392
2812.03	7.31578
2813.35	7.49454
2814.68	7.79215
2816.01	7.70955
2817.33	8.3312
2818.66	9.10279
2819.98	9.75917
2821.31	11.1741
2822.63	12.8135
2823.96	14.1537
2825.28	16.3065
2826.61	18.0707
2827.93	20.0005
2829.25	22.1974
2830.58	24.5408
2831.9	27.0503
2833.23	29.5279
2834.55	32.0276
2835.87	35.2675
2837.19	38.5266
2838.52	41.7581
2839.84	45.0335
2841.16	48.2515
2842.48	51.5478
2843.8	55.6179
2845.12	59.9452
2846.44	64.3455
2847.77	69.3399
2849.08	74.0526
2850.4	78.9463
2851.73	84.5272
2853.05	89.0023
2854.36	94.3569
2855.68	99.4256
2857	104.748
2858.32	110.183
2859.64	114.191
2860.96	118.824
2862.28	123.006
2863.59	127.821
2864.91	131.932
2866.23	135.122
2867.55	138.516
2868.86	141.9
2870.18	145.866
2871.5	149.16
2872.81	151.68
2874.13	153.225
2875.44	155.989
2876.76	159.025
2878.07	161.389
2879.39	163.841
2880.7	166.34
2882.02	168.816
2883.33	171.131
2884.65	173.169
2885.96	175.284
2887.28	178.814
2888.59	181.165
2889.9	183.598
2891.21	186.339
2892.53	188.569
2893.84	191.044
2895.15	193.718
2896.46	196.076
2897.78	199.255
2899.09	202.276
2900.4	206.568
2901.71	210.882
2903.02	215.736
2904.33	220.298
2905.64	225.04
2906.95	230.794
2908.26	236.579
2909.57	242.519
2910.88	249.349
2912.19	256.781
2913.5	263.706
2914.81	270.937
2916.12	277.524
2917.43	283.155
2918.73	288.518
2920.04	294.363
2921.35	298.704
2922.66	303.406
2923.96	306.743
2925.27	309.364
2926.58	312.055
2927.88	313.821
2929.19	316.433
2930.5	317.002
2931.8	316.915
2933.11	316.922
2934.41	316.581
2935.72	315.994
2937.02	313.507
2938.33	311.263
2939.63	308.643
2940.94	306.524
2942.24	302.945
2943.54	298.833
2944.85	295.174
2946.15	289.984
2947.45	285.118
2948.76	279.513
2950.06	273.924
2951.36	268.136
2952.66	262.807
2953.97	255.985
2955.27	249.904
2956.57	243.648
2957.87	237.531
2959.17	231.607
2960.47	226.364
2961.77	220.602
2963.07	215.221
2964.37	210.129
2965.67	205.595
2966.97	200.074
2968.27	195.456
2969.57	190.949
2970.87	186.196
2972.17	181.4
2973.47	176.357
2974.77	171.975
2976.07	168.252
2977.36	164.095
2978.66	159.199
2979.96	154.472
2981.26	149.964
2982.55	145.44
2983.85	140.944
2985.15	135.423
2986.44	130.393
2987.74	125.351
2989.03	120.718
2990.33	115.759
2991.63	111.138
2992.92	106.745
2994.21	102.91
2995.51	98.2919
2996.8	94.0131
2998.1	90.4043
2999.39	86.8285
3000.69	83.3159
3001.98	79.0598
3003.27	75.6041
3004.57	72.2237
3005.86	68.7042
3007.15	65.2842
3008.44	62.2553
3009.74	59.1832
3011.03	56.0472
3012.32	53.6652
3013.61	51.0368
3014.9	48.6774
3016.19	46.5203
3017.48	44.9071
3018.78	43.0293
3020.07	41.7213
3021.36	40.3094
3022.65	38.8436
3023.94	37.2323
3025.23	36.2318
3026.51	35.1988
3027.8	33.9448
3029.09	33.3297
3030.38	32.5549
3031.67	31.6745
3032.96	31.3024
3034.24	30.561
3035.53	30.0591
3036.82	30.0686
3038.11	30.1234
3039.39	30.6326
3040.68	30.9262
3041.97	31.4504
3043.25	32.0644
3044.54	32.7463
3045.83	33.6411
3047.11	33.7911
3048.4	34.0056
3049.68	34.3957
3050.97	34.6854
3052.25	34.9674
3053.54	35.7591
3054.82	35.0721
3056.11	35.5203
3057.39	35.8557
3058.67	35.8319
3059.96	35.6988
3061.24	34.9697
3062.52	34.8223
3063.81	34.6751
3065.09	34.4619
3066.37	33.3553
3067.65	32.5626
3068.94	32.1691
3070.22	31.3716
3071.5	30.6923
3072.78	29.9721
3074.06	29.5492
3075.34	28.9973
3076.62	27.7254
3077.9	26.9326
3079.18	25.7739
3080.46	24.9739
3081.74	24.0281
3083.02	22.8159
3084.3	21.6307
3085.58	20.4909
3086.86	19.7528
3088.14	18.4911
3089.42	18.1183
3090.69	17.0416
3091.97	15.9932
3093.25	15.3388
3094.53	14.5319
3095.8	13.7105
3097.08	13.5016
3098.36	12.82
3099.63	12.777
3100.91	11.9489
3102.19	11.7057
3103.46	11.2282
3104.74	10.441
3106.01	9.65072
3107.29	9.51861
3108.56	8.98636
3109.84	8.17207
3111.11	8.18536
3112.39	7.68519
3113.66	6.76821
3114.94	6.01956
3116.21	5.72738
3117.48	5.32801
3118.76	4.60703
3120.03	4.54558
3121.3	3.9416
3122.57	3.33964
3123.85	2.74932
3125.12	2.26127
3126.39	2.2926
3127.66	1.89087
3128.93	1.23446
3130.21	0.409855
3131.48	0.428109
3132.75	0.580073
3134.02	0.543282
3135.29	0.413992
3136.56	0.364902
3137.83	0.114593
3139.1	-0.220329
3140.37	-0.496618
3141.64	-0.197011
3142.91	-0.108583
3144.17	-0.114615
3145.44	0.0606164
3146.71	0.482465
3147.98	0.707943
3149.25	0.509285
