#Acq. time (s)=	45
#Accumulations=	2
#Range (cm-¹)=	200...3150
#Windows=	2
#Auto scanning=	Off
#Autofocus=	Off
#Macrospot=	Off
#AutoExposure=	Off
#Spike filter=	Multiple accum.
#Delay time (s)=	0
#Binning=	1
#Readout mode=	Signal
#DeNoise=	Off
#ICS correction=	On
#Dark correction=	Off
#Inst. Process=	Off
#Detector Gain=	Best Dynamic Range
#Detector ADC=	20 kHz       
#Detector temperature (°C)=	-69.85
#Instrument=	LabRAM HR Evol
#Detector=	Synapse
#Objective=	x100
#Grating=	600 gr/mm
#ND Filter=	100%
#Laser (nm)=	532 
#Hole=	100.021
#Range=	Auto
#Laser Pol.=	No
#Raman. Pol.=	No
#Laser Pol. (°)=	-0.0007625
#Raman Pol. (°)=	89.9995
#Collection=	Microscope
#StageXY=	Marzhauser
#StageZ=	Marzhauser
#X (µm)=	2202.6
#Y (µm)=	1210.1
#Z (µm)=	442.5
#Full time(mm:ss)=	3:18
#Project=	
#Sample=	
#Site=	
#Title=	Thy_10_08_29_2x_45s_532 nm_x100_100%_600 gr_mm
#Remark=	
#Date=	05.07.2022 16:18
#Acquired=	05.07.2022 16:18:32
#Base:Fit=	10.08.2022 09:46:25
#Base:Sub=	10.08.2022 09:46:49
#Filter:Polynom=	16.08.2022 10:24:56
#AxisType[0]=Intens
#AxisUnit[0]=Cnt
#AxisType[1]=Spectr
#AxisUnit[1]=1/cm
200.43	1.38513
202.244	1.55927
204.059	0.859074
205.873	1.33034
207.688	2.17802
209.501	2.98469
211.314	3.43758
213.127	3.97147
214.941	4.50147
216.753	5.32654
218.564	5.73281
220.375	6.45705
222.186	6.73408
223.999	6.48271
225.809	6.15457
227.618	6.61248
229.428	6.80871
231.236	7.62701
233.045	8.65586
234.855	8.48596
236.663	8.76965
238.471	9.23213
240.278	8.91769
242.085	8.66975
243.891	8.11518
245.698	8.52145
247.503	6.97739
249.309	6.2567
251.116	5.7354
252.921	5.58887
254.725	5.74362
256.529	6.15281
258.333	6.80979
260.136	8.69661
261.939	8.9765
263.742	9.05922
265.544	10.0316
267.346	10.1511
269.148	9.5295
270.949	8.14904
272.75	8.39219
274.55	7.72157
276.351	7.11962
278.15	6.64291
279.95	6.69536
281.749	5.37343
283.548	5.21735
285.346	5.66357
287.144	6.48423
288.942	7.36595
290.739	7.47076
292.536	8.50273
294.333	9.80579
296.129	10.2319
297.925	10.1806
299.721	10.6197
301.514	10.8681
303.309	11.5623
305.104	12.1124
306.898	12.7786
308.692	13.3641
310.486	14.1454
312.279	14.8099
314.072	15.7128
315.862	16.6836
317.654	18.1871
319.446	18.384
321.238	19.3126
323.029	19.4159
324.819	18.7136
326.608	19.3498
328.398	20.0562
330.188	19.9122
331.977	19.8289
333.766	19.4993
335.553	19.9431
337.341	19.0203
339.129	19.8071
340.917	19.8729
342.704	19.9641
344.489	20.2741
346.275	20.595
348.062	20.9921
349.845	20.8655
351.631	19.4106
353.416	19.1956
355.201	19.2693
356.984	17.2784
358.768	15.4948
360.552	14.6124
362.333	15.6465
364.116	15.8703
365.899	14.7039
367.68	13.3172
369.462	13.1708
371.243	13.0425
373.023	13.0068
374.804	13.2407
376.585	12.8715
378.363	12.1596
380.143	11.1247
381.923	11.2653
383.7	11.1804
385.479	10.9962
387.256	10.8409
389.034	11.3682
390.812	10.8329
392.588	11.2316
394.365	12.2613
396.14	12.8444
397.916	14.0178
399.691	14.4548
401.467	13.9812
403.24	13.9379
405.015	14.6387
406.788	13.9849
408.563	13.9619
410.335	14.7992
412.109	14.9325
413.88	15.3631
415.654	15.5147
417.424	15.4082
419.197	14.3085
420.967	13.6161
422.739	13.6068
424.508	13.2325
426.279	12.9395
428.048	13.3521
429.819	14.1679
431.587	14.6672
433.356	14.9676
435.124	15.4785
436.891	15.0493
438.66	15.7342
440.426	15.4021
442.194	15.2771
443.96	15.6807
445.725	14.296
447.492	14.3478
449.257	14.7219
451.021	14.2529
452.787	12.9522
454.551	11.1048
456.314	11.3846
458.079	11.9773
459.842	11.6329
461.604	11.1337
463.368	11.5848
465.13	10.5803
466.891	11.1981
468.654	11.3894
470.415	10.709
472.175	11.3588
473.935	10.4668
475.696	9.90563
477.456	10.0523
479.215	10.0764
480.973	10.9404
482.733	11.7165
484.491	11.5605
486.249	10.9207
488.006	11.0746
489.765	10.3886
491.522	11.1063
493.278	11.4009
495.034	10.3536
496.789	11.2757
498.544	11.1299
500.301	11.1739
502.056	11.3528
503.81	10.972
505.564	11.5557
507.317	12.0229
509.071	12.9686
510.825	13.9342
512.578	14.0432
514.33	14.7067
516.082	15.5682
517.833	16.1161
519.585	16.6006
521.335	16.699
523.086	17.4343
524.836	17.9186
526.586	18.5254
528.335	18.0906
530.085	19.0252
531.835	18.8239
533.584	18.2488
535.332	18.2646
537.08	18.4657
538.827	18.1809
540.574	19.675
542.321	19.9662
544.068	20.8924
545.814	20.9671
547.56	20.3158
549.305	20.4258
551.05	20.3966
552.795	19.7351
554.54	19.8068
556.282	19.6998
558.025	18.9893
559.769	18.633
561.512	17.3148
563.255	16.2109
564.997	15.7606
566.739	15.3353
568.481	14.9562
570.223	14.6
571.964	13.6843
573.705	12.7587
575.443	13.0775
577.183	11.8421
578.923	12.1101
580.663	11.6646
582.402	11.7636
584.141	12.6804
585.879	12.7813
587.615	12.4164
589.353	11.4645
591.09	11.1924
592.828	9.40645
594.564	9.08499
596.299	8.19794
598.035	7.32525
599.771	5.50476
601.506	5.45891
603.242	5.09107
604.974	5.16074
606.709	4.84756
608.443	3.89826
610.177	4.31866
611.908	5.37656
613.642	5.24816
615.374	5.75777
617.105	6.2256
618.837	6.18336
620.569	7.2255
622.3	7.31137
624.03	7.92255
625.761	8.21724
627.491	8.64258
629.219	8.5763
630.949	9.51458
632.677	9.69544
634.406	9.63962
636.135	11.6304
637.861	12.3451
639.59	12.0545
641.318	12.468
643.043	12.8134
644.77	12.3668
646.495	11.5346
648.222	11.0568
649.948	11.6229
651.672	13.1471
653.398	14.9695
655.121	15.4219
656.846	15.807
658.569	16.2636
660.293	16.2119
662.015	17.1225
663.738	17.5368
665.46	18.9335
667.183	19.4695
668.903	19.5152
670.626	19.8803
672.346	19.7187
674.067	19.2902
675.787	19.5621
677.508	19.3303
679.226	18.9857
680.947	20.3781
682.665	20.1776
684.385	21.1942
686.102	22.299
687.821	23.5641
689.538	24.0315
691.254	25.3274
692.972	26.5236
694.688	27.6811
696.406	29.4148
698.121	30.1574
699.835	30.883
701.552	32.4505
703.266	33.1197
704.98	34.0839
706.695	34.4388
708.409	34.8926
710.121	37.0194
711.836	38.4389
713.548	38.6727
715.26	39.379
716.973	40.6297
718.685	41.4562
720.396	41.7036
722.108	43.276
723.818	43.0356
725.528	42.5975
727.238	43.5621
728.949	43.9144
730.658	44.3487
732.367	44.663
734.075	45.0293
735.785	45.5909
737.493	46.3655
739.2	46.6997
740.907	46.6475
742.614	46.6414
744.322	47.2461
746.028	47.8728
747.734	49.5973
749.439	50.6603
751.144	52.1426
752.849	53.0868
754.555	53.0784
756.26	54.6177
757.963	55.552
759.667	55.6206
761.37	56.1895
763.073	56.4982
764.775	58.737
766.477	59.3106
768.179	60.7927
769.883	62.1414
771.584	62.7945
773.285	63.7505
774.986	65.9313
776.686	68.1352
778.386	69.387
780.085	69.3971
781.785	70.1729
783.484	71.1298
785.182	72.3041
786.881	73.1429
788.579	73.6415
790.276	74.0844
791.974	74.757
793.671	76.0375
795.367	77.1048
797.064	76.8794
798.76	75.7107
800.456	76.4837
802.151	76.2919
803.846	75.8468
805.541	75.1733
807.234	76.309
808.928	75.5916
810.622	74.791
812.315	76.6498
814.008	76.4393
815.701	76.3307
817.394	75.8462
819.086	75.9149
820.778	76.4678
822.468	76.2993
824.159	76.0166
825.85	76.2994
827.541	76.91
829.231	77.6104
830.921	77.3547
832.609	77.3109
834.298	77.187
835.987	76.9428
837.676	76.8533
839.364	75.0789
841.051	74.4607
842.738	73.8425
844.426	72.4463
846.113	72.3898
847.798	72.0219
849.484	71.3772
851.171	69.5337
852.857	68.5263
854.54	67.1502
856.226	67.2142
857.911	66.0013
859.593	65.5027
861.278	64.311
862.961	62.3882
864.645	61.0335
866.327	61.1519
868.01	60.2865
869.692	59.3882
871.373	59.1071
873.055	57.8427
874.735	56.9488
876.416	55.6881
878.097	54.8337
879.776	53.0555
881.457	52.1375
883.135	50.3285
884.815	50.9695
886.495	50.4042
888.172	50.4718
889.851	50.5133
891.528	50.5674
893.206	49.6057
894.882	49.097
896.56	50.0182
898.237	48.9178
899.912	49.8668
901.589	50.043
903.263	50.2584
904.94	49.6841
906.614	49.0707
908.289	49.5043
909.962	49.5587
911.635	49.7912
913.31	49.3989
914.982	49.3027
916.656	49.8615
918.328	50.0855
920.001	49.4511
921.672	48.7369
923.345	47.0034
925.015	46.6622
926.685	46.4778
928.357	45.521
930.026	44.6734
931.698	43.3856
933.366	41.6398
935.035	41.2683
936.705	41.1521
938.373	41.5429
940.041	42.1868
941.71	40.8075
943.377	40.496
945.044	39.7766
946.712	38.9667
948.378	38.8553
950.044	38.0809
951.709	36.6346
953.376	35.8388
955.041	35.262
956.706	34.9833
958.372	34.1823
960.036	32.3971
961.699	31.3924
963.362	30.7178
965.027	31.1064
966.69	31.1283
968.352	32.6577
970.014	32.5194
971.676	32.2981
973.339	32.0218
975	31.4585
976.661	31.3265
978.322	32.2048
979.982	33.5534
981.642	34.2989
983.303	35.1181
984.962	34.2959
986.621	34.7396
988.28	35.2094
989.938	35.9812
991.596	36.2078
993.254	36.8267
994.911	36.7912
996.57	37.5952
998.227	36.7816
999.884	36.2125
1001.54	36.1577
1003.2	36.2411
1004.85	35.1806
1006.51	35.1736
1008.16	35.848
1009.82	35.4531
1011.47	34.974
1013.12	34.2733
1014.78	34.2662
1016.43	34.1811
1018.08	34.5694
1019.74	33.5886
1021.39	32.7495
1023.04	31.7453
1024.69	30.8459
1026.34	30.814
1028	30.8944
1029.65	29.2891
1031.3	28.4234
1032.95	26.6593
1034.6	26.4011
1036.25	25.1666
1037.9	25.1449
1039.54	23.862
1041.19	22.3205
1042.84	21.726
1044.49	22.2109
1046.14	23.3412
1047.78	23.2544
1049.43	22.9929
1051.08	21.1411
1052.72	20.2234
1054.37	19.2383
1056.02	18.4514
1057.66	19.2658
1059.31	19.2018
1060.95	19.6515
1062.6	19.5858
1064.24	18.6372
1065.88	17.972
1067.53	17.2176
1069.17	17.5168
1070.81	16.9526
1072.45	16.0867
1074.1	16.0995
1075.74	16.7519
1077.38	16.6231
1079.02	17.0819
1080.66	16.8833
1082.3	17.8195
1083.94	18.5545
1085.58	17.6896
1087.22	17.3117
1088.86	17.5258
1090.5	17.1086
1092.14	15.8654
1093.78	15.1636
1095.42	15.3471
1097.05	16.2071
1098.69	15.839
1100.33	15.9873
1101.96	15.5525
1103.6	15.2802
1105.24	15.6416
1106.87	15.8924
1108.51	15.2016
1110.14	14.82
1111.78	13.7166
1113.41	13.617
1115.05	14.1113
1116.68	14.7513
1118.31	14.5237
1119.95	14.3971
1121.58	13.2932
1123.21	12.6093
1124.85	11.7735
1126.48	12.0041
1128.11	11.7334
1129.74	10.5417
1131.37	9.82804
1133	9.41279
1134.63	10.1619
1136.26	9.30014
1137.89	8.53215
1139.52	8.41832
1141.15	7.4247
1142.78	7.83925
1144.41	7.67669
1146.04	6.81433
1147.66	7.6323
1149.29	7.27525
1150.92	7.06642
1152.55	6.49512
1154.17	6.41201
1155.8	7.41189
1157.43	7.54412
1159.05	7.07367
1160.68	6.50409
1162.3	5.38569
1163.93	4.4184
1165.55	3.60869
1167.17	2.99227
1168.8	2.7077
1170.42	1.62671
1172.05	1.93479
1173.67	1.65924
1175.29	2.11574
1176.91	3.13277
1178.54	3.8287
1180.16	4.25053
1181.78	4.64778
1183.4	4.56964
1185.02	4.77159
1186.64	5.77396
1188.26	6.45597
1189.88	6.7837
1191.5	7.64297
1193.12	9.13326
1194.74	11.0872
1196.36	13.1061
1197.97	13.4055
1199.59	14.0442
1201.21	14.7185
1202.83	16.3712
1204.44	18.2169
1206.06	20.1108
1207.68	22.2137
1209.29	22.661
1210.91	23.2213
1212.52	24.3355
1214.14	25.489
1215.75	27.8386
1217.37	30.269
1218.98	32.5671
1220.59	35.2016
1222.21	37.3325
1223.82	40.3723
1225.43	41.7909
1227.05	43.3912
1228.66	45.5752
1230.27	46.7345
1231.88	48.3008
1233.49	50.3138
1235.1	51.8721
1236.72	52.9632
1238.33	53.2186
1239.94	53.6205
1241.55	53.7365
1243.16	54.4157
1244.76	55.4225
1246.37	56.5306
1247.98	57.4505
1249.59	57.4574
1251.2	58.1602
1252.8	58.6357
1254.41	58.8961
1256.02	60.4294
1257.62	60.9246
1259.23	60.9277
1260.84	59.9675
1262.44	58.605
1264.05	57.9033
1265.66	57.602
1267.26	57.8993
1268.86	57.0295
1270.47	56.6904
1272.07	56.2041
1273.67	56.8434
1275.28	56.4354
1276.88	55.9298
1278.48	55.7177
1280.09	55.786
1281.69	55.6701
1283.29	55.6428
1284.89	54.7157
1286.49	54.9457
1288.09	55.6654
1289.69	56.2038
1291.29	56.3028
1292.89	56.7774
1294.49	57.8498
1296.09	59.3932
1297.69	59.317
1299.29	59.7164
1300.89	60.1629
1302.49	60.9331
1304.08	61.6408
1305.68	60.5908
1307.28	62.2366
1308.88	62.6384
1310.47	63.3463
1312.07	64.1329
1313.66	65.3093
1315.26	65.495
1316.85	66.5309
1318.45	67.6103
1320.04	68.4145
1321.64	69.7564
1323.23	70.8134
1324.83	71.7458
1326.42	71.6041
1328.01	71.8195
1329.61	71.8388
1331.2	71.4909
1332.79	71.2051
1334.38	71.1763
1335.97	71.1112
1337.56	70.0482
1339.16	69.0425
1340.75	68.2164
1342.34	67.3041
1343.93	66.7326
1345.52	66.7829
1347.11	65.2007
1348.7	64.4443
1350.29	64.5695
1351.87	63.6771
1353.46	64.2065
1355.05	63.3134
1356.64	62.2651
1358.22	61.6571
1359.81	60.2422
1361.4	58.585
1362.98	57.4929
1364.57	55.699
1366.16	55.0072
1367.74	53.1543
1369.33	50.4834
1370.91	48.5591
1372.5	48.037
1374.08	46.951
1375.67	44.7843
1377.25	43.8168
1378.83	43.162
1380.41	41.2958
1382	40.4457
1383.58	39.3532
1385.16	38.7765
1386.74	38.8795
1388.33	38.414
1389.91	38.5282
1391.49	38.1123
1393.07	37.3649
1394.65	36.6504
1396.23	37.0513
1397.81	35.817
1399.39	35.2502
1400.97	35.6944
1402.55	35.5413
1404.13	35.6375
1405.7	35.2131
1407.28	36.6405
1408.86	36.9115
1410.44	37.9674
1412.01	39.6366
1413.59	41.2469
1415.17	44.1864
1416.74	45.797
1418.32	48.0276
1419.89	49.8047
1421.47	52.7671
1423.04	55.726
1424.62	58.4236
1426.19	60.3557
1427.77	64.6395
1429.34	67.4937
1430.91	70.4452
1432.49	73.9402
1434.06	76.2507
1435.63	78.9402
1437.2	81.344
1438.78	82.917
1440.35	84.208
1441.92	85.7787
1443.49	86.2137
1445.06	87.3344
1446.63	88.2943
1448.2	89.3384
1449.77	89.8169
1451.34	89.5777
1452.91	88.4033
1454.48	86.9206
1456.05	86.4366
1457.62	84.613
1459.18	82.8571
1460.75	81.533
1462.32	78.9294
1463.89	76.4856
1465.45	73.7034
1467.02	71.0032
1468.59	67.1102
1470.15	63.5547
1471.72	59.3821
1473.28	55.7799
1474.85	52.4856
1476.41	48.2293
1477.98	45.2935
1479.54	42.4672
1481.1	39.9989
1482.67	36.1587
1484.23	33.4441
1485.79	30.8751
1487.36	27.9067
1488.92	25.7694
1490.48	23.1103
1492.04	21.6119
1493.61	19.9252
1495.17	17.2374
1496.73	15.8997
1498.29	13.8263
1499.85	13.3823
1501.41	12.4981
1502.97	11.9528
1504.53	11.4079
1506.09	11.8012
1507.65	10.3962
1509.2	10.6575
1510.76	10.5113
1512.32	10.5884
1513.88	10.7894
1515.43	11.3911
1516.99	10.9822
1518.55	10.678
1520.1	11.6925
1521.66	13.3313
1523.22	13.9311
1524.77	14.5315
1526.33	14.6788
1527.88	14.2259
1529.44	14.9244
1530.99	15.8889
1532.54	17.1839
1534.1	18.0847
1535.65	18.8242
1537.21	20.2131
1538.76	20.7994
1540.31	21.3902
1541.86	22.7611
1543.42	23.1726
1544.97	24.12
1546.52	25.6757
1548.07	26.8106
1549.62	28.2584
1551.17	30.3355
1552.72	31.2555
1554.27	32.3822
1555.82	33.8077
1557.37	35.4765
1558.92	36.0611
1560.47	36.5756
1562.02	37.9196
1563.56	38.7632
1565.11	40.5286
1566.66	42.5233
1568.21	44.3843
1569.75	45.7187
1571.3	47.2114
1572.85	48.6886
1574.39	49.9849
1575.94	51.1274
1577.49	52.5885
1579.03	53.1529
1580.57	53.7921
1582.12	54.9226
1583.66	56.5824
1585.21	58.1143
1586.75	59.8546
1588.3	60.4453
1589.84	61.7132
1591.38	62.3614
1592.92	63.0079
1594.47	62.7363
1596.01	63.357
1597.55	62.9671
1599.09	62.3865
1600.63	60.7237
1602.17	60.2862
1603.71	60.2598
1605.25	59.9445
1606.79	59.9901
1608.33	60.3964
1609.87	59.4619
1611.41	59.2533
1612.95	59.0223
1614.49	59.3238
1616.03	58.4393
1617.57	58.6674
1619.1	58.8821
1620.64	59.1386
1622.18	59.213
1623.72	59.0444
1625.25	58.6489
1626.79	59.0414
1628.32	59.0492
1629.86	58.9533
1631.39	59.8107
1632.93	59.3237
1634.46	59.5798
1636	59.8436
1637.53	60.8794
1639.07	62.0625
1640.6	62.8518
1642.13	63.0106
1643.67	63.8424
1645.2	64.2277
1646.73	64.714
1648.26	65.4493
1649.8	65.6068
1651.33	65.8089
1652.86	66.0578
1654.39	66.2666
1655.92	66.8435
1657.45	68.1681
1658.98	68.5629
1660.51	67.6743
1662.04	66.6912
1663.57	66.0188
1665.1	65.4312
1666.63	64.7315
1668.16	63.2308
1669.68	61.7836
1671.21	60.0031
1672.74	58.4712
1674.27	56.2394
1675.79	55.5336
1677.32	53.6567
1678.85	52.1124
1680.37	50.4309
1681.9	48.3775
1683.42	46.9632
1684.95	44.3465
1686.47	41.5474
1688	39.8139
1689.52	36.7211
1691.05	34.7594
1692.57	32.3154
1694.09	30.1167
1695.62	28.0196
1697.14	25.9794
1698.66	23.3018
1700.18	21.821
1701.71	20.2814
1703.23	18.8451
1704.75	16.3128
1706.27	14.6958
1707.79	12.867
1709.31	10.8443
1710.83	10.3251
1712.35	9.42487
1713.87	8.21695
1715.39	7.39008
1716.91	6.05522
1718.43	5.42406
1719.95	5.59561
1721.47	5.27726
1722.99	5.20279
1724.5	4.55376
1726.02	4.058
1727.54	3.55951
1729.06	3.36861
1730.57	3.38348
1732.09	3.63035
1733.61	2.90397
1735.12	1.87772
1736.64	1.1982
1738.15	1.63335
1739.67	1.76201
1741.18	1.75254
1742.7	1.99622
1744.21	2.12116
1745.72	2.2803
1747.24	2.57315
1748.75	2.90397
1750.26	2.68331
1751.77	2.81489
1753.29	2.50037
1754.8	2.73986
1756.31	1.9794
1757.82	1.54206
1759.33	0.829567
1760.84	-0.306435
1762.36	-0.480422
1763.87	-0.636277
1765.38	-0.741395
1766.89	-0.262594
1768.4	-0.235124
1769.91	0.12157
1771.41	0.363198
1772.92	-0.00134936
1774.43	-0.119762
1775.94	-0.0257208
1777.45	-0.611354
1778.95	-0.720053
1780.46	-0.49382
1781.97	0.440267
1783.48	0.346386
1784.98	0.522394
1786.49	1.20613
1787.99	1.3185
1789.5	1.27741
1791.01	2.03107
1792.51	2.27486
1794.01	2.4228
1795.52	3.0178
1797.02	3.18159
1798.53	3.3392
1800.03	2.96716
1801.53	3.47958
1803.04	3.71461
1804.54	3.75018
1806.04	3.50204
1807.54	3.54151
1809.05	3.5455
1810.55	3.73124
1812.05	4.41612
1813.55	5.15578
1815.05	5.66533
1816.55	6.55175
1818.05	7.11517
1819.55	7.50974
1821.05	7.84842
1822.55	8.26713
1824.05	8.56276
1825.55	8.8827
1827.05	9.30304
1828.55	9.5765
1830.04	8.97469
1831.54	8.32406
1833.04	8.82531
1834.54	8.81704
1836.03	9.28378
1837.53	9.66841
1839.03	9.66998
1840.52	10.121
1842.02	10.4353
1843.51	9.75985
1845.01	9.30476
1846.5	8.55168
1848	9.10159
1849.49	9.42196
1850.99	9.51182
1852.48	8.98742
1853.97	9.71049
1855.47	9.87768
1856.96	9.67584
1858.45	9.79531
1859.94	10.282
1861.44	10.1672
1862.93	10.1453
1864.42	10.5162
1865.91	10.8926
1867.4	10.9586
1868.89	11.2638
1870.38	11.1881
1871.87	10.6896
1873.36	10.9614
1874.85	11.0629
1876.34	11.5266
1877.83	11.2191
1879.32	10.9838
1880.81	11.6036
1882.3	12.4402
1882.57	12.8244
1884.07	13.4016
1885.56	14.0596
1887.06	13.9247
1888.55	14.4387
1890.04	14.6745
1891.54	15.3759
1893.03	15.9601
1894.52	15.9846
1896.02	16.5466
1897.51	17.0664
1899	16.8094
1900.49	17.102
1901.98	16.5972
1903.47	16.0555
1904.96	16.642
1906.45	17.1847
1907.94	16.9042
1909.43	17.1195
1910.92	16.478
1912.41	16.2673
1913.9	17.2254
1915.39	17.162
1916.88	16.8247
1918.37	16.8116
1919.85	17.6618
1921.34	18.2142
1922.83	18.0415
1924.32	18.0338
1925.8	17.8652
1927.29	18.195
1928.78	17.2981
1930.26	17.9818
1931.75	18.0071
1933.23	17.7741
1934.72	17.7316
1936.2	17.6085
1937.69	17.9453
1939.17	17.9076
1940.66	17.5642
1942.14	16.8368
1943.63	16.5356
1945.11	16.8484
1946.59	17.5536
1948.07	17.4029
1949.56	17.452
1951.04	17.5036
1952.52	17.3377
1954	18.1527
1955.48	18.2508
1956.96	17.9396
1958.45	17.9497
1959.93	17.3466
1961.41	16.9624
1962.89	17.1078
1964.37	17.31
1965.85	17.4081
1967.32	16.849
1968.8	16.9219
1970.28	17.6785
1971.76	17.8468
1973.24	17.7642
1974.72	18.3756
1976.19	17.9068
1977.67	18.4812
1979.15	19.0875
1980.63	19.2836
1982.1	19.2811
1983.58	19.2202
1985.05	19.2208
1986.53	19.6293
1988	20.0649
1989.48	20.0784
1990.95	20.5541
1992.43	21.0862
1993.9	22.4249
1995.38	22.5907
1996.85	22.2843
1998.32	22.6262
1999.8	22.9949
2001.27	22.68
2002.74	22.1478
2004.22	22.1655
2005.69	21.9501
2007.16	22.1276
2008.63	22.7782
2010.1	23.4437
2011.57	23.692
2013.04	23.2284
2014.51	22.8267
2015.98	22.9305
2017.45	23.6167
2018.92	23.1898
2020.39	23.0117
2021.86	22.8333
2023.33	22.8267
2024.8	22.3314
2026.27	21.7308
2027.74	21.7621
2029.2	21.0782
2030.67	21.0223
2032.14	21.0581
2033.61	21.0904
2035.07	21.8437
2036.54	21.3461
2038.01	21.2278
2039.47	20.8628
2040.94	20.8857
2042.4	21.2935
2043.87	21.6127
2045.33	21.4967
2046.8	21.5364
2048.26	21.7425
2049.72	21.5113
2051.19	21.4228
2052.65	22.228
2054.12	22.7262
2055.58	22.5655
2057.04	22.5497
2058.5	22.7176
2059.97	23.3183
2061.43	23.7603
2062.89	24.094
2064.35	24.3864
2065.81	24.9744
2067.27	25.2695
2068.73	24.8054
2070.19	25.1293
2071.65	26.4391
2073.11	26.7349
2074.57	26.2056
2076.03	26.487
2077.49	27.2811
2078.95	27.973
2080.41	28.2944
2081.87	28.5923
2083.32	28.2556
2084.78	27.1332
2086.24	27.4178
2087.7	27.5876
2089.15	27.5771
2090.61	27.716
2092.07	27.1614
2093.52	27.5248
2094.98	27.7386
2096.43	27.5394
2097.89	27.5456
2099.34	27.6236
2100.8	27.6959
2102.25	27.1644
2103.71	28.0777
2105.16	28.3195
2106.61	28.0179
2108.07	27.214
2109.52	26.6035
2110.97	26.9044
2112.43	26.9232
2113.88	27.0825
2115.33	27.5683
2116.78	28.1047
2118.23	28.3111
2119.68	28.8733
2121.13	28.679
2122.59	29.3491
2124.04	29.5866
2125.49	30.614
2126.94	30.9253
2128.39	30.5007
2129.83	30.9057
2131.28	31.0427
2132.73	31.6874
2134.18	32.1698
2135.63	33.0449
2137.08	34.1455
2138.53	34.8601
2139.97	35.1979
2141.42	35.8268
2142.87	37.0364
2144.31	37.5379
2145.76	37.4224
2147.21	38.1011
2148.65	38.832
2150.1	39.5655
2151.54	40.0821
2152.99	41.7233
2154.43	42.0247
2155.88	41.8446
2157.32	42.0825
2158.77	43.459
2160.21	43.1013
2161.65	43.983
2163.1	44.7041
2164.54	44.8692
2165.98	45.3164
2167.43	45.3904
2168.87	45.2651
2170.31	45.4866
2171.75	45.982
2173.19	46.5188
2174.64	46.9207
2176.07	47.7224
2177.52	47.4695
2178.96	46.3251
2180.4	46.4785
2181.84	46.7908
2183.28	46.4773
2184.72	45.3424
2186.15	45.3627
2187.59	44.9657
2189.03	44.6758
2190.47	44.0018
2191.91	43.4247
2193.35	42.1724
2194.78	42.2109
2196.22	41.1582
2197.66	41.0282
2199.09	40.4755
2200.53	38.7569
2201.97	37.7095
2203.4	36.6905
2204.84	35.9082
2206.27	35.2358
2207.71	34.3322
2209.14	33.8252
2210.58	32.9652
2212.01	32.2448
2213.45	32.3192
2214.88	31.901
2216.31	31.7604
2217.75	31.1669
2219.18	31.399
2220.61	30.7586
2222.05	30.849
2223.48	30.4352
2224.91	30.0788
2226.34	28.8658
2227.78	28.0305
2229.21	27.8377
2230.64	27.5803
2232.07	27.2155
2233.5	28.1979
2234.93	27.8453
2236.36	27.0727
2237.79	27.2725
2239.22	27.5553
2240.65	27.8026
2242.08	28.6749
2243.5	28.932
2244.93	29.0831
2246.36	28.7683
2247.79	28.6647
2249.22	28.7416
2250.64	28.4918
2252.07	28.9794
2253.5	28.6011
2254.92	28.7048
2256.35	28.0736
2257.78	28.7597
2259.2	28.6758
2260.63	28.2196
2262.05	27.9353
2263.48	27.4713
2264.9	26.8558
2266.33	26.9693
2267.75	26.5786
2269.18	26.5372
2270.6	25.8297
2272.02	24.7448
2273.45	24.1625
2274.87	23.6444
2276.29	22.9187
2277.71	22.2787
2279.14	21.5589
2280.56	21.4656
2281.98	20.5387
2283.4	19.9178
2284.82	19.7186
2286.24	19.3617
2287.66	19.2321
2289.08	18.512
2290.5	18.6073
2291.92	17.5864
2293.34	17.0487
2294.76	15.9925
2296.18	15.4104
2297.6	15.1058
2299.02	15.0018
2300.44	15.3382
2301.86	15.5637
2303.27	16.321
2304.69	16.4705
2306.11	15.8799
2307.53	16.0846
2308.94	17.1045
2310.36	17.384
2311.78	17.6548
2313.19	17.9772
2314.61	17.9858
2316.02	18.4925
2317.44	18.5852
2318.85	19.5098
2320.27	19.4311
2321.68	19.5921
2323.1	19.5995
2324.51	19.8205
2325.92	20.5094
2327.34	20.32
2328.75	20.9862
2330.16	21.2336
2331.58	20.8914
2332.99	21.5161
2334.4	21.3973
2335.81	21.4968
2337.23	21.7194
2338.64	21.5795
2340.05	21.1702
2341.46	20.7679
2342.87	19.9213
2344.28	19.4152
2345.69	19.4007
2347.1	19.5207
2348.51	19.0282
2349.92	18.863
2351.33	18.8346
2352.74	18.3438
2354.15	18.0925
2355.55	17.5086
2356.96	17.4395
2358.37	16.4715
2359.78	16.0593
2361.19	15.7572
2362.59	14.8937
2364	15.3995
2365.41	15.0475
2366.81	15.7394
2368.22	16.2378
2369.62	15.9134
2371.03	15.2725
2372.44	14.8197
2373.84	14.5717
2375.24	14.2395
2376.65	13.7799
2378.05	14.0068
2379.46	13.9178
2380.86	13.6871
2382.26	13.1789
2383.67	12.9192
2385.07	13.088
2386.47	12.7595
2387.88	12.2752
2389.28	12.0963
2390.68	11.7412
2392.08	11.8338
2393.48	12.5402
2394.89	12.7508
2396.29	13.4698
2397.69	13.0016
2399.09	12.8105
2400.49	12.5302
2401.89	12.3444
2403.29	12.9647
2404.69	12.4169
2406.09	12.2948
2407.48	11.8914
2408.88	12.0709
2410.28	12.0931
2411.68	12.3823
2413.08	12.184
2414.48	12.273
2415.87	12.8131
2417.27	12.7365
2418.67	12.5066
2420.06	12.9235
2421.46	13.2185
2422.86	13.571
2424.25	13.3465
2425.65	13.2631
2427.04	13.4468
2428.44	13.7459
2429.83	14.0366
2431.23	13.7444
2432.62	13.4056
2434.02	13.836
2435.41	14.0008
2436.81	14.3355
2438.2	14.1238
2439.59	13.0909
2440.99	13.0971
2442.38	13.2452
2443.77	13.0614
2445.16	13.0827
2446.56	12.8791
2447.95	12.8688
2449.34	12.6315
2450.73	12.7612
2452.12	12.5838
2453.51	12.8764
2454.9	12.5984
2456.29	12.1656
2457.68	12.0453
2459.07	12.2111
2460.46	12.5483
2461.85	12.1233
2463.24	12.2714
2464.63	11.2782
2466.02	11.4146
2467.4	10.5291
2468.79	10.262
2470.18	10.382
2471.57	10.5315
2472.95	9.84748
2474.34	8.65411
2475.73	8.12059
2477.12	7.26941
2478.5	7.31538
2479.89	6.45543
2481.27	6.17547
2482.66	5.61287
2484.04	4.64233
2485.43	4.24303
2486.81	3.81703
2488.2	2.90169
2489.58	2.82595
2490.97	2.20772
2492.35	1.68049
2493.73	0.605405
2495.12	0.629691
2496.5	0.189336
2497.88	-0.0451613
2499.27	-0.303788
2500.65	-0.482044
2502.03	0.103244
2503.41	0.514923
2504.79	0.653914
2506.17	0.14345
2507.56	0.399861
2508.94	0.0268308
2510.32	0.201827
2511.7	0.573016
2513.08	0.131376
2514.46	0.56836
2515.84	0.715215
2517.22	1.2466
2518.59	1.8187
2519.97	2.52181
2521.35	2.7961
2522.73	3.02594
2524.11	3.24337
2525.49	3.84288
2526.86	4.05646
2528.24	4.29136
2529.62	4.69712
2530.99	4.79414
2532.37	5.53565
2533.75	5.61746
2535.12	5.97413
2536.5	5.66691
2537.88	5.91233
2539.25	6.13751
2540.63	5.8633
2542	5.34443
2543.38	5.49842
2544.75	5.35561
2546.12	5.09809
2547.5	5.17497
2548.87	4.92685
2550.24	5.09997
2551.62	4.56166
2552.99	4.00013
2554.36	4.29358
2555.74	4.23532
2557.11	4.19308
2558.48	4.63582
2559.85	4.50545
2561.22	5.07059
2562.59	5.23627
2563.96	5.69217
2565.34	5.31839
2566.71	5.56247
2568.08	5.51021
2569.45	5.2943
2570.82	5.73125
2572.18	5.82175
2573.55	5.91303
2574.92	5.75926
2576.29	5.94616
2577.66	5.45868
2579.03	5.11817
2580.4	4.93918
2581.77	4.43801
2583.13	4.40427
2584.5	4.17335
2585.87	4.15032
2587.23	3.67525
2588.6	3.89024
2589.97	3.78766
2591.33	4.00366
2592.7	3.48653
2594.06	2.86366
2595.43	2.21212
2596.79	1.52598
2598.16	1.8306
2599.52	1.45705
2600.89	1.59337
2602.25	1.10097
2603.62	1.56427
2604.98	1.32092
2606.34	1.25929
2607.71	1.19498
2609.07	0.940244
2610.43	0.537307
2611.79	0.380652
2613.16	-0.0123531
2614.52	-0.136418
2615.88	-0.115455
2617.24	-0.937882
2618.6	-1.0015
2619.96	-0.902156
2621.32	-0.608903
2622.68	-0.0663552
2624.04	0.245069
2625.4	0.778762
2626.76	0.483549
2628.12	1.09272
2629.48	1.2684
2630.84	1.17114
2632.2	1.4468
2633.56	1.65559
2634.92	2.40603
2636.28	2.56567
2637.63	3.69077
2638.99	4.29478
2640.35	4.04044
2641.71	3.83204
2643.06	3.80145
2644.42	3.62514
2645.77	3.42812
2647.13	2.87235
2648.49	2.86223
2649.84	3.34733
2651.2	3.14401
2652.55	3.19048
2653.91	2.89843
2655.26	2.58538
2656.62	2.81167
2657.97	2.0875
2659.33	1.78031
2660.68	0.965734
2662.03	0.733122
2663.39	0.712069
2664.74	0.411216
2666.09	0.98762
2667.44	0.381806
2668.8	0.57789
2670.15	0.0340488
2671.5	0.366855
2672.85	-0.116871
2674.2	-0.408915
2675.55	-0.246234
2676.91	-0.858673
2678.26	-1.10489
2679.61	-0.441295
2680.96	-0.490347
2682.31	-0.864612
2683.66	-1.0913
2685	-0.894846
2686.35	0.131018
2687.7	0.617161
2689.05	0.773473
2690.4	0.910388
2691.75	1.37562
2693.1	1.86738
2694.44	1.60886
2695.79	2.46969
2697.14	3.29672
2698.49	3.82813
2699.83	5.07203
2701.18	5.34589
2702.52	5.94447
2703.87	6.25739
2705.22	6.62168
2706.56	6.55592
2707.91	7.29893
2709.25	8.15827
2710.6	8.24069
2711.94	8.31095
2713.29	8.59414
2714.63	8.54499
2715.97	8.78923
2717.32	8.12367
2718.66	7.00565
2720.01	6.43442
2721.35	6.0733
2722.69	6.22666
2724.03	6.29133
2725.38	6.31966
2726.72	6.90122
2728.06	7.29919
2729.4	7.31592
2730.74	7.27366
2732.08	7.26112
2733.42	7.33409
2734.76	7.36769
2736.1	7.25226
2737.44	7.13295
2738.78	7.23177
2740.12	6.81788
2741.46	6.56037
2742.8	6.22866
2744.14	5.79696
2745.48	5.67564
2746.82	5.95964
2748.16	5.10317
2749.49	4.90163
2750.83	5.02033
2752.17	5.21326
2753.51	4.93046
2754.84	5.01357
2756.18	5.16565
2757.52	4.83925
2758.85	4.94196
2760.19	4.84009
2761.53	4.46415
2762.86	4.89416
2764.2	4.8601
2765.53	4.50651
2766.87	4.97471
2768.2	4.90764
2769.54	5.22468
2770.87	5.03157
2772.2	4.60504
2773.54	4.58167
2774.87	4.27174
2776.2	3.36104
2777.54	2.59202
2778.87	2.15725
2780.2	1.66669
2781.53	1.12114
2782.87	0.397553
2784.2	-0.0978994
2785.53	0.0390032
2786.86	0.18542
2788.19	0.55732
2789.52	0.859078
2790.85	0.838179
2792.18	0.712632
2793.51	1.00062
2794.84	0.796713
2796.17	0.848338
2797.5	0.799815
2798.83	1.03443
2800.16	0.874946
2801.49	1.21778
2802.82	1.00631
2804.15	1.39146
2805.47	1.49623
2806.8	1.74721
2808.13	1.45467
2809.46	1.30683
2810.78	1.63809
2812.11	1.90142
2813.44	1.84158
2814.76	1.73682
2816.09	2.14539
2817.42	3.04893
2818.74	3.75508
2820.07	4.46923
2821.39	5.28645
2822.72	6.21685
2824.04	7.80504
2825.37	9.47331
2826.69	11.3977
2828.02	13.1751
2829.34	15.0002
2830.66	16.9851
2831.99	19.113
2833.31	21.5164
2834.63	23.3758
2835.96	25.4452
2837.28	27.9063
2838.6	30.8503
2839.92	33.4944
2841.24	36.2186
2842.57	39.9268
2843.89	43.6864
2845.21	47.36
2846.53	51.3293
2847.85	55.2016
2849.17	59.1959
2850.49	63.1294
2851.81	67.7094
2853.13	72.299
2854.45	77.9167
2855.77	82.7378
2857.09	87.3329
2858.41	92.2441
2859.72	96.8718
2861.04	101.65
2862.36	106.144
2863.68	111.053
2865	115.493
2866.31	119.324
2867.63	123.87
2868.95	127.788
2870.26	131.441
2871.58	134.943
2872.9	138.208
2874.21	140.925
2875.53	144.087
2876.84	146.764
2878.16	149.899
2879.47	152.457
2880.79	155.508
2882.1	157.883
2883.42	160.632
2884.73	163.259
2886.05	165.635
2887.36	168.161
2888.67	170.823
2889.99	173.162
2891.3	174.4
2892.61	176.567
2893.92	178.409
2895.24	180.121
2896.55	182.43
2897.86	185.397
2899.17	187.679
2900.48	190.515
2901.79	194.19
2903.11	197.663
2904.42	201.422
2905.73	205.303
2907.04	210.006
2908.35	214.664
2909.66	219.374
2910.97	224.601
2912.27	229.53
2913.58	234.194
2914.89	239.228
2916.2	244.027
2917.51	249.15
2918.82	253.405
2920.13	257.949
2921.43	260.728
2922.74	263.964
2924.05	267.235
2925.35	269.893
2926.66	272.754
2927.97	274.821
2929.27	276.733
2930.58	277.432
2931.89	277.987
2933.19	278.625
2934.5	278.03
2935.8	277.149
2937.11	276.091
2938.41	274.351
2939.72	272.183
2941.02	269.44
2942.32	266.683
2943.63	263.493
2944.93	259.872
2946.24	255.704
2947.54	251.754
2948.84	247.468
2950.14	242.781
2951.45	237.731
2952.75	233.001
2954.05	227.795
2955.35	222.505
2956.65	217.654
2957.95	213.171
2959.26	208.474
2960.56	204.115
2961.86	200.346
2963.16	196.122
2964.46	191.393
2965.76	188.092
2967.06	184.194
2968.36	180.731
2969.66	177.143
2970.96	173.691
2972.25	170.145
2973.55	166.722
2974.85	163.654
2976.15	159.883
2977.45	156.206
2978.74	152.287
2980.04	148.566
2981.34	144.411
2982.64	140.692
2983.93	136.358
2985.23	132.661
2986.52	128.219
2987.82	124.351
2989.12	119.923
2990.41	115.362
2991.71	111.023
2993	106.63
2994.3	102.07
2995.59	97.5869
2996.89	93.4066
2998.18	89.2102
2999.48	84.4119
3000.77	80.2585
3002.06	75.8928
3003.36	71.6031
3004.65	67.2126
3005.94	62.7286
3007.23	58.826
3008.53	55.3582
3009.82	52.0377
3011.11	47.9651
3012.4	44.9229
3013.69	41.424
3014.99	38.8261
3016.28	36.309
3017.57	33.7654
3018.86	31.2368
3020.15	29.6019
3021.44	27.9141
3022.73	26.5786
3024.02	25.4918
3025.31	24.4291
3026.6	23.2487
3027.89	22.0088
3029.18	21.1521
3030.46	20.3128
3031.75	19.7619
3033.04	20.0051
3034.33	19.9826
3035.62	20.5785
3036.9	21.0056
3038.19	21.487
3039.48	21.7162
3040.76	22.4354
3042.05	23.5379
3043.34	23.7489
3044.62	24.2726
3045.91	25.2677
3047.19	26.2236
3048.48	26.7309
3049.77	27.7898
3051.05	28.1167
3052.34	28.5288
3053.62	28.3081
3054.9	28.4101
3056.19	28.6685
3057.47	28.7314
3058.76	29.0177
3060.04	28.8672
3061.32	28.679
3062.61	28.2735
3063.89	27.8065
3065.17	27.416
3066.45	27.2406
3067.74	26.6746
3069.02	26.1378
3070.3	25.4362
3071.58	25.0139
3072.86	24.4319
3074.14	23.0363
3075.42	21.6488
3076.7	21.0671
3077.99	20.313
3079.26	19.2389
3080.54	17.8452
3081.82	16.3123
3083.1	15.3588
3084.38	14.5277
3085.66	13.1517
3086.94	11.9697
3088.22	10.6741
3089.5	9.88669
3090.78	8.63718
3092.05	7.6593
3093.33	6.02626
3094.61	5.22135
3095.89	4.87648
3097.16	4.36171
3098.44	3.63356
3099.72	3.22766
3100.99	2.8291
3102.27	2.47299
3103.54	2.24016
3104.82	2.05701
3106.1	2.01611
3107.37	1.74297
3108.65	1.54181
3109.92	1.69912
3111.2	1.70341
3112.47	1.35672
3113.74	1.26153
3115.02	0.803148
3116.29	0.662153
3117.56	0.42739
3118.84	0.447138
3120.11	0.734931
3121.38	0.981969
3122.66	1.01199
3123.93	0.877624
3125.2	1.20332
3126.47	1.74003
3127.74	1.95827
3129.01	2.11697
3130.29	2.91938
3131.56	2.6929
3132.83	2.91576
3134.1	2.5888
3135.37	2.63031
3136.64	2.31294
3137.91	2.20605
3139.18	2.09857
3140.45	2.00527
3141.72	1.4411
3142.99	0.59324
3144.26	-0.0921949
3145.52	-0.760208
3146.79	-2.26137
3148.06	-3.45175
3149.33	-4.53654
