#Acq. time (s)=	45
#Accumulations=	2
#Range (cm-¹)=	200...3150
#Windows=	2
#Auto scanning=	Off
#Autofocus=	Off
#Macrospot=	Off
#AutoExposure=	Off
#Spike filter=	Multiple accum.
#Delay time (s)=	0
#Binning=	1
#Readout mode=	Signal
#DeNoise=	Off
#ICS correction=	On
#Dark correction=	Off
#Inst. Process=	Off
#Detector Gain=	Best Dynamic Range
#Detector ADC=	20 kHz       
#Detector temperature (°C)=	-69.85
#Instrument=	LabRAM HR Evol
#Detector=	Synapse
#Objective=	x100
#Grating=	600 gr/mm
#ND Filter=	100%
#Laser (nm)=	532 
#Hole=	100.021
#Range=	Auto
#Laser Pol.=	No
#Raman. Pol.=	No
#Laser Pol. (°)=	-0.0007625
#Raman Pol. (°)=	89.9995
#Collection=	Microscope
#StageXY=	Marzhauser
#StageZ=	Marzhauser
#X (µm)=	4745
#Y (µm)=	-7724.3
#Z (µm)=	584.15
#Full time(mm:ss)=	3:18
#Project=	
#Sample=	
#Site=	
#Title=	Thy_30_10_16_2x_45s_532 nm_x100_100%_600 gr_mm
#Remark=	
#Date=	30.06.2022 12:36
#Acquired=	30.06.2022 12:36:25
#Base:Fit=	10.08.2022 09:58:11
#Base:Sub=	10.08.2022 09:58:44
#Filter:Polynom=	16.08.2022 10:22:53
#AxisType[0]=Intens
#AxisUnit[0]=Cnt
#AxisType[1]=Spectr
#AxisUnit[1]=1/cm
200.533	23.7838
202.348	23.4494
204.162	22.6445
205.976	20.6348
207.792	18.7121
209.605	16.9538
211.418	16.0694
213.23	14.5123
215.044	13.4426
216.856	12.5213
218.667	12.2432
220.478	11.3471
222.289	10.9324
224.102	10.8473
225.912	9.93432
227.721	9.17093
229.531	8.46041
231.34	7.06637
233.148	6.80142
234.956	6.39204
236.766	5.59076
238.574	5.17847
240.381	4.18946
242.188	3.96935
243.994	5.04149
245.801	4.80989
247.606	4.03319
249.412	3.78232
251.217	4.02196
253.024	4.2587
254.828	4.9276
256.632	5.35868
258.436	5.72991
260.239	5.96551
262.042	6.14637
263.845	6.70294
265.647	7.27212
267.449	7.0694
269.25	8.70666
271.052	9.17772
272.852	9.85816
274.653	9.53522
276.453	8.77536
278.253	7.84139
280.052	7.11383
281.852	6.77681
283.65	6.58162
285.449	7.2067
287.247	7.84846
289.044	8.68139
290.842	8.24058
292.639	7.99831
294.436	8.43779
296.232	9.48923
298.028	10.1592
299.821	10.0747
301.617	10.7202
303.412	10.0282
305.206	10.8693
307	10.8178
308.794	11.1115
310.588	11.253
312.381	11.2578
314.172	10.7659
315.964	10.7082
317.756	10.8621
319.548	11.084
321.34	11.545
323.131	12.2003
324.921	11.7435
326.71	12.5953
328.5	12.7598
330.29	13.0063
332.079	13.2103
333.868	14.1419
335.654	13.925
337.443	13.7742
339.231	15.135
341.018	15.4594
342.804	15.8316
344.591	15.607
346.377	14.6695
348.163	14.8176
349.947	14.9697
351.733	14.894
353.518	15.3859
355.303	15.4359
357.085	14.9322
358.869	15.8257
360.653	13.9176
362.435	13.7829
364.218	13.2567
366.001	13.5019
367.781	14.1895
369.563	13.9955
371.345	13.9487
373.124	13.4857
374.905	14.3074
376.686	13.5295
378.464	13.4048
380.244	12.1945
382.022	13.2871
383.801	13.1836
385.58	13.1861
387.357	12.3244
389.135	12.1818
390.911	12.5361
392.689	13.2525
394.466	12.9093
396.241	12.5403
398.018	12.6619
399.792	12.5899
401.568	12.4643
403.341	12.5243
405.117	13.7496
406.889	13.0674
408.664	13.342
410.436	13.5654
412.21	12.9763
413.981	13.4161
415.755	13.8946
417.525	12.927
419.298	13.0944
421.068	12.7632
422.84	12.8981
424.609	12.7691
426.38	12.2377
428.149	12.095
429.919	11.7182
431.688	11.3572
433.455	10.2082
435.225	10.5372
436.992	10.3892
438.76	10.0513
440.527	10.6549
442.293	10.6959
444.06	9.58114
445.826	9.38865
447.593	9.23596
449.357	8.02819
451.122	8.09357
452.888	8.8789
454.651	8.80505
456.415	8.53074
458.18	8.2896
459.942	9.18261
461.705	9.20181
463.469	9.7463
465.23	9.42872
466.991	10.724
468.752	10.8207
470.515	11.6358
472.275	11.644
474.035	12.9369
475.797	13.3528
477.556	15.4246
479.315	16.3117
481.073	16.7509
482.834	18.133
484.592	19.3088
486.349	21.1047
488.106	21.6339
489.863	23.5735
491.622	24.2019
493.378	25.8963
495.134	26.4647
496.889	27.9245
498.645	28.5207
500.401	29.3397
502.156	30.1467
503.91	30.2042
505.664	30.1794
507.417	30.1216
509.171	29.807
510.923	30.1986
512.678	30.7996
514.43	30.9512
516.182	30.5787
517.933	31.3353
519.684	31.4352
521.435	30.9184
523.186	30.8449
524.936	30.2322
526.686	29.5375
528.435	28.6186
530.184	26.694
531.933	25.6202
533.682	25.6517
535.43	25.0308
537.18	24.203
538.927	23.1702
540.674	22.4059
542.421	21.0951
544.167	20.7481
545.913	20.0454
547.659	19.0175
549.403	18.0848
551.148	16.8647
552.893	16.5218
554.637	16.0722
556.381	15.7879
558.125	16.0283
559.868	15.8329
561.611	15.4415
563.354	14.34
565.097	14.1565
566.839	13.6985
568.581	13.6064
570.322	12.4728
572.063	10.6403
573.802	10.2838
575.542	8.91409
577.283	9.60552
579.022	8.83163
580.762	8.89982
582.501	8.0105
584.24	8.11347
585.976	7.73056
587.714	7.26051
589.452	5.9414
591.19	5.21994
592.927	4.67326
594.663	4.2272
596.398	4.48116
598.134	3.65998
599.87	3.11914
601.605	3.58893
603.338	3.1924
605.073	3.86498
606.808	3.54219
608.542	3.1978
610.274	3.96684
612.007	4.83416
613.74	3.78579
615.473	4.27865
617.204	4.54983
618.936	5.50458
620.668	6.38052
622.397	7.50798
624.128	7.98932
625.859	8.15195
627.588	9.26071
629.318	10.0313
631.048	10.8203
632.775	11.3106
634.505	12.7558
636.233	13.2086
637.96	13.6754
639.688	14.0864
641.416	14.4456
643.142	15.2244
644.869	15.3871
646.594	15.671
648.32	16.1547
650.045	16.141
651.771	16.505
653.496	16.8254
655.219	16.7782
656.944	16.2788
658.667	16.9653
660.391	17.8092
662.113	17.867
663.837	18.5434
665.558	18.8748
667.281	19.0133
669.002	19.1369
670.724	19.8888
672.444	19.3339
674.166	19.2223
675.885	20.0013
677.606	20.3279
679.325	20.7196
681.045	21.1058
682.763	21.3038
684.483	21.4625
686.2	23.9537
687.917	24.8281
689.636	24.6359
691.352	26.1651
693.07	27.4608
694.786	28.9841
696.501	29.5592
698.219	29.924
699.933	30.0385
701.65	30.7122
703.364	31.1578
705.078	32.5058
706.793	34.0617
708.506	35.1982
710.219	35.1523
711.934	35.4526
713.646	37.033
715.358	38.1441
717.071	39.6139
718.782	40.878
720.493	41.8174
722.204	41.6752
723.916	42.7024
725.626	43.2358
727.336	44.3693
729.045	45.5537
730.756	46.9667
732.464	47.9149
734.173	48.1726
735.881	48.3571
737.59	49.0128
739.297	50.0412
741.004	51.047
742.711	51.2223
744.417	52.3617
746.125	52.9106
747.831	54.1647
749.537	54.9262
751.242	55.8887
752.946	56.4495
754.651	57.8899
756.357	58.9409
758.061	60.0793
759.764	61.4669
761.467	61.4576
763.17	61.0824
764.872	61.7952
766.575	62.8593
768.276	63.2252
769.978	63.2746
771.679	63.546
773.382	63.3
775.083	64.5965
776.783	66.6365
778.483	66.6681
780.182	65.6064
781.882	65.5634
783.581	65.9453
785.279	65.4912
786.978	66.1471
788.676	66.5199
790.373	67.9071
792.071	68.9728
793.768	70.6935
795.464	71.1355
797.161	71.7599
798.857	73.1791
800.552	73.2921
802.248	73.9123
803.941	74.608
805.636	75.3309
807.33	75.836
809.024	76.6186
810.718	77.139
812.412	78.6627
814.105	79.5077
815.798	79.7399
817.49	80.1483
819.183	80.535
820.873	80.5786
822.564	80.6374
824.256	80.8736
825.947	80.7423
827.637	80.3442
829.328	80.4197
831.016	79.883
832.705	80.8255
834.395	80.1632
836.084	81.1323
837.772	80.4059
839.459	80.2416
841.147	79.6895
842.835	79.0665
844.522	77.4876
846.209	75.3139
847.894	74.4271
849.581	73.8599
851.267	72.6732
852.953	71.1759
854.637	69.4699
856.322	69.6307
858.007	68.264
859.689	66.8289
861.374	65.0817
863.058	62.4315
864.739	61.4814
866.423	60.997
868.106	59.9373
869.787	59.2216
871.469	59.1022
873.151	57.5003
874.831	57.2263
876.512	56.8493
878.193	56.9848
879.872	54.5167
881.553	54.3004
883.231	53.622
884.911	53.2994
886.591	53.1604
888.268	52.8449
889.947	51.663
891.623	51.598
893.302	51.0612
894.978	51.1103
896.656	51.1021
898.331	50.2542
900.008	49.4536
901.683	48.8077
903.359	48.507
905.033	48.317
906.709	48.4471
908.383	49.3356
910.058	49.6695
911.731	49.7713
913.405	50.4707
915.078	50.7702
916.752	51.4336
918.423	50.9873
920.096	50.5484
921.768	48.8614
923.438	49.0524
925.111	48.516
926.781	47.4386
928.452	46.6088
930.122	46.3934
931.791	45.8844
933.462	45.299
935.13	45.1576
936.799	45.3662
938.468	44.9252
940.136	44.7506
941.803	42.9774
943.472	42.5371
945.139	42.1961
946.805	41.3218
948.473	42.0975
950.139	42.341
951.804	41.9477
953.471	41.2038
955.136	40.3671
956.801	38.7935
958.465	39.0633
960.131	37.7415
961.794	36.7806
963.458	36.3645
965.12	36.5819
966.785	36.9159
968.447	37.8251
970.109	38.3988
971.771	39.1638
973.432	39.069
975.095	40.2522
976.756	40.8181
978.417	41.9651
980.077	42.8604
981.737	43.3744
983.396	44.1223
985.057	44.4777
986.716	46.2415
988.375	47.0785
990.033	46.9793
991.691	47.5477
993.349	47.7455
995.006	47.7034
996.663	47.7146
998.32	47.6134
999.976	47.3115
1001.63	46.6588
1003.29	45.8475
1004.95	46.1241
1006.6	46.6165
1008.26	46.2495
1009.91	46.0357
1011.56	46.3682
1013.22	46.8024
1014.87	45.9795
1016.53	46.8281
1018.18	47.595
1019.83	46.9458
1021.48	46.4561
1023.14	45.6085
1024.79	45.654
1026.44	45.431
1028.09	45.313
1029.74	44.3747
1031.39	42.9735
1033.04	41.1335
1034.69	38.8814
1036.34	37.2107
1037.99	35.958
1039.64	34.3501
1041.29	34.5125
1042.94	32.6078
1044.58	32.5345
1046.23	32.1454
1047.88	31.4318
1049.52	31.74
1051.17	31.0787
1052.82	31.0235
1054.46	29.5213
1056.11	28.3486
1057.75	28.2581
1059.4	28.1537
1061.04	27.6714
1062.69	27.0488
1064.33	27.146
1065.98	26.8629
1067.62	25.2186
1069.26	25.2593
1070.9	24.3833
1072.55	24.473
1074.19	24.119
1075.83	24.5551
1077.47	23.3688
1079.11	22.6973
1080.76	22.717
1082.4	22.6571
1084.04	22.2811
1085.68	22.1219
1087.32	23.3059
1088.95	23.8864
1090.59	24.225
1092.23	24.5941
1093.87	25.6693
1095.51	26.6411
1097.15	26.2976
1098.78	27.8921
1100.42	28.028
1102.06	28.2566
1103.69	28.1317
1105.33	27.7613
1106.97	27.219
1108.6	25.6933
1110.24	24.3741
1111.87	22.9871
1113.51	22.3931
1115.14	22.9055
1116.77	22.0228
1118.41	20.8709
1120.04	20.0325
1121.67	19.6602
1123.31	19.3182
1124.94	18.1876
1126.57	17.1961
1128.2	16.4816
1129.83	16.6195
1131.47	16.1561
1133.1	15.3634
1134.72	14.1673
1136.36	13.2386
1137.98	12.8868
1139.62	12.1684
1141.24	11.6119
1142.87	11.0423
1144.5	9.94168
1146.13	9.61047
1147.76	7.3389
1149.38	6.42778
1151.01	6.33488
1152.64	6.52245
1154.27	6.50877
1155.89	5.15881
1157.52	4.29527
1159.14	3.59395
1160.77	3.34817
1162.39	3.32191
1164.02	3.13424
1165.64	2.08441
1167.27	2.67645
1168.89	3.43171
1170.51	3.45971
1172.14	3.9479
1173.76	3.38243
1175.38	3.79768
1177	4.44755
1178.63	4.11693
1180.25	5.2021
1181.87	5.09904
1183.49	5.61528
1185.11	5.37154
1186.73	6.31176
1188.35	6.35879
1189.97	8.2009
1191.59	9.91071
1193.21	11.5686
1194.83	12.5321
1196.45	13.7592
1198.07	14.2993
1199.68	15.4162
1201.3	16.7874
1202.92	18.5494
1204.53	19.4928
1206.15	20.229
1207.77	21.3897
1209.38	22.9117
1211	24.768
1212.62	25.885
1214.23	26.933
1215.84	28.617
1217.46	29.9616
1219.07	31.0224
1220.69	32.8551
1222.3	34.8975
1223.91	37.4333
1225.53	39.4072
1227.14	41.8966
1228.75	43.2951
1230.36	45.2026
1231.97	47.8376
1233.59	49.5337
1235.2	50.7453
1236.81	51.529
1238.42	52.4051
1240.03	53.611
1241.64	53.3983
1243.25	54.6397
1244.85	55.5406
1246.46	56.9273
1248.07	58.1763
1249.68	59.5563
1251.29	60.6572
1252.9	61.5776
1254.5	61.7192
1256.11	63.9607
1257.72	65.6368
1259.32	66.1977
1260.93	67.1797
1262.54	67.948
1264.14	69.21
1265.75	69.6377
1267.35	70.8375
1268.96	71.4081
1270.56	72.7609
1272.16	72.7342
1273.77	72.8837
1275.37	72.1143
1276.97	72.351
1278.57	71.7975
1280.18	71.7313
1281.78	71.4826
1283.38	71.9248
1284.98	71.9174
1286.58	72.521
1288.18	73.3658
1289.78	74.522
1291.38	74.664
1292.99	75.0498
1294.58	76.1471
1296.18	77.2361
1297.78	77.7434
1299.38	78.26
1300.98	78.6373
1302.58	79.549
1304.17	80.3004
1305.77	80.1041
1307.37	79.9225
1308.97	80.2569
1310.56	81.1651
1312.16	82.0792
1313.76	80.5967
1315.35	81.1404
1316.95	81.1408
1318.54	80.4956
1320.14	80.7497
1321.73	81.1649
1323.32	81.4646
1324.92	81.4866
1326.51	81.4731
1328.1	80.8942
1329.7	81.0248
1331.29	80.0921
1332.88	79.6974
1334.47	78.8402
1336.07	78.0237
1337.66	76.9043
1339.25	75.5187
1340.84	74.6976
1342.43	73.453
1344.02	71.2242
1345.61	69.6089
1347.2	67.6634
1348.79	65.116
1350.37	63.6589
1351.96	62.1208
1353.55	60.0222
1355.14	57.6911
1356.73	55.9175
1358.31	54.2576
1359.9	52.7825
1361.49	50.4711
1363.07	49.5822
1364.66	48.7672
1366.25	47.4518
1367.83	46.373
1369.42	44.8692
1371	42.9331
1372.59	41.3387
1374.17	40.3186
1375.75	39.218
1377.34	37.8047
1378.92	36.8131
1380.5	36.5245
1382.09	36.438
1383.67	35.5658
1385.25	35.0383
1386.83	35.1092
1388.42	35.0511
1390	33.9777
1391.58	33.9706
1393.16	33.1434
1394.74	33.5181
1396.32	32.325
1397.9	31.3001
1399.48	31.2736
1401.06	30.9401
1402.64	30.3392
1404.21	30.2414
1405.79	30.4521
1407.37	31.5105
1408.95	32.3011
1410.53	33.0773
1412.1	34.4305
1413.68	35.2745
1415.26	37.518
1416.83	39.4842
1418.41	41.0188
1419.98	43.0941
1421.56	44.8644
1423.13	46.8087
1424.71	49.7891
1426.28	51.7061
1427.86	55.0867
1429.43	59.2426
1431	62.2389
1432.58	65.1001
1434.15	68.5983
1435.72	71.1772
1437.29	74.6118
1438.87	77.1579
1440.44	79.1558
1442.01	81.5394
1443.58	83.0812
1445.15	84.1438
1446.72	85.3175
1448.29	86.2901
1449.86	86.8949
1451.43	87.0881
1453	87.9037
1454.57	87.679
1456.14	86.2248
1457.71	85.6691
1459.27	82.7512
1460.84	79.9972
1462.41	77.2031
1463.98	74.1513
1465.54	71.3636
1467.11	67.8952
1468.67	64.4178
1470.24	61.3382
1471.81	56.7448
1473.37	52.9726
1474.94	49.2244
1476.5	45.186
1478.07	41.1361
1479.63	37.5244
1481.19	33.968
1482.76	30.7562
1484.32	28.1777
1485.88	25.7378
1487.45	22.1972
1489.01	19.4746
1490.57	18.0902
1492.13	15.4852
1493.69	13.9677
1495.26	12.2279
1496.82	10.6598
1498.38	9.31977
1499.94	7.58057
1501.5	6.52874
1503.06	6.05378
1504.62	5.81754
1506.17	6.85031
1507.73	7.49479
1509.29	7.06044
1510.85	7.83103
1512.41	8.69633
1513.97	9.60042
1515.52	10.078
1517.08	10.1106
1518.64	10.5259
1520.19	10.7846
1521.75	12.2415
1523.31	12.6732
1524.86	13.5255
1526.42	14.2468
1527.97	13.975
1529.52	14.1871
1531.08	14.7192
1532.63	15.066
1534.19	15.7052
1535.74	16.2303
1537.29	16.6864
1538.85	17.96
1540.4	19.6948
1541.95	21.1708
1543.5	23.1703
1545.06	24.647
1546.61	26.9115
1548.16	28.5531
1549.71	30.3405
1551.26	32.5057
1552.81	34.2208
1554.36	35.8714
1555.91	37.9985
1557.46	39.5876
1559.01	41.0807
1560.56	42.8191
1562.11	44.5773
1563.65	46.8909
1565.2	48.4513
1566.75	50.1958
1568.29	50.8023
1569.84	51.6162
1571.39	53.2105
1572.94	54.956
1574.48	55.163
1576.03	55.9599
1577.57	57.1599
1579.12	59.4079
1580.66	61.2662
1582.21	62.509
1583.75	64.8983
1585.3	65.9483
1586.84	66.3111
1588.38	67.5325
1589.93	68.7621
1591.47	69.2058
1593.01	68.6665
1594.55	68.9324
1596.1	69.8221
1597.64	69.4515
1599.18	70.1119
1600.72	68.7622
1602.26	69.2434
1603.8	68.9253
1605.34	68.8609
1606.88	69.0157
1608.42	69.8182
1609.96	70.0425
1611.5	70.9137
1613.04	70.9869
1614.58	71.9196
1616.12	72.677
1617.65	73.9918
1619.19	75.2478
1620.73	76.8239
1622.27	78.2719
1623.8	80.5617
1625.34	81.9062
1626.87	83.8748
1628.41	85.6477
1629.95	87.1122
1631.48	89.1568
1633.02	91.3439
1634.55	93.1432
1636.09	95.8456
1637.62	99.1985
1639.15	100.988
1640.69	103.444
1642.22	105.978
1643.76	108.291
1645.29	110.12
1646.82	112.889
1648.35	113.985
1649.88	116.288
1651.42	117.557
1652.95	119.199
1654.48	121.139
1656.01	122.465
1657.54	123.163
1659.07	122.74
1660.6	122.797
1662.13	121.788
1663.66	121.428
1665.19	120.643
1666.72	119.098
1668.24	116.158
1669.77	114.47
1671.3	112.174
1672.83	109.326
1674.35	105.406
1675.88	101.668
1677.41	97.9859
1678.93	94.4442
1680.46	89.8602
1681.99	85.8023
1683.51	81.6288
1685.04	77.1858
1686.56	72.5397
1688.09	68.3344
1689.61	63.9826
1691.13	59.4064
1692.66	54.4107
1694.18	50.0027
1695.71	45.8601
1697.23	42.1859
1698.75	38.4489
1700.27	34.6685
1701.8	30.7595
1703.32	27.9738
1704.84	25.2903
1706.36	22.6488
1707.88	20.2976
1709.4	18.0408
1710.92	15.5386
1712.44	13.8729
1713.96	12.1532
1715.48	9.91554
1717	8.98085
1718.52	8.04225
1720.04	6.77703
1721.56	5.49123
1723.07	5.36348
1724.59	5.04374
1726.11	5.24899
1727.63	4.49079
1729.14	4.35876
1730.66	4.51106
1732.18	4.57831
1733.69	4.32304
1735.21	3.6638
1736.72	4.06189
1738.24	4.21269
1739.75	4.14485
1741.27	3.43888
1742.78	2.90615
1744.3	2.79958
1745.81	3.32148
1747.32	2.37725
1748.84	2.56742
1750.35	2.41538
1751.86	2.17527
1753.37	2.59479
1754.89	1.84562
1756.4	1.64476
1757.91	1.524
1759.42	0.906218
1760.93	0.385192
1762.44	0.246919
1763.95	-0.0779127
1765.46	-0.756538
1766.97	-1.35071
1768.48	-1.72585
1769.99	-1.37355
1771.5	-1.88246
1773.01	-1.6993
1774.52	-2.18821
1776.03	-1.87676
1777.53	-1.63545
1779.04	-1.52982
1780.55	-1.79885
1782.06	-2.19546
1783.56	-2.41511
1785.07	-2.10144
1786.57	-1.20466
1788.08	-0.86261
1789.59	-0.726267
1791.09	-0.568569
1792.6	-0.322219
1794.1	0.173603
1795.6	0.325207
1797.11	0.314688
1798.61	0.142909
1800.12	0.0629073
1801.62	0.342104
1803.12	0.58867
1804.63	1.17007
1806.13	1.57128
1807.63	2.00108
1809.13	1.89116
1810.63	2.33961
1812.14	2.87944
1813.64	2.80419
1815.14	2.82266
1816.64	2.74799
1818.14	2.89668
1819.64	3.34967
1821.14	4.11175
1822.64	4.25592
1824.14	4.76056
1825.63	4.44982
1827.13	4.59992
1828.63	4.70595
1830.13	4.69817
1831.63	4.12506
1833.12	4.78447
1834.62	4.77722
1836.12	4.79829
1837.62	5.16622
1839.11	5.83559
1840.61	6.03248
1842.1	6.47818
1843.6	6.72476
1845.09	6.41713
1846.59	6.23857
1848.08	6.65227
1849.58	6.60778
1851.07	6.94118
1852.57	6.8027
1854.06	6.99275
1855.55	7.48818
1857.04	7.19468
1858.54	7.65582
1860.03	8.08162
1861.52	8.57121
1863.01	8.2036
1864.5	8.17017
1866	7.98233
1867.49	8.36763
1868.98	8.82309
1870.47	9.62646
1871.96	10.3882
1873.45	10.8676
1874.94	12.0436
1876.43	12.7889
1877.92	13.4852
1879.41	14.16
1880.89	14.8519
1882.38	14.6205
1882.48	14.7602
1883.97	14.6117
1885.47	14.9562
1886.96	15.0844
1888.46	15.451
1889.95	15.7764
1891.44	16.0528
1892.94	16.2332
1894.43	16.3622
1895.92	15.949
1897.41	15.9451
1898.9	15.4644
1900.4	15.6447
1901.89	15.7456
1903.38	15.5754
1904.87	15.6995
1906.36	16.2171
1907.85	15.8614
1909.34	16.2129
1910.83	16.528
1912.32	15.5773
1913.81	15.0198
1915.29	14.6506
1916.78	14.045
1918.27	12.9438
1919.76	12.962
1921.25	12.858
1922.74	12.6641
1924.22	12.7944
1925.71	11.79
1927.2	11.7801
1928.68	12.0239
1930.17	12.1694
1931.65	12.7626
1933.14	12.2859
1934.63	13.446
1936.11	13.7774
1937.59	13.5635
1939.08	13.8423
1940.56	14.473
1942.05	14.7704
1943.53	15.6028
1945.01	15.621
1946.5	16.4831
1947.98	16.9814
1949.46	17.1921
1950.94	16.8403
1952.43	16.3566
1953.91	15.9943
1955.39	15.6382
1956.87	16.4852
1958.35	16.8911
1959.83	17.6128
1961.31	17.2593
1962.79	17.0196
1964.27	17.161
1965.75	17.0477
1967.23	17.6134
1968.71	17.8967
1970.19	17.2753
1971.67	17.1421
1973.14	18.0122
1974.62	18.2361
1976.1	18.2799
1977.58	18.1417
1979.05	18.0047
1980.53	17.4112
1982.01	17.4286
1983.48	16.6712
1984.96	16.24
1986.43	16.1807
1987.91	16.6259
1989.38	16.5855
1990.86	17.5146
1992.33	17.9075
1993.81	18.5223
1995.28	18.5902
1996.76	19.1563
1998.23	19.3174
1999.7	19.676
2001.18	21.2228
2002.65	21.2853
2004.12	21.9038
2005.59	21.9478
2007.06	21.6039
2008.54	22.2524
2010.01	22.3947
2011.48	22.4312
2012.95	23.2453
2014.42	23.6416
2015.89	24.1565
2017.36	25.3991
2018.83	25.4078
2020.3	25.7408
2021.77	25.3138
2023.24	25.7683
2024.71	25.8531
2026.17	26.2053
2027.64	27.282
2029.11	27.4175
2030.58	28.2444
2032.04	28.5917
2033.51	28.4894
2034.98	28.4107
2036.45	28.8449
2037.91	28.9081
2039.38	29.5326
2040.84	29.3727
2042.31	28.5429
2043.77	28.4952
2045.24	28.4983
2046.7	29.3454
2048.17	28.2147
2049.63	27.9563
2051.1	27.7241
2052.56	27.2752
2054.02	28.1625
2055.48	28.2001
2056.95	28.5018
2058.41	29.6428
2059.87	30.82
2061.33	31.2752
2062.8	31.372
2064.26	32.4069
2065.72	32.43
2067.18	32.9527
2068.64	33.033
2070.1	33.6162
2071.56	34.013
2073.02	34.495
2074.48	34.6743
2075.94	35.1187
2077.4	36.3254
2078.86	36.7589
2080.31	37.6675
2081.77	38.9962
2083.23	39.9075
2084.69	40.3871
2086.14	40.8116
2087.6	41.2232
2089.06	42.3085
2090.52	43.4396
2091.97	43.586
2093.43	44.5258
2094.88	44.6751
2096.34	46.0468
2097.79	46.3742
2099.25	46.9405
2100.7	46.9812
2102.16	47.0867
2103.61	48.7498
2105.07	48.7663
2106.52	49.8449
2107.97	50.2979
2109.43	51.5314
2110.88	51.9371
2112.33	53.3041
2113.78	53.2764
2115.24	54.7952
2116.69	56.6811
2118.14	57.66
2119.59	59.5646
2121.04	60.412
2122.49	61.506
2123.94	63.3239
2125.39	65.452
2126.84	67.9965
2128.29	69.1927
2129.74	71.7475
2131.19	73.8511
2132.64	75.7347
2134.09	77.6729
2135.54	79.9327
2136.98	82.6625
2138.43	85.0525
2139.88	87.489
2141.33	89.1101
2142.77	91.812
2144.22	93.861
2145.67	96.549
2147.11	98.7955
2148.56	102
2150.01	103.8
2151.45	106.284
2152.9	108.209
2154.34	109.728
2155.79	111.589
2157.23	113.632
2158.67	114.6
2160.12	116.732
2161.56	118.179
2163	118.503
2164.45	119.229
2165.89	119.811
2167.33	120.025
2168.78	121.022
2170.22	121.045
2171.66	121.313
2173.1	120.925
2174.54	121.133
2175.98	120.606
2177.42	119.566
2178.86	119.693
2180.3	118.686
2181.74	118.203
2183.18	116.93
2184.62	116.45
2186.06	115.336
2187.5	114.452
2188.94	113.244
2190.38	111.406
2191.82	110.421
2193.25	108.454
2194.69	107.102
2196.13	106.167
2197.57	104.809
2199	102.577
2200.44	100.208
2201.88	98.3455
2203.31	96.5007
2204.75	94.5808
2206.18	93.032
2207.62	91.5747
2209.05	89.8144
2210.49	87.7189
2211.92	85.7941
2213.36	83.0992
2214.79	81.8761
2216.22	79.7419
2217.66	78.425
2219.09	76.5203
2220.52	75.3308
2221.96	73.2542
2223.39	72.2193
2224.82	70.1067
2226.25	68.2049
2227.68	66.7076
2229.11	65.0373
2230.55	63.2574
2231.98	61.9868
2233.41	59.6322
2234.84	57.7216
2236.27	56.9232
2237.7	55.2475
2239.12	54.1933
2240.55	53.165
2241.98	52.1507
2243.41	50.8955
2244.84	50.0245
2246.27	48.9114
2247.7	48.2491
2249.12	48.3674
2250.55	48.6445
2251.98	48.1007
2253.41	47.7581
2254.83	47.3723
2256.26	46.5039
2257.68	45.8013
2259.11	45.5377
2260.54	45.0074
2261.96	44.8115
2263.39	45.2516
2264.81	44.6113
2266.24	44.2431
2267.66	42.8536
2269.08	41.7315
2270.51	40.7561
2271.93	40.4227
2273.35	40.4974
2274.78	40.3832
2276.2	39.8468
2277.62	39.4608
2279.04	38.9995
2280.47	39.0109
2281.89	37.9957
2283.31	38.0536
2284.73	36.6233
2286.15	36.0012
2287.57	35.1764
2288.99	34.368
2290.41	32.9969
2291.83	31.5509
2293.25	30.5271
2294.67	29.388
2296.09	28.5042
2297.51	27.7143
2298.93	27.6112
2300.35	27.1052
2301.76	26.5813
2303.18	25.8056
2304.6	25.237
2306.02	24.8678
2307.44	24.8236
2308.85	24.2855
2310.27	24.4788
2311.69	24.5295
2313.1	24.2442
2314.52	23.6984
2315.93	23.5104
2317.35	22.9237
2318.76	22.944
2320.18	22.4764
2321.59	21.9473
2323.01	20.8769
2324.42	20.3624
2325.83	19.9127
2327.25	19.7928
2328.66	19.8407
2330.07	19.8215
2331.49	19.9169
2332.9	19.9501
2334.31	19.8625
2335.72	18.9097
2337.13	18.5548
2338.55	18.2679
2339.96	18.2708
2341.37	17.8395
2342.78	17.9774
2344.19	17.8677
2345.6	17.9363
2347.01	18.1306
2348.42	18.269
2349.83	18.2742
2351.24	18.2344
2352.65	17.34
2354.05	16.9445
2355.46	16.1662
2356.87	16.1584
2358.28	16.2009
2359.69	15.8756
2361.09	15.445
2362.5	15.0139
2363.91	15.6293
2365.31	15.8166
2366.72	16.421
2368.13	17.0142
2369.53	16.6792
2370.94	16.5717
2372.34	16.8556
2373.75	16.2464
2375.15	16.0573
2376.56	15.8032
2377.96	15.5554
2379.37	15.8188
2380.77	16.2022
2382.17	16.2329
2383.58	16.1054
2384.98	15.5534
2386.38	14.8928
2387.79	14.8076
2389.19	14.2652
2390.59	13.7502
2391.99	13.7757
2393.39	13.0894
2394.8	12.9804
2396.2	12.9883
2397.6	12.6199
2399	12.0304
2400.4	11.9779
2401.8	12.1047
2403.2	12.0542
2404.6	11.6803
2406	11.4639
2407.4	11.1857
2408.79	10.4724
2410.19	9.94506
2411.59	10.1206
2412.99	10.0635
2414.39	10.3023
2415.78	10.4775
2417.18	9.97929
2418.58	9.59147
2419.98	8.73999
2421.37	8.9996
2422.77	9.05812
2424.16	8.86778
2425.56	8.55648
2426.96	8.54151
2428.35	8.07605
2429.74	8.37296
2431.14	8.79109
2432.53	9.05639
2433.93	9.92346
2435.32	10.0237
2436.72	10.0435
2438.11	10.1342
2439.5	9.66144
2440.9	10.0392
2442.29	10.0804
2443.68	9.61226
2445.07	9.98468
2446.47	10.1398
2447.86	10.4717
2449.25	10.8232
2450.64	10.4361
2452.03	9.73169
2453.42	8.92278
2454.81	8.61592
2456.2	8.54941
2457.59	8.93795
2458.98	8.47948
2460.37	7.97719
2461.76	7.68556
2463.15	6.90128
2464.54	7.37071
2465.93	7.33143
2467.32	7.06816
2468.7	7.30201
2470.09	7.10748
2471.48	7.06613
2472.87	7.02177
2474.25	6.83933
2475.64	7.10045
2477.03	7.04198
2478.41	7.29453
2479.8	7.51485
2481.18	7.36245
2482.57	7.15691
2483.95	7.4428
2485.34	7.66378
2486.72	7.18707
2488.11	7.79771
2489.49	7.9322
2490.88	8.51988
2492.26	8.62522
2493.65	9.13076
2495.03	9.16054
2496.41	9.53239
2497.79	9.89802
2499.18	10.1811
2500.56	10.6759
2501.94	10.2539
2503.32	9.96223
2504.7	9.41376
2506.09	9.31561
2507.47	8.9002
2508.85	8.88391
2510.23	8.3862
2511.61	7.94756
2512.99	7.70526
2514.37	7.45456
2515.75	6.97045
2517.13	6.30099
2518.51	5.64241
2519.89	5.10203
2521.26	4.91208
2522.64	4.92896
2524.02	5.22518
2525.4	4.86048
2526.78	4.66955
2528.15	4.05261
2529.53	3.97435
2530.91	4.1082
2532.28	4.0122
2533.66	4.8955
2535.04	4.48635
2536.41	4.39952
2537.79	4.47606
2539.16	4.43267
2540.54	5.11025
2541.91	5.40954
2543.29	5.72429
2544.66	5.43557
2546.04	5.40139
2547.41	5.62971
2548.78	5.49387
2550.16	5.61094
2551.53	5.52405
2552.9	5.50397
2554.27	5.71946
2555.65	4.81991
2557.02	5.33857
2558.39	5.09518
2559.76	5.7036
2561.13	5.95907
2562.51	5.77846
2563.88	5.5423
2565.25	5.60238
2566.62	5.61654
2567.99	5.3608
2569.36	5.42528
2570.73	4.61039
2572.1	4.3846
2573.47	4.26879
2574.84	4.51747
2576.2	4.05958
2577.57	4.62565
2578.94	4.16997
2580.31	4.53808
2581.68	5.13457
2583.05	5.20559
2584.41	5.20002
2585.78	5.04862
2587.15	5.16045
2588.51	5.47183
2589.88	5.45516
2591.24	5.24632
2592.61	5.15315
2593.98	5.42602
2595.34	4.63423
2596.71	4.22719
2598.07	4.30305
2599.44	3.59944
2600.8	3.19144
2602.16	2.74238
2603.53	1.88273
2604.89	2.11119
2606.26	1.50016
2607.62	1.48863
2608.98	1.21949
2610.34	1.06273
2611.71	0.629493
2613.07	0.60458
2614.43	0.504226
2615.79	0.396977
2617.15	-0.0316234
2618.52	-0.223548
2619.88	-0.749582
2621.24	-0.752242
2622.6	-1.37757
2623.96	-1.11382
2625.32	-0.392821
2626.68	-0.475136
2628.04	-0.508879
2629.4	-0.705551
2630.75	-0.877843
2632.11	-0.79375
2633.47	-0.865502
2634.83	-1.49941
2636.19	-1.71562
2637.55	-2.13428
2638.9	-1.62104
2640.26	-1.10444
2641.62	-0.548773
2642.98	-0.229344
2644.33	0.506496
2645.69	1.3351
2647.04	1.36047
2648.4	1.64445
2649.76	1.73271
2651.11	1.66066
2652.47	1.22039
2653.82	1.02201
2655.18	0.927832
2656.53	1.14529
2657.88	0.564923
2659.24	0.585877
2660.59	0.502306
2661.95	0.2019
2663.3	-0.937746
2664.65	-0.674502
2666	-0.582525
2667.36	-1.03783
2668.71	-1.51338
2670.06	-1.17555
2671.41	-0.88088
2672.76	-0.46981
2674.12	-0.703605
2675.47	-0.528618
2676.82	-0.449422
2678.17	-0.35524
2679.52	-1.19912
2680.87	-0.91532
2682.22	-1.13779
2683.57	-1.17811
2684.92	-0.837914
2686.27	-0.713811
2687.62	-0.808512
2688.97	-0.752375
2690.31	-0.661889
2691.66	0.0286502
2693.01	0.288684
2694.36	-0.0770061
2695.71	-0.183183
2697.05	-0.0362189
2698.4	-0.118548
2699.75	-0.329664
2701.09	-0.363251
2702.44	-0.223192
2703.78	-0.0672668
2705.13	0.617806
2706.48	1.45631
2707.82	1.84223
2709.17	2.24185
2710.51	2.73128
2711.86	3.11816
2713.2	3.05985
2714.54	2.95083
2715.89	3.41954
2717.23	3.70722
2718.57	4.03416
2719.92	4.50704
2721.26	4.75607
2722.6	4.6933
2723.95	4.79758
2725.29	4.48036
2726.63	4.88656
2727.97	4.97458
2729.31	4.66975
2730.65	4.43059
2732	4.6672
2733.34	4.64809
2734.68	4.55917
2736.02	4.80382
2737.36	5.34297
2738.7	4.91294
2740.04	4.88399
2741.38	4.6251
2742.72	4.59106
2744.05	4.48993
2745.39	4.43038
2746.73	4.20506
2748.07	4.96332
2749.41	4.62871
2750.75	4.59472
2752.08	4.51386
2753.42	4.28584
2754.76	3.79604
2756.09	3.43044
2757.43	3.40527
2758.77	2.95859
2760.1	2.99338
2761.44	2.66112
2762.78	2.29505
2764.11	2.40016
2765.44	2.18632
2766.78	1.69908
2768.11	2.16968
2769.45	1.96978
2770.78	1.60271
2772.12	2.37464
2773.45	1.9005
2774.78	2.01169
2776.12	2.05289
2777.45	2.28949
2778.78	1.88945
2780.12	1.78007
2781.45	1.84451
2782.78	2.04085
2784.11	1.61402
2785.44	1.84647
2786.78	1.96789
2788.11	1.34161
2789.44	1.25089
2790.77	1.41724
2792.1	2.08756
2793.43	2.42859
2794.76	2.0254
2796.09	1.15945
2797.42	0.973416
2798.75	1.34695
2800.08	1.7841
2801.4	1.93138
2802.73	1.79608
2804.06	1.73587
2805.39	1.74135
2806.72	1.77054
2808.05	1.5347
2809.37	1.22002
2810.7	0.512949
2812.03	0.973742
2813.35	0.974275
2814.68	0.569294
2816.01	0.682457
2817.33	1.27546
2818.66	2.05515
2819.98	3.02888
2821.31	4.59439
2822.63	5.8842
2823.96	7.7944
2825.28	9.95856
2826.61	12.6809
2827.93	15.2877
2829.25	18.0622
2830.58	21.2264
2831.9	23.8271
2833.23	27.3347
2834.55	30.4713
2835.87	33.6599
2837.19	37.5368
2838.52	41.7297
2839.84	45.6893
2841.16	50.9296
2842.48	55.6479
2843.8	60.022
2845.12	64.163
2846.44	69.5135
2847.77	75.3081
2849.08	80.5383
2850.4	86.2565
2851.73	92.7458
2853.05	98.752
2854.36	104.812
2855.68	111.418
2857	117.888
2858.32	123.503
2859.64	128.439
2860.96	133.676
2862.28	139.588
2863.59	145.173
2864.91	150.002
2866.23	154.185
2867.55	158.391
2868.86	162.588
2870.18	165.793
2871.5	169.207
2872.81	171.775
2874.13	174.412
2875.44	177.335
2876.76	180.135
2878.07	183.413
2879.39	185.452
2880.7	187.807
2882.02	191.434
2883.33	193.226
2884.65	195.756
2885.96	197.998
2887.28	200.867
2888.59	203.369
2889.9	205.511
2891.21	208.596
2892.53	211.456
2893.84	214.57
2895.15	217.115
2896.46	220.491
2897.78	223.493
2899.09	227.83
2900.4	232.161
2901.71	236.57
2903.02	241.871
2904.33	248.035
2905.64	254.041
2906.95	260.025
2908.26	266.726
2909.57	273.876
2910.88	281.366
2912.19	289.86
2913.5	297.938
2914.81	306.1
2916.12	315.033
2917.43	323.306
2918.73	329.829
2920.04	336.505
2921.35	342.957
2922.66	348.241
2923.96	352.806
2925.27	357.772
2926.58	361.375
2927.88	364.434
2929.19	365.781
2930.5	367.113
2931.8	368.198
2933.11	368.673
2934.41	367.718
2935.72	366.019
2937.02	364.831
2938.33	361.667
2939.63	359.009
2940.94	355.434
2942.24	350.433
2943.54	345.625
2944.85	339.975
2946.15	334.175
2947.45	327.644
2948.76	319.978
2950.06	313.326
2951.36	306.062
2952.66	299.163
2953.97	291.463
2955.27	283.648
2956.57	277.367
2957.87	269.893
2959.17	262.327
2960.47	255.086
2961.77	248.305
2963.07	241.02
2964.37	234.724
2965.67	228.087
2966.97	220.88
2968.27	215.336
2969.57	209.723
2970.87	204.5
2972.17	199.576
2973.47	194.551
2974.77	188.938
2976.07	183.943
2977.36	179.24
2978.66	173.821
2979.96	169.132
2981.26	163.759
2982.55	157.712
2983.85	151.51
2985.15	146.476
2986.44	141.021
2987.74	134.957
2989.03	128.881
2990.33	123.567
2991.63	117.728
2992.92	112.31
2994.21	107.144
2995.51	102.624
2996.8	97.4898
2998.1	92.8551
2999.39	87.9034
3000.69	83.2189
3001.98	79.0514
3003.27	74.0236
3004.57	69.7019
3005.86	65.3403
3007.15	61.4537
3008.44	58.2181
3009.74	55.076
3011.03	51.6601
3012.32	48.455
3013.61	46.3037
3014.9	43.7503
3016.19	41.8206
3017.48	40.0159
3018.78	37.5383
3020.07	36.0316
3021.36	34.5168
3022.65	32.8586
3023.94	31.1965
3025.23	30.4144
3026.51	29.4161
3027.8	28.5075
3029.09	28.0506
3030.38	27.4983
3031.67	27.0752
3032.96	27.6953
3034.24	27.9504
3035.53	28.4403
3036.82	28.2515
3038.11	28.674
3039.39	29.3018
3040.68	30.1321
3041.97	30.3921
3043.25	30.882
3044.54	31.5688
3045.83	31.9432
3047.11	32.3896
3048.4	32.8736
3049.68	33.0501
3050.97	33.1005
3052.25	32.9275
3053.54	33.0304
3054.82	33.2918
3056.11	33.0153
3057.39	33.0103
3058.67	33.4155
3059.96	32.8937
3061.24	31.9817
3062.52	31.6541
3063.81	30.8556
3065.09	30.2424
3066.37	29.4974
3067.65	28.4126
3068.94	27.3561
3070.22	26.3689
3071.5	25.2516
3072.78	24.0659
3074.06	22.6387
3075.34	21.2398
3076.62	19.9642
3077.9	19.3362
3079.18	17.4476
3080.46	16.6386
3081.74	15.0112
3083.02	13.8921
3084.3	13.3737
3085.58	12.0777
3086.86	10.828
3088.14	9.87217
3089.42	9.28033
3090.69	8.24069
3091.97	7.44426
3093.25	6.83378
3094.53	5.93326
3095.8	4.96281
3097.08	4.3791
3098.36	3.93039
3099.63	3.79124
3100.91	3.41367
3102.19	3.80893
3103.46	3.38829
3104.74	3.12332
3106.01	2.98622
3107.29	2.98345
3108.56	3.20514
3109.84	3.20116
3111.11	2.84334
3112.39	2.16372
3113.66	1.64067
3114.94	1.38911
3116.21	1.58193
3117.48	1.76616
3118.76	1.67679
3120.03	1.82498
3121.3	1.97741
3122.57	1.81722
3123.85	1.35114
3125.12	1.38539
3126.39	1.64748
3127.66	1.45876
3128.93	1.08511
3130.21	0.809993
3131.48	0.963397
3132.75	0.600228
3134.02	0.853529
3135.29	1.09319
3136.56	1.21595
3137.83	1.20327
3139.1	1.65185
3140.37	1.5366
3141.64	1.58435
3142.91	1.08267
3144.17	0.578047
3145.44	-0.053214
3146.71	-1.16323
3147.98	-2.17441
3149.25	-2.52087
