#Acq. time (s)=	45
#Accumulations=	2
#Range (cm-¹)=	200...3150
#Windows=	2
#Auto scanning=	Off
#Autofocus=	Off
#Macrospot=	Off
#AutoExposure=	Off
#Spike filter=	Multiple accum.
#Delay time (s)=	0
#Binning=	1
#Readout mode=	Signal
#DeNoise=	Off
#ICS correction=	On
#Dark correction=	Off
#Inst. Process=	Off
#Detector Gain=	Best Dynamic Range
#Detector ADC=	20 kHz       
#Detector temperature (°C)=	-69.85
#Instrument=	LabRAM HR Evol
#Detector=	Synapse
#Objective=	x100
#Grating=	600 gr/mm
#ND Filter=	100%
#Laser (nm)=	532 
#Hole=	100.021
#Range=	Auto
#Laser Pol.=	No
#Raman. Pol.=	No
#Laser Pol. (°)=	-0.0007625
#Raman Pol. (°)=	89.9995
#Collection=	Microscope
#StageXY=	Marzhauser
#StageZ=	Marzhauser
#X (µm)=	-2358.7
#Y (µm)=	263.2
#Z (µm)=	521.55
#Full time(mm:ss)=	3:19
#Project=	
#Sample=	
#Site=	
#Title=	Thy_10_08_50_2x_45s_532 nm_x100_100%_600 gr_mm
#Remark=	
#Date=	06.07.2022 15:27
#Acquired=	06.07.2022 15:27:07
#Base:Fit=	10.08.2022 09:46:25
#Base:Sub=	10.08.2022 09:46:49
#Filter:Polynom=	16.08.2022 10:24:56
#AxisType[0]=Intens
#AxisUnit[0]=Cnt
#AxisType[1]=Spectr
#AxisUnit[1]=1/cm
200.398	2.63065
202.213	6.4056
204.027	9.36916
205.843	11.0883
207.657	12.6973
209.47	13.6717
211.283	14.4181
213.097	14.1531
214.909	13.7204
216.721	14.4375
218.533	14.2545
220.344	14.7466
222.157	13.8461
223.967	14.2276
225.777	14.095
227.587	14.7961
229.396	14.8745
231.205	15.5367
233.016	15.9807
234.824	15.8517
236.632	14.9302
238.439	15.3225
240.247	14.2144
242.053	14.8593
243.86	15.1648
245.666	15.4446
247.474	15.3312
249.279	15.1257
251.085	14.6587
252.889	14.2676
254.694	13.7154
256.498	13.9915
258.301	13.9022
260.105	14.1475
261.908	14.4883
263.71	14.7039
265.513	14.5316
267.315	14.644
269.116	13.5295
270.918	12.359
272.718	12.5524
274.519	12.362
276.319	12.522
278.119	13.2107
279.918	13.5569
281.718	14.1576
283.516	14.2809
285.315	13.4705
287.113	14.3781
288.911	14.831
290.708	14.4794
292.505	14.6197
294.302	14.6609
296.098	14.8993
297.894	14.1251
299.69	14.4652
301.485	14.3916
303.278	13.903
305.073	14.9296
306.867	15.9754
308.661	15.8459
310.454	16.352
312.247	16.6999
314.04	18.2872
315.833	18.7058
317.623	19.2709
319.415	19.1455
321.206	18.6904
322.997	18.4434
324.788	18.1802
326.579	18.5647
328.367	19.4976
330.156	18.4919
331.946	20.3108
333.735	20.3659
335.523	19.8054
337.31	19.6815
339.098	19.3472
340.885	18.9799
342.673	18.2927
344.458	17.6699
346.244	17.008
348.03	16.8589
349.816	16.4253
351.6	16.0071
353.385	15.4056
355.17	15.1724
356.953	15.2521
358.737	13.3662
360.521	13.185
362.304	13.8142
364.085	14.4635
365.868	14.5256
367.65	13.6703
369.431	12.2606
371.212	12.3868
372.994	11.4551
374.773	10.9577
376.554	11.3256
378.332	11.2771
380.112	12.0564
381.892	11.3344
383.669	10.9582
385.448	10.3826
387.225	10.6704
389.003	11.19
390.781	10.4169
392.557	10.6953
394.334	10.7745
396.109	10.0057
397.885	9.88659
399.66	9.87267
401.436	10.4219
403.211	10.1414
404.984	8.87429
406.759	8.5918
408.532	7.97518
410.306	7.6477
412.078	7.80824
413.851	7.68895
415.623	7.54948
417.395	6.80315
419.166	5.93801
420.938	6.93558
422.708	5.53899
424.477	4.24106
426.248	4.31301
428.017	3.8058
429.788	2.71134
431.556	1.62772
433.326	1.30241
435.093	1.45058
436.86	1.77851
438.629	1.56675
440.395	2.0049
442.163	1.89459
443.929	1.50142
445.694	1.76246
447.461	1.52566
449.226	2.35217
450.99	3.11714
452.756	3.58665
454.52	2.72702
456.285	3.42251
458.048	3.64877
459.811	4.43068
461.573	4.30525
463.337	5.38765
465.099	7.27705
466.86	8.02071
468.623	8.00981
470.384	7.88476
472.144	8.02531
473.906	8.76391
475.666	9.53577
477.425	9.71569
479.184	9.55795
480.944	10.498
482.703	10.5294
484.461	11.2483
486.218	12.6887
487.975	13.176
489.734	13.5979
491.491	13.9963
493.247	14.609
495.003	16.729
496.759	16.9943
498.516	17.7972
500.271	17.9847
502.025	18.065
503.779	18.4314
505.533	18.9804
507.287	19.8403
509.042	20.2165
510.795	19.274
512.547	19.8589
514.299	20.5156
516.051	20.6679
517.803	20.4775
519.554	20.6516
521.305	20.8513
523.055	21.791
524.805	21.5471
526.555	21.4634
528.307	21.4995
530.056	20.0702
531.805	19.0247
533.553	19.2875
535.301	18.7533
537.049	19.025
538.797	18.5852
540.544	17.8717
542.291	16.2229
544.037	15.7203
545.783	14.4916
547.529	14.4988
549.275	13.1854
551.02	12.0843
552.765	11.5713
554.509	9.36452
556.253	7.78429
557.997	7.30998
559.738	7.13627
561.482	6.30659
563.224	5.20335
564.967	4.63858
566.709	3.98005
568.451	3.33412
570.192	2.9557
571.933	2.02944
573.674	1.25273
575.415	0.614845
577.153	-0.439439
578.893	-0.25981
580.632	0.607711
582.371	0.962222
584.11	0.19882
585.849	0.371787
587.587	0.324032
589.323	0.0929161
591.06	1.00499
592.797	1.6833
594.534	1.69447
596.271	0.963931
598.005	1.25984
599.741	2.5861
601.476	3.40719
603.211	3.54639
604.944	3.69276
606.679	4.30624
608.413	5.14743
610.147	6.95651
611.878	7.45782
613.611	7.3681
615.344	8.50378
617.077	9.15851
618.807	10.3833
620.539	12.7221
622.27	13.9254
623.999	15.3916
625.73	15.219
627.461	16.2601
629.189	17.8938
630.919	19.5788
632.648	20.0308
634.376	20.0256
636.105	19.3085
637.833	20.4145
639.559	21.7459
641.287	21.8176
643.013	22.2709
644.74	23.8049
646.467	24.971
648.192	25.1832
649.918	26.2588
651.642	25.8253
653.368	25.695
655.091	26.1496
656.816	26.4891
658.538	26.12
660.263	27.4342
661.987	27.692
663.708	28.0422
665.432	30.3132
667.153	30.9482
668.875	30.602
670.596	31.1073
672.318	32.6235
674.037	33.2055
675.759	33.7656
677.478	34.7477
679.196	35.1807
680.917	36.3036
682.635	37.0041
684.355	38.7739
686.072	39.9167
687.791	41.0453
689.508	41.0495
691.224	42.3025
692.942	43.1309
694.658	43.5123
696.376	44.9674
698.091	45.1653
699.805	45.8699
701.522	47.0294
703.236	48.0187
704.95	48.124
706.665	50.2348
708.379	50.3856
710.093	50.5769
711.806	49.8571
713.518	50.9663
715.23	51.1472
716.943	51.343
718.655	50.9611
720.366	50.9538
722.078	51.1078
723.788	51.8654
725.498	52.9736
727.208	53.7952
728.919	54.7036
730.628	55.5561
732.337	55.8865
734.045	56.1896
735.755	57.6285
737.463	57.3252
739.17	58.1754
740.877	60.3241
742.584	60.4019
744.292	60.7285
745.998	62.1154
747.704	62.8194
749.409	64.1148
751.114	65.4188
752.819	66.1069
754.526	67.5021
756.23	69.47
757.934	70.7309
759.637	71.5748
761.34	72.5923
763.043	74.1442
764.746	76.1936
766.448	77.8931
768.152	79.1126
769.853	80.4073
771.554	81.4199
773.255	82.0727
774.956	83.1962
776.656	84.3753
778.356	85.5976
780.056	86.643
781.755	87.7215
783.454	88.2771
785.153	90.1045
786.851	90.9663
788.549	92.5461
790.247	93.8001
791.944	96.1547
793.641	96.4005
795.338	98.3778
797.034	99.453
798.73	101.421
800.426	102.172
802.121	102.952
803.817	102.866
805.511	103.259
807.206	103.68
808.9	105.037
810.592	106.139
812.286	107.033
813.979	107.38
815.672	107.682
817.364	109.326
819.057	109.418
820.748	109.346
822.44	108.567
824.129	108.292
825.82	108.702
827.511	106.392
829.201	105.812
830.891	106.365
832.581	105.585
834.269	104.704
835.958	104.524
837.646	103.327
839.335	102.782
841.023	102.261
842.709	101.412
844.396	99.7772
846.084	98.1454
847.77	97.5055
849.455	96.4047
851.141	94.0742
852.827	92.1953
854.513	90.5219
856.196	88.5551
857.881	86.9816
859.566	86.3235
861.248	83.7735
862.932	83.0337
864.616	80.974
866.297	79.2703
867.98	78.6496
869.663	78.7062
871.343	77.7621
873.026	77.4847
874.707	76.2476
876.387	74.1812
878.068	72.7165
879.747	72.5113
881.428	71.2266
883.108	71.3592
884.786	70.7578
886.465	70.1453
888.143	70.0255
889.822	69.4782
891.498	69.3368
893.177	69.7569
894.855	69.9808
896.53	70.1543
898.208	69.1946
899.883	69.4858
901.56	69.5964
903.234	68.9609
904.91	69.1414
906.584	68.7702
908.26	69.314
909.933	69.8955
911.608	69.3129
913.28	70.9693
914.955	71.1448
916.627	71.1524
918.298	71.666
919.972	70.6593
921.643	69.9416
923.315	70.2566
924.986	69.8095
926.656	69.9834
928.328	68.8755
929.997	69.1316
931.668	69.9856
933.337	70.0128
935.006	68.9416
936.676	68.1791
938.344	67.9576
940.012	67.2117
941.681	67.0631
943.348	66.2774
945.014	65.2029
946.683	65.1196
948.349	63.6635
950.015	63.2228
951.682	63.2398
953.347	62.6753
955.012	60.9182
956.676	58.8779
958.343	57.3715
960.006	56.7151
961.67	58.1982
963.333	59.2965
964.998	59.4033
966.661	59.7539
968.323	59.192
969.985	59.0542
971.649	58.5534
973.31	57.9634
974.971	58.6907
976.632	58.1547
978.293	58.1294
979.953	58.1054
981.615	57.4603
983.274	57.9197
984.933	57.7942
986.592	57.9142
988.251	57.1211
989.909	56.724
991.567	56.5618
993.225	55.3739
994.884	55.336
996.541	55.6484
998.198	55.2809
999.855	55.5379
1001.51	55.5744
1003.17	54.6566
1004.82	55.6867
1006.48	55.5452
1008.13	55.8938
1009.79	56.7427
1011.44	56.3173
1013.1	56.5224
1014.75	56.8765
1016.4	55.1579
1018.06	53.9628
1019.71	53.5369
1021.36	53.6311
1023.01	53.5284
1024.66	52.372
1026.32	51.4052
1027.97	50.0337
1029.62	49.0759
1031.27	47.9957
1032.92	47.8298
1034.57	46.4112
1036.22	44.9464
1037.87	44.0681
1039.52	43.8019
1041.16	43.9837
1042.81	44.2127
1044.46	44.8497
1046.11	44.3366
1047.76	43.7127
1049.4	43.5492
1051.05	43.417
1052.7	42.6602
1054.34	41.84
1055.99	42.0911
1057.63	42.308
1059.28	41.026
1060.92	40.1523
1062.57	40.2364
1064.21	39.0505
1065.85	38.6713
1067.5	38.2068
1069.14	37.6566
1070.78	37.3137
1072.43	37.4348
1074.07	38.557
1075.71	39.1496
1077.35	40.0502
1078.99	40.542
1080.63	41.054
1082.27	41.4175
1083.91	41.6883
1085.55	42.254
1087.19	43.433
1088.83	44.0316
1090.47	45.0748
1092.11	45.5907
1093.75	45.0219
1095.39	45.2023
1097.03	45.2789
1098.66	44.4778
1100.3	44.877
1101.94	44.7889
1103.57	44.7117
1105.21	44.027
1106.84	42.8517
1108.48	42.5076
1110.11	41.66
1111.75	40.7177
1113.38	39.3268
1115.02	38.6789
1116.65	37.6919
1118.29	37.5507
1119.92	37.4349
1121.55	36.531
1123.19	35.6726
1124.82	34.4346
1126.45	33.4735
1128.08	33.1332
1129.71	32.0722
1131.34	31.6295
1132.97	31.0429
1134.6	30.2889
1136.23	29.6293
1137.86	29.0812
1139.49	27.7671
1141.12	27.2303
1142.75	26.7178
1144.38	27.4736
1146.01	26.4816
1147.64	25.5841
1149.26	25.7196
1150.89	25.3097
1152.52	25.5264
1154.15	24.9794
1155.77	25.1066
1157.4	23.6179
1159.02	23.4238
1160.65	23.4805
1162.27	24.0029
1163.9	24.3068
1165.52	25.261
1167.15	26.2364
1168.77	26.2249
1170.39	25.8295
1172.02	25.6635
1173.64	26.336
1175.26	26.632
1176.89	26.9866
1178.51	27.0404
1180.13	27.2496
1181.75	28.0969
1183.37	28.3138
1184.99	28.2316
1186.61	27.6859
1188.23	28.0782
1189.85	28.4409
1191.47	28.1393
1193.09	28.1229
1194.71	29.0648
1196.33	30.7144
1197.94	31.9147
1199.56	32.8198
1201.18	34.107
1202.8	35.1963
1204.41	36.3504
1206.03	37.714
1207.65	39.622
1209.26	41.0058
1210.88	41.8936
1212.49	43.6932
1214.11	45.8933
1215.72	47.099
1217.34	48.7091
1218.95	50.3659
1220.57	51.1767
1222.18	52.8863
1223.79	54.4627
1225.41	55.6238
1227.02	56.4035
1228.63	57.5219
1230.24	58.9567
1231.85	59.7022
1233.47	61.2615
1235.08	62.3031
1236.69	63.4305
1238.3	65.2712
1239.91	67.1961
1241.52	68.5614
1243.13	70.4344
1244.74	70.1526
1246.34	70.9706
1247.95	70.1699
1249.56	70.7706
1251.17	71.6115
1252.78	72.9709
1254.38	73.5994
1255.99	74.7854
1257.6	74.4584
1259.2	74.1425
1260.81	74.3579
1262.42	74.1139
1264.02	74.0052
1265.63	73.7536
1267.23	74.303
1268.84	75.1527
1270.44	75.8045
1272.04	76.1056
1273.65	76.0411
1275.25	76.6583
1276.85	77.4303
1278.46	78.0114
1280.06	78.7617
1281.66	79.5544
1283.26	80.1772
1284.86	80.4363
1286.46	81.3563
1288.07	81.2214
1289.67	81.7362
1291.27	81.9557
1292.87	83.1328
1294.47	83.96
1296.06	84.8585
1297.66	85.5146
1299.26	86.5653
1300.86	87.7007
1302.46	88.5181
1304.06	89.6596
1305.65	90.3812
1307.25	91.3524
1308.85	92.2106
1310.44	93.6976
1312.04	94.9195
1313.64	96.0953
1315.23	95.9589
1316.83	95.6792
1318.42	96.3655
1320.02	95.8663
1321.61	95.966
1323.2	96.258
1324.8	95.1935
1326.39	96.0488
1327.99	96.8114
1329.58	97.8646
1331.17	97.5473
1332.76	96.9448
1334.36	96.2715
1335.95	96.1788
1337.54	93.5328
1339.13	92.637
1340.72	91.997
1342.31	91.1067
1343.9	89.5844
1345.49	88.4162
1347.08	87.3668
1348.67	87.1551
1350.26	86.2805
1351.85	84.304
1353.43	82.035
1355.02	81.266
1356.61	80.2549
1358.2	78.9461
1359.78	78.2602
1361.37	77.3677
1362.96	76.3476
1364.54	74.0187
1366.13	72.4251
1367.71	69.8082
1369.3	68.9892
1370.88	68.1926
1372.47	68.2778
1374.05	67.2416
1375.64	67.489
1377.22	66.1608
1378.8	66.5538
1380.39	65.2803
1381.97	64.1739
1383.55	64.1624
1385.13	63.501
1386.72	63.1135
1388.3	62.4265
1389.88	61.4452
1391.46	60.2229
1393.04	60.0065
1394.62	58.5837
1396.2	58.3426
1397.78	58.7291
1399.36	58.6342
1400.94	58.5689
1402.52	58.0917
1404.1	58.4632
1405.68	59.5677
1407.25	60.0487
1408.83	59.6876
1410.41	59.5022
1411.98	60.0735
1413.56	60.6003
1415.14	62.0069
1416.71	63.3297
1418.29	66.3897
1419.87	68.6968
1421.44	70.7218
1423.02	72.4944
1424.59	75.5985
1426.16	78.3224
1427.74	81.7065
1429.31	82.687
1430.89	83.87
1432.46	85.9865
1434.03	88.7367
1435.6	90.3272
1437.18	92.7346
1438.75	94.5518
1440.32	95.5123
1441.89	95.9365
1443.46	96.2075
1445.03	97.0579
1446.6	97.446
1448.17	98.9909
1449.74	98.9438
1451.31	98.3267
1452.88	97.9428
1454.45	96.651
1456.02	95.1901
1457.59	94.138
1459.16	91.0381
1460.72	88.6872
1462.29	86.132
1463.86	83.4601
1465.43	81.2513
1466.99	76.7584
1468.56	74.2308
1470.13	70.9775
1471.69	66.6788
1473.26	62.8567
1474.82	59.8254
1476.38	56.4393
1477.95	52.437
1479.51	48.6797
1481.08	45.2654
1482.64	43.3989
1484.2	39.7051
1485.77	36.4586
1487.33	33.0085
1488.89	31.0165
1490.46	29.7968
1492.02	29.1982
1493.58	28.7668
1495.14	27.3971
1496.7	26.7566
1498.26	25.3286
1499.82	24.197
1501.38	23.5357
1502.94	23.1188
1504.5	23.1156
1506.06	23.5211
1507.62	22.5851
1509.18	23.1604
1510.73	23.7493
1512.29	23.4057
1513.85	23.7683
1515.41	25.2436
1516.96	25.3
1518.52	25.7032
1520.08	25.997
1521.63	27.4209
1523.19	28.0339
1524.75	29.5526
1526.3	30.5012
1527.85	31.8925
1529.41	33.3401
1530.96	34.2341
1532.52	34.8634
1534.07	36.3874
1535.62	37.7863
1537.18	38.6135
1538.73	41.1941
1540.28	42.1437
1541.84	42.852
1543.39	43.7714
1544.94	44.6834
1546.49	46.227
1548.04	46.4541
1549.59	47.1123
1551.14	48.9911
1552.69	50.135
1554.25	51.8924
1555.79	53.2154
1557.34	55.2777
1558.89	56.8685
1560.44	58.8344
1561.99	59.2911
1563.54	60.9778
1565.08	62.4998
1566.63	65.5026
1568.18	66.6695
1569.73	68.3999
1571.27	68.6604
1572.82	70.3172
1574.37	71.9714
1575.91	72.0332
1577.46	73.7997
1579	75.6235
1580.55	77.9604
1582.09	79.0517
1583.64	80.0476
1585.18	79.5691
1586.73	80.183
1588.27	80.5948
1589.81	80.5369
1591.35	81.0964
1592.9	81.7755
1594.44	81.0454
1595.98	80.5938
1597.52	79.6195
1599.06	79.8129
1600.61	78.4087
1602.15	78.4308
1603.69	77.1779
1605.23	76.272
1606.77	74.3817
1608.31	73.1912
1609.85	71.8784
1611.39	70.4247
1612.93	69.7888
1614.46	67.9794
1616	66.2994
1617.54	64.781
1619.08	64.7699
1620.61	64.8593
1622.15	64.154
1623.69	63.3574
1625.23	62.9735
1626.76	62.3589
1628.3	62.5946
1629.83	62.4361
1631.37	62.4043
1632.9	62.2156
1634.44	62.931
1635.97	63.1423
1637.51	63.6471
1639.04	64.2246
1640.57	65.1075
1642.11	66.5106
1643.64	67.5957
1645.17	67.5509
1646.71	69.0467
1648.24	70.0205
1649.77	71.8107
1651.3	73.1593
1652.83	74.545
1654.36	76.6586
1655.89	77.3158
1657.42	77.2042
1658.96	76.2617
1660.48	76.2488
1662.01	75.2047
1663.54	74.6912
1665.07	74.0041
1666.6	72.2651
1668.13	71.0433
1669.66	69.9517
1671.19	67.9115
1672.71	65.5073
1674.24	64.0205
1675.77	63.0418
1677.29	60.6158
1678.82	58.5953
1680.35	55.9822
1681.87	53.5555
1683.4	50.9915
1684.92	48.3206
1686.45	46.1328
1687.97	44.2373
1689.5	42.3711
1691.02	39.4334
1692.54	37.3471
1694.07	35.3398
1695.59	32.7684
1697.11	28.9466
1698.64	25.9233
1700.16	23.9155
1701.68	20.6155
1703.2	18.1596
1704.72	16.548
1706.25	14.8289
1707.77	14.093
1709.29	13.0101
1710.81	11.8235
1712.33	10.349
1713.85	9.2641
1715.37	8.9183
1716.89	8.15252
1718.41	7.60385
1719.92	6.91674
1721.44	6.11584
1722.96	6.49792
1724.48	7.03358
1725.99	7.68155
1727.51	8.05406
1729.03	7.83366
1730.55	7.67672
1732.06	7.93529
1733.58	7.56099
1735.09	7.4057
1736.61	7.80714
1738.13	8.03923
1739.64	8.25107
1741.15	8.26843
1742.67	7.71533
1744.18	8.63861
1745.7	8.95523
1747.21	8.99409
1748.72	8.98954
1750.24	9.76585
1751.75	9.46464
1753.26	8.97271
1754.77	9.0993
1756.29	9.49677
1757.8	9.1656
1759.31	9.0481
1760.82	8.85076
1762.33	8.8347
1763.84	7.54557
1765.35	6.56844
1766.86	5.17072
1768.37	4.43971
1769.88	3.80445
1771.39	3.22036
1772.9	2.48393
1774.4	2.47091
1775.91	1.82597
1777.42	1.01372
1778.93	1.47798
1780.44	1.60755
1781.94	1.09229
1783.45	0.645488
1784.96	-0.0682579
1786.46	-0.455581
1787.97	-0.7333
1789.47	-0.16464
1790.98	-0.144655
1792.48	-0.829778
1793.99	-0.913686
1795.49	-0.766782
1797	-0.554119
1798.5	0.561565
1800.01	1.29854
1801.51	1.647
1803.01	1.67394
1804.51	1.95504
1806.02	2.77236
1807.52	3.36246
1809.02	3.48815
1810.52	3.78848
1812.02	4.31194
1813.52	4.62431
1815.02	4.9064
1816.53	4.68367
1818.03	5.48748
1819.52	6.37893
1821.02	6.1987
1822.52	6.49449
1824.02	6.57663
1825.52	6.59091
1827.02	6.82981
1828.52	7.26862
1830.02	7.43876
1831.51	7.57664
1833.01	7.52336
1834.51	7.21807
1836.01	6.87942
1837.5	6.57999
1839	6.01625
1840.49	5.94571
1841.99	6.16377
1843.49	6.64292
1844.98	6.55731
1846.48	6.22281
1847.97	6.42024
1849.47	5.96302
1850.96	6.36515
1852.45	6.29102
1853.95	6.40315
1855.44	6.03941
1856.93	5.77431
1858.42	5.39625
1859.92	5.48941
1861.41	5.84212
1862.9	5.90634
1864.39	5.84771
1865.88	5.67189
1867.38	5.65043
1868.87	5.71504
1870.36	6.39458
1871.85	6.77801
1873.34	6.94082
1874.83	6.96264
1876.32	6.98127
1877.81	6.72259
1879.29	6.8296
1880.78	7.46916
1882.27	7.76217
1882.53	7.26727
1884.03	7.08465
1885.52	7.069
1887.01	7.66173
1888.51	7.56671
1890	7.48204
1891.5	7.85749
1892.99	7.5659
1894.48	7.83503
1895.97	7.67365
1897.47	7.79499
1898.96	8.08262
1900.45	7.98431
1901.94	7.49798
1903.43	6.98254
1904.92	6.24199
1906.41	6.55319
1907.9	5.84641
1909.39	5.77332
1910.88	5.34393
1912.37	5.7038
1913.86	6.02041
1915.35	5.93878
1916.84	5.8521
1918.33	4.86704
1919.81	5.17737
1921.3	5.70392
1922.79	5.4352
1924.28	5.70258
1925.76	5.21712
1927.25	5.35754
1928.73	5.69085
1930.22	5.70449
1931.71	6.4307
1933.19	6.89108
1934.68	7.11196
1936.16	6.97604
1937.65	7.65565
1939.13	7.8507
1940.62	8.19478
1942.1	8.15876
1943.58	8.74943
1945.07	8.68479
1946.55	8.71317
1948.03	8.51589
1949.51	8.4709
1951	8.20818
1952.48	8.34945
1953.96	8.72175
1955.44	8.65546
1956.92	8.1734
1958.4	8.66547
1959.88	8.30071
1961.36	8.33886
1962.84	8.00065
1964.32	7.75817
1965.8	7.52299
1967.28	7.46835
1968.76	7.25817
1970.24	6.68745
1971.72	7.08871
1973.2	6.31052
1974.67	5.41122
1976.15	5.03721
1977.63	5.08546
1979.1	5.15639
1980.58	5.32265
1982.06	4.6099
1983.54	5.06004
1985.01	4.99315
1986.49	5.29297
1987.96	4.9234
1989.44	5.3893
1990.91	5.67158
1992.39	5.24647
1993.86	5.95881
1995.33	5.67025
1996.81	5.80467
1998.28	5.69547
1999.75	5.8073
2001.23	6.10789
2002.7	6.98764
2004.17	6.53247
2005.65	6.99873
2007.12	6.46563
2008.59	6.4059
2010.06	6.5298
2011.53	7.03252
2013	7.26278
2014.47	7.37702
2015.94	7.03176
2017.41	7.10627
2018.88	6.51514
2020.35	6.24844
2021.82	5.94646
2023.29	6.739
2024.76	6.70636
2026.23	6.96818
2027.69	7.64707
2029.16	7.24085
2030.63	7.08661
2032.1	6.94357
2033.56	6.45998
2035.03	6.97594
2036.5	7.01658
2037.96	6.80712
2039.43	7.27457
2040.89	7.58014
2042.36	8.11835
2043.83	8.67271
2045.29	9.42272
2046.75	8.99438
2048.22	8.93354
2049.68	9.73058
2051.15	10.0009
2052.61	10.3415
2054.07	10.4295
2055.54	11.4587
2057	12.5236
2058.46	12.3113
2059.92	12.8886
2061.39	12.7064
2062.85	12.6934
2064.31	12.0756
2065.77	11.9118
2067.23	12.3976
2068.69	12.2209
2070.15	11.8817
2071.61	11.647
2073.07	11.6859
2074.53	11.8069
2075.99	11.8826
2077.45	11.8741
2078.91	12.449
2080.37	12.4361
2081.82	12.4167
2083.28	12.4356
2084.74	12.975
2086.2	12.8153
2087.65	11.9162
2089.11	11.88
2090.57	11.9155
2092.02	12.0299
2093.48	12.8307
2094.94	13.126
2096.39	13.3824
2097.85	12.9487
2099.3	13.1605
2100.76	13.2027
2102.21	12.8894
2103.66	13.8136
2105.12	13.7367
2106.57	14.3859
2108.03	14.8971
2109.48	15.4579
2110.93	15.7611
2112.38	16.3835
2113.84	16.8966
2115.29	17.1791
2116.74	17.8043
2118.19	18.1204
2119.64	18.4211
2121.09	19.3922
2122.54	20.6935
2123.99	20.967
2125.45	21.8
2126.89	22.1418
2128.34	22.9838
2129.79	23.2439
2131.24	22.9954
2132.69	23.5195
2134.14	23.6397
2135.59	23.9975
2137.04	24.2008
2138.48	25.1111
2139.93	25.2129
2141.38	24.9759
2142.83	25.2944
2144.27	26.1759
2145.72	26.4902
2147.17	26.3902
2148.61	27.6524
2150.06	27.892
2151.5	27.7088
2152.95	27.7151
2154.39	27.8914
2155.84	28.3017
2157.28	28.3589
2158.73	28.1934
2160.17	28.1581
2161.61	28.4033
2163.06	28.854
2164.5	28.7156
2165.94	29.0006
2167.38	29.0243
2168.83	29.6428
2170.27	30.1573
2171.71	30.7397
2173.15	30.552
2174.59	30.8405
2176.03	31.2538
2177.47	30.8761
2178.91	30.6282
2180.36	30.5131
2181.8	30.5958
2183.23	30.687
2184.67	30.8354
2186.11	31.3264
2187.55	31.2797
2188.99	31.0663
2190.43	30.5194
2191.87	30.2997
2193.3	30.1145
2194.74	29.3315
2196.18	28.7416
2197.62	28.8058
2199.05	28.3781
2200.49	28.2354
2201.93	27.527
2203.36	26.7754
2204.8	26.3596
2206.23	26.2343
2207.67	25.4116
2209.1	24.8583
2210.54	24.929
2211.97	23.8551
2213.41	23.1723
2214.84	22.5616
2216.27	21.5947
2217.71	21.1229
2219.14	20.3925
2220.57	20.9014
2222.01	19.583
2223.44	19.3138
2224.87	19.0907
2226.3	19.017
2227.73	18.4592
2229.16	17.551
2230.6	17.1984
2232.03	16.8175
2233.46	16.6018
2234.89	16.4973
2236.32	16.2502
2237.75	16.2309
2239.18	16.1416
2240.61	16.1009
2242.03	16.0363
2243.46	15.9392
2244.89	15.5844
2246.32	16.0082
2247.75	16.0285
2249.17	15.0088
2250.6	15.0567
2252.03	14.9413
2253.46	14.837
2254.88	14.3225
2256.31	14.0861
2257.73	13.4377
2259.16	12.4615
2260.59	11.6416
2262.01	11.4979
2263.44	11.535
2264.86	11.4515
2266.29	11.6976
2267.71	11.953
2269.14	11.7597
2270.56	11.9234
2271.98	11.8808
2273.4	11.818
2274.83	11.8705
2276.25	12.514
2277.67	12.0863
2279.09	11.3762
2280.52	11.2424
2281.94	11.2567
2283.36	10.3854
2284.78	9.53172
2286.2	9.44531
2287.62	9.41979
2289.04	9.33758
2290.46	8.80139
2291.88	8.24371
2293.3	7.18435
2294.72	7.54478
2296.14	7.74603
2297.56	7.76242
2298.98	7.50951
2300.4	7.27923
2301.82	7.1784
2303.23	7.76297
2304.65	7.6418
2306.07	7.81614
2307.49	8.30956
2308.9	8.45942
2310.32	8.61377
2311.73	8.84186
2313.15	8.69668
2314.57	8.27302
2315.98	7.89336
2317.4	7.65874
2318.81	6.90541
2320.23	6.61475
2321.64	6.95271
2323.06	6.03741
2324.47	5.72203
2325.88	5.3409
2327.3	5.51786
2328.71	5.07327
2330.12	5.17744
2331.54	5.24289
2332.95	5.43053
2334.36	5.98176
2335.77	6.08249
2337.18	6.08904
2338.6	5.51082
2340.01	5.39072
2341.42	5.69759
2342.83	4.87011
2344.24	4.29059
2345.65	3.72158
2347.06	3.58015
2348.47	3.11859
2349.88	2.76671
2351.29	2.40805
2352.7	2.19457
2354.1	2.36927
2355.51	2.11296
2356.92	2.55992
2358.33	2.32017
2359.74	1.98306
2361.14	1.7449
2362.55	2.01717
2363.96	2.55605
2365.36	3.45431
2366.77	3.81544
2368.18	3.59385
2369.58	3.54198
2370.99	3.99913
2372.39	4.28686
2373.8	4.54508
2375.2	4.48554
2376.61	4.40374
2378.01	4.80505
2379.42	4.6701
2380.82	4.45236
2382.22	4.29754
2383.63	3.95618
2385.03	4.12941
2386.43	4.20719
2387.84	3.99548
2389.24	3.81802
2390.64	3.80522
2392.04	2.89076
2393.44	2.05117
2394.84	2.47189
2396.25	2.80398
2397.65	2.8214
2399.05	2.81789
2400.45	2.63332
2401.85	2.46967
2403.25	2.81159
2404.65	3.10274
2406.05	2.74076
2407.45	2.83505
2408.84	2.3407
2410.24	2.4194
2411.64	2.48776
2413.04	2.15366
2414.44	2.32178
2415.83	3.31224
2417.23	3.90702
2418.63	3.85492
2420.02	3.74283
2421.42	3.82238
2422.82	3.99658
2424.21	3.99555
2425.61	3.06223
2427	3.40771
2428.4	3.3729
2429.8	3.60126
2431.19	3.78528
2432.58	3.81891
2433.98	3.6186
2435.37	4.12198
2436.77	4.13793
2438.16	3.96972
2439.55	4.48233
2440.95	4.634
2442.34	4.32885
2443.73	3.96423
2445.12	4.33522
2446.51	4.13165
2447.91	4.64913
2449.3	4.87536
2450.69	4.4457
2452.08	3.92695
2453.47	3.17748
2454.86	2.8735
2456.25	2.68104
2457.64	2.59046
2459.03	2.40755
2460.42	2.18361
2461.81	2.43618
2463.2	2.95392
2464.59	3.14856
2465.98	2.754
2467.36	2.52711
2468.75	2.76702
2470.14	2.72169
2471.53	2.94929
2472.92	3.43129
2474.3	3.11194
2475.69	2.30239
2477.08	1.74473
2478.46	0.78488
2479.85	1.13724
2481.23	1.64143
2482.62	1.68336
2484	1.55891
2485.39	1.10824
2486.77	0.259712
2488.16	0.175937
2489.54	-0.31298
2490.93	-0.794323
2492.31	-0.895881
2493.69	-0.960131
2495.08	-0.829863
2496.46	-0.808456
2497.84	-0.727173
2499.23	-0.904636
2500.61	-0.818638
2501.99	-0.617683
2503.37	-0.741793
2504.75	-0.55155
2506.13	-0.763347
2507.52	-0.738878
2508.9	-0.591842
2510.28	-0.71834
2511.66	-0.615876
2513.04	-0.794817
2514.42	-0.206819
2515.8	0.0227445
2517.18	0.290826
2518.55	0.662029
2519.93	0.192331
2521.31	0.0203772
2522.69	0.443903
2524.07	1.24782
2525.45	1.77973
2526.82	2.40107
2528.2	3.14386
2529.58	3.16679
2530.95	3.30555
2532.33	2.91013
2533.71	2.3992
2535.08	2.49922
2536.46	2.84252
2537.84	3.03152
2539.21	3.13015
2540.59	2.97276
2541.96	2.75513
2543.34	2.13369
2544.71	1.92049
2546.08	2.14055
2547.46	2.52098
2548.83	2.99458
2550.2	3.00473
2551.58	2.52838
2552.95	1.66695
2554.32	1.23405
2555.7	1.69522
2557.07	1.97826
2558.44	1.22314
2559.81	1.10358
2561.18	0.777861
2562.55	0.779548
2563.93	0.570728
2565.3	0.45182
2566.67	0.50669
2568.04	0.555081
2569.41	0.919326
2570.78	0.947654
2572.15	0.883389
2573.51	1.22674
2574.88	0.836567
2576.25	0.872554
2577.62	0.633364
2578.99	0.595333
2580.36	0.376834
2581.73	0.531023
2583.09	1.31079
2584.46	0.870358
2585.83	0.723831
2587.19	1.21341
2588.56	0.192351
2589.93	0.438263
2591.29	0.901625
2592.66	1.05496
2594.02	1.12437
2595.39	1.04628
2596.75	1.01896
2598.12	0.477011
2599.48	0.7049
2600.85	0.705766
2602.21	0.622381
2603.58	1.04835
2604.94	1.56897
2606.3	1.37357
2607.67	1.34938
2609.03	1.13869
2610.39	1.08278
2611.76	1.27915
2613.12	1.80186
2614.48	1.88616
2615.84	1.92791
2617.2	1.73162
2618.56	2.05196
2619.92	1.84964
2621.28	2.12328
2622.65	2.6988
2624.01	3.13916
2625.37	2.76039
2626.72	2.5739
2628.08	2.32522
2629.44	2.06937
2630.8	2.19087
2632.16	2.0234
2633.52	2.18503
2634.88	1.58676
2636.24	2.15362
2637.59	2.16088
2638.95	2.00625
2640.31	1.7441
2641.67	1.3465
2643.02	0.992878
2644.38	1.33446
2645.74	0.871608
2647.09	1.07392
2648.45	1.03546
2649.8	1.16705
2651.16	0.823869
2652.51	0.212721
2653.87	0.331582
2655.22	0.0677129
2656.58	-0.163004
2657.93	0.56539
2659.29	0.612588
2660.64	1.3334
2661.99	1.37959
2663.35	1.26209
2664.7	1.86477
2666.05	2.07748
2667.41	2.00226
2668.76	2.23365
2670.11	2.95055
2671.46	3.65416
2672.81	3.90969
2674.16	3.75331
2675.51	4.48503
2676.87	4.92304
2678.22	5.42304
2679.57	6.04867
2680.92	6.19142
2682.27	6.2354
2683.62	6.74244
2684.97	7.08505
2686.31	7.61862
2687.66	7.33374
2689.01	8.0707
2690.36	7.78753
2691.71	7.28164
2693.06	7.6356
2694.4	8.48666
2695.75	7.82806
2697.1	8.36846
2698.45	8.70364
2699.79	8.57258
2701.14	8.36324
2702.49	8.20935
2703.83	9.04436
2705.18	9.01088
2706.52	9.31504
2707.87	9.63376
2709.21	9.99927
2710.56	10.0656
2711.9	10.416
2713.25	10.0349
2714.59	10.1491
2715.94	10.2716
2717.28	10.0514
2718.62	10.3312
2719.97	10.4617
2721.31	10.6314
2722.65	11.0954
2723.99	11.5047
2725.34	11.2673
2726.68	11.4512
2728.02	11.3685
2729.36	10.5083
2730.7	10.3762
2732.04	10.6993
2733.39	10.219
2734.73	9.67293
2736.07	9.64415
2737.41	9.15748
2738.75	8.96052
2740.08	8.78254
2741.43	8.62253
2742.76	8.65968
2744.1	7.98966
2745.44	7.875
2746.78	7.29994
2748.12	6.8496
2749.46	6.83491
2750.79	6.37731
2752.13	6.0634
2753.47	6.2386
2754.81	5.79895
2756.14	5.92765
2757.48	5.63344
2758.81	5.93562
2760.15	6.2922
2761.49	5.83478
2762.82	5.24929
2764.16	5.42693
2765.49	4.49713
2766.83	4.3771
2768.16	4.37618
2769.5	4.34645
2770.83	4.87948
2772.16	4.64476
2773.5	4.66299
2774.83	4.74725
2776.17	4.60337
2777.5	4.93434
2778.83	4.78446
2780.16	4.2605
2781.5	4.25214
2782.83	3.90711
2784.16	3.62203
2785.49	3.64668
2786.82	3.25787
2788.15	3.29038
2789.49	2.71753
2790.82	1.89385
2792.15	1.57778
2793.48	1.71992
2794.81	1.91901
2796.14	1.99263
2797.46	2.23102
2798.79	2.11063
2800.12	1.81789
2801.45	1.92197
2802.78	1.95955
2804.11	1.76659
2805.44	2.364
2806.76	1.97908
2808.09	2.13431
2809.42	2.21655
2810.75	2.03087
2812.07	1.81663
2813.4	1.9015
2814.73	2.31895
2816.05	2.60446
2817.38	2.44084
2818.7	3.19227
2820.03	3.92626
2821.36	4.35873
2822.68	5.82881
2824.01	6.81395
2825.33	8.25215
2826.65	9.56799
2827.98	11.2201
2829.3	12.9095
2830.63	14.572
2831.95	16.1633
2833.27	18.5415
2834.6	20.6476
2835.92	23.2976
2837.24	25.4161
2838.56	27.6306
2839.88	30.1427
2841.21	33.0289
2842.53	35.9976
2843.85	38.7766
2845.17	41.4307
2846.49	44.9108
2847.81	48.786
2849.13	52.6075
2850.45	56.6186
2851.77	60.7259
2853.09	64.7635
2854.41	69.5388
2855.73	73.4656
2857.05	77.6041
2858.37	82.2904
2859.69	85.6571
2861	89.5702
2862.32	93.2211
2863.64	96.4272
2864.96	99.31
2866.28	102.335
2867.59	104.771
2868.91	108.217
2870.23	110.237
2871.54	113.289
2872.86	115.392
2874.17	117.739
2875.49	118.884
2876.81	120.259
2878.12	121.945
2879.44	123.817
2880.75	125.569
2882.07	127.049
2883.38	128.775
2884.69	130.799
2886.01	133.135
2887.32	135.002
2888.63	136.728
2889.95	138.067
2891.26	139.933
2892.57	141.888
2893.89	144.165
2895.2	146.006
2896.51	148.253
2897.82	150.745
2899.13	153.357
2900.44	156.369
2901.76	159.317
2903.07	162.609
2904.38	166.388
2905.69	170.44
2907	174.865
2908.31	179.189
2909.62	184.302
2910.93	189.75
2912.24	194.667
2913.55	199.628
2914.85	204.07
2916.16	208.539
2917.47	212.665
2918.78	216.958
2920.09	220.098
2921.4	222.478
2922.7	225.033
2924.01	227.263
2925.32	229.402
2926.62	231.359
2927.93	232.22
2929.24	232.579
2930.54	232.919
2931.85	233.359
2933.15	232.957
2934.46	233.013
2935.76	231.509
2937.07	230.534
2938.37	228.136
2939.68	226.334
2940.98	223.607
2942.29	221.647
2943.59	219.29
2944.89	216.316
2946.2	213.369
2947.5	210.264
2948.8	206.837
2950.11	203.354
2951.41	199.845
2952.71	195.87
2954.01	191.962
2955.32	188.453
2956.62	185.095
2957.92	182.122
2959.22	178.448
2960.52	174.914
2961.82	172.142
2963.12	169.533
2964.42	166.329
2965.72	163.46
2967.02	160.477
2968.32	157.851
2969.62	154.644
2970.92	151.993
2972.22	149.148
2973.51	145.864
2974.81	143.253
2976.11	139.051
2977.41	135.03
2978.71	131.604
2980	127.88
2981.3	123.524
2982.6	119.113
2983.9	115.133
2985.19	110.582
2986.49	107.108
2987.78	102.95
2989.08	98.4566
2990.38	93.6962
2991.67	88.9586
2992.97	84.6738
2994.26	80.762
2995.56	77.0907
2996.85	73.7151
2998.14	69.8193
2999.44	66.5314
3000.73	62.9102
3002.03	58.7148
3003.32	55.0834
3004.61	52.0043
3005.91	48.7326
3007.2	46.2983
3008.49	43.5186
3009.78	40.7716
3011.07	38.6418
3012.37	36.6336
3013.66	34.2459
3014.95	32.4791
3016.24	30.7168
3017.53	29.2091
3018.82	27.724
3020.11	26.7986
3021.4	26.3982
3022.69	25.5863
3023.98	24.3479
3025.27	24.4752
3026.56	23.9914
3027.85	23.0871
3029.14	22.029
3030.43	21.774
3031.71	21.3974
3033	21.4787
3034.29	21.3591
3035.58	21.464
3036.87	21.5841
3038.15	21.8329
3039.44	22.8733
3040.73	23.1173
3042.01	23.8171
3043.3	24.8704
3044.59	25.3622
3045.87	25.5001
3047.16	26.3109
3048.44	27.2423
3049.73	27.5925
3051.01	27.9771
3052.3	27.8558
3053.58	27.976
3054.87	28.2297
3056.15	29.1869
3057.43	29.119
3058.72	29.2637
3060	29.1056
3061.29	29.0244
3062.57	28.3252
3063.85	28.2487
3065.13	27.831
3066.42	26.7845
3067.7	26.2462
3068.98	25.5773
3070.26	24.6737
3071.54	23.5937
3072.82	22.4868
3074.11	21.018
3075.39	19.8358
3076.67	18.4605
3077.95	17.0679
3079.23	16.0568
3080.51	14.9387
3081.79	13.6882
3083.07	12.4803
3084.35	11.2224
3085.63	10.4898
3086.9	8.87931
3088.18	7.62332
3089.46	6.83071
3090.74	5.61785
3092.02	4.25837
3093.29	3.9671
3094.57	3.14519
3095.85	2.63068
3097.13	2.65532
3098.4	1.92041
3099.68	1.84793
3100.95	1.66479
3102.23	1.80838
3103.51	1.66102
3104.78	1.20773
3106.06	0.958492
3107.33	1.17431
3108.61	1.29116
3109.88	1.10192
3111.16	1.29503
3112.43	1.0674
3113.71	1.0008
3114.98	1.32733
3116.25	0.808467
3117.53	1.01551
3118.8	0.982321
3120.07	1.02926
3121.35	0.711043
3122.62	0.797136
3123.89	0.997587
3125.16	1.22859
3126.44	1.04542
3127.71	1.41379
3128.98	0.988752
3130.25	0.0589889
3131.52	0.0732673
3132.79	-0.195255
3134.06	-0.183674
3135.33	-0.109288
3136.6	-0.0310316
3137.87	-0.335487
3139.14	-0.178766
3140.41	-0.267705
3141.68	-0.267213
3142.95	-0.377467
3144.22	-0.630936
3145.49	-0.777338
3146.76	-0.775928
3148.02	-0.935969
3149.29	-1.97437
