#Acq. time (s)=	45
#Accumulations=	2
#Range (cm-¹)=	200...3150
#Windows=	2
#Auto scanning=	Off
#Autofocus=	Off
#Macrospot=	Off
#AutoExposure=	Off
#Spike filter=	Multiple accum.
#Delay time (s)=	0
#Binning=	1
#Readout mode=	Signal
#DeNoise=	Off
#ICS correction=	On
#Dark correction=	Off
#Inst. Process=	Off
#Detector Gain=	Best Dynamic Range
#Detector ADC=	20 kHz       
#Detector temperature (°C)=	-69.85
#Instrument=	LabRAM HR Evol
#Detector=	Synapse
#Objective=	x100
#Grating=	600 gr/mm
#ND Filter=	100%
#Laser (nm)=	532 
#Hole=	100.021
#Range=	Auto
#Laser Pol.=	No
#Raman. Pol.=	No
#Laser Pol. (°)=	-0.0007625
#Raman Pol. (°)=	89.9995
#Collection=	Microscope
#StageXY=	Marzhauser
#StageZ=	Marzhauser
#X (µm)=	4716.6
#Y (µm)=	-7698.4
#Z (µm)=	584.35
#Full time(mm:ss)=	3:19
#Project=	
#Sample=	
#Site=	
#Title=	Thy_30_10_46_2x_45s_532 nm_x100_100%_600 gr_mm
#Remark=	
#Date=	30.06.2022 14:42
#Acquired=	30.06.2022 14:42:48
#Base:Fit=	10.08.2022 09:58:11
#Base:Sub=	10.08.2022 09:58:44
#Filter:Polynom=	16.08.2022 10:22:53
#AxisType[0]=Intens
#AxisUnit[0]=Cnt
#AxisType[1]=Spectr
#AxisUnit[1]=1/cm
200.533	3.31701
202.348	6.15551
204.162	6.35685
205.976	6.41144
207.792	6.6745
209.605	6.76127
211.418	7.2298
213.23	7.56192
215.044	6.78091
216.856	6.50628
218.667	7.02325
220.478	6.09534
222.289	6.37577
224.102	6.51019
225.912	6.07255
227.721	6.25334
229.531	5.94873
231.34	5.72678
233.148	5.61655
234.956	4.62811
236.766	4.85348
238.574	5.46418
240.381	5.54076
242.188	5.80123
243.994	5.52867
245.801	5.31589
247.606	4.83866
249.412	4.54737
251.217	4.08935
253.024	2.41717
254.828	2.38152
256.632	2.47707
258.436	2.37602
260.239	3.25442
262.042	2.66622
263.845	2.47839
265.647	2.20527
267.449	1.69494
269.25	1.1185
271.052	1.05087
272.852	1.04789
274.653	0.891934
276.453	0.924652
278.253	1.94382
280.052	2.1624
281.852	2.70426
283.65	3.16159
285.449	3.71151
287.247	3.14782
289.044	4.01514
290.842	4.0758
292.639	4.51801
294.436	5.79866
296.232	6.82368
298.028	6.88353
299.821	8.20871
301.617	9.44025
303.412	8.83628
305.206	8.7886
307	9.7474
308.794	11.3166
310.588	11.1068
312.381	12.2021
314.172	12.7438
315.964	13.3028
317.756	14.4017
319.548	15.1005
321.34	14.9661
323.131	15.977
324.921	16.0421
326.71	16.7733
328.5	17.2572
330.29	16.5753
332.079	16.9024
333.868	16.0183
335.654	16.4009
337.443	15.9316
339.231	14.9925
341.018	13.1633
342.804	12.7609
344.591	13.3763
346.377	13.8496
348.163	13.4235
349.947	12.9238
351.733	12.0371
353.518	11.9749
355.303	10.3165
357.085	9.77503
358.869	9.44543
360.653	10.1341
362.435	9.73511
364.218	10.2199
366.001	10.154
367.781	9.83597
369.563	8.32583
371.345	8.59559
373.124	8.64745
374.905	8.23935
376.686	8.08437
378.464	7.96319
380.244	7.19026
382.022	7.7153
383.801	7.59651
385.58	7.27049
387.357	7.18822
389.135	7.34365
390.911	6.28255
392.689	5.9902
394.466	5.81374
396.241	5.39604
398.018	5.84619
399.792	4.22491
401.568	4.14363
403.341	4.5103
405.117	4.60795
406.889	4.79734
408.664	4.63115
410.436	4.17409
412.21	4.79664
413.981	3.79397
415.755	4.17641
417.525	4.94784
419.298	5.56636
421.068	6.05878
422.84	5.95383
424.609	6.28823
426.38	5.49406
428.149	6.01631
429.919	6.22581
431.688	7.48855
433.455	7.3914
435.225	7.0116
436.992	6.76267
438.76	5.81607
440.527	6.06114
442.293	5.88647
444.06	5.73004
445.826	6.73125
447.593	7.2334
449.357	7.20158
451.122	7.14943
452.888	7.59314
454.651	6.86862
456.415	6.61044
458.18	6.4379
459.942	7.17721
461.705	6.67137
463.469	6.85098
465.23	6.8413
466.991	7.27718
468.752	8.29956
470.515	8.82342
472.275	8.7678
474.035	9.3109
475.797	9.24372
477.556	9.62509
479.315	10.9349
481.073	11.1455
482.834	11.503
484.592	12.4041
486.349	12.5983
488.106	12.68
489.863	14.5135
491.622	15.4335
493.378	15.8837
495.134	16.7971
496.889	17.581
498.645	18.5904
500.401	19.283
502.156	20.1103
503.91	20.7491
505.664	20.6206
507.417	20.8038
509.171	20.2386
510.923	19.7699
512.678	19.0128
514.43	18.4285
516.182	18.5474
517.933	18.2039
519.684	18.2491
521.435	18.5669
523.186	18.9028
524.936	19.1456
526.686	18.486
528.435	19.0727
530.184	18.4692
531.933	18.4304
533.682	17.9829
535.43	17.6306
537.18	17.4058
538.927	17.5718
540.674	16.6497
542.421	15.2034
544.167	14.6145
545.913	15.1346
547.659	14.9588
549.403	13.9874
551.148	13.1735
552.893	13.2506
554.637	12.8722
556.381	12.1969
558.125	11.5108
559.868	11.1301
561.611	10.696
563.354	10.4013
565.097	10.6687
566.839	10.9235
568.581	9.13662
570.322	8.95603
572.063	8.2772
573.802	7.57861
575.542	7.85884
577.283	8.03222
579.022	6.49546
580.762	5.99536
582.501	6.11268
584.24	6.21685
585.976	5.91092
587.714	4.81876
589.452	3.84754
591.19	2.37544
592.927	1.7359
594.663	1.36235
596.398	0.781777
598.134	0.841305
599.87	0.998965
601.605	0.610412
603.338	1.1222
605.073	2.6115
606.808	3.19475
608.542	3.95658
610.274	3.70725
612.007	3.48989
613.74	3.48976
615.473	4.07334
617.204	4.40909
618.936	5.52654
620.668	6.03642
622.397	7.03432
624.128	7.57039
625.859	7.74807
627.588	8.38514
629.318	9.20921
631.048	9.98899
632.775	10.4058
634.505	10.5714
636.233	10.9402
637.96	12.0853
639.688	13.3861
641.416	13.6702
643.142	15.0606
644.869	15.5301
646.594	16.2425
648.32	16.8483
650.045	17.4049
651.771	17.7325
653.496	18.3165
655.219	17.7034
656.944	18.8729
658.667	19.1409
660.391	20.0228
662.113	20.119
663.837	19.5146
665.558	19.2264
667.281	20.0624
669.002	20.4475
670.724	20.7228
672.444	20.3948
674.166	20.4369
675.885	21.382
677.606	21.707
679.325	21.6816
681.045	21.8903
682.763	22.0074
684.483	22.7668
686.2	22.891
687.917	22.8895
689.636	23.9827
691.352	24.6219
693.07	24.4097
694.786	24.157
696.501	24.4645
698.219	24.9031
699.933	25.6225
701.65	27.0917
703.364	27.2286
705.078	28.4119
706.793	29.6407
708.506	30.5631
710.219	31.2096
711.934	31.8034
713.646	32.8223
715.358	32.6229
717.071	33.4045
718.782	34.4858
720.493	35.7786
722.204	36.0658
723.916	36.1814
725.626	35.9582
727.336	37.0942
729.045	38.8095
730.756	38.8176
732.464	39.3363
734.173	40.3387
735.881	40.9766
737.59	41.4573
739.297	41.5128
741.004	41.5698
742.711	42.1688
744.417	42.9407
746.125	44.4454
747.831	44.8482
749.537	46.4307
751.242	48.0692
752.946	49.0968
754.651	50.6496
756.357	52.5844
758.061	54.5879
759.764	55.3536
761.467	57.2004
763.17	57.8804
764.872	58.5135
766.575	60.3178
768.276	61.8234
769.978	63.0805
771.679	64.0733
773.382	65.1637
775.083	65.9718
776.783	67.0422
778.483	69.2419
780.182	69.8442
781.882	71.3325
783.581	71.4526
785.279	72.5592
786.978	73.5492
788.676	74.1445
790.373	75.7867
792.071	76.5613
793.768	76.5668
795.464	76.783
797.161	77.091
798.857	77.469
800.552	77.8784
802.248	78.466
803.941	78.7213
805.636	78.4011
807.33	78.2912
809.024	78.1291
810.718	79.2242
812.412	80.2536
814.105	79.3109
815.798	77.6127
817.49	78.0488
819.183	77.8405
820.873	77.4441
822.564	76.8336
824.256	76.1338
825.947	75.6734
827.637	75.9319
829.328	75.8514
831.016	75.1324
832.705	74.0793
834.395	73.5295
836.084	71.5806
837.772	70.6474
839.459	71.0592
841.147	69.8717
842.835	69.1903
844.522	68.4858
846.209	68.4995
847.894	67.1011
849.581	66.2665
851.267	65.85
852.953	65.1318
854.637	63.4565
856.322	62.8659
858.007	62.2917
859.689	59.965
861.374	59.4066
863.058	58.6964
864.739	57.2229
866.423	56.7089
868.106	55.7395
869.787	55.7005
871.469	54.7962
873.151	54.3643
874.831	54.1878
876.512	53.4165
878.193	52.6188
879.872	53.0928
881.553	53.6061
883.231	53.1559
884.911	52.7185
886.591	52.7931
888.268	52.282
889.947	52.7597
891.623	53.5395
893.302	52.9663
894.978	52.9744
896.656	52.9892
898.331	51.9293
900.008	52.9337
901.683	53.889
903.359	53.6715
905.033	53.2283
906.709	52.1155
908.383	50.9898
910.058	49.607
911.731	49.0298
913.405	47.682
915.078	46.6282
916.752	46.3286
918.423	45.8443
920.096	44.8883
921.768	45.0345
923.438	45.6023
925.111	44.5663
926.781	44.4784
928.452	43.8318
930.122	43.1256
931.791	42.6092
933.462	42.1772
935.13	41.6471
936.799	40.3894
938.468	38.7662
940.136	38.0624
941.803	36.3666
943.472	34.8604
945.139	34.6274
946.805	34.3455
948.473	34.323
950.139	34.0662
951.804	33.7925
953.471	33.0864
955.136	32.7633
956.801	32.8765
958.465	33.0722
960.131	32.6466
961.794	32.1635
963.458	31.6987
965.12	31.6953
966.785	30.912
968.447	31.4401
970.109	32.0981
971.771	32.4575
973.432	33.1679
975.095	32.8359
976.756	33.0502
978.417	33.7079
980.077	34.0695
981.737	33.9057
983.396	34.5106
985.057	34.2623
986.716	34.1157
988.375	32.3821
990.033	32.5293
991.691	31.6713
993.349	31.0212
995.006	30.7743
996.663	30.3247
998.32	30.6467
999.976	30.8723
1001.63	30.8997
1003.29	31.3513
1004.95	31.9652
1006.6	32.3011
1008.26	30.839
1009.91	30.6584
1011.56	30.8851
1013.22	31.2222
1014.87	30.8102
1016.53	30.1927
1018.18	30.0364
1019.83	29.7046
1021.48	29.2586
1023.14	28.3493
1024.79	27.8601
1026.44	28.1142
1028.09	27.358
1029.74	27.4342
1031.39	26.3634
1033.04	25.2228
1034.69	24.2211
1036.34	23.832
1037.99	23.7384
1039.64	22.8752
1041.29	22.4279
1042.94	21.4405
1044.58	22.1375
1046.23	23.073
1047.88	24.3792
1049.52	24.946
1051.17	25.3676
1052.82	25.4166
1054.46	24.8404
1056.11	24.6842
1057.75	25.3147
1059.4	25.7833
1061.04	24.7178
1062.69	24.3379
1064.33	24.574
1065.98	24.6898
1067.62	24.5957
1069.26	24.1033
1070.9	24.2033
1072.55	24.8887
1074.19	24.1463
1075.83	23.7147
1077.47	24.2538
1079.11	24.3848
1080.76	25.4988
1082.4	25.9012
1084.04	26.2792
1085.68	26.3235
1087.32	26.6047
1088.95	27.0792
1090.59	26.8887
1092.23	28.207
1093.87	27.8613
1095.51	27.4472
1097.15	27.1394
1098.78	27.0113
1100.42	26.6382
1102.06	25.7589
1103.69	25.1153
1105.33	24.7242
1106.97	25.0096
1108.6	23.9525
1110.24	23.098
1111.87	22.1374
1113.51	20.3353
1115.14	20.7299
1116.77	19.3481
1118.41	19.2538
1120.04	18.3374
1121.67	17.6523
1123.31	17.3777
1124.94	17.2907
1126.57	16.9502
1128.2	16.6942
1129.83	16.2104
1131.47	15.1457
1133.1	14.2385
1134.72	13.452
1136.36	12.9416
1137.98	13.2402
1139.62	12.5075
1141.24	11.105
1142.87	9.82924
1144.5	10.0978
1146.13	10.8709
1147.76	10.6952
1149.38	10.2672
1151.01	9.90099
1152.64	9.19543
1154.27	8.22899
1155.89	7.45325
1157.52	6.82969
1159.14	6.91957
1160.77	6.71499
1162.39	7.27267
1164.02	6.01882
1165.64	5.5355
1167.27	5.71786
1168.89	6.66295
1170.51	6.48377
1172.14	6.13356
1173.76	5.94346
1175.38	5.56296
1177	6.39334
1178.63	6.85235
1180.25	6.28726
1181.87	5.79026
1183.49	6.72762
1185.11	7.13603
1186.73	7.58876
1188.35	7.86643
1189.97	7.47945
1191.59	7.84727
1193.21	7.96057
1194.83	8.28177
1196.45	9.41763
1198.07	9.0123
1199.68	10.3996
1201.3	10.616
1202.92	12.3487
1204.53	13.3056
1206.15	14.5158
1207.77	15.4216
1209.38	17.8228
1211	18.6982
1212.62	19.55
1214.23	21.0876
1215.84	21.65
1217.46	22.2457
1219.07	23.8346
1220.69	24.7064
1222.3	25.8774
1223.91	27.3542
1225.53	29.7094
1227.14	31.2545
1228.75	32.7196
1230.36	33.4532
1231.97	34.8908
1233.59	35.3653
1235.2	37.5152
1236.81	39.0088
1238.42	40.6908
1240.03	42.1568
1241.64	43.2515
1243.25	43.3023
1244.85	44.4612
1246.46	46.0422
1248.07	47.2928
1249.68	48.2567
1251.29	48.4948
1252.9	49.4532
1254.5	49.8473
1256.11	50.3785
1257.72	50.2879
1259.32	50.3079
1260.93	49.9831
1262.54	51.3745
1264.14	51.8214
1265.75	51.8468
1267.35	52.2963
1268.96	51.2724
1270.56	50.6242
1272.16	51.01
1273.77	51.1983
1275.37	51.5968
1276.97	52.0764
1278.57	52.8628
1280.18	54.045
1281.78	54.917
1283.38	55.8166
1284.98	54.7025
1286.58	55.3423
1288.18	55.5839
1289.78	56.6187
1291.38	56.1322
1292.99	55.347
1294.58	55.3368
1296.18	55.227
1297.78	55.3507
1299.38	56.2734
1300.98	56.0522
1302.58	56.4621
1304.17	56.0446
1305.77	56.1783
1307.37	56.5282
1308.97	57.14
1310.56	56.675
1312.16	57.3134
1313.76	57.3955
1315.35	58.2307
1316.95	57.684
1318.54	56.7409
1320.14	55.7469
1321.73	54.8139
1323.32	55.4729
1324.92	55.811
1326.51	55.0678
1328.1	54.707
1329.7	54.271
1331.29	53.2354
1332.88	52.6184
1334.47	51.1729
1336.07	49.8954
1337.66	49.4525
1339.25	49.4902
1340.84	48.815
1342.43	48.3363
1344.02	47.7346
1345.61	46.7444
1347.2	45.6942
1348.79	45.5152
1350.37	45.6912
1351.96	45.5122
1353.55	45.0049
1355.14	44.3944
1356.73	43.8411
1358.31	43.3341
1359.9	42.9213
1361.49	42.117
1363.07	41.1664
1364.66	40.1457
1366.25	40.602
1367.83	39.5351
1369.42	39.1116
1371	37.0697
1372.59	36.6948
1374.17	36.2729
1375.75	35.8537
1377.34	34.9507
1378.92	34.7042
1380.5	34.1181
1382.09	33.662
1383.67	32.7949
1385.25	33.5413
1386.83	33.6821
1388.42	33.5287
1390	32.8033
1391.58	32.523
1393.16	31.4487
1394.74	31.1213
1396.32	29.5097
1397.9	28.279
1399.48	28.3713
1401.06	28.388
1402.64	28.3737
1404.21	27.1934
1405.79	27.0365
1407.37	27.0457
1408.95	26.2386
1410.53	25.8977
1412.1	26.6796
1413.68	27.0603
1415.26	28.1513
1416.83	30.2779
1418.41	31.6448
1419.98	32.3603
1421.56	33.6607
1423.13	34.7418
1424.71	35.3498
1426.28	37.33
1427.86	39.1639
1429.43	39.759
1431	40.8287
1432.58	43.6049
1434.15	45.8604
1435.72	47.9253
1437.29	50.2089
1438.87	52.6271
1440.44	53.7044
1442.01	54.8674
1443.58	56.1654
1445.15	56.6285
1446.72	56.9826
1448.29	58.0975
1449.86	57.9977
1451.43	58.9642
1453	58.2342
1454.57	58.0203
1456.14	57.5628
1457.71	57.1827
1459.27	56.5042
1460.84	55.4608
1462.41	53.656
1463.98	52.134
1465.54	49.6321
1467.11	47.9466
1468.67	45.1868
1470.24	43.0849
1471.81	40.2963
1473.37	38.5912
1474.94	35.0409
1476.5	33.8414
1478.07	31.6858
1479.63	29.4157
1481.19	27.3064
1482.76	25.5023
1484.32	23.773
1485.88	22.3841
1487.45	21.0755
1489.01	21.0384
1490.57	20.2978
1492.13	18.9798
1493.69	18.0666
1495.26	17.8608
1496.82	17.4466
1498.38	17.1784
1499.94	17.2066
1501.5	16.6833
1503.06	17.1167
1504.62	17.0594
1506.17	17.4127
1507.73	17.8215
1509.29	18.9372
1510.85	20.258
1512.41	20.1034
1513.97	19.6344
1515.52	19.5336
1517.08	20.0877
1518.64	20.3098
1520.19	20.6171
1521.75	20.6043
1523.31	20.6059
1524.86	21.949
1526.42	22.4625
1527.97	22.0311
1529.52	21.6827
1531.08	21.4772
1532.63	22.1659
1534.19	23.2352
1535.74	22.8941
1537.29	23.0732
1538.85	22.9241
1540.4	23.6949
1541.95	24.9177
1543.5	25.4086
1545.06	26.5957
1546.61	27.3522
1548.16	28.7376
1549.71	30.2821
1551.26	31.473
1552.81	32.8403
1554.36	34.3789
1555.91	35.1043
1557.46	37.4698
1559.01	39.1253
1560.56	40.6292
1562.11	42.6331
1563.65	44.3526
1565.2	45.0366
1566.75	45.7826
1568.29	46.0336
1569.84	46.7941
1571.39	47.855
1572.94	48.6724
1574.48	50.0074
1576.03	50.6895
1577.57	51.4072
1579.12	52.7852
1580.66	54.4009
1582.21	55.2682
1583.75	56.4851
1585.3	56.4435
1586.84	55.9598
1588.38	56.1457
1589.93	56.305
1591.47	57.0923
1593.01	57.5059
1594.55	58.9342
1596.1	58.4817
1597.64	57.2925
1599.18	57.1914
1600.72	56.5011
1602.26	55.9558
1603.8	55.5352
1605.34	54.4242
1606.88	53.7602
1608.42	53.7486
1609.96	53.9897
1611.5	52.8779
1613.04	52.3031
1614.58	52.4347
1616.12	51.9677
1617.65	52.7027
1619.19	52.8684
1620.73	52.949
1622.27	53.7853
1623.8	53.5311
1625.34	53.7193
1626.87	54.1292
1628.41	53.6444
1629.95	54.1081
1631.48	53.1199
1633.02	54.7436
1634.55	54.8299
1636.09	54.4814
1637.62	54.6039
1639.15	54.2536
1640.69	53.917
1642.22	53.4612
1643.76	54.5659
1645.29	54.2913
1646.82	54.166
1648.35	53.2409
1649.88	54.1404
1651.42	55.2352
1652.95	55.4439
1654.48	56.2547
1656.01	55.9585
1657.54	55.151
1659.07	54.8502
1660.6	54.03
1662.13	53.3279
1663.66	53.2373
1665.19	53.6582
1666.72	52.7435
1668.24	51.5606
1669.77	50.5465
1671.3	49.3186
1672.83	47.5402
1674.35	45.954
1675.88	45.0821
1677.41	43.6649
1678.93	42.7563
1680.46	41.3011
1681.99	39.1503
1683.51	37.6814
1685.04	36.3988
1686.56	34.7042
1688.09	31.7437
1689.61	30.718
1691.13	28.4013
1692.66	26.3054
1694.18	25.2327
1695.71	23.4359
1697.23	22.1245
1698.75	21.0569
1700.27	19.3534
1701.8	17.6933
1703.32	17.557
1704.84	15.8326
1706.36	14.9325
1707.88	13.9962
1709.4	13.7197
1710.92	12.1423
1712.44	11.8169
1713.96	11.5593
1715.48	10.626
1717	10.3536
1718.52	9.21534
1720.04	9.15584
1721.56	7.76866
1723.07	8.0793
1724.59	7.79748
1726.11	9.23006
1727.63	9.20214
1729.14	8.59936
1730.66	8.48583
1732.18	7.59668
1733.69	7.86161
1735.21	8.23351
1736.72	7.51261
1738.24	7.58292
1739.75	7.19601
1741.27	6.50431
1742.78	6.02506
1744.3	5.88439
1745.81	5.25966
1747.32	4.59797
1748.84	4.44486
1750.35	3.89195
1751.86	3.47154
1753.37	3.12677
1754.89	2.92052
1756.4	2.30166
1757.91	1.74707
1759.42	1.37024
1760.93	1.14119
1762.44	0.251126
1763.95	-0.0708426
1765.46	-0.0765087
1766.97	-0.409425
1768.48	-0.459292
1769.99	-0.0595231
1771.5	0.358442
1773.01	0.680811
1774.52	0.439193
1776.03	-0.215859
1777.53	-0.548779
1779.04	0.120197
1780.55	-0.555198
1782.06	-0.101838
1783.56	0.352432
1785.07	0.397075
1786.57	0.767063
1788.08	0.634486
1789.59	0.388327
1791.09	0.308674
1792.6	0.649152
1794.1	0.69525
1795.6	1.63848
1797.11	1.79675
1798.61	2.64404
1800.12	2.96609
1801.62	3.1829
1803.12	2.7785
1804.63	2.27553
1806.13	2.45127
1807.63	2.36096
1809.13	2.75306
1810.63	2.45192
1812.14	2.0676
1813.64	2.08053
1815.14	2.13683
1816.64	2.1248
1818.14	2.62016
1819.64	2.48551
1821.14	2.27951
1822.64	2.73682
1824.14	2.74977
1825.63	2.62486
1827.13	2.77494
1828.63	2.70973
1830.13	2.83563
1831.63	2.43975
1833.12	2.47271
1834.62	2.77991
1836.12	2.80381
1837.62	2.58354
1839.11	2.59474
1840.61	2.25244
1842.1	2.25634
1843.6	2.09779
1845.09	2.1296
1846.59	2.12451
1848.08	1.97521
1849.58	1.93008
1851.07	2.35376
1852.57	2.92372
1854.06	3.66469
1855.55	3.94648
1857.04	4.06182
1858.54	4.188
1860.03	4.52374
1861.52	4.53919
1863.01	4.96776
1864.5	5.62416
1866	6.29459
1867.49	6.82158
1868.98	7.42255
1870.47	8.08086
1871.96	8.06695
1873.45	8.64434
1874.94	8.65269
1876.43	8.96347
1877.92	9.29221
1879.41	9.10787
1880.89	9.09591
1882.38	9.20392
1882.48	9.24155
1883.97	9.21665
1885.47	9.44727
1886.96	9.64845
1888.46	9.62179
1889.95	9.69068
1891.44	9.70842
1892.94	9.4173
1894.43	9.34708
1895.92	9.13029
1897.41	8.95535
1898.9	8.59035
1900.4	8.55204
1901.89	8.5906
1903.38	9.01155
1904.87	8.48257
1906.36	8.05703
1907.85	7.75057
1909.34	7.29611
1910.83	7.3594
1912.32	7.51772
1913.81	7.239
1915.29	6.90564
1916.78	7.0461
1918.27	7.35711
1919.76	8.18304
1921.25	8.71359
1922.74	9.42264
1924.22	9.83615
1925.71	9.9365
1927.2	9.81243
1928.68	9.62785
1930.17	9.84172
1931.65	9.59761
1933.14	9.5729
1934.63	9.21739
1936.11	9.87054
1937.59	10.4027
1939.08	10.3811
1940.56	10.5429
1942.05	10.3621
1943.53	10.4142
1945.01	10.4761
1946.5	10.8885
1947.98	11.0384
1949.46	11.4116
1950.94	10.6246
1952.43	10.3284
1953.91	10.1492
1955.39	10.1166
1956.87	9.85715
1958.35	9.64013
1959.83	9.61303
1961.31	9.56054
1962.79	8.82317
1964.27	8.68507
1965.75	8.25215
1967.23	8.8011
1968.71	8.7757
1970.19	8.48293
1971.67	8.28869
1973.14	8.41647
1974.62	8.4529
1976.1	8.04674
1977.58	7.70165
1979.05	7.17114
1980.53	6.89911
1982.01	7.14481
1983.48	7.47044
1984.96	7.92261
1986.43	7.97618
1987.91	7.71927
1989.38	8.28037
1990.86	9.15383
1992.33	9.70122
1993.81	9.83711
1995.28	9.65134
1996.76	9.64301
1998.23	9.26299
1999.7	9.51508
2001.18	9.06137
2002.65	9.1583
2004.12	9.30232
2005.59	9.21473
2007.06	9.74832
2008.54	9.58145
2010.01	9.81395
2011.48	10.1535
2012.95	9.96045
2014.42	9.83935
2015.89	9.97824
2017.36	10.4109
2018.83	10.2854
2020.3	10.3267
2021.77	10.5819
2023.24	10.4439
2024.71	10.4127
2026.17	10.4867
2027.64	10.3452
2029.11	11.1406
2030.58	11.7451
2032.04	11.8083
2033.51	11.8285
2034.98	12.0717
2036.45	11.6895
2037.91	12.2263
2039.38	12.2943
2040.84	12.6603
2042.31	12.2109
2043.77	12.3559
2045.24	12.5545
2046.7	12.8233
2048.17	13.1007
2049.63	12.494
2051.1	13.4477
2052.56	13.9895
2054.02	14.2739
2055.48	15.0779
2056.95	15.2092
2058.41	15.456
2059.87	15.4972
2061.33	15.4773
2062.8	15.4331
2064.26	15.5007
2065.72	15.7257
2067.18	15.8644
2068.64	16.241
2070.1	16.552
2071.56	16.8263
2073.02	16.9752
2074.48	17.2848
2075.94	18.1254
2077.4	18.6013
2078.86	18.9947
2080.31	19.0928
2081.77	18.9283
2083.23	19.5984
2084.69	20.0409
2086.14	19.8124
2087.6	20.184
2089.06	20.9107
2090.52	21.1021
2091.97	20.826
2093.43	20.9751
2094.88	21.2709
2096.34	21.5705
2097.79	22.7378
2099.25	23.3628
2100.7	24.0239
2102.16	24.6676
2103.61	24.693
2105.07	24.6627
2106.52	25.0451
2107.97	26.0015
2109.43	26.211
2110.88	26.9286
2112.33	27.597
2113.78	28.7397
2115.24	29.7378
2116.69	31.2267
2118.14	31.9143
2119.59	32.9515
2121.04	34.1894
2122.49	35.1484
2123.94	36.2894
2125.39	36.4378
2126.84	36.5445
2128.29	37.0024
2129.74	37.9663
2131.19	39.1547
2132.64	39.5183
2134.09	40.3537
2135.54	41.952
2136.98	44.0692
2138.43	45.0229
2139.88	46.1462
2141.33	47.0801
2142.77	48.3907
2144.22	49.5466
2145.67	50.8255
2147.11	52.1522
2148.56	53.4982
2150.01	54.3725
2151.45	54.744
2152.9	54.9764
2154.34	55.0582
2155.79	55.7317
2157.23	55.9082
2158.67	56.2025
2160.12	56.9347
2161.56	57.3799
2163	57.6267
2164.45	57.7958
2165.89	58.3842
2167.33	59.1645
2168.78	59.7151
2170.22	60.3893
2171.66	60.0846
2173.1	59.8257
2174.54	59.8696
2175.98	60.0839
2177.42	60.4185
2178.86	60.6259
2180.3	60.983
2181.74	60.6503
2183.18	60.1889
2184.62	59.6857
2186.06	59.8354
2187.5	59.4482
2188.94	59.5432
2190.38	58.5962
2191.82	57.7363
2193.25	56.8163
2194.69	55.7643
2196.13	54.0187
2197.57	53.3464
2199	52.7462
2200.44	52.3636
2201.88	51.8671
2203.31	51.0326
2204.75	50.2655
2206.18	49.7543
2207.62	48.7227
2209.05	47.23
2210.49	45.797
2211.92	45.1367
2213.36	44.9184
2214.79	43.8839
2216.22	42.6531
2217.66	41.5821
2219.09	40.4852
2220.52	39.6674
2221.96	38.4352
2223.39	37.3885
2224.82	36.5893
2226.25	35.5958
2227.68	34.9461
2229.11	33.7902
2230.55	33.0168
2231.98	32.2251
2233.41	31.2422
2234.84	30.3124
2236.27	29.3195
2237.7	28.6974
2239.12	28.443
2240.55	28.2632
2241.98	27.6702
2243.41	26.9243
2244.84	25.9804
2246.27	26.0815
2247.7	25.7289
2249.12	25.3702
2250.55	24.9247
2251.98	24.1481
2253.41	23.4829
2254.83	22.9025
2256.26	22.6708
2257.68	23.1678
2259.11	23.1388
2260.54	22.769
2261.96	22.0182
2263.39	21.8285
2264.81	21.7874
2266.24	21.4186
2267.66	21.0675
2269.08	21.2554
2270.51	21.064
2271.93	20.9761
2273.35	21.003
2274.78	20.5685
2276.2	20.0925
2277.62	19.8573
2279.04	20.2408
2280.47	20.5567
2281.89	20.6921
2283.31	20.3358
2284.73	20.0861
2286.15	19.103
2287.57	18.9573
2288.99	19.1177
2290.41	18.4085
2291.83	17.549
2293.25	17.5513
2294.67	16.8583
2296.09	16.7152
2297.51	16.4347
2298.93	16.7933
2300.35	17.1309
2301.76	17.2603
2303.18	17.304
2304.6	17.3707
2306.02	17.8168
2307.44	17.7976
2308.85	17.9273
2310.27	17.2991
2311.69	16.9637
2313.1	16.4792
2314.52	16.3611
2315.93	16.341
2317.35	16.3234
2318.76	15.5833
2320.18	15.4543
2321.59	15.3265
2323.01	15.5469
2324.42	16.2341
2325.83	16.1743
2327.25	16.4232
2328.66	16.9437
2330.07	16.4822
2331.49	16.136
2332.9	16.1466
2334.31	16.3295
2335.72	15.9617
2337.13	15.7197
2338.55	15.4525
2339.96	15.0378
2341.37	14.455
2342.78	13.9959
2344.19	13.8422
2345.6	13.8198
2347.01	13.6116
2348.42	13.3053
2349.83	12.6625
2351.24	11.4258
2352.65	10.4842
2354.05	9.70197
2355.46	9.13332
2356.87	8.34314
2358.28	7.37463
2359.69	6.77707
2361.09	6.13035
2362.5	5.82124
2363.91	6.5453
2365.31	6.09958
2366.72	6.09671
2368.13	5.42058
2369.53	5.49112
2370.94	4.69513
2372.34	3.91308
2373.75	3.46889
2375.15	2.87022
2376.56	2.71309
2377.96	2.2148
2379.37	1.76886
2380.77	1.60717
2382.17	1.78432
2383.58	1.70845
2384.98	1.39814
2386.38	1.07282
2387.79	0.672926
2389.19	1.12027
2390.59	1.70084
2391.99	2.79043
2393.39	3.60206
2394.8	4.30448
2396.2	4.64355
2397.6	5.08752
2399	5.77158
2400.4	6.26432
2401.8	7.35672
2403.2	7.67259
2404.6	8.50257
2406	8.95126
2407.4	9.50893
2408.79	9.79227
2410.19	10.1863
2411.59	10.6407
2412.99	11.4408
2414.39	12.0813
2415.78	12.4755
2417.18	12.3117
2418.58	13.0835
2419.98	13.3618
2421.37	14.0852
2422.77	14.0288
2424.16	14.16
2425.56	14.3302
2426.96	14.5613
2428.35	14.9594
2429.74	15.3327
2431.14	15.0785
2432.53	14.556
2433.93	14.4544
2435.32	13.8559
2436.72	13.196
2438.11	12.8897
2439.5	12.9361
2440.9	12.8057
2442.29	12.5751
2443.68	12.0899
2445.07	11.2867
2446.47	11.3689
2447.86	10.9124
2449.25	10.2031
2450.64	9.53432
2452.03	8.40184
2453.42	7.80393
2454.81	7.00305
2456.2	7.3311
2457.59	7.35914
2458.98	7.74589
2460.37	7.90118
2461.76	8.16163
2463.15	7.6736
2464.54	7.40252
2465.93	6.86425
2467.32	5.92295
2468.7	5.99621
2470.09	5.59666
2471.48	5.13082
2472.87	4.6045
2474.25	4.83098
2475.64	4.51756
2477.03	4.09269
2478.41	3.1522
2479.8	2.93804
2481.18	2.79445
2482.57	2.76502
2483.95	2.44776
2485.34	2.14892
2486.72	1.7709
2488.11	1.66177
2489.49	1.23809
2490.88	1.70198
2492.26	1.26484
2493.65	1.4008
2495.03	1.17235
2496.41	1.30321
2497.79	1.17501
2499.18	0.606769
2500.56	-0.17197
2501.94	-0.219803
2503.32	-0.300433
2504.7	-0.153744
2506.09	0.00683772
2507.47	0.647279
2508.85	1.07281
2510.23	1.07568
2511.61	0.910685
2512.99	0.61141
2514.37	0.63566
2515.75	1.31619
2517.13	0.68735
2518.51	0.563045
2519.89	0.298575
2521.26	0.518246
2522.64	0.980659
2524.02	1.72643
2525.4	2.06557
2526.78	1.79016
2528.15	1.85793
2529.53	2.19079
2530.91	2.24412
2532.28	2.10036
2533.66	2.4155
2535.04	2.55978
2536.41	2.67023
2537.79	3.11074
2539.16	3.05668
2540.54	2.98628
2541.91	3.33362
2543.29	3.77696
2544.66	3.73174
2546.04	3.83853
2547.41	3.99638
2548.78	4.62339
2550.16	4.58005
2551.53	5.23405
2552.9	5.31686
2554.27	5.71828
2555.65	5.85699
2557.02	6.11028
2558.39	6.88483
2559.76	7.61745
2561.13	7.562
2562.51	7.95165
2563.88	7.93113
2565.25	8.40594
2566.62	8.13196
2567.99	8.18234
2569.36	8.40664
2570.73	8.98706
2572.1	9.11623
2573.47	9.26987
2574.84	9.00611
2576.2	9.30139
2577.57	9.07748
2578.94	8.84456
2580.31	8.75125
2581.68	8.40265
2583.05	8.17332
2584.41	7.67167
2585.78	6.93632
2587.15	7.19911
2588.51	6.8947
2589.88	6.63866
2591.24	6.09002
2592.61	5.9765
2593.98	5.23556
2595.34	5.37593
2596.71	5.14427
2598.07	4.72265
2599.44	4.29921
2600.8	3.99391
2602.16	3.83746
2603.53	3.31043
2604.89	3.19154
2606.26	2.90121
2607.62	2.80174
2608.98	2.48405
2610.34	2.99447
2611.71	3.1873
2613.07	2.94186
2614.43	3.38194
2615.79	3.43794
2617.15	3.43034
2618.52	3.67453
2619.88	3.804
2621.24	3.27059
2622.6	3.07653
2623.96	2.85767
2625.32	3.15301
2626.68	3.76979
2628.04	3.68242
2629.4	3.62467
2630.75	3.56669
2632.11	2.9709
2633.47	2.8628
2634.83	3.2437
2636.19	3.21248
2637.55	3.28081
2638.9	3.45395
2640.26	3.72551
2641.62	3.77105
2642.98	3.77451
2644.33	3.97157
2645.69	3.93839
2647.04	3.66927
2648.4	3.06312
2649.76	2.15882
2651.11	1.56924
2652.47	1.35614
2653.82	1.23165
2655.18	1.17043
2656.53	0.838578
2657.88	0.655352
2659.24	0.558735
2660.59	0.726505
2661.95	0.53944
2663.3	0.573505
2664.65	0.146221
2666	-0.119698
2667.36	0.375731
2668.71	0.28901
2670.06	0.320232
2671.41	-0.0903848
2672.76	-0.217585
2674.12	-0.165619
2675.47	-0.313223
2676.82	0.0195488
2678.17	0.615245
2679.52	0.694893
2680.87	0.752099
2682.22	1.02607
2683.57	1.01469
2684.92	1.07603
2686.27	1.00385
2687.62	0.837265
2688.97	1.12933
2690.31	1.36131
2691.66	1.35417
2693.01	1.72493
2694.36	1.82615
2695.71	1.9363
2697.05	2.19159
2698.4	2.8578
2699.75	2.94657
2701.09	3.482
2702.44	4.10499
2703.78	4.37109
2705.13	5.16304
2706.48	5.72948
2707.82	5.61442
2709.17	4.99242
2710.51	4.94337
2711.86	4.89356
2713.2	5.21717
2714.54	4.73061
2715.89	4.7966
2717.23	4.92143
2718.57	5.77433
2719.92	5.76406
2721.26	5.689
2722.6	6.15432
2723.95	6.34041
2725.29	5.99308
2726.63	5.68691
2727.97	5.63203
2729.31	5.51193
2730.65	5.33567
2732	5.26605
2733.34	5.67471
2734.68	6.31264
2736.02	6.25699
2737.36	5.97121
2738.7	5.72647
2740.04	5.84963
2741.38	6.29769
2742.72	6.03222
2744.05	6.09391
2745.39	5.70639
2746.73	5.59611
2748.07	5.26648
2749.41	4.85485
2750.75	4.95921
2752.08	4.64612
2753.42	4.83584
2754.76	5.04856
2756.09	4.49594
2757.43	3.9172
2758.77	3.70545
2760.1	3.51631
2761.44	3.25968
2762.78	3.6991
2764.11	3.47421
2765.44	3.49466
2766.78	3.05308
2768.11	3.15173
2769.45	2.92627
2770.78	2.96488
2772.12	2.094
2773.45	1.46189
2774.78	0.639782
2776.12	0.740901
2777.45	1.10343
2778.78	1.17176
2780.12	0.793887
2781.45	0.83459
2782.78	0.928183
2784.11	0.730076
2785.44	0.553687
2786.78	0.0172671
2788.11	-0.0654476
2789.44	0.506481
2790.77	0.115872
2792.1	-0.052478
2793.43	0.275916
2794.76	0.568958
2796.09	0.5888
2797.42	0.710008
2798.75	0.711209
2800.08	0.731045
2801.4	0.804707
2802.73	0.642812
2804.06	0.874976
2805.39	0.829551
2806.72	1.41341
2808.05	1.00487
2809.37	0.847099
2810.7	1.12332
2812.03	1.70873
2813.35	2.14028
2814.68	1.85815
2816.01	1.83122
2817.33	2.43714
2818.66	2.7301
2819.98	3.26231
2821.31	3.45071
2822.63	3.35456
2823.96	4.19201
2825.28	5.50912
2826.61	5.95461
2827.93	7.13771
2829.25	8.24618
2830.58	8.78367
2831.9	9.7502
2833.23	10.7902
2834.55	11.576
2835.87	12.7749
2837.19	14.2682
2838.52	15.2708
2839.84	17.123
2841.16	19.2367
2842.48	21.4162
2843.8	23.0855
2845.12	25.2914
2846.44	27.3624
2847.77	30.4598
2849.08	32.7243
2850.4	35.278
2851.73	37.4367
2853.05	40.0301
2854.36	42.5062
2855.68	45.4606
2857	47.5862
2858.32	50.5235
2859.64	53.0822
2860.96	55.7494
2862.28	58.3381
2863.59	60.697
2864.91	62.9415
2866.23	65.2837
2867.55	67.4872
2868.86	69.3048
2870.18	71.3007
2871.5	72.737
2872.81	74.7131
2874.13	76.0423
2875.44	78.4025
2876.76	80.0536
2878.07	81.4786
2879.39	82.7149
2880.7	83.7283
2882.02	85.7313
2883.33	87.5547
2884.65	89.2437
2885.96	90.5459
2887.28	91.3895
2888.59	92.7642
2889.9	93.9674
2891.21	95.1605
2892.53	96.2723
2893.84	97.8776
2895.15	99.6371
2896.46	101.117
2897.78	102.878
2899.09	104.83
2900.4	107.461
2901.71	110.599
2903.02	113.231
2904.33	115.362
2905.64	118.019
2906.95	121.798
2908.26	125.392
2909.57	129.009
2910.88	133.014
2912.19	136.236
2913.5	140.347
2914.81	143.407
2916.12	147.16
2917.43	150.361
2918.73	153.568
2920.04	156.764
2921.35	160.037
2922.66	162.748
2923.96	165.19
2925.27	167.123
2926.58	169.204
2927.88	170.602
2929.19	171.929
2930.5	173.099
2931.8	173.546
2933.11	173.929
2934.41	174.189
2935.72	174.097
2937.02	173.985
2938.33	173.274
2939.63	172.69
2940.94	171.771
2942.24	170.362
2943.54	168.596
2944.85	167.047
2946.15	165.12
2947.45	163.553
2948.76	160.893
2950.06	158.703
2951.36	155.498
2952.66	152.502
2953.97	149.966
2955.27	147.05
2956.57	144.615
2957.87	141.707
2959.17	138.383
2960.47	135.211
2961.77	132.051
2963.07	129.18
2964.37	126.485
2965.67	124.237
2966.97	121.168
2968.27	117.643
2969.57	114.767
2970.87	112.114
2972.17	110.004
2973.47	106.72
2974.77	103.817
2976.07	100.802
2977.36	98.1563
2978.66	95.1683
2979.96	91.8427
2981.26	89.0502
2982.55	85.7956
2983.85	82.647
2985.15	79.4147
2986.44	76.8713
2987.74	73.4243
2989.03	70.0708
2990.33	67.4859
2991.63	64.5893
2992.92	61.1038
2994.21	57.9922
2995.51	54.6812
2996.8	51.7087
2998.1	49.4444
2999.39	46.7874
3000.69	44.6271
3001.98	42.4939
3003.27	39.465
3004.57	37.5666
3005.86	35.3416
3007.15	33.4907
3008.44	31.4084
3009.74	30.0119
3011.03	28.7027
3012.32	27.4147
3013.61	25.75
3014.9	24.4779
3016.19	22.4682
3017.48	21.3049
3018.78	20.4259
3020.07	19.2231
3021.36	18.2237
3022.65	17.3361
3023.94	16.8354
3025.23	16.4568
3026.51	16.1955
3027.8	15.9218
3029.09	15.766
3030.38	15.7515
3031.67	15.4334
3032.96	15.4374
3034.24	15.8227
3035.53	15.8237
3036.82	16.7487
3038.11	16.6655
3039.39	16.7971
3040.68	17.2643
3041.97	17.5128
3043.25	17.2447
3044.54	18.1566
3045.83	18.7672
3047.11	19.2494
3048.4	19.1385
3049.68	19.0449
3050.97	19.6747
3052.25	19.436
3053.54	19.9515
3054.82	20.2713
3056.11	20.0501
3057.39	19.7714
3058.67	20.1493
3059.96	19.9037
3061.24	20.2045
3062.52	20.101
3063.81	19.2814
3065.09	18.9176
3066.37	17.9499
3067.65	17.1788
3068.94	17.1533
3070.22	16.7259
3071.5	16.1961
3072.78	15.164
3074.06	14.6293
3075.34	13.7895
3076.62	12.6578
3077.9	11.9172
3079.18	10.865
3080.46	9.49356
3081.74	8.47087
3083.02	7.71821
3084.3	6.9618
3085.58	6.20551
3086.86	5.7341
3088.14	4.69103
3089.42	4.10327
3090.69	3.57595
3091.97	3.31376
3093.25	3.02729
3094.53	2.76372
3095.8	2.61423
3097.08	2.76483
3098.36	2.51969
3099.63	2.24898
3100.91	1.90759
3102.19	1.16715
3103.46	1.36464
3104.74	1.42593
3106.01	1.06915
3107.29	1.49944
3108.56	1.94532
3109.84	2.08777
3111.11	1.93837
3112.39	1.58324
3113.66	1.78198
3114.94	2.28449
3116.21	2.57649
3117.48	2.35144
3118.76	2.20808
3120.03	2.27544
3121.3	2.23779
3122.57	2.56405
3123.85	2.58197
3125.12	3.04675
3126.39	2.69527
3127.66	2.34638
3128.93	2.54006
3130.21	2.3988
3131.48	2.36935
3132.75	2.41581
3134.02	1.99207
3135.29	1.57853
3136.56	1.21949
3137.83	0.827724
3139.1	0.399258
3140.37	0.134995
3141.64	-0.114224
3142.91	-0.516708
3144.17	-0.517237
3145.44	-0.485485
3146.71	-0.771676
3147.98	-0.694492
3149.25	0.254695
