#Acq. time (s)=	45
#Accumulations=	2
#Range (cm-¹)=	200...3150
#Windows=	2
#Auto scanning=	Off
#Autofocus=	Off
#Macrospot=	Off
#AutoExposure=	Off
#Spike filter=	Multiple accum.
#Delay time (s)=	0
#Binning=	1
#Readout mode=	Signal
#DeNoise=	Off
#ICS correction=	On
#Dark correction=	Off
#Inst. Process=	Off
#Detector Gain=	Best Dynamic Range
#Detector ADC=	20 kHz       
#Detector temperature (°C)=	-69.85
#Instrument=	LabRAM HR Evol
#Detector=	Synapse
#Objective=	x100
#Grating=	600 gr/mm
#ND Filter=	100%
#Laser (nm)=	532 
#Hole=	100.021
#Range=	Auto
#Laser Pol.=	No
#Raman. Pol.=	No
#Laser Pol. (°)=	-0.0007625
#Raman Pol. (°)=	89.9995
#Collection=	Microscope
#StageXY=	Marzhauser
#StageZ=	Marzhauser
#X (µm)=	2174.2
#Y (µm)=	1235.3
#Z (µm)=	443.35
#Full time(mm:ss)=	3:18
#Project=	
#Sample=	
#Site=	
#Title=	Thy_10_08_35_2x_45s_532 nm_x100_100%_600 gr_mm
#Remark=	
#Date=	05.07.2022 16:46
#Acquired=	05.07.2022 16:46:11
#Base:Fit=	10.08.2022 09:46:25
#Base:Sub=	10.08.2022 09:46:49
#Filter:Polynom=	16.08.2022 10:24:56
#AxisType[0]=Intens
#AxisUnit[0]=Cnt
#AxisType[1]=Spectr
#AxisUnit[1]=1/cm
200.43	0.103055
202.244	0.655819
204.059	0.196526
205.873	-0.0380432
207.688	0.261943
209.501	0.652856
211.314	0.955415
213.127	1.08356
214.941	1.21714
216.753	1.8198
218.564	2.56741
220.375	2.75201
222.186	3.3556
223.999	3.85088
225.809	3.86036
227.618	4.91171
229.428	5.13003
231.236	5.53291
233.045	6.24638
234.855	7.11133
236.663	8.1457
238.471	8.21039
240.278	9.38471
242.085	9.70522
243.891	10.5752
245.698	10.935
247.503	11.4478
249.309	12.2541
251.116	12.546
252.921	12.5567
254.725	12.995
256.529	13.3676
258.333	13.4098
260.136	13.3002
261.939	13.7105
263.742	13.5425
265.544	13.2324
267.346	13.4067
269.148	13.5572
270.949	13.3579
272.75	12.6368
274.55	12.7124
276.351	13.3005
278.15	12.7238
279.95	13.0517
281.749	13.3575
283.548	13.5863
285.346	14.5056
287.144	14.2935
288.942	14.3835
290.739	14.9258
292.536	15.599
294.333	16.3721
296.129	16.6541
297.925	16.3827
299.721	16.3142
301.514	16.5107
303.309	16.6402
305.104	17.2246
306.898	18.1321
308.692	18.7167
310.486	19.2104
312.279	20.0063
314.072	20.4601
315.862	20.6322
317.654	21.5784
319.446	21.8236
321.238	22.1794
323.029	23.0132
324.819	23.0477
326.608	23.6126
328.398	23.5076
330.188	24.0664
331.977	23.4396
333.766	23.6594
335.553	23.3534
337.341	23.3816
339.129	23.1914
340.917	22.0876
342.704	21.6617
344.489	21.1443
346.275	21.3203
348.062	21.0945
349.845	20.4681
351.631	20.3137
353.416	20.3386
355.201	19.4992
356.984	19.3601
358.768	19.007
360.552	18.2785
362.333	17.7225
364.116	17.0966
365.899	16.5381
367.68	16.364
369.462	16.1513
371.243	15.6158
373.023	15.494
374.804	15.5735
376.585	15.3586
378.363	15.2688
380.143	15.7308
381.923	15.054
383.7	14.675
385.479	14.0292
387.256	13.7033
389.034	13.9974
390.812	13.9232
392.588	13.8881
394.365	14.449
396.14	14.8203
397.916	14.9189
399.691	14.8664
401.467	14.4814
403.24	14.3774
405.015	13.9781
406.788	13.9178
408.563	13.1925
410.335	13.0116
412.109	12.8604
413.88	12.3341
415.654	12.2764
417.424	11.5221
419.197	11.3321
420.967	11.53
422.739	11.5722
424.508	11.4237
426.279	10.9257
428.048	10.8715
429.819	10.7272
431.587	10.8268
433.356	10.5122
435.124	10.8742
436.891	10.2811
438.66	9.63241
440.426	9.97879
442.194	9.84871
443.96	9.38192
445.725	9.49142
447.492	9.43235
449.257	9.03878
451.021	9.78873
452.787	10.0392
454.551	10.4232
456.314	11.1169
458.079	11.0525
459.842	11.8923
461.604	12.2772
463.368	12.8768
465.13	14.2821
466.891	14.9598
468.654	15.5635
470.415	15.8459
472.175	15.9131
473.935	15.4508
475.696	15.5829
477.456	15.8179
479.215	15.7149
480.973	16.7099
482.733	17.3894
484.491	17.4597
486.249	16.9318
488.006	16.7118
489.765	16.2762
491.522	16.3079
493.278	16.1826
495.034	15.8889
496.789	15.584
498.544	15.3973
500.301	14.9764
502.056	14.7354
503.81	14.3827
505.564	14.2641
507.317	14.4359
509.071	14.7825
510.825	14.3549
512.578	13.9139
514.33	13.971
516.082	14.6297
517.833	14.2038
519.585	13.7545
521.335	13.9742
523.086	14.6529
524.836	14.3296
526.586	14.2072
528.335	14.849
530.085	13.9149
531.835	14.1065
533.584	14.2018
535.332	14.2604
537.08	14.4424
538.827	14.8208
540.574	14.3034
542.321	14.7036
544.068	15.2852
545.814	15.0818
547.56	15.2796
549.305	14.6157
551.05	14.5193
552.795	14.0993
554.54	13.2865
556.282	12.0023
558.025	11.1671
559.769	10.389
561.512	10.27
563.255	10.3935
564.997	10.1115
566.739	9.61421
568.481	9.20765
570.223	7.92906
571.964	6.84965
573.705	5.56955
575.443	5.30261
577.183	4.24657
578.923	4.25131
580.663	3.61717
582.402	3.08148
584.141	2.80267
585.879	2.38453
587.615	2.36295
589.353	2.23998
591.09	2.09966
592.828	2.09016
594.564	2.43686
596.299	2.42412
598.035	1.4673
599.771	1.72385
601.506	2.84627
603.242	3.01194
604.974	3.08882
606.709	3.35746
608.443	3.94024
610.177	3.26383
611.908	3.06365
613.642	3.12113
615.374	3.46162
617.105	3.89221
618.837	4.19941
620.569	4.2726
622.3	4.74344
624.03	5.19498
625.761	5.85752
627.491	7.12513
629.219	7.71685
630.949	8.65588
632.677	8.32451
634.406	9.11618
636.135	9.39604
637.861	9.66348
639.59	10.614
641.318	11.2602
643.043	12.3662
644.77	13.2638
646.495	14.483
648.222	14.6683
649.948	14.7405
651.672	14.7463
653.398	15.7826
655.121	16.1185
656.846	16.7517
658.569	17.702
660.293	18.0507
662.015	18.7864
663.738	19.6351
665.46	20.6558
667.183	21.4694
668.903	22.5068
670.626	23.0309
672.346	23.6848
674.067	24.5454
675.787	25.35
677.508	26.1966
679.226	27.3379
680.947	27.7889
682.665	28.1205
684.385	29.0655
686.102	30.8329
687.821	31.2404
689.538	31.4793
691.254	32.6431
692.972	33.1201
694.688	33.5129
696.406	33.1962
698.121	34.4203
699.835	34.9355
701.552	35.211
703.266	35.8181
704.98	35.7137
706.695	36.9745
708.409	37.7761
710.121	38.3126
711.836	39.2749
713.548	40.0784
715.26	40.3734
716.973	41.4077
718.685	41.4098
720.396	42.3676
722.108	42.7762
723.818	43.8726
725.528	45.2671
727.238	45.3242
728.949	46.17
730.658	46.305
732.367	47.0222
734.075	47.2172
735.785	47.5005
737.493	47.8692
739.2	48.5293
740.907	48.8314
742.614	49.6108
744.322	50.7165
746.028	51.097
747.734	51.5173
749.439	52.9682
751.144	53.2344
752.849	54.986
754.555	56.3483
756.26	57.1787
757.963	57.9666
759.667	58.813
761.37	59.8548
763.073	61.0526
764.775	61.316
766.477	62.096
768.179	63.2954
769.883	65.0466
771.584	66.2385
773.285	66.5935
774.986	67.5857
776.686	68.7561
778.386	69.5699
780.085	69.4509
781.785	69.827
783.484	70.9501
785.182	71.2341
786.881	71.0453
788.579	71.9884
790.276	72.9781
791.974	73.8745
793.671	74.949
795.367	77.0336
797.064	78.6761
798.76	79.2005
800.456	80.5936
802.151	81.4879
803.846	81.9397
805.541	82.5272
807.234	82.8046
808.928	82.8435
810.622	82.7324
812.315	82.2261
814.008	82.4877
815.701	82.2801
817.394	82.08
819.086	81.6594
820.778	80.4391
822.468	79.9404
824.159	79.3575
825.85	78.8829
827.541	78.3847
829.231	78.3107
830.921	77.4814
832.609	76.4309
834.298	76.4912
835.987	75.2109
837.676	74.9926
839.364	73.3379
841.051	71.7616
842.738	70.603
844.426	69.4156
846.113	68.1925
847.798	67.3895
849.484	66.399
851.171	64.9386
852.857	63.0808
854.54	61.8991
856.226	60.0868
857.911	58.5626
859.593	57.7567
861.278	56.8764
862.961	55.1671
864.645	52.9077
866.327	52.1397
868.01	51.453
869.692	50.5898
871.373	50.9418
873.055	51.0992
874.735	50.8112
876.416	50.1639
878.097	50.8003
879.776	50.5081
881.457	50.0041
883.135	49.4884
884.815	49.0406
886.495	48.6696
888.172	48.2141
889.851	48.0618
891.528	47.859
893.206	48.3694
894.882	48.2764
896.56	47.7935
898.237	48.128
899.912	48.5878
901.589	48.2676
903.263	48.3682
904.94	48.4568
906.614	48.9444
908.289	49.957
909.962	50.7471
911.635	51.8417
913.31	51.348
914.982	51.7357
916.656	51.7398
918.328	51.8875
920.001	51.1309
921.672	50.9586
923.345	50.7425
925.015	51.1242
926.685	50.7475
928.357	50.9507
930.026	50.8189
931.698	50.5179
933.366	49.5832
935.035	48.2379
936.705	48.2534
938.373	47.8993
940.041	47.2717
941.71	46.4663
943.377	45.3858
945.044	44.4279
946.712	43.0275
948.378	42.2621
950.044	41.3629
951.709	40.5445
953.376	40.0077
955.041	38.2495
956.706	35.8994
958.372	34.3033
960.036	33.325
961.699	32.661
963.362	31.3812
965.027	30.8587
966.69	30.2683
968.352	29.0678
970.014	29.0865
971.676	28.3114
973.339	28.2327
975	27.9082
976.661	27.8272
978.322	26.8623
979.982	27.0311
981.642	27.6066
983.303	26.9765
984.962	26.6418
986.621	26.9229
988.28	26.5765
989.938	26.6322
991.596	26.0094
993.254	25.0118
994.911	23.927
996.57	23.3043
998.227	23.9566
999.884	22.8755
1001.54	22.239
1003.2	21.7636
1004.85	21.7649
1006.51	21.6199
1008.16	21.9414
1009.82	21.9579
1011.47	22.1256
1013.12	21.2091
1014.78	20.5045
1016.43	19.4246
1018.08	19.036
1019.74	18.8308
1021.39	18.3543
1023.04	18.2343
1024.69	17.6937
1026.34	17.4136
1028	17.0783
1029.65	16.7138
1031.3	16.4545
1032.95	15.744
1034.6	15.9035
1036.25	15.4729
1037.9	14.4095
1039.54	14.3212
1041.19	13.6247
1042.84	13.6997
1044.49	13.8925
1046.14	14.1036
1047.78	14.3168
1049.43	14.6842
1051.08	14.5348
1052.72	14.6011
1054.37	14.6388
1056.02	14.4726
1057.66	13.9852
1059.31	13.6593
1060.95	13.6003
1062.6	13.9795
1064.24	13.4033
1065.88	12.7319
1067.53	12.8274
1069.17	12.8654
1070.81	12.4102
1072.45	11.1088
1074.1	9.44676
1075.74	9.175
1077.38	8.86969
1079.02	8.73331
1080.66	7.65709
1082.3	6.65636
1083.94	6.55614
1085.58	6.09384
1087.22	5.75555
1088.86	5.4185
1090.5	5.63482
1092.14	5.34689
1093.78	5.12438
1095.42	4.74966
1097.05	4.44772
1098.69	4.21086
1100.33	5.16601
1101.96	5.45703
1103.6	6.01123
1105.24	6.23692
1106.87	6.64968
1108.51	7.14618
1110.14	7.14748
1111.78	7.45475
1113.41	7.21503
1115.05	7.41103
1116.68	7.27856
1118.31	6.88724
1119.95	6.82025
1121.58	6.67927
1123.21	7.37164
1124.85	8.24132
1126.48	8.24657
1128.11	8.46904
1129.74	9.3451
1131.37	9.64473
1133	10.0985
1134.63	10.1796
1136.26	10.7234
1137.89	11.0812
1139.52	11.8965
1141.15	12.5018
1142.78	13.0466
1144.41	12.8558
1146.04	12.9116
1147.66	13.3477
1149.29	13.5466
1150.92	13.2282
1152.55	12.9717
1154.17	11.8871
1155.8	12.2426
1157.43	12.2829
1159.05	12.2991
1160.68	11.9924
1162.3	11.6575
1163.93	11.2281
1165.55	11.2606
1167.17	10.7268
1168.8	10.4363
1170.42	10.4856
1172.05	10.5824
1173.67	9.97695
1175.29	9.59651
1176.91	8.74788
1178.54	8.59431
1180.16	8.15933
1181.78	8.1728
1183.4	7.48179
1185.02	7.47668
1186.64	6.66463
1188.26	6.34385
1189.88	5.33627
1191.5	4.3784
1193.12	4.43809
1194.74	4.71254
1196.36	4.4433
1197.97	4.21771
1199.59	5.03686
1201.21	5.81179
1202.83	6.49671
1204.44	7.42822
1206.06	7.90573
1207.68	8.83753
1209.29	10.7366
1210.91	11.6703
1212.52	12.2714
1214.14	13.5535
1215.75	14.5864
1217.37	15.3914
1218.98	16.4854
1220.59	17.5216
1222.21	18.1361
1223.82	18.4934
1225.43	19.6654
1227.05	20.9928
1228.66	21.8589
1230.27	22.5545
1231.88	22.9131
1233.49	23.9468
1235.1	24.0766
1236.72	24.2989
1238.33	24.4915
1239.94	25.456
1241.55	25.3036
1243.16	25.6867
1244.76	25.7127
1246.37	26.1543
1247.98	25.7578
1249.59	25.8166
1251.2	25.9511
1252.8	25.2791
1254.41	25.0784
1256.02	25.6506
1257.62	25.3529
1259.23	25.6216
1260.84	24.5205
1262.44	24.4726
1264.05	23.8732
1265.66	23.9859
1267.26	23.3181
1268.86	23.2175
1270.47	23.4927
1272.07	23.5341
1273.67	24.4443
1275.28	24.6395
1276.88	24.919
1278.48	25.7278
1280.09	26.6966
1281.69	27.1954
1283.29	27.5386
1284.89	28.5374
1286.49	29.2636
1288.09	29.9355
1289.69	30.2681
1291.29	30.2068
1292.89	31.3835
1294.49	32.038
1296.09	32.5715
1297.69	33.0702
1299.29	33.9627
1300.89	34.6893
1302.49	35.0724
1304.08	36.2666
1305.68	37.3612
1307.28	37.9752
1308.88	38.3537
1310.47	38.5409
1312.07	38.6843
1313.66	39.3882
1315.26	39.3975
1316.85	39.3955
1318.45	40.1062
1320.04	40.9276
1321.64	41.316
1323.23	41.3697
1324.83	41.2414
1326.42	41.337
1328.01	40.9042
1329.61	41.0538
1331.2	41.3906
1332.79	41.0789
1334.38	41.2851
1335.97	41.1975
1337.56	41.1555
1339.16	40.5125
1340.75	39.632
1342.34	39.6876
1343.93	39.1634
1345.52	39.0598
1347.11	37.9492
1348.7	37.5661
1350.29	37.6837
1351.87	36.0758
1353.46	35.701
1355.05	35.1721
1356.64	34.5363
1358.22	33.5898
1359.81	33.2454
1361.4	32.768
1362.98	32.543
1364.57	32.6638
1366.16	32.3055
1367.74	32.1231
1369.33	31.6933
1370.91	31.9955
1372.5	32.2912
1374.08	31.4586
1375.67	31.3124
1377.25	30.8902
1378.83	30.4853
1380.41	30.3203
1382	29.4871
1383.58	28.8647
1385.16	27.8467
1386.74	27.2202
1388.33	26.0697
1389.91	25.3889
1391.49	24.3858
1393.07	23.682
1394.65	22.5692
1396.23	22.0623
1397.81	21.7538
1399.39	21.1455
1400.97	20.4599
1402.55	19.3881
1404.13	18.868
1405.7	18.8004
1407.28	18.79
1408.86	20.2263
1410.44	20.6036
1412.01	20.5866
1413.59	21.1978
1415.17	21.9423
1416.74	22.5932
1418.32	22.5027
1419.89	23.6017
1421.47	24.2863
1423.04	24.9441
1424.62	25.8314
1426.19	27.0171
1427.77	29.0743
1429.34	30.3185
1430.91	31.2343
1432.49	33.179
1434.06	34.3905
1435.63	35.6415
1437.2	37.4645
1438.78	39.3246
1440.35	40.9637
1441.92	42.3496
1443.49	43.2864
1445.06	44.2217
1446.63	44.6885
1448.2	45.0644
1449.77	45.3303
1451.34	45.1016
1452.91	44.9472
1454.48	44.8647
1456.05	44.6266
1457.62	44.7414
1459.18	44.6866
1460.75	43.5232
1462.32	42.7232
1463.89	42.1612
1465.45	40.9822
1467.02	39.6364
1468.59	38.684
1470.15	36.6421
1471.72	35.0994
1473.28	33.7198
1474.85	32.5323
1476.41	31.4755
1477.98	30.0417
1479.54	29.3373
1481.1	28.1807
1482.67	27.2048
1484.23	26.8649
1485.79	25.7308
1487.36	24.4436
1488.92	22.5139
1490.48	21.2838
1492.04	20.4608
1493.61	19.3709
1495.17	18.2832
1496.73	17.2606
1498.29	16.7536
1499.85	16.3462
1501.41	16.268
1502.97	16.2915
1504.53	16.7563
1506.09	15.8034
1507.65	15.1317
1509.2	15.3809
1510.76	15.3952
1512.32	15.4277
1513.88	15.9858
1515.43	15.8557
1516.99	15.9222
1518.55	15.8547
1520.1	15.8687
1521.66	15.5545
1523.22	16.2361
1524.77	16.5265
1526.33	17.1161
1527.88	17.6567
1529.44	17.9898
1530.99	19.0361
1532.54	20.0461
1534.1	21.1025
1535.65	21.8176
1537.21	21.9541
1538.76	22.019
1540.31	22.9552
1541.86	23.6091
1543.42	24.0098
1544.97	24.7495
1546.52	26.0781
1548.07	26.737
1549.62	28.3603
1551.17	29.5222
1552.72	30.7838
1554.27	32.1839
1555.82	32.3553
1557.37	33.6406
1558.92	34.6559
1560.47	36.1056
1562.02	37.3872
1563.56	38.258
1565.11	39.0496
1566.66	40.6221
1568.21	41.4656
1569.75	42.9998
1571.3	43.6894
1572.85	44.4028
1574.39	46.009
1575.94	47.7959
1577.49	48.7315
1579.03	49.667
1580.57	50.1659
1582.12	50.6629
1583.66	50.524
1585.21	51.5754
1586.75	51.9677
1588.3	52.7458
1589.84	52.9892
1591.38	53.0614
1592.92	52.636
1594.47	53.1062
1596.01	52.5442
1597.55	52.3236
1599.09	52.2701
1600.63	52.2312
1602.17	51.2922
1603.71	50.9745
1605.25	50.4877
1606.79	49.6372
1608.33	49.6698
1609.87	48.9792
1611.41	48.1264
1612.95	46.9609
1614.49	46.1876
1616.03	45.5928
1617.57	45.0105
1619.1	44.3321
1620.64	44.1701
1622.18	43.8851
1623.72	43.8572
1625.25	43.7
1626.79	43.7211
1628.32	42.9016
1629.86	42.7812
1631.39	42.8907
1632.93	42.4037
1634.46	43.1872
1636	43.1662
1637.53	43.3742
1639.07	42.5972
1640.6	42.9801
1642.13	42.8365
1643.67	43.2251
1645.2	43.3349
1646.73	43.3571
1648.26	43.2921
1649.8	43.3438
1651.33	43.7812
1652.86	43.0743
1654.39	42.4015
1655.92	42.1843
1657.45	41.7033
1658.98	41.4251
1660.51	41.4571
1662.04	41.5049
1663.57	41.2134
1665.1	41.1174
1666.63	40.2775
1668.16	39.4975
1669.68	38.6772
1671.21	37.8565
1672.74	37.1945
1674.27	37.1344
1675.79	36.3349
1677.32	35.4476
1678.85	34.4165
1680.37	34.1104
1681.9	32.9427
1683.42	31.3714
1684.95	30.6044
1686.47	29.2428
1688	28.0587
1689.52	26.5161
1691.05	25.16
1692.57	24.0087
1694.09	22.6517
1695.62	22.1793
1697.14	21.2652
1698.66	20.281
1700.18	19.5182
1701.71	18.8641
1703.23	17.7228
1704.75	16.4654
1706.27	16.0534
1707.79	15.5578
1709.31	14.8664
1710.83	14.1447
1712.35	13.3986
1713.87	13.5592
1715.39	13.4186
1716.91	13.5232
1718.43	12.6309
1719.95	12.5654
1721.47	12.4424
1722.99	11.8816
1724.5	11.9756
1726.02	11.7498
1727.54	11.7535
1729.06	11.658
1730.57	12.0882
1732.09	12.4566
1733.61	12.8192
1735.12	12.9509
1736.64	12.9989
1738.15	12.8606
1739.67	13.0912
1741.18	13.1504
1742.7	13.2865
1744.21	12.8639
1745.72	12.497
1747.24	12.4713
1748.75	12.976
1750.26	12.5894
1751.77	12.1727
1753.29	11.9809
1754.8	11.4825
1756.31	11.1383
1757.82	10.3485
1759.33	10.3166
1760.84	10.3242
1762.36	9.66101
1763.87	9.58299
1765.38	9.56689
1766.89	9.71647
1768.4	10.0978
1769.91	10.0571
1771.41	10.8153
1772.92	10.3327
1774.43	10.3907
1775.94	10.3009
1777.45	10.3279
1778.95	10.4613
1780.46	10.4265
1781.97	10.3252
1783.48	10.0837
1784.98	9.92337
1786.49	9.36497
1787.99	9.71236
1789.5	9.63122
1791.01	8.78571
1792.51	8.12058
1794.01	8.33438
1795.52	8.55757
1797.02	8.4182
1798.53	7.99352
1800.03	8.1891
1801.53	8.08195
1803.04	7.79203
1804.54	7.86592
1806.04	7.82786
1807.54	7.56255
1809.05	7.42577
1810.55	6.80131
1812.05	6.19969
1813.55	6.33813
1815.05	6.27008
1816.55	5.59715
1818.05	5.1111
1819.55	5.09976
1821.05	5.12649
1822.55	4.99918
1824.05	4.79328
1825.55	4.4226
1827.05	3.83835
1828.55	3.49581
1830.04	3.34518
1831.54	3.07494
1833.04	3.38623
1834.54	3.88052
1836.03	3.46145
1837.53	3.41578
1839.03	3.84255
1840.52	3.92804
1842.02	3.77532
1843.51	3.60698
1845.01	3.30357
1846.5	2.90448
1848	2.67074
1849.49	2.80301
1850.99	2.08391
1852.48	1.56165
1853.97	1.37289
1855.47	0.469491
1856.96	0.290064
1858.45	0.218501
1859.94	0.209894
1861.44	-0.601253
1862.93	-1.05916
1864.42	-1.73474
1865.91	-1.79306
1867.4	-1.08328
1868.89	-0.861337
1870.38	-0.738729
1871.87	-0.838732
1873.36	-0.493676
1874.85	0.0456367
1876.34	-0.0368903
1877.83	0.446899
1879.32	1.00325
1880.81	1.21096
1882.3	1.55911
1882.57	1.71944
1884.07	1.53044
1885.56	1.49574
1887.06	1.86789
1888.55	1.69961
1890.04	2.57594
1891.54	2.9058
1893.03	3.50002
1894.52	3.58533
1896.02	3.55845
1897.51	4.57748
1899	4.60049
1900.49	5.2509
1901.98	5.33034
1903.47	5.80996
1904.96	5.70369
1906.45	5.9073
1907.94	5.86549
1909.43	5.52758
1910.92	5.55041
1912.41	5.6837
1913.9	6.06838
1915.39	6.15639
1916.88	6.07108
1918.37	5.50413
1919.85	5.78015
1921.34	5.28344
1922.83	4.61352
1924.32	4.36022
1925.8	4.32447
1927.29	4.02036
1928.78	3.69287
1930.26	3.58057
1931.75	3.2102
1933.23	3.07262
1934.72	2.05589
1936.2	2.89649
1937.69	3.26681
1939.17	4.15982
1940.66	4.37449
1942.14	3.77128
1943.63	4.24973
1945.11	4.06523
1946.59	4.22042
1948.07	4.8214
1949.56	4.33972
1951.04	4.84399
1952.52	4.63187
1954	4.35755
1955.48	4.48096
1956.96	4.52362
1958.45	4.09311
1959.93	4.31953
1961.41	4.98504
1962.89	5.18616
1964.37	5.91555
1965.85	6.08783
1967.32	6.05937
1968.8	6.33304
1970.28	5.9269
1971.76	5.31682
1973.24	4.5956
1974.72	4.44422
1976.19	3.4163
1977.67	3.52352
1979.15	3.363
1980.63	3.54327
1982.1	3.87435
1983.58	4.22409
1985.05	4.52761
1986.53	4.61013
1988	4.91154
1989.48	4.8368
1990.95	4.57101
1992.43	3.88704
1993.9	4.02
1995.38	3.32108
1996.85	3.58918
1998.32	3.36659
1999.8	3.1386
2001.27	2.58053
2002.74	2.71619
2004.22	2.8763
2005.69	2.81359
2007.16	3.01003
2008.63	2.95704
2010.1	4.0501
2011.57	3.46413
2013.04	3.62772
2014.51	3.34431
2015.98	3.27525
2017.45	3.52436
2018.92	3.24073
2020.39	3.8132
2021.86	4.12826
2023.33	3.99804
2024.8	4.38991
2026.27	4.07722
2027.74	4.26397
2029.2	4.80128
2030.67	5.15112
2032.14	4.94947
2033.61	5.44215
2035.07	5.53843
2036.54	5.82885
2038.01	5.92338
2039.47	5.99994
2040.94	5.76682
2042.4	6.29159
2043.87	5.87295
2045.33	5.87177
2046.8	7.07808
2048.26	6.77177
2049.72	7.22398
2051.19	8.22653
2052.65	8.67784
2054.12	8.84643
2055.58	10.0403
2057.04	10.2091
2058.5	10.0383
2059.97	9.7067
2061.43	10.0299
2062.89	10.0963
2064.35	10.0802
2065.81	10.4417
2067.27	10.3276
2068.73	9.96971
2070.19	10.0036
2071.65	10.4405
2073.11	10.3079
2074.57	9.79336
2076.03	10.112
2077.49	10.3379
2078.95	10.0804
2080.41	10.2644
2081.87	10.0233
2083.32	9.90717
2084.78	9.45522
2086.24	9.7242
2087.7	9.8934
2089.15	9.85987
2090.61	9.93124
2092.07	10.2713
2093.52	10.3721
2094.98	10.1881
2096.43	10.6233
2097.89	10.3385
2099.34	10.4304
2100.8	10.735
2102.25	11.039
2103.71	11.0873
2105.16	10.8457
2106.61	10.8018
2108.07	11.2385
2109.52	11.9157
2110.97	11.7973
2112.43	12.1205
2113.88	12.3673
2115.33	12.4177
2116.78	12.5571
2118.23	12.5161
2119.68	12.8408
2121.13	12.6245
2122.59	13.4882
2124.04	13.3588
2125.49	13.1812
2126.94	13.3498
2128.39	13.8324
2129.83	13.2576
2131.28	13.4059
2132.73	13.6912
2134.18	14.3038
2135.63	14.4407
2137.08	14.4963
2138.53	14.1541
2139.97	13.797
2141.42	14.0137
2142.87	14.349
2144.31	14.2386
2145.76	13.9416
2147.21	14.2026
2148.65	14.6956
2150.1	14.9066
2151.54	14.7854
2152.99	14.9376
2154.43	14.9773
2155.88	15.579
2157.32	16.1334
2158.77	16.6629
2160.21	16.8625
2161.65	17.0779
2163.1	17.2412
2164.54	17.2825
2165.98	17.2007
2167.43	17.6239
2168.87	18.0003
2170.31	17.9887
2171.75	18.1027
2173.19	18.0288
2174.64	18.3725
2176.07	18.5928
2177.52	18.9388
2178.96	19.2498
2180.4	19.0657
2181.84	18.7457
2183.28	18.2732
2184.72	18.0736
2186.15	17.6004
2187.59	17.3097
2189.03	17.3653
2190.47	17.0995
2191.91	16.5122
2193.35	15.9596
2194.78	15.8461
2196.22	15.0395
2197.66	15.3401
2199.09	15.0275
2200.53	14.2466
2201.97	13.4137
2203.4	13.1247
2204.84	12.6218
2206.27	12.5049
2207.71	11.6488
2209.14	11.3584
2210.58	11.0214
2212.01	10.9763
2213.45	10.1992
2214.88	9.98547
2216.31	9.44972
2217.75	9.44629
2219.18	8.86333
2220.61	8.37062
2222.05	7.83537
2223.48	7.8823
2224.91	7.53169
2226.34	7.22547
2227.78	7.39916
2229.21	6.99369
2230.64	6.65649
2232.07	6.69953
2233.5	7.25608
2234.93	7.0555
2236.36	6.94837
2237.79	6.98105
2239.22	7.15634
2240.65	7.06343
2242.08	6.89756
2243.5	6.99106
2244.93	6.67382
2246.36	7.4998
2247.79	7.69337
2249.22	7.61213
2250.64	6.9457
2252.07	7.062
2253.5	7.27926
2254.92	7.43791
2256.35	7.38397
2257.78	7.22077
2259.2	7.03617
2260.63	7.20488
2262.05	7.09056
2263.48	6.64497
2264.9	7.29282
2266.33	6.90315
2267.75	6.52805
2269.18	6.56342
2270.6	6.3534
2272.02	6.04869
2273.45	6.56438
2274.87	6.68456
2276.29	6.49093
2277.71	6.71623
2279.14	6.16289
2280.56	6.4224
2281.98	6.67407
2283.4	6.47209
2284.82	6.13798
2286.24	5.97304
2287.66	5.88475
2289.08	5.70467
2290.5	4.90012
2291.92	4.42165
2293.34	4.46267
2294.76	4.43453
2296.18	4.38139
2297.6	4.99611
2299.02	5.42161
2300.44	5.70296
2301.86	6.17945
2303.27	6.75223
2304.69	6.9217
2306.11	7.18483
2307.53	7.22559
2308.94	7.51123
2310.36	7.63149
2311.78	7.50965
2313.19	7.87324
2314.61	7.93062
2316.02	8.18517
2317.44	8.81762
2318.85	8.51953
2320.27	8.16959
2321.68	8.1764
2323.1	8.70403
2324.51	8.17107
2325.92	8.30341
2327.34	7.67245
2328.75	7.36895
2330.16	7.02368
2331.58	7.33479
2332.99	7.45519
2334.4	7.40773
2335.81	7.3083
2337.23	6.9838
2338.64	7.24819
2340.05	6.70992
2341.46	6.50802
2342.87	5.88109
2344.28	5.86652
2345.69	5.36496
2347.1	5.06662
2348.51	5.02237
2349.92	4.37388
2351.33	4.1382
2352.74	3.8889
2354.15	3.41485
2355.55	2.64945
2356.96	2.06569
2358.37	2.03974
2359.78	2.01405
2361.19	1.62288
2362.59	2.00274
2364	2.71898
2365.41	3.07604
2366.81	3.55289
2368.22	3.81487
2369.62	3.75711
2371.03	3.71317
2372.44	3.86974
2373.84	3.90927
2375.24	4.16985
2376.65	3.80755
2378.05	3.33333
2379.46	3.33592
2380.86	2.6474
2382.26	2.58028
2383.67	2.80725
2385.07	3.04236
2386.47	3.27186
2387.88	3.02888
2389.28	3.00011
2390.68	3.19304
2392.08	3.66258
2393.48	3.79378
2394.89	3.94318
2396.29	4.07619
2397.69	4.3779
2399.09	5.07252
2400.49	5.23933
2401.89	5.68816
2403.29	6.13482
2404.69	5.70531
2406.09	5.3598
2407.48	4.93938
2408.88	4.21069
2410.28	4.22501
2411.68	4.55088
2413.08	4.67295
2414.48	4.71311
2415.87	4.70841
2417.27	4.84545
2418.67	5.17993
2420.06	5.48167
2421.46	5.46829
2422.86	5.53535
2424.25	5.53473
2425.65	5.17124
2427.04	5.7881
2428.44	5.8824
2429.83	6.24216
2431.23	6.34869
2432.62	6.59564
2434.02	6.23251
2435.41	5.99129
2436.81	5.83034
2438.2	5.36063
2439.59	5.29654
2440.99	5.08278
2442.38	4.8152
2443.77	4.58058
2445.16	4.25135
2446.56	3.57343
2447.95	3.59743
2449.34	3.01244
2450.73	2.48706
2452.12	2.5
2453.51	2.52748
2454.9	2.44486
2456.29	1.89971
2457.68	1.94461
2459.07	2.12652
2460.46	2.18074
2461.85	1.77687
2463.24	1.22533
2464.63	1.48055
2466.02	1.4064
2467.4	1.77669
2468.79	1.09467
2470.18	1.15452
2471.57	0.957288
2472.95	1.44291
2474.34	1.11109
2475.73	1.03006
2477.12	1.41788
2478.5	1.57585
2479.89	1.85329
2481.27	2.01029
2482.66	2.16948
2484.04	2.0088
2485.43	1.96968
2486.81	2.22195
2488.2	2.15131
2489.58	2.31366
2490.97	1.7704
2492.35	1.6248
2493.73	1.76269
2495.12	2.0897
2496.5	2.05563
2497.88	2.1653
2499.27	2.4959
2500.65	2.55044
2502.03	1.90693
2503.41	1.59991
2504.79	1.34267
2506.17	1.66118
2507.56	1.4797
2508.94	1.889
2510.32	1.50126
2511.7	1.36099
2513.08	1.67173
2514.46	1.50655
2515.84	1.48895
2517.22	1.52381
2518.59	1.70276
2519.97	1.94941
2521.35	2.33999
2522.73	2.57139
2524.11	2.52458
2525.49	2.72337
2526.86	3.50687
2528.24	3.40244
2529.62	3.32991
2530.99	3.07005
2532.37	3.71306
2533.75	4.50318
2535.12	4.78227
2536.5	5.48523
2537.88	5.69249
2539.25	6.65319
2540.63	6.34855
2542	6.38948
2543.38	5.96616
2544.75	5.74188
2546.12	5.43712
2547.5	4.88758
2548.87	4.64592
2550.24	4.10202
2551.62	3.70351
2552.99	3.56881
2554.36	3.74097
2555.74	3.52353
2557.11	3.12675
2558.48	3.31317
2559.85	3.10465
2561.22	3.06211
2562.59	2.92266
2563.96	2.7124
2565.34	2.49144
2566.71	2.48303
2568.08	2.25176
2569.45	2.20628
2570.82	1.89905
2572.18	1.70089
2573.55	1.7758
2574.92	2.27741
2576.29	1.74128
2577.66	1.85524
2579.03	1.83345
2580.4	2.13467
2581.77	2.54448
2583.13	2.32167
2584.5	2.17017
2585.87	2.34337
2587.23	2.60532
2588.6	2.72051
2589.97	3.10033
2591.33	2.98103
2592.7	2.43045
2594.06	2.42951
2595.43	2.4198
2596.79	2.04833
2598.16	2.18955
2599.52	2.22732
2600.89	2.40349
2602.25	2.44733
2603.62	2.36377
2604.98	2.37563
2606.34	1.95982
2607.71	1.22817
2609.07	0.90767
2610.43	0.749209
2611.79	0.674366
2613.16	0.212433
2614.52	-0.376692
2615.88	-0.0932125
2617.24	0.0481674
2618.6	-0.113453
2619.96	0.613752
2621.32	0.595155
2622.68	0.814096
2624.04	0.681733
2625.4	1.42973
2626.76	1.77709
2628.12	1.87845
2629.48	1.79863
2630.84	2.25369
2632.2	2.1711
2633.56	2.33725
2634.92	2.03387
2636.28	2.58828
2637.63	2.95736
2638.99	3.19864
2640.35	3.72748
2641.71	4.21131
2643.06	4.23189
2644.42	4.30475
2645.77	4.20212
2647.13	4.80662
2648.49	4.85519
2649.84	5.0606
2651.2	4.95179
2652.55	4.63675
2653.91	4.98336
2655.26	4.62423
2656.62	4.19414
2657.97	3.62786
2659.33	2.78242
2660.68	2.55464
2662.03	2.75769
2663.39	2.83844
2664.74	2.77781
2666.09	2.53072
2667.44	2.28616
2668.8	1.99002
2670.15	1.70459
2671.5	1.67067
2672.85	1.52269
2674.2	1.11087
2675.55	0.957014
2676.91	1.17896
2678.26	0.856783
2679.61	0.692216
2680.96	0.518935
2682.31	0.47012
2683.66	0.93948
2685	0.995969
2686.35	0.613524
2687.7	1.20202
2689.05	0.961737
2690.4	1.30277
2691.75	1.35815
2693.1	1.73353
2694.44	1.84878
2695.79	1.83156
2697.14	2.27602
2698.49	2.0714
2699.83	1.65789
2701.18	1.92849
2702.52	2.5751
2703.87	3.42232
2705.22	4.28181
2706.56	4.16241
2707.91	4.15103
2709.25	4.23579
2710.6	4.30563
2711.94	4.25817
2713.29	4.00891
2714.63	4.15111
2715.97	3.71689
2717.32	3.76819
2718.66	3.08058
2720.01	3.17835
2721.35	3.10749
2722.69	2.57927
2724.03	2.80587
2725.38	2.97745
2726.72	3.15944
2728.06	3.40868
2729.4	3.41803
2730.74	3.7602
2732.08	3.65017
2733.42	3.39299
2734.76	3.5284
2736.1	3.46409
2737.44	3.50105
2738.78	3.84892
2740.12	3.6235
2741.46	3.30134
2742.8	3.61182
2744.14	3.62983
2745.48	3.64415
2746.82	3.85436
2748.16	3.77991
2749.49	3.51148
2750.83	3.58706
2752.17	3.22806
2753.51	3.15512
2754.84	3.39488
2756.18	3.29683
2757.52	3.65369
2758.85	3.56824
2760.19	3.7307
2761.53	3.40818
2762.86	3.41962
2764.2	3.63225
2765.53	3.56491
2766.87	3.86349
2768.2	4.25573
2769.54	4.70314
2770.87	4.81321
2772.2	4.77451
2773.54	4.15239
2774.87	4.2664
2776.2	4.36602
2777.54	3.83789
2778.87	4.0336
2780.2	4.0883
2781.53	3.7279
2782.87	3.72447
2784.2	3.68368
2785.53	3.69726
2786.86	4.14646
2788.19	3.76306
2789.52	4.057
2790.85	4.43517
2792.18	4.63278
2793.51	4.32209
2794.84	3.89155
2796.17	3.942
2797.5	3.70697
2798.83	3.27029
2800.16	2.80418
2801.49	2.68016
2802.82	2.09904
2804.15	1.70966
2805.47	1.6795
2806.8	1.28924
2808.13	0.830123
2809.46	0.814423
2810.78	0.768001
2812.11	0.591251
2813.44	0.762675
2814.76	0.236934
2816.09	-0.085076
2817.42	0.749423
2818.74	0.771759
2820.07	1.17093
2821.39	1.62631
2822.72	2.18235
2824.04	2.16524
2825.37	2.31923
2826.69	3.38019
2828.02	3.70053
2829.34	4.45004
2830.66	4.72625
2831.99	5.48127
2833.31	5.97012
2834.63	6.39747
2835.96	7.00689
2837.28	8.52448
2838.6	9.02477
2839.92	9.68094
2841.24	10.3157
2842.57	10.9524
2843.89	12.0894
2845.21	13.5521
2846.53	14.6002
2847.85	15.4287
2849.17	16.9882
2850.49	18.1378
2851.81	19.2195
2853.13	19.9701
2854.45	21.2653
2855.77	22.0147
2857.09	22.6198
2858.41	23.3197
2859.72	23.8259
2861.04	24.559
2862.36	25.4317
2863.68	26.2586
2865	27.1674
2866.31	28.4757
2867.63	29.9636
2868.95	31.1017
2870.26	32.366
2871.58	33.4437
2872.9	34.0409
2874.21	35.1036
2875.53	35.9835
2876.84	37.0323
2878.16	37.6383
2879.47	38.6866
2880.79	39.3453
2882.1	40.2697
2883.42	41.7377
2884.73	42.2123
2886.05	43.4809
2887.36	44.2826
2888.67	45.0072
2889.99	45.1168
2891.3	46.1273
2892.61	47.0736
2893.92	47.2968
2895.24	47.8517
2896.55	48.6749
2897.86	49.7174
2899.17	50.46
2900.48	51.671
2901.79	53.3712
2903.11	54.7309
2904.42	54.6254
2905.73	55.3045
2907.04	56.7939
2908.35	58.2387
2909.66	60.0686
2910.97	61.5387
2912.27	62.2072
2913.58	63.3261
2914.89	64.5987
2916.2	65.4291
2917.51	66.6025
2918.82	67.1481
2920.13	67.9588
2921.43	68.5086
2922.74	69.2827
2924.05	70.3489
2925.35	71.0395
2926.66	71.7507
2927.97	72.3303
2929.27	72.8309
2930.58	73.1807
2931.89	73.3878
2933.19	73.1439
2934.5	72.6689
2935.8	72.6287
2937.11	72.0263
2938.41	71.6413
2939.72	71.1269
2941.02	70.6201
2942.32	70.2358
2943.63	69.3136
2944.93	68.5539
2946.24	68.0579
2947.54	67.3313
2948.84	66.7863
2950.14	65.6268
2951.45	64.5499
2952.75	62.8489
2954.05	61.8796
2955.35	60.497
2956.65	59.546
2957.95	58.1547
2959.26	56.9511
2960.56	56.0711
2961.86	54.8817
2963.16	53.3883
2964.46	51.9767
2965.76	50.9302
2967.06	49.8903
2968.36	48.6555
2969.66	47.5913
2970.96	46.8822
2972.25	46.3718
2973.55	45.5873
2974.85	44.4031
2976.15	42.6422
2977.45	40.8493
2978.74	40.0001
2980.04	38.2523
2981.34	36.9522
2982.64	36.0166
2983.93	34.4285
2985.23	33.1737
2986.52	31.8044
2987.82	30.4293
2989.12	29.1543
2990.41	27.6909
2991.71	26.5038
2993	25.3198
2994.3	24.3804
2995.59	23.5126
2996.89	22.3537
2998.18	21.4609
2999.48	20.6746
3000.77	19.6065
3002.06	18.573
3003.36	17.8252
3004.65	17.371
3005.94	16.9749
3007.23	16.0603
3008.53	15.145
3009.82	14.7101
3011.11	14.1189
3012.4	13.4239
3013.69	12.9621
3014.99	12.328
3016.28	12.0295
3017.57	11.4867
3018.86	11.2477
3020.15	10.2301
3021.44	9.54221
3022.73	9.15495
3024.02	9.27217
3025.31	8.99893
3026.6	8.20457
3027.89	8.1339
3029.18	7.99913
3030.46	7.99808
3031.75	8.43696
3033.04	8.73753
3034.33	8.58856
3035.62	8.33731
3036.9	8.23934
3038.19	8.07806
3039.48	7.08828
3040.76	6.51752
3042.05	6.46863
3043.34	6.65955
3044.62	6.49014
3045.91	6.70486
3047.19	6.8477
3048.48	6.65586
3049.77	6.63001
3051.05	6.70133
3052.34	7.05432
3053.62	7.08204
3054.9	7.15047
3056.19	7.06156
3057.47	7.08349
3058.76	7.26959
3060.04	6.87113
3061.32	6.93307
3062.61	7.09612
3063.89	6.96306
3065.17	6.91138
3066.45	7.32751
3067.74	7.33452
3069.02	6.96763
3070.3	6.60232
3071.58	6.31559
3072.86	6.17387
3074.14	6.41496
3075.42	6.41479
3076.7	6.46767
3077.99	6.08466
3079.26	6.00271
3080.54	5.79244
3081.82	5.33274
3083.1	4.89204
3084.38	4.5091
3085.66	4.01345
3086.94	4.06138
3088.22	3.5426
3089.5	3.14562
3090.78	3.0327
3092.05	3.12726
3093.33	2.67397
3094.61	2.99264
3095.89	3.45844
3097.16	3.0069
3098.44	2.73149
3099.72	2.88348
3100.99	2.80773
3102.27	2.5701
3103.54	2.27729
3104.82	2.49454
3106.1	2.4857
3107.37	2.98919
3108.65	2.88037
3109.92	2.88616
3111.2	2.96772
3112.47	3.06088
3113.74	3.11437
3115.02	2.70918
3116.29	2.77668
3117.56	2.6487
3118.84	2.60062
3120.11	2.59387
3121.38	2.73187
3122.66	2.86134
3123.93	2.45688
3125.2	2.79665
3126.47	2.61654
3127.74	2.53732
3129.01	2.79364
3130.29	2.67498
3131.56	2.29075
3132.83	1.94812
3134.1	2.24847
3135.37	2.12964
3136.64	1.85987
3137.91	1.47568
3139.18	0.822183
3140.45	0.24612
3141.72	-0.293486
3142.99	-0.7776
3144.26	-1.43387
3145.52	-1.88013
3146.79	-1.9838
3148.06	-1.97683
3149.33	-1.08288
