#Acq. time (s)=	45
#Accumulations=	2
#Range (cm-¹)=	200...3150
#Windows=	2
#Auto scanning=	Off
#Autofocus=	Off
#Macrospot=	Off
#AutoExposure=	Off
#Spike filter=	Multiple accum.
#Delay time (s)=	0
#Binning=	1
#Readout mode=	Signal
#DeNoise=	Off
#ICS correction=	On
#Dark correction=	Off
#Inst. Process=	Off
#Detector Gain=	Best Dynamic Range
#Detector ADC=	20 kHz       
#Detector temperature (°C)=	-69.85
#Instrument=	LabRAM HR Evol
#Detector=	Synapse
#Objective=	x100
#Grating=	600 gr/mm
#ND Filter=	100%
#Laser (nm)=	532 
#Hole=	100.021
#Range=	Auto
#Laser Pol.=	No
#Raman. Pol.=	No
#Laser Pol. (°)=	-0.0007625
#Raman Pol. (°)=	89.9995
#Collection=	Microscope
#StageXY=	Marzhauser
#StageZ=	Marzhauser
#X (µm)=	4768
#Y (µm)=	-7729.5
#Z (µm)=	584.55
#Full time(mm:ss)=	3:18
#Project=	
#Sample=	
#Site=	
#Title=	Thy_30_10_20_2x_45s_532 nm_x100_100%_600 gr_mm
#Remark=	
#Date=	30.06.2022 12:54
#Acquired=	30.06.2022 12:54:56
#Base:Fit=	10.08.2022 09:58:11
#Base:Sub=	10.08.2022 09:58:44
#Filter:Polynom=	16.08.2022 10:22:53
#AxisType[0]=Intens
#AxisUnit[0]=Cnt
#AxisType[1]=Spectr
#AxisUnit[1]=1/cm
200.533	6.05248
202.348	5.40355
204.162	4.89952
205.976	5.98794
207.792	6.75604
209.605	7.14602
211.418	6.97589
213.23	6.93969
215.044	7.27342
216.856	6.86432
218.667	5.99727
220.478	5.99583
222.289	5.36351
224.102	5.3259
225.912	5.93244
227.721	4.89364
229.531	4.27283
231.34	3.60804
233.148	3.51651
234.956	3.80603
236.766	4.79544
238.574	5.2389
240.381	5.34922
242.188	6.45413
243.994	6.97097
245.801	6.94357
247.606	7.52143
249.412	7.66357
251.217	9.14167
253.024	9.28666
254.828	8.83158
256.632	8.56504
258.436	7.77681
260.239	7.95661
262.042	7.8918
263.845	8.11208
265.647	8.37589
267.449	10.3197
269.25	11.0186
271.052	11.9897
272.852	11.2762
274.653	11.7878
276.453	12.4444
278.253	12.4648
280.052	13.4209
281.852	14.0809
283.65	14.5942
285.449	14.2737
287.247	15.1581
289.044	15.8841
290.842	16.4177
292.639	17.1226
294.436	17.6186
296.232	16.7107
298.028	17.0291
299.821	16.1422
301.617	16.5482
303.412	17.7316
305.206	18.1204
307	17.5942
308.794	17.9384
310.588	18.2766
312.381	18.5201
314.172	19.1914
315.964	18.8962
317.756	18.5652
319.548	19.7165
321.34	20.0059
323.131	21.0129
324.921	21.2858
326.71	21.5391
328.5	21.007
330.29	21.1441
332.079	21.7111
333.868	21.3985
335.654	20.8725
337.443	20.6343
339.231	20.7338
341.018	20.8171
342.804	19.874
344.591	19.5027
346.377	19.9218
348.163	19.9946
349.947	20.7826
351.733	20.9406
353.518	20.7224
355.303	20.7177
357.085	20.8962
358.869	20.0107
360.653	19.6988
362.435	18.5527
364.218	18.3605
366.001	17.6811
367.781	18.1508
369.563	19.2581
371.345	18.838
373.124	19.7265
374.905	19.8522
376.686	19.6529
378.464	19.9519
380.244	19.1662
382.022	19.8235
383.801	20.0541
385.58	19.6335
387.357	19.6726
389.135	19.3297
390.911	19.7849
392.689	19.1227
394.466	18.0539
396.241	17.1796
398.018	16.8961
399.792	16.2376
401.568	15.8802
403.341	15.816
405.117	15.7278
406.889	16.063
408.664	15.4688
410.436	14.3066
412.21	13.9927
413.981	13.0233
415.755	13.2333
417.525	13.0704
419.298	12.4962
421.068	11.9302
422.84	11.6874
424.609	11.1757
426.38	11.6488
428.149	11.7702
429.919	11.2715
431.688	11.1364
433.455	11.2896
435.225	11.8729
436.992	11.4629
438.76	11.187
440.527	10.5073
442.293	10.5693
444.06	10.2559
445.826	10.2188
447.593	10.7395
449.357	11.069
451.122	11.0279
452.888	12.1867
454.651	13.2731
456.415	14.1887
458.18	14.45
459.942	14.3996
461.705	14.7588
463.469	14.3119
465.23	14.3168
466.991	14.8678
468.752	15.1199
470.515	15.9777
472.275	15.5303
474.035	15.4245
475.797	15.3168
477.556	15.6697
479.315	15.5431
481.073	16.3656
482.834	17.1415
484.592	17.6329
486.349	18.5866
488.106	19.0818
489.863	20.158
491.622	20.7863
493.378	21.0393
495.134	20.3378
496.889	20.6579
498.645	20.6674
500.401	21.4795
502.156	21.0708
503.91	21.7511
505.664	21.8341
507.417	21.5673
509.171	22.2152
510.923	22.2342
512.678	22.5119
514.43	22.5462
516.182	21.7631
517.933	21.6742
519.684	21.824
521.435	21.9514
523.186	21.6901
524.936	21.4309
526.686	21.0804
528.435	20.7844
530.184	20.2242
531.933	20.079
533.682	20.0219
535.43	20.5697
537.18	19.9598
538.927	19.3822
540.674	19.0221
542.421	19.1703
544.167	18.8113
545.913	18.4786
547.659	18.0671
549.403	17.6939
551.148	17.3243
552.893	16.9389
554.637	17.2224
556.381	16.4614
558.125	16.0693
559.868	15.3982
561.611	14.9594
563.354	14.6579
565.097	13.0829
566.839	12.2559
568.581	11.5725
570.322	10.6225
572.063	10.4295
573.802	10.7669
575.542	10.5089
577.283	10.4742
579.022	10.042
580.762	10.6042
582.501	9.42955
584.24	9.56656
585.976	8.56234
587.714	8.07183
589.452	7.2996
591.19	7.46455
592.927	6.31263
594.663	6.2664
596.398	5.6447
598.134	5.51472
599.87	6.135
601.605	5.44312
603.338	5.27269
605.073	5.29234
606.808	5.59213
608.542	5.74818
610.274	6.54246
612.007	7.79054
613.74	8.15131
615.473	8.73985
617.204	9.2717
618.936	10.8495
620.668	11.3187
622.397	12.2641
624.128	12.7143
625.859	13.9242
627.588	15.4513
629.318	16.2298
631.048	17.5824
632.775	18.0257
634.505	18.3492
636.233	18.8683
637.96	19.1028
639.688	18.6998
641.416	18.757
643.142	18.7567
644.869	19.2614
646.594	18.7739
648.32	18.6472
650.045	18.8687
651.771	18.4325
653.496	19.7332
655.219	20.2963
656.944	21.2244
658.667	21.9523
660.391	22.3208
662.113	22.7407
663.837	22.6425
665.558	22.7578
667.281	22.7328
669.002	22.2031
670.724	22.4699
672.444	22.6147
674.166	22.5692
675.885	23.8688
677.606	23.7314
679.325	23.6466
681.045	24.2818
682.763	23.9992
684.483	24.7212
686.2	25.1286
687.917	25.902
689.636	27.3888
691.352	28.8515
693.07	29.9603
694.786	31.2258
696.501	32.4315
698.219	32.8742
699.933	32.564
701.65	33.0922
703.364	33.6846
705.078	34.7468
706.793	35.7716
708.506	36.2245
710.219	37.4595
711.934	38.5816
713.646	38.6383
715.358	39.4002
717.071	40.3491
718.782	40.5168
720.493	41.0724
722.204	41.3047
723.916	41.4432
725.626	40.8205
727.336	41.2361
729.045	41.9256
730.756	40.8712
732.464	40.8782
734.173	41.3306
735.881	42.2671
737.59	42.2986
739.297	43.075
741.004	44.2752
742.711	45.0913
744.417	46.0813
746.125	47.1445
747.831	47.9734
749.537	48.5206
751.242	49.5681
752.946	50.255
754.651	50.704
756.357	52.0483
758.061	53.179
759.764	53.6749
761.467	55.1708
763.17	54.4787
764.872	55.1528
766.575	56.419
768.276	58.3432
769.978	59.3434
771.679	60.5216
773.382	62.2021
775.083	62.2808
776.783	62.4854
778.483	62.8181
780.182	64.4637
781.882	65.306
783.581	66.4669
785.279	67.2599
786.978	68.7429
788.676	68.8348
790.373	69.2076
792.071	69.7446
793.768	69.4889
795.464	69.3865
797.161	69.4686
798.857	70.2444
800.552	71.2726
802.248	71.0946
803.941	71.5569
805.636	70.5913
807.33	69.7881
809.024	69.8362
810.718	69.8501
812.412	70.8277
814.105	71.2767
815.798	71.2235
817.49	71.7226
819.183	72.1656
820.873	72.6024
822.564	71.9792
824.256	72.1288
825.947	71.374
827.637	70.6562
829.328	69.9589
831.016	68.8897
832.705	68.0084
834.395	66.9806
836.084	66.4338
837.772	65.4846
839.459	65.1147
841.147	64.777
842.835	63.0784
844.522	61.3464
846.209	61.247
847.894	59.7063
849.581	59.3231
851.267	58.8461
852.953	57.4042
854.637	55.8656
856.322	54.9249
858.007	54.1999
859.689	53.0404
861.374	52.4025
863.058	52.4037
864.739	52.6999
866.423	51.8011
868.106	49.9651
869.787	47.875
871.469	47.7634
873.151	45.9633
874.831	45.1451
876.512	44.9582
878.193	43.5431
879.872	43.3404
881.553	43.1712
883.231	42.4057
884.911	41.2464
886.591	41.9216
888.268	41.6865
889.947	41.2156
891.623	42.0794
893.302	42.4541
894.978	42.528
896.656	42.5511
898.331	41.3533
900.008	41.0109
901.683	39.8397
903.359	39.3873
905.033	38.4626
906.709	37.6268
908.383	37.0203
910.058	36.7946
911.731	37.1965
913.405	36.2526
915.078	36.0646
916.752	35.7935
918.423	36.0929
920.096	36.6421
921.768	36.2266
923.438	36.1703
925.111	35.8436
926.781	35.1447
928.452	35.0477
930.122	35.8357
931.791	34.4597
933.462	34.5289
935.13	34.8074
936.799	34.589
938.468	34.4601
940.136	33.5327
941.803	33.4989
943.472	32.6713
945.139	31.1395
946.805	31.0697
948.473	30.249
950.139	28.6908
951.804	27.7975
953.471	28.3279
955.136	28.2036
956.801	27.0464
958.465	26.9982
960.131	26.3771
961.794	25.8705
963.458	26.0219
965.12	25.6913
966.785	25.7735
968.447	25.8565
970.109	26.156
971.771	24.7095
973.432	24.9424
975.095	24.5247
976.756	23.4588
978.417	22.736
980.077	22.0089
981.737	21.907
983.396	21.1611
985.057	20.0944
986.716	20.061
988.375	20.4964
990.033	19.9947
991.691	19.1005
993.349	19.233
995.006	18.9788
996.663	18.4961
998.32	19.1017
999.976	19.1163
1001.63	20.0681
1003.29	19.8363
1004.95	19.5443
1006.6	18.6648
1008.26	18.4775
1009.91	18.761
1011.56	18.6979
1013.22	18.1774
1014.87	17.6466
1016.53	17.8516
1018.18	17.4416
1019.83	15.8784
1021.48	14.7685
1023.14	14.1038
1024.79	14.0176
1026.44	13.1115
1028.09	12.85
1029.74	13.4568
1031.39	14.0712
1033.04	13.5522
1034.69	13.5926
1036.34	13.4573
1037.99	12.7473
1039.64	12.7136
1041.29	12.9265
1042.94	12.7138
1044.58	13.1651
1046.23	12.6228
1047.88	12.4083
1049.52	12.0513
1051.17	11.4462
1052.82	11.5309
1054.46	11.2669
1056.11	12.3951
1057.75	11.1169
1059.4	10.902
1061.04	10.5062
1062.69	10.5794
1064.33	10.9368
1065.98	10.2537
1067.62	10.5152
1069.26	10.3677
1070.9	9.69765
1072.55	8.5004
1074.19	9.08388
1075.83	10.0078
1077.47	11.0976
1079.11	11.4774
1080.76	11.8447
1082.4	11.6502
1084.04	11.3413
1085.68	10.744
1087.32	10.7227
1088.95	10.7958
1090.59	11.5167
1092.23	12.3046
1093.87	11.0398
1095.51	10.8606
1097.15	9.99392
1098.78	9.89962
1100.42	9.88362
1102.06	9.44039
1103.69	9.59914
1105.33	8.95766
1106.97	8.39017
1108.6	8.55423
1110.24	8.53196
1111.87	8.22717
1113.51	7.47881
1115.14	6.2461
1116.77	6.29322
1118.41	5.88816
1120.04	6.01954
1121.67	6.15716
1123.31	5.52307
1124.94	4.19745
1126.57	4.01496
1128.2	3.40084
1129.83	2.39239
1131.47	2.2679
1133.1	2.47638
1134.72	2.71893
1136.36	2.76763
1137.98	2.20631
1139.62	0.999442
1141.24	1.23458
1142.87	1.29309
1144.5	1.70431
1146.13	1.85405
1147.76	1.62199
1149.38	0.979955
1151.01	0.763066
1152.64	0.684432
1154.27	0.995028
1155.89	2.13634
1157.52	1.94568
1159.14	2.17701
1160.77	1.79841
1162.39	1.24403
1164.02	0.916762
1165.64	0.408687
1167.27	1.11012
1168.89	1.32504
1170.51	1.43763
1172.14	1.49473
1173.76	1.18391
1175.38	-0.068143
1177	0.653444
1178.63	0.970277
1180.25	2.29912
1181.87	2.22039
1183.49	2.3078
1185.11	2.89876
1186.73	2.56821
1188.35	3.1486
1189.97	3.88321
1191.59	3.2645
1193.21	3.95744
1194.83	3.98929
1196.45	4.80618
1198.07	4.85004
1199.68	5.85276
1201.3	6.56536
1202.92	6.49961
1204.53	6.88839
1206.15	7.89074
1207.77	9.44695
1209.38	10.4209
1211	11.7407
1212.62	13.8754
1214.23	15.6199
1215.84	15.962
1217.46	17.1767
1219.07	17.3995
1220.69	18.5486
1222.3	19.414
1223.91	21.0697
1225.53	21.4209
1227.14	22.192
1228.75	23.0818
1230.36	23.9501
1231.97	24.4716
1233.59	24.8393
1235.2	26.0835
1236.81	26.715
1238.42	26.5728
1240.03	28.1009
1241.64	28.5423
1243.25	28.9235
1244.85	29.4005
1246.46	30.2349
1248.07	30.8202
1249.68	31.6328
1251.29	32.3898
1252.9	33.5721
1254.5	34.5132
1256.11	34.734
1257.72	35.3898
1259.32	35.686
1260.93	36.8546
1262.54	37.3245
1264.14	38.2291
1265.75	38.7658
1267.35	38.0984
1268.96	38.8558
1270.56	38.844
1272.16	39.238
1273.77	40.1436
1275.37	40.119
1276.97	41.1946
1278.57	41.8052
1280.18	43.0159
1281.78	43.3207
1283.38	44.0837
1284.98	44.842
1286.58	44.6214
1288.18	45.1889
1289.78	45.5913
1291.38	46.034
1292.99	46.4102
1294.58	46.5166
1296.18	46.3703
1297.78	47.0079
1299.38	47.0182
1300.98	47.0906
1302.58	46.9833
1304.17	47.3009
1305.77	47.2388
1307.37	48.2811
1308.97	48.7958
1310.56	48.4904
1312.16	48.7032
1313.76	48.8765
1315.35	49.0201
1316.95	48.9301
1318.54	48.9016
1320.14	49.5726
1321.73	48.7572
1323.32	49.0751
1324.92	48.4865
1326.51	48.5804
1328.1	47.916
1329.7	48.2582
1331.29	48.2738
1332.88	48.0632
1334.47	47.1044
1336.07	46.2044
1337.66	45.9937
1339.25	45.3848
1340.84	44.9496
1342.43	43.5529
1344.02	42.5032
1345.61	41.6408
1347.2	40.9361
1348.79	40.4999
1350.37	39.6384
1351.96	38.8349
1353.55	38.5025
1355.14	37.8003
1356.73	36.4723
1358.31	35.1891
1359.9	34.6098
1361.49	32.8744
1363.07	31.2537
1364.66	30.6863
1366.25	30.2052
1367.83	30.1563
1369.42	29.5824
1371	28.8805
1372.59	28.2365
1374.17	27.3706
1375.75	26.5742
1377.34	26.5735
1378.92	25.9618
1380.5	25.2243
1382.09	25.0258
1383.67	25.4362
1385.25	25.4857
1386.83	24.9563
1388.42	24.778
1390	24.5599
1391.58	24.6144
1393.16	24.3188
1394.74	24.1441
1396.32	24.2062
1397.9	23.4406
1399.48	23.3423
1401.06	22.9686
1402.64	23.0087
1404.21	22.868
1405.79	22.6919
1407.37	23.0513
1408.95	23.7807
1410.53	24.9129
1412.1	25.3066
1413.68	25.7259
1415.26	27.0814
1416.83	27.25
1418.41	28.7104
1419.98	30.6444
1421.56	31.6619
1423.13	33.2957
1424.71	34.7916
1426.28	35.8001
1427.86	36.858
1429.43	38.4247
1431	39.4213
1432.58	41.313
1434.15	42.0881
1435.72	43.4682
1437.29	45.0622
1438.87	46.4894
1440.44	47.0966
1442.01	48.2904
1443.58	50.0238
1445.15	50.0186
1446.72	49.9399
1448.29	49.8084
1449.86	49.5213
1451.43	49.5442
1453	49.253
1454.57	49.0131
1456.14	49.1253
1457.71	48.8864
1459.27	48.4356
1460.84	47.7569
1462.41	47.4167
1463.98	46.2356
1465.54	44.6749
1467.11	43.2767
1468.67	41.3546
1470.24	38.9124
1471.81	37.7647
1473.37	36.0833
1474.94	33.8334
1476.5	32.3444
1478.07	31.1581
1479.63	29.5604
1481.19	28.1376
1482.76	26.9512
1484.32	25.4414
1485.88	24.8239
1487.45	23.6759
1489.01	22.6064
1490.57	21.3929
1492.13	20.9171
1493.69	20.1853
1495.26	18.7344
1496.82	17.9018
1498.38	16.7888
1499.94	15.5281
1501.5	15.4464
1503.06	14.4106
1504.62	14.2978
1506.17	14.7779
1507.73	14.7969
1509.29	15.2275
1510.85	15.5653
1512.41	15.4755
1513.97	15.5249
1515.52	15.2159
1517.08	15.1107
1518.64	14.7455
1520.19	14.7393
1521.75	15.5959
1523.31	15.6566
1524.86	16.4653
1526.42	16.8264
1527.97	17.455
1529.52	17.8252
1531.08	18.5714
1532.63	19.527
1534.19	19.96
1535.74	20.8251
1537.29	21.4415
1538.85	21.9851
1540.4	22.7327
1541.95	23.0692
1543.5	24.0248
1545.06	25.2777
1546.61	26.659
1548.16	28.8517
1549.71	30.8997
1551.26	32.0934
1552.81	32.9762
1554.36	35.2626
1555.91	35.8098
1557.46	36.6089
1559.01	38.2201
1560.56	39.0787
1562.11	39.7295
1563.65	40.5802
1565.2	41.5488
1566.75	42.7295
1568.29	43.9383
1569.84	45.3512
1571.39	46.176
1572.94	46.6501
1574.48	47.2414
1576.03	47.8631
1577.57	48.5744
1579.12	50.1946
1580.66	50.5911
1582.21	51.5668
1583.75	52.7156
1585.3	53.1885
1586.84	53.5875
1588.38	53.0481
1589.93	53.1861
1591.47	53.2512
1593.01	53.1041
1594.55	53.3555
1596.1	53.3889
1597.64	53.3025
1599.18	52.7226
1600.72	51.3175
1602.26	50.8684
1603.8	50.1327
1605.34	49.3034
1606.88	48.698
1608.42	48.6842
1609.96	47.8022
1611.5	46.869
1613.04	47.0737
1614.58	46.6894
1616.12	46.3229
1617.65	46.5477
1619.19	46.5622
1620.73	47.0206
1622.27	46.8378
1623.8	46.4643
1625.34	47.4763
1626.87	47.2999
1628.41	47.3143
1629.95	46.6381
1631.48	46.4346
1633.02	46.9259
1634.55	47.302
1636.09	47.8427
1637.62	48.0241
1639.15	48.2741
1640.69	49.6428
1642.22	49.8153
1643.76	50.7822
1645.29	51.3087
1646.82	51.4363
1648.35	51.3083
1649.88	51.009
1651.42	51.4915
1652.95	52.128
1654.48	53.0145
1656.01	52.5709
1657.54	51.4796
1659.07	51.2181
1660.6	51.0496
1662.13	50.8755
1663.66	50.1135
1665.19	49.0992
1666.72	48.7038
1668.24	47.5137
1669.77	45.9032
1671.3	45.2139
1672.83	43.4495
1674.35	41.5159
1675.88	39.6941
1677.41	38.4438
1678.93	37.3351
1680.46	35.7727
1681.99	34.2764
1683.51	32.8576
1685.04	31.0396
1686.56	29.215
1688.09	27.5638
1689.61	26.1193
1691.13	25.0485
1692.66	23.7158
1694.18	22.0849
1695.71	20.4871
1697.23	19.0192
1698.75	17.2119
1700.27	16.1124
1701.8	15.0575
1703.32	13.3353
1704.84	11.8874
1706.36	10.854
1707.88	10.5943
1709.4	10.0421
1710.92	8.52746
1712.44	7.67732
1713.96	6.73731
1715.48	6.32538
1717	5.9819
1718.52	4.78718
1720.04	5.09786
1721.56	4.40473
1723.07	4.52343
1724.59	3.82625
1726.11	3.51163
1727.63	3.4771
1729.14	3.64982
1730.66	3.53315
1732.18	2.8456
1733.69	3.34689
1735.21	3.70249
1736.72	3.89968
1738.24	4.48234
1739.75	3.87654
1741.27	3.47271
1742.78	3.6192
1744.3	3.3249
1745.81	3.47029
1747.32	3.69492
1748.84	2.8207
1750.35	2.9603
1751.86	3.0688
1753.37	3.17381
1754.89	3.17768
1756.4	3.5162
1757.91	3.95358
1759.42	4.14121
1760.93	3.94093
1762.44	4.27402
1763.95	3.80395
1765.46	4.24028
1766.97	4.42243
1768.48	3.74322
1769.99	3.31249
1771.5	2.77856
1773.01	2.57706
1774.52	2.54956
1776.03	2.76362
1777.53	2.59569
1779.04	2.79466
1780.55	3.17397
1782.06	2.91147
1783.56	2.31498
1785.07	1.77111
1786.57	1.67896
1788.08	1.90435
1789.59	2.10902
1791.09	2.40333
1792.6	1.99829
1794.1	1.75017
1795.6	1.556
1797.11	1.22256
1798.61	1.02179
1800.12	0.446409
1801.62	0.787123
1803.12	0.622721
1804.63	0.994069
1806.13	0.783182
1807.63	0.491684
1809.13	0.156101
1810.63	0.143891
1812.14	-0.057013
1813.64	-0.354938
1815.14	-0.961028
1816.64	-1.03025
1818.14	-0.652442
1819.64	-0.744347
1821.14	-0.772735
1822.64	-0.677132
1824.14	-0.727621
1825.63	-0.314413
1827.13	-0.496557
1828.63	-0.548504
1830.13	0.00539712
1831.63	0.00168983
1833.12	0.0978831
1834.62	0.0574406
1836.12	0.0315273
1837.62	0.38817
1839.11	0.28743
1840.61	0.991672
1842.1	1.03331
1843.6	0.775746
1845.09	0.79325
1846.59	1.41418
1848.08	1.98013
1849.58	1.90862
1851.07	2.15762
1852.57	2.5694
1854.06	2.77216
1855.55	3.40983
1857.04	3.28455
1858.54	2.84285
1860.03	3.2522
1861.52	3.4758
1863.01	3.85119
1864.5	3.77721
1866	3.69873
1867.49	3.51263
1868.98	3.94352
1870.47	4.04733
1871.96	3.85989
1873.45	3.57873
1874.94	4.26659
1876.43	4.15113
1877.92	4.26007
1879.41	4.49662
1880.89	4.36462
1882.38	4.62028
1882.48	4.93057
1883.97	4.99314
1885.47	4.40543
1886.96	4.62172
1888.46	4.91162
1889.95	5.3166
1891.44	5.35422
1892.94	5.16617
1894.43	5.39151
1895.92	5.06498
1897.41	5.46307
1898.9	5.61952
1900.4	5.4357
1901.89	5.14958
1903.38	5.09249
1904.87	4.45874
1906.36	4.52466
1907.85	4.84199
1909.34	5.50777
1910.83	5.64825
1912.32	5.93892
1913.81	5.98091
1915.29	5.87616
1916.78	6.01189
1918.27	6.23707
1919.76	6.38772
1921.25	5.8927
1922.74	5.73594
1924.22	6.20575
1925.71	6.39329
1927.2	6.59287
1928.68	6.21343
1930.17	6.44469
1931.65	6.1336
1933.14	6.43278
1934.63	6.08713
1936.11	6.15919
1937.59	6.02391
1939.08	6.48412
1940.56	6.59119
1942.05	6.59371
1943.53	6.19766
1945.01	5.46475
1946.5	5.5277
1947.98	5.67023
1949.46	5.24081
1950.94	5.49019
1952.43	5.4167
1953.91	5.60974
1955.39	6.00823
1956.87	6.13218
1958.35	5.59926
1959.83	5.61784
1961.31	6.19888
1962.79	6.21404
1964.27	6.17515
1965.75	6.27039
1967.23	6.14351
1968.71	6.55808
1970.19	6.32727
1971.67	6.51708
1973.14	5.67649
1974.62	5.42055
1976.1	5.12347
1977.58	5.4378
1979.05	5.77699
1980.53	6.52817
1982.01	7.15806
1983.48	7.39426
1984.96	7.07632
1986.43	6.86856
1987.91	6.51958
1989.38	6.5538
1990.86	6.81657
1992.33	6.87124
1993.81	7.22466
1995.28	7.35184
1996.76	8.37283
1998.23	8.85286
1999.7	9.41975
2001.18	9.57798
2002.65	9.1493
2004.12	10.0145
2005.59	9.90573
2007.06	10.354
2008.54	11.0604
2010.01	11.5557
2011.48	12.1283
2012.95	12.63
2014.42	12.4026
2015.89	12.7894
2017.36	13.281
2018.83	12.6972
2020.3	13.1593
2021.77	13.5623
2023.24	14.4352
2024.71	14.4487
2026.17	14.3239
2027.64	14.8737
2029.11	15.6009
2030.58	15.5342
2032.04	15.5233
2033.51	15.497
2034.98	15.5005
2036.45	15.0037
2037.91	14.61
2039.38	14.0651
2040.84	13.8845
2042.31	13.7351
2043.77	12.579
2045.24	12.031
2046.7	11.7318
2048.17	11.3695
2049.63	11.3196
2051.1	11.2379
2052.56	11.1508
2054.02	10.8289
2055.48	10.4076
2056.95	9.99237
2058.41	10.1303
2059.87	9.5368
2061.33	9.80251
2062.8	10.1017
2064.26	10.67
2065.72	11.0173
2067.18	11.1042
2068.64	10.7795
2070.1	10.617
2071.56	10.198
2073.02	10.787
2074.48	10.9446
2075.94	11.8695
2077.4	12.7224
2078.86	12.6147
2080.31	13.0408
2081.77	13.421
2083.23	13.2937
2084.69	13.4511
2086.14	13.6373
2087.6	14.2583
2089.06	15.1414
2090.52	15.5605
2091.97	15.5223
2093.43	16.7821
2094.88	17.652
2096.34	18.2013
2097.79	18.4033
2099.25	19.737
2100.7	20.4655
2102.16	20.7443
2103.61	21.2176
2105.07	21.7645
2106.52	21.5719
2107.97	21.8702
2109.43	21.95
2110.88	22.273
2112.33	22.759
2113.78	23.1286
2115.24	22.8372
2116.69	22.891
2118.14	23.7301
2119.59	24.2799
2121.04	25.2712
2122.49	26.4909
2123.94	27.3301
2125.39	27.9931
2126.84	28.8103
2128.29	29.4241
2129.74	30.1873
2131.19	30.7456
2132.64	31.1191
2134.09	32.4099
2135.54	33.3682
2136.98	34.0293
2138.43	34.1788
2139.88	34.8992
2141.33	35.3411
2142.77	36.2604
2144.22	37.0708
2145.67	38.2317
2147.11	38.4795
2148.56	38.8723
2150.01	39.1204
2151.45	39.8642
2152.9	41.6495
2154.34	42.3482
2155.79	43.1497
2157.23	44.1989
2158.67	45.4351
2160.12	46.5008
2161.56	47.6371
2163	48.3192
2164.45	49.4476
2165.89	50.1057
2167.33	50.2981
2168.78	50.8528
2170.22	51.3721
2171.66	52.5716
2173.1	52.2013
2174.54	52.1851
2175.98	52.041
2177.42	51.568
2178.86	51.1842
2180.3	50.9159
2181.74	50.3281
2183.18	49.7306
2184.62	49.1128
2186.06	48.0081
2187.5	47.0788
2188.94	46.7624
2190.38	46.3068
2191.82	45.2712
2193.25	44.9465
2194.69	44.047
2196.13	43.3338
2197.57	41.9873
2199	41.4139
2200.44	40.3771
2201.88	39.3571
2203.31	38.6058
2204.75	37.7113
2206.18	36.6158
2207.62	35.296
2209.05	33.6017
2210.49	32.8908
2211.92	32.5279
2213.36	31.1382
2214.79	30.2063
2216.22	29.579
2217.66	28.144
2219.09	27.1471
2220.52	26.9994
2221.96	27.0126
2223.39	26.4489
2224.82	25.8297
2226.25	25.0339
2227.68	24.73
2229.11	24.4365
2230.55	24.0337
2231.98	23.4293
2233.41	23.484
2234.84	22.9542
2236.27	22.5359
2237.7	22.1149
2239.12	21.9033
2240.55	22.0585
2241.98	21.9756
2243.41	22.0378
2244.84	21.4532
2246.27	21.6392
2247.7	21.3281
2249.12	20.8472
2250.55	20.499
2251.98	19.9634
2253.41	19.6413
2254.83	18.8603
2256.26	18.6776
2257.68	18.0603
2259.11	17.9222
2260.54	17.8336
2261.96	17.4926
2263.39	17.0632
2264.81	17.9422
2266.24	17.9276
2267.66	18.1158
2269.08	17.5845
2270.51	17.5167
2271.93	17.5183
2273.35	17.3893
2274.78	17.343
2276.2	16.9472
2277.62	16.9156
2279.04	16.6921
2280.47	16.0142
2281.89	16.3046
2283.31	16.2722
2284.73	15.3309
2286.15	14.9883
2287.57	13.9325
2288.99	13.0277
2290.41	12.5489
2291.83	12.5131
2293.25	11.4965
2294.67	10.4103
2296.09	10.7426
2297.51	10.7995
2298.93	10.4987
2300.35	10.8473
2301.76	10.7142
2303.18	10.4694
2304.6	10.8959
2306.02	10.866
2307.44	11.1005
2308.85	11.6422
2310.27	12.0512
2311.69	12.7766
2313.1	12.6152
2314.52	12.5555
2315.93	12.4125
2317.35	12.1486
2318.76	11.5597
2320.18	11.121
2321.59	11.6761
2323.01	11.5759
2324.42	11.6519
2325.83	11.5341
2327.25	11.6308
2328.66	11.369
2330.07	10.9619
2331.49	11.0355
2332.9	11.3249
2334.31	11.8106
2335.72	11.7427
2337.13	10.7737
2338.55	10.6337
2339.96	9.95442
2341.37	9.72886
2342.78	9.78705
2344.19	9.36788
2345.6	8.84706
2347.01	8.31125
2348.42	7.86969
2349.83	7.87245
2351.24	7.55975
2352.65	7.48299
2354.05	6.34854
2355.46	4.66752
2356.87	4.44949
2358.28	3.44147
2359.69	3.69411
2361.09	2.96026
2362.5	3.70311
2363.91	3.72867
2365.31	4.15873
2366.72	4.60919
2368.13	4.75155
2369.53	4.79365
2370.94	4.9014
2372.34	4.75297
2373.75	4.64147
2375.15	5.04181
2376.56	5.02672
2377.96	5.51461
2379.37	5.73909
2380.77	5.71462
2382.17	5.10858
2383.58	5.09695
2384.98	5.56217
2386.38	5.34533
2387.79	5.34628
2389.19	5.67184
2390.59	5.34935
2391.99	5.83558
2393.39	5.62465
2394.8	5.56177
2396.2	5.79888
2397.6	5.61548
2399	5.41045
2400.4	5.41453
2401.8	6.23433
2403.2	5.96615
2404.6	5.63465
2406	4.97184
2407.4	5.37082
2408.79	5.57394
2410.19	5.66317
2411.59	5.40142
2412.99	5.42247
2414.39	5.10669
2415.78	4.55378
2417.18	4.35591
2418.58	4.65694
2419.98	4.74185
2421.37	4.04884
2422.77	3.42256
2424.16	3.14259
2425.56	3.20231
2426.96	3.79633
2428.35	3.5484
2429.74	3.4867
2431.14	3.33262
2432.53	3.86705
2433.93	3.04555
2435.32	2.82544
2436.72	2.70565
2438.11	2.54312
2439.5	2.33086
2440.9	1.99307
2442.29	2.29296
2443.68	2.23214
2445.07	2.22964
2446.47	2.26535
2447.86	2.55306
2449.25	2.24027
2450.64	2.28155
2452.03	2.6007
2453.42	3.13061
2454.81	3.40757
2456.2	3.31955
2457.59	3.2897
2458.98	4.12554
2460.37	3.86613
2461.76	4.50972
2463.15	4.56556
2464.54	4.38661
2465.93	4.88948
2467.32	4.55512
2468.7	4.93934
2470.09	4.88361
2471.48	4.91256
2472.87	5.13847
2474.25	5.67368
2475.64	6.09066
2477.03	6.29166
2478.41	6.2794
2479.8	6.41747
2481.18	5.87295
2482.57	5.98309
2483.95	6.32939
2485.34	6.10297
2486.72	6.15874
2488.11	6.00687
2489.49	5.42199
2490.88	5.52242
2492.26	4.8871
2493.65	4.96923
2495.03	4.53545
2496.41	4.25657
2497.79	3.80687
2499.18	3.79695
2500.56	3.68794
2501.94	3.50824
2503.32	3.01335
2504.7	3.36427
2506.09	2.99818
2507.47	2.73516
2508.85	2.75495
2510.23	2.72788
2511.61	3.01943
2512.99	2.53735
2514.37	2.469
2515.75	2.67673
2517.13	2.48505
2518.51	2.78977
2519.89	2.53116
2521.26	2.53363
2522.64	2.39375
2524.02	2.07622
2525.4	1.79747
2526.78	1.21439
2528.15	1.26271
2529.53	0.737374
2530.91	0.512728
2532.28	0.456095
2533.66	0.267274
2535.04	0.214424
2536.41	-0.0801359
2537.79	0.108859
2539.16	-0.130201
2540.54	0.612613
2541.91	0.824083
2543.29	0.650829
2544.66	0.35501
2546.04	0.238104
2547.41	0.0868316
2548.78	-0.13757
2550.16	-0.452734
2551.53	-0.551752
2552.9	-0.460127
2554.27	-1.34981
2555.65	-1.86933
2557.02	-1.71811
2558.39	-1.40695
2559.76	-1.16901
2561.13	-0.94116
2562.51	-0.203315
2563.88	-0.00969435
2565.25	0.155565
2566.62	0.649121
2567.99	0.693335
2569.36	0.627472
2570.73	1.05046
2572.1	0.854585
2573.47	1.23812
2574.84	1.36133
2576.2	1.07027
2577.57	1.39061
2578.94	1.43199
2580.31	1.22787
2581.68	1.04983
2583.05	1.4691
2584.41	1.79615
2585.78	1.892
2587.15	2.15378
2588.51	1.7794
2589.88	1.83914
2591.24	1.52592
2592.61	1.53514
2593.98	1.32434
2595.34	0.74465
2596.71	1.41426
2598.07	1.46222
2599.44	1.54377
2600.8	1.46175
2602.16	1.38852
2603.53	1.34998
2604.89	1.50401
2606.26	1.7997
2607.62	1.6185
2608.98	1.91279
2610.34	1.7549
2611.71	1.46947
2613.07	1.68177
2614.43	1.66384
2615.79	1.70227
2617.15	1.73535
2618.52	2.16168
2619.88	2.27131
2621.24	2.51436
2622.6	2.20197
2623.96	2.38389
2625.32	3.04433
2626.68	3.43895
2628.04	3.10571
2629.4	3.57875
2630.75	3.04319
2632.11	2.62022
2633.47	2.12148
2634.83	2.26663
2636.19	2.17105
2637.55	2.17068
2638.9	2.76682
2640.26	2.21863
2641.62	3.10919
2642.98	2.98535
2644.33	2.57953
2645.69	2.97891
2647.04	2.633
2648.4	2.46092
2649.76	2.54152
2651.11	2.65985
2652.47	2.60973
2653.82	2.48159
2655.18	2.16832
2656.53	1.86161
2657.88	1.52627
2659.24	1.78219
2660.59	2.04755
2661.95	1.86978
2663.3	2.86049
2664.65	3.68238
2666	3.42948
2667.36	3.53085
2668.71	3.7286
2670.06	4.07457
2671.41	4.02458
2672.76	4.11588
2674.12	4.23253
2675.47	4.14831
2676.82	4.46265
2678.17	4.59262
2679.52	4.31316
2680.87	5.09591
2682.22	5.27215
2683.57	5.52226
2684.92	5.26674
2686.27	5.815
2687.62	5.71812
2688.97	5.89994
2690.31	5.79726
2691.66	5.9212
2693.01	6.03871
2694.36	6.20928
2695.71	5.9238
2697.05	6.10217
2698.4	5.92646
2699.75	6.50257
2701.09	6.8614
2702.44	7.01724
2703.78	7.01441
2705.13	7.19196
2706.48	7.77902
2707.82	7.4244
2709.17	7.65729
2710.51	6.94932
2711.86	6.39595
2713.2	6.6646
2714.54	6.36428
2715.89	6.12297
2717.23	6.57638
2718.57	6.49714
2719.92	6.57766
2721.26	6.40676
2722.6	6.68279
2723.95	6.49832
2725.29	6.77765
2726.63	7.1344
2727.97	7.33422
2729.31	7.53581
2730.65	8.07053
2732	8.17846
2733.34	7.98446
2734.68	8.20827
2736.02	8.50904
2737.36	8.24581
2738.7	8.51901
2740.04	8.16771
2741.38	8.65259
2742.72	8.72977
2744.05	8.7295
2745.39	8.78281
2746.73	8.56123
2748.07	8.62663
2749.41	8.69579
2750.75	8.79781
2752.08	8.71336
2753.42	9.70849
2754.76	9.4588
2756.09	9.16554
2757.43	8.88727
2758.77	8.59463
2760.1	8.02253
2761.44	7.80942
2762.78	7.19286
2764.11	6.8282
2765.44	6.73207
2766.78	6.47175
2768.11	5.86707
2769.45	5.28078
2770.78	4.89153
2772.12	4.97071
2773.45	4.48922
2774.78	4.58814
2776.12	4.13843
2777.45	4.44712
2778.78	4.28568
2780.12	4.07982
2781.45	3.54119
2782.78	3.25529
2784.11	3.06714
2785.44	2.82724
2786.78	3.01974
2788.11	3.04876
2789.44	3.68652
2790.77	3.25584
2792.1	3.62057
2793.43	3.6873
2794.76	3.86437
2796.09	4.50236
2797.42	4.72896
2798.75	4.64815
2800.08	4.45404
2801.4	4.13825
2802.73	3.94623
2804.06	4.10558
2805.39	4.40704
2806.72	4.06078
2808.05	4.55636
2809.37	4.23828
2810.7	4.78206
2812.03	4.89709
2813.35	5.07893
2814.68	5.55217
2816.01	5.66134
2817.33	6.05612
2818.66	6.05467
2819.98	6.21221
2821.31	5.69404
2822.63	5.95483
2823.96	6.43426
2825.28	7.29382
2826.61	8.60873
2827.93	10.0715
2829.25	11.2334
2830.58	12.4442
2831.9	13.4251
2833.23	14.7137
2834.55	15.8396
2835.87	17.1737
2837.19	18.5498
2838.52	19.9874
2839.84	21.2705
2841.16	23.2082
2842.48	24.5732
2843.8	26.334
2845.12	27.6522
2846.44	28.9137
2847.77	31.2139
2849.08	33.3186
2850.4	35.49
2851.73	37.8611
2853.05	40.2294
2854.36	42.0292
2855.68	44.3436
2857	46.732
2858.32	49.3567
2859.64	51.4936
2860.96	53.9219
2862.28	56.4183
2863.59	57.4752
2864.91	58.8754
2866.23	60.6438
2867.55	62.3039
2868.86	64.0001
2870.18	65.7505
2871.5	67.048
2872.81	68.3618
2874.13	69.5365
2875.44	70.8861
2876.76	71.9264
2878.07	72.4547
2879.39	73.2794
2880.7	74.2627
2882.02	75.5371
2883.33	77.8185
2884.65	79.3994
2885.96	80.6623
2887.28	81.9572
2888.59	84.1549
2889.9	85.7543
2891.21	88.1849
2892.53	89.3865
2893.84	90.8498
2895.15	92.2906
2896.46	93.4473
2897.78	95.1035
2899.09	97.2546
2900.4	98.9328
2901.71	101.358
2903.02	104.086
2904.33	106.661
2905.64	109.727
2906.95	112.569
2908.26	115.081
2909.57	118.23
2910.88	121.762
2912.19	124.882
2913.5	128.599
2914.81	131.888
2916.12	135.392
2917.43	138.897
2918.73	142.638
2920.04	145.312
2921.35	148.463
2922.66	151.062
2923.96	153.258
2925.27	154.328
2926.58	155.85
2927.88	156.641
2929.19	156.65
2930.5	157.343
2931.8	158.187
2933.11	158.536
2934.41	158.182
2935.72	157.977
2937.02	157.529
2938.33	156.217
2939.63	155.255
2940.94	154.333
2942.24	153.012
2943.54	151.719
2944.85	150.091
2946.15	148.37
2947.45	147.127
2948.76	144.863
2950.06	142.015
2951.36	139.103
2952.66	136.338
2953.97	134.106
2955.27	131.114
2956.57	128.712
2957.87	125.546
2959.17	123.251
2960.47	120.851
2961.77	118.557
2963.07	116.723
2964.37	114.457
2965.67	112.104
2966.97	109.844
2968.27	107.727
2969.57	105.374
2970.87	103.268
2972.17	101.268
2973.47	99.1233
2974.77	97.9272
2976.07	96.4789
2977.36	94.0668
2978.66	91.9976
2979.96	90.169
2981.26	87.9013
2982.55	85.8003
2983.85	83.3697
2985.15	80.1282
2986.44	77.7942
2987.74	75.4083
2989.03	72.8117
2990.33	69.4506
2991.63	67.4565
2992.92	64.919
2994.21	61.996
2995.51	60.12
2996.8	58.0386
2998.1	56.1546
2999.39	53.4209
3000.69	51.2476
3001.98	49.2219
3003.27	46.5753
3004.57	44.7249
3005.86	42.5881
3007.15	40.2695
3008.44	37.8539
3009.74	35.2753
3011.03	32.9586
3012.32	31.3367
3013.61	29.4294
3014.9	27.4704
3016.19	26.1757
3017.48	24.2907
3018.78	22.9855
3020.07	22.2065
3021.36	21.4192
3022.65	20.5882
3023.94	20.564
3025.23	20.0407
3026.51	19.4245
3027.8	18.9336
3029.09	18.4757
3030.38	18.2863
3031.67	18.028
3032.96	18.21
3034.24	18.2954
3035.53	18.4574
3036.82	18.699
3038.11	18.9862
3039.39	19.7673
3040.68	20.1722
3041.97	20.3143
3043.25	20.7191
3044.54	20.9782
3045.83	21.2249
3047.11	21.8862
3048.4	21.72
3049.68	22.1156
3050.97	22.6121
3052.25	22.8457
3053.54	22.8063
3054.82	22.7085
3056.11	22.8351
3057.39	22.5282
3058.67	22.3101
3059.96	22.8174
3061.24	22.6328
3062.52	22.7479
3063.81	21.6103
3065.09	21.3605
3066.37	20.9145
3067.65	20.2679
3068.94	19.3885
3070.22	18.6193
3071.5	17.351
3072.78	16.6951
3074.06	15.933
3075.34	15.3162
3076.62	15.1045
3077.9	14.736
3079.18	13.778
3080.46	13.7405
3081.74	12.7828
3083.02	12.4847
3084.3	12.1386
3085.58	11.2745
3086.86	10.5183
3088.14	10.2382
3089.42	9.13628
3090.69	8.63577
3091.97	8.09748
3093.25	7.43833
3094.53	6.72891
3095.8	6.20341
3097.08	6.08323
3098.36	5.92992
3099.63	5.7534
3100.91	5.7816
3102.19	5.09724
3103.46	4.98943
3104.74	5.00742
3106.01	4.39584
3107.29	4.19199
3108.56	4.01143
3109.84	4.10705
3111.11	4.25281
3112.39	3.60535
3113.66	3.91859
3114.94	3.88532
3116.21	3.86969
3117.48	3.74377
3118.76	3.55863
3120.03	3.39263
3121.3	3.34245
3122.57	3.41802
3123.85	3.62329
3125.12	3.66496
3126.39	3.82957
3127.66	3.38458
3128.93	3.68387
3130.21	3.69463
3131.48	3.51145
3132.75	3.1236
3134.02	3.52464
3135.29	3.59038
3136.56	3.9961
3137.83	3.70185
3139.1	3.62587
3140.37	3.40927
3141.64	2.89646
3142.91	2.13214
3144.17	1.27676
3145.44	0.483426
3146.71	-0.364877
3147.98	-0.985309
3149.25	-2.29347
