#Acq. time (s)=	45
#Accumulations=	2
#Range (cm-¹)=	200...3150
#Windows=	2
#Auto scanning=	Off
#Autofocus=	Off
#Macrospot=	Off
#AutoExposure=	Off
#Spike filter=	Multiple accum.
#Delay time (s)=	0
#Binning=	1
#Readout mode=	Signal
#DeNoise=	Off
#ICS correction=	On
#Dark correction=	Off
#Inst. Process=	Off
#Detector Gain=	Best Dynamic Range
#Detector ADC=	20 kHz       
#Detector temperature (°C)=	-69.85
#Instrument=	LabRAM HR Evol
#Detector=	Synapse
#Objective=	x100
#Grating=	600 gr/mm
#ND Filter=	100%
#Laser (nm)=	532 
#Hole=	100.021
#Range=	Auto
#Laser Pol.=	No
#Raman. Pol.=	No
#Laser Pol. (°)=	-0.0007625
#Raman Pol. (°)=	89.9995
#Collection=	Microscope
#StageXY=	Marzhauser
#StageZ=	Marzhauser
#X (µm)=	4770
#Y (µm)=	-7730.5
#Z (µm)=	584.55
#Full time(mm:ss)=	3:18
#Project=	
#Sample=	
#Site=	
#Title=	Thy_30_10_21_2x_45s_532 nm_x100_100%_600 gr_mm
#Remark=	
#Date=	30.06.2022 12:58
#Acquired=	30.06.2022 12:58:36
#Base:Fit=	10.08.2022 09:58:11
#Base:Sub=	10.08.2022 09:58:44
#Filter:Polynom=	16.08.2022 10:22:53
#AxisType[0]=Intens
#AxisUnit[0]=Cnt
#AxisType[1]=Spectr
#AxisUnit[1]=1/cm
200.533	-4.61157
202.348	-0.815216
204.162	3.03038
205.976	6.50924
207.792	8.67036
209.605	10.5821
211.418	12.2939
213.23	13.3582
215.044	14.5942
216.856	15.6316
218.667	17.0647
220.478	18.4057
222.289	19.3955
224.102	19.1247
225.912	18.8795
227.721	17.5099
229.531	17.0296
231.34	16.4424
233.148	16.7547
234.956	15.7919
236.766	15.475
238.574	14.3972
240.381	14.4409
242.188	13.7697
243.994	13.7471
245.801	13.7716
247.606	13.3253
249.412	12.0147
251.217	10.6465
253.024	10.5409
254.828	9.57464
256.632	8.68169
258.436	8.32005
260.239	9.41939
262.042	9.88327
263.845	9.64537
265.647	9.1732
267.449	8.9589
269.25	9.25488
271.052	9.10425
272.852	9.88619
274.653	10.8171
276.453	10.9193
278.253	10.6983
280.052	10.075
281.852	9.94074
283.65	10.8971
285.449	11.0752
287.247	11.3023
289.044	11.4042
290.842	11.2731
292.639	10.9307
294.436	10.2204
296.232	10.9617
298.028	11.9725
299.821	12.6778
301.617	12.2921
303.412	12.1857
305.206	12.8901
307	12.8995
308.794	14.0651
310.588	13.771
312.381	13.1196
314.172	12.5566
315.964	12.0119
317.756	12.048
319.548	12.2401
321.34	12.35
323.131	12.6136
324.921	11.1933
326.71	11.6303
328.5	11.061
330.29	11.9922
332.079	12.0186
333.868	12.239
335.654	11.9647
337.443	11.3624
339.231	11.896
341.018	11.9747
342.804	12.0979
344.591	12.2449
346.377	12.4522
348.163	13.022
349.947	13.9914
351.733	14.1037
353.518	14.833
355.303	15.2778
357.085	14.6981
358.869	13.7439
360.653	13.6843
362.435	13.1946
364.218	12.672
366.001	11.8721
367.781	11.9802
369.563	11.5235
371.345	11.6211
373.124	12.9268
374.905	12.9942
376.686	13.697
378.464	13.5542
380.244	12.666
382.022	11.9149
383.801	12.6456
385.58	13.8635
387.357	13.3176
389.135	12.6508
390.911	12.4052
392.689	12.9394
394.466	13.3092
396.241	12.6356
398.018	13.5493
399.792	12.8096
401.568	12.2326
403.341	12.1346
405.117	11.31
406.889	11.0088
408.664	10.0978
410.436	10.0197
412.21	9.64817
413.981	8.9688
415.755	9.17051
417.525	7.42051
419.298	7.12264
421.068	6.41035
422.84	5.6615
424.609	5.33809
426.38	4.11482
428.149	3.62067
429.919	2.28103
431.688	1.78964
433.455	2.16844
435.225	2.12856
436.992	2.28423
438.76	2.49561
440.527	1.86474
442.293	2.27128
444.06	1.39297
445.826	0.914833
447.593	1.13282
449.357	2.14348
451.122	2.30164
452.888	2.4591
454.651	2.88075
456.415	3.6567
458.18	4.6792
459.942	5.26468
461.705	6.54879
463.469	5.93106
465.23	6.01274
466.991	6.67973
468.752	7.61635
470.515	8.48994
472.275	10.1666
474.035	10.6183
475.797	10.8483
477.556	11.6947
479.315	13.0827
481.073	14.1811
482.834	15.0214
484.592	16.0115
486.349	17.3682
488.106	17.2853
489.863	17.4355
491.622	18.7319
493.378	19.1438
495.134	19.454
496.889	20.2323
498.645	21.1783
500.401	21.166
502.156	21.2943
503.91	21.2354
505.664	20.9116
507.417	21.6558
509.171	22.229
510.923	22.4527
512.678	22.1483
514.43	23.1029
516.182	24.1418
517.933	24.9661
519.684	24.127
521.435	24.0399
523.186	24.6089
524.936	23.8625
526.686	23.7302
528.435	23.4523
530.184	23.9389
531.933	22.2653
533.682	21.4269
535.43	20.2046
537.18	19.2389
538.927	18.4591
540.674	16.9308
542.421	16.2847
544.167	16.0451
545.913	15.0983
547.659	14.1555
549.403	13.2133
551.148	12.7555
552.893	13.0366
554.637	12.3746
556.381	11.9199
558.125	10.2429
559.868	10.3262
561.611	9.76865
563.354	9.4556
565.097	8.26197
566.839	7.35688
568.581	7.2649
570.322	6.88347
572.063	6.08886
573.802	5.23723
575.542	5.02056
577.283	5.28466
579.022	4.68798
580.762	3.74483
582.501	2.98396
584.24	2.78031
585.976	3.15783
587.714	2.67974
589.452	2.83446
591.19	1.82663
592.927	2.21972
594.663	2.58045
596.398	2.88904
598.134	3.31928
599.87	3.54396
601.605	3.97115
603.338	3.56028
605.073	3.48302
606.808	3.91385
608.542	5.46562
610.274	5.71323
612.007	4.65819
613.74	4.43064
615.473	4.36777
617.204	4.27456
618.936	3.40195
620.668	3.37273
622.397	3.32791
624.128	2.93459
625.859	3.55161
627.588	2.92954
629.318	3.88906
631.048	4.23866
632.775	5.05524
634.505	5.47152
636.233	4.87381
637.96	5.41464
639.688	5.35475
641.416	5.1533
643.142	5.74703
644.869	6.64167
646.594	7.34903
648.32	7.55756
650.045	7.10284
651.771	7.42486
653.496	8.466
655.219	9.19881
656.944	8.3944
658.667	8.5469
660.391	8.55806
662.113	9.13706
663.837	9.47083
665.558	9.38404
667.281	10.6164
669.002	11.7208
670.724	12.8016
672.444	13.7048
674.166	13.6195
675.885	13.5296
677.606	14.0164
679.325	15.8942
681.045	16.9435
682.763	17.5106
684.483	18.8015
686.2	19.8684
687.917	21.4854
689.636	23.7031
691.352	25.0243
693.07	26.6947
694.786	27.1338
696.501	27.6014
698.219	29.0708
699.933	30.101
701.65	31.2504
703.364	31.855
705.078	32.5473
706.793	33.6166
708.506	34.4995
710.219	35.0984
711.934	36.6832
713.646	37.9348
715.358	40.1024
717.071	40.6517
718.782	42.5702
720.493	43.0014
722.204	43.7589
723.916	45.2512
725.626	45.5568
727.336	46.6688
729.045	48.2154
730.756	48.9198
732.464	49.7499
734.173	50.0936
735.881	49.8151
737.59	49.9975
739.297	49.9742
741.004	49.4958
742.711	50.4718
744.417	51.4155
746.125	52.3198
747.831	53.2923
749.537	54.4187
751.242	55.0489
752.946	55.6438
754.651	55.9126
756.357	55.879
758.061	54.7333
759.764	54.4574
761.467	54.3041
763.17	55.8043
764.872	56.3938
766.575	57.7611
768.276	58.6377
769.978	60.0006
771.679	62.4159
773.382	63.8385
775.083	64.0787
776.783	64.1431
778.483	64.9119
780.182	65.2822
781.882	64.8687
783.581	65.5681
785.279	66.4403
786.978	66.9841
788.676	67.145
790.373	68.6154
792.071	69.0684
793.768	69.5864
795.464	71.1501
797.161	72.7418
798.857	74.1295
800.552	75.0982
802.248	75.3419
803.941	76.5752
805.636	76.3633
807.33	77.7356
809.024	79.2043
810.718	80.0038
812.412	80.9862
814.105	81.0846
815.798	81.5637
817.49	81.5229
819.183	79.9612
820.873	80.8803
822.564	81.6246
824.256	82.3082
825.947	82.5354
827.637	83.5603
829.328	83.6869
831.016	83.6975
832.705	83.4528
834.395	83.2847
836.084	82.716
837.772	81.2228
839.459	80.4472
841.147	79.2167
842.835	77.5319
844.522	77.7709
846.209	77.0951
847.894	76.7454
849.581	75.4902
851.267	75.1001
852.953	73.2181
854.637	71.0647
856.322	71.1053
858.007	68.1632
859.689	66.1407
861.374	64.8446
863.058	63.5496
864.739	61.8256
866.423	61.2754
868.106	60.8427
869.787	59.4917
871.469	57.4085
873.151	56.3414
874.831	56.3052
876.512	55.5663
878.193	55.692
879.872	56.1589
881.553	56.0188
883.231	55.6083
884.911	54.9927
886.591	55.2204
888.268	54.7343
889.947	54.435
891.623	54.8685
893.302	54.5071
894.978	53.5899
896.656	52.7745
898.331	52.9584
900.008	53.9443
901.683	53.6464
903.359	54.2588
905.033	55.6901
906.709	55.3644
908.383	55.4536
910.058	55.0446
911.731	55.2113
913.405	55.3986
915.078	54.8452
916.752	54.8346
918.423	54.7099
920.096	54.6701
921.768	52.5771
923.438	52.541
925.111	52.7137
926.781	52.5811
928.452	52.3903
930.122	50.7807
931.791	49.9809
933.462	49.2583
935.13	48.571
936.799	47.9331
938.468	47.5088
940.136	47.3706
941.803	45.4141
943.472	44.7042
945.139	44.0434
946.805	43.3833
948.473	43.2904
950.139	43.61
951.804	44.0077
953.471	45.5521
955.136	45.5368
956.801	46.7885
958.465	47.4074
960.131	48.6174
961.794	48.3571
963.458	48.3262
965.12	49.4425
966.785	49.7969
968.447	50.8646
970.109	51.9424
971.771	51.6886
973.432	52.8699
975.095	53.8031
976.756	54.5456
978.417	55.5313
980.077	56.8378
981.737	58.1722
983.396	58.2146
985.057	57.8589
986.716	57.9646
988.375	57.6623
990.033	57.4035
991.691	57.3045
993.349	56.6086
995.006	56.8131
996.663	56.725
998.32	56.0048
999.976	55.4683
1001.63	54.5936
1003.29	54.149
1004.95	52.319
1006.6	52.3559
1008.26	52.1508
1009.91	51.4628
1011.56	50.148
1013.22	49.41
1014.87	48.5352
1016.53	47.4853
1018.18	46.6158
1019.83	45.3401
1021.48	44.0591
1023.14	43.0337
1024.79	43.0203
1026.44	42.7302
1028.09	42.2226
1029.74	42.2872
1031.39	43.1913
1033.04	43.6424
1034.69	43.6852
1036.34	43.0427
1037.99	41.1765
1039.64	41.5954
1041.29	41.3057
1042.94	42.1774
1044.58	42.0345
1046.23	41.4299
1047.88	42.0249
1049.52	40.8257
1051.17	40.9365
1052.82	40.769
1054.46	39.8542
1056.11	39.9183
1057.75	39.8925
1059.4	40.0219
1061.04	39.6968
1062.69	39.0191
1064.33	37.54
1065.98	36.8313
1067.62	36.699
1069.26	36.2381
1070.9	35.8436
1072.55	35.6332
1074.19	35.0593
1075.83	33.9029
1077.47	34.0208
1079.11	33.8375
1080.76	32.8626
1082.4	32.7086
1084.04	31.8581
1085.68	32.3025
1087.32	31.6328
1088.95	32.059
1090.59	32.2341
1092.23	32.34
1093.87	31.528
1095.51	30.6249
1097.15	29.0161
1098.78	29.2766
1100.42	28.4556
1102.06	27.8637
1103.69	27.9067
1105.33	27.7421
1106.97	27.7277
1108.6	27.349
1110.24	27.0205
1111.87	27.4104
1113.51	27.8277
1115.14	27.3259
1116.77	27.1658
1118.41	27.0642
1120.04	26.767
1121.67	26.4412
1123.31	26.3306
1124.94	26.3469
1126.57	25.6852
1128.2	24.1354
1129.83	24.3809
1131.47	24.0237
1133.1	23.2116
1134.72	22.5452
1136.36	21.9693
1137.98	22.4863
1139.62	22.246
1141.24	21.6426
1142.87	20.6004
1144.5	19.7285
1146.13	19.176
1147.76	18.5401
1149.38	17.6005
1151.01	16.4934
1152.64	15.3515
1154.27	14.002
1155.89	12.4202
1157.52	12.0354
1159.14	12.7469
1160.77	11.392
1162.39	9.99948
1164.02	10.0218
1165.64	8.7232
1167.27	8.891
1168.89	7.41026
1170.51	7.10449
1172.14	6.95806
1173.76	7.17854
1175.38	7.46117
1177	6.65716
1178.63	6.82002
1180.25	7.17794
1181.87	6.48898
1183.49	7.64869
1185.11	8.57413
1186.73	9.30824
1188.35	10.2451
1189.97	11.1189
1191.59	12.9831
1193.21	13.9038
1194.83	14.6775
1196.45	14.739
1198.07	15.7296
1199.68	16.932
1201.3	18.2801
1202.92	18.7095
1204.53	20.7463
1206.15	21.8844
1207.77	22.8805
1209.38	23.1444
1211	25.174
1212.62	26.4487
1214.23	27.7551
1215.84	30.2806
1217.46	32.0662
1219.07	33.8244
1220.69	35.1976
1222.3	36.2739
1223.91	38.6685
1225.53	40.8304
1227.14	42.7642
1228.75	44.2839
1230.36	45.4538
1231.97	46.4295
1233.59	47.3877
1235.2	49.279
1236.81	50.7724
1238.42	53.2042
1240.03	54.1725
1241.64	55.3549
1243.25	56.9021
1244.85	58.9019
1246.46	60.5336
1248.07	62.2299
1249.68	63.3254
1251.29	64.9414
1252.9	66.6912
1254.5	67.6976
1256.11	68.4448
1257.72	68.276
1259.32	69.7586
1260.93	70.0609
1262.54	70.7119
1264.14	71.1279
1265.75	70.6315
1267.35	71.1078
1268.96	71.3577
1270.56	71.5928
1272.16	73.2277
1273.77	71.8996
1275.37	72.459
1276.97	72.1514
1278.57	72.3914
1280.18	72.7047
1281.78	72.6295
1283.38	72.3621
1284.98	72.8805
1286.58	73.1917
1288.18	73.2867
1289.78	73.624
1291.38	74.1353
1292.99	73.5412
1294.58	74.313
1296.18	75.789
1297.78	75.82
1299.38	76.3094
1300.98	76.1542
1302.58	76.988
1304.17	77.958
1305.77	76.931
1307.37	76.4326
1308.97	76.834
1310.56	76.0643
1312.16	77.4716
1313.76	78.1556
1315.35	79.2618
1316.95	79.292
1318.54	79.6601
1320.14	78.6816
1321.73	78.6013
1323.32	77.7815
1324.92	77.5461
1326.51	77.7032
1328.1	76.6309
1329.7	77.3446
1331.29	76.6606
1332.88	76.1621
1334.47	74.5367
1336.07	72.7692
1337.66	70.8444
1339.25	69.9727
1340.84	67.5921
1342.43	66.5256
1344.02	64.4437
1345.61	62.8822
1347.2	62.5883
1348.79	61.174
1350.37	59.6969
1351.96	58.9709
1353.55	56.8982
1355.14	55.5835
1356.73	53.4763
1358.31	53.4239
1359.9	52.1167
1361.49	50.4034
1363.07	48.6841
1364.66	47.8009
1366.25	46.2078
1367.83	44.7259
1369.42	43.2602
1371	41.9339
1372.59	41.1062
1374.17	40.4288
1375.75	39.919
1377.34	38.5317
1378.92	38.1973
1380.5	37.4817
1382.09	37.084
1383.67	36.6545
1385.25	36.0086
1386.83	36.2985
1388.42	36.3878
1390	35.2052
1391.58	35.3505
1393.16	33.8107
1394.74	33.056
1396.32	32.0396
1397.9	31.73
1399.48	31.2851
1401.06	31.4583
1402.64	31.5307
1404.21	31.4703
1405.79	32.2746
1407.37	32.1098
1408.95	32.9001
1410.53	32.375
1412.1	32.2334
1413.68	33.1334
1415.26	33.4194
1416.83	35.2259
1418.41	37.5623
1419.98	38.5138
1421.56	40.5349
1423.13	42.5708
1424.71	44.7416
1426.28	48.1596
1427.86	50.5836
1429.43	53.3488
1431	57.1289
1432.58	60.0929
1434.15	61.9989
1435.72	65.0683
1437.29	67.3256
1438.87	68.7833
1440.44	70.4416
1442.01	71.9966
1443.58	73.2907
1445.15	73.7516
1446.72	75.1019
1448.29	75.6925
1449.86	75.8783
1451.43	75.6519
1453	75.191
1454.57	75.4779
1456.14	73.7265
1457.71	72.0062
1459.27	70.4667
1460.84	69.5729
1462.41	68.0869
1463.98	65.2523
1465.54	62.4676
1467.11	59.8858
1468.67	56.7206
1470.24	53.9536
1471.81	50.9016
1473.37	48.3296
1474.94	44.9732
1476.5	41.6406
1478.07	37.6319
1479.63	34.0678
1481.19	31.4375
1482.76	27.9587
1484.32	25.9132
1485.88	22.9726
1487.45	20.7168
1489.01	18.3739
1490.57	16.2099
1492.13	14.3488
1493.69	12.9176
1495.26	11.8698
1496.82	10.5804
1498.38	9.92199
1499.94	9.50402
1501.5	9.41687
1503.06	8.8273
1504.62	9.16637
1506.17	8.97715
1507.73	9.78056
1509.29	10.1114
1510.85	8.93385
1512.41	7.79565
1513.97	8.36194
1515.52	8.80849
1517.08	8.86975
1518.64	9.41808
1520.19	10.5375
1521.75	11.3935
1523.31	12.5887
1524.86	13.6639
1526.42	14.326
1527.97	15.2448
1529.52	17.0099
1531.08	18.0811
1532.63	18.807
1534.19	19.5165
1535.74	21.1687
1537.29	23.0178
1538.85	24.6905
1540.4	25.8041
1541.95	27.2401
1543.5	28.672
1545.06	30.314
1546.61	30.9315
1548.16	31.4676
1549.71	32.082
1551.26	33.2134
1552.81	34.3226
1554.36	36.2144
1555.91	37.8804
1557.46	39.2438
1559.01	40.6775
1560.56	41.2972
1562.11	42.5498
1563.65	43.4948
1565.2	45.21
1566.75	46.4898
1568.29	46.8265
1569.84	48.0625
1571.39	50.0731
1572.94	50.6741
1574.48	52.2996
1576.03	53.6316
1577.57	54.5017
1579.12	55.1348
1580.66	55.5001
1582.21	56.3595
1583.75	57.9324
1585.3	58.8666
1586.84	58.7947
1588.38	59.2597
1589.93	60.2368
1591.47	61.9526
1593.01	63.469
1594.55	63.9366
1596.1	65.0268
1597.64	65.5071
1599.18	64.6676
1600.72	64.8151
1602.26	65.0178
1603.8	65.603
1605.34	65.1312
1606.88	64.6899
1608.42	63.629
1609.96	63.2229
1611.5	63.496
1613.04	62.4593
1614.58	63.0152
1616.12	62.8722
1617.65	62.6571
1619.19	61.6214
1620.73	60.7644
1622.27	60.6261
1623.8	60.3847
1625.34	60.499
1626.87	61.811
1628.41	62.9324
1629.95	65.1327
1631.48	66.5595
1633.02	67.8036
1634.55	69.3318
1636.09	71.1274
1637.62	72.3563
1639.15	73.9525
1640.69	75.7124
1642.22	77.9037
1643.76	79.0405
1645.29	80.989
1646.82	82.8075
1648.35	83.984
1649.88	85.0987
1651.42	86.2725
1652.95	87.0895
1654.48	87.9148
1656.01	87.82
1657.54	88.4443
1659.07	89.2627
1660.6	89.1658
1662.13	88.968
1663.66	88.7849
1665.19	88.4171
1666.72	88.0307
1668.24	87.3976
1669.77	85.964
1671.3	83.7637
1672.83	82.2091
1674.35	80.5657
1675.88	77.9644
1677.41	76.4355
1678.93	73.8742
1680.46	70.9099
1681.99	67.5793
1683.51	64.7178
1685.04	62.0003
1686.56	59.0167
1688.09	55.8503
1689.61	53.2513
1691.13	51.4849
1692.66	47.5698
1694.18	44.4214
1695.71	41.1529
1697.23	38.7176
1698.75	36.6626
1700.27	34.7415
1701.8	32.2384
1703.32	30.8241
1704.84	29.0244
1706.36	28.0666
1707.88	25.9089
1709.4	24.4566
1710.92	22.5264
1712.44	20.9916
1713.96	19.1079
1715.48	17.8131
1717	16.1166
1718.52	15.7287
1720.04	14.6396
1721.56	14.1493
1723.07	12.6035
1724.59	12.2674
1726.11	11.6272
1727.63	10.7036
1729.14	10.2025
1730.66	9.19956
1732.18	8.60579
1733.69	8.77311
1735.21	9.10054
1736.72	8.83866
1738.24	9.01685
1739.75	8.71495
1741.27	8.65057
1742.78	8.82173
1744.3	7.77943
1745.81	7.30479
1747.32	7.26533
1748.84	6.84454
1750.35	6.14501
1751.86	4.99915
1753.37	4.10521
1754.89	4.00034
1756.4	3.66282
1757.91	3.70953
1759.42	3.97032
1760.93	3.59829
1762.44	2.55716
1763.95	1.66489
1765.46	1.74951
1766.97	0.496796
1768.48	-0.328682
1769.99	0.0473526
1771.5	0.173553
1773.01	0.296698
1774.52	0.420571
1776.03	0.428697
1777.53	0.143449
1779.04	0.112507
1780.55	-0.100402
1782.06	-0.10278
1783.56	-0.00985807
1785.07	0.0274354
1786.57	0.0201991
1788.08	0.431146
1789.59	0.0658404
1791.09	0.146684
1792.6	0.432701
1794.1	1.30174
1795.6	1.29039
1797.11	1.4773
1798.61	1.19094
1800.12	1.88034
1801.62	2.12109
1803.12	2.41638
1804.63	2.72259
1806.13	2.59009
1807.63	3.44354
1809.13	4.0168
1810.63	4.17658
1812.14	4.28088
1813.64	4.25984
1815.14	4.34561
1816.64	4.34655
1818.14	3.99519
1819.64	3.39491
1821.14	2.95127
1822.64	2.61122
1824.14	2.41614
1825.63	2.57422
1827.13	2.14669
1828.63	2.75031
1830.13	2.73148
1831.63	2.56561
1833.12	2.48643
1834.62	2.37239
1836.12	1.97559
1837.62	1.78224
1839.11	1.73203
1840.61	2.55169
1842.1	3.06885
1843.6	3.52673
1845.09	4.43428
1846.59	4.91631
1848.08	5.10951
1849.58	4.92708
1851.07	5.47087
1852.57	4.90833
1854.06	4.5382
1855.55	4.92781
1857.04	5.59783
1858.54	5.88809
1860.03	6.12388
1861.52	6.39683
1863.01	6.45564
1864.5	6.84419
1866	6.67709
1867.49	7.13534
1868.98	7.48815
1870.47	7.72784
1871.96	7.97744
1873.45	8.03956
1874.94	9.27407
1876.43	9.68245
1877.92	9.81983
1879.41	10.5232
1880.89	11.3016
1882.38	12.0755
1882.48	11.7527
1883.97	12.0075
1885.47	12.3859
1886.96	12.3745
1888.46	12.4554
1889.95	12.4962
1891.44	12.7756
1892.94	12.4252
1894.43	11.97
1895.92	11.7735
1897.41	12.0873
1898.9	12.033
1900.4	11.5559
1901.89	12.0314
1903.38	11.5305
1904.87	11.8531
1906.36	11.6496
1907.85	12.0377
1909.34	12.4288
1910.83	11.678
1912.32	11.2055
1913.81	11.1787
1915.29	11.1475
1916.78	11.3895
1918.27	11.6359
1919.76	11.0324
1921.25	10.4304
1922.74	10.6081
1924.22	10.4866
1925.71	9.84742
1927.2	10.2815
1928.68	10.5298
1930.17	10.5222
1931.65	9.63401
1933.14	9.69012
1934.63	9.58444
1936.11	9.55404
1937.59	9.44959
1939.08	9.27647
1940.56	9.82819
1942.05	10.1234
1943.53	10.1396
1945.01	10.9738
1946.5	11.6848
1947.98	12.6066
1949.46	12.8774
1950.94	12.8835
1952.43	13.4233
1953.91	13.7571
1955.39	13.2589
1956.87	13.226
1958.35	13.9691
1959.83	13.7785
1961.31	13.7338
1962.79	13.6953
1964.27	13.6575
1965.75	13.5609
1967.23	12.9905
1968.71	13.1907
1970.19	13.7916
1971.67	14.1267
1973.14	14.8067
1974.62	15.0326
1976.1	15.559
1977.58	15.6028
1979.05	15.5019
1980.53	15.6693
1982.01	15.9884
1983.48	15.7292
1984.96	14.9996
1986.43	15.3094
1987.91	16.0422
1989.38	16.7071
1990.86	16.9245
1992.33	16.9455
1993.81	17.0108
1995.28	17.5078
1996.76	18.1068
1998.23	17.9533
1999.7	18.1296
2001.18	18.4275
2002.65	18.475
2004.12	18.5693
2005.59	18.2526
2007.06	18.9254
2008.54	18.7086
2010.01	18.3341
2011.48	18.47
2012.95	19.008
2014.42	19.0864
2015.89	19.4076
2017.36	19.3197
2018.83	20.0555
2020.3	19.7262
2021.77	20.0164
2023.24	19.9586
2024.71	19.5802
2026.17	20.0364
2027.64	20.3109
2029.11	20.1392
2030.58	20.4991
2032.04	20.6613
2033.51	20.3912
2034.98	20.7288
2036.45	20.7778
2037.91	20.3855
2039.38	20.4557
2040.84	20.5913
2042.31	20.7675
2043.77	21.0994
2045.24	20.8779
2046.7	21.6355
2048.17	22.0647
2049.63	21.825
2051.1	21.8966
2052.56	21.1758
2054.02	21.6303
2055.48	21.9035
2056.95	21.983
2058.41	22.3505
2059.87	22.6604
2061.33	22.7023
2062.8	22.64
2064.26	23.2278
2065.72	24.3322
2067.18	24.7421
2068.64	24.5467
2070.1	24.2635
2071.56	24.0277
2073.02	23.9505
2074.48	24.64
2075.94	24.7974
2077.4	24.9197
2078.86	24.6024
2080.31	25.3143
2081.77	26.0083
2083.23	25.9714
2084.69	26.8549
2086.14	27.15
2087.6	27.2514
2089.06	27.9054
2090.52	28.4034
2091.97	29.1918
2093.43	29.6206
2094.88	29.7689
2096.34	30.4423
2097.79	31.3267
2099.25	32.1543
2100.7	32.9103
2102.16	33.4591
2103.61	33.7509
2105.07	34.6967
2106.52	35.9708
2107.97	36.6101
2109.43	37.6566
2110.88	38.1101
2112.33	39.4105
2113.78	39.9673
2115.24	41.2758
2116.69	42.9753
2118.14	44.1109
2119.59	45.7771
2121.04	47.3448
2122.49	48.7434
2123.94	50.4479
2125.39	51.9035
2126.84	54.0693
2128.29	55.0649
2129.74	56.1127
2131.19	57.4617
2132.64	58.7499
2134.09	60.6149
2135.54	61.959
2136.98	63.552
2138.43	64.2433
2139.88	64.9305
2141.33	66.0056
2142.77	68.0243
2144.22	69.6937
2145.67	71.4289
2147.11	73.2329
2148.56	74.1733
2150.01	75.2009
2151.45	76.4292
2152.9	78.6456
2154.34	80.3283
2155.79	81.0917
2157.23	82.6006
2158.67	83.7757
2160.12	85.5921
2161.56	86.3706
2163	87.3137
2164.45	88.257
2165.89	89.2905
2167.33	89.849
2168.78	90.9241
2170.22	90.8081
2171.66	90.6909
2173.1	91.3429
2174.54	91.1815
2175.98	91.0636
2177.42	91.5389
2178.86	91.2537
2180.3	90.5173
2181.74	90.363
2183.18	89.4588
2184.62	89.2838
2186.06	88.5679
2187.5	88.7747
2188.94	88.0962
2190.38	87.161
2191.82	85.912
2193.25	84.7621
2194.69	83.3746
2196.13	80.8395
2197.57	79.0046
2199	77.0421
2200.44	74.5724
2201.88	73.2491
2203.31	71.8756
2204.75	69.6354
2206.18	67.5719
2207.62	64.8843
2209.05	62.9879
2210.49	61.3473
2211.92	59.6544
2213.36	58.4246
2214.79	56.1232
2216.22	53.3841
2217.66	51.3816
2219.09	49.4779
2220.52	47.9338
2221.96	46.9789
2223.39	45.8326
2224.82	44.9307
2226.25	43.5412
2227.68	42.4814
2229.11	41.6867
2230.55	40.0936
2231.98	39.1838
2233.41	37.4783
2234.84	37.1351
2236.27	36.2607
2237.7	35.5913
2239.12	34.3673
2240.55	33.2498
2241.98	32.8541
2243.41	32.9038
2244.84	32.414
2246.27	31.5881
2247.7	31.5167
2249.12	31.5368
2250.55	31.7038
2251.98	31.6335
2253.41	31.394
2254.83	30.8381
2256.26	30.6615
2257.68	30.4256
2259.11	30.4236
2260.54	29.8854
2261.96	29.6352
2263.39	28.7625
2264.81	28.8386
2266.24	28.3274
2267.66	27.8577
2269.08	27.8916
2270.51	27.9386
2271.93	27.3399
2273.35	27.1802
2274.78	26.4522
2276.2	25.6203
2277.62	25.6307
2279.04	25.1833
2280.47	25.196
2281.89	24.8017
2283.31	24.0197
2284.73	23.3946
2286.15	22.3617
2287.57	22.0329
2288.99	21.7621
2290.41	21.1864
2291.83	20.4222
2293.25	19.423
2294.67	18.1741
2296.09	17.8659
2297.51	17.5635
2298.93	17.8906
2300.35	17.2979
2301.76	16.9617
2303.18	17.9937
2304.6	18.3053
2306.02	18.6741
2307.44	18.813
2308.85	19.0608
2310.27	19.3503
2311.69	19.6985
2313.1	20.0764
2314.52	19.2133
2315.93	18.7071
2317.35	18.7193
2318.76	18.2849
2320.18	17.8876
2321.59	17.4785
2323.01	16.6065
2324.42	16.4179
2325.83	16.4107
2327.25	16.4101
2328.66	16.3032
2330.07	15.6686
2331.49	15.1051
2332.9	14.8955
2334.31	14.7627
2335.72	14.8684
2337.13	14.2988
2338.55	14.05
2339.96	13.9547
2341.37	13.7162
2342.78	12.945
2344.19	12.7744
2345.6	12.6271
2347.01	12.6185
2348.42	12.3907
2349.83	12.3485
2351.24	12.0675
2352.65	11.5741
2354.05	11.2536
2355.46	10.8775
2356.87	10.6532
2358.28	9.91707
2359.69	9.35619
2361.09	8.88167
2362.5	8.59283
2363.91	8.47675
2365.31	8.44462
2366.72	8.81566
2368.13	9.19357
2369.53	10.0339
2370.94	9.61084
2372.34	10.4858
2373.75	10.9736
2375.15	10.8933
2376.56	10.4111
2377.96	10.4878
2379.37	10.5235
2380.77	10.6355
2382.17	10.2956
2383.58	9.51721
2384.98	8.98083
2386.38	8.91687
2387.79	8.8966
2389.19	8.54726
2390.59	8.62509
2391.99	8.1613
2393.39	8.11889
2394.8	8.44994
2396.2	8.40555
2397.6	7.85015
2399	7.86053
2400.4	7.79873
2401.8	7.87426
2403.2	8.49062
2404.6	8.68024
2406	8.07404
2407.4	8.26993
2408.79	8.22956
2410.19	8.52372
2411.59	8.33709
2412.99	8.53704
2414.39	9.06775
2415.78	9.26215
2417.18	9.37208
2418.58	9.46656
2419.98	9.15073
2421.37	8.37148
2422.77	8.44323
2424.16	8.57161
2425.56	8.41418
2426.96	8.01053
2428.35	7.62153
2429.74	7.25572
2431.14	7.05517
2432.53	6.70782
2433.93	6.57309
2435.32	6.2487
2436.72	6.52532
2438.11	7.06171
2439.5	6.70928
2440.9	5.92099
2442.29	6.12334
2443.68	5.81892
2445.07	5.45116
2446.47	4.91124
2447.86	5.15175
2449.25	4.71565
2450.64	4.1961
2452.03	4.48664
2453.42	3.85136
2454.81	3.66681
2456.2	3.43767
2457.59	3.78946
2458.98	3.34166
2460.37	3.18607
2461.76	3.12036
2463.15	3.10232
2464.54	2.88711
2465.93	2.82083
2467.32	2.56241
2468.7	3.13384
2470.09	3.0589
2471.48	3.06834
2472.87	3.39171
2474.25	2.78078
2475.64	2.89362
2477.03	2.94837
2478.41	2.35671
2479.8	2.49368
2481.18	2.92892
2482.57	3.33183
2483.95	3.50018
2485.34	2.80891
2486.72	2.88773
2488.11	2.48102
2489.49	2.08338
2490.88	2.79344
2492.26	3.33064
2493.65	3.12369
2495.03	2.87082
2496.41	2.79228
2497.79	3.02656
2499.18	3.58972
2500.56	4.07681
2501.94	3.85149
2503.32	3.53308
2504.7	3.42086
2506.09	3.59639
2507.47	3.52011
2508.85	2.93954
2510.23	2.86596
2511.61	3.11735
2512.99	2.94503
2514.37	2.69305
2515.75	2.74202
2517.13	2.57309
2518.51	2.46388
2519.89	2.39746
2521.26	2.50154
2522.64	1.66362
2524.02	1.48044
2525.4	1.72523
2526.78	1.59485
2528.15	0.534141
2529.53	0.264507
2530.91	-0.316268
2532.28	-0.968848
2533.66	-1.02202
2535.04	-0.675431
2536.41	-0.859036
2537.79	-0.484232
2539.16	-1.11937
2540.54	-1.00588
2541.91	-0.964679
2543.29	-1.03655
2544.66	-0.733016
2546.04	-1.25237
2547.41	-0.997275
2548.78	-0.433086
2550.16	0.354726
2551.53	0.557873
2552.9	0.506443
2554.27	0.200297
2555.65	0.845966
2557.02	0.739945
2558.39	1.56416
2559.76	2.04956
2561.13	2.4261
2562.51	2.76364
2563.88	3.83745
2565.25	4.30342
2566.62	4.74632
2567.99	4.821
2569.36	5.44791
2570.73	5.39165
2572.1	5.57197
2573.47	6.10112
2574.84	6.43739
2576.2	6.81303
2577.57	6.54063
2578.94	6.30978
2580.31	6.26714
2581.68	6.11103
2583.05	6.43293
2584.41	5.96853
2585.78	5.54997
2587.15	5.81614
2588.51	5.24002
2589.88	4.5812
2591.24	4.17612
2592.61	3.82622
2593.98	3.75133
2595.34	3.02327
2596.71	2.48655
2598.07	2.7503
2599.44	2.74946
2600.8	2.51428
2602.16	2.86299
2603.53	2.98785
2604.89	2.44474
2606.26	2.29483
2607.62	1.30815
2608.98	1.13841
2610.34	0.481701
2611.71	-0.205182
2613.07	-0.386698
2614.43	-0.828304
2615.79	-1.07562
2617.15	-1.22223
2618.52	-0.936144
2619.88	-1.00598
2621.24	-1.66711
2622.6	-1.8839
2623.96	-1.97278
2625.32	-1.61416
2626.68	-1.0783
2628.04	-1.0209
2629.4	-0.839133
2630.75	-1.05629
2632.11	-1.26341
2633.47	-1.30271
2634.83	-1.3104
2636.19	-1.09838
2637.55	-1.10095
2638.9	-1.45256
2640.26	-1.23108
2641.62	-0.816152
2642.98	-0.606086
2644.33	-0.262713
2645.69	-0.240544
2647.04	-0.103901
2648.4	0.446863
2649.76	0.949643
2651.11	0.960456
2652.47	0.771537
2653.82	1.40095
2655.18	1.3502
2656.53	1.13647
2657.88	1.23675
2659.24	1.27266
2660.59	1.67098
2661.95	1.87027
2663.3	2.26937
2664.65	2.97925
2666	3.13792
2667.36	3.33217
2668.71	3.25713
2670.06	3.09915
2671.41	2.72914
2672.76	2.54992
2674.12	2.37257
2675.47	2.21878
2676.82	2.47096
2678.17	2.44023
2679.52	2.57841
2680.87	2.56864
2682.22	2.66864
2683.57	3.02909
2684.92	2.61287
2686.27	2.343
2687.62	2.49038
2688.97	2.19689
2690.31	1.90189
2691.66	2.20941
2693.01	2.68194
2694.36	2.38644
2695.71	1.78502
2697.05	1.8147
2698.4	1.98552
2699.75	2.02062
2701.09	2.66296
2702.44	2.75116
2703.78	2.53995
2705.13	2.94419
2706.48	4.09551
2707.82	4.0395
2709.17	4.23244
2710.51	4.64593
2711.86	5.11748
2713.2	5.02566
2714.54	4.76552
2715.89	4.94425
2717.23	5.0925
2718.57	4.94201
2719.92	5.14852
2721.26	5.19445
2722.6	4.69111
2723.95	4.63552
2725.29	4.64424
2726.63	4.75702
2727.97	5.57488
2729.31	5.65951
2730.65	6.31731
2732	5.85508
2733.34	5.5596
2734.68	5.93011
2736.02	5.88575
2737.36	5.94567
2738.7	6.39235
2740.04	6.20654
2741.38	5.81482
2742.72	5.60805
2744.05	5.56834
2745.39	5.41918
2746.73	5.06345
2748.07	4.61775
2749.41	4.55005
2750.75	3.62705
2752.08	3.16846
2753.42	3.60535
2754.76	4.03826
2756.09	3.75466
2757.43	3.71478
2758.77	4.29325
2760.1	4.19094
2761.44	3.88135
2762.78	3.68267
2764.11	3.88293
2765.44	3.54081
2766.78	3.45731
2768.11	3.88852
2769.45	3.27035
2770.78	2.95517
2772.12	2.87704
2773.45	2.05737
2774.78	1.60971
2776.12	2.02423
2777.45	2.33076
2778.78	1.7748
2780.12	0.932775
2781.45	0.853068
2782.78	0.896086
2784.11	0.712772
2785.44	0.7303
2786.78	0.648556
2788.11	0.970807
2789.44	0.721085
2790.77	1.19697
2792.1	1.54567
2793.43	2.15641
2794.76	2.63745
2796.09	2.92175
2797.42	3.62573
2798.75	3.43615
2800.08	3.85526
2801.4	3.75
2802.73	3.72544
2804.06	3.74528
2805.39	3.69956
2806.72	3.45078
2808.05	3.64427
2809.37	3.90762
2810.7	3.88649
2812.03	3.77748
2813.35	4.18561
2814.68	4.50662
2816.01	5.27589
2817.33	5.95362
2818.66	7.29303
2819.98	8.1601
2821.31	9.82068
2822.63	11.1722
2823.96	12.0012
2825.28	13.2479
2826.61	14.5369
2827.93	16.1431
2829.25	18.0414
2830.58	20.0161
2831.9	21.5939
2833.23	23.8855
2834.55	25.9899
2835.87	27.2477
2837.19	29.5502
2838.52	31.5993
2839.84	34.3983
2841.16	37.3618
2842.48	40.1986
2843.8	43.1099
2845.12	46.1691
2846.44	49.9257
2847.77	54.7009
2849.08	58.8262
2850.4	64.256
2851.73	69.4851
2853.05	73.7842
2854.36	78.6864
2855.68	83.103
2857	88.3978
2858.32	93.0968
2859.64	98.0407
2860.96	102.373
2862.28	106.652
2863.59	110.763
2864.91	114.156
2866.23	118.066
2867.55	122.095
2868.86	125.458
2870.18	129.026
2871.5	132.289
2872.81	135.398
2874.13	138.166
2875.44	140.512
2876.76	142.203
2878.07	144.454
2879.39	147.194
2880.7	148.982
2882.02	151.968
2883.33	153.861
2884.65	155.888
2885.96	158.27
2887.28	160.177
2888.59	161.645
2889.9	163.255
2891.21	165.77
2892.53	168.058
2893.84	170.31
2895.15	172.429
2896.46	175.278
2897.78	178.596
2899.09	181.791
2900.4	185.208
2901.71	188.861
2903.02	193.116
2904.33	197.46
2905.64	202.414
2906.95	207.163
2908.26	213.491
2909.57	220.216
2910.88	227.023
2912.19	234.163
2913.5	241.582
2914.81	248.221
2916.12	255.556
2917.43	261.297
2918.73	266.714
2920.04	272.659
2921.35	277.95
2922.66	283.354
2923.96	288.188
2925.27	292.13
2926.58	295.288
2927.88	297.55
2929.19	298.897
2930.5	300.071
2931.8	301.368
2933.11	301.931
2934.41	301.344
2935.72	301.114
2937.02	299.927
2938.33	297.535
2939.63	295.237
2940.94	291.898
2942.24	288.996
2943.54	285.767
2944.85	282.41
2946.15	277.405
2947.45	272.723
2948.76	266.958
2950.06	262.399
2951.36	257.137
2952.66	250.951
2953.97	244.753
2955.27	238.432
2956.57	232.495
2957.87	226.129
2959.17	220.698
2960.47	215.302
2961.77	210.517
2963.07	205.209
2964.37	199.227
2965.67	194.774
2966.97	189.493
2968.27	184.109
2969.57	179.198
2970.87	174.868
2972.17	170.511
2973.47	166.725
2974.77	162.285
2976.07	157.136
2977.36	152.469
2978.66	148.048
2979.96	143.573
2981.26	138.999
2982.55	133.975
2983.85	129.154
2985.15	124.547
2986.44	119.508
2987.74	115.012
2989.03	110.027
2990.33	104.36
2991.63	99.5893
2992.92	94.5163
2994.21	90.1089
2995.51	86.4064
2996.8	82.6537
2998.1	79.0122
2999.39	75.1452
3000.69	71.2341
3001.98	67.7461
3003.27	64.155
3004.57	61.3098
3005.86	58.0356
3007.15	55.5703
3008.44	52.2405
3009.74	49.6185
3011.03	46.6037
3012.32	44.6273
3013.61	42.8211
3014.9	40.8428
3016.19	38.3186
3017.48	36.3893
3018.78	34.6098
3020.07	33.7513
3021.36	32.8152
3022.65	32.4114
3023.94	32.2904
3025.23	31.7418
3026.51	31.0446
3027.8	30.4216
3029.09	30.0155
3030.38	29.6899
3031.67	28.955
3032.96	28.8851
3034.24	28.7554
3035.53	29.109
3036.82	29.5834
3038.11	29.6351
3039.39	30.1278
3040.68	30.4997
3041.97	31.4571
3043.25	32.1981
3044.54	32.5164
3045.83	32.6201
3047.11	33.2778
3048.4	33.9533
3049.68	34.4761
3050.97	34.6121
3052.25	34.8959
3053.54	34.9724
3054.82	34.6519
3056.11	34.8101
3057.39	34.4718
3058.67	34.6038
3059.96	34.2656
3061.24	34.0969
3062.52	34.0345
3063.81	33.7354
3065.09	33.0881
3066.37	32.9057
3067.65	32.1048
3068.94	31.1698
3070.22	30.4791
3071.5	29.6134
3072.78	28.1445
3074.06	27.1661
3075.34	25.7607
3076.62	25.0548
3077.9	23.9316
3079.18	22.0717
3080.46	20.7619
3081.74	19.4042
3083.02	18.0783
3084.3	16.9958
3085.58	15.6684
3086.86	14.4068
3088.14	13.4044
3089.42	12.7348
3090.69	11.7071
3091.97	11.1502
3093.25	10.0922
3094.53	9.74938
3095.8	9.49091
3097.08	9.06209
3098.36	8.99804
3099.63	8.78731
3100.91	8.38049
3102.19	8.5285
3103.46	8.91241
3104.74	8.43054
3106.01	8.35281
3107.29	8.29372
3108.56	7.76865
3109.84	7.54877
3111.11	7.6882
3112.39	7.14009
3113.66	6.18523
3114.94	5.87189
3116.21	5.45815
3117.48	5.87126
3118.76	5.57501
3120.03	5.67366
3121.3	5.67698
3122.57	5.62683
3123.85	5.51807
3125.12	5.8793
3126.39	5.99721
3127.66	5.83302
3128.93	5.30339
3130.21	5.20375
3131.48	4.85149
3132.75	4.61054
3134.02	4.53752
3135.29	4.2013
3136.56	3.64254
3137.83	3.63876
3139.1	3.42148
3140.37	3.4764
3141.64	3.11644
3142.91	3.12539
3144.17	3.52344
3145.44	3.94432
3146.71	4.48515
3147.98	5.46879
3149.25	7.02646
