#Acq. time (s)=	45
#Accumulations=	2
#Range (cm-¹)=	200...3150
#Windows=	2
#Auto scanning=	Off
#Autofocus=	Off
#Macrospot=	Off
#AutoExposure=	Off
#Spike filter=	Multiple accum.
#Delay time (s)=	0
#Binning=	1
#Readout mode=	Signal
#DeNoise=	Off
#ICS correction=	On
#Dark correction=	Off
#Inst. Process=	Off
#Detector Gain=	Best Dynamic Range
#Detector ADC=	20 kHz       
#Detector temperature (°C)=	-69.85
#Instrument=	LabRAM HR Evol
#Detector=	Synapse
#Objective=	x100
#Grating=	600 gr/mm
#ND Filter=	100%
#Laser (nm)=	532 
#Hole=	100.021
#Range=	Auto
#Laser Pol.=	No
#Raman. Pol.=	No
#Laser Pol. (°)=	-0.0007625
#Raman Pol. (°)=	89.9995
#Collection=	Microscope
#StageXY=	Marzhauser
#StageZ=	Marzhauser
#X (µm)=	8979.4
#Y (µm)=	-3061.9
#Z (µm)=	-55.1
#Full time(mm:ss)=	3:19
#Project=	
#Sample=	
#Site=	
#Title=	Thy_00_07_30_2x_45s_532 nm_x100_100%_600 gr_mm
#Remark=	
#Date=	28.06.2022 12:18
#Acquired=	28.06.2022 12:18:15
#Base:Fit=	10.08.2022 10:07:56
#Base:Sub=	10.08.2022 10:08:40
#Filter:Polynom=	16.08.2022 10:26:06
#AxisType[0]=Intens
#AxisUnit[0]=Cnt
#AxisType[1]=Spectr
#AxisUnit[1]=1/cm
200.407	62.5282
202.221	55.742
204.035	49.8921
205.849	44.7919
207.665	40.1461
209.478	36.2158
211.291	32.7786
213.104	30.5225
214.916	27.7274
216.73	25.5854
218.541	23.4513
220.352	22.0019
222.163	19.4939
223.973	17.6912
225.785	17.7369
227.595	16.8552
229.404	16.7416
231.213	15.5881
233.022	12.8898
234.83	11.5589
236.638	11.258
238.448	9.82966
240.255	9.13674
242.062	8.80767
243.868	8.20255
245.675	8.15258
247.48	8.36992
249.286	8.53443
251.091	9.50709
252.896	9.63527
254.702	8.37505
256.506	8.80576
258.31	10.8823
260.113	11.0558
261.916	11.707
263.719	13.07
265.521	13.4286
267.323	14.279
269.125	15.6712
270.926	14.8267
272.727	13.5405
274.527	14.0293
276.328	14.5032
278.127	13.7083
279.927	13.4312
281.726	13.1902
283.525	12.8555
285.323	13.258
287.121	13.4039
288.919	12.9577
290.716	14.055
292.513	13.2866
294.31	12.8167
296.104	13.2447
297.9	13.9067
299.696	14.6314
301.491	14.2022
303.286	14.06
305.081	13.2982
306.875	14.3051
308.669	14.747
310.463	15.2319
312.256	14.8076
314.047	14.6152
315.839	14.2071
317.631	13.7219
319.423	13.0835
321.215	11.9878
323.006	11.3139
324.794	13.1411
326.585	13.0972
328.375	13.0614
330.165	12.8721
331.954	13.0969
333.741	12.721
335.53	12.8118
337.318	12.7864
339.106	12.9322
340.894	13.7956
342.679	13.1757
344.466	12.6704
346.253	13.9722
348.039	14.918
349.823	14.5005
351.608	15.1615
353.393	13.3755
355.176	13.255
356.961	13.373
358.745	13.3543
360.529	12.1705
362.31	11.5391
364.093	12.5365
365.876	11.4538
367.657	10.3146
369.439	10.2293
371.221	9.54585
373	8.47904
374.781	7.86196
376.56	8.01138
378.34	7.22284
380.12	6.50251
381.898	5.29221
383.677	5.50263
385.456	6.12155
387.233	5.78488
389.011	5.69438
390.787	5.09479
392.565	5.09753
394.34	5.78681
396.117	6.16951
397.894	6.45666
399.668	6.39065
401.444	6.61206
403.217	5.82446
404.993	6.96786
406.766	8.34403
408.54	7.89189
410.312	8.45219
412.086	9.09167
413.858	10.0574
415.631	9.93799
417.402	10.4459
419.174	10.2282
420.944	11.8801
422.716	12.7049
424.486	13.5823
426.257	14.4123
428.025	15.3925
429.794	15.1619
431.564	14.4767
433.332	14.7874
435.101	14.5596
436.868	14.5377
438.637	14.2351
440.403	13.624
442.169	13.2737
443.937	14.5633
445.703	14.7583
447.468	14.3159
449.234	14.4096
450.999	14.6082
452.765	15.9074
454.528	16.4288
456.292	17.4963
458.057	18.1042
459.819	19.2189
461.582	19.6213
463.344	19.7349
465.107	20.0808
466.868	19.1522
468.629	19.7804
470.392	19.6721
472.152	20.4053
473.912	20.9102
475.672	21.2211
477.433	21.3898
479.192	21.9753
480.951	22.0614
482.709	23.5098
484.469	24.9197
486.226	25.484
487.984	25.8149
489.74	26.3026
491.499	26.151
493.255	27.7889
495.011	28.0941
496.767	28.6823
498.522	29.795
500.277	31.1084
502.033	30.7411
503.788	30.7849
505.541	30.2088
507.295	30.3721
509.048	30.1652
510.801	28.7401
512.553	27.6
514.308	26.3863
516.06	24.9834
517.811	23.4384
519.562	22.8159
521.313	21.7893
523.063	20.9192
524.814	19.6721
526.563	19.1478
528.313	17.9458
530.062	18.785
531.811	17.4868
533.559	18.1371
535.308	17.2656
537.055	17.7468
538.803	17.8304
540.55	17.2157
542.297	16.9127
544.043	15.8993
545.789	14.648
547.535	13.4464
549.281	11.6846
551.026	10.2403
552.771	10.2922
554.515	9.18541
556.259	9.05885
558.003	8.30826
559.747	7.55825
561.49	7.41728
563.233	7.59425
564.975	7.19058
566.717	8.22207
568.459	8.1203
570.2	9.41887
571.942	9.73727
573.68	9.65662
575.421	10.024
577.161	10.1791
578.901	11.1058
580.64	11.8538
582.379	11.9076
584.118	11.8374
585.855	11.4645
587.593	11.4744
589.331	10.6401
591.068	12.0529
592.805	11.7465
594.54	10.8439
596.277	9.84329
598.013	8.852
599.749	8.68745
601.484	8.05563
603.217	7.89867
604.952	8.04813
606.687	7.53755
608.421	7.35298
610.153	7.71511
611.886	7.46867
613.619	7.52969
615.35	6.76358
617.083	6.71225
618.815	4.88225
620.547	5.08653
622.276	3.89843
624.008	3.6135
625.738	3.03424
627.467	2.66381
629.197	3.41806
630.927	2.275
632.655	2.65172
634.384	2.53301
636.113	3.17031
637.839	3.5813
639.568	3.84122
641.293	3.44303
643.021	3.72257
644.748	4.30341
646.473	4.6358
648.2	5.5438
649.924	6.26784
651.65	7.00283
653.376	7.69297
655.099	8.23116
656.824	9.32085
658.546	10.6442
660.271	11.2046
661.993	11.4798
663.716	12.3444
665.438	13.0685
667.161	13.9199
668.881	14.1884
670.604	15.2842
672.324	15.7124
674.045	16.5255
675.765	17.9603
677.486	18.5283
679.204	18.2099
680.925	18.6571
682.643	19.3428
684.361	20.3099
686.08	21.8847
687.797	22.6709
689.516	23.308
691.232	23.1719
692.95	23.2545
694.666	24.4309
696.382	24.2024
698.099	23.4411
699.813	23.015
701.528	22.4867
703.244	22.4443
704.958	22.7493
706.673	23.0217
708.387	23.8797
710.099	23.1235
711.814	24.133
713.526	25.2429
715.238	26.1153
716.949	25.4037
718.663	26.1748
720.374	26.2996
722.084	28.058
723.796	28.7387
725.506	29.5569
727.216	30.4756
728.925	31.7342
730.636	33.5049
732.345	33.9861
734.053	35.2088
735.761	36.544
737.471	37.9507
739.178	38.7794
740.885	40.5495
742.592	42.532
744.298	44.069
746.006	44.8596
747.712	46.8439
749.417	49.2653
751.122	51.5987
752.827	53.7922
754.532	54.8789
756.236	57.4965
757.942	58.6177
759.645	59.6732
761.348	61.5128
763.051	62.8139
764.753	64.9653
766.456	65.3512
768.158	66.3904
769.859	68.2736
771.56	69.3873
773.261	69.8265
774.964	70.1092
776.664	70.4244
778.364	70.4021
780.064	70.0406
781.763	68.5628
783.462	67.5409
785.16	66.6604
786.859	66.7084
788.557	65.5554
790.255	64.2659
791.952	64.0625
793.649	64.5213
795.346	63.9934
797.042	64.8103
798.738	64.2251
800.434	63.7412
802.127	63.5906
803.823	64.0878
805.517	63.859
807.212	64.5902
808.906	63.2797
810.6	62.9843
812.293	62.9527
813.987	62.9577
815.68	62.52
817.372	62.589
819.064	63.447
820.754	63.1063
822.446	63.5388
824.137	64.7391
825.828	65.4289
827.519	66.7894
829.209	67.2102
830.897	67.8854
832.587	69.3365
834.276	69.9702
835.966	69.2805
837.654	69.2898
839.341	69.0624
841.029	68.5095
842.717	67.2282
844.404	66.4091
846.091	66.9197
847.776	65.6243
849.463	64.7462
851.149	63.3068
852.833	63.2559
854.519	62.1223
856.204	60.7761
857.889	58.8315
859.572	57.1696
861.256	55.0799
862.94	53.5222
864.622	52.1106
866.305	50.7537
867.988	49.1553
869.669	48.7612
871.351	48.6117
873.033	47.7572
874.713	47.3331
876.395	47.6621
878.074	46.6763
879.755	44.9974
881.435	44.5247
883.114	44.6546
884.794	44.1391
886.471	43.5057
888.15	42.333
889.829	41.5024
891.506	42.0742
893.184	40.8752
894.861	40.7005
896.538	40.6556
898.214	41.819
899.891	42.196
901.566	42.8618
903.242	44.0954
904.916	44.1785
906.592	46.1355
908.266	47.7732
909.941	47.4819
911.614	49.1365
913.288	49.3494
914.961	50.5219
916.635	50.9301
918.306	50.5699
919.979	49.9787
921.651	51.0331
923.321	49.8729
924.994	49.942
926.664	49.6251
928.336	49.2863
930.005	48.7201
931.674	48.007
933.345	47.6271
935.014	47.5436
936.682	46.8611
938.352	46.0667
940.019	45.6208
941.687	43.6724
943.356	42.6549
945.022	41.1444
946.689	40.2925
948.357	39.1047
950.022	38.6692
951.688	37.1345
953.355	36.4271
955.02	35.0599
956.684	32.9226
958.348	30.3623
960.014	28.1929
961.678	25.4617
963.341	23.5655
965.004	23.4897
966.669	23.3605
968.331	23.2854
969.993	23.8989
971.655	24.6473
973.316	25.7313
974.979	27.0791
976.64	27.9445
978.3	28.2879
979.961	30.6299
981.62	32.3826
983.28	32.8522
984.941	34.0531
986.6	34.7277
988.259	34.2219
989.917	35.8267
991.575	36.5053
993.233	36.8688
994.89	38.2414
996.547	38.0539
998.204	38.8369
999.86	39.6924
1001.52	40.7881
1003.17	41.4501
1004.83	42.1659
1006.49	42.3976
1008.14	42.3989
1009.79	41.9428
1011.45	41.8226
1013.1	41.4984
1014.76	41.7041
1016.41	41.3178
1018.06	41.7866
1019.72	40.388
1021.37	39.4558
1023.02	37.6487
1024.67	35.3478
1026.32	34.7587
1027.97	33.6117
1029.62	31.5137
1031.27	29.5363
1032.92	26.7686
1034.57	23.3162
1036.22	20.6298
1037.87	18.0936
1039.52	15.5872
1041.17	13.5302
1042.82	11.8036
1044.47	11.4196
1046.11	12.5723
1047.76	13.5299
1049.41	14.1806
1051.06	15.0615
1052.7	14.4117
1054.35	14.2829
1055.99	14.8151
1057.64	14.6881
1059.28	14.5261
1060.93	13.4157
1062.57	14.8919
1064.22	14.4377
1065.86	13.4159
1067.5	13.8675
1069.15	13.6719
1070.79	14.6626
1072.43	16.6737
1074.08	17.7013
1075.72	18.3705
1077.36	19.3045
1079	19.4504
1080.64	19.3482
1082.28	19.7125
1083.92	19.9853
1085.56	20.501
1087.2	21.7911
1088.84	23.2001
1090.48	24.0022
1092.12	26.4438
1093.76	28.3142
1095.39	30.1895
1097.03	31.3032
1098.67	32.881
1100.31	33.5725
1101.94	33.7156
1103.58	34.1286
1105.22	34.996
1106.85	35.926
1108.49	35.8327
1110.12	34.9793
1111.76	33.6858
1113.39	32.386
1115.03	32.3988
1116.66	30.773
1118.29	30.5757
1119.93	30.8375
1121.56	30.6954
1123.19	29.8751
1124.82	29.6753
1126.46	29.2132
1128.09	28.933
1129.72	28.1369
1131.35	27.1282
1132.98	26.9763
1134.61	26.4708
1136.24	25.2554
1137.87	24.6266
1139.5	23.9963
1141.13	23.2418
1142.76	22.1077
1144.39	22.0456
1146.01	20.4569
1147.64	20.1154
1149.27	19.835
1150.9	17.9494
1152.53	17.8738
1154.15	17.1286
1155.78	15.3355
1157.4	13.5773
1159.03	12.3755
1160.65	10.6872
1162.28	9.38138
1163.9	9.02111
1165.53	8.29032
1167.15	8.08927
1168.78	8.53406
1170.4	8.3045
1172.02	8.44932
1173.65	8.80423
1175.27	8.52149
1176.89	8.94361
1178.51	8.74428
1180.14	9.0075
1181.76	7.76496
1183.38	8.76526
1185	9.13558
1186.62	9.44067
1188.24	8.98329
1189.86	7.59471
1191.48	8.12315
1193.1	8.09617
1194.71	8.02123
1196.33	9.23141
1197.95	8.74621
1199.57	9.7144
1201.19	10.3151
1202.8	11.6441
1204.42	12.3347
1206.04	12.6589
1207.65	14.7115
1209.27	16.6586
1210.88	18.9009
1212.5	21.8686
1214.12	24.3695
1215.73	25.9577
1217.35	27.1724
1218.96	30.2186
1220.57	32.7322
1222.19	35.0059
1223.8	37.6912
1225.41	39.3146
1227.03	40.7611
1228.64	43.1022
1230.25	44.5514
1231.86	46.5625
1233.47	48.5863
1235.08	49.5019
1236.69	51.2562
1238.31	54.1053
1239.92	55.2698
1241.52	54.4355
1243.13	55.1672
1244.74	56.4391
1246.35	56.8569
1247.96	58.2773
1249.57	59.5053
1251.18	60.7575
1252.78	62.3326
1254.39	62.151
1256	61.818
1257.6	61.4129
1259.21	60.3586
1260.82	60.7099
1262.42	60.3161
1264.03	60.2443
1265.63	59.9598
1267.24	59.0404
1268.84	59.2626
1270.45	58.5001
1272.05	59.559
1273.65	59.0003
1275.26	58.7456
1276.86	59.284
1278.46	59.3192
1280.06	60.6605
1281.67	61.9702
1283.27	63.7751
1284.87	63.8939
1286.47	65.2674
1288.07	67.7224
1289.67	68.1823
1291.27	69.543
1292.87	70.9032
1294.47	71.8355
1296.07	73.2038
1297.67	73.9924
1299.27	75.3125
1300.87	76.2562
1302.47	77.4852
1304.06	79.122
1305.66	80.7622
1307.26	83.5649
1308.85	85.9701
1310.45	88.9611
1312.05	91.4947
1313.64	93.0806
1315.24	95.6067
1316.83	98.4781
1318.43	99.6285
1320.02	99.607
1321.62	100.145
1323.21	103.105
1324.8	103.22
1326.4	103.276
1327.99	104.18
1329.59	104.418
1331.18	103.554
1332.77	102.398
1334.36	100.849
1335.95	99.9994
1337.54	99.528
1339.14	99.763
1340.73	99.2216
1342.32	97.8311
1343.91	97.0344
1345.5	96.2085
1347.09	93.4074
1348.67	92.9525
1350.26	90.6206
1351.85	89.4051
1353.44	86.7986
1355.03	84.8092
1356.62	83.6931
1358.2	82.0047
1359.79	81.4197
1361.38	79.1429
1362.96	78.3205
1364.55	75.8184
1366.14	74.524
1367.72	72.8589
1369.31	70.8496
1370.89	69.9961
1372.48	68.2532
1374.06	66.9287
1375.64	64.9844
1377.23	63.5427
1378.81	63.6801
1380.39	64.0994
1381.98	64.3793
1383.56	64.4223
1385.14	64.0074
1386.72	64.1843
1388.3	64.2341
1389.89	63.7982
1391.47	62.3732
1393.05	61.7333
1394.63	61.8584
1396.21	61.3134
1397.79	59.9288
1399.37	59.4825
1400.95	59.0603
1402.52	59.1313
1404.1	57.8881
1405.68	57.2806
1407.26	56.8625
1408.84	56.517
1410.42	57.3409
1411.99	59.1295
1413.57	60.944
1415.15	62.2934
1416.72	64.4277
1418.3	66.6361
1419.87	68.4369
1421.45	71.4517
1423.02	73.9348
1424.6	76.0268
1426.17	78.2601
1427.75	81.6289
1429.32	84.0381
1430.89	88.1962
1432.47	91.2825
1434.04	94.9948
1435.61	98.8215
1437.18	101.854
1438.76	104.996
1440.33	106.689
1441.9	109.05
1443.47	109.923
1445.04	111.35
1446.61	112.284
1448.18	112.569
1449.75	113.467
1451.32	113.22
1452.89	113.234
1454.46	112.843
1456.03	112.414
1457.6	111.426
1459.16	109.694
1460.73	106.555
1462.3	103.315
1463.87	101.108
1465.43	98.2388
1467	94.2463
1468.56	90.5868
1470.13	86.2405
1471.7	82.107
1473.26	77.2604
1474.83	72.9324
1476.39	68.4047
1477.96	64.8613
1479.52	60.7684
1481.08	56.2261
1482.65	51.4338
1484.21	47.4052
1485.77	45.2493
1487.34	42.1356
1488.9	38.6948
1490.46	36.3507
1492.02	33.6879
1493.58	31.1616
1495.15	29.851
1496.71	29.0546
1498.27	27.3696
1499.83	27.0501
1501.39	25.534
1502.95	24.5793
1504.51	24.405
1506.07	24.7315
1507.63	25.0111
1509.18	24.6809
1510.74	23.7892
1512.3	23.1382
1513.86	22.6623
1515.41	22.6814
1516.97	22.5182
1518.53	22.1232
1520.08	22.0569
1521.64	22.0971
1523.2	22.6181
1524.75	23.5992
1526.31	24.458
1527.86	25.3125
1529.42	25.9347
1530.97	27.559
1532.52	28.4233
1534.08	29.4969
1535.63	30.4735
1537.19	31.5309
1538.74	32.5154
1540.29	33.856
1541.84	36.0238
1543.4	37.6059
1544.95	38.9871
1546.5	40.6609
1548.05	41.4704
1549.6	43.9433
1551.15	45.7054
1552.7	48.528
1554.25	50.281
1555.8	52.6441
1557.35	54.6913
1558.9	56.544
1560.45	58.4807
1562	60.8029
1563.54	62.8458
1565.09	62.7998
1566.64	64.625
1568.19	67.3161
1569.73	68.7861
1571.28	70.6309
1572.83	72.702
1574.37	74.0562
1575.92	75.6399
1577.47	77.6557
1579.01	78.3014
1580.56	79.8408
1582.1	80.9065
1583.64	82.524
1585.19	83.1066
1586.73	83.8366
1588.28	85.4323
1589.82	86.3041
1591.36	87.8051
1592.9	89.1978
1594.45	89.683
1595.99	89.8332
1597.53	89.815
1599.07	90.4665
1600.61	91.0104
1602.15	91.2254
1603.69	90.9891
1605.23	89.9655
1606.77	89.369
1608.31	88.6741
1609.85	87.813
1611.39	87.5008
1612.93	86.3721
1614.47	84.6453
1616.01	84.7926
1617.55	84.5084
1619.08	85.1916
1620.62	85.305
1622.16	85.3686
1623.7	85.5682
1625.23	85.8571
1626.77	86.9109
1628.3	87.1034
1629.84	88.3155
1631.37	88.1177
1632.91	89.481
1634.44	90.3729
1635.98	90.9456
1637.51	91.7842
1639.05	92.3242
1640.58	92.7682
1642.11	93.9003
1643.65	95.815
1645.18	96.9701
1646.71	98.0557
1648.24	99.5892
1649.78	100.889
1651.31	102.705
1652.84	104.551
1654.37	105.464
1655.9	106.128
1657.43	107.301
1658.96	107.701
1660.49	109.036
1662.02	109.001
1663.55	109.786
1665.08	109.396
1666.61	108.668
1668.14	107.236
1669.66	105.455
1671.19	103.204
1672.72	101.113
1674.25	98.7567
1675.77	96.0534
1677.3	93.3513
1678.83	89.8801
1680.35	86.0478
1681.88	82.6172
1683.4	79.644
1684.93	76.7395
1686.45	73.6639
1687.98	69.2849
1689.5	65.1077
1691.03	62.2068
1692.55	59.9543
1694.07	56.2984
1695.6	53.956
1697.12	51.0829
1698.64	47.8253
1700.17	44.6421
1701.69	41.4556
1703.21	39.1618
1704.73	36.2721
1706.25	34.2042
1707.77	32.1387
1709.29	31.0584
1710.81	29.2668
1712.33	27.7135
1713.85	25.8589
1715.37	23.9463
1716.89	22.599
1718.41	22.1206
1719.93	20.7395
1721.45	19.8874
1722.97	18.6489
1724.49	18.0421
1726	17.6656
1727.52	16.933
1729.04	15.9342
1730.55	15.2813
1732.07	14.9833
1733.59	14.9082
1735.1	14.5182
1736.62	14.729
1738.13	14.1123
1739.65	13.5208
1741.16	12.8468
1742.68	12.2954
1744.19	11.4001
1745.7	11.1802
1747.22	11.1072
1748.73	11.0015
1750.24	10.3539
1751.76	9.95704
1753.27	10.34
1754.78	9.97055
1756.29	9.56173
1757.8	10.3723
1759.31	9.55138
1760.83	9.39981
1762.34	8.58763
1763.85	8.01461
1765.36	8.37744
1766.87	9.02179
1768.38	8.91501
1769.89	9.28955
1771.39	9.51449
1772.9	9.28157
1774.41	8.84304
1775.92	9.10425
1777.43	8.74728
1778.94	8.98279
1780.44	8.5754
1781.95	8.70118
1783.46	8.62024
1784.96	8.36254
1786.47	8.125
1787.97	7.5005
1789.48	6.92786
1790.99	6.55992
1792.49	6.20288
1794	5.73142
1795.5	5.26282
1797	4.91386
1798.51	4.20706
1800.01	3.92675
1801.51	3.73542
1803.02	3.14013
1804.52	2.76059
1806.02	2.28079
1807.53	2.06131
1809.03	1.58263
1810.53	1.67133
1812.03	1.8403
1813.53	1.17988
1815.03	0.884506
1816.53	0.721747
1818.03	0.0360134
1819.53	-0.00841034
1821.03	-0.151959
1822.53	-0.109212
1824.03	-0.264042
1825.53	-0.614534
1827.03	-0.0833892
1828.53	0.187962
1830.02	-0.24333
1831.52	-0.296967
1833.02	0.0218269
1834.52	-0.632315
1836.01	-0.000973332
1837.51	0.550664
1839.01	1.26426
1840.5	1.6691
1842	1.75572
1843.49	1.83898
1844.99	2.40074
1846.48	2.80919
1847.98	3.00135
1849.47	3.43253
1850.97	4.00497
1852.46	3.96536
1853.95	4.18023
1855.45	4.59797
1856.94	5.25319
1858.43	5.37122
1859.93	5.48413
1861.42	5.94954
1862.91	6.03188
1864.4	5.58259
1865.89	5.8343
1867.38	6.23676
1868.87	6.04771
1870.36	6.13099
1871.85	6.33844
1873.34	6.17491
1874.83	6.24517
1876.32	6.21485
1877.81	6.2253
1879.3	5.92582
1880.79	6.60738
1882.28	6.75368
1882.52	6.29581
1884.02	6.27762
1885.51	6.44287
1887.01	5.7923
1888.5	5.92925
1889.99	5.96041
1891.49	6.11785
1892.98	5.68697
1894.47	4.8135
1895.97	4.85301
1897.46	4.69214
1898.95	4.82401
1900.44	4.57044
1901.93	3.70288
1903.42	2.43635
1904.91	2.01348
1906.4	2.14624
1907.89	2.08751
1909.38	2.14765
1910.87	2.32735
1912.36	1.43838
1913.85	1.42657
1915.34	0.800718
1916.83	1.30723
1918.32	1.65506
1919.8	1.38513
1921.29	1.11349
1922.78	1.38339
1924.27	1.01308
1925.75	0.840067
1927.24	0.907386
1928.73	1.12196
1930.21	1.26777
1931.7	1.33348
1933.18	1.0987
1934.67	1.14993
1936.15	1.08287
1937.64	1.1201
1939.12	1.46371
1940.61	1.78039
1942.09	1.65366
1943.57	2.24176
1945.06	2.49027
1946.54	2.46418
1948.02	2.44024
1949.51	2.72175
1950.99	3.2294
1952.47	3.62842
1953.95	4.04264
1955.43	4.05759
1956.91	3.82013
1958.4	4.24146
1959.88	4.97781
1961.36	4.90629
1962.84	5.17869
1964.32	5.49527
1965.8	4.85507
1967.27	4.20278
1968.75	4.77437
1970.23	5.97572
1971.71	6.54716
1973.19	6.63209
1974.67	6.2835
1976.14	6.7608
1977.62	6.78009
1979.1	7.34616
1980.58	7.45516
1982.05	7.50648
1983.53	7.20375
1985	7.04679
1986.48	7.09835
1987.95	7.1885
1989.43	6.95472
1990.9	6.99962
1992.38	6.34149
1993.85	5.69354
1995.33	5.63821
1996.8	5.63391
1998.27	5.84213
1999.75	5.95586
2001.22	5.93666
2002.69	6.16488
2004.16	6.05298
2005.64	5.921
2007.11	5.94271
2008.58	6.26403
2010.05	6.11337
2011.52	6.2037
2012.99	5.95054
2014.46	6.38128
2015.93	6.14424
2017.4	6.46946
2018.87	5.67658
2020.34	5.68268
2021.81	5.3837
2023.28	5.13847
2024.75	5.0405
2026.22	4.51855
2027.69	4.65173
2029.15	4.09678
2030.62	3.82276
2032.09	3.91731
2033.56	3.46599
2035.02	3.07873
2036.49	2.31232
2037.96	2.21245
2039.42	1.81777
2040.89	2.29629
2042.35	2.90464
2043.82	3.81717
2045.28	3.68815
2046.75	3.61173
2048.21	3.52222
2049.67	3.07221
2051.14	2.70699
2052.6	2.16534
2054.07	2.18528
2055.53	2.2257
2056.99	2.30715
2058.45	2.70135
2059.92	2.52919
2061.38	2.52035
2062.84	2.70406
2064.3	2.40837
2065.76	2.87941
2067.22	3.68761
2068.68	4.19036
2070.14	4.91038
2071.6	5.31494
2073.06	5.02719
2074.52	5.94418
2075.98	5.96116
2077.44	5.97938
2078.9	6.0896
2080.36	6.31296
2081.82	6.32928
2083.27	6.76743
2084.73	7.47719
2086.19	7.55017
2087.65	7.83647
2089.1	7.21337
2090.56	7.57202
2092.02	7.07517
2093.47	7.25142
2094.93	7.2024
2096.38	6.39189
2097.84	6.97347
2099.29	6.97494
2100.75	7.343
2102.2	6.70029
2103.66	6.63274
2105.11	6.21275
2106.56	5.86941
2108.02	6.07713
2109.47	5.82039
2110.92	6.09743
2112.38	6.35166
2113.83	6.34318
2115.28	6.68739
2116.73	6.94552
2118.18	6.41202
2119.63	6.66421
2121.09	5.94696
2122.54	6.66784
2123.99	7.41637
2125.44	7.56709
2126.89	7.91637
2128.34	7.99571
2129.79	8.99094
2131.23	8.99635
2132.68	8.43717
2134.13	8.67447
2135.58	8.52031
2137.03	8.73549
2138.48	8.74642
2139.92	8.96062
2141.37	8.52019
2142.82	7.78364
2144.27	7.25859
2145.71	6.28664
2147.16	5.77587
2148.6	4.80311
2150.05	4.46552
2151.49	4.16498
2152.94	4.04909
2154.38	4.26906
2155.83	4.76355
2157.27	4.19272
2158.72	3.95211
2160.16	3.99352
2161.6	3.66196
2163.05	4.06004
2164.49	3.39157
2165.93	3.08163
2167.38	3.20322
2168.82	2.78109
2170.26	3.22295
2171.7	3.27467
2173.14	3.13558
2174.58	3.04848
2176.03	2.98271
2177.47	3.2993
2178.91	4.07566
2180.35	4.38661
2181.79	4.41768
2183.23	4.7998
2184.67	5.05633
2186.1	4.82871
2187.54	5.40168
2188.98	5.57163
2190.42	6.49699
2191.86	6.17046
2193.3	6.58708
2194.73	7.58113
2196.17	7.58269
2197.61	7.58548
2199.05	8.16054
2200.48	8.62306
2201.92	8.56119
2203.35	8.1388
2204.79	8.5224
2206.22	8.68669
2207.66	9.20917
2209.1	9.17665
2210.53	8.92659
2211.97	9.20998
2213.4	9.00393
2214.83	9.00571
2216.27	9.70463
2217.7	9.98804
2219.13	9.94158
2220.57	10.573
2222	10.8213
2223.43	11.1202
2224.86	11.9999
2226.29	12.2393
2227.72	12.4466
2229.16	11.9233
2230.59	12.3999
2232.02	12.2967
2233.45	11.5985
2234.88	11.3521
2236.31	10.9763
2237.74	11.218
2239.17	11.1709
2240.6	10.4695
2242.03	10.2523
2243.45	9.77654
2244.88	9.00989
2246.31	9.2139
2247.74	8.71036
2249.17	7.86881
2250.59	7.73371
2252.02	6.78592
2253.45	5.77777
2254.87	5.61651
2256.3	4.6744
2257.73	3.95806
2259.15	3.75638
2260.58	3.54816
2262	3.60329
2263.43	2.71504
2264.85	3.17962
2266.28	2.67048
2267.7	2.63202
2269.13	2.27507
2270.55	2.91394
2271.97	2.51467
2273.4	2.59229
2274.82	3.89858
2276.24	4.43205
2277.67	4.56932
2279.09	5.10716
2280.51	5.40859
2281.93	6.00963
2283.35	6.50543
2284.77	6.30676
2286.2	6.9725
2287.62	6.89317
2289.04	6.72737
2290.46	6.09489
2291.88	6.38381
2293.3	6.55831
2294.72	6.62901
2296.13	7.14215
2297.55	6.85797
2298.97	7.08747
2300.39	7.1418
2301.81	7.37016
2303.23	7.86417
2304.64	7.95839
2306.06	8.37164
2307.48	8.67505
2308.89	9.02652
2310.31	8.89371
2311.73	8.71589
2313.14	8.69348
2314.56	8.1893
2315.98	8.73961
2317.39	8.53586
2318.81	7.93881
2320.22	7.91938
2321.64	8.52193
2323.05	8.11766
2324.46	7.89176
2325.88	8.18213
2327.29	7.62395
2328.7	7.80499
2330.12	7.8713
2331.53	8.15151
2332.94	8.37993
2334.35	8.45665
2335.77	8.83898
2337.18	8.40625
2338.59	8.22893
2340	8.22769
2341.41	8.63021
2342.82	7.74797
2344.23	7.73142
2345.64	7.86048
2347.05	6.31365
2348.46	6.15434
2349.87	5.79203
2351.28	5.27721
2352.69	4.49949
2354.1	3.23238
2355.51	2.6666
2356.91	2.53657
2358.32	1.56623
2359.73	1.4984
2361.14	1.60634
2362.54	1.84195
2363.95	1.93368
2365.36	1.76579
2366.76	1.80989
2368.17	1.18905
2369.58	1.55272
2370.98	1.91249
2372.39	2.22823
2373.79	3.17637
2375.2	2.67272
2376.6	3.19608
2378	3.75386
2379.41	3.4477
2380.81	3.18985
2382.22	3.05263
2383.62	3.25941
2385.02	2.91094
2386.43	3.4005
2387.83	3.71424
2389.23	4.40484
2390.63	4.85568
2392.03	5.15869
2393.44	5.0323
2394.84	5.60669
2396.24	5.98223
2397.64	6.0906
2399.04	6.32696
2400.44	7.29104
2401.84	7.44661
2403.24	7.53183
2404.64	7.26996
2406.04	7.02557
2407.44	6.87037
2408.84	7.69712
2410.23	8.37569
2411.63	8.12498
2413.03	8.53429
2414.43	8.7923
2415.83	8.81266
2417.22	8.99287
2418.62	9.28617
2420.02	9.18686
2421.41	8.58006
2422.81	8.23218
2424.21	8.29247
2425.6	9.11432
2427	8.99992
2428.39	8.84955
2429.79	9.06416
2431.18	8.83618
2432.58	8.44567
2433.97	8.18161
2435.36	7.71098
2436.76	7.6484
2438.15	7.07921
2439.54	7.82261
2440.94	7.57457
2442.33	7.47295
2443.72	7.68449
2445.12	7.46117
2446.51	7.35714
2447.9	6.77098
2449.29	6.09108
2450.68	5.79917
2452.07	5.45838
2453.46	5.9423
2454.85	5.34839
2456.24	5.32615
2457.64	4.75477
2459.02	3.62814
2460.41	2.90544
2461.8	2.9111
2463.19	2.76768
2464.58	2.49364
2465.97	1.58282
2467.36	1.27912
2468.75	1.32152
2470.13	1.86206
2471.52	1.5658
2472.91	1.77427
2474.3	2.6028
2475.68	3.55776
2477.07	4.27808
2478.45	5.26678
2479.84	5.20761
2481.23	5.88022
2482.61	6.57275
2484	6.35826
2485.38	6.70228
2486.77	6.69506
2488.15	6.25204
2489.54	7.06725
2490.92	7.40845
2492.3	7.62423
2493.69	7.90772
2495.07	7.85726
2496.45	7.78478
2497.84	8.10424
2499.22	9.04721
2500.6	9.0823
2501.98	9.3204
2503.36	9.98103
2504.75	10.5851
2506.13	11.1977
2507.51	10.855
2508.89	10.8666
2510.27	10.3811
2511.65	9.75722
2513.03	9.40036
2514.41	8.262
2515.79	7.58861
2517.17	7.61196
2518.55	7.04055
2519.93	6.60608
2521.3	6.34318
2522.68	6.54014
2524.06	5.24308
2525.44	4.83468
2526.82	4.53994
2528.19	4.07179
2529.57	4.21966
2530.95	3.79949
2532.32	3.45351
2533.7	3.07269
2535.08	3.07715
2536.45	3.73848
2537.83	4.02124
2539.2	4.69735
2540.58	5.2863
2541.95	5.47721
2543.33	6.37466
2544.7	6.67725
2546.08	7.13925
2547.45	7.50346
2548.82	7.45319
2550.2	8.31752
2551.57	7.84389
2552.94	7.68005
2554.32	7.68426
2555.69	7.48963
2557.06	7.96727
2558.43	8.06708
2559.8	8.33531
2561.18	8.45393
2562.55	8.26305
2563.92	8.57948
2565.29	9.01798
2566.66	10.0036
2568.03	10.3159
2569.4	9.95638
2570.77	9.84792
2572.14	9.93018
2573.51	9.59063
2574.88	8.43562
2576.25	8.13723
2577.61	7.73084
2578.98	7.41912
2580.35	7.01999
2581.72	7.10353
2583.09	6.69515
2584.45	7.45951
2585.82	7.67866
2587.19	7.52073
2588.55	7.85182
2589.92	7.87611
2591.29	8.18763
2592.65	7.79997
2594.02	8.06953
2595.38	8.17154
2596.75	7.46539
2598.11	8.4712
2599.48	8.25173
2600.84	8.39293
2602.21	8.18002
2603.57	8.61317
2604.93	8.80846
2606.3	8.9694
2607.66	9.24713
2609.02	9.07297
2610.39	8.64069
2611.75	8.98329
2613.11	9.17227
2614.47	9.33164
2615.83	9.73168
2617.19	9.52248
2618.56	9.52427
2619.92	8.79089
2621.28	8.54684
2622.64	8.66445
2624	8.09557
2625.36	7.82468
2626.72	7.44881
2628.08	7.43918
2629.44	6.86853
2630.8	6.65055
2632.15	6.76102
2633.51	6.49105
2634.87	6.94435
2636.23	5.88665
2637.59	5.7036
2638.94	5.36231
2640.3	5.60045
2641.66	5.40018
2643.02	5.01769
2644.37	5.26083
2645.73	4.68786
2647.09	4.15223
2648.44	4.33316
2649.8	4.56289
2651.15	4.38999
2652.51	4.6747
2653.86	4.5669
2655.22	5.26268
2656.57	5.75628
2657.93	5.97264
2659.28	5.8705
2660.63	5.62244
2661.99	5.4397
2663.34	5.90936
2664.69	5.85083
2666.05	6.74851
2667.4	5.73951
2668.75	5.81862
2670.1	5.88542
2671.45	5.98443
2672.81	5.57261
2674.16	6.10932
2675.51	6.12187
2676.86	5.68109
2678.21	6.14938
2679.56	6.3896
2680.91	6.71839
2682.26	6.85304
2683.61	7.06413
2684.96	6.66726
2686.31	6.76852
2687.66	6.33324
2689	6.24181
2690.35	6.71146
2691.7	6.65085
2693.05	6.64914
2694.4	6.92999
2695.74	7.30807
2697.09	7.48351
2698.44	7.93556
2699.79	7.71629
2701.13	7.59567
2702.48	8.29737
2703.83	8.59378
2705.17	8.94458
2706.52	9.22959
2707.86	9.24218
2709.21	9.50288
2710.55	10.1422
2711.9	10.7506
2713.24	11.2039
2714.58	11.838
2715.93	12.4565
2717.27	12.9533
2718.62	12.7134
2719.96	13.1254
2721.3	13.8394
2722.65	14.2762
2723.99	14.0539
2725.33	13.9311
2726.67	13.9401
2728.01	14.1063
2729.35	14.3209
2730.7	14.7243
2732.04	14.2234
2733.38	14.4008
2734.72	13.3881
2736.06	12.926
2737.4	12.5413
2738.74	12.5206
2740.08	11.7335
2741.42	11.1966
2742.76	10.3129
2744.1	9.92316
2745.43	10.1911
2746.77	8.78889
2748.11	8.28929
2749.45	7.79003
2750.79	7.10381
2752.12	6.71538
2753.46	5.63363
2754.8	5.03752
2756.14	4.75525
2757.47	4.42184
2758.81	3.6797
2760.14	3.38674
2761.48	3.53981
2762.81	3.10197
2764.15	2.42729
2765.49	1.95863
2766.82	1.46728
2768.16	1.33179
2769.49	1.87331
2770.82	2.01698
2772.16	1.30277
2773.49	1.31998
2774.82	1.57291
2776.16	1.56708
2777.49	1.52446
2778.82	0.739854
2780.16	0.41348
2781.49	-0.0878909
2782.82	-0.390556
2784.15	-0.502123
2785.48	-0.824935
2786.82	-0.179881
2788.15	0.287814
2789.48	0.642414
2790.81	1.35935
2792.14	1.6714
2793.47	1.62369
2794.8	1.28538
2796.13	1.2274
2797.46	1.46809
2798.79	1.69547
2800.12	2.21604
2801.44	1.74553
2802.77	1.72679
2804.1	1.77001
2805.43	1.61625
2806.76	0.718085
2808.08	1.01649
2809.41	1.0251
2810.74	0.885446
2812.07	-0.137748
2813.39	-0.85013
2814.72	-0.253134
2816.05	0.493674
2817.37	1.17616
2818.7	2.15189
2820.02	3.21828
2821.35	5.29484
2822.67	7.06395
2824	9.2615
2825.32	11.4965
2826.65	14.1286
2827.97	16.2816
2829.3	18.5787
2830.62	20.8867
2831.94	24.1918
2833.26	27.0691
2834.59	30.1014
2835.91	33.7179
2837.23	36.7027
2838.56	39.969
2839.88	43.9063
2841.2	47.5721
2842.52	51.3433
2843.84	55.6933
2845.16	60.8199
2846.48	66.9081
2847.8	73.3595
2849.12	79.9328
2850.45	86.7292
2851.77	93.8388
2853.08	101.232
2854.4	108.121
2855.72	115.021
2857.04	121.673
2858.36	128.35
2859.68	135.275
2861	141.502
2862.32	148.867
2863.63	156.22
2864.95	162.858
2866.27	169.042
2867.59	174.823
2868.9	180.543
2870.22	185.989
2871.54	191.459
2872.85	196.466
2874.17	201.619
2875.48	206.26
2876.8	211.13
2878.11	214.813
2879.43	219.1
2880.74	223.275
2882.06	227.657
2883.37	231.791
2884.69	234.977
2886	238.496
2887.31	241.935
2888.63	245.663
2889.94	249.19
2891.25	252.935
2892.57	256.752
2893.88	259.766
2895.19	262.684
2896.5	266.196
2897.82	269.967
2899.13	272.79
2900.44	277.659
2901.75	282.157
2903.06	286.538
2904.37	291.989
2905.68	297.131
2906.99	302.936
2908.3	309.493
2909.61	316.293
2910.92	323.652
2912.23	330.738
2913.54	337.498
2914.85	343.967
2916.16	350.666
2917.46	356.701
2918.77	362.567
2920.08	367.621
2921.39	372.529
2922.7	376.471
2924	379.982
2925.31	382.752
2926.62	385.611
2927.92	387.96
2929.23	389.035
2930.54	388.762
2931.84	388.452
2933.15	386.928
2934.45	384.986
2935.76	382.617
2937.06	379.589
2938.37	375.366
2939.67	371.05
2940.98	366.19
2942.28	360.482
2943.58	353.817
2944.89	348.9
2946.19	342.784
2947.49	336.32
2948.8	329.835
2950.1	322.865
2951.4	315.947
2952.7	308.832
2954.01	301.894
2955.31	294.179
2956.61	287.45
2957.91	279.802
2959.21	271.909
2960.51	264.727
2961.81	258.188
2963.11	250.74
2964.41	244.633
2965.71	238.705
2967.01	231.995
2968.31	226.063
2969.61	219.571
2970.91	213.929
2972.21	208.621
2973.51	203.148
2974.81	197.448
2976.1	191.749
2977.4	186.172
2978.7	180.21
2980	174.232
2981.29	167.824
2982.59	161.66
2983.89	155.276
2985.18	148.128
2986.48	140.899
2987.78	133.696
2989.07	127.019
2990.37	120.864
2991.66	114.921
2992.96	107.83
2994.25	101.161
2995.55	94.6407
2996.84	88.5153
2998.14	81.7278
2999.43	75.7831
3000.73	70.4216
3002.02	64.8192
3003.31	59.3823
3004.61	55.0611
3005.9	50.0131
3007.19	45.6493
3008.48	41.1966
3009.77	37.3442
3011.07	32.6239
3012.36	29.2483
3013.65	25.8609
3014.94	22.153
3016.23	18.8864
3017.52	16.1276
3018.81	13.8628
3020.1	11.8746
3021.4	9.59862
3022.68	7.61038
3023.97	5.7886
3025.26	4.65422
3026.55	3.86518
3027.84	2.37603
3029.13	1.42081
3030.42	0.548687
3031.71	0.0812155
3033	-0.329345
3034.28	-0.773221
3035.57	-0.0433691
3036.86	-0.0948375
3038.15	0.0338807
3039.43	0.630823
3040.72	1.63004
3042.01	2.2261
3043.29	2.90055
3044.58	3.70525
3045.87	4.7871
3047.15	6.13137
3048.44	6.9095
3049.72	7.70248
3051.01	8.82598
3052.29	10.4969
3053.58	11.8115
3054.86	12.4397
3056.15	13.0873
3057.43	13.2438
3058.71	13.3848
3060	14.3316
3061.28	14.1202
3062.56	14.087
3063.84	14.4965
3065.13	14.7141
3066.41	14.1268
3067.69	13.2822
3068.97	13.0197
3070.26	12.2034
3071.54	11.9573
3072.82	11.485
3074.1	11.0692
3075.38	10.5515
3076.66	9.97178
3077.94	9.13363
3079.22	8.67322
3080.5	8.06939
3081.78	7.42992
3083.06	7.13919
3084.34	6.46374
3085.62	5.62976
3086.9	5.65186
3088.18	5.28846
3089.45	5.22176
3090.73	4.5253
3092.01	3.48695
3093.29	3.34971
3094.56	4.08013
3095.84	3.78124
3097.12	3.66489
3098.4	3.3948
3099.67	3.89413
3100.95	4.19612
3102.22	4.87713
3103.5	5.58894
3104.78	6.12092
3106.05	6.51951
3107.33	7.38417
3108.6	8.44339
3109.88	9.49026
3111.15	10.4232
3112.43	11.0211
3113.7	11.7965
3114.97	13.0028
3116.25	14.4474
3117.52	14.9072
3118.79	15.6338
3120.07	16.9858
3121.34	17.9254
3122.61	18.9592
3123.88	20.0653
3125.16	20.4373
3126.43	21.6001
3127.7	22.6805
3128.97	23.5288
3130.24	24.615
3131.51	25.9983
3132.79	27.939
3134.06	29.3717
3135.33	31.0284
3136.6	32.5743
3137.87	34.1105
3139.14	35.9717
3140.41	37.9579
3141.67	39.9381
3142.94	41.8918
3144.21	43.7512
3145.48	45.4807
3146.75	47.0901
3148.02	48.7834
3149.29	49.4551
