#Acq. time (s)=	45
#Accumulations=	2
#Range (cm-¹)=	200...3150
#Windows=	2
#Auto scanning=	Off
#Autofocus=	Off
#Macrospot=	Off
#AutoExposure=	Off
#Spike filter=	Multiple accum.
#Delay time (s)=	0
#Binning=	1
#Readout mode=	Signal
#DeNoise=	Off
#ICS correction=	On
#Dark correction=	Off
#Inst. Process=	Off
#Detector Gain=	Best Dynamic Range
#Detector ADC=	20 kHz       
#Detector temperature (°C)=	-69.85
#Instrument=	LabRAM HR Evol
#Detector=	Synapse
#Objective=	x100
#Grating=	600 gr/mm
#ND Filter=	100%
#Laser (nm)=	532 
#Hole=	100.021
#Range=	Auto
#Laser Pol.=	No
#Raman. Pol.=	No
#Laser Pol. (°)=	-0.0007625
#Raman Pol. (°)=	89.9995
#Collection=	Microscope
#StageXY=	Marzhauser
#StageZ=	Marzhauser
#X (µm)=	1958
#Y (µm)=	-57.7
#Z (µm)=	425.3
#Full time(mm:ss)=	3:18
#Project=	
#Sample=	
#Site=	
#Title=	Thy_40_11_14_2x_45s_532 nm_x100_100%_600 gr_mm
#Remark=	
#Date=	05.07.2022 10:53
#Acquired=	05.07.2022 10:53:55
#Base:Fit=	10.08.2022 10:01:35
#Base:Sub=	10.08.2022 10:01:52
#Filter:Polynom=	16.08.2022 10:21:53
#AxisType[0]=Intens
#AxisUnit[0]=Cnt
#AxisType[1]=Spectr
#AxisUnit[1]=1/cm
200.43	29.4585
202.244	26.5551
204.059	23.1342
205.873	21.251
207.688	19.1769
209.501	17.3345
211.314	15.5039
213.127	14.0884
214.941	11.8927
216.753	10.743
218.564	9.096
220.375	7.94845
222.186	7.01827
223.999	6.32181
225.809	4.2617
227.618	3.76721
229.428	3.90685
231.236	2.87418
233.045	2.8179
234.855	2.72421
236.663	1.04373
238.471	0.272392
240.278	0.853871
242.085	0.969233
243.891	0.816962
245.698	0.554506
247.503	0.487244
249.309	1.50888
251.116	2.11577
252.921	3.28045
254.725	3.53516
256.529	3.462
258.333	3.91916
260.136	4.7112
261.939	4.30895
263.742	5.3924
265.544	5.42054
267.346	5.903
269.148	6.93247
270.949	6.89453
272.75	7.99403
274.55	8.87176
276.351	9.16129
278.15	10.3234
279.95	10.9732
281.749	11.8513
283.548	11.8365
285.346	12.0236
287.144	13.6371
288.942	14.2598
290.739	14.8711
292.536	14.6845
294.333	15.5321
296.129	16.1006
297.925	16.6622
299.721	17.7919
301.514	17.7396
303.309	18.147
305.104	18.0649
306.898	19.4612
308.692	19.8928
310.486	20.5127
312.279	20.9867
314.072	21.1816
315.862	21.3479
317.654	22.2944
319.446	22.3725
321.238	21.9743
323.029	22.1433
324.819	21.055
326.608	19.5414
328.398	19.9213
330.188	20.4875
331.977	19.0066
333.766	18.7549
335.553	18.5088
337.341	18.6939
339.129	18.9829
340.917	18.0024
342.704	18.067
344.489	16.5072
346.275	15.2137
348.062	14.8618
349.845	14.1381
351.631	14.0673
353.416	13.7989
355.201	13.5855
356.984	13.2625
358.768	13.1007
360.552	13.5451
362.333	13.7821
364.116	13.2769
365.899	13.5112
367.68	13.1602
369.462	11.4495
371.243	10.7415
373.023	9.24845
374.804	8.46395
376.585	8.97437
378.363	9.22222
380.143	8.96697
381.923	9.35653
383.7	10.3046
385.479	10.1536
387.256	9.7187
389.034	9.96176
390.812	9.22321
392.588	8.91298
394.365	9.67339
396.14	9.82219
397.916	9.80438
399.691	8.51878
401.467	8.24372
403.24	7.9493
405.015	7.50752
406.788	7.0408
408.563	5.96278
410.335	5.57348
412.109	5.08146
413.88	4.27123
415.654	4.97739
417.424	5.3969
419.197	5.73575
420.967	5.19797
422.739	5.74215
424.508	5.25879
426.279	5.84782
428.048	5.04551
429.819	5.13869
431.587	5.08523
433.356	4.49621
435.124	5.5612
436.891	5.88679
438.66	6.0286
440.426	5.76785
442.194	5.41229
443.96	6.31911
445.725	6.23522
447.492	6.45334
449.257	6.11544
451.021	6.26147
452.787	7.25956
454.551	7.24325
456.314	6.57085
458.079	7.81966
459.842	9.54779
461.604	9.97516
463.368	11.015
465.13	13.0091
466.891	13.1616
468.654	12.9849
470.415	13.1287
472.175	12.9167
473.935	12.0951
475.696	13.1045
477.456	12.6897
479.215	13.1289
480.973	13.4928
482.733	14.8583
484.491	14.4855
486.249	15.1055
488.006	14.6518
489.765	15.7798
491.522	14.8725
493.278	14.3549
495.034	14.4083
496.789	15.6474
498.544	16.6484
500.301	17.0882
502.056	16.4452
503.81	17.0353
505.564	16.5561
507.317	16.2993
509.071	16.253
510.825	16.6357
512.578	16.4179
514.33	16.3576
516.082	15.0134
517.833	14.648
519.585	15.0768
521.335	15.3748
523.086	15.3999
524.836	15.3058
526.586	15.3997
528.335	15.886
530.085	16.5868
531.835	16.8107
533.584	16.3354
535.332	16.9477
537.08	17.3819
538.827	18.3974
540.574	18.361
542.321	18.332
544.068	18.4988
545.814	19.892
547.56	20.2717
549.305	19.3227
551.05	19.1047
552.795	19.0452
554.54	17.9108
556.282	17.9469
558.025	17.172
559.769	16.9864
561.512	17.2274
563.255	17.7645
564.997	16.4882
566.739	16.3397
568.481	16.1042
570.223	15.2782
571.964	13.5599
573.705	12.5911
575.443	11.6008
577.183	10.3614
578.923	8.86886
580.663	8.73862
582.402	8.36313
584.141	8.20862
585.879	6.38596
587.615	5.38593
589.353	4.54456
591.09	4.86975
592.828	4.62732
594.564	4.00357
596.299	5.03094
598.035	4.66991
599.771	3.8179
601.506	3.72291
603.242	3.74567
604.974	4.99837
606.709	6.27842
608.443	6.2037
610.177	6.1521
611.908	6.43116
613.642	6.36464
615.374	6.48741
617.105	6.27621
618.837	6.22894
620.569	7.51546
622.3	8.8225
624.03	9.17777
625.761	9.45643
627.491	9.94498
629.219	10.7615
630.949	11.8706
632.677	12.6672
634.406	12.8614
636.135	13.12
637.861	15.1646
639.59	15.0133
641.318	15.2203
643.043	15.8776
644.77	16.7264
646.495	17.8319
648.222	18.4652
649.948	19.3508
651.672	19.6364
653.398	20.4623
655.121	21.7571
656.846	21.5849
658.569	22.2711
660.293	23.0742
662.015	24.2234
663.738	23.4272
665.46	23.3115
667.183	24.0256
668.903	24.6617
670.626	25.4419
672.346	26.2577
674.067	26.6482
675.787	27.2809
677.508	28.5979
679.226	29.3131
680.947	29.3529
682.665	30.3994
684.385	30.3536
686.102	30.6807
687.821	31.2777
689.538	31.3938
691.254	32.1872
692.972	32.0643
694.688	31.9825
696.406	32.4281
698.121	33.0423
699.835	33.8053
701.552	34.3052
703.266	35.5715
704.98	35.8794
706.695	36.2242
708.409	36.8002
710.121	36.7306
711.836	37.2289
713.548	38.4039
715.26	39.3976
716.973	41.2099
718.685	41.3221
720.396	42.396
722.108	43.3049
723.818	43.9806
725.528	43.3588
727.238	44.0469
728.949	44.5011
730.658	46.3222
732.367	46.5816
734.075	47.2334
735.785	49.8036
737.493	50.1889
739.2	51.5261
740.907	52.1493
742.614	52.8312
744.322	54.2301
746.028	54.5719
747.734	55.3097
749.439	54.9043
751.144	56.515
752.849	58.0742
754.555	59.297
756.26	60.652
757.963	61.8074
759.667	62.5425
761.37	63.8923
763.073	65.8538
764.775	67.2076
766.477	68.163
768.179	68.9615
769.883	69.8882
771.584	70.4595
773.285	71.7459
774.986	72.7722
776.686	74.4466
778.386	75.613
780.085	75.8792
781.785	77.2759
783.484	77.676
785.182	77.9994
786.881	78.893
788.579	79.7566
790.276	80.1237
791.974	81.2141
793.671	82.5238
795.367	82.1269
797.064	82.7814
798.76	83.3392
800.456	83.2187
802.151	82.3487
803.846	81.8728
805.541	81.2742
807.234	80.5426
808.928	79.8515
810.622	79.0405
812.315	78.6703
814.008	79.0055
815.701	79.7331
817.394	79.1511
819.086	79.5015
820.778	80.2361
822.468	79.5589
824.159	79.5825
825.85	78.5768
827.541	79.2615
829.231	79.1541
830.921	78.5992
832.609	78.1926
834.298	77.5019
835.987	76.8724
837.676	76.1653
839.364	75.6923
841.051	75.0614
842.738	74.6918
844.426	73.5638
846.113	73.1007
847.798	72.3002
849.484	70.6037
851.171	69.401
852.857	68.1703
854.54	67.9935
856.226	67.4275
857.911	67.9434
859.593	66.5942
861.278	66.2192
862.961	64.3451
864.645	63.4008
866.327	62.6831
868.01	62.2413
869.692	61.2716
871.373	61.1665
873.055	61.0031
874.735	61.2166
876.416	60.1045
878.097	59.486
879.776	58.5052
881.457	58.0237
883.135	57.2963
884.815	57.3067
886.495	56.6817
888.172	56.4528
889.851	55.7665
891.528	55.7943
893.206	55.7452
894.882	55.2032
896.56	55.1311
898.237	54.7224
899.912	54.615
901.589	54.7622
903.263	54.571
904.94	55.3874
906.614	54.7758
908.289	53.6242
909.962	53.3189
911.635	52.9602
913.31	51.8346
914.982	50.4355
916.656	49.1221
918.328	47.8302
920.001	46.7002
921.672	46.9846
923.345	46.1647
925.015	45.3336
926.685	44.2325
928.357	42.6276
930.026	42.2731
931.698	40.7014
933.366	39.9321
935.035	39.7382
936.705	38.2268
938.373	37.7749
940.041	37.5863
941.71	37.156
943.377	35.1547
945.044	34.853
946.712	33.4744
948.378	33.3429
950.044	33.4728
951.709	33.9134
953.376	34.4018
955.041	35.2197
956.706	35.6422
958.372	34.7152
960.036	34.5413
961.699	34.1764
963.362	34.1789
965.027	34.1889
966.69	35.3624
968.352	35.7677
970.014	36.3372
971.676	36.7592
973.339	37.1277
975	37.1358
976.661	36.7816
978.322	37.2842
979.982	38.2355
981.642	38.2666
983.303	39.1516
984.962	38.9689
986.621	37.7649
988.28	37.9488
989.938	37.2256
991.596	37.3875
993.254	36.9317
994.911	36.2784
996.57	35.598
998.227	34.8221
999.884	34.3064
1001.54	33.0851
1003.2	32.6674
1004.85	32.6308
1006.51	31.0229
1008.16	30.137
1009.82	29.3367
1011.47	29.1704
1013.12	28.6226
1014.78	27.0981
1016.43	26.3361
1018.08	24.6825
1019.74	24.2732
1021.39	24.3172
1023.04	24.0167
1024.69	23.8227
1026.34	23.4897
1028	23.7994
1029.65	23.8147
1031.3	24.0864
1032.95	24.7539
1034.6	23.7304
1036.25	23.3118
1037.9	22.2762
1039.54	22.4749
1041.19	22.4649
1042.84	22.5801
1044.49	21.899
1046.14	22.6175
1047.78	22.4058
1049.43	22.7934
1051.08	22.0755
1052.72	21.4408
1054.37	20.2155
1056.02	19.2481
1057.66	19.7455
1059.31	19.8133
1060.95	20.9053
1062.6	20.1796
1064.24	19.9493
1065.88	19.0898
1067.53	18.4112
1069.17	18.4326
1070.81	19.2121
1072.45	19.1065
1074.1	18.8268
1075.74	17.9637
1077.38	17.7896
1079.02	17.0831
1080.66	17.1611
1082.3	17.2595
1083.94	16.0751
1085.58	15.6199
1087.22	16.202
1088.86	15.6737
1090.5	15.6832
1092.14	15.9575
1093.78	16.3982
1095.42	15.0609
1097.05	14.6536
1098.69	14.3299
1100.33	14.6389
1101.96	15.058
1103.6	14.6954
1105.24	14.4909
1106.87	15.0494
1108.51	14.2002
1110.14	13.48
1111.78	13.2396
1113.41	13.4862
1115.05	13.2415
1116.68	12.7301
1118.31	12.9879
1119.95	12.652
1121.58	12.7184
1123.21	11.0139
1124.85	9.81063
1126.48	8.73577
1128.11	8.58962
1129.74	7.8227
1131.37	7.4791
1133	6.95268
1134.63	6.312
1136.26	6.35821
1137.89	7.43036
1139.52	8.04076
1141.15	7.49602
1142.78	8.1463
1144.41	6.78509
1146.04	6.59963
1147.66	5.60102
1149.29	5.63656
1150.92	5.56436
1152.55	5.5586
1154.17	5.01928
1155.8	4.78545
1157.43	3.82335
1159.05	3.88755
1160.68	4.16365
1162.3	3.19309
1163.93	2.52391
1165.55	1.1213
1167.17	1.51914
1168.8	2.92818
1170.42	2.66369
1172.05	2.30792
1173.67	2.10695
1175.29	1.37241
1176.91	0.636308
1178.54	0.87726
1180.16	1.04243
1181.78	1.85823
1183.4	2.27887
1185.02	2.19308
1186.64	3.21416
1188.26	4.02881
1189.88	3.74562
1191.5	4.82404
1193.12	5.89184
1194.74	5.91462
1196.36	6.1668
1197.97	6.82365
1199.59	8.24909
1201.21	8.59588
1202.83	9.70897
1204.44	10.7796
1206.06	11.8665
1207.68	13.1207
1209.29	15.3547
1210.91	16.7294
1212.52	17.5472
1214.14	18.8151
1215.75	20.1747
1217.37	21.9624
1218.98	23.7566
1220.59	24.1449
1222.21	25.4162
1223.82	27.7883
1225.43	28.4613
1227.05	29.3466
1228.66	30.288
1230.27	31.7702
1231.88	32.6451
1233.49	33.3427
1235.1	34.1018
1236.72	35.2062
1238.33	35.4661
1239.94	36.9603
1241.55	37.5138
1243.16	37.0829
1244.76	38.6391
1246.37	39.5182
1247.98	41.3519
1249.59	42.9385
1251.2	42.602
1252.8	42.7026
1254.41	43.5943
1256.02	44.2936
1257.62	45.7112
1259.23	47.031
1260.84	48.7398
1262.44	50.335
1264.05	50.758
1265.66	50.9608
1267.26	52.4624
1268.86	53.6137
1270.47	53.8021
1272.07	54.8518
1273.67	55.7834
1275.28	56.6165
1276.88	57.7404
1278.48	58.5157
1280.09	58.8002
1281.69	60.306
1283.29	61.7473
1284.89	62.5091
1286.49	62.7603
1288.09	64.4679
1289.69	65.2921
1291.29	65.5589
1292.89	66.4129
1294.49	67.6805
1296.09	67.6058
1297.69	68.0364
1299.29	67.681
1300.89	68.1104
1302.49	68.1304
1304.08	68.356
1305.68	67.39
1307.28	67.5287
1308.88	67.4979
1310.47	67.0709
1312.07	65.8414
1313.66	66.0421
1315.26	65.9324
1316.85	64.8
1318.45	63.9574
1320.04	63.4258
1321.64	62.8719
1323.23	62.3442
1324.83	62.3359
1326.42	61.0012
1328.01	60.8377
1329.61	60.0316
1331.2	58.6243
1332.79	58.6234
1334.38	58.3457
1335.97	58.1176
1337.56	57.611
1339.16	56.7741
1340.75	56.4823
1342.34	55.2943
1343.93	54.8698
1345.52	54.0667
1347.11	53.2312
1348.7	51.9307
1350.29	50.1987
1351.87	49.7343
1353.46	49.1551
1355.05	48.303
1356.64	47.9481
1358.22	48.0295
1359.81	47.5908
1361.4	48.4579
1362.98	46.8326
1364.57	45.3644
1366.16	45.0154
1367.74	44.4332
1369.33	43.1993
1370.91	42.387
1372.5	42.0728
1374.08	40.9324
1375.67	39.4946
1377.25	39.1502
1378.83	38.0532
1380.41	37.8923
1382	36.9887
1383.58	36.7133
1385.16	35.1152
1386.74	34.5417
1388.33	33.1138
1389.91	32.4205
1391.49	30.552
1393.07	29.1733
1394.65	28.4349
1396.23	27.7998
1397.81	27.5385
1399.39	27.2556
1400.97	26.5266
1402.55	25.6854
1404.13	25.0727
1405.7	24.7155
1407.28	24.6069
1408.86	24.0478
1410.44	24.1742
1412.01	24.7384
1413.59	25.2734
1415.17	26.5079
1416.74	27.1671
1418.32	27.9753
1419.89	29.8414
1421.47	31.1527
1423.04	33.6538
1424.62	33.9753
1426.19	35.5313
1427.77	37.5018
1429.34	39.9111
1430.91	42.804
1432.49	45.3874
1434.06	46.9312
1435.63	49.0869
1437.2	51.807
1438.78	53.5953
1440.35	54.6809
1441.92	55.8016
1443.49	56.9423
1445.06	57.9894
1446.63	58.0893
1448.2	58.3399
1449.77	58.9489
1451.34	59.7859
1452.91	59.6306
1454.48	59.4714
1456.05	59.4373
1457.62	58.7819
1459.18	57.8576
1460.75	56.548
1462.32	55.9241
1463.89	54.0789
1465.45	53.2973
1467.02	51.1685
1468.59	49.5236
1470.15	47.4155
1471.72	46.1216
1473.28	44.5249
1474.85	41.7581
1476.41	38.9663
1477.98	36.08
1479.54	33.4245
1481.1	31.6944
1482.67	29.182
1484.23	26.6961
1485.79	24.6242
1487.36	23.1397
1488.92	22.2584
1490.48	20.9622
1492.04	19.8307
1493.61	18.9648
1495.17	17.2997
1496.73	16.4404
1498.29	16.1887
1499.85	16.0028
1501.41	15.3647
1502.97	13.8429
1504.53	14.2955
1506.09	15.4466
1507.65	15.9871
1509.2	17.5093
1510.76	17.4827
1512.32	17.2517
1513.88	17.8549
1515.43	18.2601
1516.99	17.6946
1518.55	17.8846
1520.1	18.6478
1521.66	19.0847
1523.22	19.5284
1524.77	19.8969
1526.33	21.1799
1527.88	22.4346
1529.44	24.6013
1530.99	25.48
1532.54	26.6473
1534.1	27.4743
1535.65	28.6048
1537.21	30.0985
1538.76	31.6779
1540.31	33.2305
1541.86	34.3677
1543.42	35.7096
1544.97	37.169
1546.52	39.4026
1548.07	40.688
1549.62	41.5548
1551.17	41.9206
1552.72	44.0916
1554.27	45.4249
1555.82	46.8545
1557.37	48.9404
1558.92	49.9378
1560.47	50.3991
1562.02	51.2574
1563.56	52.576
1565.11	53.9268
1566.66	55.5805
1568.21	55.7677
1569.75	56.9402
1571.3	58.2341
1572.85	58.9916
1574.39	60.3379
1575.94	61.0959
1577.49	61.0182
1579.03	60.9647
1580.57	61.5011
1582.12	62.8401
1583.66	64.1015
1585.21	63.5109
1586.75	62.8012
1588.3	61.4473
1589.84	60.6204
1591.38	60.3098
1592.92	61.3371
1594.47	61.0579
1596.01	60.5103
1597.55	59.5796
1599.09	59.2627
1600.63	58.3885
1602.17	57.1817
1603.71	57.3048
1605.25	56.6588
1606.79	56.31
1608.33	54.658
1609.87	53.9192
1611.41	53.6271
1612.95	54.1287
1614.49	54.1941
1616.03	53.8278
1617.57	53.8085
1619.1	54.4585
1620.64	54.769
1622.18	54.8767
1623.72	55.507
1625.25	55.3545
1626.79	55.7433
1628.32	56.8642
1629.86	58.413
1631.39	59.7984
1632.93	60.7646
1634.46	61.3215
1636	61.7882
1637.53	63.6778
1639.07	65.6483
1640.6	68.0608
1642.13	68.6991
1643.67	69.2675
1645.2	69.7912
1646.73	71.0934
1648.26	71.5738
1649.8	71.7117
1651.33	72.7834
1652.86	72.4792
1654.39	72.1877
1655.92	72.9012
1657.45	73.202
1658.98	73.2278
1660.51	73.4916
1662.04	71.7469
1663.57	71.0616
1665.1	70.4451
1666.63	69.6035
1668.16	68.7219
1669.68	67.3483
1671.21	64.5103
1672.74	62.613
1674.27	60.4835
1675.79	58.2412
1677.32	55.9377
1678.85	53.4457
1680.37	51.4642
1681.9	48.0909
1683.42	45.3186
1684.95	43.1624
1686.47	41.5469
1688	39.4706
1689.52	36.8969
1691.05	34.1734
1692.57	31.7474
1694.09	29.6046
1695.62	27.8767
1697.14	26.36
1698.66	24.576
1700.18	23.4208
1701.71	20.9181
1703.23	19.7158
1704.75	18.9918
1706.27	17.7037
1707.79	16.7289
1709.31	15.2566
1710.83	14.4585
1712.35	14.5395
1713.87	13.8161
1715.39	12.3064
1716.91	11.0477
1718.43	9.62809
1719.95	9.26496
1721.47	8.65769
1722.99	8.02071
1724.5	7.82138
1726.02	7.40003
1727.54	7.1373
1729.06	6.11748
1730.57	5.90041
1732.09	6.29106
1733.61	6.01318
1735.12	5.67484
1736.64	5.16989
1738.15	4.40398
1739.67	4.25117
1741.18	3.70605
1742.7	3.32064
1744.21	3.04031
1745.72	2.82043
1747.24	2.72302
1748.75	2.89833
1750.26	2.59907
1751.77	2.42859
1753.29	2.03895
1754.8	1.24806
1756.31	1.11842
1757.82	0.797167
1759.33	1.22617
1760.84	2.0322
1762.36	2.28341
1763.87	1.76625
1765.38	1.6222
1766.89	1.9962
1768.4	2.09676
1769.91	2.96114
1771.41	3.37844
1772.92	3.33499
1774.43	2.66089
1775.94	1.96307
1777.45	1.66401
1778.95	2.34715
1780.46	2.54526
1781.97	2.16806
1783.48	2.3399
1784.98	3.09534
1786.49	3.00354
1787.99	2.7044
1789.5	2.31491
1791.01	2.43514
1792.51	2.6393
1794.01	2.31158
1795.52	2.06176
1797.02	2.25494
1798.53	2.7304
1800.03	2.541
1801.53	2.37424
1803.04	2.26066
1804.54	2.41934
1806.04	2.90069
1807.54	3.32394
1809.05	2.98155
1810.55	3.48914
1812.05	3.49775
1813.55	4.11165
1815.05	5.12175
1816.55	5.77928
1818.05	5.95205
1819.55	6.58038
1821.05	6.68778
1822.55	6.24351
1824.05	6.22435
1825.55	6.15004
1827.05	5.75349
1828.55	5.26744
1830.04	5.44069
1831.54	5.43536
1833.04	6.0546
1834.54	6.7164
1836.03	6.89844
1837.53	6.87264
1839.03	6.4034
1840.52	6.34382
1842.02	5.99809
1843.51	5.69909
1845.01	5.58222
1846.5	4.98778
1848	4.78038
1849.49	4.74667
1850.99	4.14975
1852.48	4.14826
1853.97	4.47625
1855.47	3.96515
1856.96	4.08827
1858.45	4.83116
1859.94	4.53851
1861.44	3.72212
1862.93	3.34261
1864.42	3.52752
1865.91	3.28602
1867.4	3.22182
1868.89	2.97625
1870.38	2.97624
1871.87	2.82113
1873.36	2.60322
1874.85	1.92531
1876.34	1.7826
1877.83	1.70885
1879.32	2.6962
1880.81	3.60805
1882.3	3.93533
1882.57	4.41779
1884.07	4.12238
1885.56	4.15439
1887.06	4.4273
1888.55	4.29866
1890.04	3.93743
1891.54	3.47481
1893.03	3.27053
1894.52	3.56093
1896.02	3.3672
1897.51	3.83066
1899	3.95057
1900.49	4.45934
1901.98	4.89237
1903.47	5.11339
1904.96	4.76996
1906.45	5.89484
1907.94	5.47119
1909.43	4.97156
1910.92	5.62429
1912.41	4.9597
1913.9	5.58537
1915.39	6.02955
1916.88	6.44237
1918.37	6.77281
1919.85	7.4332
1921.34	7.36035
1922.83	7.48162
1924.32	7.29792
1925.8	7.94605
1927.29	7.66354
1928.78	7.26508
1930.26	7.72272
1931.75	7.95803
1933.23	7.21849
1934.72	7.39128
1936.2	7.90186
1937.69	7.60777
1939.17	6.60409
1940.66	6.16701
1942.14	5.76122
1943.63	5.23774
1945.11	5.01907
1946.59	4.83345
1948.07	4.47508
1949.56	4.52699
1951.04	4.42021
1952.52	4.83982
1954	4.03635
1955.48	3.35543
1956.96	2.61032
1958.45	2.24675
1959.93	2.0401
1961.41	2.07778
1962.89	2.03722
1964.37	2.36691
1965.85	1.62009
1967.32	1.92328
1968.8	2.62677
1970.28	2.67789
1971.76	2.52803
1973.24	2.12748
1974.72	2.22678
1976.19	1.81902
1977.67	1.34297
1979.15	1.61179
1980.63	2.19333
1982.1	2.56759
1983.58	2.91515
1985.05	3.33271
1986.53	3.39825
1988	4.68964
1989.48	4.95685
1990.95	5.14216
1992.43	5.28151
1993.9	5.64315
1995.38	5.94119
1996.85	6.6771
1998.32	6.93947
1999.8	7.28344
2001.27	7.80921
2002.74	8.5611
2004.22	9.38697
2005.69	9.5477
2007.16	9.27981
2008.63	8.97662
2010.1	9.05548
2011.57	8.68801
2013.04	8.42722
2014.51	8.82511
2015.98	9.09843
2017.45	8.95823
2018.92	9.28654
2020.39	9.63048
2021.86	10.2871
2023.33	10.5648
2024.8	10.9588
2026.27	11.2468
2027.74	10.9354
2029.2	11.5386
2030.67	11.8562
2032.14	12.382
2033.61	12.1455
2035.07	12.664
2036.54	13.1253
2038.01	12.7297
2039.47	12.514
2040.94	13.2642
2042.4	13.0784
2043.87	13.0431
2045.33	13.1215
2046.8	12.8839
2048.26	13.3186
2049.72	13.0832
2051.19	12.6383
2052.65	13.3833
2054.12	13.3872
2055.58	13.9189
2057.04	13.7396
2058.5	14.0484
2059.97	14.692
2061.43	14.839
2062.89	15.2376
2064.35	15.5665
2065.81	15.9968
2067.27	16.9133
2068.73	17.3248
2070.19	16.8593
2071.65	16.6192
2073.11	16.5147
2074.57	16.9271
2076.03	16.7838
2077.49	16.9059
2078.95	17.2859
2080.41	17.6634
2081.87	18.5658
2083.32	19.3967
2084.78	19.5494
2086.24	20.4473
2087.7	20.9183
2089.15	22.2386
2090.61	22.6764
2092.07	23.7932
2093.52	24.1584
2094.98	24.991
2096.43	25.1001
2097.89	25.2856
2099.34	25.9301
2100.8	27.032
2102.25	28.553
2103.71	28.8281
2105.16	29.6149
2106.61	30.3266
2108.07	31.3999
2109.52	32.4772
2110.97	33.0362
2112.43	34.2331
2113.88	35.6848
2115.33	36.6865
2116.78	37.7115
2118.23	38.2772
2119.68	38.9445
2121.13	40.2609
2122.59	41.1183
2124.04	42.2798
2125.49	43.6014
2126.94	45.0038
2128.39	46.5597
2129.83	48.0491
2131.28	49.5824
2132.73	51.1082
2134.18	52.3492
2135.63	53.5409
2137.08	54.5387
2138.53	55.1395
2139.97	56.5071
2141.42	57.1739
2142.87	58.5934
2144.31	60.5645
2145.76	62.0697
2147.21	64.1718
2148.65	65.7042
2150.1	67.2558
2151.54	69.203
2152.99	70.1316
2154.43	71.6978
2155.88	72.7849
2157.32	74.4209
2158.77	75.7009
2160.21	76.0663
2161.65	77.26
2163.1	77.5084
2164.54	78.4839
2165.98	79.1679
2167.43	79.6858
2168.87	79.4226
2170.31	79.7034
2171.75	80.0426
2173.19	80.0081
2174.64	80.032
2176.07	79.6651
2177.52	79.8711
2178.96	79.7006
2180.4	79.1313
2181.84	78.732
2183.28	78.1667
2184.72	77.4212
2186.15	76.6367
2187.59	75.19
2189.03	73.3633
2190.47	72.5771
2191.91	71.6176
2193.35	70.469
2194.78	68.9882
2196.22	67.4426
2197.66	66.0366
2199.09	65.0909
2200.53	62.9402
2201.97	60.8658
2203.4	58.5031
2204.84	56.3077
2206.27	54.2228
2207.71	52.9906
2209.14	51.2206
2210.58	49.3538
2212.01	48.797
2213.45	47.985
2214.88	47.0019
2216.31	45.6777
2217.75	44.2873
2219.18	43.6872
2220.61	42.6729
2222.05	41.6444
2223.48	41.2364
2224.91	40.4118
2226.34	39.6984
2227.78	38.6997
2229.21	37.8796
2230.64	36.9706
2232.07	35.9741
2233.5	34.9717
2234.93	34.2897
2236.36	33.6184
2237.79	32.001
2239.22	30.4272
2240.65	29.4693
2242.08	29.32
2243.5	29.288
2244.93	29.19
2246.36	29.2106
2247.79	28.5163
2249.22	28.4711
2250.64	28.0244
2252.07	27.6514
2253.5	27.5357
2254.92	27.1988
2256.35	27.1052
2257.78	26.8921
2259.2	26.2288
2260.63	25.8274
2262.05	26.3564
2263.48	25.8352
2264.9	25.8155
2266.33	25.0892
2267.75	25.0557
2269.18	24.2414
2270.6	23.5094
2272.02	22.1005
2273.45	21.6467
2274.87	21.2529
2276.29	21.6581
2277.71	21.4583
2279.14	21.2119
2280.56	20.2655
2281.98	20.4295
2283.4	20.939
2284.82	21.0464
2286.24	20.2803
2287.66	19.9342
2289.08	19.6539
2290.5	19.1735
2291.92	18.2497
2293.34	17.1903
2294.76	16.0547
2296.18	16.1044
2297.6	15.3634
2299.02	15.5644
2300.44	15.3362
2301.86	14.9146
2303.27	14.5372
2304.69	14.7008
2306.11	14.9491
2307.53	15.2148
2308.94	15.2165
2310.36	15.9938
2311.78	16.229
2313.19	16.3082
2314.61	16.5668
2316.02	16.2203
2317.44	15.9621
2318.85	15.5339
2320.27	15.7551
2321.68	15.6186
2323.1	15.5517
2324.51	15.4117
2325.92	15.4347
2327.34	15.3956
2328.75	15.2262
2330.16	15.1563
2331.58	14.9279
2332.99	14.6203
2334.4	13.8274
2335.81	13.1617
2337.23	12.6681
2338.64	11.5795
2340.05	10.2774
2341.46	10.4565
2342.87	9.67698
2344.28	9.41187
2345.69	8.80592
2347.1	8.04339
2348.51	6.66718
2349.92	6.20553
2351.33	5.78724
2352.74	5.4053
2354.15	4.94943
2355.55	3.98086
2356.96	3.2224
2358.37	2.72675
2359.78	2.3499
2361.19	2.05205
2362.59	1.88128
2364	1.88617
2365.41	2.07124
2366.81	2.50137
2368.22	2.14165
2369.62	2.85953
2371.03	2.16288
2372.44	2.38984
2373.84	3.06693
2375.24	3.54757
2376.65	3.25716
2378.05	3.52063
2379.46	3.28916
2380.86	3.20826
2382.26	2.83801
2383.67	3.53326
2385.07	4.36618
2386.47	3.58136
2387.88	3.62138
2389.28	3.82322
2390.68	3.69071
2392.08	3.97259
2393.48	3.51098
2394.89	3.34423
2396.29	3.88089
2397.69	4.52791
2399.09	4.82189
2400.49	4.88288
2401.89	4.76746
2403.29	4.77605
2404.69	4.99296
2406.09	5.06799
2407.48	5.4073
2408.88	5.44064
2410.28	5.79545
2411.68	6.65719
2413.08	6.45664
2414.48	7.09981
2415.87	7.61074
2417.27	7.62933
2418.67	8.75909
2420.06	9.29497
2421.46	10.1492
2422.86	10.442
2424.25	10.5791
2425.65	11.1462
2427.04	11.3282
2428.44	10.8678
2429.83	10.9699
2431.23	11.2761
2432.62	11.4128
2434.02	11.1357
2435.41	10.5148
2436.81	10.2662
2438.2	10.1129
2439.59	9.95038
2440.99	9.44703
2442.38	10.2949
2443.77	10.7778
2445.16	10.5717
2446.56	9.93702
2447.95	9.68539
2449.34	9.6515
2450.73	9.35045
2452.12	9.00913
2453.51	9.17988
2454.9	8.18155
2456.29	7.40865
2457.68	7.70529
2459.07	7.05429
2460.46	6.59809
2461.85	5.98895
2463.24	5.65064
2464.63	5.84743
2466.02	6.57916
2467.4	6.17957
2468.79	6.32879
2470.18	6.07487
2471.57	5.52567
2472.95	4.73487
2474.34	4.24046
2475.73	3.81057
2477.12	4.15763
2478.5	4.38813
2479.89	4.66479
2481.27	5.7268
2482.66	6.13553
2484.04	6.74712
2485.43	7.07165
2486.81	7.50529
2488.2	8.10031
2489.58	7.86896
2490.97	7.82569
2492.35	6.96147
2493.73	6.67931
2495.12	7.10833
2496.5	6.7018
2497.88	6.58512
2499.27	7.62328
2500.65	7.49222
2502.03	7.36895
2503.41	6.63604
2504.79	6.16707
2506.17	6.17467
2507.56	6.34942
2508.94	6.45409
2510.32	6.90215
2511.7	7.0763
2513.08	6.37373
2514.46	5.72839
2515.84	4.77688
2517.22	4.81536
2518.59	4.99829
2519.97	5.23903
2521.35	5.44721
2522.73	5.58609
2524.11	5.42696
2525.49	5.05611
2526.86	4.7892
2528.24	4.63995
2529.62	4.9233
2530.99	5.09531
2532.37	5.8007
2533.75	6.17876
2535.12	6.1876
2536.5	6.14656
2537.88	6.45246
2539.25	5.57279
2540.63	5.36333
2542	5.65605
2543.38	5.82332
2544.75	6.56587
2546.12	7.3166
2547.5	7.30656
2548.87	7.86791
2550.24	8.40151
2551.62	8.3568
2552.99	8.46111
2554.36	8.22893
2555.74	8.16961
2557.11	7.9798
2558.48	7.71137
2559.85	7.27931
2561.22	7.48594
2562.59	7.59615
2563.96	7.88747
2565.34	7.7546
2566.71	7.38749
2568.08	7.621
2569.45	6.2597
2570.82	6.21025
2572.18	5.38662
2573.55	4.96967
2574.92	4.39608
2576.29	3.93411
2577.66	3.19408
2579.03	3.56535
2580.4	2.92926
2581.77	2.53
2583.13	2.30349
2584.5	2.09021
2585.87	2.96021
2587.23	2.23804
2588.6	2.26057
2589.97	1.73694
2591.33	1.7042
2592.7	1.47838
2594.06	1.27339
2595.43	1.60815
2596.79	2.28992
2598.16	2.41459
2599.52	2.27886
2600.89	2.50954
2602.25	2.88941
2603.62	3.01217
2604.98	3.01325
2606.34	2.66574
2607.71	2.42187
2609.07	2.25058
2610.43	2.23958
2611.79	2.06406
2613.16	2.5027
2614.52	2.17794
2615.88	2.39068
2617.24	2.26819
2618.6	1.95544
2619.96	2.51787
2621.32	3.47767
2622.68	3.10068
2624.04	3.11794
2625.4	2.9263
2626.76	3.12386
2628.12	3.39131
2629.48	3.64508
2630.84	3.59081
2632.2	3.51398
2633.56	3.09099
2634.92	2.61861
2636.28	2.99657
2637.63	2.93182
2638.99	2.97257
2640.35	2.33955
2641.71	2.27053
2643.06	2.36071
2644.42	2.49453
2645.77	2.24927
2647.13	2.46616
2648.49	2.37143
2649.84	2.26835
2651.2	2.33577
2652.55	2.33566
2653.91	1.76848
2655.26	1.21552
2656.62	2.12649
2657.97	2.81017
2659.33	3.53014
2660.68	3.67774
2662.03	3.97058
2663.39	4.17019
2664.74	4.69502
2666.09	4.55055
2667.44	4.79898
2668.8	4.87536
2670.15	4.91565
2671.5	4.40989
2672.85	4.42145
2674.2	4.42521
2675.55	4.66047
2676.91	4.07625
2678.26	4.38417
2679.61	4.31113
2680.96	3.56249
2682.31	3.52731
2683.66	3.47857
2685	2.97072
2686.35	3.88546
2687.7	4.32445
2689.05	4.12114
2690.4	2.98117
2691.75	3.70048
2693.1	4.03087
2694.44	4.13159
2695.79	4.1761
2697.14	3.63892
2698.49	3.60392
2699.83	3.12725
2701.18	3.23724
2702.52	2.90601
2703.87	2.92479
2705.22	2.13311
2706.56	1.42655
2707.91	1.43253
2709.25	1.6184
2710.6	1.67255
2711.94	1.2627
2713.29	1.14405
2714.63	1.51665
2715.97	1.5275
2717.32	1.45847
2718.66	1.38423
2720.01	1.31844
2721.35	1.53388
2722.69	2.37883
2724.03	2.86593
2725.38	2.94456
2726.72	3.05333
2728.06	3.08902
2729.4	3.15151
2730.74	3.68409
2732.08	3.7552
2733.42	4.43449
2734.76	4.57383
2736.1	4.5142
2737.44	4.936
2738.78	5.1837
2740.12	5.49512
2741.46	5.76598
2742.8	5.91998
2744.14	5.07713
2745.48	5.47012
2746.82	5.49857
2748.16	5.60959
2749.49	6.57857
2750.83	6.47748
2752.17	6.65148
2753.51	7.13517
2754.84	7.03009
2756.18	6.82218
2757.52	6.49022
2758.85	6.80026
2760.19	6.47638
2761.53	6.49651
2762.86	6.19845
2764.2	5.34613
2765.53	5.67637
2766.87	4.90905
2768.2	4.56972
2769.54	4.01876
2770.87	3.90355
2772.2	3.32796
2773.54	3.07492
2774.87	2.90956
2776.2	2.92691
2777.54	2.65789
2778.87	1.94122
2780.2	2.32689
2781.53	2.38594
2782.87	2.31414
2784.2	1.90015
2785.53	1.90679
2786.86	2.1522
2788.19	1.73921
2789.52	1.67318
2790.85	2.02368
2792.18	1.93111
2793.51	1.87575
2794.84	1.50814
2796.17	1.40009
2797.5	1.59805
2798.83	0.806894
2800.16	0.709325
2801.49	0.479874
2802.82	0.231411
2804.15	0.245419
2805.47	0.422743
2806.8	0.272909
2808.13	0.127589
2809.46	-0.335728
2810.78	-0.26141
2812.11	0.743446
2813.44	1.15762
2814.76	1.25979
2816.09	1.66765
2817.42	1.6251
2818.74	1.86116
2820.07	2.6996
2821.39	3.00181
2822.72	3.26204
2824.04	4.21782
2825.37	5.49264
2826.69	6.78196
2828.02	7.7643
2829.34	7.83878
2830.66	8.6952
2831.99	10.0159
2833.31	10.5205
2834.63	11.4798
2835.96	13.3812
2837.28	14.6009
2838.6	15.7923
2839.92	17.8272
2841.24	19.8014
2842.57	21.9959
2843.89	24.1563
2845.21	26.6816
2846.53	29.6462
2847.85	31.5604
2849.17	34.0823
2850.49	36.7797
2851.81	39.7762
2853.13	42.5117
2854.45	44.6963
2855.77	47.2227
2857.09	50.3048
2858.41	52.6946
2859.72	54.7636
2861.04	57.1097
2862.36	59.2934
2863.68	61.9594
2865	63.8057
2866.31	67.3355
2867.63	69.9441
2868.95	71.3311
2870.26	73.7171
2871.58	75.8863
2872.9	77.4791
2874.21	79.4751
2875.53	81.8622
2876.84	83.7965
2878.16	85.2957
2879.47	86.3477
2880.79	88.0604
2882.1	89.8167
2883.42	90.8069
2884.73	92.361
2886.05	93.9626
2887.36	95.818
2888.67	97.4637
2889.99	98.9313
2891.3	100.589
2892.61	101.903
2893.92	103.318
2895.24	104.59
2896.55	106.953
2897.86	108.605
2899.17	110.447
2900.48	112.93
2901.79	115.937
2903.11	118.401
2904.42	121.747
2905.73	125.49
2907.04	129.259
2908.35	133.924
2909.66	137.83
2910.97	142.288
2912.27	146.424
2913.58	149.724
2914.89	154.177
2916.2	158.382
2917.51	162.087
2918.82	165.586
2920.13	168.804
2921.43	172.059
2922.74	175.56
2924.05	178.04
2925.35	180.027
2926.66	182.536
2927.97	184.797
2929.27	186.453
2930.58	187.417
2931.89	188.374
2933.19	188.135
2934.5	188.479
2935.8	188.706
2937.11	188.235
2938.41	187.116
2939.72	186.41
2941.02	185
2942.32	183.112
2943.63	181.234
2944.93	179.447
2946.24	176.814
2947.54	173.922
2948.84	171.361
2950.14	168.679
2951.45	165.839
2952.75	162.034
2954.05	157.621
2955.35	153.937
2956.65	150.461
2957.95	146.641
2959.26	142.684
2960.56	138.922
2961.86	135.106
2963.16	131.402
2964.46	127.805
2965.76	124.391
2967.06	121.217
2968.36	118.385
2969.66	115.127
2970.96	111.992
2972.25	109.569
2973.55	106.288
2974.85	102.577
2976.15	99.7898
2977.45	96.7137
2978.74	93.0633
2980.04	90.3919
2981.34	87.4239
2982.64	84.3371
2983.93	81.1305
2985.23	78.1773
2986.52	74.8437
2987.82	71.6365
2989.12	67.8981
2990.41	64.4816
2991.71	61.2111
2993	57.8345
2994.3	54.8835
2995.59	52.4474
2996.89	49.6762
2998.18	47.4049
2999.48	44.5802
3000.77	41.3709
3002.06	38.6645
3003.36	36.1667
3004.65	33.943
3005.94	31.6313
3007.23	29.6146
3008.53	27.7723
3009.82	25.6329
3011.11	23.3652
3012.4	22.2083
3013.69	20.4075
3014.99	18.1474
3016.28	16.3599
3017.57	14.6831
3018.86	13.7706
3020.15	13.0097
3021.44	11.9516
3022.73	10.8954
3024.02	9.92303
3025.31	9.57642
3026.6	9.09676
3027.89	9.34979
3029.18	8.77178
3030.46	9.121
3031.75	9.4913
3033.04	9.71636
3034.33	9.59358
3035.62	10.0141
3036.9	10.8518
3038.19	11.0534
3039.48	12.1002
3040.76	13.1465
3042.05	13.3444
3043.34	13.9484
3044.62	14.3696
3045.91	15.3721
3047.19	15.5088
3048.48	15.7161
3049.77	16.3199
3051.05	16.0156
3052.34	16.3414
3053.62	16.6445
3054.9	16.8906
3056.19	17.0476
3057.47	17.3371
3058.76	17.6057
3060.04	16.8152
3061.32	15.9935
3062.61	15.6391
3063.89	15.0697
3065.17	14.5406
3066.45	14.2332
3067.74	13.7611
3069.02	13.0491
3070.3	12.8294
3071.58	11.9171
3072.86	11.0745
3074.14	10.2065
3075.42	9.25886
3076.7	8.44298
3077.99	7.09608
3079.26	6.35553
3080.54	6.09457
3081.82	5.09008
3083.1	4.3291
3084.38	3.43201
3085.66	2.22108
3086.94	1.59688
3088.22	1.69363
3089.5	1.48346
3090.78	1.17734
3092.05	0.790747
3093.33	0.446332
3094.61	0.541163
3095.89	0.587924
3097.16	0.237245
3098.44	0.17188
3099.72	0.108295
3100.99	0.479262
3102.27	0.055661
3103.54	-0.160929
3104.82	-0.486019
3106.1	-0.83555
3107.37	-0.283511
3108.65	-0.335243
3109.92	0.320887
3111.2	0.477542
3112.47	1.08619
3113.74	0.881322
3115.02	0.613928
3116.29	1.28998
3117.56	1.6354
3118.84	1.48729
3120.11	1.81414
3121.38	1.93607
3122.66	1.93933
3123.93	1.9137
3125.2	2.41162
3126.47	3.04719
3127.74	3.2465
3129.01	3.24583
3130.29	3.52586
3131.56	3.7733
3132.83	4.09623
3134.1	4.47485
3135.37	4.31821
3136.64	5.0291
3137.91	5.33437
3139.18	5.54823
3140.45	6.02633
3141.72	6.34525
3142.99	6.85085
3144.26	7.14295
3145.52	7.7774
3146.79	8.29581
3148.06	9.27429
3149.33	9.76899
