#Acq. time (s)=	45
#Accumulations=	2
#Range (cm-¹)=	200...3150
#Windows=	2
#Auto scanning=	Off
#Autofocus=	Off
#Macrospot=	Off
#AutoExposure=	Off
#Spike filter=	Multiple accum.
#Delay time (s)=	0
#Binning=	1
#Readout mode=	Signal
#DeNoise=	Off
#ICS correction=	On
#Dark correction=	Off
#Inst. Process=	Off
#Detector Gain=	Best Dynamic Range
#Detector ADC=	20 kHz       
#Detector temperature (°C)=	-69.85
#Instrument=	LabRAM HR Evol
#Detector=	Synapse
#Objective=	x100
#Grating=	600 gr/mm
#ND Filter=	100%
#Laser (nm)=	532 
#Hole=	100.021
#Range=	Auto
#Laser Pol.=	No
#Raman. Pol.=	No
#Laser Pol. (°)=	-0.0007625
#Raman Pol. (°)=	89.9995
#Collection=	Microscope
#StageXY=	Marzhauser
#StageZ=	Marzhauser
#X (µm)=	-2369.8
#Y (µm)=	230.7
#Z (µm)=	521
#Full time(mm:ss)=	3:18
#Project=	
#Sample=	
#Site=	
#Title=	Thy_10_08_38_2x_45s_532 nm_x100_100%_600 gr_mm
#Remark=	
#Date=	06.07.2022 14:29
#Acquired=	06.07.2022 14:29:20
#Base:Fit=	10.08.2022 09:46:25
#Base:Sub=	10.08.2022 09:46:49
#Filter:Polynom=	16.08.2022 10:24:56
#AxisType[0]=Intens
#AxisUnit[0]=Cnt
#AxisType[1]=Spectr
#AxisUnit[1]=1/cm
200.398	0.335536
202.213	2.25151
204.027	4.43754
205.843	4.25393
207.657	5.10935
209.47	5.84224
211.283	6.47386
213.097	7.36119
214.909	7.79233
216.721	8.03765
218.533	8.57055
220.344	9.45094
222.157	10.5092
223.967	10.7814
225.777	10.7386
227.587	11.9689
229.396	12.5004
231.205	13.1795
233.016	13.4409
234.824	14.6286
236.632	15.3516
238.439	15.5303
240.247	15.4842
242.053	15.7075
243.86	16.1791
245.666	15.7741
247.474	15.3592
249.279	15.0128
251.085	14.9699
252.889	15.4352
254.694	16.2184
256.498	16.485
258.301	16.1529
260.105	16.4555
261.908	16.6874
263.71	16.6304
265.513	17.311
267.315	17.9035
269.116	17.7608
270.918	17.8733
272.718	19.0532
274.519	18.351
276.319	19.0583
278.119	20.1138
279.918	19.6007
281.718	19.0719
283.516	18.0624
285.315	18.9544
287.113	18.5088
288.911	18.0755
290.708	18.1517
292.505	18.2667
294.302	17.9268
296.098	19.2808
297.894	18.4808
299.69	18.2699
301.485	19.0357
303.278	19.2307
305.073	18.8634
306.867	19.332
308.661	19.9058
310.454	20.6917
312.247	21.1577
314.04	20.985
315.833	21.0113
317.623	20.9997
319.415	20.7516
321.206	21.4468
322.997	21.5917
324.788	21.6201
326.579	20.6667
328.367	19.5617
330.156	19.2525
331.946	19.4619
333.735	19.0885
335.523	18.9309
337.31	19.3286
339.098	19.659
340.885	19.2485
342.673	18.6699
344.458	17.8137
346.244	17.2691
348.03	17.1645
349.816	17.0719
351.6	16.4612
353.385	16.159
355.17	16.3858
356.953	15.4161
358.737	15.1537
360.521	14.936
362.304	14.6271
364.085	13.5816
365.868	13.1871
367.65	12.1215
369.431	11.6147
371.212	11.2539
372.994	11.0769
374.773	11.065
376.554	9.02421
378.332	8.90618
380.112	8.5651
381.892	7.62498
383.669	6.93648
385.448	7.45531
387.225	6.90475
389.003	6.99294
390.781	7.54366
392.557	7.04391
394.334	6.74839
396.109	6.79413
397.885	6.2559
399.66	6.2551
401.436	6.10765
403.211	5.0768
404.984	4.73328
406.759	5.21321
408.532	5.75524
410.306	6.00292
412.078	6.1785
413.851	6.48057
415.623	6.58678
417.395	6.78767
419.166	7.61643
420.938	8.00955
422.708	7.96541
424.477	7.91209
426.248	7.45321
428.017	7.12014
429.788	6.23744
431.556	5.39387
433.326	4.97564
435.093	4.6806
436.86	4.75284
438.629	5.47472
440.395	5.43731
442.163	6.10957
443.929	6.55823
445.694	6.31331
447.461	6.72231
449.226	6.53948
450.99	6.5453
452.756	6.83013
454.52	7.38077
456.285	7.46486
458.048	7.65434
459.811	7.40842
461.573	7.40228
463.337	7.61266
465.099	7.45923
466.86	8.73756
468.623	8.89009
470.384	8.8554
472.144	9.69032
473.906	10.7006
475.666	10.5715
477.425	10.6113
479.184	11.2603
480.944	11.5446
482.703	12.7044
484.461	14.0478
486.218	14.963
487.975	15.6978
489.734	16.4161
491.491	16.6224
493.247	18.0161
495.003	19.0932
496.759	20.0712
498.516	21.3152
500.271	22.0997
502.025	21.5155
503.779	21.1353
505.533	21.2448
507.287	21.0166
509.042	20.4049
510.795	19.4495
512.547	18.7909
514.299	17.8622
516.051	16.6251
517.803	15.873
519.554	16.1984
521.305	17.1591
523.055	17.4305
524.805	18.1993
526.555	18.2678
528.307	17.4453
530.056	17.4459
531.805	17.2166
533.553	15.9553
535.301	15.7134
537.049	14.6703
538.797	13.681
540.544	13.7167
542.291	12.8419
544.037	11.8483
545.783	11.6202
547.529	10.9283
549.275	10.9427
551.02	10.1062
552.765	9.154
554.509	8.67746
556.253	8.29881
557.997	7.33691
559.738	7.1318
561.482	6.37026
563.224	5.52895
564.967	5.82306
566.709	6.23717
568.451	6.18334
570.192	5.82238
571.933	5.10919
573.674	4.05833
575.415	2.97001
577.153	2.97406
578.893	2.76591
580.632	3.10281
582.371	2.50062
584.11	2.33055
585.849	2.09072
587.587	1.82142
589.323	1.30509
591.06	1.84705
592.797	0.422189
594.534	-0.481668
596.271	-0.985966
598.005	-1.05808
599.741	-0.831714
601.476	0.121169
603.211	1.35891
604.944	2.29443
606.679	3.10488
608.413	3.41592
610.147	3.33623
611.878	3.95343
613.611	3.97527
615.344	4.78651
617.077	4.85895
618.807	4.59447
620.539	5.52407
622.27	6.81789
623.999	7.46389
625.73	8.89134
627.461	9.99518
629.189	10.6334
630.919	11.8905
632.648	12.5926
634.376	13.0103
636.105	13.9997
637.833	14.6181
639.559	15.673
641.287	16.4861
643.013	16.7486
644.74	17.4524
646.467	18.3367
648.192	18.3789
649.918	18.8971
651.642	19.4412
653.368	19.6293
655.091	19.2097
656.816	19.136
658.538	19.6584
660.263	19.2043
661.987	19.5383
663.708	20.2901
665.432	20.3975
667.153	20.7692
668.875	20.7726
670.596	21.4129
672.318	21.4568
674.037	21.2885
675.759	21.3929
677.478	20.9928
679.196	20.4315
680.917	22.101
682.635	22.3644
684.355	23.0735
686.072	23.2995
687.791	23.772
689.508	23.6101
691.224	23.2602
692.942	23.2486
694.658	23.6773
696.376	23.7668
698.091	24.1757
699.805	23.8103
701.522	24.8925
703.236	25.083
704.95	26.3961
706.665	28.4318
708.379	29.267
710.093	30.6704
711.806	31.2905
713.518	31.4187
715.23	32.6731
716.943	33.8731
718.655	35.1461
720.366	37.5652
722.078	39.5548
723.788	41.3422
725.498	42.7088
727.208	43.5064
728.919	45.0431
730.628	47.3596
732.337	47.8589
734.045	49.2321
735.755	50.1259
737.463	51.2769
739.17	52.5464
740.877	53.0549
742.584	55.3072
744.292	56.1593
745.998	56.8987
747.704	58.693
749.409	59.6913
751.114	60.9014
752.819	62.6281
754.526	63.7548
756.23	64.5194
757.934	65.6434
759.637	67.3557
761.34	68.1247
763.043	68.3136
764.746	69.1444
766.448	69.1587
768.152	68.9319
769.853	68.2359
771.554	68.7009
773.255	69.9647
774.956	70.3452
776.656	69.9442
778.356	70.3957
780.056	71.2614
781.755	71.9202
783.454	71.8629
785.153	72.1759
786.851	72.9662
788.549	73.8873
790.247	74.6791
791.944	75.6259
793.641	75.8843
795.338	76.2953
797.034	76.0845
798.73	77.4763
800.426	78.4045
802.121	79.3967
803.817	80.7685
805.511	81.6985
807.206	81.3252
808.9	80.9237
810.592	80.4675
812.286	80.5139
813.979	81.2593
815.672	81.3055
817.364	81.2006
819.057	82.3889
820.748	82.1704
822.44	82.9453
824.129	82.9464
825.82	82.4066
827.511	82.6835
829.201	81.7819
830.891	81.5073
832.581	81.843
834.269	81.3385
835.958	80.7978
837.646	80.3574
839.335	79.8012
841.023	79.0707
842.709	78.0447
844.396	76.99
846.084	75.112
847.77	73.9187
849.455	72.2757
851.141	71.7661
852.827	70.818
854.513	69.5923
856.196	70.6211
857.881	70.3835
859.566	68.8164
861.248	67.9698
862.932	67.8052
864.616	66.8032
866.297	65.3167
867.98	64.2795
869.663	63.5475
871.343	63.4478
873.026	63.3562
874.707	62.6926
876.387	62.4652
878.068	61.4646
879.747	60.503
881.428	59.693
883.108	60.0052
884.786	58.6186
886.465	58.2144
888.143	57.6567
889.822	56.0315
891.498	55.7538
893.177	55.0018
894.855	54.8109
896.53	55.4302
898.208	55.5511
899.883	55.523
901.56	54.8892
903.234	54.705
904.91	53.9076
906.584	54.0061
908.26	53.6724
909.933	53.544
911.608	53.4339
913.28	53.4218
914.955	53.2164
916.627	52.9371
918.298	52.2215
919.972	52.3601
921.643	52.4388
923.315	53.1392
924.986	52.0954
926.656	51.1971
928.328	50.9465
929.997	50.483
931.668	50.2745
933.337	49.5779
935.006	49.7824
936.676	48.4799
938.344	47.9161
940.012	47.3436
941.681	46.0901
943.348	44.8973
945.014	44.6057
946.683	44.5494
948.349	43.707
950.015	44.4458
951.682	44.643
953.347	44.4995
955.012	44.4857
956.676	42.735
958.343	40.9945
960.006	39.7669
961.67	39.1611
963.333	40.1521
964.998	40.8786
966.661	42.0525
968.323	41.5289
969.985	41.9586
971.649	42.6584
973.31	43.1874
974.971	44.5554
976.632	44.3725
978.293	45.1011
979.953	45.7439
981.615	44.8406
983.274	44.766
984.933	44.4009
986.592	44.6852
988.251	44.6366
989.909	44.4445
991.567	44.2792
993.225	44.1199
994.884	43.3572
996.541	43.1547
998.198	42.8039
999.855	43.0087
1001.51	42.8757
1003.17	42.7128
1004.82	42.1762
1006.48	41.3831
1008.13	40.0897
1009.79	39.5094
1011.44	38.9028
1013.1	37.9239
1014.75	37.1737
1016.4	36.2107
1018.06	35.5374
1019.71	35.2568
1021.36	34.6577
1023.01	33.5023
1024.66	32.9409
1026.32	32.6409
1027.97	32.1782
1029.62	31.195
1031.27	30.3818
1032.92	30.0132
1034.57	28.6913
1036.22	28.2149
1037.87	26.7775
1039.52	24.9148
1041.16	25.0974
1042.81	25.7657
1044.46	26.9639
1046.11	28.0709
1047.76	27.2462
1049.4	27.6439
1051.05	27.3555
1052.7	28.0934
1054.34	27.5736
1055.99	26.3626
1057.63	25.6424
1059.28	24.789
1060.92	23.8055
1062.57	23.1054
1064.21	21.0617
1065.85	20.4584
1067.5	19.2502
1069.14	18.4174
1070.78	17.7543
1072.43	17.9504
1074.07	18.4981
1075.71	17.6777
1077.35	17.8335
1078.99	17.9984
1080.63	18.7094
1082.27	18.9841
1083.91	18.095
1085.55	18.3628
1087.19	18.4276
1088.83	18.4594
1090.47	18.8875
1092.11	18.6955
1093.75	18.3642
1095.39	18.7178
1097.03	19.4958
1098.66	19.4778
1100.3	19.4965
1101.94	19.1613
1103.57	18.4203
1105.21	17.4844
1106.84	17.4237
1108.48	17.1502
1110.11	17.4226
1111.75	17.3463
1113.38	17.6213
1115.02	16.8361
1116.65	16.201
1118.29	14.5198
1119.92	12.5884
1121.55	11.7832
1123.19	11.5387
1124.82	11.3142
1126.45	11.071
1128.08	10.6303
1129.71	10.5374
1131.34	10.8271
1132.97	10.713
1134.6	10.057
1136.23	8.55189
1137.86	8.87993
1139.49	9.36645
1141.12	9.20307
1142.75	8.2897
1144.38	8.22906
1146.01	7.35184
1147.64	7.64288
1149.26	7.96309
1150.89	8.17615
1152.52	7.96943
1154.15	8.05018
1155.77	7.36951
1157.4	6.46751
1159.02	7.08578
1160.65	6.30401
1162.27	6.24133
1163.9	5.61127
1165.52	5.2629
1167.15	5.36547
1168.77	5.39233
1170.39	5.65148
1172.02	5.60641
1173.64	6.47543
1175.26	6.71418
1176.89	7.03781
1178.51	6.70373
1180.13	7.05684
1181.75	7.63007
1183.37	7.57097
1184.99	8.10775
1186.61	8.16919
1188.23	8.42487
1189.85	8.57775
1191.47	9.19092
1193.09	9.01525
1194.71	9.42389
1196.33	9.18756
1197.94	10.1685
1199.56	11.0188
1201.18	11.5749
1202.8	13.7904
1204.41	14.9257
1206.03	17.3975
1207.65	19.191
1209.26	21.9096
1210.88	23.3731
1212.49	25.2463
1214.11	26.7281
1215.72	28.1696
1217.34	29.5976
1218.95	32.0484
1220.57	33.56
1222.18	35.6007
1223.79	36.7501
1225.41	38.2124
1227.02	39.7732
1228.63	40.8952
1230.24	41.6494
1231.85	42.0157
1233.47	42.9876
1235.08	43.5529
1236.69	43.7664
1238.3	44.1424
1239.91	44.9244
1241.52	45.6182
1243.13	47.045
1244.74	47.6657
1246.34	48.4787
1247.95	49.9681
1249.56	50.8837
1251.17	51.1112
1252.78	51.2891
1254.38	51.4451
1255.99	50.8101
1257.6	50.4547
1259.2	51.2009
1260.81	51.6976
1262.42	51.5279
1264.02	50.7851
1265.63	51.2813
1267.23	51.391
1268.84	51.5067
1270.44	52.2064
1272.04	52.6323
1273.65	52.4868
1275.25	53.1731
1276.85	54.5214
1278.46	55.2996
1280.06	55.6562
1281.66	55.7383
1283.26	57.7987
1284.86	57.8414
1286.46	58.8905
1288.07	59.1221
1289.67	59.8607
1291.27	60.2714
1292.87	61.1095
1294.47	61.2348
1296.06	62.4866
1297.66	63.2844
1299.26	64.5429
1300.86	64.9006
1302.46	65.6199
1304.06	66.3642
1305.65	66.8479
1307.25	68.1477
1308.85	67.8915
1310.44	67.8554
1312.04	68.3439
1313.64	69.1777
1315.23	68.5843
1316.83	68.3591
1318.42	69.1692
1320.02	69.2045
1321.61	69.1945
1323.2	68.9831
1324.8	68.7279
1326.39	68.9948
1327.99	68.7265
1329.58	67.4473
1331.17	66.9066
1332.76	65.8241
1334.36	65.8403
1335.95	65.4362
1337.54	64.9938
1339.13	64.628
1340.72	63.2895
1342.31	62.4723
1343.9	61.2162
1345.49	60.3725
1347.08	59.1755
1348.67	57.9804
1350.26	57.0569
1351.85	55.5676
1353.43	54.817
1355.02	54.6738
1356.61	53.6091
1358.2	51.6938
1359.78	50.8767
1361.37	49.1399
1362.96	48.0821
1364.54	46.5554
1366.13	45.7475
1367.71	45.3548
1369.3	44.368
1370.88	43.3278
1372.47	41.8367
1374.05	40.5623
1375.64	39.6585
1377.22	38.9442
1378.8	38.3441
1380.39	37.9854
1381.97	37.8796
1383.55	36.6601
1385.13	35.0376
1386.72	34.8132
1388.3	33.1375
1389.88	32.7641
1391.46	32.7762
1393.04	31.8854
1394.62	30.5243
1396.2	29.6171
1397.78	29.428
1399.36	28.4824
1400.94	29.1572
1402.52	29.5267
1404.1	30.5384
1405.68	31.3265
1407.25	32.1894
1408.83	33.5036
1410.41	34.9158
1411.98	36.0558
1413.56	38.7597
1415.14	39.6256
1416.71	41.9833
1418.29	44.0818
1419.87	46.3565
1421.44	49.3085
1423.02	52.831
1424.59	56.4031
1426.16	59.6988
1427.74	63.0717
1429.31	66.6747
1430.89	69.608
1432.46	72.4937
1434.03	75.1912
1435.6	78.0755
1437.18	80.3081
1438.75	81.8961
1440.32	83.1584
1441.89	85.1966
1443.46	86.596
1445.03	87.5352
1446.6	88.4612
1448.17	88.0654
1449.74	87.5309
1451.31	86.5281
1452.88	85.0065
1454.45	84.2821
1456.02	83.0896
1457.59	80.4857
1459.16	77.6094
1460.72	74.1069
1462.29	69.9678
1463.86	67.406
1465.43	63.9738
1466.99	59.9012
1468.56	56.5424
1470.13	51.8327
1471.69	46.8296
1473.26	41.9066
1474.82	38.0887
1476.38	34.4289
1477.95	30.4333
1479.51	27.904
1481.08	24.5744
1482.64	22.2684
1484.2	18.9362
1485.77	16.0112
1487.33	13.3684
1488.89	11.3544
1490.46	9.44312
1492.02	8.04229
1493.58	6.18199
1495.14	5.56043
1496.7	4.0011
1498.26	3.93399
1499.82	3.52646
1501.38	2.90768
1502.94	2.21611
1504.5	1.83309
1506.06	1.42097
1507.62	1.45789
1509.18	1.17269
1510.73	1.21767
1512.29	1.32704
1513.85	1.65967
1515.41	1.33158
1516.96	2.8708
1518.52	3.50305
1520.08	4.11588
1521.63	4.86707
1523.19	5.55616
1524.75	6.03585
1526.3	6.57173
1527.85	7.36485
1529.41	8.59608
1530.96	9.97063
1532.52	11.6749
1534.07	12.2114
1535.62	12.5104
1537.18	13.878
1538.73	15.1411
1540.28	16.4855
1541.84	18.0386
1543.39	18.6081
1544.94	19.5308
1546.49	20.8386
1548.04	22.3769
1549.59	23.8435
1551.14	25.5895
1552.69	27.2216
1554.25	28.5302
1555.79	29.5445
1557.34	30.9994
1558.89	31.6968
1560.44	33.0541
1561.99	33.826
1563.54	34.9885
1565.08	36.2383
1566.63	38.0812
1568.18	39.43
1569.73	40.5003
1571.27	41.8924
1572.82	43.2967
1574.37	44.4348
1575.91	45.8427
1577.46	46.2912
1579	47.6654
1580.55	48.6231
1582.09	49.4313
1583.64	50.6725
1585.18	51.5731
1586.73	51.9973
1588.27	52.8185
1589.81	52.7044
1591.35	53.4173
1592.9	53.9005
1594.44	55.1128
1595.98	54.5228
1597.52	54.5448
1599.06	54.0441
1600.61	54.0987
1602.15	54.0248
1603.69	54.5028
1605.23	54.2443
1606.77	54.1874
1608.31	53.795
1609.85	53.2284
1611.39	53.4673
1612.93	53.4013
1614.46	54.2609
1616	54.073
1617.54	54.4385
1619.08	54.7118
1620.61	55.2013
1622.15	55.9317
1623.69	56.9868
1625.23	58.3806
1626.76	59.3367
1628.3	60.5799
1629.83	60.9472
1631.37	61.8841
1632.9	62.9191
1634.44	64.7092
1635.97	66.0623
1637.51	67.5514
1639.04	69.1514
1640.57	70.2025
1642.11	73.1323
1643.64	75.2429
1645.17	76.7611
1646.71	78.4208
1648.24	80.1667
1649.77	81.5241
1651.3	82.0265
1652.83	82.8206
1654.36	84.0173
1655.89	84.6181
1657.42	84.3972
1658.96	84.7093
1660.48	83.9561
1662.01	82.662
1663.54	82.0072
1665.07	81.1801
1666.6	79.2967
1668.13	78.1562
1669.66	76.317
1671.19	74.1886
1672.71	70.9715
1674.24	68.8502
1675.77	65.9739
1677.29	63.7261
1678.82	60.1415
1680.35	57.3113
1681.87	54.0637
1683.4	51.427
1684.92	48.6352
1686.45	46.1779
1687.97	43.4853
1689.5	39.9263
1691.02	37.9352
1692.54	35.0555
1694.07	33.8376
1695.59	31.6984
1697.11	29.286
1698.64	27.059
1700.16	25.4327
1701.68	24.2598
1703.2	22.1136
1704.72	20.3433
1706.25	18.2329
1707.77	16.8575
1709.29	16.0722
1710.81	14.6329
1712.33	13.6116
1713.85	13.1292
1715.37	12.6265
1716.89	12.3694
1718.41	12.8246
1719.92	11.6974
1721.44	11.8877
1722.96	11.6426
1724.48	11.3695
1725.99	11.4291
1727.51	11.2183
1729.03	11.4686
1730.55	11.3063
1732.06	10.8101
1733.58	10.533
1735.09	10.6049
1736.61	10.2214
1738.13	10.1819
1739.64	9.92441
1741.15	9.20231
1742.67	8.55198
1744.18	7.99304
1745.7	7.77066
1747.21	7.71199
1748.72	7.67616
1750.24	7.77332
1751.75	6.77865
1753.26	6.36369
1754.77	6.24023
1756.29	5.77248
1757.8	5.25186
1759.31	4.84426
1760.82	4.43826
1762.33	3.7034
1763.84	3.14185
1765.35	2.50762
1766.86	2.54525
1768.37	1.76605
1769.88	1.53341
1771.39	0.22335
1772.9	-0.198973
1774.4	-0.195146
1775.91	0.405397
1777.42	0.381798
1778.93	0.0619252
1780.44	-0.139444
1781.94	-0.647787
1783.45	-0.821178
1784.96	-0.472916
1786.46	-0.489908
1787.97	-0.402226
1789.47	-0.280598
1790.98	-0.353746
1792.48	0.0442344
1793.99	0.35409
1795.49	0.301691
1797	0.618747
1798.5	0.81827
1800.01	0.856414
1801.51	0.761115
1803.01	0.258147
1804.51	-0.000243634
1806.02	-0.438637
1807.52	-0.507456
1809.02	-0.744998
1810.52	-0.512717
1812.02	-0.702248
1813.52	-0.949404
1815.02	-0.473971
1816.53	-0.225397
1818.03	0.554372
1819.52	0.776932
1821.02	1.92689
1822.52	2.25845
1824.02	2.57618
1825.52	2.73332
1827.02	3.19631
1828.52	3.16036
1830.02	3.51215
1831.51	2.84591
1833.01	3.53933
1834.51	3.44843
1836.01	3.23072
1837.5	2.79453
1839	3.20621
1840.49	3.33046
1841.99	3.84041
1843.49	3.88545
1844.98	3.9351
1846.48	4.16084
1847.97	4.94307
1849.47	4.78642
1850.96	5.00589
1852.45	4.81837
1853.95	4.74488
1855.44	4.82162
1856.93	5.17686
1858.42	5.39909
1859.92	5.78299
1861.41	5.59793
1862.9	5.70962
1864.39	6.29093
1865.88	5.34366
1867.38	5.40504
1868.87	5.33157
1870.36	4.38103
1871.85	4.4655
1873.34	3.99971
1874.83	3.18306
1876.32	2.17226
1877.81	2.23659
1879.29	2.00822
1880.78	1.72203
1882.27	1.92836
1882.53	2.00737
1884.03	2.42911
1885.52	2.7528
1887.01	2.89853
1888.51	3.36469
1890	3.85788
1891.5	3.99825
1892.99	4.20612
1894.48	4.2802
1895.97	3.91737
1897.47	4.4861
1898.96	4.25556
1900.45	4.69348
1901.94	4.40651
1903.43	4.99159
1904.92	5.51414
1906.41	5.74357
1907.9	6.05334
1909.39	5.59481
1910.88	5.93509
1912.37	6.1894
1913.86	5.95162
1915.35	5.9667
1916.84	5.94034
1918.33	5.95514
1919.81	5.93281
1921.3	6.10084
1922.79	6.59249
1924.28	7.02169
1925.76	6.75646
1927.25	6.8874
1928.73	6.67199
1930.22	7.0332
1931.71	7.20523
1933.19	7.86259
1934.68	8.11442
1936.16	8.14917
1937.65	7.71537
1939.13	7.32606
1940.62	8.11868
1942.1	7.85868
1943.58	8.06555
1945.07	8.42875
1946.55	8.50534
1948.03	8.71736
1949.51	8.89786
1951	9.46199
1952.48	8.95408
1953.96	9.46988
1955.44	9.40426
1956.92	9.48061
1958.4	9.75396
1959.88	9.80834
1961.36	10.0084
1962.84	9.88159
1964.32	9.7864
1965.8	9.43751
1967.28	9.4665
1968.76	9.26731
1970.24	9.39675
1971.72	9.99376
1973.2	9.22189
1974.67	9.53678
1976.15	9.72148
1977.63	10.0833
1979.1	9.81837
1980.58	9.30625
1982.06	9.5927
1983.54	9.16507
1985.01	10.5703
1986.49	10.4604
1987.96	10.6991
1989.44	11.1398
1990.91	11.1164
1992.39	11.1825
1993.86	11.3396
1995.33	11.7511
1996.81	12.3037
1998.28	11.5667
1999.75	11.5758
2001.23	12.1791
2002.7	12.2989
2004.17	12.9324
2005.65	13.0964
2007.12	13.4366
2008.59	12.558
2010.06	13.0712
2011.53	13.8371
2013	14.2378
2014.47	14.1339
2015.94	14.6335
2017.41	15.5811
2018.88	15.5368
2020.35	15.024
2021.82	14.5373
2023.29	14.5501
2024.76	13.9355
2026.23	13.4183
2027.69	13.3229
2029.16	12.6214
2030.63	12.8385
2032.1	13.0083
2033.56	13.0781
2035.03	12.7759
2036.5	12.8809
2037.96	13.5534
2039.43	13.7248
2040.89	14.0276
2042.36	13.4925
2043.83	13.0439
2045.29	13.6167
2046.75	13.37
2048.22	14.403
2049.68	15.121
2051.15	15.2446
2052.61	15.5446
2054.07	15.4237
2055.54	15.6623
2057	15.9355
2058.46	16.5292
2059.92	15.9395
2061.39	16.1099
2062.85	16.0227
2064.31	16.8592
2065.77	16.8282
2067.23	16.6882
2068.69	16.2077
2070.15	16.1345
2071.61	16.3182
2073.07	16.4989
2074.53	16.7413
2075.99	16.3869
2077.45	16.2929
2078.91	16.6081
2080.37	16.9794
2081.82	17.0042
2083.28	18.419
2084.74	18.8563
2086.2	18.5399
2087.65	19.4403
2089.11	19.9914
2090.57	19.9452
2092.02	19.382
2093.48	19.2517
2094.94	19.916
2096.39	20.1168
2097.85	19.9699
2099.3	20.4138
2100.76	21.3681
2102.21	21.9968
2103.66	22.9538
2105.12	23.5859
2106.57	24.4405
2108.03	25.1439
2109.48	26.2539
2110.93	26.6652
2112.38	26.9002
2113.84	27.1794
2115.29	27.1136
2116.74	28.1805
2118.19	30.001
2119.64	30.3731
2121.09	31.0668
2122.54	30.7095
2123.99	30.1672
2125.45	30.545
2126.89	30.6841
2128.34	31.9847
2129.79	32.9834
2131.24	33.6908
2132.69	33.7979
2134.14	33.9479
2135.59	34.4916
2137.04	35.2853
2138.48	34.0425
2139.93	33.9928
2141.38	34.046
2142.83	35.0978
2144.27	35.6435
2145.72	36.5141
2147.17	36.3935
2148.61	36.8536
2150.06	38.2335
2151.5	40.0486
2152.95	40.9182
2154.39	41.3545
2155.84	42.6639
2157.28	43.3025
2158.73	43.6334
2160.17	44.7022
2161.61	44.8743
2163.06	45.3695
2164.5	45.663
2165.94	46.2714
2167.38	46.43
2168.83	46.7577
2170.27	46.843
2171.71	46.7883
2173.15	46.6689
2174.59	46.7245
2176.03	46.8237
2177.47	46.8412
2178.91	47.6273
2180.36	47.3006
2181.8	46.6184
2183.23	45.7391
2184.67	45.556
2186.11	45.2327
2187.55	44.6839
2188.99	44.7555
2190.43	44.409
2191.87	43.2163
2193.3	42.8088
2194.74	42.1195
2196.18	41.7411
2197.62	41.5091
2199.05	40.4759
2200.49	39.898
2201.93	38.7207
2203.36	37.7683
2204.8	36.6574
2206.23	35.5608
2207.67	34.9737
2209.1	33.9523
2210.54	33.0406
2211.97	32.5201
2213.41	32.3751
2214.84	32.1238
2216.27	31.3193
2217.71	31.2884
2219.14	30.6055
2220.57	31.48
2222.01	31.4016
2223.44	30.5319
2224.87	29.5477
2226.3	28.922
2227.73	28.5885
2229.16	27.9151
2230.6	27.2756
2232.03	26.763
2233.46	26.2888
2234.89	26.2604
2236.32	25.7437
2237.75	25.6618
2239.18	25.2039
2240.61	25.0981
2242.03	23.9331
2243.46	23.7611
2244.89	23.6557
2246.32	23.3421
2247.75	23.3694
2249.17	23.9172
2250.6	23.3219
2252.03	22.3429
2253.46	21.8111
2254.88	21.918
2256.31	22.5412
2257.73	22.2928
2259.16	22.3897
2260.59	22.909
2262.01	23.5647
2263.44	23.3711
2264.86	23.293
2266.29	22.672
2267.71	22.2507
2269.14	22.1686
2270.56	21.5825
2271.98	21.8131
2273.4	21.4919
2274.83	21.481
2276.25	21.194
2277.67	21.6302
2279.09	21.8673
2280.52	21.5822
2281.94	21.022
2283.36	20.7073
2284.78	20.2878
2286.2	20.1763
2287.62	19.7595
2289.04	19.5899
2290.46	18.952
2291.88	18.3349
2293.3	17.8252
2294.72	17.7272
2296.14	18.4629
2297.56	19.0649
2298.98	19.3387
2300.4	19.5699
2301.82	19.989
2303.23	20.6044
2304.65	21.0484
2306.07	21.5409
2307.49	21.6146
2308.9	21.7271
2310.32	21.616
2311.73	21.2654
2313.15	20.4367
2314.57	20.8562
2315.98	20.4503
2317.4	20.4806
2318.81	20.6572
2320.23	19.8097
2321.64	19.0795
2323.06	19.0979
2324.47	18.9682
2325.88	19.063
2327.3	18.9336
2328.71	18.9695
2330.12	18.87
2331.54	18.5507
2332.95	18.0601
2334.36	16.7847
2335.77	16.2909
2337.18	15.4264
2338.6	15.134
2340.01	14.8845
2341.42	14.129
2342.83	13.9597
2344.24	13.2565
2345.65	12.4727
2347.06	12.0783
2348.47	11.4921
2349.88	10.1775
2351.29	9.17046
2352.7	8.82933
2354.1	8.19396
2355.51	7.36029
2356.92	7.51914
2358.33	6.7946
2359.74	6.40303
2361.14	6.08374
2362.55	6.49979
2363.96	6.72833
2365.36	7.19621
2366.77	7.92865
2368.18	8.28049
2369.58	7.73725
2370.99	7.52537
2372.39	7.99876
2373.8	8.35991
2375.2	7.94316
2376.61	8.19996
2378.01	7.83596
2379.42	7.08644
2380.82	7.25312
2382.22	7.03784
2383.63	6.94493
2385.03	7.29735
2386.43	7.09032
2387.84	6.78112
2389.24	6.68791
2390.64	7.27367
2392.04	7.40163
2393.44	7.30628
2394.84	7.96957
2396.25	7.78944
2397.65	8.02816
2399.05	8.50709
2400.45	8.63506
2401.85	9.26655
2403.25	8.90853
2404.65	9.19582
2406.05	9.22137
2407.45	9.05831
2408.84	9.22067
2410.24	9.59776
2411.64	9.3311
2413.04	9.32803
2414.44	9.63515
2415.83	9.66093
2417.23	9.80245
2418.63	9.82697
2420.02	9.83543
2421.42	10.0549
2422.82	10.5071
2424.21	10.1776
2425.61	10.5109
2427	11.4581
2428.4	11.5427
2429.8	11.6254
2431.19	11.9458
2432.58	12.42
2433.98	12.5002
2435.37	12.7001
2436.77	12.4261
2438.16	11.8207
2439.55	11.1683
2440.95	10.946
2442.34	11.3377
2443.73	10.8396
2445.12	10.3302
2446.51	9.99007
2447.91	9.75445
2449.3	9.47779
2450.69	9.60996
2452.08	9.75071
2453.47	9.27963
2454.86	8.98112
2456.25	9.08888
2457.64	8.39736
2459.03	8.74343
2460.42	8.87637
2461.81	7.64284
2463.2	7.60617
2464.59	7.21139
2465.98	6.64923
2467.36	7.00496
2468.75	6.96628
2470.14	6.5231
2471.53	6.62674
2472.92	5.62514
2474.3	5.61399
2475.69	5.3688
2477.08	4.98775
2478.46	5.05141
2479.85	5.40534
2481.23	5.02844
2482.62	5.16797
2484	5.24553
2485.39	4.90392
2486.77	4.86844
2488.16	4.8682
2489.54	4.21919
2490.93	4.27954
2492.31	4.05052
2493.69	4.45133
2495.08	4.12138
2496.46	4.29321
2497.84	3.64774
2499.23	3.37307
2500.61	2.91332
2501.99	2.22849
2503.37	2.06442
2504.75	2.38946
2506.13	3.15497
2507.52	3.07148
2508.9	3.26442
2510.28	3.44888
2511.66	3.53997
2513.04	3.28335
2514.42	3.42409
2515.8	3.47916
2517.18	3.77487
2518.55	3.75365
2519.93	3.75604
2521.31	3.40998
2522.69	2.77056
2524.07	2.75837
2525.45	2.52396
2526.82	1.61092
2528.2	2.13223
2529.58	2.38879
2530.95	1.60725
2532.33	1.76128
2533.71	1.84256
2535.08	1.87674
2536.46	2.0701
2537.84	2.06
2539.21	2.03908
2540.59	2.17204
2541.96	2.10473
2543.34	2.7947
2544.71	2.38838
2546.08	2.05051
2547.46	1.64286
2548.83	1.85099
2550.2	1.61519
2551.58	1.88587
2552.95	1.79268
2554.32	1.76256
2555.7	1.53631
2557.07	0.765951
2558.44	0.413808
2559.81	0.746149
2561.18	1.20632
2562.55	2.01308
2563.93	1.10292
2565.3	1.71808
2566.67	1.82306
2568.04	2.51375
2569.41	2.87358
2570.78	3.12298
2572.15	3.86862
2573.51	4.23248
2574.88	3.42852
2576.25	2.59677
2577.62	2.96803
2578.99	3.42442
2580.36	3.27023
2581.73	3.45014
2583.09	3.51217
2584.46	3.41776
2585.83	2.86824
2587.19	2.38917
2588.56	1.68448
2589.93	1.36822
2591.29	1.4707
2592.66	1.50508
2594.02	1.65621
2595.39	1.87574
2596.75	1.92561
2598.12	2.14871
2599.48	1.43132
2600.85	1.21614
2602.21	1.00672
2603.58	1.04411
2604.94	1.31257
2606.3	1.49206
2607.67	2.0469
2609.03	1.51466
2610.39	2.0216
2611.76	1.73698
2613.12	1.33959
2614.48	1.57501
2615.84	1.22532
2617.2	1.53192
2618.56	1.32081
2619.92	1.05842
2621.28	0.569811
2622.65	0.277769
2624.01	-0.239195
2625.37	-0.495407
2626.72	0.299331
2628.08	-0.06423
2629.44	0.132226
2630.8	-0.266787
2632.16	-0.0577905
2633.52	0.57591
2634.88	0.450306
2636.24	0.60662
2637.59	0.187995
2638.95	0.218896
2640.31	0.738766
2641.67	1.07732
2643.02	0.908941
2644.38	1.72752
2645.74	2.07981
2647.09	2.0382
2648.45	1.91141
2649.8	2.30318
2651.16	2.81285
2652.51	2.68308
2653.87	2.38151
2655.22	2.06546
2656.58	2.02293
2657.93	2.55754
2659.29	2.97708
2660.64	3.4973
2661.99	3.65381
2663.35	3.58869
2664.7	3.7397
2666.05	4.62134
2667.41	4.29478
2668.76	4.6969
2670.11	4.74084
2671.46	4.88577
2672.81	5.15146
2674.16	5.0014
2675.51	4.87693
2676.87	4.08663
2678.22	4.06622
2679.57	4.02199
2680.92	3.68415
2682.27	3.23628
2683.62	2.5132
2684.97	2.12341
2686.31	2.26615
2687.66	2.10601
2689.01	2.10455
2690.36	2.27886
2691.71	2.17769
2693.06	2.21389
2694.4	2.5465
2695.75	2.22032
2697.1	2.7778
2698.45	3.04376
2699.79	3.55897
2701.14	2.93002
2702.49	2.58188
2703.83	2.87684
2705.18	3.88488
2706.52	4.60492
2707.87	4.69316
2709.21	4.88286
2710.56	5.52227
2711.9	6.20011
2713.25	6.41492
2714.59	6.84812
2715.94	7.5623
2717.28	7.80965
2718.62	7.99934
2719.97	7.71067
2721.31	8.65744
2722.65	9.19443
2723.99	9.99399
2725.34	11.2858
2726.68	11.1731
2728.02	10.9741
2729.36	11.4049
2730.7	11.9351
2732.04	12.5057
2733.39	12.9297
2734.73	12.8114
2736.07	12.7724
2737.41	12.4706
2738.75	12.8487
2740.08	12.8017
2741.43	12.5442
2742.76	12.6741
2744.1	12.2862
2745.44	12.2048
2746.78	12.5962
2748.12	11.9399
2749.46	11.7535
2750.79	11.0932
2752.13	10.9729
2753.47	11.2445
2754.81	10.2322
2756.14	9.67491
2757.48	9.39512
2758.81	8.90507
2760.15	8.60582
2761.49	8.31856
2762.82	7.86265
2764.16	7.55371
2765.49	7.07396
2766.83	6.62545
2768.16	6.59109
2769.5	6.32934
2770.83	6.77193
2772.16	6.7491
2773.5	6.11301
2774.83	6.09304
2776.17	6.15777
2777.5	5.60667
2778.83	4.77245
2780.16	4.316
2781.5	3.98123
2782.83	4.14453
2784.16	4.21286
2785.49	4.07426
2786.82	3.90977
2788.15	4.12109
2789.49	3.29415
2790.82	3.20033
2792.15	3.3716
2793.48	2.48858
2794.81	2.80723
2796.14	3.89362
2797.46	3.70289
2798.79	3.41549
2800.12	2.76592
2801.45	2.27461
2802.78	1.94473
2804.11	1.69349
2805.44	1.63799
2806.76	1.39062
2808.09	1.68095
2809.42	1.4101
2810.75	0.954126
2812.07	0.750578
2813.4	1.03335
2814.73	1.12765
2816.05	1.62502
2817.38	1.93301
2818.7	3.05558
2820.03	4.48939
2821.36	5.70298
2822.68	7.98498
2824.01	9.66879
2825.33	12.2273
2826.65	14.7869
2827.98	17.7542
2829.3	21.1343
2830.63	24.6755
2831.95	27.9651
2833.27	31.833
2834.6	35.5207
2835.92	39.1886
2837.24	43.7881
2838.56	48.1253
2839.88	53.1978
2841.21	58.4249
2842.53	64.1303
2843.85	69.8449
2845.17	76.416
2846.49	83.076
2847.81	90.1904
2849.13	97.2778
2850.45	104.385
2851.77	111.165
2853.09	118.166
2854.41	125.225
2855.73	132.304
2857.05	139.77
2858.37	146.979
2859.69	153.218
2861	159.961
2862.32	165.765
2863.64	171.086
2864.96	176.734
2866.28	181.755
2867.59	186.966
2868.91	191.445
2870.23	195.93
2871.54	199.6
2872.86	203.842
2874.17	207.087
2875.49	210.24
2876.81	213.073
2878.12	215.908
2879.44	219.111
2880.75	221.69
2882.07	224.419
2883.38	226.855
2884.69	229.559
2886.01	232.128
2887.32	233.967
2888.63	236.408
2889.95	238.456
2891.26	241.545
2892.57	244.843
2893.89	247.975
2895.2	251.158
2896.51	254.944
2897.82	258.597
2899.13	261.903
2900.44	266.581
2901.76	271.339
2903.07	276.829
2904.38	282.835
2905.69	290.05
2907	296.841
2908.31	305.501
2909.62	312.644
2910.93	320.226
2912.24	328.41
2913.55	335.879
2914.85	343.458
2916.16	351.219
2917.47	357.735
2918.78	364.604
2920.09	371.209
2921.4	376.813
2922.7	381.115
2924.01	384.716
2925.32	387.704
2926.62	390.854
2927.93	391.844
2929.24	393.395
2930.54	394.103
2931.85	393.66
2933.15	392.203
2934.46	390.246
2935.76	387.984
2937.07	384.915
2938.37	381.938
2939.68	377.16
2940.98	372.359
2942.29	366.879
2943.59	360.908
2944.89	354.704
2946.2	347.836
2947.5	341.318
2948.8	333.619
2950.11	326.297
2951.41	318.372
2952.71	310.543
2954.01	303.407
2955.32	295.602
2956.62	288.383
2957.92	281.262
2959.22	273.55
2960.52	266.497
2961.82	260.224
2963.12	253.071
2964.42	246.225
2965.72	240.096
2967.02	233.617
2968.32	228.429
2969.62	223.616
2970.92	218.94
2972.22	213.372
2973.51	209.065
2974.81	203.913
2976.11	199.113
2977.41	194.808
2978.71	188.859
2980	183.657
2981.3	178.169
2982.6	172.77
2983.9	166.907
2985.19	160.336
2986.49	153.726
2987.78	147.558
2989.08	141.557
2990.38	135.907
2991.67	129.288
2992.97	122.398
2994.26	117.394
2995.56	111.508
2996.85	105.712
2998.14	99.9483
2999.44	95.0763
3000.73	90.0369
3002.03	85.0309
3003.32	79.7627
3004.61	74.5036
3005.91	69.88
3007.2	66.0587
3008.49	61.6252
3009.78	57.9975
3011.07	54.4642
3012.37	51.4033
3013.66	47.9221
3014.95	45.3762
3016.24	42.4008
3017.53	40.1568
3018.82	37.7318
3020.11	35.873
3021.4	34.1083
3022.69	32.6332
3023.98	31.3097
3025.27	30.5022
3026.56	29.705
3027.85	28.4121
3029.14	27.5654
3030.43	27.4635
3031.71	27.9697
3033	28.3039
3034.29	28.9986
3035.58	29.6932
3036.87	30.164
3038.15	31.8289
3039.44	33.0279
3040.73	33.2651
3042.01	34.0111
3043.3	34.9959
3044.59	35.5888
3045.87	36.6756
3047.16	37.2548
3048.44	37.4728
3049.73	38.1238
3051.01	38.6979
3052.3	38.565
3053.58	38.6411
3054.87	38.8037
3056.15	38.3494
3057.43	38.7004
3058.72	38.9995
3060	38.3578
3061.29	37.6905
3062.57	36.6416
3063.85	35.7582
3065.13	34.2463
3066.42	32.8877
3067.7	31.5143
3068.98	30.4953
3070.26	29.5305
3071.54	28.3445
3072.82	26.6168
3074.11	25.3082
3075.39	23.8421
3076.67	22.145
3077.95	20.5284
3079.23	18.1361
3080.51	15.9806
3081.79	13.7714
3083.07	11.529
3084.35	10.1664
3085.63	8.32659
3086.9	7.04946
3088.18	5.84088
3089.46	5.09551
3090.74	3.91227
3092.02	3.14302
3093.29	2.42602
3094.57	2.54104
3095.85	1.9586
3097.13	1.51908
3098.4	1.47648
3099.68	1.58205
3100.95	1.53073
3102.23	1.6304
3103.51	1.48768
3104.78	1.31384
3106.06	1.35268
3107.33	1.78009
3108.61	1.03656
3109.88	1.23475
3111.16	1.21521
3112.43	1.72995
3113.71	1.73721
3114.98	1.75026
3116.25	1.68965
3117.53	2.30742
3118.8	2.33046
3120.07	2.43434
3121.35	2.73688
3122.62	2.71081
3123.89	2.53775
3125.16	2.57344
3126.44	2.78175
3127.71	2.92853
3128.98	2.7583
3130.25	3.24289
3131.52	3.61681
3132.79	3.89346
3134.06	3.72018
3135.33	3.85903
3136.6	3.84889
3137.87	3.60862
3139.14	3.43897
3140.41	3.09644
3141.68	3.03198
3142.95	2.98444
3144.22	3.51609
3145.49	4.3003
3146.76	5.16722
3148.02	5.34518
3149.29	6.06891
