#Acq. time (s)=	45
#Accumulations=	2
#Range (cm-¹)=	200...3150
#Windows=	2
#Auto scanning=	Off
#Autofocus=	Off
#Macrospot=	Off
#AutoExposure=	Off
#Spike filter=	Multiple accum.
#Delay time (s)=	0
#Binning=	1
#Readout mode=	Signal
#DeNoise=	Off
#ICS correction=	On
#Dark correction=	Off
#Inst. Process=	Off
#Detector Gain=	Best Dynamic Range
#Detector ADC=	20 kHz       
#Detector temperature (°C)=	-69.85
#Instrument=	LabRAM HR Evol
#Detector=	Synapse
#Objective=	x100
#Grating=	600 gr/mm
#ND Filter=	100%
#Laser (nm)=	532 
#Hole=	100.021
#Range=	Auto
#Laser Pol.=	No
#Raman. Pol.=	No
#Laser Pol. (°)=	-0.0007625
#Raman Pol. (°)=	89.9995
#Collection=	Microscope
#StageXY=	Marzhauser
#StageZ=	Marzhauser
#X (µm)=	8986.5
#Y (µm)=	-3066.7
#Z (µm)=	-55.15
#Full time(mm:ss)=	3:18
#Project=	
#Sample=	
#Site=	
#Title=	Thy_00_07_28_2x_45s_532 nm_x100_100%_600 gr_mm
#Remark=	
#Date=	28.06.2022 12:10
#Acquired=	28.06.2022 12:10:34
#Base:Fit=	10.08.2022 10:07:56
#Base:Sub=	10.08.2022 10:08:40
#Filter:Polynom=	16.08.2022 10:26:06
#AxisType[0]=Intens
#AxisUnit[0]=Cnt
#AxisType[1]=Spectr
#AxisUnit[1]=1/cm
200.407	47.8247
202.221	48.7238
204.035	47.272
205.849	46.2868
207.665	45.3144
209.478	44.6323
211.291	43.7233
213.104	42.6111
214.916	40.5624
216.73	39.8577
218.541	38.5013
220.352	36.9734
222.163	35.2229
223.973	33.7432
225.785	32.2992
227.595	31.4237
229.404	30.6616
231.213	29.401
233.022	28.6117
234.83	27.5933
236.638	26.8167
238.448	25.6044
240.255	24.904
242.062	23.912
243.868	23.5015
245.675	21.6274
247.48	19.8302
249.286	17.7491
251.091	15.1214
252.896	15.1135
254.702	13.8871
256.506	12.8018
258.31	12.398
260.113	12.0075
261.916	11.0089
263.719	10.7319
265.521	9.7198
267.323	9.02225
269.125	8.14696
270.926	9.05362
272.727	10.1678
274.527	9.14696
276.328	8.99374
278.127	8.99928
279.927	9.40366
281.726	9.44635
283.525	9.81616
285.323	10.2372
287.121	10.8764
288.919	10.6584
290.716	11.1058
292.513	11.8877
294.31	13.7328
296.104	14.2399
297.9	14.3092
299.696	12.9713
301.491	12.8183
303.286	13.6501
305.081	14.2682
306.875	14.9311
308.669	14.6373
310.463	15.49
312.256	15.7191
314.047	16.6401
315.839	17.534
317.631	18.5549
319.423	18.8285
321.215	18.2555
323.006	18.4031
324.794	19.3411
326.585	19.1677
328.375	19.5086
330.165	20.0412
331.954	19.4027
333.741	18.7876
335.53	17.2873
337.318	17.8386
339.106	15.9173
340.894	15.521
342.679	15.3282
344.466	13.925
346.253	13.6815
348.039	13.2317
349.823	13.1247
351.608	12.2558
353.393	11.6445
355.176	12.2529
356.961	12.0598
358.745	11.3128
360.529	11.4781
362.31	10.0561
364.093	8.87673
365.876	8.79052
367.657	9.5313
369.439	8.67996
371.221	7.79083
373	7.18173
374.781	6.40136
376.56	7.11446
378.34	5.69484
380.12	6.4079
381.898	6.1139
383.677	5.08037
385.456	3.613
387.233	3.70179
389.011	3.20946
390.787	4.09004
392.565	5.04895
394.34	3.55923
396.117	2.87115
397.894	3.22561
399.668	4.46003
401.444	4.1074
403.217	5.02609
404.993	4.93135
406.766	5.14885
408.54	4.92248
410.312	4.90284
412.086	5.43419
413.858	6.65585
415.631	5.90738
417.402	6.03272
419.174	5.52762
420.944	5.7065
422.716	5.20418
424.486	5.19443
426.257	4.84613
428.025	2.99259
429.794	3.09896
431.564	2.17572
433.332	1.53359
435.101	2.01464
436.868	1.92131
438.637	1.88141
440.403	2.17724
442.169	2.32972
443.937	4.30496
445.703	4.81821
447.468	6.47913
449.234	8.68422
450.999	10.6638
452.765	13.0068
454.528	15.1606
456.292	16.7368
458.057	18.2011
459.819	20.4326
461.582	22.5077
463.344	24.8905
465.107	27.7575
466.868	27.527
468.629	29.2708
470.392	30.2466
472.152	31.776
473.912	33.1928
475.672	34.5307
477.433	34.7942
479.192	36.8617
480.951	37.8454
482.709	38.2322
484.469	40.2275
486.226	42.0596
487.984	43.2341
489.74	43.453
491.499	43.8653
493.255	43.9785
495.011	44.605
496.767	45.0219
498.522	44.5889
500.277	43.8056
502.033	43.0625
503.788	42.4171
505.541	40.381
507.295	39.5294
509.048	38.0736
510.801	35.5092
512.553	33.3331
514.308	30.9845
516.06	28.831
517.811	27.209
519.562	25.8658
521.313	24.5841
523.063	23.6302
524.814	21.5028
526.563	20.5571
528.313	20.1712
530.062	19.8025
531.811	19.8824
533.559	18.353
535.308	18.4572
537.055	17.4708
538.803	16.7597
540.55	16.2741
542.297	15.8777
544.043	14.2267
545.789	13.9727
547.535	12.944
549.281	11.3486
551.026	10.8362
552.771	10.1876
554.515	9.41149
556.259	9.37604
558.003	9.27837
559.747	8.39788
561.49	8.14332
563.233	8.53314
564.975	9.92684
566.717	10.6387
568.459	11.276
570.2	11.7283
571.942	12.6383
573.68	13.1176
575.421	13.1423
577.161	13.4765
578.901	13.1917
580.64	13.4388
582.379	13.1666
584.118	12.9618
585.855	12.0925
587.593	11.7589
589.331	11.9855
591.068	12.2728
592.805	11.4465
594.54	11.22
596.277	10.3837
598.013	10.3888
599.749	10.0964
601.484	10.0197
603.217	9.58896
604.952	9.38699
606.687	8.17149
608.421	8.04476
610.153	7.39599
611.886	7.32362
613.619	7.78649
615.35	7.08006
617.083	6.90885
618.815	7.15432
620.547	6.03163
622.276	5.98404
624.008	5.38439
625.738	5.42192
627.467	5.64061
629.197	5.40667
630.927	4.40526
632.655	4.21016
634.384	4.88851
636.113	4.41031
637.839	5.19773
639.568	5.77465
641.293	6.28281
643.021	6.13492
644.748	7.19142
646.473	7.05814
648.2	8.41797
649.924	9.47245
651.65	10.2478
653.376	10.4533
655.099	11.5268
656.824	11.402
658.546	11.6928
660.271	11.3771
661.993	11.3326
663.716	10.6873
665.438	10.5099
667.161	11.0091
668.881	10.6807
670.604	11.5971
672.324	13.1419
674.045	14.4079
675.765	15.5925
677.486	15.8214
679.204	16.0536
680.925	16.9186
682.643	19.0822
684.361	20.9151
686.08	22.0973
687.797	22.0857
689.516	23.0095
691.232	23.8557
692.95	24.0139
694.666	26.3387
696.382	26.8519
698.099	26.7631
699.813	26.3732
701.528	26.7355
703.244	27.9342
704.958	27.9263
706.673	28.2385
708.387	28.9499
710.099	29.7136
711.814	30.2983
713.526	31.6692
715.238	31.6683
716.949	31.7299
718.663	32.4942
720.374	34.0207
722.084	35.2516
723.796	36.8472
725.506	38.7539
727.216	40.1545
728.925	40.9235
730.636	42.0374
732.345	42.4087
734.053	43.9142
735.761	44.1792
737.471	43.7172
739.178	44.5746
740.885	45.6186
742.592	45.3331
744.298	46.7643
746.006	47.9532
747.712	49.1258
749.417	50.0057
751.122	51.4334
752.827	53.4129
754.532	54.9414
756.236	58.4754
757.942	60.7815
759.645	62.1378
761.348	63.3755
763.051	64.7177
764.753	66.7287
766.456	69.8612
768.158	71.0575
769.859	72.0303
771.56	72.3039
773.261	73.1028
774.964	75.0075
776.664	75.5329
778.364	76.1017
780.064	77.293
781.763	77.3808
783.462	76.9272
785.16	78.4547
786.859	79.0136
788.557	79.8138
790.255	80.2106
791.952	80.9984
793.649	80.2802
795.346	80.6601
797.042	81.2013
798.738	81.9317
800.434	81.3679
802.127	81.9116
803.823	83.0701
805.517	83.2467
807.212	83.531
808.906	83.1483
810.6	83.9697
812.293	84.1375
813.987	84.4618
815.68	84.4273
817.372	84.8322
819.064	85.1607
820.754	86.0315
822.446	86.9828
824.137	88.5119
825.828	90.1008
827.519	91.134
829.209	93.4159
830.897	94.5857
832.587	96.1742
834.276	97.2691
835.966	99.0153
837.654	100.481
839.341	101.222
841.029	102.014
842.717	102.064
844.404	102.182
846.091	101.935
847.776	101.484
849.463	101.208
851.149	100.657
852.833	99.7028
854.519	98.2807
856.204	97.9847
857.889	96.788
859.572	94.357
861.256	93.1122
862.94	91.8934
864.622	90.1915
866.305	87.815
867.988	85.5556
869.669	84.2555
871.351	81.5993
873.033	80.2701
874.713	77.6049
876.395	74.1851
878.074	71.1284
879.755	68.5329
881.435	65.4297
883.114	62.7916
884.794	60.1939
886.471	58.6124
888.15	56.5809
889.829	54.5149
891.506	53.4547
893.184	53.8266
894.861	54.3149
896.538	53.6259
898.214	52.9796
899.891	53.4259
901.566	54.3245
903.242	55.107
904.916	56.4188
906.592	57.8147
908.266	59.4282
909.941	61.9344
911.614	64.0204
913.288	65.6218
914.961	67.3044
916.635	68.9094
918.306	68.636
919.979	70.2219
921.651	71.136
923.321	71.3654
924.994	71.8689
926.664	72.5854
928.336	72.8993
930.005	72.8447
931.674	72.5125
933.345	72.5787
935.014	72.5752
936.682	72.6778
938.352	72.0242
940.019	72.4483
941.687	70.7257
943.356	69.423
945.022	69.0638
946.689	66.9924
948.357	65.3265
950.022	63.7328
951.688	63.0013
953.355	61.6412
955.02	59.4627
956.684	56.9128
958.348	52.9496
960.014	49.52
961.678	47.2959
963.341	45.8342
965.004	44.9284
966.669	45.235
968.331	45.3678
969.993	45.3927
971.655	45.9506
973.316	46.895
974.979	47.1497
976.64	48.6091
978.3	48.2173
979.961	48.1941
981.62	49.8663
983.28	51.5829
984.941	51.5978
986.6	52.2942
988.259	53.0434
989.917	53.4449
991.575	53.3483
993.233	54.2727
994.89	54.1742
996.547	54.0681
998.204	54.6983
999.86	54.0949
1001.52	54.5835
1003.17	55.6316
1004.83	54.7775
1006.49	54.7274
1008.14	56.0062
1009.79	56.381
1011.45	56.2077
1013.1	55.6903
1014.76	55.8463
1016.41	56.2911
1018.06	55.5319
1019.72	54.5245
1021.37	54.0544
1023.02	53.3188
1024.67	52.3
1026.32	51.7556
1027.97	51.1555
1029.62	49.8805
1031.27	49.4839
1032.92	49.2493
1034.57	48.9757
1036.22	47.3768
1037.87	45.9116
1039.52	44.2502
1041.17	43.9926
1042.82	44.145
1044.47	45.1873
1046.11	46.2759
1047.76	47.6656
1049.41	49.7269
1051.06	50.8424
1052.7	51.4842
1054.35	52.4847
1055.99	52.5389
1057.64	52.8654
1059.28	53.9841
1060.93	53.7617
1062.57	54.671
1064.22	55.2722
1065.86	54.6393
1067.5	54.5714
1069.15	54.5022
1070.79	55.0195
1072.43	55.2385
1074.08	55.7905
1075.72	56.5694
1077.36	56.9043
1079	58.0348
1080.64	58.3221
1082.28	58.1924
1083.92	59.3604
1085.56	59.1346
1087.2	59.7829
1088.84	61.1486
1090.48	60.9106
1092.12	60.9655
1093.76	61.6949
1095.39	61.3992
1097.03	62.1163
1098.67	62.8426
1100.31	62.8581
1101.94	63.8525
1103.58	65.7562
1105.22	66.3001
1106.85	66.3574
1108.49	66.1161
1110.12	66.1533
1111.76	66.7057
1113.39	66.9598
1115.03	65.9153
1116.66	64.7581
1118.29	63.8957
1119.93	63.7545
1121.56	63.0977
1123.19	63.5013
1124.82	62.2365
1126.46	61.6337
1128.09	60.8743
1129.72	60.6436
1131.35	59.1474
1132.98	56.926
1134.61	55.5902
1136.24	53.8358
1137.87	53.1575
1139.5	52.1003
1141.13	51.384
1142.76	49.5978
1144.39	47.8793
1146.01	46.1989
1147.64	45.6436
1149.27	44.42
1150.9	42.406
1152.53	41.1384
1154.15	38.3588
1155.78	35.9985
1157.4	33.9344
1159.03	32.1689
1160.65	29.6491
1162.28	26.5507
1163.9	23.8841
1165.53	22.1721
1167.15	19.9873
1168.78	18.8652
1170.4	17.4777
1172.02	16.59
1173.65	16.1086
1175.27	15.5791
1176.89	14.4659
1178.51	14.6758
1180.14	14.4381
1181.76	13.8115
1183.38	12.8966
1185	13.4166
1186.62	12.33
1188.24	11.9315
1189.86	11.8022
1191.48	12.6684
1193.1	12.8421
1194.71	12.8906
1196.33	13.8309
1197.95	14.8151
1199.57	15.7229
1201.19	16.8325
1202.8	17.4735
1204.42	18.6233
1206.04	19.8279
1207.65	21.4093
1209.27	22.6857
1210.88	25.1114
1212.5	27.6625
1214.12	30.9268
1215.73	33.91
1217.35	36.4929
1218.96	39.8195
1220.57	42.7744
1222.19	45.6404
1223.8	48.1222
1225.41	50.523
1227.03	53.5551
1228.64	56.2572
1230.25	56.82
1231.86	57.6797
1233.47	58.6751
1235.08	59.129
1236.69	60.7766
1238.31	61.9509
1239.92	62.8498
1241.52	63.0575
1243.13	63.2655
1244.74	63.7843
1246.35	65.1376
1247.96	65.6741
1249.57	66.1238
1251.18	65.3059
1252.78	64.5994
1254.39	63.889
1256	63.306
1257.6	61.8018
1259.21	61.5636
1260.82	61.0336
1262.42	61.0724
1264.03	60.3195
1265.63	60.3014
1267.24	58.492
1268.84	58.1343
1270.45	58.3293
1272.05	58.5157
1273.65	58.5058
1275.26	58.7492
1276.86	59.709
1278.46	59.5199
1280.06	59.7909
1281.67	60.6366
1283.27	61.2255
1284.87	62.1904
1286.47	63.1157
1288.07	63.288
1289.67	64.3756
1291.27	66.7903
1292.87	68.8411
1294.47	70.4038
1296.07	72.4792
1297.67	74.6951
1299.27	77.2076
1300.87	79.711
1302.47	81.5278
1304.06	84.009
1305.66	86.1197
1307.26	88.7475
1308.85	91.8388
1310.45	93.7031
1312.05	96.1306
1313.64	98.261
1315.24	101.51
1316.83	104.862
1318.43	107.062
1320.02	108.352
1321.62	109.442
1323.21	110.239
1324.8	111.607
1326.4	112.769
1327.99	112.552
1329.59	111.892
1331.18	111.47
1332.77	112.106
1334.36	112.523
1335.95	112.179
1337.54	112.45
1339.14	112.741
1340.73	111.788
1342.32	110.637
1343.91	108.894
1345.5	105.431
1347.09	104.337
1348.67	102.837
1350.26	100.646
1351.85	98.6896
1353.44	97.3689
1355.03	95.1496
1356.62	92.8578
1358.2	89.9673
1359.79	88.3372
1361.38	87.2613
1362.96	85.498
1364.55	83.1737
1366.14	82.0158
1367.72	80.5983
1369.31	79.6405
1370.89	78.2823
1372.48	77.0608
1374.06	76.4014
1375.64	75.8075
1377.23	74.4791
1378.81	73.7149
1380.39	73.0842
1381.98	73.3303
1383.56	73.2823
1385.14	73.545
1386.72	73.2854
1388.3	73.4011
1389.89	72.5773
1391.47	72.2556
1393.05	71.8142
1394.63	71.7873
1396.21	70.687
1397.79	69.1514
1399.37	67.2569
1400.95	66.7145
1402.52	65.8092
1404.1	65.6587
1405.68	64.3518
1407.26	63.0324
1408.84	62.7706
1410.42	63.2885
1411.99	64.1257
1413.57	64.4527
1415.15	65.3377
1416.72	66.1821
1418.3	67.0065
1419.87	68.9109
1421.45	69.8361
1423.02	71.2939
1424.6	73.2281
1426.17	77.3439
1427.75	79.5404
1429.32	83.1198
1430.89	87.2704
1432.47	91.4057
1434.04	94.5146
1435.61	97.2165
1437.18	100.322
1438.76	103.484
1440.33	106.314
1441.9	108.473
1443.47	110.936
1445.04	112.36
1446.61	112.899
1448.18	113.157
1449.75	114.483
1451.32	115.367
1452.89	116.143
1454.46	114.698
1456.03	112.56
1457.6	111.807
1459.16	110.453
1460.73	109.2
1462.3	106.43
1463.87	102.919
1465.43	99.3922
1467	94.6145
1468.56	90.2424
1470.13	85.5149
1471.7	81.0339
1473.26	77.1832
1474.83	71.9945
1476.39	67.2056
1477.96	61.938
1479.52	58.1694
1481.08	54.0405
1482.65	49.0957
1484.21	43.4781
1485.77	39.5271
1487.34	35.8609
1488.9	32.4677
1490.46	29.1817
1492.02	26.4987
1493.58	24.0992
1495.15	22.1365
1496.71	20.6341
1498.27	19.8391
1499.83	17.0838
1501.39	15.9416
1502.95	15.8648
1504.51	14.6288
1506.07	13.9595
1507.63	13.9178
1509.18	12.8771
1510.74	12.5857
1512.3	11.2301
1513.86	10.9748
1515.41	11.8345
1516.97	11.9667
1518.53	13.111
1520.08	14.0369
1521.64	14.291
1523.2	14.0131
1524.75	15.5969
1526.31	17.3957
1527.86	18.7241
1529.42	19.8253
1530.97	21.0402
1532.52	21.6393
1534.08	23.3714
1535.63	25.6548
1537.19	26.9283
1538.74	28.1319
1540.29	28.7485
1541.84	29.103
1543.4	30.1093
1544.95	30.4384
1546.5	32.4017
1548.05	34.138
1549.6	35.8762
1551.15	37.4579
1552.7	39.3467
1554.25	41.714
1555.8	43.8056
1557.35	46.9103
1558.9	47.7584
1560.45	47.9062
1562	49.3407
1563.54	51.3259
1565.09	52.4246
1566.64	54.3621
1568.19	56.1668
1569.73	57.1967
1571.28	58.2083
1572.83	59.2756
1574.37	60.8527
1575.92	62.3829
1577.47	62.4821
1579.01	63.364
1580.56	65.0897
1582.1	65.6972
1583.64	67.5885
1585.19	68.592
1586.73	69.0344
1588.28	69.8882
1589.82	70.6767
1591.36	72.1092
1592.9	73.2735
1594.45	73.9315
1595.99	75.7981
1597.53	75.8815
1599.07	75.1395
1600.61	75.1051
1602.15	75.5957
1603.69	75.7128
1605.23	75.4246
1606.77	76.0328
1608.31	74.5666
1609.85	74.8062
1611.39	74.459
1612.93	73.9126
1614.47	73.3178
1616.01	72.5205
1617.55	71.6437
1619.08	70.9801
1620.62	70.2472
1622.16	71.0728
1623.7	72.2287
1625.23	73.0663
1626.77	74.6858
1628.3	75.3745
1629.84	76.5073
1631.37	75.9035
1632.91	77.1349
1634.44	77.5722
1635.98	77.3821
1637.51	77.8741
1639.05	78.8217
1640.58	79.7529
1642.11	80.491
1643.65	82.0697
1645.18	82.8591
1646.71	83.9261
1648.24	85.1271
1649.78	86.4893
1651.31	87.8724
1652.84	88.1177
1654.37	88.1632
1655.9	89.0247
1657.43	89.9357
1658.96	89.6536
1660.49	89.6009
1662.02	88.6146
1663.55	87.9254
1665.08	86.9343
1666.61	85.9231
1668.14	84.2047
1669.66	82.5049
1671.19	80.2513
1672.72	77.4995
1674.25	74.7747
1675.77	72.6869
1677.3	70.5333
1678.83	69.1736
1680.35	67.4844
1681.88	65.3104
1683.4	62.8848
1684.93	60.3949
1686.45	58.1333
1687.98	54.9808
1689.5	52.587
1691.03	49.8828
1692.55	47.6226
1694.07	45.5167
1695.6	43.5118
1697.12	41.3972
1698.64	40.2056
1700.17	37.3656
1701.69	35.1888
1703.21	33.7112
1704.73	30.9701
1706.25	29.6183
1707.77	28.2207
1709.29	28.2418
1710.81	27.0143
1712.33	26.1785
1713.85	25.5248
1715.37	24.6994
1716.89	24.9637
1718.41	23.7376
1719.93	23.6464
1721.45	23.4824
1722.97	23.2903
1724.49	22.8973
1726	22.6605
1727.52	21.8103
1729.04	21.1698
1730.55	20.6409
1732.07	19.9123
1733.59	18.9693
1735.1	18.0921
1736.62	17.3922
1738.13	16.5881
1739.65	15.9006
1741.16	14.7313
1742.68	13.7651
1744.19	12.3825
1745.7	11.6022
1747.22	10.8937
1748.73	10.1379
1750.24	10.4062
1751.76	9.87136
1753.27	9.51762
1754.78	9.37648
1756.29	8.26066
1757.8	7.39596
1759.31	6.92441
1760.83	5.98421
1762.34	5.48064
1763.85	5.71022
1765.36	5.10787
1766.87	4.4057
1768.38	4.26652
1769.89	3.82369
1771.39	3.01759
1772.9	2.64867
1774.41	2.18035
1775.92	1.42441
1777.43	1.6907
1778.94	1.38524
1780.44	1.32889
1781.95	1.13555
1783.46	0.957939
1784.96	1.44839
1786.47	1.20159
1787.97	1.17219
1789.48	1.39363
1790.99	1.26449
1792.49	1.50741
1794	1.17059
1795.5	2.07715
1797	2.16752
1798.51	2.21857
1800.01	2.38241
1801.51	1.86175
1803.02	1.90999
1804.52	2.38313
1806.02	2.70103
1807.53	2.34977
1809.03	2.71004
1810.53	2.50862
1812.03	2.73079
1813.53	2.66898
1815.03	2.718
1816.53	2.66686
1818.03	2.97068
1819.53	2.5071
1821.03	3.48109
1822.53	3.94846
1824.03	4.23587
1825.53	4.61928
1827.03	4.90886
1828.53	5.0438
1830.02	4.92659
1831.52	5.39366
1833.02	6.26632
1834.52	6.647
1836.01	6.74474
1837.51	6.94199
1839.01	6.52696
1840.5	6.38275
1842	7.11927
1843.49	7.40187
1844.99	7.50404
1846.48	7.41159
1847.98	7.8507
1849.47	8.08971
1850.97	7.70622
1852.46	8.33394
1853.95	8.38039
1855.45	8.55618
1856.94	8.10932
1858.43	8.4864
1859.93	8.35077
1861.42	7.94166
1862.91	7.95847
1864.4	7.96161
1865.89	8.18899
1867.38	8.70485
1868.87	9.21075
1870.36	8.81435
1871.85	8.99132
1873.34	8.9766
1874.83	8.28569
1876.32	8.34018
1877.81	8.70388
1879.3	8.42608
1880.79	8.47697
1882.28	7.82124
1882.52	8.23538
1884.02	7.94404
1885.51	8.55663
1887.01	8.39369
1888.5	7.78246
1889.99	7.63465
1891.49	7.22602
1892.98	6.74409
1894.47	6.65074
1895.97	5.98727
1897.46	5.56419
1898.95	5.57227
1900.44	5.61212
1901.93	5.28567
1903.42	5.2371
1904.91	5.15252
1906.4	5.61072
1907.89	5.00471
1909.38	4.59024
1910.87	4.16849
1912.36	3.96613
1913.85	3.86463
1915.34	4.02623
1916.83	3.88107
1918.32	4.24116
1919.8	4.31847
1921.29	4.39992
1922.78	4.36616
1924.27	3.71505
1925.75	4.02097
1927.24	3.48712
1928.73	3.51889
1930.21	3.23426
1931.7	3.58691
1933.18	2.92283
1934.67	2.97266
1936.15	3.27322
1937.64	3.44153
1939.12	4.44369
1940.61	4.20565
1942.09	4.34341
1943.57	3.83961
1945.06	4.54122
1946.54	4.74081
1948.02	5.07524
1949.51	5.90656
1950.99	6.2934
1952.47	6.69333
1953.95	7.43468
1955.43	7.41462
1956.91	7.53427
1958.4	7.24578
1959.88	7.28003
1961.36	6.46516
1962.84	6.08533
1964.32	6.83904
1965.8	6.85267
1967.27	6.67735
1968.75	6.71803
1970.23	6.61027
1971.71	6.70952
1973.19	6.87871
1974.67	6.9711
1976.14	6.41999
1977.62	6.63935
1979.1	7.00222
1980.58	7.13591
1982.05	6.79735
1983.53	7.02443
1985	7.35038
1986.48	7.30409
1987.95	7.64893
1989.43	8.07868
1990.9	8.11869
1992.38	7.91838
1993.85	8.33199
1995.33	8.2864
1996.8	7.98925
1998.27	8.10701
1999.75	8.1145
2001.22	7.81176
2002.69	7.68232
2004.16	6.59083
2005.64	5.99967
2007.11	5.87853
2008.58	6.22724
2010.05	6.47311
2011.52	6.70244
2012.99	7.37552
2014.46	6.38028
2015.93	6.10752
2017.4	5.28734
2018.87	5.22345
2020.34	4.89201
2021.81	5.15899
2023.28	4.88257
2024.75	4.81847
2026.22	4.06137
2027.69	3.38115
2029.15	3.18552
2030.62	2.8071
2032.09	2.61719
2033.56	2.45933
2035.02	2.75745
2036.49	3.11249
2037.96	3.23218
2039.42	2.75088
2040.89	2.48311
2042.35	2.12725
2043.82	1.53371
2045.28	1.62368
2046.75	1.55841
2048.21	2.32531
2049.67	2.39492
2051.14	3.13277
2052.6	3.73028
2054.07	3.80799
2055.53	4.49039
2056.99	4.59677
2058.45	4.90565
2059.92	4.83146
2061.38	4.92506
2062.84	4.70793
2064.3	5.09969
2065.76	5.34118
2067.22	6.45145
2068.68	5.99645
2070.14	5.97463
2071.6	6.03578
2073.06	5.11624
2074.52	4.83138
2075.98	4.48186
2077.44	4.77673
2078.9	5.3301
2080.36	5.77497
2081.82	5.18817
2083.27	5.09878
2084.73	5.55005
2086.19	5.17908
2087.65	4.1623
2089.1	3.50896
2090.56	3.69407
2092.02	3.91175
2093.47	4.15
2094.93	4.5967
2096.38	3.94382
2097.84	4.49275
2099.29	4.77479
2100.75	4.97526
2102.2	5.70084
2103.66	4.98055
2105.11	4.77103
2106.56	5.2794
2108.02	5.33602
2109.47	5.55254
2110.92	4.93402
2112.38	4.64984
2113.83	4.70577
2115.28	4.82034
2116.73	5.23148
2118.18	5.63651
2119.63	5.37107
2121.09	5.77245
2122.54	5.64022
2123.99	5.84874
2125.44	6.04678
2126.89	5.15599
2128.34	5.0549
2129.79	4.62196
2131.23	4.24963
2132.68	3.84448
2134.13	3.20074
2135.58	3.49843
2137.03	3.17713
2138.48	3.1208
2139.92	2.93922
2141.37	2.08734
2142.82	1.5915
2144.27	1.64376
2145.71	0.961167
2147.16	1.12851
2148.6	1.32451
2150.05	1.14094
2151.49	0.20716
2152.94	0.201172
2154.38	0.288271
2155.83	1.17628
2157.27	0.948978
2158.72	0.869397
2160.16	0.682912
2161.6	1.01643
2163.05	2.13703
2164.49	2.85716
2165.93	3.27613
2167.38	3.54723
2168.82	3.85772
2170.26	4.39606
2171.7	4.5478
2173.14	4.58528
2174.58	5.49288
2176.03	4.88052
2177.47	5.43697
2178.91	5.48551
2180.35	5.11923
2181.79	5.80555
2183.23	5.5726
2184.67	5.82639
2186.1	6.35031
2187.54	6.29234
2188.98	6.35497
2190.42	6.64002
2191.86	6.40237
2193.3	6.8067
2194.73	7.23516
2196.17	7.22281
2197.61	7.33864
2199.05	7.10309
2200.48	7.52372
2201.92	7.21306
2203.35	7.33553
2204.79	7.85392
2206.22	8.41514
2207.66	9.08032
2209.1	8.29871
2210.53	8.86167
2211.97	8.91759
2213.4	9.02526
2214.83	9.29602
2216.27	9.25994
2217.7	8.98849
2219.13	9.90488
2220.57	10.2281
2222	9.66795
2223.43	9.99386
2224.86	10.4833
2226.29	10.2188
2227.72	10.3691
2229.16	10.2069
2230.59	10.3965
2232.02	10.1028
2233.45	10.3614
2234.88	10.1486
2236.31	10.3053
2237.74	10.2029
2239.17	10.4569
2240.6	10.9016
2242.03	10.8497
2243.45	10.5809
2244.88	10.3316
2246.31	9.42759
2247.74	8.95932
2249.17	9.11097
2250.59	9.41883
2252.02	9.45897
2253.45	9.48434
2254.87	9.41136
2256.3	9.12762
2257.73	9.16179
2259.15	8.95228
2260.58	8.90755
2262	8.95249
2263.43	8.93233
2264.85	9.24639
2266.28	9.70058
2267.7	9.6954
2269.13	9.70215
2270.55	10.1737
2271.97	10.1694
2273.4	10.5041
2274.82	10.9648
2276.24	11.0946
2277.67	10.931
2279.09	10.3883
2280.51	9.90068
2281.93	10.6308
2283.35	11.3748
2284.77	11.1929
2286.2	11.8432
2287.62	11.7472
2289.04	11.8948
2290.46	11.7149
2291.88	10.4331
2293.3	9.2724
2294.72	9.31326
2296.13	9.59352
2297.55	9.87487
2298.97	10.4494
2300.39	10.6836
2301.81	10.5412
2303.23	10.835
2304.64	10.4514
2306.06	10.6951
2307.48	11.6155
2308.89	11.761
2310.31	11.9563
2311.73	11.5165
2313.14	10.7461
2314.56	10.2235
2315.98	10.223
2317.39	9.74963
2318.81	10.0988
2320.22	10.3282
2321.64	10.0755
2323.05	9.46305
2324.46	9.56276
2325.88	8.60439
2327.29	8.09559
2328.7	7.57758
2330.12	7.05684
2331.53	6.57375
2332.94	6.8816
2334.35	6.686
2335.77	5.87163
2337.18	5.37455
2338.59	4.93644
2340	5.14277
2341.41	5.3483
2342.82	4.67171
2344.23	4.8118
2345.64	3.89704
2347.05	3.33569
2348.46	3.74775
2349.87	3.50794
2351.28	3.33032
2352.69	3.30111
2354.1	3.22932
2355.51	2.75589
2356.91	3.12309
2358.32	1.9612
2359.73	1.49758
2361.14	1.46509
2362.54	1.5328
2363.95	2.19559
2365.36	2.60042
2366.76	2.72655
2368.17	2.67769
2369.58	2.50207
2370.98	1.96881
2372.39	1.56796
2373.79	1.11817
2375.2	0.990016
2376.6	1.70957
2378	1.7434
2379.41	1.49246
2380.81	1.26147
2382.22	0.905942
2383.62	0.861563
2385.02	1.12946
2386.43	1.47641
2387.83	1.40365
2389.23	1.34238
2390.63	1.9244
2392.03	2.07745
2393.44	2.44094
2394.84	2.37885
2396.24	1.48022
2397.64	1.93265
2399.04	1.73097
2400.44	1.93616
2401.84	2.15614
2403.24	2.7921
2404.64	2.59484
2406.04	2.95383
2407.44	3.69367
2408.84	4.27348
2410.23	4.62179
2411.63	4.74127
2413.03	4.99942
2414.43	5.90419
2415.83	5.91947
2417.22	6.74789
2418.62	7.55122
2420.02	7.18917
2421.41	7.42022
2422.81	8.14637
2424.21	9.08109
2425.6	9.37672
2427	10.0213
2428.39	9.45903
2429.79	9.77781
2431.18	10.1863
2432.58	10.1913
2433.97	9.77458
2435.36	9.11204
2436.76	8.88373
2438.15	8.65516
2439.54	8.69644
2440.94	8.40735
2442.33	8.65015
2443.72	8.6067
2445.12	8.93946
2446.51	8.37855
2447.9	8.25572
2449.29	8.03469
2450.68	7.85403
2452.07	7.53056
2453.46	7.08502
2454.85	6.89367
2456.24	6.73962
2457.64	6.19297
2459.02	6.29737
2460.41	6.14147
2461.8	5.76478
2463.19	4.97295
2464.58	4.8457
2465.97	3.81403
2467.36	3.40528
2468.75	2.85203
2470.13	3.0237
2471.52	3.01334
2472.91	3.29174
2474.3	2.65751
2475.68	2.27532
2477.07	2.60308
2478.45	2.85451
2479.84	3.26465
2481.23	3.2103
2482.61	3.35949
2484	3.18685
2485.38	2.82402
2486.77	2.77845
2488.15	2.55971
2489.54	2.69445
2490.92	3.21485
2492.3	2.79866
2493.69	2.66139
2495.07	2.33456
2496.45	2.65144
2497.84	2.33045
2499.22	2.63986
2500.6	2.70063
2501.98	2.5614
2503.36	2.21094
2504.75	2.17981
2506.13	2.37259
2507.51	2.50567
2508.89	2.95423
2510.27	3.2205
2511.65	2.85409
2513.03	2.73717
2514.41	2.63711
2515.79	2.33099
2517.17	2.163
2518.55	1.4805
2519.93	1.24113
2521.3	0.902978
2522.68	1.15421
2524.06	1.39627
2525.44	1.29683
2526.82	1.50153
2528.19	1.81562
2529.57	1.49314
2530.95	1.43783
2532.32	1.57822
2533.7	1.89676
2535.08	1.34496
2536.45	2.06635
2537.83	2.26526
2539.2	2.50188
2540.58	2.21896
2541.95	2.18487
2543.33	2.43196
2544.7	2.85381
2546.08	3.46351
2547.45	3.07906
2548.82	3.20889
2550.2	2.75064
2551.57	2.67806
2552.94	2.19936
2554.32	2.66252
2555.69	2.43381
2557.06	2.26478
2558.43	2.48823
2559.8	2.23216
2561.18	2.09875
2562.55	2.37419
2563.92	2.46454
2565.29	2.87389
2566.66	2.89018
2568.03	3.36347
2569.4	3.38832
2570.77	3.66591
2572.14	3.46367
2573.51	3.59323
2574.88	3.39768
2576.25	3.67
2577.61	3.65157
2578.98	3.77794
2580.35	3.25521
2581.72	3.33957
2583.09	3.13586
2584.45	3.21641
2585.82	2.90127
2587.19	2.91748
2588.55	3.00244
2589.92	2.9246
2591.29	3.14985
2592.65	2.33145
2594.02	1.91617
2595.38	2.21917
2596.75	1.55687
2598.11	1.24398
2599.48	1.08209
2600.84	1.13555
2602.21	1.17857
2603.57	0.835986
2604.93	1.23003
2606.3	0.895114
2607.66	1.22245
2609.02	1.72607
2610.39	1.99106
2611.75	2.22967
2613.11	1.88033
2614.47	2.0015
2615.83	1.82189
2617.19	1.88138
2618.56	1.40663
2619.92	1.43666
2621.28	1.63855
2622.64	1.75339
2624	1.63114
2625.36	1.94028
2626.72	2.392
2628.08	2.38141
2629.44	2.82211
2630.8	2.60356
2632.15	3.51799
2633.51	4.44496
2634.87	4.89974
2636.23	5.07955
2637.59	4.54188
2638.94	4.13235
2640.3	4.38964
2641.66	4.36021
2643.02	4.4433
2644.37	5.03756
2645.73	4.99676
2647.09	5.08809
2648.44	4.83466
2649.8	4.67967
2651.15	4.64424
2652.51	4.39577
2653.86	3.72494
2655.22	3.23334
2656.57	2.53329
2657.93	2.61657
2659.28	2.6702
2660.63	2.44613
2661.99	2.93809
2663.34	3.30578
2664.69	2.70852
2666.05	2.25876
2667.4	2.00091
2668.75	1.7343
2670.1	2.19454
2671.45	2.28801
2672.81	2.40619
2674.16	2.20462
2675.51	1.92288
2676.86	1.87851
2678.21	1.89618
2679.56	1.99676
2680.91	2.03546
2682.26	1.80761
2683.61	1.84617
2684.96	2.19478
2686.31	2.06179
2687.66	2.44151
2689	2.6495
2690.35	2.81169
2691.7	3.11152
2693.05	4.0677
2694.4	4.32532
2695.74	5.33576
2697.09	5.85942
2698.44	6.39096
2699.79	7.06043
2701.13	7.32489
2702.48	7.27366
2703.83	7.61658
2705.17	8.14317
2706.52	9.11819
2707.86	10.5987
2709.21	10.8525
2710.55	11.9095
2711.9	12.9296
2713.24	13.5409
2714.58	14.1001
2715.93	14.6676
2717.27	15.4026
2718.62	16.4296
2719.96	16.8411
2721.3	17.514
2722.65	18.1936
2723.99	18.8376
2725.33	19.84
2726.67	19.7993
2728.01	19.7155
2729.35	19.7675
2730.7	18.986
2732.04	18.4847
2733.38	17.9806
2734.72	17.9361
2736.06	17.0326
2737.4	17.4387
2738.74	17.0365
2740.08	16.3224
2741.42	15.8979
2742.76	15.5119
2744.1	15.7116
2745.43	15.316
2746.77	14.508
2748.11	14.0427
2749.45	13.2764
2750.79	12.9335
2752.12	12.3618
2753.46	11.6679
2754.8	10.9611
2756.14	10.115
2757.47	9.78412
2758.81	9.18126
2760.14	9.09277
2761.48	8.40445
2762.81	7.76473
2764.15	6.11618
2765.49	6.03641
2766.82	5.69732
2768.16	5.88868
2769.49	5.73657
2770.82	5.43956
2772.16	5.2977
2773.49	5.00047
2774.82	4.93532
2776.16	4.43118
2777.49	4.25028
2778.82	4.34246
2780.16	3.92897
2781.49	3.69717
2782.82	3.51244
2784.15	3.67008
2785.48	3.44126
2786.82	2.09176
2788.15	2.13179
2789.48	2.10413
2790.81	1.84574
2792.14	1.94201
2793.47	1.04277
2794.8	0.541888
2796.13	0.483122
2797.46	-0.0781592
2798.79	0.00888994
2800.12	-0.378523
2801.44	-0.529254
2802.77	-0.737893
2804.1	0.0161071
2805.43	-0.544456
2806.76	-0.679992
2808.08	-0.141636
2809.41	-0.00603319
2810.74	-0.0926772
2812.07	-0.0732348
2813.39	-0.077597
2814.72	0.550426
2816.05	1.25412
2817.37	1.87838
2818.7	3.02383
2820.02	4.30254
2821.35	5.49872
2822.67	7.58987
2824	9.8222
2825.32	11.9113
2826.65	14.3246
2827.97	17.1237
2829.3	20.1285
2830.62	24.0116
2831.94	28.4384
2833.26	32.3682
2834.59	36.2785
2835.91	40.4332
2837.23	43.8374
2838.56	48.4047
2839.88	52.4629
2841.2	57.2496
2842.52	62.411
2843.84	67.6669
2845.16	73.911
2846.48	79.6153
2847.8	86.6167
2849.12	94.036
2850.45	101.22
2851.77	108.903
2853.08	116.504
2854.4	124.774
2855.72	132.726
2857.04	140.233
2858.36	147.839
2859.68	154.979
2861	163.951
2862.32	172.003
2863.63	179.356
2864.95	187.218
2866.27	193.984
2867.59	201.753
2868.9	209.515
2870.22	217.653
2871.54	224.782
2872.85	232.573
2874.17	240.034
2875.48	246.841
2876.8	253.841
2878.11	260.533
2879.43	267.258
2880.74	273.845
2882.06	280.526
2883.37	286.505
2884.69	293.357
2886	299.4
2887.31	305.147
2888.63	311.337
2889.94	317.717
2891.25	323.218
2892.57	328.293
2893.88	334.782
2895.19	340.438
2896.5	345.439
2897.82	351.486
2899.13	356.368
2900.44	361.628
2901.75	366.832
2903.06	371.129
2904.37	377.017
2905.68	382.449
2906.99	388.437
2908.3	394.476
2909.61	401.196
2910.92	408.229
2912.23	414.461
2913.54	421.844
2914.85	427.842
2916.16	432.978
2917.46	439.166
2918.77	443.416
2920.08	447.123
2921.39	450.849
2922.7	454.16
2924	456.939
2925.31	459.242
2926.62	461.429
2927.92	461.232
2929.23	461.286
2930.54	460.954
2931.84	459.431
2933.15	458.441
2934.45	456.132
2935.76	453.257
2937.06	449.166
2938.37	444.551
2939.67	439.371
2940.98	433.665
2942.28	427.5
2943.58	420.229
2944.89	413.679
2946.19	406.326
2947.49	398.659
2948.8	390.513
2950.1	382.059
2951.4	373.558
2952.7	365.271
2954.01	357.04
2955.31	348.254
2956.61	339.305
2957.91	330.955
2959.21	323.594
2960.51	315.157
2961.81	306.294
2963.11	298.527
2964.41	289.469
2965.71	281.686
2967.01	273.785
2968.31	265.478
2969.61	257.985
2970.91	250.808
2972.21	244.409
2973.51	237.714
2974.81	231.536
2976.1	224.186
2977.4	217.739
2978.7	211.433
2980	203.991
2981.29	196.795
2982.59	190.115
2983.89	181.626
2985.18	174.656
2986.48	167.51
2987.78	160.676
2989.07	153.128
2990.37	146.21
2991.66	139.02
2992.96	131.204
2994.25	123.984
2995.55	116.952
2996.84	110.017
2998.14	103.476
2999.43	96.8521
3000.73	90.0909
3002.02	83.5392
3003.31	77.4185
3004.61	71.6689
3005.9	65.4168
3007.19	59.8144
3008.48	54.7117
3009.77	50.2515
3011.07	45.3369
3012.36	40.7007
3013.65	36.3817
3014.94	32.6686
3016.23	29.0289
3017.52	25.8057
3018.81	23.099
3020.1	19.8834
3021.4	17.3182
3022.68	14.2223
3023.97	12.2027
3025.26	9.62163
3026.55	7.36348
3027.84	5.99619
3029.13	4.37679
3030.42	3.16581
3031.71	2.28834
3033	1.15349
3034.28	1.07105
3035.57	1.18424
3036.86	1.4935
3038.15	1.55799
3039.43	1.8385
3040.72	2.02858
3042.01	2.89798
3043.29	3.05254
3044.58	3.39701
3045.87	3.98059
3047.15	5.36011
3048.44	5.81448
3049.72	6.97652
3051.01	7.7962
3052.29	8.85646
3053.58	9.26066
3054.86	9.98004
3056.15	10.1411
3057.43	10.336
3058.71	10.8451
3060	11.4774
3061.28	11.6216
3062.56	11.6849
3063.84	11.5548
3065.13	11.8548
3066.41	11.5993
3067.69	10.9891
3068.97	10.7205
3070.26	10.6159
3071.54	10.6787
3072.82	10.4951
3074.1	9.50863
3075.38	8.88328
3076.66	8.08225
3077.94	7.17106
3079.22	6.2008
3080.5	5.28797
3081.78	5.01141
3083.06	4.14225
3084.34	2.69651
3085.62	1.89562
3086.9	1.144
3088.18	1.08164
3089.45	0.240316
3090.73	-0.244969
3092.01	-0.901202
3093.29	-1.5093
3094.56	-1.62084
3095.84	-1.50821
3097.12	-1.45166
3098.4	-1.20601
3099.67	-0.947821
3100.95	-0.250869
3102.22	-0.142974
3103.5	-0.0464431
3104.78	0.0249085
3106.05	0.727597
3107.33	1.86812
3108.6	2.76831
3109.88	3.67088
3111.15	4.41921
3112.43	4.78551
3113.7	5.43183
3114.97	6.16017
3116.25	6.24364
3117.52	6.44803
3118.79	7.04256
3120.07	7.6983
3121.34	8.40035
3122.61	9.22158
3123.88	10.0856
3125.16	10.7217
3126.43	11.6472
3127.7	12.3502
3128.97	13.0441
3130.24	13.3759
3131.51	14.5937
3132.79	16.08
3134.06	16.8529
3135.33	17.6722
3136.6	18.5107
3137.87	18.9833
3139.14	19.7745
3140.41	20.3496
3141.67	20.9921
3142.94	21.6658
3144.21	22.2129
3145.48	22.672
3146.75	23.3457
3148.02	24.3597
3149.29	25.1747
