#Acq. time (s)=	45
#Accumulations=	2
#Range (cm-¹)=	200...3150
#Windows=	2
#Auto scanning=	Off
#Autofocus=	Off
#Macrospot=	Off
#AutoExposure=	Off
#Spike filter=	Multiple accum.
#Delay time (s)=	0
#Binning=	1
#Readout mode=	Signal
#DeNoise=	Off
#ICS correction=	On
#Dark correction=	Off
#Inst. Process=	Off
#Detector Gain=	Best Dynamic Range
#Detector ADC=	20 kHz       
#Detector temperature (°C)=	-69.85
#Instrument=	LabRAM HR Evol
#Detector=	Synapse
#Objective=	x100
#Grating=	600 gr/mm
#ND Filter=	100%
#Laser (nm)=	532 
#Hole=	100.021
#Range=	Auto
#Laser Pol.=	No
#Raman. Pol.=	No
#Laser Pol. (°)=	-0.0007625
#Raman Pol. (°)=	89.9995
#Collection=	Microscope
#StageXY=	Marzhauser
#StageZ=	Marzhauser
#X (µm)=	8996.9
#Y (µm)=	-3064.3
#Z (µm)=	-54.65
#Full time(mm:ss)=	3:19
#Project=	
#Sample=	
#Site=	
#Title=	Thy_00_07_22_2x_45s_532 nm_x100_100%_600 gr_mm
#Remark=	
#Date=	28.06.2022 11:45
#Acquired=	28.06.2022 11:45:52
#Base:Fit=	10.08.2022 10:07:56
#Base:Sub=	10.08.2022 10:08:40
#Filter:Polynom=	16.08.2022 10:26:06
#AxisType[0]=Intens
#AxisUnit[0]=Cnt
#AxisType[1]=Spectr
#AxisUnit[1]=1/cm
200.407	7.16332
202.221	7.57394
204.035	6.67728
205.849	5.66025
207.665	5.22743
209.478	5.25876
211.291	4.4708
213.104	3.71613
214.916	2.79084
216.73	1.82318
218.541	0.796571
220.352	-0.238514
222.163	0.224878
223.973	0.0427286
225.785	0.0914247
227.595	0.721432
229.404	0.952788
231.213	0.0870092
233.022	-0.685088
234.83	0.0300093
236.638	0.920507
238.448	2.34931
240.255	3.03434
242.062	4.03636
243.868	4.64492
245.675	5.12586
247.48	4.97011
249.286	6.14103
251.091	6.53792
252.896	7.29559
254.702	6.30423
256.506	7.18504
258.31	7.33306
260.113	8.06525
261.916	7.66079
263.719	8.56807
265.521	9.00914
267.323	8.88625
269.125	9.4
270.926	9.95731
272.727	10.5125
274.527	9.97225
276.328	9.31658
278.127	10.2281
279.927	10.1723
281.726	10.2537
283.525	10.2659
285.323	10.1987
287.121	10.0771
288.919	10.6478
290.716	10.9249
292.513	10.6649
294.31	10.3521
296.104	9.95525
297.9	9.20016
299.696	8.19943
301.491	8.2399
303.286	8.26028
305.081	8.08557
306.875	8.73742
308.669	9.45295
310.463	9.58686
312.256	10.7243
314.047	11.0464
315.839	11.5865
317.631	11.6526
319.423	12.043
321.215	12.0585
323.006	12.4238
324.794	13.6334
326.585	15.604
328.375	16.9022
330.165	17.482
331.954	18.0186
333.741	18.0592
335.53	18.0197
337.318	16.9476
339.106	17.9527
340.894	17.4506
342.679	17.8512
344.466	17.1669
346.253	17.0241
348.039	16.2868
349.823	15.7107
351.608	15.5226
353.393	16.2352
355.176	15.5074
356.961	15.2719
358.745	14.7473
360.529	14.3318
362.31	14.0977
364.093	13.2284
365.876	12.7584
367.657	13.7114
369.439	13.2225
371.221	12.4189
373	12.3701
374.781	12.2419
376.56	11.3074
378.34	12.0615
380.12	12.2524
381.898	12.2982
383.677	11.771
385.456	12.9157
387.233	13.2732
389.011	13.6368
390.787	13.4962
392.565	13.6291
394.34	13.4979
396.117	13.5258
397.894	13.1535
399.668	13.0935
401.444	13.9992
403.217	13.8593
404.993	13.6536
406.766	13.7514
408.54	14.9813
410.312	14.8975
412.086	15.0652
413.858	16.3158
415.631	18.4417
417.402	18.5414
419.174	18.3741
420.944	17.8498
422.716	17.6488
424.486	17.2576
426.257	16.5486
428.025	17.2682
429.794	16.3217
431.564	15.204
433.332	13.3671
435.101	12.7027
436.868	12.541
438.637	12.6495
440.403	13.3963
442.169	13.8623
443.937	14.0664
445.703	15.237
447.468	15.6684
449.234	16.8486
450.999	17.0298
452.765	16.752
454.528	16.8679
456.292	18.3333
458.057	18.4892
459.819	18.4017
461.582	19.3666
463.344	18.8351
465.107	19.1155
466.868	20.5766
468.629	21.7783
470.392	22.7706
472.152	22.5938
473.912	22.957
475.672	22.795
477.433	23.2399
479.192	24.0642
480.951	25.5826
482.709	24.7358
484.469	25.654
486.226	26.7641
487.984	28.0931
489.74	29.1934
491.499	29.3945
493.255	29.9697
495.011	30.6499
496.767	30.5245
498.522	29.9319
500.277	30.1923
502.033	30.6402
503.788	31.1661
505.541	30.3058
507.295	29.6797
509.048	29.3852
510.801	29.1929
512.553	27.6988
514.308	26.9047
516.06	26.6927
517.811	25.4733
519.562	25.3564
521.313	25.2277
523.063	25.4755
524.814	25.2354
526.563	26.3479
528.313	26.0461
530.062	25.4754
531.811	24.3286
533.559	23.6557
535.308	22.5114
537.055	21.2794
538.803	20.0404
540.55	19.3134
542.297	19.3878
544.043	19.3554
545.789	18.9175
547.535	18.1727
549.281	17.0043
551.026	16.1235
552.771	16.7297
554.515	16.7429
556.259	16.0411
558.003	14.6555
559.747	13.7827
561.49	13.5296
563.233	12.8157
564.975	12.0016
566.717	12.2469
568.459	11.4237
570.2	10.5268
571.942	10.2635
573.68	10.0692
575.421	10.1095
577.161	9.34095
578.901	8.34483
580.64	8.27782
582.379	7.83746
584.118	8.01104
585.855	8.13574
587.593	7.95392
589.331	7.57814
591.068	8.39312
592.805	7.88565
594.54	8.31234
596.277	8.26138
598.013	8.1624
599.749	8.51202
601.484	8.95742
603.217	9.18854
604.952	9.52932
606.687	10.258
608.421	10.7428
610.153	11.3647
611.886	12.2694
613.619	13.4481
615.35	12.9602
617.083	13.0449
618.815	14.038
620.547	15.2611
622.276	16.5223
624.008	17.0513
625.738	17.3479
627.467	18.2021
629.197	18.7889
630.927	18.1996
632.655	18.3347
634.384	18.4616
636.113	17.6762
637.839	18.0359
639.568	17.5803
641.293	17.0115
643.021	16.7221
644.748	17.2649
646.473	18.3568
648.2	18.4231
649.924	17.6088
651.65	17.416
653.376	17.0797
655.099	15.5441
656.824	16.3414
658.546	17.2201
660.271	17.7516
661.993	18.7376
663.716	18.3839
665.438	18.1871
667.161	17.8303
668.881	17.4052
670.604	17.9782
672.324	17.0334
674.045	17.1186
675.765	18.3745
677.486	19.3177
679.204	19.6464
680.925	21.3522
682.643	22.0571
684.361	22.7504
686.08	24.0318
687.797	24.682
689.516	26.8443
691.232	28.4781
692.95	30.071
694.666	30.8439
696.382	31.5864
698.099	31.8136
699.813	32.6648
701.528	32.7374
703.244	32.673
704.958	33.1946
706.673	32.897
708.387	33.0472
710.099	32.8952
711.814	33.2274
713.526	34.6479
715.238	34.9565
716.949	35.5046
718.663	36.4601
720.374	36.9205
722.084	36.3345
723.796	36.5915
725.506	37.315
727.216	39.0753
728.925	40.3717
730.636	40.8513
732.345	42.4094
734.053	42.6445
735.761	42.2608
737.471	43.663
739.178	45.0227
740.885	46.3597
742.592	48.7753
744.298	50.5795
746.006	52.1664
747.712	52.8043
749.417	53.4501
751.122	55.0776
752.827	56.6222
754.532	57.7132
756.236	60.0088
757.942	61.7345
759.645	64.1711
761.348	66.0674
763.051	67.7534
764.753	69.0225
766.456	70.0494
768.158	71.5064
769.859	72.7266
771.56	75.1228
773.261	76.673
774.964	77.6518
776.664	77.8447
778.364	76.3161
780.064	74.4771
781.763	74.7369
783.462	76.0831
785.16	76.819
786.859	76.9736
788.557	76.9248
790.255	77.864
791.952	78.4555
793.649	80.0052
795.346	80.8962
797.042	80.9358
798.738	81.0756
800.434	81.0846
802.127	80.5798
803.823	80.1561
805.517	78.922
807.212	79.443
808.906	80.2057
810.6	80.9178
812.293	81.5011
813.987	81.1772
815.68	80.6712
817.372	81.4324
819.064	80.9665
820.754	79.9273
822.446	80.3553
824.137	79.7834
825.828	79.2114
827.519	80.0787
829.209	80.9373
830.897	80.7422
832.587	79.5276
834.276	79.5583
835.966	79.0008
837.654	77.735
839.341	76.7937
841.029	76.9711
842.717	76.0289
844.404	75.0129
846.091	73.0701
847.776	72.2687
849.463	70.6699
851.149	70.5268
852.833	69.451
854.519	67.7875
856.204	66.9069
857.889	64.331
859.572	62.6067
861.256	61.4365
862.94	59.7546
864.622	58.9868
866.305	59.5042
867.988	59.2102
869.669	57.6728
871.351	57.0582
873.033	56.6127
874.713	55.4104
876.395	54.1371
878.074	52.142
879.755	51.2049
881.435	50.0833
883.114	50.9949
884.794	49.8865
886.471	48.5609
888.15	47.6909
889.829	46.8656
891.506	47.5077
893.184	47.428
894.861	46.3696
896.538	45.5368
898.214	45.5503
899.891	45.7581
901.566	46.2697
903.242	47.0414
904.916	47.068
906.592	48.4411
908.266	48.8298
909.941	50.2033
911.614	50.4088
913.288	50.459
914.961	50.456
916.635	49.9099
918.306	50.6544
919.979	50.2868
921.651	49.8971
923.321	49.9344
924.994	49.7563
926.664	49.5168
928.336	48.9326
930.005	48.5276
931.674	48.4937
933.345	47.5936
935.014	47.1931
936.682	45.5075
938.352	44.9199
940.019	44.3959
941.687	43.541
943.356	42.8603
945.022	41.5152
946.689	39.7052
948.357	39.0884
950.022	38.8187
951.688	38.7787
953.355	38.7971
955.02	38.3585
956.684	37.5024
958.348	36.2338
960.014	36.0868
961.678	35.5024
963.341	37.1748
965.004	37.3125
966.669	36.133
968.331	34.0213
969.993	33.9977
971.655	33.7478
973.316	33.8128
974.979	34.3332
976.64	35.0878
978.3	35.8899
979.961	36.2878
981.62	36.9139
983.28	37.5164
984.941	37.8348
986.6	38.1344
988.259	37.5779
989.917	37.7302
991.575	37.6213
993.233	37.7069
994.89	36.3527
996.547	36.8449
998.204	36.5975
999.86	36.5557
1001.52	36.756
1003.17	35.0786
1004.83	34.6884
1006.49	34.9973
1008.14	34.379
1009.79	34.7409
1011.45	33.1417
1013.1	32.476
1014.76	31.777
1016.41	31.9324
1018.06	32.2303
1019.72	31.7569
1021.37	31.3966
1023.02	31.3566
1024.67	31.466
1026.32	30.3384
1027.97	30.0918
1029.62	29.9042
1031.27	29.9275
1032.92	30.0062
1034.57	29.9736
1036.22	29.0141
1037.87	27.5954
1039.52	26.1531
1041.17	26.4607
1042.82	26.0629
1044.47	26.1702
1046.11	26.6155
1047.76	26.4673
1049.41	26.7101
1051.06	27.4833
1052.7	28.0984
1054.35	28.6374
1055.99	29.0641
1057.64	29.1574
1059.28	29.1312
1060.93	28.4247
1062.57	27.6967
1064.22	27.8569
1065.86	28.4685
1067.5	28.202
1069.15	28.074
1070.79	27.6487
1072.43	28.8937
1074.08	29.6258
1075.72	30.0728
1077.36	30.3435
1079	31.5578
1080.64	31.775
1082.28	32.2047
1083.92	32.1523
1085.56	32.5457
1087.2	33.5285
1088.84	34.3366
1090.48	34.0365
1092.12	35.4704
1093.76	35.8158
1095.39	37.7454
1097.03	39.3937
1098.67	40.2971
1100.31	40.9827
1101.94	40.7144
1103.58	41.2527
1105.22	42.1459
1106.85	42.1231
1108.49	40.976
1110.12	40.9399
1111.76	40.8572
1113.39	40.229
1115.03	39.6746
1116.66	37.5114
1118.29	37.3366
1119.93	37.3165
1121.56	37.8839
1123.19	38.7542
1124.82	38.5907
1126.46	38.3523
1128.09	37.6723
1129.72	37.2489
1131.35	36.2653
1132.98	35.2657
1134.61	34.6609
1136.24	33.463
1137.87	33.0539
1139.5	32.1884
1141.13	31.2081
1142.76	30.0128
1144.39	29.3882
1146.01	28.6046
1147.64	27.8841
1149.27	26.508
1150.9	25.9403
1152.53	24.785
1154.15	24.2835
1155.78	22.1605
1157.4	20.2126
1159.03	19.0973
1160.65	17.9969
1162.28	15.7924
1163.9	13.9275
1165.53	12.5561
1167.15	12.2605
1168.78	10.9818
1170.4	10.449
1172.02	10.2313
1173.65	10.1608
1175.27	10.303
1176.89	9.71188
1178.51	9.73291
1180.14	9.55535
1181.76	9.10298
1183.38	8.43093
1185	8.35835
1186.62	7.78972
1188.24	7.38212
1189.86	7.06472
1191.48	8.04456
1193.1	8.48982
1194.71	8.42625
1196.33	8.65438
1197.95	9.68384
1199.57	10.2879
1201.19	10.6087
1202.8	11.242
1204.42	12.4756
1206.04	12.337
1207.65	12.985
1209.27	14.4146
1210.88	15.9841
1212.5	18.0101
1214.12	19.7681
1215.73	21.4024
1217.35	23.3968
1218.96	25.1853
1220.57	25.5032
1222.19	26.8997
1223.8	28.0734
1225.41	29.2077
1227.03	30.8681
1228.64	32.0736
1230.25	33.2747
1231.86	34.0512
1233.47	34.3192
1235.08	34.923
1236.69	35.6789
1238.31	36.5148
1239.92	37.2137
1241.52	37.9591
1243.13	37.9243
1244.74	38.4222
1246.35	39.5686
1247.96	41.3854
1249.57	42.386
1251.18	44.1629
1252.78	44.5926
1254.39	44.8322
1256	45.9088
1257.6	45.3224
1259.21	46.4809
1260.82	46.7471
1262.42	46.6092
1264.03	46.4194
1265.63	46.6803
1267.24	47.0834
1268.84	47.3195
1270.45	47.7734
1272.05	48.3453
1273.65	48.2474
1275.26	48.3516
1276.86	48.112
1278.46	48.5563
1280.06	48.0428
1281.67	49.0148
1283.27	49.5906
1284.87	51.1492
1286.47	50.9512
1288.07	52.2354
1289.67	52.4118
1291.27	53.1837
1292.87	54.0186
1294.47	54.5985
1296.07	55.2319
1297.67	56.1058
1299.27	55.3646
1300.87	56.939
1302.47	57.7664
1304.06	58.0664
1305.66	58.9081
1307.26	60.0579
1308.85	61.4671
1310.45	62.4976
1312.05	62.872
1313.64	63.9313
1315.24	65.1488
1316.83	65.8298
1318.43	66.1343
1320.02	67.6343
1321.62	68.5715
1323.21	69.1893
1324.8	70.0258
1326.4	71.0247
1327.99	71.6511
1329.59	71.8179
1331.18	71.246
1332.77	70.8878
1334.36	71.1608
1335.95	71.6829
1337.54	71.7085
1339.14	72.3662
1340.73	71.5542
1342.32	70.5514
1343.91	69.5074
1345.5	69.3403
1347.09	68.676
1348.67	68.0459
1350.26	67.8808
1351.85	66.5602
1353.44	65.4304
1355.03	64.1601
1356.62	63.0183
1358.2	63.1829
1359.79	62.9801
1361.38	61.6861
1362.96	60.4046
1364.55	59.8194
1366.14	57.8719
1367.72	57.6411
1369.31	57.7857
1370.89	57.8755
1372.48	56.2527
1374.06	55.7235
1375.64	53.8882
1377.23	52.7111
1378.81	51.8236
1380.39	51.9389
1381.98	50.5399
1383.56	49.7601
1385.14	49.1877
1386.72	48.6954
1388.3	48.6491
1389.89	47.8723
1391.47	46.5156
1393.05	46.2026
1394.63	44.7479
1396.21	43.3764
1397.79	42.94
1399.37	42.6977
1400.95	41.853
1402.52	41.9191
1404.1	41.7404
1405.68	41.4556
1407.26	41.015
1408.84	41.7232
1410.42	40.9005
1411.99	41.1396
1413.57	41.0709
1415.15	41.7681
1416.72	42.0353
1418.3	42.6536
1419.87	42.9614
1421.45	43.9797
1423.02	45.1912
1424.6	47.2116
1426.17	49.1403
1427.75	50.2295
1429.32	52.6464
1430.89	54.2505
1432.47	56.8644
1434.04	59.4988
1435.61	62.1601
1437.18	64.5039
1438.76	65.7864
1440.33	66.4711
1441.9	68.9527
1443.47	70.2132
1445.04	71.7904
1446.61	72.8971
1448.18	73.1985
1449.75	73.2688
1451.32	73.2826
1452.89	74.1916
1454.46	74.0611
1456.03	75.0671
1457.6	74.9735
1459.16	73.1762
1460.73	71.6592
1462.3	70.0146
1463.87	68.2113
1465.43	66.1666
1467	64.7064
1468.56	62.5173
1470.13	59.3989
1471.7	56.592
1473.26	53.9376
1474.83	51.9985
1476.39	49.6204
1477.96	47.8833
1479.52	45.7999
1481.08	42.938
1482.65	40.3877
1484.21	37.1712
1485.77	34.7103
1487.34	33.1026
1488.9	29.7493
1490.46	27.7243
1492.02	26.0605
1493.58	24.8796
1495.15	23.6232
1496.71	22.8341
1498.27	21.3541
1499.83	19.5204
1501.39	18.5426
1502.95	17.8776
1504.51	16.7705
1506.07	15.8481
1507.63	14.8381
1509.18	14.3285
1510.74	13.1709
1512.3	12.6288
1513.86	11.4393
1515.41	10.6864
1516.97	9.63865
1518.53	9.08447
1520.08	9.44973
1521.64	9.02228
1523.2	9.87681
1524.75	11.1048
1526.31	12.7572
1527.86	13.9579
1529.42	15.0539
1530.97	15.541
1532.52	15.4699
1534.08	15.8745
1535.63	15.7659
1537.19	16.6247
1538.74	17.0606
1540.29	18.1933
1541.84	19.6118
1543.4	21.6858
1544.95	23.899
1546.5	24.7353
1548.05	25.5364
1549.6	27.7319
1551.15	30.1557
1552.7	31.7326
1554.25	32.9882
1555.8	34.7272
1557.35	35.9239
1558.9	37.6617
1560.45	39.2789
1562	40.8719
1563.54	42.3255
1565.09	43.3985
1566.64	43.3526
1568.19	44.9477
1569.73	46.6843
1571.28	48.3006
1572.83	49.3841
1574.37	49.8983
1575.92	49.6775
1577.47	50.7446
1579.01	51.4898
1580.56	51.5277
1582.1	51.5895
1583.64	51.8059
1585.19	51.1167
1586.73	52.3868
1588.28	51.5485
1589.82	50.8956
1591.36	50.6947
1592.9	51.2674
1594.45	51.0548
1595.99	51.6289
1597.53	51.864
1599.07	51.6032
1600.61	51.3163
1602.15	51.3111
1603.69	50.2626
1605.23	48.8555
1606.77	49.0564
1608.31	48.5084
1609.85	47.0532
1611.39	47.5462
1612.93	46.8492
1614.47	46.8511
1616.01	46.7352
1617.55	47.7292
1619.08	47.7342
1620.62	47.5905
1622.16	47.28
1623.7	46.7302
1625.23	46.5523
1626.77	47.2386
1628.3	46.9103
1629.84	46.4039
1631.37	46.0226
1632.91	47.0583
1634.44	46.9135
1635.98	47.535
1637.51	47.486
1639.05	47.9896
1640.58	47.9197
1642.11	45.9479
1643.65	45.1431
1645.18	44.9629
1646.71	44.868
1648.24	46.6434
1649.78	48.286
1651.31	49.4276
1652.84	50.2412
1654.37	51.938
1655.9	52.5301
1657.43	54.1464
1658.96	55.2375
1660.49	55.6309
1662.02	55.6607
1663.55	55.51
1665.08	54.8194
1666.61	54.5583
1668.14	55.3698
1669.66	55.6275
1671.19	54.2838
1672.72	53.8125
1674.25	52.2848
1675.77	51.0262
1677.3	49.9663
1678.83	49.5616
1680.35	48.5262
1681.88	47.5614
1683.4	47.9033
1684.93	46.1228
1686.45	44.6847
1687.98	44.361
1689.5	42.5559
1691.03	40.9855
1692.55	39.151
1694.07	37.1405
1695.6	34.3799
1697.12	32.3709
1698.64	30.7611
1700.17	29.0463
1701.69	26.2639
1703.21	24.6488
1704.73	22.8318
1706.25	21.2167
1707.77	19.8567
1709.29	19.2404
1710.81	17.2332
1712.33	17.1462
1713.85	15.4288
1715.37	13.9157
1716.89	11.8885
1718.41	10.7624
1719.93	12.0005
1721.45	13.0465
1722.97	14.6828
1724.49	16.0486
1726	16.2773
1727.52	15.9897
1729.04	16.1972
1730.55	16.7452
1732.07	16.6926
1733.59	16.3064
1735.1	15.5082
1736.62	14.6898
1738.13	14.2736
1739.65	13.763
1741.16	13.7954
1742.68	13.3285
1744.19	13.4861
1745.7	13.4295
1747.22	12.4856
1748.73	12.7874
1750.24	12.279
1751.76	12.5198
1753.27	12.711
1754.78	12.5848
1756.29	12.0477
1757.8	11.7
1759.31	11.8068
1760.83	10.7538
1762.34	9.83454
1763.85	8.56907
1765.36	7.82072
1766.87	7.06302
1768.38	7.1342
1769.89	6.9887
1771.39	6.50367
1772.9	6.42039
1774.41	6.27511
1775.92	5.53354
1777.43	5.05362
1778.94	5.54864
1780.44	5.73286
1781.95	5.22627
1783.46	5.36182
1784.96	5.31092
1786.47	5.1315
1787.97	5.12234
1789.48	4.78822
1790.99	4.8248
1792.49	4.56957
1794	4.96574
1795.5	4.90116
1797	5.00962
1798.51	4.71272
1800.01	4.57738
1801.51	4.93326
1803.02	4.84515
1804.52	4.67302
1806.02	4.72713
1807.53	3.96588
1809.03	3.99983
1810.53	3.85221
1812.03	3.73561
1813.53	4.20341
1815.03	4.24407
1816.53	4.47172
1818.03	5.22241
1819.53	5.95467
1821.03	6.03812
1822.53	6.06306
1824.03	5.75387
1825.53	5.60363
1827.03	5.5259
1828.53	4.88622
1830.02	4.17554
1831.52	3.86781
1833.02	3.38472
1834.52	3.35564
1836.01	3.1009
1837.51	2.84837
1839.01	2.88925
1840.5	2.85623
1842	2.44765
1843.49	2.19657
1844.99	2.24737
1846.48	2.2637
1847.98	1.31135
1849.47	1.06078
1850.97	0.697024
1852.46	0.463087
1853.95	0.24565
1855.45	0.268902
1856.94	0.0391396
1858.43	0.639146
1859.93	0.432522
1861.42	1.13262
1862.91	1.65365
1864.4	2.15179
1865.89	2.71591
1867.38	2.80837
1868.87	2.84326
1870.36	2.96719
1871.85	2.61751
1873.34	2.33679
1874.83	2.78829
1876.32	3.19497
1877.81	3.25046
1879.3	3.66154
1880.79	4.06258
1882.28	4.3458
1882.52	4.82184
1884.02	4.69926
1885.51	5.12108
1887.01	5.70289
1888.5	6.01719
1889.99	6.10357
1891.49	6.54137
1892.98	6.49858
1894.47	7.10833
1895.97	7.02165
1897.46	6.80833
1898.95	6.58367
1900.44	6.80532
1901.93	6.49993
1903.42	6.18838
1904.91	6.29658
1906.4	6.15501
1907.89	6.54432
1909.38	6.9414
1910.87	7.10694
1912.36	6.58257
1913.85	6.81181
1915.34	6.91087
1916.83	6.7758
1918.32	7.19556
1919.8	7.30655
1921.29	7.60459
1922.78	7.86503
1924.27	7.75378
1925.75	8.04066
1927.24	8.72551
1928.73	8.93521
1930.21	8.99088
1931.7	10.0404
1933.18	9.77851
1934.67	9.62228
1936.15	9.44928
1937.64	9.7187
1939.12	9.73578
1940.61	8.49271
1942.09	8.31111
1943.57	8.59981
1945.06	8.32313
1946.54	8.41873
1948.02	8.77114
1949.51	8.58786
1950.99	9.22385
1952.47	9.19862
1953.95	8.89083
1955.43	8.18271
1956.91	7.50065
1958.4	6.96453
1959.88	6.66259
1961.36	6.34408
1962.84	5.94238
1964.32	5.3154
1965.8	5.28424
1967.27	5.30358
1968.75	4.82894
1970.23	4.15308
1971.71	3.03077
1973.19	2.81972
1974.67	2.60154
1976.14	2.02583
1977.62	2.29222
1979.1	2.76903
1980.58	3.11957
1982.05	3.56337
1983.53	2.96738
1985	3.03358
1986.48	2.7458
1987.95	3.00956
1989.43	2.6198
1990.9	2.8473
1992.38	3.765
1993.85	3.97358
1995.33	4.23646
1996.8	3.82475
1998.27	4.39658
1999.75	5.19444
2001.22	6.1847
2002.69	6.84456
2004.16	7.68791
2005.64	8.50293
2007.11	8.04369
2008.58	8.54503
2010.05	9.15708
2011.52	10.0088
2012.99	9.4656
2014.46	9.6954
2015.93	10.289
2017.4	10.6956
2018.87	11.1389
2020.34	12.578
2021.81	13.0735
2023.28	12.9798
2024.75	13.067
2026.22	12.0034
2027.69	11.8182
2029.15	11.3152
2030.62	11.4681
2032.09	11.6696
2033.56	11.6849
2035.02	11.5827
2036.49	11.4542
2037.96	11.6987
2039.42	11.8194
2040.89	12.3036
2042.35	11.4304
2043.82	11.7034
2045.28	11.4567
2046.75	12.0019
2048.21	11.4522
2049.67	11.7564
2051.14	11.7069
2052.6	10.6228
2054.07	10.1418
2055.53	9.69049
2056.99	9.15611
2058.45	9.74449
2059.92	9.33199
2061.38	8.91085
2062.84	8.62314
2064.3	9.23374
2065.76	9.11502
2067.22	8.99005
2068.68	9.573
2070.14	9.46835
2071.6	9.67416
2073.06	9.6354
2074.52	9.74603
2075.98	9.14552
2077.44	8.60098
2078.9	8.3533
2080.36	7.49504
2081.82	7.03653
2083.27	6.53766
2084.73	7.1961
2086.19	7.23936
2087.65	7.42204
2089.1	7.81493
2090.56	8.15591
2092.02	8.25217
2093.47	8.00663
2094.93	7.18513
2096.38	7.24438
2097.84	7.33672
2099.29	7.83802
2100.75	7.85387
2102.2	8.19839
2103.66	8.55753
2105.11	8.3106
2106.56	7.69253
2108.02	7.4269
2109.47	7.79597
2110.92	7.29212
2112.38	7.19354
2113.83	6.8484
2115.28	6.63466
2116.73	7.02123
2118.18	6.96603
2119.63	6.76097
2121.09	6.5432
2122.54	6.56591
2123.99	6.53865
2125.44	6.37012
2126.89	7.08657
2128.34	7.25951
2129.79	7.14535
2131.23	7.21503
2132.68	6.8861
2134.13	6.84692
2135.58	6.85454
2137.03	7.05602
2138.48	6.63311
2139.92	7.17802
2141.37	7.23258
2142.82	7.01548
2144.27	6.85908
2145.71	6.14497
2147.16	6.63367
2148.6	7.1139
2150.05	7.20168
2151.49	7.6544
2152.94	7.49218
2154.38	8.31078
2155.83	8.98444
2157.27	9.89367
2158.72	10.7434
2160.16	11.0791
2161.6	11.8612
2163.05	11.8587
2164.49	12.0575
2165.93	11.9047
2167.38	12.453
2168.82	12.7707
2170.26	12.9167
2171.7	12.7968
2173.14	12.1449
2174.58	11.7156
2176.03	11.0202
2177.47	10.4282
2178.91	10.3468
2180.35	10.5074
2181.79	10.5482
2183.23	10.4241
2184.67	10.7186
2186.1	10.7325
2187.54	10.8012
2188.98	10.3745
2190.42	10.0741
2191.86	9.84236
2193.3	9.13223
2194.73	8.64148
2196.17	9.07433
2197.61	8.5774
2199.05	7.74228
2200.48	7.76552
2201.92	7.50811
2203.35	7.8069
2204.79	7.02058
2206.22	6.69119
2207.66	5.90858
2209.1	5.98496
2210.53	5.71535
2211.97	5.76386
2213.4	5.31614
2214.83	5.09022
2216.27	4.69985
2217.7	5.07474
2219.13	5.42178
2220.57	5.08784
2222	4.60744
2223.43	5.52007
2224.86	6.0717
2226.29	6.78393
2227.72	6.32415
2229.16	6.5604
2230.59	7.1816
2232.02	6.87907
2233.45	6.66762
2234.88	6.20456
2236.31	6.46708
2237.74	5.58325
2239.17	5.76696
2240.6	6.01212
2242.03	6.0864
2243.45	6.27378
2244.88	6.01066
2246.31	6.35397
2247.74	6.86738
2249.17	7.3154
2250.59	7.78999
2252.02	8.09985
2253.45	8.59161
2254.87	9.13145
2256.3	8.62012
2257.73	8.40574
2259.15	9.22889
2260.58	10.1046
2262	10.1567
2263.43	10.3815
2264.85	10.1271
2266.28	10.4077
2267.7	10.6481
2269.13	9.81676
2270.55	9.90698
2271.97	10.0892
2273.4	10.0853
2274.82	9.87596
2276.24	9.02155
2277.67	9.50429
2279.09	8.83332
2280.51	8.44573
2281.93	7.87343
2283.35	8.02073
2284.77	7.59023
2286.2	7.80707
2287.62	7.43694
2289.04	6.52739
2290.46	5.47447
2291.88	4.94067
2293.3	4.55919
2294.72	4.74648
2296.13	3.88435
2297.55	3.46385
2298.97	3.38166
2300.39	4.01548
2301.81	3.96868
2303.23	4.88594
2304.64	4.70987
2306.06	4.70557
2307.48	4.8783
2308.89	4.22045
2310.31	5.45614
2311.73	5.39511
2313.14	5.28852
2314.56	5.66938
2315.98	5.88169
2317.39	6.31012
2318.81	6.60179
2320.22	6.80723
2321.64	7.3587
2323.05	7.68255
2324.46	7.92555
2325.88	7.5712
2327.29	7.80365
2328.7	8.52334
2330.12	9.96632
2331.53	9.90344
2332.94	9.37001
2334.35	9.44422
2335.77	9.56327
2337.18	9.20806
2338.59	8.82392
2340	8.77992
2341.41	8.91011
2342.82	8.20022
2344.23	8.71518
2345.64	7.89187
2347.05	7.63796
2348.46	7.7267
2349.87	6.97117
2351.28	6.61289
2352.69	6.51668
2354.1	6.44926
2355.51	5.83821
2356.91	5.83322
2358.32	4.42555
2359.73	3.46689
2361.14	3.2902
2362.54	3.27704
2363.95	3.42525
2365.36	3.77067
2366.76	3.76302
2368.17	4.24799
2369.58	4.20072
2370.98	4.2944
2372.39	3.77898
2373.79	3.67292
2375.2	2.19692
2376.6	2.05916
2378	2.22982
2379.41	2.39557
2380.81	2.60547
2382.22	1.9839
2383.62	2.52317
2385.02	2.85804
2386.43	3.15257
2387.83	3.01358
2389.23	3.19186
2390.63	3.56058
2392.03	3.52309
2393.44	3.49974
2394.84	3.17208
2396.24	3.76936
2397.64	4.34056
2399.04	4.52664
2400.44	4.67681
2401.84	4.70849
2403.24	4.93746
2404.64	4.99458
2406.04	5.16937
2407.44	5.06152
2408.84	5.73106
2410.23	6.62666
2411.63	7.18225
2413.03	7.37158
2414.43	8.11162
2415.83	8.1239
2417.22	8.69328
2418.62	9.11339
2420.02	8.81089
2421.41	8.66265
2422.81	9.42033
2424.21	9.2351
2425.6	9.12165
2427	9.36965
2428.39	8.90436
2429.79	8.83191
2431.18	9.01203
2432.58	9.16183
2433.97	8.91377
2435.36	8.29809
2436.76	8.19395
2438.15	7.82708
2439.54	7.76688
2440.94	7.57644
2442.33	6.85183
2443.72	6.6782
2445.12	6.39599
2446.51	6.19943
2447.9	6.13811
2449.29	5.59485
2450.68	4.79631
2452.07	4.55607
2453.46	4.35208
2454.85	4.0495
2456.24	3.82402
2457.64	3.12333
2459.02	1.83181
2460.41	1.28617
2461.8	0.447512
2463.19	0.455511
2464.58	-0.265725
2465.97	0.441039
2467.36	-0.209957
2468.75	-0.543769
2470.13	-0.9148
2471.52	-1.0684
2472.91	-1.02437
2474.3	-1.90271
2475.68	-1.83057
2477.07	-2.02192
2478.45	-2.02579
2479.84	-2.2289
2481.23	-2.51662
2482.61	-2.9442
2484	-3.09775
2485.38	-2.81253
2486.77	-2.95815
2488.15	-3.33051
2489.54	-3.74726
2490.92	-3.57491
2492.3	-3.05809
2493.69	-3.39727
2495.07	-2.72512
2496.45	-2.26302
2497.84	-2.08195
2499.22	-1.77384
2500.6	-1.33349
2501.98	-1.07056
2503.36	-1.04024
2504.75	-0.573545
2506.13	0.175381
2507.51	0.261267
2508.89	0.772936
2510.27	1.15345
2511.65	1.50845
2513.03	1.74121
2514.41	2.17722
2515.79	3.05371
2517.17	3.66407
2518.55	3.40167
2519.93	3.20322
2521.3	3.80157
2522.68	4.1296
2524.06	4.09151
2525.44	4.20616
2526.82	4.04399
2528.19	4.36383
2529.57	5.0944
2530.95	5.3979
2532.32	5.62842
2533.7	5.76369
2535.08	6.05733
2536.45	5.68879
2537.83	5.24191
2539.2	5.29997
2540.58	4.95236
2541.95	5.04027
2543.33	4.37679
2544.7	4.95311
2546.08	4.3857
2547.45	4.37274
2548.82	4.53793
2550.2	4.21305
2551.57	3.93652
2552.94	4.23453
2554.32	4.68678
2555.69	4.07711
2557.06	3.81183
2558.43	3.4382
2559.8	3.53469
2561.18	3.82537
2562.55	3.49165
2563.92	3.75196
2565.29	4.01257
2566.66	3.75201
2568.03	3.81451
2569.4	3.95796
2570.77	3.85205
2572.14	3.48206
2573.51	3.96492
2574.88	3.40396
2576.25	4.2153
2577.61	4.59127
2578.98	5.03231
2580.35	4.82113
2581.72	4.61706
2583.09	4.68334
2584.45	4.35603
2585.82	3.83538
2587.19	3.73206
2588.55	3.8696
2589.92	4.49329
2591.29	4.56883
2592.65	4.30634
2594.02	4.98811
2595.38	4.96746
2596.75	5.68429
2598.11	5.25346
2599.48	5.50896
2600.84	5.54823
2602.21	5.46924
2603.57	5.75193
2604.93	5.84711
2606.3	5.57277
2607.66	5.59545
2609.02	5.67087
2610.39	5.74201
2611.75	5.99867
2613.11	6.65216
2614.47	6.32582
2615.83	6.37818
2617.19	7.18229
2618.56	7.0571
2619.92	6.96459
2621.28	7.29223
2622.64	7.193
2624	6.37674
2625.36	5.35219
2626.72	5.427
2628.08	5.57632
2629.44	5.93471
2630.8	5.52395
2632.15	6.07908
2633.51	5.93274
2634.87	5.34721
2636.23	5.02836
2637.59	5.16713
2638.94	4.5672
2640.3	4.22966
2641.66	4.64359
2643.02	3.88216
2644.37	4.21678
2645.73	3.19972
2647.09	3.19593
2648.44	2.28858
2649.8	1.7781
2651.15	1.54494
2652.51	0.886517
2653.86	0.92761
2655.22	0.82286
2656.57	0.539192
2657.93	0.917318
2659.28	0.999616
2660.63	1.21206
2661.99	1.49737
2663.34	1.08463
2664.69	1.83242
2666.05	1.33169
2667.4	1.74846
2668.75	2.32278
2670.1	2.50095
2671.45	3.07432
2672.81	3.21668
2674.16	3.65337
2675.51	3.94992
2676.86	4.26435
2678.21	4.36292
2679.56	4.94301
2680.91	4.82405
2682.26	4.2174
2683.61	4.52816
2684.96	4.67733
2686.31	4.22837
2687.66	4.5718
2689	5.36402
2690.35	5.09025
2691.7	4.69748
2693.05	4.73233
2694.4	5.97977
2695.74	6.0314
2697.09	6.57713
2698.44	7.09397
2699.79	8.08648
2701.13	7.48918
2702.48	7.45784
2703.83	7.69328
2705.17	7.91468
2706.52	7.7231
2707.86	8.18649
2709.21	8.54983
2710.55	8.58812
2711.9	8.44111
2713.24	8.39936
2714.58	9.01003
2715.93	9.15011
2717.27	9.67026
2718.62	9.84124
2719.96	10.2453
2721.3	10.6836
2722.65	11.0448
2723.99	11.272
2725.33	11.5724
2726.67	11.8807
2728.01	12.2503
2729.35	12.1547
2730.7	12.1979
2732.04	12.0322
2733.38	11.1406
2734.72	11.6176
2736.06	11.4923
2737.4	10.7282
2738.74	10.6452
2740.08	10.498
2741.42	10.1155
2742.76	9.3874
2744.1	8.5441
2745.43	8.29
2746.77	7.86901
2748.11	7.06328
2749.45	6.68835
2750.79	6.16727
2752.12	5.6061
2753.46	6.1082
2754.8	6.20503
2756.14	5.59189
2757.47	4.9213
2758.81	4.78886
2760.14	4.75602
2761.48	4.80498
2762.81	4.69343
2764.15	4.98242
2765.49	4.77461
2766.82	4.3761
2768.16	3.66606
2769.49	3.78039
2770.82	3.32258
2772.16	3.59747
2773.49	4
2774.82	3.96522
2776.16	3.69038
2777.49	3.49032
2778.82	3.22318
2780.16	3.22714
2781.49	3.48218
2782.82	3.09429
2784.15	2.73869
2785.48	2.56023
2786.82	2.5276
2788.15	2.2382
2789.48	1.82481
2790.81	1.79053
2792.14	1.87988
2793.47	1.53143
2794.8	1.11883
2796.13	0.575498
2797.46	0.56488
2798.79	0.00603624
2800.12	0.271183
2801.44	0.860505
2802.77	0.243953
2804.1	0.247973
2805.43	0.70295
2806.76	0.68251
2808.08	0.564623
2809.41	-0.247563
2810.74	-0.428526
2812.07	0.071886
2813.39	-0.0731665
2814.72	-0.206062
2816.05	0.683833
2817.37	1.32515
2818.7	2.4089
2820.02	3.57351
2821.35	4.09875
2822.67	5.07538
2824	6.65879
2825.32	7.90294
2826.65	9.56006
2827.97	11.4412
2829.3	13.2001
2830.62	15.4218
2831.94	17.3045
2833.26	19.2244
2834.59	20.9019
2835.91	22.4229
2837.23	24.3109
2838.56	26.9094
2839.88	28.4698
2841.2	30.9735
2842.52	32.8249
2843.84	35.6033
2845.16	38.1369
2846.48	40.2492
2847.8	42.9895
2849.12	45.9603
2850.45	49.0904
2851.77	52.0579
2853.08	55.0435
2854.4	58.0415
2855.72	61.14
2857.04	65.0083
2858.36	68.517
2859.68	71.9309
2861	75.6524
2862.32	79.3942
2863.63	83.1421
2864.95	85.8854
2866.27	89.1855
2867.59	92.4888
2868.9	94.8762
2870.22	98.078
2871.54	100.464
2872.85	103.219
2874.17	105.525
2875.48	107.751
2876.8	110.881
2878.11	113.48
2879.43	116.108
2880.74	118.688
2882.06	121.317
2883.37	124.459
2884.69	126.671
2886	129.285
2887.31	131.349
2888.63	134.361
2889.94	137.011
2891.25	138.836
2892.57	140.935
2893.88	143.251
2895.19	145.142
2896.5	147.402
2897.82	148.311
2899.13	150.114
2900.44	152.499
2901.75	154.382
2903.06	157.022
2904.37	159.33
2905.68	161.956
2906.99	165.176
2908.3	168.074
2909.61	171.395
2910.92	173.208
2912.23	175.641
2913.54	178.2
2914.85	181.26
2916.16	183.431
2917.46	185.844
2918.77	188.359
2920.08	190.115
2921.39	192.204
2922.7	193.624
2924	194.145
2925.31	194.73
2926.62	195.238
2927.92	195.409
2929.23	194.68
2930.54	194.037
2931.84	194.166
2933.15	193.357
2934.45	191.387
2935.76	190.293
2937.06	188.569
2938.37	187.397
2939.67	185.062
2940.98	183.048
2942.28	180.977
2943.58	178.265
2944.89	175.69
2946.19	172.717
2947.49	170.38
2948.8	167.927
2950.1	164.371
2951.4	161.428
2952.7	158.179
2954.01	154.985
2955.31	151.193
2956.61	147.798
2957.91	144.522
2959.21	141.05
2960.51	137.87
2961.81	134.539
2963.11	131.741
2964.41	129.209
2965.71	126.423
2967.01	123.043
2968.31	120.607
2969.61	117.871
2970.91	115.391
2972.21	112.698
2973.51	109.928
2974.81	106.453
2976.1	102.925
2977.4	100.581
2978.7	97.2292
2980	93.9254
2981.29	89.8246
2982.59	86.2659
2983.89	82.6528
2985.18	78.3619
2986.48	74.631
2987.78	70.5312
2989.07	66.6208
2990.37	63.6711
2991.66	60.4835
2992.96	56.8585
2994.25	53.6099
2995.55	50.5465
2996.84	47.7698
2998.14	44.6841
2999.43	41.4519
3000.73	39.0479
3002.02	36.0731
3003.31	33.5294
3004.61	30.3199
3005.9	27.6205
3007.19	25.2354
3008.48	22.1833
3009.77	20.419
3011.07	18.8556
3012.36	17.2102
3013.65	14.9616
3014.94	13.1638
3016.23	11.1452
3017.52	9.31611
3018.81	7.63376
3020.1	6.45053
3021.4	5.20666
3022.68	3.799
3023.97	2.81332
3025.26	2.33254
3026.55	1.50238
3027.84	1.48081
3029.13	0.65091
3030.42	0.810782
3031.71	1.05894
3033	1.38446
3034.28	1.3963
3035.57	1.86374
3036.86	2.11502
3038.15	2.22193
3039.43	2.28395
3040.72	2.24532
3042.01	3.06607
3043.29	2.95619
3044.58	3.27478
3045.87	3.93725
3047.15	4.77421
3048.44	5.78654
3049.72	5.6701
3051.01	6.58811
3052.29	7.22682
3053.58	8.03137
3054.86	8.72106
3056.15	9.22992
3057.43	9.53792
3058.71	9.68527
3060	9.78805
3061.28	10.5768
3062.56	10.6631
3063.84	10.0962
3065.13	10.0672
3066.41	9.41996
3067.69	8.98684
3068.97	9.02943
3070.26	9.09703
3071.54	8.53851
3072.82	7.88172
3074.1	7.50524
3075.38	6.88351
3076.66	6.04698
3077.94	5.38266
3079.22	4.88668
3080.5	4.0284
3081.78	2.94842
3083.06	2.08004
3084.34	1.21759
3085.62	0.328366
3086.9	0.0146998
3088.18	-0.212564
3089.45	-0.437225
3090.73	0.247303
3092.01	0.5746
3093.29	0.300731
3094.56	0.444271
3095.84	0.15857
3097.12	-0.307205
3098.4	-0.0756419
3099.67	0.659909
3100.95	0.559573
3102.22	0.785826
3103.5	0.97406
3104.78	1.32635
3106.05	2.86852
3107.33	3.19279
3108.6	3.25704
3109.88	3.64893
3111.15	4.08004
3112.43	4.89059
3113.7	5.28154
3114.97	6.14563
3116.25	6.07138
3117.52	6.04398
3118.79	6.38748
3120.07	6.99512
3121.34	7.46868
3122.61	7.84289
3123.88	8.81849
3125.16	9.62858
3126.43	9.72843
3127.7	9.86042
3128.97	10.3427
3130.24	10.7503
3131.51	11.7127
3132.79	12.7708
3134.06	12.4256
3135.33	12.4301
3136.6	12.9915
3137.87	13.5265
3139.14	14.3854
3140.41	14.7516
3141.67	15.1094
3142.94	15.5013
3144.21	16.3339
3145.48	17.6359
3146.75	19.1576
3148.02	20.9927
3149.29	22.4134
