#Acq. time (s)=	45
#Accumulations=	2
#Range (cm-¹)=	200...3150
#Windows=	2
#Auto scanning=	Off
#Autofocus=	Off
#Macrospot=	Off
#AutoExposure=	Off
#Spike filter=	Multiple accum.
#Delay time (s)=	0
#Binning=	1
#Readout mode=	Signal
#DeNoise=	Off
#ICS correction=	On
#Dark correction=	Off
#Inst. Process=	Off
#Detector Gain=	Best Dynamic Range
#Detector ADC=	20 kHz       
#Detector temperature (°C)=	-69.85
#Instrument=	LabRAM HR Evol
#Detector=	Synapse
#Objective=	x100
#Grating=	600 gr/mm
#ND Filter=	100%
#Laser (nm)=	532 
#Hole=	100.021
#Range=	Auto
#Laser Pol.=	No
#Raman. Pol.=	No
#Laser Pol. (°)=	-0.0007625
#Raman Pol. (°)=	89.9995
#Collection=	Microscope
#StageXY=	Marzhauser
#StageZ=	Marzhauser
#X (µm)=	-5919.9
#Y (µm)=	2831.4
#Z (µm)=	-223.3
#Full time(mm:ss)=	3:18
#Project=	
#Sample=	
#Site=	
#Title=	Thy_20_09_05_2x_45s_532 nm_x100_100%_600 gr_mm
#Remark=	
#Date=	29.06.2022 11:04
#Acquired=	29.06.2022 11:04:58
#Base:Fit=	10.08.2022 09:49:32
#Base:Fit=	10.08.2022 09:49:42
#Base:Fit=	10.08.2022 09:49:53
#Base:Fit=	10.08.2022 09:50:12
#Base:Fit=	10.08.2022 09:50:26
#Base:Fit=	10.08.2022 09:50:30
#Base:Fit=	10.08.2022 09:50:43
#Base:Fit=	10.08.2022 09:52:02
#Base:Fit=	10.08.2022 09:52:12
#Base:Sub=	10.08.2022 09:54:21
#Filter:Polynom=	16.08.2022 10:24:04
#AxisType[0]=Intens
#AxisUnit[0]=Cnt
#AxisType[1]=Spectr
#AxisUnit[1]=1/cm
200.523	-0.554942
202.339	2.70488
204.154	3.98592
205.967	6.83085
207.781	8.49539
209.596	8.87187
211.409	9.34468
213.222	9.84252
215.034	9.69687
216.848	9.91157
218.659	10.9611
220.47	9.94583
222.281	10.8026
224.091	8.30383
225.903	7.25965
227.713	7.52007
229.522	7.21358
231.331	6.84686
233.14	7.05407
234.948	7.61137
236.756	7.62205
238.566	6.48188
240.373	7.1046
242.18	7.47718
243.986	7.36959
245.792	6.37846
247.598	6.07523
249.403	4.67163
251.208	3.48696
253.013	3.09464
254.818	4.37554
256.624	4.01915
258.427	3.69833
260.231	4.28578
262.034	4.27918
263.836	4.51284
265.638	5.04697
267.44	3.33269
269.242	3.97684
271.043	4.82692
272.844	6.06538
274.645	6.08869
276.445	6.7517
278.245	7.39433
280.044	7.39497
281.843	7.54126
283.642	7.19544
285.44	7.05518
287.238	6.65686
289.036	7.09045
290.833	8.19456
292.63	7.44254
294.425	7.8164
296.221	6.86536
298.017	7.55307
299.813	9.71714
301.608	10.4836
303.403	10.3829
305.198	9.46827
306.992	10.2374
308.786	10.6476
310.579	10.2689
312.371	11.2675
314.163	10.3231
315.956	11.278
317.748	11.0557
319.54	11.1212
321.331	10.8879
323.122	10.837
324.911	11.191
326.701	10.8526
328.491	10.3967
330.281	11.6007
332.071	10.9736
333.857	11.0616
335.646	10.4583
337.434	11.2855
339.222	11.2082
341.008	12.6965
342.795	13.3524
344.582	12.6844
346.369	10.8213
348.153	10.4271
349.939	9.70569
351.724	8.60556
353.51	8.67471
355.292	8.49195
357.077	9.0406
358.861	10.5552
360.643	9.92984
362.426	9.81524
364.21	9.68125
365.99	9.02828
367.773	7.90028
369.555	7.76497
371.335	8.20943
373.116	8.46856
374.897	8.2615
376.676	8.12349
378.456	9.00433
380.236	9.92156
382.014	8.56939
383.793	9.87522
385.57	10.6985
387.349	11.7196
389.127	12.3667
390.903	11.8906
392.681	12.0176
394.456	12.7306
396.233	13.9395
398.007	13.8979
399.784	13.7345
401.56	14.2632
403.333	13.5534
405.108	13.2917
406.881	14.06
408.656	15.0787
410.428	14.7305
412.202	15.1466
413.973	15.1052
415.746	15.0698
417.517	14.9018
419.29	15.2048
421.06	14.4315
422.831	14.908
424.601	12.5063
426.37	12.5491
428.141	12.8242
429.909	11.6913
431.679	9.27638
433.447	7.96141
435.216	6.48292
436.983	6.5429
438.75	7.04221
440.519	6.60647
442.285	6.70393
444.052	5.13506
445.818	5.57345
447.583	4.6173
449.349	4.09066
451.114	3.86687
452.878	4.72004
454.643	4.16523
456.407	4.68163
458.169	5.43608
459.934	5.64053
461.696	5.03664
463.458	5.51189
465.222	5.57555
466.983	6.54879
468.744	7.33264
470.507	7.70413
472.267	8.83077
474.027	10.6898
475.787	11.1942
477.548	12.606
479.307	13.3563
481.065	14.8312
482.823	16.4118
484.583	17.8712
486.341	19.0192
488.098	19.8195
489.855	21.4147
491.612	20.6475
493.37	21.6161
495.126	22.7287
496.881	23.5891
498.636	24.5751
500.391	24.9398
502.148	26.1748
503.902	27.5246
505.656	28.0239
507.409	28.8809
509.162	28.9112
510.915	29.2602
512.668	29.2256
514.42	31.8781
516.174	32.0649
517.925	32.1917
519.676	32.4182
521.427	33.2009
523.178	34.2244
524.928	35.0273
526.678	35.1445
528.427	33.6641
530.176	32.9967
531.925	32.3541
533.673	32.4676
535.422	33.3621
537.169	33.5572
538.917	32.401
540.664	32.3861
542.411	30.4037
544.157	28.8284
545.903	27.3038
547.649	27.3199
549.395	25.8414
551.14	25.0313
552.884	23.4535
554.629	22.9059
556.373	22.3194
558.117	21.8406
559.86	20.4847
561.603	20.841
563.346	18.9683
565.089	18.6718
566.831	17.71
568.573	16.9474
570.314	16.1902
572.053	14.2797
573.794	12.532
575.534	10.7018
577.274	10.7395
579.014	9.42804
580.754	10.1311
582.493	10.0857
584.23	9.61126
585.968	9.82865
587.706	9.1915
589.444	9.69066
591.181	9.44631
592.919	8.69252
594.653	8.58252
596.39	8.33653
598.126	7.97766
599.862	8.83688
601.595	9.60275
603.33	8.42596
605.065	8.50741
606.8	8.80118
608.532	9.00721
610.266	8.60259
611.999	7.77928
613.732	7.6875
615.463	8.11373
617.196	8.82043
618.928	9.7018
620.66	10.6939
622.389	12.197
624.12	12.5054
625.851	12.6592
627.58	13.468
629.31	12.2655
631.04	12.1092
632.767	14.0269
634.497	14.7672
636.223	14.9907
637.952	16.2177
639.68	17.3183
641.406	18.0858
643.134	18.5444
644.861	20.2797
646.586	20.9374
648.312	23.0886
650.037	24.2497
651.762	25.4278
653.486	25.2883
655.211	25.0483
656.936	24.6762
658.659	24.9329
660.383	26.3064
662.105	27.2335
663.829	28.6401
665.55	28.9036
667.273	29.9601
668.994	30.8058
670.716	31.5409
672.436	32.6475
674.158	32.7326
675.877	32.8382
677.598	33.5826
679.317	33.8828
681.035	34.3827
682.755	34.6938
684.473	35.1489
686.192	36.6107
687.909	36.2395
689.628	36.0318
691.344	36.7455
693.06	37.4238
694.778	36.5501
696.493	36.5267
698.211	37.3165
699.925	37.2068
701.64	37.3822
703.356	36.9517
705.07	36.8006
706.783	37.3948
708.498	37.4277
710.211	37.1739
711.924	36.7437
713.638	37.3169
715.35	36.6521
717.061	38.0047
718.774	39.7376
720.485	38.9383
722.196	40.8991
723.906	41.1728
725.618	42.0059
727.328	43.6717
729.037	44.8064
730.746	46.2009
732.456	46.3342
734.165	47.0835
735.873	47.3094
737.58	46.2981
739.289	46.351
740.997	47.9845
742.703	49.1872
744.41	52.1808
746.116	53.3899
747.823	54.7333
749.529	55.0803
751.234	56.2784
752.938	57.9534
754.643	58.8275
756.347	60.1302
758.051	60.8398
759.756	61.7057
761.459	62.2855
763.162	61.9783
764.865	62.0731
766.567	61.5205
768.269	61.334
769.97	62.07
771.671	62.3637
773.372	61.6796
775.073	62.5363
776.773	62.4921
778.473	61.1819
780.174	60.7063
781.874	61.4263
783.573	60.9912
785.271	60.6231
786.97	60.7832
788.668	61.8999
790.365	63.3487
792.063	63.7992
793.76	63.7628
795.456	64.1907
797.153	65.6584
798.847	65.653
800.543	64.7645
802.238	65.47
803.933	66.4798
805.628	67.2419
807.322	68.3603
809.017	68.4448
810.71	68.7325
812.404	69.36
814.097	68.6332
815.79	68.8714
817.483	69.1984
819.173	69.7069
820.865	70.7262
822.556	71.2038
824.248	71.6318
825.939	73.0337
827.629	72.9436
829.318	73.6061
831.008	73.3813
832.697	73.1223
834.387	72.7659
836.076	72.6715
837.765	72.4179
839.451	71.7472
841.139	71.2266
842.827	69.094
844.514	68.6059
846.2	66.008
847.886	64.6767
849.573	65.2337
851.259	64.1077
852.943	62.6264
854.629	62.0422
856.314	59.4991
857.997	57.0901
859.682	57.0972
861.366	56.581
863.05	54.2795
864.732	52.7309
866.415	52.5606
868.098	50.953
869.779	50.5479
871.461	49.7317
873.141	48.6994
874.823	46.709
876.505	43.6432
878.184	42.978
879.865	42.14
881.545	42.1899
883.223	40.7483
884.903	40.224
886.581	39.4587
888.26	39.7122
889.937	39.5277
891.616	38.6217
893.294	37.8144
894.97	36.9218
896.648	37.6354
898.323	36.866
900	35.9239
901.675	36.1337
903.351	37.6945
905.026	38.4596
906.701	38.2866
908.375	38.4287
910.05	38.6425
911.723	38.0552
913.398	38.5339
915.07	38.623
916.742	38.6524
918.415	39.0556
920.087	39.3966
921.76	39.9474
923.43	39.7546
925.103	39.5302
926.773	39.5387
928.443	39.277
930.114	38.0328
931.783	38.7064
933.454	37.7962
935.123	35.8321
936.791	35.5001
938.461	35.2955
940.128	34.1589
941.796	34.1323
943.464	33.2393
945.131	29.7011
946.797	27.9044
948.465	26.9959
950.131	28.6898
951.797	28.6583
953.462	28.646
955.128	28.0609
956.793	25.9743
958.457	24.6201
960.121	22.7169
961.786	23.3818
963.45	23.7686
965.113	24.6422
966.775	25.0652
968.44	25.8749
970.102	25.6453
971.763	27.0348
973.425	26.1925
975.086	26.118
976.748	26.0747
978.409	26.7213
980.069	26.9506
981.729	26.1935
983.388	25.9014
985.048	27.6451
986.708	27.4657
988.367	26.7786
990.025	26.6152
991.683	26.9724
993.341	26.2673
994.998	26.273
996.655	26.1192
998.312	25.8763
999.969	25.6548
1001.62	24.4448
1003.28	24.0634
1004.94	23.8956
1006.59	23.4969
1008.25	22.9673
1009.9	22.3603
1011.56	21.2221
1013.21	20.3906
1014.86	19.502
1016.52	18.8351
1018.17	18.1788
1019.82	18.086
1021.48	15.8783
1023.13	13.8659
1024.78	12.58
1026.43	11.2335
1028.08	10.7266
1029.73	11.4333
1031.38	10.1634
1033.03	10.494
1034.68	8.50113
1036.33	7.71847
1037.98	6.48408
1039.63	4.32484
1041.28	5.0289
1042.93	5.82921
1044.57	7.46269
1046.22	8.79983
1047.87	8.8337
1049.52	8.66018
1051.16	8.12903
1052.81	7.00491
1054.45	7.20132
1056.1	7.06404
1057.75	6.82378
1059.39	6.60949
1061.04	6.53999
1062.68	6.32199
1064.32	6.36808
1065.97	6.38187
1067.61	7.55499
1069.25	7.73145
1070.9	7.77314
1072.54	7.16315
1074.18	7.10265
1075.82	7.09489
1077.47	7.56698
1079.11	7.57502
1080.75	7.99789
1082.39	8.60933
1084.03	9.24961
1085.67	10.295
1087.31	10.7015
1088.95	11.2958
1090.59	11.4973
1092.22	10.8404
1093.86	10.6806
1095.5	10.8749
1097.14	13.6993
1098.78	15.6381
1100.41	15.8201
1102.05	16.3502
1103.69	16.4532
1105.32	16.5642
1106.96	17.4016
1108.59	17.7756
1110.23	17.8242
1111.86	18.0513
1113.5	18.7777
1115.13	18.6704
1116.77	18.8448
1118.4	19.7215
1120.03	18.3397
1121.67	18.1005
1123.3	19.0953
1124.93	19.5285
1126.56	19.8327
1128.19	18.9541
1129.83	18.709
1131.46	18.5711
1133.09	19.3513
1134.72	18.4638
1136.35	18.4756
1137.98	18.446
1139.61	18.3958
1141.24	19.3261
1142.86	18.6552
1144.49	18.1683
1146.12	17.7514
1147.75	16.7428
1149.38	16.2742
1151	16.29
1152.63	15.2816
1154.26	15.1475
1155.88	14.8042
1157.51	14.3692
1159.14	14.0481
1160.76	13.22
1162.39	12.5172
1164.01	12.0238
1165.63	11.0599
1167.26	10.7451
1168.88	11.4329
1170.51	11.901
1172.13	12.5694
1173.75	13.2862
1175.38	14.5464
1177	15.1998
1178.62	17.1551
1180.24	16.1863
1181.86	15.1003
1183.48	15.33
1185.1	15.2259
1186.72	14.7506
1188.34	14.5356
1189.96	14.5207
1191.58	13.6952
1193.2	13.9955
1194.82	13.8476
1196.44	13.4127
1198.06	15.1053
1199.68	16.2869
1201.29	17.1276
1202.91	19.8368
1204.53	21.5666
1206.14	23.2631
1207.76	25.3018
1209.38	28.0521
1210.99	31.9325
1212.61	33.845
1214.22	36.9958
1215.84	38.98
1217.45	41.9845
1219.07	44.8054
1220.68	47.8551
1222.29	50.8866
1223.91	53.6303
1225.52	56.9496
1227.13	59.6596
1228.74	62.0542
1230.36	65.3622
1231.97	68.3919
1233.58	70.4664
1235.19	73.1473
1236.8	75.4668
1238.41	77.1696
1240.02	79.0239
1241.63	81.0577
1243.24	82.8905
1244.85	85.6014
1246.46	88.0073
1248.07	89.2602
1249.67	90.9979
1251.28	92.13
1252.89	93.3247
1254.5	92.9261
1256.1	93.0334
1257.71	94.4204
1259.32	96.2768
1260.92	95.3113
1262.53	95.3391
1264.13	97.0271
1265.74	97.5597
1267.34	98.1028
1268.95	99.0771
1270.55	101.226
1272.15	102.105
1273.76	103.967
1275.36	105.126
1276.97	107.27
1278.57	110.093
1280.17	112.959
1281.77	116.131
1283.37	119.176
1284.97	121.352
1286.58	124.663
1288.18	127.551
1289.78	129.412
1291.38	130.608
1292.98	132.195
1294.58	135.51
1296.18	137.614
1297.78	139.53
1299.37	141.889
1300.97	145.678
1302.57	147.556
1304.17	149.895
1305.77	152.344
1307.36	154.098
1308.96	157.271
1310.55	159.917
1312.15	161.338
1313.75	162.541
1315.34	163.958
1316.94	165.515
1318.53	166.227
1320.13	168.722
1321.72	169.26
1323.32	168.668
1324.91	169.455
1326.5	169.288
1328.1	168.976
1329.69	168.983
1331.28	169.299
1332.87	168.945
1334.47	168.507
1336.06	168.546
1337.65	168.042
1339.24	167.923
1340.83	167.098
1342.42	167.068
1344.01	167.132
1345.6	166.283
1347.19	164.218
1348.78	162.889
1350.37	160.742
1351.96	159.207
1353.54	156.611
1355.13	155.601
1356.72	154.792
1358.31	152.688
1359.89	152.056
1361.48	149.152
1363.07	144.625
1364.65	142.174
1366.24	140.384
1367.82	137.927
1369.41	136.742
1370.99	135.529
1372.58	133.428
1374.16	132.22
1375.75	130.336
1377.33	129.119
1378.91	127.345
1380.5	125.573
1382.08	123.24
1383.66	122.583
1385.25	120.568
1386.83	118.769
1388.41	117.242
1389.99	115.067
1391.57	112.965
1393.15	112.051
1394.73	111.285
1396.31	108.717
1397.89	107.133
1399.47	106.15
1401.05	104.285
1402.63	103.561
1404.21	105.457
1405.78	105.2
1407.36	105.568
1408.94	105.742
1410.52	107.3
1412.1	107.993
1413.67	108.238
1415.25	110.139
1416.82	112.492
1418.4	114.865
1419.98	115.688
1421.55	117.483
1423.13	120.676
1424.7	122.781
1426.28	123.787
1427.85	127.194
1429.42	129.629
1431	133.694
1432.57	136.238
1434.14	140.129
1435.71	140.883
1437.29	142.222
1438.86	145.683
1440.43	146.741
1442	148.536
1443.57	151.538
1445.14	154.147
1446.71	154.952
1448.28	155.484
1449.85	154.048
1451.42	152.866
1452.99	153.688
1454.56	151.277
1456.13	149.483
1457.7	146.189
1459.26	144.418
1460.83	142.075
1462.4	139.874
1463.97	136.563
1465.54	133.951
1467.1	130.736
1468.67	128.032
1470.23	124.154
1471.8	120.229
1473.36	116.913
1474.93	113.654
1476.49	111.306
1478.06	108.661
1479.62	105.505
1481.19	101.842
1482.75	99.3019
1484.31	96.3047
1485.88	94.1453
1487.44	91.7022
1489	89.599
1490.56	88.0531
1492.13	86.7837
1493.69	85.6667
1495.25	83.8481
1496.81	82.2275
1498.37	81.9266
1499.93	81.9463
1501.49	81.2738
1503.05	79.9386
1504.61	80.755
1506.17	80.2144
1507.73	80.4063
1509.28	81.7808
1510.84	81.3683
1512.4	80.2842
1513.96	81.0765
1515.52	83.4036
1517.07	84.5863
1518.63	85.7897
1520.19	86.5463
1521.74	87.3235
1523.3	88.6186
1524.85	89.9419
1526.41	90.4444
1527.96	90.9729
1529.52	93.1284
1531.07	94.6233
1532.63	94.4491
1534.18	96.8015
1535.73	98.3611
1537.29	100.814
1538.84	102.18
1540.39	106.262
1541.94	107.816
1543.5	111.225
1545.05	113.038
1546.6	115.519
1548.15	118.388
1549.7	121.61
1551.25	126.013
1552.8	128.978
1554.35	132.906
1555.9	137.02
1557.45	140.707
1559	144.608
1560.55	148.138
1562.1	152.606
1563.65	155.558
1565.19	159.585
1566.74	163.798
1568.29	166.322
1569.83	168.909
1571.38	171.991
1572.93	175.821
1574.47	179.953
1576.02	182.829
1577.56	184.542
1579.11	187.42
1580.66	189.661
1582.2	192.594
1583.74	193.411
1585.29	195.785
1586.83	196.797
1588.38	197.013
1589.92	198.109
1591.46	199.079
1593.01	197.359
1594.55	196.021
1596.09	195.307
1597.63	193.639
1599.17	193.28
1600.71	191.944
1602.25	190.866
1603.79	187.361
1605.34	185.343
1606.88	182.945
1608.41	180.551
1609.95	178.629
1611.49	176.718
1613.03	174.051
1614.57	170.985
1616.11	168.68
1617.65	166.501
1619.18	162.229
1620.72	160.592
1622.26	157.794
1623.79	155.935
1625.33	153.636
1626.87	152.085
1628.4	151.848
1629.94	151.017
1631.48	150.512
1633.01	149.135
1634.55	148.185
1636.08	147.521
1637.61	146.418
1639.15	147.112
1640.68	146.198
1642.21	146.123
1643.75	144.764
1645.28	143.651
1646.81	143.095
1648.34	142.877
1649.88	140.959
1651.41	139.741
1652.94	137.301
1654.47	135.094
1656	134.372
1657.53	133.125
1659.06	131.437
1660.59	128.858
1662.12	125.988
1663.65	123.328
1665.18	120.869
1666.71	117.198
1668.24	114.405
1669.76	111.454
1671.29	108.593
1672.82	106.971
1674.35	104.57
1675.87	101.485
1677.4	97.8686
1678.93	95.6046
1680.45	91.7986
1681.98	88.8581
1683.5	85.2579
1685.03	82.6492
1686.55	79.1497
1688.08	74.4729
1689.6	70.1642
1691.13	66.8939
1692.65	63.9073
1694.17	59.9876
1695.7	57.1463
1697.22	54.8425
1698.74	51.904
1700.27	49.1627
1701.79	47.4796
1703.31	46.0404
1704.83	44.3729
1706.35	42.4108
1707.87	40.6969
1709.39	39.3506
1710.91	37.9202
1712.43	36.5838
1713.95	34.4357
1715.47	32.9661
1716.99	30.6898
1718.51	29.0572
1720.03	27.4655
1721.55	26.4464
1723.07	24.9634
1724.58	24.0397
1726.1	22.4367
1727.62	21.7121
1729.13	20.6238
1730.65	19.4709
1732.17	20.3001
1733.68	19.41
1735.2	17.858
1736.72	17.2083
1738.23	17.3126
1739.74	17.0612
1741.26	16.7636
1742.77	16.526
1744.29	16.8663
1745.8	16.2534
1747.32	16.2743
1748.83	16.7148
1750.34	16.1357
1751.85	16.0287
1753.37	15.9439
1754.88	16.1022
1756.39	15.0816
1757.9	14.7401
1759.41	13.8857
1760.92	13.3709
1762.44	12.2584
1763.95	11.7112
1765.46	11.5155
1766.96	11.3717
1768.47	10.8204
1769.98	10.0915
1771.49	10.9407
1773	10.7802
1774.51	10.075
1776.02	8.98418
1777.53	8.52809
1779.03	8.22107
1780.54	9.08847
1782.05	9.11821
1783.55	9.037
1785.06	8.615
1786.57	8.1623
1788.07	8.22834
1789.58	8.1327
1791.08	7.29759
1792.59	6.80539
1794.09	6.29335
1795.6	6.26471
1797.1	6.26907
1798.61	5.85044
1800.11	5.19345
1801.61	5.40677
1803.12	6.11025
1804.62	6.16985
1806.12	6.35312
1807.62	7.06274
1809.12	7.32987
1810.63	7.61276
1812.13	8.363
1813.63	8.78893
1815.13	8.96676
1816.63	10.1416
1818.13	10.0646
1819.63	10.8563
1821.13	11.4336
1822.63	11.5905
1824.13	11.4705
1825.63	11.9272
1827.13	11.806
1828.62	12.351
1830.12	13.1775
1831.62	12.88
1833.12	13.6564
1834.61	13.5177
1836.11	13.4898
1837.61	14.2306
1839.1	14.2576
1840.6	14.2554
1842.09	13.6601
1843.59	14.303
1845.09	13.2731
1846.58	12.6622
1848.08	11.2061
1849.57	9.68646
1851.06	9.5222
1852.56	10.0267
1854.05	9.39186
1855.54	9.87299
1857.04	9.05023
1858.53	7.34202
1860.02	5.81007
1861.51	4.49137
1863.01	3.98942
1864.5	3.66095
1865.99	2.88289
1867.48	3.10387
1868.97	2.63322
1870.46	3.21875
1871.95	3.06597
1873.44	3.35926
1874.93	3.41681
1876.42	4.19313
1877.91	4.11264
1879.4	3.47206
1880.89	3.87156
1882.37	3.50857
1882.46	4.02579
1883.95	3.9697
1885.45	3.72891
1886.94	3.34036
1888.43	4.42522
1889.93	4.65872
1891.42	4.86898
1892.91	5.75933
1894.41	5.66881
1895.9	6.32507
1897.39	7.11835
1898.88	7.31694
1900.37	7.46446
1901.86	8.65257
1903.36	8.68916
1904.85	9.17742
1906.34	9.31075
1907.83	10.1802
1909.32	10.9014
1910.81	12.1478
1912.29	11.4783
1913.78	11.8097
1915.27	11.161
1916.76	11.1867
1918.25	10.4491
1919.74	10.4616
1921.23	11.1389
1922.71	10.9015
1924.2	11.6623
1925.69	12.3479
1927.17	11.4871
1928.66	11.5714
1930.15	11.0678
1931.63	10.2382
1933.12	10.9205
1934.6	12.2022
1936.09	13.4028
1937.57	13.597
1939.06	14.5579
1940.54	16.0398
1942.02	16.2588
1943.51	16.9018
1944.99	16.8687
1946.47	17.8026
1947.96	16.8345
1949.44	17.0151
1950.92	16.4851
1952.4	16.4461
1953.88	16.41
1955.37	14.9269
1956.85	15.2005
1958.33	15.4364
1959.81	15.2697
1961.29	15.3142
1962.77	16.2512
1964.25	16.3254
1965.73	16.3127
1967.21	16.2511
1968.69	16.1361
1970.16	15.2554
1971.64	14.4166
1973.12	13.7812
1974.6	13.9137
1976.08	14.5576
1977.55	14.6198
1979.03	14.711
1980.51	14.6577
1981.98	14.3082
1983.46	13.7575
1984.94	12.7798
1986.41	12.1745
1987.89	11.6415
1989.36	10.3215
1990.84	9.69518
1992.31	9.22684
1993.79	8.33572
1995.26	8.22991
1996.73	7.04017
1998.21	7.55258
1999.68	6.76072
2001.15	5.83885
2002.63	6.51562
2004.1	6.12352
2005.57	6.43359
2007.04	6.94681
2008.51	7.90112
2009.99	7.68696
2011.46	7.68965
2012.93	7.8708
2014.4	7.83747
2015.87	7.12788
2017.34	7.47187
2018.81	7.39183
2020.28	7.14566
2021.75	6.30316
2023.21	7.03745
2024.68	7.75333
2026.15	8.38189
2027.62	8.99525
2029.09	9.26721
2030.56	11.3005
2032.02	11.8519
2033.49	12.1419
2034.96	12.4514
2036.42	13.4136
2037.89	13.8967
2039.36	13.6318
2040.82	13.334
2042.29	12.9947
2043.75	12.9648
2045.22	13.9044
2046.68	14.289
2048.14	14.9429
2049.61	15.9969
2051.07	16.1587
2052.54	16.4623
2054	16.463
2055.46	16.5513
2056.93	17.164
2058.39	16.835
2059.85	17.5264
2061.31	17.5629
2062.77	17.4463
2064.23	17.913
2065.7	17.8354
2067.16	17.7546
2068.62	17.9159
2070.08	18.5631
2071.54	19.2029
2073	19.1759
2074.46	19.7301
2075.92	19.0393
2077.38	17.9786
2078.83	19.1698
2080.29	18.3668
2081.75	18.3641
2083.21	17.7191
2084.67	18.2654
2086.12	19.1781
2087.58	19.3701
2089.04	19.4984
2090.49	20.271
2091.95	19.6663
2093.41	19.6589
2094.86	19.8944
2096.32	20.4006
2097.77	21.3885
2099.23	21.5748
2100.68	20.9803
2102.14	20.4516
2103.59	21.5153
2105.05	21.0639
2106.5	21.1942
2107.95	20.9336
2109.41	21.165
2110.86	21.0022
2112.31	20.9097
2113.76	21.7967
2115.21	22.7064
2116.67	23.5122
2118.12	23.9816
2119.57	24.9789
2121.02	26.4503
2122.47	27.985
2123.92	28.4427
2125.37	29.7897
2126.82	30.0369
2128.27	31.0263
2129.72	32.056
2131.17	33.9123
2132.62	36.2032
2134.07	37.382
2135.51	38.0356
2136.96	39.182
2138.41	40.6561
2139.86	42.2539
2141.31	43.6568
2142.75	45.9297
2144.2	46.6236
2145.65	48.3939
2147.09	50.0941
2148.54	51.7362
2149.98	53.613
2151.43	56.2177
2152.87	58.1711
2154.32	59.8166
2155.76	61.2817
2157.21	62.5557
2158.65	64.2111
2160.1	64.7793
2161.54	66.2887
2162.98	67.7242
2164.43	67.2952
2165.87	68.2842
2167.31	69.0708
2168.75	70.1054
2170.2	71.0678
2171.64	70.6559
2173.08	70.0537
2174.52	70.4795
2175.96	71.1885
2177.4	70.9656
2178.84	70.7423
2180.28	70.1601
2181.72	69.9034
2183.16	69.8195
2184.6	69.7751
2186.04	69.2302
2187.48	68.4695
2188.92	67.1052
2190.36	66.3313
2191.79	65.4468
2193.23	63.6498
2194.67	62.6899
2196.11	60.3292
2197.54	59.0191
2198.98	56.8558
2200.42	55.235
2201.85	53.8596
2203.29	52.7731
2204.72	50.707
2206.16	48.7696
2207.59	47.2339
2209.03	45.4505
2210.46	43.4761
2211.9	41.4624
2213.33	40.255
2214.77	39.4741
2216.2	37.6237
2217.63	35.6851
2219.07	33.746
2220.5	32.7145
2221.93	32.1238
2223.36	31.7348
2224.8	29.82
2226.23	27.8651
2227.66	27.4652
2229.09	26.4771
2230.52	26.3652
2231.95	24.6981
2233.39	23.7289
2234.81	23.5973
2236.25	21.885
2237.67	21.5208
2239.1	20.9205
2240.53	20.312
2241.96	19.6848
2243.39	19.2811
2244.82	19.3557
2246.25	20.2983
2247.68	20.4978
2249.1	20.7885
2250.53	19.8104
2251.96	19.5921
2253.38	19.7964
2254.81	19.6878
2256.24	19.1147
2257.66	19.1362
2259.09	18.9955
2260.51	18.2831
2261.94	18.4798
2263.36	17.8701
2264.79	18.2064
2266.21	18.2891
2267.64	17.5071
2269.06	16.8786
2270.49	16.7725
2271.91	15.7557
2273.33	16.073
2274.76	15.5497
2276.18	14.5834
2277.6	14.3163
2279.02	12.4967
2280.44	11.6091
2281.87	10.8208
2283.29	10.6914
2284.71	10.3736
2286.13	9.41941
2287.55	8.583
2288.97	7.3786
2290.39	7.52096
2291.81	7.87143
2293.23	6.60155
2294.65	5.47562
2296.07	4.58346
2297.49	4.86875
2298.91	5.08577
2300.33	4.85024
2301.74	5.26597
2303.16	4.86361
2304.58	5.30873
2306	5.99233
2307.41	5.78845
2308.83	6.7029
2310.25	7.21116
2311.66	8.06243
2313.08	8.28927
2314.5	8.6621
2315.91	8.51241
2317.33	8.52655
2318.74	7.96085
2320.16	8.34295
2321.57	8.22545
2322.98	8.75074
2324.4	9.14107
2325.81	9.68124
2327.23	9.97034
2328.64	10.7228
2330.05	10.6713
2331.46	10.3401
2332.88	10.1424
2334.29	10.9273
2335.7	11.3974
2337.11	10.3825
2338.52	10.148
2339.94	9.59171
2341.35	8.77734
2342.76	8.37589
2344.17	7.737
2345.58	6.16473
2346.99	6.00554
2348.4	5.46449
2349.81	4.20524
2351.22	4.11011
2352.62	3.44552
2354.03	2.64638
2355.44	1.98173
2356.85	1.5424
2358.26	0.741172
2359.67	-0.20649
2361.07	0.702021
2362.48	1.01985
2363.89	0.926744
2365.29	1.21312
2366.7	2.28806
2368.11	2.38589
2369.51	2.88028
2370.92	3.67183
2372.32	3.5728
2373.73	3.51532
2375.13	4.12753
2376.54	5.30967
2377.94	5.86544
2379.35	5.91183
2380.75	5.4385
2382.15	5.91827
2383.56	5.81658
2384.96	5.92069
2386.36	5.90805
2387.76	6.30089
2389.17	7.65081
2390.57	7.69201
2391.97	7.13265
2393.37	7.3503
2394.77	8.04447
2396.17	7.90654
2397.58	7.83717
2398.98	7.60397
2400.38	7.58263
2401.78	7.48667
2403.18	7.38433
2404.58	6.70135
2405.97	6.15288
2407.37	5.09436
2408.77	5.36117
2410.17	5.27619
2411.57	4.67856
2412.97	5.028
2414.37	4.17781
2415.76	4.10086
2417.16	4.32379
2418.56	4.19206
2419.95	4.25906
2421.35	4.41787
2422.75	4.2906
2424.14	4.30355
2425.54	4.36047
2426.93	3.95924
2428.33	3.60601
2429.72	3.60426
2431.12	3.96519
2432.51	3.00869
2433.91	2.97927
2435.3	2.39107
2436.7	2.32041
2438.09	2.25036
2439.48	2.25736
2440.88	2.21524
2442.27	2.22919
2443.66	3.09977
2445.05	3.48609
2446.44	3.30948
2447.84	2.68225
2449.23	1.83854
2450.62	1.82712
2452.01	2.11013
2453.4	2.29475
2454.79	2.09323
2456.18	2.90233
2457.57	3.22583
2458.96	3.52998
2460.35	2.20556
2461.74	1.96986
2463.13	2.86276
2464.52	2.9086
2465.91	2.69069
2467.29	2.63269
2468.68	2.04785
2470.07	2.13155
2471.46	1.71709
2472.85	1.1971
2474.23	1.71083
2475.62	2.74447
2477.01	2.785
2478.39	2.89565
2479.78	2.54057
2481.16	2.19078
2482.55	1.99636
2483.93	2.348
2485.32	2.5241
2486.7	2.66877
2488.09	3.29262
2489.47	3.53896
2490.86	3.29672
2492.24	2.77306
2493.62	2.25154
2495.01	1.89077
2496.39	1.80984
2497.77	2.74629
2499.15	3.05398
2500.54	3.33623
2501.92	2.60444
2503.3	3.52001
2504.68	3.10525
2506.06	3.63236
2507.45	3.85777
2508.83	3.49457
2510.21	3.87628
2511.59	3.98161
2512.97	3.85581
2514.35	3.50385
2515.73	3.09675
2517.11	2.49221
2518.48	2.44833
2519.86	2.9564
2521.24	3.50752
2522.62	3.71065
2524	3.37789
2525.38	3.72846
2526.75	3.30518
2528.13	2.99705
2529.51	2.41575
2530.89	3.27004
2532.26	3.55856
2533.64	2.73817
2535.02	2.40752
2536.39	0.855217
2537.77	1.05795
2539.14	0.959248
2540.52	1.36601
2541.89	1.55702
2543.27	1.07971
2544.64	0.811666
2546.01	0.811605
2547.39	0.521598
2548.76	0.878025
2550.14	0.304681
2551.51	0.749686
2552.88	1.44135
2554.25	1.65684
2555.63	1.43429
2557	2.44487
2558.37	1.54732
2559.74	0.982753
2561.11	0.816067
2562.49	1.68252
2563.86	2.85096
2565.23	4.01557
2566.6	5.20202
2567.97	5.34707
2569.34	6.10337
2570.71	6.16261
2572.08	6.84429
2573.45	6.79026
2574.82	7.57413
2576.18	8.19941
2577.55	9.09906
2578.92	9.6771
2580.29	9.99112
2581.66	9.52386
2583.02	9.58926
2584.39	9.60422
2585.76	9.62607
2587.13	10.1865
2588.49	10.4426
2589.86	10.2123
2591.22	10.2171
2592.59	10.1262
2593.96	9.64708
2595.32	9.39623
2596.69	8.88677
2598.05	8.25051
2599.42	7.696
2600.78	6.45136
2602.14	6.24852
2603.51	5.44652
2604.87	4.60127
2606.23	5.38507
2607.6	4.83635
2608.96	4.36503
2610.32	4.13512
2611.69	3.71716
2613.05	3.95229
2614.41	3.85023
2615.77	3.35143
2617.13	2.17603
2618.49	1.39592
2619.86	0.930694
2621.22	0.440766
2622.58	-0.605471
2623.94	-0.958775
2625.3	-0.945274
2626.66	-1.59322
2628.02	-1.30181
2629.37	-0.490726
2630.73	0.720914
2632.09	1.1072
2633.45	1.52883
2634.81	2.51765
2636.17	2.84675
2637.53	3.9219
2638.88	3.66124
2640.24	3.89228
2641.6	5.23674
2642.96	5.45813
2644.31	5.74877
2645.67	5.87114
2647.02	5.81086
2648.38	5.24648
2649.74	5.58337
2651.09	6.00728
2652.45	5.93236
2653.8	6.64016
2655.16	6.70516
2656.51	7.07115
2657.86	6.97078
2659.22	6.743
2660.57	6.34175
2661.93	6.14338
2663.28	6.28573
2664.63	5.33136
2665.98	5.2059
2667.34	5.93266
2668.69	6.22417
2670.04	6.55259
2671.39	5.74989
2672.75	5.91642
2674.09	6.20613
2675.45	5.92729
2676.8	5.42983
2678.15	4.75705
2679.5	3.7865
2680.85	3.17301
2682.2	3.3727
2683.55	2.80117
2684.9	2.68955
2686.25	3.4451
2687.6	3.38092
2688.94	3.63274
2690.29	3.10629
2691.64	3.71068
2692.99	4.31996
2694.34	4.93279
2695.68	5.40318
2697.03	6.56883
2698.38	7.71214
2699.73	8.11528
2701.07	9.2991
2702.42	10.563
2703.76	10.9581
2705.11	11.4051
2706.45	10.906
2707.8	11.2277
2709.15	12.5586
2710.49	12.432
2711.83	12.4109
2713.18	13.2237
2714.52	13.6976
2715.87	14.3315
2717.21	15.0915
2718.55	15.0991
2719.9	15.5532
2721.24	16.4817
2722.58	16.2828
2723.93	16.7259
2725.27	16.2235
2726.61	15.6725
2727.95	16.232
2729.29	15.8313
2730.63	15.5943
2731.98	15.0186
2733.32	15.1172
2734.66	15.0278
2736	14.0087
2737.34	13.4389
2738.68	12.5499
2740.02	12.1914
2741.36	11.6671
2742.7	10.4808
2744.03	9.46066
2745.37	8.61941
2746.71	9.19348
2748.05	9.35513
2749.39	9.32154
2750.72	8.51527
2752.06	7.89669
2753.4	7.2027
2754.74	5.9313
2756.07	5.43588
2757.41	5.18177
2758.75	5.09721
2760.08	5.0052
2761.42	4.97684
2762.76	4.3863
2764.09	4.45487
2765.42	4.57219
2766.76	4.35457
2768.09	4.31762
2769.43	3.82982
2770.76	3.46174
2772.1	3.59148
2773.43	3.60591
2774.76	3.62752
2776.1	3.73144
2777.43	2.82068
2778.76	2.30522
2780.1	3.02909
2781.43	3.25395
2782.76	2.49236
2784.09	2.18646
2785.42	2.0139
2786.75	2.28439
2788.09	2.12032
2789.42	2.44647
2790.75	2.18776
2792.08	1.39496
2793.41	1.03671
2794.74	0.911082
2796.07	0.456323
2797.4	0.159256
2798.73	-0.161464
2800.06	-0.380927
2801.39	0.324245
2802.71	0.491933
2804.04	0.537043
2805.37	0.360662
2806.7	-0.172471
2808.03	-0.77681
2809.35	-1.02377
2810.68	-0.788185
2812.01	-0.731321
2813.33	-1.03371
2814.66	-1.45657
2815.99	-1.07086
2817.31	-0.952297
2818.64	-0.495086
2819.96	0.405827
2821.29	0.739748
2822.61	1.61179
2823.94	3.97196
2825.26	6.37122
2826.59	8.30843
2827.91	10.3533
2829.23	12.0563
2830.56	14.6603
2831.88	17.7032
2833.21	20.6013
2834.53	23.2995
2835.85	26.2882
2837.17	29.7391
2838.5	33.2802
2839.82	35.6529
2841.14	39.3395
2842.46	43.5627
2843.78	48.6853
2845.1	53.5661
2846.42	59.082
2847.74	64.6136
2849.06	69.8178
2850.38	77.1061
2851.71	82.6794
2853.03	88.5835
2854.34	93.7016
2855.66	99.5846
2856.98	104.85
2858.3	110.065
2859.62	115.998
2860.94	122.133
2862.26	127.939
2863.57	133.106
2864.89	137.644
2866.21	142.815
2867.53	147.455
2868.84	150.733
2870.16	154.056
2871.48	158.018
2872.79	161.015
2874.11	164.103
2875.42	166.597
2876.74	169.594
2878.05	171.97
2879.37	174.081
2880.68	177.182
2882	179.912
2883.31	182.292
2884.63	183.837
2885.94	185.764
2887.26	188.724
2888.57	191.709
2889.88	194.984
2891.19	196.524
2892.51	198.657
2893.82	200.992
2895.13	204.662
2896.44	208.894
2897.76	212.186
2899.07	215.612
2900.38	219.443
2901.69	223.921
2903	228.565
2904.31	233.194
2905.62	238.27
2906.93	244.595
2908.24	251.537
2909.55	258.212
2910.86	264.256
2912.17	271.274
2913.48	277.979
2914.79	284.397
2916.1	290.39
2917.41	295.2
2918.71	300.469
2920.02	305.074
2921.33	309.213
2922.64	313.219
2923.94	316.904
2925.25	320.062
2926.56	321.777
2927.86	322.844
2929.17	322.308
2930.48	321.885
2931.78	321.799
2933.09	320.483
2934.39	318.623
2935.7	316.458
2937	313.884
2938.31	309.907
2939.61	306.282
2940.92	302.016
2942.22	298.928
2943.53	293.225
2944.83	287.968
2946.13	282.842
2947.43	277.511
2948.74	271.392
2950.04	265.685
2951.34	260.845
2952.64	255.209
2953.95	248.669
2955.25	242.575
2956.55	236.739
2957.85	231.858
2959.15	226.493
2960.45	221.923
2961.75	216.052
2963.05	209.527
2964.35	204.354
2965.65	199.113
2966.95	193.684
2968.25	188.643
2969.55	184.256
2970.85	179.683
2972.15	175.041
2973.45	171.31
2974.75	166.637
2976.05	162.904
2977.34	157.981
2978.64	153.286
2979.94	148.219
2981.24	142.739
2982.53	137.369
2983.83	131.72
2985.13	125.544
2986.42	119.693
2987.72	113.756
2989.01	107.892
2990.31	101.889
2991.61	96.0294
2992.9	89.7576
2994.19	84.1594
2995.49	79.5089
2996.78	74.1266
2998.08	68.8291
2999.37	63.2605
3000.67	58.4282
3001.96	53.4872
3003.25	48.6277
3004.55	43.7804
3005.84	39.5542
3007.13	35.7368
3008.42	30.9297
3009.72	27.8041
3011.01	24.1495
3012.3	20.8065
3013.59	17.5075
3014.88	15.1631
3016.17	12.2165
3017.46	10.2724
3018.76	8.85769
3020.05	7.96647
3021.34	6.90186
3022.63	6.19234
3023.92	5.06167
3025.21	4.28901
3026.49	3.32635
3027.78	3.49919
3029.07	3.83792
3030.36	4.23332
3031.65	4.26865
3032.94	4.90621
3034.23	6.14153
3035.51	6.72302
3036.8	8.23415
3038.09	9.66724
3039.38	10.8186
3040.66	12.299
3041.95	12.054
3043.23	13.4694
3044.52	14.567
3045.81	15.4187
3047.09	16.9012
3048.38	17.4256
3049.66	17.6664
3050.95	18.6605
3052.23	19.4253
3053.52	20.8459
3054.8	21.718
3056.09	22.1889
3057.37	22.1516
3058.65	22.8965
3059.94	22.1389
3061.22	21.5338
3062.5	21.3819
3063.79	20.7403
3065.07	20.0343
3066.35	19.0527
3067.63	18.4527
3068.92	17.2332
3070.2	16.3018
3071.48	14.7788
3072.76	13.6193
3074.04	12.4198
3075.32	11.0109
3076.6	9.91023
3077.88	8.43642
3079.16	8.13918
3080.44	7.36437
3081.72	6.79732
3083	5.7996
3084.28	4.36291
3085.56	3.71472
3086.84	2.97594
3088.12	2.22632
3089.4	2.25532
3090.67	1.74324
3091.95	1.6081
3093.23	0.933264
3094.51	1.01575
3095.78	0.837852
3097.06	1.85181
3098.34	3.01365
3099.61	3.1151
3100.89	3.18668
3102.17	3.80041
3103.44	4.82441
3104.72	5.76716
3105.99	6.32181
3107.27	7.7189
3108.54	8.82786
3109.82	9.09842
3111.09	10.237
3112.37	10.6941
3113.64	12.4565
3114.92	13.4415
3116.19	14.6055
3117.46	15.7451
3118.74	16.5979
3120.01	17.656
3121.28	18.4749
3122.55	19.6175
3123.83	20.4005
3125.1	21.8841
3126.37	23.2156
3127.64	23.9537
3128.91	24.7887
3130.19	25.6391
3131.46	26.3937
3132.73	26.5683
3134	27.3355
3135.27	28.0283
3136.54	28.9671
3137.81	29.5237
3139.08	30.0496
3140.35	30.6099
3141.62	31.5135
3142.89	32.4716
3144.16	33.0644
3145.42	33.9975
3146.69	35.1071
3147.96	37.1187
3149.23	36.8825
