#Acq. time (s)=	45
#Accumulations=	2
#Range (cm-¹)=	200...3150
#Windows=	2
#Auto scanning=	Off
#Autofocus=	Off
#Macrospot=	Off
#AutoExposure=	Off
#Spike filter=	Multiple accum.
#Delay time (s)=	0
#Binning=	1
#Readout mode=	Signal
#DeNoise=	Off
#ICS correction=	On
#Dark correction=	Off
#Inst. Process=	Off
#Detector Gain=	Best Dynamic Range
#Detector ADC=	20 kHz       
#Detector temperature (°C)=	-69.85
#Instrument=	LabRAM HR Evol
#Detector=	Synapse
#Objective=	x100
#Grating=	600 gr/mm
#ND Filter=	100%
#Laser (nm)=	532 
#Hole=	100.021
#Range=	Auto
#Laser Pol.=	No
#Raman. Pol.=	No
#Laser Pol. (°)=	-0.0007625
#Raman Pol. (°)=	89.9995
#Collection=	Microscope
#StageXY=	Marzhauser
#StageZ=	Marzhauser
#X (µm)=	-5927.7
#Y (µm)=	2844.9
#Z (µm)=	-223.8
#Full time(mm:ss)=	3:19
#Project=	
#Sample=	
#Site=	
#Title=	Thy_20_09_45_2x_45s_532 nm_x100_100%_600 gr_mm
#Remark=	
#Date=	29.06.2022 13:49
#Acquired=	29.06.2022 13:49:06
#Base:Fit=	10.08.2022 09:52:02
#Base:Fit=	10.08.2022 09:52:12
#Base:Sub=	10.08.2022 09:54:21
#Filter:Polynom=	16.08.2022 10:24:04
#AxisType[0]=Intens
#AxisUnit[0]=Cnt
#AxisType[1]=Spectr
#AxisUnit[1]=1/cm
200.523	47.1044
202.339	43.0865
204.154	38.8457
205.967	36.6
207.781	34.1913
209.596	32.1453
211.409	30.2368
213.222	28.8727
215.034	28.4503
216.848	26.6907
218.659	25.6623
220.47	25.8
222.281	25.9322
224.091	24.6894
225.903	23.8475
227.713	23.4317
229.522	23.0899
231.331	22.4572
233.14	20.6341
234.948	20.1284
236.756	20.1163
238.566	18.584
240.373	18.2616
242.18	17.7898
243.986	17.1962
245.792	16.5055
247.598	15.5454
249.403	15.1229
251.208	14.0768
253.013	12.8727
254.818	12.6403
256.624	11.5426
258.427	11.5755
260.231	11.7999
262.034	10.7321
263.836	9.51656
265.638	8.73172
267.44	8.28052
269.242	7.43331
271.043	6.49506
272.844	5.54747
274.645	5.71516
276.445	5.56409
278.245	4.71283
280.044	3.46741
281.843	3.38034
283.642	3.01556
285.44	2.47037
287.238	2.30644
289.036	2.53157
290.833	3.55362
292.63	4.29583
294.425	4.22917
296.221	3.60663
298.017	4.26059
299.813	4.48099
301.608	5.542
303.403	6.92571
305.198	7.8732
306.992	7.82803
308.786	9.52402
310.579	10.5368
312.371	10.6915
314.163	11.0377
315.956	11.6023
317.748	12.3776
319.54	12.1628
321.331	12.0509
323.122	12.1291
324.911	12.9009
326.701	12.3585
328.491	11.8937
330.281	12.6379
332.071	11.9964
333.857	11.7063
335.646	11.3198
337.434	10.3868
339.222	9.7667
341.008	9.65331
342.795	9.8954
344.582	8.48915
346.369	7.82515
348.153	8.82396
349.939	7.9937
351.724	6.84753
353.51	6.61043
355.292	7.01612
357.077	6.38374
358.861	5.53065
360.643	5.47203
362.426	5.07974
364.21	4.73515
365.99	4.33323
367.773	3.57596
369.555	3.51869
371.335	3.36457
373.116	2.5102
374.897	2.73168
376.676	2.39896
378.456	2.60737
380.236	2.77549
382.014	2.45657
383.793	2.9666
385.57	3.23436
387.349	4.7473
389.127	5.3927
390.903	6.36592
392.681	6.37902
394.456	5.82995
396.233	6.53593
398.007	6.9415
399.784	6.90564
401.56	6.40048
403.333	6.69403
405.108	6.52712
406.881	6.52672
408.656	5.94709
410.428	6.12404
412.202	5.81423
413.973	5.61927
415.746	5.25814
417.517	5.90935
419.29	5.95141
421.06	6.23604
422.831	6.43875
424.601	6.3727
426.37	6.08356
428.141	6.30393
429.909	6.71459
431.679	5.71413
433.447	5.19986
435.216	6.1641
436.983	5.94809
438.75	5.04329
440.519	5.25329
442.285	5.84175
444.052	4.96968
445.818	4.24739
447.583	4.52529
449.349	4.91489
451.114	4.54362
452.878	4.19264
454.643	4.90623
456.407	4.3305
458.169	3.43712
459.934	3.12984
461.696	3.07797
463.458	3.7399
465.222	3.7754
466.983	4.56099
468.744	5.07912
470.507	5.75577
472.267	6.2591
474.027	5.20286
475.787	6.4954
477.548	7.47718
479.307	7.86537
481.065	8.38199
482.823	8.55752
484.583	9.31978
486.341	8.68537
488.098	8.58643
489.855	8.74781
491.612	9.17591
493.37	9.69105
495.126	10.2004
496.881	10.239
498.636	10.7258
500.391	11.4603
502.148	12.6942
503.902	12.5039
505.656	13.2414
507.409	13.5885
509.162	13.8482
510.915	13.7488
512.668	13.6601
514.42	13.4091
516.174	13.7204
517.925	12.8196
519.676	12.3151
521.427	12.2783
523.178	13.1946
524.928	13.1048
526.678	13.8995
528.427	13.9114
530.176	13.8413
531.925	13.0819
533.673	13.2343
535.422	13.3905
537.169	13.2853
538.917	12.6331
540.664	11.5713
542.411	11.1951
544.157	10.6935
545.903	10.7672
547.649	10.9077
549.395	10.8282
551.14	10.8505
552.884	10.5616
554.629	10.851
556.373	11.1761
558.117	11.0617
559.86	11.4818
561.603	11.0081
563.346	11.793
565.089	11.1283
566.831	8.88859
568.573	8.02018
570.314	7.07074
572.053	6.7647
573.794	6.24605
575.534	5.65742
577.274	5.94548
579.014	6.41506
580.754	7.22818
582.493	7.00758
584.23	6.67383
585.968	6.98081
587.706	7.00151
589.444	7.18332
591.181	6.44817
592.919	6.8304
594.653	7.06976
596.39	6.63387
598.126	6.86988
599.862	7.42191
601.595	7.89667
603.33	8.24955
605.065	7.70698
606.8	8.40416
608.532	9.70108
610.266	11.3553
611.999	12.3578
613.732	13.3901
615.463	13.3531
617.196	13.9067
618.928	14.3601
620.66	14.9964
622.389	15.0736
624.12	15.5171
625.851	15.4446
627.58	15.6742
629.31	16.7632
631.04	18.1248
632.767	18.1951
634.497	18.1041
636.223	18.7273
637.952	19.2323
639.68	19.7804
641.406	20.3918
643.134	20.1913
644.861	20.2516
646.586	20.55
648.312	19.878
650.037	20.5516
651.762	21.4977
653.486	22.5837
655.211	23.5316
656.936	25.1642
658.659	25.7948
660.383	26.9813
662.105	27.6814
663.829	28.7533
665.55	29.295
667.273	29.6993
668.994	30.0919
670.716	31.44
672.436	31.909
674.158	33.6703
675.877	34.7501
677.598	35.14
679.317	36.1472
681.035	36.2715
682.755	37.139
684.473	38.2752
686.192	39.5988
687.909	39.711
689.628	40.6657
691.344	41.6054
693.06	43.3345
694.778	44.7002
696.493	45.4316
698.211	45.7318
699.925	45.3458
701.64	44.8058
703.356	44.4612
705.07	44.5146
706.783	44.8318
708.498	44.7417
710.211	45.2312
711.924	45.3034
713.638	45.4026
715.35	45.4773
717.061	46.5717
718.774	46.4461
720.485	47.0439
722.196	47.819
723.906	48.3792
725.618	48.4779
727.328	48.266
729.037	48.1169
730.746	48.926
732.456	49.4456
734.165	49.7859
735.873	51.2879
737.58	51.7824
739.289	51.4509
740.997	51.9999
742.703	52.9866
744.41	52.9604
746.116	54.2192
747.823	53.4903
749.529	54.8414
751.234	56.7641
752.938	58.6783
754.643	60.144
756.347	62.464
758.051	63.4744
759.756	65.0324
761.459	65.1049
763.162	65.6971
764.865	66.8101
766.567	68.0995
768.269	70.2632
769.97	71.6803
771.671	73.1799
773.372	73.9234
775.073	76.0656
776.773	77.0266
778.473	77.8781
780.174	77.958
781.874	79.3133
783.573	79.5939
785.271	80.2943
786.97	79.7546
788.668	79.4667
790.365	80.3101
792.063	80.979
793.76	81.8431
795.456	82.5136
797.153	82.8349
798.847	83.0602
800.543	82.9602
802.238	83.6765
803.933	83.2464
805.628	83.1083
807.322	82.4169
809.017	82.2715
810.71	81.3232
812.404	80.0644
814.097	80.2045
815.79	80.1012
817.483	80.4598
819.173	79.7555
820.865	80.5181
822.556	80.0145
824.248	79.14
825.939	79.2696
827.629	78.6936
829.318	78.2864
831.008	78.7053
832.697	78.0494
834.387	78.7098
836.076	78.5003
837.765	78.0168
839.451	77.4944
841.139	77.4724
842.827	76.5061
844.514	76.2934
846.2	74.9848
847.886	74.3352
849.573	73.5562
851.259	73.0041
852.943	70.963
854.629	69.6869
856.314	68.1101
857.997	67.0247
859.682	66.3937
861.366	64.6605
863.05	63.4738
864.732	62.895
866.415	61.6419
868.098	59.8868
869.779	58.2823
871.461	55.7735
873.141	54.575
874.823	54.2148
876.505	53.4262
878.184	52.9857
879.865	51.8085
881.545	51.0113
883.223	50.273
884.903	50.1213
886.581	49.8303
888.26	49.0878
889.937	48.2073
891.616	47.4489
893.294	47.2851
894.97	47.0473
896.648	47.0969
898.323	48.3869
900	48.4486
901.675	49.2243
903.351	49.3671
905.026	49.568
906.701	49.0065
908.375	47.973
910.05	48.5347
911.723	48.3536
913.398	49.0509
915.07	49.0437
916.742	49.245
918.415	48.5757
920.087	49.1584
921.76	49.3085
923.43	48.9438
925.103	48.9694
926.773	48.1252
928.443	47.1762
930.114	45.5351
931.783	44.3367
933.454	43.2868
935.123	42.5577
936.791	42.135
938.461	41.809
940.128	40.1432
941.796	39.0799
943.464	38.1633
945.131	38.0326
946.797	37.8626
948.465	37.1716
950.131	35.7724
951.797	35.0215
953.462	33.8773
955.128	32.8147
956.793	32.5146
958.457	32.4688
960.121	31.4907
961.786	31.5086
963.45	30.4729
965.113	29.9065
966.775	29.503
968.44	29.2072
970.102	27.7528
971.763	27.3007
973.425	27.3934
975.086	28.3757
976.748	28.6478
978.409	28.9563
980.069	29.3473
981.729	29.8556
983.388	29.4183
985.048	28.9862
986.708	28.3144
988.367	27.12
990.025	26.671
991.683	26.1517
993.341	26.218
994.998	25.8836
996.655	26.2165
998.312	25.4085
999.969	24.9423
1001.62	24.5746
1003.28	25.1726
1004.94	25.3059
1006.59	24.9519
1008.25	25.1976
1009.9	24.384
1011.56	23.8529
1013.21	24.3887
1014.86	24.1292
1016.52	24.1126
1018.17	23.2694
1019.82	22.4477
1021.48	20.9669
1023.13	20.9741
1024.78	21.4263
1026.43	21.796
1028.08	22.3302
1029.73	21.9465
1031.38	21.2181
1033.03	21.4058
1034.68	20.7305
1036.33	20.1761
1037.98	19.643
1039.63	19.6564
1041.28	18.9388
1042.93	17.6037
1044.57	17.8612
1046.22	17.5339
1047.87	17.1593
1049.52	17.4096
1051.16	17.4728
1052.81	16.9921
1054.45	17.6309
1056.1	17.4385
1057.75	17.7805
1059.39	17.2765
1061.04	17.2954
1062.68	17.0146
1064.32	16.1232
1065.97	15.2172
1067.61	14.6896
1069.25	14.0533
1070.9	13.8936
1072.54	14.4355
1074.18	13.8345
1075.82	13.6735
1077.47	13.7788
1079.11	14.0889
1080.75	13.2522
1082.39	13.6016
1084.03	14.8611
1085.67	15.3009
1087.31	15.9139
1088.95	15.1802
1090.59	15.0262
1092.22	14.8583
1093.86	14.9604
1095.5	15.1116
1097.14	14.0925
1098.78	13.1489
1100.41	12.3382
1102.05	12.1262
1103.69	12.5299
1105.32	12.4393
1106.96	12.0701
1108.59	12.0801
1110.23	12.5311
1111.86	12.1938
1113.5	11.8233
1115.13	11.8121
1116.77	10.5478
1118.4	9.80238
1120.03	9.83977
1121.67	8.98443
1123.3	7.98201
1124.93	7.46491
1126.56	7.54382
1128.19	7.68338
1129.83	7.63252
1131.46	7.82806
1133.09	7.40462
1134.72	6.44566
1136.35	6.54034
1137.98	6.35539
1139.61	6.31334
1141.24	6.06439
1142.86	5.42917
1144.49	5.27172
1146.12	4.61642
1147.75	4.47481
1149.38	3.23305
1151	2.96093
1152.63	3.50134
1154.26	3.25882
1155.88	2.73369
1157.51	3.19777
1159.14	3.36977
1160.76	3.01111
1162.39	3.15104
1164.01	3.41969
1165.63	3.69139
1167.26	3.21713
1168.88	1.83043
1170.51	1.50412
1172.13	1.0382
1173.75	1.00144
1175.38	0.569374
1177	0.651431
1178.62	0.993341
1180.24	0.783047
1181.86	1.12473
1183.48	1.97966
1185.1	2.82
1186.72	3.20978
1188.34	4.28559
1189.96	4.58578
1191.58	5.00588
1193.2	4.65089
1194.82	5.55012
1196.44	5.95824
1198.06	6.70755
1199.68	7.51613
1201.29	8.79849
1202.91	9.57165
1204.53	10.886
1206.14	11.9999
1207.76	13.4429
1209.38	15.0116
1210.99	16.5396
1212.61	17.7501
1214.22	18.9246
1215.84	20.1275
1217.45	21.8729
1219.07	22.2288
1220.68	22.4468
1222.29	23.8569
1223.91	24.2417
1225.52	25.9583
1227.13	26.6869
1228.74	27.7644
1230.36	27.7078
1231.97	28.9158
1233.58	30.3442
1235.19	30.4451
1236.8	30.8473
1238.41	30.9658
1240.02	30.7551
1241.63	31.1799
1243.24	31.8895
1244.85	31.3892
1246.46	31.808
1248.07	30.8442
1249.67	30.9373
1251.28	31.3897
1252.89	31.1791
1254.5	32.1423
1256.1	32.1995
1257.71	32.8769
1259.32	33.6639
1260.92	33.864
1262.53	34.3037
1264.13	34.6924
1265.74	35.2793
1267.34	35.827
1268.95	35.8919
1270.55	35.6652
1272.15	35.9578
1273.76	36.7248
1275.36	37.5872
1276.97	38.6674
1278.57	40.0279
1280.17	40.3856
1281.77	40.867
1283.37	42.1918
1284.97	42.1419
1286.58	42.8529
1288.18	43.8176
1289.78	43.7878
1291.38	44.5709
1292.98	44.9876
1294.58	45.2032
1296.18	46.0198
1297.78	46.3766
1299.37	46.4255
1300.97	47.6789
1302.57	48.2857
1304.17	48.925
1305.77	50.5589
1307.36	50.1605
1308.96	49.8416
1310.55	49.6366
1312.15	50.2356
1313.75	51.3917
1315.34	51.4491
1316.94	51.994
1318.53	52.2253
1320.13	52.2926
1321.72	52.7588
1323.32	52.992
1324.91	53.3745
1326.5	53.1719
1328.1	53.0572
1329.69	53.8483
1331.28	53.5216
1332.87	53.3764
1334.47	53.412
1336.06	53.3745
1337.65	53.6073
1339.24	53.2771
1340.83	52.5235
1342.42	51.717
1344.01	50.7419
1345.6	49.8921
1347.19	48.9268
1348.78	46.8249
1350.37	46.567
1351.96	46.3139
1353.54	45.3353
1355.13	44.5534
1356.72	44.7037
1358.31	43.6785
1359.89	42.6804
1361.48	41.8496
1363.07	41.1147
1364.65	39.6524
1366.24	38.9216
1367.82	38.3178
1369.41	36.57
1370.99	36.3926
1372.58	36.0061
1374.16	35.3081
1375.75	35.0501
1377.33	34.0278
1378.91	33.7635
1380.5	33.5615
1382.08	32.5099
1383.66	33.0406
1385.25	32.7047
1386.83	31.9134
1388.41	31.7279
1389.99	32.1902
1391.57	33.3519
1393.15	33.5079
1394.73	32.889
1396.31	32.1133
1397.89	32.103
1399.47	32.2646
1401.05	32.3295
1402.63	32.9075
1404.21	32.6277
1405.78	31.9145
1407.36	31.9878
1408.94	32.2305
1410.52	31.6358
1412.1	31.6785
1413.67	32.3073
1415.25	32.9004
1416.82	32.5126
1418.4	33.3932
1419.98	33.842
1421.55	34.5725
1423.13	35.6532
1424.7	36.4846
1426.28	38.3361
1427.85	39.7223
1429.42	41.9244
1431	43.1609
1432.57	44.2793
1434.14	46.1944
1435.71	47.7157
1437.29	48.1269
1438.86	49.6553
1440.43	49.9028
1442	50.3993
1443.57	51.0876
1445.14	51.3664
1446.71	51.8148
1448.28	51.531
1449.85	51.8207
1451.42	51.9697
1452.99	51.8921
1454.56	51.2254
1456.13	50.1158
1457.7	50.2952
1459.26	49.9354
1460.83	49.3388
1462.4	48.6793
1463.97	47.8002
1465.54	46.8853
1467.1	46.0868
1468.67	44.9347
1470.23	43.7256
1471.8	41.9332
1473.36	40.4047
1474.93	38.9847
1476.49	37.5171
1478.06	35.0402
1479.62	33.1016
1481.19	32.1555
1482.75	30.4296
1484.31	28.5387
1485.88	28.043
1487.44	27.7559
1489	25.9606
1490.56	25.1779
1492.13	24.5898
1493.69	24.0209
1495.25	23.4056
1496.81	24.0021
1498.37	23.311
1499.93	23.1282
1501.49	22.8462
1503.05	21.9834
1504.61	22.137
1506.17	21.5745
1507.73	21.4209
1509.28	21.9481
1510.84	22.5115
1512.4	22.8978
1513.96	23.17
1515.52	23.3668
1517.07	23.7822
1518.63	24.3123
1520.19	25.3697
1521.74	26.2626
1523.3	26.5669
1524.85	27.0284
1526.41	27.3424
1527.96	27.929
1529.52	28.5361
1531.07	28.9765
1532.63	29.0156
1534.18	30.2996
1535.73	31.6826
1537.29	32.2517
1538.84	33.0399
1540.39	32.995
1541.94	34.397
1543.5	34.505
1545.05	35.653
1546.6	37.0829
1548.15	38.6741
1549.7	40.4491
1551.25	41.1892
1552.8	42.6302
1554.35	43.4925
1555.9	44.3139
1557.45	46.3686
1559	47.1402
1560.55	47.3082
1562.1	48.2265
1563.65	50.0979
1565.19	50.0203
1566.74	49.7475
1568.29	51.5013
1569.83	52.3024
1571.38	53.2283
1572.93	53.9147
1574.47	53.9633
1576.02	54.125
1577.56	54.394
1579.11	54.8728
1580.66	55.3652
1582.2	56.4003
1583.74	57.5293
1585.29	59.0548
1586.83	59.4771
1588.38	60.2825
1589.92	59.8991
1591.46	60.8097
1593.01	61.4095
1594.55	61.7936
1596.09	62.0822
1597.63	62.2794
1599.17	62.0351
1600.71	61.3883
1602.25	61.251
1603.79	60.7262
1605.34	60.541
1606.88	59.7024
1608.41	59.146
1609.95	57.6848
1611.49	56.6697
1613.03	55.1865
1614.57	54.9983
1616.11	54.2202
1617.65	53.3915
1619.18	53.8038
1620.72	52.7714
1622.26	52.9561
1623.79	52.7085
1625.33	52.5135
1626.87	52.057
1628.4	51.1535
1629.94	50.3475
1631.48	49.0192
1633.01	48.1094
1634.55	47.864
1636.08	47.1983
1637.61	47.4655
1639.15	47.3775
1640.68	47.2572
1642.21	47.0774
1643.75	47.0093
1645.28	47.3757
1646.81	46.9761
1648.34	46.728
1649.88	46.0579
1651.41	45.6926
1652.94	45.5606
1654.47	45.0656
1656	45.4643
1657.53	44.5603
1659.06	44.9416
1660.59	44.8784
1662.12	44.6812
1663.65	43.5445
1665.18	43.0541
1666.71	42.1597
1668.24	42.3039
1669.76	41.8584
1671.29	41.2708
1672.82	40.38
1674.35	39.9336
1675.87	39.1935
1677.4	38.3192
1678.93	37.4088
1680.45	35.1941
1681.98	33.5859
1683.5	31.8978
1685.03	29.8265
1686.55	28.3247
1688.08	27.29
1689.6	26.3154
1691.13	26.3129
1692.65	24.8178
1694.17	23.3018
1695.7	21.8336
1697.22	19.9557
1698.74	18.6796
1700.27	17.9159
1701.79	16.9251
1703.31	15.0948
1704.83	13.9098
1706.35	12.5046
1707.87	11.6906
1709.39	10.9963
1710.91	10.4127
1712.43	9.72134
1713.95	9.09913
1715.47	8.17203
1716.99	7.62415
1718.51	7.00392
1720.03	5.8579
1721.55	5.96021
1723.07	5.00915
1724.58	4.19067
1726.1	3.60481
1727.62	3.55812
1729.13	3.42398
1730.65	3.78275
1732.17	4.11232
1733.68	3.531
1735.2	4.24659
1736.72	3.64852
1738.23	3.22514
1739.74	3.39226
1741.26	4.11207
1742.77	4.39045
1744.29	5.1558
1745.8	5.93722
1747.32	5.44134
1748.83	5.49015
1750.34	5.91162
1751.85	6.33829
1753.37	5.63016
1754.88	5.39539
1756.39	5.07738
1757.9	5.88467
1759.41	6.18616
1760.92	6.12785
1762.44	6.58471
1763.95	6.50364
1765.46	6.93181
1766.96	7.08505
1768.47	6.39663
1769.98	6.17947
1771.49	6.20771
1773	6.29668
1774.51	6.45204
1776.02	6.78384
1777.53	6.1135
1779.03	5.48972
1780.54	5.52487
1782.05	5.58226
1783.55	5.62764
1785.06	5.5814
1786.57	5.27305
1788.07	4.99181
1789.58	4.92291
1791.08	4.4857
1792.59	4.81082
1794.09	5.46565
1795.6	5.91406
1797.1	6.5084
1798.61	6.49384
1800.11	7.47081
1801.61	7.7827
1803.12	8.52301
1804.62	9.00122
1806.12	9.73171
1807.62	9.8534
1809.12	10.2837
1810.63	10.6858
1812.13	11.0679
1813.63	11.0791
1815.13	11.8843
1816.63	12.0049
1818.13	11.7959
1819.63	11.8481
1821.13	11.3237
1822.63	10.0448
1824.13	9.83792
1825.63	9.97187
1827.13	9.73619
1828.62	9.45323
1830.12	9.70624
1831.62	9.86714
1833.12	9.48414
1834.61	9.3149
1836.11	9.21165
1837.61	9.20718
1839.1	9.44843
1840.6	9.42707
1842.09	9.51724
1843.59	9.78876
1845.09	9.13249
1846.58	8.28699
1848.08	8.08689
1849.57	7.51597
1851.06	7.06521
1852.56	6.22149
1854.05	5.49372
1855.54	4.59354
1857.04	3.91275
1858.53	3.06295
1860.02	2.9094
1861.51	2.04718
1863.01	2.42003
1864.5	3.09092
1865.99	3.70864
1867.48	4.53084
1868.97	4.71688
1870.46	4.10834
1871.95	4.70506
1873.44	4.84482
1874.93	5.55275
1876.42	5.61845
1877.91	6.28438
1879.4	6.89677
1880.89	6.81328
1882.37	6.51837
1882.46	6.8282
1883.95	6.54899
1885.45	6.27219
1886.94	6.47234
1888.43	6.6714
1889.93	6.41671
1891.42	6.33829
1892.91	6.86637
1894.41	7.73802
1895.9	8.46163
1897.39	9.62553
1898.88	10.3654
1900.37	10.0567
1901.86	10.728
1903.36	11.6192
1904.85	12.1674
1906.34	12.333
1907.83	12.746
1909.32	12.683
1910.81	12.4473
1912.29	12.439
1913.78	12.6614
1915.27	12.6477
1916.76	12.3839
1918.25	11.8184
1919.74	11.6498
1921.23	11.4793
1922.71	10.8584
1924.2	10.6336
1925.69	9.94521
1927.17	9.41325
1928.66	9.246
1930.15	9.31983
1931.63	9.34692
1933.12	9.18493
1934.6	9.13414
1936.09	9.27452
1937.57	9.21086
1939.06	8.99999
1940.54	8.77346
1942.02	8.10349
1943.51	7.53529
1944.99	7.13363
1946.47	7.11065
1947.96	7.03192
1949.44	6.73642
1950.92	6.65829
1952.4	6.49514
1953.88	5.3755
1955.37	5.02764
1956.85	5.00587
1958.33	4.58235
1959.81	4.77668
1961.29	4.71369
1962.77	4.68242
1964.25	5.40691
1965.73	6.11871
1967.21	6.98675
1968.69	6.81403
1970.16	6.33406
1971.64	6.03816
1973.12	6.11043
1974.6	6.53911
1976.08	6.5857
1977.55	6.64891
1979.03	6.44951
1980.51	6.38473
1981.98	6.09323
1983.46	6.16619
1984.94	6.49612
1986.41	6.95556
1987.89	7.54116
1989.36	7.70774
1990.84	7.52944
1992.31	8.00688
1993.79	8.13747
1995.26	8.0335
1996.73	8.63834
1998.21	8.87563
1999.68	8.41506
2001.15	8.52974
2002.63	9.04399
2004.1	9.09577
2005.57	9.25941
2007.04	9.39191
2008.51	10.055
2009.99	10.059
2011.46	9.71437
2012.93	8.66681
2014.4	8.33247
2015.87	7.4621
2017.34	7.37599
2018.81	7.54994
2020.28	7.91117
2021.75	7.75697
2023.21	7.38656
2024.68	7.15637
2026.15	6.37666
2027.62	5.95386
2029.09	6.2302
2030.56	6.5153
2032.02	6.28879
2033.49	5.98585
2034.96	5.58779
2036.42	5.58586
2037.89	5.74616
2039.36	5.43983
2040.82	4.93271
2042.29	4.50131
2043.75	4.80201
2045.22	4.6753
2046.68	5.0754
2048.14	5.0899
2049.61	4.24316
2051.07	4.51584
2052.54	5.24974
2054	4.71025
2055.46	4.9229
2056.93	5.49548
2058.39	5.90191
2059.85	6.08108
2061.31	6.61568
2062.77	6.52027
2064.23	6.48278
2065.7	7.45482
2067.16	7.67159
2068.62	7.54865
2070.08	8.02631
2071.54	8.27366
2073	8.5924
2074.46	9.07466
2075.92	9.39172
2077.38	9.22898
2078.83	9.44506
2080.29	9.25459
2081.75	8.58057
2083.21	8.11527
2084.67	7.39534
2086.12	7.6848
2087.58	8.24466
2089.04	8.5311
2090.49	8.96548
2091.95	9.04134
2093.41	9.23738
2094.86	9.66728
2096.32	8.96911
2097.77	8.86418
2099.23	8.6378
2100.68	9.57699
2102.14	9.53327
2103.59	9.1856
2105.05	8.9861
2106.5	8.94622
2107.95	9.23987
2109.41	10.0728
2110.86	10.5246
2112.31	10.8936
2113.76	10.6752
2115.21	10.7191
2116.67	10.8306
2118.12	10.9097
2119.57	11.657
2121.02	11.6093
2122.47	11.4511
2123.92	12.3131
2125.37	13.2133
2126.82	12.2219
2128.27	13.1613
2129.72	14.1228
2131.17	13.9702
2132.62	14.5146
2134.07	14.9478
2135.51	15.665
2136.96	16.86
2138.41	17.4901
2139.86	17.6958
2141.31	17.8244
2142.75	18.6831
2144.2	19.0591
2145.65	19.4176
2147.09	19.3769
2148.54	19.8372
2149.98	20.8455
2151.43	21.1872
2152.87	21.0855
2154.32	21.7705
2155.76	22.6336
2157.21	23.4648
2158.65	24.2332
2160.1	24.6752
2161.54	25.4425
2162.98	25.929
2164.43	27.136
2165.87	27.5741
2167.31	27.6155
2168.75	28.2354
2170.2	28.7908
2171.64	29.4417
2173.08	29.8638
2174.52	29.7334
2175.96	29.911
2177.4	30.0183
2178.84	30.4875
2180.28	30.6466
2181.72	30.5465
2183.16	29.5901
2184.6	28.8117
2186.04	27.961
2187.48	28.3583
2188.92	28.0767
2190.36	28.0537
2191.79	27.5431
2193.23	27.0964
2194.67	26.3076
2196.11	26.2385
2197.54	25.8554
2198.98	24.7738
2200.42	25.425
2201.85	25.1925
2203.29	23.5537
2204.72	23.1454
2206.16	22.6889
2207.59	21.9711
2209.03	20.6456
2210.46	19.5763
2211.9	18.6489
2213.33	18.413
2214.77	17.6203
2216.2	16.5079
2217.63	16.1125
2219.07	15.3332
2220.5	15.1359
2221.93	15.3914
2223.36	14.2769
2224.8	14.6125
2226.23	14.7567
2227.66	14.3161
2229.09	14.336
2230.52	14.2823
2231.95	14.0285
2233.39	13.8721
2234.81	13.7788
2236.25	14.0703
2237.67	13.8493
2239.1	13.3822
2240.53	13.2687
2241.96	12.7953
2243.39	12.4701
2244.82	12.4369
2246.25	12.1964
2247.68	12.2016
2249.1	11.9436
2250.53	12.2431
2251.96	11.736
2253.38	11.1896
2254.81	11.4745
2256.24	11.506
2257.66	12.0004
2259.09	12.6485
2260.51	11.9974
2261.94	12.3086
2263.36	12.2521
2264.79	12.4505
2266.21	12.3326
2267.64	12.6737
2269.06	12.5037
2270.49	11.8964
2271.91	11.4359
2273.33	10.4541
2274.76	9.73507
2276.18	9.79494
2277.6	9.77907
2279.02	9.09183
2280.44	9.07889
2281.87	8.89279
2283.29	8.39383
2284.71	8.42352
2286.13	7.89312
2287.55	8.10411
2288.97	8.42655
2290.39	7.51038
2291.81	7.44706
2293.23	7.72993
2294.65	7.43715
2296.07	7.94972
2297.49	7.48766
2298.91	7.63447
2300.33	7.58004
2301.74	7.7869
2303.16	7.37459
2304.58	7.12727
2306	6.84095
2307.41	6.8116
2308.83	6.23421
2310.25	5.53879
2311.66	5.95012
2313.08	6.1997
2314.5	6.23387
2315.91	6.06467
2317.33	5.86062
2318.74	6.25555
2320.16	5.98473
2321.57	6.02122
2322.98	5.81035
2324.4	5.89031
2325.81	6.11581
2327.23	5.2062
2328.64	5.14373
2330.05	5.29982
2331.46	5.17179
2332.88	5.30514
2334.29	5.24888
2335.7	5.38163
2337.11	4.81827
2338.52	4.02452
2339.94	3.66178
2341.35	3.19557
2342.76	2.97796
2344.17	3.39933
2345.58	3.25373
2346.99	3.05819
2348.4	2.95552
2349.81	2.41307
2351.22	2.08476
2352.62	1.93727
2354.03	1.48853
2355.44	1.21201
2356.85	0.692402
2358.26	0.383394
2359.67	-0.129331
2361.07	-0.645736
2362.48	0.155661
2363.89	0.808506
2365.29	0.884716
2366.7	1.0436
2368.11	1.10134
2369.51	1.38271
2370.92	1.13825
2372.32	1.09729
2373.73	0.971754
2375.13	1.2043
2376.54	1.20084
2377.94	1.28789
2379.35	1.57999
2380.75	1.43647
2382.15	2.27673
2383.56	2.41114
2384.96	2.44847
2386.36	2.12893
2387.76	2.71383
2389.17	3.04602
2390.57	2.56274
2391.97	2.34602
2393.37	2.2289
2394.77	2.11829
2396.17	1.88414
2397.58	1.72975
2398.98	1.96548
2400.38	2.16843
2401.78	2.19857
2403.18	1.87367
2404.58	2.10211
2405.97	2.16292
2407.37	1.90971
2408.77	1.45709
2410.17	2.04412
2411.57	2.03959
2412.97	2.19042
2414.37	2.48881
2415.76	2.22982
2417.16	2.04143
2418.56	2.12331
2419.95	1.68999
2421.35	1.7666
2422.75	1.72256
2424.14	1.17901
2425.54	1.3999
2426.93	1.38537
2428.33	1.63163
2429.72	1.80878
2431.12	1.93149
2432.51	2.4442
2433.91	3.09539
2435.3	2.97772
2436.7	3.04492
2438.09	2.91756
2439.48	2.89194
2440.88	2.88005
2442.27	2.84088
2443.66	3.44046
2445.05	3.46373
2446.44	3.2238
2447.84	3.60555
2449.23	3.5457
2450.62	3.33036
2452.01	3.76058
2453.4	3.24009
2454.79	2.93427
2456.18	2.78766
2457.57	2.94014
2458.96	2.68404
2460.35	2.23104
2461.74	2.09899
2463.13	1.99628
2464.52	1.78339
2465.91	1.37399
2467.29	0.967209
2468.68	0.436194
2470.07	0.1712
2471.46	-0.105039
2472.85	-0.0983194
2474.23	-0.0916968
2475.62	-0.12924
2477.01	-0.416278
2478.39	-0.470072
2479.78	0.342052
2481.16	0.331369
2482.55	0.107612
2483.93	0.319531
2485.32	0.247208
2486.7	0.658457
2488.09	1.25213
2489.47	1.25625
2490.86	1.98305
2492.24	2.15919
2493.62	2.49731
2495.01	2.60582
2496.39	2.55746
2497.77	3.34107
2499.15	3.66802
2500.54	4.3664
2501.92	4.95608
2503.3	4.86708
2504.68	4.46469
2506.06	4.62994
2507.45	4.56475
2508.83	5.13541
2510.21	5.37108
2511.59	5.35552
2512.97	5.77845
2514.35	5.41975
2515.73	5.27921
2517.11	5.03519
2518.48	4.71033
2519.86	4.93856
2521.24	4.86716
2522.62	4.76123
2524	4.40668
2525.38	4.37833
2526.75	4.23609
2528.13	4.34088
2529.51	4.02161
2530.89	3.90603
2532.26	3.42366
2533.64	3.03739
2535.02	2.09768
2536.39	1.78195
2537.77	1.80598
2539.14	1.63931
2540.52	1.76407
2541.89	2.25392
2543.27	2.44328
2544.64	2.69069
2546.01	2.0533
2547.39	2.50532
2548.76	2.33087
2550.14	2.22879
2551.51	2.1427
2552.88	2.40471
2554.25	2.74025
2555.63	3.23196
2557	3.74222
2558.37	3.802
2559.74	4.00414
2561.11	3.92971
2562.49	3.75789
2563.86	3.56642
2565.23	4.58675
2566.6	5.00419
2567.97	4.73855
2569.34	4.89964
2570.71	4.49696
2572.08	4.15186
2573.45	4.56949
2574.82	4.92455
2576.18	4.9528
2577.55	4.84683
2578.92	4.5432
2580.29	4.33842
2581.66	4.35242
2583.02	3.80825
2584.39	4.10034
2585.76	4.01018
2587.13	3.58026
2588.49	3.38619
2589.86	3.11337
2591.22	2.44974
2592.59	2.46971
2593.96	2.68007
2595.32	2.89529
2596.69	2.83671
2598.05	2.32453
2599.42	2.17433
2600.78	1.96756
2602.14	1.87474
2603.51	1.34657
2604.87	1.52
2606.23	1.8365
2607.6	1.97396
2608.96	2.18483
2610.32	2.39484
2611.69	2.06686
2613.05	1.72349
2614.41	1.06771
2615.77	1.16717
2617.13	1.29042
2618.49	1.26148
2619.86	1.16923
2621.22	1.34378
2622.58	1.36734
2623.94	1.63017
2625.3	1.28378
2626.66	1.13478
2628.02	1.23259
2629.37	1.61552
2630.73	1.62599
2632.09	2.47788
2633.45	2.98737
2634.81	2.51067
2636.17	2.82592
2637.53	3.1043
2638.88	3.47871
2640.24	4.02913
2641.6	4.06708
2642.96	3.46165
2644.31	3.42154
2645.67	3.11984
2647.02	3.4984
2648.38	3.33681
2649.74	3.34275
2651.09	3.24179
2652.45	3.48415
2653.8	3.17877
2655.16	2.69834
2656.51	3.37071
2657.86	3.27221
2659.22	3.21611
2660.57	3.93701
2661.93	3.71525
2663.28	3.83961
2664.63	3.97176
2665.98	3.86155
2667.34	4.29795
2668.69	4.43038
2670.04	4.19364
2671.39	4.58737
2672.75	5.12532
2674.09	5.95645
2675.45	5.87133
2676.8	5.22766
2678.15	5.37724
2679.5	4.94879
2680.85	5.15535
2682.2	5.20249
2683.55	5.78925
2684.9	6.0081
2686.25	5.60517
2687.6	5.61047
2688.94	5.37136
2690.29	5.08459
2691.64	5.67373
2692.99	5.73967
2694.34	6.65533
2695.68	7.0039
2697.03	7.06703
2698.38	7.66114
2699.73	8.23803
2701.07	8.59883
2702.42	8.96121
2703.76	9.27202
2705.11	9.4368
2706.45	9.79223
2707.8	9.41235
2709.15	9.14464
2710.49	9.37683
2711.83	10.0096
2713.18	9.9423
2714.52	10.4773
2715.87	10.4256
2717.21	10.727
2718.55	10.3491
2719.9	10.4594
2721.24	10.4824
2722.58	10.0251
2723.93	10.1202
2725.27	9.89843
2726.61	9.74296
2727.95	9.86923
2729.29	9.68772
2730.63	10.2181
2731.98	10.3899
2733.32	10.818
2734.66	10.7625
2736	10.9349
2737.34	11.4842
2738.68	11.6494
2740.02	11.5939
2741.36	10.8645
2742.7	10.0586
2744.03	9.94744
2745.37	10.2224
2746.71	9.90852
2748.05	10.2293
2749.39	9.97248
2750.72	9.37018
2752.06	8.76032
2753.4	8.10617
2754.74	8.39662
2756.07	8.49148
2757.41	8.46209
2758.75	8.74317
2760.08	8.39582
2761.42	8.16995
2762.76	8.18817
2764.09	8.25599
2765.42	8.60661
2766.76	8.24924
2768.09	7.88481
2769.43	7.87373
2770.76	7.21053
2772.1	7.10919
2773.43	6.82754
2774.76	6.20897
2776.1	5.88678
2777.43	5.91807
2778.76	5.47078
2780.1	5.2553
2781.43	4.58195
2782.76	3.52747
2784.09	2.77367
2785.42	2.23157
2786.75	2.0849
2788.09	1.43256
2789.42	1.18598
2790.75	0.998234
2792.08	1.40275
2793.41	1.38517
2794.74	1.79562
2796.07	2.24361
2797.4	2.39812
2798.73	2.45756
2800.06	2.35252
2801.39	1.50518
2802.71	1.70263
2804.04	1.53638
2805.37	0.904272
2806.7	1.02818
2808.03	0.770497
2809.35	0.985211
2810.68	0.99282
2812.01	0.653583
2813.33	0.656314
2814.66	1.01802
2815.99	1.02017
2817.31	1.12516
2818.64	1.71699
2819.96	2.24447
2821.29	3.638
2822.61	4.17004
2823.94	4.71687
2825.26	5.89274
2826.59	6.6393
2827.91	7.72825
2829.23	9.11315
2830.56	10.0979
2831.88	10.7506
2833.21	11.9869
2834.53	13.3479
2835.85	14.8858
2837.17	15.7931
2838.5	17.5444
2839.82	18.6927
2841.14	20.0049
2842.46	21.7526
2843.78	24.3314
2845.1	26.1975
2846.42	28.3126
2847.74	30.2091
2849.06	32.8735
2850.38	35.4677
2851.71	37.8345
2853.03	40.1682
2854.34	43.0785
2855.66	45.4689
2856.98	47.4892
2858.3	50.1395
2859.62	52.755
2860.94	55.0703
2862.26	56.7707
2863.57	58.3601
2864.89	60.6439
2866.21	62.1508
2867.53	64.6355
2868.84	66.9603
2870.16	68.5147
2871.48	69.9706
2872.79	71.0615
2874.11	71.6244
2875.42	72.3924
2876.74	73.6929
2878.05	74.9155
2879.37	75.9969
2880.68	76.8461
2882	77.9849
2883.31	79.1355
2884.63	79.9536
2885.94	81.3138
2887.26	82.4656
2888.57	83.5121
2889.88	83.9346
2891.19	84.8257
2892.51	85.3847
2893.82	86.4723
2895.13	87.4233
2896.44	88.3509
2897.76	89.6868
2899.07	91.901
2900.38	93.6949
2901.69	96.2114
2903	98.4854
2904.31	100.884
2905.62	102.815
2906.93	105.324
2908.24	107.852
2909.55	111.053
2910.86	114.141
2912.17	116.999
2913.48	119.617
2914.79	122.486
2916.1	124.723
2917.41	127.176
2918.71	129.91
2920.02	131.985
2921.33	133.328
2922.64	135.356
2923.94	137.122
2925.25	138.76
2926.56	139.533
2927.86	140.328
2929.17	141.555
2930.48	142.14
2931.78	141.998
2933.09	141.896
2934.39	141.018
2935.7	139.789
2937	139.005
2938.31	137.012
2939.61	135.307
2940.92	134.384
2942.22	132.992
2943.53	131.14
2944.83	129.073
2946.13	127.305
2947.43	125.161
2948.74	122.506
2950.04	120.438
2951.34	118.034
2952.64	114.95
2953.95	112.32
2955.25	109.598
2956.55	106.927
2957.85	104.585
2959.15	102.206
2960.45	99.6187
2961.75	97.3428
2963.05	95.1682
2964.35	93.0023
2965.65	90.2881
2966.95	87.844
2968.25	84.4802
2969.55	81.7144
2970.85	79.0364
2972.15	76.6255
2973.45	74.846
2974.75	73.055
2976.05	70.7297
2977.34	68.0716
2978.64	65.5379
2979.94	63.1134
2981.24	60.438
2982.53	57.9921
2983.83	55.4083
2985.13	52.0131
2986.42	49.7548
2987.72	47.5212
2989.01	45.14
2990.31	42.5924
2991.61	40.1862
2992.9	37.5333
2994.19	35.1771
2995.49	32.7091
2996.78	30.6539
2998.08	28.4133
2999.37	26.7267
3000.67	24.3283
3001.96	22.5706
3003.25	20.3715
3004.55	19.744
3005.84	18.8377
3007.13	17.2792
3008.42	16.4434
3009.72	15.254
3011.01	14.4441
3012.3	13.3425
3013.59	12.6407
3014.88	12.0872
3016.17	10.5962
3017.46	9.68886
3018.76	9.59706
3020.05	8.92276
3021.34	7.69991
3022.63	7.29316
3023.92	6.8748
3025.21	6.22598
3026.49	5.67978
3027.78	5.48979
3029.07	4.93349
3030.36	4.13811
3031.65	3.92873
3032.94	3.71353
3034.23	3.52474
3035.51	3.3133
3036.8	3.02942
3038.09	3.40205
3039.38	3.2176
3040.66	3.29929
3041.95	3.55958
3043.23	3.36513
3044.52	2.99914
3045.81	3.47694
3047.09	3.28001
3048.38	3.32769
3049.66	3.51795
3050.95	4.32903
3052.23	4.07834
3053.52	4.18542
3054.8	3.93656
3056.09	4.02764
3057.37	4.02452
3058.65	4.39416
3059.94	4.83453
3061.22	4.82285
3062.5	4.83696
3063.79	5.18325
3065.07	5.03617
3066.35	5.06712
3067.63	4.96815
3068.92	5.53786
3070.2	5.68898
3071.48	5.89874
3072.76	6.24285
3074.04	5.53421
3075.32	5.23686
3076.6	4.81717
3077.88	4.69563
3079.16	4.37881
3080.44	3.9923
3081.72	3.70226
3083	3.53709
3084.28	2.79486
3085.56	2.29864
3086.84	2.42392
3088.12	2.45565
3089.4	2.32578
3090.67	1.8475
3091.95	1.47962
3093.23	1.02966
3094.51	0.764763
3095.78	0.627405
3097.06	0.460232
3098.34	0.341366
3099.61	0.64468
3100.89	1.37574
3102.17	1.4069
3103.44	1.15866
3104.72	0.779873
3105.99	0.615629
3107.27	0.409659
3108.54	0.0220839
3109.82	0.151149
3111.09	0.232182
3112.37	0.679661
3113.64	1.39483
3114.92	1.48172
3116.19	1.76395
3117.46	2.31386
3118.74	2.57845
3120.01	2.95245
3121.28	3.37089
3122.55	3.63849
3123.83	3.89553
3125.1	3.92466
3126.37	4.36874
3127.64	4.62258
3128.91	4.56818
3130.19	5.00958
3131.46	5.77129
3132.73	6.48703
3134	6.82924
3135.27	6.59389
3136.54	6.83405
3137.81	6.87347
3139.08	7.34749
3140.35	7.68653
3141.62	7.90979
3142.89	8.08213
3144.16	8.38651
3145.42	8.86993
3146.69	9.37736
3147.96	9.97162
3149.23	10.2599
