#Acq. time (s)=	45
#Accumulations=	2
#Range (cm-¹)=	200...3150
#Windows=	2
#Auto scanning=	Off
#Autofocus=	Off
#Macrospot=	Off
#AutoExposure=	Off
#Spike filter=	Multiple accum.
#Delay time (s)=	0
#Binning=	1
#Readout mode=	Signal
#DeNoise=	Off
#ICS correction=	On
#Dark correction=	Off
#Inst. Process=	Off
#Detector Gain=	Best Dynamic Range
#Detector ADC=	20 kHz       
#Detector temperature (°C)=	-69.85
#Instrument=	LabRAM HR Evol
#Detector=	Synapse
#Objective=	x100
#Grating=	600 gr/mm
#ND Filter=	100%
#Laser (nm)=	532 
#Hole=	100.021
#Range=	Auto
#Laser Pol.=	No
#Raman. Pol.=	No
#Laser Pol. (°)=	-0.0007625
#Raman Pol. (°)=	89.9995
#Collection=	Microscope
#StageXY=	Marzhauser
#StageZ=	Marzhauser
#X (µm)=	-5890.3
#Y (µm)=	2884.7
#Z (µm)=	-223.4
#Full time(mm:ss)=	3:18
#Project=	
#Sample=	
#Site=	
#Title=	Thy_20_09_18_2x_45s_532 nm_x100_100%_600 gr_mm
#Remark=	
#Date=	29.06.2022 11:57
#Acquired=	29.06.2022 11:57:16
#Base:Fit=	10.08.2022 09:52:02
#Base:Fit=	10.08.2022 09:52:12
#Base:Sub=	10.08.2022 09:54:21
#Filter:Polynom=	16.08.2022 10:24:04
#AxisType[0]=Intens
#AxisUnit[0]=Cnt
#AxisType[1]=Spectr
#AxisUnit[1]=1/cm
200.523	-6.70756
202.339	-1.53979
204.154	1.03431
205.967	3.39017
207.781	5.04178
209.596	6.33241
211.409	7.46309
213.222	8.55016
215.034	9.49551
216.848	9.98758
218.659	10.7334
220.47	10.4154
222.281	9.92036
224.091	9.80673
225.903	10.4426
227.713	10.4405
229.522	11.295
231.331	11.3978
233.14	11.7331
234.948	11.859
236.756	11.729
238.566	12.2904
240.373	13.2752
242.18	13.7546
243.986	14.1643
245.792	15.1108
247.598	15.0521
249.403	14.8824
251.208	14.4417
253.013	15.6265
254.818	15.1519
256.624	14.552
258.427	14.1379
260.231	14.1769
262.034	14.0241
263.836	14.9321
265.638	14.8069
267.44	14.4422
269.242	13.4525
271.043	13.3737
272.844	13.0081
274.645	13.3011
276.445	13.6436
278.245	13.8115
280.044	13.7205
281.843	12.9998
283.642	12.73
285.44	12.2668
287.238	12.3841
289.036	11.924
290.833	11.2497
292.63	10.0457
294.425	9.15644
296.221	8.00035
298.017	7.9934
299.813	7.16337
301.608	6.29095
303.403	5.67904
305.198	5.8898
306.992	5.53818
308.786	5.20191
310.579	4.32075
312.371	4.58625
314.163	5.43991
315.956	5.23887
317.748	5.09575
319.54	5.08682
321.331	5.86195
323.122	6.23048
324.911	7.02539
326.701	7.10921
328.491	8.38622
330.281	8.80922
332.071	9.58506
333.857	9.78544
335.646	9.73225
337.434	9.19918
339.222	9.2027
341.008	9.08385
342.795	9.1366
344.582	8.74014
346.369	7.85098
348.153	8.06231
349.939	7.97747
351.724	7.891
353.51	8.63138
355.292	7.51776
357.077	6.69684
358.861	5.98392
360.643	6.87919
362.426	6.82351
364.21	6.21023
365.99	4.60049
367.773	4.61127
369.555	4.02783
371.335	4.36915
373.116	5.32019
374.897	4.0512
376.676	3.27182
378.456	2.91119
380.236	2.45099
382.014	2.09885
383.793	2.22113
385.57	3.05481
387.349	3.22576
389.127	2.68369
390.903	3.20268
392.681	3.73067
394.456	4.55377
396.233	3.69718
398.007	3.61653
399.784	3.41473
401.56	3.16215
403.333	3.47208
405.108	3.3262
406.881	4.51732
408.656	3.84821
410.428	4.89599
412.202	4.26318
413.973	4.81249
415.746	4.87918
417.517	5.84688
419.29	5.6551
421.06	5.88859
422.831	5.47691
424.601	6.15593
426.37	6.367
428.141	5.62927
429.909	5.54365
431.679	4.65684
433.447	4.48415
435.216	4.0887
436.983	4.75919
438.75	5.65113
440.519	5.65754
442.285	5.56337
444.052	5.09943
445.818	5.73732
447.583	6.17388
449.349	6.01694
451.114	5.29462
452.878	5.91259
454.643	6.75126
456.407	6.89636
458.169	6.90732
459.934	7.94893
461.696	7.78925
463.458	7.68585
465.222	8.74063
466.983	8.97333
468.744	8.32111
470.507	8.39624
472.267	9.04991
474.027	8.44858
475.787	7.71501
477.548	7.72748
479.307	8.33625
481.065	9.03507
482.823	9.22331
484.583	8.67476
486.341	8.40969
488.098	7.88621
489.855	7.93067
491.612	9.16965
493.37	9.71676
495.126	9.89016
496.881	9.42537
498.636	10.3011
500.391	10.9228
502.148	11.4702
503.902	11.9908
505.656	12.0826
507.409	12.7781
509.162	13.3701
510.915	14.7644
512.668	14.2518
514.42	13.4169
516.174	12.2861
517.925	13.1805
519.676	13.8322
521.427	14.7802
523.178	15.3676
524.928	15.8054
526.678	15.429
528.427	15.1301
530.176	14.7996
531.925	14.8043
533.673	13.984
535.422	13.2561
537.169	12.0784
538.917	11.5673
540.664	12.0798
542.411	11.6702
544.157	11.0718
545.903	11.4039
547.649	10.9769
549.395	10.6484
551.14	10.7128
552.884	10.1213
554.629	9.09103
556.373	8.54197
558.117	8.30218
559.86	7.65865
561.603	7.47336
563.346	7.0496
565.089	6.60328
566.831	6.1134
568.573	5.72586
570.314	4.72129
572.053	3.85721
573.794	3.29594
575.534	3.37003
577.274	3.64342
579.014	4.20121
580.754	3.93415
582.493	4.20925
584.23	3.92314
585.968	3.49673
587.706	3.31609
589.444	3.57893
591.181	3.89596
592.919	3.85876
594.653	4.23291
596.39	4.16292
598.126	4.60852
599.862	3.39258
601.595	4.17702
603.33	4.57567
605.065	6.29844
606.8	6.97442
608.532	7.46817
610.266	7.67837
611.999	8.31658
613.732	9.2362
615.463	10.4857
617.196	10.0969
618.928	10.5428
620.66	11.2338
622.389	11.6723
624.12	12.784
625.851	13.8658
627.58	14.9956
629.31	15.4857
631.04	15.6253
632.767	16.4157
634.497	16.8166
636.223	17.453
637.952	17.7715
639.68	17.7372
641.406	17.113
643.134	17.5688
644.861	17.2764
646.586	18.007
648.312	19.1326
650.037	18.3486
651.762	18.1885
653.486	18.4136
655.211	18.9455
656.936	18.5752
658.659	19.2227
660.383	19.1737
662.105	19.1202
663.829	19.9247
665.55	19.7141
667.273	19.1279
668.994	18.9999
670.716	18.3048
672.436	17.6169
674.158	17.4261
675.877	17.704
677.598	18.0613
679.317	18.4366
681.035	18.8655
682.755	19.5487
684.473	20.2744
686.192	21.0445
687.909	21.8246
689.628	22.3092
691.344	22.7624
693.06	22.9389
694.778	23.4042
696.493	23.6562
698.211	24.8365
699.925	25.4557
701.64	26.1294
703.356	25.6739
705.07	25.9108
706.783	26.7614
708.498	26.9346
710.211	28.2503
711.924	27.7834
713.638	28.995
715.35	29.1242
717.061	29.6824
718.774	30.4082
720.485	31.2701
722.196	32.5322
723.906	33.58
725.618	33.4938
727.328	34.2978
729.037	35.7077
730.746	36.0507
732.456	37.7878
734.165	38.4124
735.873	38.653
737.58	40.5199
739.289	42.1533
740.997	43.178
742.703	43.824
744.41	44.7196
746.116	45.2
747.823	46.2484
749.529	47.1731
751.234	47.8058
752.938	48.2192
754.643	50.051
756.347	50.7178
758.051	50.5096
759.756	50.9109
761.459	51.7679
763.162	53.5233
764.865	53.4927
766.567	54.0172
768.269	54.859
769.97	54.5419
771.671	54.9967
773.372	54.0626
775.073	54.7398
776.773	54.6583
778.473	55.2146
780.174	56.3482
781.874	57.2207
783.573	58.0326
785.271	58.9589
786.97	59.2368
788.668	59.1799
790.365	60.323
792.063	61.8642
793.76	62.4872
795.456	63.1532
797.153	63.377
798.847	64.4046
800.543	63.9107
802.238	64.5282
803.933	65.4497
805.628	66.0739
807.322	67.2093
809.017	67.7326
810.71	68.5153
812.404	69.1157
814.097	69.2829
815.79	69.3152
817.483	69.9432
819.173	69.9808
820.865	70.9577
822.556	71.4788
824.248	70.907
825.939	70.4789
827.629	69.6184
829.318	69.8418
831.008	69.7443
832.697	69.4523
834.387	68.9622
836.076	68.8847
837.765	68.1749
839.451	68.0676
841.139	66.1873
842.827	64.864
844.514	63.482
846.2	61.9141
847.886	60.6447
849.573	58.6279
851.259	56.8874
852.943	54.6464
854.629	52.5623
856.314	51.7695
857.997	50.2063
859.682	49.4348
861.366	48.1115
863.05	47.8414
864.732	47.6321
866.415	46.0467
868.098	45.4972
869.779	44.8546
871.461	44.3159
873.141	43.9788
874.823	43.0405
876.505	42.7493
878.184	42.2373
879.865	41.7626
881.545	41.1932
883.223	41.0979
884.903	41.3592
886.581	41.5304
888.26	42.2684
889.937	42.1739
891.616	41.4158
893.294	39.711
894.97	39.1084
896.648	38.7816
898.323	38.5463
900	38.5078
901.675	38.927
903.351	38.9434
905.026	38.4068
906.701	37.6677
908.375	37.2372
910.05	36.5852
911.723	35.5906
913.398	36.4188
915.07	35.8462
916.742	35.5488
918.415	35.7069
920.087	36.7585
921.76	36.7969
923.43	36.3458
925.103	35.1292
926.773	35.2728
928.443	35.0972
930.114	35.0335
931.783	35.8296
933.454	35.8098
935.123	34.2147
936.791	34.8385
938.461	35.3956
940.128	35.3613
941.796	35.3161
943.464	35.1625
945.131	35.5012
946.797	35.7059
948.465	36.138
950.131	35.9761
951.797	36.223
953.462	36.1765
955.128	36.331
956.793	36.1844
958.457	35.6112
960.121	35.4498
961.786	34.5136
963.45	33.952
965.113	34.0883
966.775	34.0364
968.44	33.1734
970.102	32.4351
971.763	32.7981
973.425	31.3983
975.086	30.6348
976.748	30.6329
978.409	31.1751
980.069	30.3793
981.729	29.617
983.388	28.6153
985.048	28.295
986.708	27.3297
988.367	25.8023
990.025	24.7061
991.683	23.6429
993.341	21.773
994.998	20.9737
996.655	20.9424
998.312	20.251
999.969	19.9574
1001.62	20.1278
1003.28	20.0727
1004.94	19.1831
1006.59	18.488
1008.25	18.0827
1009.9	18.839
1011.56	18.1783
1013.21	17.8906
1014.86	17.6056
1016.52	17.0685
1018.17	17.1389
1019.82	18.3109
1021.48	18.4828
1023.13	17.6734
1024.78	17.1154
1026.43	17.3282
1028.08	17.1762
1029.73	16.6815
1031.38	15.9525
1033.03	14.6673
1034.68	13.4269
1036.33	13.4944
1037.98	13.3388
1039.63	13.2979
1041.28	12.921
1042.93	12.7733
1044.57	11.9021
1046.22	11.5634
1047.87	11.4744
1049.52	10.2208
1051.16	9.94876
1052.81	11.1504
1054.45	11.7849
1056.1	10.9961
1057.75	11.2943
1059.39	10.8509
1061.04	10.2999
1062.68	9.49818
1064.32	9.32563
1065.97	8.15112
1067.61	7.6726
1069.25	6.15597
1070.9	4.67385
1072.54	3.46571
1074.18	2.77075
1075.82	2.85937
1077.47	3.00078
1079.11	3.97671
1080.75	4.21463
1082.39	4.12185
1084.03	4.47865
1085.67	5.35308
1087.31	5.56731
1088.95	5.16726
1090.59	6.07608
1092.22	6.63357
1093.86	7.29993
1095.5	7.70202
1097.14	8.06385
1098.78	8.89393
1100.41	8.88569
1102.05	8.93359
1103.69	8.59556
1105.32	8.3258
1106.96	8.86202
1108.59	9.69446
1110.23	9.31713
1111.86	9.67968
1113.5	9.03774
1115.13	9.17634
1116.77	10.0064
1118.4	10.0193
1120.03	9.94129
1121.67	9.54203
1123.3	8.48213
1124.93	7.93132
1126.56	6.767
1128.19	6.83102
1129.83	7.22201
1131.46	7.59193
1133.09	8.58749
1134.72	9.11032
1136.35	8.12748
1137.98	7.72077
1139.61	7.3205
1141.24	6.53238
1142.86	6.03019
1144.49	5.50086
1146.12	5.46393
1147.75	5.04682
1149.38	4.55564
1151	4.47303
1152.63	4.60552
1154.26	4.7542
1155.88	5.2976
1157.51	5.86321
1159.14	5.5453
1160.76	6.14
1162.39	5.71229
1164.01	5.66956
1165.63	6.16086
1167.26	6.025
1168.88	5.31328
1170.51	5.54552
1172.13	6.42672
1173.75	7.25472
1175.38	7.55751
1177	8.70431
1178.62	9.35176
1180.24	9.50696
1181.86	9.31882
1183.48	9.98012
1185.1	9.69097
1186.72	10.7741
1188.34	10.6386
1189.96	11.0552
1191.58	11.3102
1193.2	11.2409
1194.82	11.0258
1196.44	12.6759
1198.06	13.3613
1199.68	13.4632
1201.29	14.3781
1202.91	14.5767
1204.53	14.8046
1206.14	15.8587
1207.76	16.9517
1209.38	18.7251
1210.99	20.5953
1212.61	21.19
1214.22	21.8103
1215.84	21.707
1217.45	22.5901
1219.07	23.356
1220.68	23.8574
1222.29	24.4813
1223.91	25.0407
1225.52	25.5105
1227.13	26.7751
1228.74	28.5387
1230.36	30.0569
1231.97	30.9041
1233.58	31.3368
1235.19	31.7774
1236.8	32.5593
1238.41	33.8563
1240.02	34.4659
1241.63	35.4135
1243.24	35.7914
1244.85	36.2833
1246.46	36.0329
1248.07	36.3982
1249.67	38.031
1251.28	38.8827
1252.89	38.8033
1254.5	39.9448
1256.1	40.1844
1257.71	40.7897
1259.32	40.0853
1260.92	39.5898
1262.53	39.4271
1264.13	40.1338
1265.74	40.2537
1267.34	40.9572
1268.95	41.7353
1270.55	42.5561
1272.15	43.2198
1273.76	43.8313
1275.36	45.4088
1276.97	45.9814
1278.57	46.7346
1280.17	48.3024
1281.77	48.9951
1283.37	50.6474
1284.97	52.6627
1286.58	55.0662
1288.18	57.0072
1289.78	58.5092
1291.38	59.1746
1292.98	58.8038
1294.58	59.9705
1296.18	60.6323
1297.78	61.9236
1299.37	63.0959
1300.97	63.7511
1302.57	64.7535
1304.17	65.2698
1305.77	66.8702
1307.36	68.7903
1308.96	69.5935
1310.55	69.4642
1312.15	68.476
1313.75	68.8635
1315.34	69.4664
1316.94	70.4482
1318.53	69.9484
1320.13	69.582
1321.72	69.5109
1323.32	69.1625
1324.91	69.4618
1326.5	68.5078
1328.1	68.7743
1329.69	68.3187
1331.28	66.6489
1332.87	66.1887
1334.47	67.1234
1336.06	66.1604
1337.65	65.7092
1339.24	64.1743
1340.83	63.0543
1342.42	63.0294
1344.01	62.4979
1345.6	61.0712
1347.19	60.6239
1348.78	59.713
1350.37	58.487
1351.96	57.8064
1353.54	56.4785
1355.13	56.6221
1356.72	55.4699
1358.31	55.9674
1359.89	54.7235
1361.48	54.8421
1363.07	54.8226
1364.65	53.8851
1366.24	53.908
1367.82	52.9664
1369.41	51.6596
1370.99	50.4823
1372.58	49.6389
1374.16	48.908
1375.75	48.1681
1377.33	47.0046
1378.91	46.5149
1380.5	45.5781
1382.08	45.0207
1383.66	44.4021
1385.25	44.3975
1386.83	43.6886
1388.41	42.557
1389.99	42.0734
1391.57	41.152
1393.15	41.9493
1394.73	42.1027
1396.31	41.6707
1397.89	40.4315
1399.47	41.0999
1401.05	40.8347
1402.63	40.4381
1404.21	39.893
1405.78	38.9706
1407.36	40.0689
1408.94	40.1767
1410.52	40.664
1412.1	41.8305
1413.67	42.9662
1415.25	43.985
1416.82	44.2479
1418.4	44.6389
1419.98	46.5107
1421.55	48.1035
1423.13	49.0489
1424.7	50.5804
1426.28	52.472
1427.85	54.4946
1429.42	56.6362
1431	58.6616
1432.57	61.2886
1434.14	63.6042
1435.71	65.6486
1437.29	68.0535
1438.86	69.2982
1440.43	71.5163
1442	72.1696
1443.57	73.4941
1445.14	74.3481
1446.71	74.486
1448.28	74.5048
1449.85	74.9652
1451.42	74.3059
1452.99	73.9519
1454.56	73.5229
1456.13	73.1573
1457.7	73.1916
1459.26	70.952
1460.83	69.4299
1462.4	68.3826
1463.97	66.7245
1465.54	65.4016
1467.1	63.5519
1468.67	61.0124
1470.23	58.639
1471.8	56.7127
1473.36	54.1222
1474.93	50.6704
1476.49	47.9617
1478.06	45.736
1479.62	42.3576
1481.19	39.3258
1482.75	37.7338
1484.31	35.9448
1485.88	34.9301
1487.44	32.2481
1489	30.8854
1490.56	29.9362
1492.13	28.6108
1493.69	27.6255
1495.25	26.217
1496.81	25.856
1498.37	25.5383
1499.93	24.8424
1501.49	25.1313
1503.05	25.5659
1504.61	26.2856
1506.17	26.5355
1507.73	26.6956
1509.28	26.5893
1510.84	26.6522
1512.4	26.4705
1513.96	27.2883
1515.52	27.1703
1517.07	27.8879
1518.63	28.1452
1520.19	29.0856
1521.74	29.4587
1523.3	29.8623
1524.85	31.0499
1526.41	32.0944
1527.96	33.1192
1529.52	33.9567
1531.07	35.4167
1532.63	35.3069
1534.18	36.5008
1535.73	36.8519
1537.29	37.6275
1538.84	39.7243
1540.39	40.9307
1541.94	42.1352
1543.5	43.3144
1545.05	45.0366
1546.6	46.0849
1548.15	47.8279
1549.7	49.8018
1551.25	51.39
1552.8	52.4026
1554.35	54.0219
1555.9	55.0586
1557.45	56.7868
1559	58.8177
1560.55	60.9255
1562.1	61.4457
1563.65	62.7386
1565.19	64.1344
1566.74	66.0922
1568.29	68.3447
1569.83	69.1511
1571.38	70.6445
1572.93	71.6482
1574.47	72.9724
1576.02	74.6052
1577.56	75.2373
1579.11	76.7572
1580.66	77.5458
1582.2	78.5117
1583.74	78.9775
1585.29	79.4872
1586.83	79.8623
1588.38	80.9636
1589.92	81.9781
1591.46	81.9239
1593.01	82.0605
1594.55	81.9803
1596.09	81.2737
1597.63	81.3599
1599.17	79.9888
1600.71	79.5932
1602.25	78.602
1603.79	77.763
1605.34	76.2603
1606.88	74.9337
1608.41	72.9315
1609.95	70.6659
1611.49	69.699
1613.03	69.6727
1614.57	69.2946
1616.11	67.6699
1617.65	66.8826
1619.18	65.5012
1620.72	64.9743
1622.26	64.4592
1623.79	62.9597
1625.33	62.2595
1626.87	61.5838
1628.4	60.1906
1629.94	59.2622
1631.48	58.7108
1633.01	58.0529
1634.55	57.8144
1636.08	56.8445
1637.61	56.6164
1639.15	56.9254
1640.68	57.3374
1642.21	58.2913
1643.75	58.4834
1645.28	59.0585
1646.81	58.8681
1648.34	59.5944
1649.88	59.8604
1651.41	59.9399
1652.94	60.372
1654.47	59.9532
1656	60.7468
1657.53	60.8527
1659.06	60.5949
1660.59	59.311
1662.12	58.2741
1663.65	57.9289
1665.18	56.432
1666.71	54.6075
1668.24	52.9204
1669.76	52.7576
1671.29	51.6013
1672.82	50.0509
1674.35	48.8972
1675.87	46.7422
1677.4	45.6126
1678.93	43.4303
1680.45	42.0747
1681.98	40.2239
1683.5	38.027
1685.03	36.4801
1686.55	35.3066
1688.08	34.3694
1689.6	32.6905
1691.13	30.6579
1692.65	28.2781
1694.17	26.4454
1695.7	25.0992
1697.22	23.9575
1698.74	22.8542
1700.27	21.1544
1701.79	20.2154
1703.31	19.1147
1704.83	18.0064
1706.35	17.9444
1707.87	16.9293
1709.39	15.9646
1710.91	14.8841
1712.43	14.3674
1713.95	14.1454
1715.47	13.755
1716.99	12.3104
1718.51	12.5519
1720.03	11.9665
1721.55	11.9914
1723.07	11.4451
1724.58	10.9946
1726.1	10.3086
1727.62	10.1389
1729.13	10.0199
1730.65	8.59719
1732.17	8.62567
1733.68	7.33921
1735.2	7.01401
1736.72	6.2932
1738.23	6.04777
1739.74	6.11056
1741.26	5.09176
1742.77	5.46075
1744.29	5.52173
1745.8	5.933
1747.32	5.38498
1748.83	5.12908
1750.34	5.0807
1751.85	4.49267
1753.37	4.10539
1754.88	4.02397
1756.39	4.04643
1757.9	3.78652
1759.41	3.42915
1760.92	3.18065
1762.44	3.15925
1763.95	3.07959
1765.46	2.79059
1766.96	2.87696
1768.47	3.15491
1769.98	3.72248
1771.49	4.19814
1773	4.36764
1774.51	4.63309
1776.02	4.66494
1777.53	4.90185
1779.03	4.47891
1780.54	4.48428
1782.05	4.28148
1783.55	2.89207
1785.06	2.54987
1786.57	2.39361
1788.07	2.29654
1789.58	2.02378
1791.08	1.98514
1792.59	1.99861
1794.09	2.71086
1795.6	2.49753
1797.1	2.96425
1798.61	2.89275
1800.11	2.77434
1801.61	2.7837
1803.12	2.95994
1804.62	2.48782
1806.12	2.45206
1807.62	2.8349
1809.12	2.67184
1810.63	3.30614
1812.13	3.24837
1813.63	3.31116
1815.13	3.35621
1816.63	3.07658
1818.13	3.19836
1819.63	2.48559
1821.13	2.13614
1822.63	1.76573
1824.13	1.46395
1825.63	1.32074
1827.13	1.25404
1828.62	1.46466
1830.12	1.91422
1831.62	1.19833
1833.12	1.45532
1834.61	2.0482
1836.11	2.29813
1837.61	2.98987
1839.1	3.20956
1840.6	2.98323
1842.09	3.17448
1843.59	3.70988
1845.09	3.13532
1846.58	2.687
1848.08	2.6326
1849.57	2.7119
1851.06	2.79953
1852.56	2.51388
1854.05	2.64205
1855.54	2.88659
1857.04	3.03065
1858.53	2.35498
1860.02	2.82909
1861.51	3.32329
1863.01	3.22421
1864.5	3.85758
1865.99	3.77594
1867.48	4.00515
1868.97	3.99115
1870.46	4.09414
1871.95	4.31426
1873.44	4.20896
1874.93	4.6033
1876.42	4.73626
1877.91	4.93439
1879.4	4.27832
1880.89	4.2802
1882.37	4.34961
1882.46	4.16385
1883.95	3.97781
1885.45	3.45461
1886.94	3.01457
1888.43	2.4515
1889.93	2.43292
1891.42	1.79553
1892.91	1.46341
1894.41	1.69305
1895.9	2.35527
1897.39	2.47228
1898.88	2.57182
1900.37	2.48176
1901.86	2.73448
1903.36	2.72655
1904.85	2.90877
1906.34	3.38191
1907.83	3.38979
1909.32	2.84369
1910.81	2.95296
1912.29	2.79265
1913.78	2.6845
1915.27	2.88372
1916.76	2.71439
1918.25	2.837
1919.74	3.63047
1921.23	4.88867
1922.71	5.39442
1924.2	5.82245
1925.69	6.08607
1927.17	6.63689
1928.66	7.03337
1930.15	6.8003
1931.63	6.60063
1933.12	7.50047
1934.6	8.16536
1936.09	8.07667
1937.57	8.41167
1939.06	8.68997
1940.54	8.95866
1942.02	8.89378
1943.51	9.36524
1944.99	9.51465
1946.47	9.60233
1947.96	9.65235
1949.44	9.57185
1950.92	9.67464
1952.4	9.10586
1953.88	9.13933
1955.37	8.62984
1956.85	7.98261
1958.33	8.32987
1959.81	7.98495
1961.29	7.88733
1962.77	7.49332
1964.25	7.15726
1965.73	6.25132
1967.21	5.90146
1968.69	6.33845
1970.16	6.43048
1971.64	5.94771
1973.12	6.06868
1974.6	5.35488
1976.08	5.34288
1977.55	4.98127
1979.03	4.65022
1980.51	4.36691
1981.98	3.91877
1983.46	3.76027
1984.94	3.92918
1986.41	3.72928
1987.89	3.2752
1989.36	3.10859
1990.84	3.29453
1992.31	3.69371
1993.79	4.15587
1995.26	4.12347
1996.73	3.67774
1998.21	4.4267
1999.68	4.42973
2001.15	4.06649
2002.63	3.7993
2004.1	2.96567
2005.57	2.4332
2007.04	2.5234
2008.51	2.20496
2009.99	2.60188
2011.46	2.82029
2012.93	2.94747
2014.4	2.2563
2015.87	2.26075
2017.34	2.81505
2018.81	2.6654
2020.28	2.982
2021.75	3.13397
2023.21	3.58915
2024.68	2.84735
2026.15	2.16828
2027.62	2.11406
2029.09	1.69656
2030.56	2.07094
2032.02	2.60209
2033.49	2.32294
2034.96	1.70052
2036.42	1.25288
2037.89	1.2918
2039.36	1.87111
2040.82	3.02313
2042.29	3.53702
2043.75	3.71663
2045.22	3.88712
2046.68	3.73982
2048.14	3.44686
2049.61	3.65579
2051.07	3.84805
2052.54	3.55265
2054	3.54027
2055.46	3.53231
2056.93	3.8918
2058.39	3.70341
2059.85	3.47111
2061.31	3.93055
2062.77	4.7337
2064.23	4.90985
2065.7	5.44271
2067.16	6.17445
2068.62	6.21985
2070.08	6.93242
2071.54	6.92004
2073	6.24756
2074.46	5.65879
2075.92	5.65156
2077.38	5.32364
2078.83	5.66219
2080.29	6.65284
2081.75	7.21884
2083.21	7.96069
2084.67	7.80672
2086.12	7.85126
2087.58	8.09543
2089.04	8.86412
2090.49	9.17186
2091.95	9.23837
2093.41	8.76941
2094.86	9.00791
2096.32	8.90021
2097.77	9.0806
2099.23	9.26856
2100.68	9.71349
2102.14	9.67532
2103.59	10.1099
2105.05	10.3251
2106.5	10.6683
2107.95	10.2951
2109.41	11.0334
2110.86	11.3528
2112.31	11.7442
2113.76	11.2475
2115.21	10.5905
2116.67	11.2634
2118.12	10.9895
2119.57	11.2024
2121.02	11.6386
2122.47	12.0002
2123.92	12.4546
2125.37	12.2676
2126.82	13.4933
2128.27	13.7801
2129.72	13.8305
2131.17	14.4515
2132.62	15.3452
2134.07	15.8172
2135.51	16.1219
2136.96	16.9341
2138.41	18.247
2139.86	18.6565
2141.31	18.5431
2142.75	19.3956
2144.2	19.1335
2145.65	19.4079
2147.09	20.3574
2148.54	21.2761
2149.98	22.2167
2151.43	23.0175
2152.87	24.1734
2154.32	25.0493
2155.76	25.9822
2157.21	26.4491
2158.65	26.6821
2160.1	26.9787
2161.54	27.8098
2162.98	28.8383
2164.43	29.548
2165.87	29.5511
2167.31	30.9602
2168.75	31.1575
2170.2	32.0991
2171.64	32.0119
2173.08	31.9892
2174.52	31.434
2175.96	32.533
2177.4	32.5371
2178.84	32.0523
2180.28	31.4278
2181.72	31.2404
2183.16	30.4044
2184.6	29.8702
2186.04	29.6823
2187.48	29.6264
2188.92	29.625
2190.36	29.0129
2191.79	29.0489
2193.23	27.8801
2194.67	27.5749
2196.11	26.9379
2197.54	26.0271
2198.98	25.4848
2200.42	24.3902
2201.85	23.93
2203.29	23.4583
2204.72	22.4421
2206.16	21.4395
2207.59	21.2898
2209.03	20.4083
2210.46	19.6781
2211.9	17.9152
2213.33	16.6828
2214.77	16.1955
2216.2	15.1898
2217.63	14.4208
2219.07	14.1948
2220.5	13.571
2221.93	12.867
2223.36	12.2205
2224.8	11.9351
2226.23	11.7205
2227.66	11.3673
2229.09	10.6115
2230.52	9.99744
2231.95	9.69372
2233.39	10.1609
2234.81	9.50148
2236.25	8.82302
2237.67	8.36302
2239.1	7.98537
2240.53	7.13185
2241.96	6.93029
2243.39	6.40954
2244.82	6.29363
2246.25	5.96315
2247.68	6.45155
2249.1	5.35745
2250.53	4.79899
2251.96	4.71401
2253.38	4.28972
2254.81	4.5663
2256.24	5.05433
2257.66	5.38062
2259.09	5.08307
2260.51	5.46526
2261.94	5.62788
2263.36	5.67361
2264.79	5.25352
2266.21	5.6595
2267.64	5.60507
2269.06	5.57538
2270.49	5.98033
2271.91	6.25603
2273.33	6.04899
2274.76	5.79733
2276.18	5.61213
2277.6	5.80103
2279.02	5.66799
2280.44	4.85615
2281.87	4.56344
2283.29	3.734
2284.71	4.33329
2286.13	4.53856
2287.55	4.64979
2288.97	4.37033
2290.39	4.36357
2291.81	3.46527
2293.23	3.05454
2294.65	2.94577
2296.07	3.38895
2297.49	4.37576
2298.91	4.3585
2300.33	4.20162
2301.74	4.08369
2303.16	4.42346
2304.58	4.5971
2306	4.91269
2307.41	5.94184
2308.83	5.96075
2310.25	5.96095
2311.66	6.16527
2313.08	6.22169
2314.5	6.44161
2315.91	6.60313
2317.33	6.13773
2318.74	6.42379
2320.16	6.645
2321.57	6.66599
2322.98	6.61113
2324.4	6.91769
2325.81	7.325
2327.23	6.98808
2328.64	6.27724
2330.05	6.018
2331.46	6.28477
2332.88	6.23813
2334.29	6.05793
2335.7	6.15144
2337.11	6.6449
2338.52	6.56965
2339.94	6.4289
2341.35	5.80981
2342.76	5.43325
2344.17	5.11518
2345.58	5.02025
2346.99	4.54492
2348.4	3.82221
2349.81	3.33738
2351.22	2.75262
2352.62	2.44917
2354.03	2.43533
2355.44	2.09675
2356.85	0.866736
2358.26	0.430027
2359.67	-0.0423413
2361.07	-0.461542
2362.48	-0.580268
2363.89	0.529015
2365.29	0.823994
2366.7	1.97455
2368.11	2.10368
2369.51	1.73287
2370.92	1.12346
2372.32	1.2764
2373.73	1.18817
2375.13	1.20826
2376.54	1.45742
2377.94	1.16087
2379.35	1.00267
2380.75	0.983335
2382.15	1.01478
2383.56	1.19691
2384.96	1.74876
2386.36	1.48365
2387.76	1.37524
2389.17	1.65824
2390.57	1.46091
2391.97	0.94108
2393.37	0.894877
2394.77	0.937242
2396.17	0.762392
2397.58	0.677258
2398.98	0.773839
2400.38	1.65069
2401.78	1.92301
2403.18	1.94883
2404.58	2.62027
2405.97	2.76211
2407.37	3.03196
2408.77	2.96472
2410.17	3.91044
2411.57	4.1239
2412.97	4.87263
2414.37	5.25973
2415.76	5.59818
2417.16	5.85538
2418.56	6.07686
2419.95	6.56228
2421.35	5.91379
2422.75	6.43317
2424.14	6.94805
2425.54	6.57358
2426.93	6.48454
2428.33	6.434
2429.72	6.69512
2431.12	7.22183
2432.51	7.17992
2433.91	7.20246
2435.3	6.73538
2436.7	6.86129
2438.09	6.05023
2439.48	5.99305
2440.88	5.49824
2442.27	6.03649
2443.66	5.86392
2445.05	5.74248
2446.44	5.76554
2447.84	6.22086
2449.23	6.60803
2450.62	6.22397
2452.01	6.12209
2453.4	5.96263
2454.79	5.81691
2456.18	5.25812
2457.57	5.04382
2458.96	4.35356
2460.35	3.70612
2461.74	3.61653
2463.13	3.60478
2464.52	3.53233
2465.91	3.63029
2467.29	3.41247
2468.68	3.03323
2470.07	2.8867
2471.46	2.47219
2472.85	2.73428
2474.23	2.81772
2475.62	2.31191
2477.01	2.67783
2478.39	2.71223
2479.78	3.40439
2481.16	2.98265
2482.55	2.90164
2483.93	2.92175
2485.32	2.62199
2486.7	2.9274
2488.09	2.62359
2489.47	2.51942
2490.86	2.32453
2492.24	2.8393
2493.62	2.59642
2495.01	2.18072
2496.39	2.00168
2497.77	2.09782
2499.15	2.50933
2500.54	2.61975
2501.92	2.40907
2503.3	3.15748
2504.68	3.60078
2506.06	3.96598
2507.45	4.28253
2508.83	4.53587
2510.21	4.58931
2511.59	4.50641
2512.97	4.62431
2514.35	4.93984
2515.73	5.5036
2517.11	5.54835
2518.48	5.38889
2519.86	5.40713
2521.24	5.36179
2522.62	5.26521
2524	4.90291
2525.38	4.53366
2526.75	4.69483
2528.13	4.31163
2529.51	4.5022
2530.89	3.96988
2532.26	3.71721
2533.64	3.76732
2535.02	3.30618
2536.39	2.80197
2537.77	2.62052
2539.14	2.88504
2540.52	2.90481
2541.89	2.90465
2543.27	2.96652
2544.64	2.87726
2546.01	3.35211
2547.39	3.50237
2548.76	4.14097
2550.14	4.29798
2551.51	4.40378
2552.88	3.9754
2554.25	3.95237
2555.63	4.20382
2557	3.83987
2558.37	3.69362
2559.74	3.34533
2561.11	3.85684
2562.49	3.97019
2563.86	4.04237
2565.23	4.07199
2566.6	3.99881
2567.97	4.03646
2569.34	4.77336
2570.71	4.98982
2572.08	4.98724
2573.45	4.56385
2574.82	4.50289
2576.18	4.75557
2577.55	4.55224
2578.92	4.49534
2580.29	4.87228
2581.66	5.32348
2583.02	5.14074
2584.39	5.15224
2585.76	5.11141
2587.13	5.08803
2588.49	4.74976
2589.86	4.58003
2591.22	4.71979
2592.59	5.04097
2593.96	5.59444
2595.32	5.69456
2596.69	5.62022
2598.05	5.74163
2599.42	5.78147
2600.78	6.59911
2602.14	6.79332
2603.51	6.5415
2604.87	6.76389
2606.23	7.194
2607.6	7.84276
2608.96	7.89961
2610.32	7.84529
2611.69	7.57668
2613.05	7.73319
2614.41	8.23287
2615.77	8.04753
2617.13	8.10718
2618.49	7.71354
2619.86	7.11573
2621.22	6.32945
2622.58	6.12111
2623.94	6.18699
2625.3	5.58677
2626.66	5.41411
2628.02	5.25477
2629.37	5.96827
2630.73	5.43475
2632.09	5.79185
2633.45	5.43538
2634.81	5.17473
2636.17	5.63385
2637.53	5.90985
2638.88	5.28567
2640.24	5.61799
2641.6	5.36084
2642.96	5.31329
2644.31	5.20568
2645.67	4.88317
2647.02	4.80208
2648.38	4.91895
2649.74	4.09026
2651.09	3.98968
2652.45	4.43097
2653.8	4.47889
2655.16	4.15817
2656.51	4.36186
2657.86	4.87775
2659.22	5.08674
2660.57	5.12284
2661.93	4.9848
2663.28	4.71563
2664.63	4.98395
2665.98	4.73624
2667.34	4.95311
2668.69	4.88524
2670.04	5.01154
2671.39	5.25242
2672.75	5.67669
2674.09	5.61665
2675.45	5.85219
2676.8	5.79702
2678.15	5.46934
2679.5	5.58479
2680.85	5.89396
2682.2	6.52819
2683.55	6.58259
2684.9	6.85799
2686.25	6.94201
2687.6	6.61985
2688.94	6.61056
2690.29	6.85183
2691.64	7.44976
2692.99	7.45981
2694.34	8.12331
2695.68	8.6199
2697.03	9.24494
2698.38	9.11797
2699.73	10.1135
2701.07	10.043
2702.42	10.3248
2703.76	10.9218
2705.11	10.8995
2706.45	10.9056
2707.8	11.8261
2709.15	11.6403
2710.49	11.7772
2711.83	12.7212
2713.18	13.3517
2714.52	13.076
2715.87	13.0138
2717.21	12.7756
2718.55	13.3786
2719.9	13.6201
2721.24	13.1708
2722.58	12.9493
2723.93	13.2705
2725.27	12.9062
2726.61	12.7037
2727.95	13.0007
2729.29	12.8108
2730.63	12.8993
2731.98	12.5941
2733.32	12.6385
2734.66	12.5444
2736	12.848
2737.34	12.7451
2738.68	12.4206
2740.02	12.0467
2741.36	11.6363
2742.7	11.1764
2744.03	10.881
2745.37	10.0864
2746.71	9.95639
2748.05	9.594
2749.39	9.51909
2750.72	9.15543
2752.06	8.8375
2753.4	8.33378
2754.74	8.42872
2756.07	8.19506
2757.41	7.99382
2758.75	7.90545
2760.08	7.84777
2761.42	7.89526
2762.76	8.18057
2764.09	8.43084
2765.42	8.61227
2766.76	9.12684
2768.09	8.44045
2769.43	7.91431
2770.76	8.5808
2772.1	8.29711
2773.43	8.53137
2774.76	8.93352
2776.1	8.76441
2777.43	8.69206
2778.76	8.46364
2780.1	7.46329
2781.43	6.726
2782.76	6.16728
2784.09	5.99277
2785.42	6.11632
2786.75	5.81047
2788.09	5.07833
2789.42	4.79503
2790.75	4.67364
2792.08	4.38833
2793.41	4.65558
2794.74	4.48225
2796.07	4.09666
2797.4	4.2765
2798.73	3.96242
2800.06	3.80183
2801.39	3.32718
2802.71	3.18992
2804.04	2.56862
2805.37	2.41388
2806.7	1.71098
2808.03	0.772065
2809.35	0.319597
2810.68	0.405122
2812.01	-0.0320775
2813.33	0.110775
2814.66	0.138001
2815.99	0.638755
2817.31	1.45168
2818.64	1.24735
2819.96	1.87175
2821.29	3.0509
2822.61	4.20213
2823.94	5.47602
2825.26	6.94405
2826.59	8.36233
2827.91	10.0047
2829.23	11.595
2830.56	13.5016
2831.88	15.1879
2833.21	16.7635
2834.53	18.7284
2835.85	21.0372
2837.17	23.5861
2838.5	25.2534
2839.82	27.7387
2841.14	30.041
2842.46	31.802
2843.78	33.8798
2845.1	36.4199
2846.42	39.3618
2847.74	42.3532
2849.06	44.6666
2850.38	48.1012
2851.71	51.0631
2853.03	54.0349
2854.34	56.2856
2855.66	59.5809
2856.98	62.8416
2858.3	65.9302
2859.62	69.0865
2860.94	71.8019
2862.26	74.2017
2863.57	76.7861
2864.89	78.7387
2866.21	80.7639
2867.53	82.7232
2868.84	84.803
2870.16	86.8812
2871.48	88.5951
2872.79	90.1203
2874.11	91.2402
2875.42	93.2782
2876.74	95.0515
2878.05	97.2037
2879.37	98.7632
2880.68	100.294
2882	102.673
2883.31	104.331
2884.63	105.621
2885.94	107.427
2887.26	109.33
2888.57	111.343
2889.88	112.265
2891.19	113.903
2892.51	115.243
2893.82	117.261
2895.13	118.891
2896.44	121.292
2897.76	122.947
2899.07	124.793
2900.38	127.009
2901.69	129.391
2903	132.521
2904.31	135.537
2905.62	138.852
2906.93	141.711
2908.24	144.814
2909.55	148.85
2910.86	152.459
2912.17	155.486
2913.48	158.807
2914.79	161.893
2916.1	165.114
2917.41	167.788
2918.71	171.034
2920.02	173.118
2921.33	175.651
2922.64	177.114
2923.94	178.525
2925.25	179.612
2926.56	179.83
2927.86	179.936
2929.17	180.366
2930.48	179.807
2931.78	179.527
2933.09	179.156
2934.39	179.131
2935.7	178.25
2937	177.346
2938.31	175.905
2939.61	174.127
2940.92	172.586
2942.22	170.192
2943.53	168.386
2944.83	165.76
2946.13	163.249
2947.43	160.63
2948.74	157.084
2950.04	153.689
2951.34	150.505
2952.64	147.266
2953.95	143.801
2955.25	140.187
2956.55	137.248
2957.85	133.923
2959.15	131.011
2960.45	128.299
2961.75	125.697
2963.05	122.703
2964.35	120.588
2965.65	118.053
2966.95	115.534
2968.25	112.428
2969.55	109.346
2970.85	106.938
2972.15	103.772
2973.45	101.425
2974.75	98.6304
2976.05	95.3454
2977.34	92.6148
2978.64	90.0322
2979.94	86.5816
2981.24	83.4482
2982.53	80.1487
2983.83	77.108
2985.13	72.8072
2986.42	68.9768
2987.72	65.3625
2989.01	62.2643
2990.31	58.5535
2991.61	55.0018
2992.9	51.5917
2994.19	48.681
2995.49	46.1734
2996.78	43.5525
2998.08	41.3639
2999.37	39.1476
3000.67	36.8522
3001.96	34.8228
3003.25	32.2464
3004.55	29.9318
3005.84	27.6674
3007.13	25.6093
3008.42	24.3671
3009.72	22.5094
3011.01	21.0163
3012.3	19.7288
3013.59	17.9434
3014.88	16.6497
3016.17	16.0324
3017.46	15.2078
3018.76	14.1414
3020.05	13.6127
3021.34	13.3585
3022.63	12.9478
3023.92	12.4824
3025.21	12.348
3026.49	12.1554
3027.78	11.5899
3029.07	11.4439
3030.36	10.7913
3031.65	10.4544
3032.94	10.7149
3034.23	10.9303
3035.51	11.0332
3036.8	10.8584
3038.09	11.407
3039.38	11.3225
3040.66	11.5189
3041.95	11.9466
3043.23	12.0241
3044.52	12.0696
3045.81	12.4314
3047.09	12.4686
3048.38	12.85
3049.66	12.9971
3050.95	13.5418
3052.23	13.7177
3053.52	13.7127
3054.8	13.4861
3056.09	13.9526
3057.37	14.2336
3058.65	14.6405
3059.94	14.7144
3061.22	14.7475
3062.5	14.6876
3063.79	14.5802
3065.07	13.823
3066.35	12.7584
3067.63	12.3727
3068.92	11.8759
3070.2	11.2045
3071.48	10.7023
3072.76	10.488
3074.04	9.72112
3075.32	9.46067
3076.6	8.44468
3077.88	8.22631
3079.16	7.48584
3080.44	6.78866
3081.72	5.71029
3083	4.66086
3084.28	4.65202
3085.56	4.21605
3086.84	3.22933
3088.12	2.53944
3089.4	2.45325
3090.67	2.10045
3091.95	1.26756
3093.23	0.982253
3094.51	0.548323
3095.78	0.24154
3097.06	0.241414
3098.34	0.583238
3099.61	1.0801
3100.89	0.991169
3102.17	1.00831
3103.44	1.18623
3104.72	1.75672
3105.99	2.56567
3107.27	2.91164
3108.54	3.02147
3109.82	3.43996
3111.09	4.05868
3112.37	4.47022
3113.64	4.90737
3114.92	5.59417
3116.19	5.84295
3117.46	6.16532
3118.74	6.88186
3120.01	7.60408
3121.28	8.00386
3122.55	8.36639
3123.83	9.01193
3125.1	9.71364
3126.37	9.60352
3127.64	10.1871
3128.91	10.2955
3130.19	11.1246
3131.46	12.2532
3132.73	12.685
3134	13.1849
3135.27	13.907
3136.54	14.5104
3137.81	15.0611
3139.08	15.8881
3140.35	16.0972
3141.62	16.6599
3142.89	16.8966
3144.16	17.716
3145.42	18.5453
3146.69	19.4231
3147.96	20.3093
3149.23	21.9704
