#Acq. time (s)=	45
#Accumulations=	2
#Range (cm-¹)=	200...3150
#Windows=	2
#Auto scanning=	Off
#Autofocus=	Off
#Macrospot=	Off
#AutoExposure=	Off
#Spike filter=	Multiple accum.
#Delay time (s)=	0
#Binning=	1
#Readout mode=	Signal
#DeNoise=	Off
#ICS correction=	On
#Dark correction=	Off
#Inst. Process=	Off
#Detector Gain=	Best Dynamic Range
#Detector ADC=	20 kHz       
#Detector temperature (°C)=	-69.85
#Instrument=	LabRAM HR Evol
#Detector=	Synapse
#Objective=	x100
#Grating=	600 gr/mm
#ND Filter=	100%
#Laser (nm)=	532 
#Hole=	100.021
#Range=	Auto
#Laser Pol.=	No
#Raman. Pol.=	No
#Laser Pol. (°)=	-0.0007625
#Raman Pol. (°)=	89.9995
#Collection=	Microscope
#StageXY=	Marzhauser
#StageZ=	Marzhauser
#X (µm)=	-2366.9
#Y (µm)=	231.2
#Z (µm)=	521
#Full time(mm:ss)=	3:18
#Project=	
#Sample=	
#Site=	
#Title=	Thy_10_08_39_2x_45s_532 nm_x100_100%_600 gr_mm
#Remark=	
#Date=	06.07.2022 14:33
#Acquired=	06.07.2022 14:33:54
#Base:Fit=	10.08.2022 09:46:25
#Base:Sub=	10.08.2022 09:46:49
#Filter:Polynom=	16.08.2022 10:24:56
#AxisType[0]=Intens
#AxisUnit[0]=Cnt
#AxisType[1]=Spectr
#AxisUnit[1]=1/cm
200.398	9.59944
202.213	10.9578
204.027	8.30818
205.843	8.09286
207.657	7.37652
209.47	6.88198
211.283	6.28865
213.097	6.18867
214.909	5.9333
216.721	5.37493
218.533	4.01037
220.344	2.91242
222.157	1.95877
223.967	0.962672
225.777	1.58284
227.587	1.40559
229.396	0.681891
231.205	1.0575
233.016	1.51602
234.824	2.99502
236.632	3.35217
238.439	2.76592
240.247	2.78688
242.053	2.8353
243.86	3.27579
245.666	3.28746
247.474	3.38798
249.279	3.26198
251.085	3.71906
252.889	3.72657
254.694	5.11902
256.498	5.88085
258.301	5.97637
260.105	6.43759
261.908	6.75549
263.71	7.12946
265.513	6.8057
267.315	7.50415
269.116	7.94561
270.918	9.52398
272.718	9.5575
274.519	9.8642
276.319	10.4072
278.119	9.67373
279.918	10.1521
281.718	9.41955
283.516	9.13369
285.315	8.12788
287.113	7.92507
288.911	8.41057
290.708	7.3081
292.505	7.40409
294.302	8.66371
296.098	7.96741
297.894	8.33817
299.69	8.04377
301.485	9.08195
303.278	9.4148
305.073	9.03438
306.867	8.60073
308.661	8.57006
310.454	9.03523
312.247	9.68198
314.04	9.58907
315.833	9.38339
317.623	9.81857
319.415	9.61174
321.206	9.84281
322.997	9.99993
324.788	10.7814
326.579	10.0433
328.367	9.82411
330.156	11.0724
331.946	10.4147
333.735	10.389
335.523	10.167
337.31	10.9364
339.098	11.9098
340.885	13.0695
342.673	13.7585
344.458	14.1987
346.244	14.3999
348.03	14.1041
349.816	13.4811
351.6	12.7613
353.385	12.7145
355.17	12.7299
356.953	12.4491
358.737	11.4019
360.521	12.2239
362.304	10.6001
364.085	9.80771
365.868	9.03192
367.65	8.58187
369.431	8.27998
371.212	7.30357
372.994	7.58812
374.773	8.4607
376.554	9.02594
378.332	9.26432
380.112	8.33786
381.892	8.87627
383.669	9.95893
385.448	10.5723
387.225	10.2425
389.003	10.4966
390.781	11.1327
392.557	10.3419
394.334	10.5988
396.109	10.61
397.885	10.3639
399.66	9.27328
401.436	9.04369
403.211	8.78587
404.984	9.58595
406.759	10.8541
408.532	9.99603
410.306	10.8923
412.078	11.6455
413.851	13.2532
415.623	13.8776
417.395	14.1043
419.166	15.4078
420.938	15.3836
422.708	16.3733
424.477	17.1712
426.248	17.4945
428.017	17.7774
429.788	17.4205
431.556	17.5497
433.326	17.3046
435.093	17.05
436.86	15.8889
438.629	15.6274
440.395	16.6335
442.163	16.6913
443.929	16.8721
445.694	17.1065
447.461	17.0325
449.226	17.4775
450.99	16.6826
452.756	16.0881
454.52	16.9078
456.285	17.0511
458.048	16.3683
459.811	16.3165
461.573	16.5089
463.337	16.7418
465.099	16.2012
466.86	16.6463
468.623	15.8251
470.384	15.9459
472.144	15.706
473.906	15.6361
475.666	14.7365
477.425	15.189
479.184	16.3307
480.944	16.2734
482.703	16.4153
484.461	15.8267
486.218	15.9082
487.975	17.3757
489.734	17.7799
491.491	19.4242
493.247	20.5163
495.003	21.0951
496.759	21.7801
498.516	23.1775
500.271	23.7963
502.025	25.4815
503.779	25.6725
505.533	26.7424
507.287	28.4183
509.042	28.7549
510.795	29.2546
512.547	29.7374
514.299	29.6808
516.051	29.9358
517.803	29.9224
519.554	28.8536
521.305	28.5312
523.055	29.0072
524.805	29.1851
526.555	29.7509
528.307	28.8898
530.056	28.4512
531.805	28.4168
533.553	28.6144
535.301	28.4042
537.049	27.3714
538.797	27.1682
540.544	26.2095
542.291	26.3198
544.037	25.0837
545.783	23.825
547.529	22.7561
549.275	21.6753
551.02	21.1711
552.765	20.8269
554.509	20.9312
556.253	20.8349
557.997	20.758
559.738	21.0154
561.482	20.7481
563.224	19.664
564.967	19.8789
566.709	19.4556
568.451	18.1281
570.192	17.6076
571.933	16.979
573.674	17.2427
575.415	16.81
577.153	14.8287
578.893	15.4267
580.632	14.8654
582.371	14.2339
584.11	13.7755
585.849	13.3627
587.587	13.8792
589.323	13.615
591.06	13.1394
592.797	13.2823
594.534	12.6496
596.271	11.8146
598.005	11.036
599.741	9.28103
601.476	9.28814
603.211	9.19189
604.944	10.0221
606.679	9.90466
608.413	11.0303
610.147	11.602
611.878	11.7263
613.611	12.0594
615.344	12.281
617.077	13.0085
618.807	13.9485
620.539	14.4678
622.27	14.151
623.999	14.4808
625.73	14.5512
627.461	14.6479
629.189	15.0383
630.919	15.5117
632.648	16.8157
634.376	17.6102
636.105	18.8078
637.833	19.8014
639.559	20.2659
641.287	21.177
643.013	22.662
644.74	23.0535
646.467	23.8214
648.192	22.9756
649.918	22.9235
651.642	22.9571
653.368	22.6051
655.091	22.0661
656.816	21.8085
658.538	21.5248
660.263	21.4131
661.987	20.1457
663.708	20.0202
665.432	20.6849
667.153	21.3135
668.875	21.0978
670.596	22.1118
672.318	23.016
674.037	24.4694
675.759	23.8163
677.478	24.2557
679.196	24.8474
680.917	25.5461
682.635	26.2006
684.355	27.6527
686.072	28.5218
687.791	29.8988
689.508	30.6484
691.224	31.9009
692.942	31.7284
694.658	32.7783
696.376	33.1121
698.091	33.3302
699.805	33.9634
701.522	34.4506
703.236	34.6446
704.95	36.4748
706.665	36.3643
708.379	38.0002
710.093	38.5694
711.806	38.8436
713.518	40.0757
715.23	40.8494
716.943	42.807
718.655	43.6513
720.366	43.7216
722.078	44.1213
723.788	44.3404
725.498	46.0711
727.208	47.3147
728.919	48.2603
730.628	48.5686
732.337	48.2512
734.045	48.3239
735.755	49.0334
737.463	48.8779
739.17	48.7378
740.877	48.3511
742.584	49.3487
744.292	49.908
745.998	50.1804
747.704	50.5156
749.409	51.8848
751.114	53.2922
752.819	54.3986
754.526	55.8213
756.23	57.5974
757.934	58.1215
759.637	58.9953
761.34	59.3724
763.043	60.2785
764.746	61.3935
766.448	62.9424
768.152	64.1257
769.853	64.6072
771.554	65.3868
773.255	65.3929
774.956	66.5005
776.656	66.7168
778.356	67.7619
780.056	69.1713
781.755	69.216
783.454	70.4462
785.153	70.8613
786.851	72.3456
788.549	74.5896
790.247	76.4547
791.944	77.5664
793.641	79.332
795.338	80.2253
797.034	81.2575
798.73	82.7156
800.426	84.452
802.121	85.5505
803.817	84.9992
805.511	85.7857
807.206	85.9326
808.9	86.6261
810.592	86.8887
812.286	86.6204
813.979	86.8741
815.672	86.8826
817.364	86.2581
819.057	86.9811
820.748	86.3874
822.44	86.2037
824.129	86.3401
825.82	86.4781
827.511	86.3757
829.201	85.2427
830.891	85.3719
832.581	84.8223
834.269	85.342
835.958	84.718
837.646	84.3726
839.335	83.9977
841.023	83.5255
842.709	82.67
844.396	81.9137
846.084	81.0467
847.77	79.7338
849.455	78.372
851.141	77.0206
852.827	75.6568
854.513	74.0131
856.196	72.191
857.881	70.9472
859.566	70.6114
861.248	70.5235
862.932	70.5471
864.616	69.9599
866.297	69.1475
867.98	68.7634
869.663	68.4737
871.343	69.5436
873.026	69.3309
874.707	68.1692
876.387	67.1725
878.068	66.6657
879.747	66.6733
881.428	66.2522
883.108	66.5528
884.786	66.5063
886.465	66.3539
888.143	64.8023
889.822	64.2785
891.498	63.7239
893.177	62.8245
894.855	62.1027
896.53	63.5617
898.208	64.1426
899.883	64.2761
901.56	64.2015
903.234	64.5297
904.91	64.595
906.584	65.1617
908.26	64.7503
909.933	64.205
911.608	63.9702
913.28	62.9621
914.955	63.2408
916.627	62.0549
918.298	62.4875
919.972	60.5635
921.643	61.2807
923.315	59.9305
924.986	59.9166
926.656	58.6687
928.328	57.4449
929.997	57.0299
931.668	56.7287
933.337	55.6223
935.006	55.2394
936.676	53.9476
938.344	52.7844
940.012	52.474
941.681	53.5278
943.348	53.7493
945.014	53.7693
946.683	52.9635
948.349	52.131
950.015	51.0922
951.682	50.5915
953.347	50.1417
955.012	49.2638
956.676	47.3784
958.343	45.5428
960.006	44.215
961.67	45.4977
963.333	45.9658
964.998	46.1184
966.661	46.5677
968.323	46.96
969.985	47.069
971.649	46.8955
973.31	47.6064
974.971	48.7095
976.632	48.2301
978.293	49.032
979.953	50.0747
981.615	49.191
983.274	47.804
984.933	47.9368
986.592	48.9326
988.251	48.7241
989.909	47.9514
991.567	47.2665
993.225	47.5757
994.884	47.723
996.541	48.1568
998.198	49.3439
999.855	49.0965
1001.51	49.0995
1003.17	48.6498
1004.82	49.2647
1006.48	48.4305
1008.13	48.771
1009.79	48.8953
1011.44	49.3449
1013.1	49.6072
1014.75	48.815
1016.4	47.2861
1018.06	46.0352
1019.71	45.0824
1021.36	46.0668
1023.01	46.1651
1024.66	45.6473
1026.32	44.4624
1027.97	41.9487
1029.62	40.514
1031.27	38.6052
1032.92	37.3223
1034.57	36.4353
1036.22	35.256
1037.87	33.5671
1039.52	32.6231
1041.16	32.2862
1042.81	32.3534
1044.46	32.525
1046.11	31.0582
1047.76	29.8899
1049.4	29.7717
1051.05	29.1404
1052.7	28.2756
1054.34	27.5931
1055.99	26.1205
1057.63	24.0826
1059.28	21.5915
1060.92	20.4526
1062.57	19.8861
1064.21	17.8942
1065.85	17.32
1067.5	17.6811
1069.14	17.3371
1070.78	17.201
1072.43	17.0016
1074.07	17.7576
1075.71	18.6703
1077.35	18.3846
1078.99	18.6531
1080.63	17.5237
1082.27	17.909
1083.91	18.5767
1085.55	18.9173
1087.19	19.5654
1088.83	20.3237
1090.47	21.0235
1092.11	21.6897
1093.75	21.7186
1095.39	21.2504
1097.03	21.1825
1098.66	21.3179
1100.3	21.9308
1101.94	22.9534
1103.57	23.4062
1105.21	22.6393
1106.84	22.8059
1108.48	22.3071
1110.11	22.2414
1111.75	22.3587
1113.38	22.1245
1115.02	23.2347
1116.65	23.1358
1118.29	23.2234
1119.92	22.3822
1121.55	22.5086
1123.19	21.4601
1124.82	20.747
1126.45	19.3668
1128.08	18.6554
1129.71	19.2889
1131.34	18.6593
1132.97	18.2837
1134.6	17.9165
1136.23	18.0878
1137.86	17.5371
1139.49	16.8298
1141.12	16.8443
1142.75	16.9576
1144.38	17.3693
1146.01	16.0832
1147.64	15.9657
1149.26	15.8035
1150.89	15.8539
1152.52	15.4481
1154.15	14.3645
1155.77	13.6876
1157.4	13.0188
1159.02	11.6922
1160.65	11.5504
1162.27	11.6842
1163.9	12.1352
1165.52	11.777
1167.15	11.8812
1168.77	12.3735
1170.39	12.2012
1172.02	12.245
1173.64	12.9224
1175.26	12.9404
1176.89	12.6644
1178.51	12.9558
1180.13	13.258
1181.75	14.3673
1183.37	14.9748
1184.99	16.0132
1186.61	15.8166
1188.23	16.4148
1189.85	16.4944
1191.47	18.2273
1193.09	19.6069
1194.71	21.2476
1196.33	22.9071
1197.94	23.2356
1199.56	24.6722
1201.18	25.3562
1202.8	26.5944
1204.41	27.734
1206.03	28.3823
1207.65	29.5078
1209.26	31.5325
1210.88	34.3622
1212.49	35.8615
1214.11	37.9575
1215.72	39.9542
1217.34	42.0431
1218.95	43.391
1220.57	44.1718
1222.18	45.2404
1223.79	46.6557
1225.41	48.1145
1227.02	47.8406
1228.63	49.7269
1230.24	50.4148
1231.85	50.6231
1233.47	51.0979
1235.08	52.7795
1236.69	53.454
1238.3	55.1915
1239.91	56.4651
1241.52	57.9381
1243.13	58.9218
1244.74	59.8385
1246.34	60.3921
1247.95	61.2019
1249.56	61.1893
1251.17	61.4982
1252.78	62.0589
1254.38	62.186
1255.99	61.6656
1257.6	62.0628
1259.2	62.1825
1260.81	62.2297
1262.42	63.3915
1264.02	62.8733
1265.63	62.6876
1267.23	63.3267
1268.84	64.5369
1270.44	65.765
1272.04	67.1999
1273.65	67.5856
1275.25	67.5769
1276.85	68.6931
1278.46	69.0165
1280.06	69.8802
1281.66	70.419
1283.26	71.9071
1284.86	73.055
1286.46	74.1117
1288.07	75.3481
1289.67	76.3234
1291.27	77.5035
1292.87	76.9366
1294.47	77.5826
1296.06	79.036
1297.66	80.1712
1299.26	80.6988
1300.86	81.2392
1302.46	81.8221
1304.06	82.4589
1305.65	83.7889
1307.25	84.9347
1308.85	85.9788
1310.44	86.9184
1312.04	88.3482
1313.64	89.7537
1315.23	91.2071
1316.83	91.3849
1318.42	91.7187
1320.02	91.9227
1321.61	92.0116
1323.2	91.9397
1324.8	91.4959
1326.39	90.0469
1327.99	89.887
1329.58	88.9911
1331.17	87.8191
1332.76	87.3366
1334.36	85.5005
1335.95	84.0306
1337.54	82.5751
1339.13	81.3394
1340.72	79.6241
1342.31	77.9496
1343.9	75.8972
1345.49	75.0687
1347.08	74.3251
1348.67	72.1072
1350.26	71.3887
1351.85	70.2022
1353.43	68.6953
1355.02	66.8005
1356.61	66.2717
1358.2	64.471
1359.78	62.9568
1361.37	61.1345
1362.96	59.9376
1364.54	57.7202
1366.13	56.3292
1367.71	54.4076
1369.3	53.0598
1370.88	51.8301
1372.47	49.8999
1374.05	49.5638
1375.64	48.7033
1377.22	48.1362
1378.8	46.7717
1380.39	46.2203
1381.97	45.5626
1383.55	45.9327
1385.13	45.3714
1386.72	44.8444
1388.3	43.7585
1389.88	44.5142
1391.46	43.9262
1393.04	43.8091
1394.62	43.6385
1396.2	42.7085
1397.78	42.4057
1399.36	41.7114
1400.94	41.0563
1402.52	41.8666
1404.1	42.0095
1405.68	42.2443
1407.25	44.1717
1408.83	44.9918
1410.41	45.5081
1411.98	47.1191
1413.56	48.0334
1415.14	50.1421
1416.71	52.36
1418.29	54.4931
1419.87	56.7138
1421.44	60.2625
1423.02	64.6972
1424.59	68.7818
1426.16	72.0549
1427.74	74.5153
1429.31	78.4852
1430.89	81.8133
1432.46	84.8044
1434.03	87.4501
1435.6	90.2827
1437.18	91.8696
1438.75	93.7868
1440.32	95.3291
1441.89	97.279
1443.46	98.158
1445.03	98.7471
1446.6	99.0984
1448.17	99.3835
1449.74	98.7232
1451.31	97.3148
1452.88	96.28
1454.45	94.3226
1456.02	92.2111
1457.59	89.9944
1459.16	88.1493
1460.72	85.7339
1462.29	83.3416
1463.86	79.1904
1465.43	76.6633
1466.99	72.6314
1468.56	68.4885
1470.13	63.232
1471.69	59.2778
1473.26	54.7646
1474.82	49.9178
1476.38	46.2502
1477.95	41.5755
1479.51	38.037
1481.08	35.4216
1482.64	31.6526
1484.2	29.0315
1485.77	26.6
1487.33	23.2929
1488.89	20.7142
1490.46	18.0066
1492.02	16.3922
1493.58	15.1461
1495.14	14.1196
1496.7	13.5048
1498.26	13.5396
1499.82	14.0117
1501.38	13.7297
1502.94	13.0857
1504.5	12.8222
1506.06	12.9636
1507.62	14.1403
1509.18	14.2333
1510.73	13.3753
1512.29	13.5964
1513.85	14.0905
1515.41	14.477
1516.96	15.8492
1518.52	17.2966
1520.08	18.2132
1521.63	19.6147
1523.19	20.7913
1524.75	23.063
1526.3	24.8478
1527.85	26.3285
1529.41	28.5913
1530.96	29.5213
1532.52	30.7037
1534.07	32.4276
1535.62	33.8904
1537.18	35.9877
1538.73	37.2169
1540.28	37.9279
1541.84	38.6113
1543.39	40.4234
1544.94	41.5962
1546.49	43.111
1548.04	45.4315
1549.59	47.6419
1551.14	48.087
1552.69	48.2824
1554.25	50.0762
1555.79	51.2647
1557.34	52.3423
1558.89	53.9262
1560.44	54.7263
1561.99	56.2244
1563.54	56.9082
1565.08	58.3503
1566.63	58.7442
1568.18	59.3122
1569.73	61.5933
1571.27	62.9625
1572.82	64.8141
1574.37	66.4979
1575.91	67.8041
1577.46	68.4834
1579	69.0687
1580.55	69.3038
1582.09	70.3547
1583.64	70.7075
1585.18	71.6779
1586.73	72.1542
1588.27	72.6317
1589.81	74.0179
1591.35	74.7051
1592.9	74.5371
1594.44	75.5424
1595.98	75.5978
1597.52	74.8905
1599.06	74.9611
1600.61	74.6244
1602.15	74.4661
1603.69	73.624
1605.23	73.0163
1606.77	71.8075
1608.31	70.5519
1609.85	70.2893
1611.39	69.4612
1612.93	68.8968
1614.46	68.832
1616	68.0723
1617.54	67.8691
1619.08	68.8148
1620.61	68.8476
1622.15	69.301
1623.69	69.0847
1625.23	69.0597
1626.76	68.7149
1628.3	67.975
1629.83	68.4652
1631.37	69.8448
1632.9	69.8479
1634.44	70.0324
1635.97	72.1706
1637.51	74.4143
1639.04	76.5896
1640.57	78.3041
1642.11	79.5341
1643.64	79.8816
1645.17	81.8784
1646.71	83.3711
1648.24	84.5804
1649.77	86.3426
1651.3	86.8622
1652.83	87.8751
1654.36	88.0067
1655.89	88.5138
1657.42	88.5235
1658.96	89.1764
1660.48	88.4057
1662.01	88.1946
1663.54	87.0371
1665.07	85.7161
1666.6	84.6307
1668.13	82.6336
1669.66	80.5876
1671.19	78.8707
1672.71	76.7847
1674.24	74.9558
1675.77	72.6124
1677.29	70.7194
1678.82	68.0608
1680.35	65.3446
1681.87	62.843
1683.4	60.2627
1684.92	57.168
1686.45	53.2807
1687.97	49.0921
1689.5	46.4343
1691.02	43.7573
1692.54	41.5021
1694.07	38.4125
1695.59	35.3335
1697.11	31.8175
1698.64	28.9639
1700.16	26.032
1701.68	23.8664
1703.2	21.5389
1704.72	19.0644
1706.25	17.9716
1707.77	15.6636
1709.29	14.0089
1710.81	13.5981
1712.33	13.0667
1713.85	12.2433
1715.37	10.8881
1716.89	10.0221
1718.41	9.02717
1719.92	7.74854
1721.44	8.20787
1722.96	7.78158
1724.48	8.0391
1725.99	7.62362
1727.51	7.261
1729.03	7.15541
1730.55	6.17194
1732.06	6.26506
1733.58	6.36358
1735.09	6.62502
1736.61	7.07071
1738.13	7.33283
1739.64	7.49534
1741.15	7.40023
1742.67	6.93971
1744.18	6.54986
1745.7	6.63751
1747.21	6.66218
1748.72	7.29456
1750.24	6.15678
1751.75	5.76471
1753.26	5.48042
1754.77	5.1399
1756.29	4.5227
1757.8	5.02374
1759.31	5.2007
1760.82	4.45043
1762.33	3.74559
1763.84	3.56011
1765.35	3.84081
1766.86	3.9181
1768.37	3.2142
1769.88	2.40311
1771.39	2.13293
1772.9	1.94097
1774.4	1.59337
1775.91	1.77717
1777.42	1.82785
1778.93	1.46462
1780.44	0.980243
1781.94	1.16582
1783.45	0.769746
1784.96	1.40354
1786.46	1.52673
1787.97	1.58884
1789.47	2.02904
1790.98	2.18506
1792.48	2.59671
1793.99	2.68321
1795.49	2.26751
1797	2.96285
1798.5	2.79769
1800.01	2.87062
1801.51	2.98674
1803.01	3.88399
1804.51	3.91926
1806.02	3.59668
1807.52	3.73803
1809.02	3.92995
1810.52	3.8464
1812.02	3.25275
1813.52	2.01997
1815.02	1.9862
1816.53	1.16438
1818.03	0.28287
1819.52	0.444393
1821.02	0.266848
1822.52	0.221645
1824.02	-0.278082
1825.52	-0.838474
1827.02	0.330732
1828.52	0.358684
1830.02	0.824551
1831.51	0.796722
1833.01	1.33062
1834.51	1.42477
1836.01	0.959516
1837.5	1.10624
1839	1.41211
1840.49	1.92154
1841.99	2.04832
1843.49	2.12731
1844.98	2.93475
1846.48	3.20236
1847.97	3.2227
1849.47	3.75519
1850.96	3.9156
1852.45	3.83977
1853.95	3.249
1855.44	3.26578
1856.93	3.65395
1858.42	3.53931
1859.92	3.42995
1861.41	3.6708
1862.9	3.56309
1864.39	3.76247
1865.88	3.47913
1867.38	3.29997
1868.87	3.50551
1870.36	3.14434
1871.85	3.86984
1873.34	3.8567
1874.83	4.37159
1876.32	4.96757
1877.81	5.09821
1879.29	4.54414
1880.78	4.42792
1882.27	4.93828
1882.53	5.34026
1884.03	4.7489
1885.52	4.48764
1887.01	5.18028
1888.51	5.63959
1890	5.34261
1891.5	4.86565
1892.99	5.37743
1894.48	5.49501
1895.97	5.56816
1897.47	5.32466
1898.96	5.57501
1900.45	6.06337
1901.94	6.08849
1903.43	5.65148
1904.92	5.63253
1906.41	6.00833
1907.9	5.92214
1909.39	5.69187
1910.88	5.64919
1912.37	6.06735
1913.86	5.88659
1915.35	5.91072
1916.84	6.52489
1918.33	6.69031
1919.81	6.65989
1921.3	6.47917
1922.79	6.58584
1924.28	5.87165
1925.76	5.80944
1927.25	6.59452
1928.73	6.48215
1930.22	6.42795
1931.71	6.56574
1933.19	6.34385
1934.68	6.97397
1936.16	5.81021
1937.65	6.05781
1939.13	5.78062
1940.62	5.93235
1942.1	5.94229
1943.58	6.00359
1945.07	6.39598
1946.55	6.06368
1948.03	6.35007
1949.51	6.37073
1951	6.46982
1952.48	6.60039
1953.96	6.80348
1955.44	6.74124
1956.92	6.26095
1958.4	5.59162
1959.88	5.91812
1961.36	6.23819
1962.84	5.27273
1964.32	4.69099
1965.8	4.69566
1967.28	5.00641
1968.76	4.81521
1970.24	4.41128
1971.72	4.30325
1973.2	4.05127
1974.67	4.23164
1976.15	4.32397
1977.63	4.26447
1979.1	5.02422
1980.58	5.15194
1982.06	5.15508
1983.54	5.24546
1985.01	5.85997
1986.49	6.03085
1987.96	5.61087
1989.44	6.02051
1990.91	6.02584
1992.39	6.17745
1993.86	6.36703
1995.33	6.41542
1996.81	6.56997
1998.28	6.99092
1999.75	7.72416
2001.23	8.10466
2002.7	7.13065
2004.17	7.52937
2005.65	7.99312
2007.12	7.82336
2008.59	7.78553
2010.06	7.50019
2011.53	8.1012
2013	8.29869
2014.47	8.30793
2015.94	8.04406
2017.41	8.38247
2018.88	7.78205
2020.35	7.78167
2021.82	7.7226
2023.29	7.9051
2024.76	7.69962
2026.23	7.56602
2027.69	7.21735
2029.16	7.05126
2030.63	6.55432
2032.1	6.6648
2033.56	7.01288
2035.03	7.05789
2036.5	6.372
2037.96	6.89492
2039.43	8.01888
2040.89	8.74129
2042.36	9.0206
2043.83	9.37918
2045.29	9.7583
2046.75	10.2682
2048.22	11.3192
2049.68	11.739
2051.15	12.5996
2052.61	12.3854
2054.07	11.9015
2055.54	11.971
2057	12.5221
2058.46	12.7291
2059.92	12.5639
2061.39	12.8709
2062.85	12.9466
2064.31	13.6748
2065.77	14.4997
2067.23	15.2744
2068.69	15.2783
2070.15	15.901
2071.61	16.2923
2073.07	16.9525
2074.53	17.3453
2075.99	17.197
2077.45	17.6598
2078.91	18.0989
2080.37	17.796
2081.82	18.1516
2083.28	18.3587
2084.74	17.9323
2086.2	17.8222
2087.65	17.1655
2089.11	17.104
2090.57	16.8891
2092.02	16.8707
2093.48	16.9599
2094.94	16.4965
2096.39	16.6099
2097.85	16.7427
2099.3	17.087
2100.76	16.9987
2102.21	16.757
2103.66	16.8437
2105.12	17.6767
2106.57	18.4156
2108.03	18.6566
2109.48	18.8287
2110.93	19.9326
2112.38	20.633
2113.84	20.58
2115.29	20.444
2116.74	20.7247
2118.19	21.0565
2119.64	22.2602
2121.09	22.6107
2122.54	22.9283
2123.99	23.3425
2125.45	23.1426
2126.89	24.0528
2128.34	24.4278
2129.79	25.0298
2131.24	25.2004
2132.69	25.8371
2134.14	26.0788
2135.59	26.7635
2137.04	27.7638
2138.48	28.1444
2139.93	28.6859
2141.38	29.1419
2142.83	29.8341
2144.27	30.8882
2145.72	32.1009
2147.17	32.5451
2148.61	32.1421
2150.06	32.5868
2151.5	32.714
2152.95	33.3029
2154.39	34.2931
2155.84	34.7033
2157.28	35.3018
2158.73	35.7236
2160.17	35.7622
2161.61	36.3998
2163.06	36.6027
2164.5	37.1455
2165.94	36.9856
2167.38	37.4251
2168.83	38.1473
2170.27	38.1054
2171.71	37.7242
2173.15	37.8044
2174.59	37.7249
2176.03	38.135
2177.47	38.454
2178.91	38.0013
2180.36	37.4603
2181.8	37.0848
2183.23	36.9751
2184.67	36.4587
2186.11	35.7336
2187.55	35.1048
2188.99	34.7464
2190.43	34.6318
2191.87	34.7721
2193.3	33.7
2194.74	33.4281
2196.18	32.5596
2197.62	31.9625
2199.05	30.9938
2200.49	30.223
2201.93	29.6842
2203.36	29.5856
2204.8	28.6685
2206.23	27.3473
2207.67	26.8843
2209.1	26.4316
2210.54	26.0228
2211.97	26.1082
2213.41	25.5158
2214.84	24.723
2216.27	24.5764
2217.71	23.5358
2219.14	22.5327
2220.57	21.7743
2222.01	21.6103
2223.44	20.8801
2224.87	21.0029
2226.3	20.2365
2227.73	19.8727
2229.16	20.0547
2230.6	19.5643
2232.03	19.4112
2233.46	19.2331
2234.89	18.8263
2236.32	18.5153
2237.75	18.2255
2239.18	18.3298
2240.61	18.072
2242.03	17.7192
2243.46	17.8562
2244.89	18.1142
2246.32	18.5435
2247.75	18.5031
2249.17	19.1124
2250.6	18.8469
2252.03	18.9367
2253.46	19.3648
2254.88	19.4412
2256.31	18.7327
2257.73	18.8777
2259.16	18.8813
2260.59	18.3398
2262.01	18.6163
2263.44	18.5183
2264.86	17.9791
2266.29	18.021
2267.71	18.1436
2269.14	18.0367
2270.56	17.8128
2271.98	18.3241
2273.4	18.3067
2274.83	18.4391
2276.25	18.0229
2277.67	17.8435
2279.09	18.3455
2280.52	18.1625
2281.94	18.0262
2283.36	18.0867
2284.78	17.3378
2286.2	17.4115
2287.62	16.8981
2289.04	16.7901
2290.46	16.4056
2291.88	15.1757
2293.3	14.2796
2294.72	13.8952
2296.14	14.4344
2297.56	14.9727
2298.98	15.6206
2300.4	15.6965
2301.82	15.1825
2303.23	15.3834
2304.65	16.1368
2306.07	16.4847
2307.49	16.9431
2308.9	17.127
2310.32	17.2643
2311.73	17.2112
2313.15	17.1313
2314.57	17.8997
2315.98	18.1176
2317.4	18.1554
2318.81	17.7896
2320.23	18.1708
2321.64	17.3645
2323.06	16.6902
2324.47	16.6734
2325.88	15.3668
2327.3	13.8747
2328.71	13.3033
2330.12	12.2231
2331.54	11.8561
2332.95	12.1034
2334.36	11.5452
2335.77	11.6627
2337.18	10.9702
2338.6	10.6083
2340.01	9.51942
2341.42	9.34462
2342.83	9.15712
2344.24	8.55321
2345.65	7.93844
2347.06	7.39765
2348.47	6.81716
2349.88	6.20032
2351.29	5.41603
2352.7	4.95287
2354.1	4.12478
2355.51	2.99174
2356.92	2.58258
2358.33	1.34452
2359.74	1.07376
2361.14	0.390596
2362.55	-0.0322709
2363.96	0.354412
2365.36	1.25807
2366.77	1.6954
2368.18	1.70586
2369.58	1.56717
2370.99	1.66076
2372.39	1.65272
2373.8	2.3881
2375.2	2.86706
2376.61	2.45849
2378.01	2.64001
2379.42	2.70474
2380.82	2.48472
2382.22	2.16783
2383.63	2.37344
2385.03	2.7372
2386.43	2.09676
2387.84	1.73814
2389.24	1.57098
2390.64	1.82609
2392.04	1.13333
2393.44	0.872854
2394.84	0.621035
2396.25	0.0275621
2397.65	-0.322719
2399.05	0.123423
2400.45	0.621747
2401.85	1.81666
2403.25	1.91251
2404.65	2.70711
2406.05	3.31581
2407.45	3.27987
2408.84	4.29541
2410.24	4.51003
2411.64	5.45098
2413.04	6.01371
2414.44	6.41
2415.83	6.6236
2417.23	6.93523
2418.63	7.29498
2420.02	7.30581
2421.42	7.59097
2422.82	8.02803
2424.21	8.18602
2425.61	8.65226
2427	9.49488
2428.4	9.57607
2429.8	10.6012
2431.19	11.0732
2432.58	11.1962
2433.98	12.0344
2435.37	12.3989
2436.77	12.1133
2438.16	12.4551
2439.55	12.4895
2440.95	12.6255
2442.34	13.0087
2443.73	13.109
2445.12	13.0526
2446.51	12.2041
2447.91	11.6204
2449.3	11.1806
2450.69	10.1898
2452.08	9.11355
2453.47	9.02092
2454.86	8.76371
2456.25	8.15366
2457.64	7.3662
2459.03	6.66139
2460.42	6.77702
2461.81	5.73027
2463.2	5.202
2464.59	4.31356
2465.98	4.57068
2467.36	4.09409
2468.75	4.07438
2470.14	4.61373
2471.53	4.34247
2472.92	4.18054
2474.3	4.11493
2475.69	3.66108
2477.08	3.16638
2478.46	2.72529
2479.85	2.10293
2481.23	2.32642
2482.62	2.13913
2484	1.38004
2485.39	0.826536
2486.77	1.19878
2488.16	1.16318
2489.54	0.900419
2490.93	0.53172
2492.31	0.429935
2493.69	0.414722
2495.08	0.863456
2496.46	0.987044
2497.84	0.843362
2499.23	1.14044
2500.61	0.737184
2501.99	0.693981
2503.37	0.81322
2504.75	0.280685
2506.13	0.0174607
2507.52	-0.164314
2508.9	0.170021
2510.28	0.821285
2511.66	0.618156
2513.04	0.142909
2514.42	0.254845
2515.8	-0.207643
2517.18	-0.147612
2518.55	-0.124655
2519.93	-0.22669
2521.31	-0.364843
2522.69	0.586438
2524.07	0.922482
2525.45	0.517495
2526.82	0.605689
2528.2	0.645368
2529.58	1.46521
2530.95	1.23512
2532.33	1.97882
2533.71	2.26509
2535.08	3.33826
2536.46	3.32621
2537.84	3.65298
2539.21	3.92506
2540.59	3.48317
2541.96	3.38996
2543.34	2.69126
2544.71	2.78774
2546.08	2.50308
2547.46	2.79867
2548.83	2.75279
2550.2	2.83724
2551.58	2.46021
2552.95	1.72629
2554.32	1.88494
2555.7	2.4194
2557.07	1.69779
2558.44	1.24782
2559.81	0.836073
2561.18	1.10039
2562.55	0.590675
2563.93	0.282416
2565.3	-0.212338
2566.67	-0.090423
2568.04	-0.280646
2569.41	-0.885929
2570.78	-0.888845
2572.15	-1.09651
2573.51	-1.27342
2574.88	-1.33455
2576.25	-0.983852
2577.62	-0.75025
2578.99	-1.26936
2580.36	-1.90858
2581.73	-1.73467
2583.09	-1.43835
2584.46	-1.19276
2585.83	-1.2352
2587.19	-0.904757
2588.56	-0.217978
2589.93	-0.0777537
2591.29	0.383611
2592.66	0.709097
2594.02	0.704651
2595.39	1.23473
2596.75	1.23152
2598.12	2.23475
2599.48	2.4811
2600.85	3.17671
2602.21	2.88975
2603.58	2.90581
2604.94	2.75772
2606.3	3.10948
2607.67	2.79643
2609.03	3.16375
2610.39	3.37894
2611.76	3.56269
2613.12	4.12882
2614.48	4.59068
2615.84	4.90919
2617.2	4.54542
2618.56	4.62474
2619.92	4.25815
2621.28	4.40619
2622.65	5.04501
2624.01	4.7002
2625.37	4.50108
2626.72	4.65569
2628.08	4.47603
2629.44	4.24972
2630.8	3.43028
2632.16	3.90597
2633.52	3.89598
2634.88	4.76074
2636.24	4.96818
2637.59	5.19445
2638.95	5.26154
2640.31	5.25375
2641.67	5.10683
2643.02	4.44827
2644.38	3.77185
2645.74	3.99822
2647.09	3.73351
2648.45	3.38407
2649.8	3.19611
2651.16	3.27798
2652.51	2.98531
2653.87	2.66998
2655.22	3.01451
2656.58	3.05413
2657.93	2.88463
2659.29	2.54007
2660.64	3.04224
2661.99	2.75147
2663.35	3.08373
2664.7	2.98732
2666.05	3.71866
2667.41	4.09288
2668.76	3.86772
2670.11	3.59692
2671.46	3.53202
2672.81	3.91921
2674.16	4.31404
2675.51	4.43552
2676.87	4.47583
2678.22	4.74028
2679.57	4.64914
2680.92	5.31764
2682.27	5.52533
2683.62	5.44243
2684.97	5.76516
2686.31	5.76565
2687.66	5.94528
2689.01	6.61396
2690.36	7.32232
2691.71	6.98843
2693.06	8.12463
2694.4	9.04879
2695.75	9.03216
2697.1	9.59957
2698.45	10.4098
2699.79	11.5237
2701.14	11.9619
2702.49	12.3653
2703.83	12.0385
2705.18	11.7967
2706.52	11.4654
2707.87	12.2976
2709.21	12.4417
2710.56	12.6177
2711.9	13.3172
2713.25	14.3886
2714.59	14.3205
2715.94	15.0236
2717.28	16.4008
2718.62	17.2677
2719.97	17.8397
2721.31	18.6681
2722.65	19.1732
2723.99	19.3771
2725.34	19.6475
2726.68	19.7297
2728.02	19.6693
2729.36	19.4401
2730.7	19.4228
2732.04	18.8535
2733.39	19.0082
2734.73	18.7247
2736.07	17.8876
2737.41	17.6311
2738.75	17.5211
2740.08	18.0183
2741.43	18.1039
2742.76	17.9875
2744.1	17.0827
2745.44	17.4128
2746.78	17.0195
2748.12	17.1651
2749.46	17.0367
2750.79	16.8695
2752.13	16.7487
2753.47	16.1164
2754.81	16.176
2756.14	16.1593
2757.48	16.6889
2758.81	15.6898
2760.15	16.0007
2761.49	14.9513
2762.82	14.2603
2764.16	13.7317
2765.49	13.2932
2766.83	12.8714
2768.16	12.4257
2769.5	12.381
2770.83	12.3007
2772.16	12.6717
2773.5	12.9301
2774.83	13.5119
2776.17	13.071
2777.5	13.1343
2778.83	12.7753
2780.16	13.2633
2781.5	13.0649
2782.83	13.2539
2784.16	13.1746
2785.49	12.4394
2786.82	12.1719
2788.15	12.2108
2789.49	11.9149
2790.82	11.5444
2792.15	11.5006
2793.48	10.9372
2794.81	10.3137
2796.14	10.9753
2797.46	11.2935
2798.79	10.8248
2800.12	11.2991
2801.45	11.35
2802.78	10.9582
2804.11	10.8174
2805.44	11.3551
2806.76	11.2077
2808.09	10.7705
2809.42	10.813
2810.75	10.0126
2812.07	10.2533
2813.4	10.5837
2814.73	11.1464
2816.05	11.7582
2817.38	11.6151
2818.7	12.7176
2820.03	14.0423
2821.36	16.1015
2822.68	18.0732
2824.01	20.4806
2825.33	21.7405
2826.65	24.7811
2827.98	27.2872
2829.3	30.6571
2830.63	33.5046
2831.95	37.7802
2833.27	40.9103
2834.6	43.9929
2835.92	47.5257
2837.24	51.2052
2838.56	55.9741
2839.88	60.261
2841.21	64.4711
2842.53	69.2306
2843.85	74.2744
2845.17	79.5475
2846.49	85.2341
2847.81	91.5364
2849.13	97.896
2850.45	104.397
2851.77	111.351
2853.09	118.584
2854.41	125.211
2855.73	130.419
2857.05	136.385
2858.37	142.52
2859.69	148.098
2861	153.613
2862.32	159.349
2863.64	163.858
2864.96	168.23
2866.28	173.258
2867.59	177.156
2868.91	181.052
2870.23	184.541
2871.54	188.408
2872.86	191.101
2874.17	194.162
2875.49	197.093
2876.81	198.861
2878.12	201.608
2879.44	204.269
2880.75	206.205
2882.07	208.723
2883.38	210.97
2884.69	213.915
2886.01	216.1
2887.32	218.281
2888.63	220.933
2889.95	223.387
2891.26	225.339
2892.57	227.839
2893.89	230.819
2895.2	233.507
2896.51	236.526
2897.82	240.066
2899.13	242.789
2900.44	246.621
2901.76	250.625
2903.07	255.404
2904.38	260.098
2905.69	265.99
2907	272.272
2908.31	279.679
2909.62	286.08
2910.93	292.914
2912.24	300.379
2913.55	307.72
2914.85	313.844
2916.16	319.916
2917.47	325.382
2918.78	329.828
2920.09	333.445
2921.4	337.505
2922.7	341.581
2924.01	345.516
2925.32	348.002
2926.62	349.182
2927.93	350.338
2929.24	350.601
2930.54	351.039
2931.85	350.759
2933.15	349.452
2934.46	347.678
2935.76	345.028
2937.07	342.411
2938.37	339.268
2939.68	335.292
2940.98	330.942
2942.29	326.023
2943.59	321.415
2944.89	316.026
2946.2	310.427
2947.5	305.502
2948.8	299.386
2950.11	293.346
2951.41	287.921
2952.71	281.969
2954.01	276.324
2955.32	269.758
2956.62	263.63
2957.92	257.866
2959.22	252.365
2960.52	246.4
2961.82	240.752
2963.12	235.848
2964.42	230.229
2965.72	224.96
2967.02	220.04
2968.32	216.083
2969.62	212.296
2970.92	208.782
2972.22	204.43
2973.51	199.505
2974.81	194.293
2976.11	189.82
2977.41	185.104
2978.71	179.35
2980	174.39
2981.3	169.091
2982.6	163.714
2983.9	158.172
2985.19	153.351
2986.49	148.472
2987.78	142.984
2989.08	137.344
2990.38	130.993
2991.67	124.7
2992.97	119.555
2994.26	114.61
2995.56	109.815
2996.85	105.381
2998.14	100.09
2999.44	95.1117
3000.73	90.3085
3002.03	85.513
3003.32	81.3733
3004.61	76.4001
3005.91	72.5376
3007.2	68.7635
3008.49	64.6872
3009.78	61.2285
3011.07	58.1655
3012.37	55.6739
3013.66	52.6804
3014.95	50.1349
3016.24	47.8351
3017.53	45.2355
3018.82	43.1011
3020.11	41.1657
3021.4	39.6668
3022.69	38.3336
3023.98	37.0149
3025.27	36.2208
3026.56	35.033
3027.85	34.0771
3029.14	33.0123
3030.43	32.9241
3031.71	32.4905
3033	33.0471
3034.29	32.6807
3035.58	32.8917
3036.87	33.214
3038.15	33.0418
3039.44	33.7663
3040.73	34.3495
3042.01	35.1453
3043.3	36.3621
3044.59	37.3695
3045.87	38.5091
3047.16	39.2762
3048.44	39.9265
3049.73	40.7135
3051.01	41.1454
3052.3	41.0929
3053.58	41.0538
3054.87	41.4872
3056.15	41.1559
3057.43	41.2838
3058.72	41.3633
3060	41.2025
3061.29	40.9955
3062.57	39.626
3063.85	38.8911
3065.13	37.6814
3066.42	36.5809
3067.7	35.294
3068.98	34.0554
3070.26	33.0514
3071.54	31.4009
3072.82	29.6939
3074.11	28.5589
3075.39	26.8286
3076.67	25.5402
3077.95	23.5042
3079.23	21.8526
3080.51	20.1973
3081.79	18.4566
3083.07	16.4521
3084.35	15.3245
3085.63	14.0896
3086.9	12.4146
3088.18	11.0918
3089.46	10.1873
3090.74	8.84337
3092.02	8.04994
3093.29	7.89355
3094.57	7.3539
3095.85	6.41076
3097.13	6.44745
3098.4	5.30092
3099.68	5.26913
3100.95	4.44081
3102.23	4.71933
3103.51	5.26081
3104.78	5.43375
3106.06	5.63501
3107.33	5.61497
3108.61	5.36219
3109.88	5.70655
3111.16	5.07702
3112.43	4.68913
3113.71	4.72129
3114.98	4.69243
3116.25	3.91032
3117.53	3.78845
3118.8	3.72982
3120.07	3.4601
3121.35	3.50046
3122.62	3.78642
3123.89	3.69334
3125.16	3.49989
3126.44	2.87587
3127.71	2.74671
3128.98	2.11664
3130.25	1.85845
3131.52	1.4841
3132.79	1.5912
3134.06	0.889875
3135.33	0.272172
3136.6	0.0193435
3137.87	-0.37056
3139.14	-0.611861
3140.41	-0.582628
3141.68	-0.780354
3142.95	-0.544013
3144.22	-0.285645
3145.49	0.248854
3146.76	1.03931
3148.02	1.4123
3149.29	2.12637
