#Acq. time (s)=	45
#Accumulations=	2
#Range (cm-¹)=	200...3150
#Windows=	2
#Auto scanning=	Off
#Autofocus=	Off
#Macrospot=	Off
#AutoExposure=	Off
#Spike filter=	Multiple accum.
#Delay time (s)=	0
#Binning=	1
#Readout mode=	Signal
#DeNoise=	Off
#ICS correction=	On
#Dark correction=	Off
#Inst. Process=	Off
#Detector Gain=	Best Dynamic Range
#Detector ADC=	20 kHz       
#Detector temperature (°C)=	-69.85
#Instrument=	LabRAM HR Evol
#Detector=	Synapse
#Objective=	x100
#Grating=	600 gr/mm
#ND Filter=	100%
#Laser (nm)=	532 
#Hole=	100.021
#Range=	Auto
#Laser Pol.=	No
#Raman. Pol.=	No
#Laser Pol. (°)=	-0.0007625
#Raman Pol. (°)=	89.9995
#Collection=	Microscope
#StageXY=	Marzhauser
#StageZ=	Marzhauser
#X (µm)=	-5917.7
#Y (µm)=	2829.4
#Z (µm)=	-223.3
#Full time(mm:ss)=	3:18
#Project=	
#Sample=	
#Site=	
#Title=	Thy_20_09_07_2x_45s_532 nm_x100_100%_600 gr_mm
#Remark=	
#Date=	29.06.2022 11:14
#Acquired=	29.06.2022 11:14:13
#Base:Fit=	10.08.2022 09:49:32
#Base:Fit=	10.08.2022 09:49:42
#Base:Fit=	10.08.2022 09:49:53
#Base:Fit=	10.08.2022 09:50:12
#Base:Fit=	10.08.2022 09:50:26
#Base:Fit=	10.08.2022 09:50:30
#Base:Fit=	10.08.2022 09:50:43
#Base:Fit=	10.08.2022 09:52:02
#Base:Fit=	10.08.2022 09:52:12
#Base:Sub=	10.08.2022 09:54:21
#Filter:Polynom=	16.08.2022 10:24:04
#AxisType[0]=Intens
#AxisUnit[0]=Cnt
#AxisType[1]=Spectr
#AxisUnit[1]=1/cm
200.523	11.1967
202.339	12.2097
204.154	13.1101
205.967	12.7702
207.781	12.314
209.596	11.6759
211.409	11.5131
213.222	11.6221
215.034	11.1633
216.848	10.4725
218.659	11.4914
220.47	10.0255
222.281	9.6063
224.091	9.22986
225.903	9.15349
227.713	7.9393
229.522	7.0367
231.331	7.27991
233.14	7.18569
234.948	6.86881
236.756	6.02015
238.566	5.56113
240.373	5.13258
242.18	5.48132
243.986	4.43915
245.792	3.73945
247.598	4.17363
249.403	4.00816
251.208	4.15554
253.013	4.29355
254.818	3.33275
256.624	3.62831
258.427	3.81795
260.231	3.53272
262.034	4.16206
263.836	3.58757
265.638	2.98891
267.44	2.69029
269.242	3.26222
271.043	4.50821
272.844	6.47755
274.645	6.15627
276.445	5.83291
278.245	6.20934
280.044	6.31771
281.843	6.19186
283.642	8.20406
285.44	8.81803
287.238	8.71763
289.036	9.19002
290.833	9.16858
292.63	9.10273
294.425	10.1684
296.221	11.1845
298.017	11.2405
299.813	11.8382
301.608	12.6464
303.403	13.022
305.198	13.0331
306.992	13.254
308.786	13.4113
310.579	12.8692
312.371	13.7885
314.163	14.3894
315.956	14.1494
317.748	14.9266
319.54	15.6979
321.331	16.5028
323.122	16.9216
324.911	16.4527
326.701	17.0183
328.491	17.497
330.281	17.5721
332.071	18.322
333.857	17.1646
335.646	17.8064
337.434	17.6481
339.222	17.4792
341.008	17.4009
342.795	16.3158
344.582	16.0141
346.369	15.0367
348.153	14.6962
349.939	15.0623
351.724	15.9317
353.51	15.4645
355.292	14.4132
357.077	12.4766
358.861	12.3724
360.643	12.6137
362.426	11.1892
364.21	9.59629
365.99	8.24635
367.773	7.79023
369.555	8.04962
371.335	8.95791
373.116	9.55126
374.897	8.78545
376.676	7.40719
378.456	6.67613
380.236	6.25908
382.014	6.26636
383.793	7.79971
385.57	7.3322
387.349	6.88578
389.127	6.95127
390.903	7.02009
392.681	6.84092
394.456	6.44512
396.233	6.42864
398.007	7.21604
399.784	8.07884
401.56	8.0279
403.333	8.45457
405.108	8.71865
406.881	9.53561
408.656	9.60119
410.428	10.8052
412.202	11.5272
413.973	11.3219
415.746	11.632
417.517	11.51
419.29	11.7814
421.06	12.0781
422.831	11.8376
424.601	11.6861
426.37	11.0829
428.141	12.0422
429.909	11.2914
431.679	10.4607
433.447	11.5407
435.216	10.6992
436.983	11.3424
438.75	11.1607
440.519	10.1729
442.285	8.49665
444.052	7.31396
445.818	7.73362
447.583	8.7689
449.349	7.96822
451.114	8.20273
452.878	8.13815
454.643	9.27925
456.407	11.1786
458.169	11.7399
459.934	11.819
461.696	11.5873
463.458	11.0263
465.222	11.392
466.983	11.9031
468.744	12.8953
470.507	14.2659
472.267	15.5551
474.027	14.0063
475.787	13.9637
477.548	15.0042
479.307	15.9034
481.065	16.6009
482.823	17.1842
484.583	17.3625
486.341	17.5153
488.098	17.9528
489.855	18.5079
491.612	19.8332
493.37	20.8937
495.126	21.4963
496.881	22.3995
498.636	24.0759
500.391	23.9631
502.148	24.5781
503.902	25.1737
505.656	26.4884
507.409	26.6443
509.162	26.634
510.915	26.7877
512.668	26.4107
514.42	26.3235
516.174	25.9349
517.925	24.5693
519.676	23.5958
521.427	22.9038
523.178	21.1168
524.928	21.5892
526.678	20.4102
528.427	19.3992
530.176	18.4487
531.925	18.6158
533.673	18.739
535.422	18.2778
537.169	17.4456
538.917	17.6092
540.664	16.5568
542.411	16.0438
544.157	15.0781
545.903	13.7284
547.649	12.8426
549.395	11.7743
551.14	11.2356
552.884	11.0655
554.629	10.6069
556.373	9.5346
558.117	9.17023
559.86	8.73012
561.603	7.59994
563.346	7.63441
565.089	6.88223
566.831	4.59419
568.573	5.03915
570.314	4.50338
572.053	4.8758
573.794	4.27366
575.534	5.29514
577.274	5.73014
579.014	6.18956
580.754	6.05836
582.493	6.63524
584.23	6.94571
585.968	7.2701
587.706	6.0993
589.444	6.481
591.181	6.85323
592.919	5.95271
594.653	4.76584
596.39	3.65102
598.126	3.1289
599.862	2.7226
601.595	2.31508
603.33	2.28544
605.065	2.54409
606.8	3.22199
608.532	3.4573
610.266	3.47341
611.999	4.57204
613.732	3.91708
615.463	4.71553
617.196	4.54317
618.928	5.58784
620.66	5.7192
622.389	6.56711
624.12	6.62463
625.851	6.9992
627.58	7.13487
629.31	8.12495
631.04	9.44645
632.767	10.0037
634.497	10.6572
636.223	11.5988
637.952	12.5694
639.68	12.657
641.406	13.792
643.134	13.4353
644.861	14.2331
646.586	15.2239
648.312	15.9267
650.037	17.1493
651.762	17.3024
653.486	18.4921
655.211	21.132
656.936	21.5538
658.659	22.7193
660.383	23.3768
662.105	25.0426
663.829	25.0437
665.55	24.777
667.273	24.7456
668.994	25.389
670.716	24.6838
672.436	24.4444
674.158	25.0308
675.877	25.4645
677.598	25.7563
679.317	24.8427
681.035	24.933
682.755	25.0275
684.473	27.0527
686.192	28.1699
687.909	29.1674
689.628	29.1091
691.344	29.9234
693.06	29.6877
694.778	28.7809
696.493	28.9962
698.211	30.3794
699.925	29.7093
701.64	29.6001
703.356	28.8455
705.07	29.7859
706.783	30.4299
708.498	31.6335
710.211	32.6216
711.924	32.9218
713.638	33.21
715.35	33.9003
717.061	34.54
718.774	34.8737
720.485	35.5794
722.196	36.1888
723.906	37.0151
725.618	37.3145
727.328	37.9702
729.037	37.1242
730.746	37.6296
732.456	38.7471
734.165	39.5989
735.873	39.5402
737.58	39.6734
739.289	41.3855
740.997	41.2604
742.703	41.8535
744.41	42.3552
746.116	42.3478
747.823	41.3931
749.529	41.4648
751.234	42.0494
752.938	43.3366
754.643	44.1356
756.347	45.2323
758.051	45.2087
759.756	46.2422
761.459	46.2613
763.162	47.2269
764.865	47.0879
766.567	47.0644
768.269	47.225
769.97	48.5966
771.671	47.8832
773.372	47.9535
775.073	47.712
776.773	48.2893
778.473	48.3968
780.174	49.5134
781.874	50.5996
783.573	51.7048
785.271	50.5499
786.97	51.9063
788.668	53.2488
790.365	54.308
792.063	55.655
793.76	56.8142
795.456	57.7308
797.153	56.8661
798.847	57.9387
800.543	58.2489
802.238	59.3606
803.933	59.8166
805.628	60.0957
807.322	60.4192
809.017	60.6681
810.71	60.6115
812.404	61.305
814.097	62.1104
815.79	62.4849
817.483	63.9287
819.173	64.1725
820.865	64.6588
822.556	64.2928
824.248	64.3204
825.939	63.3017
827.629	63.7278
829.318	63.4243
831.008	62.4464
832.697	61.4919
834.387	62.0143
836.076	60.9798
837.765	60.2155
839.451	58.1866
841.139	57.1093
842.827	54.8359
844.514	54.4372
846.2	52.553
847.886	50.7898
849.573	48.1891
851.259	46.6899
852.943	46.007
854.629	44.6012
856.314	43.0567
857.997	42.0308
859.682	40.4011
861.366	39.393
863.05	38.2057
864.732	37.3789
866.415	35.982
868.098	34.8936
869.779	34.0789
871.461	34.8567
873.141	33.6659
874.823	32.9507
876.505	33.3006
878.184	32.1881
879.865	31.6779
881.545	31.3015
883.223	31.6589
884.903	32.3805
886.581	32.134
888.26	32.3167
889.937	32.5037
891.616	32.7013
893.294	34.2278
894.97	35.0329
896.648	34.1997
898.323	33.9819
900	35.2471
901.675	35.9972
903.351	36.1196
905.026	36.6912
906.701	36.2876
908.375	36.6922
910.05	36.6312
911.723	37.2546
913.398	36.5875
915.07	35.8915
916.742	35.8659
918.415	35.3069
920.087	34.6507
921.76	34.2799
923.43	33.7384
925.103	32.7627
926.773	31.1727
928.443	29.6484
930.114	27.2728
931.783	25.7136
933.454	24.4681
935.123	24.1608
936.791	23.1728
938.461	21.4421
940.128	20.8312
941.796	19.0854
943.464	17.9476
945.131	17.3414
946.797	16.0176
948.465	15.7344
950.131	15.1395
951.797	14.8231
953.462	14.711
955.128	14.8671
956.793	14.6587
958.457	14.2967
960.121	12.7951
961.786	12.4899
963.45	13.6675
965.113	14.4553
966.775	14.6657
968.44	15.2893
970.102	14.6702
971.763	15.8644
973.425	16.0254
975.086	16.7448
976.748	17.4075
978.409	17.8609
980.069	18.5911
981.729	20.353
983.388	20.9468
985.048	21.4406
986.708	22.3622
988.367	22.7511
990.025	22.7903
991.683	22.4285
993.341	23.2772
994.998	23.9713
996.655	24.4453
998.312	24.9346
999.969	25.4625
1001.62	25.418
1003.28	25.0476
1004.94	23.6106
1006.59	23.2299
1008.25	21.4302
1009.9	20.5796
1011.56	20.8946
1013.21	19.9155
1014.86	19.8032
1016.52	18.5039
1018.17	18.0299
1019.82	16.8627
1021.48	15.8324
1023.13	15.1198
1024.78	13.4175
1026.43	13.3853
1028.08	12.7757
1029.73	11.493
1031.38	11.4478
1033.03	10.8473
1034.68	10.4305
1036.33	10.4254
1037.98	10.9456
1039.63	9.64253
1041.28	8.22383
1042.93	8.66087
1044.57	9.39135
1046.22	9.66855
1047.87	10.0921
1049.52	9.03873
1051.16	8.54286
1052.81	8.89282
1054.45	8.44581
1056.1	8.51806
1057.75	8.51645
1059.39	7.46667
1061.04	7.99843
1062.68	8.04945
1064.32	7.69061
1065.97	7.6422
1067.61	9.56425
1069.25	9.40378
1070.9	9.25022
1072.54	9.0416
1074.18	9.22575
1075.82	10.3703
1077.47	10.4129
1079.11	10.0417
1080.75	8.59196
1082.39	8.59938
1084.03	8.11587
1085.67	7.35235
1087.31	7.11246
1088.95	7.77099
1090.59	7.01868
1092.22	7.75078
1093.86	8.30359
1095.5	6.92001
1097.14	7.04636
1098.78	6.95421
1100.41	7.65313
1102.05	8.64922
1103.69	9.03749
1105.32	9.00867
1106.96	9.15834
1108.59	9.72163
1110.23	8.97632
1111.86	8.58167
1113.5	9.05006
1115.13	8.7752
1116.77	8.38885
1118.4	8.43882
1120.03	8.59322
1121.67	7.76498
1123.3	8.42583
1124.93	9.5896
1126.56	8.31305
1128.19	9.30645
1129.83	9.52282
1131.46	8.24456
1133.09	8.09876
1134.72	7.59114
1136.35	7.36845
1137.98	7.53678
1139.61	6.77165
1141.24	6.80612
1142.86	8.81191
1144.49	8.57128
1146.12	7.17944
1147.75	7.13465
1149.38	7.38743
1151	5.51487
1152.63	4.62669
1154.26	4.84066
1155.88	4.46975
1157.51	4.44777
1159.14	3.10844
1160.76	2.53576
1162.39	1.96497
1164.01	2.27312
1165.63	1.90755
1167.26	1.39522
1168.88	2.30535
1170.51	2.79381
1172.13	3.68897
1173.75	4.72167
1175.38	5.25462
1177	5.55857
1178.62	6.60616
1180.24	7.03954
1181.86	8.07081
1183.48	8.68061
1185.1	8.8574
1186.72	8.93925
1188.34	9.58959
1189.96	10.1007
1191.58	10.5236
1193.2	12.2101
1194.82	13.0143
1196.44	13.6188
1198.06	15.2623
1199.68	17.6569
1201.29	19.5011
1202.91	20.701
1204.53	23.0374
1206.14	24.8374
1207.76	25.7691
1209.38	28.5001
1210.99	29.1553
1212.61	29.9218
1214.22	31.9147
1215.84	33.5987
1217.45	36.0732
1219.07	36.8597
1220.68	38.181
1222.29	39.9686
1223.91	41.1008
1225.52	40.4134
1227.13	41.5778
1228.74	43.5402
1230.36	44.5501
1231.97	44.9171
1233.58	46.0536
1235.19	47.1509
1236.8	47.6061
1238.41	48.5648
1240.02	49.1861
1241.63	50.9656
1243.24	51.7341
1244.85	52.4003
1246.46	52.6027
1248.07	53.4044
1249.67	55.5115
1251.28	56.1377
1252.89	57.4566
1254.5	58.1574
1256.1	59.2652
1257.71	59.2572
1259.32	60.1273
1260.92	62.0597
1262.53	63.8557
1264.13	63.9529
1265.74	64.8381
1267.34	65.0784
1268.95	65.6834
1270.55	67.4522
1272.15	69.1826
1273.76	70.5873
1275.36	70.6741
1276.97	71.8316
1278.57	74.2669
1280.17	75.1162
1281.77	76.1259
1283.37	77.722
1284.97	79.2305
1286.58	79.8514
1288.18	80.3048
1289.78	81.4132
1291.38	82.0232
1292.98	83.4948
1294.58	85.4935
1296.18	86.8459
1297.78	88.0219
1299.37	88.9049
1300.97	91.0142
1302.57	91.8577
1304.17	93.3445
1305.77	95.4326
1307.36	97.3548
1308.96	99.1587
1310.55	100.032
1312.15	101.018
1313.75	102.135
1315.34	102.783
1316.94	104.77
1318.53	105.643
1320.13	107.034
1321.72	107.863
1323.32	109.021
1324.91	108.857
1326.5	109.39
1328.1	111.697
1329.69	112.722
1331.28	113.017
1332.87	113.068
1334.47	112.612
1336.06	111.518
1337.65	111.678
1339.24	112.082
1340.83	111.339
1342.42	108.711
1344.01	106.622
1345.6	105.814
1347.19	104.409
1348.78	103.58
1350.37	103.047
1351.96	101.669
1353.54	99.4285
1355.13	99.1111
1356.72	98.6116
1358.31	97.2037
1359.89	94.6546
1361.48	94.1202
1363.07	93.1501
1364.65	92.0986
1366.24	90.7422
1367.82	90.4706
1369.41	89.6664
1370.99	88.2322
1372.58	87.3776
1374.16	86.3094
1375.75	86.1006
1377.33	85.7887
1378.91	86.0012
1380.5	85.1848
1382.08	83.6429
1383.66	83.9504
1385.25	83.2744
1386.83	81.9663
1388.41	81.5245
1389.99	79.8619
1391.57	79.4574
1393.15	79.3894
1394.73	79.8244
1396.31	79.7487
1397.89	78.8131
1399.47	78.9154
1401.05	78.346
1402.63	79.039
1404.21	76.9498
1405.78	77.4691
1407.36	77.2488
1408.94	75.3605
1410.52	75.1061
1412.1	74.6971
1413.67	75.4836
1415.25	76.0455
1416.82	76.6952
1418.4	76.0195
1419.98	76.0017
1421.55	76.5047
1423.13	78.2862
1424.7	78.9729
1426.28	79.897
1427.85	81.2275
1429.42	82.9609
1431	84.896
1432.57	86.4435
1434.14	87.8153
1435.71	88.4667
1437.29	88.8265
1438.86	90.3056
1440.43	92.317
1442	92.7081
1443.57	94.0977
1445.14	93.5216
1446.71	94.0272
1448.28	93.9529
1449.85	93.84
1451.42	93.9835
1452.99	93.7561
1454.56	93.5991
1456.13	92.4858
1457.7	88.1402
1459.26	83.1068
1460.83	82.5789
1462.4	82.9979
1463.97	81.8619
1465.54	81.4932
1467.1	80.6105
1468.67	79.203
1470.23	78.0497
1471.8	77.3799
1473.36	75.0177
1474.93	73.6224
1476.49	73.429
1478.06	72.0378
1479.62	70.8219
1481.19	68.9892
1482.75	65.9167
1484.31	65.2686
1485.88	63.42
1487.44	62.5115
1489	61.432
1490.56	59.8554
1492.13	59.581
1493.69	58.7316
1495.25	57.8554
1496.81	58.0848
1498.37	57.7642
1499.93	57.3592
1501.49	56.9052
1503.05	56.7517
1504.61	57.0331
1506.17	57.345
1507.73	58.2587
1509.28	58.23
1510.84	58.5471
1512.4	58.6079
1513.96	58.7879
1515.52	58.9112
1517.07	59.8428
1518.63	60.7454
1520.19	60.4716
1521.74	60.9941
1523.3	60.4531
1524.85	60.897
1526.41	60.9109
1527.96	61.0091
1529.52	60.6806
1531.07	60.4618
1532.63	59.9898
1534.18	60.0192
1535.73	59.5601
1537.29	62.4904
1538.84	68.0252
1540.39	70.4441
1541.94	71.2736
1543.5	74.5309
1545.05	75.9934
1546.6	78.5457
1548.15	80.0662
1549.7	82.9584
1551.25	85.2437
1552.8	88.835
1554.35	91.2713
1555.9	92.5264
1557.45	94.48
1559	96.1327
1560.55	98.244
1562.1	100.003
1563.65	101.56
1565.19	103.246
1566.74	105.09
1568.29	107.466
1569.83	110.059
1571.38	110.699
1572.93	111.789
1574.47	113.37
1576.02	114.117
1577.56	115
1579.11	116.513
1580.66	117.875
1582.2	119.254
1583.74	119.784
1585.29	119.902
1586.83	119.874
1588.38	119.63
1589.92	120.306
1591.46	120.253
1593.01	120.095
1594.55	120.194
1596.09	119.978
1597.63	118.836
1599.17	117.866
1600.71	116.678
1602.25	115.191
1603.79	113.248
1605.34	112.118
1606.88	110.999
1608.41	109.618
1609.95	108.574
1611.49	107.726
1613.03	106.375
1614.57	105.855
1616.11	105.795
1617.65	104.135
1619.18	102.405
1620.72	102.211
1622.26	100.137
1623.79	98.7144
1625.33	97.6345
1626.87	97.3764
1628.4	96.9951
1629.94	96.2758
1631.48	94.6664
1633.01	93.6085
1634.55	93.705
1636.08	93.2764
1637.61	92.6357
1639.15	92.3909
1640.68	92.8711
1642.21	92.3403
1643.75	92.0189
1645.28	90.9768
1646.81	89.9114
1648.34	89.0362
1649.88	88.9516
1651.41	87.685
1652.94	86.7502
1654.47	85.9878
1656	85.84
1657.53	84.9519
1659.06	83.1128
1660.59	81.0008
1662.12	80.1891
1663.65	79.7891
1665.18	78.9921
1666.71	78.4341
1668.24	75.5172
1669.76	73.8894
1671.29	72.4925
1672.82	70.1999
1674.35	66.7931
1675.87	64.3431
1677.4	62.3301
1678.93	60.1804
1680.45	58.4215
1681.98	56.4529
1683.5	53.6462
1685.03	50.828
1686.55	49.0723
1688.08	46.3236
1689.6	43.5728
1691.13	41.4155
1692.65	38.1183
1694.17	35.2345
1695.7	32.9873
1697.22	31.1922
1698.74	28.4468
1700.27	27.0249
1701.79	26.652
1703.31	24.4345
1704.83	23.0724
1706.35	22.0798
1707.87	21.1382
1709.39	20.7831
1710.91	19.8972
1712.43	18.864
1713.95	17.8085
1715.47	17.2274
1716.99	16.1728
1718.51	14.5345
1720.03	13.6367
1721.55	11.9808
1723.07	11.4728
1724.58	10.9084
1726.1	10.4764
1727.62	9.98558
1729.13	10.0154
1730.65	9.48279
1732.17	8.6757
1733.68	8.36761
1735.2	7.56543
1736.72	8.03866
1738.23	8.24938
1739.74	7.74819
1741.26	7.14675
1742.77	5.61269
1744.29	4.68277
1745.8	4.67273
1747.32	3.77587
1748.83	3.03815
1750.34	2.45115
1751.85	2.75507
1753.37	2.20191
1754.88	1.79333
1756.39	1.41663
1757.9	0.461148
1759.41	0.382791
1760.92	0.170406
1762.44	0.0523407
1763.95	-0.936384
1765.46	-1.45202
1766.96	-1.27477
1768.47	-1.74868
1769.98	-1.15844
1771.49	-1.32075
1773	-1.30595
1774.51	-1.26937
1776.02	-0.601608
1777.53	-0.663562
1779.03	-0.778948
1780.54	0.124667
1782.05	0.662127
1783.55	1.11357
1785.06	1.81159
1786.57	2.19542
1788.07	2.17408
1789.58	2.52434
1791.08	2.69937
1792.59	2.45533
1794.09	2.52138
1795.6	3.12847
1797.1	2.96601
1798.61	4.04088
1800.11	4.27012
1801.61	4.46299
1803.12	4.41191
1804.62	4.13341
1806.12	4.15133
1807.62	4.36756
1809.12	5.04162
1810.63	5.49413
1812.13	5.56923
1813.63	5.71354
1815.13	5.48916
1816.63	5.91012
1818.13	5.70911
1819.63	6.01253
1821.13	6.46761
1822.63	6.62153
1824.13	7.05534
1825.63	7.03408
1827.13	7.21811
1828.62	7.24942
1830.12	7.08795
1831.62	7.40003
1833.12	6.73424
1834.61	6.70631
1836.11	6.29651
1837.61	7.3512
1839.1	6.76146
1840.6	6.50188
1842.09	6.9553
1843.59	7.05939
1845.09	7.38544
1846.58	7.37758
1848.08	7.78408
1849.57	7.53567
1851.06	6.31909
1852.56	6.46905
1854.05	6.01941
1855.54	5.35524
1857.04	4.8359
1858.53	4.85525
1860.02	5.16008
1861.51	4.214
1863.01	3.88855
1864.5	3.63139
1865.99	2.47227
1867.48	2.11553
1868.97	1.77448
1870.46	1.35301
1871.95	1.1904
1873.44	1.21184
1874.93	1.40135
1876.42	0.624389
1877.91	0.420894
1879.4	0.181681
1880.89	0.537908
1882.37	0.205327
1882.46	0.666036
1883.95	0.645116
1885.45	0.443446
1886.94	0.323952
1888.43	0.923852
1889.93	1.34031
1891.42	2.15564
1892.91	2.69978
1894.41	3.06171
1895.9	2.84036
1897.39	2.9158
1898.88	2.26494
1900.37	3.23221
1901.86	3.13216
1903.36	3.37586
1904.85	3.88749
1906.34	3.82223
1907.83	4.55406
1909.32	4.44693
1910.81	5.28773
1912.29	4.76175
1913.78	5.70371
1915.27	7.131
1916.76	7.21059
1918.25	7.53019
1919.74	7.10123
1921.23	6.85302
1922.71	6.35075
1924.2	5.68617
1925.69	6.48803
1927.17	7.19358
1928.66	7.53698
1930.15	8.17819
1931.63	8.21354
1933.12	8.0268
1934.6	7.10768
1936.09	7.0278
1937.57	5.82809
1939.06	5.83941
1940.54	6.34541
1942.02	6.07727
1943.51	5.92557
1944.99	6.41947
1946.47	6.19969
1947.96	5.81769
1949.44	4.78402
1950.92	4.95593
1952.4	5.1494
1953.88	4.79829
1955.37	4.31764
1956.85	3.95032
1958.33	3.78358
1959.81	3.74691
1961.29	3.86556
1962.77	3.89658
1964.25	3.82836
1965.73	4.12508
1967.21	3.95388
1968.69	3.43281
1970.16	3.47762
1971.64	3.56566
1973.12	3.36978
1974.6	4.3153
1976.08	3.89154
1977.55	4.04148
1979.03	4.01843
1980.51	4.00502
1981.98	3.88516
1983.46	3.96435
1984.94	4.89126
1986.41	5.4426
1987.89	5.99844
1989.36	6.49258
1990.84	6.46594
1992.31	6.25027
1993.79	6.22362
1995.26	5.88391
1996.73	6.50302
1998.21	6.852
1999.68	7.71647
2001.15	7.6401
2002.63	6.99251
2004.1	7.02047
2005.57	6.94291
2007.04	7.52769
2008.51	7.85411
2009.99	7.53284
2011.46	7.11492
2012.93	7.60688
2014.4	7.86668
2015.87	8.0205
2017.34	8.477
2018.81	8.84957
2020.28	8.66067
2021.75	8.95551
2023.21	9.20443
2024.68	9.65118
2026.15	9.97027
2027.62	9.68119
2029.09	10.0024
2030.56	9.65414
2032.02	9.70803
2033.49	9.84234
2034.96	9.9822
2036.42	9.71228
2037.89	10.0463
2039.36	9.76606
2040.82	9.47671
2042.29	8.82491
2043.75	8.46606
2045.22	8.22184
2046.68	7.81421
2048.14	7.55943
2049.61	7.24363
2051.07	6.83459
2052.54	7.1592
2054	6.60601
2055.46	6.72234
2056.93	6.78534
2058.39	7.30631
2059.85	7.22998
2061.31	7.2507
2062.77	7.3926
2064.23	6.97836
2065.7	6.45249
2067.16	6.63005
2068.62	6.26285
2070.08	7.47171
2071.54	7.68001
2073	7.60383
2074.46	7.71825
2075.92	7.99404
2077.38	8.23645
2078.83	8.13508
2080.29	8.02826
2081.75	7.84455
2083.21	7.37284
2084.67	7.72797
2086.12	8.71515
2087.58	8.85341
2089.04	8.98991
2090.49	9.63822
2091.95	9.93317
2093.41	10.2999
2094.86	10.7539
2096.32	10.6191
2097.77	10.8795
2099.23	11.0454
2100.68	11.083
2102.14	11.2256
2103.59	10.9482
2105.05	11.3301
2106.5	12.1082
2107.95	12.1798
2109.41	12.5237
2110.86	13.9609
2112.31	14.5368
2113.76	15.0623
2115.21	15.5961
2116.67	15.5321
2118.12	16.1949
2119.57	16.856
2121.02	17.834
2122.47	18.6613
2123.92	19.2496
2125.37	20.3292
2126.82	20.6586
2128.27	22.1778
2129.72	23.2404
2131.17	24.6423
2132.62	24.8995
2134.07	26.2017
2135.51	27.3454
2136.96	28.3319
2138.41	28.63
2139.86	29.4882
2141.31	30.6371
2142.75	31.8798
2144.2	32.7143
2145.65	33.081
2147.09	34.2575
2148.54	34.4063
2149.98	35.1182
2151.43	35.9651
2152.87	36.8571
2154.32	37.2553
2155.76	37.3885
2157.21	38.6308
2158.65	39.1747
2160.1	39.9485
2161.54	41.6972
2162.98	42.2456
2164.43	42.4206
2165.87	42.8214
2167.31	43.3241
2168.75	43.1238
2170.2	43.8925
2171.64	44.2546
2173.08	44.6566
2174.52	44.5226
2175.96	44.4395
2177.4	44.7243
2178.84	44.2742
2180.28	43.595
2181.72	42.8762
2183.16	42.0271
2184.6	41.0357
2186.04	40.6934
2187.48	40.3012
2188.92	39.5142
2190.36	39.2929
2191.79	39.7764
2193.23	39.4156
2194.67	39.1735
2196.11	38.9733
2197.54	38.5134
2198.98	37.5239
2200.42	37.4121
2201.85	36.8444
2203.29	35.7027
2204.72	34.1829
2206.16	33.9852
2207.59	32.9235
2209.03	31.272
2210.46	29.8117
2211.9	29.4764
2213.33	28.2795
2214.77	27.2021
2216.2	26.2819
2217.63	25.4277
2219.07	25.1942
2220.5	23.8988
2221.93	23.4027
2223.36	22.9417
2224.8	22.3422
2226.23	22.0389
2227.66	21.6575
2229.09	21.3381
2230.52	20.7794
2231.95	20.6834
2233.39	19.6488
2234.81	18.2089
2236.25	17.3028
2237.67	16.6769
2239.1	15.9081
2240.53	14.7798
2241.96	14.6229
2243.39	13.7908
2244.82	13.5268
2246.25	12.3781
2247.68	11.718
2249.1	11.5956
2250.53	11.0823
2251.96	11.3756
2253.38	11.6683
2254.81	11.7331
2256.24	12.436
2257.66	12.7517
2259.09	12.2241
2260.51	12.6925
2261.94	12.6525
2263.36	12.8247
2264.79	12.1176
2266.21	12.3165
2267.64	12.0155
2269.06	11.3764
2270.49	11.2644
2271.91	11.2201
2273.33	10.721
2274.76	9.82221
2276.18	9.14135
2277.6	9.37342
2279.02	8.71293
2280.44	7.88098
2281.87	7.92601
2283.29	8.33525
2284.71	8.20675
2286.13	8.49844
2287.55	9.06105
2288.97	8.97626
2290.39	8.8955
2291.81	8.08137
2293.23	7.75603
2294.65	7.30635
2296.07	7.52688
2297.49	7.99021
2298.91	7.85927
2300.33	8.31732
2301.74	8.56894
2303.16	9.02958
2304.58	8.60484
2306	8.56804
2307.41	9.11571
2308.83	9.76794
2310.25	9.67596
2311.66	9.71904
2313.08	10.522
2314.5	11.6117
2315.91	11.641
2317.33	11.3024
2318.74	12.0566
2320.16	12.2746
2321.57	11.8962
2322.98	11.8181
2324.4	11.2148
2325.81	11.3213
2327.23	11.6719
2328.64	11.4091
2330.05	10.0527
2331.46	10.0719
2332.88	9.69285
2334.29	10.0392
2335.7	10.396
2337.11	9.93023
2338.52	9.04534
2339.94	8.61906
2341.35	8.4127
2342.76	7.80575
2344.17	7.43162
2345.58	6.04845
2346.99	5.89872
2348.4	5.5889
2349.81	4.86426
2351.22	4.20104
2352.62	3.92157
2354.03	3.8723
2355.44	2.90646
2356.85	2.95742
2358.26	2.50616
2359.67	1.80782
2361.07	1.63378
2362.48	1.81331
2363.89	2.22802
2365.29	2.46343
2366.7	3.18955
2368.11	3.12767
2369.51	2.86158
2370.92	2.27357
2372.32	2.33706
2373.73	2.62314
2375.13	2.68877
2376.54	3.20381
2377.94	3.32068
2379.35	3.19997
2380.75	3.36837
2382.15	3.07524
2383.56	3.18254
2384.96	2.64739
2386.36	1.64859
2387.76	1.69603
2389.17	1.85391
2390.57	1.64843
2391.97	2.14834
2393.37	2.75792
2394.77	2.81764
2396.17	3.09381
2397.58	2.40338
2398.98	1.83661
2400.38	2.1475
2401.78	2.89936
2403.18	3.33944
2404.58	3.21793
2405.97	2.66425
2407.37	2.61894
2408.77	2.98472
2410.17	3.68587
2411.57	3.1816
2412.97	2.85296
2414.37	3.02816
2415.76	3.02336
2417.16	3.6238
2418.56	3.40962
2419.95	3.67496
2421.35	4.03632
2422.75	4.59929
2424.14	4.92113
2425.54	4.59
2426.93	5.42547
2428.33	5.29925
2429.72	5.61552
2431.12	5.7156
2432.51	5.38027
2433.91	5.22614
2435.3	5.05259
2436.7	5.63945
2438.09	5.77031
2439.48	6.31177
2440.88	5.82937
2442.27	6.26989
2443.66	6.06458
2445.05	5.32206
2446.44	4.74474
2447.84	3.91928
2449.23	3.80334
2450.62	3.14721
2452.01	2.34833
2453.4	1.88782
2454.79	1.54954
2456.18	1.59371
2457.57	1.45126
2458.96	1.54111
2460.35	1.28253
2461.74	0.907283
2463.13	0.855129
2464.52	0.547132
2465.91	0.469568
2467.29	0.275086
2468.68	0.649934
2470.07	0.40855
2471.46	0.687417
2472.85	1.01904
2474.23	1.51717
2475.62	2.06645
2477.01	2.92168
2478.39	2.85156
2479.78	3.04838
2481.16	2.2952
2482.55	2.69706
2483.93	3.20971
2485.32	3.54047
2486.7	3.33556
2488.09	3.82952
2489.47	4.12455
2490.86	3.85702
2492.24	3.93736
2493.62	3.05483
2495.01	3.38139
2496.39	4.04267
2497.77	4.30239
2499.15	4.09715
2500.54	4.02507
2501.92	4.03988
2503.3	4.77908
2504.68	5.15617
2506.06	5.42874
2507.45	4.83813
2508.83	4.74514
2510.21	4.75075
2511.59	5.09256
2512.97	5.28764
2514.35	4.75888
2515.73	5.37205
2517.11	5.41933
2518.48	5.75321
2519.86	5.41845
2521.24	5.55895
2522.62	5.26737
2524	5.68345
2525.38	5.95959
2526.75	6.17647
2528.13	6.25045
2529.51	5.77747
2530.89	6.27192
2532.26	6.89724
2533.64	7.01948
2535.02	7.43207
2536.39	7.50315
2537.77	7.77814
2539.14	7.48207
2540.52	8.01302
2541.89	7.89252
2543.27	7.68347
2544.64	7.37342
2546.01	7.2188
2547.39	6.82972
2548.76	6.30792
2550.14	5.71738
2551.51	5.83333
2552.88	5.44685
2554.25	5.13023
2555.63	4.5802
2557	5.53312
2558.37	5.55054
2559.74	5.21315
2561.11	5.68396
2562.49	5.23527
2563.86	5.4683
2565.23	5.34945
2566.6	5.17212
2567.97	5.18199
2569.34	5.71967
2570.71	5.80226
2572.08	6.31999
2573.45	5.90802
2574.82	5.12356
2576.18	4.92894
2577.55	5.11447
2578.92	5.18553
2580.29	4.70852
2581.66	4.56497
2583.02	4.88774
2584.39	5.60213
2585.76	5.44772
2587.13	5.09347
2588.49	4.95755
2589.86	5.03832
2591.22	4.99288
2592.59	5.15986
2593.96	5.0151
2595.32	4.81049
2596.69	4.40566
2598.05	4.22209
2599.42	4.84378
2600.78	4.83597
2602.14	4.5432
2603.51	4.24282
2604.87	3.5167
2606.23	3.17963
2607.6	2.70594
2608.96	2.72568
2610.32	3.22525
2611.69	3.37079
2613.05	3.33083
2614.41	3.23929
2615.77	2.64616
2617.13	2.25217
2618.49	2.66296
2619.86	3.11862
2621.22	3.58428
2622.58	4.025
2623.94	4.48609
2625.3	5.24652
2626.66	5.13104
2628.02	4.72672
2629.37	4.25116
2630.73	3.67233
2632.09	3.89381
2633.45	4.28402
2634.81	4.89115
2636.17	5.55697
2637.53	5.89494
2638.88	5.98884
2640.24	6.57267
2641.6	5.4172
2642.96	5.6718
2644.31	6.43243
2645.67	6.59289
2647.02	6.90876
2648.38	7.05416
2649.74	7.67967
2651.09	8.07511
2652.45	7.74762
2653.8	7.75937
2655.16	8.31846
2656.51	8.33018
2657.86	8.65332
2659.22	8.44709
2660.57	8.83148
2661.93	9.04812
2663.28	9.70103
2664.63	10.1255
2665.98	11.1167
2667.34	11.2417
2668.69	11.3776
2670.04	11.6004
2671.39	11.9458
2672.75	12.6521
2674.09	13.1715
2675.45	13.3387
2676.8	14.0856
2678.15	13.8522
2679.5	13.0454
2680.85	12.7646
2682.2	13.2657
2683.55	13.6514
2684.9	14.1816
2686.25	14.7706
2687.6	15.5398
2688.94	15.2547
2690.29	15.4277
2691.64	15.5325
2692.99	15.683
2694.34	16.0013
2695.68	16.09
2697.03	16.2216
2698.38	17.3534
2699.73	18.1166
2701.07	18.1422
2702.42	18.7785
2703.76	18.4735
2705.11	18.851
2706.45	18.8892
2707.8	18.5593
2709.15	18.2733
2710.49	18.7348
2711.83	19.0824
2713.18	18.9387
2714.52	18.6711
2715.87	18.6678
2717.21	19.071
2718.55	18.6125
2719.9	18.7124
2721.24	18.972
2722.58	19.4766
2723.93	19.2468
2725.27	19.0774
2726.61	18.7181
2727.95	19.1427
2729.29	18.7899
2730.63	18.6929
2731.98	17.3801
2733.32	17.2796
2734.66	16.2685
2736	16.2883
2737.34	15.1923
2738.68	14.1897
2740.02	13.7434
2741.36	12.6827
2742.7	11.6003
2744.03	10.3717
2745.37	9.10835
2746.71	8.72865
2748.05	8.73625
2749.39	8.56701
2750.72	7.99056
2752.06	7.74332
2753.4	7.26391
2754.74	6.89903
2756.07	6.1829
2757.41	6.21092
2758.75	6.09817
2760.08	6.38645
2761.42	6.3323
2762.76	6.23507
2764.09	5.89368
2765.42	6.40797
2766.76	5.61418
2768.09	5.40516
2769.43	6.10234
2770.76	6.39986
2772.1	6.98349
2773.43	6.33164
2774.76	5.8294
2776.1	5.70911
2777.43	5.21595
2778.76	5.0344
2780.1	5.09799
2781.43	4.65248
2782.76	4.68685
2784.09	5.29467
2785.42	5.26857
2786.75	6.19668
2788.09	5.99743
2789.42	6.30471
2790.75	5.77428
2792.08	5.32636
2793.41	5.56148
2794.74	5.45042
2796.07	5.165
2797.4	4.71166
2798.73	4.13323
2800.06	4.40844
2801.39	3.57042
2802.71	3.45672
2804.04	2.65399
2805.37	2.93021
2806.7	3.08313
2808.03	2.36465
2809.35	1.71346
2810.68	2.27337
2812.01	2.50239
2813.33	2.76143
2814.66	2.77987
2815.99	2.94082
2817.31	3.3897
2818.64	3.64038
2819.96	3.58278
2821.29	4.74212
2822.61	5.78009
2823.94	7.20777
2825.26	8.55281
2826.59	10.1701
2827.91	11.5713
2829.23	13.3815
2830.56	14.6565
2831.88	16.1445
2833.21	17.4157
2834.53	19.7793
2835.85	21.4394
2837.17	22.6308
2838.5	23.9912
2839.82	25.5694
2841.14	28.4004
2842.46	30.3409
2843.78	32.7555
2845.1	35.0991
2846.42	38.1171
2847.74	41.0748
2849.06	44.3981
2850.38	48.4962
2851.71	51.1874
2853.03	54.5406
2854.34	57.5354
2855.66	60.5143
2856.98	64.3131
2858.3	67.6463
2859.62	70.8968
2860.94	73.5603
2862.26	76.2367
2863.57	78.9449
2864.89	81.5161
2866.21	84.5171
2867.53	87.3502
2868.84	90.4395
2870.16	92.7658
2871.48	94.9846
2872.79	96.1547
2874.11	97.6393
2875.42	99.3757
2876.74	101.085
2878.05	101.891
2879.37	103.566
2880.68	104.706
2882	105.957
2883.31	107.546
2884.63	108.88
2885.94	110.743
2887.26	113.501
2888.57	115.392
2889.88	117.895
2891.19	119.07
2892.51	120.631
2893.82	122.135
2895.13	123.412
2896.44	124.716
2897.76	126.919
2899.07	129.277
2900.38	132
2901.69	133.507
2903	136.279
2904.31	139.16
2905.62	142.781
2906.93	146.528
2908.24	149.36
2909.55	153.655
2910.86	158.094
2912.17	162.97
2913.48	167.734
2914.79	171.551
2916.1	175.555
2917.41	179.039
2918.71	182.454
2920.02	185.163
2921.33	188.121
2922.64	191.36
2923.94	192.706
2925.25	194.518
2926.56	195.569
2927.86	196.729
2929.17	197.345
2930.48	197.857
2931.78	197.951
2933.09	197.255
2934.39	196.44
2935.7	194.599
2937	192.709
2938.31	190.591
2939.61	188.831
2940.92	186.479
2942.22	184.051
2943.53	181.318
2944.83	178.362
2946.13	175.197
2947.43	172.084
2948.74	169.572
2950.04	166.295
2951.34	163.229
2952.64	160.302
2953.95	156.537
2955.25	152.701
2956.55	148.365
2957.85	144.738
2959.15	141.363
2960.45	137.446
2961.75	133.907
2963.05	130.683
2964.35	127.082
2965.65	124.234
2966.95	120.71
2968.25	119.1
2969.55	116.45
2970.85	114.279
2972.15	111.267
2973.45	108.901
2974.75	106.797
2976.05	104.037
2977.34	100.837
2978.64	97.0251
2979.94	93.8341
2981.24	90.786
2982.53	86.7994
2983.83	83.2901
2985.13	79.9159
2986.42	76.3133
2987.72	72.2146
2989.01	68.5638
2990.31	65.3682
2991.61	61.4485
2992.9	57.8357
2994.19	54.27
2995.49	51.0161
2996.78	47.1807
2998.08	44.144
2999.37	41.2457
3000.67	37.5586
3001.96	34.6791
3003.25	31.3489
3004.55	28.7912
3005.84	25.5995
3007.13	23.1626
3008.42	20.7915
3009.72	18.4691
3011.01	16.7871
3012.3	15.2437
3013.59	14.0994
3014.88	12.191
3016.17	10.6935
3017.46	9.37547
3018.76	8.22656
3020.05	6.80828
3021.34	5.95736
3022.63	5.17098
3023.92	4.22973
3025.21	3.16772
3026.49	2.56252
3027.78	1.57633
3029.07	1.92698
3030.36	2.23898
3031.65	2.3008
3032.94	2.67171
3034.23	2.03103
3035.51	2.33299
3036.8	2.85493
3038.09	3.87857
3039.38	4.14865
3040.66	4.64667
3041.95	5.26988
3043.23	6.18822
3044.52	7.48498
3045.81	7.34139
3047.09	7.06649
3048.38	8.02214
3049.66	8.10358
3050.95	8.32899
3052.23	8.99167
3053.52	9.50019
3054.8	10.0223
3056.09	9.78184
3057.37	10.2109
3058.65	10.6487
3059.94	10.3092
3061.22	10.4372
3062.5	10.6201
3063.79	10.227
3065.07	9.08487
3066.35	8.7615
3067.63	7.93319
3068.92	7.94237
3070.2	7.1014
3071.48	6.89479
3072.76	6.57784
3074.04	5.79471
3075.32	5.85716
3076.6	5.05497
3077.88	4.34859
3079.16	3.28801
3080.44	3.05165
3081.72	2.60593
3083	1.92599
3084.28	1.4882
3085.56	0.97453
3086.84	0.238411
3088.12	-0.672654
3089.4	-1.1022
3090.67	-0.656952
3091.95	-1.26157
3093.23	-0.535847
3094.51	-0.906135
3095.78	-1.23126
3097.06	-1.64234
3098.34	-1.38733
3099.61	-0.54636
3100.89	-0.0219173
3102.17	0.351888
3103.44	0.223284
3104.72	0.33627
3105.99	0.352285
3107.27	0.0762982
3108.54	-0.357027
3109.82	-0.313663
3111.09	-0.368648
3112.37	0.114997
3113.64	0.249849
3114.92	0.265376
3116.19	0.411473
3117.46	0.942488
3118.74	1.47541
3120.01	1.51486
3121.28	2.03227
3122.55	1.95654
3123.83	1.7414
3125.1	2.18345
3126.37	2.13576
3127.64	1.92834
3128.91	1.73803
3130.19	2.26474
3131.46	2.73661
3132.73	3.45347
3134	3.65705
3135.27	4.21511
3136.54	5.11078
3137.81	5.56862
3139.08	6.56046
3140.35	7.21672
3141.62	8.33236
3142.89	9.48574
3144.16	10.7015
3145.42	12.0899
3146.69	13.5396
3147.96	14.6628
3149.23	17.3742
