#Acq. time (s)=	45
#Accumulations=	2
#Range (cm-¹)=	200...3150
#Windows=	2
#Auto scanning=	Off
#Autofocus=	Off
#Macrospot=	Off
#AutoExposure=	Off
#Spike filter=	Multiple accum.
#Delay time (s)=	0
#Binning=	1
#Readout mode=	Signal
#DeNoise=	Off
#ICS correction=	On
#Dark correction=	Off
#Inst. Process=	Off
#Detector Gain=	Best Dynamic Range
#Detector ADC=	20 kHz       
#Detector temperature (°C)=	-69.85
#Instrument=	LabRAM HR Evol
#Detector=	Synapse
#Objective=	x100
#Grating=	600 gr/mm
#ND Filter=	100%
#Laser (nm)=	532 
#Hole=	100.021
#Range=	Auto
#Laser Pol.=	No
#Raman. Pol.=	No
#Laser Pol. (°)=	-0.0007625
#Raman Pol. (°)=	89.9995
#Collection=	Microscope
#StageXY=	Marzhauser
#StageZ=	Marzhauser
#X (µm)=	2184.2
#Y (µm)=	1268.8
#Z (µm)=	442.1
#Full time(mm:ss)=	3:18
#Project=	
#Sample=	
#Site=	
#Title=	Thy_10_08_15_2x_45s_532 nm_x100_100%_600 gr_mm
#Remark=	
#Date=	05.07.2022 15:15
#Acquired=	05.07.2022 15:15:49
#Base:Fit=	10.08.2022 09:46:25
#Base:Sub=	10.08.2022 09:46:49
#Filter:Polynom=	16.08.2022 10:24:56
#AxisType[0]=Intens
#AxisUnit[0]=Cnt
#AxisType[1]=Spectr
#AxisUnit[1]=1/cm
200.43	26.7704
202.244	26.0367
204.059	26.6791
205.873	26.6464
207.688	25.6317
209.501	23.9061
211.314	22.1575
213.127	20.2752
214.941	17.7731
216.753	15.9457
218.564	14.8246
220.375	14.1863
222.186	13.6625
223.999	12.5211
225.809	12.1799
227.618	12.4118
229.428	11.7694
231.236	11.2432
233.045	10.6271
234.855	9.66334
236.663	9.57211
238.471	9.14292
240.278	9.95943
242.085	10.64
243.891	10.828
245.698	11.1224
247.503	11.026
249.309	11.0777
251.116	11.4526
252.921	11.0944
254.725	12.0629
256.529	11.9454
258.333	13.1299
260.136	12.9972
261.939	13.2642
263.742	13.5351
265.544	13.7837
267.346	15.0286
269.148	15.687
270.949	15.0439
272.75	16.2925
274.55	16.2545
276.351	16.0361
278.15	15.6528
279.95	15.3081
281.749	15.2552
283.548	15.0751
285.346	14.906
287.144	14.9852
288.942	14.1461
290.739	13.7339
292.536	14.0156
294.333	14.1143
296.129	14.4366
297.925	14.0053
299.721	14.0175
301.514	14.1864
303.309	14.7205
305.104	14.1622
306.898	15.3375
308.692	16.687
310.486	15.8676
312.279	15.9322
314.072	16.4064
315.862	16.5469
317.654	16.5342
319.446	17.2754
321.238	17.3645
323.029	17.4961
324.819	18.3306
326.608	19.7728
328.398	20.0076
330.188	21.5634
331.977	21.9283
333.766	22.328
335.553	22.5187
337.341	23.3365
339.129	23.8879
340.917	24.8801
342.704	24.1279
344.489	24.9406
346.275	24.478
348.062	24.9388
349.845	22.9158
351.631	21.5924
353.416	21.3826
355.201	20.5071
356.984	20.039
358.768	18.2025
360.552	18.0536
362.333	16.0582
364.116	14.6464
365.899	14.1209
367.68	13.249
369.462	13.5167
371.243	14.0862
373.023	12.4283
374.804	11.9528
376.585	11.4217
378.363	10.8158
380.143	11.5103
381.923	11.6229
383.7	11.5423
385.479	10.5312
387.256	9.35444
389.034	9.78937
390.812	9.44152
392.588	8.61014
394.365	7.7559
396.14	8.28808
397.916	7.85971
399.691	6.58221
401.467	6.85042
403.24	6.87745
405.015	7.01336
406.788	7.24461
408.563	7.8727
410.335	7.32299
412.109	7.48078
413.88	7.83618
415.654	8.033
417.424	7.69994
419.197	8.56732
420.967	8.90215
422.739	9.28367
424.508	9.62013
426.279	10.2876
428.048	10.6979
429.819	10.2013
431.587	9.94003
433.356	10.2043
435.124	9.84516
436.891	9.20881
438.66	8.11133
440.426	7.88355
442.194	8.50447
443.96	8.43046
445.725	8.80834
447.492	9.61489
449.257	10.1454
451.021	9.75105
452.787	11.0218
454.551	11.7252
456.314	12.4178
458.079	13.586
459.842	14.325
461.604	15.3236
463.368	17.0949
465.13	18.0171
466.891	18.9401
468.654	19.4924
470.415	19.7718
472.175	20.9163
473.935	21.8229
475.696	21.9892
477.456	23.101
479.215	24.2252
480.973	24.5041
482.733	25.3446
484.491	26.1683
486.249	26.6876
488.006	26.8962
489.765	27.4206
491.522	28.4865
493.278	29.2688
495.034	28.5306
496.789	29.1367
498.544	29.1305
500.301	29.3757
502.056	29.2874
503.81	28.5558
505.564	28.2648
507.317	28.4968
509.071	28.4903
510.825	28.6366
512.578	27.599
514.33	27.1447
516.082	26.1687
517.833	25.0178
519.585	25.1213
521.335	24.071
523.086	24.4901
524.836	24.1605
526.586	24.7022
528.335	25.0858
530.085	25.0857
531.835	24.7024
533.584	23.8037
535.332	23.8262
537.08	23.594
538.827	23.1671
540.574	23.3489
542.321	22.7564
544.068	22.001
545.814	21.5081
547.56	20.8596
549.305	19.3757
551.05	18.7485
552.795	17.17
554.54	17.2774
556.282	17.2158
558.025	17.2549
559.769	16.8312
561.512	15.6943
563.255	14.8999
564.997	15.5641
566.739	13.9074
568.481	11.8056
570.223	10.8171
571.964	10.9446
573.705	9.6968
575.443	8.5288
577.183	7.93296
578.923	6.29074
580.663	5.38562
582.402	3.809
584.141	3.09758
585.879	2.01752
587.615	1.9789
589.353	1.58754
591.09	1.19014
592.828	1.2372
594.564	0.243801
596.299	-0.685421
598.035	-0.990227
599.771	-1.22031
601.506	-0.683413
603.242	-0.432768
604.974	0.147241
606.709	0.136365
608.443	0.412709
610.177	1.20206
611.908	1.58075
613.642	2.73399
615.374	2.70372
617.105	2.55544
618.837	2.17532
620.569	2.12463
622.3	2.99109
624.03	2.95065
625.761	2.36578
627.491	2.55692
629.219	3.25804
630.949	3.47408
632.677	4.03822
634.406	5.49578
636.135	8.12261
637.861	9.58025
639.59	9.08929
641.318	10.603
643.043	10.977
644.77	10.7777
646.495	10.9655
648.222	12.2792
649.948	12.8505
651.672	12.8638
653.398	13.2898
655.121	13.9143
656.846	14.573
658.569	14.6386
660.293	14.2357
662.015	14.8133
663.738	15.1592
665.46	14.7778
667.183	15.3803
668.903	16.2587
670.626	15.8175
672.346	16.7582
674.067	18.225
675.787	18.1543
677.508	17.0729
679.226	16.3427
680.947	17.0253
682.665	18.1792
684.385	19.0688
686.102	19.693
687.821	20.1496
689.538	21.6004
691.254	21.4037
692.972	23.2903
694.688	25.7722
696.406	26.9997
698.121	29.4659
699.835	30.1808
701.552	31.0698
703.266	33.0414
704.98	33.4455
706.695	35.1011
708.409	36.7079
710.121	38.3293
711.836	40.7198
713.548	42.8468
715.26	45.0416
716.973	45.6099
718.685	47.9343
720.396	49.9738
722.108	51.6033
723.818	51.3235
725.528	52.125
727.238	54.0627
728.949	54.5154
730.658	55.2331
732.367	56.9396
734.075	57.6367
735.785	58.4408
737.493	59.6002
739.2	60.9205
740.907	60.967
742.614	61.6892
744.322	61.5898
746.028	62.3438
747.734	62.8797
749.439	62.7866
751.144	62.213
752.849	62.4356
754.555	63.9533
756.26	63.5023
757.963	65.7592
759.667	66.0558
761.37	65.9207
763.073	66.3648
764.775	67.5399
766.477	69.6579
768.179	70.4018
769.883	71.1928
771.584	72.9932
773.285	74.5018
774.986	75.3667
776.686	76.0836
778.386	78.8646
780.085	78.6038
781.785	78.931
783.484	79.4385
785.182	79.077
786.881	78.6494
788.579	78.402
790.276	79.1159
791.974	79.7325
793.671	80.291
795.367	81.4909
797.064	81.6109
798.76	81.0187
800.456	81.8638
802.151	81.993
803.846	83.3149
805.541	81.7789
807.234	81.8361
808.928	82.2006
810.622	82.406
812.315	82.6722
814.008	82.7691
815.701	83.1734
817.394	83.8643
819.086	83.3974
820.778	84.9778
822.468	84.8554
824.159	84.9264
825.85	85.881
827.541	85.7034
829.231	86.2697
830.921	85.473
832.609	85.4963
834.298	85.3914
835.987	85.7202
837.676	86.945
839.364	87.8732
841.051	87.5882
842.738	87.3707
844.426	86.4345
846.113	86.3532
847.798	86.1545
849.484	86.0654
851.171	85.2992
852.857	82.9451
854.54	81.2694
856.226	80.6024
857.911	79.4288
859.593	77.6779
861.278	76.4203
862.961	74.4471
864.645	72.3317
866.327	72.2909
868.01	70.6616
869.692	69.668
871.373	68.9447
873.055	70.0574
874.735	71.0026
876.416	68.9484
878.097	69.1875
879.776	68.9302
881.457	68.1463
883.135	68.1408
884.815	67.6536
886.495	66.5165
888.172	65.4276
889.851	63.7167
891.528	63.9929
893.206	63.7789
894.882	62.6524
896.56	61.4578
898.237	61.8823
899.912	62.0379
901.589	63.1908
903.263	63.8509
904.94	65.0615
906.614	64.884
908.289	64.94
909.962	64.975
911.635	64.7393
913.31	63.9772
914.982	62.9245
916.656	64.3428
918.328	64.3664
920.001	63.745
921.672	63.8958
923.345	62.8373
925.015	61.6883
926.685	60.1265
928.357	59.7963
930.026	58.1899
931.698	56.259
933.366	54.4536
935.035	53.2727
936.705	52.2847
938.373	52.3998
940.041	52.4221
941.71	50.9366
943.377	49.2428
945.044	47.812
946.712	46.463
948.378	46.6805
950.044	46.302
951.709	45.7695
953.376	45.9885
955.041	46.9258
956.706	46.2481
958.372	44.4165
960.036	41.4535
961.699	40.6093
963.362	41.3295
965.027	43.1381
966.69	45.5879
968.352	46.7026
970.014	48.002
971.676	50.3961
973.339	52.8278
975	55.0957
976.661	56.6879
978.322	57.046
979.982	59.281
981.642	61.2808
983.303	63.0658
984.962	64.273
986.621	64.4652
988.28	64.4619
989.938	65.422
991.596	66.6946
993.254	67.7074
994.911	68.619
996.57	68.7304
998.227	70.5863
999.884	70.7772
1001.54	69.9321
1003.2	69.9311
1004.85	69.6451
1006.51	67.5414
1008.16	66.7533
1009.82	66.511
1011.47	65.5918
1013.12	64.34
1014.78	62.9431
1016.43	61.5715
1018.08	60.6193
1019.74	57.8115
1021.39	56.0458
1023.04	53.9174
1024.69	50.8769
1026.34	48.5879
1028	46.2821
1029.65	44.5781
1031.3	42.9273
1032.95	40.2616
1034.6	37.1096
1036.25	35.0305
1037.9	32.9306
1039.54	30.8353
1041.19	29.1285
1042.84	28.2937
1044.49	30.4593
1046.14	32.6977
1047.78	32.9371
1049.43	32.5611
1051.08	30.9226
1052.72	30.3356
1054.37	30.384
1056.02	29.5606
1057.66	27.4566
1059.31	25.01
1060.95	23.3802
1062.6	23.0253
1064.24	21.6246
1065.88	22.0816
1067.53	21.9303
1069.17	22.0143
1070.81	22.1722
1072.45	23.3464
1074.1	23.6793
1075.74	24.1518
1077.38	24.6191
1079.02	25.2907
1080.66	26.4079
1082.3	26.2242
1083.94	26.4869
1085.58	26.6129
1087.22	26.4801
1088.86	26.8281
1090.5	28.4433
1092.14	29.8783
1093.78	30.9197
1095.42	32.0066
1097.05	31.8496
1098.69	32.4225
1100.33	33.2423
1101.96	32.9173
1103.6	34.0172
1105.24	33.5095
1106.87	32.263
1108.51	32.605
1110.14	30.0537
1111.78	27.1554
1113.41	25.0505
1115.05	25.5726
1116.68	25.6223
1118.31	26.8602
1119.95	26.8906
1121.58	26.7023
1123.21	26.288
1124.85	26.5828
1126.48	27.5228
1128.11	26.5157
1129.74	26.0168
1131.37	25.0203
1133	24.116
1134.63	24.1524
1136.26	23.1553
1137.89	22.7748
1139.52	20.8246
1141.15	19.531
1142.78	19.3383
1144.41	18.7484
1146.04	18.0694
1147.66	18.5884
1149.29	18.3879
1150.92	17.6462
1152.55	17.3406
1154.17	17.2145
1155.8	17.16
1157.43	16.8871
1159.05	16.4086
1160.68	15.3258
1162.3	15.7533
1163.93	14.6099
1165.55	14.4325
1167.17	13.9725
1168.8	15.0102
1170.42	15.29
1172.05	16.8018
1173.67	18.4931
1175.29	18.9971
1176.91	19.8322
1178.54	20.0764
1180.16	20.3764
1181.78	20.9565
1183.4	20.3458
1185.02	20.3846
1186.64	19.2752
1188.26	20.3792
1189.88	20.9321
1191.5	20.0163
1193.12	22.1173
1194.74	25.1272
1196.36	28.0535
1197.97	28.9929
1199.59	30.5399
1201.21	32.4616
1202.83	34.1731
1204.44	35.2318
1206.06	36.9206
1207.68	38.8082
1209.29	40.1086
1210.91	42.5902
1212.52	44.1987
1214.14	47.3249
1215.75	49.4661
1217.37	50.8189
1218.98	52.1512
1220.59	52.7114
1222.21	53.5837
1223.82	55.7126
1225.43	57.6445
1227.05	59.5966
1228.66	62.2488
1230.27	63.285
1231.88	64.5829
1233.49	65.3207
1235.1	65.3873
1236.72	66.7612
1238.33	67.5807
1239.94	69.657
1241.55	70.2146
1243.16	71.9281
1244.76	72.7623
1246.37	74.4435
1247.98	75.2614
1249.59	76.7387
1251.2	77.623
1252.8	78.8102
1254.41	80.2206
1256.02	80.3508
1257.62	81.0329
1259.23	81.1378
1260.84	81.2887
1262.44	82.1945
1264.05	81.262
1265.66	81.6355
1267.26	82.1067
1268.86	82.5656
1270.47	82.1419
1272.07	82.376
1273.67	82.1183
1275.28	82.716
1276.88	84.3358
1278.48	84.4918
1280.09	86.1712
1281.69	87.6192
1283.29	87.4801
1284.89	88.4159
1286.49	90.1071
1288.09	92.2662
1289.69	93.2627
1291.29	94.6173
1292.89	95.2323
1294.49	95.4905
1296.09	95.7198
1297.69	96.5257
1299.29	96.5341
1300.89	98.4437
1302.49	99.6193
1304.08	100.827
1305.68	102.024
1307.28	102.842
1308.88	104.101
1310.47	105.107
1312.07	105.702
1313.66	106.078
1315.26	106.735
1316.85	109.08
1318.45	111.029
1320.04	112.119
1321.64	111.995
1323.23	112.455
1324.83	113
1326.42	112.685
1328.01	111.623
1329.61	111.318
1331.2	110.717
1332.79	109.937
1334.38	109.499
1335.97	107.763
1337.56	106.891
1339.16	105.564
1340.75	103.826
1342.34	102.615
1343.93	99.7303
1345.52	97.7464
1347.11	95.4858
1348.7	93.1926
1350.29	91.6151
1351.87	89.0404
1353.46	87.2048
1355.05	86.2331
1356.64	83.6581
1358.22	81.1531
1359.81	79.619
1361.4	76.4476
1362.98	73.5048
1364.57	72.3654
1366.16	70.1732
1367.74	69.1444
1369.33	66.3625
1370.91	64.1844
1372.5	62.4341
1374.08	60.4237
1375.67	59.4774
1377.25	58.0465
1378.83	56.8907
1380.41	56.9718
1382	56.0541
1383.58	55.8135
1385.16	55.9179
1386.74	55.7297
1388.33	55.69
1389.91	56.2327
1391.49	55.9991
1393.07	55.2647
1394.65	55.2318
1396.23	55.8621
1397.81	55.2558
1399.39	54.0271
1400.97	53.9557
1402.55	54.0162
1404.13	53.8073
1405.7	53.527
1407.28	53.5486
1408.86	54.2557
1410.44	54.9875
1412.01	55.0299
1413.59	56.5248
1415.17	57.8234
1416.74	59.9069
1418.32	61.7469
1419.89	64.8507
1421.47	67.5513
1423.04	69.3096
1424.62	73.1721
1426.19	77.0265
1427.77	80.7394
1429.34	84.7597
1430.91	88.3374
1432.49	91.6723
1434.06	95.786
1435.63	98.5704
1437.2	102.139
1438.78	104.696
1440.35	107.924
1441.92	110.407
1443.49	112.583
1445.06	113.998
1446.63	115.545
1448.2	116.469
1449.77	117.643
1451.34	117.652
1452.91	116.663
1454.48	117.059
1456.05	116.584
1457.62	115.408
1459.18	113.851
1460.75	111.758
1462.32	108.348
1463.89	105.049
1465.45	101.616
1467.02	97.841
1468.59	93.4664
1470.15	88.2258
1471.72	82.6561
1473.28	78.3305
1474.85	73.7618
1476.41	69.8083
1477.98	65.377
1479.54	61.2747
1481.1	55.9076
1482.67	51.4105
1484.23	47.6921
1485.79	43.2359
1487.36	38.7583
1488.92	35.2973
1490.48	31.4285
1492.04	30.3614
1493.61	27.9932
1495.17	26.0335
1496.73	24.8804
1498.29	22.6953
1499.85	20.8124
1501.41	19.7757
1502.97	19.7682
1504.53	18.344
1506.09	17.7715
1507.65	17.6948
1509.2	16.7159
1510.76	16.6812
1512.32	16.7989
1513.88	16.08
1515.43	15.6974
1516.99	15.4696
1518.55	15.0027
1520.1	14.8895
1521.66	16.194
1523.22	17.1062
1524.77	18.747
1526.33	19.5407
1527.88	19.7628
1529.44	19.5057
1530.99	20.6341
1532.54	22.8223
1534.1	24.3646
1535.65	25.6737
1537.21	27.263
1538.76	27.8135
1540.31	28.8075
1541.86	30.6942
1543.42	32.8553
1544.97	34.4079
1546.52	35.197
1548.07	37.1744
1549.62	38.9753
1551.17	41.7265
1552.72	44.0927
1554.27	46.1409
1555.82	48.0655
1557.37	50.6973
1558.92	52.37
1560.47	55.1773
1562.02	57.3454
1563.56	58.318
1565.11	60.6059
1566.66	63.4996
1568.21	64.9552
1569.75	68.4144
1571.3	70.5785
1572.85	72.4749
1574.39	73.8558
1575.94	75.3316
1577.49	77.9266
1579.03	80.1777
1580.57	82.7024
1582.12	84.5441
1583.66	86.6108
1585.21	87.8583
1586.75	89.0929
1588.3	90.3167
1589.84	90.7103
1591.38	91.1173
1592.92	91.9801
1594.47	91.9196
1596.01	92.4427
1597.55	93.0227
1599.09	93.9333
1600.63	93.9397
1602.17	93.9575
1603.71	93.4236
1605.25	93.3064
1606.79	93.5461
1608.33	93.7258
1609.87	94.1408
1611.41	94.6092
1612.95	93.611
1614.49	93.5679
1616.03	92.6287
1617.57	93.0785
1619.1	92.9093
1620.64	92.9556
1622.18	92.4892
1623.72	92.163
1625.25	94.0944
1626.79	94.452
1628.32	96.2519
1629.86	96.6599
1631.39	98.1768
1632.93	99.1274
1634.46	99.6476
1636	100.576
1637.53	102.777
1639.07	104.751
1640.6	105.223
1642.13	106.591
1643.67	108.447
1645.2	110.631
1646.73	113.962
1648.26	115.381
1649.8	116.163
1651.33	118.155
1652.86	119.254
1654.39	120.586
1655.92	121.942
1657.45	122.735
1658.98	122.475
1660.51	122.268
1662.04	121.376
1663.57	120.213
1665.1	118.208
1666.63	116.875
1668.16	115.176
1669.68	113.167
1671.21	110.667
1672.74	109.771
1674.27	108.255
1675.79	105.829
1677.32	102.666
1678.85	99.1936
1680.37	95.8064
1681.9	91.6426
1683.42	88.5025
1684.95	84.7973
1686.47	81.4984
1688	77.6769
1689.52	72.9705
1691.05	68.7855
1692.57	63.8084
1694.09	60.5199
1695.62	56.4705
1697.14	53.0077
1698.66	49.4244
1700.18	45.0151
1701.71	41.5693
1703.23	37.9466
1704.75	34.9423
1706.27	31.0293
1707.79	28.3423
1709.31	25.4178
1710.83	23.4167
1712.35	21.969
1713.87	20.5693
1715.39	18.4745
1716.91	16.3618
1718.43	15.5397
1719.95	15.544
1721.47	15.3588
1722.99	13.5979
1724.5	12.0828
1726.02	11.1281
1727.54	11.2023
1729.06	10.0971
1730.57	10.3479
1732.09	9.54451
1733.61	8.91622
1735.12	7.92781
1736.64	7.40292
1738.15	6.97274
1739.67	6.78966
1741.18	7.0669
1742.7	6.68455
1744.21	6.1869
1745.72	6.20105
1747.24	6.18784
1748.75	5.48909
1750.26	4.83433
1751.77	3.92969
1753.29	3.43622
1754.8	3.27549
1756.31	3.47497
1757.82	3.48125
1759.33	3.78705
1760.84	3.81997
1762.36	3.38522
1763.87	2.51496
1765.38	2.22563
1766.89	2.09694
1768.4	2.4819
1769.91	2.86058
1771.41	2.04543
1772.92	1.20905
1774.43	0.655245
1775.94	0.367245
1777.45	0.635629
1778.95	0.63622
1780.46	0.0258885
1781.97	-0.196101
1783.48	0.132471
1784.98	0.397587
1786.49	0.163207
1787.99	0.39848
1789.5	0.0444814
1791.01	-0.418142
1792.51	-0.735509
1794.01	-0.34417
1795.52	-0.239488
1797.02	-0.796218
1798.53	-1.43827
1800.03	-0.752685
1801.53	-0.541225
1803.04	-0.986919
1804.54	-1.50946
1806.04	-2.18191
1807.54	-2.17555
1809.05	-2.22226
1810.55	-2.42033
1812.05	-1.97817
1813.55	-1.61584
1815.05	-2.03805
1816.55	-1.98066
1818.05	-2.41843
1819.55	-1.78193
1821.05	-1.53781
1822.55	-1.69179
1824.05	-0.741229
1825.55	-0.521463
1827.05	-0.161943
1828.55	-0.00867962
1830.04	0.475676
1831.54	0.540709
1833.04	0.417232
1834.54	0.506418
1836.03	0.800943
1837.53	0.82172
1839.03	0.856802
1840.52	1.93694
1842.02	2.68428
1843.51	3.3402
1845.01	2.96866
1846.5	2.71757
1848	3.43798
1849.49	4.38182
1850.99	4.63774
1852.48	4.5171
1853.97	4.41504
1855.47	4.52463
1856.96	4.42377
1858.45	4.86454
1859.94	4.69228
1861.44	4.26685
1862.93	4.48101
1864.42	4.33795
1865.91	4.61937
1867.4	5.00685
1868.89	5.27231
1870.38	5.09269
1871.87	5.00772
1873.36	4.99519
1874.85	4.82819
1876.34	4.74774
1877.83	4.39989
1879.32	4.89887
1880.81	5.36508
1882.3	5.35349
1882.57	4.75212
1884.07	4.4406
1885.56	5.04139
1887.06	4.88483
1888.55	4.73306
1890.04	5.58874
1891.54	6.16899
1893.03	6.11122
1894.52	5.58776
1896.02	5.27059
1897.51	4.74983
1899	4.01679
1900.49	3.87323
1901.98	4.22315
1903.47	4.06635
1904.96	4.36456
1906.45	4.53459
1907.94	5.02673
1909.43	5.51979
1910.92	6.0942
1912.41	6.34774
1913.9	6.76948
1915.39	6.74912
1916.88	6.63657
1918.37	6.24621
1919.85	6.38198
1921.34	6.6514
1922.83	6.33588
1924.32	5.71924
1925.8	5.34481
1927.29	5.16845
1928.78	4.99845
1930.26	5.24839
1931.75	4.93677
1933.23	4.34361
1934.72	4.1671
1936.2	3.9518
1937.69	3.53239
1939.17	3.06819
1940.66	2.98924
1942.14	2.97854
1943.63	3.20994
1945.11	2.50725
1946.59	2.20833
1948.07	1.72507
1949.56	1.87726
1951.04	1.54546
1952.52	2.05724
1954	2.46887
1955.48	2.5973
1956.96	2.76671
1958.45	3.62797
1959.93	4.69397
1961.41	4.50922
1962.89	5.32521
1964.37	5.51977
1965.85	5.50919
1967.32	5.33524
1968.8	5.55877
1970.28	5.8394
1971.76	6.13483
1973.24	7.08602
1974.72	7.46361
1976.19	8.51956
1977.67	8.11418
1979.15	9.26491
1980.63	10.0281
1982.1	11.1294
1983.58	11.1149
1985.05	11.4278
1986.53	11.8869
1988	12.4924
1989.48	12.3703
1990.95	12.124
1992.43	12.2974
1993.9	12.1506
1995.38	12.4681
1996.85	12.6018
1998.32	12.5361
1999.8	12.8341
2001.27	12.923
2002.74	12.6732
2004.22	13.0007
2005.69	13.2115
2007.16	13.9098
2008.63	14.0879
2010.1	13.9894
2011.57	13.9571
2013.04	13.4589
2014.51	13.5303
2015.98	13.3331
2017.45	13.4566
2018.92	13.0143
2020.39	12.6962
2021.86	12.8833
2023.33	13.7326
2024.8	14.1996
2026.27	14.2501
2027.74	14.6209
2029.2	14.3957
2030.67	14.3111
2032.14	15.0637
2033.61	15.1847
2035.07	15.6409
2036.54	16.0614
2038.01	15.9348
2039.47	16.1554
2040.94	16.3648
2042.4	15.7143
2043.87	15.8473
2045.33	16.2374
2046.8	16.2999
2048.26	16.3154
2049.72	17.2394
2051.19	17.0956
2052.65	17.6223
2054.12	17.2798
2055.58	16.9036
2057.04	16.5945
2058.5	16.2712
2059.97	16.4312
2061.43	16.2209
2062.89	15.5459
2064.35	15.2514
2065.81	15.352
2067.27	15.2797
2068.73	15.4909
2070.19	15.0377
2071.65	15.5442
2073.11	16.4161
2074.57	16.6113
2076.03	16.9383
2077.49	17.5514
2078.95	17.0653
2080.41	16.893
2081.87	16.2114
2083.32	16.4612
2084.78	16.0319
2086.24	15.6212
2087.7	16.6444
2089.15	16.7985
2090.61	17.6543
2092.07	17.1875
2093.52	17.4343
2094.98	18.0484
2096.43	19.0283
2097.89	19.6547
2099.34	20.4865
2100.8	21.3848
2102.25	22.0737
2103.71	22.7368
2105.16	23.554
2106.61	23.852
2108.07	24.2702
2109.52	24.123
2110.97	24.6796
2112.43	25.7727
2113.88	26.9253
2115.33	27.4478
2116.78	28.7435
2118.23	29.665
2119.68	30.5648
2121.13	31.2849
2122.59	31.9428
2124.04	31.81
2125.49	32.7221
2126.94	33.3063
2128.39	33.2288
2129.83	33.9047
2131.28	34.4365
2132.73	34.981
2134.18	35.327
2135.63	35.3722
2137.08	36.0728
2138.53	36.4273
2139.97	36.6882
2141.42	37.3106
2142.87	38.0801
2144.31	39.5325
2145.76	39.6819
2147.21	38.8128
2148.65	39.3821
2150.1	40.0307
2151.54	40.329
2152.99	41.1301
2154.43	41.6187
2155.88	43.14
2157.32	43.5468
2158.77	44.3444
2160.21	45.289
2161.65	44.8051
2163.1	46.2289
2164.54	46.0991
2165.98	46.8001
2167.43	47.0598
2168.87	47.9256
2170.31	48.3799
2171.75	48.1028
2173.19	48.1216
2174.64	48.1904
2176.07	47.9361
2177.52	48.2444
2178.96	48.1377
2180.4	48.2617
2181.84	48.8798
2183.28	49.7038
2184.72	49.6075
2186.15	49.4578
2187.59	49.1162
2189.03	48.9378
2190.47	48.7515
2191.91	48.5018
2193.35	48.1174
2194.78	47.5483
2196.22	46.854
2197.66	46.6496
2199.09	45.8783
2200.53	45.006
2201.97	44.5027
2203.4	44.0843
2204.84	43.4272
2206.27	43.167
2207.71	42.5026
2209.14	42.5315
2210.58	40.9633
2212.01	40.5569
2213.45	40.2711
2214.88	38.8962
2216.31	38.1816
2217.75	35.8218
2219.18	34.669
2220.61	34.8172
2222.05	34.5677
2223.48	33.9615
2224.91	33.3246
2226.34	32.5613
2227.78	32.0808
2229.21	30.3406
2230.64	29.0656
2232.07	27.8297
2233.5	27.2982
2234.93	27.4212
2236.36	26.2356
2237.79	26.0097
2239.22	25.1899
2240.65	25.1268
2242.08	24.5212
2243.5	23.5552
2244.93	23.3569
2246.36	21.9179
2247.79	21.6331
2249.22	21.385
2250.64	21.2014
2252.07	20.9168
2253.5	20.9859
2254.92	20.5251
2256.35	19.5199
2257.78	19.6447
2259.2	19.6772
2260.63	19.1687
2262.05	19.2718
2263.48	19.5094
2264.9	19.8608
2266.33	19.3511
2267.75	19.7827
2269.18	20.33
2270.6	20.6885
2272.02	20.2943
2273.45	20.9138
2274.87	20.8793
2276.29	20.653
2277.71	20.1684
2279.14	19.7669
2280.56	20.1731
2281.98	19.4966
2283.4	19.2554
2284.82	19.2346
2286.24	18.9509
2287.66	19.7768
2289.08	19.2243
2290.5	19.7331
2291.92	19.7369
2293.34	19.7186
2294.76	19.2148
2296.18	19.3145
2297.6	19.6203
2299.02	20.182
2300.44	20.0123
2301.86	20.1807
2303.27	20.3506
2304.69	21.2877
2306.11	21.1906
2307.53	20.929
2308.94	20.7447
2310.36	20.7049
2311.78	20.8349
2313.19	20.0972
2314.61	20.1659
2316.02	20.0323
2317.44	19.4836
2318.85	19.9817
2320.27	19.8608
2321.68	19.7374
2323.1	19.5002
2324.51	19.4348
2325.92	18.9276
2327.34	18.5315
2328.75	18.8515
2330.16	18.937
2331.58	17.8976
2332.99	17.6108
2334.4	17.7265
2335.81	17.2053
2337.23	15.989
2338.64	15.9952
2340.05	15.9152
2341.46	15.5889
2342.87	14.8995
2344.28	14.014
2345.69	12.6726
2347.1	12.8834
2348.51	12.5656
2349.92	12.9525
2351.33	13.1889
2352.74	12.2909
2354.15	11.6971
2355.55	11.9156
2356.96	12.0591
2358.37	11.6433
2359.78	10.5639
2361.19	10.6683
2362.59	11.2615
2364	11.8019
2365.41	11.6824
2366.81	12.3511
2368.22	11.517
2369.62	10.9226
2371.03	10.639
2372.44	10.3267
2373.84	10.1913
2375.24	10.3689
2376.65	9.19394
2378.05	9.11985
2379.46	9.23352
2380.86	9.01732
2382.26	9.04791
2383.67	9.00762
2385.07	9.74126
2386.47	10.0248
2387.88	8.92857
2389.28	8.90462
2390.68	8.45654
2392.08	8.63519
2393.48	8.9829
2394.89	8.68388
2396.29	8.92423
2397.69	8.17178
2399.09	7.88108
2400.49	7.58091
2401.89	7.29576
2403.29	7.45987
2404.69	8.33772
2406.09	8.71776
2407.48	8.71743
2408.88	9.49571
2410.28	9.54078
2411.68	9.66267
2413.08	9.35885
2414.48	9.02278
2415.87	9.91745
2417.27	10.5083
2418.67	10.9912
2420.06	11.2479
2421.46	11.6531
2422.86	11.2623
2424.25	11.7914
2425.65	12.4835
2427.04	13.3515
2428.44	12.8709
2429.83	13.5397
2431.23	13.9749
2432.62	14.3158
2434.02	14.7833
2435.41	14.5678
2436.81	14.42
2438.2	13.6486
2439.59	13.5344
2440.99	12.9182
2442.38	12.7572
2443.77	12.2065
2445.16	12.0364
2446.56	10.9059
2447.95	10.9869
2449.34	10.7197
2450.73	10.6214
2452.12	10.1623
2453.51	9.44922
2454.9	9.48962
2456.29	7.83838
2457.68	6.28028
2459.07	6.27046
2460.46	5.82968
2461.85	6.05079
2463.24	5.31127
2464.63	5.01357
2466.02	4.478
2467.4	3.70386
2468.79	4.71369
2470.18	4.84897
2471.57	4.88248
2472.95	5.12814
2474.34	5.94411
2475.73	5.65614
2477.12	5.03631
2478.5	4.85623
2479.89	4.96478
2481.27	4.62668
2482.66	4.6592
2484.04	4.98927
2485.43	5.33335
2486.81	4.702
2488.2	4.76938
2489.58	4.23271
2490.97	4.59022
2492.35	4.6279
2493.73	5.89265
2495.12	6.47785
2496.5	7.6511
2497.88	7.99297
2499.27	8.8023
2500.65	8.88344
2502.03	9.10796
2503.41	9.31455
2504.79	8.24909
2506.17	7.95821
2507.56	7.59679
2508.94	7.02535
2510.32	7.30018
2511.7	7.49746
2513.08	6.88408
2514.46	5.99949
2515.84	5.33705
2517.22	5.75794
2518.59	5.56641
2519.97	5.06666
2521.35	4.60084
2522.73	5.50651
2524.11	5.05091
2525.49	4.48334
2526.86	5.1785
2528.24	5.24772
2529.62	5.07712
2530.99	5.39293
2532.37	5.61503
2533.75	5.53106
2535.12	5.47185
2536.5	5.55908
2537.88	5.34314
2539.25	4.97954
2540.63	4.44651
2542	5.12651
2543.38	4.82051
2544.75	4.84921
2546.12	4.37266
2547.5	3.9129
2548.87	4.07141
2550.24	3.56584
2551.62	3.53014
2552.99	2.83413
2554.36	2.23434
2555.74	2.25418
2557.11	3.023
2558.48	3.23202
2559.85	3.80464
2561.22	3.63419
2562.59	3.61842
2563.96	3.60857
2565.34	3.96271
2566.71	3.74799
2568.08	3.29383
2569.45	3.68035
2570.82	3.27261
2572.18	2.99704
2573.55	2.58071
2574.92	2.39011
2576.29	1.85658
2577.66	1.39609
2579.03	1.62563
2580.4	0.784515
2581.77	0.452137
2583.13	-0.343318
2584.5	0.146901
2585.87	0.110113
2587.23	0.405058
2588.6	0.107999
2589.97	0.341288
2591.33	0.169225
2592.7	-0.37248
2594.06	-0.148037
2595.43	0.0179008
2596.79	-0.955349
2598.16	-1.12068
2599.52	-0.626121
2600.89	-0.408572
2602.25	-1.00332
2603.62	-1.23645
2604.98	-1.56083
2606.34	-1.46126
2607.71	-1.30843
2609.07	-1.22331
2610.43	-0.592589
2611.79	-1.01408
2613.16	-1.16884
2614.52	-1.67172
2615.88	-1.21831
2617.24	-1.23521
2618.6	-1.75203
2619.96	-1.96426
2621.32	-1.86184
2622.68	-2.05742
2624.04	-1.27697
2625.4	-0.869615
2626.76	-0.922602
2628.12	-0.998849
2629.48	-0.969343
2630.84	-0.493139
2632.2	-0.274366
2633.56	0.429064
2634.92	0.670884
2636.28	1.37897
2637.63	1.59412
2638.99	1.11964
2640.35	1.24027
2641.71	1.62854
2643.06	1.70583
2644.42	1.81792
2645.77	1.80284
2647.13	2.26376
2648.49	2.05389
2649.84	2.56606
2651.2	2.46873
2652.55	3.48392
2653.91	3.81158
2655.26	4.16897
2656.62	3.66469
2657.97	4.10194
2659.33	4.15944
2660.68	4.75423
2662.03	4.81411
2663.39	4.23666
2664.74	3.32758
2666.09	3.7695
2667.44	3.74731
2668.8	3.38809
2670.15	3.12552
2671.5	2.97
2672.85	3.28446
2674.2	3.73567
2675.55	3.91174
2676.91	4.59765
2678.26	3.87911
2679.61	3.86479
2680.96	3.93439
2682.31	3.71409
2683.66	3.90067
2685	3.62122
2686.35	3.25238
2687.7	3.9222
2689.05	4.43832
2690.4	4.90746
2691.75	5.60088
2693.1	5.57924
2694.44	5.48618
2695.79	5.84875
2697.14	6.35754
2698.49	7.66936
2699.83	7.55811
2701.18	8.95289
2702.52	9.07846
2703.87	9.53146
2705.22	9.86267
2706.56	10.5099
2707.91	10.8868
2709.25	11.5996
2710.6	12.09
2711.94	12.415
2713.29	12.8783
2714.63	13.8523
2715.97	14.4671
2717.32	15.1536
2718.66	15.4354
2720.01	15.973
2721.35	15.3239
2722.69	15.6497
2724.03	15.6693
2725.38	15.2803
2726.72	15.1727
2728.06	15.2079
2729.4	14.3681
2730.74	13.7138
2732.08	13.9617
2733.42	14.4343
2734.76	14.6575
2736.1	14.4495
2737.44	14.1522
2738.78	13.8533
2740.12	13.9552
2741.46	13.806
2742.8	13.5757
2744.14	13.5194
2745.48	13.1848
2746.82	13.6045
2748.16	13.2623
2749.49	12.8741
2750.83	12.948
2752.17	12.4818
2753.51	11.9445
2754.84	12.1542
2756.18	11.9744
2757.52	11.9116
2758.85	11.9375
2760.19	11.613
2761.53	11.2863
2762.86	10.8644
2764.2	10.3445
2765.53	9.71881
2766.87	8.92979
2768.2	9.03569
2769.54	8.63226
2770.87	8.5612
2772.2	8.49052
2773.54	7.51453
2774.87	7.01885
2776.2	6.49591
2777.54	6.24798
2778.87	6.2064
2780.2	6.06126
2781.53	6.57668
2782.87	6.15789
2784.2	5.81151
2785.53	4.91466
2786.86	4.17551
2788.19	4.08917
2789.52	4.5062
2790.85	3.69494
2792.18	3.51118
2793.51	3.64756
2794.84	3.53077
2796.17	3.28016
2797.5	4.50336
2798.83	4.556
2800.16	4.80442
2801.49	4.97277
2802.82	4.68692
2804.15	4.85258
2805.47	5.58291
2806.8	5.5089
2808.13	5.48016
2809.46	6.13903
2810.78	5.93665
2812.11	6.15204
2813.44	6.46902
2814.76	6.39668
2816.09	7.14005
2817.42	7.26955
2818.74	8.07264
2820.07	8.46336
2821.39	10.0417
2822.72	11.5218
2824.04	13.6183
2825.37	15.3198
2826.69	17.4813
2828.02	19.7972
2829.34	22.3594
2830.66	25.3961
2831.99	28.4249
2833.31	32.2526
2834.63	35.5226
2835.96	39.2322
2837.28	42.3075
2838.6	46.3126
2839.92	51.1908
2841.24	56.9057
2842.57	62.0459
2843.89	67.8933
2845.21	73.8856
2846.53	80.5008
2847.85	87.4035
2849.17	94.2271
2850.49	101.223
2851.81	108.546
2853.13	116.545
2854.45	124.932
2855.77	132.453
2857.09	140.101
2858.41	148.22
2859.72	155.838
2861.04	163.437
2862.36	170.45
2863.68	177.397
2865	182.924
2866.31	189.455
2867.63	195.083
2868.95	200.933
2870.26	205.805
2871.58	210.612
2872.9	214.486
2874.21	218.813
2875.53	222.922
2876.84	225.727
2878.16	228.903
2879.47	231.929
2880.79	233.918
2882.1	236.379
2883.42	238.623
2884.73	241.316
2886.05	244.44
2887.36	247.369
2888.67	250.237
2889.99	253.748
2891.3	256.653
2892.61	259.626
2893.92	261.99
2895.24	265.595
2896.55	269.344
2897.86	273.362
2899.17	277.32
2900.48	282.1
2901.79	286.6
2903.11	292.905
2904.42	299.632
2905.73	307.05
2907.04	314.005
2908.35	321.313
2909.66	330.022
2910.97	339.79
2912.27	349.617
2913.58	358.77
2914.89	368.267
2916.2	376.575
2917.51	385.312
2918.82	394.294
2920.13	401.809
2921.43	409.117
2922.74	416.265
2924.05	421.829
2925.35	426.726
2926.66	430.522
2927.97	433.216
2929.27	435.062
2930.58	436.391
2931.89	436.77
2933.19	436.111
2934.5	435.736
2935.8	433.174
2937.11	430.101
2938.41	426.493
2939.72	422.493
2941.02	417.945
2942.32	412.243
2943.63	406.023
2944.93	399.246
2946.24	392.378
2947.54	385.591
2948.84	378.299
2950.14	369.946
2951.45	362.173
2952.75	353.1
2954.05	345.474
2955.35	337.04
2956.65	328.309
2957.95	319.798
2959.26	311.344
2960.56	304.399
2961.86	296.744
2963.16	289.809
2964.46	282.847
2965.76	276.725
2967.06	269.72
2968.36	263.947
2969.66	257.929
2970.96	252.33
2972.25	246.272
2973.55	241.292
2974.85	236.527
2976.15	231.559
2977.45	225.913
2978.74	220.63
2980.04	214.762
2981.34	209.181
2982.64	203.326
2983.93	197.635
2985.23	190.506
2986.52	184.591
2987.82	177.729
2989.12	170.148
2990.41	163.401
2991.71	156.598
2993	149.567
2994.3	142.797
2995.59	136.621
2996.89	129.938
2998.18	124.236
2999.48	118.518
3000.77	112.099
3002.06	105.969
3003.36	100.634
3004.65	94.6682
3005.94	89.5182
3007.23	83.7558
3008.53	78.2784
3009.82	73.5079
3011.11	69.4116
3012.4	65.0449
3013.69	61.2365
3014.99	56.7185
3016.28	53.6153
3017.57	50.41
3018.86	48.368
3020.15	45.5352
3021.44	43.2651
3022.73	41.5673
3024.02	39.8245
3025.31	39.2829
3026.6	37.3024
3027.89	37.1868
3029.18	36.0521
3030.46	34.9783
3031.75	33.9159
3033.04	33.7858
3034.33	33.6172
3035.62	33.8862
3036.9	33.7586
3038.19	34.5313
3039.48	35.3174
3040.76	35.8758
3042.05	36.9328
3043.34	37.9138
3044.62	38.6312
3045.91	40.0777
3047.19	40.4616
3048.48	41.4969
3049.77	42.0455
3051.05	43.1161
3052.34	43.81
3053.62	44.2868
3054.9	45.1498
3056.19	45.4231
3057.47	45.33
3058.76	45.5192
3060.04	45.3374
3061.32	44.6021
3062.61	44.3581
3063.89	43.7872
3065.17	42.6873
3066.45	41.6187
3067.74	40.2636
3069.02	39.084
3070.3	38.3245
3071.58	36.5939
3072.86	34.97
3074.14	33.2938
3075.42	32.2011
3076.7	30.4753
3077.99	28.1006
3079.26	26.2217
3080.54	24.8228
3081.82	23.0201
3083.1	21.8523
3084.38	19.7285
3085.66	18.4292
3086.94	17.3721
3088.22	16.2949
3089.5	15.5007
3090.78	13.8092
3092.05	13.0201
3093.33	11.3687
3094.61	10.6268
3095.89	9.6531
3097.16	9.04001
3098.44	8.47569
3099.72	7.69398
3100.99	6.38707
3102.27	6.53361
3103.54	6.61911
3104.82	6.53058
3106.1	6.84329
3107.37	6.65666
3108.65	6.53063
3109.92	6.08999
3111.2	5.63796
3112.47	5.07169
3113.74	4.54549
3115.02	4.2677
3116.29	4.21121
3117.56	3.96114
3118.84	3.79183
3120.11	3.39397
3121.38	3.19023
3122.66	2.69025
3123.93	2.09692
3125.2	1.47417
3126.47	1.40308
3127.74	1.18019
3129.01	0.435525
3130.29	0.26834
3131.56	-0.472786
3132.83	-0.33785
3134.1	-1.00561
3135.37	-1.2722
3136.64	-1.37835
3137.91	-1.40513
3139.18	-0.982377
3140.45	-1.20134
3141.72	-0.747514
3142.99	-0.043845
3144.26	0.345127
3145.52	0.751537
3146.79	0.770034
3148.06	1.27555
3149.33	0.436148
