#Acq. time (s)=	45
#Accumulations=	2
#Range (cm-¹)=	200...3150
#Windows=	2
#Auto scanning=	Off
#Autofocus=	Off
#Macrospot=	Off
#AutoExposure=	Off
#Spike filter=	Multiple accum.
#Delay time (s)=	0
#Binning=	1
#Readout mode=	Signal
#DeNoise=	Off
#ICS correction=	On
#Dark correction=	Off
#Inst. Process=	Off
#Detector Gain=	Best Dynamic Range
#Detector ADC=	20 kHz       
#Detector temperature (°C)=	-69.85
#Instrument=	LabRAM HR Evol
#Detector=	Synapse
#Objective=	x100
#Grating=	600 gr/mm
#ND Filter=	100%
#Laser (nm)=	532 
#Hole=	100.021
#Range=	Auto
#Laser Pol.=	No
#Raman. Pol.=	No
#Laser Pol. (°)=	-0.0007625
#Raman Pol. (°)=	89.9995
#Collection=	Microscope
#StageXY=	Marzhauser
#StageZ=	Marzhauser
#X (µm)=	229.8
#Y (µm)=	1674
#Z (µm)=	427.35
#Full time(mm:ss)=	3:18
#Project=	
#Sample=	
#Site=	
#Title=	Thy_40_11_36_2x_45s_532 nm_x100_100%_600 gr_mm
#Remark=	
#Date=	05.07.2022 12:34
#Acquired=	05.07.2022 12:34:19
#Base:Fit=	10.08.2022 10:01:35
#Base:Sub=	10.08.2022 10:01:52
#Filter:Polynom=	16.08.2022 10:21:53
#AxisType[0]=Intens
#AxisUnit[0]=Cnt
#AxisType[1]=Spectr
#AxisUnit[1]=1/cm
200.43	52.5552
202.244	53.641
204.059	51.1796
205.873	48.5421
207.688	45.6854
209.501	42.3379
211.314	39.4015
213.127	36.9228
214.941	33.8537
216.753	32.2351
218.564	30.8633
220.375	28.5211
222.186	27.212
223.999	24.5629
225.809	22.8383
227.618	21.2757
229.428	20.183
231.236	19.1611
233.045	18.9904
234.855	18.1507
236.663	17.9668
238.471	18.0621
240.278	18.4583
242.085	17.7323
243.891	17.5928
245.698	18.1359
247.503	17.8868
249.309	18.3918
251.116	19.2917
252.921	19.0387
254.725	19.5432
256.529	20.3204
258.333	21.0062
260.136	21.6015
261.939	22.9819
263.742	22.9031
265.544	23.3006
267.346	23.6894
269.148	23.5135
270.949	24.4606
272.75	25.5301
274.55	26.1354
276.351	26.0582
278.15	26.4492
279.95	27.556
281.749	26.6294
283.548	26.6518
285.346	26.1702
287.144	25.5992
288.942	24.745
290.739	23.2975
292.536	22.5883
294.333	22.1708
296.129	21.3129
297.925	20.7751
299.721	21.1244
301.514	21.7609
303.309	20.8667
305.104	20.7691
306.898	20.8165
308.692	20.5937
310.486	19.2384
312.279	19.5348
314.072	18.6475
315.862	18.9378
317.654	18.6691
319.446	18.289
321.238	18.3936
323.029	18.0024
324.819	18.133
326.608	18.9913
328.398	18.812
330.188	18.6569
331.977	17.8944
333.766	19.1491
335.553	19.3417
337.341	18.1417
339.129	18.897
340.917	19.2632
342.704	19.4754
344.489	19.217
346.275	18.7434
348.062	18.793
349.845	18.6195
351.631	19.0645
353.416	18.1199
355.201	17.441
356.984	18.2076
358.768	18.1406
360.552	18.0955
362.333	17.9637
364.116	17.7025
365.899	17.9221
367.68	17.6945
369.462	17.6285
371.243	18.1397
373.023	18.0315
374.804	17.4776
376.585	17.216
378.363	17.1786
380.143	16.3098
381.923	16.7423
383.7	16.1361
385.479	15.878
387.256	15.9243
389.034	15.0367
390.812	14.5342
392.588	13.8983
394.365	13.8523
396.14	13.0815
397.916	12.8393
399.691	12.0001
401.467	11.5705
403.24	10.1808
405.015	9.65978
406.788	9.6503
408.563	9.24704
410.335	9.18936
412.109	9.0262
413.88	9.04894
415.654	7.69672
417.424	6.71497
419.197	6.34169
420.967	5.84252
422.739	6.45292
424.508	5.69257
426.279	4.73143
428.048	4.98809
429.819	4.35405
431.587	4.03661
433.356	3.02518
435.124	3.15556
436.891	4.04232
438.66	4.61122
440.426	5.10646
442.194	5.17735
443.96	4.9769
445.725	5.39966
447.492	5.66157
449.257	6.26538
451.021	6.84902
452.787	6.76679
454.551	6.90201
456.314	7.55123
458.079	8.12538
459.842	8.63795
461.604	8.66928
463.368	8.92551
465.13	9.50034
466.891	9.88408
468.654	9.39955
470.415	9.84059
472.175	9.46251
473.935	10.0685
475.696	10.6744
477.456	10.2793
479.215	10.8551
480.973	11.8173
482.733	12.7401
484.491	14.3427
486.249	14.5543
488.006	14.766
489.765	15.1131
491.522	16.3957
493.278	17.4888
495.034	18.797
496.789	18.8098
498.544	19.5468
500.301	20.4502
502.056	20.9297
503.81	21.3399
505.564	22.2041
507.317	22.4135
509.071	22.8629
510.825	22.4872
512.578	21.5205
514.33	21.0143
516.082	21.5183
517.833	20.6793
519.585	21.0292
521.335	20.2159
523.086	20.1052
524.836	20.6709
526.586	20.8878
528.335	19.8343
530.085	18.5232
531.835	16.784
533.584	16.2406
535.332	16.0061
537.08	15.265
538.827	13.5025
540.574	12.6345
542.321	11.6631
544.068	11.4183
545.814	10.7865
547.56	10.4052
549.305	10.1252
551.05	10.0276
552.795	9.57675
554.54	9.27497
556.282	8.54383
558.025	7.62499
559.769	7.01337
561.512	6.98695
563.255	6.50106
564.997	7.10068
566.739	7.91962
568.481	8.70611
570.223	8.35018
571.964	7.92234
573.705	6.5426
575.443	6.2333
577.183	7.134
578.923	7.60616
580.663	7.72656
582.402	7.95837
584.141	6.89949
585.879	6.94063
587.615	7.03163
589.353	7.22737
591.09	6.5497
592.828	6.62
594.564	6.71398
596.299	5.9944
598.035	5.50782
599.771	5.24077
601.506	5.93363
603.242	6.317
604.974	6.26658
606.709	8.38413
608.443	8.60908
610.177	9.09752
611.908	8.81705
613.642	8.5075
615.374	7.97198
617.105	8.56221
618.837	8.55354
620.569	9.2039
622.3	9.72545
624.03	10.1546
625.761	10.3762
627.491	11.4378
629.219	12.4313
630.949	14.2025
632.677	14.7422
634.406	15.7047
636.135	17.0576
637.861	17.4808
639.59	16.7286
641.318	17.0725
643.043	16.8991
644.77	17.0539
646.495	17.701
648.222	18.7727
649.948	19.973
651.672	19.9535
653.398	19.2791
655.121	18.6864
656.846	18.1731
658.569	18.7396
660.293	18.5069
662.015	18.6865
663.738	19.334
665.46	19.4892
667.183	19.2344
668.903	18.6211
670.626	18.4556
672.346	19.8636
674.067	21.0127
675.787	21.4215
677.508	21.8708
679.226	22.678
680.947	23.2803
682.665	23.9106
684.385	24.7869
686.102	25.2233
687.821	26.7753
689.538	27.9367
691.254	29.1332
692.972	30.3262
694.688	29.8111
696.406	30.0328
698.121	30.7752
699.835	32.4581
701.552	33.6397
703.266	34.0179
704.98	35.1357
706.695	36.0013
708.409	37.6074
710.121	38.8812
711.836	40.255
713.548	41.9783
715.26	42.5978
716.973	43.7975
718.685	43.1483
720.396	44.3645
722.108	44.2954
723.818	43.8802
725.528	44.6453
727.238	45.475
728.949	46.4354
730.658	47.3562
732.367	48.5547
734.075	49.361
735.785	49.3835
737.493	49.2508
739.2	49.8806
740.907	50.1681
742.614	50.9847
744.322	51.5271
746.028	51.5236
747.734	52.4535
749.439	53.1675
751.144	53.8808
752.849	54.0482
754.555	55.0124
756.26	56.0531
757.963	56.9534
759.667	57.8108
761.37	58.1014
763.073	59.8189
764.775	60.4765
766.477	61.0774
768.179	62.1037
769.883	62.4939
771.584	63.2586
773.285	64.9388
774.986	66.2461
776.686	67.4261
778.386	67.893
780.085	69.3242
781.785	70.4875
783.484	71.5694
785.182	72.283
786.881	72.8361
788.579	73.4231
790.276	75.746
791.974	76.7971
793.671	78.3677
795.367	79.0982
797.064	80.7858
798.76	80.8766
800.456	80.63
802.151	82.7048
803.846	83.7882
805.541	85.6008
807.234	85.9081
808.928	86.267
810.622	86.8456
812.315	86.7532
814.008	86.0907
815.701	86.1597
817.394	85.8304
819.086	85.0856
820.778	84.6264
822.468	83.987
824.159	83.3882
825.85	82.9918
827.541	82.3139
829.231	81.2146
830.921	80.5929
832.609	79.8137
834.298	78.271
835.987	77.141
837.676	76.1812
839.364	75.7247
841.051	74.059
842.738	73.1255
844.426	72.4041
846.113	70.58
847.798	69.707
849.484	68.3126
851.171	67.1909
852.857	66.9076
854.54	65.874
856.226	64.767
857.911	62.9692
859.593	61.8908
861.278	61.304
862.961	60.0932
864.645	58.6835
866.327	56.1498
868.01	55.1166
869.692	53.8092
871.373	53.3409
873.055	53.1097
874.735	52.9255
876.416	51.8129
878.097	51.4444
879.776	51.6218
881.457	51.4545
883.135	50.6069
884.815	49.7
886.495	50.8729
888.172	49.3262
889.851	48.1488
891.528	46.0142
893.206	44.9299
894.882	44.2782
896.56	43.4481
898.237	43.3751
899.912	43.6252
901.589	42.7541
903.263	41.7633
904.94	41.319
906.614	40.1338
908.289	40.2151
909.962	40.5043
911.635	40.2774
913.31	40.8387
914.982	41.305
916.656	41.8719
918.328	41.8405
920.001	42.5316
921.672	42.8076
923.345	43.048
925.015	43.2413
926.685	43.5407
928.357	43.6461
930.026	43.7814
931.698	44.5087
933.366	45.0189
935.035	44.4269
936.705	44.9132
938.373	44.5008
940.041	43.7794
941.71	42.9784
943.377	42.5505
945.044	40.9597
946.712	39.3627
948.378	38.3676
950.044	38.0929
951.709	38.6937
953.376	38.4535
955.041	38.3588
956.706	37.3457
958.372	36.8476
960.036	36.0092
961.699	35.1
963.362	33.8231
965.027	32.6296
966.69	31.6304
968.352	29.6972
970.014	29.8034
971.676	27.9309
973.339	26.7071
975	24.9561
976.661	24.819
978.322	24.7876
979.982	24.4778
981.642	23.589
983.303	22.8355
984.962	21.9531
986.621	21.0415
988.28	20.8164
989.938	21.1084
991.596	21.2609
993.254	22.5059
994.911	22.3483
996.57	22.2513
998.227	22.0603
999.884	22.0189
1001.54	20.8409
1003.2	20.9415
1004.85	21.4005
1006.51	21.9562
1008.16	21.7406
1009.82	21.1262
1011.47	21.0935
1013.12	20.4502
1014.78	20.9229
1016.43	21.1759
1018.08	21.9425
1019.74	22.6528
1021.39	21.6331
1023.04	20.8231
1024.69	20.3087
1026.34	19.9549
1028	20.3022
1029.65	21.9116
1031.3	22.1688
1032.95	22.1866
1034.6	22.8265
1036.25	21.8628
1037.9	21.2723
1039.54	20.4409
1041.19	20.536
1042.84	19.5207
1044.49	19.7613
1046.14	19.7434
1047.78	19.2746
1049.43	19.2751
1051.08	18.7956
1052.72	18.8855
1054.37	19.2496
1056.02	18.902
1057.66	19.2084
1059.31	20.2697
1060.95	20.9956
1062.6	20.1632
1064.24	19.1652
1065.88	19.5308
1067.53	18.8939
1069.17	18.8515
1070.81	18.7811
1072.45	19.3655
1074.1	19.2611
1075.74	19.6253
1077.38	18.474
1079.02	17.9547
1080.66	17.3638
1082.3	17.5936
1083.94	16.6748
1085.58	16.8799
1087.22	16.6064
1088.86	16.2495
1090.5	15.113
1092.14	15.5782
1093.78	15.5206
1095.42	16.5001
1097.05	17.8058
1098.69	17.511
1100.33	16.9063
1101.96	15.2415
1103.6	15.1308
1105.24	15.6249
1106.87	15.1399
1108.51	14.5612
1110.14	15.125
1111.78	15.1182
1113.41	13.7651
1115.05	13.0066
1116.68	12.7863
1118.31	11.3971
1119.95	11.8196
1121.58	11.8321
1123.21	11.3377
1124.85	10.9478
1126.48	11.3319
1128.11	9.94844
1129.74	9.49594
1131.37	9.62514
1133	9.03562
1134.63	8.66415
1136.26	9.36451
1137.89	8.76402
1139.52	9.43777
1141.15	9.35752
1142.78	8.48174
1144.41	7.22299
1146.04	6.62952
1147.66	6.48837
1149.29	5.66588
1150.92	5.84157
1152.55	6.02956
1154.17	6.31739
1155.8	5.85518
1157.43	5.17992
1159.05	4.09545
1160.68	3.30479
1162.3	2.87708
1163.93	2.86285
1165.55	1.7848
1167.17	2.33757
1168.8	2.32622
1170.42	2.93807
1172.05	2.01613
1173.67	2.66159
1175.29	3.03945
1176.91	3.46904
1178.54	2.59226
1180.16	2.30903
1181.78	1.21249
1183.4	2.06971
1185.02	2.87108
1186.64	2.25321
1188.26	1.82408
1189.88	2.04121
1191.5	2.59197
1193.12	1.8785
1194.74	1.83435
1196.36	1.97013
1197.97	2.86208
1199.59	2.46383
1201.21	3.39262
1202.83	3.57546
1204.44	4.25695
1206.06	5.60851
1207.68	5.8582
1209.29	6.03343
1210.91	7.40672
1212.52	8.99764
1214.14	10.558
1215.75	12.5861
1217.37	13.9632
1218.98	14.8519
1220.59	15.8939
1222.21	16.5635
1223.82	17.897
1225.43	19.2909
1227.05	20.6826
1228.66	21.7491
1230.27	22.9076
1231.88	24.5569
1233.49	26.2173
1235.1	26.7903
1236.72	27.1398
1238.33	28.486
1239.94	29.2023
1241.55	31.1118
1243.16	32.8004
1244.76	33.5925
1246.37	34.8418
1247.98	35.7607
1249.59	35.9417
1251.2	36.8585
1252.8	38.0294
1254.41	38.9655
1256.02	39.2447
1257.62	39.0272
1259.23	39.5517
1260.84	39.8887
1262.44	39.47
1264.05	40.1327
1265.66	39.8199
1267.26	39.496
1268.86	39.8242
1270.47	39.7559
1272.07	40.6537
1273.67	41.0917
1275.28	41.3571
1276.88	41.8806
1278.48	42.3236
1280.09	42.3042
1281.69	44.2873
1283.29	44.4952
1284.89	45.4778
1286.49	46.3052
1288.09	46.2752
1289.69	46.61
1291.29	47.5159
1292.89	48.1755
1294.49	48.1595
1296.09	48.1479
1297.69	47.5056
1299.29	47.9937
1300.89	48.7537
1302.49	49.1879
1304.08	49.6385
1305.68	48.4591
1307.28	48.4381
1308.88	48.9237
1310.47	49.4015
1312.07	49.9051
1313.66	50.2464
1315.26	49.7111
1316.85	50.5674
1318.45	51.1525
1320.04	50.6891
1321.64	50.9146
1323.23	50.399
1324.83	49.699
1326.42	49.6752
1328.01	49.7132
1329.61	49.7317
1331.2	49.4348
1332.79	49.1154
1334.38	47.4236
1335.97	47.5949
1337.56	46.7427
1339.16	46.4842
1340.75	45.9473
1342.34	45.2579
1343.93	44.3316
1345.52	43.5024
1347.11	42.4391
1348.7	42.3145
1350.29	41.2954
1351.87	40.9296
1353.46	40.0279
1355.05	39.2572
1356.64	38.9212
1358.22	38.298
1359.81	37.6982
1361.4	37.2755
1362.98	35.5015
1364.57	35.4662
1366.16	35.1655
1367.74	33.8713
1369.33	32.5281
1370.91	32.6144
1372.5	31.5219
1374.08	30.5982
1375.67	30.254
1377.25	29.6515
1378.83	29.0528
1380.41	28.2616
1382	27.1017
1383.58	26.224
1385.16	25.7174
1386.74	26.2159
1388.33	26.0016
1389.91	24.9388
1391.49	24.5235
1393.07	24.5274
1394.65	24.8467
1396.23	24.8552
1397.81	23.6967
1399.39	23.5828
1400.97	23.359
1402.55	23.0873
1404.13	23.301
1405.7	23.2603
1407.28	24.4797
1408.86	24.2286
1410.44	24.5685
1412.01	24.9492
1413.59	24.7489
1415.17	25.6848
1416.74	25.5848
1418.32	26.9338
1419.89	27.0928
1421.47	27.1322
1423.04	28.1717
1424.62	29.4696
1426.19	32.0595
1427.77	34.5624
1429.34	36.1336
1430.91	38.4995
1432.49	40.3165
1434.06	42.6847
1435.63	43.8101
1437.2	44.9159
1438.78	46.4224
1440.35	47.7567
1441.92	49.4979
1443.49	51.3
1445.06	52.713
1446.63	53.6154
1448.2	54.3759
1449.77	55.5221
1451.34	55.8424
1452.91	56.5369
1454.48	56.3372
1456.05	55.6281
1457.62	55.0075
1459.18	54.7317
1460.75	53.7551
1462.32	52.7467
1463.89	51.8097
1465.45	49.9848
1467.02	48.5583
1468.59	47.153
1470.15	46.0132
1471.72	44.1766
1473.28	42.4011
1474.85	39.9685
1476.41	37.2637
1477.98	35.2761
1479.54	32.7092
1481.1	29.8397
1482.67	27.4494
1484.23	24.9771
1485.79	22.5562
1487.36	19.8313
1488.92	18.8213
1490.48	16.8901
1492.04	15.0173
1493.61	14.1826
1495.17	13.9538
1496.73	12.4791
1498.29	11.0708
1499.85	11.221
1501.41	11.1569
1502.97	11.2801
1504.53	11.881
1506.09	11.2436
1507.65	10.74
1509.2	10.4617
1510.76	10.2805
1512.32	10.7861
1513.88	10.0903
1515.43	10.6268
1516.99	11.2749
1518.55	11.7718
1520.1	12.4644
1521.66	13.2996
1523.22	14.0121
1524.77	14.9878
1526.33	15.9119
1527.88	16.8766
1529.44	18.7593
1530.99	19.5958
1532.54	20.0981
1534.1	20.8439
1535.65	21.4333
1537.21	22.9798
1538.76	23.9742
1540.31	25.206
1541.86	26.1027
1543.42	27.7694
1544.97	29.4025
1546.52	30.755
1548.07	31.2952
1549.62	32.8043
1551.17	34.1232
1552.72	34.419
1554.27	35.4508
1555.82	36.3875
1557.37	37.3545
1558.92	38.4561
1560.47	40.4777
1562.02	41.2696
1563.56	42.0533
1565.11	44.444
1566.66	45.9098
1568.21	45.9958
1569.75	46.6071
1571.3	48.0949
1572.85	48.4124
1574.39	48.5918
1575.94	49.6607
1577.49	50.9045
1579.03	51.6888
1580.57	52.4908
1582.12	52.9965
1583.66	52.9388
1585.21	53.3928
1586.75	53.858
1588.3	53.904
1589.84	53.6163
1591.38	53.2434
1592.92	52.7086
1594.47	53.2276
1596.01	53.499
1597.55	53.4404
1599.09	54.1778
1600.63	53.8489
1602.17	54.1251
1603.71	53.7719
1605.25	53.5416
1606.79	53.1104
1608.33	51.7474
1609.87	50.915
1611.41	50.1955
1612.95	49.5764
1614.49	50.0443
1616.03	49.7036
1617.57	49.8404
1619.1	49.7867
1620.64	50.2645
1622.18	49.4929
1623.72	49.3601
1625.25	49.5891
1626.79	50.5483
1628.32	50.7142
1629.86	50.7612
1631.39	51.2546
1632.93	50.9379
1634.46	52.2974
1636	52.29
1637.53	52.7522
1639.07	52.2786
1640.6	52.7875
1642.13	54.1534
1643.67	54.1914
1645.2	54.4159
1646.73	55.2264
1648.26	55.8332
1649.8	57.1039
1651.33	58.8456
1652.86	58.6755
1654.39	59.1487
1655.92	59.4873
1657.45	59.3675
1658.98	58.9505
1660.51	59.0901
1662.04	59.0086
1663.57	58.8168
1665.1	58.0855
1666.63	57.2947
1668.16	56.7553
1669.68	55.906
1671.21	55.3359
1672.74	53.8479
1674.27	52.2022
1675.79	50.9868
1677.32	48.3071
1678.85	46.1691
1680.37	43.74
1681.9	42.1852
1683.42	40.3617
1684.95	38.8734
1686.47	37.0702
1688	35.3567
1689.52	33.7386
1691.05	32.8343
1692.57	31.5977
1694.09	30.0044
1695.62	28.1535
1697.14	26.4731
1698.66	23.8557
1700.18	22.7924
1701.71	21.7043
1703.23	21.0221
1704.75	19.7555
1706.27	18.3104
1707.79	17.0507
1709.31	16.6344
1710.83	16.1267
1712.35	14.6527
1713.87	13.7244
1715.39	13.1763
1716.91	13.0922
1718.43	12.9865
1719.95	12.4982
1721.47	12.4299
1722.99	12.5617
1724.5	12.6108
1726.02	12.9876
1727.54	12.2858
1729.06	11.514
1730.57	11.9311
1732.09	11.952
1733.61	11.6253
1735.12	11.3168
1736.64	11.775
1738.15	11.6097
1739.67	11.4478
1741.18	11.0981
1742.7	10.9526
1744.21	10.8641
1745.72	10.6605
1747.24	9.78938
1748.75	8.85103
1750.26	8.18197
1751.77	7.64473
1753.29	7.21884
1754.8	7.30898
1756.31	7.67464
1757.82	8.219
1759.33	8.40059
1760.84	8.59142
1762.36	8.56187
1763.87	8.94294
1765.38	9.087
1766.89	9.06981
1768.4	8.38516
1769.91	7.57759
1771.41	6.96313
1772.92	6.35936
1774.43	5.56309
1775.94	5.96219
1777.45	5.7732
1778.95	5.20119
1780.46	4.64308
1781.97	4.42866
1783.48	3.71671
1784.98	4.21156
1786.49	3.70241
1787.99	3.48936
1789.5	3.31215
1791.01	3.86563
1792.51	3.51646
1794.01	3.98981
1795.52	4.69196
1797.02	4.55616
1798.53	4.77866
1800.03	4.59746
1801.53	5.15663
1803.04	5.18207
1804.54	5.32397
1806.04	5.99822
1807.54	6.33665
1809.05	5.94334
1810.55	6.52271
1812.05	6.82685
1813.55	7.39442
1815.05	7.59049
1816.55	7.99169
1818.05	8.07466
1819.55	7.93438
1821.05	7.9505
1822.55	7.98952
1824.05	8.41762
1825.55	9.28623
1827.05	10.0016
1828.55	10.8377
1830.04	11.5136
1831.54	11.9784
1833.04	12.1464
1834.54	12.2339
1836.03	12.3671
1837.53	12.3731
1839.03	12.1373
1840.52	11.5045
1842.02	11.3134
1843.51	11.2986
1845.01	11.2047
1846.5	10.942
1848	10.8329
1849.49	10.5536
1850.99	10.7602
1852.48	10.7532
1853.97	10.678
1855.47	10.8024
1856.96	11.2368
1858.45	10.9857
1859.94	12.1133
1861.44	12.1715
1862.93	12.4387
1864.42	12.5819
1865.91	13.1842
1867.4	13.5363
1868.89	13.9699
1870.38	13.7814
1871.87	13.2699
1873.36	14.2376
1874.85	14.2359
1876.34	14.7573
1877.83	14.4015
1879.32	14.8019
1880.81	14.6962
1882.3	14.7465
1882.57	14.5144
1884.07	14.8929
1885.56	15.4837
1887.06	16.0766
1888.55	16.0824
1890.04	15.6353
1891.54	15.4993
1893.03	15.763
1894.52	16.1997
1896.02	16.5329
1897.51	16.5662
1899	16.1838
1900.49	16.1003
1901.98	15.5892
1903.47	15.8074
1904.96	15.3044
1906.45	14.8174
1907.94	15.0081
1909.43	14.8233
1910.92	14.9844
1912.41	15.1018
1913.9	14.9203
1915.39	14.9271
1916.88	14.7156
1918.37	14.416
1919.85	13.775
1921.34	13.5202
1922.83	13.6497
1924.32	13.4558
1925.8	13.3756
1927.29	13.1669
1928.78	13.0261
1930.26	12.9564
1931.75	12.3278
1933.23	12.6092
1934.72	11.6351
1936.2	10.798
1937.69	10.2981
1939.17	10.2377
1940.66	10.3963
1942.14	10.6883
1943.63	10.4576
1945.11	10.5818
1946.59	10.7406
1948.07	10.0625
1949.56	10.5348
1951.04	10.5816
1952.52	10.8158
1954	10.9514
1955.48	11.8319
1956.96	11.879
1958.45	11.9976
1959.93	12.1289
1961.41	11.6029
1962.89	11.1198
1964.37	11.0811
1965.85	11.9028
1967.32	12.2831
1968.8	12.5505
1970.28	12.6629
1971.76	12.5994
1973.24	12.7916
1974.72	13.4783
1976.19	13.6162
1977.67	14.1934
1979.15	14.0176
1980.63	14.304
1982.1	14.7236
1983.58	14.5722
1985.05	14.5222
1986.53	14.2598
1988	13.9555
1989.48	14.0389
1990.95	13.8454
1992.43	13.1367
1993.9	12.1415
1995.38	12.0514
1996.85	11.8343
1998.32	11.3672
1999.8	10.8986
2001.27	10.3659
2002.74	10.4883
2004.22	10.2324
2005.69	10.0596
2007.16	9.83908
2008.63	9.24259
2010.1	9.5413
2011.57	9.80941
2013.04	10.4268
2014.51	11.0249
2015.98	10.9107
2017.45	10.7445
2018.92	11.4818
2020.39	11.7099
2021.86	12.0722
2023.33	12.1706
2024.8	12.1715
2026.27	12.4991
2027.74	12.5639
2029.2	12.6248
2030.67	12.8287
2032.14	13.4687
2033.61	13.6521
2035.07	14.1729
2036.54	14.2125
2038.01	14.7989
2039.47	15.0211
2040.94	15.2941
2042.4	16.0171
2043.87	16.723
2045.33	16.651
2046.8	17.025
2048.26	17.2313
2049.72	16.9014
2051.19	16.4977
2052.65	16.7973
2054.12	16.3502
2055.58	16.4846
2057.04	16.3888
2058.5	16.4418
2059.97	16.4564
2061.43	16.6944
2062.89	16.444
2064.35	16.4547
2065.81	16.6909
2067.27	17.0994
2068.73	17.8787
2070.19	18.0788
2071.65	18.2663
2073.11	17.5578
2074.57	17.4519
2076.03	17.8209
2077.49	18.0338
2078.95	17.8285
2080.41	18.3663
2081.87	18.2051
2083.32	18.8223
2084.78	18.9338
2086.24	19.1815
2087.7	19.5114
2089.15	19.5881
2090.61	20.3689
2092.07	20.7556
2093.52	20.6516
2094.98	20.58
2096.43	20.8392
2097.89	21.7298
2099.34	21.9972
2100.8	22.2375
2102.25	22.7642
2103.71	23.3937
2105.16	23.3473
2106.61	23.1355
2108.07	23.2076
2109.52	23.4826
2110.97	24.3283
2112.43	24.5555
2113.88	25.4696
2115.33	25.9129
2116.78	25.9937
2118.23	26.3449
2119.68	27.4993
2121.13	28.4916
2122.59	29.3439
2124.04	30.024
2125.49	31.5125
2126.94	32.504
2128.39	33.66
2129.83	35.0167
2131.28	35.7441
2132.73	37.2023
2134.18	38.4027
2135.63	39.5201
2137.08	41.4818
2138.53	42.429
2139.97	43.0987
2141.42	43.8665
2142.87	44.5529
2144.31	45.6255
2145.76	46.2944
2147.21	48.019
2148.65	49.2973
2150.1	50.5411
2151.54	51.274
2152.99	52.0108
2154.43	52.0738
2155.88	53.0284
2157.32	53.9376
2158.77	55.5699
2160.21	56.9086
2161.65	57.8633
2163.1	58.8344
2164.54	59.413
2165.98	59.8681
2167.43	60.5173
2168.87	61.2326
2170.31	61.6913
2171.75	61.1987
2173.19	61.5399
2174.64	61.1366
2176.07	60.6516
2177.52	60.7788
2178.96	60.1133
2180.4	59.8745
2181.84	59.5025
2183.28	58.8771
2184.72	57.9966
2186.15	58.2601
2187.59	57.8616
2189.03	57.4778
2190.47	57.539
2191.91	56.9492
2193.35	56.0118
2194.78	55.0106
2196.22	53.1562
2197.66	52.2745
2199.09	51.0738
2200.53	49.5608
2201.97	48.8255
2203.4	47.7764
2204.84	47.5404
2206.27	46.4052
2207.71	45.7787
2209.14	44.3915
2210.58	42.5101
2212.01	41.2788
2213.45	40.4297
2214.88	39.1951
2216.31	37.6542
2217.75	35.821
2219.18	34.9529
2220.61	33.7215
2222.05	32.5918
2223.48	31.8062
2224.91	30.8246
2226.34	30.3066
2227.78	29.9502
2229.21	29.451
2230.64	29.7058
2232.07	28.5195
2233.5	28.0717
2234.93	27.9633
2236.36	27.5836
2237.79	26.8122
2239.22	26.0864
2240.65	24.8158
2242.08	24.5375
2243.5	23.5325
2244.93	22.7566
2246.36	21.5165
2247.79	20.9298
2249.22	20.4209
2250.64	19.0933
2252.07	18.8386
2253.5	18.0937
2254.92	18.0978
2256.35	17.9735
2257.78	17.9823
2259.2	16.6602
2260.63	15.5706
2262.05	15.2862
2263.48	14.6205
2264.9	14.0659
2266.33	13.9565
2267.75	13.3693
2269.18	13.8297
2270.6	13.3783
2272.02	13.1828
2273.45	13.007
2274.87	13.0498
2276.29	12.9234
2277.71	12.0764
2279.14	11.1516
2280.56	10.3375
2281.98	9.65353
2283.4	9.56302
2284.82	9.13637
2286.24	8.87822
2287.66	8.40779
2289.08	8.67794
2290.5	8.96095
2291.92	8.44684
2293.34	7.71005
2294.76	7.85217
2296.18	7.62246
2297.6	8.07512
2299.02	8.31921
2300.44	8.59597
2301.86	9.65741
2303.27	9.715
2304.69	10.0316
2306.11	10.1787
2307.53	9.64709
2308.94	9.37659
2310.36	9.17519
2311.78	9.41033
2313.19	9.81583
2314.61	8.97864
2316.02	8.32887
2317.44	8.58259
2318.85	8.73142
2320.27	8.79159
2321.68	8.56277
2323.1	8.15148
2324.51	8.00812
2325.92	7.88443
2327.34	7.0858
2328.75	6.75778
2330.16	6.169
2331.58	6.35045
2332.99	6.70135
2334.4	6.13008
2335.81	5.94289
2337.23	5.39082
2338.64	4.85491
2340.05	4.5188
2341.46	4.07535
2342.87	3.26725
2344.28	2.87221
2345.69	2.43643
2347.1	1.91377
2348.51	0.914362
2349.92	0.751703
2351.33	0.194397
2352.74	-0.671124
2354.15	-0.182205
2355.55	-0.732354
2356.96	-1.11632
2358.37	-1.4378
2359.78	-1.48564
2361.19	-2.14613
2362.59	-2.3664
2364	-2.13844
2365.41	-1.10502
2366.81	-1.14632
2368.22	-0.323171
2369.62	-0.651343
2371.03	-0.686504
2372.44	-0.434845
2373.84	-0.402726
2375.24	-0.432772
2376.65	-0.302563
2378.05	0.0828175
2379.46	0.0459743
2380.86	0.173426
2382.26	0.259472
2383.67	-0.00989663
2385.07	0.187012
2386.47	0.497766
2387.88	1.1204
2389.28	1.17357
2390.68	1.67083
2392.08	1.25454
2393.48	1.97841
2394.89	1.90791
2396.29	2.2448
2397.69	2.42075
2399.09	3.27276
2400.49	3.01637
2401.89	2.86087
2403.29	3.36598
2404.69	3.54509
2406.09	3.72968
2407.48	3.87224
2408.88	4.47651
2410.28	5.11408
2411.68	5.50971
2413.08	5.44547
2414.48	6.16632
2415.87	6.44557
2417.27	6.91855
2418.67	6.56349
2420.06	6.54001
2421.46	6.15224
2422.86	5.76224
2424.25	6.27045
2425.65	5.8895
2427.04	6.12669
2428.44	6.15282
2429.83	6.02697
2431.23	6.06107
2432.62	6.0515
2434.02	6.16105
2435.41	6.27847
2436.81	5.53585
2438.2	5.7841
2439.59	5.27836
2440.99	4.93197
2442.38	4.68701
2443.77	4.02886
2445.16	4.1615
2446.56	3.92632
2447.95	4.02414
2449.34	3.6529
2450.73	3.60511
2452.12	3.2765
2453.51	3.09865
2454.9	3.62105
2456.29	2.94301
2457.68	2.58825
2459.07	2.46809
2460.46	2.3271
2461.85	1.58505
2463.24	1.595
2464.63	1.39954
2466.02	1.72262
2467.4	1.65024
2468.79	2.17465
2470.18	1.80565
2471.57	1.73285
2472.95	2.63143
2474.34	2.61416
2475.73	3.23866
2477.12	3.79142
2478.5	4.50615
2479.89	4.8347
2481.27	4.54248
2482.66	4.51078
2484.04	4.34195
2485.43	4.03062
2486.81	3.77473
2488.2	3.30196
2489.58	3.56103
2490.97	3.48201
2492.35	3.48505
2493.73	3.74946
2495.12	3.73226
2496.5	3.58724
2497.88	3.53045
2499.27	3.40756
2500.65	3.29854
2502.03	3.2512
2503.41	3.64754
2504.79	3.71391
2506.17	2.84052
2507.56	2.61921
2508.94	2.5727
2510.32	2.61003
2511.7	2.52716
2513.08	2.67474
2514.46	2.70093
2515.84	2.44623
2517.22	1.99453
2518.59	1.8362
2519.97	1.28634
2521.35	1.05781
2522.73	0.983497
2524.11	1.6224
2525.49	0.554542
2526.86	0.597696
2528.24	0.518905
2529.62	0.459876
2530.99	-0.143199
2532.37	0.128745
2533.75	0.488655
2535.12	0.23509
2536.5	0.877474
2537.88	0.853958
2539.25	0.726297
2540.63	1.23748
2542	2.15557
2543.38	2.81419
2544.75	3.0873
2546.12	3.04123
2547.5	2.68393
2548.87	2.53821
2550.24	2.924
2551.62	3.55828
2552.99	3.41115
2554.36	3.57658
2555.74	4.53682
2557.11	4.89165
2558.48	4.91285
2559.85	5.5327
2561.22	5.45473
2562.59	5.65745
2563.96	5.96571
2565.34	6.05476
2566.71	6.71268
2568.08	6.50822
2569.45	6.7416
2570.82	7.29117
2572.18	7.18086
2573.55	6.89856
2574.92	6.60626
2576.29	7.05971
2577.66	7.12354
2579.03	7.3196
2580.4	6.92886
2581.77	6.62252
2583.13	6.35852
2584.5	6.67128
2585.87	6.39979
2587.23	6.83013
2588.6	6.36729
2589.97	6.53843
2591.33	6.76623
2592.7	6.86162
2594.06	5.94565
2595.43	6.02459
2596.79	5.95766
2598.16	6.10954
2599.52	5.77761
2600.89	6.00469
2602.25	5.70951
2603.62	5.18195
2604.98	5.05519
2606.34	4.1749
2607.71	4.32887
2609.07	4.22698
2610.43	4.04021
2611.79	4.08993
2613.16	3.52441
2614.52	3.35872
2615.88	3.2359
2617.24	3.6971
2618.6	3.5728
2619.96	3.30855
2621.32	3.12703
2622.68	3.40005
2624.04	3.37148
2625.4	2.7386
2626.76	2.71653
2628.12	3.22969
2629.48	2.85779
2630.84	3.46252
2632.2	3.20418
2633.56	3.00574
2634.92	2.74615
2636.28	1.91273
2637.63	2.29649
2638.99	2.26551
2640.35	1.95956
2641.71	2.25394
2643.06	2.15198
2644.42	2.24
2645.77	2.17956
2647.13	2.72221
2648.49	2.92449
2649.84	3.07819
2651.2	3.50435
2652.55	3.33601
2653.91	3.48435
2655.26	4.11326
2656.62	3.74056
2657.97	4.22001
2659.33	4.43057
2660.68	4.16211
2662.03	4.38348
2663.39	4.29678
2664.74	4.25015
2666.09	3.55956
2667.44	3.11268
2668.8	2.92299
2670.15	3.11589
2671.5	2.27156
2672.85	2.08983
2674.2	2.25072
2675.55	2.57467
2676.91	2.47557
2678.26	2.21221
2679.61	2.03545
2680.96	1.65253
2682.31	1.58546
2683.66	1.45923
2685	0.81083
2686.35	1.0657
2687.7	1.23529
2689.05	0.956869
2690.4	0.428503
2691.75	0.476206
2693.1	1.12376
2694.44	1.44554
2695.79	1.59853
2697.14	0.655881
2698.49	0.206853
2699.83	-0.240549
2701.18	-0.350911
2702.52	-0.3895
2703.87	-0.101601
2705.22	0.389277
2706.56	0.0164863
2707.91	0.300415
2709.25	0.511102
2710.6	0.659473
2711.94	1.43419
2713.29	1.77662
2714.63	2.16595
2715.97	2.367
2717.32	2.38959
2718.66	2.35174
2720.01	2.96782
2721.35	3.45956
2722.69	3.72891
2724.03	3.41854
2725.38	3.93377
2726.72	4.07769
2728.06	4.33305
2729.4	4.57605
2730.74	4.13771
2732.08	4.38335
2733.42	4.41419
2734.76	4.9421
2736.1	5.27805
2737.44	4.982
2738.78	4.22455
2740.12	4.58474
2741.46	4.91501
2742.8	4.65265
2744.14	4.11489
2745.48	3.58688
2746.82	3.74536
2748.16	3.60131
2749.49	3.53936
2750.83	3.16675
2752.17	2.9621
2753.51	3.1171
2754.84	3.02229
2756.18	2.83367
2757.52	3.00375
2758.85	3.89508
2760.19	4.29178
2761.53	3.90005
2762.86	3.57938
2764.2	3.2298
2765.53	3.62133
2766.87	3.6491
2768.2	3.14622
2769.54	3.05434
2770.87	3.29093
2772.2	3.44005
2773.54	3.6022
2774.87	3.78072
2776.2	3.68772
2777.54	3.62295
2778.87	3.91395
2780.2	3.65016
2781.53	3.62071
2782.87	3.76369
2784.2	3.89795
2785.53	3.92855
2786.86	4.16806
2788.19	3.82416
2789.52	3.68283
2790.85	3.69922
2792.18	3.62777
2793.51	3.44498
2794.84	3.43709
2796.17	2.8939
2797.5	2.81545
2798.83	2.82838
2800.16	2.19822
2801.49	1.83876
2802.82	1.4863
2804.15	0.834122
2805.47	0.0525929
2806.8	-0.135744
2808.13	-0.752972
2809.46	-0.959908
2810.78	-1.3378
2812.11	-1.64505
2813.44	-1.91534
2814.76	-2.1304
2816.09	-2.0664
2817.42	-2.13404
2818.74	-2.00144
2820.07	-1.75477
2821.39	-1.2095
2822.72	-0.676778
2824.04	0.102869
2825.37	0.957556
2826.69	1.61873
2828.02	2.65644
2829.34	3.21909
2830.66	4.10715
2831.99	4.71066
2833.31	5.42516
2834.63	6.58486
2835.96	8.80736
2837.28	10.1467
2838.6	11.168
2839.92	12.4914
2841.24	13.8746
2842.57	15.1332
2843.89	16.9345
2845.21	18.8643
2846.53	21.1078
2847.85	23.5077
2849.17	25.4933
2850.49	27.6033
2851.81	29.9146
2853.13	32.2331
2854.45	34.6397
2855.77	36.3286
2857.09	38.3397
2858.41	40.4233
2859.72	42.2295
2861.04	44.2844
2862.36	46.0322
2863.68	47.9116
2865	49.3329
2866.31	51.1517
2867.63	53.0054
2868.95	54.9207
2870.26	56.4659
2871.58	57.4629
2872.9	59.1645
2874.21	60.5605
2875.53	62.147
2876.84	63.2262
2878.16	63.3385
2879.47	64.5984
2880.79	65.9182
2882.1	67.1007
2883.42	68.0169
2884.73	68.9476
2886.05	70.5235
2887.36	71.7321
2888.67	72.995
2889.99	74.1935
2891.3	75.4705
2892.61	77.4989
2893.92	78.7256
2895.24	79.3245
2896.55	80.5807
2897.86	82.6229
2899.17	84.3243
2900.48	86.3875
2901.79	88.2364
2903.11	90.2493
2904.42	92.7223
2905.73	95.2404
2907.04	97.7792
2908.35	100.42
2909.66	103.871
2910.97	107.337
2912.27	110.734
2913.58	113.644
2914.89	117.083
2916.2	120.689
2917.51	123.311
2918.82	126.067
2920.13	128.037
2921.43	130.614
2922.74	133.078
2924.05	135.488
2925.35	137.355
2926.66	139.205
2927.97	140.779
2929.27	142.023
2930.58	143.326
2931.89	144.192
2933.19	144.506
2934.5	144.869
2935.8	144.038
2937.11	143.394
2938.41	142.734
2939.72	141.734
2941.02	140.738
2942.32	139.074
2943.63	137.331
2944.93	136.485
2946.24	134.664
2947.54	132.553
2948.84	130.068
2950.14	127.893
2951.45	125.738
2952.75	122.819
2954.05	120.325
2955.35	117.448
2956.65	114.532
2957.95	111.561
2959.26	108.302
2960.56	105.72
2961.86	104.044
2963.16	101.645
2964.46	98.9283
2965.76	96.5942
2967.06	94.0073
2968.36	91.5877
2969.66	88.6843
2970.96	86.2587
2972.25	84.0988
2973.55	81.7135
2974.85	79.51
2976.15	76.8025
2977.45	74.2166
2978.74	71.5805
2980.04	69.4861
2981.34	66.5376
2982.64	63.5189
2983.93	61.3669
2985.23	58.7646
2986.52	56.8327
2987.82	54.1557
2989.12	51.1095
2990.41	48.8367
2991.71	46.0746
2993	43.7999
2994.3	41.5111
2995.59	38.4916
2996.89	35.3723
2998.18	32.9601
2999.48	30.8148
3000.77	28.5437
3002.06	26.9558
3003.36	24.6777
3004.65	23.205
3005.94	21.4372
3007.23	19.178
3008.53	17.9377
3009.82	16.3613
3011.11	14.7635
3012.4	13.285
3013.69	11.9509
3014.99	10.905
3016.28	9.76569
3017.57	8.73336
3018.86	7.94618
3020.15	7.16965
3021.44	7.17662
3022.73	6.7502
3024.02	6.92333
3025.31	6.98669
3026.6	7.11242
3027.89	6.2714
3029.18	6.57267
3030.46	6.02123
3031.75	5.60551
3033.04	5.51142
3034.33	5.97691
3035.62	6.14328
3036.9	6.20548
3038.19	6.27298
3039.48	6.89675
3040.76	7.07775
3042.05	8.12837
3043.34	8.58115
3044.62	9.68041
3045.91	9.93168
3047.19	10.7424
3048.48	10.6493
3049.77	10.5604
3051.05	10.5958
3052.34	11.0913
3053.62	11.1512
3054.9	11.5299
3056.19	11.4895
3057.47	11.7991
3058.76	11.4754
3060.04	10.7544
3061.32	11.1114
3062.61	11.0939
3063.89	10.9145
3065.17	10.5566
3066.45	9.96268
3067.74	9.34393
3069.02	8.97287
3070.3	8.27945
3071.58	7.91736
3072.86	7.29502
3074.14	6.8637
3075.42	6.17063
3076.7	5.91171
3077.99	5.79066
3079.26	5.50892
3080.54	4.74922
3081.82	4.25354
3083.1	3.4395
3084.38	2.92107
3085.66	2.38517
3086.94	1.4238
3088.22	1.3666
3089.5	1.07212
3090.78	1.03114
3092.05	0.467128
3093.33	0.39867
3094.61	-0.115905
3095.89	-0.378882
3097.16	-0.470036
3098.44	-0.0513352
3099.72	-0.104181
3100.99	-0.105262
3102.27	-0.0900337
3103.54	0.341544
3104.82	0.365031
3106.1	0.760408
3107.37	0.769157
3108.65	0.838492
3109.92	0.914536
3111.2	1.36841
3112.47	1.15012
3113.74	1.56967
3115.02	2.31876
3116.29	3.3686
3117.56	3.80145
3118.84	4.29378
3120.11	5.27351
3121.38	5.77484
3122.66	6.03318
3123.93	6.65281
3125.2	7.35671
3126.47	7.61186
3127.74	8.4046
3129.01	9.07932
3130.29	9.56321
3131.56	10.1894
3132.83	10.8096
3134.1	11.7079
3135.37	12.1742
3136.64	12.6838
3137.91	13.968
3139.18	14.5086
3140.45	15.344
3141.72	15.6078
3142.99	15.8871
3144.26	16.4264
3145.52	16.9397
3146.79	17.6969
3148.06	17.9401
3149.33	18.5499
