#Acq. time (s)=	45
#Accumulations=	2
#Range (cm-¹)=	200...3150
#Windows=	2
#Auto scanning=	Off
#Autofocus=	Off
#Macrospot=	Off
#AutoExposure=	Off
#Spike filter=	Multiple accum.
#Delay time (s)=	0
#Binning=	1
#Readout mode=	Signal
#DeNoise=	Off
#ICS correction=	On
#Dark correction=	Off
#Inst. Process=	Off
#Detector Gain=	Best Dynamic Range
#Detector ADC=	20 kHz       
#Detector temperature (°C)=	-69.85
#Instrument=	LabRAM HR Evol
#Detector=	Synapse
#Objective=	x100
#Grating=	600 gr/mm
#ND Filter=	100%
#Laser (nm)=	532 
#Hole=	100.021
#Range=	Auto
#Laser Pol.=	No
#Raman. Pol.=	No
#Laser Pol. (°)=	-0.0007625
#Raman Pol. (°)=	89.9995
#Collection=	Microscope
#StageXY=	Marzhauser
#StageZ=	Marzhauser
#X (µm)=	-5892.8
#Y (µm)=	2886.5
#Z (µm)=	-223.35
#Full time(mm:ss)=	3:18
#Project=	
#Sample=	
#Site=	
#Title=	Thy_20_09_19_2x_45s_532 nm_x100_100%_600 gr_mm
#Remark=	
#Date=	29.06.2022 12:01
#Acquired=	29.06.2022 12:01:07
#Base:Fit=	10.08.2022 09:52:02
#Base:Fit=	10.08.2022 09:52:12
#Base:Sub=	10.08.2022 09:54:21
#Filter:Polynom=	16.08.2022 10:24:04
#AxisType[0]=Intens
#AxisUnit[0]=Cnt
#AxisType[1]=Spectr
#AxisUnit[1]=1/cm
200.523	4.88542
202.339	5.05506
204.154	6.45726
205.967	8.02539
207.781	9.0173
209.596	9.67712
211.409	10.465
213.222	10.7897
215.034	11.7158
216.848	12.5749
218.659	12.5359
220.47	12.6567
222.281	12.4379
224.091	13.1153
225.903	14.0595
227.713	13.5039
229.522	13.7114
231.331	13.9738
233.14	13.4629
234.948	13.0833
236.756	13.0413
238.566	12.218
240.373	12.4948
242.18	12.5165
243.986	12.7174
245.792	13.025
247.598	12.7155
249.403	12.852
251.208	12.7693
253.013	11.9543
254.818	11.2637
256.624	11.0633
258.427	10.9651
260.231	10.8109
262.034	10.024
263.836	9.93518
265.638	9.96437
267.44	8.70756
269.242	9.58521
271.043	8.26636
272.844	7.58294
274.645	7.37038
276.445	6.19701
278.245	5.72867
280.044	5.35808
281.843	5.5949
283.642	5.63164
285.44	5.10413
287.238	6.32698
289.036	6.7833
290.833	6.26041
292.63	6.01229
294.425	6.88677
296.221	6.91774
298.017	7.52804
299.813	7.55741
301.608	8.79752
303.403	9.17205
305.198	10.789
306.992	11.2619
308.786	11.8784
310.579	12.5337
312.371	13.5271
314.163	14.1157
315.956	14.8348
317.748	14.6088
319.54	16.1133
321.331	17.0207
323.122	17.5789
324.911	18.8386
326.701	19.8878
328.491	20.4501
330.281	22.137
332.071	22.8071
333.857	23.3342
335.646	23.8592
337.434	24.3156
339.222	25.1944
341.008	25.0506
342.795	25.0506
344.582	25.0878
346.369	24.4588
348.153	24.2684
349.939	23.8672
351.724	23.1623
353.51	22.6246
355.292	21.6136
357.077	21.9341
358.861	21.4598
360.643	20.8898
362.426	20.9526
364.21	20.8159
365.99	20.2111
367.773	19.905
369.555	18.6758
371.335	18.7372
373.116	19.0099
374.897	18.5596
376.676	18.9384
378.456	17.5626
380.236	16.4
382.014	16.7239
383.793	17.385
385.57	15.6566
387.349	15.5052
389.127	15.1297
390.903	15.2283
392.681	15.0711
394.456	14.3611
396.233	13.4766
398.007	13.0856
399.784	12.5235
401.56	12.2562
403.333	11.7441
405.108	12.0906
406.881	11.7535
408.656	12.2674
410.428	12.2512
412.202	12.4754
413.973	13.1499
415.746	13.0439
417.517	12.9048
419.29	13.5949
421.06	13.6885
422.831	13.9758
424.601	14.0244
426.37	14.24
428.141	13.4979
429.909	13.0422
431.679	12.9756
433.447	12.4586
435.216	11.715
436.983	11.8262
438.75	11.633
440.519	11.876
442.285	11.9256
444.052	12.0648
445.818	12.6697
447.583	11.8054
449.349	12.3521
451.114	11.3143
452.878	10.4331
454.643	10.2842
456.407	10.4016
458.169	10.7432
459.934	11.2072
461.696	11.2215
463.458	10.7376
465.222	10.4539
466.983	9.92548
468.744	9.40977
470.507	9.45645
472.267	9.42031
474.027	8.96034
475.787	9.57685
477.548	9.74268
479.307	9.30463
481.065	9.51194
482.823	8.38055
484.583	9.2181
486.341	9.6375
488.098	10.7517
489.855	11.0432
491.612	11.4199
493.37	11.9802
495.126	12.4381
496.881	13.4327
498.636	14.1719
500.391	14.904
502.148	15.1606
503.902	14.6274
505.656	15.2782
507.409	15.5631
509.162	15.2147
510.915	14.8252
512.668	14.9973
514.42	14.9247
516.174	15.013
517.925	15.2457
519.676	15.699
521.427	15.7364
523.178	15.6706
524.928	16.7632
526.678	16.8175
528.427	16.8347
530.176	16.0345
531.925	15.7269
533.673	16.0107
535.422	15.9254
537.169	15.4188
538.917	13.5441
540.664	14.0429
542.411	14.578
544.157	14.6552
545.903	13.6472
547.649	13.0809
549.395	12.5463
551.14	11.101
552.884	10.081
554.629	10.3372
556.373	9.55262
558.117	10.1337
559.86	10.3956
561.603	9.83236
563.346	9.39248
565.089	9.64464
566.831	9.04603
568.573	9.14677
570.314	7.94351
572.053	8.90828
573.794	8.9968
575.534	9.15048
577.274	8.29397
579.014	7.2873
580.754	7.31219
582.493	6.68814
584.23	6.28837
585.968	6.02433
587.706	4.97439
589.444	4.02008
591.181	3.44936
592.919	3.62417
594.653	3.37579
596.39	3.16528
598.126	2.36574
599.862	2.75078
601.595	2.71761
603.33	3.82208
605.065	3.37777
606.8	4.25891
608.532	4.5497
610.266	4.94906
611.999	5.53675
613.732	5.3585
615.463	4.89999
617.196	4.76285
618.928	5.13044
620.66	5.38555
622.389	5.04259
624.12	4.83741
625.851	5.62209
627.58	7.4131
629.31	7.26854
631.04	7.3219
632.767	7.97507
634.497	9.21685
636.223	9.24363
637.952	9.74781
639.68	10.5112
641.406	12.6485
643.134	12.7779
644.861	14.5348
646.586	15.1458
648.312	15.7996
650.037	16.4599
651.762	17.8791
653.486	18.2921
655.211	18.466
656.936	19.1717
658.659	20.5174
660.383	21.1129
662.105	21.5352
663.829	21.412
665.55	21.2484
667.273	21.8351
668.994	21.8442
670.716	21.9181
672.436	22.0693
674.158	21.9103
675.877	22.4627
677.598	23.0606
679.317	23.0361
681.035	24.0036
682.755	23.5437
684.473	23.7012
686.192	24.8006
687.909	25.004
689.628	25.9135
691.344	26.8543
693.06	28.4197
694.778	28.5235
696.493	29.278
698.211	29.8317
699.925	30.4748
701.64	31.2041
703.356	31.6604
705.07	32.6798
706.783	33.9044
708.498	35.1274
710.211	35.7642
711.924	36.7343
713.638	36.9788
715.35	37.1709
717.061	38.1454
718.774	38.8272
720.485	39.2172
722.196	39.2085
723.906	40.1351
725.618	40.9164
727.328	41.5995
729.037	41.5412
730.746	42.4514
732.456	42.6215
734.165	43.5304
735.873	44.1285
737.58	44.5051
739.289	44.8846
740.997	44.8635
742.703	45.602
744.41	46.4811
746.116	46.8642
747.823	46.7172
749.529	47.0651
751.234	47.6214
752.938	48.2032
754.643	48.6245
756.347	48.792
758.051	49.7684
759.756	49.8375
761.459	49.7862
763.162	51.0858
764.865	51.1628
766.567	52.7021
768.269	52.3897
769.97	53.7553
771.671	54.3789
773.372	55.7832
775.073	57.4866
776.773	58.2555
778.473	57.0183
780.174	56.4823
781.874	57.6174
783.573	58.3068
785.271	60.2705
786.97	62.2373
788.668	63.6981
790.365	66.8529
792.063	68.7609
793.76	70.8251
795.456	71.7318
797.153	73.5584
798.847	75.2101
800.543	76.4855
802.238	77.7998
803.933	78.8449
805.628	79.8659
807.322	79.858
809.017	80.1059
810.71	79.8275
812.404	80.0693
814.097	80.8399
815.79	81.0604
817.483	81.2891
819.173	80.8873
820.865	80.389
822.556	79.2782
824.248	78.2542
825.939	77.6425
827.629	77.4529
829.318	77.294
831.008	76.5368
832.697	76.3356
834.387	74.8175
836.076	73.7082
837.765	72.5066
839.451	70.8634
841.139	70.0079
842.827	68.8897
844.514	67.4509
846.2	66.1363
847.886	63.6342
849.573	61.0923
851.259	59.5547
852.943	57.0726
854.629	54.8534
856.314	51.8221
857.997	49.7797
859.682	47.4555
861.366	45.3317
863.05	43.4572
864.732	43.2582
866.415	43.6286
868.098	43.3041
869.779	43.4431
871.461	42.6355
873.141	41.8816
874.823	41.7032
876.505	41.1696
878.184	40.2614
879.865	39.1033
881.545	39.488
883.223	39.3549
884.903	38.485
886.581	38.6705
888.26	37.7036
889.937	36.4698
891.616	35.5446
893.294	35.7294
894.97	35.0244
896.648	36.3228
898.323	35.9944
900	35.6491
901.675	35.8216
903.351	35.3596
905.026	35.916
906.701	35.981
908.375	36.0117
910.05	37.584
911.723	37.8987
913.398	39.2801
915.07	40.0094
916.742	40.2196
918.415	39.8887
920.087	41.0964
921.76	40.7271
923.43	40.2167
925.103	39.6045
926.773	38.8016
928.443	38.229
930.114	37.152
931.783	36.6034
933.454	37.4606
935.123	36.9689
936.791	36.4169
938.461	35.2294
940.128	33.7756
941.796	32.7469
943.464	32.3318
945.131	31.6059
946.797	30.6073
948.465	29.7369
950.131	29.2521
951.797	28.1612
953.462	27.7531
955.128	26.9567
956.793	26.3417
958.457	25.5868
960.121	24.771
961.786	24.0723
963.45	25.4616
965.113	26.4635
966.775	26.9783
968.44	27.4628
970.102	27.6758
971.763	26.8843
973.425	26.9769
975.086	27.3946
976.748	27.4882
978.409	27.4156
980.069	27.9912
981.729	27.4507
983.388	27.8888
985.048	28.2781
986.708	27.956
988.367	28.3897
990.025	28.6272
991.683	28.8195
993.341	29.9002
994.998	29.6839
996.655	30.5279
998.312	30.4107
999.969	30.3428
1001.62	29.903
1003.28	29.0134
1004.94	28.2657
1006.59	27.3436
1008.25	27.244
1009.9	28.1419
1011.56	27.6149
1013.21	27.3702
1014.86	26.5832
1016.52	25.9673
1018.17	24.7383
1019.82	23.6449
1021.48	21.8676
1023.13	20.7694
1024.78	20.7562
1026.43	20.1056
1028.08	19.2277
1029.73	17.8957
1031.38	18.0375
1033.03	17.3146
1034.68	16.1281
1036.33	15.4338
1037.98	14.0103
1039.63	13.2227
1041.28	12.5123
1042.93	12.8099
1044.57	13.2372
1046.22	13.358
1047.87	12.9841
1049.52	13.0334
1051.16	12.0312
1052.81	10.9512
1054.45	10.9114
1056.1	10.0179
1057.75	9.71199
1059.39	9.54667
1061.04	8.95912
1062.68	8.21031
1064.32	8.63605
1065.97	8.29281
1067.61	7.984
1069.25	7.87355
1070.9	8.55862
1072.54	8.16161
1074.18	7.91466
1075.82	7.92511
1077.47	8.13306
1079.11	8.30396
1080.75	8.78912
1082.39	7.7508
1084.03	7.037
1085.67	6.83442
1087.31	6.82574
1088.95	7.13781
1090.59	8.00408
1092.22	9.25681
1093.86	8.71295
1095.5	9.4525
1097.14	9.81601
1098.78	10.7629
1100.41	11.2584
1102.05	12.1413
1103.69	12.4272
1105.32	13.3173
1106.96	13.2177
1108.59	13.5874
1110.23	14.5733
1111.86	13.9417
1113.5	14.4434
1115.13	13.3097
1116.77	11.6511
1118.4	11.1329
1120.03	10.8067
1121.67	10.3679
1123.3	9.96121
1124.93	11.0904
1126.56	10.8544
1128.19	11.7635
1129.83	12.1122
1131.46	12.6503
1133.09	11.7488
1134.72	11.2392
1136.35	10.6492
1137.98	9.89271
1139.61	9.46436
1141.24	9.38785
1142.86	8.61146
1144.49	8.52632
1146.12	8.28166
1147.75	7.73694
1149.38	6.64155
1151	5.91316
1152.63	5.53141
1154.26	4.57004
1155.88	4.93988
1157.51	5.49619
1159.14	5.62505
1160.76	4.72127
1162.39	4.17506
1164.01	3.26428
1165.63	3.70647
1167.26	3.87254
1168.88	3.98363
1170.51	3.47147
1172.13	3.63634
1173.75	4.59859
1175.38	4.9755
1177	5.86772
1178.62	7.2829
1180.24	7.53167
1181.86	7.50797
1183.48	7.35958
1185.1	7.56727
1186.72	7.22971
1188.34	6.76842
1189.96	7.98368
1191.58	7.8624
1193.2	8.40856
1194.82	9.51669
1196.44	9.71508
1198.06	9.81452
1199.68	11.2607
1201.29	12.1537
1202.91	13.6558
1204.53	15.5928
1206.14	18.8011
1207.76	19.582
1209.38	21.4566
1210.99	22.849
1212.61	23.9269
1214.22	24.4764
1215.84	26.1539
1217.45	27.3278
1219.07	29.201
1220.68	29.6287
1222.29	31.3764
1223.91	32.4508
1225.52	33.9684
1227.13	34.8005
1228.74	36.2847
1230.36	37.2505
1231.97	38.5826
1233.58	39.1348
1235.19	39.83
1236.8	40.8398
1238.41	40.9179
1240.02	40.4698
1241.63	40.5362
1243.24	40.443
1244.85	41.5217
1246.46	41.9634
1248.07	42.1914
1249.67	42.8358
1251.28	43.8555
1252.89	44.8687
1254.5	46.4984
1256.1	46.4925
1257.71	46.891
1259.32	47.3634
1260.92	47.2107
1262.53	47.6439
1264.13	47.728
1265.74	48.2434
1267.34	49.1246
1268.95	50.5756
1270.55	52.399
1272.15	52.8674
1273.76	53.1067
1275.36	52.8848
1276.97	53.169
1278.57	53.6337
1280.17	55.3078
1281.77	56.7295
1283.37	57.4949
1284.97	58.0012
1286.58	58.7283
1288.18	58.3948
1289.78	59.0671
1291.38	59.2532
1292.98	59.6919
1294.58	60.4564
1296.18	60.6478
1297.78	61.0528
1299.37	62.2793
1300.97	62.3028
1302.57	64.3591
1304.17	64.2887
1305.77	64.9896
1307.36	64.9788
1308.96	65.1855
1310.55	64.7933
1312.15	64.2743
1313.75	63.6826
1315.34	64.2493
1316.94	64.8992
1318.53	65.189
1320.13	65.2525
1321.72	65.2051
1323.32	65.4896
1324.91	65.6
1326.5	65.1277
1328.1	65.3902
1329.69	65.9073
1331.28	65.8306
1332.87	65.1175
1334.47	65.5566
1336.06	64.6083
1337.65	64.4829
1339.24	62.8161
1340.83	61.8244
1342.42	60.9772
1344.01	59.7551
1345.6	59.6532
1347.19	59.5284
1348.78	58.1606
1350.37	56.9127
1351.96	54.9581
1353.54	53.4683
1355.13	52.7697
1356.72	51.4482
1358.31	50.4459
1359.89	49.2826
1361.48	48.0999
1363.07	47.2702
1364.65	47.287
1366.24	46.5777
1367.82	46.1502
1369.41	45.2921
1370.99	44.1221
1372.58	44.6512
1374.16	43.8111
1375.75	43.3355
1377.33	42.9085
1378.91	42.557
1380.5	41.6137
1382.08	42.5397
1383.66	40.744
1385.25	41.073
1386.83	39.7915
1388.41	39.37
1389.99	39.3782
1391.57	39.2574
1393.15	39.1425
1394.73	38.9483
1396.31	38.2293
1397.89	37.5127
1399.47	36.6461
1401.05	37.1183
1402.63	37.2299
1404.21	37.5768
1405.78	38.4109
1407.36	39.0926
1408.94	39.8197
1410.52	40.4589
1412.1	40.2266
1413.67	41.1587
1415.25	41.7772
1416.82	42.7015
1418.4	43.5814
1419.98	44.5899
1421.55	46.6749
1423.13	48.5595
1424.7	50.3544
1426.28	52.5852
1427.85	54.7919
1429.42	56.5759
1431	58.6417
1432.57	60.4842
1434.14	62.1501
1435.71	63.9749
1437.29	66.29
1438.86	67.9104
1440.43	69.4688
1442	70.6567
1443.57	71.4978
1445.14	71.9735
1446.71	72.6137
1448.28	72.6468
1449.85	72.5224
1451.42	72.8857
1452.99	72.6058
1454.56	72.0994
1456.13	71.5506
1457.7	70.3944
1459.26	68.6651
1460.83	66.9489
1462.4	64.0392
1463.97	62.0771
1465.54	59.9429
1467.1	57.4631
1468.67	55.2633
1470.23	52.8984
1471.8	49.4027
1473.36	46.6211
1474.93	43.8553
1476.49	42.2377
1478.06	40.1185
1479.62	38.3492
1481.19	35.6756
1482.75	34.257
1484.31	32.0762
1485.88	30.4781
1487.44	28.9103
1489	26.6429
1490.56	24.8729
1492.13	24.0866
1493.69	23.5052
1495.25	22.5063
1496.81	21.5776
1498.37	22.1696
1499.93	23.3968
1501.49	23.8186
1503.05	23.7286
1504.61	24.6246
1506.17	24.4643
1507.73	24.1542
1509.28	24.681
1510.84	24.8855
1512.4	25.5338
1513.96	26.477
1515.52	27.4141
1517.07	28.0751
1518.63	29.4749
1520.19	31.5179
1521.74	32.4692
1523.3	33.3859
1524.85	33.9616
1526.41	33.4089
1527.96	34.3279
1529.52	35.2355
1531.07	35.3941
1532.63	35.0466
1534.18	35.5202
1535.73	34.7711
1537.29	34.8841
1538.84	35.7576
1540.39	36.962
1541.94	38.1568
1543.5	39.4004
1545.05	40.5868
1546.6	42.398
1548.15	43.4713
1549.7	44.6015
1551.25	46.3909
1552.8	47.3259
1554.35	49.0551
1555.9	49.9888
1557.45	51.0255
1559	52.3088
1560.55	54.6358
1562.1	55.5264
1563.65	56.8178
1565.19	57.9455
1566.74	59.1304
1568.29	61.0569
1569.83	61.6561
1571.38	63.7367
1572.93	64.1391
1574.47	65.8841
1576.02	67.5527
1577.56	68.7584
1579.11	69.5065
1580.66	70.2553
1582.2	71.0197
1583.74	71.5634
1585.29	72.301
1586.83	73.5186
1588.38	74.2973
1589.92	74.6421
1591.46	74.6478
1593.01	74.5611
1594.55	74.2875
1596.09	74.1183
1597.63	72.6709
1599.17	70.6581
1600.71	69.4974
1602.25	67.5043
1603.79	66.7558
1605.34	67.3897
1606.88	65.7902
1608.41	63.7724
1609.95	63.3881
1611.49	62.9021
1613.03	62.0969
1614.57	62.0522
1616.11	61.6561
1617.65	62.0419
1619.18	62.2322
1620.72	62.0757
1622.26	62.5004
1623.79	62.107
1625.33	62.4424
1626.87	62.2884
1628.4	61.6496
1629.94	60.8933
1631.48	60.6621
1633.01	60.5476
1634.55	61.2973
1636.08	61.8477
1637.61	61.9465
1639.15	62.4233
1640.68	63.1802
1642.21	64.1571
1643.75	64.8511
1645.28	66.5698
1646.81	66.8194
1648.34	68.0405
1649.88	68.2495
1651.41	68.8223
1652.94	69.2217
1654.47	69.5855
1656	69.1585
1657.53	68.6311
1659.06	68.0945
1660.59	67.9807
1662.12	66.9343
1663.65	66.619
1665.18	66.275
1666.71	65.0315
1668.24	63.5844
1669.76	62.8658
1671.29	62.1334
1672.82	60.0338
1674.35	58.3559
1675.87	56.3143
1677.4	54.4409
1678.93	52.1911
1680.45	50.7376
1681.98	48.0686
1683.5	45.3791
1685.03	42.8375
1686.55	41.0236
1688.08	38.8348
1689.6	36.9429
1691.13	34.9308
1692.65	33.1198
1694.17	31.8208
1695.7	29.4429
1697.22	27.3326
1698.74	25.4473
1700.27	23.0871
1701.79	21.7034
1703.31	19.1902
1704.83	17.7279
1706.35	16.6153
1707.87	16.3219
1709.39	15.7644
1710.91	15.5989
1712.43	14.6829
1713.95	14.0026
1715.47	14.3499
1716.99	13.5325
1718.51	13.5457
1720.03	13.5125
1721.55	13.4727
1723.07	11.7733
1724.58	11.6468
1726.1	11.4226
1727.62	11.0961
1729.13	11.4977
1730.65	11.3532
1732.17	11.1444
1733.68	10.8525
1735.2	11.4637
1736.72	11.9349
1738.23	11.1514
1739.74	11.9029
1741.26	11.7828
1742.77	10.6582
1744.29	9.91549
1745.8	9.35348
1747.32	8.36101
1748.83	7.20105
1750.34	7.44248
1751.85	6.59617
1753.37	6.2765
1754.88	6.04154
1756.39	5.67272
1757.9	5.35544
1759.41	5.29645
1760.92	4.08794
1762.44	3.94237
1763.95	4.3356
1765.46	4.40762
1766.96	4.13687
1768.47	3.59353
1769.98	3.2007
1771.49	2.88928
1773	2.87274
1774.51	2.69744
1776.02	2.85632
1777.53	2.95514
1779.03	2.76594
1780.54	3.5192
1782.05	3.52511
1783.55	2.88027
1785.06	2.67277
1786.57	2.73368
1788.07	2.50597
1789.58	2.47953
1791.08	2.73363
1792.59	2.81101
1794.09	3.02737
1795.6	3.20765
1797.1	3.62703
1798.61	3.73252
1800.11	4.37456
1801.61	4.63299
1803.12	4.7443
1804.62	4.71755
1806.12	5.07071
1807.62	4.63695
1809.12	4.72927
1810.63	4.84009
1812.13	4.6385
1813.63	4.20449
1815.13	4.54776
1816.63	4.32677
1818.13	4.18061
1819.63	4.1105
1821.13	4.36235
1822.63	4.60828
1824.13	4.93454
1825.63	4.72796
1827.13	4.68456
1828.62	4.3645
1830.12	3.83926
1831.62	3.59248
1833.12	3.26871
1834.61	2.86442
1836.11	2.46123
1837.61	2.91364
1839.1	2.8751
1840.6	2.55491
1842.09	2.64575
1843.59	2.29244
1845.09	2.05206
1846.58	1.86753
1848.08	1.65387
1849.57	1.66867
1851.06	1.69645
1852.56	1.5391
1854.05	2.0002
1855.54	1.67826
1857.04	1.39289
1858.53	1.22811
1860.02	1.49336
1861.51	0.851841
1863.01	0.805615
1864.5	0.857349
1865.99	0.527243
1867.48	0.706299
1868.97	0.880913
1870.46	0.991457
1871.95	1.39627
1873.44	1.15752
1874.93	0.773977
1876.42	0.765658
1877.91	0.831444
1879.4	0.98704
1880.89	1.27372
1882.37	0.698541
1882.46	1.24928
1883.95	1.59297
1885.45	2.28954
1886.94	2.91594
1888.43	2.73214
1889.93	2.96312
1891.42	3.03156
1892.91	3.39021
1894.41	3.30611
1895.9	3.68043
1897.39	4.11348
1898.88	3.73603
1900.37	3.60806
1901.86	3.13851
1903.36	3.21822
1904.85	3.2208
1906.34	3.21354
1907.83	3.60361
1909.32	3.82339
1910.81	4.02446
1912.29	3.60522
1913.78	3.83523
1915.27	3.86385
1916.76	3.57631
1918.25	3.62697
1919.74	3.60993
1921.23	4.09309
1922.71	4.12032
1924.2	4.2584
1925.69	4.31235
1927.17	4.32259
1928.66	3.91913
1930.15	3.78403
1931.63	3.42486
1933.12	2.88427
1934.6	2.16298
1936.09	2.56141
1937.57	2.46046
1939.06	2.31966
1940.54	2.62262
1942.02	2.32995
1943.51	2.51507
1944.99	2.35165
1946.47	1.80482
1947.96	2.28742
1949.44	2.17999
1950.92	2.17518
1952.4	2.15256
1953.88	1.92584
1955.37	1.9797
1956.85	2.33299
1958.33	2.47911
1959.81	2.90707
1961.29	3.19361
1962.77	2.91019
1964.25	3.33289
1965.73	3.21637
1967.21	3.2262
1968.69	3.08205
1970.16	3.34541
1971.64	2.40823
1973.12	1.61538
1974.6	1.60937
1976.08	1.52066
1977.55	1.95749
1979.03	2.03389
1980.51	1.96339
1981.98	1.59189
1983.46	1.39522
1984.94	0.963133
1986.41	1.1771
1987.89	1.062
1989.36	1.40554
1990.84	0.863364
1992.31	0.790801
1993.79	0.690194
1995.26	0.889383
1996.73	0.48302
1998.21	0.821702
1999.68	0.832483
2001.15	0.74693
2002.63	1.10802
2004.1	1.11682
2005.57	1.08728
2007.04	1.0951
2008.51	1.33119
2009.99	1.45287
2011.46	1.69268
2012.93	1.54824
2014.4	1.56053
2015.87	1.92975
2017.34	1.98493
2018.81	1.69389
2020.28	2.16684
2021.75	2.59709
2023.21	2.28353
2024.68	2.77397
2026.15	2.93614
2027.62	3.06857
2029.09	3.69634
2030.56	4.18497
2032.02	4.96983
2033.49	5.86364
2034.96	6.01646
2036.42	5.98465
2037.89	5.47608
2039.36	5.40267
2040.82	5.46304
2042.29	5.83896
2043.75	5.6679
2045.22	5.90626
2046.68	6.19445
2048.14	6.59212
2049.61	6.32204
2051.07	6.58917
2052.54	6.64516
2054	5.71928
2055.46	5.96682
2056.93	6.04758
2058.39	5.99607
2059.85	6.33896
2061.31	5.87562
2062.77	6.04396
2064.23	4.95464
2065.7	4.90536
2067.16	4.56972
2068.62	4.58276
2070.08	4.2887
2071.54	4.12466
2073	3.87984
2074.46	3.52366
2075.92	3.38076
2077.38	3.00385
2078.83	2.45509
2080.29	2.73864
2081.75	2.58694
2083.21	2.58003
2084.67	2.86787
2086.12	2.77976
2087.58	3.80582
2089.04	4.43151
2090.49	4.23857
2091.95	4.96726
2093.41	5.26224
2094.86	5.39785
2096.32	6.07304
2097.77	6.11995
2099.23	6.34823
2100.68	6.8682
2102.14	7.30527
2103.59	7.34165
2105.05	7.71913
2106.5	8.23693
2107.95	8.36001
2109.41	8.96624
2110.86	9.36372
2112.31	10.2535
2113.76	10.5339
2115.21	10.8808
2116.67	11.4838
2118.12	12.0411
2119.57	11.6156
2121.02	12.191
2122.47	13.4204
2123.92	14.8735
2125.37	15.7804
2126.82	16.1061
2128.27	17.1541
2129.72	17.7665
2131.17	18.372
2132.62	18.9361
2134.07	19.2243
2135.51	19.9783
2136.96	20.4218
2138.41	21.5007
2139.86	22.1328
2141.31	22.5361
2142.75	22.7988
2144.2	23.3885
2145.65	24.2761
2147.09	24.69
2148.54	25.1422
2149.98	26.2436
2151.43	27.2236
2152.87	28.8642
2154.32	30.185
2155.76	31.3046
2157.21	31.8912
2158.65	33.0457
2160.1	34.0636
2161.54	34.595
2162.98	34.6379
2164.43	35.6379
2165.87	35.9676
2167.31	36.114
2168.75	36.0659
2170.2	36.0546
2171.64	36.0185
2173.08	35.717
2174.52	34.8171
2175.96	35.1781
2177.4	35.5903
2178.84	35.9704
2180.28	35.016
2181.72	34.4158
2183.16	33.7684
2184.6	33.0406
2186.04	32.3085
2187.48	32.0921
2188.92	31.8945
2190.36	31.2023
2191.79	30.3248
2193.23	29.8022
2194.67	29.3528
2196.11	28.3131
2197.54	27.1431
2198.98	26.4515
2200.42	25.4545
2201.85	24.3133
2203.29	23.5422
2204.72	22.8924
2206.16	21.6844
2207.59	20.9075
2209.03	20.3696
2210.46	19.0007
2211.9	17.7816
2213.33	16.9499
2214.77	16.2603
2216.2	15.4396
2217.63	14.881
2219.07	14.0716
2220.5	13.7728
2221.93	14.0831
2223.36	14.2004
2224.8	14.0739
2226.23	13.671
2227.66	12.7515
2229.09	12.499
2230.52	12.1612
2231.95	11.8315
2233.39	11.9178
2234.81	11.452
2236.25	11.2492
2237.67	10.4357
2239.1	9.87873
2240.53	9.96244
2241.96	10.0487
2243.39	9.49885
2244.82	9.91016
2246.25	9.92194
2247.68	10.5318
2249.1	9.99798
2250.53	9.2292
2251.96	8.86286
2253.38	9.10678
2254.81	9.12915
2256.24	9.24673
2257.66	8.85318
2259.09	8.78528
2260.51	8.91926
2261.94	8.74051
2263.36	8.83336
2264.79	9.04294
2266.21	10.01
2267.64	10.3829
2269.06	10.7162
2270.49	11.1062
2271.91	10.4958
2273.33	10.4017
2274.76	10.6571
2276.18	10.1025
2277.6	9.78534
2279.02	9.38932
2280.44	9.16803
2281.87	8.24618
2283.29	8.20283
2284.71	7.49328
2286.13	7.1351
2287.55	6.72432
2288.97	6.59482
2290.39	6.1385
2291.81	5.87215
2293.23	5.60565
2294.65	5.98413
2296.07	5.38935
2297.49	5.54093
2298.91	5.3422
2300.33	6.0165
2301.74	6.38193
2303.16	7.82586
2304.58	8.12435
2306	7.77841
2307.41	7.63757
2308.83	7.97619
2310.25	8.06077
2311.66	8.17441
2313.08	8.11827
2314.5	8.59092
2315.91	8.5815
2317.33	8.27903
2318.74	8.67603
2320.16	8.52538
2321.57	8.8044
2322.98	8.75996
2324.4	9.0256
2325.81	9.04972
2327.23	9.2017
2328.64	9.05413
2330.05	9.60337
2331.46	10.1286
2332.88	10.0718
2334.29	10.3173
2335.7	9.99838
2337.11	9.77164
2338.52	8.92616
2339.94	7.99962
2341.35	7.21516
2342.76	6.57717
2344.17	6.18655
2345.58	5.7961
2346.99	5.02903
2348.4	4.33632
2349.81	3.77046
2351.22	3.3585
2352.62	2.67759
2354.03	2.44694
2355.44	2.13422
2356.85	2.21166
2358.26	2.10834
2359.67	2.43057
2361.07	2.02078
2362.48	1.73061
2363.89	1.67733
2365.29	2.45593
2366.7	2.23858
2368.11	2.75796
2369.51	2.65534
2370.92	3.01434
2372.32	2.24574
2373.73	1.82386
2375.13	0.843575
2376.54	1.00878
2377.94	1.43828
2379.35	1.60238
2380.75	1.47628
2382.15	1.53363
2383.56	1.75745
2384.96	2.06208
2386.36	1.93881
2387.76	2.2806
2389.17	2.86475
2390.57	2.59979
2391.97	2.81282
2393.37	2.79481
2394.77	3.61267
2396.17	3.80848
2397.58	4.03382
2398.98	4.47248
2400.38	5.09109
2401.78	5.25176
2403.18	5.15292
2404.58	4.85212
2405.97	4.68562
2407.37	5.24684
2408.77	5.14105
2410.17	5.49348
2411.57	6.11499
2412.97	6.56249
2414.37	7.01287
2415.76	7.82865
2417.16	7.61959
2418.56	7.92023
2419.95	8.8639
2421.35	9.31087
2422.75	9.95223
2424.14	10.0052
2425.54	9.9865
2426.93	10.2152
2428.33	10.1777
2429.72	9.95493
2431.12	9.37343
2432.51	9.7443
2433.91	9.57167
2435.3	9.8547
2436.7	9.09507
2438.09	7.98527
2439.48	7.62057
2440.88	6.82412
2442.27	6.39675
2443.66	6.32531
2445.05	6.09704
2446.44	6.58015
2447.84	6.39776
2449.23	5.65714
2450.62	5.12133
2452.01	4.98234
2453.4	5.22986
2454.79	5.48587
2456.18	5.57369
2457.57	5.51122
2458.96	5.57516
2460.35	5.03481
2461.74	4.95977
2463.13	4.89895
2464.52	5.05037
2465.91	5.08015
2467.29	5.10203
2468.68	4.5243
2470.07	3.95525
2471.46	3.72383
2472.85	3.95577
2474.23	3.98358
2475.62	4.49219
2477.01	4.92521
2478.39	4.76109
2479.78	5.05883
2481.16	4.71142
2482.55	4.52554
2483.93	4.47525
2485.32	3.98091
2486.7	3.63221
2488.09	4.24858
2489.47	4.77846
2490.86	4.56653
2492.24	4.11736
2493.62	3.44703
2495.01	3.45872
2496.39	3.66717
2497.77	3.47181
2499.15	3.60767
2500.54	3.62656
2501.92	3.50575
2503.3	2.76642
2504.68	2.4202
2506.06	1.77342
2507.45	1.41556
2508.83	1.85139
2510.21	1.27383
2511.59	2.01753
2512.97	2.30949
2514.35	2.51029
2515.73	3.04443
2517.11	2.96611
2518.48	2.89327
2519.86	3.16529
2521.24	3.64799
2522.62	3.78992
2524	3.61345
2525.38	3.35659
2526.75	2.97402
2528.13	3.36191
2529.51	3.58196
2530.89	3.5459
2532.26	3.50542
2533.64	3.67253
2535.02	3.57583
2536.39	3.53761
2537.77	3.27229
2539.14	4.02596
2540.52	4.22422
2541.89	4.29886
2543.27	3.35516
2544.64	2.82878
2546.01	2.53417
2547.39	2.74796
2548.76	2.18479
2550.14	1.53312
2551.51	1.69609
2552.88	1.96414
2554.25	2.01082
2555.63	2.12239
2557	2.0353
2558.37	1.91476
2559.74	1.742
2561.11	1.36825
2562.49	1.19078
2563.86	1.81662
2565.23	2.48904
2566.6	2.36022
2567.97	2.36483
2569.34	2.23142
2570.71	2.468
2572.08	2.21138
2573.45	2.67839
2574.82	3.37561
2576.18	3.40939
2577.55	3.6159
2578.92	3.80926
2580.29	4.70484
2581.66	4.90407
2583.02	5.04476
2584.39	5.68594
2585.76	5.46973
2587.13	5.38801
2588.49	5.55388
2589.86	5.39145
2591.22	5.94743
2592.59	6.31988
2593.96	6.76219
2595.32	6.80378
2596.69	7.32654
2598.05	6.90828
2599.42	6.66004
2600.78	6.63033
2602.14	6.63297
2603.51	6.83107
2604.87	6.76012
2606.23	6.76858
2607.6	6.41388
2608.96	6.12765
2610.32	5.96059
2611.69	6.13072
2613.05	6.57452
2614.41	6.8778
2615.77	7.24871
2617.13	6.48164
2618.49	6.28102
2619.86	6.30573
2621.22	6.35314
2622.58	6.23213
2623.94	6.34224
2625.3	6.57217
2626.66	7.11695
2628.02	6.73212
2629.37	6.62942
2630.73	6.83779
2632.09	7.40046
2633.45	7.31124
2634.81	7.27557
2636.17	7.4464
2637.53	7.88549
2638.88	7.88554
2640.24	7.98107
2641.6	8.27091
2642.96	8.41949
2644.31	8.36464
2645.67	8.63348
2647.02	9.24936
2648.38	9.63295
2649.74	9.64582
2651.09	9.65279
2652.45	9.57163
2653.8	9.08074
2655.16	9.38754
2656.51	8.75301
2657.86	8.29847
2659.22	8.29768
2660.57	8.06348
2661.93	7.63966
2663.28	6.8631
2664.63	6.84989
2665.98	6.76696
2667.34	6.99043
2668.69	6.90286
2670.04	6.92375
2671.39	6.92
2672.75	6.79816
2674.09	6.7558
2675.45	7.08998
2676.8	7.41831
2678.15	7.05194
2679.5	7.01991
2680.85	7.00607
2682.2	7.1581
2683.55	6.97357
2684.9	6.80851
2686.25	6.56496
2687.6	7.09646
2688.94	7.21146
2690.29	7.28275
2691.64	7.27746
2692.99	7.28608
2694.34	7.55973
2695.68	7.27739
2697.03	7.90195
2698.38	7.99928
2699.73	7.9337
2701.07	7.93772
2702.42	8.20097
2703.76	8.08815
2705.11	7.8957
2706.45	7.77309
2707.8	7.94436
2709.15	7.92557
2710.49	8.48086
2711.83	8.33863
2713.18	8.34368
2714.52	8.78177
2715.87	9.07832
2717.21	8.97349
2718.55	8.5251
2719.9	8.21343
2721.24	7.95003
2722.58	7.42312
2723.93	6.62549
2725.27	7.05669
2726.61	7.36496
2727.95	7.55104
2729.29	6.60941
2730.63	6.65154
2731.98	7.26152
2733.32	7.34332
2734.66	7.24848
2736	7.38955
2737.34	7.43004
2738.68	7.73854
2740.02	8.25112
2741.36	8.26604
2742.7	8.19764
2744.03	7.86203
2745.37	7.76869
2746.71	7.69233
2748.05	7.87527
2749.39	7.26901
2750.72	6.71678
2752.06	6.44926
2753.4	5.75864
2754.74	6.37254
2756.07	5.86678
2757.41	6.09666
2758.75	6.10117
2760.08	6.30207
2761.42	5.79066
2762.76	5.40039
2764.09	4.8677
2765.42	4.14621
2766.76	4.19771
2768.09	4.33538
2769.43	4.22522
2770.76	3.59875
2772.1	3.05671
2773.43	3.11676
2774.76	2.95584
2776.1	3.05778
2777.43	3.0696
2778.76	2.76398
2780.1	2.55415
2781.43	2.43435
2782.76	1.96794
2784.09	1.0543
2785.42	0.409263
2786.75	0.211825
2788.09	-0.0402254
2789.42	-0.380566
2790.75	-0.36504
2792.08	0.180421
2793.41	-0.726266
2794.74	-0.971895
2796.07	-0.394666
2797.4	0.58513
2798.73	0.899595
2800.06	0.59411
2801.39	0.840077
2802.71	0.980079
2804.04	0.957617
2805.37	1.21363
2806.7	1.32899
2808.03	1.22601
2809.35	1.3452
2810.68	1.68975
2812.01	1.46005
2813.33	0.879039
2814.66	1.30145
2815.99	1.43903
2817.31	1.29196
2818.64	1.70847
2819.96	2.19883
2821.29	3.43863
2822.61	3.68738
2823.94	4.33496
2825.26	4.9517
2826.59	5.29446
2827.91	5.54568
2829.23	7.14035
2830.56	7.36852
2831.88	8.44749
2833.21	9.91179
2834.53	10.9047
2835.85	11.9738
2837.17	13.2265
2838.5	14.769
2839.82	16.7045
2841.14	18.5829
2842.46	20.1012
2843.78	22.1341
2845.1	24.1255
2846.42	26.3959
2847.74	29.0489
2849.06	31.9469
2850.38	34.7257
2851.71	37.7614
2853.03	40.8017
2854.34	43.861
2855.66	46.6192
2856.98	49.7845
2858.3	52.8611
2859.62	55.141
2860.94	58.7031
2862.26	61.405
2863.57	63.4116
2864.89	65.6948
2866.21	67.8485
2867.53	70.3933
2868.84	72.7039
2870.16	74.6764
2871.48	77.0703
2872.79	78.8397
2874.11	79.9473
2875.42	81.4585
2876.74	82.8972
2878.05	83.9645
2879.37	85.2006
2880.68	86.7888
2882	87.9898
2883.31	88.7227
2884.63	90.6058
2885.94	91.6842
2887.26	93.6494
2888.57	94.8318
2889.88	96.2581
2891.19	97.4935
2892.51	98.7146
2893.82	99.8636
2895.13	100.935
2896.44	102.456
2897.76	105.457
2899.07	107.845
2900.38	109.95
2901.69	112.344
2903	115.371
2904.31	118.375
2905.62	122.003
2906.93	125.293
2908.24	128.408
2909.55	132.455
2910.86	136.115
2912.17	140.326
2913.48	144.458
2914.79	148.368
2916.1	151.312
2917.41	154.842
2918.71	157.951
2920.02	160.941
2921.33	163.282
2922.64	165.917
2923.94	167.487
2925.25	169.097
2926.56	170.6
2927.86	171.388
2929.17	171.716
2930.48	171.482
2931.78	171.496
2933.09	171.103
2934.39	169.662
2935.7	168.227
2937	166.885
2938.31	164.364
2939.61	162.217
2940.92	160.415
2942.22	158.462
2943.53	156.147
2944.83	153.679
2946.13	151.371
2947.43	148.197
2948.74	144.956
2950.04	142.397
2951.34	139.542
2952.64	136.56
2953.95	132.244
2955.25	128.65
2956.55	125.152
2957.85	122.022
2959.15	118.608
2960.45	115.624
2961.75	112.906
2963.05	109.936
2964.35	106.695
2965.65	104.014
2966.95	101.479
2968.25	98.6791
2969.55	96.3971
2970.85	93.9055
2972.15	91.2103
2973.45	88.8738
2974.75	87.1107
2976.05	85.1456
2977.34	83.1669
2978.64	80.7418
2979.94	77.7917
2981.24	75.1147
2982.53	72.5878
2983.83	69.0901
2985.13	66.0381
2986.42	63.559
2987.72	61.1035
2989.01	57.7236
2990.31	54.9255
2991.61	51.8574
2992.9	48.5153
2994.19	45.0673
2995.49	42.0321
2996.78	39.7739
2998.08	36.3833
2999.37	33.4449
3000.67	31.2032
3001.96	28.8295
3003.25	26.5358
3004.55	24.7248
3005.84	22.7536
3007.13	21.23
3008.42	19.2834
3009.72	17.4021
3011.01	16.1171
3012.3	14.0442
3013.59	12.9328
3014.88	11.8964
3016.17	10.37
3017.46	8.67582
3018.76	7.53752
3020.05	6.92032
3021.34	6.15367
3022.63	5.35635
3023.92	4.12851
3025.21	3.63447
3026.49	2.92607
3027.78	3.62798
3029.07	3.35459
3030.36	2.97821
3031.65	2.78487
3032.94	3.02961
3034.23	4.09564
3035.51	4.35665
3036.8	5.09772
3038.09	5.55195
3039.38	6.12971
3040.66	6.51609
3041.95	7.03957
3043.23	7.57404
3044.52	8.1183
3045.81	9.32417
3047.09	9.54501
3048.38	10.2221
3049.66	11.7025
3050.95	12.1828
3052.23	12.2249
3053.52	12.4017
3054.8	12.7672
3056.09	12.9627
3057.37	12.5321
3058.65	12.1921
3059.94	12.0356
3061.22	11.8919
3062.5	11.5525
3063.79	11.7263
3065.07	10.8471
3066.35	10.2385
3067.63	9.96084
3068.92	9.66734
3070.2	8.97855
3071.48	8.81599
3072.76	8.00686
3074.04	7.44274
3075.32	6.9632
3076.6	5.98598
3077.88	5.61598
3079.16	5.33758
3080.44	4.42598
3081.72	4.29415
3083	3.67356
3084.28	3.30044
3085.56	2.96049
3086.84	2.48746
3088.12	2.07449
3089.4	2.27472
3090.67	2.12451
3091.95	2.23859
3093.23	2.05079
3094.51	2.21372
3095.78	2.34665
3097.06	2.60685
3098.34	2.77251
3099.61	2.82659
3100.89	3.42782
3102.17	3.61568
3103.44	4.23993
3104.72	5.16987
3105.99	5.51698
3107.27	6.23625
3108.54	6.61495
3109.82	7.21289
3111.09	7.24064
3112.37	7.82027
3113.64	8.54963
3114.92	8.94767
3116.19	9.58015
3117.46	9.84932
3118.74	10.1859
3120.01	10.5408
3121.28	10.7867
3122.55	11.3297
3123.83	11.8421
3125.1	12.4104
3126.37	13.0193
3127.64	13.2788
3128.91	13.0637
3130.19	14.0571
3131.46	14.9564
3132.73	15.3039
3134	15.6966
3135.27	16.4353
3136.54	17.0083
3137.81	17.9665
3139.08	18.7925
3140.35	19.4848
3141.62	20.241
3142.89	20.9285
3144.16	21.4326
3145.42	21.8221
3146.69	22.394
3147.96	22.4217
3149.23	23.2185
