#Acq. time (s)=	45
#Accumulations=	2
#Range (cm-¹)=	200...3150
#Windows=	2
#Auto scanning=	Off
#Autofocus=	Off
#Macrospot=	Off
#AutoExposure=	Off
#Spike filter=	Multiple accum.
#Delay time (s)=	0
#Binning=	1
#Readout mode=	Signal
#DeNoise=	Off
#ICS correction=	On
#Dark correction=	Off
#Inst. Process=	Off
#Detector Gain=	Best Dynamic Range
#Detector ADC=	20 kHz       
#Detector temperature (°C)=	-69.85
#Instrument=	LabRAM HR Evol
#Detector=	Synapse
#Objective=	x100
#Grating=	600 gr/mm
#ND Filter=	100%
#Laser (nm)=	532 
#Hole=	100.021
#Range=	Auto
#Laser Pol.=	No
#Raman. Pol.=	No
#Laser Pol. (°)=	-0.0007625
#Raman Pol. (°)=	89.9995
#Collection=	Microscope
#StageXY=	Marzhauser
#StageZ=	Marzhauser
#X (µm)=	9026.2
#Y (µm)=	-3077.8
#Z (µm)=	-54.7
#Full time(mm:ss)=	3:19
#Project=	
#Sample=	
#Site=	
#Title=	Thy_00_07_19_2x_45s_532 nm_x100_100%_600 gr_mm
#Remark=	
#Date=	28.06.2022 11:26
#Acquired=	28.06.2022 11:26:51
#Base:Fit=	10.08.2022 10:07:56
#Base:Sub=	10.08.2022 10:08:40
#Filter:Polynom=	16.08.2022 10:26:06
#AxisType[0]=Intens
#AxisUnit[0]=Cnt
#AxisType[1]=Spectr
#AxisUnit[1]=1/cm
200.407	10.7659
202.221	8.42764
204.035	6.75394
205.849	5.86419
207.665	5.68968
209.478	5.5941
211.291	5.55547
213.104	5.05902
214.916	5.09207
216.73	5.89864
218.541	4.71791
220.352	5.33148
222.163	5.05036
223.973	4.45798
225.785	4.67809
227.595	6.51509
229.404	6.69769
231.213	6.35488
233.022	6.58737
234.83	6.51382
236.638	6.88672
238.448	6.54017
240.255	6.13087
242.062	6.0556
243.868	5.86121
245.675	6.00125
247.48	6.70851
249.286	7.52706
251.091	7.89624
252.896	8.45449
254.702	7.80281
256.506	6.66074
258.31	6.29559
260.113	6.38726
261.916	6.12666
263.719	5.50365
265.521	6.13065
267.323	6.31615
269.125	6.62211
270.926	6.33026
272.727	6.99053
274.527	7.54315
276.328	6.90724
278.127	7.02874
279.927	7.42733
281.726	8.06225
283.525	8.09592
285.323	7.44991
287.121	8.8829
288.919	9.37427
290.716	10.6885
292.513	11.7097
294.31	12.4041
296.104	12.904
297.9	14.3925
299.696	15.9742
301.491	16.7196
303.286	16.3402
305.081	16.743
306.875	16.9449
308.669	16.963
310.463	18.5762
312.256	18.9996
314.047	19.2989
315.839	20.3373
317.631	20.3909
319.423	19.08
321.215	19.1123
323.006	19.0262
324.794	18.8389
326.585	18.9879
328.375	18.181
330.165	18.0752
331.954	17.4327
333.741	16.593
335.53	16.2294
337.318	16.0344
339.106	15.2157
340.894	15.1687
342.679	14.5658
344.466	14.458
346.253	13.5401
348.039	13.6742
349.823	13.7509
351.608	12.9032
353.393	12.7327
355.176	11.6957
356.961	10.7342
358.745	9.95778
360.529	8.47652
362.31	8.65772
364.093	7.80445
365.876	7.18273
367.657	7.89983
369.439	8.45462
371.221	8.27159
373	8.01836
374.781	8.53272
376.56	9.04775
378.34	9.41238
380.12	9.90527
381.898	10.2099
383.677	10.8503
385.456	11.5488
387.233	12.4986
389.011	11.6205
390.787	11.6341
392.565	10.704
394.34	11.0942
396.117	11.9799
397.894	12.0621
399.668	12.0698
401.444	11.6838
403.217	11.1906
404.993	11.2672
406.766	10.3328
408.54	10.6028
410.312	10.2539
412.086	10.0971
413.858	10.1978
415.631	10.9236
417.402	10.9209
419.174	10.4422
420.944	9.6562
422.716	10.001
424.486	11.0375
426.257	11.4124
428.025	11.2064
429.794	12.4785
431.564	11.9425
433.332	11.6728
435.101	10.9686
436.868	10.8568
438.637	10.3943
440.403	10.6201
442.169	10.6033
443.937	9.90568
445.703	10.7547
447.468	10.902
449.234	11.4544
450.999	12.4538
452.765	13.2123
454.528	13.5878
456.292	14.3506
458.057	14.9119
459.819	15.0183
461.582	15.7009
463.344	16.1553
465.107	16.9134
466.868	17.9831
468.629	18.1868
470.392	19.5345
472.152	20.0705
473.912	20.6056
475.672	21.1382
477.433	21.2738
479.192	21.4695
480.951	21.4771
482.709	21.7789
484.469	22.8283
486.226	23.1987
487.984	23.7989
489.74	23.2567
491.499	22.776
493.255	22.4074
495.011	22.3844
496.767	22.7882
498.522	22.2576
500.277	22.5714
502.033	22.3913
503.788	22.1574
505.541	20.6522
507.295	19.4196
509.048	19.3732
510.801	19.9071
512.553	20.5092
514.308	19.9427
516.06	20.0832
517.811	20.44
519.562	19.6224
521.313	18.5554
523.063	18.5461
524.814	18.0137
526.563	18.5785
528.313	18.6265
530.062	17.4741
531.811	17.4988
533.559	17.4675
535.308	17.0274
537.055	17.3363
538.803	16.5838
540.55	15.3595
542.297	14.7204
544.043	14.1249
545.789	12.5688
547.535	11.9182
549.281	11.1976
551.026	10.7121
552.771	11.1117
554.515	11.257
556.259	10.9976
558.003	11.1966
559.747	10.711
561.49	10.299
563.233	9.62011
564.975	9.8261
566.717	9.17594
568.459	9.40193
570.2	8.26374
571.942	8.09219
573.68	7.04097
575.421	5.7207
577.161	5.28947
578.901	5.2227
580.64	5.8952
582.379	6.32711
584.118	5.64562
585.855	5.96641
587.593	7.03674
589.331	6.66724
591.068	6.57297
592.805	6.6439
594.54	7.0934
596.277	7.32905
598.013	7.68422
599.749	7.79192
601.484	7.28539
603.217	7.96542
604.952	7.65703
606.687	7.53175
608.421	7.29549
610.153	8.341
611.886	8.48294
613.619	9.87519
615.35	9.31246
617.083	9.46862
618.815	10.0049
620.547	10.4743
622.276	10.882
624.008	10.9406
625.738	10.1579
627.467	9.60678
629.197	10.3818
630.927	10.1172
632.655	9.7901
634.384	10.4194
636.113	10.0221
637.839	11.3435
639.568	12.441
641.293	11.3967
643.021	10.6856
644.748	9.84096
646.473	8.90603
648.2	8.83858
649.924	8.27519
651.65	8.79606
653.376	8.34474
655.099	8.43133
656.824	8.40099
658.546	8.99024
660.271	8.97767
661.993	9.46017
663.716	10.2126
665.438	9.85256
667.161	10.3953
668.881	10.4779
670.604	10.9295
672.324	11.7723
674.045	11.8444
675.765	10.8535
677.486	10.6051
679.204	9.5049
680.925	9.42698
682.643	9.51212
684.361	9.66215
686.08	9.72526
687.797	10.2738
689.516	11.1963
691.232	11.0862
692.95	11.0999
694.666	12.191
696.382	13.5582
698.099	13.7817
699.813	14.9697
701.528	15.5166
703.244	16.3255
704.958	17.0634
706.673	18.279
708.387	18.727
710.099	18.6493
711.814	19.2534
713.526	19.1912
715.238	19.9494
716.949	19.4237
718.663	19.8887
720.374	20.72
722.084	21.8954
723.796	23.4206
725.506	23.6886
727.216	23.5388
728.925	23.9554
730.636	25.6803
732.345	27.0098
734.053	28.6177
735.761	29.4785
737.471	31.187
739.178	32.448
740.885	32.5435
742.592	33.5005
744.298	34.9176
746.006	36.0908
747.712	38.1567
749.417	39.2901
751.122	41.2223
752.827	43.4413
754.532	44.9687
756.236	47.3885
757.942	48.5235
759.645	49.9616
761.348	50.1784
763.051	50.8571
764.753	52.263
766.456	53.8435
768.158	54.9473
769.859	55.5773
771.56	56.5176
773.261	58.7885
774.964	60.1716
776.664	60.4599
778.364	61.4276
780.064	63.2803
781.763	64.7072
783.462	65.444
785.16	66.6037
786.859	67.4394
788.557	67.9451
790.255	68.5418
791.952	69.6259
793.649	70.1616
795.346	70.1518
797.042	70.8835
798.738	70.813
800.434	71.6071
802.127	71.2758
803.823	72.0568
805.517	72.4622
807.212	72.4497
808.906	71.5507
810.6	70.4839
812.293	69.7317
813.987	69.6577
815.68	70.2236
817.372	69.1543
819.064	68.3939
820.754	67.2844
822.446	67.2266
824.137	66.788
825.828	65.864
827.519	65.6487
829.209	65.2285
830.897	64.275
832.587	64.3598
834.276	63.7034
835.966	63.7908
837.654	63.2637
839.341	62.5131
841.029	62.0117
842.717	60.3877
844.404	59.7277
846.091	58.3952
847.776	57.2485
849.463	56.5652
851.149	54.9556
852.833	54.399
854.519	52.9892
856.204	52.9558
857.889	53.1828
859.572	51.7559
861.256	50.5931
862.94	50.6725
864.622	50.7487
866.305	50.2844
867.988	49.5234
869.669	48.9876
871.351	48.8889
873.033	48.8707
874.713	48.2076
876.395	48.3588
878.074	48.3656
879.755	47.474
881.435	46.7317
883.114	45.7954
884.794	44.7184
886.471	44.2491
888.15	43.7973
889.829	43.4581
891.506	43.4268
893.184	42.2052
894.861	42.2448
896.538	42.4333
898.214	42.7441
899.891	43.0389
901.566	42.6779
903.242	41.7967
904.916	42.4588
906.592	42.9181
908.266	43.2449
909.941	43.153
911.614	43.5191
913.288	44.077
914.961	44.1668
916.635	44.3077
918.306	44.168
919.979	43.8436
921.651	42.5129
923.321	42.1051
924.994	42.0149
926.664	41.6012
928.336	41.8462
930.005	40.5352
931.674	39.9689
933.345	40.2897
935.014	39.8372
936.682	39.5343
938.352	38.8037
940.019	38.9858
941.687	39.1099
943.356	38.7179
945.022	38.7276
946.689	38.8344
948.357	38.5168
950.022	37.7944
951.688	38.2894
953.355	38.4321
955.02	37.8002
956.684	37.182
958.348	35.164
960.014	33.2221
961.678	31.532
963.341	30.5379
965.004	31.0429
966.669	32.2176
968.331	32.2574
969.993	33.6628
971.655	34.3293
973.316	35.855
974.979	36.4275
976.64	36.2695
978.3	38.1626
979.961	38.8569
981.62	39.278
983.28	40.0643
984.941	39.778
986.6	39.7098
988.259	39.4775
989.917	38.789
991.575	38.2721
993.233	37.4048
994.89	36.531
996.547	35.7748
998.204	35.1403
999.86	34.8683
1001.52	34.5829
1003.17	34.4597
1004.83	33.5609
1006.49	34.4762
1008.14	34.7655
1009.79	34.347
1011.45	33.7668
1013.1	32.7464
1014.76	32.8223
1016.41	32.3121
1018.06	31.0813
1019.72	29.8734
1021.37	29.292
1023.02	28.4419
1024.67	27.9188
1026.32	26.1996
1027.97	25.2789
1029.62	24.6909
1031.27	24.0034
1032.92	22.9494
1034.57	20.5259
1036.22	17.9942
1037.87	15.4297
1039.52	14.1436
1041.17	12.5456
1042.82	12.1122
1044.47	13.5682
1046.11	14.7152
1047.76	16.1968
1049.41	16.3973
1051.06	16.3454
1052.7	16.9986
1054.35	16.9991
1055.99	16.5399
1057.64	15.853
1059.28	15.8382
1060.93	17.0126
1062.57	16.9215
1064.22	16.6578
1065.86	16.0664
1067.5	14.8712
1069.15	14.4801
1070.79	13.915
1072.43	14.1035
1074.08	13.9277
1075.72	14.9949
1077.36	15.4436
1079	16.8827
1080.64	16.5903
1082.28	16.8412
1083.92	17.8547
1085.56	18.5854
1087.2	18.7401
1088.84	19.6773
1090.48	20.2943
1092.12	20.207
1093.76	21.2454
1095.39	22.4357
1097.03	23.1745
1098.67	23.2958
1100.31	23.0757
1101.94	22.7188
1103.58	22.3941
1105.22	21.6395
1106.85	22.1188
1108.49	21.7405
1110.12	22.2128
1111.76	22.2458
1113.39	20.7775
1115.03	18.8529
1116.66	17.2836
1118.29	17.0765
1119.93	17.5253
1121.56	16.7577
1123.19	16.5878
1124.82	16.7357
1126.46	15.2586
1128.09	14.3145
1129.72	12.8449
1131.35	11.9954
1132.98	11.2265
1134.61	10.4988
1136.24	10.1198
1137.87	9.47295
1139.5	8.9818
1141.13	8.40962
1142.76	8.60498
1144.39	7.89429
1146.01	6.672
1147.64	5.79365
1149.27	5.66918
1150.9	5.97777
1152.53	5.60871
1154.15	5.06599
1155.78	4.63077
1157.4	4.85122
1159.03	4.46062
1160.65	4.29542
1162.28	2.89526
1163.9	3.71363
1165.53	3.65279
1167.15	3.31237
1168.78	3.79883
1170.4	4.49845
1172.02	5.99823
1173.65	6.68935
1175.27	7.93484
1176.89	7.89394
1178.51	8.11264
1180.14	8.188
1181.76	8.98291
1183.38	8.84681
1185	10.5656
1186.62	12.2828
1188.24	13.8044
1189.86	14.322
1191.48	15.4097
1193.1	16.1233
1194.71	16.2984
1196.33	16.7892
1197.95	18.4616
1199.57	19.9837
1201.19	21.7529
1202.8	21.4192
1204.42	23.0101
1206.04	23.5284
1207.65	23.8225
1209.27	25.3738
1210.88	27.3936
1212.5	29.247
1214.12	30.884
1215.73	32.7914
1217.35	33.7229
1218.96	35.2296
1220.57	36.6489
1222.19	38.5749
1223.8	40.6484
1225.41	41.2165
1227.03	42.1725
1228.64	43.2839
1230.25	44.156
1231.86	44.2043
1233.47	43.6236
1235.08	43.7887
1236.69	44.4982
1238.31	44.9332
1239.92	45.3421
1241.52	45.9577
1243.13	45.3939
1244.74	45.5345
1246.35	45.4314
1247.96	46.0368
1249.57	45.7789
1251.18	44.7973
1252.78	45.6545
1254.39	44.6746
1256	44.5986
1257.6	44.0574
1259.21	43.8839
1260.82	43.2363
1262.42	43.018
1264.03	41.9548
1265.63	42.5475
1267.24	42.3211
1268.84	41.0859
1270.45	40.9786
1272.05	40.6061
1273.65	40.3013
1275.26	39.8579
1276.86	39.8546
1278.46	41.322
1280.06	40.8708
1281.67	41.3292
1283.27	41.5201
1284.87	42.6943
1286.47	44.1367
1288.07	44.1159
1289.67	44.8095
1291.27	46.5308
1292.87	46.3199
1294.47	47.8722
1296.07	48.6925
1297.67	50.222
1299.27	52.0497
1300.87	53.4709
1302.47	54.1859
1304.06	55.6592
1305.66	57.2028
1307.26	59.458
1308.85	60.7513
1310.45	62.1592
1312.05	63.4833
1313.64	66.2307
1315.24	68.7481
1316.83	69.5196
1318.43	69.5553
1320.02	70.7612
1321.62	71.4813
1323.21	71.3702
1324.8	71.9989
1326.4	72.1176
1327.99	71.1445
1329.59	69.8739
1331.18	69.7507
1332.77	69.8768
1334.36	68.8592
1335.95	68.0391
1337.54	66.4511
1339.14	64.9536
1340.73	63.0831
1342.32	61.8586
1343.91	60.8846
1345.5	60.2078
1347.09	58.8452
1348.67	57.7338
1350.26	57.4997
1351.85	55.9952
1353.44	55.2298
1355.03	54.6996
1356.62	53.0791
1358.2	52.2656
1359.79	50.1652
1361.38	50.1098
1362.96	48.614
1364.55	47.7806
1366.14	46.8686
1367.72	45.2535
1369.31	44.2668
1370.89	44.0004
1372.48	43.3644
1374.06	42.8897
1375.64	42.7964
1377.23	43.2125
1378.81	42.3929
1380.39	42.1218
1381.98	42.1189
1383.56	42.8432
1385.14	42.8431
1386.72	42.4423
1388.3	42.0285
1389.89	42.5561
1391.47	42.3886
1393.05	41.9647
1394.63	40.8494
1396.21	39.4241
1397.79	38.6403
1399.37	39.0208
1400.95	38.5049
1402.52	37.4168
1404.1	37.1433
1405.68	36.5251
1407.26	36.5601
1408.84	37.0098
1410.42	37.8464
1411.99	38.7072
1413.57	39.3061
1415.15	40.5961
1416.72	42.5207
1418.3	44.7621
1419.87	46.4746
1421.45	49.084
1423.02	52.3065
1424.6	55.0191
1426.17	57.0289
1427.75	59.0669
1429.32	61.26
1430.89	62.5902
1432.47	65.3595
1434.04	67.3637
1435.61	69.8295
1437.18	73.213
1438.76	75.5102
1440.33	77.8243
1441.9	79.4744
1443.47	80.8216
1445.04	81.8592
1446.61	82.6237
1448.18	82.6013
1449.75	82.9626
1451.32	82.8831
1452.89	82.867
1454.46	83.2312
1456.03	82.7712
1457.6	81.2895
1459.16	79.8236
1460.73	77.6271
1462.3	76.1339
1463.87	74.3326
1465.43	72.5825
1467	70.6183
1468.56	67.9248
1470.13	63.4863
1471.7	59.9246
1473.26	56.986
1474.83	53.617
1476.39	51.1463
1477.96	48.4973
1479.52	45.7515
1481.08	42.6968
1482.65	40.3162
1484.21	37.7719
1485.77	35.5836
1487.34	33.3368
1488.9	30.8344
1490.46	28.3709
1492.02	27.0035
1493.58	26.4213
1495.15	24.3793
1496.71	22.7304
1498.27	21.1867
1499.83	20.4183
1501.39	19.5045
1502.95	18.2603
1504.51	17.7441
1506.07	17.8253
1507.63	18.2731
1509.18	18.2401
1510.74	19.1918
1512.3	19.4739
1513.86	20.3658
1515.41	20.1378
1516.97	20.4458
1518.53	21.0524
1520.08	21.6831
1521.64	22.1574
1523.2	23.2034
1524.75	23.6269
1526.31	23.986
1527.86	24.9329
1529.42	26.416
1530.97	27.4984
1532.52	27.4931
1534.08	28.3831
1535.63	29.1774
1537.19	30.7222
1538.74	32.4815
1540.29	35.2149
1541.84	35.5493
1543.4	36.5609
1544.95	36.7355
1546.5	36.6229
1548.05	37.5139
1549.6	39.0866
1551.15	40.1909
1552.7	41.3608
1554.25	42.1389
1555.8	42.6071
1557.35	43.1649
1558.9	43.7323
1560.45	45.1616
1562	46.1882
1563.54	46.5941
1565.09	47.1777
1566.64	47.2447
1568.19	48.1593
1569.73	49.7941
1571.28	50.8107
1572.83	51.4017
1574.37	52.6026
1575.92	53.6195
1577.47	55.1596
1579.01	55.0007
1580.56	56.2015
1582.1	57.4717
1583.64	57.4873
1585.19	58.0749
1586.73	58.3699
1588.28	58.4663
1589.82	59.5557
1591.36	60.2881
1592.9	60.3907
1594.45	61.0124
1595.99	60.9237
1597.53	60.9161
1599.07	60.8416
1600.61	60.2997
1602.15	59.0286
1603.69	59.0746
1605.23	59.1203
1606.77	58.6762
1608.31	58.0664
1609.85	56.9654
1611.39	56.8402
1612.93	56.157
1614.47	55.9575
1616.01	55.6154
1617.55	55.9134
1619.08	55.5527
1620.62	55.8763
1622.16	55.8187
1623.7	56.3107
1625.23	56.3814
1626.77	57.4688
1628.3	58.2351
1629.84	58.3509
1631.37	58.39
1632.91	59.4713
1634.44	59.891
1635.98	61.23
1637.51	62.0904
1639.05	63.5665
1640.58	64.4497
1642.11	65.8744
1643.65	66.9216
1645.18	69.2023
1646.71	70.8268
1648.24	71.7413
1649.78	72.9238
1651.31	73.4173
1652.84	73.8019
1654.37	75.2308
1655.9	74.9578
1657.43	76.2056
1658.96	76.5628
1660.49	76.1251
1662.02	76.3369
1663.55	75.7247
1665.08	75.1844
1666.61	75.6997
1668.14	74.9643
1669.66	73.5802
1671.19	72.8141
1672.72	71.928
1674.25	71.0538
1675.77	68.7768
1677.3	66.9771
1678.83	65.0607
1680.35	63.2121
1681.88	60.2867
1683.4	57.8406
1684.93	56.1518
1686.45	53.7579
1687.98	51.422
1689.5	49.7003
1691.03	47.8615
1692.55	46.1162
1694.07	43.9958
1695.6	41.1973
1697.12	38.7424
1698.64	36.6403
1700.17	34.2955
1701.69	31.4021
1703.21	29.498
1704.73	26.9682
1706.25	24.6219
1707.77	23.7534
1709.29	22.2261
1710.81	20.4238
1712.33	19.2706
1713.85	18.1187
1715.37	17.9347
1716.89	15.963
1718.41	14.4772
1719.93	13.4101
1721.45	12.7376
1722.97	11.1763
1724.49	10.7417
1726	10.9467
1727.52	10.1088
1729.04	10.6633
1730.55	11.0451
1732.07	10.0109
1733.59	9.80597
1735.1	10.178
1736.62	10.3968
1738.13	10.4434
1739.65	10.2825
1741.16	10.3801
1742.68	11.1803
1744.19	10.8975
1745.7	10.2488
1747.22	10.1716
1748.73	10.5148
1750.24	10.3347
1751.76	10.0474
1753.27	10.0414
1754.78	10.214
1756.29	9.52811
1757.8	10.178
1759.31	10.9557
1760.83	11.0836
1762.34	10.4724
1763.85	10.2139
1765.36	10.4076
1766.87	10.0552
1768.38	9.8736
1769.89	9.574
1771.39	9.30965
1772.9	9.09268
1774.41	8.62115
1775.92	8.2245
1777.43	8.26658
1778.94	9.12548
1780.44	9.74935
1781.95	9.44584
1783.46	9.73581
1784.96	9.04066
1786.47	9.18588
1787.97	8.98824
1789.48	8.89931
1790.99	8.96157
1792.49	8.465
1794	8.17009
1795.5	8.79285
1797	8.98831
1798.51	8.69241
1800.01	8.93674
1801.51	8.79017
1803.02	8.16731
1804.52	7.88672
1806.02	7.49651
1807.53	6.70643
1809.03	6.30947
1810.53	6.07142
1812.03	5.49923
1813.53	5.02775
1815.03	4.24278
1816.53	3.82264
1818.03	3.73219
1819.53	3.31977
1821.03	3.1581
1822.53	3.37391
1824.03	3.69334
1825.53	2.9326
1827.03	2.5664
1828.53	2.09987
1830.02	2.78824
1831.52	2.8168
1833.02	2.76573
1834.52	2.43627
1836.01	1.91299
1837.51	1.44413
1839.01	1.14518
1840.5	1.13466
1842	1.24715
1843.49	1.46534
1844.99	1.31556
1846.48	1.37012
1847.98	2.10245
1849.47	3.11827
1850.97	3.99156
1852.46	4.47681
1853.95	4.57646
1855.45	4.37257
1856.94	4.89124
1858.43	5.27764
1859.93	5.63003
1861.42	5.57107
1862.91	5.37539
1864.4	5.28081
1865.89	5.29919
1867.38	5.23013
1868.87	5.41166
1870.36	4.97855
1871.85	5.31631
1873.34	4.93218
1874.83	4.51795
1876.32	4.66982
1877.81	4.58081
1879.3	4.77035
1880.79	5.12155
1882.28	4.62751
1882.52	4.86254
1884.02	5.35365
1885.51	5.36001
1887.01	5.54475
1888.5	4.8042
1889.99	5.88238
1891.49	6.37239
1892.98	5.96234
1894.47	5.84226
1895.97	5.82871
1897.46	5.06195
1898.95	4.71622
1900.44	5.02393
1901.93	4.34077
1903.42	4.40271
1904.91	4.41368
1906.4	3.80709
1907.89	4.21859
1909.38	4.16611
1910.87	4.88991
1912.36	5.05959
1913.85	5.2732
1915.34	5.78216
1916.83	6.05719
1918.32	5.98978
1919.8	6.41629
1921.29	6.89587
1922.78	6.3556
1924.27	6.06926
1925.75	5.32509
1927.24	5.16746
1928.73	4.96471
1930.21	4.73319
1931.7	4.33353
1933.18	4.02949
1934.67	3.00166
1936.15	2.61729
1937.64	2.90696
1939.12	3.10744
1940.61	3.81888
1942.09	3.7475
1943.57	3.37578
1945.06	4.1467
1946.54	3.48991
1948.02	3.26775
1949.51	4.05111
1950.99	3.80036
1952.47	4.06358
1953.95	3.89699
1955.43	3.51798
1956.91	4.47276
1958.4	4.29312
1959.88	3.74099
1961.36	3.85304
1962.84	3.91954
1964.32	4.21492
1965.8	3.28282
1967.27	3.23193
1968.75	3.23348
1970.23	3.12856
1971.71	3.02495
1973.19	3.35999
1974.67	3.46811
1976.14	3.2914
1977.62	3.66028
1979.1	3.55707
1980.58	3.53954
1982.05	4.17863
1983.53	4.40244
1985	4.67769
1986.48	4.18956
1987.95	4.80146
1989.43	5.52783
1990.9	5.56887
1992.38	5.70602
1993.85	5.98916
1995.33	5.61271
1996.8	5.38569
1998.27	5.15871
1999.75	4.90692
2001.22	4.93227
2002.69	4.83643
2004.16	5.15049
2005.64	5.20532
2007.11	4.9454
2008.58	5.17707
2010.05	5.23242
2011.52	5.48122
2012.99	5.46945
2014.46	5.9001
2015.93	5.39622
2017.4	5.51839
2018.87	6.20239
2020.34	5.87966
2021.81	6.1994
2023.28	6.07032
2024.75	6.12653
2026.22	6.72466
2027.69	6.2527
2029.15	6.3274
2030.62	6.6132
2032.09	5.51433
2033.56	5.6215
2035.02	6.00579
2036.49	6.01174
2037.96	5.22701
2039.42	5.21268
2040.89	5.92711
2042.35	5.38937
2043.82	5.10324
2045.28	4.99203
2046.75	4.79342
2048.21	4.15061
2049.67	3.61714
2051.14	3.1173
2052.6	3.01819
2054.07	3.60514
2055.53	3.40801
2056.99	2.88834
2058.45	3.40789
2059.92	3.57068
2061.38	3.58928
2062.84	3.75678
2064.3	3.30917
2065.76	3.16024
2067.22	2.56874
2068.68	2.52317
2070.14	2.16964
2071.6	1.86448
2073.06	1.72741
2074.52	1.55456
2075.98	1.48348
2077.44	1.43802
2078.9	1.46577
2080.36	1.98589
2081.82	1.99924
2083.27	1.74363
2084.73	1.85709
2086.19	2.52618
2087.65	2.96368
2089.1	3.31903
2090.56	3.56371
2092.02	3.88897
2093.47	3.72247
2094.93	4.1069
2096.38	3.83075
2097.84	4.77851
2099.29	4.36675
2100.75	3.9176
2102.2	3.80925
2103.66	3.67405
2105.11	3.39042
2106.56	3.64799
2108.02	3.56115
2109.47	3.30976
2110.92	3.33857
2112.38	3.76875
2113.83	3.47672
2115.28	2.97075
2116.73	2.76221
2118.18	3.12883
2119.63	2.9392
2121.09	2.38247
2122.54	2.94621
2123.99	2.88618
2125.44	3.42714
2126.89	4.07551
2128.34	4.2411
2129.79	4.43008
2131.23	5.1071
2132.68	4.39677
2134.13	4.45186
2135.58	5.01364
2137.03	4.84453
2138.48	4.84702
2139.92	5.21016
2141.37	4.74065
2142.82	4.38837
2144.27	4.29775
2145.71	4.5173
2147.16	4.7251
2148.6	4.78177
2150.05	5.37471
2151.49	5.61737
2152.94	5.18115
2154.38	5.39263
2155.83	5.14069
2157.27	5.18955
2158.72	5.25697
2160.16	4.75467
2161.6	4.71161
2163.05	4.57683
2164.49	4.34661
2165.93	4.25453
2167.38	3.92565
2168.82	3.24577
2170.26	3.37737
2171.7	2.75501
2173.14	3.05028
2174.58	3.00862
2176.03	3.43941
2177.47	4.08359
2178.91	4.08307
2180.35	3.84198
2181.79	4.02839
2183.23	4.488
2184.67	4.16331
2186.1	4.28379
2187.54	4.7037
2188.98	4.65425
2190.42	5.29903
2191.86	5.02892
2193.3	5.81188
2194.73	6.68941
2196.17	6.66782
2197.61	7.066
2199.05	6.91542
2200.48	6.17741
2201.92	5.95514
2203.35	6.53961
2204.79	6.72373
2206.22	7.53007
2207.66	7.82015
2209.1	7.40765
2210.53	7.22677
2211.97	6.69438
2213.4	5.57796
2214.83	5.51052
2216.27	5.07489
2217.7	5.05762
2219.13	4.26206
2220.57	4.35904
2222	4.24102
2223.43	4.02639
2224.86	3.66672
2226.29	4.1645
2227.72	3.4153
2229.16	3.32167
2230.59	3.04636
2232.02	3.39911
2233.45	3.8425
2234.88	3.80004
2236.31	3.90471
2237.74	4.37643
2239.17	4.12046
2240.6	3.81623
2242.03	4.08027
2243.45	4.21532
2244.88	4.14335
2246.31	4.24946
2247.74	4.39816
2249.17	4.26329
2250.59	3.66629
2252.02	3.645
2253.45	4.4781
2254.87	4.48673
2256.3	4.37226
2257.73	4.71973
2259.15	4.64909
2260.58	4.50268
2262	5.35237
2263.43	5.15616
2264.85	5.74123
2266.28	5.92176
2267.7	6.17003
2269.13	5.83564
2270.55	5.89169
2271.97	6.08519
2273.4	6.90548
2274.82	7.84931
2276.24	7.91955
2277.67	7.66216
2279.09	6.87054
2280.51	6.12938
2281.93	6.23926
2283.35	6.28031
2284.77	6.23919
2286.2	6.65636
2287.62	7.07379
2289.04	6.4727
2290.46	6.40168
2291.88	6.29002
2293.3	6.02186
2294.72	6.57157
2296.13	6.9234
2297.55	7.49947
2298.97	7.84568
2300.39	9.34088
2301.81	9.68383
2303.23	10.2726
2304.64	9.99988
2306.06	10.0734
2307.48	9.95909
2308.89	9.47709
2310.31	9.45169
2311.73	10.0478
2313.14	9.87762
2314.56	9.90115
2315.98	9.56529
2317.39	9.45595
2318.81	9.36844
2320.22	9.44378
2321.64	9.61027
2323.05	9.18555
2324.46	9.09152
2325.88	8.25815
2327.29	7.64002
2328.7	7.42088
2330.12	6.88833
2331.53	6.64412
2332.94	6.98196
2334.35	6.18472
2335.77	6.02367
2337.18	5.39539
2338.59	4.64452
2340	4.20602
2341.41	4.10034
2342.82	3.88832
2344.23	3.435
2345.64	3.22346
2347.05	2.78142
2348.46	2.12313
2349.87	2.25847
2351.28	2.11958
2352.69	1.56013
2354.1	0.951981
2355.51	0.128911
2356.91	-0.0142383
2358.32	-0.134064
2359.73	-1.04388
2361.14	-0.129074
2362.54	-0.13349
2363.95	0.661938
2365.36	1.31838
2366.76	1.22444
2368.17	1.60382
2369.58	1.75959
2370.98	2.14413
2372.39	1.5156
2373.79	1.86709
2375.2	1.77927
2376.6	2.21276
2378	1.94345
2379.41	2.12164
2380.81	2.42362
2382.22	2.52032
2383.62	2.08081
2385.02	2.37572
2386.43	2.56926
2387.83	3.32914
2389.23	4.2252
2390.63	4.20548
2392.03	4.28758
2393.44	3.6685
2394.84	4.22056
2396.24	3.81982
2397.64	4.15904
2399.04	4.43248
2400.44	4.44972
2401.84	4.62751
2403.24	4.91222
2404.64	4.54871
2406.04	4.62171
2407.44	4.60903
2408.84	5.56613
2410.23	6.18099
2411.63	6.14653
2413.03	7.46511
2414.43	7.58689
2415.83	8.14307
2417.22	8.56226
2418.62	8.59132
2420.02	9.19239
2421.41	8.61971
2422.81	8.44601
2424.21	9.06964
2425.6	9.26206
2427	10.1273
2428.39	10.5762
2429.79	10.0208
2431.18	10.6804
2432.58	9.71717
2433.97	10.0334
2435.36	9.21045
2436.76	9.50063
2438.15	10.1123
2439.54	9.54097
2440.94	9.97509
2442.33	9.18898
2443.72	8.62315
2445.12	8.49269
2446.51	8.07393
2447.9	7.34154
2449.29	7.52973
2450.68	7.45901
2452.07	7.2289
2453.46	7.02303
2454.85	6.98289
2456.24	7.00715
2457.64	6.88162
2459.02	6.3315
2460.41	5.84571
2461.8	5.50617
2463.19	5.04878
2464.58	4.98354
2465.97	4.25939
2467.36	4.15995
2468.75	3.71457
2470.13	3.46495
2471.52	2.57166
2472.91	2.85954
2474.3	3.03375
2475.68	3.43229
2477.07	3.77338
2478.45	4.02617
2479.84	4.32338
2481.23	4.55992
2482.61	4.60785
2484	3.93715
2485.38	4.30196
2486.77	3.93483
2488.15	3.91562
2489.54	4.19445
2490.92	4.49566
2492.3	4.51873
2493.69	4.78507
2495.07	4.64347
2496.45	4.54144
2497.84	4.32366
2499.22	3.84682
2500.6	4.05586
2501.98	3.34098
2503.36	3.93281
2504.75	3.52551
2506.13	4.33875
2507.51	4.2153
2508.89	4.30596
2510.27	4.30752
2511.65	3.67269
2513.03	4.04088
2514.41	3.82966
2515.79	3.77237
2517.17	3.46046
2518.55	4.30173
2519.93	3.99772
2521.3	4.23892
2522.68	4.46938
2524.06	4.54055
2525.44	4.96679
2526.82	4.83257
2528.19	5.11715
2529.57	4.63998
2530.95	4.22861
2532.32	3.67415
2533.7	3.09553
2535.08	2.81825
2536.45	3.01073
2537.83	2.8424
2539.2	2.43545
2540.58	2.50187
2541.95	4.03576
2543.33	4.10668
2544.7	3.26815
2546.08	3.22834
2547.45	3.1506
2548.82	3.60012
2550.2	2.65492
2551.57	2.0698
2552.94	2.00296
2554.32	1.84322
2555.69	1.6483
2557.06	2.19815
2558.43	1.75731
2559.8	1.30033
2561.18	0.512607
2562.55	-0.173279
2563.92	-0.268815
2565.29	-0.547588
2566.66	-0.214215
2568.03	-0.378343
2569.4	-0.0805836
2570.77	0.573893
2572.14	0.847111
2573.51	1.11471
2574.88	1.52995
2576.25	2.1857
2577.61	2.17781
2578.98	2.54934
2580.35	2.51752
2581.72	2.58494
2583.09	2.63707
2584.45	3.03902
2585.82	2.78758
2587.19	3.2246
2588.55	2.83742
2589.92	3.51009
2591.29	3.23822
2592.65	3.36309
2594.02	4.32506
2595.38	3.82994
2596.75	3.98709
2598.11	3.73217
2599.48	4.29914
2600.84	4.50895
2602.21	4.75561
2603.57	5.19175
2604.93	5.34585
2606.3	5.60891
2607.66	6.04821
2609.02	6.59774
2610.39	7.4703
2611.75	6.64807
2613.11	6.36997
2614.47	6.82403
2615.83	6.5324
2617.19	6.3067
2618.56	5.96824
2619.92	6.30247
2621.28	6.50148
2622.64	6.41115
2624	6.47213
2625.36	6.36073
2626.72	6.51862
2628.08	6.47121
2629.44	6.40069
2630.8	6.23528
2632.15	6.51101
2633.51	6.69559
2634.87	7.21168
2636.23	7.17021
2637.59	7.3098
2638.94	7.40152
2640.3	6.91794
2641.66	7.49904
2643.02	7.53359
2644.37	7.49968
2645.73	7.65525
2647.09	7.64531
2648.44	6.7609
2649.8	6.89435
2651.15	6.99161
2652.51	6.82292
2653.86	6.56595
2655.22	6.74446
2656.57	6.83674
2657.93	7.12528
2659.28	7.13001
2660.63	7.40169
2661.99	8.08507
2663.34	7.07538
2664.69	7.32845
2666.05	7.29917
2667.4	7.37144
2668.75	7.1697
2670.1	6.87774
2671.45	7.3563
2672.81	7.8834
2674.16	7.87728
2675.51	7.62158
2676.86	7.60593
2678.21	7.74107
2679.56	7.17805
2680.91	7.0973
2682.26	6.96399
2683.61	6.68732
2684.96	7.1613
2686.31	7.81296
2687.66	8.20622
2689	7.86107
2690.35	7.49685
2691.7	7.79921
2693.05	7.9081
2694.4	7.9008
2695.74	7.43062
2697.09	8.36229
2698.44	8.52055
2699.79	8.42613
2701.13	9.23049
2702.48	8.90144
2703.83	8.62978
2705.17	8.58494
2706.52	9.04314
2707.86	9.54769
2709.21	9.71183
2710.55	9.26168
2711.9	9.20345
2713.24	9.34687
2714.58	8.74729
2715.93	8.38374
2717.27	8.42941
2718.62	7.8536
2719.96	7.59783
2721.3	7.52335
2722.65	7.6947
2723.99	7.13586
2725.33	6.71761
2726.67	6.19484
2728.01	5.98815
2729.35	5.71625
2730.7	4.66614
2732.04	4.64901
2733.38	4.56242
2734.72	4.54891
2736.06	4.33614
2737.4	3.84646
2738.74	3.60439
2740.08	3.08128
2741.42	2.8971
2742.76	2.94852
2744.1	2.44006
2745.43	2.44791
2746.77	1.78405
2748.11	1.80168
2749.45	1.73266
2750.79	1.3677
2752.12	2.28423
2753.46	2.47056
2754.8	1.98217
2756.14	1.46945
2757.47	1.41009
2758.81	2.11517
2760.14	2.18
2761.48	1.86883
2762.81	2.29295
2764.15	2.91227
2765.49	2.77769
2766.82	2.78957
2768.16	2.92319
2769.49	2.62594
2770.82	2.40843
2772.16	2.45108
2773.49	2.54803
2774.82	2.00631
2776.16	1.15843
2777.49	1.10057
2778.82	1.15565
2780.16	1.18916
2781.49	1.59155
2782.82	1.79559
2784.15	2.15354
2785.48	1.67194
2786.82	2.09259
2788.15	1.79137
2789.48	1.6128
2790.81	1.53743
2792.14	1.798
2793.47	1.99134
2794.8	2.26167
2796.13	2.1065
2797.46	2.10294
2798.79	2.17801
2800.12	2.36586
2801.44	1.94341
2802.77	1.40645
2804.1	1.15952
2805.43	1.39801
2806.76	1.40547
2808.08	1.3119
2809.41	0.313011
2810.74	-0.0823837
2812.07	-0.375811
2813.39	-1.26646
2814.72	-1.11276
2816.05	-1.20544
2817.37	-0.81087
2818.7	0.412194
2820.02	0.163957
2821.35	0.845342
2822.67	2.20014
2824	3.71569
2825.32	5.41437
2826.65	6.60872
2827.97	8.25241
2829.3	10.0927
2830.62	12.7067
2831.94	13.9537
2833.26	15.4759
2834.59	17.446
2835.91	20.0693
2837.23	21.723
2838.56	23.8968
2839.88	26.613
2841.2	29.4633
2842.52	32.4482
2843.84	36.2451
2845.16	39.7289
2846.48	44.2222
2847.8	48.4977
2849.12	52.4005
2850.45	56.3343
2851.77	60.5667
2853.08	65.2358
2854.4	69.5302
2855.72	74.1202
2857.04	77.9152
2858.36	81.8846
2859.68	85.348
2861	88.8637
2862.32	92.8514
2863.63	96.6218
2864.95	99.8396
2866.27	103.407
2867.59	105.945
2868.9	108.759
2870.22	111.085
2871.54	112.983
2872.85	115.025
2874.17	116.757
2875.48	118.387
2876.8	120.014
2878.11	121.682
2879.43	123.404
2880.74	126.108
2882.06	128.304
2883.37	130.279
2884.69	131.954
2886	133.02
2887.31	134.962
2888.63	137.255
2889.94	138.905
2891.25	140.065
2892.57	142.052
2893.88	143.896
2895.19	145.68
2896.5	147.575
2897.82	149.157
2899.13	151.444
2900.44	153.934
2901.75	156.39
2903.06	158.002
2904.37	161.232
2905.68	165.067
2906.99	168.178
2908.3	172.568
2909.61	176.579
2910.92	180.819
2912.23	185.554
2913.54	189.27
2914.85	193.894
2916.16	198.056
2917.46	201.917
2918.77	205.311
2920.08	208.076
2921.39	211.352
2922.7	214.26
2924	216.655
2925.31	218.558
2926.62	220.713
2927.92	222.313
2929.23	222.791
2930.54	222.38
2931.84	221.401
2933.15	220.757
2934.45	219.626
2935.76	217.678
2937.06	215.815
2938.37	213.817
2939.67	211.169
2940.98	207.926
2942.28	205.141
2943.58	201.874
2944.89	198.057
2946.19	194.418
2947.49	190.36
2948.8	185.209
2950.1	181.235
2951.4	176.685
2952.7	172.716
2954.01	168.566
2955.31	163.507
2956.61	158.682
2957.91	154.354
2959.21	149.864
2960.51	145.716
2961.81	141.367
2963.11	137.492
2964.41	133.264
2965.71	129.318
2967.01	125.201
2968.31	121.85
2969.61	118.983
2970.91	115.668
2972.21	112.759
2973.51	110.026
2974.81	106.351
2976.1	103.912
2977.4	100.73
2978.7	97.5161
2980	94.7717
2981.29	90.3756
2982.59	86.7092
2983.89	83.5719
2985.18	80.3377
2986.48	77.4826
2987.78	73.7277
2989.07	69.4656
2990.37	65.7572
2991.66	62.3859
2992.96	58.318
2994.25	54.823
2995.55	51.2434
2996.84	47.7975
2998.14	44.8592
2999.43	41.0845
3000.73	37.6877
3002.02	34.8498
3003.31	32.2944
3004.61	29.075
3005.9	26.1067
3007.19	23.9109
3008.48	21.3282
3009.77	18.9355
3011.07	16.8383
3012.36	15.12
3013.65	12.5862
3014.94	11.0567
3016.23	9.29233
3017.52	7.74167
3018.81	5.94404
3020.1	4.79322
3021.4	3.66999
3022.68	2.87355
3023.97	2.26031
3025.26	1.53591
3026.55	0.721995
3027.84	0.273387
3029.13	0.194761
3030.42	-0.314973
3031.71	-0.196482
3033	-0.347498
3034.28	0.0725149
3035.57	0.634861
3036.86	0.827128
3038.15	0.767421
3039.43	1.28453
3040.72	1.71132
3042.01	2.56462
3043.29	3.17629
3044.58	3.78939
3045.87	3.83802
3047.15	4.9957
3048.44	6.05606
3049.72	6.29118
3051.01	6.98696
3052.29	7.57143
3053.58	7.38184
3054.86	8.32285
3056.15	9.09485
3057.43	9.29156
3058.71	9.79404
3060	10.0037
3061.28	10.2871
3062.56	10.0309
3063.84	10.3217
3065.13	10.0424
3066.41	9.91048
3067.69	10.1999
3068.97	9.51699
3070.26	9.52979
3071.54	9.28173
3072.82	9.05969
3074.1	8.76237
3075.38	7.99516
3076.66	7.20115
3077.94	6.31437
3079.22	5.66818
3080.5	4.99052
3081.78	4.02235
3083.06	3.39785
3084.34	3.04594
3085.62	2.61194
3086.9	2.16697
3088.18	1.7599
3089.45	1.17473
3090.73	1.153
3092.01	1.31415
3093.29	1.68605
3094.56	1.35124
3095.84	1.79124
3097.12	2.21073
3098.4	2.7707
3099.67	2.70141
3100.95	2.80827
3102.22	3.19467
3103.5	3.72707
3104.78	4.36454
3106.05	5.06234
3107.33	5.13748
3108.6	6.02922
3109.88	6.17398
3111.15	6.46838
3112.43	7.11907
3113.7	7.40693
3114.97	8.40338
3116.25	8.74233
3117.52	8.68759
3118.79	9.75877
3120.07	10.011
3121.34	10.6542
3122.61	11.2734
3123.88	12.0555
3125.16	12.5673
3126.43	12.6895
3127.7	13.611
3128.97	14.0947
3130.24	15.3924
3131.51	16.3828
3132.79	16.6204
3134.06	17.3771
3135.33	18.4213
3136.6	19.2536
3137.87	19.7649
3139.14	20.0852
3140.41	21.2325
3141.67	22.3789
3142.94	23.48
3144.21	24.8124
3145.48	26.0709
3146.75	27.6048
3148.02	29.5133
3149.29	31.6835
