#Acq. time (s)=	45
#Accumulations=	2
#Range (cm-¹)=	200...3150
#Windows=	2
#Auto scanning=	Off
#Autofocus=	Off
#Macrospot=	Off
#AutoExposure=	Off
#Spike filter=	Multiple accum.
#Delay time (s)=	0
#Binning=	1
#Readout mode=	Signal
#DeNoise=	Off
#ICS correction=	On
#Dark correction=	Off
#Inst. Process=	Off
#Detector Gain=	Best Dynamic Range
#Detector ADC=	20 kHz       
#Detector temperature (°C)=	-69.85
#Instrument=	LabRAM HR Evol
#Detector=	Synapse
#Objective=	x100
#Grating=	600 gr/mm
#ND Filter=	100%
#Laser (nm)=	532 
#Hole=	100.021
#Range=	Auto
#Laser Pol.=	No
#Raman. Pol.=	No
#Laser Pol. (°)=	-0.0007625
#Raman Pol. (°)=	89.9995
#Collection=	Microscope
#StageXY=	Marzhauser
#StageZ=	Marzhauser
#X (µm)=	2160.3
#Y (µm)=	1252.2
#Z (µm)=	443.4
#Full time(mm:ss)=	3:18
#Project=	
#Sample=	
#Site=	
#Title=	Thy_10_08_07_2x_45s_532 nm_x100_100%_600 gr_mm
#Remark=	
#Date=	05.07.2022 14:40
#Acquired=	05.07.2022 14:40:38
#Base:Fit=	10.08.2022 09:45:33
#Base:Fit=	10.08.2022 09:46:03
#Base:Fit=	10.08.2022 09:46:25
#Base:Sub=	10.08.2022 09:46:49
#Filter:Polynom=	16.08.2022 10:24:56
#AxisType[0]=Intens
#AxisUnit[0]=Cnt
#AxisType[1]=Spectr
#AxisUnit[1]=1/cm
200.43	14.169
202.244	12.6204
204.059	10.3884
205.873	8.91795
207.688	7.4724
209.501	6.57029
211.314	5.98047
213.127	5.4244
214.941	4.36434
216.753	3.99096
218.564	4.35689
220.375	3.93726
222.186	4.43627
223.999	3.84933
225.809	3.04343
227.618	3.12284
229.428	2.2192
231.236	2.64756
233.045	2.24368
234.855	1.81174
236.663	2.35266
238.471	2.23823
240.278	2.16804
242.085	1.82014
243.891	2.09541
245.698	1.82939
247.503	2.83028
249.309	3.53267
251.116	3.92597
252.921	4.20018
254.725	4.55152
256.529	4.8973
258.333	5.11859
260.136	5.68513
261.939	5.45004
263.742	5.67841
265.544	5.12115
267.346	5.02476
269.148	5.46165
270.949	5.67428
272.75	6.45858
274.55	6.75274
276.351	7.06085
278.15	6.23993
279.95	6.65986
281.749	6.16382
283.548	6.50909
285.346	6.38569
287.144	6.90239
288.942	7.09657
290.739	7.29694
292.536	7.8839
294.333	9.62267
296.129	10.0693
297.925	10.5771
299.721	10.7324
301.514	10.8368
303.309	10.9295
305.104	11.3206
306.898	12.4409
308.692	12.7451
310.486	12.4171
312.279	12.8281
314.072	12.6271
315.862	13.3205
317.654	13.5271
319.446	13.8588
321.238	14.4361
323.029	14.8044
324.819	15.285
326.608	16.1049
328.398	15.7586
330.188	15.7396
331.977	16.1166
333.766	15.9554
335.553	15.9922
337.341	17.0318
339.129	16.2749
340.917	16.0537
342.704	16.2302
344.489	16.7575
346.275	16.3406
348.062	15.9223
349.845	15.4438
351.631	15.4618
353.416	15.1466
355.201	14.5885
356.984	14.7333
358.768	14.876
360.552	14.6865
362.333	14.6157
364.116	14.2873
365.899	14.2262
367.68	14.4353
369.462	14.2212
371.243	13.9884
373.023	13.8471
374.804	13.7403
376.585	13.9636
378.363	13.8806
380.143	13.6614
381.923	14.3264
383.7	14.8807
385.479	14.021
387.256	14.1536
389.034	13.8689
390.812	13.3672
392.588	13.9309
394.365	13.8291
396.14	13.5114
397.916	13.33
399.691	13.434
401.467	12.4024
403.24	12.2337
405.015	11.498
406.788	10.733
408.563	10.9265
410.335	10.5927
412.109	10.9107
413.88	10.0867
415.654	9.82131
417.424	8.64284
419.197	8.12034
420.967	7.94553
422.739	7.76881
424.508	8.21809
426.279	7.87369
428.048	6.87359
429.819	7.06079
431.587	6.70045
433.356	6.3141
435.124	5.56534
436.891	5.79068
438.66	6.00098
440.426	7.13182
442.194	6.33581
443.96	6.81708
445.725	6.76834
447.492	6.36866
449.257	6.98485
451.021	7.04023
452.787	7.46653
454.551	7.91701
456.314	7.81598
458.079	8.70116
459.842	9.02703
461.604	9.23695
463.368	9.85237
465.13	10.5101
466.891	11.4768
468.654	11.6648
470.415	12.2642
472.175	12.8423
473.935	12.8657
475.696	12.9479
477.456	12.9868
479.215	14.0475
480.973	14.8968
482.733	14.9771
484.491	15.0863
486.249	15.597
488.006	16.3959
489.765	15.8703
491.522	16.9011
493.278	17.5736
495.034	18.45
496.789	18.8629
498.544	19.5519
500.301	19.6968
502.056	19.1447
503.81	19.3536
505.564	19.3219
507.317	19.3889
509.071	19.6289
510.825	19.9904
512.578	20.0338
514.33	19.8792
516.082	19.2254
517.833	19.1088
519.585	18.6097
521.335	18.8051
523.086	18.5107
524.836	18.2662
526.586	18.0195
528.335	17.2919
530.085	15.8172
531.835	15.5322
533.584	15.388
535.332	15.5594
537.08	15.9045
538.827	15.1527
540.574	15.3686
542.321	15.0362
544.068	14.9562
545.814	14.973
547.56	13.9975
549.305	14.378
551.05	14.1652
552.795	14.3468
554.54	13.9844
556.282	13.816
558.025	13.8835
559.769	14.0079
561.512	13.6186
563.255	13.7371
564.997	14.2967
566.739	14.3744
568.481	13.9092
570.223	13.4504
571.964	12.7739
573.705	12.7037
575.443	12.2884
577.183	10.9932
578.923	10.4935
580.663	10.4566
582.402	9.53885
584.141	8.68838
585.879	8.37577
587.615	7.38142
589.353	7.07868
591.09	7.42829
592.828	7.39441
594.564	6.80059
596.299	6.84317
598.035	6.83836
599.771	6.67301
601.506	5.83066
603.242	4.94646
604.974	5.41524
606.709	5.45093
608.443	5.56995
610.177	5.51453
611.908	5.35737
613.642	5.51717
615.374	5.29617
617.105	5.73853
618.837	5.74707
620.569	6.5852
622.3	6.63326
624.03	6.40516
625.761	7.07967
627.491	7.78239
629.219	9.0615
630.949	10.8199
632.677	12.2172
634.406	12.6846
636.135	12.9438
637.861	12.9313
639.59	14.015
641.318	14.718
643.043	15.8446
644.77	16.3035
646.495	16.6484
648.222	17.3776
649.948	18.8343
651.672	19.6187
653.398	19.6437
655.121	20.0179
656.846	19.7499
658.569	20.7695
660.293	21.3733
662.015	21.8037
663.738	22.0833
665.46	22.9424
667.183	24.5108
668.903	24.9273
670.626	25.5914
672.346	26.9566
674.067	27.1405
675.787	28.0742
677.508	28.8334
679.226	28.6631
680.947	28.509
682.665	29.1891
684.385	29.7411
686.102	29.6931
687.821	30.3048
689.538	30.4305
691.254	31.3006
692.972	31.7718
694.688	32.7185
696.406	33.1003
698.121	33.1239
699.835	33.8088
701.552	34.2057
703.266	34.3195
704.98	35.3302
706.695	36.2992
708.409	36.7649
710.121	37.5759
711.836	38.8335
713.548	39.7504
715.26	40.5941
716.973	40.7908
718.685	41.5305
720.396	42.2687
722.108	43.6054
723.818	44.9048
725.528	46.3871
727.238	46.2393
728.949	47.1428
730.658	48.1685
732.367	48.7386
734.075	49.698
735.785	50.5784
737.493	51.4846
739.2	51.8039
740.907	52.7667
742.614	53.5973
744.322	54.5257
746.028	55.5496
747.734	56.1447
749.439	57.9802
751.144	59.2602
752.849	60.6557
754.555	60.9831
756.26	61.9056
757.963	63.0301
759.667	63.0017
761.37	64.7404
763.073	64.8189
764.775	64.9526
766.477	65.6984
768.179	66.8439
769.883	66.7745
771.584	68.474
773.285	69.337
774.986	69.9095
776.686	71.4443
778.386	72.2967
780.085	73.4653
781.785	73.9807
783.484	75.3719
785.182	76.1015
786.881	77.1476
788.579	77.8511
790.276	78.7393
791.974	78.5794
793.671	78.8879
795.367	79.8707
797.064	80.109
798.76	81.2737
800.456	82.2614
802.151	83.7379
803.846	84.5512
805.541	84.4313
807.234	84.4952
808.928	84.0581
810.622	84.0328
812.315	83.817
814.008	84.1194
815.701	84.298
817.394	84.0484
819.086	84.391
820.778	84.4097
822.468	84.2426
824.159	83.8536
825.85	83.4362
827.541	82.6223
829.231	82.0874
830.921	81.8372
832.609	81.5538
834.298	82.0074
835.987	80.958
837.676	80.1539
839.364	78.4334
841.051	77.4015
842.738	76.2537
844.426	74.5225
846.113	73.5999
847.798	71.4375
849.484	70.0215
851.171	68.8376
852.857	67.7003
854.54	65.7857
856.226	65.6907
857.911	63.5024
859.593	63.2097
861.278	62.2916
862.961	61.2467
864.645	60.4622
866.327	59.8904
868.01	59.0677
869.692	57.7575
871.373	57.1035
873.055	56.091
874.735	55.331
876.416	54.9399
878.097	55.309
879.776	55.4621
881.457	54.366
883.135	54.97
884.815	54.28
886.495	54.1701
888.172	54.0263
889.851	53.9067
891.528	53.6361
893.206	53.0094
894.882	53.0953
896.56	52.7294
898.237	52.7171
899.912	52.6023
901.589	52.3819
903.263	52.0971
904.94	52.1879
906.614	51.8389
908.289	51.7417
909.962	51.3372
911.635	51.3218
913.31	52.0613
914.982	51.5091
916.656	51.9625
918.328	51.9496
920.001	50.9948
921.672	50.1728
923.345	49.5365
925.015	49.6883
926.685	49.4298
928.357	48.5573
930.026	48.1953
931.698	47.4074
933.366	46.8623
935.035	46.3966
936.705	45.6566
938.373	44.9331
940.041	44.7743
941.71	44.5494
943.377	44.2959
945.044	43.8822
946.712	44.1297
948.378	44.071
950.044	44.6085
951.709	43.27
953.376	43.2385
955.041	43.5816
956.706	42.8247
958.372	41.7389
960.036	40.9958
961.699	40.423
963.362	39.542
965.027	38.9932
966.69	39.3169
968.352	39.498
970.014	40.0363
971.676	39.7787
973.339	39.9606
975	39.863
976.661	39.2004
978.322	39.4002
979.982	39.4895
981.642	38.993
983.303	38.1253
984.962	37.8449
986.621	36.6049
988.28	36.6034
989.938	35.665
991.596	35.1516
993.254	34.4414
994.911	33.7462
996.57	33.2705
998.227	32.0142
999.884	31.643
1001.54	31.0708
1003.2	29.4981
1004.85	28.4535
1006.51	28.4692
1008.16	28.2189
1009.82	27.5753
1011.47	27.307
1013.12	26.9229
1014.78	26.5891
1016.43	25.8634
1018.08	25.2729
1019.74	24.8405
1021.39	24.1963
1023.04	23.7629
1024.69	23.8376
1026.34	23.1492
1028	22.9006
1029.65	22.6858
1031.3	21.7783
1032.95	20.9425
1034.6	20.2189
1036.25	20.4759
1037.9	19.6348
1039.54	18.4374
1041.19	18.0908
1042.84	18.1438
1044.49	19.1059
1046.14	19.1604
1047.78	19.4307
1049.43	20.0217
1051.08	19.8863
1052.72	18.9447
1054.37	18.7071
1056.02	18.71
1057.66	16.7937
1059.31	15.1481
1060.95	15.1952
1062.6	14.4059
1064.24	12.8872
1065.88	12.7598
1067.53	11.8509
1069.17	11.3719
1070.81	11.5965
1072.45	11.0715
1074.1	10.7443
1075.74	10.0186
1077.38	10.0704
1079.02	9.64457
1080.66	8.9013
1082.3	9.29942
1083.94	9.21831
1085.58	9.04347
1087.22	10.226
1088.86	10.5682
1090.5	11.1402
1092.14	11.9806
1093.78	12.4887
1095.42	12.1063
1097.05	12.8216
1098.69	12.5133
1100.33	12.6341
1101.96	12.7261
1103.6	13.5903
1105.24	13.8665
1106.87	14.2295
1108.51	14.1779
1110.14	14.4014
1111.78	14.4307
1113.41	14.6451
1115.05	14.0178
1116.68	14.2276
1118.31	13.4099
1119.95	13.17
1121.58	13.3608
1123.21	12.9564
1124.85	12.1991
1126.48	11.7635
1128.11	10.7663
1129.74	10.2835
1131.37	9.71076
1133	8.72131
1134.63	8.67213
1136.26	8.63962
1137.89	7.08386
1139.52	5.80983
1141.15	6.05075
1142.78	6.38021
1144.41	6.20224
1146.04	5.24023
1147.66	4.9349
1149.29	3.42966
1150.92	3.0043
1152.55	2.1715
1154.17	1.45873
1155.8	1.13755
1157.43	1.22032
1159.05	1.59775
1160.68	0.997497
1162.3	1.08052
1163.93	1.44926
1165.55	0.9186
1167.17	1.07082
1168.8	1.18995
1170.42	0.856936
1172.05	2.20358
1173.67	2.33914
1175.29	1.85648
1176.91	1.64817
1178.54	2.24871
1180.16	2.54356
1181.78	3.12422
1183.4	3.96502
1185.02	4.71302
1186.64	3.73872
1188.26	4.08991
1189.88	4.11286
1191.5	4.32033
1193.12	4.90195
1194.74	5.79442
1196.36	5.30074
1197.97	5.32041
1199.59	5.2783
1201.21	5.78682
1202.83	5.87269
1204.44	5.66417
1206.06	6.9784
1207.68	8.03432
1209.29	9.10431
1210.91	10.44
1212.52	11.8466
1214.14	13.0177
1215.75	14.5835
1217.37	15.4689
1218.98	15.3705
1220.59	16.8922
1222.21	17.8323
1223.82	18.5525
1225.43	19.172
1227.05	19.6013
1228.66	20.592
1230.27	21.2815
1231.88	22.487
1233.49	23.3341
1235.1	23.8434
1236.72	24.9291
1238.33	26.4631
1239.94	26.5043
1241.55	26.2052
1243.16	27.0697
1244.76	27.3477
1246.37	28.0758
1247.98	28.988
1249.59	29.0468
1251.2	29.6112
1252.8	29.8378
1254.41	29.6838
1256.02	29.5984
1257.62	30.6249
1259.23	31.5855
1260.84	31.9815
1262.44	31.8091
1264.05	31.9287
1265.66	30.9889
1267.26	30.4244
1268.86	30.466
1270.47	30.1079
1272.07	30.0275
1273.67	30.6184
1275.28	30.1179
1276.88	29.3556
1278.48	30.2163
1280.09	31.2463
1281.69	31.6149
1283.29	32.878
1284.89	33.9363
1286.49	35.2297
1288.09	35.2057
1289.69	36.7195
1291.29	37.4879
1292.89	37.3522
1294.49	38.0897
1296.09	38.5398
1297.69	38.2403
1299.29	37.8497
1300.89	38.2085
1302.49	38.5227
1304.08	38.6376
1305.68	39.3766
1307.28	39.9919
1308.88	39.6794
1310.47	40.2767
1312.07	40.5863
1313.66	40.8733
1315.26	40.2946
1316.85	40.5911
1318.45	41.524
1320.04	41.1672
1321.64	41.5154
1323.23	42.266
1324.83	42.1945
1326.42	42.7195
1328.01	42.1346
1329.61	41.2271
1331.2	41.3454
1332.79	41.1679
1334.38	41.2399
1335.97	40.9261
1337.56	40.8703
1339.16	40.1751
1340.75	38.9317
1342.34	38.7527
1343.93	38.0707
1345.52	37.7017
1347.11	37.2601
1348.7	36.3349
1350.29	36.165
1351.87	35.7432
1353.46	36.0838
1355.05	35.0474
1356.64	35.0368
1358.22	35.3633
1359.81	33.9716
1361.4	33.3665
1362.98	32.8967
1364.57	32.0305
1366.16	31.1399
1367.74	30.1753
1369.33	29.16
1370.91	28.1463
1372.5	27.441
1374.08	27.1837
1375.67	26.2175
1377.25	25.128
1378.83	24.1163
1380.41	23.4099
1382	23.1241
1383.58	23.1311
1385.16	22.4805
1386.74	21.6671
1388.33	20.7689
1389.91	20.4308
1391.49	19.091
1393.07	18.0799
1394.65	17.2152
1396.23	16.987
1397.81	17.0116
1399.39	15.9057
1400.97	15.7704
1402.55	15.6165
1404.13	15.6373
1405.7	15.6301
1407.28	15.7897
1408.86	16.1005
1410.44	17.0845
1412.01	17.2769
1413.59	17.9421
1415.17	18.3616
1416.74	19.6118
1418.32	20.3504
1419.89	21.8646
1421.47	23.6097
1423.04	24.8008
1424.62	25.8736
1426.19	27.0345
1427.77	29.3021
1429.34	32.1318
1430.91	34.3036
1432.49	36.3824
1434.06	37.79
1435.63	40.0044
1437.2	41.0367
1438.78	41.6173
1440.35	42.926
1441.92	43.7897
1443.49	44.6482
1445.06	45.0985
1446.63	45.9592
1448.2	46.2791
1449.77	47.0217
1451.34	46.5167
1452.91	46.4384
1454.48	45.6551
1456.05	44.8498
1457.62	43.8127
1459.18	43.0193
1460.75	43.134
1462.32	42.3742
1463.89	40.8823
1465.45	40.1071
1467.02	38.228
1468.59	36.1095
1470.15	34.4199
1471.72	31.9296
1473.28	30.1345
1474.85	27.9724
1476.41	26.7969
1477.98	24.9636
1479.54	24.0359
1481.1	22.12
1482.67	20.5014
1484.23	18.68
1485.79	16.6059
1487.36	14.7904
1488.92	13.4939
1490.48	11.5652
1492.04	10.405
1493.61	9.99322
1495.17	8.99764
1496.73	7.84595
1498.29	6.85553
1499.85	5.98067
1501.41	5.83338
1502.97	5.68085
1504.53	5.54356
1506.09	5.80996
1507.65	5.18914
1509.2	3.82502
1510.76	3.03083
1512.32	2.79684
1513.88	2.49943
1515.43	1.73732
1516.99	1.6923
1518.55	1.43423
1520.1	2.08783
1521.66	2.51234
1523.22	3.45909
1524.77	3.88275
1526.33	3.82509
1527.88	4.52
1529.44	5.5635
1530.99	7.12987
1532.54	8.31232
1534.1	9.34692
1535.65	10.3451
1537.21	12.5462
1538.76	14.1428
1540.31	14.8658
1541.86	15.7542
1543.42	16.5851
1544.97	17.3617
1546.52	19.0485
1548.07	20.329
1549.62	21.2972
1551.17	23.1478
1552.72	24.167
1554.27	26.2169
1555.82	27.1295
1557.37	28.6183
1558.92	29.5243
1560.47	30.6122
1562.02	31.2018
1563.56	32.0356
1565.11	32.8125
1566.66	32.8528
1568.21	33.4858
1569.75	33.6657
1571.3	34.5149
1572.85	34.1776
1574.39	34.7306
1575.94	35.4542
1577.49	36.918
1579.03	37.4463
1580.57	38.1621
1582.12	37.9868
1583.66	38.6171
1585.21	38.5893
1586.75	39.2089
1588.3	39.9216
1589.84	40.6576
1591.38	40.846
1592.92	41.0065
1594.47	41.3978
1596.01	41.5385
1597.55	42.3696
1599.09	42.0834
1600.63	41.5937
1602.17	41.4984
1603.71	41.2657
1605.25	41.6157
1606.79	41.7018
1608.33	41.6542
1609.87	41.0777
1611.41	40.4827
1612.95	40.8342
1614.49	41.3676
1616.03	40.4216
1617.57	40.6355
1619.1	40.8542
1620.64	40.5315
1622.18	40.3238
1623.72	40.1978
1625.25	39.8482
1626.79	40.1181
1628.32	40.2028
1629.86	40.7099
1631.39	41.8457
1632.93	41.8337
1634.46	41.5324
1636	41.8386
1637.53	41.4592
1639.07	41.4089
1640.6	41.7149
1642.13	41.376
1643.67	42.3435
1645.2	43.4539
1646.73	44.2855
1648.26	45.3292
1649.8	45.6413
1651.33	46.0971
1652.86	46.6341
1654.39	46.986
1655.92	46.827
1657.45	47.3406
1658.98	47.5965
1660.51	48.2147
1662.04	47.4591
1663.57	47.3716
1665.1	47.0592
1666.63	46.7673
1668.16	45.8303
1669.68	45.2326
1671.21	44.6516
1672.74	43.6504
1674.27	42.9993
1675.79	41.5365
1677.32	39.7475
1678.85	38.8237
1680.37	37.1049
1681.9	36.0269
1683.42	34.2733
1684.95	32.4516
1686.47	30.6382
1688	29.1633
1689.52	27.4446
1691.05	25.1958
1692.57	23.6457
1694.09	22.0182
1695.62	20.0508
1697.14	18.0633
1698.66	16.9759
1700.18	15.8893
1701.71	15.6887
1703.23	14.9144
1704.75	13.9694
1706.27	13.1684
1707.79	12.0801
1709.31	10.8953
1710.83	9.4297
1712.35	9.43242
1713.87	7.91397
1715.39	7.38085
1716.91	6.61737
1718.43	5.73504
1719.95	6.00841
1721.47	5.41077
1722.99	4.86991
1724.5	4.47455
1726.02	4.63178
1727.54	4.92135
1729.06	5.15509
1730.57	5.24545
1732.09	5.15641
1733.61	5.36479
1735.12	5.64414
1736.64	5.0109
1738.15	4.56853
1739.67	5.37978
1741.18	5.6971
1742.7	5.49448
1744.21	5.64144
1745.72	5.86818
1747.24	5.45364
1748.75	5.17768
1750.26	5.19762
1751.77	4.5223
1753.29	4.2764
1754.8	4.31262
1756.31	4.04747
1757.82	3.96869
1759.33	3.70488
1760.84	3.60548
1762.36	3.73459
1763.87	3.3747
1765.38	3.21203
1766.89	3.71508
1768.4	4.1172
1769.91	3.78616
1771.41	3.80251
1772.92	3.8421
1774.43	3.68589
1775.94	3.76706
1777.45	3.87802
1778.95	3.08637
1780.46	2.59796
1781.97	2.40586
1783.48	2.42154
1784.98	2.46798
1786.49	2.30892
1787.99	2.40034
1789.5	1.84589
1791.01	1.94488
1792.51	1.92304
1794.01	1.88673
1795.52	2.1081
1797.02	2.05619
1798.53	2.56986
1800.03	3.11778
1801.53	2.94701
1803.04	2.47516
1804.54	1.96108
1806.04	1.39512
1807.54	1.01665
1809.05	0.944106
1810.55	0.943266
1812.05	0.81345
1813.55	1.45804
1815.05	1.61654
1816.55	1.75066
1818.05	1.74171
1819.55	1.80649
1821.05	1.71937
1822.55	1.42053
1824.05	1.77978
1825.55	1.51469
1827.05	1.15122
1828.55	1.27367
1830.04	1.33406
1831.54	1.16595
1833.04	1.33896
1834.54	1.26204
1836.03	1.33489
1837.53	1.32987
1839.03	1.15541
1840.52	0.975
1842.02	1.43629
1843.51	0.883451
1845.01	0.507474
1846.5	0.0231892
1848	-0.0362516
1849.49	-0.0817947
1850.99	0.227659
1852.48	0.181643
1853.97	0.224434
1855.47	0.53124
1856.96	0.707345
1858.45	0.563254
1859.94	0.721553
1861.44	0.768822
1862.93	0.667608
1864.42	0.446882
1865.91	0.413535
1867.4	0.45512
1868.89	0.454525
1870.38	1.05618
1871.87	1.2636
1873.36	1.31777
1874.85	1.4558
1876.34	1.32075
1877.83	1.2451
1879.32	1.42346
1880.81	1.44858
1882.3	1.79993
1882.57	1.91603
1884.07	2.77004
1885.56	2.95435
1887.06	3.28787
1888.55	3.26102
1890.04	3.11853
1891.54	3.34363
1893.03	2.92597
1894.52	3.01007
1896.02	2.91734
1897.51	3.37967
1899	3.38329
1900.49	3.44794
1901.98	3.8582
1903.47	3.72823
1904.96	3.21379
1906.45	3.91537
1907.94	3.96538
1909.43	3.72328
1910.92	3.67739
1912.41	2.8167
1913.9	2.4757
1915.39	2.69589
1916.88	2.25762
1918.37	2.05905
1919.85	2.22112
1921.34	2.26996
1922.83	2.18267
1924.32	2.16452
1925.8	1.85665
1927.29	2.1941
1928.78	1.93875
1930.26	1.68066
1931.75	1.46268
1933.23	1.91997
1934.72	1.50342
1936.2	1.6963
1937.69	1.59307
1939.17	1.93296
1940.66	2.04777
1942.14	2.40512
1943.63	2.82299
1945.11	2.95147
1946.59	3.14137
1948.07	3.47244
1949.56	3.27906
1951.04	3.85204
1952.52	3.97585
1954	3.99758
1955.48	4.43936
1956.96	4.0822
1958.45	3.67923
1959.93	3.08276
1961.41	3.32887
1962.89	2.91005
1964.37	2.86191
1965.85	2.86798
1967.32	2.71135
1968.8	3.65172
1970.28	4.13597
1971.76	4.21948
1973.24	4.1602
1974.72	4.44652
1976.19	4.63907
1977.67	4.40799
1979.15	3.85772
1980.63	4.37266
1982.1	4.02234
1983.58	3.80684
1985.05	3.19566
1986.53	2.46902
1988	2.9779
1989.48	3.23814
1990.95	3.09127
1992.43	3.61904
1993.9	3.81703
1995.38	3.84161
1996.85	3.78372
1998.32	3.94546
1999.8	4.46483
2001.27	4.65056
2002.74	3.82096
2004.22	3.81592
2005.69	4.40884
2007.16	4.82716
2008.63	4.60583
2010.1	5.16433
2011.57	5.28976
2013.04	5.43784
2014.51	5.79677
2015.98	6.15112
2017.45	7.06325
2018.92	7.70017
2020.39	7.65773
2021.86	7.68615
2023.33	8.23954
2024.8	8.89475
2026.27	8.98143
2027.74	8.83349
2029.2	8.89242
2030.67	8.74189
2032.14	9.23919
2033.61	9.83224
2035.07	10.2925
2036.54	10.3646
2038.01	10.4872
2039.47	10.6475
2040.94	11.4186
2042.4	12.0203
2043.87	11.5485
2045.33	11.2149
2046.8	11.4375
2048.26	11.3545
2049.72	11.0981
2051.19	10.3346
2052.65	10.0598
2054.12	10.8352
2055.58	10.8225
2057.04	10.3474
2058.5	10.4176
2059.97	11.5623
2061.43	12.0721
2062.89	12.1849
2064.35	12.7506
2065.81	13.5438
2067.27	13.6679
2068.73	14.0139
2070.19	13.4134
2071.65	13.2547
2073.11	13.2017
2074.57	13.0304
2076.03	13.2318
2077.49	13.9596
2078.95	13.7502
2080.41	13.283
2081.87	13.2627
2083.32	13.2949
2084.78	13.3978
2086.24	12.935
2087.7	13.7134
2089.15	13.797
2090.61	13.9766
2092.07	13.3775
2093.52	12.9202
2094.98	13.1566
2096.43	13.6558
2097.89	13.401
2099.34	12.9218
2100.8	12.9807
2102.25	12.8388
2103.71	12.5596
2105.16	11.9349
2106.61	11.4336
2108.07	11.5935
2109.52	11.1645
2110.97	10.6536
2112.43	11.2508
2113.88	11.6012
2115.33	11.6681
2116.78	11.5834
2118.23	11.7048
2119.68	12.2874
2121.13	12.6514
2122.59	12.3734
2124.04	12.023
2125.49	12.8159
2126.94	13.4213
2128.39	13.6868
2129.83	13.9689
2131.28	14.9862
2132.73	15.4539
2134.18	15.6055
2135.63	16.4329
2137.08	17.0646
2138.53	17.028
2139.97	17.1037
2141.42	16.7799
2142.87	16.4515
2144.31	17.3639
2145.76	17.8611
2147.21	18.9854
2148.65	19.1257
2150.1	19.3292
2151.54	19.3723
2152.99	20.0339
2154.43	20.6133
2155.88	20.8792
2157.32	21.856
2158.77	22.5166
2160.21	23.8588
2161.65	23.9992
2163.1	24.8556
2164.54	24.7071
2165.98	25.2774
2167.43	25.1632
2168.87	24.991
2170.31	24.6588
2171.75	24.8446
2173.19	25.3786
2174.64	24.9541
2176.07	25.1945
2177.52	25.2888
2178.96	25.0975
2180.4	25.7754
2181.84	25.4518
2183.28	25.456
2184.72	25.7358
2186.15	25.3826
2187.59	24.8997
2189.03	24.121
2190.47	23.9672
2191.91	23.6321
2193.35	22.8447
2194.78	21.9083
2196.22	21.8789
2197.66	21.4889
2199.09	21.0961
2200.53	20.6108
2201.97	20.3704
2203.4	19.8983
2204.84	19.6349
2206.27	19.1577
2207.71	18.497
2209.14	18.1492
2210.58	17.4108
2212.01	17.1017
2213.45	16.9116
2214.88	16.9427
2216.31	17.6339
2217.75	17.3037
2219.18	17.3623
2220.61	16.846
2222.05	17.3714
2223.48	17.9667
2224.91	17.9817
2226.34	18.0407
2227.78	18.1947
2229.21	18.4213
2230.64	18.064
2232.07	17.5983
2233.5	16.7877
2234.93	16.1189
2236.36	15.7106
2237.79	15.7781
2239.22	15.4168
2240.65	15.5866
2242.08	15.381
2243.5	16.1454
2244.93	16.1021
2246.36	15.5153
2247.79	15.3791
2249.22	15.3704
2250.64	15.1904
2252.07	15.8673
2253.5	15.5011
2254.92	15.1438
2256.35	15.2946
2257.78	14.9178
2259.2	14.8675
2260.63	14.879
2262.05	15.0584
2263.48	14.7166
2264.9	14.8888
2266.33	15.0025
2267.75	14.8036
2269.18	14.6053
2270.6	14.7061
2272.02	14.9283
2273.45	15.1747
2274.87	15.3152
2276.29	15.4185
2277.71	15.133
2279.14	15.1657
2280.56	15.493
2281.98	15.5705
2283.4	16.3048
2284.82	16.6038
2286.24	16.8209
2287.66	16.628
2289.08	15.777
2290.5	15.6291
2291.92	15.6295
2293.34	15.6419
2294.76	15.4288
2296.18	14.967
2297.6	14.6436
2299.02	15.1647
2300.44	15.5351
2301.86	15.6405
2303.27	15.7984
2304.69	16.0103
2306.11	16.4503
2307.53	17.3416
2308.94	16.7125
2310.36	17.0548
2311.78	16.5308
2313.19	16.1767
2314.61	17.0553
2316.02	16.7756
2317.44	16.9751
2318.85	17.3755
2320.27	17.2232
2321.68	17.0375
2323.1	17.6823
2324.51	17.2317
2325.92	16.8952
2327.34	16.7537
2328.75	16.2222
2330.16	16.3891
2331.58	15.6032
2332.99	15.4442
2334.4	15.0704
2335.81	14.3879
2337.23	13.7528
2338.64	13.3834
2340.05	13.3876
2341.46	13.229
2342.87	12.9565
2344.28	11.7621
2345.69	11.4839
2347.1	10.8086
2348.51	10.1766
2349.92	9.44476
2351.33	8.93363
2352.74	8.66888
2354.15	8.45993
2355.55	7.53683
2356.96	7.44148
2358.37	6.81939
2359.78	6.67284
2361.19	6.40966
2362.59	6.73544
2364	6.76003
2365.41	7.16835
2366.81	7.70829
2368.22	7.63726
2369.62	7.83915
2371.03	7.29703
2372.44	7.111
2373.84	6.85913
2375.24	6.80849
2376.65	6.92058
2378.05	6.95574
2379.46	6.42849
2380.86	7.4918
2382.26	7.34234
2383.67	7.78662
2385.07	8.24519
2386.47	7.82598
2387.88	7.67431
2389.28	7.48078
2390.68	7.44245
2392.08	7.73021
2393.48	7.85879
2394.89	7.3771
2396.29	7.37394
2397.69	7.11961
2399.09	7.32265
2400.49	7.33233
2401.89	7.01546
2403.29	7.38319
2404.69	7.17729
2406.09	7.04493
2407.48	7.41186
2408.88	7.4799
2410.28	7.44749
2411.68	7.29601
2413.08	7.41451
2414.48	7.99029
2415.87	8.8358
2417.27	8.75179
2418.67	8.42671
2420.06	8.83906
2421.46	9.33706
2422.86	9.81199
2424.25	10.2918
2425.65	10.2816
2427.04	10.5368
2428.44	10.2168
2429.83	10.3143
2431.23	9.97175
2432.62	10.1989
2434.02	10.4604
2435.41	10.7212
2436.81	10.7867
2438.2	10.4375
2439.59	10.2428
2440.99	10.2034
2442.38	10.4939
2443.77	10.1808
2445.16	9.96413
2446.56	9.51429
2447.95	8.83009
2449.34	8.50114
2450.73	8.41381
2452.12	7.8148
2453.51	7.19094
2454.9	6.50782
2456.29	6.6855
2457.68	6.25491
2459.07	6.07343
2460.46	6.12248
2461.85	6.13889
2463.24	6.26222
2464.63	6.11091
2466.02	6.61042
2467.4	6.33891
2468.79	6.43243
2470.18	6.23462
2471.57	6.21841
2472.95	5.9385
2474.34	6.14157
2475.73	6.38334
2477.12	6.4436
2478.5	6.42928
2479.89	6.54437
2481.27	6.56371
2482.66	6.5725
2484.04	6.13451
2485.43	5.33405
2486.81	4.67265
2488.2	4.4338
2489.58	4.64175
2490.97	4.39427
2492.35	4.50486
2493.73	4.72379
2495.12	4.43415
2496.5	4.12255
2497.88	4.71226
2499.27	4.96199
2500.65	4.75768
2502.03	5.35922
2503.41	5.56097
2504.79	5.05788
2506.17	4.77117
2507.56	4.23375
2508.94	3.9347
2510.32	3.78357
2511.7	3.83982
2513.08	3.34496
2514.46	3.16834
2515.84	3.26568
2517.22	3.66962
2518.59	4.35286
2519.97	4.76186
2521.35	5.17099
2522.73	4.8163
2524.11	4.8964
2525.49	4.82682
2526.86	4.36108
2528.24	4.46848
2529.62	4.63238
2530.99	4.92939
2532.37	5.47366
2533.75	5.57383
2535.12	5.87655
2536.5	5.22179
2537.88	5.18704
2539.25	5.33687
2540.63	5.46826
2542	5.25182
2543.38	5.968
2544.75	5.33473
2546.12	4.95191
2547.5	4.7495
2548.87	4.59341
2550.24	4.62284
2551.62	4.71455
2552.99	4.53815
2554.36	4.46649
2555.74	4.38924
2557.11	4.42659
2558.48	4.33373
2559.85	4.65345
2561.22	4.92081
2562.59	4.95754
2563.96	4.51939
2565.34	5.09314
2566.71	5.31247
2568.08	4.83745
2569.45	4.44194
2570.82	4.36351
2572.18	3.92702
2573.55	4.27584
2574.92	4.37565
2576.29	4.40673
2577.66	4.80446
2579.03	5.41863
2580.4	5.62985
2581.77	5.29821
2583.13	5.36734
2584.5	5.8279
2585.87	5.51008
2587.23	4.92755
2588.6	4.88912
2589.97	4.32457
2591.33	3.86672
2592.7	3.70664
2594.06	3.43091
2595.43	3.64579
2596.79	3.74459
2598.16	4.03664
2599.52	4.46387
2600.89	4.54457
2602.25	4.0346
2603.62	3.59572
2604.98	3.56793
2606.34	3.77283
2607.71	4.05286
2609.07	3.74411
2610.43	3.48052
2611.79	3.77262
2613.16	2.88
2614.52	2.52417
2615.88	2.38594
2617.24	1.9733
2618.6	2.08095
2619.96	1.55567
2621.32	0.792733
2622.68	0.406979
2624.04	0.227362
2625.4	-0.0140795
2626.76	0.311157
2628.12	0.860929
2629.48	0.824268
2630.84	0.791807
2632.2	0.770926
2633.56	1.13532
2634.92	0.637055
2636.28	0.888748
2637.63	1.24677
2638.99	1.58187
2640.35	1.76069
2641.71	2.29848
2643.06	2.17516
2644.42	2.45074
2645.77	2.70747
2647.13	3.31533
2648.49	2.72964
2649.84	2.40249
2651.2	2.60568
2652.55	2.83722
2653.91	2.51775
2655.26	2.93478
2656.62	3.6076
2657.97	3.8036
2659.33	4.39258
2660.68	4.83701
2662.03	4.99443
2663.39	5.54064
2664.74	6.05492
2666.09	6.09054
2667.44	6.39463
2668.8	6.01432
2670.15	6.06971
2671.5	5.82873
2672.85	5.79532
2674.2	5.464
2675.55	4.99296
2676.91	4.59405
2678.26	4.46808
2679.61	4.3254
2680.96	3.47682
2682.31	3.1204
2683.66	3.48611
2685	3.11415
2686.35	3.00118
2687.7	2.70422
2689.05	2.82947
2690.4	2.82023
2691.75	3.04914
2693.1	3.04602
2694.44	3.13582
2695.79	3.09009
2697.14	2.99517
2698.49	2.8332
2699.83	2.93972
2701.18	3.38491
2702.52	3.77198
2703.87	4.2579
2705.22	4.14596
2706.56	3.97311
2707.91	4.26602
2709.25	4.2235
2710.6	4.50863
2711.94	4.40699
2713.29	4.70945
2714.63	5.03355
2715.97	4.97158
2717.32	5.43424
2718.66	5.69815
2720.01	5.70084
2721.35	6.01356
2722.69	6.25668
2724.03	6.47923
2725.38	6.83577
2726.72	7.23485
2728.06	7.6046
2729.4	7.742
2730.74	7.52149
2732.08	7.23361
2733.42	7.03371
2734.76	6.79685
2736.1	6.36938
2737.44	6.21599
2738.78	5.25151
2740.12	5.47115
2741.46	5.11001
2742.8	4.97687
2744.14	4.54337
2745.48	4.15108
2746.82	3.75846
2748.16	3.44447
2749.49	3.65394
2750.83	3.80632
2752.17	3.77204
2753.51	3.28564
2754.84	3.16443
2756.18	3.07718
2757.52	2.39578
2758.85	1.94603
2760.19	1.52141
2761.53	1.68704
2762.86	2.14127
2764.2	2.53798
2765.53	2.47847
2766.87	3.04562
2768.2	3.42281
2769.54	2.87126
2770.87	2.59483
2772.2	2.27788
2773.54	2.22136
2774.87	2.16648
2776.2	2.37008
2777.54	2.56781
2778.87	2.66601
2780.2	3.582
2781.53	3.75773
2782.87	3.88837
2784.2	3.85162
2785.53	3.72956
2786.86	3.54896
2788.19	3.94664
2789.52	4.10292
2790.85	4.38678
2792.18	4.44919
2793.51	4.51541
2794.84	4.47213
2796.17	4.04825
2797.5	3.62437
2798.83	3.4559
2800.16	3.09611
2801.49	2.58725
2802.82	2.71884
2804.15	2.12404
2805.47	1.93531
2806.8	2.42811
2808.13	2.09881
2809.46	2.21861
2810.78	1.89545
2812.11	1.53192
2813.44	1.68204
2814.76	1.75829
2816.09	1.45937
2817.42	1.39055
2818.74	1.42822
2820.07	1.38718
2821.39	1.67841
2822.72	1.8512
2824.04	2.08339
2825.37	2.61316
2826.69	3.86404
2828.02	4.8593
2829.34	5.57814
2830.66	6.24376
2831.99	7.20368
2833.31	8.30497
2834.63	9.12301
2835.96	10.0541
2837.28	11.4108
2838.6	12.6621
2839.92	14.0601
2841.24	15.7741
2842.57	18.0234
2843.89	19.4919
2845.21	22.289
2846.53	24.3779
2847.85	26.216
2849.17	28.1666
2850.49	30.4658
2851.81	32.8317
2853.13	34.9819
2854.45	37.9157
2855.77	40.1302
2857.09	42.4537
2858.41	45.208
2859.72	47.9659
2861.04	50.0118
2862.36	51.8365
2863.68	53.5563
2865	55.2512
2866.31	57.5328
2867.63	59.7505
2868.95	61.4497
2870.26	62.9234
2871.58	64.6191
2872.9	66.0306
2874.21	67.0422
2875.53	68.1193
2876.84	68.6849
2878.16	69.8382
2879.47	70.9226
2880.79	71.1407
2882.1	71.8985
2883.42	72.5888
2884.73	73.2406
2886.05	74.0084
2887.36	74.4126
2888.67	75.4275
2889.99	75.8048
2891.3	76.2896
2892.61	77.6224
2893.92	78.7407
2895.24	80.1229
2896.55	81.2699
2897.86	82.3415
2899.17	83.4341
2900.48	84.9215
2901.79	86.5144
2903.11	87.7794
2904.42	89.7309
2905.73	91.291
2907.04	94.0136
2908.35	96.2267
2909.66	98.5792
2910.97	101.591
2912.27	104.016
2913.58	106.779
2914.89	109.53
2916.2	112.502
2917.51	115.274
2918.82	117.751
2920.13	119.846
2921.43	121.943
2922.74	124.096
2924.05	125.93
2925.35	127.23
2926.66	128.038
2927.97	128.767
2929.27	129.466
2930.58	130.261
2931.89	130.682
2933.19	131.186
2934.5	131.108
2935.8	131.02
2937.11	129.734
2938.41	128.201
2939.72	127.028
2941.02	125.803
2942.32	124.014
2943.63	122.452
2944.93	120.346
2946.24	119.005
2947.54	117.286
2948.84	114.674
2950.14	112.786
2951.45	110.908
2952.75	108.881
2954.05	107.037
2955.35	104.329
2956.65	102.278
2957.95	100.227
2959.26	97.9455
2960.56	95.1864
2961.86	91.9939
2963.16	89.7039
2964.46	87.3177
2965.76	85.7334
2967.06	83.6365
2968.36	81.538
2969.66	79.2667
2970.96	76.7934
2972.25	75.2842
2973.55	72.7157
2974.85	70.8824
2976.15	68.8453
2977.45	66.4983
2978.74	64.3284
2980.04	62.4397
2981.34	60.4084
2982.64	58.1598
2983.93	56.0056
2985.23	53.8447
2986.52	52.3911
2987.82	50.2203
2989.12	48.0489
2990.41	46.0299
2991.71	44.2324
2993	42.3718
2994.3	40.3728
2995.59	38.8777
2996.89	37.3182
2998.18	35.8186
2999.48	33.5125
3000.77	31.1305
3002.06	28.5886
3003.36	26.8757
3004.65	26.0368
3005.94	24.7796
3007.23	23.2629
3008.53	22.0823
3009.82	21.1928
3011.11	19.4361
3012.4	17.7269
3013.69	16.7876
3014.99	15.8209
3016.28	15.1814
3017.57	14.2173
3018.86	13.272
3020.15	12.1727
3021.44	11.4662
3022.73	11.3265
3024.02	11.3579
3025.31	10.799
3026.6	10.3565
3027.89	10.7235
3029.18	10.5712
3030.46	10.9418
3031.75	10.5829
3033.04	10.1711
3034.33	10.0441
3035.62	10.2266
3036.9	10.575
3038.19	10.4741
3039.48	10.5923
3040.76	11.4288
3042.05	11.776
3043.34	12.1992
3044.62	12.9462
3045.91	12.9644
3047.19	13.3552
3048.48	13.5432
3049.77	13.8375
3051.05	14.0195
3052.34	14.2167
3053.62	14.7988
3054.9	15.2583
3056.19	15.771
3057.47	15.2063
3058.76	14.8492
3060.04	15.1282
3061.32	14.6829
3062.61	14.3462
3063.89	13.7532
3065.17	13.5459
3066.45	13.0459
3067.74	12.4578
3069.02	12.5493
3070.3	11.8745
3071.58	11.0684
3072.86	10.369
3074.14	9.20001
3075.42	8.3736
3076.7	8.20218
3077.99	7.23663
3079.26	6.46498
3080.54	6.37203
3081.82	5.92424
3083.1	5.53854
3084.38	5.07547
3085.66	4.60833
3086.94	4.43822
3088.22	3.99589
3089.5	3.21118
3090.78	3.24256
3092.05	3.21235
3093.33	2.9236
3094.61	2.55442
3095.89	1.95686
3097.16	1.70542
3098.44	1.80879
3099.72	1.79223
3100.99	1.60628
3102.27	1.00423
3103.54	0.832906
3104.82	1.20252
3106.1	0.477684
3107.37	0.338865
3108.65	0.852839
3109.92	0.404142
3111.2	0.784389
3112.47	0.679249
3113.74	0.86515
3115.02	1.16281
3116.29	1.58268
3117.56	1.2687
3118.84	1.08032
3120.11	1.081
3121.38	0.813273
3122.66	0.941821
3123.93	1.12475
3125.2	0.998081
3126.47	1.11503
3127.74	0.847287
3129.01	1.06663
3130.29	0.527761
3131.56	0.414174
3132.83	0.91811
3134.1	0.182958
3135.37	-0.0486093
3136.64	-0.165371
3137.91	-0.275007
3139.18	0.215564
3140.45	0.0490597
3141.72	0.117933
3142.99	0.353159
3144.26	0.369591
3145.52	0.387359
3146.79	0.560713
3148.06	0.61904
3149.33	0.632059
