#Acq. time (s)=	45
#Accumulations=	2
#Range (cm-¹)=	200...3150
#Windows=	2
#Auto scanning=	Off
#Autofocus=	Off
#Macrospot=	Off
#AutoExposure=	Off
#Spike filter=	Multiple accum.
#Delay time (s)=	0
#Binning=	1
#Readout mode=	Signal
#DeNoise=	Off
#ICS correction=	On
#Dark correction=	Off
#Inst. Process=	Off
#Detector Gain=	Best Dynamic Range
#Detector ADC=	20 kHz       
#Detector temperature (°C)=	-69.85
#Instrument=	LabRAM HR Evol
#Detector=	Synapse
#Objective=	x100
#Grating=	600 gr/mm
#ND Filter=	100%
#Laser (nm)=	532 
#Hole=	100.021
#Range=	Auto
#Laser Pol.=	No
#Raman. Pol.=	No
#Laser Pol. (°)=	-0.0007625
#Raman Pol. (°)=	89.9995
#Collection=	Microscope
#StageXY=	Marzhauser
#StageZ=	Marzhauser
#X (µm)=	-5921.9
#Y (µm)=	2830.8
#Z (µm)=	-223.35
#Full time(mm:ss)=	3:18
#Project=	
#Sample=	
#Site=	
#Title=	Thy_20_09_04_2x_45s_532 nm_x100_100%_600 gr_mm
#Remark=	
#Date=	29.06.2022 11:00
#Acquired=	29.06.2022 11:00:27
#Base:Fit=	10.08.2022 09:49:32
#Base:Fit=	10.08.2022 09:49:42
#Base:Fit=	10.08.2022 09:49:53
#Base:Fit=	10.08.2022 09:50:12
#Base:Fit=	10.08.2022 09:50:26
#Base:Fit=	10.08.2022 09:50:30
#Base:Fit=	10.08.2022 09:50:43
#Base:Fit=	10.08.2022 09:52:02
#Base:Fit=	10.08.2022 09:52:12
#Base:Sub=	10.08.2022 09:54:21
#Filter:Polynom=	16.08.2022 10:24:04
#AxisType[0]=Intens
#AxisUnit[0]=Cnt
#AxisType[1]=Spectr
#AxisUnit[1]=1/cm
200.523	68.8599
202.339	60.9503
204.154	54.5469
205.967	48.4069
207.781	42.3827
209.596	37.4122
211.409	32.427
213.222	28.7958
215.034	24.5339
216.848	21.109
218.659	18.8084
220.47	16.3523
222.281	14.1541
224.091	13.1079
225.903	11.4179
227.713	11.4188
229.522	9.74038
231.331	9.67864
233.14	9.40468
234.948	10.0073
236.756	9.87645
238.566	8.08735
240.373	7.98031
242.18	6.97915
243.986	7.02477
245.792	6.98053
247.598	6.25973
249.403	6.58812
251.208	7.24191
253.013	8.35645
254.818	8.54007
256.624	7.84644
258.427	8.00321
260.231	9.72187
262.034	8.87346
263.836	8.44766
265.638	9.14313
267.44	10.2666
269.242	11.0463
271.043	11.9344
272.844	12.5524
274.645	12.2287
276.445	11.6873
278.245	11.0996
280.044	11.1927
281.843	11.7936
283.642	10.9872
285.44	10.8761
287.238	10.3239
289.036	9.76993
290.833	9.21881
292.63	9.00342
294.425	8.6117
296.221	9.18991
298.017	9.53344
299.813	9.25639
301.608	8.9532
303.403	10.1265
305.198	9.8014
306.992	9.821
308.786	9.64196
310.579	9.19457
312.371	9.31059
314.163	9.84062
315.956	9.27317
317.748	9.66924
319.54	9.45484
321.331	10.2112
323.122	10.1741
324.911	9.39962
326.701	8.12684
328.491	6.19301
330.281	6.95767
332.071	6.01612
333.857	5.55518
335.646	4.27993
337.434	3.44112
339.222	3.96294
341.008	3.70333
342.795	3.91769
344.582	3.0738
346.369	2.79039
348.153	3.17322
349.939	3.20278
351.724	2.60298
353.51	3.51728
355.292	4.05868
357.077	3.79896
358.861	2.45622
360.643	2.16497
362.426	2.31511
364.21	2.21118
365.99	3.02437
367.773	3.06444
369.555	2.34645
371.335	3.3076
373.116	2.81128
374.897	2.84314
376.676	1.90967
378.456	2.379
380.236	2.43154
382.014	2.64916
383.793	3.66327
385.57	4.68947
387.349	4.19153
389.127	4.08943
390.903	3.46034
392.681	4.76738
394.456	3.90793
396.233	3.16617
398.007	3.78546
399.784	4.54655
401.56	5.59483
403.333	6.3727
405.108	6.5603
406.881	6.69102
408.656	7.60907
410.428	7.38446
412.202	6.72561
413.973	6.50208
415.746	7.20424
417.517	7.18131
419.29	7.24061
421.06	6.33499
422.831	6.11239
424.601	5.9976
426.37	5.92243
428.141	6.20221
429.909	6.59448
431.679	7.67744
433.447	7.32716
435.216	7.68192
436.983	7.64338
438.75	8.35519
440.519	8.10916
442.285	8.11142
444.052	8.73023
445.818	8.57334
447.583	9.37672
449.349	11.2763
451.114	11.8032
452.878	11.2192
454.643	10.8566
456.407	9.98874
458.169	9.40943
459.934	10.4656
461.696	10.6474
463.458	10.4646
465.222	11.1791
466.983	11.8453
468.744	12.6725
470.507	12.7245
472.267	13.2158
474.027	13.2035
475.787	13.2957
477.548	13.9288
479.307	14.4114
481.065	15.3737
482.823	15.2541
484.583	16.5611
486.341	17.6969
488.098	17.2834
489.855	17.0719
491.612	16.7902
493.37	16.8516
495.126	17.6201
496.881	18.4927
498.636	18.1873
500.391	18.6209
502.148	18.2467
503.902	18.4023
505.656	17.7176
507.409	17.444
509.162	17.7174
510.915	17.3898
512.668	17.2507
514.42	17.8342
516.174	18.1442
517.925	18.5815
519.676	18.0193
521.427	18.3418
523.178	18.541
524.928	18.1077
526.678	16.2585
528.427	16.4721
530.176	16.0606
531.925	16.0837
533.673	14.5829
535.422	13.9227
537.169	13.7417
538.917	11.3142
540.664	11.9244
542.411	12.1682
544.157	12.1297
545.903	12.0732
547.649	13.3885
549.395	14.0242
551.14	14.0435
552.884	14.3765
554.629	14.2553
556.373	14.2577
558.117	13.8057
559.86	13.659
561.603	14.3066
563.346	13.6702
565.089	13.3249
566.831	13.0228
568.573	12.7361
570.314	14.0775
572.053	13.0263
573.794	13.7681
575.534	13.7581
577.274	14.4524
579.014	14.9329
580.754	15.1954
582.493	14.9466
584.23	14.0672
585.968	14.5688
587.706	13.4786
589.444	12.4363
591.181	13.5193
592.919	13.346
594.653	12.6387
596.39	11.1503
598.126	9.4162
599.862	8.72859
601.595	8.42064
603.33	8.15729
605.065	7.94465
606.8	7.6671
608.532	6.58147
610.266	4.78336
611.999	3.4405
613.732	2.99309
615.463	4.63965
617.196	3.15776
618.928	2.94253
620.66	2.42254
622.389	2.79328
624.12	3.30745
625.851	2.40163
627.58	3.60248
629.31	3.97277
631.04	4.99214
632.767	5.69058
634.497	7.16137
636.223	7.18157
637.952	8.36795
639.68	8.68775
641.406	7.99322
643.134	8.43558
644.861	9.85542
646.586	10.3531
648.312	11.2204
650.037	11.4231
651.762	13.6211
653.486	14.0443
655.211	15.6041
656.936	17.157
658.659	17.8803
660.383	19.2744
662.105	19.4109
663.829	19.2799
665.55	20.4708
667.273	21.3719
668.994	21.5159
670.716	22.8499
672.436	23.8099
674.158	24.2112
675.877	25.7617
677.598	27.7807
679.317	28.2932
681.035	28.6929
682.755	29.808
684.473	31.6421
686.192	34.2119
687.909	35.438
689.628	37.1865
691.344	38.9119
693.06	39.5019
694.778	39.7896
696.493	40.5781
698.211	41.436
699.925	42.2129
701.64	42.0206
703.356	42.1116
705.07	43.4135
706.783	44.4771
708.498	46.0034
710.211	47.0402
711.924	47.4372
713.638	48.757
715.35	49.6084
717.061	50.7666
718.774	50.8136
720.485	50.9383
722.196	51.5653
723.906	52.1361
725.618	51.7764
727.328	52.4191
729.037	53.287
730.746	54.8428
732.456	54.9582
734.165	55.0248
735.873	55.2559
737.58	55.5097
739.289	55.9758
740.997	56.8742
742.703	56.1521
744.41	56.8507
746.116	57.3821
747.823	58.6963
749.529	59.4348
751.234	60.569
752.938	60.8503
754.643	61.0702
756.347	62.851
758.051	63.3282
759.756	65.1558
761.459	66.2861
763.162	67.8275
764.865	69.0083
766.567	70.3016
768.269	70.8985
769.97	71.7485
771.671	72.3859
773.372	72.8287
775.073	74.7554
776.773	75.4957
778.473	75.4551
780.174	75.8423
781.874	75.1724
783.573	76.8364
785.271	78.171
786.97	79.4825
788.668	80.9498
790.365	81.8015
792.063	82.982
793.76	82.9418
795.456	83.2081
797.153	83.9671
798.847	84.8698
800.543	85.6064
802.238	87.3808
803.933	87.2473
805.628	88.0767
807.322	88.5132
809.017	89.2071
810.71	89.7321
812.404	91.0569
814.097	90.2456
815.79	91.2196
817.483	91.1699
819.173	91.5594
820.865	92.7125
822.556	92.6449
824.248	93.4784
825.939	92.3995
827.629	92.7528
829.318	93.9083
831.008	93.8693
832.697	93.6216
834.387	93.3946
836.076	92.0655
837.765	91.357
839.451	89.9322
841.139	89.7367
842.827	87.0684
844.514	86.0329
846.2	83.8487
847.886	81.9023
849.573	80.1186
851.259	77.8595
852.943	75.6205
854.629	73.6427
856.314	72.2422
857.997	71.1268
859.682	69.0716
861.366	68.2086
863.05	66.8995
864.732	64.9391
866.415	64.2112
868.098	63.1013
869.779	62.2411
871.461	60.0386
873.141	58.9392
874.823	58.0667
876.505	57.5914
878.184	56.6296
879.865	56.3579
881.545	54.7117
883.223	54.0116
884.903	52.8103
886.581	52.4958
888.26	52.2346
889.937	52.7474
891.616	53.354
893.294	54.286
894.97	54.95
896.648	56.0719
898.323	55.8035
900	56.1405
901.675	56.2009
903.351	55.8791
905.026	55.7154
906.701	54.4536
908.375	54.7958
910.05	54.5458
911.723	54.8863
913.398	54.9765
915.07	54.7497
916.742	55.3237
918.415	55.1583
920.087	53.0594
921.76	52.561
923.43	50.7633
925.103	50.3464
926.773	48.3114
928.443	48.638
930.114	47.2333
931.783	45.3797
933.454	44.7759
935.123	43.7067
936.791	41.9363
938.461	41.032
940.128	41.0427
941.796	40.6387
943.464	39.3992
945.131	40.8636
946.797	39.5009
948.465	38.4868
950.131	38.0426
951.797	36.7619
953.462	36.3798
955.128	35.1626
956.793	34.5494
958.457	32.7549
960.121	31.8757
961.786	31.5136
963.45	31.2849
965.113	31.3133
966.775	31.8984
968.44	30.7959
970.102	31.3206
971.763	31.3166
973.425	31.4939
975.086	31.5531
976.748	31.7875
978.409	30.7978
980.069	28.9856
981.729	27.2355
983.388	26.6052
985.048	26.7905
986.708	25.9775
988.367	26.5231
990.025	26.1099
991.683	25.8298
993.341	25.3617
994.998	25.0778
996.655	24.9238
998.312	24.4379
999.969	24.6346
1001.62	23.5256
1003.28	22.1775
1004.94	22.9466
1006.59	22.0666
1008.25	22.3496
1009.9	21.0943
1011.56	20.6068
1013.21	18.9224
1014.86	18.3162
1016.52	18.0786
1018.17	17.494
1019.82	17.1459
1021.48	17.1296
1023.13	16.863
1024.78	17.5603
1026.43	18.3148
1028.08	19.6476
1029.73	19.2477
1031.38	18.7414
1033.03	17.8509
1034.68	16.3521
1036.33	16.5745
1037.98	15.6676
1039.63	14.9441
1041.28	14.4078
1042.93	14.3659
1044.57	14.6087
1046.22	14.1486
1047.87	12.9238
1049.52	12.4119
1051.16	12.9713
1052.81	13.6142
1054.45	13.1529
1056.1	12.9203
1057.75	12.4572
1059.39	12.4124
1061.04	10.604
1062.68	10.3787
1064.32	11.0151
1065.97	11.5043
1067.61	11.1973
1069.25	10.5786
1070.9	10.5345
1072.54	10.4074
1074.18	10.4543
1075.82	9.77148
1077.47	10.3921
1079.11	10.0088
1080.75	11.2236
1082.39	10.5213
1084.03	10.2359
1085.67	11.1512
1087.31	11.857
1088.95	11.6737
1090.59	11.7671
1092.22	11.7334
1093.86	12.2998
1095.5	12.2929
1097.14	13.3464
1098.78	13.5908
1100.41	14.5607
1102.05	15.4339
1103.69	16.513
1105.32	18.381
1106.96	19.6946
1108.59	20.6059
1110.23	20.0192
1111.86	18.6477
1113.5	17.7275
1115.13	17.4281
1116.77	16.8559
1118.4	16.6031
1120.03	16.4136
1121.67	16.0096
1123.3	16.2321
1124.93	15.7525
1126.56	15.4116
1128.19	14.9456
1129.83	14.7363
1131.46	14.4839
1133.09	14.2566
1134.72	13.0004
1136.35	12.7958
1137.98	12.6409
1139.61	12.1996
1141.24	11.9271
1142.86	11.0623
1144.49	11.3388
1146.12	12.0195
1147.75	11.3835
1149.38	11.4589
1151	10.1169
1152.63	9.94168
1154.26	9.38671
1155.88	7.62001
1157.51	6.28874
1159.14	5.54361
1160.76	3.91565
1162.39	4.89877
1164.01	3.98034
1165.63	3.9986
1167.26	4.88736
1168.88	4.99572
1170.51	5.58795
1172.13	6.28321
1173.75	7.59293
1175.38	7.68784
1177	8.44235
1178.62	8.62013
1180.24	8.80092
1181.86	9.39992
1183.48	10.8022
1185.1	11.3223
1186.72	11.639
1188.34	11.6701
1189.96	12.1697
1191.58	11.0699
1193.2	12.2199
1194.82	13.3408
1196.44	13.4296
1198.06	14.7824
1199.68	16.2592
1201.29	18.0218
1202.91	17.9231
1204.53	19.9497
1206.14	20.0608
1207.76	21.4896
1209.38	22.9384
1210.99	23.9525
1212.61	25.4123
1214.22	27.2082
1215.84	28.731
1217.45	31.2892
1219.07	32.2825
1220.68	34.3889
1222.29	36.0187
1223.91	37.6634
1225.52	39.2118
1227.13	39.9458
1228.74	40.2641
1230.36	42.1969
1231.97	42.3021
1233.58	42.8475
1235.19	42.7163
1236.8	43.3141
1238.41	44.2666
1240.02	44.5517
1241.63	46.1531
1243.24	47.6453
1244.85	48.8482
1246.46	49.312
1248.07	51.1373
1249.67	51.4748
1251.28	52.4338
1252.89	53.2372
1254.5	53.6942
1256.1	53.472
1257.71	54.8728
1259.32	54.7784
1260.92	55.5874
1262.53	57.3101
1264.13	58.4217
1265.74	58.6626
1267.34	58.8441
1268.95	59.0616
1270.55	60.2146
1272.15	61.9197
1273.76	64.7732
1275.36	66.1853
1276.97	67.6214
1278.57	69.6517
1280.17	70.0559
1281.77	70.9481
1283.37	72.0712
1284.97	74.8126
1286.58	76.1384
1288.18	77.0825
1289.78	78.5071
1291.38	80.1426
1292.98	82.7482
1294.58	84.4875
1296.18	86.6102
1297.78	88.2496
1299.37	90.0277
1300.97	92.5077
1302.57	94.5486
1304.17	95.9142
1305.77	96.6602
1307.36	97.5696
1308.96	99.8725
1310.55	102.056
1312.15	103.018
1313.75	104.652
1315.34	106.12
1316.94	106.837
1318.53	106.981
1320.13	107.253
1321.72	108.075
1323.32	108.546
1324.91	109.476
1326.5	108.581
1328.1	109.475
1329.69	110.241
1331.28	109.996
1332.87	110.057
1334.47	109.996
1336.06	109.408
1337.65	109.677
1339.24	108.866
1340.83	108.719
1342.42	108.536
1344.01	107.777
1345.6	107.839
1347.19	107.674
1348.78	108.144
1350.37	108.734
1351.96	107.311
1353.54	106.288
1355.13	104.636
1356.72	103.307
1358.31	102.481
1359.89	101.243
1361.48	100.102
1363.07	98.0406
1364.65	96.5573
1366.24	93.8846
1367.82	92.1714
1369.41	91.9048
1370.99	91.1322
1372.58	89.7605
1374.16	88.5483
1375.75	87.7598
1377.33	87.0101
1378.91	87.1022
1380.5	85.0181
1382.08	83.1162
1383.66	81.3265
1385.25	79.8663
1386.83	78.3155
1388.41	77.0006
1389.99	76.1348
1391.57	75.2119
1393.15	74.0289
1394.73	72.2531
1396.31	71.469
1397.89	71.2546
1399.47	71.3407
1401.05	70.6227
1402.63	70.0183
1404.21	69.5076
1405.78	68.4521
1407.36	68.3233
1408.94	68.1375
1410.52	68.5509
1412.1	69.7096
1413.67	70.1594
1415.25	71.5929
1416.82	73.2639
1418.4	75.1351
1419.98	77.0116
1421.55	78.3508
1423.13	80.4757
1424.7	81.8381
1426.28	82.7666
1427.85	85.1331
1429.42	86.366
1431	88.0881
1432.57	90.8043
1434.14	92.218
1435.71	93.9124
1437.29	94.5967
1438.86	94.7953
1440.43	94.5096
1442	95.0397
1443.57	97.6992
1445.14	100.541
1446.71	102.049
1448.28	102.011
1449.85	101.754
1451.42	100.608
1452.99	100.604
1454.56	99.7735
1456.13	98.6462
1457.7	96.0066
1459.26	94.2597
1460.83	91.8466
1462.4	89.8806
1463.97	87.1464
1465.54	84.5541
1467.1	82.6202
1468.67	80.9312
1470.23	78.815
1471.8	76.1448
1473.36	73.0338
1474.93	69.9394
1476.49	66.9065
1478.06	63.8499
1479.62	61.1368
1481.19	58.8374
1482.75	56.4564
1484.31	54.8989
1485.88	53.5415
1487.44	52.1005
1489	50.5551
1490.56	48.1312
1492.13	47.9396
1493.69	46.3993
1495.25	44.9728
1496.81	44.6748
1498.37	42.2549
1499.93	41.2566
1501.49	41.1411
1503.05	40.9573
1504.61	40.8985
1506.17	41.2476
1507.73	40.8731
1509.28	41.3106
1510.84	41.6729
1512.4	41.3801
1513.96	41.9474
1515.52	42.64
1517.07	43.1237
1518.63	43.7875
1520.19	45.447
1521.74	47.3793
1523.3	48.2538
1524.85	47.6416
1526.41	47.5473
1527.96	49.3799
1529.52	50.3727
1531.07	51.7161
1532.63	52.2513
1534.18	53.0232
1535.73	53.8505
1537.29	56.101
1538.84	56.8435
1540.39	59.0354
1541.94	60.8782
1543.5	63.1335
1545.05	65.5428
1546.6	68.1632
1548.15	70.5153
1549.7	71.911
1551.25	75.1041
1552.8	79.5787
1554.35	82.8625
1555.9	85.1827
1557.45	88.7285
1559	91.28
1560.55	92.8228
1562.1	96.0737
1563.65	98.0521
1565.19	99.6446
1566.74	102.056
1568.29	105.05
1569.83	108.667
1571.38	109.944
1572.93	112.606
1574.47	114.451
1576.02	115.662
1577.56	118.55
1579.11	120.682
1580.66	121.501
1582.2	123.016
1583.74	124.25
1585.29	124.728
1586.83	124.664
1588.38	124.642
1589.92	124.021
1591.46	123.52
1593.01	122.73
1594.55	122.089
1596.09	120.634
1597.63	119.172
1599.17	118.349
1600.71	117.326
1602.25	115.736
1603.79	114.138
1605.34	113.143
1606.88	111.084
1608.41	108.771
1609.95	106.624
1611.49	104.373
1613.03	102.938
1614.57	101.331
1616.11	99.317
1617.65	97.9708
1619.18	97.0595
1620.72	96.733
1622.26	94.3658
1623.79	93.3823
1625.33	92.5216
1626.87	91.0616
1628.4	90.7721
1629.94	89.3712
1631.48	86.4714
1633.01	85.6278
1634.55	85.4657
1636.08	83.8666
1637.61	82.652
1639.15	83.5107
1640.68	82.7048
1642.21	82.2017
1643.75	83.0729
1645.28	83.125
1646.81	82.0444
1648.34	81.4556
1649.88	81.4218
1651.41	81.3835
1652.94	80.5099
1654.47	80.5832
1656	79.3145
1657.53	77.7211
1659.06	77.9919
1660.59	76.2956
1662.12	74.356
1663.65	72.616
1665.18	71.1764
1666.71	69.8229
1668.24	67.617
1669.76	65.5686
1671.29	64.5547
1672.82	62.3315
1674.35	60.8998
1675.87	59.7398
1677.4	56.7705
1678.93	54.0089
1680.45	51.544
1681.98	49.1963
1683.5	46.223
1685.03	43.5448
1686.55	42.0117
1688.08	39.9334
1689.6	38.3252
1691.13	36.123
1692.65	34.7015
1694.17	32.5996
1695.7	30.3754
1697.22	28.7662
1698.74	26.3757
1700.27	24.8431
1701.79	23.3011
1703.31	20.6775
1704.83	19.1012
1706.35	17.4247
1707.87	16.0753
1709.39	15.0153
1710.91	13.2196
1712.43	11.8885
1713.95	11.2476
1715.47	10.4726
1716.99	10.0001
1718.51	8.74532
1720.03	8.72691
1721.55	7.54316
1723.07	6.92448
1724.58	7.45573
1726.1	6.97192
1727.62	6.39312
1729.13	5.71483
1730.65	6.35668
1732.17	6.18464
1733.68	5.79211
1735.2	5.75057
1736.72	4.6984
1738.23	4.43426
1739.74	4.41579
1741.26	4.4124
1742.77	4.08597
1744.29	3.04583
1745.8	3.25371
1747.32	3.77558
1748.83	3.38624
1750.34	3.0432
1751.85	2.72457
1753.37	2.30274
1754.88	2.76897
1756.39	2.61399
1757.9	2.38002
1759.41	2.41319
1760.92	3.63134
1762.44	3.65444
1763.95	3.39943
1765.46	2.78266
1766.96	3.32781
1768.47	3.703
1769.98	3.40795
1771.49	3.84279
1773	4.12513
1774.51	4.33014
1776.02	3.51802
1777.53	3.70186
1779.03	2.31522
1780.54	2.14976
1782.05	2.55887
1783.55	2.9416
1785.06	3.53024
1786.57	4.1445
1788.07	4.86387
1789.58	4.68862
1791.08	4.42226
1792.59	4.7492
1794.09	4.60962
1795.6	5.44782
1797.1	4.81305
1798.61	4.90705
1800.11	5.00261
1801.61	4.57811
1803.12	4.2828
1804.62	4.36771
1806.12	5.11162
1807.62	4.76634
1809.12	4.39848
1810.63	4.59482
1812.13	4.21271
1813.63	3.82211
1815.13	3.29222
1816.63	2.55579
1818.13	2.25977
1819.63	1.81538
1821.13	2.33551
1822.63	2.71283
1824.13	2.73523
1825.63	1.91678
1827.13	1.81901
1828.62	1.94037
1830.12	1.38919
1831.62	1.29338
1833.12	2.09701
1834.61	2.39669
1836.11	3.07743
1837.61	2.36953
1839.1	2.6246
1840.6	3.04396
1842.09	3.37208
1843.59	3.90324
1845.09	3.78303
1846.58	3.78316
1848.08	4.54762
1849.57	5.21998
1851.06	4.78848
1852.56	5.65244
1854.05	5.34067
1855.54	6.66072
1857.04	7.23206
1858.53	7.71005
1860.02	7.71291
1861.51	8.05531
1863.01	7.70771
1864.5	7.46628
1865.99	7.59042
1867.48	8.55424
1868.97	8.84893
1870.46	7.91638
1871.95	7.05004
1873.44	6.58111
1874.93	6.68462
1876.42	6.81946
1877.91	6.85746
1879.4	7.24003
1880.89	7.17614
1882.37	7.3076
1882.46	7.54512
1883.95	7.34729
1885.45	8.36097
1886.94	8.66143
1888.43	8.4439
1889.93	8.04022
1891.42	7.90111
1892.91	7.98618
1894.41	7.91817
1895.9	7.30376
1897.39	6.33642
1898.88	6.20735
1900.37	6.33028
1901.86	5.75756
1903.36	5.26182
1904.85	5.39907
1906.34	6.0894
1907.83	5.21807
1909.32	5.44571
1910.81	5.20003
1912.29	6.38709
1913.78	6.44377
1915.27	6.29088
1916.76	7.04217
1918.25	6.7766
1919.74	7.12401
1921.23	7.08727
1922.71	7.16908
1924.2	7.42442
1925.69	7.45937
1927.17	7.52709
1928.66	8.31977
1930.15	8.3337
1931.63	8.5988
1933.12	8.29294
1934.6	8.70554
1936.09	8.98098
1937.57	9.52201
1939.06	9.8251
1940.54	10.8322
1942.02	10.3571
1943.51	10.6445
1944.99	11.1832
1946.47	11.5087
1947.96	12.2077
1949.44	12.7711
1950.92	12.3836
1952.4	13.1549
1953.88	13.5514
1955.37	13.8983
1956.85	13.8309
1958.33	13.5666
1959.81	13.9495
1961.29	12.5563
1962.77	11.5336
1964.25	11.2787
1965.73	11.165
1967.21	9.94965
1968.69	9.32243
1970.16	8.81725
1971.64	8.7143
1973.12	8.02861
1974.6	7.52202
1976.08	6.79319
1977.55	6.25545
1979.03	6.83754
1980.51	7.34004
1981.98	6.5891
1983.46	6.28728
1984.94	5.97598
1986.41	5.90774
1987.89	4.71084
1989.36	4.89813
1990.84	4.72467
1992.31	4.47013
1993.79	5.10236
1995.26	5.46048
1996.73	6.01815
1998.21	5.26496
1999.68	4.24445
2001.15	4.37799
2002.63	4.19605
2004.1	4.79812
2005.57	4.77992
2007.04	4.89624
2008.51	5.83029
2009.99	7.37197
2011.46	7.33541
2012.93	8.33101
2014.4	8.66238
2015.87	8.65486
2017.34	8.53898
2018.81	7.82451
2020.28	7.45534
2021.75	7.74944
2023.21	7.6037
2024.68	7.65135
2026.15	8.21962
2027.62	7.70759
2029.09	7.09008
2030.56	7.35937
2032.02	7.6252
2033.49	7.98869
2034.96	8.06229
2036.42	8.86558
2037.89	9.53456
2039.36	9.86283
2040.82	9.90796
2042.29	11.4434
2043.75	11.0586
2045.22	11.3286
2046.68	11.7256
2048.14	12.5491
2049.61	12.4687
2051.07	12.4205
2052.54	12.771
2054	11.5902
2055.46	10.7922
2056.93	10.9436
2058.39	11.9363
2059.85	12.6872
2061.31	12.5359
2062.77	13.6291
2064.23	13.8414
2065.7	14.3175
2067.16	14.905
2068.62	14.3576
2070.08	13.4899
2071.54	13.8008
2073	13.7779
2074.46	14.7278
2075.92	15.5373
2077.38	16.3397
2078.83	15.7987
2080.29	16.4598
2081.75	17.1762
2083.21	17.4702
2084.67	17.7978
2086.12	17.3181
2087.58	16.9876
2089.04	17.9222
2090.49	17.7387
2091.95	18.4957
2093.41	18.357
2094.86	19.0536
2096.32	19.7374
2097.77	19.8539
2099.23	19.6734
2100.68	19.6624
2102.14	19.9146
2103.59	20.969
2105.05	21.6368
2106.5	22.0691
2107.95	22.9368
2109.41	23.3656
2110.86	23.4335
2112.31	23.731
2113.76	23.9767
2115.21	23.8985
2116.67	23.7685
2118.12	24.5005
2119.57	25.6023
2121.02	25.3329
2122.47	25.0212
2123.92	25.0609
2125.37	26.2072
2126.82	27.0488
2128.27	28.6079
2129.72	29.8407
2131.17	30.1949
2132.62	30.1278
2134.07	31.0227
2135.51	31.3691
2136.96	31.7562
2138.41	32.4869
2139.86	32.8853
2141.31	33.012
2142.75	34.0975
2144.2	35.4829
2145.65	35.7368
2147.09	36.5454
2148.54	37.701
2149.98	38.2372
2151.43	38.1227
2152.87	38.8582
2154.32	39.5881
2155.76	40.6809
2157.21	42.1612
2158.65	42.551
2160.1	44.6458
2161.54	44.8615
2162.98	44.3083
2164.43	45.267
2165.87	45.6596
2167.31	46.1629
2168.75	45.8979
2170.2	45.6406
2171.64	45.7729
2173.08	45.6476
2174.52	45.427
2175.96	45.5659
2177.4	45.9212
2178.84	45.209
2180.28	44.3774
2181.72	44.8834
2183.16	44.6184
2184.6	44.5524
2186.04	44.1748
2187.48	43.5008
2188.92	43.0414
2190.36	42.7574
2191.79	42.6087
2193.23	41.8095
2194.67	41.3232
2196.11	40.4874
2197.54	39.5643
2198.98	38.8294
2200.42	38.6871
2201.85	37.39
2203.29	36.2794
2204.72	35.2655
2206.16	34.7016
2207.59	33.0511
2209.03	32.4572
2210.46	31.1402
2211.9	30.0339
2213.33	28.5247
2214.77	27.7251
2216.2	26.6826
2217.63	24.5607
2219.07	23.8874
2220.5	23.4294
2221.93	22.2812
2223.36	22.0482
2224.8	22.0111
2226.23	21.8767
2227.66	22.1607
2229.09	21.8214
2230.52	21.2402
2231.95	19.8612
2233.39	18.5066
2234.81	18.6906
2236.25	18.0035
2237.67	17.4539
2239.1	16.5334
2240.53	15.9914
2241.96	15.3039
2243.39	14.7065
2244.82	14.4644
2246.25	14.0664
2247.68	13.8667
2249.1	13.5696
2250.53	12.8077
2251.96	12.8779
2253.38	13.8188
2254.81	13.6682
2256.24	13.8208
2257.66	13.6675
2259.09	13.6015
2260.51	14.1843
2261.94	14.5562
2263.36	14.259
2264.79	14.4468
2266.21	13.6211
2267.64	13.2644
2269.06	13.5931
2270.49	14.5233
2271.91	15.2491
2273.33	14.3591
2274.76	14.2049
2276.18	13.3108
2277.6	13.3987
2279.02	12.8494
2280.44	11.7632
2281.87	11.5766
2283.29	11.5546
2284.71	11.3395
2286.13	12.1732
2287.55	12.5309
2288.97	12.1714
2290.39	13.8886
2291.81	13.75
2293.23	14.239
2294.65	14.6089
2296.07	14.7565
2297.49	15.2547
2298.91	15.282
2300.33	14.5497
2301.74	14.2327
2303.16	14.5991
2304.58	15.8166
2306	15.9427
2307.41	15.5804
2308.83	15.3776
2310.25	15.0978
2311.66	15.736
2313.08	15.4266
2314.5	15.6417
2315.91	15.4848
2317.33	15.7145
2318.74	15.3149
2320.16	15.3411
2321.57	16.0298
2322.98	15.8441
2324.4	17.1295
2325.81	16.6295
2327.23	16.4397
2328.64	15.8249
2330.05	15.767
2331.46	15.7104
2332.88	15.1322
2334.29	14.5409
2335.7	14.3797
2337.11	13.622
2338.52	14.0854
2339.94	14.5114
2341.35	14.5703
2342.76	14.1969
2344.17	13.6198
2345.58	13.3937
2346.99	12.4397
2348.4	12.4739
2349.81	11.6665
2351.22	11.0283
2352.62	10.6756
2354.03	10.2125
2355.44	10.5888
2356.85	10.6546
2358.26	9.73379
2359.67	9.55079
2361.07	10.029
2362.48	9.03653
2363.89	8.86109
2365.29	7.99432
2366.7	8.47007
2368.11	8.50471
2369.51	7.3303
2370.92	7.06643
2372.32	6.87366
2373.73	6.59583
2375.13	5.8042
2376.54	5.42912
2377.94	5.05787
2379.35	4.17663
2380.75	5.09128
2382.15	4.62427
2383.56	3.2337
2384.96	4.00297
2386.36	4.0261
2387.76	3.6168
2389.17	3.50918
2390.57	3.79725
2391.97	4.1896
2393.37	3.74636
2394.77	4.63724
2396.17	3.77099
2397.58	4.53663
2398.98	4.36543
2400.38	4.81611
2401.78	4.91005
2403.18	5.06195
2404.58	5.03094
2405.97	6.12174
2407.37	6.66839
2408.77	7.5169
2410.17	7.53792
2411.57	7.32302
2412.97	7.30992
2414.37	8.15933
2415.76	8.63711
2417.16	8.92448
2418.56	9.57827
2419.95	10.1425
2421.35	10.8119
2422.75	10.5917
2424.14	10.9501
2425.54	11.2534
2426.93	11.1731
2428.33	10.8817
2429.72	11.2615
2431.12	10.5425
2432.51	9.57335
2433.91	9.26785
2435.3	9.17427
2436.7	9.5496
2438.09	8.60505
2439.48	7.09574
2440.88	7.25579
2442.27	7.11426
2443.66	7.46474
2445.05	7.94595
2446.44	8.35214
2447.84	7.61448
2449.23	7.08388
2450.62	7.22531
2452.01	6.52644
2453.4	6.70063
2454.79	6.75601
2456.18	6.38253
2457.57	6.53667
2458.96	6.78603
2460.35	6.54224
2461.74	6.24523
2463.13	6.16015
2464.52	5.90102
2465.91	5.96031
2467.29	6.60482
2468.68	5.82024
2470.07	5.35685
2471.46	5.17248
2472.85	4.96924
2474.23	5.03649
2475.62	5.15716
2477.01	4.97953
2478.39	5.09605
2479.78	5.40067
2481.16	5.4958
2482.55	6.2815
2483.93	7.7041
2485.32	7.67502
2486.7	7.1498
2488.09	6.70823
2489.47	6.0571
2490.86	5.2154
2492.24	4.13871
2493.62	4.43006
2495.01	4.83071
2496.39	4.35414
2497.77	3.95619
2499.15	3.70348
2500.54	2.89188
2501.92	2.94469
2503.3	2.95641
2504.68	2.23103
2506.06	2.33838
2507.45	2.32655
2508.83	2.16892
2510.21	2.95842
2511.59	2.74988
2512.97	3.07683
2514.35	2.32146
2515.73	2.06528
2517.11	1.25396
2518.48	1.50797
2519.86	1.76973
2521.24	2.38273
2522.62	3.47667
2524	4.13117
2525.38	4.65326
2526.75	4.92912
2528.13	5.40196
2529.51	5.45318
2530.89	4.92388
2532.26	5.6918
2533.64	5.8464
2535.02	6.91156
2536.39	7.12536
2537.77	7.07977
2539.14	7.27644
2540.52	8.23123
2541.89	8.88927
2543.27	9.71292
2544.64	10.3997
2546.01	10.8134
2547.39	10.5542
2548.76	10.414
2550.14	9.94281
2551.51	9.78456
2552.88	8.95172
2554.25	8.1508
2555.63	8.49722
2557	8.6988
2558.37	8.87259
2559.74	9.22624
2561.11	9.2829
2562.49	9.41795
2563.86	8.75356
2565.23	8.07888
2566.6	8.18988
2567.97	7.77895
2569.34	6.73094
2570.71	6.53561
2572.08	6.50106
2573.45	5.41596
2574.82	5.7802
2576.18	5.12196
2577.55	4.61109
2578.92	4.23026
2580.29	2.97845
2581.66	2.83899
2583.02	2.27536
2584.39	2.96057
2585.76	3.41632
2587.13	4.35435
2588.49	4.5858
2589.86	5.40731
2591.22	5.06914
2592.59	4.94262
2593.96	4.59321
2595.32	4.54187
2596.69	4.26571
2598.05	3.66378
2599.42	4.33544
2600.78	4.97025
2602.14	4.56409
2603.51	5.70281
2604.87	5.6693
2606.23	6.1545
2607.6	4.92661
2608.96	4.95837
2610.32	4.45287
2611.69	3.89668
2613.05	3.24266
2614.41	2.42714
2615.77	2.37269
2617.13	2.70182
2618.49	2.74439
2619.86	2.67633
2621.22	3.7666
2622.58	4.52401
2623.94	5.35353
2625.3	4.95485
2626.66	4.85856
2628.02	5.27381
2629.37	5.7037
2630.73	5.40948
2632.09	4.79925
2633.45	5.22857
2634.81	4.66525
2636.17	4.49472
2637.53	4.09835
2638.88	3.54919
2640.24	3.45576
2641.6	2.87147
2642.96	3.63886
2644.31	3.4651
2645.67	3.02479
2647.02	2.68623
2648.38	2.89549
2649.74	2.69684
2651.09	2.69722
2652.45	2.69336
2653.8	2.98627
2655.16	3.39133
2656.51	4.17868
2657.86	3.27364
2659.22	3.41013
2660.57	3.15033
2661.93	2.74034
2663.28	2.92961
2664.63	3.08088
2665.98	2.99123
2667.34	2.8477
2668.69	2.19166
2670.04	2.00546
2671.39	2.91937
2672.75	2.71261
2674.09	3.0538
2675.45	2.34007
2676.8	2.91497
2678.15	2.67308
2679.5	2.70904
2680.85	3.59613
2682.2	3.85795
2683.55	4.33867
2684.9	4.34592
2686.25	4.45988
2687.6	5.36164
2688.94	6.18826
2690.29	6.96852
2691.64	7.77918
2692.99	7.97538
2694.34	8.68882
2695.68	9.42964
2697.03	9.85507
2698.38	9.8243
2699.73	10.2188
2701.07	10.6366
2702.42	10.5205
2703.76	11.2097
2705.11	11.0873
2706.45	11.8215
2707.8	12.5918
2709.15	13.3163
2710.49	13.7736
2711.83	13.2193
2713.18	12.9002
2714.52	12.8495
2715.87	13.4044
2717.21	13.0036
2718.55	13.7552
2719.9	14.0067
2721.24	13.9315
2722.58	13.9396
2723.93	13.5521
2725.27	12.3657
2726.61	12.7362
2727.95	12.3026
2729.29	12.3821
2730.63	11.9605
2731.98	11.3121
2733.32	10.7408
2734.66	10.3004
2736	10.4049
2737.34	10.5321
2738.68	10.8453
2740.02	9.99873
2741.36	9.07731
2742.7	7.97054
2744.03	7.76405
2745.37	7.27274
2746.71	6.98248
2748.05	6.5925
2749.39	5.82773
2750.72	5.75346
2752.06	6.04816
2753.4	5.99064
2754.74	6.22711
2756.07	5.93832
2757.41	5.96269
2758.75	5.35041
2760.08	4.90932
2761.42	4.6196
2762.76	4.97379
2764.09	5.06552
2765.42	4.78361
2766.76	4.37051
2768.09	3.81117
2769.43	3.82868
2770.76	3.47416
2772.1	3.42957
2773.43	3.56503
2774.76	3.0722
2776.1	3.30524
2777.43	2.55217
2778.76	2.09022
2780.1	1.91938
2781.43	1.6539
2782.76	1.8242
2784.09	0.920242
2785.42	0.354633
2786.75	0.191245
2788.09	0.0082596
2789.42	0.735572
2790.75	0.225344
2792.08	0.482193
2793.41	0.470114
2794.74	0.498627
2796.07	0.234839
2797.4	0.135656
2798.73	0.466268
2800.06	0.443942
2801.39	0.667478
2802.71	0.828247
2804.04	0.599301
2805.37	0.573149
2806.7	0.12
2808.03	0.0836084
2809.35	0.077619
2810.68	1.27503
2812.01	1.24846
2813.33	1.45325
2814.66	2.32825
2815.99	2.63861
2817.31	3.02816
2818.64	3.73505
2819.96	4.27804
2821.29	4.8948
2822.61	5.22113
2823.94	6.26142
2825.26	7.73572
2826.59	9.27614
2827.91	11.203
2829.23	12.3862
2830.56	13.7186
2831.88	15.4043
2833.21	16.7029
2834.53	18.3164
2835.85	20.0652
2837.17	21.6047
2838.5	23.4622
2839.82	24.7054
2841.14	26.4502
2842.46	28.8923
2843.78	30.952
2845.1	33.4349
2846.42	35.6253
2847.74	38.4335
2849.06	41.1539
2850.38	44.263
2851.71	47.9812
2853.03	51.1576
2854.34	54.7789
2855.66	58.6001
2856.98	62.4074
2858.3	65.9867
2859.62	67.8525
2860.94	70.7533
2862.26	73.3445
2863.57	75.7182
2864.89	78.1867
2866.21	80.2662
2867.53	82.4497
2868.84	84.6479
2870.16	86.7545
2871.48	89.1625
2872.79	91.2478
2874.11	93.5025
2875.42	95.7175
2876.74	98.6411
2878.05	99.6666
2879.37	100.983
2880.68	102.658
2882	103.586
2883.31	105.426
2884.63	107.297
2885.94	109.102
2887.26	110.294
2888.57	112.16
2889.88	115.01
2891.19	116.289
2892.51	118.003
2893.82	119.22
2895.13	120.346
2896.44	122.814
2897.76	124.081
2899.07	125.668
2900.38	127.05
2901.69	129.414
2903	132.313
2904.31	135.634
2905.62	138.847
2906.93	142.591
2908.24	146.774
2909.55	150.455
2910.86	154.23
2912.17	158.79
2913.48	163.561
2914.79	167.047
2916.1	171.668
2917.41	174.515
2918.71	176.794
2920.02	179.838
2921.33	182.646
2922.64	183.957
2923.94	184.746
2925.25	185.948
2926.56	187.208
2927.86	187.249
2929.17	187.548
2930.48	187.732
2931.78	188.039
2933.09	188.198
2934.39	187.178
2935.7	185.623
2937	184.538
2938.31	183.072
2939.61	181.61
2940.92	179.086
2942.22	176.865
2943.53	173.543
2944.83	170.764
2946.13	167.664
2947.43	164.59
2948.74	161.113
2950.04	157.997
2951.34	154.286
2952.64	150.828
2953.95	147.47
2955.25	143.834
2956.55	139.588
2957.85	136.379
2959.15	133.072
2960.45	130.106
2961.75	127.122
2963.05	123.227
2964.35	120.112
2965.65	116.196
2966.95	114.078
2968.25	110.856
2969.55	107.691
2970.85	104.118
2972.15	101.469
2973.45	98.7766
2974.75	96.4316
2976.05	93.4059
2977.34	90.5559
2978.64	86.8659
2979.94	83.0311
2981.24	79.9071
2982.53	75.4008
2983.83	72.1931
2985.13	69.1245
2986.42	65.4947
2987.72	61.4025
2989.01	57.8972
2990.31	54.4332
2991.61	50.6354
2992.9	47.9443
2994.19	45.743
2995.49	42.7645
2996.78	39.8536
2998.08	36.5991
2999.37	33.0771
3000.67	31.0423
3001.96	29.2538
3003.25	27.3349
3004.55	24.884
3005.84	22.0117
3007.13	20.8882
3008.42	19.1579
3009.72	17.6154
3011.01	15.9633
3012.3	14.2896
3013.59	12.7904
3014.88	11.791
3016.17	10.6669
3017.46	10.0492
3018.76	9.05007
3020.05	7.77476
3021.34	6.95423
3022.63	6.00933
3023.92	5.82406
3025.21	4.87826
3026.49	3.42798
3027.78	2.67812
3029.07	2.36098
3030.36	2.05325
3031.65	2.28704
3032.94	1.75964
3034.23	2.0526
3035.51	2.32841
3036.8	2.646
3038.09	3.92995
3039.38	4.18911
3040.66	4.1055
3041.95	3.60518
3043.23	4.02749
3044.52	4.32249
3045.81	4.70443
3047.09	4.645
3048.38	4.57345
3049.66	4.41893
3050.95	4.39369
3052.23	5.2664
3053.52	5.92822
3054.8	6.5455
3056.09	6.40177
3057.37	7.15575
3058.65	6.58158
3059.94	6.4623
3061.22	6.53572
3062.5	6.62567
3063.79	6.86917
3065.07	7.07856
3066.35	7.22431
3067.63	6.88293
3068.92	6.43879
3070.2	6.42419
3071.48	6.85196
3072.76	5.8376
3074.04	5.20381
3075.32	4.62542
3076.6	4.11767
3077.88	3.92254
3079.16	3.25885
3080.44	3.34753
3081.72	2.64159
3083	2.03152
3084.28	1.09478
3085.56	0.965997
3086.84	0.564852
3088.12	0.307886
3089.4	-0.232981
3090.67	-0.562094
3091.95	-0.040404
3093.23	-0.469905
3094.51	-0.936258
3095.78	-0.659849
3097.06	-0.997295
3098.34	-0.500279
3099.61	0.00255263
3100.89	0.9285
3102.17	1.48985
3103.44	0.554984
3104.72	1.34058
3105.99	1.51598
3107.27	2.08911
3108.54	2.38987
3109.82	3.14947
3111.09	2.84668
3112.37	3.1655
3113.64	3.81065
3114.92	4.63264
3116.19	5.74611
3117.46	6.46139
3118.74	6.63401
3120.01	7.02133
3121.28	8.06319
3122.55	8.12312
3123.83	9.2104
3125.1	9.52434
3126.37	10.442
3127.64	11.0719
3128.91	11.6342
3130.19	12.4876
3131.46	12.9833
3132.73	13.806
3134	14.5663
3135.27	15.3503
3136.54	15.4366
3137.81	16.0226
3139.08	16.2316
3140.35	16.3743
3141.62	16.5735
3142.89	16.8089
3144.16	16.9029
3145.42	17.0784
3146.69	17.1069
3147.96	17.3876
3149.23	17.7038
