#Acq. time (s)=	45
#Accumulations=	2
#Range (cm-¹)=	200...3150
#Windows=	2
#Auto scanning=	Off
#Autofocus=	Off
#Macrospot=	Off
#AutoExposure=	Off
#Spike filter=	Multiple accum.
#Delay time (s)=	0
#Binning=	1
#Readout mode=	Signal
#DeNoise=	Off
#ICS correction=	On
#Dark correction=	Off
#Inst. Process=	Off
#Detector Gain=	Best Dynamic Range
#Detector ADC=	20 kHz       
#Detector temperature (°C)=	-69.85
#Instrument=	LabRAM HR Evol
#Detector=	Synapse
#Objective=	x100
#Grating=	600 gr/mm
#ND Filter=	100%
#Laser (nm)=	532 
#Hole=	100.021
#Range=	Auto
#Laser Pol.=	No
#Raman. Pol.=	No
#Laser Pol. (°)=	-0.0007625
#Raman Pol. (°)=	89.9995
#Collection=	Microscope
#StageXY=	Marzhauser
#StageZ=	Marzhauser
#X (µm)=	4740.7
#Y (µm)=	-7738.4
#Z (µm)=	584.6
#Full time(mm:ss)=	3:18
#Project=	
#Sample=	
#Site=	
#Title=	Thy_30_10_10_2x_45s_532 nm_x100_100%_600 gr_mm
#Remark=	
#Date=	30.06.2022 12:03
#Acquired=	30.06.2022 12:03:59
#Base:Fit=	10.08.2022 09:58:11
#Base:Sub=	10.08.2022 09:58:44
#Filter:Polynom=	16.08.2022 10:22:53
#AxisType[0]=Intens
#AxisUnit[0]=Cnt
#AxisType[1]=Spectr
#AxisUnit[1]=1/cm
200.533	2.77775
202.348	2.74046
204.162	2.34845
205.976	2.49118
207.792	2.15512
209.605	1.93029
211.418	2.08859
213.23	2.4724
215.044	2.94133
216.856	3.00008
218.667	2.70628
220.478	2.96827
222.289	2.55156
224.102	2.11822
225.912	1.22371
227.721	1.63451
229.531	2.28538
231.34	2.44351
233.148	3.22384
234.956	3.1704
236.766	3.76667
238.574	3.57222
240.381	3.32624
242.188	3.48017
243.994	3.33756
245.801	3.34612
247.606	3.61249
249.412	3.48926
251.217	3.71317
253.024	4.01906
254.828	3.92455
256.632	3.67752
258.436	3.73318
260.239	3.66787
262.042	4.25134
263.845	5.79859
265.647	5.54877
267.449	5.62095
269.25	5.70075
271.052	6.31404
272.852	5.27034
274.653	5.00565
276.453	4.58849
278.253	4.90769
280.052	4.84626
281.852	3.62118
283.65	4.16185
285.449	5.06925
287.247	5.23137
289.044	5.46049
290.842	5.60558
292.639	6.22885
294.436	7.69368
296.232	8.22275
298.028	9.20981
299.821	10.6247
301.617	10.9185
303.412	11.1453
305.206	11.0968
307	11.3795
308.794	11.1616
310.588	11.763
312.381	13.0535
314.172	13.8907
315.964	15.2373
317.756	16.128
319.548	17.131
321.34	17.7353
323.131	18.9297
324.921	19.4686
326.71	19.8709
328.5	20.1386
330.29	19.881
332.079	20.5105
333.868	20.0276
335.654	19.7452
337.443	20.2767
339.231	19.7298
341.018	19.7122
342.804	19.0916
344.591	18.4963
346.377	17.7261
348.163	17.329
349.947	16.9301
351.733	16.8288
353.518	15.8591
355.303	14.2979
357.085	13.0515
358.869	11.3902
360.653	11.1693
362.435	9.96006
364.218	9.19812
366.001	8.24616
367.781	8.2529
369.563	8.50496
371.345	7.76706
373.124	8.0987
374.905	8.20652
376.686	7.71748
378.464	7.50762
380.244	7.41863
382.022	8.04436
383.801	8.253
385.58	7.53711
387.357	7.44985
389.135	7.5041
390.911	5.93807
392.689	6.08685
394.466	6.66084
396.241	7.11476
398.018	7.01575
399.792	7.95399
401.568	9.05187
403.341	8.48655
405.117	8.59026
406.889	8.40163
408.664	10.0331
410.436	9.34155
412.21	9.70827
413.981	9.20242
415.755	8.91103
417.525	8.64596
419.298	6.87437
421.068	7.52577
422.84	6.32739
424.609	6.64718
426.38	6.93716
428.149	6.5917
429.919	6.09917
431.688	5.70045
433.455	4.94069
435.225	3.47787
436.992	3.2581
438.76	4.14379
440.527	4.14603
442.293	4.05697
444.06	3.63197
445.826	3.0055
447.593	3.30635
449.357	3.55712
451.122	3.63063
452.888	3.12698
454.651	3.19791
456.415	3.82013
458.18	3.39655
459.942	1.903
461.705	1.994
463.469	2.13608
465.23	1.92159
466.991	2.37618
468.752	2.34772
470.515	3.15792
472.275	3.52811
474.035	4.28241
475.797	4.38334
477.556	4.93482
479.315	5.39422
481.073	6.78889
482.834	7.29153
484.592	7.18024
486.349	6.56693
488.106	6.86093
489.863	6.84541
491.622	7.43288
493.378	7.23843
495.134	7.8789
496.889	8.11316
498.645	7.16832
500.401	7.64841
502.156	7.85132
503.91	8.414
505.664	8.21944
507.417	7.78076
509.171	9.09017
510.923	8.80996
512.678	9.79171
514.43	9.54686
516.182	9.80366
517.933	9.13926
519.684	8.88242
521.435	9.16091
523.186	10.0181
524.936	10.6942
526.686	10.667
528.435	10.1515
530.184	9.72209
531.933	8.99591
533.682	8.68746
535.43	8.44933
537.18	7.28369
538.927	6.19579
540.674	5.83069
542.421	5.67698
544.167	5.09559
545.913	4.06436
547.659	3.45982
549.403	3.6069
551.148	3.3929
552.893	3.47318
554.637	3.79995
556.381	3.21329
558.125	3.46266
559.868	3.7025
561.611	3.04102
563.354	2.70808
565.097	2.05427
566.839	1.91152
568.581	1.27659
570.322	0.266186
572.063	0.119658
573.802	-0.769785
575.542	0.409903
577.283	0.0659236
579.022	0.239876
580.762	-0.214017
582.501	-0.203552
584.24	-0.851598
585.976	-0.524463
587.714	-0.19719
589.452	1.19529
591.19	1.78595
592.927	1.71779
594.663	1.59405
596.398	2.46966
598.134	2.90096
599.87	3.35514
601.605	2.96675
603.338	3.45548
605.073	4.34286
606.808	4.82987
608.542	5.83769
610.274	5.38591
612.007	5.36192
613.74	6.10659
615.473	6.87052
617.204	6.39493
618.936	7.16485
620.668	7.31731
622.397	6.69712
624.128	6.71951
625.859	6.64216
627.588	7.07493
629.318	6.09974
631.048	6.04524
632.775	6.07769
634.505	6.14485
636.233	6.06383
637.96	5.97562
639.688	6.34147
641.416	6.04747
643.142	5.55972
644.869	5.23616
646.594	5.32256
648.32	5.27195
650.045	5.03725
651.771	3.8022
653.496	3.86177
655.219	3.91522
656.944	3.71956
658.667	3.9638
660.391	3.29434
662.113	3.36055
663.837	2.72368
665.558	2.73765
667.281	2.5284
669.002	2.87537
670.724	3.3748
672.444	4.53773
674.166	5.44434
675.885	6.4134
677.606	6.51585
679.325	6.37446
681.045	6.89858
682.763	7.83668
684.483	8.46588
686.2	8.32545
687.917	8.8829
689.636	10.4762
691.352	11.3954
693.07	11.4467
694.786	11.7334
696.501	12.0002
698.219	13.0138
699.933	13.1077
701.65	13.1775
703.364	14.1608
705.078	15.2699
706.793	15.0319
708.506	15.3759
710.219	16.1886
711.934	17.0017
713.646	18.6986
715.358	19.7202
717.071	21.5172
718.782	21.8797
720.493	22.8787
722.204	23.3977
723.916	23.8337
725.626	24.4666
727.336	24.569
729.045	25.4564
730.756	26.0245
732.464	27.5362
734.173	27.8728
735.881	26.8307
737.59	26.7934
739.297	27.2641
741.004	28.665
742.711	29.4458
744.417	30.9447
746.125	32.4519
747.831	34.3788
749.537	35.8536
751.242	36.4689
752.946	37.7426
754.651	39.6373
756.357	39.888
758.061	40.7236
759.764	41.5305
761.467	42.2973
763.17	43.3178
764.872	44.3836
766.575	44.9083
768.276	45.5875
769.978	46.3488
771.679	47.0932
773.382	48.0974
775.083	50.1437
776.783	51.2696
778.483	51.3623
780.182	51.7021
781.882	52.9492
783.581	53.5181
785.279	54.5021
786.978	55.7239
788.676	56.8296
790.373	57.4444
792.071	58.541
793.768	59.8891
795.464	60.3111
797.161	61.4982
798.857	62.6243
800.552	63.3181
802.248	63.5477
803.941	63.336
805.636	63.9971
807.33	64.1498
809.024	64.5204
810.718	64.4812
812.412	63.8799
814.105	63.8712
815.798	63.4631
817.49	62.9719
819.183	61.1376
820.873	59.613
822.564	59.9628
824.256	60.4745
825.947	61.3959
827.637	61.243
829.328	61.5149
831.016	60.407
832.705	59.1647
834.395	57.2507
836.084	56.4444
837.772	56.2124
839.459	54.9887
841.147	54.7394
842.835	54.8512
844.522	53.952
846.209	54.1412
847.894	52.908
849.581	52.0916
851.267	51.3611
852.953	50.7448
854.637	49.976
856.322	48.7307
858.007	48.3965
859.689	48.6589
861.374	47.5545
863.058	45.9184
864.739	45.0053
866.423	44.1994
868.106	43.3073
869.787	43.3141
871.469	43.5889
873.151	43.2581
874.831	43.1425
876.512	42.6068
878.193	41.6938
879.872	42.3254
881.553	42.9879
883.231	42.9581
884.911	42.7817
886.591	41.7514
888.268	41.2162
889.947	41.7689
891.623	41.1674
893.302	40.93
894.978	40.7214
896.656	40.2481
898.331	40.6161
900.008	40.3451
901.683	39.222
903.359	38.5509
905.033	38.8204
906.709	39.1198
908.383	38.4249
910.058	37.9017
911.731	37.1433
913.405	36.6859
915.078	35.8134
916.752	35.7001
918.423	35.4691
920.096	36.2665
921.768	36.3346
923.438	36.3142
925.111	36.9722
926.781	35.6668
928.452	34.3743
930.122	34.4834
931.791	32.6511
933.462	32.7728
935.13	31.9758
936.799	31.1987
938.468	30.7123
940.136	29.934
941.803	29.9905
943.472	28.7566
945.139	28.7067
946.805	27.1006
948.473	27.0949
950.139	27.9087
951.804	28.2227
953.471	27.7605
955.136	27.2184
956.801	25.9816
958.465	25.3049
960.131	25.2244
961.794	25.3765
963.458	25.262
965.12	24.16
966.785	24.614
968.447	24.9294
970.109	24.2485
971.771	24.6093
973.432	25.3312
975.095	25.9191
976.756	26.5773
978.417	26.8926
980.077	26.9398
981.737	26.69
983.396	25.7835
985.057	25.1568
986.716	25.4519
988.375	24.0464
990.033	22.0767
991.691	21.6513
993.349	21.4708
995.006	21.7164
996.663	22.0094
998.32	22.6529
999.976	22.498
1001.63	22.6003
1003.29	22.5841
1004.95	22.353
1006.6	21.7623
1008.26	21.7521
1009.91	20.666
1011.56	20.8114
1013.22	20.1562
1014.87	19.7388
1016.53	20.5876
1018.18	19.9326
1019.83	19.2061
1021.48	18.3109
1023.14	17.7276
1024.79	17.1323
1026.44	16.8823
1028.09	17.0398
1029.74	15.6008
1031.39	15.8446
1033.04	15.4796
1034.69	14.3137
1036.34	12.5824
1037.99	12.2227
1039.64	11.4921
1041.29	12.0458
1042.94	12.3898
1044.58	11.7482
1046.23	11.0482
1047.88	10.9867
1049.52	10.9309
1051.17	10.0668
1052.82	10.0226
1054.46	10.8914
1056.11	11.5383
1057.75	12.0692
1059.4	11.413
1061.04	11.6529
1062.69	10.4683
1064.33	8.69896
1065.98	8.63208
1067.62	8.19374
1069.26	7.44254
1070.9	6.44536
1072.55	7.57531
1074.19	8.25514
1075.83	8.9464
1077.47	9.25963
1079.11	9.34274
1080.76	9.7538
1082.4	10.127
1084.04	9.62086
1085.68	9.41715
1087.32	9.21607
1088.95	9.41104
1090.59	9.62644
1092.23	9.02364
1093.87	9.57556
1095.51	8.17632
1097.15	8.35638
1098.78	8.64735
1100.42	7.90062
1102.06	7.90098
1103.69	7.82738
1105.33	7.67602
1106.97	7.56037
1108.6	8.64634
1110.24	9.02375
1111.87	8.33014
1113.51	8.10036
1115.14	6.91581
1116.77	5.88141
1118.41	5.30258
1120.04	5.99751
1121.67	5.127
1123.31	5.49986
1124.94	4.52992
1126.57	3.64802
1128.2	3.73436
1129.83	4.03569
1131.47	4.49065
1133.1	5.53301
1134.72	5.80498
1136.36	6.02748
1137.98	6.05044
1139.62	5.94958
1141.24	5.46339
1142.87	4.66673
1144.5	2.94772
1146.13	3.67183
1147.76	4.62578
1149.38	4.69338
1151.01	5.44213
1152.64	5.98131
1154.27	6.0979
1155.89	5.08756
1157.52	6.03157
1159.14	5.43362
1160.77	5.38775
1162.39	5.22204
1164.02	4.48639
1165.64	3.9263
1167.27	3.70863
1168.89	4.0011
1170.51	4.53645
1172.14	4.30797
1173.76	5.25152
1175.38	4.66064
1177	4.31698
1178.63	4.74364
1180.25	4.76433
1181.87	4.51721
1183.49	4.66944
1185.11	4.7165
1186.73	5.58068
1188.35	5.13906
1189.97	4.81441
1191.59	3.75008
1193.21	2.69019
1194.83	3.26656
1196.45	3.50129
1198.07	4.07471
1199.68	5.23556
1201.3	5.17315
1202.92	5.24023
1204.53	6.67493
1206.15	7.63817
1207.77	8.71451
1209.38	10.2891
1211	11.6666
1212.62	12.7682
1214.23	14.8651
1215.84	15.3218
1217.46	16.8577
1219.07	17.6897
1220.69	19.2023
1222.3	19.925
1223.91	20.9828
1225.53	22.3486
1227.14	23.6325
1228.75	25.1705
1230.36	26.3522
1231.97	27.5778
1233.59	27.8213
1235.2	27.6073
1236.81	27.6062
1238.42	28.7732
1240.03	28.6563
1241.64	29.5334
1243.25	30.0819
1244.85	30.3122
1246.46	31.6958
1248.07	32.1747
1249.68	33.6159
1251.29	34.5218
1252.9	35.1842
1254.5	35.2873
1256.11	35.1647
1257.72	35.9725
1259.32	36.0591
1260.93	36.6137
1262.54	37.0353
1264.14	37.6567
1265.75	38.3199
1267.35	39.2553
1268.96	37.9565
1270.56	38.7832
1272.16	40.2057
1273.77	40.4195
1275.37	40.8476
1276.97	41.0704
1278.57	41.1293
1280.18	41.9276
1281.78	40.9329
1283.38	41.4539
1284.98	42.2328
1286.58	42.6685
1288.18	43.0585
1289.78	44.1742
1291.38	45.2334
1292.99	45.6687
1294.58	46.4471
1296.18	46.1977
1297.78	45.7915
1299.38	45.857
1300.98	46.4106
1302.58	46.0695
1304.17	46.168
1305.77	46.2742
1307.37	45.255
1308.97	45.3082
1310.56	44.9894
1312.16	44.5349
1313.76	43.945
1315.35	43.9998
1316.95	44.5281
1318.54	45.3088
1320.14	45.1263
1321.73	45.6079
1323.32	45.5325
1324.92	45.504
1326.51	45.9419
1328.1	45.9076
1329.7	45.6957
1331.29	45.6333
1332.88	44.9071
1334.47	44.7991
1336.07	44.8659
1337.66	44.903
1339.25	44.0298
1340.84	43.7441
1342.43	43.7439
1344.02	44.1998
1345.61	43.2724
1347.2	42.0305
1348.79	40.9104
1350.37	41.344
1351.96	40.9471
1353.55	39.9567
1355.14	39.853
1356.73	39.0426
1358.31	37.7955
1359.9	36.7765
1361.49	35.3637
1363.07	35.0977
1364.66	34.9128
1366.25	34.5982
1367.83	35.4083
1369.42	36.1915
1371	35.7606
1372.59	34.4752
1374.17	34.1377
1375.75	33.946
1377.34	32.8807
1378.92	32.5067
1380.5	32.8258
1382.09	31.4899
1383.67	30.7529
1385.25	30.5208
1386.83	29.7306
1388.42	29.4398
1390	29.6047
1391.58	29.4694
1393.16	29.2662
1394.74	27.8489
1396.32	26.6292
1397.9	25.9844
1399.48	24.608
1401.06	24.0365
1402.64	23.5565
1404.21	22.8296
1405.79	22.8636
1407.37	22.7709
1408.95	22.2065
1410.53	22.3053
1412.1	22.3014
1413.68	22.3455
1415.26	22.8434
1416.83	23.8266
1418.41	23.4552
1419.98	25.1379
1421.56	26.5197
1423.13	26.9168
1424.71	27.2295
1426.28	28.6975
1427.86	30.737
1429.43	33.2081
1431	35.542
1432.58	37.926
1434.15	39.2812
1435.72	41.2989
1437.29	42.6642
1438.87	44.2356
1440.44	46.0924
1442.01	47.6109
1443.58	49.489
1445.15	51.2848
1446.72	52.6514
1448.29	53.2017
1449.86	53.3743
1451.43	53.7133
1453	54.6789
1454.57	54.6456
1456.14	54.2128
1457.71	53.9797
1459.27	53.6094
1460.84	51.9014
1462.41	51.2296
1463.98	50.4406
1465.54	48.1523
1467.11	46.3808
1468.67	44.6703
1470.24	41.8971
1471.81	39.2671
1473.37	36.5785
1474.94	35.1085
1476.5	33.2253
1478.07	30.8108
1479.63	29.2405
1481.19	26.752
1482.76	24.363
1484.32	22.8904
1485.88	21.3565
1487.45	19.9137
1489.01	19.0192
1490.57	17.932
1492.13	16.5203
1493.69	15.874
1495.26	15.0443
1496.82	13.7513
1498.38	13.4367
1499.94	12.8063
1501.5	12.0453
1503.06	12.5423
1504.62	13.8328
1506.17	15.0478
1507.73	16.0626
1509.29	15.3202
1510.85	15.17
1512.41	15.0693
1513.97	15.6139
1515.52	15.2845
1517.08	14.9124
1518.64	15.4343
1520.19	16.4331
1521.75	18.2941
1523.31	18.7415
1524.86	20.1361
1526.42	21.2648
1527.97	21.0557
1529.52	22.439
1531.08	23.4729
1532.63	24.1091
1534.19	24.9244
1535.74	25.0944
1537.29	25.1557
1538.85	25.1986
1540.4	26.1994
1541.95	26.8241
1543.5	26.4484
1545.06	28.4193
1546.61	29.4872
1548.16	30.6096
1549.71	31.9041
1551.26	33.1537
1552.81	34.4095
1554.36	35.6686
1555.91	36.9566
1557.46	39.2744
1559.01	41.2351
1560.56	43.4432
1562.11	44.8236
1563.65	46.1013
1565.2	47.8046
1566.75	48.6279
1568.29	49.8549
1569.84	50.6354
1571.39	51.7641
1572.94	52.6905
1574.48	53.1868
1576.03	54.7284
1577.57	55.7253
1579.12	56.076
1580.66	56.4062
1582.21	56.9569
1583.75	56.5464
1585.3	56.0619
1586.84	55.7933
1588.38	56.5784
1589.93	57.1091
1591.47	57.054
1593.01	56.8486
1594.55	56.8754
1596.1	57.9998
1597.64	58.1581
1599.18	58.1018
1600.72	57.5546
1602.26	58.4235
1603.8	57.6195
1605.34	57.1269
1606.88	57.5633
1608.42	56.1118
1609.96	54.9472
1611.5	53.624
1613.04	51.9313
1614.58	51.5449
1616.12	52.1723
1617.65	51.9278
1619.19	52.0564
1620.73	51.8695
1622.27	52.8936
1623.8	52.8766
1625.34	52.5903
1626.87	52.8322
1628.41	52.8686
1629.95	53.4174
1631.48	54.2566
1633.02	54.6375
1634.55	54.796
1636.09	54.7859
1637.62	54.7266
1639.15	54.4355
1640.69	55.097
1642.22	55.8763
1643.76	55.9134
1645.29	56.3327
1646.82	56.8341
1648.35	57.1761
1649.88	57.0501
1651.42	57.0647
1652.95	57.0241
1654.48	56.6093
1656.01	57.0357
1657.54	56.8802
1659.07	57.5578
1660.6	57.6993
1662.13	56.7549
1663.66	56.5039
1665.19	56.9318
1666.72	56.5995
1668.24	55.1954
1669.77	54.7929
1671.3	54.2986
1672.83	53.3754
1674.35	52.5327
1675.88	51.8118
1677.41	50.6661
1678.93	48.9308
1680.46	46.6715
1681.99	44.2862
1683.51	41.3198
1685.04	38.8403
1686.56	36.6582
1688.09	34.8321
1689.61	33.6506
1691.13	32.9747
1692.66	31.116
1694.18	28.4171
1695.71	27.1876
1697.23	25.0083
1698.75	23.4989
1700.27	21.1427
1701.8	18.9705
1703.32	17.0975
1704.84	15.2357
1706.36	14.1042
1707.88	12.0444
1709.4	9.81663
1710.92	8.92373
1712.44	8.04016
1713.96	7.4112
1715.48	6.60043
1717	6.67139
1718.52	6.59621
1720.04	5.87819
1721.56	5.68589
1723.07	5.5472
1724.59	4.86733
1726.11	4.853
1727.63	5.43491
1729.14	5.94883
1730.66	6.60619
1732.18	6.82674
1733.69	6.67683
1735.21	7.47648
1736.72	7.22957
1738.24	6.75072
1739.75	7.71873
1741.27	8.37379
1742.78	8.31934
1744.3	7.99691
1745.81	8.4862
1747.32	8.23208
1748.84	7.73392
1750.35	7.98152
1751.86	7.60882
1753.37	7.59407
1754.89	6.87475
1756.4	6.5022
1757.91	6.25694
1759.42	6.49963
1760.93	6.77611
1762.44	6.27507
1763.95	6.04899
1765.46	5.57632
1766.97	4.77172
1768.48	4.08258
1769.99	3.47212
1771.5	3.27626
1773.01	3.15535
1774.52	2.91709
1776.03	2.79688
1777.53	2.57214
1779.04	2.55386
1780.55	2.36332
1782.06	2.08352
1783.56	1.96569
1785.07	2.19947
1786.57	2.78654
1788.08	2.7672
1789.59	3.48944
1791.09	3.42343
1792.6	4.14591
1794.1	4.32049
1795.6	4.37359
1797.11	4.56645
1798.61	5.09516
1800.12	5.48981
1801.62	6.07598
1803.12	6.53693
1804.63	6.37129
1806.13	6.7378
1807.63	6.77539
1809.13	7.38784
1810.63	7.7179
1812.14	7.39692
1813.64	7.58476
1815.14	7.8433
1816.64	7.91594
1818.14	7.65756
1819.64	7.73939
1821.14	7.83942
1822.64	7.66874
1824.14	7.81942
1825.63	7.95414
1827.13	8.10528
1828.63	8.13323
1830.13	7.3258
1831.63	6.65631
1833.12	6.36099
1834.62	5.94539
1836.12	4.68693
1837.62	3.99002
1839.11	3.60873
1840.61	3.37996
1842.1	3.21802
1843.6	3.49141
1845.09	3.43867
1846.59	3.48996
1848.08	3.49579
1849.58	2.73148
1851.07	1.74102
1852.57	1.05876
1854.06	1.36173
1855.55	0.547192
1857.04	0.0486501
1858.54	-0.70256
1860.03	-0.591546
1861.52	-0.791712
1863.01	-0.414752
1864.5	-0.249813
1866	-0.391264
1867.49	0.0448954
1868.98	-0.0827836
1870.47	-0.108377
1871.96	0.226481
1873.45	0.257535
1874.94	0.230509
1876.43	0.585178
1877.92	0.316005
1879.41	0.187299
1880.89	0.704258
1882.38	1.08716
1882.48	1.5622
1883.97	1.92235
1885.47	2.24875
1886.96	3.45265
1888.46	3.82605
1889.95	3.71135
1891.44	3.82507
1892.94	4.13682
1894.43	4.62081
1895.92	4.7407
1897.41	4.85435
1898.9	4.82386
1900.4	5.19065
1901.89	4.65897
1903.38	4.3309
1904.87	3.86639
1906.36	3.99884
1907.85	4.4822
1909.34	4.53225
1910.83	5.43794
1912.32	6.00985
1913.81	6.43516
1915.29	7.34908
1916.78	7.31288
1918.27	7.25607
1919.76	7.27109
1921.25	6.93611
1922.74	6.61764
1924.22	6.88378
1925.71	7.09809
1927.2	7.12033
1928.68	6.88925
1930.17	7.31588
1931.65	7.87257
1933.14	7.97684
1934.63	8.60412
1936.11	8.93357
1937.59	8.78987
1939.08	8.29767
1940.56	8.49574
1942.05	8.25895
1943.53	8.39459
1945.01	8.12035
1946.5	7.38511
1947.98	7.5412
1949.46	7.49713
1950.94	7.12862
1952.43	7.89176
1953.91	7.89572
1955.39	7.58819
1956.87	7.54627
1958.35	6.75828
1959.83	6.45092
1961.31	6.25713
1962.79	5.14244
1964.27	4.91814
1965.75	5.27065
1967.23	5.19405
1968.71	5.38376
1970.19	4.84473
1971.67	4.3653
1973.14	4.35313
1974.62	4.40618
1976.1	4.1182
1977.58	3.86968
1979.05	4.18914
1980.53	5.04432
1982.01	6.16537
1983.48	6.74415
1984.96	7.40254
1986.43	7.46125
1987.91	7.49514
1989.38	7.30271
1990.86	6.70802
1992.33	6.97663
1993.81	6.8879
1995.28	6.93417
1996.76	7.09126
1998.23	7.52647
1999.7	8.06394
2001.18	8.62937
2002.65	8.85647
2004.12	8.83171
2005.59	8.78844
2007.06	9.11311
2008.54	9.26799
2010.01	8.4245
2011.48	8.41494
2012.95	8.07041
2014.42	8.40609
2015.89	8.84279
2017.36	8.82071
2018.83	8.01463
2020.3	8.44323
2021.77	8.9947
2023.24	8.88734
2024.71	8.59276
2026.17	9.30536
2027.64	9.11578
2029.11	9.35108
2030.58	9.68759
2032.04	9.82777
2033.51	10.3731
2034.98	10.9287
2036.45	10.9192
2037.91	11.4389
2039.38	11.9717
2040.84	12.653
2042.31	12.8809
2043.77	13.041
2045.24	13.3034
2046.7	14.1635
2048.17	14.7084
2049.63	15.053
2051.1	15.0917
2052.56	15.864
2054.02	16.1491
2055.48	16.3609
2056.95	16.0021
2058.41	16.1879
2059.87	16.0563
2061.33	15.9409
2062.8	15.9245
2064.26	16.0528
2065.72	17.0389
2067.18	17.4494
2068.64	18.137
2070.1	18.0609
2071.56	18.5459
2073.02	17.9886
2074.48	17.4449
2075.94	17.8374
2077.4	18.0636
2078.86	18.4201
2080.31	18.5295
2081.77	17.9185
2083.23	17.9869
2084.69	18.3646
2086.14	18.6167
2087.6	19.1283
2089.06	19.6565
2090.52	19.846
2091.97	19.9984
2093.43	20.9825
2094.88	21.9957
2096.34	22.222
2097.79	22.9832
2099.25	23.9363
2100.7	23.8135
2102.16	24.4011
2103.61	24.985
2105.07	25.9526
2106.52	27.1587
2107.97	28.0457
2109.43	28.5665
2110.88	29.2063
2112.33	29.7638
2113.78	30.9153
2115.24	31.209
2116.69	32.5342
2118.14	33.9126
2119.59	34.2891
2121.04	34.6109
2122.49	35.3642
2123.94	35.8236
2125.39	36.6403
2126.84	37.845
2128.29	38.5759
2129.74	40.1225
2131.19	41.7876
2132.64	43.0256
2134.09	44.447
2135.54	45.9387
2136.98	47.0959
2138.43	48.862
2139.88	49.3141
2141.33	50.1745
2142.77	50.7036
2144.22	51.8644
2145.67	52.783
2147.11	54.475
2148.56	55.4401
2150.01	55.9694
2151.45	56.6627
2152.9	57.2632
2154.34	58.4266
2155.79	58.9436
2157.23	60.473
2158.67	60.8816
2160.12	61.7876
2161.56	62.4717
2163	62.9713
2164.45	63.1803
2165.89	64.1422
2167.33	64.9014
2168.78	64.8962
2170.22	64.9471
2171.66	65.1331
2173.1	65.6317
2174.54	66.1518
2175.98	65.7088
2177.42	66.0728
2178.86	65.9129
2180.3	64.6963
2181.74	64.2019
2183.18	63.655
2184.62	63.7149
2186.06	63.5473
2187.5	62.6372
2188.94	61.662
2190.38	60.3408
2191.82	59.0864
2193.25	58.6058
2194.69	57.5204
2196.13	56.1194
2197.57	55.4609
2199	55.2631
2200.44	53.8049
2201.88	53.1452
2203.31	52.0855
2204.75	51.0963
2206.18	49.8548
2207.62	48.0141
2209.05	46.8675
2210.49	45.9574
2211.92	44.789
2213.36	43.8665
2214.79	42.6257
2216.22	41.0006
2217.66	39.9158
2219.09	38.9106
2220.52	37.7693
2221.96	37.474
2223.39	36.153
2224.82	35.0325
2226.25	35.0539
2227.68	34.1138
2229.11	33.7399
2230.55	32.8071
2231.98	32.5322
2233.41	31.5939
2234.84	30.8803
2236.27	29.955
2237.7	29.9321
2239.12	29.0897
2240.55	28.2705
2241.98	27.8928
2243.41	28.0113
2244.84	27.7105
2246.27	27.2167
2247.7	26.6288
2249.12	26.6728
2250.55	25.8833
2251.98	25.1623
2253.41	24.3796
2254.83	24.1653
2256.26	24.2286
2257.68	23.5002
2259.11	23.5888
2260.54	23.3358
2261.96	23.2461
2263.39	23.2922
2264.81	22.7769
2266.24	21.9117
2267.66	21.9188
2269.08	22.2761
2270.51	22.1029
2271.93	21.7408
2273.35	21.2865
2274.78	21.3899
2276.2	20.6143
2277.62	20.0919
2279.04	19.558
2280.47	20.03
2281.89	19.4012
2283.31	19.1721
2284.73	18.7637
2286.15	18.3406
2287.57	18.2328
2288.99	18.1719
2290.41	17.8425
2291.83	16.8524
2293.25	16.2692
2294.67	15.5654
2296.09	16.2599
2297.51	16.6788
2298.93	15.9345
2300.35	15.9251
2301.76	16.1604
2303.18	16.0136
2304.6	15.9981
2306.02	16.0997
2307.44	16.6034
2308.85	16.215
2310.27	15.7338
2311.69	16.0914
2313.1	16.562
2314.52	16.2446
2315.93	16.0125
2317.35	16.6682
2318.76	16.7078
2320.18	17.1103
2321.59	17.2983
2323.01	17.4575
2324.42	18.305
2325.83	19.0697
2327.25	19.2674
2328.66	18.9666
2330.07	19.2789
2331.49	19.2356
2332.9	18.8984
2334.31	18.7026
2335.72	18.1345
2337.13	18.4232
2338.55	18.6347
2339.96	18.6274
2341.37	18.3132
2342.78	17.3122
2344.19	16.398
2345.6	16.1326
2347.01	15.4924
2348.42	15.3921
2349.83	15.4185
2351.24	15.6558
2352.65	15.2923
2354.05	15.1125
2355.46	14.1988
2356.87	13.5085
2358.28	12.8684
2359.69	11.6346
2361.09	11.2347
2362.5	10.4097
2363.91	10.054
2365.31	10.1373
2366.72	10.2835
2368.13	9.80981
2369.53	9.44069
2370.94	9.27795
2372.34	9.15359
2373.75	8.73758
2375.15	8.39165
2376.56	7.64775
2377.96	7.50357
2379.37	6.60933
2380.77	6.9771
2382.17	7.02977
2383.58	7.37599
2384.98	7.60524
2386.38	7.76809
2387.79	8.08778
2389.19	7.28397
2390.59	6.72701
2391.99	6.66676
2393.39	6.27989
2394.8	6.47902
2396.2	5.85183
2397.6	5.62206
2399	5.48462
2400.4	5.59808
2401.8	5.71212
2403.2	6.03445
2404.6	5.92966
2406	6.74589
2407.4	7.85933
2408.79	7.93544
2410.19	8.35726
2411.59	8.34512
2412.99	8.47693
2414.39	9.38253
2415.78	9.97871
2417.18	10.7142
2418.58	11.0129
2419.98	11.5306
2421.37	11.7044
2422.77	11.7198
2424.16	11.8409
2425.56	11.3493
2426.96	10.984
2428.35	10.9162
2429.74	11.0593
2431.14	11.4584
2432.53	11.0703
2433.93	11.0565
2435.32	11.4235
2436.72	11.6761
2438.11	11.1579
2439.5	10.6459
2440.9	10.7646
2442.29	10.8058
2443.68	10.5371
2445.07	10.454
2446.47	10.2614
2447.86	10.3598
2449.25	9.99434
2450.64	9.68573
2452.03	9.27103
2453.42	9.59303
2454.81	9.24438
2456.2	8.85406
2457.59	8.44664
2458.98	7.98339
2460.37	8.08996
2461.76	8.18379
2463.15	7.70956
2464.54	7.43996
2465.93	6.91107
2467.32	6.54529
2468.7	6.48578
2470.09	6.30884
2471.48	6.74897
2472.87	7.00307
2474.25	7.08574
2475.64	7.3207
2477.03	7.52996
2478.41	7.20203
2479.8	6.61151
2481.18	6.23194
2482.57	6.54614
2483.95	6.21768
2485.34	5.91344
2486.72	5.74145
2488.11	5.49286
2489.49	5.69873
2490.88	5.45959
2492.26	4.92884
2493.65	4.94771
2495.03	4.12111
2496.41	4.49618
2497.79	4.89564
2499.18	4.93192
2500.56	3.78876
2501.94	2.91764
2503.32	3.02381
2504.7	3.51149
2506.09	3.34092
2507.47	2.41494
2508.85	2.70934
2510.23	3.11135
2511.61	2.76852
2512.99	2.1434
2514.37	1.95104
2515.75	1.5245
2517.13	1.05432
2518.51	1.18425
2519.89	0.788928
2521.26	0.947858
2522.64	1.42615
2524.02	0.665185
2525.4	0.759341
2526.78	0.768874
2528.15	1.05469
2529.53	0.781839
2530.91	0.580337
2532.28	0.775138
2533.66	1.02351
2535.04	1.34371
2536.41	1.97525
2537.79	2.10784
2539.16	2.24914
2540.54	2.4616
2541.91	2.49067
2543.29	2.87288
2544.66	2.76601
2546.04	3.33166
2547.41	3.09742
2548.78	2.89809
2550.16	3.17078
2551.53	3.56756
2552.9	3.36205
2554.27	3.70137
2555.65	3.75697
2557.02	4.24006
2558.39	4.54702
2559.76	4.47575
2561.13	4.52871
2562.51	5.19062
2563.88	4.87304
2565.25	4.85577
2566.62	4.70559
2567.99	4.1689
2569.36	4.21737
2570.73	4.46787
2572.1	4.57428
2573.47	4.77834
2574.84	3.88885
2576.2	3.28349
2577.57	3.10169
2578.94	2.58186
2580.31	2.05244
2581.68	1.62934
2583.05	1.9821
2584.41	1.99302
2585.78	2.38352
2587.15	2.65085
2588.51	2.66282
2589.88	3.43101
2591.24	3.67066
2592.61	4.22675
2593.98	4.69832
2595.34	4.76814
2596.71	4.72471
2598.07	4.70037
2599.44	4.7683
2600.8	5.42762
2602.16	5.2558
2603.53	5.56154
2604.89	5.3966
2606.26	5.04069
2607.62	4.69009
2608.98	4.58413
2610.34	5.24704
2611.71	4.79938
2613.07	4.82532
2614.43	4.83762
2615.79	4.21936
2617.15	3.97337
2618.52	3.99913
2619.88	4.26321
2621.24	4.1259
2622.6	4.51918
2623.96	5.00857
2625.32	4.67813
2626.68	4.07357
2628.04	3.91948
2629.4	3.9069
2630.75	3.61557
2632.11	3.13086
2633.47	2.3322
2634.83	2.33163
2636.19	2.03867
2637.55	1.69595
2638.9	1.44782
2640.26	1.00724
2641.62	0.903127
2642.98	-0.151157
2644.33	-0.653664
2645.69	-0.908482
2647.04	-1.12584
2648.4	-1.33318
2649.76	-1.1525
2651.11	-1.10483
2652.47	-1.11039
2653.82	-0.987719
2655.18	-0.983955
2656.53	-0.446932
2657.88	-0.0653758
2659.24	0.405461
2660.59	0.530923
2661.95	0.747957
2663.3	1.13267
2664.65	1.49575
2666	2.07876
2667.36	2.06368
2668.71	2.49607
2670.06	2.94418
2671.41	3.61958
2672.76	3.38513
2674.12	3.83337
2675.47	4.19173
2676.82	5.41739
2678.17	5.67943
2679.52	5.6616
2680.87	6.54708
2682.22	6.66131
2683.57	6.58259
2684.92	7.11178
2686.27	7.98471
2687.62	8.04278
2688.97	7.77664
2690.31	8.06236
2691.66	7.72959
2693.01	6.83132
2694.36	7.07944
2695.71	7.46426
2697.05	7.42128
2698.4	6.29215
2699.75	5.74521
2701.09	5.46911
2702.44	5.62482
2703.78	5.60112
2705.13	5.12239
2706.48	5.48942
2707.82	4.45922
2709.17	4.10652
2710.51	3.7591
2711.86	3.81958
2713.2	3.90568
2714.54	4.61823
2715.89	4.99576
2717.23	5.76932
2718.57	6.19224
2719.92	6.93601
2721.26	7.23819
2722.6	7.5233
2723.95	7.92911
2725.29	7.80617
2726.63	8.39052
2727.97	8.12448
2729.31	8.19418
2730.65	7.92928
2732	8.03775
2733.34	7.73255
2734.68	7.46338
2736.02	7.89166
2737.36	8.54603
2738.7	8.547
2740.04	8.53921
2741.38	8.76088
2742.72	8.63531
2744.05	8.2049
2745.39	7.44733
2746.73	7.67826
2748.07	7.64979
2749.41	7.58016
2750.75	7.23181
2752.08	7.28814
2753.42	7.0427
2754.76	6.294
2756.09	6.34196
2757.43	6.36248
2758.77	6.19866
2760.1	5.57727
2761.44	5.41249
2762.78	5.14754
2764.11	4.08973
2765.44	3.44806
2766.78	4.3263
2768.11	4.20734
2769.45	3.77082
2770.78	3.86001
2772.12	3.44672
2773.45	3.66191
2774.78	3.17533
2776.12	3.30886
2777.45	3.59131
2778.78	4.58768
2780.12	4.58775
2781.45	4.5514
2782.78	4.61173
2784.11	4.43485
2785.44	4.26284
2786.78	4.03737
2788.11	3.50208
2789.44	3.20106
2790.77	3.24855
2792.1	2.9366
2793.43	3.16372
2794.76	2.77326
2796.09	3.09715
2797.42	3.20101
2798.75	3.37041
2800.08	3.93601
2801.4	4.41208
2802.73	4.62293
2804.06	4.45747
2805.39	4.81
2806.72	5.00651
2808.05	4.80772
2809.37	5.45455
2810.7	5.84908
2812.03	6.20818
2813.35	6.32992
2814.68	6.6459
2816.01	6.89224
2817.33	6.90906
2818.66	7.21868
2819.98	7.51914
2821.31	8.34627
2822.63	9.04214
2823.96	9.63594
2825.28	10.495
2826.61	11.2875
2827.93	12.8797
2829.25	14.2822
2830.58	15.0061
2831.9	16.5985
2833.23	18.082
2834.55	19.4153
2835.87	21.0849
2837.19	22.9941
2838.52	24.6616
2839.84	26.6381
2841.16	28.8418
2842.48	31.2181
2843.8	34.0048
2845.12	36.298
2846.44	38.0497
2847.77	40.8965
2849.08	44.4493
2850.4	47.1739
2851.73	50.7908
2853.05	53.83
2854.36	57.577
2855.68	61.0395
2857	64.4698
2858.32	67.3395
2859.64	70.8299
2860.96	74.5343
2862.28	77.3892
2863.59	79.9459
2864.91	82.4745
2866.23	85.4511
2867.55	87.4536
2868.86	90.0462
2870.18	92.1801
2871.5	94.806
2872.81	96.8782
2874.13	98.4186
2875.44	100.273
2876.76	101.838
2878.07	103.413
2879.39	104.434
2880.7	105.715
2882.02	107.015
2883.33	108.15
2884.65	109.34
2885.96	110.865
2887.28	112.609
2888.59	114.3
2889.9	115.544
2891.21	116.354
2892.53	117.472
2893.84	118.126
2895.15	119.152
2896.46	120.389
2897.78	122.809
2899.09	125.02
2900.4	127.209
2901.71	129.402
2903.02	132.293
2904.33	135.459
2905.64	138.436
2906.95	141.985
2908.26	145.582
2909.57	149.544
2910.88	153.052
2912.19	157.412
2913.5	161.878
2914.81	165.7
2916.12	169.292
2917.43	172.872
2918.73	176.235
2920.04	179.911
2921.35	182.676
2922.66	185.06
2923.96	187.756
2925.27	190.364
2926.58	191.86
2927.88	192.471
2929.19	194.172
2930.5	195
2931.8	195.82
2933.11	195.662
2934.41	196.35
2935.72	195.708
2937.02	195.481
2938.33	194.602
2939.63	192.747
2940.94	191.264
2942.24	189.591
2943.54	186.69
2944.85	183.677
2946.15	180.961
2947.45	178.259
2948.76	175.452
2950.06	172.193
2951.36	169.331
2952.66	165.492
2953.97	161.285
2955.27	156.422
2956.57	152.824
2957.87	148.926
2959.17	144.882
2960.47	142.047
2961.77	138.583
2963.07	135.189
2964.37	131.707
2965.67	128.704
2966.97	125.742
2968.27	122.288
2969.57	118.901
2970.87	115.607
2972.17	112.871
2973.47	110.019
2974.77	107.294
2976.07	104.164
2977.36	101.143
2978.66	97.7722
2979.96	94.2754
2981.26	91.8379
2982.55	88.8676
2983.85	85.8886
2985.15	82.8378
2986.44	80.0123
2987.74	76.8143
2989.03	73.8724
2990.33	70.8724
2991.63	67.6871
2992.92	64.9987
2994.21	62.6086
2995.51	60.1759
2996.8	57.7557
2998.1	55.7932
2999.39	53.5429
3000.69	50.3309
3001.98	48.3565
3003.27	45.7212
3004.57	43.5844
3005.86	42.0268
3007.15	40.1427
3008.44	38.3616
3009.74	36.7856
3011.03	35.2835
3012.32	33.9685
3013.61	32.3369
3014.9	29.9818
3016.19	28.2823
3017.48	26.7012
3018.78	25.3977
3020.07	24.53
3021.36	24.0257
3022.65	22.8107
3023.94	21.9393
3025.23	21.4901
3026.51	21.0278
3027.8	20.3615
3029.09	20.4785
3030.38	20.1778
3031.67	19.5549
3032.96	19.0228
3034.24	19.1441
3035.53	19.345
3036.82	19.492
3038.11	20.2808
3039.39	21.1329
3040.68	21.1016
3041.97	21.3887
3043.25	22.1445
3044.54	22.932
3045.83	23.792
3047.11	24.182
3048.4	24.5085
3049.68	25.4203
3050.97	26.1656
3052.25	26.8683
3053.54	27.1765
3054.82	27.6215
3056.11	27.1525
3057.39	26.9201
3058.67	26.7822
3059.96	27.1373
3061.24	26.6257
3062.52	26.9117
3063.81	26.8428
3065.09	26.4249
3066.37	26.1612
3067.65	24.971
3068.94	24.5742
3070.22	23.5987
3071.5	22.9151
3072.78	22.3217
3074.06	21.5024
3075.34	20.2994
3076.62	19.3157
3077.9	17.7941
3079.18	16.581
3080.46	16.0103
3081.74	15.4801
3083.02	14.4369
3084.3	13.4999
3085.58	12.3062
3086.86	11.3359
3088.14	9.75153
3089.42	8.6877
3090.69	7.79662
3091.97	6.65054
3093.25	6.22811
3094.53	5.4891
3095.8	4.87613
3097.08	4.15886
3098.36	4.36578
3099.63	3.8233
3100.91	3.86868
3102.19	3.8647
3103.46	3.05869
3104.74	2.25357
3106.01	2.44583
3107.29	2.39606
3108.56	2.04349
3109.84	1.84089
3111.11	1.81672
3112.39	2.35048
3113.66	2.63625
3114.94	2.17693
3116.21	2.00326
3117.48	1.46813
3118.76	1.17293
3120.03	0.857441
3121.3	1.14505
3122.57	1.53069
3123.85	2.0854
3125.12	2.00681
3126.39	2.19109
3127.66	1.56119
3128.93	0.472163
3130.21	0.134922
3131.48	0.141675
3132.75	0.916273
3134.02	0.988355
3135.29	1.44997
3136.56	1.35856
3137.83	1.06371
3139.1	0.659548
3140.37	0.592277
3141.64	0.217383
3142.91	0.262637
3144.17	0.0529989
3145.44	-0.348762
3146.71	-0.759876
3147.98	-0.960986
3149.25	-1.08521
