#Acq. time (s)=	45
#Accumulations=	2
#Range (cm-¹)=	200...3150
#Windows=	2
#Auto scanning=	Off
#Autofocus=	Off
#Macrospot=	Off
#AutoExposure=	Off
#Spike filter=	Multiple accum.
#Delay time (s)=	0
#Binning=	1
#Readout mode=	Signal
#DeNoise=	Off
#ICS correction=	On
#Dark correction=	Off
#Inst. Process=	Off
#Detector Gain=	Best Dynamic Range
#Detector ADC=	20 kHz       
#Detector temperature (°C)=	-69.85
#Instrument=	LabRAM HR Evol
#Detector=	Synapse
#Objective=	x100
#Grating=	600 gr/mm
#ND Filter=	100%
#Laser (nm)=	532 
#Hole=	100.021
#Range=	Auto
#Laser Pol.=	No
#Raman. Pol.=	No
#Laser Pol. (°)=	-0.0007625
#Raman Pol. (°)=	89.9995
#Collection=	Microscope
#StageXY=	Marzhauser
#StageZ=	Marzhauser
#X (µm)=	4714.3
#Y (µm)=	-7717.6
#Z (µm)=	584.4
#Full time(mm:ss)=	3:18
#Project=	
#Sample=	
#Site=	
#Title=	Thy_30_10_42_2x_45s_532 nm_x100_100%_600 gr_mm
#Remark=	
#Date=	30.06.2022 14:26
#Acquired=	30.06.2022 14:26:27
#Base:Fit=	10.08.2022 09:58:11
#Base:Sub=	10.08.2022 09:58:44
#Filter:Polynom=	16.08.2022 10:22:53
#AxisType[0]=Intens
#AxisUnit[0]=Cnt
#AxisType[1]=Spectr
#AxisUnit[1]=1/cm
200.533	3.78405
202.348	8.38865
204.162	9.92343
205.976	11.8902
207.792	13.7227
209.605	15.2716
211.418	16.8101
213.23	18.7378
215.044	19.8259
216.856	21.9541
218.667	23.9033
220.478	26.0583
222.289	26.4138
224.102	27.9754
225.912	29.9354
227.721	31.0937
229.531	31.369
231.34	32.2813
233.148	31.5416
234.956	32.814
236.766	32.2767
238.574	33.4352
240.381	32.8679
242.188	32.7141
243.994	33.3936
245.801	34.2559
247.606	34.1066
249.412	33.2443
251.217	32.0112
253.024	32.7596
254.828	32.5547
256.632	32.2904
258.436	33.8403
260.239	34.4578
262.042	34.5587
263.845	33.5458
265.647	33.6113
267.449	33.6377
269.25	34.9372
271.052	33.9824
272.852	34.5048
274.653	34.9591
276.453	35.4574
278.253	34.8044
280.052	35.6215
281.852	36.7368
283.65	36.9604
285.449	35.7729
287.247	34.6792
289.044	34.8999
290.842	35.1374
292.639	35.243
294.436	35.3745
296.232	34.5369
298.028	34.1831
299.821	33.4289
301.617	33.8491
303.412	34.467
305.206	35.2913
307	36.3852
308.794	35.0487
310.588	34.6275
312.381	33.5422
314.172	33.2793
315.964	31.3242
317.756	28.7843
319.548	26.9293
321.34	25.7334
323.131	24.1114
324.921	23.4714
326.71	21.5938
328.5	20.5403
330.29	18.8214
332.079	18.2797
333.868	17.4745
335.654	16.4043
337.443	14.7891
339.231	13.0741
341.018	12.499
342.804	11.9441
344.591	11.2593
346.377	12.0006
348.163	11.9609
349.947	11.2134
351.733	10.5899
353.518	9.4161
355.303	9.77627
357.085	10.2156
358.869	11.1983
360.653	9.62062
362.435	10.3701
364.218	10.3399
366.001	9.78302
367.781	9.22175
369.563	10.3695
371.345	11.7561
373.124	10.802
374.905	11.9634
376.686	12.4433
378.464	13.411
380.244	13.6001
382.022	14.852
383.801	14.2883
385.58	15.3274
387.357	16.273
389.135	16.3899
390.911	17.6682
392.689	18.3126
394.466	17.7771
396.241	16.6935
398.018	15.7768
399.792	16.3798
401.568	14.8329
403.341	13.2932
405.117	12.8173
406.889	12.4768
408.664	12.5466
410.436	12.0183
412.21	11.5951
413.981	10.9616
415.755	10.887
417.525	10.8671
419.298	10.6059
421.068	9.90866
422.84	9.46883
424.609	9.23803
426.38	8.77028
428.149	8.12603
429.919	8.92854
431.688	9.21275
433.455	9.39132
435.225	8.72894
436.992	7.84642
438.76	8.35024
440.527	8.48999
442.293	9.04314
444.06	10.4737
445.826	10.5426
447.593	11.1762
449.357	11.6096
451.122	11.964
452.888	12.1002
454.651	11.9959
456.415	13.5039
458.18	15.1811
459.942	15.1523
461.705	14.4664
463.469	15.552
465.23	14.5091
466.991	15.514
468.752	16.7537
470.515	16.3019
472.275	15.7702
474.035	15.3157
475.797	14.9151
477.556	14.5373
479.315	15.3301
481.073	16.1953
482.834	16.2655
484.592	16.4054
486.349	16.5831
488.106	16.1904
489.863	15.3343
491.622	16.1369
493.378	16.5004
495.134	17.0363
496.889	17.4336
498.645	17.1641
500.401	17.4146
502.156	17.1891
503.91	18.2311
505.664	17.8375
507.417	16.812
509.171	17.1546
510.923	17.6566
512.678	17.2519
514.43	16.8937
516.182	16.7017
517.933	17.8478
519.684	17.7098
521.435	17.922
523.186	17.7459
524.936	19.7411
526.686	19.8967
528.435	17.9577
530.184	18.0593
531.933	18.1379
533.682	17.8198
535.43	18.1733
537.18	17.0051
538.927	16.1712
540.674	16.7365
542.421	16.3082
544.167	15.9171
545.913	16.0132
547.659	14.6849
549.403	15.0066
551.148	14.4307
552.893	13.6346
554.637	13.8886
556.381	13.8054
558.125	13.267
559.868	14.6279
561.611	13.7199
563.354	13.8769
565.097	14.0244
566.839	14.2262
568.581	14.2965
570.322	12.3962
572.063	11.6816
573.802	11.1387
575.542	10.2509
577.283	9.57188
579.022	9.2436
580.762	9.53314
582.501	9.68832
584.24	8.93964
585.976	7.83262
587.714	8.08062
589.452	6.43179
591.19	5.58786
592.927	4.42929
594.663	3.69527
596.398	3.43809
598.134	3.37672
599.87	2.65944
601.605	2.95021
603.338	4.01134
605.073	4.2148
606.808	3.84091
608.542	4.40641
610.274	4.12064
612.007	4.96636
613.74	3.72635
615.473	4.16652
617.204	5.31296
618.936	6.63285
620.668	7.33352
622.397	6.84799
624.128	7.02284
625.859	8.0786
627.588	9.61385
629.318	10.1804
631.048	11.7533
632.775	12.7939
634.505	13.0968
636.233	14.4133
637.96	13.5348
639.688	14.1886
641.416	14.6046
643.142	16.0613
644.869	17.0472
646.594	17.5515
648.32	17.0203
650.045	17.2476
651.771	18.6943
653.496	19.6488
655.219	20.7349
656.944	20.6931
658.667	21.5073
660.391	22.5962
662.113	23.7747
663.837	25.2128
665.558	26.9777
667.281	26.952
669.002	26.2531
670.724	26.2445
672.444	25.8192
674.166	26.275
675.885	25.3574
677.606	26.0487
679.325	27.4413
681.045	27.3912
682.763	28.7007
684.483	29.3237
686.2	29.9737
687.917	31.2258
689.636	32.7711
691.352	32.7837
693.07	34.1563
694.786	35.27
696.501	35.3087
698.219	36.6008
699.933	37.121
701.65	37.7209
703.364	38.5408
705.078	40.6083
706.793	40.426
708.506	41.0046
710.219	43.1741
711.934	44.7081
713.646	47.0592
715.358	47.8072
717.071	48.6113
718.782	48.3407
720.493	48.773
722.204	48.3848
723.916	48.4935
725.626	49.6293
727.336	50.3162
729.045	51.9064
730.756	52.5844
732.464	53.2736
734.173	53.9636
735.881	54.8825
737.59	56.5069
739.297	57.5259
741.004	57.2151
742.711	56.995
744.417	57.8702
746.125	58.9599
747.831	59.0698
749.537	59.6355
751.242	59.9451
752.946	60.1338
754.651	62.61
756.357	63.8357
758.061	64.5984
759.764	65.5839
761.467	66.3553
763.17	67.2007
764.872	68.0827
766.575	68.9401
768.276	69.4526
769.978	70.0411
771.679	70.8702
773.382	71.8989
775.083	72.3765
776.783	74.0864
778.483	74.7382
780.182	75.7998
781.882	76.9855
783.581	78.7499
785.279	79.6497
786.978	80.8484
788.676	82.5964
790.373	83.4976
792.071	84.4735
793.768	86.3393
795.464	86.4461
797.161	88.6086
798.857	89.8543
800.552	90.1778
802.248	89.7371
803.941	90.7364
805.636	91.9649
807.33	92.8982
809.024	93.5716
810.718	95.104
812.412	96.9032
814.105	97.1674
815.798	98.3622
817.49	99.1184
819.183	101.088
820.873	101.168
822.564	101.375
824.256	102.624
825.947	102.807
827.637	104.268
829.328	104.653
831.016	105.28
832.705	105.114
834.395	105.445
836.084	105.439
837.772	104.779
839.459	104.197
841.147	102.687
842.835	101.347
844.522	100.641
846.209	98.6522
847.894	96.8018
849.581	94.9662
851.267	92.4517
852.953	90.1411
854.637	88.9528
856.322	86.5454
858.007	84.6433
859.689	83.6968
861.374	81.5775
863.058	78.7403
864.739	77.5003
866.423	74.5552
868.106	72.9437
869.787	71.4758
871.469	69.6344
873.151	67.7095
874.831	66.1338
876.512	65.3973
878.193	65.2458
879.872	65.0105
881.553	65.3536
883.231	64.0862
884.911	64.2499
886.591	63.9151
888.268	64.494
889.947	65.2506
891.623	64.4698
893.302	63.9381
894.978	64.8963
896.656	64.2588
898.331	63.5851
900.008	65.4642
901.683	64.1859
903.359	64.7326
905.033	63.4184
906.709	63.7318
908.383	64.4896
910.058	65.0357
911.731	64.2148
913.405	63.1997
915.078	62.9017
916.752	62.711
918.423	62.3397
920.096	61.5931
921.768	60.4941
923.438	60.845
925.111	60.9259
926.781	59.4154
928.452	57.5893
930.122	55.8112
931.791	54.298
933.462	52.6275
935.13	50.8435
936.799	50.9001
938.468	49.8542
940.136	48.4677
941.803	48.2168
943.472	47.4907
945.139	44.8253
946.805	44.6783
948.473	43.7128
950.139	42.9843
951.804	43.8224
953.471	43.1329
955.136	43.195
956.801	42.2189
958.465	42.8369
960.131	41.3302
961.794	41.354
963.458	39.965
965.12	39.9774
966.785	39.521
968.447	39.4079
970.109	39.0423
971.771	38.2172
973.432	39.0536
975.095	37.8038
976.756	37.5917
978.417	38.4729
980.077	38.3332
981.737	37.9354
983.396	37.74
985.057	36.5599
986.716	37.0261
988.375	36.709
990.033	37.1804
991.691	37.032
993.349	36.9742
995.006	34.9135
996.663	34.6633
998.32	34.1901
999.976	33.836
1001.63	33.13
1003.29	33.2676
1004.95	33.4598
1006.6	33.393
1008.26	32.7688
1009.91	30.7927
1011.56	29.9578
1013.22	29.6354
1014.87	29.3843
1016.53	29.5387
1018.18	28.8279
1019.83	28.2259
1021.48	26.8916
1023.14	26.8596
1024.79	26.7697
1026.44	25.2765
1028.09	25.8625
1029.74	27.3637
1031.39	27.3629
1033.04	26.7323
1034.69	26.4684
1036.34	25.693
1037.99	25.5786
1039.64	24.5417
1041.29	24.9229
1042.94	24.2361
1044.58	25.7251
1046.23	25.792
1047.88	26.4439
1049.52	26.0484
1051.17	27.4816
1052.82	27.8106
1054.46	26.8656
1056.11	26.7707
1057.75	25.7254
1059.4	25.7893
1061.04	25.7352
1062.69	25.9916
1064.33	26.0356
1065.98	26.1935
1067.62	25.9029
1069.26	26.1625
1070.9	26.5315
1072.55	26.7219
1074.19	26.5915
1075.83	26.1813
1077.47	24.5502
1079.11	24.6008
1080.76	23.9755
1082.4	23.6776
1084.04	23.8922
1085.68	24.2864
1087.32	23.0329
1088.95	22.7064
1090.59	22.4944
1092.23	21.9825
1093.87	22.1578
1095.51	22.5053
1097.15	23.5234
1098.78	22.5329
1100.42	22.9146
1102.06	23.0769
1103.69	23.3681
1105.33	24.6841
1106.97	24.6308
1108.6	23.8204
1110.24	24.0876
1111.87	23.3802
1113.51	21.7325
1115.14	21.6973
1116.77	22.3048
1118.41	21.9311
1120.04	21.2355
1121.67	19.9366
1123.31	19.4295
1124.94	18.6495
1126.57	18.206
1128.2	16.9953
1129.83	16.1989
1131.47	15.8598
1133.1	15.0751
1134.72	13.2826
1136.36	12.0225
1137.98	13.5646
1139.62	13.6017
1141.24	13.2689
1142.87	11.7271
1144.5	11.9598
1146.13	10.8941
1147.76	10.3072
1149.38	9.4334
1151.01	8.83727
1152.64	7.61394
1154.27	6.84875
1155.89	4.74838
1157.52	2.71554
1159.14	2.1093
1160.77	2.4262
1162.39	1.31136
1164.02	0.73181
1165.64	0.908784
1167.27	1.58864
1168.89	1.1626
1170.51	2.59943
1172.14	2.78142
1173.76	2.94078
1175.38	4.32131
1177	4.73425
1178.63	5.48284
1180.25	4.6008
1181.87	5.10884
1183.49	4.46236
1185.11	5.38576
1186.73	6.45263
1188.35	5.58423
1189.97	5.66125
1191.59	7.00674
1193.21	7.75722
1194.83	8.82256
1196.45	10.5373
1198.07	10.4427
1199.68	10.2634
1201.3	11.127
1202.92	13.3048
1204.53	15.912
1206.15	17.6665
1207.77	20.6144
1209.38	21.7655
1211	23.9349
1212.62	25.8983
1214.23	26.9754
1215.84	28.3088
1217.46	30.6475
1219.07	34.0861
1220.69	34.0668
1222.3	35.621
1223.91	37.4927
1225.53	39.9765
1227.14	40.8782
1228.75	42.4358
1230.36	44.5733
1231.97	45.5806
1233.59	47.1779
1235.2	48.9952
1236.81	50.1425
1238.42	51.8756
1240.03	54.5384
1241.64	55.4226
1243.25	56.7165
1244.85	58.2397
1246.46	59.7235
1248.07	61.6319
1249.68	62.0968
1251.29	63.962
1252.9	63.6669
1254.5	63.5965
1256.11	65.2991
1257.72	63.8653
1259.32	63.7736
1260.93	63.7951
1262.54	65.0294
1264.14	65.9535
1265.75	67.0289
1267.35	66.4183
1268.96	67.3312
1270.56	68.9845
1272.16	69.0689
1273.77	68.3357
1275.37	67.7575
1276.97	67.4939
1278.57	67.8308
1280.18	68.219
1281.78	68.3908
1283.38	68.6175
1284.98	68.369
1286.58	69.2245
1288.18	69.8105
1289.78	69.9899
1291.38	70.4257
1292.99	70.099
1294.58	69.5867
1296.18	69.5641
1297.78	69.4242
1299.38	70.1618
1300.98	69.5244
1302.58	69.7638
1304.17	69.6583
1305.77	69.6671
1307.37	69.7784
1308.97	70.4132
1310.56	71.4142
1312.16	71.6204
1313.76	73.0139
1315.35	74.3413
1316.95	73.9461
1318.54	74.6156
1320.14	74.0032
1321.73	73.2521
1323.32	73.0074
1324.92	72.3289
1326.51	72.9415
1328.1	73.3846
1329.7	72.2482
1331.29	71.2933
1332.88	69.8735
1334.47	68.9295
1336.07	69.097
1337.66	67.1099
1339.25	65.8644
1340.84	66.4793
1342.43	65.9937
1344.02	64.5214
1345.61	64.0213
1347.2	63.6137
1348.79	62.4414
1350.37	60.435
1351.96	57.9705
1353.55	56.3204
1355.14	55.0124
1356.73	53.8949
1358.31	52.5132
1359.9	51.4717
1361.49	50.7325
1363.07	50.8595
1364.66	51.3953
1366.25	51.5041
1367.83	50.0808
1369.42	49.2746
1371	47.5605
1372.59	45.7428
1374.17	44.4596
1375.75	44.0396
1377.34	43.727
1378.92	43.9552
1380.5	43.1636
1382.09	42.8164
1383.67	42.6708
1385.25	43.1884
1386.83	42.459
1388.42	42.634
1390	43.0445
1391.58	42.6808
1393.16	42.0413
1394.74	41.1699
1396.32	39.7939
1397.9	40.0202
1399.48	38.6764
1401.06	38.3975
1402.64	37.3668
1404.21	37.152
1405.79	37.4098
1407.37	36.6488
1408.95	35.903
1410.53	35.9974
1412.1	36.6467
1413.68	37.0171
1415.26	38.1819
1416.83	37.8812
1418.41	38.8727
1419.98	41.1961
1421.56	40.9401
1423.13	41.1639
1424.71	42.5879
1426.28	44.5646
1427.86	44.6947
1429.43	47.6119
1431	49.0851
1432.58	52.1489
1434.15	53.6002
1435.72	55.5578
1437.29	58.3168
1438.87	60.1032
1440.44	62.3549
1442.01	64.1218
1443.58	65.9459
1445.15	66.8116
1446.72	67.1182
1448.29	67.9644
1449.86	68.0443
1451.43	67.8167
1453	67.7271
1454.57	68.3275
1456.14	68.0699
1457.71	67.0981
1459.27	66.3353
1460.84	65.8355
1462.41	64.2818
1463.98	62.5997
1465.54	60.112
1467.11	57.8579
1468.67	54.9514
1470.24	52.2421
1471.81	50.1935
1473.37	47.6445
1474.94	45.8299
1476.5	42.5368
1478.07	39.0542
1479.63	35.8182
1481.19	33.7313
1482.76	31.7876
1484.32	29.9426
1485.88	27.0695
1487.45	25.3455
1489.01	23.8734
1490.57	22.3639
1492.13	19.8687
1493.69	17.8681
1495.26	15.5851
1496.82	13.9787
1498.38	12.8737
1499.94	12.0229
1501.5	11.7715
1503.06	11.9433
1504.62	12.5835
1506.17	11.5525
1507.73	12.2469
1509.29	12.0884
1510.85	12.2182
1512.41	11.0611
1513.97	11.6476
1515.52	12.5301
1517.08	11.8868
1518.64	13.2934
1520.19	13.8422
1521.75	14.3638
1523.31	14.9448
1524.86	15.7086
1526.42	16.615
1527.97	17.1803
1529.52	17.7434
1531.08	18.4775
1532.63	20.6002
1534.19	20.6903
1535.74	21.1275
1537.29	22.637
1538.85	23.7908
1540.4	24.9095
1541.95	26.3521
1543.5	28.9124
1545.06	31.899
1546.61	34.3549
1548.16	37.3441
1549.71	40.1066
1551.26	42.3595
1552.81	44.2582
1554.36	45.5106
1555.91	47.8234
1557.46	49.0762
1559.01	51.9521
1560.56	53.5802
1562.11	55.0412
1563.65	57.1808
1565.2	59.3074
1566.75	60.3864
1568.29	61.6974
1569.84	62.9827
1571.39	64.5489
1572.94	65.9811
1574.48	66.761
1576.03	68.2668
1577.57	69.5973
1579.12	70.1064
1580.66	71.1172
1582.21	71.3652
1583.75	70.7602
1585.3	71.0146
1586.84	71.0293
1588.38	70.5429
1589.93	69.8881
1591.47	69.4347
1593.01	69.672
1594.55	68.0373
1596.1	68.2786
1597.64	67.5131
1599.18	65.7437
1600.72	64.9164
1602.26	63.7186
1603.8	62.1455
1605.34	61.4584
1606.88	60.6641
1608.42	59.6357
1609.96	58.9369
1611.5	58.5079
1613.04	59.1979
1614.58	59.5384
1616.12	59.7939
1617.65	60.691
1619.19	60.7325
1620.73	61.7911
1622.27	62.4139
1623.8	61.8938
1625.34	62.4646
1626.87	62.7556
1628.41	62.914
1629.95	63.0204
1631.48	63.8643
1633.02	64.657
1634.55	66.2112
1636.09	67.5916
1637.62	68.4385
1639.15	69.7596
1640.69	71.3862
1642.22	72.2994
1643.76	74.3157
1645.29	76.27
1646.82	78.1911
1648.35	78.6358
1649.88	79.0348
1651.42	79.1126
1652.95	80.2126
1654.48	79.8924
1656.01	78.7917
1657.54	77.9106
1659.07	76.6321
1660.6	76.7842
1662.13	75.6235
1663.66	75.0647
1665.19	73.0367
1666.72	72.0362
1668.24	70.5419
1669.77	68.2126
1671.3	65.5323
1672.83	63.2029
1674.35	60.4515
1675.88	57.1884
1677.41	54.4113
1678.93	52.3163
1680.46	49.5432
1681.99	46.3338
1683.51	43.0093
1685.04	39.9541
1686.56	37.7124
1688.09	36.0437
1689.61	33.1446
1691.13	29.048
1692.66	26.7577
1694.18	24.3602
1695.71	21.9963
1697.23	19.551
1698.75	17.9307
1700.27	15.1255
1701.8	13.1261
1703.32	11.2882
1704.84	9.9373
1706.36	9.30724
1707.88	8.26397
1709.4	7.27644
1710.92	6.26731
1712.44	5.16899
1713.96	5.69724
1715.48	5.21329
1717	4.44463
1718.52	4.75133
1720.04	4.55987
1721.56	3.73723
1723.07	3.43457
1724.59	2.36875
1726.11	2.14089
1727.63	1.92842
1729.14	1.29295
1730.66	0.564316
1732.18	0.528426
1733.69	1.40178
1735.21	1.80507
1736.72	1.73765
1738.24	0.378606
1739.75	0.697819
1741.27	-0.21083
1742.78	0.102789
1744.3	-1.07335
1745.81	-1.9952
1747.32	-1.75788
1748.84	-2.68178
1750.35	-2.68866
1751.86	-2.38803
1753.37	-1.80571
1754.89	-1.33527
1756.4	-2.00996
1757.91	-1.77385
1759.42	-1.01315
1760.93	-0.342055
1762.44	0.0397906
1763.95	0.120083
1765.46	-0.986041
1766.97	-1.18439
1768.48	0.0157401
1769.99	-0.423306
1771.5	-0.0979487
1773.01	0.0930739
1774.52	0.479645
1776.03	0.25799
1777.53	0.779237
1779.04	1.26805
1780.55	1.36996
1782.06	2.10619
1783.56	2.33602
1785.07	3.09038
1786.57	3.34507
1788.08	3.88331
1789.59	4.18201
1791.09	3.80609
1792.6	3.72998
1794.1	4.59013
1795.6	4.92008
1797.11	6.09657
1798.61	7.07718
1800.12	7.21103
1801.62	7.76916
1803.12	7.74131
1804.63	8.35902
1806.13	9.24543
1807.63	9.80444
1809.13	10.5003
1810.63	10.4056
1812.14	10.2787
1813.64	10.7267
1815.14	11.5291
1816.64	11.6996
1818.14	12.7573
1819.64	13.8216
1821.14	14.5918
1822.64	15.5133
1824.14	15.9746
1825.63	16.7792
1827.13	17.2918
1828.63	16.9729
1830.13	18.0704
1831.63	19.0499
1833.12	19.7376
1834.62	19.8992
1836.12	20.3262
1837.62	19.6321
1839.11	19.292
1840.61	19.609
1842.1	20.5433
1843.6	20.9604
1845.09	20.9792
1846.59	21.5358
1848.08	22.1006
1849.58	21.6946
1851.07	22.5172
1852.57	22.3451
1854.06	22.7494
1855.55	22.9159
1857.04	24.179
1858.54	23.9997
1860.03	23.5822
1861.52	22.7818
1863.01	22.4994
1864.5	23.724
1866	23.5165
1867.49	24.0262
1868.98	24.8987
1870.47	26.0111
1871.96	26.2669
1873.45	26.0885
1874.94	27.5594
1876.43	27.7804
1877.92	27.2781
1879.41	27.4198
1880.89	27.7348
1882.38	28.1041
1882.48	28.6617
1883.97	28.6243
1885.47	28.1934
1886.96	27.9218
1888.46	28.3941
1889.95	28.4619
1891.44	29.7379
1892.94	29.8973
1894.43	29.5632
1895.92	30.2779
1897.41	30.4011
1898.9	30.8222
1900.4	30.7023
1901.89	30.7337
1903.38	31.6819
1904.87	31.0033
1906.36	29.9752
1907.85	29.4061
1909.34	29.2863
1910.83	29.0511
1912.32	28.3396
1913.81	28.5003
1915.29	28.769
1916.78	28.9311
1918.27	28.2987
1919.76	28.1138
1921.25	27.5233
1922.74	26.2503
1924.22	26.2884
1925.71	25.7983
1927.2	25.6863
1928.68	24.719
1930.17	24.234
1931.65	23.2824
1933.14	22.6036
1934.63	22.7224
1936.11	24.3119
1937.59	24.8664
1939.08	23.5195
1940.56	24.333
1942.05	24.5504
1943.53	24.4488
1945.01	23.622
1946.5	24.0858
1947.98	24.2501
1949.46	22.994
1950.94	22.8154
1952.43	24.3003
1953.91	24.2159
1955.39	24.3832
1956.87	24.6177
1958.35	23.5587
1959.83	23.2299
1961.31	24.1236
1962.79	25.6037
1964.27	26.1067
1965.75	27.4896
1967.23	28.2678
1968.71	28.384
1970.19	28.8214
1971.67	28.8081
1973.14	29.3606
1974.62	29.2921
1976.1	28.5322
1977.58	28.8413
1979.05	28.3644
1980.53	29.0133
1982.01	29.609
1983.48	30.3972
1984.96	30.4388
1986.43	30.5992
1987.91	31.8661
1989.38	32.4517
1990.86	31.9132
1992.33	31.5968
1993.81	31.3182
1995.28	30.7238
1996.76	30.9512
1998.23	31.6737
1999.7	32.3561
2001.18	31.8063
2002.65	31.5958
2004.12	31.698
2005.59	31.6488
2007.06	31.2713
2008.54	30.5598
2010.01	29.8847
2011.48	27.8368
2012.95	27.642
2014.42	28.0155
2015.89	27.114
2017.36	26.8643
2018.83	26.3599
2020.3	26.3415
2021.77	25.3598
2023.24	25.885
2024.71	25.7567
2026.17	25.2627
2027.64	24.0208
2029.11	23.9217
2030.58	22.5747
2032.04	22.1711
2033.51	22.8661
2034.98	24.3082
2036.45	24.5792
2037.91	24.2322
2039.38	24.4312
2040.84	23.7927
2042.31	23.3995
2043.77	23.6462
2045.24	24.541
2046.7	24.8464
2048.17	24.7335
2049.63	25.0697
2051.1	26.6848
2052.56	27.485
2054.02	28.558
2055.48	29.1142
2056.95	30.2248
2058.41	30.9452
2059.87	31.3643
2061.33	31.8145
2062.8	32.6674
2064.26	33.4456
2065.72	34.1277
2067.18	34.586
2068.64	35.0484
2070.1	36.2034
2071.56	37.4264
2073.02	37.9034
2074.48	36.9882
2075.94	37.1779
2077.4	37.0846
2078.86	37.0499
2080.31	36.8073
2081.77	36.979
2083.23	36.8317
2084.69	37.1597
2086.14	36.8667
2087.6	36.4419
2089.06	35.8984
2090.52	36.5473
2091.97	35.8716
2093.43	35.6281
2094.88	35.8236
2096.34	36.489
2097.79	35.6642
2099.25	34.715
2100.7	35.3084
2102.16	35.8611
2103.61	36.794
2105.07	38.6569
2106.52	39.3073
2107.97	39.6423
2109.43	40.221
2110.88	40.8597
2112.33	42.468
2113.78	43.209
2115.24	45.1119
2116.69	46.7091
2118.14	49.3282
2119.59	51.2937
2121.04	51.9575
2122.49	53.7331
2123.94	55.2732
2125.39	57.7471
2126.84	59.3352
2128.29	61.25
2129.74	62.4222
2131.19	65.0317
2132.64	66.3214
2134.09	68.3027
2135.54	69.9901
2136.98	71.8895
2138.43	73.449
2139.88	75.1466
2141.33	76.7345
2142.77	78.689
2144.22	80.5973
2145.67	82.348
2147.11	82.8719
2148.56	84.1832
2150.01	84.9196
2151.45	85.6945
2152.9	85.936
2154.34	86.7134
2155.79	87.4925
2157.23	88.3104
2158.67	89.1999
2160.12	91.476
2161.56	92.621
2163	93.544
2164.45	93.8026
2165.89	94.8501
2167.33	95.0849
2168.78	95.3525
2170.22	95.069
2171.66	95.3069
2173.1	96.498
2174.54	96.5788
2175.98	96.6566
2177.42	95.9712
2178.86	95.9124
2180.3	95.8769
2181.74	97.0383
2183.18	95.772
2184.62	94.4061
2186.06	93.7096
2187.5	93.7415
2188.94	92.9736
2190.38	91.732
2191.82	91.0807
2193.25	89.9906
2194.69	89.4303
2196.13	87.4663
2197.57	85.9575
2199	83.0807
2200.44	81.3863
2201.88	79.5201
2203.31	77.8695
2204.75	75.286
2206.18	73.6683
2207.62	71.5682
2209.05	70.0884
2210.49	68.2078
2211.92	67.153
2213.36	65.9214
2214.79	64.4136
2216.22	63.5328
2217.66	61.8797
2219.09	59.4163
2220.52	57.8794
2221.96	56.4379
2223.39	54.9339
2224.82	53.7526
2226.25	52.9583
2227.68	51.7594
2229.11	49.8828
2230.55	49.7578
2231.98	48.988
2233.41	46.804
2234.84	45.4679
2236.27	44.6763
2237.7	43.8318
2239.12	42.154
2240.55	41.987
2241.98	41.3035
2243.41	41.0075
2244.84	40.0622
2246.27	40.2267
2247.7	40.4581
2249.12	39.6589
2250.55	39.6981
2251.98	38.3962
2253.41	38.0652
2254.83	36.1532
2256.26	36.3195
2257.68	37.0262
2259.11	36.424
2260.54	36.2455
2261.96	35.9622
2263.39	35.9237
2264.81	33.9874
2266.24	32.9879
2267.66	31.2019
2269.08	30.9472
2270.51	29.7875
2271.93	29.611
2273.35	29.2426
2274.78	29.1982
2276.2	29.4293
2277.62	28.8707
2279.04	28.5129
2280.47	29.0429
2281.89	28.9857
2283.31	28.7582
2284.73	28.5567
2286.15	27.7597
2287.57	26.7934
2288.99	25.381
2290.41	23.1624
2291.83	22.1002
2293.25	22.2397
2294.67	20.9807
2296.09	20.2
2297.51	19.6051
2298.93	19.7939
2300.35	19.648
2301.76	19.1394
2303.18	18.8419
2304.6	17.5237
2306.02	17.79
2307.44	17.5095
2308.85	17.4722
2310.27	16.8997
2311.69	17.9633
2313.1	17.9215
2314.52	17.9058
2315.93	18.1637
2317.35	18.9974
2318.76	17.6204
2320.18	16.8681
2321.59	17.1577
2323.01	17.1525
2324.42	17.5628
2325.83	17.3538
2327.25	18.7042
2328.66	18.8326
2330.07	18.2851
2331.49	18.1833
2332.9	18.266
2334.31	18.2377
2335.72	17.5849
2337.13	19.1207
2338.55	18.215
2339.96	18.9102
2341.37	19.7033
2342.78	19.8299
2344.19	19.7955
2345.6	19.3056
2347.01	18.8108
2348.42	19.0708
2349.83	18.1727
2351.24	17.7696
2352.65	17.3597
2354.05	17.1743
2355.46	16.8555
2356.87	15.2766
2358.28	14.2071
2359.69	14.5286
2361.09	14.8533
2362.5	15.1333
2363.91	15.3975
2365.31	14.9474
2366.72	14.8181
2368.13	14.6255
2369.53	14.0295
2370.94	13.1365
2372.34	12.3427
2373.75	12.7388
2375.15	12.2477
2376.56	13.0962
2377.96	13.4766
2379.37	13.9047
2380.77	14.0179
2382.17	14.6528
2383.58	14.01
2384.98	13.6345
2386.38	12.9704
2387.79	12.4219
2389.19	12.2597
2390.59	12.7691
2391.99	12.8661
2393.39	12.9347
2394.8	12.3423
2396.2	11.8828
2397.6	11.7741
2399	10.7411
2400.4	10.2046
2401.8	10.5563
2403.2	10.7416
2404.6	10.2578
2406	9.68347
2407.4	10.0785
2408.79	9.291
2410.19	9.05991
2411.59	9.05813
2412.99	7.83239
2414.39	7.92683
2415.78	8.04375
2417.18	8.45163
2418.58	8.86576
2419.98	7.96145
2421.37	8.59072
2422.77	9.05668
2424.16	9.23919
2425.56	8.95922
2426.96	8.74154
2428.35	9.50091
2429.74	10.4053
2431.14	10.3979
2432.53	9.90344
2433.93	10.2198
2435.32	10.7229
2436.72	9.84108
2438.11	10.0488
2439.5	10.4618
2440.9	11.3645
2442.29	11.5394
2443.68	11.9103
2445.07	11.5787
2446.47	12.0867
2447.86	11.3458
2449.25	10.8383
2450.64	10.8084
2452.03	9.968
2453.42	9.38756
2454.81	9.25482
2456.2	9.44589
2457.59	9.46199
2458.98	9.83856
2460.37	9.2777
2461.76	8.28469
2463.15	8.30239
2464.54	8.08141
2465.93	7.1801
2467.32	7.2127
2468.7	6.32092
2470.09	6.49531
2471.48	6.31244
2472.87	5.8996
2474.25	5.61728
2475.64	4.86374
2477.03	5.26335
2478.41	5.37057
2479.8	4.82969
2481.18	5.29847
2482.57	5.28525
2483.95	5.16856
2485.34	5.37884
2486.72	5.13028
2488.11	4.95439
2489.49	3.69702
2490.88	3.92466
2492.26	3.74518
2493.65	3.58868
2495.03	3.84646
2496.41	3.99263
2497.79	4.1366
2499.18	4.00614
2500.56	3.89939
2501.94	3.72373
2503.32	3.22699
2504.7	2.6148
2506.09	1.93862
2507.47	1.99837
2508.85	1.86166
2510.23	1.51402
2511.61	0.453544
2512.99	0.148941
2514.37	-0.545068
2515.75	-0.348962
2517.13	-0.461404
2518.51	0.597771
2519.89	-0.235971
2521.26	-0.601767
2522.64	-0.273746
2524.02	-0.465594
2525.4	-0.14507
2526.78	-0.673718
2528.15	-0.774439
2529.53	-1.197
2530.91	-1.16304
2532.28	-0.725794
2533.66	-1.26514
2535.04	-2.19929
2536.41	-1.44407
2537.79	-1.73623
2539.16	-0.930879
2540.54	-1.53938
2541.91	-1.67513
2543.29	-1.89299
2544.66	-1.36071
2546.04	-0.763715
2547.41	-0.15713
2548.78	-0.334039
2550.16	0.420038
2551.53	0.927913
2552.9	1.39609
2554.27	1.46571
2555.65	1.29716
2557.02	1.52034
2558.39	1.21751
2559.76	1.85496
2561.13	2.12616
2562.51	2.12066
2563.88	2.77339
2565.25	2.58179
2566.62	2.57643
2567.99	2.98444
2569.36	3.25707
2570.73	2.6205
2572.1	2.55828
2573.47	2.22014
2574.84	2.73014
2576.2	2.67675
2577.57	2.74782
2578.94	2.67918
2580.31	2.22132
2581.68	2.44211
2583.05	2.06994
2584.41	3.40686
2585.78	3.44459
2587.15	2.49081
2588.51	1.0414
2589.88	1.63005
2591.24	1.36743
2592.61	1.53835
2593.98	1.55906
2595.34	1.15832
2596.71	0.929018
2598.07	0.900172
2599.44	0.746739
2600.8	0.029734
2602.16	-0.288675
2603.53	-1.02166
2604.89	-0.510067
2606.26	-1.16934
2607.62	-0.325341
2608.98	-0.36198
2610.34	0.239422
2611.71	0.963801
2613.07	1.85555
2614.43	1.77778
2615.79	2.10879
2617.15	1.39652
2618.52	2.00763
2619.88	1.81483
2621.24	0.825847
2622.6	0.483232
2623.96	0.854924
2625.32	1.4235
2626.68	1.24998
2628.04	1.47537
2629.4	1.42377
2630.75	2.0398
2632.11	3.2117
2633.47	3.30997
2634.83	4.07717
2636.19	3.96611
2637.55	4.72744
2638.9	4.30672
2640.26	5.2911
2641.62	4.76537
2642.98	5.13278
2644.33	5.40045
2645.69	5.07583
2647.04	4.90268
2648.4	4.32559
2649.76	4.22619
2651.11	4.34139
2652.47	4.68862
2653.82	4.01012
2655.18	3.79869
2656.53	3.66815
2657.88	3.43193
2659.24	2.8806
2660.59	2.57834
2661.95	2.42655
2663.3	3.22885
2664.65	3.29191
2666	3.43441
2667.36	3.55597
2668.71	3.05179
2670.06	3.61025
2671.41	3.70967
2672.76	4.73522
2674.12	4.9844
2675.47	5.27189
2676.82	5.05826
2678.17	5.50547
2679.52	5.67451
2680.87	5.18425
2682.22	4.50708
2683.57	5.3059
2684.92	5.66863
2686.27	6.54847
2687.62	6.2632
2688.97	6.23166
2690.31	6.62011
2691.66	6.25042
2693.01	7.03893
2694.36	7.07551
2695.71	7.69352
2697.05	8.19426
2698.4	8.83253
2699.75	9.18866
2701.09	9.46387
2702.44	10.2834
2703.78	10.3221
2705.13	11.2122
2706.48	11.5016
2707.82	11.4767
2709.17	11.0495
2710.51	11.1193
2711.86	10.9461
2713.2	11.029
2714.54	11.6227
2715.89	11.9309
2717.23	12.0251
2718.57	11.8388
2719.92	11.9753
2721.26	12.178
2722.6	12.5347
2723.95	12.4799
2725.29	12.8641
2726.63	13.1199
2727.97	13.8204
2729.31	14.747
2730.65	15.0461
2732	14.7916
2733.34	14.5438
2734.68	14.8558
2736.02	15.1844
2737.36	15.3624
2738.7	15.0597
2740.04	15.3693
2741.38	15.9734
2742.72	16.1756
2744.05	16.9816
2745.39	17.3891
2746.73	17.2691
2748.07	17.3231
2749.41	17.1455
2750.75	17.4183
2752.08	16.6459
2753.42	16.5644
2754.76	15.4707
2756.09	15.9864
2757.43	15.3202
2758.77	15.2587
2760.1	15.7675
2761.44	14.8038
2762.78	14.5161
2764.11	13.881
2765.44	13.6297
2766.78	13.6806
2768.11	13.7894
2769.45	13.2817
2770.78	11.9046
2772.12	11.3776
2773.45	10.0421
2774.78	9.32022
2776.12	8.9125
2777.45	8.13283
2778.78	7.2128
2780.12	5.99983
2781.45	5.2243
2782.78	3.83964
2784.11	3.44911
2785.44	2.77138
2786.78	2.85921
2788.11	2.26678
2789.44	1.8279
2790.77	1.14801
2792.1	0.462097
2793.43	-0.436379
2794.76	-0.4384
2796.09	-0.358758
2797.42	-0.112849
2798.75	0.471905
2800.08	0.633377
2801.4	1.35078
2802.73	1.68443
2804.06	1.23547
2805.39	1.55441
2806.72	1.96666
2808.05	1.93396
2809.37	2.01844
2810.7	2.46795
2812.03	2.28157
2813.35	3.07228
2814.68	3.21585
2816.01	3.87034
2817.33	5.26449
2818.66	6.55112
2819.98	8.24965
2821.31	9.36172
2822.63	11.6401
2823.96	13.0097
2825.28	15.2234
2826.61	17.2431
2827.93	19.5054
2829.25	22.1213
2830.58	24.2625
2831.9	26.9057
2833.23	29.2044
2834.55	31.2906
2835.87	32.8072
2837.19	35.0775
2838.52	38.0404
2839.84	40.9464
2841.16	44.8568
2842.48	47.6076
2843.8	50.5108
2845.12	53.9218
2846.44	58.4939
2847.77	63.1841
2849.08	67.8331
2850.4	72.5916
2851.73	76.7905
2853.05	81.141
2854.36	85.9493
2855.68	90.1444
2857	94.5184
2858.32	98.4016
2859.64	102.893
2860.96	107.9
2862.28	112.089
2863.59	115.701
2864.91	118.955
2866.23	122.151
2867.55	125.767
2868.86	128.001
2870.18	130.535
2871.5	133.751
2872.81	136.184
2874.13	138.259
2875.44	141.487
2876.76	143.802
2878.07	146.451
2879.39	149.4
2880.7	151.793
2882.02	154.89
2883.33	156.437
2884.65	158.533
2885.96	161.727
2887.28	164.17
2888.59	166.782
2889.9	169.391
2891.21	171.529
2892.53	174.41
2893.84	177.445
2895.15	179.834
2896.46	182.329
2897.78	185.752
2899.09	188.432
2900.4	192.437
2901.71	196.846
2903.02	201.399
2904.33	205.938
2905.64	211.627
2906.95	217.759
2908.26	223.255
2909.57	229.079
2910.88	235.887
2912.19	242.1
2913.5	247.986
2914.81	254.643
2916.12	260.66
2917.43	266.609
2918.73	272.035
2920.04	277.449
2921.35	282.079
2922.66	286.477
2923.96	290.356
2925.27	293.733
2926.58	297.59
2927.88	300.274
2929.19	301.783
2930.5	303.106
2931.8	304.577
2933.11	304.629
2934.41	303.539
2935.72	303.331
2937.02	302.172
2938.33	299.843
2939.63	298.023
2940.94	295.954
2942.24	292.721
2943.54	289.417
2944.85	286.144
2946.15	281.741
2947.45	276.577
2948.76	270.613
2950.06	266.384
2951.36	261.302
2952.66	255.897
2953.97	250.535
2955.27	245.185
2956.57	239.337
2957.87	234.152
2959.17	228.709
2960.47	223.222
2961.77	217.915
2963.07	212.632
2964.37	207.464
2965.67	202.406
2966.97	197.366
2968.27	192.033
2969.57	187.574
2970.87	183.846
2972.17	179.215
2973.47	173.954
2974.77	169.128
2976.07	165.039
2977.36	160.04
2978.66	155.374
2979.96	151.36
2981.26	146.233
2982.55	141.219
2983.85	136.57
2985.15	131.407
2986.44	126.552
2987.74	122.006
2989.03	117.628
2990.33	112.834
2991.63	108.521
2992.92	103.367
2994.21	98.3345
2995.51	94.8802
2996.8	90.6899
2998.1	85.6907
2999.39	82.2316
3000.69	78.9879
3001.98	75.4818
3003.27	71.8194
3004.57	69.0182
3005.86	66.5284
3007.15	63.9578
3008.44	60.7634
3009.74	58.1743
3011.03	54.9378
3012.32	52.7218
3013.61	50.5024
3014.9	49.6217
3016.19	47.9166
3017.48	46.94
3018.78	45.9406
3020.07	44.6556
3021.36	44.3414
3022.65	44.0978
3023.94	43.2709
3025.23	42.4934
3026.51	42.0524
3027.8	41.9926
3029.09	42.3298
3030.38	42.5917
3031.67	43.174
3032.96	42.9694
3034.24	42.6485
3035.53	42.3918
3036.82	41.753
3038.11	42.0175
3039.39	42.0655
3040.68	42.2469
3041.97	42.2985
3043.25	42.0402
3044.54	42.3476
3045.83	41.8494
3047.11	42.1093
3048.4	42.1676
3049.68	42.2703
3050.97	42.2891
3052.25	42.2396
3053.54	41.159
3054.82	40.0683
3056.11	40.2046
3057.39	39.4597
3058.67	38.8239
3059.96	38.027
3061.24	36.9177
3062.52	36.802
3063.81	36.7866
3065.09	35.9253
3066.37	35.2324
3067.65	34.9646
3068.94	34.2999
3070.22	33.3729
3071.5	31.7895
3072.78	30.4803
3074.06	29.6282
3075.34	28.5737
3076.62	27.3249
3077.9	26.0808
3079.18	25.0993
3080.46	23.5772
3081.74	22.3623
3083.02	20.9946
3084.3	19.588
3085.58	19.0076
3086.86	17.9493
3088.14	16.7793
3089.42	16.3577
3090.69	16.1401
3091.97	16.1114
3093.25	14.809
3094.53	14.1421
3095.8	13.1349
3097.08	11.8653
3098.36	11.0282
3099.63	10.8237
3100.91	9.86786
3102.19	9.45096
3103.46	8.70878
3104.74	7.73667
3106.01	7.65637
3107.29	6.77453
3108.56	6.68607
3109.84	6.40192
3111.11	5.93551
3112.39	4.96264
3113.66	4.98911
3114.94	4.48383
3116.21	4.03614
3117.48	3.19777
3118.76	3.01423
3120.03	3.15321
3121.3	2.39164
3122.57	2.55465
3123.85	2.91326
3125.12	3.32906
3126.39	3.39201
3127.66	2.85389
3128.93	2.89667
3130.21	2.97269
3131.48	2.955
3132.75	2.01268
3134.02	1.68726
3135.29	1.37114
3136.56	0.795237
3137.83	0.118949
3139.1	-0.325785
3140.37	-0.81278
3141.64	-1.16867
3142.91	-1.37754
3144.17	-1.42645
3145.44	-1.22135
3146.71	-0.857687
3147.98	-1.11362
3149.25	-1.62282
