#Acq. time (s)=	45
#Accumulations=	2
#Range (cm-¹)=	200...3150
#Windows=	2
#Auto scanning=	Off
#Autofocus=	Off
#Macrospot=	Off
#AutoExposure=	Off
#Spike filter=	Multiple accum.
#Delay time (s)=	0
#Binning=	1
#Readout mode=	Signal
#DeNoise=	Off
#ICS correction=	On
#Dark correction=	Off
#Inst. Process=	Off
#Detector Gain=	Best Dynamic Range
#Detector ADC=	20 kHz       
#Detector temperature (°C)=	-69.85
#Instrument=	LabRAM HR Evol
#Detector=	Synapse
#Objective=	x100
#Grating=	600 gr/mm
#ND Filter=	100%
#Laser (nm)=	532 
#Hole=	100.021
#Range=	Auto
#Laser Pol.=	No
#Raman. Pol.=	No
#Laser Pol. (°)=	-0.0007625
#Raman Pol. (°)=	89.9995
#Collection=	Microscope
#StageXY=	Marzhauser
#StageZ=	Marzhauser
#X (µm)=	-5133.5
#Y (µm)=	1487.6
#Z (µm)=	62.75
#Full time(mm:ss)=	3:18
#Project=	
#Sample=	
#Site=	
#Title=	Thy_50_12_21_2x_45s_532 nm_x100_100%_600 gr_mm
#Remark=	
#Date=	07.07.2022 10:46
#Acquired=	07.07.2022 10:46:46
#Base:Fit=	10.08.2022 10:04:29
#Base:Sub=	10.08.2022 10:04:45
#Filter:Polynom=	16.08.2022 10:20:24
#AxisType[0]=Intens
#AxisUnit[0]=Cnt
#AxisType[1]=Spectr
#AxisUnit[1]=1/cm
200.43	49.9814
202.246	47.5007
204.061	44.216
205.875	43.1438
207.688	41.0127
209.501	38.2473
211.316	35.4718
213.129	33.3495
214.941	30.596
216.753	27.5532
218.566	25.6667
220.377	22.9924
222.188	20.7637
223.999	19.1404
225.809	18.2616
227.618	16.1312
229.43	14.9843
231.239	13.1415
233.047	12.6141
234.855	11.416
236.663	10.0454
238.471	8.02727
240.278	7.93244
242.087	8.0203
243.894	8.36973
245.7	7.74438
247.506	7.0336
249.311	6.11978
251.116	5.61862
252.921	6.324
254.725	6.94029
256.529	6.73567
258.333	6.10201
260.136	6.7405
261.939	6.41839
263.744	7.37826
265.546	7.40355
267.348	7.42945
269.15	7.10501
270.951	6.71351
272.752	5.94804
274.552	6.81489
276.353	7.583
278.152	8.02734
279.952	7.9955
281.751	9.77411
283.55	9.97003
285.348	10.4338
287.146	11.944
288.942	13.0191
290.739	12.5965
292.536	12.804
294.333	12.5994
296.129	11.3054
297.925	12.0336
299.721	13.4295
301.516	13.4367
303.311	14.0882
305.106	13.9224
306.9	13.807
308.694	14.4183
310.486	15.4049
312.279	15.69
314.072	15.5364
315.864	15.3801
317.656	15.5046
319.448	15.7798
321.24	15.4335
323.029	15.0454
324.819	14.8662
326.61	15.0537
328.4	15.4141
330.19	14.8937
331.977	13.179
333.766	13.0176
335.555	11.8408
337.343	11.2224
339.131	10.6423
340.917	12.1006
342.704	12.6614
344.491	13.3582
346.277	14.2014
348.062	15.2934
349.848	16.8872
351.633	17.9645
353.416	19.8581
355.201	19.4273
356.986	19.8376
358.77	20.149
360.552	21.5609
362.335	22.58
364.118	22.9056
365.899	23.041
367.682	22.9865
369.464	24.3984
371.243	24.5995
373.025	23.9357
374.806	23.6147
376.585	24.4731
378.365	23.6223
380.143	23.1494
381.923	23.5209
383.702	23.1085
385.479	23.2609
387.258	23.6841
389.034	23.144
390.812	22.8756
392.59	23.1054
394.365	21.3933
396.142	20.1199
397.916	19.1219
399.693	18.1171
401.467	15.458
403.242	14.2588
405.015	13.7814
406.79	12.5217
408.565	10.0055
410.337	8.88572
412.111	7.60685
413.882	6.27549
415.656	4.42219
417.426	3.11164
419.197	0.419417
420.969	0.522313
422.739	1.56067
424.51	1.8909
426.279	3.11199
428.05	4.4223
429.819	6.41354
431.589	6.20622
433.356	7.62955
435.124	8.09137
436.893	7.99157
438.66	8.00341
440.428	8.66201
442.194	8.99368
443.96	7.88355
445.727	9.07403
447.492	8.62849
449.259	8.90202
451.023	8.26821
452.787	8.40398
454.553	8.08734
456.316	7.80635
458.079	8.45263
459.844	8.18162
461.606	8.87062
463.368	9.04158
465.132	9.50922
466.893	10.7181
468.654	11.1133
470.415	11.5594
472.177	11.5916
473.937	12.7358
475.696	12.9654
477.456	13.9896
479.217	15.3248
480.975	14.7878
482.733	14.5733
484.491	16.2138
486.251	16.2431
488.008	17.3958
489.765	17.8109
491.522	19.3619
493.278	19.9946
495.036	20.3524
496.791	21.034
498.546	22.4358
500.301	22.1424
502.056	21.9274
503.81	22.5779
505.566	23.5389
507.319	24.3121
509.073	25.636
510.825	26.879
512.578	28.3853
514.33	28.7606
516.082	28.7746
517.833	29.2304
519.587	29.1492
521.337	29.0471
523.088	29.0462
524.838	29.4115
526.588	30.3385
528.337	31.1389
530.087	31.0076
531.835	30.3856
533.584	31.0271
535.332	29.695
537.08	29.6761
538.827	28.2782
540.574	27.8698
542.321	26.2867
544.068	26.6576
545.814	26.9825
547.56	26.4903
549.305	25.5189
551.05	25.0081
552.795	24.9928
554.54	25.3201
556.284	24.0129
558.027	24.4422
559.771	23.7562
561.514	23.5988
563.257	22.3712
564.999	22.2767
566.742	20.9872
568.481	18.9067
570.223	18.5355
571.964	17.9714
573.705	15.9692
575.445	14.6059
577.185	14.0202
578.925	13.9663
580.665	12.92
582.402	11.7857
584.141	10.332
585.879	9.89393
587.617	9.87191
589.355	8.79742
591.092	8.99811
592.828	9.46655
594.564	9.27514
596.301	8.5963
598.037	8.75794
599.773	8.1669
601.506	7.85753
603.242	7.72843
604.976	7.59456
606.711	7.90903
608.443	8.01021
610.177	9.17462
611.91	9.96996
613.644	10.1109
615.374	10.1241
617.107	10.9239
618.839	10.7653
620.569	11.9904
622.3	11.5388
624.032	12.3696
625.761	12.9544
627.491	14.3658
629.221	15.6358
630.949	17.3221
632.679	18.2091
634.408	19.2518
636.135	20.21
637.863	21.2275
639.592	22.2294
641.318	22.4622
643.045	22.485
644.77	23.0086
646.497	22.8885
648.224	23.9408
649.948	24.1895
651.674	24.084
653.398	23.6562
655.123	23.7823
656.846	25.1494
658.57	25.6791
660.293	25.5911
662.017	25.6106
663.738	26.8887
665.462	26.1225
667.185	25.9213
668.905	25.4766
670.628	26.1056
672.348	27.4731
674.067	27.638
675.789	28.0125
677.508	29.4651
679.228	30.6834
680.947	31.3391
682.667	31.8413
684.385	32.8422
686.104	33.0946
687.821	35.1508
689.538	35.7397
691.256	37.1319
692.972	38.5403
694.69	39.9472
696.406	41.6554
698.121	43.394
699.837	44.0783
701.552	45.2612
703.268	46.1089
704.982	46.3614
706.695	48.6658
708.41	49.4177
710.123	51.0801
711.836	51.9043
713.55	52.2176
715.262	52.9385
716.973	53.8195
718.685	54.2685
720.398	55.6861
722.108	55.9163
723.818	56.5807
725.53	57.1574
727.24	57.9163
728.949	58.749
730.658	60.7063
732.369	61.5638
734.077	62.3712
735.785	61.7374
737.493	63.5689
739.2	64.5509
740.909	65.4491
742.616	66.4558
744.322	66.7179
746.028	67.4784
747.734	68.1144
749.441	68.9286
751.146	70.2586
752.851	72.5409
754.555	74.3231
756.26	76.0767
757.963	78.0914
759.667	79.9497
761.372	82.1946
763.075	82.9847
764.777	85.0724
766.479	85.2443
768.181	86.0997
769.883	87.3905
771.584	87.5282
773.285	89.6283
774.986	89.3081
776.686	90.4097
778.386	91.4585
780.085	91.3968
781.785	91.0843
783.484	90.9196
785.182	91.4659
786.881	91.5182
788.579	90.5162
790.276	90.8608
791.974	91.3034
793.671	91.8563
795.367	91.8449
797.064	91.2372
798.76	90.724
800.456	91.3227
802.151	91.4806
803.846	91.1356
805.541	90.3124
807.236	89.4516
808.93	89.2995
810.624	88.4602
812.317	87.882
814.01	88.0176
815.703	88.3866
817.394	87.3466
819.086	86.9833
820.778	86.371
822.47	86.7798
824.161	85.6606
825.852	84.872
827.543	84.0142
829.231	82.9318
830.921	81.3206
832.611	79.9511
834.3	79.645
835.989	79.482
837.676	78.2075
839.364	77.2008
841.053	76.6891
842.74	76.3239
844.426	75.6502
846.113	74.4787
847.8	73.1349
849.486	72.4068
851.171	70.4981
852.857	71.0383
854.542	70.7514
856.227	70.7535
857.911	70.5464
859.595	69.4642
861.279	69.2628
862.961	69.461
864.645	68.3912
866.329	68.7154
868.01	68.8384
869.692	68.5616
871.375	67.1695
873.055	66.4982
874.737	67.5829
876.418	68.6266
878.097	68.906
879.778	68.5493
881.457	66.9477
883.137	66.0446
884.817	66.4952
886.495	65.3703
888.174	64.4876
889.851	63.419
891.53	62.5517
893.206	62.2303
894.884	61.1407
896.562	60.6557
898.237	60.0289
899.914	58.8027
901.589	57.5615
903.265	56.9785
904.94	55.6675
906.615	54.1659
908.289	52.3322
909.964	49.8992
911.637	48.0557
913.31	46.2738
914.984	44.4591
916.656	44.6654
918.33	44.6378
920.001	42.7583
921.674	40.9974
923.345	39.9802
925.015	38.4906
926.687	37.4843
928.357	36.5571
930.028	35.2219
931.698	34.435
933.366	33.6269
935.037	33.6709
936.705	33.9334
938.373	32.7742
940.043	32.0765
941.71	30.0477
943.379	30.0057
945.046	29.3922
946.712	29.1831
948.378	29.1152
950.046	29.0894
951.711	29.7494
953.376	29.9385
955.043	30.3246
956.708	31.0621
958.372	30.8954
960.036	31.7563
961.701	31.1746
963.364	31.6827
965.027	31.6212
966.69	32.4852
968.354	33.8426
970.016	32.7685
971.678	33.5175
973.339	33.726
975	33.6068
976.661	34.7324
978.324	34.37
979.984	34.8483
981.644	35.3098
983.303	35.0005
984.962	35.2769
986.621	34.8906
988.282	34.8009
989.94	34.4088
991.598	34.9079
993.256	34.7582
994.913	35.067
996.57	34.9531
998.227	35.1939
999.884	35.7846
1001.54	35.0852
1003.2	34.1214
1004.85	34.037
1006.51	34.0573
1008.16	34.2645
1009.82	35.171
1011.47	35.3478
1013.12	35.178
1014.78	35.4225
1016.43	36.1332
1018.08	37.2905
1019.74	37.2761
1021.39	37.5257
1023.04	36.826
1024.69	36.1451
1026.34	36.9642
1028	37.3402
1029.65	37.3891
1031.3	37.8543
1032.95	38.019
1034.6	37.8996
1036.25	37.1407
1037.9	36.624
1039.55	36.4173
1041.19	36.165
1042.84	36.4728
1044.49	35.7315
1046.14	36.2299
1047.79	35.2663
1049.43	34.3099
1051.08	33.3434
1052.73	32.0027
1054.37	31.3259
1056.02	30.7023
1057.66	30.0477
1059.31	28.7442
1060.95	27.8471
1062.6	27.0289
1064.24	25.9103
1065.88	25.1039
1067.53	25.0464
1069.17	24.1123
1070.81	24.035
1072.46	22.8668
1074.1	23.303
1075.74	21.9648
1077.38	22.4496
1079.02	21.6665
1080.66	21.1876
1082.3	21.0529
1083.94	20.7971
1085.58	20.2924
1087.22	19.4866
1088.86	19.3748
1090.5	19.0666
1092.14	18.9429
1093.78	18.6989
1095.42	17.7816
1097.05	17.9089
1098.69	17.7557
1100.33	17.0199
1101.97	16.1338
1103.6	14.7086
1105.24	13.5989
1106.87	12.898
1108.51	12.9719
1110.15	11.9294
1111.78	11.0844
1113.41	10.6227
1115.05	10.5915
1116.68	9.57977
1118.31	8.59415
1119.95	7.10248
1121.58	6.80048
1123.21	5.89708
1124.85	5.37718
1126.48	5.80032
1128.11	4.91928
1129.74	4.65319
1131.37	4.17443
1133	3.49512
1134.63	4.31005
1136.26	3.21121
1137.89	3.22168
1139.52	2.46986
1141.15	1.34703
1142.78	1.94874
1144.41	2.13188
1146.04	1.90556
1147.66	2.15363
1149.29	1.23912
1150.92	2.24292
1152.55	3.02656
1154.17	3.86197
1155.8	4.20346
1157.43	3.44491
1159.05	4.878
1160.68	5.27666
1162.3	4.59224
1163.93	4.70688
1165.55	3.99415
1167.17	3.95515
1168.8	4.29181
1170.42	4.90031
1172.05	4.3766
1173.67	5.26017
1175.29	4.95878
1176.91	4.59768
1178.54	3.76756
1180.16	2.65994
1181.78	2.55275
1183.4	1.65068
1185.02	1.73864
1186.64	2.35168
1188.26	2.15861
1189.88	2.4025
1191.5	2.66259
1193.12	3.56283
1194.74	3.72986
1196.36	4.40012
1197.97	4.11479
1199.59	4.68684
1201.21	6.04146
1202.83	7.03369
1204.44	7.4402
1206.06	8.47933
1207.68	9.61916
1209.29	10.5464
1210.91	12.9225
1212.52	12.7918
1214.14	14.8807
1215.75	16.8145
1217.37	17.3723
1218.98	19.8677
1220.6	20.9308
1222.21	22.9836
1223.82	25.4055
1225.44	27.3744
1227.05	29.0735
1228.66	31.0807
1230.27	32.1738
1231.88	34.9427
1233.49	36.5157
1235.1	38.1511
1236.72	39.4868
1238.33	41.2923
1239.94	43.7577
1241.55	45.1082
1243.16	45.8346
1244.76	48.343
1246.37	49.2293
1247.98	50.4269
1249.59	52.0488
1251.2	52.6573
1252.8	52.4491
1254.41	53.9169
1256.02	54.4554
1257.63	54.1992
1259.23	54.7029
1260.84	56.3457
1262.44	59.1717
1264.05	60.2677
1265.66	62.1637
1267.26	62.5954
1268.87	62.8806
1270.47	64.3055
1272.07	65.6842
1273.68	66.4141
1275.28	67.3615
1276.88	68.5586
1278.48	69.085
1280.09	70.3134
1281.69	71.5515
1283.29	73.1796
1284.89	73.9509
1286.49	75.4424
1288.09	77.7506
1289.69	80.2088
1291.3	81.9041
1292.9	83.1279
1294.49	84.5631
1296.09	84.514
1297.69	84.2165
1299.29	83.6554
1300.89	83.8673
1302.49	84.8655
1304.09	85.3367
1305.68	85.6947
1307.28	85.5882
1308.88	84.8917
1310.47	84.9184
1312.07	86.5622
1313.66	86.5848
1315.26	86.9216
1316.86	86.2397
1318.45	85.5797
1320.05	85.2224
1321.64	84.9372
1323.23	83.5905
1324.83	82.8771
1326.42	80.8645
1328.01	79.7892
1329.61	79.2134
1331.2	76.5526
1332.79	74.9725
1334.38	74.6481
1335.98	72.7949
1337.57	70.9217
1339.16	70.4575
1340.75	69.9887
1342.34	69.1093
1343.93	66.6692
1345.52	64.8126
1347.11	62.7416
1348.7	62.2198
1350.29	61.2655
1351.87	59.221
1353.46	58.6191
1355.05	57.5753
1356.64	56.4476
1358.23	55.0791
1359.81	54.619
1361.4	54.172
1362.99	53.5483
1364.57	51.4024
1366.16	51.8721
1367.74	51.8453
1369.33	51.3314
1370.91	49.8702
1372.5	48.6212
1374.08	46.8614
1375.67	45.9257
1377.25	45.2166
1378.83	45.3133
1380.42	46.0907
1382	45.7032
1383.58	45.4125
1385.16	44.6241
1386.75	43.8227
1388.33	43.115
1389.91	43.177
1391.49	43.1288
1393.07	41.3292
1394.65	40.9826
1396.23	39.7122
1397.81	39.6971
1399.39	40.043
1400.97	39.6226
1402.55	38.8477
1404.13	39.6647
1405.7	39.9254
1407.28	40.5187
1408.86	41.2972
1410.44	41.791
1412.01	43.599
1413.59	45.6316
1415.17	46.4758
1416.74	48.1344
1418.32	49.9382
1419.89	52.3317
1421.47	54.38
1423.05	56.2457
1424.62	58.1044
1426.19	61.1481
1427.77	64.2501
1429.34	66.6582
1430.92	70.0963
1432.49	73.0008
1434.06	74.6978
1435.63	76.5803
1437.2	78.9481
1438.78	80.4225
1440.35	81.9035
1441.92	83.5627
1443.49	84.8799
1445.06	86.6661
1446.63	87.7804
1448.2	88.6304
1449.77	88.0976
1451.34	88.3546
1452.91	88.1374
1454.48	87.7371
1456.05	86.9846
1457.62	85.6021
1459.18	84.1548
1460.75	82.1919
1462.32	80.1577
1463.89	77.2513
1465.45	75.4461
1467.02	73.5077
1468.59	71.3529
1470.15	68.7853
1471.72	65.8232
1473.28	63.1875
1474.85	59.6443
1476.41	56.8935
1477.98	53.646
1479.54	49.7933
1481.11	47.4325
1482.67	44.4293
1484.23	41.7928
1485.8	39.6097
1487.36	37.3107
1488.92	35.1178
1490.48	33.4614
1492.05	31.8803
1493.61	29.9514
1495.17	29.4354
1496.73	28.2109
1498.29	27.4563
1499.85	26.8363
1501.41	26.424
1502.97	25.7092
1504.53	25.6667
1506.09	25.5959
1507.65	25.2592
1509.2	24.552
1510.76	23.7523
1512.32	23.7054
1513.88	23.7982
1515.44	24.2185
1516.99	24.2987
1518.55	24.8679
1520.1	25.6111
1521.66	26.2711
1523.22	26.7215
1524.77	27.5191
1526.33	28.5815
1527.88	28.9122
1529.44	29.5272
1530.99	30.4022
1532.55	30.7341
1534.1	31.7405
1535.65	33.4902
1537.21	35.0172
1538.76	36.8614
1540.31	38.7662
1541.86	40.8938
1543.42	43.7992
1544.97	45.6397
1546.52	47.0447
1548.07	48.4034
1549.62	50.8356
1551.17	52.8735
1552.72	55.1921
1554.27	57.4676
1555.82	58.0717
1557.37	59.6998
1558.92	62.2478
1560.47	64.0719
1562.02	66.1922
1563.57	67.9651
1565.11	69.6031
1566.66	71.7898
1568.21	73.659
1569.75	75.5009
1571.3	77.2093
1572.85	78.3441
1574.39	78.9715
1575.94	80.5693
1577.49	80.6085
1579.03	82.1841
1580.58	82.0001
1582.12	83.3953
1583.67	84.628
1585.21	84.8486
1586.75	85.2714
1588.3	86.1467
1589.84	87.0713
1591.38	87.1661
1592.93	86.7866
1594.47	86.5858
1596.01	86.3095
1597.55	85.5732
1599.09	84.4503
1600.63	83.1115
1602.18	82.1573
1603.72	81.555
1605.26	79.8478
1606.8	78.8265
1608.34	79.0957
1609.87	78.8158
1611.41	78.9763
1612.95	79.0633
1614.49	78.8235
1616.03	79.9235
1617.57	80.4274
1619.11	81.6441
1620.64	82.3324
1622.18	82.7676
1623.72	84.4307
1625.25	86.063
1626.79	87.5075
1628.32	87.3147
1629.86	87.6991
1631.4	87.3991
1632.93	88.1688
1634.47	90.1498
1636	91.2072
1637.53	92.3194
1639.07	93.5658
1640.6	94.958
1642.14	96.6388
1643.67	97.8011
1645.2	98.8268
1646.73	99.2879
1648.27	100.005
1649.8	99.9718
1651.33	100.165
1652.86	100.234
1654.39	100.333
1655.92	101.113
1657.45	99.8026
1658.98	99.5761
1660.51	98.3402
1662.04	96.3572
1663.57	94.5684
1665.1	92.2669
1666.63	90.1728
1668.16	87.2313
1669.69	84.7098
1671.21	81.9258
1672.74	78.8837
1674.27	74.3656
1675.79	71.7313
1677.32	68.7898
1678.85	66.2158
1680.37	62.9017
1681.9	59.2453
1683.42	56.9088
1684.95	54.1496
1686.47	51.3217
1688	48.0473
1689.52	45.6458
1691.05	43.1449
1692.57	40.1837
1694.1	37.7349
1695.62	35.4377
1697.14	32.8787
1698.66	31.5888
1700.19	29.3444
1701.71	27.1093
1703.23	25.2172
1704.75	22.9991
1706.27	22.2066
1707.79	21.0224
1709.32	20.2326
1710.83	19.4782
1712.35	18.2213
1713.88	17.9936
1715.39	17.1837
1716.91	15.9138
1718.43	15.8401
1719.95	14.7717
1721.47	14.5052
1722.99	14.0663
1724.5	14.4056
1726.02	13.5825
1727.54	12.5068
1729.06	12.3584
1730.57	11.9883
1732.09	11.3181
1733.61	10.9758
1735.12	10.5879
1736.64	10.1483
1738.15	9.67529
1739.67	9.38093
1741.18	8.5603
1742.7	9.11519
1744.21	9.10454
1745.72	8.91009
1747.24	8.73441
1748.75	8.8756
1750.26	8.62615
1751.78	9.50449
1753.29	8.61631
1754.8	8.24975
1756.31	7.98855
1757.82	7.87674
1759.34	8.1392
1760.85	7.84266
1762.36	7.74854
1763.87	7.20261
1765.38	7.36051
1766.89	6.90582
1768.4	6.82718
1769.91	7.62069
1771.41	7.54887
1772.92	7.51212
1774.43	7.52847
1775.94	7.07251
1777.45	7.45825
1778.96	6.75987
1780.46	6.28319
1781.97	6.48889
1783.48	5.99366
1784.98	5.78921
1786.49	5.81036
1788	4.86506
1789.5	4.90294
1791.01	4.25992
1792.51	3.84613
1794.01	3.80707
1795.52	3.5351
1797.02	4.05191
1798.53	3.70058
1800.03	3.37718
1801.54	2.67002
1803.04	2.58749
1804.54	3.0927
1806.04	2.80474
1807.54	2.83963
1809.05	2.71289
1810.55	2.16113
1812.05	2.27752
1813.55	1.62686
1815.05	1.17234
1816.55	0.792026
1818.05	1.37504
1819.55	1.69288
1821.05	1.68509
1822.55	1.33918
1824.05	1.25625
1825.55	0.868935
1827.05	0.248249
1828.55	-0.330401
1830.04	-0.00537882
1831.54	0.454048
1833.04	0.355925
1834.54	0.914438
1836.03	1.17302
1837.53	0.846959
1839.03	0.617832
1840.52	1.33658
1842.02	1.75296
1843.51	1.97289
1845.01	1.57537
1846.5	1.13051
1848	1.34483
1849.49	2.1246
1850.99	2.32746
1852.48	2.18796
1853.97	2.55399
1855.47	3.21505
1856.96	2.67636
1858.45	2.48194
1859.94	2.51393
1861.44	2.17918
1862.93	1.34987
1864.42	2.06111
1865.91	1.79068
1867.4	1.66206
1868.89	1.6636
1870.38	2.15338
1871.87	2.20774
1873.36	2.28106
1874.85	2.57888
1876.34	2.96736
1877.83	3.10795
1879.32	3.11605
1880.81	3.68798
1882.3	3.71953
1882.56	3.84732
1884.06	3.88226
1885.55	4.05695
1887.04	3.86014
1888.54	4.26987
1890.03	3.84666
1891.52	3.98373
1893.02	4.15104
1894.51	3.49978
1896	2.78739
1897.49	2.98057
1898.99	2.7786
1900.48	2.73667
1901.97	3.12992
1903.46	3.26608
1904.95	3.52841
1906.44	3.4806
1907.93	3.29336
1909.42	3.85478
1910.91	4.39794
1912.4	4.74391
1913.89	4.98937
1915.38	4.44169
1916.86	4.48863
1918.35	4.45183
1919.84	4.85413
1921.33	4.99308
1922.82	5.07111
1924.3	4.59856
1925.79	4.59251
1927.28	4.82444
1928.76	4.6448
1930.25	4.21969
1931.74	4.7337
1933.22	5.19859
1934.71	5.07072
1936.19	4.806
1937.67	5.56375
1939.16	5.08653
1940.64	5.29553
1942.13	5.27068
1943.61	5.48784
1945.09	6.09539
1946.58	6.08385
1948.06	6.3027
1949.54	6.21187
1951.03	5.81151
1952.51	5.95868
1953.99	6.55753
1955.47	5.63039
1956.95	5.39934
1958.43	5.08737
1959.91	4.43689
1961.39	4.41405
1962.87	3.80373
1964.35	3.01106
1965.83	3.48259
1967.31	3.45342
1968.79	2.88087
1970.27	2.28295
1971.75	2.37439
1973.22	1.65769
1974.7	1.35618
1976.18	1.255
1977.66	1.13019
1979.13	1.01121
1980.61	0.701209
1982.09	0.0914007
1983.56	0.640366
1985.04	-0.345669
1986.52	-1.32233
1987.99	-1.71955
1989.47	-1.85626
1990.94	-1.50548
1992.41	-1.13579
1993.89	-1.23252
1995.36	-1.11613
1996.84	-0.490323
1998.31	-0.237561
1999.78	-0.357648
2001.26	0.0540948
2002.73	-0.191246
2004.2	-0.17897
2005.67	0.0583582
2007.15	0.955623
2008.62	0.17702
2010.09	-0.00689989
2011.56	0.30406
2013.03	0.582539
2014.5	1.21925
2015.97	1.69479
2017.44	2.23139
2018.91	2.65701
2020.38	2.98479
2021.85	3.26912
2023.32	3.04171
2024.79	2.85583
2026.25	3.06179
2027.72	3.75702
2029.19	3.37978
2030.66	4.05811
2032.13	4.10616
2033.59	4.40195
2035.06	5.02834
2036.53	5.12147
2037.99	5.59542
2039.46	5.95855
2040.92	6.01517
2042.39	6.21785
2043.85	7.07137
2045.32	7.69096
2046.78	7.80994
2048.25	8.35803
2049.71	8.61806
2051.18	8.50831
2052.64	8.93414
2054.1	9.35504
2055.56	9.73109
2057.03	10.1923
2058.49	10.3767
2059.95	11.0994
2061.42	11.615
2062.88	13.1016
2064.34	13.7265
2065.8	14.9115
2067.26	14.8241
2068.72	15.5619
2070.18	16.3961
2071.64	17.0361
2073.1	17.7093
2074.56	18.5664
2076.02	19.5281
2077.48	20.8252
2078.94	22.1591
2080.39	22.9598
2081.85	23.405
2083.31	24.7702
2084.77	26.8203
2086.22	28.5957
2087.68	29.4944
2089.14	30.7459
2090.6	31.4419
2092.05	33.1788
2093.51	34.8632
2094.96	35.2187
2096.42	36.2046
2097.87	38.1594
2099.33	40.1119
2100.78	42.114
2102.24	43.0373
2103.69	44.9676
2105.15	45.9934
2106.6	47.8995
2108.05	49.5611
2109.51	51.2409
2110.96	53.306
2112.41	54.696
2113.86	57.0795
2115.32	58.8546
2116.77	61.0854
2118.22	62.6587
2119.67	64.8523
2121.12	66.7476
2122.57	68.6112
2124.02	70.1937
2125.47	72.3763
2126.92	74.1357
2128.37	76.2855
2129.82	78.0497
2131.27	80.1153
2132.72	82.2327
2134.17	84.1077
2135.62	86.728
2137.06	87.6551
2138.51	90.0648
2139.96	91.7203
2141.41	94.0464
2142.85	96.5301
2144.3	98.461
2145.75	100.078
2147.19	101.977
2148.64	104.089
2150.09	105.728
2151.53	107.881
2152.97	108.869
2154.42	110.734
2155.86	112.143
2157.31	114.2
2158.75	115.076
2160.2	115.708
2161.64	117.074
2163.08	117.578
2164.53	119.152
2165.97	119.793
2167.41	119.686
2168.86	120.938
2170.3	121.541
2171.74	121.496
2173.18	121.151
2174.62	120.652
2176.06	120.462
2177.5	119.631
2178.94	119.312
2180.38	118.614
2181.82	118.455
2183.26	117.586
2184.7	116.491
2186.14	115.873
2187.58	114.8
2189.02	114.076
2190.46	112.599
2191.89	110.834
2193.33	108.684
2194.77	107.097
2196.21	104.907
2197.64	103.646
2199.08	102.143
2200.52	100.025
2201.95	96.8509
2203.39	94.5885
2204.83	92.5183
2206.26	89.8784
2207.7	87.8827
2209.13	85.4977
2210.57	83.3811
2212	80.8789
2213.43	78.5949
2214.87	75.5699
2216.3	73.0197
2217.73	70.166
2219.17	67.8076
2220.6	65.5066
2222.03	63.356
2223.47	61.3829
2224.9	59.0588
2226.33	57.8759
2227.76	56.4916
2229.19	54.6243
2230.62	52.1422
2232.05	50.3748
2233.49	48.2852
2234.91	46.1229
2236.34	45.1015
2237.77	43.1277
2239.2	41.8692
2240.63	41.5542
2242.06	39.1671
2243.49	37.7984
2244.92	36.5638
2246.35	35.3004
2247.78	34.451
2249.2	33.3958
2250.63	32.4516
2252.06	32.2807
2253.48	32.3305
2254.91	31.7129
2256.34	31.3373
2257.76	30.7651
2259.19	30.4219
2260.61	30.063
2262.04	29.2822
2263.46	29.1145
2264.89	28.6661
2266.31	28.7592
2267.74	28.4998
2269.16	27.8588
2270.59	26.8058
2272.01	25.8711
2273.43	25.101
2274.85	25.0826
2276.28	24.6783
2277.7	23.4342
2279.12	22.6604
2280.54	21.8625
2281.97	20.9913
2283.39	20.514
2284.81	19.5779
2286.23	18.804
2287.65	18.0788
2289.07	17.4028
2290.49	16.1675
2291.91	14.7162
2293.33	14.1627
2294.75	13.7606
2296.17	13.6207
2297.59	13.4874
2299.01	12.7224
2300.42	12.2737
2301.84	11.6294
2303.26	10.9848
2304.68	10.201
2306.1	10.3146
2307.51	10.3634
2308.93	10.4936
2310.35	10.6201
2311.76	10.3575
2313.18	9.3355
2314.59	9.78043
2316.01	9.56126
2317.43	8.92677
2318.84	9.13423
2320.26	9.31372
2321.67	9.72396
2323.08	10.1708
2324.5	9.98535
2325.91	9.28888
2327.33	9.29133
2328.74	9.12801
2330.15	9.08068
2331.56	8.7814
2332.98	8.4015
2334.39	8.49454
2335.8	8.10606
2337.21	8.47338
2338.62	8.05365
2340.04	7.37526
2341.45	7.4633
2342.86	7.2256
2344.27	6.28251
2345.68	5.56126
2347.09	4.9493
2348.5	4.1985
2349.91	4.26761
2351.31	4.02833
2352.72	3.3047
2354.13	2.41343
2355.54	1.65411
2356.95	1.04872
2358.36	0.779938
2359.76	0.634778
2361.17	-0.00157413
2362.58	0.620194
2363.98	0.862184
2365.39	0.66425
2366.8	1.05011
2368.21	0.843872
2369.61	0.457503
2371.02	0.424289
2372.42	-0.223046
2373.83	-0.272864
2375.23	-0.0887275
2376.64	0.266308
2378.04	0.548833
2379.44	1.0669
2380.85	0.834161
2382.25	1.28977
2383.66	1.43304
2385.06	1.19097
2386.46	1.12459
2387.86	1.27024
2389.26	2.0299
2390.67	2.09651
2392.07	1.6598
2393.47	1.99839
2394.87	2.24719
2396.27	2.38059
2397.67	2.88725
2399.07	3.41227
2400.47	4.15199
2401.87	4.30813
2403.27	4.56276
2404.67	4.96152
2406.07	5.13857
2407.47	5.31655
2408.87	5.35291
2410.27	5.56703
2411.67	5.35932
2413.07	5.54991
2414.46	5.61421
2415.86	6.34198
2417.26	7.13683
2418.66	7.45087
2420.05	7.58007
2421.45	7.59221
2422.84	7.98226
2424.24	8.05164
2425.64	8.05124
2427.03	8.14696
2428.43	8.07786
2429.82	7.3702
2431.22	6.97762
2432.61	6.61486
2434.01	5.71767
2435.4	5.81422
2436.79	6.23384
2438.19	5.74345
2439.58	5.90002
2440.97	5.05817
2442.37	5.0915
2443.76	5.13979
2445.15	5.19337
2446.54	5.48791
2447.93	5.08343
2449.33	4.09569
2450.72	4.12152
2452.11	3.98965
2453.5	3.787
2454.89	3.30041
2456.28	3.36102
2457.67	3.31382
2459.06	2.87592
2460.45	2.83797
2461.84	2.72012
2463.23	3.18111
2464.62	2.75752
2466	2.63492
2467.39	2.98562
2468.78	3.13293
2470.17	2.29
2471.55	1.90785
2472.94	1.84053
2474.33	1.80947
2475.72	1.67217
2477.1	1.4541
2478.49	2.04501
2479.87	2.05336
2481.26	1.68657
2482.65	2.44353
2484.03	2.5833
2485.42	2.74181
2486.8	2.45813
2488.19	1.91184
2489.57	1.61885
2490.95	1.69237
2492.34	1.02702
2493.72	0.737253
2495.1	0.706834
2496.49	0.391446
2497.87	0.40061
2499.25	0.176401
2500.63	0.0399508
2502.02	0.404657
2503.4	-0.227917
2504.78	-0.273453
2506.16	-0.191164
2507.54	-0.536695
2508.92	-0.291489
2510.3	-0.973064
2511.68	-0.524189
2513.06	-0.628225
2514.44	-0.695409
2515.82	-1.01355
2517.2	-1.10145
2518.58	-0.979344
2519.96	0.206604
2521.34	0.260948
2522.72	0.790248
2524.1	0.86247
2525.47	1.06446
2526.85	1.23815
2528.23	1.87862
2529.6	2.626
2530.98	3.13771
2532.36	3.20365
2533.74	3.6095
2535.11	3.97589
2536.49	4.60535
2537.86	4.61093
2539.24	4.8236
2540.61	5.2518
2541.99	5.48003
2543.36	5.33792
2544.74	5.81359
2546.11	6.01844
2547.49	6.44542
2548.86	6.26489
2550.23	6.47589
2551.61	6.67912
2552.98	5.99111
2554.35	5.28969
2555.72	5.27337
2557.09	5.56454
2558.47	5.50951
2559.84	5.84792
2561.21	5.73838
2562.58	6.2497
2563.95	6.03473
2565.32	5.91848
2566.69	5.96025
2568.06	5.30984
2569.43	5.34522
2570.8	5.06585
2572.17	4.57332
2573.54	4.7929
2574.91	4.82903
2576.28	4.45164
2577.65	4.79922
2579.02	4.64821
2580.39	4.69394
2581.75	4.78062
2583.12	4.65683
2584.49	4.70387
2585.85	4.97568
2587.22	5.47542
2588.59	6.03442
2589.95	5.8322
2591.32	5.95775
2592.68	6.22034
2594.05	5.94067
2595.42	6.3746
2596.78	6.15583
2598.15	5.67611
2599.51	5.37276
2600.88	4.73135
2602.24	5.45774
2603.6	4.85519
2604.97	5.33874
2606.33	4.95769
2607.69	4.73987
2609.06	4.9867
2610.42	5.38691
2611.78	4.93399
2613.14	4.90182
2614.51	4.20699
2615.87	3.97687
2617.23	3.75395
2618.59	3.54973
2619.95	3.30748
2621.31	2.70688
2622.67	2.61872
2624.03	2.85526
2625.39	2.79261
2626.75	2.23577
2628.11	1.84949
2629.47	1.3175
2630.83	0.939099
2632.19	1.1021
2633.55	1.19777
2634.91	1.31625
2636.26	1.32359
2637.62	1.37026
2638.98	1.33449
2640.34	0.79605
2641.69	0.301818
2643.05	0.169284
2644.41	0.63387
2645.76	0.54339
2647.12	0.166412
2648.48	-0.0793886
2649.83	-0.197836
2651.19	-0.440091
2652.54	0.149886
2653.9	0.231578
2655.25	0.681558
2656.6	0.645123
2657.96	0.417313
2659.31	0.463516
2660.67	0.250219
2662.02	-0.0561957
2663.37	0.214257
2664.73	-0.202031
2666.08	0.835603
2667.43	1.25818
2668.78	1.84374
2670.14	2.35917
2671.49	2.57345
2672.84	3.32384
2674.19	2.97997
2675.54	3.34329
2676.89	3.51599
2678.24	3.54381
2679.59	3.15615
2680.94	3.32115
2682.29	3.62143
2683.64	3.63811
2684.99	3.92327
2686.34	4.1917
2687.69	4.10511
2689.04	3.97664
2690.39	4.65293
2691.74	4.88795
2693.08	5.39209
2694.43	5.32945
2695.78	5.94012
2697.13	6.48037
2698.47	6.69705
2699.82	7.16781
2701.17	7.09402
2702.51	7.2141
2703.86	7.12634
2705.21	7.18916
2706.55	6.94776
2707.9	6.92978
2709.24	7.47168
2710.58	8.09749
2711.93	8.29112
2713.27	8.26745
2714.62	8.68064
2715.96	9.50082
2717.3	9.92626
2718.65	10.4141
2719.99	10.8909
2721.33	11.3465
2722.68	11.68
2724.02	11.3487
2725.36	11.5407
2726.71	11.5911
2728.05	11.6552
2729.39	11.9445
2730.73	11.9242
2732.07	12.4666
2733.41	12.7848
2734.75	11.9438
2736.09	11.7056
2737.43	11.871
2738.77	11.633
2740.11	11.0174
2741.45	10.5158
2742.79	10.3664
2744.13	9.88469
2745.47	9.72256
2746.81	8.74759
2748.14	8.78316
2749.48	8.74585
2750.82	8.40386
2752.16	8.71909
2753.49	8.36942
2754.83	7.95993
2756.17	7.54413
2757.5	7.11085
2758.84	6.46768
2760.18	6.13171
2761.51	5.51383
2762.85	5.17515
2764.18	4.88016
2765.52	4.32755
2766.85	4.4546
2768.19	4.31985
2769.52	4.15672
2770.86	4.12287
2772.19	3.50351
2773.52	3.27366
2774.86	2.80454
2776.19	2.52488
2777.52	2.21065
2778.86	1.7391
2780.19	2.26428
2781.52	2.4758
2782.85	3.36515
2784.19	2.64612
2785.52	2.39003
2786.85	2.16574
2788.18	1.87514
2789.51	1.5085
2790.84	1.36208
2792.17	1.82043
2793.5	1.60491
2794.83	1.09311
2796.16	1.11415
2797.49	0.970951
2798.82	1.06531
2800.15	0.424157
2801.48	-0.12583
2802.81	-0.0731227
2804.13	-0.186371
2805.46	-0.878909
2806.79	-1.72317
2808.12	-1.95828
2809.45	-2.02035
2810.77	-2.67975
2812.1	-2.98982
2813.43	-2.6906
2814.75	-1.72179
2816.08	-0.770877
2817.41	-0.298567
2818.73	0.909568
2820.06	2.33151
2821.38	3.85388
2822.71	5.79005
2824.03	8.28435
2825.36	10.7814
2826.68	13.6551
2828	17.0823
2829.33	20.0647
2830.65	23.5192
2831.98	26.7316
2833.3	30.5673
2834.62	33.7769
2835.94	37.2916
2837.27	40.9445
2838.59	44.0134
2839.91	47.3282
2841.23	50.7196
2842.55	55.2655
2843.87	59.1918
2845.2	63.595
2846.52	68.8022
2847.84	73.4702
2849.16	78.5318
2850.48	83.0152
2851.8	88.6268
2853.12	93.6212
2854.44	98.8367
2855.76	105.289
2857.08	110.946
2858.39	115.959
2859.71	120.802
2861.03	125.709
2862.35	130.437
2863.67	134.649
2864.98	138.777
2866.3	142.403
2867.62	145.785
2868.94	148.947
2870.25	151.923
2871.57	154.096
2872.88	157.394
2874.2	160.205
2875.52	162.284
2876.83	164.259
2878.15	166.777
2879.46	169.209
2880.78	171.651
2882.09	174.185
2883.41	176.508
2884.72	178.922
2886.03	181.308
2887.35	183.798
2888.66	186.315
2889.97	188.451
2891.29	191.282
2892.6	193.254
2893.91	195.504
2895.22	197.492
2896.54	200.952
2897.85	204.127
2899.16	207.217
2900.47	210.208
2901.78	213.785
2903.09	217.711
2904.4	221.941
2905.71	226.902
2907.02	232.729
2908.33	238.488
2909.64	244.179
2910.95	250.376
2912.26	256.91
2913.57	264.027
2914.88	271.011
2916.19	276.715
2917.5	282.73
2918.81	288.614
2920.11	294.76
2921.42	300.773
2922.73	304.692
2924.04	308.494
2925.34	312.09
2926.65	314.843
2927.96	316.295
2929.26	317.631
2930.57	318.176
2931.87	318.209
2933.18	317.798
2934.49	316.507
2935.79	315.097
2937.1	312.721
2938.4	310.095
2939.7	306.059
2941.01	302.043
2942.31	298.228
2943.62	293.474
2944.92	288.805
2946.22	283.888
2947.53	278.299
2948.83	272.585
2950.13	266.058
2951.43	259.818
2952.74	253.53
2954.04	246.937
2955.34	240.364
2956.64	233.979
2957.94	226.468
2959.24	220.586
2960.54	214.73
2961.84	209.294
2963.15	203.149
2964.45	197.275
2965.75	191.831
2967.05	186.633
2968.34	181.447
2969.64	176.348
2970.94	171.299
2972.24	166.189
2973.54	161.334
2974.84	156.117
2976.14	151.284
2977.43	146.448
2978.73	141.844
2980.03	136.345
2981.33	130.868
2982.62	126.24
2983.92	121.614
2985.22	116.36
2986.51	110.92
2987.81	105.471
2989.11	100.16
2990.4	94.9175
2991.7	89.7128
2992.99	84.2745
2994.29	79.2019
2995.58	74.122
2996.88	69.7006
2998.17	65.4957
2999.46	60.6997
3000.76	56.6528
3002.05	52.5019
3003.34	48.5214
3004.64	44.996
3005.93	41.4574
3007.22	38.3734
3008.52	34.8063
3009.81	31.9965
3011.1	29.4865
3012.39	26.9112
3013.68	24.3202
3014.97	21.8249
3016.27	19.7386
3017.56	18.5746
3018.85	16.7726
3020.14	15.0608
3021.43	13.4979
3022.72	12.3714
3024.01	11.5713
3025.3	10.9923
3026.59	10.3027
3027.88	10.0888
3029.16	9.85678
3030.45	9.47255
3031.74	8.77327
3033.03	8.66615
3034.32	8.61287
3035.6	8.46887
3036.89	8.86514
3038.18	9.01873
3039.47	9.04488
3040.75	9.51203
3042.04	9.54258
3043.33	9.68489
3044.61	9.9413
3045.9	10.4541
3047.18	11.1963
3048.47	11.4443
3049.75	11.3545
3051.04	12.2306
3052.32	12.7935
3053.61	12.4453
3054.89	12.4508
3056.18	12.1267
3057.46	12.202
3058.74	12.4614
3060.03	12.6084
3061.31	13.0267
3062.59	12.6794
3063.88	12.2263
3065.16	12.1629
3066.44	11.5565
3067.72	10.8547
3069	10.732
3070.29	10.082
3071.57	9.7005
3072.85	9.03414
3074.13	8.2834
3075.41	8.11551
3076.69	6.94475
3077.97	6.24562
3079.25	5.7898
3080.53	5.04219
3081.81	4.95304
3083.09	4.39706
3084.37	3.8034
3085.65	3.12095
3086.93	2.72828
3088.21	2.32506
3089.49	2.12596
3090.76	1.80142
3092.04	2.03777
3093.32	1.72237
3094.6	1.56266
3095.87	1.49923
3097.15	1.79234
3098.43	1.61908
3099.7	2.10551
3100.98	2.33643
3102.26	2.01371
3103.53	2.26798
3104.81	2.05335
3106.08	2.40623
3107.36	2.81841
3108.63	3.37159
3109.91	3.97962
3111.18	4.40801
3112.46	4.49058
3113.73	5.20021
3115	6.15862
3116.28	5.99925
3117.55	6.29824
3118.83	7.18421
3120.1	8.30232
3121.37	9.25276
3122.64	9.86114
3123.92	10.4749
3125.19	11.1499
3126.46	11.6851
3127.73	12.5176
3129	13.0692
3130.27	13.7316
3131.55	14.7454
3132.82	15.8829
3134.09	16.3367
3135.36	17.4411
3136.63	18.4288
3137.9	19.7354
3139.17	21.4969
3140.44	22.5233
3141.71	24.1053
3142.98	25.6119
3144.24	27.1555
3145.51	28.594
3146.78	30.2151
3148.05	32.6389
3149.32	34.8269
