#Acq. time (s)=	45
#Accumulations=	2
#Range (cm-¹)=	200...3150
#Windows=	2
#Auto scanning=	Off
#Autofocus=	Off
#Macrospot=	Off
#AutoExposure=	Off
#Spike filter=	Multiple accum.
#Delay time (s)=	0
#Binning=	1
#Readout mode=	Signal
#DeNoise=	Off
#ICS correction=	On
#Dark correction=	Off
#Inst. Process=	Off
#Detector Gain=	Best Dynamic Range
#Detector ADC=	20 kHz       
#Detector temperature (°C)=	-69.85
#Instrument=	LabRAM HR Evol
#Detector=	Synapse
#Objective=	x100
#Grating=	600 gr/mm
#ND Filter=	100%
#Laser (nm)=	532 
#Hole=	100.021
#Range=	Auto
#Laser Pol.=	No
#Raman. Pol.=	No
#Laser Pol. (°)=	-0.0007625
#Raman Pol. (°)=	89.9995
#Collection=	Microscope
#StageXY=	Marzhauser
#StageZ=	Marzhauser
#X (µm)=	-5898.3
#Y (µm)=	2841
#Z (µm)=	-223.25
#Full time(mm:ss)=	3:18
#Project=	
#Sample=	
#Site=	
#Title=	Thy_20_09_09_2x_45s_532 nm_x100_100%_600 gr_mm
#Remark=	
#Date=	29.06.2022 11:22
#Acquired=	29.06.2022 11:22:10
#Base:Fit=	10.08.2022 09:49:32
#Base:Fit=	10.08.2022 09:49:42
#Base:Fit=	10.08.2022 09:49:53
#Base:Fit=	10.08.2022 09:50:12
#Base:Fit=	10.08.2022 09:50:26
#Base:Fit=	10.08.2022 09:50:30
#Base:Fit=	10.08.2022 09:50:43
#Base:Fit=	10.08.2022 09:52:02
#Base:Fit=	10.08.2022 09:52:12
#Base:Sub=	10.08.2022 09:54:21
#Filter:Polynom=	16.08.2022 10:24:04
#AxisType[0]=Intens
#AxisUnit[0]=Cnt
#AxisType[1]=Spectr
#AxisUnit[1]=1/cm
200.523	4.25569
202.339	4.16921
204.154	4.77092
205.967	4.45626
207.781	4.28943
209.596	4.36929
211.409	4.39005
213.222	4.73403
215.034	4.56238
216.848	5.072
218.659	4.93032
220.47	3.87877
222.281	4.65972
224.091	5.87857
225.903	5.97727
227.713	5.78781
229.522	5.6318
231.331	6.04882
233.14	4.96872
234.948	6.09498
236.756	6.36317
238.566	6.19695
240.373	6.2276
242.18	6.00647
243.986	5.91601
245.792	5.77088
247.598	6.00907
249.403	6.15963
251.208	6.60629
253.013	4.9013
254.818	4.24988
256.624	3.26666
258.427	2.7218
260.231	3.15714
262.034	3.66732
263.836	3.13329
265.638	3.10191
267.44	3.77332
269.242	3.78354
271.043	5.17582
272.844	4.37258
274.645	4.40023
276.445	3.77095
278.245	3.30072
280.044	3.96592
281.843	3.78326
283.642	3.04227
285.44	4.48403
287.238	4.23638
289.036	4.58413
290.833	4.74089
292.63	6.10169
294.425	6.26721
296.221	7.44621
298.017	8.70665
299.813	8.39177
301.608	9.0472
303.403	9.49735
305.198	9.92739
306.992	10.4505
308.786	10.9648
310.579	11.6127
312.371	13.4271
314.163	13.6698
315.956	13.2789
317.748	13.8165
319.54	13.6762
321.331	14.1256
323.122	14.1437
324.911	15.416
326.701	14.8551
328.491	15.093
330.281	15.186
332.071	15.4884
333.857	16.1472
335.646	15.9438
337.434	15.6804
339.222	15.317
341.008	14.4619
342.795	13.9131
344.582	13.9143
346.369	13.6242
348.153	14.2427
349.939	13.4648
351.724	12.9577
353.51	12.6964
355.292	13.6211
357.077	13.2083
358.861	11.8669
360.643	11.3027
362.426	9.00111
364.21	8.15996
365.99	7.70361
367.773	6.73019
369.555	5.63254
371.335	5.95075
373.116	5.71753
374.897	5.77396
376.676	5.10593
378.456	5.57849
380.236	6.18471
382.014	5.24636
383.793	4.59646
385.57	5.60444
387.349	5.31429
389.127	3.96851
390.903	3.47653
392.681	2.85623
394.456	3.08028
396.233	2.87844
398.007	3.2846
399.784	2.26938
401.56	2.72358
403.333	2.78034
405.108	2.76573
406.881	2.74848
408.656	3.0482
410.428	4.05009
412.202	4.41264
413.973	5.13434
415.746	5.87805
417.517	6.41389
419.29	7.35694
421.06	7.73306
422.831	7.45504
424.601	6.68637
426.37	7.19276
428.141	7.38388
429.909	7.66865
431.679	8.85116
433.447	9.34573
435.216	9.33975
436.983	10.3165
438.75	9.771
440.519	9.84767
442.285	9.94972
444.052	10.5528
445.818	10.0984
447.583	10.7776
449.349	11.0266
451.114	10.653
452.878	10.6431
454.643	10.086
456.407	11.0471
458.169	11.8895
459.934	12.5525
461.696	13.3195
463.458	12.6847
465.222	12.9108
466.983	13.0598
468.744	13.1356
470.507	13.031
472.267	14.3185
474.027	14.5192
475.787	13.4491
477.548	13.3792
479.307	13.8278
481.065	13.8777
482.823	14.402
484.583	14.4219
486.341	13.4842
488.098	13.0908
489.855	14.4148
491.612	14.7432
493.37	14.141
495.126	13.5964
496.881	13.4795
498.636	12.8358
500.391	12.2645
502.148	13.1825
503.902	12.9265
505.656	12.4053
507.409	13.0096
509.162	12.344
510.915	12.6985
512.668	12.9384
514.42	13.7743
516.174	14.1075
517.925	14.7679
519.676	14.7365
521.427	14.3308
523.178	14.7806
524.928	13.863
526.678	13.0951
528.427	13.708
530.176	13.5047
531.925	13.9983
533.673	14.3746
535.422	13.4126
537.169	12.8919
538.917	11.3844
540.664	11.4767
542.411	11.8288
544.157	12.2927
545.903	10.9266
547.649	9.96354
549.395	10.0854
551.14	8.85877
552.884	8.80039
554.629	8.44301
556.373	8.03986
558.117	8.29573
559.86	8.42758
561.603	7.7472
563.346	7.2466
565.089	6.59313
566.831	5.57613
568.573	5.01266
570.314	4.78902
572.053	3.62305
573.794	2.89594
575.534	4.45348
577.274	4.50957
579.014	4.03973
580.754	3.6715
582.493	4.00314
584.23	4.55402
585.968	4.77286
587.706	5.2485
589.444	6.16781
591.181	5.7429
592.919	6.58025
594.653	6.97542
596.39	6.64125
598.126	7.20683
599.862	7.55382
601.595	8.74046
603.33	8.51604
605.065	8.82017
606.8	8.08197
608.532	8.15783
610.266	8.14478
611.999	7.59936
613.732	8.55517
615.463	8.34827
617.196	8.13549
618.928	8.63599
620.66	8.05321
622.389	7.61013
624.12	7.98559
625.851	7.2256
627.58	7.31282
629.31	6.65509
631.04	6.34047
632.767	5.92243
634.497	6.35604
636.223	6.56103
637.952	6.73291
639.68	7.68293
641.406	8.50589
643.134	9.53703
644.861	10.2692
646.586	10.4911
648.312	10.508
650.037	10.693
651.762	10.8761
653.486	12.0904
655.211	13.3652
656.936	14.2844
658.659	14.5921
660.383	16.5686
662.105	18.3683
663.829	18.8094
665.55	19.8088
667.273	21.1418
668.994	21.7714
670.716	21.8462
672.436	22.6878
674.158	23.9779
675.877	24.5114
677.598	25.3352
679.317	25.4468
681.035	25.262
682.755	26.3566
684.473	26.9242
686.192	27.4425
687.909	26.8898
689.628	26.652
691.344	26.9366
693.06	26.8682
694.778	27.3716
696.493	28.1927
698.211	28.6046
699.925	29.039
701.64	28.0458
703.356	27.9167
705.07	28.0024
706.783	28.3027
708.498	28.9964
710.211	29.3552
711.924	29.9659
713.638	30.7238
715.35	31.9097
717.061	32.8125
718.774	33.6564
720.485	34.8155
722.196	34.9028
723.906	37.0027
725.618	37.4601
727.328	37.7163
729.037	38.4848
730.746	39.2677
732.456	39.3255
734.165	39.8887
735.873	41.2909
737.58	42.4408
739.289	43.9425
740.997	44.8581
742.703	45.745
744.41	46.4354
746.116	47.1501
747.823	47.5064
749.529	47.3584
751.234	48.4188
752.938	49.7699
754.643	50.7767
756.347	51.8911
758.051	53.2778
759.756	53.8087
761.459	54.179
763.162	54.6931
764.865	54.6584
766.567	55.0253
768.269	55.5104
769.97	56.1861
771.671	56.5982
773.372	57.2855
775.073	59.0009
776.773	59.9669
778.473	60.8961
780.174	61.1643
781.874	61.6429
783.573	61.2856
785.271	62.4039
786.97	62.2812
788.668	64.0424
790.365	65.8956
792.063	66.7905
793.76	67.5936
795.456	68.9374
797.153	69.8301
798.847	69.9482
800.543	71.0914
802.238	71.9767
803.933	72.4437
805.628	73.1723
807.322	73.3794
809.017	74.6193
810.71	74.3321
812.404	75.3071
814.097	76.2744
815.79	77.4726
817.483	77.8913
819.173	78.7925
820.865	78.9303
822.556	78.7891
824.248	77.6866
825.939	76.9688
827.629	75.689
829.318	74.7251
831.008	74.4541
832.697	74.3888
834.387	74.6769
836.076	75.0654
837.765	75.0924
839.451	74.5898
841.139	72.7602
842.827	71.0082
844.514	69.9924
846.2	69.1075
847.886	68.2341
849.573	67.7689
851.259	67.3923
852.943	67.1591
854.629	66.141
856.314	65.1143
857.997	64.9495
859.682	64.6683
861.366	63.4739
863.05	61.4153
864.732	60.2575
866.415	59.5333
868.098	59.3529
869.779	59.799
871.461	58.6983
873.141	58.2942
874.823	57.1078
876.505	56.046
878.184	55.2646
879.865	55.0731
881.545	54.6475
883.223	53.85
884.903	53.9749
886.581	53.6379
888.26	53.4739
889.937	53.524
891.616	53.4063
893.294	54.1618
894.97	55.0209
896.648	55.7582
898.323	55.8914
900	55.6321
901.675	54.8373
903.351	53.9014
905.026	53.4565
906.701	53.4355
908.375	51.9139
910.05	52.1578
911.723	51.8328
913.398	52.377
915.07	52.397
916.742	51.6478
918.415	50.8896
920.087	49.9472
921.76	48.8732
923.43	47.4232
925.103	46.8073
926.773	46.9734
928.443	47.5995
930.114	47.8174
931.783	46.8794
933.454	47.3717
935.123	46.9143
936.791	46.2967
938.461	45.6756
940.128	45.6372
941.796	43.484
943.464	42.3528
945.131	39.9683
946.797	37.6376
948.465	36.7938
950.131	36.3413
951.797	34.9071
953.462	32.6249
955.128	30.6139
956.793	28.754
958.457	27.2535
960.121	26.3133
961.786	24.4494
963.45	24.6015
965.113	24.9594
966.775	25.3591
968.44	26.1211
970.102	27.4571
971.763	28.1263
973.425	29.0681
975.086	29.9786
976.748	30.5622
978.409	30.926
980.069	30.3977
981.729	30.0754
983.388	30.79
985.048	30.4387
986.708	31.0375
988.367	30.9244
990.025	31.1807
991.683	30.563
993.341	31.1499
994.998	31.2667
996.655	31.4721
998.312	30.6056
999.969	29.8791
1001.62	30.1396
1003.28	30.1815
1004.94	29.9105
1006.59	30.889
1008.25	31.9875
1009.9	32.7858
1011.56	33.0402
1013.21	32.6628
1014.86	32.7093
1016.52	33.3036
1018.17	31.8512
1019.82	30.5095
1021.48	29.2624
1023.13	27.617
1024.78	25.7543
1026.43	25.7396
1028.08	25.3573
1029.73	23.567
1031.38	23.4089
1033.03	23.6636
1034.68	22.4897
1036.33	21.354
1037.98	21.5966
1039.63	20.8621
1041.28	20.8006
1042.93	21.4892
1044.57	21.0624
1046.22	22.8621
1047.87	22.5678
1049.52	22.3961
1051.16	22.5099
1052.81	22.8978
1054.45	22.8922
1056.1	22.7065
1057.75	21.9316
1059.39	21.6992
1061.04	21.059
1062.68	19.8442
1064.32	19.9289
1065.97	20.3674
1067.61	19.3867
1069.25	19.96
1070.9	19.4862
1072.54	19.486
1074.18	18.994
1075.82	18.406
1077.47	16.9716
1079.11	16.816
1080.75	16.0475
1082.39	16.7037
1084.03	17.405
1085.67	17.3157
1087.31	18.0055
1088.95	18.1938
1090.59	18.2752
1092.22	18.6724
1093.86	17.9423
1095.5	18.2414
1097.14	18.7355
1098.78	18.5548
1100.41	18.4167
1102.05	18.9511
1103.69	18.8284
1105.32	18.4686
1106.96	18.7021
1108.59	18.5175
1110.23	18.0139
1111.86	17.1386
1113.5	18.1534
1115.13	17.978
1116.77	16.722
1118.4	15.9421
1120.03	15.0173
1121.67	14.0744
1123.3	13.379
1124.93	13.117
1126.56	11.8333
1128.19	12.0027
1129.83	11.3405
1131.46	11.0836
1133.09	10.8069
1134.72	10.875
1136.35	10.5167
1137.98	9.22555
1139.61	8.11592
1141.24	7.0945
1142.86	5.90556
1144.49	4.79718
1146.12	4.12794
1147.75	4.24162
1149.38	2.96528
1151	2.70345
1152.63	1.32534
1154.26	0.128682
1155.88	-0.649231
1157.51	-1.43418
1159.14	-1.57322
1160.76	-0.216969
1162.39	-0.245955
1164.01	0.664882
1165.63	0.645428
1167.26	0.861786
1168.88	0.747714
1170.51	1.66038
1172.13	2.87447
1173.75	3.70345
1175.38	4.26215
1177	5.3324
1178.62	6.64947
1180.24	7.01639
1181.86	7.49766
1183.48	8.5055
1185.1	9.48659
1186.72	10.9112
1188.34	11.8883
1189.96	12.7807
1191.58	14.3567
1193.2	15.866
1194.82	16.4386
1196.44	16.7182
1198.06	18.2949
1199.68	19.4812
1201.29	20.5364
1202.91	22.3001
1204.53	23.8655
1206.14	24.9098
1207.76	25.6718
1209.38	26.4648
1210.99	27.6442
1212.61	28.5526
1214.22	30.405
1215.84	31.8354
1217.45	32.1564
1219.07	32.6415
1220.68	33.1356
1222.29	34.3711
1223.91	36.4292
1225.52	37.0368
1227.13	38.3299
1228.74	39.7696
1230.36	40.407
1231.97	41.37
1233.58	41.8259
1235.19	42.3061
1236.8	43.5021
1238.41	44.4842
1240.02	46.2012
1241.63	46.9375
1243.24	47.5044
1244.85	48.827
1246.46	48.9277
1248.07	49.2961
1249.67	50.1341
1251.28	51.63
1252.89	51.4444
1254.5	51.9932
1256.1	52.4148
1257.71	52.6143
1259.32	53.7149
1260.92	53.7317
1262.53	53.7688
1264.13	54.1962
1265.74	54.8875
1267.34	54.6865
1268.95	55.613
1270.55	55.8028
1272.15	56.2888
1273.76	56.8997
1275.36	57.0966
1276.97	57.6389
1278.57	59.2365
1280.17	59.1607
1281.77	60.1303
1283.37	60.4565
1284.97	61.2841
1286.58	61.7685
1288.18	63.6178
1289.78	64.9479
1291.38	66.2827
1292.98	67.1558
1294.58	67.6223
1296.18	68.1669
1297.78	68.2851
1299.37	68.8178
1300.97	69.1546
1302.57	70.2133
1304.17	71.5001
1305.77	71.86
1307.36	73.1779
1308.96	73.8089
1310.55	74.1276
1312.15	75.7343
1313.75	76.315
1315.34	77.3676
1316.94	79.2018
1318.53	79.6316
1320.13	80.232
1321.72	79.4961
1323.32	79.535
1324.91	79.3909
1326.5	78.8327
1328.1	78.1645
1329.69	78.2964
1331.28	78.1593
1332.87	77.0386
1334.47	75.8876
1336.06	74.9399
1337.65	74.4895
1339.24	73.4713
1340.83	71.2142
1342.42	69.1807
1344.01	68.0906
1345.6	67.1203
1347.19	66.1075
1348.78	64.8209
1350.37	62.741
1351.96	60.7992
1353.54	59.1282
1355.13	57.6017
1356.72	56.5471
1358.31	55.2667
1359.89	53.3432
1361.48	52.3182
1363.07	50.4224
1364.65	48.7339
1366.24	48.4808
1367.82	46.7431
1369.41	45.143
1370.99	44.2844
1372.58	43.2013
1374.16	40.9382
1375.75	39.8654
1377.33	37.9238
1378.91	37.8475
1380.5	37.1326
1382.08	37.0313
1383.66	37.7257
1385.25	37.5927
1386.83	36.0533
1388.41	35.4337
1389.99	35.8128
1391.57	35.9109
1393.15	33.886
1394.73	34.1066
1396.31	34.0015
1397.89	32.6479
1399.47	31.6658
1401.05	31.6963
1402.63	31.7761
1404.21	32.8047
1405.78	33.2678
1407.36	33.7253
1408.94	35.2937
1410.52	35.7907
1412.1	36.2175
1413.67	37.2423
1415.25	38.9248
1416.82	40.3799
1418.4	41.1663
1419.98	42.6849
1421.55	44.3715
1423.13	46.6984
1424.7	49.9222
1426.28	53.0999
1427.85	55.6722
1429.42	58.4424
1431	61.5858
1432.57	65.5473
1434.14	67.9024
1435.71	70.8099
1437.29	72.5774
1438.86	74.9193
1440.43	77.5834
1442	79.4743
1443.57	81.7488
1445.14	83.8708
1446.71	84.6314
1448.28	84.9363
1449.85	85.446
1451.42	85.1069
1452.99	83.8223
1454.56	83.7768
1456.13	82.5554
1457.7	81.2417
1459.26	79.271
1460.83	77.3917
1462.4	75.2485
1463.97	71.4936
1465.54	67.0238
1467.1	64.5094
1468.67	61.4317
1470.23	57.4976
1471.8	55.0079
1473.36	52.3284
1474.93	48.4555
1476.49	44.0535
1478.06	40.9034
1479.62	38.4129
1481.19	34.9711
1482.75	31.8838
1484.31	28.9806
1485.88	26.6733
1487.44	24.2263
1489	21.4259
1490.56	18.887
1492.13	16.578
1493.69	15.5333
1495.25	14.1659
1496.81	13.0378
1498.37	11.5344
1499.93	11.1324
1501.49	11.4566
1503.05	12.1435
1504.61	12.0334
1506.17	11.376
1507.73	11.653
1509.28	12.7759
1510.84	12.383
1512.4	12.0762
1513.96	13.0024
1515.52	12.7921
1517.07	13.7832
1518.63	14.9885
1520.19	15.2512
1521.74	16.6395
1523.3	17.1157
1524.85	17.7367
1526.41	17.9613
1527.96	19.679
1529.52	20.184
1531.07	20.7014
1532.63	21.6908
1534.18	21.9209
1535.73	23.0888
1537.29	24.1854
1538.84	24.8323
1540.39	25.8516
1541.94	27.4334
1543.5	28.5858
1545.05	30.4912
1546.6	31.1488
1548.15	32.7012
1549.7	34.183
1551.25	35.2893
1552.8	36.2321
1554.35	37.2744
1555.9	39.1798
1557.45	40.9622
1559	42.4416
1560.55	43.0284
1562.1	44.8656
1563.65	45.4198
1565.19	46.2111
1566.74	47.2743
1568.29	48.0166
1569.83	50.1279
1571.38	51.634
1572.93	52.1402
1574.47	52.772
1576.02	53.4884
1577.56	55.4162
1579.11	56.2937
1580.66	58.0171
1582.2	58.4643
1583.74	59.5273
1585.29	61.446
1586.83	62.1311
1588.38	61.8169
1589.92	62.3189
1591.46	62.4485
1593.01	63.4741
1594.55	64.7036
1596.09	65.1983
1597.63	64.6996
1599.17	65.2369
1600.71	64.2704
1602.25	63.6279
1603.79	63.0748
1605.34	62.7749
1606.88	62.263
1608.41	62.7302
1609.95	62.9154
1611.49	62.5839
1613.03	62.1012
1614.57	61.7206
1616.11	61.9476
1617.65	61.8589
1619.18	61.4394
1620.72	60.7148
1622.26	60.8045
1623.79	61.6706
1625.33	62.9334
1626.87	63.5801
1628.4	64.3774
1629.94	64.5384
1631.48	65.795
1633.01	67.4081
1634.55	67.9664
1636.08	67.5674
1637.61	68.6955
1639.15	69.8774
1640.68	70.8074
1642.21	72.2668
1643.75	73.1415
1645.28	73.574
1646.81	75.0959
1648.34	75.4804
1649.88	76.6133
1651.41	77.5505
1652.94	78.273
1654.47	78.9619
1656	79.6644
1657.53	79.6777
1659.06	78.6513
1660.59	78.3638
1662.12	77.9104
1663.65	76.1288
1665.18	74.0963
1666.71	73.7579
1668.24	73.0726
1669.76	72.2676
1671.29	69.7847
1672.82	66.9233
1674.35	63.9989
1675.87	61.7989
1677.4	59.193
1678.93	56.7384
1680.45	54.3045
1681.98	52.2236
1683.5	49.3792
1685.03	46.7177
1686.55	43.8446
1688.08	40.3236
1689.6	37.1958
1691.13	34.7122
1692.65	31.9108
1694.17	28.4343
1695.7	25.6294
1697.22	23.1482
1698.74	21.1711
1700.27	19.1676
1701.79	16.6449
1703.31	14.9649
1704.83	13.3478
1706.35	12.1995
1707.87	11.2716
1709.39	9.73469
1710.91	8.34116
1712.43	7.1456
1713.95	6.90581
1715.47	6.14582
1716.99	5.62556
1718.51	4.83116
1720.03	4.03162
1721.55	3.53793
1723.07	4.2553
1724.58	4.46669
1726.1	4.23514
1727.62	3.37963
1729.13	3.55283
1730.65	3.06376
1732.17	2.47173
1733.68	2.40067
1735.2	2.74542
1736.72	2.85615
1738.23	2.64553
1739.74	2.21458
1741.26	2.72639
1742.77	3.66595
1744.29	3.1805
1745.8	3.07362
1747.32	2.88263
1748.83	3.48788
1750.34	3.75722
1751.85	4.05609
1753.37	4.58642
1754.88	4.00961
1756.39	4.09662
1757.9	4.18657
1759.41	3.92436
1760.92	4.03472
1762.44	4.55073
1763.95	4.2089
1765.46	3.57238
1766.96	3.59883
1768.47	3.26982
1769.98	3.15477
1771.49	3.19163
1773	3.47851
1774.51	4.02458
1776.02	4.15893
1777.53	4.15683
1779.03	4.19597
1780.54	4.53512
1782.05	4.58502
1783.55	4.97709
1785.06	5.04737
1786.57	4.97542
1788.07	4.78038
1789.58	5.20159
1791.08	5.08326
1792.59	4.68198
1794.09	4.6336
1795.6	4.72644
1797.1	5.01454
1798.61	5.24579
1800.11	4.90106
1801.61	4.29205
1803.12	3.74316
1804.62	4.02672
1806.12	2.83228
1807.62	2.60115
1809.12	2.86557
1810.63	2.09319
1812.13	1.68111
1813.63	1.34809
1815.13	1.33256
1816.63	1.73412
1818.13	1.53731
1819.63	2.00335
1821.13	2.61626
1822.63	2.82313
1824.13	3.03609
1825.63	2.39289
1827.13	2.69848
1828.62	2.68429
1830.12	2.6349
1831.62	3.14855
1833.12	2.88787
1834.61	3.00446
1836.11	3.2317
1837.61	3.57187
1839.1	3.75642
1840.6	4.29665
1842.09	4.60643
1843.59	4.70172
1845.09	4.86336
1846.58	4.80835
1848.08	5.37004
1849.57	5.07954
1851.06	5.19017
1852.56	4.8077
1854.05	4.74866
1855.54	5.02228
1857.04	4.97783
1858.53	5.61736
1860.02	5.36048
1861.51	5.09954
1863.01	5.72186
1864.5	5.85927
1865.99	5.95419
1867.48	6.27486
1868.97	6.38019
1870.46	6.68178
1871.95	6.50144
1873.44	6.71632
1874.93	6.3645
1876.42	5.59471
1877.91	4.72534
1879.4	4.27316
1880.89	4.23821
1882.37	4.48665
1882.46	4.87525
1883.95	4.4035
1885.45	4.86091
1886.94	4.63069
1888.43	4.39333
1889.93	4.45289
1891.42	4.76952
1892.91	4.35689
1894.41	3.97961
1895.9	3.4068
1897.39	2.90129
1898.88	2.63588
1900.37	3.10394
1901.86	2.88087
1903.36	2.73842
1904.85	2.12526
1906.34	2.36764
1907.83	2.87498
1909.32	3.32177
1910.81	2.96294
1912.29	3.00879
1913.78	3.15713
1915.27	2.585
1916.76	3.16843
1918.25	3.1207
1919.74	3.06836
1921.23	3.31189
1922.71	2.43313
1924.2	2.18446
1925.69	2.10417
1927.17	1.87815
1928.66	2.35439
1930.15	1.86756
1931.63	1.93855
1933.12	1.96687
1934.6	2.05979
1936.09	2.58634
1937.57	2.74276
1939.06	3.12551
1940.54	3.64026
1942.02	3.29368
1943.51	3.21549
1944.99	2.70731
1946.47	2.8464
1947.96	2.7843
1949.44	2.90996
1950.92	3.86914
1952.4	4.54993
1953.88	5.26052
1955.37	4.96292
1956.85	5.0427
1958.33	4.70835
1959.81	5.10914
1961.29	4.07648
1962.77	3.62628
1964.25	3.56146
1965.73	3.34193
1967.21	2.83426
1968.69	2.97289
1970.16	3.16467
1971.64	3.41807
1973.12	3.19542
1974.6	3.20925
1976.08	2.86664
1977.55	2.53344
1979.03	2.7979
1980.51	3.6157
1981.98	3.62442
1983.46	3.723
1984.94	3.48304
1986.41	4.18513
1987.89	4.59067
1989.36	4.77341
1990.84	4.99084
1992.31	4.85794
1993.79	5.20406
1995.26	4.98934
1996.73	4.38884
1998.21	4.65808
1999.68	5.33579
2001.15	5.24015
2002.63	6.29968
2004.1	6.45629
2005.57	6.90214
2007.04	7.65408
2008.51	7.60352
2009.99	7.86883
2011.46	7.764
2012.93	7.75434
2014.4	7.87117
2015.87	7.43395
2017.34	8.18768
2018.81	7.86941
2020.28	8.54822
2021.75	9.15875
2023.21	9.34951
2024.68	9.52344
2026.15	8.47017
2027.62	7.99632
2029.09	7.7325
2030.56	7.55841
2032.02	7.30396
2033.49	6.94162
2034.96	6.36747
2036.42	6.78355
2037.89	7.37466
2039.36	7.87104
2040.82	8.17872
2042.29	8.36522
2043.75	8.25478
2045.22	7.75841
2046.68	7.4866
2048.14	7.79908
2049.61	8.1115
2051.07	8.39779
2052.54	8.54182
2054	9.06371
2055.46	9.86274
2056.93	10.2443
2058.39	10.9959
2059.85	11.4963
2061.31	12.2587
2062.77	12.0196
2064.23	12.2085
2065.7	12.7523
2067.16	13.4483
2068.62	13.4035
2070.08	14.0895
2071.54	14.5422
2073	15.0135
2074.46	15.1699
2075.92	15.4902
2077.38	14.8213
2078.83	14.4061
2080.29	14.4652
2081.75	13.6187
2083.21	13.8731
2084.67	13.9275
2086.12	13.8173
2087.58	14.0653
2089.04	14.2776
2090.49	14.3462
2091.95	14.7552
2093.41	15.2679
2094.86	14.9623
2096.32	14.548
2097.77	14.5931
2099.23	14.8819
2100.68	15.3763
2102.14	15.4992
2103.59	16.0112
2105.05	15.8578
2106.5	16.2124
2107.95	16.7935
2109.41	16.9548
2110.86	17.8235
2112.31	18.1905
2113.76	18.7484
2115.21	19.0221
2116.67	19.5147
2118.12	20.298
2119.57	21.7992
2121.02	22.8804
2122.47	23.5915
2123.92	24.3773
2125.37	24.9974
2126.82	26.715
2128.27	28.1477
2129.72	29.1457
2131.17	30.2154
2132.62	31.3523
2134.07	32.2469
2135.51	32.8635
2136.96	34.7804
2138.41	36.0295
2139.86	37.1931
2141.31	37.7447
2142.75	38.3631
2144.2	39.0227
2145.65	40.1242
2147.09	41.3304
2148.54	42.0343
2149.98	42.4663
2151.43	43.5948
2152.87	44.6125
2154.32	45.3419
2155.76	47.3407
2157.21	48.1191
2158.65	49.2056
2160.1	50.2829
2161.54	51.4846
2162.98	52.1303
2164.43	52.4799
2165.87	52.1167
2167.31	53.0019
2168.75	54.0985
2170.2	54.3929
2171.64	54.3656
2173.08	54.1228
2174.52	54.757
2175.96	54.9427
2177.4	54.1116
2178.84	54.1058
2180.28	53.637
2181.72	54.0002
2183.16	54.5924
2184.6	54.1259
2186.04	54.2093
2187.48	54.0461
2188.92	54.0851
2190.36	52.9679
2191.79	51.797
2193.23	50.7634
2194.67	49.4341
2196.11	49.3927
2197.54	48.8295
2198.98	48.5165
2200.42	47.01
2201.85	45.6359
2203.29	44.3162
2204.72	43.2598
2206.16	41.7311
2207.59	40.6618
2209.03	39.8667
2210.46	38.2358
2211.9	37.1132
2213.33	35.5513
2214.77	34.2944
2216.2	33.4099
2217.63	32.3204
2219.07	31.0904
2220.5	29.7688
2221.93	28.8619
2223.36	28.4111
2224.8	27.8809
2226.23	26.8197
2227.66	26.6334
2229.09	25.6076
2230.52	24.7024
2231.95	24.2084
2233.39	23.7591
2234.81	22.867
2236.25	21.8705
2237.67	21.6815
2239.1	21.5212
2240.53	20.9985
2241.96	20.0108
2243.39	20.4685
2244.82	19.6628
2246.25	19.1215
2247.68	17.9563
2249.1	17.3744
2250.53	17.6196
2251.96	18.1374
2253.38	18.5831
2254.81	18.5978
2256.24	17.858
2257.66	18.2439
2259.09	17.7189
2260.51	16.9529
2261.94	16.1923
2263.36	15.5418
2264.79	15.4146
2266.21	15.0669
2267.64	15.3206
2269.06	14.5368
2270.49	13.5729
2271.91	12.5856
2273.33	12.4855
2274.76	12.1497
2276.18	12.3536
2277.6	12.3528
2279.02	12.3205
2280.44	11.6783
2281.87	11.1524
2283.29	11.1002
2284.71	11.3472
2286.13	11.6674
2287.55	11.2328
2288.97	10.8714
2290.39	10.7305
2291.81	10.6486
2293.23	10.0955
2294.65	10.2215
2296.07	10.9466
2297.49	11.2887
2298.91	12.0975
2300.33	12.623
2301.74	13.1787
2303.16	14.6325
2304.58	13.9356
2306	14.4714
2307.41	14.9632
2308.83	15.6791
2310.25	15.829
2311.66	15.7397
2313.08	16.0004
2314.5	15.5422
2315.91	15.2363
2317.33	15.2662
2318.74	15.6284
2320.16	15.5976
2321.57	16.0539
2322.98	15.9295
2324.4	15.0567
2325.81	14.1368
2327.23	13.3647
2328.64	13.6745
2330.05	12.5094
2331.46	11.66
2332.88	11.501
2334.29	10.9472
2335.7	10.4847
2337.11	10.0311
2338.52	9.01797
2339.94	8.45063
2341.35	7.34101
2342.76	6.63909
2344.17	6.66871
2345.58	6.18391
2346.99	5.748
2348.4	4.513
2349.81	3.71005
2351.22	3.25822
2352.62	3.71707
2354.03	3.90902
2355.44	3.8655
2356.85	3.05384
2358.26	2.37563
2359.67	2.13743
2361.07	2.14798
2362.48	2.30075
2363.89	2.5775
2365.29	3.26705
2366.7	3.38628
2368.11	3.27988
2369.51	3.27438
2370.92	3.82398
2372.32	3.97097
2373.73	4.09431
2375.13	3.12833
2376.54	4.25184
2377.94	4.26474
2379.35	4.19968
2380.75	3.97233
2382.15	4.28248
2383.56	4.53858
2384.96	4.16888
2386.36	4.98466
2387.76	4.48358
2389.17	4.70557
2390.57	4.50682
2391.97	4.77079
2393.37	5.4228
2394.77	5.16543
2396.17	5.17148
2397.58	6.02927
2398.98	6.66069
2400.38	6.6805
2401.78	7.23153
2403.18	8.23941
2404.58	8.40224
2405.97	7.87926
2407.37	7.70921
2408.77	7.36125
2410.17	7.45935
2411.57	7.69073
2412.97	8.58963
2414.37	8.88845
2415.76	8.81071
2417.16	8.58884
2418.56	8.56361
2419.95	8.84624
2421.35	8.70875
2422.75	8.47713
2424.14	7.82767
2425.54	7.83215
2426.93	7.36934
2428.33	6.6096
2429.72	5.99454
2431.12	6.02745
2432.51	5.86904
2433.91	5.30366
2435.3	5.06673
2436.7	4.82231
2438.09	4.40702
2439.48	4.53867
2440.88	4.82352
2442.27	4.40002
2443.66	4.12612
2445.05	3.94273
2446.44	4.61422
2447.84	4.29906
2449.23	4.25154
2450.62	3.88515
2452.01	3.40291
2453.4	2.80205
2454.79	3.1443
2456.18	3.1067
2457.57	2.87059
2458.96	3.52706
2460.35	3.86482
2461.74	4.36725
2463.13	4.80491
2464.52	4.57114
2465.91	5.4424
2467.29	6.04914
2468.68	5.90658
2470.07	5.84991
2471.46	6.2314
2472.85	6.13932
2474.23	5.95455
2475.62	5.80786
2477.01	5.9679
2478.39	6.33172
2479.78	6.62299
2481.16	6.8653
2482.55	6.37403
2483.93	6.0821
2485.32	6.30234
2486.7	5.0911
2488.09	4.53411
2489.47	4.22117
2490.86	3.4747
2492.24	3.28021
2493.62	3.47895
2495.01	3.16462
2496.39	2.16191
2497.77	2.11759
2499.15	2.613
2500.54	2.40921
2501.92	1.99516
2503.3	1.56914
2504.68	1.62276
2506.06	1.5927
2507.45	1.56735
2508.83	1.99617
2510.21	2.00171
2511.59	1.74711
2512.97	1.83683
2514.35	1.65383
2515.73	1.78137
2517.11	1.12166
2518.48	1.12842
2519.86	1.01257
2521.24	1.14479
2522.62	1.36407
2524	1.99443
2525.38	2.07602
2526.75	2.12196
2528.13	2.35224
2529.51	3.24906
2530.89	3.65729
2532.26	4.0231
2533.64	3.84426
2535.02	3.97014
2536.39	3.76857
2537.77	3.62564
2539.14	3.9781
2540.52	4.23789
2541.89	4.17273
2543.27	4.64347
2544.64	4.65791
2546.01	4.5955
2547.39	4.60068
2548.76	4.53117
2550.14	4.4265
2551.51	4.63059
2552.88	4.889
2554.25	4.9142
2555.63	4.5601
2557	4.97223
2558.37	4.66878
2559.74	4.5259
2561.11	5.18162
2562.49	5.07353
2563.86	4.55213
2565.23	5.04536
2566.6	5.41098
2567.97	5.08602
2569.34	5.42472
2570.71	5.76838
2572.08	5.86525
2573.45	5.96552
2574.82	5.88438
2576.18	5.40051
2577.55	5.31048
2578.92	4.50964
2580.29	4.42714
2581.66	4.20154
2583.02	3.87836
2584.39	4.42184
2585.76	4.16627
2587.13	4.11552
2588.49	3.08976
2589.86	2.96418
2591.22	2.44225
2592.59	2.70551
2593.96	2.56635
2595.32	2.28867
2596.69	2.52459
2598.05	2.7306
2599.42	1.7106
2600.78	1.17527
2602.14	0.634775
2603.51	0.587472
2604.87	0.193771
2606.23	-0.413487
2607.6	-0.605926
2608.96	-0.769711
2610.32	-0.883901
2611.69	-0.333455
2613.05	-0.704915
2614.41	-0.623262
2615.77	-0.749071
2617.13	-0.573495
2618.49	-0.596481
2619.86	-0.244942
2621.22	-0.172336
2622.58	0.166024
2623.94	0.0190022
2625.3	-0.197273
2626.66	-0.411574
2628.02	-0.18414
2629.37	0.0881064
2630.73	0.323027
2632.09	0.590228
2633.45	1.02816
2634.81	1.44536
2636.17	1.95969
2637.53	1.9188
2638.88	1.39865
2640.24	1.14495
2641.6	1.11217
2642.96	0.938049
2644.31	0.954441
2645.67	1.00331
2647.02	1.10399
2648.38	2.28751
2649.74	2.08961
2651.09	2.14023
2652.45	2.3688
2653.8	2.22446
2655.16	1.60918
2656.51	2.01304
2657.86	2.87225
2659.22	3.38864
2660.57	4.14437
2661.93	3.9725
2663.28	4.34084
2664.63	4.53829
2665.98	4.51461
2667.34	4.50941
2668.69	4.42802
2670.04	4.65109
2671.39	4.95166
2672.75	4.94112
2674.09	5.12971
2675.45	5.80388
2676.8	5.82551
2678.15	5.6966
2679.5	5.83913
2680.85	5.65723
2682.2	6.48222
2683.55	6.58268
2684.9	6.77147
2686.25	7.06166
2687.6	7.34131
2688.94	7.91406
2690.29	7.74957
2691.64	7.73409
2692.99	7.86139
2694.34	7.8646
2695.68	8.30234
2697.03	8.91891
2698.38	9.17195
2699.73	8.90904
2701.07	9.09443
2702.42	8.82442
2703.76	8.88119
2705.11	8.96436
2706.45	9.2951
2707.8	9.28601
2709.15	9.24569
2710.49	9.53559
2711.83	10.0114
2713.18	9.9738
2714.52	10.0297
2715.87	10.0558
2717.21	9.51408
2718.55	9.52331
2719.9	9.75979
2721.24	10.0876
2722.58	10.3573
2723.93	11.5058
2725.27	11.8242
2726.61	11.8203
2727.95	11.3927
2729.29	11.3603
2730.63	11.9482
2731.98	11.5682
2733.32	10.7802
2734.66	10.6571
2736	10.3659
2737.34	10.3239
2738.68	10.1788
2740.02	9.90555
2741.36	10.066
2742.7	9.87557
2744.03	9.35031
2745.37	9.59249
2746.71	9.96818
2748.05	9.77547
2749.39	9.21575
2750.72	8.7313
2752.06	8.63853
2753.4	8.53855
2754.74	8.23935
2756.07	8.16135
2757.41	7.70335
2758.75	7.65587
2760.08	7.50533
2761.42	7.38755
2762.76	7.78486
2764.09	7.94519
2765.42	7.50832
2766.76	7.04711
2768.09	6.87829
2769.43	6.748
2770.76	7.58248
2772.1	6.96096
2773.43	6.40007
2774.76	5.93006
2776.1	5.56245
2777.43	5.77477
2778.76	5.68117
2780.1	5.2281
2781.43	4.79777
2782.76	4.57795
2784.09	4.73882
2785.42	4.21694
2786.75	4.57504
2788.09	4.93194
2789.42	4.81959
2790.75	4.04836
2792.08	3.3206
2793.41	2.78508
2794.74	2.5217
2796.07	2.30835
2797.4	1.49911
2798.73	0.30212
2800.06	-0.152381
2801.39	0.254309
2802.71	-0.301226
2804.04	-0.164306
2805.37	-0.243962
2806.7	-0.784765
2808.03	-1.05398
2809.35	-1.46067
2810.68	-1.51291
2812.01	-1.87439
2813.33	-2.10944
2814.66	-2.34384
2815.99	-1.7387
2817.31	-0.477261
2818.64	0.63775
2819.96	2.69358
2821.29	4.13927
2822.61	5.94447
2823.94	8.47847
2825.26	10.1083
2826.59	13.0878
2827.91	15.6831
2829.23	18.5292
2830.56	20.4958
2831.88	23.1195
2833.21	25.9665
2834.53	29.1492
2835.85	32.2622
2837.17	36.0314
2838.5	38.6742
2839.82	42.1704
2841.14	44.8752
2842.46	49.0275
2843.78	52.9052
2845.1	56.0014
2846.42	59.7259
2847.74	63.6832
2849.06	67.5358
2850.38	72.1245
2851.71	75.5323
2853.03	79.8041
2854.34	83.6453
2855.66	87.5858
2856.98	91.2949
2858.3	95.4956
2859.62	99.213
2860.94	102.621
2862.26	106.178
2863.57	109.199
2864.89	112.443
2866.21	115.279
2867.53	118.616
2868.84	120.885
2870.16	123.21
2871.48	124.973
2872.79	126.907
2874.11	129.239
2875.42	131.613
2876.74	133.689
2878.05	135.554
2879.37	136.97
2880.68	138.782
2882	141
2883.31	142.905
2884.63	145.094
2885.94	146.451
2887.26	147.77
2888.57	149.663
2889.88	151.41
2891.19	152.677
2892.51	154.647
2893.82	156.443
2895.13	158.651
2896.44	160.5
2897.76	162.92
2899.07	165.211
2900.38	168.043
2901.69	170.991
2903	174.263
2904.31	176.763
2905.62	180.172
2906.93	184.723
2908.24	189.493
2909.55	193.517
2910.86	198.348
2912.17	203.689
2913.48	208.178
2914.79	212.386
2916.1	217.556
2917.41	221.227
2918.71	225.287
2920.02	229.159
2921.33	231.974
2922.64	234.445
2923.94	237.122
2925.25	238.981
2926.56	240.677
2927.86	241.87
2929.17	242.29
2930.48	242.884
2931.78	242.218
2933.09	241.878
2934.39	239.934
2935.7	238.162
2937	235.917
2938.31	233.801
2939.61	231.187
2940.92	228.052
2942.22	223.82
2943.53	219.753
2944.83	215.352
2946.13	211.799
2947.43	207.477
2948.74	203.024
2950.04	198.489
2951.34	193.381
2952.64	189.436
2953.95	184.261
2955.25	179.145
2956.55	174.741
2957.85	169.661
2959.15	165.392
2960.45	160.545
2961.75	155.918
2963.05	151.814
2964.35	148.146
2965.65	144.63
2966.95	140.855
2968.25	137.111
2969.55	134.027
2970.85	131.716
2972.15	128.979
2973.45	125.822
2974.75	123.072
2976.05	119.808
2977.34	116.021
2978.64	112.771
2979.94	109.327
2981.24	106.453
2982.53	102.607
2983.83	98.6177
2985.13	95.0043
2986.42	91.3899
2987.72	88.3288
2989.01	84.5699
2990.31	80.288
2991.61	76.5189
2992.9	72.6868
2994.19	68.9892
2995.49	65.1197
2996.78	60.7562
2998.08	56.8418
2999.37	53.5195
3000.67	50.5166
3001.96	47.612
3003.25	44.4729
3004.55	41.8749
3005.84	39.162
3007.13	36.8219
3008.42	35.2852
3009.72	33.7716
3011.01	31.4429
3012.3	29.1109
3013.59	27.2433
3014.88	25.1984
3016.17	23.3202
3017.46	21.4818
3018.76	19.8405
3020.05	18.5242
3021.34	17.4501
3022.63	16.4015
3023.92	16.0389
3025.21	15.8132
3026.49	15.6972
3027.78	15.6103
3029.07	15.0561
3030.36	14.9352
3031.65	14.2118
3032.94	14.2256
3034.23	15.0538
3035.51	14.6685
3036.8	14.9379
3038.09	15.7603
3039.38	16.0244
3040.66	16.0747
3041.95	17.0944
3043.23	17.9079
3044.52	18.0593
3045.81	18.44
3047.09	18.4076
3048.38	18.6832
3049.66	19.6009
3050.95	19.3708
3052.23	19.4133
3053.52	18.8313
3054.8	18.5386
3056.09	18.7284
3057.37	18.4368
3058.65	18.7009
3059.94	17.9118
3061.22	17.3139
3062.5	17.4174
3063.79	17.9471
3065.07	17.5917
3066.35	17.7512
3067.63	17.1952
3068.92	17.8047
3070.2	17.0386
3071.48	16.4831
3072.76	16.0841
3074.04	15.0091
3075.32	13.3906
3076.6	12.8524
3077.88	12.325
3079.16	11.6112
3080.44	10.6452
3081.72	9.88625
3083	9.20605
3084.28	8.28682
3085.56	7.65939
3086.84	7.0455
3088.12	6.41593
3089.4	6.12189
3090.67	5.28572
3091.95	4.48451
3093.23	3.31914
3094.51	3.43842
3095.78	3.14484
3097.06	3.07415
3098.34	3.27696
3099.61	2.65023
3100.89	3.66068
3102.17	3.8003
3103.44	3.64727
3104.72	3.78393
3105.99	4.25905
3107.27	4.12637
3108.54	4.1055
3109.82	4.39404
3111.09	4.71025
3112.37	4.89986
3113.64	4.73377
3114.92	3.98999
3116.19	4.0695
3117.46	3.89079
3118.74	4.37761
3120.01	5.03291
3121.28	5.38871
3122.55	6.03587
3123.83	5.95958
3125.1	6.7316
3126.37	7.85197
3127.64	8.34457
3128.91	8.77913
3130.19	9.63165
3131.46	9.30568
3132.73	9.83191
3134	9.56961
3135.27	10.2142
3136.54	10.8162
3137.81	10.8559
3139.08	11.1108
3140.35	11.7143
3141.62	12.007
3142.89	12.3252
3144.16	12.9886
3145.42	13.9091
3146.69	15.0137
3147.96	16.3499
3149.23	18.4772
