#Acq. time (s)=	45
#Accumulations=	2
#Range (cm-¹)=	200...3150
#Windows=	2
#Auto scanning=	Off
#Autofocus=	Off
#Macrospot=	Off
#AutoExposure=	Off
#Spike filter=	Multiple accum.
#Delay time (s)=	0
#Binning=	1
#Readout mode=	Signal
#DeNoise=	Off
#ICS correction=	On
#Dark correction=	Off
#Inst. Process=	Off
#Detector Gain=	Best Dynamic Range
#Detector ADC=	20 kHz       
#Detector temperature (°C)=	-69.85
#Instrument=	LabRAM HR Evol
#Detector=	Synapse
#Objective=	x100
#Grating=	600 gr/mm
#ND Filter=	100%
#Laser (nm)=	532 
#Hole=	100.021
#Range=	Auto
#Laser Pol.=	No
#Raman. Pol.=	No
#Laser Pol. (°)=	-0.0007625
#Raman Pol. (°)=	89.9995
#Collection=	Microscope
#StageXY=	Marzhauser
#StageZ=	Marzhauser
#X (µm)=	1982.1
#Y (µm)=	-44
#Z (µm)=	425.1
#Full time(mm:ss)=	3:18
#Project=	
#Sample=	
#Site=	
#Title=	Thy_40_11_19_2x_45s_532 nm_x100_100%_600 gr_mm
#Remark=	
#Date=	05.07.2022 11:13
#Acquired=	05.07.2022 11:13:36
#Base:Fit=	10.08.2022 10:01:35
#Base:Sub=	10.08.2022 10:01:52
#Filter:Polynom=	16.08.2022 10:21:53
#AxisType[0]=Intens
#AxisUnit[0]=Cnt
#AxisType[1]=Spectr
#AxisUnit[1]=1/cm
200.43	2.90758
202.244	6.18789
204.059	6.57325
205.873	6.72163
207.688	6.66601
209.501	6.91121
211.314	7.73058
213.127	8.03052
214.941	8.70157
216.753	8.97941
218.564	8.29342
220.375	7.46134
222.186	7.56104
223.999	8.94052
225.809	9.18279
227.618	10.5807
229.428	10.9011
231.236	10.2319
233.045	10.4309
234.855	10.039
236.663	9.74197
238.471	10.0947
240.278	10.5886
242.085	10.0513
243.891	10.3468
245.698	9.61366
247.503	9.50266
249.309	9.44635
251.116	9.14407
252.921	8.26862
254.725	7.7078
256.529	5.92023
258.333	5.9021
260.136	4.96409
261.939	6.23827
263.742	6.411
265.544	6.69275
267.346	6.85645
269.148	6.17193
270.949	4.8138
272.75	4.44902
274.55	3.91158
276.351	2.62294
278.15	1.97586
279.95	1.35186
281.749	2.30393
283.548	2.94735
285.346	4.1574
287.144	3.66744
288.942	4.64535
290.739	4.00067
292.536	3.87412
294.333	4.66248
296.129	6.22071
297.925	6.12878
299.721	6.61469
301.514	6.00565
303.309	5.5661
305.104	6.73238
306.898	7.39133
308.692	7.93973
310.486	9.69317
312.279	10.357
314.072	10.4647
315.862	9.74609
317.654	10.8516
319.446	10.7271
321.238	10.3063
323.029	10.0035
324.819	10.1608
326.608	10.8533
328.398	11.4906
330.188	11.3259
331.977	10.5946
333.766	11.1954
335.553	11.0887
337.341	10.2422
339.129	9.83666
340.917	9.0557
342.704	9.37664
344.489	8.79957
346.275	7.54839
348.062	7.80864
349.845	8.33274
351.631	8.41039
353.416	7.87681
355.201	7.13635
356.984	5.80764
358.768	5.36852
360.552	5.71866
362.333	6.20443
364.116	5.59634
365.899	5.0768
367.68	5.7207
369.462	7.08436
371.243	6.8947
373.023	6.45864
374.804	5.9153
376.585	5.33368
378.363	6.6485
380.143	6.82559
381.923	7.24845
383.7	7.23917
385.479	7.64922
387.256	6.43764
389.034	6.45685
390.812	6.30145
392.588	7.10311
394.365	7.33393
396.14	8.07767
397.916	7.59164
399.691	7.5212
401.467	7.10563
403.24	7.89233
405.015	8.72217
406.788	9.6813
408.563	8.62375
410.335	8.54733
412.109	9.31526
413.88	10.7682
415.654	11.4241
417.424	11.0015
419.197	9.78861
420.967	8.88022
422.739	8.84475
424.508	7.93694
426.279	7.59649
428.048	7.5402
429.819	7.56488
431.587	7.11942
433.356	6.59604
435.124	7.54114
436.891	8.10488
438.66	7.98822
440.426	7.25823
442.194	7.62025
443.96	7.37806
445.725	7.7524
447.492	8.82296
449.257	8.40816
451.021	8.7844
452.787	8.62334
454.551	8.49368
456.314	8.44704
458.079	8.51157
459.842	8.33492
461.604	9.14217
463.368	10.0247
465.13	11.1353
466.891	11.4987
468.654	11.4514
470.415	12.0263
472.175	11.7603
473.935	11.5026
475.696	12.0619
477.456	12.1166
479.215	13.5736
480.973	13.6972
482.733	15.0842
484.491	16.4213
486.249	15.8466
488.006	16.6424
489.765	17.1115
491.522	17.1226
493.278	17.6198
495.034	19.1215
496.789	19.1668
498.544	20.7276
500.301	20.8328
502.056	20.285
503.81	19.5892
505.564	19.4439
507.317	19.046
509.071	20.217
510.825	21.0926
512.578	20.8095
514.33	21.4597
516.082	20.8469
517.833	20.9803
519.585	21.3594
521.335	22.5563
523.086	22.3248
524.836	21.3402
526.586	21.5579
528.335	21.4095
530.085	21.6044
531.835	20.8948
533.584	20.8036
535.332	20.6247
537.08	19.7829
538.827	19.7084
540.574	19.4789
542.321	18.5491
544.068	18.8418
545.814	17.7134
547.56	18.1887
549.305	17.9691
551.05	17.0433
552.795	16.6992
554.54	15.7386
556.282	15.5494
558.025	14.5768
559.769	13.7048
561.512	13.1319
563.255	13.121
564.997	11.9878
566.739	11.5507
568.481	10.5961
570.223	10.5343
571.964	9.58381
573.705	9.36536
575.443	9.35762
577.183	8.2569
578.923	7.80907
580.663	7.02201
582.402	6.88991
584.141	5.80476
585.879	5.40137
587.615	3.95704
589.353	2.81834
591.09	2.54407
592.828	2.65328
594.564	1.88067
596.299	1.97462
598.035	1.67672
599.771	1.76779
601.506	2.64941
603.242	3.47573
604.974	4.99369
606.709	5.89923
608.443	5.89056
610.177	5.85654
611.908	6.77005
613.642	7.77039
615.374	7.6713
617.105	8.59308
618.837	9.3809
620.569	10.089
622.3	11.2441
624.03	11.6949
625.761	12.5224
627.491	13.3364
629.219	13.0857
630.949	14.3067
632.677	14.8052
634.406	15.9361
636.135	16.0436
637.861	16.9393
639.59	17.4048
641.318	17.3507
643.043	17.7036
644.77	17.3817
646.495	18.2
648.222	17.5913
649.948	17.7956
651.672	17.9941
653.398	18.2789
655.121	19.135
656.846	19.7556
658.569	20.6241
660.293	20.9204
662.015	19.3454
663.738	18.344
665.46	18.5311
667.183	18.469
668.903	19.4752
670.626	19.9233
672.346	19.9983
674.067	20.0693
675.787	21.1333
677.508	22.753
679.226	24.1879
680.947	25.0429
682.665	26.274
684.385	27.8712
686.102	29.0684
687.821	30.6391
689.538	32.455
691.254	33.3208
692.972	34.0586
694.688	34.9323
696.406	35.1045
698.121	35.9977
699.835	37.2959
701.552	38.3407
703.266	40.1637
704.98	41.1474
706.695	42.1282
708.409	42.0916
710.121	43.4286
711.836	44.9466
713.548	46.318
715.26	47.0939
716.973	49.1173
718.685	50.2428
720.396	50.8368
722.108	51.628
723.818	52.6873
725.528	52.3775
727.238	52.6054
728.949	52.7572
730.658	54.4874
732.367	55.4688
734.075	55.8162
735.785	56.9687
737.493	58.2172
739.2	58.3141
740.907	59.4943
742.614	60.8209
744.322	60.79
746.028	60.7594
747.734	61.0709
749.439	62.3576
751.144	63.6971
752.849	65.0444
754.555	66.2916
756.26	66.5766
757.963	67.217
759.667	67.7042
761.37	68.6241
763.073	68.3637
764.775	68.8297
766.477	68.1975
768.179	68.4425
769.883	67.7638
771.584	67.874
773.285	68.8745
774.986	69.2862
776.686	69.1393
778.386	69.9923
780.085	70.5799
781.785	70.5715
783.484	71.9256
785.182	73.7255
786.881	74.111
788.579	75.7994
790.276	76.2099
791.974	76.8877
793.671	77.8503
795.367	79.738
797.064	79.8913
798.76	80.01
800.456	79.9865
802.151	80.5872
803.846	80.1914
805.541	80.0196
807.234	78.4227
808.928	78.4299
810.622	78.5026
812.315	78.9501
814.008	79.609
815.701	80.9883
817.394	79.568
819.086	79.6902
820.778	80.1469
822.468	80.62
824.159	81.4607
825.85	82.0427
827.541	82.5784
829.231	81.1318
830.921	81.3994
832.609	80.263
834.298	79.2294
835.987	78.1533
837.676	78.4311
839.364	77.8169
841.051	75.9025
842.738	74.9507
844.426	73.2094
846.113	71.3292
847.798	69.2819
849.484	68.9482
851.171	66.4039
852.857	65.7557
854.54	65.0761
856.226	65.5532
857.911	64.6581
859.593	62.9901
861.278	62.5459
862.961	63.1333
864.645	62.6816
866.327	60.8665
868.01	60.2804
869.692	59.3986
871.373	58.4192
873.055	57.4607
874.735	55.6363
876.416	53.9546
878.097	52.7215
879.776	52.0531
881.457	50.3689
883.135	48.9945
884.815	48.081
886.495	48.2588
888.172	48.1334
889.851	46.9897
891.528	45.8687
893.206	46.1486
894.882	46.108
896.56	45.7403
898.237	45.6104
899.912	45.8066
901.589	44.2738
903.263	44.9916
904.94	44.9145
906.614	45.8899
908.289	46.558
909.962	46.6997
911.635	46.3737
913.31	45.2015
914.982	44.8796
916.656	44.0556
918.328	44.7425
920.001	44.7179
921.672	44.7166
923.345	42.8677
925.015	40.9612
926.685	40.9906
928.357	40.4206
930.026	40.2304
931.698	39.1966
933.366	38.7867
935.035	37.3019
936.705	37.688
938.373	37.0097
940.041	35.9232
941.71	34.4453
943.377	33.4615
945.044	32.8332
946.712	32.7068
948.378	31.4234
950.044	31.0588
951.709	31.3093
953.376	32.0504
955.041	33.1052
956.706	32.8812
958.372	32.834
960.036	32.4215
961.699	33.1093
963.362	32.6956
965.027	33.0113
966.69	34.3779
968.352	36.5598
970.014	38.215
971.676	38.4399
973.339	39.0056
975	39.6576
976.661	39.7965
978.322	40.3013
979.982	41.218
981.642	41.7141
983.303	41.7686
984.962	42.3338
986.621	43.1452
988.28	44.2723
989.938	45.288
991.596	44.4124
993.254	43.7758
994.911	42.6698
996.57	42.107
998.227	42.5989
999.884	41.8746
1001.54	42.1553
1003.2	41.3571
1004.85	39.6761
1006.51	38.9206
1008.16	38.1554
1009.82	37.975
1011.47	36.749
1013.12	36.4043
1014.78	34.8423
1016.43	35.1282
1018.08	34.9764
1019.74	34.5868
1021.39	33.6346
1023.04	32.2742
1024.69	32.2208
1026.34	32.2617
1028	32.7557
1029.65	34.2509
1031.3	33.9997
1032.95	34.8451
1034.6	32.8068
1036.25	30.6513
1037.9	30.8939
1039.54	31.7347
1041.19	32.1144
1042.84	33.4626
1044.49	34.0812
1046.14	34.7
1047.78	36.787
1049.43	37.2834
1051.08	38.0804
1052.72	38.9622
1054.37	38.1046
1056.02	38.1651
1057.66	36.4117
1059.31	36.1995
1060.95	36.643
1062.6	37.2991
1064.24	36.537
1065.88	35.2522
1067.53	34.5311
1069.17	33.4924
1070.81	33.6234
1072.45	32.6126
1074.1	32.2196
1075.74	31.0792
1077.38	30.1585
1079.02	28.7256
1080.66	28.9072
1082.3	27.151
1083.94	27.1584
1085.58	26.5475
1087.22	25.5436
1088.86	25.3924
1090.5	25.1865
1092.14	24.9504
1093.78	24.54
1095.42	23.7743
1097.05	23.2997
1098.69	23.3435
1100.33	22.2587
1101.96	21.0637
1103.6	20.0983
1105.24	19.5914
1106.87	19.1971
1108.51	17.8523
1110.14	17.1246
1111.78	15.6846
1113.41	13.7165
1115.05	12.0333
1116.68	10.1544
1118.31	10.9918
1119.95	13.0531
1121.58	13.383
1123.21	13.0296
1124.85	12.2867
1126.48	11.4994
1128.11	11.4597
1129.74	11.6362
1131.37	10.6684
1133	9.94272
1134.63	9.18729
1136.26	8.44876
1137.89	8.4493
1139.52	8.40362
1141.15	8.92618
1142.78	8.56033
1144.41	7.66451
1146.04	7.21696
1147.66	6.79547
1149.29	7.46417
1150.92	8.23496
1152.55	8.62776
1154.17	9.10685
1155.8	9.51446
1157.43	7.65236
1159.05	7.61087
1160.68	7.79511
1162.3	8.23035
1163.93	7.88822
1165.55	8.24852
1167.17	8.11472
1168.8	8.38322
1170.42	7.98795
1172.05	8.26758
1173.67	8.26649
1175.29	8.44273
1176.91	8.51646
1178.54	8.75752
1180.16	8.95066
1181.78	9.12072
1183.4	9.74091
1185.02	9.78379
1186.64	10.1322
1188.26	9.8098
1189.88	9.40168
1191.5	9.37824
1193.12	8.377
1194.74	9.27539
1196.36	9.51422
1197.97	10.8326
1199.59	11.5234
1201.21	12.6384
1202.83	13.1698
1204.44	13.0716
1206.06	13.1415
1207.68	14.554
1209.29	15.3473
1210.91	15.5174
1212.52	15.6939
1214.14	17.4293
1215.75	19.4453
1217.37	21.601
1218.98	23.0906
1220.59	24.3464
1222.21	26.0092
1223.82	27.9907
1225.43	30.4319
1227.05	32.5004
1228.66	33.8452
1230.27	35.55
1231.88	37.1326
1233.49	38.1868
1235.1	39.7016
1236.72	39.9897
1238.33	41.087
1239.94	44.3073
1241.55	46.558
1243.16	49.0617
1244.76	51.8325
1246.37	54.0903
1247.98	55.0298
1249.59	56.733
1251.2	57.0543
1252.8	57.7119
1254.41	59.0507
1256.02	60.96
1257.62	62.9074
1259.23	64.5707
1260.84	66.6192
1262.44	67.5408
1264.05	69.0949
1265.66	69.4261
1267.26	70.5537
1268.86	71.0437
1270.47	71.8735
1272.07	73.2159
1273.67	74.166
1275.28	74.5336
1276.88	73.5879
1278.48	73.9492
1280.09	73.5586
1281.69	73.3578
1283.29	73.1945
1284.89	74.5643
1286.49	76.2049
1288.09	76.3741
1289.69	76.3479
1291.29	77.3583
1292.89	78.19
1294.49	79.7339
1296.09	80.2286
1297.69	80.7377
1299.29	82.0489
1300.89	83.4242
1302.49	84.4026
1304.08	84.7353
1305.68	84.8898
1307.28	84.9778
1308.88	85.6619
1310.47	87.1128
1312.07	88.1897
1313.66	88.1311
1315.26	89.3164
1316.85	90.147
1318.45	91.5914
1320.04	91.9418
1321.64	92.0268
1323.23	91.7885
1324.83	90.1651
1326.42	88.6117
1328.01	86.8791
1329.61	86.7671
1331.2	85.8339
1332.79	84.8368
1334.38	84.8025
1335.97	83.8582
1337.56	82.2012
1339.16	80.0583
1340.75	78.9678
1342.34	76.8166
1343.93	75.0884
1345.52	73.2373
1347.11	71.3989
1348.7	69.5238
1350.29	67.3198
1351.87	64.2607
1353.46	61.1658
1355.05	58.5016
1356.64	57.0622
1358.22	56.009
1359.81	54.4207
1361.4	52.8327
1362.98	52.6298
1364.57	51.2965
1366.16	49.4739
1367.74	48.0042
1369.33	47.3648
1370.91	47.0198
1372.5	46.744
1374.08	46.737
1375.67	46.042
1377.25	46.0753
1378.83	46.706
1380.41	46.2954
1382	46.2249
1383.58	46.1786
1385.16	45.8086
1386.74	46.4636
1388.33	46.3222
1389.91	46.9637
1391.49	45.8817
1393.07	45.6453
1394.65	45.9917
1396.23	45.8228
1397.81	44.6592
1399.39	44.8944
1400.97	45.672
1402.55	46.4258
1404.13	46.2159
1405.7	47.2529
1407.28	47.5725
1408.86	47.9038
1410.44	47.5199
1412.01	47.9646
1413.59	49.4234
1415.17	50.1132
1416.74	51.1281
1418.32	52.778
1419.89	54.9188
1421.47	56.2092
1423.04	59.0601
1424.62	62.1224
1426.19	64.6271
1427.77	67.3867
1429.34	70.2121
1430.91	71.9344
1432.49	74.2911
1434.06	77.6659
1435.63	80.0452
1437.2	81.1709
1438.78	83.3339
1440.35	84.0809
1441.92	86.0793
1443.49	87.15
1445.06	89.2985
1446.63	90.3147
1448.2	90.4958
1449.77	91.1344
1451.34	91.9655
1452.91	91.0597
1454.48	90.5699
1456.05	90.4406
1457.62	89.8893
1459.18	88.3005
1460.75	86.6402
1462.32	83.2129
1463.89	80.4113
1465.45	77.7258
1467.02	74.7265
1468.59	72.2581
1470.15	69.1604
1471.72	65.7125
1473.28	62.2356
1474.85	58.9888
1476.41	55.384
1477.98	53.1189
1479.54	49.2328
1481.1	45.2823
1482.67	40.5333
1484.23	37.3937
1485.79	33.9059
1487.36	30.9932
1488.92	28.884
1490.48	27.2002
1492.04	24.795
1493.61	23.6094
1495.17	22.854
1496.73	22.6441
1498.29	21.751
1499.85	21.4458
1501.41	21.2091
1502.97	20.5108
1504.53	20.3192
1506.09	19.9184
1507.65	19.9214
1509.2	19.4094
1510.76	20.4147
1512.32	20.699
1513.88	20.893
1515.43	20.491
1516.99	21.4371
1518.55	21.7203
1520.1	23.7692
1521.66	24.7417
1523.22	25.5685
1524.77	25.8717
1526.33	26.8915
1527.88	28.5913
1529.44	29.2313
1530.99	29.3588
1532.54	31.3403
1534.1	33.0674
1535.65	34.4389
1537.21	35.3799
1538.76	36.7488
1540.31	38.0421
1541.86	39.3972
1543.42	42.1706
1544.97	44.2423
1546.52	46.3006
1548.07	48.4731
1549.62	49.3
1551.17	52.1149
1552.72	53.6024
1554.27	55.4754
1555.82	57.1342
1557.37	58.4519
1558.92	60.2706
1560.47	62.5519
1562.02	64.4914
1563.56	66.4629
1565.11	68.796
1566.66	71.1792
1568.21	72.9534
1569.75	74.7572
1571.3	76.9479
1572.85	78.285
1574.39	79.5158
1575.94	80.6278
1577.49	81.8733
1579.03	83.029
1580.57	84.4299
1582.12	85.9207
1583.66	86.8832
1585.21	88.3342
1586.75	88.6469
1588.3	88.802
1589.84	89.1853
1591.38	89.2606
1592.92	89.192
1594.47	89.6312
1596.01	89.3377
1597.55	88.6053
1599.09	87.4451
1600.63	86.4661
1602.17	85.3799
1603.71	84.6534
1605.25	83.9612
1606.79	83.2708
1608.33	83.1077
1609.87	82.6804
1611.41	82.082
1612.95	81.4035
1614.49	80.853
1616.03	80.4334
1617.57	79.5443
1619.1	80.3201
1620.64	81.3668
1622.18	81.0356
1623.72	81.573
1625.25	81.984
1626.79	82.8373
1628.32	83.8313
1629.86	84.3253
1631.39	84.6862
1632.93	85.564
1634.46	87.1945
1636	89.5534
1637.53	91.5953
1639.07	92.373
1640.6	94.3437
1642.13	96.408
1643.67	98.4874
1645.2	100.508
1646.73	102.234
1648.26	103.414
1649.8	105.195
1651.33	106.595
1652.86	107.415
1654.39	107.837
1655.92	108.793
1657.45	108.563
1658.98	108.545
1660.51	107.62
1662.04	107.317
1663.57	105.818
1665.1	104.797
1666.63	103.611
1668.16	101.578
1669.68	100.412
1671.21	97.83
1672.74	94.8471
1674.27	92.8058
1675.79	89.7631
1677.32	86.6018
1678.85	83.3398
1680.37	80.4227
1681.9	76.4746
1683.42	72.9173
1684.95	68.8176
1686.47	65.0579
1688	62.6907
1689.52	58.9709
1691.05	55.5354
1692.57	52.0497
1694.09	48.6874
1695.62	46.5412
1697.14	43.1385
1698.66	39.9745
1700.18	37.3933
1701.71	34.8494
1703.23	32.0464
1704.75	29.4987
1706.27	26.8829
1707.79	24.5845
1709.31	23.5735
1710.83	22.3273
1712.35	20.9748
1713.87	19.6112
1715.39	17.9276
1716.91	17.7863
1718.43	17.3498
1719.95	16.8207
1721.47	15.9262
1722.99	15.2773
1724.5	14.4334
1726.02	14.4646
1727.54	13.5267
1729.06	12.761
1730.57	12.2388
1732.09	12.1925
1733.61	11.5955
1735.12	11.751
1736.64	11.1007
1738.15	11.5469
1739.67	11.3343
1741.18	11.3097
1742.7	11.4465
1744.21	11.801
1745.72	11.6316
1747.24	11.6857
1748.75	11.4636
1750.26	11.4652
1751.77	10.5683
1753.29	10.3929
1754.8	9.92924
1756.31	10.1327
1757.82	9.82866
1759.33	10.3867
1760.84	9.89131
1762.36	9.52118
1763.87	9.50123
1765.38	8.70368
1766.89	8.43964
1768.4	8.18248
1769.91	7.48529
1771.41	7.22076
1772.92	6.35093
1774.43	6.08309
1775.94	5.87179
1777.45	5.56359
1778.95	5.31841
1780.46	5.38329
1781.97	4.54386
1783.48	5.12921
1784.98	5.18135
1786.49	5.18103
1787.99	5.01041
1789.5	4.62629
1791.01	4.25821
1792.51	4.50248
1794.01	4.50903
1795.52	4.54662
1797.02	4.6877
1798.53	4.36671
1800.03	4.01278
1801.53	3.94927
1803.04	3.1138
1804.54	3.14688
1806.04	3.03593
1807.54	2.59737
1809.05	2.11736
1810.55	1.39278
1812.05	1.47215
1813.55	1.4246
1815.05	1.70973
1816.55	1.71505
1818.05	1.85561
1819.55	1.72469
1821.05	1.36944
1822.55	1.70266
1824.05	0.978115
1825.55	1.03498
1827.05	0.975241
1828.55	1.00852
1830.04	1.20288
1831.54	1.72331
1833.04	1.29365
1834.54	1.32074
1836.03	1.20405
1837.53	1.42094
1839.03	1.185
1840.52	1.46414
1842.02	2.04902
1843.51	2.04566
1845.01	1.99928
1846.5	2.36793
1848	2.99188
1849.49	4.04006
1850.99	4.28516
1852.48	5.0537
1853.97	4.78004
1855.47	4.86547
1856.96	5.03967
1858.45	5.14052
1859.94	4.78355
1861.44	4.99682
1862.93	4.66818
1864.42	4.76748
1865.91	5.75337
1867.4	6.20777
1868.89	6.60053
1870.38	6.78253
1871.87	6.57841
1873.36	6.61628
1874.85	6.51029
1876.34	6.05059
1877.83	5.78032
1879.32	6.67532
1880.81	6.98618
1882.3	6.6416
1882.57	6.82911
1884.07	6.94372
1885.56	7.321
1887.06	6.54222
1888.55	6.77106
1890.04	6.53275
1891.54	6.2827
1893.03	6.00373
1894.52	6.6755
1896.02	6.52264
1897.51	6.68883
1899	6.92522
1900.49	5.87135
1901.98	5.47256
1903.47	5.45609
1904.96	4.94957
1906.45	3.97206
1907.94	4.41373
1909.43	3.74356
1910.92	3.70763
1912.41	3.17167
1913.9	3.53403
1915.39	3.1952
1916.88	2.88988
1918.37	3.24304
1919.85	3.76051
1921.34	4.31031
1922.83	4.25317
1924.32	4.12723
1925.8	3.94718
1927.29	2.91188
1928.78	3.30053
1930.26	3.49203
1931.75	2.8802
1933.23	3.05648
1934.72	3.79191
1936.2	3.65206
1937.69	4.45537
1939.17	5.08795
1940.66	4.84971
1942.14	4.51742
1943.63	4.54622
1945.11	4.90849
1946.59	5.03717
1948.07	5.08119
1949.56	5.50806
1951.04	5.77063
1952.52	5.7098
1954	5.2156
1955.48	4.06699
1956.96	4.25848
1958.45	3.81714
1959.93	3.61586
1961.41	3.00992
1962.89	3.30103
1964.37	3.22195
1965.85	2.87174
1967.32	2.70916
1968.8	3.09368
1970.28	2.6418
1971.76	2.36328
1973.24	1.76137
1974.72	1.62677
1976.19	1.72615
1977.67	1.53577
1979.15	1.28577
1980.63	1.37239
1982.1	2.18169
1983.58	2.25497
1985.05	2.32096
1986.53	2.76557
1988	3.0499
1989.48	4.08614
1990.95	4.81255
1992.43	5.17565
1993.9	5.5492
1995.38	6.02781
1996.85	6.23394
1998.32	6.59938
1999.8	6.77112
2001.27	7.00481
2002.74	8.36343
2004.22	8.34045
2005.69	7.94149
2007.16	8.39584
2008.63	8.97561
2010.1	9.59536
2011.57	9.97172
2013.04	10.5226
2014.51	10.0406
2015.98	10.5806
2017.45	11.1378
2018.92	11.2589
2020.39	11.2901
2021.86	11.4581
2023.33	11.125
2024.8	11.8731
2026.27	12.4288
2027.74	12.1393
2029.2	11.4006
2030.67	11.605
2032.14	10.4748
2033.61	10.4959
2035.07	10.4793
2036.54	10.7911
2038.01	11.0397
2039.47	10.6756
2040.94	10.6554
2042.4	11.0157
2043.87	11.2702
2045.33	11.5142
2046.8	11.9602
2048.26	11.8885
2049.72	11.8411
2051.19	12.3734
2052.65	12.6269
2054.12	13.176
2055.58	13.761
2057.04	13.9391
2058.5	14.3236
2059.97	15.3397
2061.43	15.5392
2062.89	16.4366
2064.35	16.2577
2065.81	16.852
2067.27	17.4537
2068.73	17.547
2070.19	17.8898
2071.65	18.1908
2073.11	19.0632
2074.57	18.8386
2076.03	19.4283
2077.49	19.876
2078.95	20.5366
2080.41	21.6932
2081.87	22.7205
2083.32	22.8058
2084.78	22.7074
2086.24	24.1894
2087.7	24.8556
2089.15	26.7459
2090.61	27.3162
2092.07	28.1266
2093.52	29.4929
2094.98	29.7119
2096.43	30.4791
2097.89	31.8416
2099.34	31.5631
2100.8	31.43
2102.25	32.4504
2103.71	33.3317
2105.16	35.0875
2106.61	37.1005
2108.07	38.5946
2109.52	39.2058
2110.97	39.9999
2112.43	41.1202
2113.88	42.9751
2115.33	44.7878
2116.78	46.2065
2118.23	47.6225
2119.68	48.7593
2121.13	50.7725
2122.59	52.1104
2124.04	53.7035
2125.49	55.3823
2126.94	57.5227
2128.39	59.3508
2129.83	61.664
2131.28	63.728
2132.73	65.526
2134.18	67.973
2135.63	69.6212
2137.08	71.4989
2138.53	73.7293
2139.97	75.4492
2141.42	78.2634
2142.87	81.2848
2144.31	83.3395
2145.76	85.3319
2147.21	87.1451
2148.65	89.9873
2150.1	92.6682
2151.54	94.2249
2152.99	96.8521
2154.43	99.1678
2155.88	101.602
2157.32	103.433
2158.77	105.5
2160.21	106.507
2161.65	107.446
2163.1	108.078
2164.54	109.236
2165.98	110.083
2167.43	110.693
2168.87	112.064
2170.31	112.655
2171.75	112.266
2173.19	112.774
2174.64	112.953
2176.07	112.241
2177.52	112.151
2178.96	110.909
2180.4	110.379
2181.84	109.379
2183.28	108.75
2184.72	107.945
2186.15	106.135
2187.59	104.924
2189.03	102.699
2190.47	101.055
2191.91	99.2354
2193.35	97.2217
2194.78	94.6717
2196.22	93.4628
2197.66	91.8734
2199.09	90.4789
2200.53	88.6565
2201.97	86.3115
2203.4	83.9343
2204.84	82.2348
2206.27	80.3296
2207.71	77.9424
2209.14	76.3672
2210.58	74.6685
2212.01	72.7923
2213.45	71.8661
2214.88	68.9339
2216.31	66.5843
2217.75	64.7873
2219.18	62.8281
2220.61	60.6442
2222.05	58.3408
2223.48	56.1774
2224.91	55.068
2226.34	52.7872
2227.78	50.5733
2229.21	48.3619
2230.64	47.2142
2232.07	45.4697
2233.5	44.3
2234.93	43.0515
2236.36	42.1107
2237.79	40.8612
2239.22	40.054
2240.65	38.9165
2242.08	37.6873
2243.5	37.1916
2244.93	36.6381
2246.36	35.6845
2247.79	34.9444
2249.22	34.7934
2250.64	34.2594
2252.07	33.9108
2253.5	33.1726
2254.92	32.0645
2256.35	30.8899
2257.78	30.6328
2259.2	30.3378
2260.63	28.3396
2262.05	28.3514
2263.48	28.043
2264.9	27.6624
2266.33	28.1125
2267.75	28.0439
2269.18	27.3601
2270.6	26.9946
2272.02	26.0529
2273.45	25.4116
2274.87	25.0799
2276.29	25.1721
2277.71	24.043
2279.14	23.2998
2280.56	22.539
2281.98	21.5354
2283.4	20.4209
2284.82	19.1359
2286.24	17.6514
2287.66	16.9964
2289.08	15.8964
2290.5	14.8537
2291.92	13.7215
2293.34	13.391
2294.76	13.3033
2296.18	13.7642
2297.6	13.3752
2299.02	13.1912
2300.44	13.2841
2301.86	13.3374
2303.27	13.6802
2304.69	13.6359
2306.11	12.874
2307.53	12.861
2308.94	12.5507
2310.36	12.8105
2311.78	12.7365
2313.19	12.7394
2314.61	12.762
2316.02	12.0899
2317.44	12.1483
2318.85	11.9098
2320.27	12.0834
2321.68	11.5359
2323.1	11.282
2324.51	11.3143
2325.92	10.4753
2327.34	9.95208
2328.75	9.81992
2330.16	8.99928
2331.58	8.77134
2332.99	9.33193
2334.4	8.91252
2335.81	8.63061
2337.23	8.44577
2338.64	7.47318
2340.05	7.10618
2341.46	6.72678
2342.87	5.93093
2344.28	5.67676
2345.69	5.02131
2347.1	4.82633
2348.51	3.05527
2349.92	2.41815
2351.33	1.91545
2352.74	1.55324
2354.15	0.942985
2355.55	0.446324
2356.96	0.703957
2358.37	-0.213882
2359.78	-0.55887
2361.19	-0.617602
2362.59	-1.21805
2364	-0.409717
2365.41	0.13389
2366.81	1.19458
2368.22	0.950372
2369.62	1.15005
2371.03	1.46064
2372.44	1.18339
2373.84	1.29551
2375.24	1.03188
2376.65	0.740007
2378.05	1.04462
2379.46	1.69844
2380.86	2.39235
2382.26	2.38291
2383.67	2.98882
2385.07	3.59646
2386.47	4.27575
2387.88	4.82714
2389.28	5.43502
2390.68	5.59235
2392.08	5.47886
2393.48	5.83881
2394.89	5.98323
2396.29	5.9505
2397.69	6.55549
2399.09	7.35105
2400.49	7.68679
2401.89	7.89849
2403.29	8.71505
2404.69	9.0054
2406.09	9.44101
2407.48	9.60497
2408.88	9.98236
2410.28	10.3239
2411.68	10.2953
2413.08	10.9936
2414.48	11.3688
2415.87	11.3175
2417.27	11.8307
2418.67	11.3606
2420.06	11.5488
2421.46	11.8613
2422.86	11.8368
2424.25	12.1963
2425.65	12.28
2427.04	12.4028
2428.44	11.7283
2429.83	11.8954
2431.23	11.8414
2432.62	12.0731
2434.02	12.5874
2435.41	12.6419
2436.81	13.2604
2438.2	12.7319
2439.59	12.2982
2440.99	12.0327
2442.38	11.4089
2443.77	11.8702
2445.16	11.1076
2446.56	10.7851
2447.95	10.4921
2449.34	10.7472
2450.73	10.6229
2452.12	10.3195
2453.51	10.397
2454.9	10.3266
2456.29	10.2373
2457.68	10.2021
2459.07	9.91536
2460.46	9.54891
2461.85	9.62427
2463.24	9.22953
2464.63	9.79674
2466.02	9.73432
2467.4	9.47281
2468.79	8.66667
2470.18	8.26029
2471.57	8.50873
2472.95	8.3472
2474.34	7.68004
2475.73	7.81801
2477.12	7.38317
2478.5	7.41799
2479.89	7.0882
2481.27	7.03592
2482.66	7.20069
2484.04	6.31281
2485.43	5.94588
2486.81	5.87375
2488.2	4.72406
2489.58	5.00451
2490.97	4.70288
2492.35	4.32533
2493.73	4.1201
2495.12	3.17472
2496.5	2.63855
2497.88	2.45793
2499.27	2.90819
2500.65	2.90559
2502.03	3.21392
2503.41	2.59634
2504.79	2.50768
2506.17	2.50177
2507.56	1.91188
2508.94	2.05234
2510.32	2.12799
2511.7	1.5651
2513.08	1.96264
2514.46	0.792546
2515.84	1.08579
2517.22	1.00763
2518.59	1.73915
2519.97	1.40936
2521.35	1.27251
2522.73	1.74737
2524.11	2.52108
2525.49	2.9354
2526.86	3.31239
2528.24	3.19224
2529.62	3.30877
2530.99	2.96851
2532.37	3.27005
2533.75	3.49577
2535.12	2.90315
2536.5	2.77407
2537.88	3.00465
2539.25	3.20506
2540.63	3.00329
2542	2.20204
2543.38	2.40519
2544.75	2.46078
2546.12	2.21198
2547.5	2.06142
2548.87	1.64736
2550.24	1.33419
2551.62	1.43929
2552.99	0.833028
2554.36	1.08937
2555.74	0.960126
2557.11	0.697756
2558.48	0.702754
2559.85	0.0821627
2561.22	0.406712
2562.59	0.174655
2563.96	0.360435
2565.34	1.23593
2566.71	2.2366
2568.08	2.78018
2569.45	2.77103
2570.82	2.95513
2572.18	3.00282
2573.55	3.46882
2574.92	3.68393
2576.29	4.52413
2577.66	4.67978
2579.03	4.37377
2580.4	4.26225
2581.77	4.50612
2583.13	4.19293
2584.5	5.09508
2585.87	4.98783
2587.23	4.82341
2588.6	4.60506
2589.97	5.30654
2591.33	5.80446
2592.7	5.88615
2594.06	5.53252
2595.43	5.42975
2596.79	4.89676
2598.16	4.546
2599.52	4.52316
2600.89	5.03536
2602.25	4.98804
2603.62	4.70511
2604.98	4.78556
2606.34	4.57465
2607.71	3.92481
2609.07	3.31005
2610.43	3.48058
2611.79	3.64875
2613.16	3.73324
2614.52	3.51362
2615.88	2.99741
2617.24	2.90271
2618.6	3.31976
2619.96	3.30716
2621.32	2.79469
2622.68	3.12161
2624.04	3.11684
2625.4	2.7475
2626.76	2.32551
2628.12	2.32367
2629.48	2.8645
2630.84	3.07043
2632.2	3.59613
2633.56	4.31807
2634.92	4.4796
2636.28	4.90989
2637.63	4.86919
2638.99	4.75206
2640.35	4.83321
2641.71	5.30352
2643.06	5.45019
2644.42	5.57074
2645.77	4.83069
2647.13	4.05429
2648.49	3.61631
2649.84	3.15736
2651.2	2.95629
2652.55	2.67358
2653.91	2.08714
2655.26	1.92558
2656.62	2.10787
2657.97	2.44562
2659.33	3.08882
2660.68	3.15877
2662.03	3.34324
2663.39	4.13297
2664.74	4.48464
2666.09	4.63398
2667.44	4.90818
2668.8	5.18412
2670.15	5.06298
2671.5	4.84791
2672.85	5.24399
2674.2	5.12191
2675.55	5.17443
2676.91	5.49745
2678.26	6.16233
2679.61	7.08878
2680.96	7.29409
2682.31	7.0036
2683.66	6.9009
2685	6.7647
2686.35	7.26833
2687.7	7.73307
2689.05	8.14942
2690.4	8.33969
2691.75	8.20355
2693.1	7.96509
2694.44	8.2999
2695.79	8.5966
2697.14	9.39807
2698.49	9.33688
2699.83	9.64486
2701.18	10.4569
2702.52	10.4067
2703.87	10.107
2705.22	9.54197
2706.56	9.43019
2707.91	9.20149
2709.25	8.84051
2710.6	8.04649
2711.94	8.32295
2713.29	8.36618
2714.63	7.9266
2715.97	8.13002
2717.32	8.46079
2718.66	8.49751
2720.01	8.76658
2721.35	8.78681
2722.69	9.1861
2724.03	10.1142
2725.38	10.1981
2726.72	10.4558
2728.06	9.63526
2729.4	9.29692
2730.74	9.51268
2732.08	8.86879
2733.42	8.76432
2734.76	8.60553
2736.1	8.88322
2737.44	9.28914
2738.78	9.07288
2740.12	9.12162
2741.46	9.00593
2742.8	9.27999
2744.14	9.86541
2745.48	9.90879
2746.82	9.94885
2748.16	9.36552
2749.49	9.23783
2750.83	9.16613
2752.17	9.76371
2753.51	9.81352
2754.84	10.2915
2756.18	9.00566
2757.52	8.21331
2758.85	7.85929
2760.19	7.29469
2761.53	6.82594
2762.86	6.61853
2764.2	6.60045
2765.53	6.35083
2766.87	6.22598
2768.2	5.83609
2769.54	5.02735
2770.87	4.24506
2772.2	3.82287
2773.54	3.5959
2774.87	3.17456
2776.2	2.90636
2777.54	2.87189
2778.87	3.61162
2780.2	2.56114
2781.53	2.30516
2782.87	2.63806
2784.2	2.44182
2785.53	2.00746
2786.86	2.09319
2788.19	1.08419
2789.52	1.16896
2790.85	1.42092
2792.18	1.21131
2793.51	0.738886
2794.84	0.0860097
2796.17	0.223564
2797.5	0.195993
2798.83	0.282109
2800.16	0.37863
2801.49	0.306279
2802.82	0.780778
2804.15	0.855541
2805.47	0.453218
2806.8	0.660822
2808.13	1.48485
2809.46	2.36056
2810.78	2.28078
2812.11	2.11599
2813.44	2.23889
2814.76	2.9714
2816.09	2.94179
2817.42	3.34245
2818.74	4.69335
2820.07	4.95763
2821.39	5.99537
2822.72	6.57279
2824.04	8.25121
2825.37	10.2194
2826.69	11.8589
2828.02	13.9516
2829.34	16.6223
2830.66	18.5206
2831.99	20.5974
2833.31	22.7697
2834.63	24.9668
2835.96	27.0699
2837.28	29.235
2838.6	32.0845
2839.92	35.0934
2841.24	37.645
2842.57	41.0709
2843.89	43.9834
2845.21	47.9957
2846.53	51.0713
2847.85	55.5171
2849.17	58.9541
2850.49	62.4459
2851.81	66.5289
2853.13	71.5561
2854.45	75.8964
2855.77	81.0938
2857.09	85.8594
2858.41	89.9723
2859.72	93.5707
2861.04	98.2582
2862.36	102.097
2863.68	105.609
2865	110.068
2866.31	113.564
2867.63	116.711
2868.95	120.129
2870.26	123.312
2871.58	125.938
2872.9	129.272
2874.21	132.438
2875.53	134.714
2876.84	137.125
2878.16	139.133
2879.47	141.626
2880.79	144.185
2882.1	146.534
2883.42	148.518
2884.73	151.139
2886.05	153.193
2887.36	155.57
2888.67	158.486
2889.99	160.857
2891.3	163.374
2892.61	165.468
2893.92	168.465
2895.24	171.033
2896.55	173.429
2897.86	176.198
2899.17	179.149
2900.48	182.009
2901.79	185.68
2903.11	190.092
2904.42	194.589
2905.73	199.821
2907.04	204.359
2908.35	210.354
2909.66	215.766
2910.97	222.783
2912.27	228.438
2913.58	235.047
2914.89	241.413
2916.2	247.524
2917.51	254.324
2918.82	260.416
2920.13	265.222
2921.43	270.311
2922.74	274.474
2924.05	278.098
2925.35	281.819
2926.66	284.4
2927.97	286.817
2929.27	289.538
2930.58	291.6
2931.89	292.003
2933.19	292.268
2934.5	292.666
2935.8	291.565
2937.11	290.59
2938.41	289.919
2939.72	287.4
2941.02	284.483
2942.32	280.659
2943.63	276.262
2944.93	272.219
2946.24	268.164
2947.54	264.249
2948.84	258.997
2950.14	254.55
2951.45	249.232
2952.75	243.53
2954.05	238.648
2955.35	232.985
2956.65	227.351
2957.95	221.733
2959.26	216.221
2960.56	210.335
2961.86	204.918
2963.16	199.296
2964.46	194.663
2965.76	189.323
2967.06	184.097
2968.36	179.366
2969.66	174.699
2970.96	170.367
2972.25	164.94
2973.55	161.11
2974.85	156.477
2976.15	151.954
2977.45	147.155
2978.74	142.975
2980.04	138.133
2981.34	133.29
2982.64	128.456
2983.93	123.59
2985.23	118.5
2986.52	113.601
2987.82	109.067
2989.12	104.782
2990.41	100.207
2991.71	95.4649
2993	91.2496
2994.3	86.3624
2995.59	81.3209
2996.89	76.7931
2998.18	72.6513
2999.48	68.322
3000.77	63.9998
3002.06	60.5503
3003.36	56.3177
3004.65	51.3883
3005.94	47.2859
3007.23	43.4242
3008.53	40.209
3009.82	37.0129
3011.11	34.4788
3012.4	31.0969
3013.69	27.9443
3014.99	26.0348
3016.28	23.6517
3017.57	21.362
3018.86	19.9663
3020.15	17.6007
3021.44	15.4917
3022.73	13.7854
3024.02	12.9471
3025.31	11.733
3026.6	10.9007
3027.89	10.1728
3029.18	9.33754
3030.46	8.49465
3031.75	8.57653
3033.04	9.29693
3034.33	9.19033
3035.62	8.37838
3036.9	8.1569
3038.19	8.78069
3039.48	8.8345
3040.76	9.05925
3042.05	9.34778
3043.34	10.0516
3044.62	10.9375
3045.91	11.4178
3047.19	11.9305
3048.48	13.2415
3049.77	13.9848
3051.05	14.7708
3052.34	15.8039
3053.62	15.9406
3054.9	15.9088
3056.19	16.6111
3057.47	16.2508
3058.76	16.4049
3060.04	16.2616
3061.32	16.0257
3062.61	16.2645
3063.89	15.6164
3065.17	14.751
3066.45	14.0595
3067.74	12.8325
3069.02	11.6638
3070.3	11.2484
3071.58	10.3234
3072.86	9.25879
3074.14	8.64641
3075.42	8.13071
3076.7	7.21355
3077.99	7.27142
3079.26	6.88401
3080.54	5.80232
3081.82	4.9054
3083.1	4.17312
3084.38	3.32698
3085.66	3.24386
3086.94	3.13364
3088.22	2.99693
3089.5	2.1022
3090.78	2.36394
3092.05	2.00203
3093.33	1.47183
3094.61	1.04814
3095.89	0.880639
3097.16	0.363027
3098.44	-0.484676
3099.72	-0.726073
3100.99	-0.270214
3102.27	-0.140209
3103.54	0.0469393
3104.82	0.113617
3106.1	0.0308024
3107.37	0.915057
3108.65	0.916891
3109.92	0.620259
3111.2	1.2692
3112.47	1.43167
3113.74	1.81601
3115.02	1.88472
3116.29	2.15147
3117.56	1.93592
3118.84	2.1234
3120.11	2.41998
3121.38	2.0863
3122.66	2.43499
3123.93	2.41581
3125.2	2.87603
3126.47	3.41638
3127.74	2.66338
3129.01	2.82422
3130.29	3.34732
3131.56	3.6876
3132.83	4.23476
3134.1	5.15651
3135.37	5.17305
3136.64	5.6669
3137.91	6.42064
3139.18	6.73602
3140.45	7.10519
3141.72	7.70442
3142.99	7.94552
3144.26	8.19689
3145.52	8.59194
3146.79	8.87029
3148.06	8.02091
3149.33	7.05897
