#Acq. time (s)=	45
#Accumulations=	2
#Range (cm-¹)=	200...3150
#Windows=	2
#Auto scanning=	Off
#Autofocus=	Off
#Macrospot=	Off
#AutoExposure=	Off
#Spike filter=	Multiple accum.
#Delay time (s)=	0
#Binning=	1
#Readout mode=	Signal
#DeNoise=	Off
#ICS correction=	On
#Dark correction=	Off
#Inst. Process=	Off
#Detector Gain=	Best Dynamic Range
#Detector ADC=	20 kHz       
#Detector temperature (°C)=	-69.85
#Instrument=	LabRAM HR Evol
#Detector=	Synapse
#Objective=	x100
#Grating=	600 gr/mm
#ND Filter=	100%
#Laser (nm)=	532 
#Hole=	100.021
#Range=	Auto
#Laser Pol.=	No
#Raman. Pol.=	No
#Laser Pol. (°)=	-0.0007625
#Raman Pol. (°)=	89.9995
#Collection=	Microscope
#StageXY=	Marzhauser
#StageZ=	Marzhauser
#X (µm)=	251.8
#Y (µm)=	1687.8
#Z (µm)=	426.85
#Full time(mm:ss)=	3:18
#Project=	
#Sample=	
#Site=	
#Title=	Thy_40_11_41_2x_45s_532 nm_x100_100%_600 gr_mm
#Remark=	
#Date=	05.07.2022 12:54
#Acquired=	05.07.2022 12:54:42
#Base:Fit=	10.08.2022 10:01:35
#Base:Sub=	10.08.2022 10:01:52
#Filter:Polynom=	16.08.2022 10:21:53
#AxisType[0]=Intens
#AxisUnit[0]=Cnt
#AxisType[1]=Spectr
#AxisUnit[1]=1/cm
200.43	45.2911
202.244	44.5741
204.059	41.7915
205.873	38.8885
207.688	36.1835
209.501	33.3739
211.314	30.4658
213.127	28.1924
214.941	25.6237
216.753	23.9225
218.564	21.4186
220.375	20.1084
222.186	16.6826
223.999	15.1464
225.809	13.2112
227.618	11.8432
229.428	11.2498
231.236	10.3491
233.045	9.66104
234.855	8.9808
236.663	8.05289
238.471	6.89
240.278	5.72808
242.085	5.18664
243.891	4.9727
245.698	4.54805
247.503	4.2931
249.309	4.21427
251.116	4.68918
252.921	2.53234
254.725	3.10764
256.529	2.71719
258.333	1.10797
260.136	0.935229
261.939	1.41002
263.742	1.42507
265.544	2.42613
267.346	2.63822
269.148	2.3506
270.949	2.76721
272.75	4.99738
274.55	5.99567
276.351	6.10343
278.15	6.19618
279.95	6.24703
281.749	6.08137
283.548	5.71276
285.346	5.68733
287.144	6.09047
288.942	6.07222
290.739	5.57383
292.536	5.73265
294.333	5.78119
296.129	6.00883
297.925	6.62003
299.721	8.22176
301.514	7.90032
303.309	8.09612
305.104	7.69293
306.898	7.93857
308.692	7.10805
310.486	8.48228
312.279	8.04345
314.072	9.83238
315.862	10.8068
317.654	12.4426
319.446	13.3348
321.238	14.1479
323.029	14.7492
324.819	14.1327
326.608	13.509
328.398	13.314
330.188	13.2737
331.977	13.863
333.766	13.3508
335.553	13.2208
337.341	12.9554
339.129	13.0789
340.917	12.7675
342.704	12.163
344.489	13.1247
346.275	12.4628
348.062	12.5689
349.845	13.5076
351.631	14.6467
353.416	13.7193
355.201	13.4351
356.984	13.112
358.768	12.6906
360.552	12.5468
362.333	12.4389
364.116	11.9896
365.899	11.961
367.68	11.7436
369.462	11.1998
371.243	11.6691
373.023	11.6546
374.804	12.3714
376.585	11.3895
378.363	10.7866
380.143	10.5327
381.923	10.5613
383.7	10.2469
385.479	9.75995
387.256	10.2716
389.034	9.76476
390.812	7.78847
392.588	7.93675
394.365	7.964
396.14	8.45247
397.916	8.30574
399.691	9.39745
401.467	8.66287
403.24	8.69133
405.015	7.90918
406.788	8.13031
408.563	7.97115
410.335	7.16325
412.109	5.72466
413.88	5.38396
415.654	5.70917
417.424	5.58382
419.197	5.3051
420.967	4.99549
422.739	4.55072
424.508	5.53126
426.279	5.1699
428.048	4.18087
429.819	4.29655
431.587	4.04963
433.356	4.61969
435.124	2.80214
436.891	2.47874
438.66	1.91698
440.426	1.48694
442.194	0.453919
443.96	1.32579
445.725	1.94949
447.492	3.18501
449.257	3.69592
451.021	5.09046
452.787	7.05452
454.551	8.29236
456.314	9.6101
458.079	10.2527
459.842	11.3715
461.604	11.3768
463.368	11.8919
465.13	13.1707
466.891	14.5895
468.654	14.3782
470.415	14.6274
472.175	14.2722
473.935	14.7598
475.696	16.0153
477.456	15.3271
479.215	15.6762
480.973	16.8968
482.733	17.1131
484.491	17.1879
486.249	17.5851
488.006	18.5129
489.765	19.303
491.522	20.1367
493.278	20.8058
495.034	21.8178
496.789	21.8919
498.544	20.828
500.301	21.5438
502.056	23.2343
503.81	23.0767
505.564	23.0082
507.317	23.4884
509.071	23.6874
510.825	23.8522
512.578	23.0065
514.33	22.275
516.082	22.6275
517.833	22.5774
519.585	21.7141
521.335	21.2703
523.086	19.7821
524.836	20.3466
526.586	20.1824
528.335	20.9992
530.085	20.7351
531.835	20.6623
533.584	20.2666
535.332	21.1735
537.08	20.2065
538.827	20.9833
540.574	21.678
542.321	20.6586
544.068	20.3695
545.814	19.6584
547.56	19.5257
549.305	19.0084
551.05	19.0419
552.795	18.5311
554.54	16.8437
556.282	15.0888
558.025	14.5017
559.769	14.1255
561.512	12.9632
563.255	11.7223
564.997	10.7705
566.739	10.222
568.481	9.71174
570.223	9.15099
571.964	8.24738
573.705	8.93719
575.443	7.86842
577.183	8.11462
578.923	7.31646
580.663	7.00123
582.402	6.44361
584.141	7.29915
585.879	7.43705
587.615	8.65752
589.353	9.45621
591.09	9.53858
592.828	9.10105
594.564	8.80555
596.299	7.88681
598.035	6.48418
599.771	5.89476
601.506	6.14123
603.242	6.4643
604.974	5.83858
606.709	7.00687
608.443	7.18014
610.177	8.12233
611.908	9.57015
613.642	11.816
615.374	12.3854
617.105	12.1197
618.837	13.125
620.569	13.8274
622.3	14.5886
624.03	14.6196
625.761	16.1199
627.491	16.7279
629.219	16.9445
630.949	18.008
632.677	19.0381
634.406	18.9107
636.135	19.1334
637.861	19.0132
639.59	18.568
641.318	19.1494
643.043	19.4544
644.77	19.097
646.495	18.8706
648.222	17.8129
649.948	18.374
651.672	19.0115
653.398	19.0085
655.121	19.7019
656.846	19.0082
658.569	19.0044
660.293	19.8138
662.015	19.4936
663.738	21.2912
665.46	20.9421
667.183	20.6525
668.903	20.9115
670.626	22.1011
672.346	22.5468
674.067	23.0606
675.787	23.247
677.508	22.6986
679.226	22.1865
680.947	22.2655
682.665	22.6172
684.385	23.1729
686.102	24.2761
687.821	25.738
689.538	27.492
691.254	29.6924
692.972	31.2606
694.688	32.0091
696.406	33.948
698.121	34.8151
699.835	35.425
701.552	35.4115
703.266	35.6783
704.98	36.0044
706.695	35.8438
708.409	35.8162
710.121	36.8826
711.836	37.2797
713.548	38.2064
715.26	38.9046
716.973	39.5407
718.685	40.4711
720.396	40.6569
722.108	41.4449
723.818	41.4702
725.528	42.3316
727.238	41.9918
728.949	41.9393
730.658	41.8349
732.367	42.3452
734.075	43.0577
735.785	43.8878
737.493	44.012
739.2	43.7361
740.907	44.6876
742.614	46.1393
744.322	47.4985
746.028	49.1577
747.734	50.9337
749.439	52.4058
751.144	52.4978
752.849	53.7222
754.555	55.8689
756.26	56.4892
757.963	57.958
759.667	58.8895
761.37	60.0341
763.073	60.6856
764.775	61.4185
766.477	62.9826
768.179	64.5595
769.883	65.3245
771.584	66.8695
773.285	69.6749
774.986	70.75
776.686	72.1177
778.386	73.0451
780.085	74.0158
781.785	75.2749
783.484	75.6658
785.182	76.2428
786.881	76.225
788.579	76.4805
790.276	76.8142
791.974	77.6592
793.671	78.6533
795.367	79.4987
797.064	80.5009
798.76	82.0424
800.456	82.1603
802.151	83.0482
803.846	83.3435
805.541	83.8749
807.234	84.2108
808.928	83.4227
810.622	83.2845
812.315	82.8758
814.008	84.314
815.701	84.6575
817.394	85.2196
819.086	86.3169
820.778	87.2448
822.468	87.3865
824.159	87.9854
825.85	90.1365
827.541	90.1217
829.231	89.0863
830.921	88.6968
832.609	88.8515
834.298	87.6124
835.987	86.2461
837.676	86.7135
839.364	86.1836
841.051	84.8469
842.738	83.4246
844.426	81.5493
846.113	79.9063
847.798	77.5608
849.484	76.9083
851.171	77.0557
852.857	75.2477
854.54	73.0839
856.226	72.3444
857.911	70.5579
859.593	67.4336
861.278	66.3158
862.961	65.2624
864.645	62.8355
866.327	59.7467
868.01	58.5622
869.692	57.2627
871.373	56.0971
873.055	55.3591
874.735	53.9027
876.416	53.7283
878.097	52.7521
879.776	51.3297
881.457	50.7206
883.135	49.8765
884.815	49.2826
886.495	48.8425
888.172	48.0232
889.851	47.4761
891.528	45.7633
893.206	44.7819
894.882	44.8911
896.56	44.5763
898.237	45.1111
899.912	44.7256
901.589	43.7999
903.263	44.503
904.94	44.3649
906.614	44.2359
908.289	44.1569
909.962	43.6512
911.635	41.6724
913.31	42.2551
914.982	42.2142
916.656	42.1881
918.328	40.7141
920.001	40.0597
921.672	40.2044
923.345	38.6265
925.015	38.1759
926.685	37.4828
928.357	36.8246
930.026	35.9259
931.698	35.6655
933.366	35.7464
935.035	35.0798
936.705	34.3864
938.373	33.6971
940.041	33.3682
941.71	32.2679
943.377	31.4913
945.044	31.1297
946.712	30.0062
948.378	28.5278
950.044	29.0667
951.709	31.2194
953.376	31.2272
955.041	31.6571
956.706	31.4752
958.372	32.1537
960.036	32.1184
961.699	31.4135
963.362	32.179
965.027	33.3416
966.69	33.8567
968.352	32.9408
970.014	32.8242
971.676	33.4507
973.339	33.7094
975	33.6649
976.661	33.8611
978.322	34.5176
979.982	34.6432
981.642	35.6094
983.303	36.2415
984.962	37.3263
986.621	38.6258
988.28	37.3313
989.938	37.5298
991.596	36.4406
993.254	35.531
994.911	36.1975
996.57	36.507
998.227	36.4081
999.884	35.9393
1001.54	35.9353
1003.2	35.7385
1004.85	36.4849
1006.51	37.2864
1008.16	37.0064
1009.82	36.3088
1011.47	35.7713
1013.12	36.2232
1014.78	36.5804
1016.43	36.795
1018.08	37.2088
1019.74	37.4721
1021.39	36.9308
1023.04	36.9247
1024.69	36.9827
1026.34	36.1144
1028	36.0653
1029.65	36.734
1031.3	38.334
1032.95	39.5317
1034.6	39.1499
1036.25	38.6727
1037.9	38.4139
1039.54	37.1937
1041.19	36.806
1042.84	35.1471
1044.49	35.2266
1046.14	35.3236
1047.78	33.9281
1049.43	32.2709
1051.08	31.2696
1052.72	31.8331
1054.37	30.7093
1056.02	29.1552
1057.66	27.8832
1059.31	26.6155
1060.95	25.1927
1062.6	24.4127
1064.24	23.3477
1065.88	20.888
1067.53	19.5699
1069.17	17.6329
1070.81	16.174
1072.45	15.9172
1074.1	14.6125
1075.74	14.1945
1077.38	14.5959
1079.02	14.1409
1080.66	14.3052
1082.3	13.2661
1083.94	13.5928
1085.58	13.81
1087.22	15.7348
1088.86	15.2832
1090.5	14.7743
1092.14	15.5567
1093.78	16.2527
1095.42	16.9406
1097.05	17.407
1098.69	18.6119
1100.33	19.4052
1101.96	20.0923
1103.6	20.9388
1105.24	20.9493
1106.87	21.0385
1108.51	21.7314
1110.14	22.8185
1111.78	24.1114
1113.41	25.1187
1115.05	23.4851
1116.68	22.852
1118.31	22.7309
1119.95	22.3589
1121.58	21.917
1123.21	21.1619
1124.85	19.3718
1126.48	19.9472
1128.11	18.9349
1129.74	17.4409
1131.37	17.2044
1133	15.9207
1134.63	15.0047
1136.26	13.3378
1137.89	13.1996
1139.52	12.9716
1141.15	11.1034
1142.78	10.4922
1144.41	10.7951
1146.04	10.1596
1147.66	9.32402
1149.29	9.47525
1150.92	9.25714
1152.55	8.80151
1154.17	8.23478
1155.8	8.64653
1157.43	8.71913
1159.05	8.55186
1160.68	8.66858
1162.3	8.29105
1163.93	8.75537
1165.55	9.34507
1167.17	9.18694
1168.8	8.86071
1170.42	8.89385
1172.05	10.4347
1173.67	10.9297
1175.29	10.7341
1176.91	10.9833
1178.54	10.7478
1180.16	10.9635
1181.78	11.7019
1183.4	11.6624
1185.02	12.4107
1186.64	12.6523
1188.26	13.1762
1189.88	14.0109
1191.5	14.2629
1193.12	15.6915
1194.74	15.0478
1196.36	14.917
1197.97	15.8415
1199.59	17.2248
1201.21	18.4008
1202.83	18.1856
1204.44	19.2259
1206.06	20.1451
1207.68	22.9844
1209.29	22.9282
1210.91	24.6291
1212.52	25.8311
1214.14	27.5612
1215.75	29.4454
1217.37	31.389
1218.98	34.1449
1220.59	35.0879
1222.21	36.8074
1223.82	39.9652
1225.43	42.4273
1227.05	44.0095
1228.66	44.8666
1230.27	47.0151
1231.88	48.9455
1233.49	51.8446
1235.1	54.379
1236.72	57.3026
1238.33	58.2832
1239.94	59.9801
1241.55	61.0727
1243.16	62.18
1244.76	64.3275
1246.37	64.9991
1247.98	66.3908
1249.59	68.6158
1251.2	70.1129
1252.8	70.5574
1254.41	71.3646
1256.02	72.3714
1257.62	73.2832
1259.23	74.0531
1260.84	74.7913
1262.44	75.9378
1264.05	76.3073
1265.66	77.4542
1267.26	78.7874
1268.86	79.7482
1270.47	81.7359
1272.07	82.7008
1273.67	84.1534
1275.28	84.1536
1276.88	85.4125
1278.48	85.3568
1280.09	86.8809
1281.69	87.8674
1283.29	88.1217
1284.89	90.0189
1286.49	90.6422
1288.09	91.9108
1289.69	92.6435
1291.29	94.6789
1292.89	95.6783
1294.49	97.6326
1296.09	97.3216
1297.69	98.2861
1299.29	98.8288
1300.89	98.7224
1302.49	99.7214
1304.08	99.907
1305.68	100.327
1307.28	100.257
1308.88	101.529
1310.47	102.972
1312.07	103.415
1313.66	105.154
1315.26	104.511
1316.85	104.215
1318.45	102.906
1320.04	102.245
1321.64	101.55
1323.23	101.858
1324.83	101.377
1326.42	101.39
1328.01	100.86
1329.61	99.9046
1331.2	98.0258
1332.79	96.6816
1334.38	95.2878
1335.97	93.9532
1337.56	91.7328
1339.16	91.4248
1340.75	90.256
1342.34	88.9657
1343.93	87.5702
1345.52	87.1384
1347.11	86.4923
1348.7	85.5704
1350.29	83.906
1351.87	82.3984
1353.46	81.0431
1355.05	78.4628
1356.64	76.7804
1358.22	74.8665
1359.81	74.5223
1361.4	73.2172
1362.98	71.6009
1364.57	70.6039
1366.16	69.457
1367.74	67.832
1369.33	66.9587
1370.91	65.4163
1372.5	64.3045
1374.08	63.1564
1375.67	61.8385
1377.25	61.6019
1378.83	61.0714
1380.41	60.5068
1382	59.6709
1383.58	59.3711
1385.16	58.7511
1386.74	57.43
1388.33	56.4373
1389.91	54.8346
1391.49	54.2854
1393.07	53.7075
1394.65	50.9312
1396.23	49.1318
1397.81	48.6127
1399.39	48.4122
1400.97	48.4071
1402.55	47.7119
1404.13	47.3187
1405.7	46.6328
1407.28	45.0254
1408.86	44.402
1410.44	44.4108
1412.01	45.6675
1413.59	46.6862
1415.17	47.8784
1416.74	48.4912
1418.32	51.2099
1419.89	53.2934
1421.47	55.0202
1423.04	58.4085
1424.62	61.4843
1426.19	64.0454
1427.77	67.917
1429.34	69.735
1430.91	72.4923
1432.49	75.0076
1434.06	77.5224
1435.63	81.2611
1437.2	83.9961
1438.78	87.5956
1440.35	89.8436
1441.92	92.3642
1443.49	94.7896
1445.06	96.7994
1446.63	98.6525
1448.2	99.9721
1449.77	101.185
1451.34	101.678
1452.91	101.866
1454.48	100.579
1456.05	99.5455
1457.62	97.3164
1459.18	95.2047
1460.75	93.6015
1462.32	91.3816
1463.89	88.5144
1465.45	86.0981
1467.02	84.0657
1468.59	81.9839
1470.15	79.2316
1471.72	75.402
1473.28	71.1455
1474.85	68.339
1476.41	65.2576
1477.98	61.466
1479.54	56.7687
1481.1	52.2719
1482.67	48.4997
1484.23	44.0604
1485.79	41.2362
1487.36	38.0272
1488.92	35.9911
1490.48	33.3021
1492.04	30.906
1493.61	29.4337
1495.17	28.2812
1496.73	28.3555
1498.29	28.3899
1499.85	28.0478
1501.41	28.3384
1502.97	27.9606
1504.53	28.8726
1506.09	29.2852
1507.65	28.6085
1509.2	29.6456
1510.76	31.071
1512.32	31.4881
1513.88	32.0777
1515.43	31.8861
1516.99	33.2024
1518.55	33.0865
1520.1	34.1544
1521.66	35.3899
1523.22	36.5679
1524.77	36.7381
1526.33	36.9128
1527.88	37.8196
1529.44	37.8305
1530.99	38.3726
1532.54	38.6322
1534.1	40.616
1535.65	41.6029
1537.21	43.2851
1538.76	44.368
1540.31	45.8978
1541.86	47.2396
1543.42	50.0128
1544.97	51.538
1546.52	53.4069
1548.07	55.4487
1549.62	57.8876
1551.17	59.3947
1552.72	61.2791
1554.27	62.9099
1555.82	65.1908
1557.37	66.6463
1558.92	69.182
1560.47	70.9148
1562.02	72.9172
1563.56	74.9911
1565.11	77.004
1566.66	80.0399
1568.21	82.0157
1569.75	85.1339
1571.3	87.6852
1572.85	90.0135
1574.39	93.4005
1575.94	95.7036
1577.49	97.3557
1579.03	99.3325
1580.57	100.676
1582.12	102.445
1583.66	102.781
1585.21	104.223
1586.75	105.298
1588.3	105.824
1589.84	105.93
1591.38	106.904
1592.92	106.955
1594.47	106.335
1596.01	105.962
1597.55	106.358
1599.09	105.398
1600.63	104.528
1602.17	102.064
1603.71	101.037
1605.25	99.3002
1606.79	97.6132
1608.33	95.9958
1609.87	95.7618
1611.41	95.6897
1612.95	94.39
1614.49	93.6587
1616.03	92.8805
1617.57	93.0338
1619.1	92.8321
1620.64	94.0396
1622.18	93.9983
1623.72	95.6761
1625.25	95.7232
1626.79	95.5358
1628.32	94.9441
1629.86	94.8923
1631.39	95.05
1632.93	96.0072
1634.46	96.7857
1636	97.2976
1637.53	97.8128
1639.07	98.892
1640.6	100.006
1642.13	101.459
1643.67	103.199
1645.2	104.812
1646.73	107.324
1648.26	108.962
1649.8	110.499
1651.33	112.116
1652.86	112.438
1654.39	113.498
1655.92	113.878
1657.45	112.747
1658.98	112.93
1660.51	112.906
1662.04	112.952
1663.57	111.334
1665.1	110.159
1666.63	107.863
1668.16	106.517
1669.68	103.215
1671.21	99.9502
1672.74	97.7139
1674.27	94.6144
1675.79	91.5826
1677.32	88.3159
1678.85	84.4048
1680.37	82.2566
1681.9	79.0664
1683.42	76.0011
1684.95	72.5961
1686.47	69.6298
1688	65.9383
1689.52	61.9157
1691.05	58.8539
1692.57	55.2633
1694.09	52.1256
1695.62	48.8026
1697.14	45.5262
1698.66	42.004
1700.18	38.7233
1701.71	34.8389
1703.23	32.0391
1704.75	29.8367
1706.27	27.8118
1707.79	26.312
1709.31	24.9516
1710.83	23.025
1712.35	21.0033
1713.87	19.0182
1715.39	17.3654
1716.91	16.6433
1718.43	15.7238
1719.95	15.7856
1721.47	15.1486
1722.99	14.1412
1724.5	13.6532
1726.02	12.9637
1727.54	11.4867
1729.06	10.656
1730.57	10.0441
1732.09	9.00537
1733.61	8.51545
1735.12	8.69887
1736.64	8.05028
1738.15	6.62818
1739.67	5.48242
1741.18	4.64155
1742.7	4.03536
1744.21	4.36615
1745.72	2.70837
1747.24	1.96197
1748.75	2.66195
1750.26	2.90948
1751.77	3.07858
1753.29	2.84124
1754.8	3.33552
1756.31	3.25214
1757.82	3.21502
1759.33	2.48924
1760.84	2.47894
1762.36	2.0625
1763.87	2.07797
1765.38	1.96657
1766.89	2.09302
1768.4	1.12476
1769.91	0.969432
1771.41	0.951465
1772.92	1.2316
1774.43	1.46928
1775.94	1.81173
1777.45	2.06878
1778.95	2.47551
1780.46	2.52988
1781.97	2.13007
1783.48	1.93897
1784.98	1.43147
1786.49	1.1829
1787.99	0.554873
1789.5	0.0102674
1791.01	0.142052
1792.51	0.486
1794.01	0.38441
1795.52	0.599767
1797.02	0.142178
1798.53	0.122126
1800.03	0.571409
1801.53	0.240244
1803.04	0.260723
1804.54	0.482981
1806.04	0.0736916
1807.54	0.520295
1809.05	0.531613
1810.55	0.777896
1812.05	0.913703
1813.55	0.799071
1815.05	0.910985
1816.55	1.06079
1818.05	1.98036
1819.55	1.88985
1821.05	2.10225
1822.55	2.65252
1824.05	3.83112
1825.55	3.99538
1827.05	3.99213
1828.55	3.67584
1830.04	3.8944
1831.54	4.13305
1833.04	4.39967
1834.54	3.69149
1836.03	3.91775
1837.53	3.58985
1839.03	4.26509
1840.52	4.30923
1842.02	4.0016
1843.51	3.775
1845.01	3.89153
1846.5	3.7914
1848	3.87779
1849.49	3.38043
1850.99	2.86154
1852.48	2.7753
1853.97	2.42162
1855.47	1.90122
1856.96	1.40862
1858.45	1.50146
1859.94	0.797036
1861.44	0.326518
1862.93	-0.308516
1864.42	0.0437011
1865.91	-0.241747
1867.4	-0.361511
1868.89	0.449127
1870.38	0.553544
1871.87	0.658483
1873.36	0.821487
1874.85	0.732301
1876.34	0.502688
1877.83	0.831645
1879.32	0.889171
1880.81	1.09038
1882.3	1.95801
1882.57	2.81698
1884.07	3.07665
1885.56	2.57713
1887.06	2.55011
1888.55	2.93876
1890.04	3.39113
1891.54	3.54099
1893.03	3.59998
1894.52	4.41674
1896.02	5.11001
1897.51	5.38265
1899	5.39207
1900.49	5.0428
1901.98	5.20693
1903.47	5.41122
1904.96	4.89873
1906.45	5.0284
1907.94	5.42862
1909.43	5.46945
1910.92	5.48762
1912.41	5.11193
1913.9	4.72707
1915.39	4.85109
1916.88	5.17492
1918.37	5.06992
1919.85	4.96366
1921.34	4.13304
1922.83	3.58428
1924.32	3.59466
1925.8	3.52641
1927.29	2.96758
1928.78	2.35928
1930.26	2.27985
1931.75	2.01241
1933.23	1.02173
1934.72	0.966429
1936.2	1.25313
1937.69	1.88756
1939.17	1.82681
1940.66	2.57759
1942.14	2.6848
1943.63	1.92517
1945.11	2.01607
1946.59	2.4075
1948.07	2.7868
1949.56	2.64593
1951.04	3.54762
1952.52	3.63911
1954	3.76835
1955.48	3.78114
1956.96	3.57719
1958.45	3.2749
1959.93	3.86332
1961.41	4.22362
1962.89	4.40274
1964.37	4.49187
1965.85	4.42455
1967.32	5.0139
1968.8	6.0551
1970.28	6.09672
1971.76	5.5261
1973.24	5.53539
1974.72	5.42166
1976.19	5.62692
1977.67	5.6302
1979.15	6.10917
1980.63	6.11022
1982.1	6.11844
1983.58	5.04976
1985.05	5.03485
1986.53	4.48738
1988	4.49167
1989.48	4.84814
1990.95	4.62611
1992.43	4.77544
1993.9	4.2208
1995.38	3.95523
1996.85	3.72683
1998.32	3.56813
1999.8	3.35738
2001.27	3.51465
2002.74	3.62549
2004.22	4.8183
2005.69	5.12915
2007.16	5.81626
2008.63	6.12316
2010.1	6.38676
2011.57	6.93723
2013.04	6.82553
2014.51	6.17258
2015.98	6.02147
2017.45	6.22783
2018.92	6.81717
2020.39	6.89472
2021.86	7.51491
2023.33	7.44681
2024.8	7.73562
2026.27	7.22054
2027.74	6.87864
2029.2	6.86635
2030.67	6.86136
2032.14	6.78574
2033.61	7.34233
2035.07	6.57614
2036.54	6.78467
2038.01	7.58588
2039.47	7.81703
2040.94	8.12811
2042.4	8.23968
2043.87	8.07935
2045.33	8.2217
2046.8	8.4213
2048.26	8.77958
2049.72	8.81837
2051.19	8.42303
2052.65	8.63372
2054.12	7.7366
2055.58	8.09929
2057.04	8.50243
2058.5	9.37252
2059.97	9.73005
2061.43	10.6481
2062.89	11.3656
2064.35	11.9467
2065.81	12.4097
2067.27	13.0316
2068.73	13.7805
2070.19	14.3799
2071.65	16.0711
2073.11	16.9984
2074.57	17.8947
2076.03	18.6754
2077.49	20.2907
2078.95	19.8191
2080.41	20.1299
2081.87	20.1282
2083.32	20.7324
2084.78	21.4199
2086.24	22.0351
2087.7	22.4794
2089.15	23.7268
2090.61	24.107
2092.07	25.5676
2093.52	26.1388
2094.98	27.1584
2096.43	27.1048
2097.89	27.9608
2099.34	29.0726
2100.8	30.4089
2102.25	31.7835
2103.71	33.6721
2105.16	35.8666
2106.61	37.7317
2108.07	38.6761
2109.52	40.4458
2110.97	42.2259
2112.43	43.3197
2113.88	44.5228
2115.33	46.4148
2116.78	48.3317
2118.23	50.4501
2119.68	51.919
2121.13	54.0378
2122.59	55.9849
2124.04	58.4233
2125.49	61.5776
2126.94	63.9236
2128.39	66.6635
2129.83	69.8444
2131.28	72.3047
2132.73	75.1075
2134.18	77.7994
2135.63	81.1597
2137.08	84.2053
2138.53	86.6859
2139.97	89.053
2141.42	91.5485
2142.87	93.6641
2144.31	95.883
2145.76	98.0659
2147.21	100.41
2148.65	102.224
2150.1	103.877
2151.54	104.56
2152.99	106.023
2154.43	107.414
2155.88	108.503
2157.32	110.203
2158.77	111.8
2160.21	112.74
2161.65	113.685
2163.1	114.749
2164.54	115.965
2165.98	116.804
2167.43	117.29
2168.87	118.109
2170.31	118.817
2171.75	119.086
2173.19	119.303
2174.64	119.503
2176.07	119.262
2177.52	118.399
2178.96	117.561
2180.4	116.196
2181.84	115.081
2183.28	114.308
2184.72	112.873
2186.15	110.896
2187.59	109.391
2189.03	107.4
2190.47	105.964
2191.91	103.874
2193.35	102.241
2194.78	100.454
2196.22	98.6827
2197.66	97.3499
2199.09	94.8951
2200.53	92.9999
2201.97	90.7498
2203.4	88.8441
2204.84	86.718
2206.27	84.3811
2207.71	82.3731
2209.14	79.3716
2210.58	76.9623
2212.01	74.6253
2213.45	72.6725
2214.88	69.3841
2216.31	67.2457
2217.75	64.6553
2219.18	61.9306
2220.61	59.354
2222.05	56.9655
2223.48	54.7212
2224.91	52.8243
2226.34	51.0262
2227.78	48.8089
2229.21	48.0304
2230.64	46.6331
2232.07	44.5687
2233.5	42.7817
2234.93	41.3651
2236.36	39.6314
2237.79	38.9861
2239.22	37.1901
2240.65	36.4326
2242.08	35.3737
2243.5	34.4352
2244.93	33.8303
2246.36	33.3161
2247.79	32.5824
2249.22	31.368
2250.64	30.3866
2252.07	28.6333
2253.5	28.8174
2254.92	28.0282
2256.35	27.2701
2257.78	25.6539
2259.2	24.7824
2260.63	24.2661
2262.05	24.0862
2263.48	23.6106
2264.9	23.1966
2266.33	22.962
2267.75	23.0207
2269.18	22.6012
2270.6	21.47
2272.02	20.9786
2273.45	20.5773
2274.87	20.6825
2276.29	20.3732
2277.71	19.9679
2279.14	19.7582
2280.56	18.9079
2281.98	18.5455
2283.4	18.1843
2284.82	17.4126
2286.24	16.5909
2287.66	16.3044
2289.08	15.4526
2290.5	14.5868
2291.92	13.5051
2293.34	11.9942
2294.76	11.2147
2296.18	10.7598
2297.6	10.1709
2299.02	10.842
2300.44	11.0392
2301.86	10.8758
2303.27	9.99874
2304.69	10.1393
2306.11	9.98745
2307.53	10.3164
2308.94	10.3579
2310.36	9.87097
2311.78	9.47771
2313.19	9.27011
2314.61	9.25694
2316.02	9.41103
2317.44	9.46865
2318.85	9.13069
2320.27	8.21898
2321.68	7.86286
2323.1	7.96712
2324.51	8.10476
2325.92	7.41267
2327.34	6.90789
2328.75	5.89271
2330.16	5.44226
2331.58	5.14055
2332.99	4.56485
2334.4	4.46318
2335.81	4.19477
2337.23	3.84263
2338.64	3.36031
2340.05	2.86309
2341.46	2.61025
2342.87	2.04441
2344.28	1.47266
2345.69	1.31704
2347.1	1.47685
2348.51	1.49713
2349.92	0.925828
2351.33	0.274353
2352.74	0.0313167
2354.15	-0.794663
2355.55	-1.20864
2356.96	-1.8233
2358.37	-2.37879
2359.78	-2.99195
2361.19	-3.26496
2362.59	-3.30112
2364	-2.93962
2365.41	-1.91288
2366.81	-1.44719
2368.22	-1.01667
2369.62	-0.257251
2371.03	-0.580157
2372.44	-0.427312
2373.84	-0.974758
2375.24	-0.454075
2376.65	-0.0804434
2378.05	0.720706
2379.46	0.312145
2380.86	0.793484
2382.26	0.567323
2383.67	1.48618
2385.07	1.40522
2386.47	1.80049
2387.88	1.95074
2389.28	1.44442
2390.68	1.67129
2392.08	2.05224
2393.48	2.41867
2394.89	2.21807
2396.29	1.44943
2397.69	0.961946
2399.09	0.600456
2400.49	1.17343
2401.89	1.08238
2403.29	1.28088
2404.69	2.06431
2406.09	2.00515
2407.48	2.07215
2408.88	2.39678
2410.28	3.31095
2411.68	3.86108
2413.08	3.95031
2414.48	4.58731
2415.87	5.70007
2417.27	5.60672
2418.67	6.10405
2420.06	5.93833
2421.46	5.5958
2422.86	6.05911
2424.25	6.31848
2425.65	6.70815
2427.04	6.90735
2428.44	7.05639
2429.83	7.40727
2431.23	7.65304
2432.62	8.08346
2434.02	8.56661
2435.41	8.04698
2436.81	7.51317
2438.2	7.67655
2439.59	8.08129
2440.99	8.19094
2442.38	7.86596
2443.77	8.13998
2445.16	8.61642
2446.56	8.75796
2447.95	8.69916
2449.34	7.84907
2450.73	7.93206
2452.12	7.58041
2453.51	8.06377
2454.9	7.50879
2456.29	8.24405
2457.68	7.68491
2459.07	7.46993
2460.46	7.53127
2461.85	6.74289
2463.24	6.01744
2464.63	5.96183
2466.02	5.49119
2467.4	5.88542
2468.79	6.1746
2470.18	6.39192
2471.57	5.20096
2472.95	5.5972
2474.34	5.441
2475.73	5.21922
2477.12	5.17875
2478.5	5.8521
2479.89	6.51948
2481.27	6.4085
2482.66	6.0869
2484.04	6.16778
2485.43	6.59894
2486.81	6.66518
2488.2	7.30456
2489.58	6.96274
2490.97	6.76514
2492.35	7.42183
2493.73	7.19948
2495.12	7.26146
2496.5	7.64833
2497.88	7.43546
2499.27	7.27478
2500.65	6.99122
2502.03	7.19011
2503.41	7.12283
2504.79	6.73378
2506.17	7.0862
2507.56	7.37926
2508.94	7.32801
2510.32	6.88446
2511.7	6.8615
2513.08	7.45705
2514.46	7.30224
2515.84	7.27603
2517.22	7.21957
2518.59	7.25252
2519.97	7.83301
2521.35	7.55012
2522.73	7.42999
2524.11	6.56322
2525.49	6.74974
2526.86	6.15734
2528.24	5.55942
2529.62	5.30012
2530.99	5.0828
2532.37	4.95879
2533.75	4.88767
2535.12	4.07074
2536.5	3.86687
2537.88	3.14194
2539.25	1.97982
2540.63	1.1323
2542	1.21842
2543.38	0.696867
2544.75	0.590296
2546.12	0.19698
2547.5	0.468957
2548.87	0.714889
2550.24	0.530871
2551.62	0.666183
2552.99	0.756846
2554.36	1.49611
2555.74	0.935481
2557.11	0.674448
2558.48	0.0161869
2559.85	-0.119915
2561.22	-0.435594
2562.59	-0.30144
2563.96	0.5806
2565.34	0.592743
2566.71	1.09309
2568.08	1.34166
2569.45	1.35001
2570.82	2.3255
2572.18	2.28329
2573.55	2.02769
2574.92	1.8448
2576.29	1.85144
2577.66	2.17716
2579.03	2.78899
2580.4	4.13653
2581.77	4.02933
2583.13	3.77052
2584.5	4.00697
2585.87	4.01879
2587.23	4.1946
2588.6	4.45769
2589.97	4.0775
2591.33	4.51182
2592.7	4.49016
2594.06	4.68747
2595.43	4.37192
2596.79	3.83144
2598.16	4.14833
2599.52	4.30713
2600.89	4.02032
2602.25	4.11047
2603.62	3.78289
2604.98	4.26586
2606.34	3.53178
2607.71	3.23294
2609.07	3.3492
2610.43	3.93863
2611.79	3.60329
2613.16	3.86383
2614.52	4.23347
2615.88	4.6903
2617.24	5.1065
2618.6	5.46593
2619.96	5.43056
2621.32	5.42933
2622.68	5.94319
2624.04	5.55622
2625.4	6.32918
2626.76	6.70615
2628.12	7.75636
2629.48	8.38492
2630.84	8.76613
2632.2	8.82113
2633.56	8.51669
2634.92	9.15242
2636.28	9.10643
2637.63	8.72499
2638.99	9.41864
2640.35	8.91634
2641.71	9.20959
2643.06	8.96989
2644.42	9.51056
2645.77	9.85417
2647.13	10.1997
2648.49	10.2828
2649.84	9.25302
2651.2	9.58645
2652.55	10.0929
2653.91	10.0071
2655.26	9.94468
2656.62	9.48487
2657.97	8.55754
2659.33	8.66094
2660.68	8.37863
2662.03	8.53554
2663.39	8.41863
2664.74	8.29726
2666.09	7.94145
2667.44	8.41014
2668.8	8.73093
2670.15	8.85316
2671.5	8.68272
2672.85	8.90508
2674.2	8.19639
2675.55	8.39462
2676.91	8.66195
2678.26	8.72645
2679.61	8.39723
2680.96	9.16796
2682.31	9.25436
2683.66	9.22584
2685	9.66999
2686.35	10.5523
2687.7	10.6633
2689.05	11.1499
2690.4	11.4153
2691.75	11.3081
2693.1	11.883
2694.44	11.7357
2695.79	11.8026
2697.14	11.5115
2698.49	11.519
2699.83	11.7816
2701.18	11.9936
2702.52	12.1838
2703.87	11.8279
2705.22	11.3967
2706.56	12.055
2707.91	12.1039
2709.25	12.4669
2710.6	12.2167
2711.94	13.2161
2713.29	13.7095
2714.63	13.9599
2715.97	13.8072
2717.32	14.1991
2718.66	14.6172
2720.01	14.6475
2721.35	14.2032
2722.69	14.1894
2724.03	14.0016
2725.38	14.6075
2726.72	15.2255
2728.06	14.6966
2729.4	14.7827
2730.74	14.55
2732.08	14.5032
2733.42	14.2897
2734.76	14.4092
2736.1	13.9261
2737.44	13.8404
2738.78	13.624
2740.12	13.5073
2741.46	13.0726
2742.8	13.2767
2744.14	13.0136
2745.48	12.9277
2746.82	13.4032
2748.16	13.4123
2749.49	13.3119
2750.83	12.9992
2752.17	13.1592
2753.51	13.1505
2754.84	12.66
2756.18	12.0443
2757.52	11.7759
2758.85	11.6916
2760.19	11.0904
2761.53	10.2788
2762.86	10.249
2764.2	10.5839
2765.53	9.82415
2766.87	8.89423
2768.2	8.6217
2769.54	8.39668
2770.87	7.69113
2772.2	8.03107
2773.54	8.39682
2774.87	7.92328
2776.2	7.36556
2777.54	6.95258
2778.87	7.23303
2780.2	6.87612
2781.53	6.54495
2782.87	6.23211
2784.2	6.56441
2785.53	5.70683
2786.86	5.21004
2788.19	5.0696
2789.52	4.581
2790.85	3.7066
2792.18	2.87029
2793.51	1.89314
2794.84	1.54842
2796.17	1.45291
2797.5	0.671458
2798.83	-0.0253757
2800.16	-0.333419
2801.49	-0.707822
2802.82	-0.603389
2804.15	-0.560346
2805.47	-1.04658
2806.8	-0.582391
2808.13	-0.710053
2809.46	-0.572339
2810.78	-0.735956
2812.11	-0.462368
2813.44	-0.545155
2814.76	-0.651094
2816.09	-0.640647
2817.42	-0.297901
2818.74	0.387159
2820.07	1.37311
2821.39	2.60717
2822.72	4.07843
2824.04	5.81817
2825.37	7.84969
2826.69	10.2514
2828.02	12.9058
2829.34	16.4666
2830.66	19.3288
2831.99	21.5001
2833.31	24.502
2834.63	27.831
2835.96	31.1001
2837.28	34.7161
2838.6	38.5655
2839.92	41.5729
2841.24	45.0066
2842.57	48.962
2843.89	53.233
2845.21	57.7248
2846.53	62.3861
2847.85	67.465
2849.17	72.8818
2850.49	77.7897
2851.81	82.818
2853.13	88.6021
2854.45	94.0191
2855.77	98.9339
2857.09	104.064
2858.41	109.623
2859.72	115.262
2861.04	120.726
2862.36	125.447
2863.68	130.051
2865	134.636
2866.31	139.091
2867.63	142.746
2868.95	147.132
2870.26	151.01
2871.58	154.597
2872.9	158.028
2874.21	160.794
2875.53	163.06
2876.84	165.659
2878.16	167.938
2879.47	169.814
2880.79	172.006
2882.1	173.671
2883.42	176.791
2884.73	179.133
2886.05	181.432
2887.36	183.767
2888.67	186.324
2889.99	188.497
2891.3	191.365
2892.61	194.339
2893.92	196.691
2895.24	200.144
2896.55	201.848
2897.86	205.148
2899.17	208.347
2900.48	212.338
2901.79	216.647
2903.11	220.94
2904.42	225.621
2905.73	230.72
2907.04	236.061
2908.35	242.61
2909.66	248.967
2910.97	255.9
2912.27	263.036
2913.58	269.53
2914.89	276.554
2916.2	282.925
2917.51	290.053
2918.82	295.787
2920.13	301.495
2921.43	307.158
2922.74	312.587
2924.05	316.87
2925.35	320.828
2926.66	323.917
2927.97	326.63
2929.27	328.72
2930.58	330.673
2931.89	331.914
2933.19	332.548
2934.5	333.792
2935.8	333.014
2937.11	331.778
2938.41	330.017
2939.72	327.192
2941.02	323.85
2942.32	320.483
2943.63	315.902
2944.93	311.643
2946.24	307.159
2947.54	302.768
2948.84	297.786
2950.14	292.033
2951.45	286.481
2952.75	280.969
2954.05	275.103
2955.35	268.578
2956.65	263.016
2957.95	256.616
2959.26	250.068
2960.56	244.01
2961.86	237.663
2963.16	232.075
2964.46	225.677
2965.76	219.582
2967.06	213.42
2968.36	207.375
2969.66	201.694
2970.96	195.61
2972.25	190.199
2973.55	185.244
2974.85	179.186
2976.15	173.693
2977.45	167.932
2978.74	162.236
2980.04	156.902
2981.34	150.744
2982.64	144.484
2983.93	138.354
2985.23	132.559
2986.52	126.283
2987.82	119.999
2989.12	113.681
2990.41	107.93
2991.71	102.397
2993	97.1206
2994.3	91.5497
2995.59	86.5589
2996.89	81.147
2998.18	76.738
2999.48	72.429
3000.77	67.2427
3002.06	62.6225
3003.36	57.9255
3004.65	53.5215
3005.94	49.7603
3007.23	46.1563
3008.53	42.8516
3009.82	40.5382
3011.11	38.2165
3012.4	35.5833
3013.69	33.1008
3014.99	31.3231
3016.28	28.7068
3017.57	26.1383
3018.86	23.9296
3020.15	22.0657
3021.44	20.6399
3022.73	18.4392
3024.02	17.4064
3025.31	15.7953
3026.6	14.3531
3027.89	13.2681
3029.18	12.5774
3030.46	12.239
3031.75	11.7987
3033.04	11.6076
3034.33	11.5575
3035.62	11.45
3036.9	12.1855
3038.19	12.4901
3039.48	12.5307
3040.76	12.8093
3042.05	12.701
3043.34	12.9486
3044.62	12.9555
3045.91	13.2913
3047.19	13.2172
3048.48	13.8479
3049.77	13.8606
3051.05	14.8695
3052.34	14.8468
3053.62	15.4104
3054.9	15.4155
3056.19	15.6708
3057.47	15.8852
3058.76	15.8825
3060.04	16.188
3061.32	15.8716
3062.61	15.9466
3063.89	15.5656
3065.17	15.0322
3066.45	14.4913
3067.74	13.9429
3069.02	13.5756
3070.3	13.2128
3071.58	12.587
3072.86	12.1548
3074.14	11.9136
3075.42	11.6182
3076.7	10.3611
3077.99	9.4841
3079.26	7.79334
3080.54	6.23833
3081.82	5.41712
3083.1	4.74197
3084.38	3.87114
3085.66	2.8951
3086.94	1.85473
3088.22	1.6075
3089.5	0.849435
3090.78	0.445497
3092.05	0.543165
3093.33	0.209554
3094.61	0.246115
3095.89	-0.280674
3097.16	-0.124957
3098.44	-0.279678
3099.72	-0.361289
3100.99	-0.214236
3102.27	-0.567874
3103.54	-0.481056
3104.82	-0.79222
3106.1	-0.625214
3107.37	0.0310798
3108.65	0.38049
3109.92	0.692151
3111.2	1.01869
3112.47	1.8789
3113.74	1.70677
3115.02	1.97249
3116.29	1.61925
3117.56	2.26368
3118.84	2.43081
3120.11	2.87842
3121.38	3.47212
3122.66	3.39018
3123.93	3.6162
3125.2	3.86996
3126.47	4.29804
3127.74	4.86447
3129.01	5.13591
3130.29	5.49755
3131.56	5.70572
3132.83	6.14468
3134.1	6.79806
3135.37	7.29014
3136.64	8.19298
3137.91	8.66302
3139.18	9.10306
3140.45	9.08463
3141.72	9.74635
3142.99	10.5771
3144.26	11.4864
3145.52	12.3187
3146.79	13.019
3148.06	14.472
3149.33	15.5562
