#Acq. time (s)=	45
#Accumulations=	2
#Range (cm-¹)=	200...3150
#Windows=	2
#Auto scanning=	Off
#Autofocus=	Off
#Macrospot=	Off
#AutoExposure=	Off
#Spike filter=	Multiple accum.
#Delay time (s)=	0
#Binning=	1
#Readout mode=	Signal
#DeNoise=	Off
#ICS correction=	On
#Dark correction=	Off
#Inst. Process=	Off
#Detector Gain=	Best Dynamic Range
#Detector ADC=	20 kHz       
#Detector temperature (°C)=	-69.85
#Instrument=	LabRAM HR Evol
#Detector=	Synapse
#Objective=	x100
#Grating=	600 gr/mm
#ND Filter=	100%
#Laser (nm)=	532 
#Hole=	100.021
#Range=	Auto
#Laser Pol.=	No
#Raman. Pol.=	No
#Laser Pol. (°)=	-0.0007625
#Raman Pol. (°)=	89.9995
#Collection=	Microscope
#StageXY=	Marzhauser
#StageZ=	Marzhauser
#X (µm)=	-2356.6
#Y (µm)=	255
#Z (µm)=	521.65
#Full time(mm:ss)=	3:18
#Project=	
#Sample=	
#Site=	
#Title=	Thy_10_08_48_2x_45s_532 nm_x100_100%_600 gr_mm
#Remark=	
#Date=	06.07.2022 15:18
#Acquired=	06.07.2022 15:18:45
#Base:Fit=	10.08.2022 09:46:25
#Base:Sub=	10.08.2022 09:46:49
#Filter:Polynom=	16.08.2022 10:24:56
#AxisType[0]=Intens
#AxisUnit[0]=Cnt
#AxisType[1]=Spectr
#AxisUnit[1]=1/cm
200.398	2.36895
202.213	2.08708
204.027	2.20991
205.843	2.06907
207.657	2.36016
209.47	2.87019
211.283	3.40878
213.097	3.62695
214.909	3.70179
216.721	3.7227
218.533	3.4068
220.344	2.99993
222.157	3.27458
223.967	2.41496
225.777	2.84343
227.587	3.33532
229.396	3.26574
231.205	3.7914
233.016	3.71181
234.824	3.64147
236.632	4.13858
238.439	3.4625
240.247	3.08538
242.053	2.59055
243.86	3.04523
245.666	2.85075
247.474	3.17151
249.279	2.43821
251.085	2.11726
252.889	2.06479
254.694	1.98549
256.498	2.03808
258.301	2.24663
260.105	2.19338
261.908	1.60286
263.71	1.85613
265.513	2.62335
267.315	2.29773
269.116	2.6041
270.918	3.44158
272.718	2.98979
274.519	2.98976
276.319	3.63616
278.119	5.04708
279.918	4.9642
281.718	5.16307
283.516	5.1137
285.315	4.95982
287.113	5.12805
288.911	6.09726
290.708	6.47885
292.505	7.00266
294.302	7.06514
296.098	7.4908
297.894	7.75195
299.69	7.72601
301.485	7.80925
303.278	7.74372
305.073	8.05186
306.867	7.96267
308.661	8.51455
310.454	8.88355
312.247	9.29751
314.04	9.09635
315.833	9.56813
317.623	9.05265
319.415	8.8112
321.206	8.98648
322.997	8.54646
324.788	7.91622
326.579	8.04237
328.367	7.28955
330.156	7.4826
331.946	8.25398
333.735	9.46387
335.523	9.46631
337.31	10.315
339.098	9.65326
340.885	9.90279
342.673	9.75974
344.458	9.85788
346.244	10.2439
348.03	9.92538
349.816	9.65473
351.6	9.67953
353.385	9.66152
355.17	9.89923
356.953	9.5172
358.737	10.0419
360.521	10.7617
362.304	10.6102
364.085	11.1638
365.868	11.5796
367.65	11.7718
369.431	10.678
371.212	10.5389
372.994	10.5087
374.773	9.83959
376.554	10.1595
378.332	9.34471
380.112	9.01532
381.892	9.44204
383.669	9.25475
385.448	9.38116
387.225	9.36463
389.003	8.95986
390.781	9.89897
392.557	9.46574
394.334	9.72109
396.109	9.62787
397.885	9.27723
399.66	9.27885
401.436	8.70419
403.211	8.8882
404.984	8.31637
406.759	8.28326
408.532	9.26077
410.306	9.21286
412.078	8.81474
413.851	9.07333
415.623	10.2746
417.395	10.6093
419.166	10.8159
420.938	12.0137
422.708	12.127
424.477	11.4222
426.248	10.8739
428.017	9.64802
429.788	9.1214
431.556	8.6864
433.326	8.39161
435.093	8.24799
436.86	7.1292
438.629	6.97143
440.395	6.73744
442.163	7.60989
443.929	7.4305
445.694	7.72768
447.461	7.47304
449.226	7.34568
450.99	7.55773
452.756	6.8221
454.52	7.24787
456.285	7.19689
458.048	6.98433
459.811	6.60183
461.573	7.32112
463.337	8.36713
465.099	8.74731
466.86	8.59687
468.623	9.19829
470.384	9.62656
472.144	9.79189
473.906	10.2609
475.666	11.2959
477.425	12.311
479.184	13.1023
480.944	12.9327
482.703	13.7125
484.461	13.9709
486.218	14.8474
487.975	15.367
489.734	15.0029
491.491	15.8025
493.247	16.1442
495.003	16.9247
496.759	17.9364
498.516	17.686
500.271	18.0908
502.025	18.3361
503.779	19.0301
505.533	19.1874
507.287	19.7726
509.042	20.3112
510.795	19.5596
512.547	19.1854
514.299	19.098
516.051	19.1207
517.803	19.1151
519.554	19.5195
521.305	19.5731
523.055	20.2833
524.805	20.7132
526.555	21.1497
528.307	21.9609
530.056	22.8945
531.805	22.4099
533.553	22.0251
535.301	22.3052
537.049	22.2236
538.797	22.2375
540.544	22.0571
542.291	22.9169
544.037	23.0847
545.783	23.2766
547.529	23.3931
549.275	23.9876
551.02	23.7945
552.765	22.8205
554.509	23.2414
556.253	23.0475
557.997	22.4893
559.738	21.7118
561.482	20.6515
563.224	20.2315
564.967	18.6209
566.709	17.7622
568.451	16.703
570.192	16.0687
571.933	14.2244
573.674	13.3006
575.415	11.9878
577.153	11.7374
578.893	11.4347
580.632	10.835
582.371	10.1549
584.11	9.38825
585.849	8.67938
587.587	7.73909
589.323	7.08974
591.06	6.84237
592.797	6.06519
594.534	6.09563
596.271	4.08973
598.005	3.30656
599.741	2.88686
601.476	2.22589
603.211	2.63828
604.944	2.5756
606.679	2.83491
608.413	2.66944
610.147	3.03452
611.878	2.94571
613.611	3.26572
615.344	3.34085
617.077	3.58381
618.807	3.41052
620.539	4.2896
622.27	4.91712
623.999	5.98966
625.73	7.35647
627.461	8.16981
629.189	8.61067
630.919	9.87478
632.648	10.7035
634.376	11.3052
636.105	12.352
637.833	12.5713
639.559	13.2179
641.287	13.875
643.013	13.3334
644.74	13.5617
646.467	14.1789
648.192	14.9164
649.918	15.0484
651.642	15.0973
653.368	15.5955
655.091	15.8581
656.816	16.0655
658.538	16.5276
660.263	17.2278
661.987	18.5271
663.708	18.7424
665.432	18.9889
667.153	19.1213
668.875	18.9776
670.596	19.2703
672.318	20.1992
674.037	19.8893
675.759	20.5935
677.478	20.7197
679.196	21.5468
680.917	21.7868
682.635	21.3303
684.355	22.5371
686.072	22.8479
687.791	23.9639
689.508	24.1272
691.224	25.4105
692.942	27.1636
694.658	28.5002
696.376	30.1616
698.091	31.7469
699.805	33.8152
701.522	34.0584
703.236	35.8267
704.95	36.3544
706.665	36.397
708.379	37.0899
710.093	38.5484
711.806	39.5774
713.518	40.5758
715.23	41.6782
716.943	43.5419
718.655	43.5656
720.366	44.242
722.078	44.4446
723.788	44.9576
725.498	45.7997
727.208	46.1206
728.919	46.5461
730.628	45.9419
732.337	46.6482
734.045	46.5903
735.755	46.8165
737.463	47.2228
739.17	48.7924
740.877	49.8688
742.584	49.9308
744.292	51.2203
745.998	52.0182
747.704	53.9692
749.409	54.4818
751.114	55.8262
752.819	57.4416
754.526	58.5873
756.23	59.9321
757.934	60.8408
759.637	61.3299
761.34	62.742
763.043	63.206
764.746	64.1552
766.448	65.0897
768.152	66.4407
769.853	67.48
771.554	68.8831
773.255	70.344
774.956	71.3074
776.656	73.8979
778.356	75.3228
780.056	75.2309
781.755	75.5442
783.454	76.8475
785.153	77.1544
786.851	76.8513
788.549	76.9177
790.247	76.9211
791.944	77.4637
793.641	79.7211
795.338	81.5136
797.034	82.9118
798.73	83.4216
800.426	82.9581
802.121	83.5207
803.817	82.7738
805.511	83.1848
807.206	83.766
808.9	84.3349
810.592	84.3805
812.286	83.7888
813.979	83.8382
815.672	83.8198
817.364	85.2543
819.057	84.9725
820.748	85.3992
822.44	85.9139
824.129	86.5237
825.82	86.0711
827.511	86.1943
829.201	86.8172
830.891	87.041
832.581	87.4518
834.269	86.1664
835.958	84.9081
837.646	83.9583
839.335	82.1254
841.023	81.7041
842.709	81.4288
844.396	80.0336
846.084	78.6146
847.77	76.5423
849.455	76.2647
851.141	75.3812
852.827	73.6333
854.513	72.7592
856.196	71.6118
857.881	69.9792
859.566	67.841
861.248	66.9081
862.932	66.5473
864.616	64.7277
866.297	64.4923
867.98	64.4206
869.663	62.8737
871.343	62.3691
873.026	62.2073
874.707	62.8472
876.387	62.5385
878.068	62.7523
879.747	62.7879
881.428	62.3138
883.108	62.1686
884.786	61.8164
886.465	61.9343
888.143	62.1102
889.822	62.7829
891.498	62.7964
893.177	62.2483
894.855	62.079
896.53	61.3499
898.208	61.8081
899.883	62.4824
901.56	62.5642
903.234	61.4659
904.91	62.8671
906.584	63.0315
908.26	62.9767
909.933	62.9338
911.608	62.7044
913.28	62.1281
914.955	61.336
916.627	60.3812
918.298	59.0771
919.972	59.0178
921.643	58.8647
923.315	58.5822
924.986	58.5566
926.656	57.822
928.328	56.5328
929.997	55.3688
931.668	55.1669
933.337	55.2933
935.006	53.8359
936.676	53.3852
938.344	53.1979
940.012	51.7159
941.681	50.5686
943.348	49.2022
945.014	48.7211
946.683	47.7019
948.349	47.197
950.015	46.4606
951.682	45.7556
953.347	44.6659
955.012	43.3258
956.676	41.4334
958.343	40.0609
960.006	38.5442
961.67	37.7714
963.333	38.1209
964.998	38.6414
966.661	38.9135
968.323	38.806
969.985	38.5708
971.649	38.4159
973.31	38.2985
974.971	37.9081
976.632	38.8071
978.293	39.0619
979.953	39.4043
981.615	39.7782
983.274	39.7765
984.933	38.6573
986.592	37.6522
988.251	38.8876
989.909	38.1229
991.567	37.2669
993.225	36.4978
994.884	35.0127
996.541	34.5989
998.198	34.317
999.855	33.7434
1001.51	33.4993
1003.17	32.8629
1004.82	32.472
1006.48	31.9935
1008.13	31.8337
1009.79	32.4281
1011.44	32.4384
1013.1	32.312
1014.75	32.5478
1016.4	32.4654
1018.06	31.7831
1019.71	31.0032
1021.36	30.0715
1023.01	29.0744
1024.66	28.6445
1026.32	27.321
1027.97	26.1614
1029.62	25.9928
1031.27	25.533
1032.92	23.3651
1034.57	22.1436
1036.22	21.1037
1037.87	19.9706
1039.52	19.6856
1041.16	20.2664
1042.81	20.9469
1044.46	21.6772
1046.11	23.1103
1047.76	22.9342
1049.4	22.3033
1051.05	22.0185
1052.7	21.3467
1054.34	21.6594
1055.99	22.3814
1057.63	21.8336
1059.28	22.4244
1060.92	22.1651
1062.57	21.88
1064.21	20.6545
1065.85	20.7412
1067.5	20.157
1069.14	19.7448
1070.78	20.0256
1072.43	19.4158
1074.07	18.6328
1075.71	18.4385
1077.35	17.6792
1078.99	18.0041
1080.63	17.7392
1082.27	17.2863
1083.91	17.8023
1085.55	17.1638
1087.19	17.9193
1088.83	18.0303
1090.47	18.8328
1092.11	18.8544
1093.75	18.2092
1095.39	17.4872
1097.03	16.3952
1098.66	16.5073
1100.3	15.5318
1101.94	15.4685
1103.57	15.4118
1105.21	15.0461
1106.84	15.3227
1108.48	14.728
1110.11	14.6026
1111.75	13.945
1113.38	13.1324
1115.02	12.7982
1116.65	12.7262
1118.29	12.4586
1119.92	12.0049
1121.55	11.7573
1123.19	11.9489
1124.82	11.321
1126.45	10.597
1128.08	10.7048
1129.71	9.63493
1131.34	9.05657
1132.97	8.20572
1134.6	8.11812
1136.23	8.20951
1137.86	8.14255
1139.49	7.74428
1141.12	8.01945
1142.75	7.54546
1144.38	7.27761
1146.01	6.8073
1147.64	7.15816
1149.26	6.61561
1150.89	5.99001
1152.52	5.79789
1154.15	5.76053
1155.77	4.72518
1157.4	3.985
1159.02	3.25604
1160.65	2.57668
1162.27	2.54779
1163.9	2.02119
1165.52	1.79733
1167.15	1.77907
1168.77	2.47262
1170.39	1.7107
1172.02	1.96357
1173.64	2.33283
1175.26	2.22811
1176.89	2.62199
1178.51	2.75173
1180.13	4.29605
1181.75	3.99684
1183.37	4.14699
1184.99	3.84483
1186.61	4.71439
1188.23	6.09209
1189.85	6.46201
1191.47	6.20124
1193.09	6.32547
1194.71	7.64235
1196.33	8.58467
1197.94	8.90813
1199.56	9.485
1201.18	10.7147
1202.8	11.4589
1204.41	13.014
1206.03	13.2494
1207.65	14.8871
1209.26	16.2628
1210.88	16.7481
1212.49	18.4394
1214.11	20.2733
1215.72	22.1702
1217.34	24.0174
1218.95	26.0259
1220.57	27.4007
1222.18	29.1109
1223.79	30.9605
1225.41	33.0417
1227.02	35.2332
1228.63	36.5959
1230.24	37.9526
1231.85	38.3165
1233.47	38.6351
1235.08	39.947
1236.69	40.6378
1238.3	41.8525
1239.91	42.9498
1241.52	43.46
1243.13	44.8615
1244.74	45.395
1246.34	46.114
1247.95	47.2831
1249.56	47.0211
1251.17	47.0235
1252.78	47.4965
1254.38	46.9377
1255.99	46.2419
1257.6	46.1859
1259.2	45.6585
1260.81	45.3404
1262.42	44.3884
1264.02	44.3294
1265.63	45.1881
1267.23	45.6081
1268.84	45.7319
1270.44	45.6944
1272.04	44.7964
1273.65	44.9484
1275.25	45.3023
1276.85	45.2571
1278.46	45.3433
1280.06	46.2174
1281.66	47.1094
1283.26	47.7725
1284.86	48.018
1286.46	48.0688
1288.07	49.6995
1289.67	50.4611
1291.27	50.9463
1292.87	52.0559
1294.47	52.9957
1296.06	53.5531
1297.66	54.2587
1299.26	54.6184
1300.86	55.5888
1302.46	57.212
1304.06	58.2514
1305.65	59.7128
1307.25	60.3012
1308.85	59.7644
1310.44	60.285
1312.04	60.3773
1313.64	61.899
1315.23	63.475
1316.83	64.2358
1318.42	65.1924
1320.02	64.6308
1321.61	64.9434
1323.2	65.2411
1324.8	64.692
1326.39	65.0039
1327.99	64.4703
1329.58	62.8068
1331.17	62.7303
1332.76	61.7715
1334.36	61.5994
1335.95	60.4625
1337.54	59.4262
1339.13	58.1035
1340.72	57.2245
1342.31	56.6982
1343.9	55.7125
1345.49	53.9761
1347.08	52.4337
1348.67	51.5928
1350.26	51.0018
1351.85	49.3087
1353.43	48.8156
1355.02	47.276
1356.61	45.9079
1358.2	44.8272
1359.78	43.4478
1361.37	41.195
1362.96	39.584
1364.54	38.309
1366.13	37.1779
1367.71	35.7551
1369.3	33.3424
1370.88	31.9399
1372.47	30.6521
1374.05	30.2211
1375.64	28.7105
1377.22	27.3408
1378.8	27.4507
1380.39	26.948
1381.97	26.1828
1383.55	25.8241
1385.13	25.6679
1386.72	25.0143
1388.3	25.1355
1389.88	25.28
1391.46	25.6612
1393.04	25.3125
1394.62	25.002
1396.2	23.594
1397.78	22.5898
1399.36	22.2543
1400.94	22.9594
1402.52	22.0681
1404.1	22.1429
1405.68	22.8364
1407.25	23.3328
1408.83	24.3027
1410.41	25.6658
1411.98	25.8313
1413.56	27.3473
1415.14	27.6619
1416.71	29.9385
1418.29	31.7213
1419.87	34.3223
1421.44	37.7375
1423.02	40.0988
1424.59	42.1448
1426.16	45.6425
1427.74	49.1716
1429.31	52.1563
1430.89	54.6377
1432.46	56.693
1434.03	58.0883
1435.6	60.3234
1437.18	62.2726
1438.75	63.0252
1440.32	64.0148
1441.89	65.705
1443.46	66.8567
1445.03	66.9352
1446.6	67.5083
1448.17	67.6188
1449.74	68.1117
1451.31	67.9838
1452.88	68.0938
1454.45	67.1777
1456.02	66.5177
1457.59	66.0382
1459.16	63.4388
1460.72	61.1532
1462.29	59.8675
1463.86	57.2599
1465.43	55.3338
1466.99	52.4339
1468.56	49.6404
1470.13	46.8426
1471.69	43.0487
1473.26	40.0053
1474.82	35.6992
1476.38	33.4474
1477.95	31.0622
1479.51	27.7644
1481.08	25.1397
1482.64	23.554
1484.2	21.597
1485.77	20.0559
1487.33	18.2977
1488.89	16.1532
1490.46	14.3771
1492.02	13.8102
1493.58	12.7678
1495.14	12.1478
1496.7	11.278
1498.26	11.3461
1499.82	11.5492
1501.38	10.2008
1502.94	9.64952
1504.5	10.2208
1506.06	10.1464
1507.62	9.3237
1509.18	8.48464
1510.73	7.90036
1512.29	7.19747
1513.85	6.77951
1515.41	6.63695
1516.96	6.50067
1518.52	6.67066
1520.08	7.44075
1521.63	7.40264
1523.19	7.25672
1524.75	7.25068
1526.3	7.07766
1527.85	7.73331
1529.41	8.06049
1530.96	8.26897
1532.52	8.39466
1534.07	8.69317
1535.62	8.41108
1537.18	8.50138
1538.73	9.99024
1540.28	11.236
1541.84	12.0439
1543.39	13.3878
1544.94	14.3721
1546.49	16.4218
1548.04	17.8014
1549.59	19.5057
1551.14	20.2075
1552.69	21.83
1554.25	23.4325
1555.79	24.5904
1557.34	26.0994
1558.89	27.7978
1560.44	29.0349
1561.99	29.8962
1563.54	30.3195
1565.08	31.1656
1566.63	31.5504
1568.18	33.7792
1569.73	35.7724
1571.27	37.2466
1572.82	38.9704
1574.37	40.7649
1575.91	42.2573
1577.46	43.8409
1579	45.2305
1580.55	46.4569
1582.09	47.2961
1583.64	48.5573
1585.18	49.5267
1586.73	50.2601
1588.27	50.8964
1589.81	51.2759
1591.35	52.2971
1592.9	52.7783
1594.44	52.7587
1595.98	52.1898
1597.52	52.6373
1599.06	52.7444
1600.61	52.0622
1602.15	51.5043
1603.69	51.274
1605.23	51.4005
1606.77	50.7945
1608.31	51.0318
1609.85	51.6125
1611.39	50.904
1612.93	50.2494
1614.46	50.4949
1616	50.6639
1617.54	51.2095
1619.08	52.504
1620.61	54.089
1622.15	54.7184
1623.69	55.2754
1625.23	55.2039
1626.76	55.2284
1628.3	55.1661
1629.83	56.3365
1631.37	56.9637
1632.9	57.6494
1634.44	58.6482
1635.97	59.4951
1637.51	60.03
1639.04	60.7933
1640.57	61.7823
1642.11	64.2404
1643.64	65.2398
1645.17	66.9717
1646.71	66.9756
1648.24	68.3779
1649.77	69.7921
1651.3	70.7197
1652.83	71.7001
1654.36	72.7841
1655.89	72.6603
1657.42	72.7281
1658.96	72.8976
1660.48	73.6631
1662.01	72.9078
1663.54	72.2693
1665.07	70.9664
1666.6	69.9198
1668.13	68.4074
1669.66	66.6177
1671.19	65.6579
1672.71	63.8727
1674.24	62.7107
1675.77	60.199
1677.29	57.3012
1678.82	55.4907
1680.35	53.5058
1681.87	51.4046
1683.4	48.7794
1684.92	46.4937
1686.45	43.7295
1687.97	40.2028
1689.5	38.4854
1691.02	36.0939
1692.54	34.2753
1694.07	31.8142
1695.59	29.7713
1697.11	27.7912
1698.64	25.6295
1700.16	23.7763
1701.68	21.7597
1703.2	19.8728
1704.72	18.8
1706.25	16.9961
1707.77	15.5538
1709.29	13.6926
1710.81	12.5048
1712.33	11.1038
1713.85	9.46934
1715.37	8.56122
1716.89	7.6294
1718.41	6.96725
1719.92	5.71132
1721.44	5.73857
1722.96	5.53499
1724.48	6.15127
1725.99	5.47437
1727.51	5.26981
1729.03	4.90403
1730.55	4.63978
1732.06	4.39479
1733.58	4.63644
1735.09	4.90546
1736.61	5.10952
1738.13	4.83606
1739.64	4.20588
1741.15	4.23379
1742.67	4.13896
1744.18	4.21466
1745.7	4.30148
1747.21	4.06319
1748.72	3.41557
1750.24	3.32043
1751.75	3.06659
1753.26	3.05735
1754.77	3.35393
1756.29	2.99927
1757.8	2.78435
1759.31	2.19955
1760.82	1.44038
1762.33	1.17387
1763.84	0.918171
1765.35	1.09827
1766.86	0.472454
1768.37	0.522628
1769.88	0.171633
1771.39	1.17582
1772.9	0.589721
1774.4	0.0358477
1775.91	-0.686362
1777.42	-0.763956
1778.93	-0.911731
1780.44	-0.695551
1781.94	-0.956545
1783.45	-0.601287
1784.96	-0.92568
1786.46	-0.681162
1787.97	-0.963649
1789.47	-1.39765
1790.98	-1.11304
1792.48	-1.11785
1793.99	-0.928369
1795.49	-0.798042
1797	-0.533141
1798.5	-0.231585
1800.01	-0.226702
1801.51	-0.450153
1803.01	0.101012
1804.51	0.169855
1806.02	0.790066
1807.52	1.02998
1809.02	0.997501
1810.52	1.20433
1812.02	0.843221
1813.52	0.692349
1815.02	0.207318
1816.53	0.114007
1818.03	-0.375772
1819.52	-0.157068
1821.02	-0.290083
1822.52	-0.00894085
1824.02	0.317494
1825.52	0.313657
1827.02	-0.117612
1828.52	-0.150111
1830.02	0.148293
1831.51	-0.0195223
1833.01	-0.0990338
1834.51	-0.30436
1836.01	-0.375474
1837.5	0.700953
1839	0.961841
1840.49	0.828443
1841.99	0.912669
1843.49	1.31864
1844.98	1.4274
1846.48	1.47761
1847.97	1.22373
1849.47	1.47127
1850.96	1.87634
1852.45	2.73836
1853.95	2.86635
1855.44	3.4043
1856.93	3.64606
1858.42	3.87611
1859.92	3.65412
1861.41	3.52616
1862.9	3.23554
1864.39	3.43924
1865.88	3.72045
1867.38	3.55581
1868.87	3.65194
1870.36	3.89486
1871.85	4.13053
1873.34	4.16422
1874.83	4.28393
1876.32	4.06547
1877.81	4.35512
1879.29	4.88051
1880.78	4.99251
1882.27	4.7174
1882.53	4.81174
1884.03	5.15898
1885.52	5.41452
1887.01	6.25914
1888.51	6.01978
1890	6.77299
1891.5	7.39162
1892.99	7.8476
1894.48	7.97434
1895.97	8.39932
1897.47	8.49196
1898.96	8.59847
1900.45	8.6332
1901.94	9.25699
1903.43	9.40103
1904.92	9.29909
1906.41	9.02182
1907.9	8.95191
1909.39	9.21533
1910.88	9.9525
1912.37	9.57858
1913.86	9.73504
1915.35	9.79593
1916.84	9.81858
1918.33	9.63757
1919.81	9.5734
1921.3	10.0226
1922.79	9.95207
1924.28	10.8126
1925.76	10.8578
1927.25	9.95773
1928.73	10.3466
1930.22	10.308
1931.71	9.74046
1933.19	9.20952
1934.68	8.77294
1936.16	9.10214
1937.65	8.80235
1939.13	9.33982
1940.62	9.30951
1942.1	9.41845
1943.58	10.0395
1945.07	10.399
1946.55	10.0821
1948.03	9.95958
1949.51	9.62154
1951	10.1777
1952.48	10.3268
1953.96	10.5623
1955.44	10.8902
1956.92	11.1563
1958.4	11.1061
1959.88	11.2366
1961.36	11.5915
1962.84	11.1557
1964.32	11.9111
1965.8	11.1617
1967.28	11.0023
1968.76	11.0076
1970.24	11.0968
1971.72	10.6669
1973.2	10.3829
1974.67	9.86395
1976.15	9.24528
1977.63	8.95302
1979.1	8.26722
1980.58	8.3243
1982.06	8.278
1983.54	8.39029
1985.01	8.78419
1986.49	8.65511
1987.96	8.56335
1989.44	8.5229
1990.91	8.60033
1992.39	8.62729
1993.86	8.40522
1995.33	9.10839
1996.81	9.58947
1998.28	10.6972
1999.75	10.519
2001.23	10.9819
2002.7	11.7793
2004.17	12.1142
2005.65	12.2599
2007.12	13.1444
2008.59	13.4465
2010.06	13.5804
2011.53	14.1975
2013	14.3036
2014.47	13.6805
2015.94	13.4739
2017.41	13.6564
2018.88	13.2716
2020.35	12.5192
2021.82	12.4746
2023.29	12.8418
2024.76	13.0178
2026.23	13.3268
2027.69	13.8583
2029.16	14.1352
2030.63	14.5662
2032.1	14.9774
2033.56	15.1963
2035.03	15.2324
2036.5	14.688
2037.96	14.7661
2039.43	14.5904
2040.89	14.7083
2042.36	15.1464
2043.83	14.9638
2045.29	14.6134
2046.75	15.2865
2048.22	15.1663
2049.68	14.9522
2051.15	14.6424
2052.61	14.3271
2054.07	15.0428
2055.54	15.0326
2057	14.9757
2058.46	15.5497
2059.92	15.3296
2061.39	15.9302
2062.85	16.0911
2064.31	16.8385
2065.77	17.2996
2067.23	18.0147
2068.69	18.8889
2070.15	19.4914
2071.61	20.3663
2073.07	19.8467
2074.53	20.5435
2075.99	20.7106
2077.45	20.5562
2078.91	20.3304
2080.37	20.1096
2081.82	19.4062
2083.28	19.6104
2084.74	19.7373
2086.2	19.2012
2087.65	19.3362
2089.11	19.7984
2090.57	20.3367
2092.02	20.4218
2093.48	20.7404
2094.94	21.1396
2096.39	21.7582
2097.85	22.3071
2099.3	22.7945
2100.76	23.0971
2102.21	23.3828
2103.66	23.6027
2105.12	23.497
2106.57	23.6142
2108.03	24.1816
2109.48	24.8279
2110.93	25.2146
2112.38	25.0713
2113.84	24.8398
2115.29	24.8218
2116.74	24.8612
2118.19	24.6252
2119.64	25.5853
2121.09	25.4385
2122.54	25.5799
2123.99	25.9534
2125.45	26.4342
2126.89	27.4146
2128.34	27.7824
2129.79	28.0501
2131.24	28.7661
2132.69	28.9041
2134.14	29.1728
2135.59	29.8113
2137.04	30.3736
2138.48	30.0781
2139.93	30.8942
2141.38	30.9477
2142.83	31.1797
2144.27	31.3236
2145.72	31.16
2147.17	31.805
2148.61	31.2523
2150.06	31.9332
2151.5	32.5705
2152.95	33.2421
2154.39	33.6257
2155.84	34.4712
2157.28	34.5487
2158.73	35.2301
2160.17	35.7069
2161.61	36.3303
2163.06	36.034
2164.5	36.6631
2165.94	37.7068
2167.38	38.0132
2168.83	38.3941
2170.27	38.6505
2171.71	38.9567
2173.15	39.8258
2174.59	40.6338
2176.03	41.0745
2177.47	41.7721
2178.91	42.2196
2180.36	42.6435
2181.8	42.5377
2183.23	41.9651
2184.67	41.8752
2186.11	41.7847
2187.55	42.2082
2188.99	42.5092
2190.43	42.3678
2191.87	42.9513
2193.3	42.3191
2194.74	41.8438
2196.18	41.7264
2197.62	40.8388
2199.05	40.2707
2200.49	39.1601
2201.93	38.3799
2203.36	37.6295
2204.8	36.746
2206.23	36.46
2207.67	36.2254
2209.1	35.1632
2210.54	35.0009
2211.97	34.7879
2213.41	33.9753
2214.84	32.8968
2216.27	32.4697
2217.71	31.85
2219.14	31.0452
2220.57	30.0396
2222.01	30.1147
2223.44	29.1625
2224.87	28.8622
2226.3	28.2621
2227.73	27.5415
2229.16	26.7288
2230.6	26.7195
2232.03	26.5691
2233.46	25.9855
2234.89	25.6107
2236.32	25.9467
2237.75	24.9942
2239.18	23.8807
2240.61	23.3226
2242.03	23.5485
2243.46	24.1073
2244.89	24.2002
2246.32	23.9197
2247.75	23.4909
2249.17	23.6771
2250.6	23.0994
2252.03	22.6835
2253.46	21.9029
2254.88	21.7442
2256.31	21.5123
2257.73	21.8892
2259.16	22.4069
2260.59	22.1442
2262.01	21.8649
2263.44	21.6246
2264.86	21.323
2266.29	21.2771
2267.71	21.5039
2269.14	21.0054
2270.56	20.5222
2271.98	20.3445
2273.4	20.2097
2274.83	19.7337
2276.25	19.7863
2277.67	20.2779
2279.09	20.653
2280.52	20.8791
2281.94	20.7684
2283.36	20.8041
2284.78	20.8675
2286.2	20.4362
2287.62	20.5578
2289.04	19.9462
2290.46	19.8382
2291.88	19.4107
2293.3	19.4716
2294.72	19.602
2296.14	20.6627
2297.56	21.0203
2298.98	21.1335
2300.4	21.3882
2301.82	21.9558
2303.23	21.6739
2304.65	21.1581
2306.07	20.6733
2307.49	20.3001
2308.9	19.841
2310.32	20.0358
2311.73	20.0876
2313.15	20.3771
2314.57	20.2935
2315.98	20.3033
2317.4	20.3282
2318.81	20.022
2320.23	19.7134
2321.64	19.0094
2323.06	19.1548
2324.47	19.2861
2325.88	20.2373
2327.3	19.9995
2328.71	19.7194
2330.12	19.7038
2331.54	19.4946
2332.95	18.7785
2334.36	18.3777
2335.77	17.9527
2337.18	17.2119
2338.6	16.4534
2340.01	15.9266
2341.42	15.2498
2342.83	14.8824
2344.24	14.9215
2345.65	15.1455
2347.06	15.4446
2348.47	15.4891
2349.88	14.5905
2351.29	13.6519
2352.7	13.3361
2354.1	13.0216
2355.51	12.9135
2356.92	12.2626
2358.33	12.0298
2359.74	11.9371
2361.14	12.9938
2362.55	12.9159
2363.96	13.3918
2365.36	14.4125
2366.77	14.7672
2368.18	14.0221
2369.58	13.7233
2370.99	13.3325
2372.39	12.9496
2373.8	12.0382
2375.2	11.6481
2376.61	11.5012
2378.01	11.3655
2379.42	11.2197
2380.82	11.2205
2382.22	10.7662
2383.63	11.021
2385.03	11.0703
2386.43	11.066
2387.84	10.4359
2389.24	10.2661
2390.64	10.2647
2392.04	10.6904
2393.44	11.6045
2394.84	11.978
2396.25	11.6786
2397.65	10.8448
2399.05	11.2696
2400.45	12.1466
2401.85	12.0084
2403.25	11.7049
2404.65	11.6511
2406.05	12.1512
2407.45	12.4264
2408.84	13.0992
2410.24	13.4685
2411.64	13.5575
2413.04	13.834
2414.44	14.356
2415.83	14.1516
2417.23	13.9924
2418.63	13.8649
2420.02	13.6341
2421.42	14.5978
2422.82	15.3778
2424.21	15.5048
2425.61	16.0596
2427	15.6772
2428.4	16.3533
2429.8	16.5339
2431.19	16.7551
2432.58	16.4172
2433.98	16.5456
2435.37	16.7384
2436.77	16.1678
2438.16	15.9856
2439.55	15.7596
2440.95	15.1389
2442.34	14.9156
2443.73	14.5813
2445.12	14.1549
2446.51	13.6722
2447.91	13.2083
2449.3	13.3771
2450.69	13.0279
2452.08	12.0714
2453.47	12.3218
2454.86	12.0379
2456.25	11.9583
2457.64	11.8342
2459.03	11.8462
2460.42	11.8373
2461.81	11.5956
2463.2	11.135
2464.59	11.1318
2465.98	10.7803
2467.36	10.9108
2468.75	11.3765
2470.14	10.7959
2471.53	10.3083
2472.92	10.3881
2474.3	10.5433
2475.69	10.1168
2477.08	10.1968
2478.46	9.83974
2479.85	9.56356
2481.23	10.2458
2482.62	10.1358
2484	9.99715
2485.39	9.77421
2486.77	9.75579
2488.16	9.81183
2489.54	9.51777
2490.93	9.4389
2492.31	9.24497
2493.69	8.79377
2495.08	8.74286
2496.46	8.22318
2497.84	8.1339
2499.23	7.79089
2500.61	7.71528
2501.99	7.5974
2503.37	7.18648
2504.75	7.01585
2506.13	7.0318
2507.52	6.65525
2508.9	6.33098
2510.28	5.91868
2511.66	6.32605
2513.04	6.25587
2514.42	5.69011
2515.8	5.4589
2517.18	5.29202
2518.55	5.2106
2519.93	4.22272
2521.31	4.17856
2522.69	4.41644
2524.07	4.30438
2525.45	4.70555
2526.82	4.68661
2528.2	4.70906
2529.58	4.94358
2530.95	4.77948
2532.33	4.75318
2533.71	4.93737
2535.08	5.13448
2536.46	4.56911
2537.84	4.56988
2539.21	4.35627
2540.59	4.88061
2541.96	4.84411
2543.34	4.64052
2544.71	4.46535
2546.08	5.35
2547.46	5.46192
2548.83	6.18954
2550.2	6.69809
2551.58	6.58043
2552.95	6.55313
2554.32	6.39726
2555.7	6.72571
2557.07	7.30527
2558.44	6.90844
2559.81	6.94066
2561.18	6.7423
2562.55	6.43097
2563.93	6.28269
2565.3	5.84989
2566.67	6.44
2568.04	6.58286
2569.41	6.56292
2570.78	6.28824
2572.15	6.11627
2573.51	6.11829
2574.88	5.87618
2576.25	5.26749
2577.62	4.70172
2578.99	3.69412
2580.36	3.10184
2581.73	2.1908
2583.09	1.05901
2584.46	0.667641
2585.83	0.920492
2587.19	0.337572
2588.56	0.064911
2589.93	0.408802
2591.29	0.247558
2592.66	0.562841
2594.02	0.529471
2595.39	0.188592
2596.75	0.0812556
2598.12	0.699355
2599.48	0.0586519
2600.85	-0.0546378
2602.21	0.614509
2603.58	0.981372
2604.94	0.957198
2606.3	0.917621
2607.67	0.924878
2609.03	1.41879
2610.39	0.756547
2611.76	1.20414
2613.12	1.73532
2614.48	1.84193
2615.84	2.13183
2617.2	2.33379
2618.56	2.5606
2619.92	2.57868
2621.28	2.95109
2622.65	3.10528
2624.01	3.34483
2625.37	3.18035
2626.72	2.74231
2628.08	3.22236
2629.44	3.54718
2630.8	3.53037
2632.16	3.367
2633.52	3.18849
2634.88	3.34151
2636.24	3.0113
2637.59	2.78881
2638.95	2.24511
2640.31	1.88413
2641.67	1.42001
2643.02	0.801337
2644.38	0.555507
2645.74	0.264444
2647.09	0.177059
2648.45	0.278002
2649.8	0.310287
2651.16	0.111614
2652.51	-0.523842
2653.87	-0.50618
2655.22	-0.755328
2656.58	0.0965152
2657.93	0.62289
2659.29	0.578746
2660.64	0.960585
2661.99	1.44084
2663.35	1.76099
2664.7	1.89427
2666.05	2.58243
2667.41	2.16909
2668.76	2.60792
2670.11	3.25538
2671.46	3.19625
2672.81	2.80301
2674.16	2.23865
2675.51	2.50297
2676.87	2.42288
2678.22	2.30231
2679.57	2.82672
2680.92	3.10549
2682.27	3.14688
2683.62	3.14801
2684.97	3.05916
2686.31	3.12436
2687.66	3.26809
2689.01	3.58012
2690.36	3.05072
2691.71	3.35216
2693.06	3.23437
2694.4	3.45418
2695.75	4.07852
2697.1	4.04924
2698.45	3.72802
2699.79	4.20607
2701.14	4.73829
2702.49	5.18017
2703.83	5.71102
2705.18	6.15672
2706.52	6.61065
2707.87	6.80289
2709.21	7.26003
2710.56	7.8209
2711.9	7.57869
2713.25	7.74303
2714.59	7.9543
2715.94	8.13143
2717.28	8.48406
2718.62	8.90252
2719.97	9.19321
2721.31	10.3992
2722.65	11.2365
2723.99	11.7919
2725.34	11.9771
2726.68	12.2689
2728.02	12.4234
2729.36	12.8263
2730.7	12.7988
2732.04	12.5349
2733.39	12.6604
2734.73	12.3481
2736.07	12.7095
2737.41	12.5573
2738.75	12.1051
2740.08	11.4281
2741.43	11.5919
2742.76	11.396
2744.1	10.888
2745.44	10.6363
2746.78	10.3485
2748.12	10.232
2749.46	10.085
2750.79	9.37385
2752.13	9.30443
2753.47	9.00182
2754.81	8.59544
2756.14	7.97161
2757.48	7.21186
2758.81	7.03325
2760.15	6.36807
2761.49	6.20737
2762.82	6.17875
2764.16	5.88035
2765.49	5.85085
2766.83	5.7711
2768.16	5.46201
2769.5	5.20749
2770.83	4.96662
2772.16	4.07393
2773.5	3.8397
2774.83	3.37926
2776.17	3.30195
2777.5	3.40222
2778.83	2.98579
2780.16	3.30699
2781.5	3.48963
2782.83	3.11131
2784.16	3.00211
2785.49	2.56204
2786.82	2.30566
2788.15	2.65405
2789.49	2.43096
2790.82	2.08871
2792.15	1.74267
2793.48	1.35848
2794.81	0.70664
2796.14	0.723776
2797.46	0.451502
2798.79	0.181479
2800.12	0.486701
2801.45	0.756296
2802.78	0.74879
2804.11	0.279681
2805.44	0.207107
2806.76	0.021084
2808.09	0.0676318
2809.42	0.0369237
2810.75	0.345316
2812.07	0.933758
2813.4	0.888353
2814.73	1.23976
2816.05	2.17648
2817.38	2.41744
2818.7	3.14078
2820.03	4.39345
2821.36	5.60602
2822.68	7.24761
2824.01	9.41655
2825.33	11.3999
2826.65	13.1779
2827.98	15.9362
2829.3	18.6894
2830.63	21.0108
2831.95	23.5183
2833.27	26.005
2834.6	28.7248
2835.92	32.0199
2837.24	35.055
2838.56	38.4324
2839.88	42.4145
2841.21	46.1983
2842.53	50.2521
2843.85	54.6469
2845.17	58.7954
2846.49	63.932
2847.81	69.5144
2849.13	74.3971
2850.45	79.9308
2851.77	85.3782
2853.09	91.0583
2854.41	96.9021
2855.73	101.808
2857.05	107.778
2858.37	112.246
2859.69	117.589
2861	122.76
2862.32	127.889
2863.64	132.319
2864.96	137.036
2866.28	140.944
2867.59	144.928
2868.91	148.828
2870.23	152.329
2871.54	155.925
2872.86	159.461
2874.17	162.434
2875.49	165.032
2876.81	167.8
2878.12	170.525
2879.44	173.513
2880.75	177.224
2882.07	180.035
2883.38	181.871
2884.69	184.837
2886.01	187.794
2887.32	189.636
2888.63	192.241
2889.95	194.536
2891.26	196.228
2892.57	198.943
2893.89	201.632
2895.2	203.461
2896.51	206.095
2897.82	208.913
2899.13	211.714
2900.44	215.029
2901.76	219.026
2903.07	223.46
2904.38	228.363
2905.69	233.988
2907	240.147
2908.31	246.402
2909.62	252.304
2910.93	258.868
2912.24	265.967
2913.55	271.827
2914.85	277.97
2916.16	284.308
2917.47	290.244
2918.78	295.926
2920.09	301.617
2921.4	305.946
2922.7	310.062
2924.01	312.2
2925.32	315.403
2926.62	318.262
2927.93	319.468
2929.24	320.158
2930.54	321.213
2931.85	320.505
2933.15	320.538
2934.46	318.965
2935.76	316.731
2937.07	314.54
2938.37	311.203
2939.68	307.484
2940.98	303.855
2942.29	299.911
2943.59	295.826
2944.89	290.956
2946.2	285.566
2947.5	279.892
2948.8	274.406
2950.11	268.631
2951.41	262.417
2952.71	256.133
2954.01	249.995
2955.32	243.588
2956.62	237.833
2957.92	231.952
2959.22	225.246
2960.52	219.224
2961.82	213.507
2963.12	207.84
2964.42	202.96
2965.72	198.404
2967.02	193.55
2968.32	189.383
2969.62	185
2970.92	180.803
2972.22	176.574
2973.51	172.028
2974.81	167.355
2976.11	163.076
2977.41	158.737
2978.71	154.096
2980	150.096
2981.3	146.092
2982.6	141.613
2983.9	136.772
2985.19	131.793
2986.49	126.144
2987.78	120.946
2989.08	116.11
2990.38	111.658
2991.67	106.899
2992.97	101.471
2994.26	96.795
2995.56	91.713
2996.85	87.0042
2998.14	82.5981
2999.44	77.6516
3000.73	72.9477
3002.03	68.8264
3003.32	64.4899
3004.61	60.5493
3005.91	57.1033
3007.2	53.5116
3008.49	50.6699
3009.78	47.3321
3011.07	44.8217
3012.37	41.7031
3013.66	38.9829
3014.95	36.452
3016.24	34.5579
3017.53	32.6876
3018.82	30.7116
3020.11	29.3549
3021.4	28.1463
3022.69	26.1297
3023.98	24.6531
3025.27	23.6216
3026.56	22.9454
3027.85	22.533
3029.14	21.7902
3030.43	21.0953
3031.71	20.3963
3033	21.0269
3034.29	20.931
3035.58	20.9599
3036.87	21.4893
3038.15	21.416
3039.44	22.178
3040.73	22.5678
3042.01	23.4362
3043.3	24.1425
3044.59	24.9058
3045.87	25.8112
3047.16	26.5648
3048.44	26.9154
3049.73	27.4442
3051.01	27.6449
3052.3	27.9547
3053.58	28.5484
3054.87	28.6874
3056.15	28.8733
3057.43	28.7501
3058.72	28.4772
3060	28.2087
3061.29	28.2053
3062.57	27.1822
3063.85	26.5821
3065.13	25.9139
3066.42	25.288
3067.7	24.8147
3068.98	24.234
3070.26	23.8082
3071.54	22.8133
3072.82	21.5273
3074.11	20.2858
3075.39	19.164
3076.67	17.8067
3077.95	17.173
3079.23	16.1375
3080.51	14.9041
3081.79	13.9766
3083.07	12.5394
3084.35	11.837
3085.63	10.3596
3086.9	9.12664
3088.18	8.12097
3089.46	7.16708
3090.74	6.50079
3092.02	6.07955
3093.29	5.29936
3094.57	4.87241
3095.85	4.67244
3097.13	4.67024
3098.4	4.08457
3099.68	3.86626
3100.95	3.48057
3102.23	2.98337
3103.51	2.89476
3104.78	2.40828
3106.06	2.5664
3107.33	2.49873
3108.61	2.65255
3109.88	2.25706
3111.16	2.76526
3112.43	2.3486
3113.71	2.37543
3114.98	2.50837
3116.25	2.99963
3117.53	3.22747
3118.8	3.205
3120.07	3.01107
3121.35	2.67489
3122.62	2.86288
3123.89	2.5618
3125.16	2.47448
3126.44	2.37517
3127.71	2.59569
3128.98	2.55595
3130.25	2.38097
3131.52	2.83447
3132.79	2.38188
3134.06	2.10993
3135.33	1.71405
3136.6	1.30158
3137.87	1.25634
3139.14	0.971364
3140.41	0.701834
3141.68	0.236363
3142.95	-0.375207
3144.22	-1.09131
3145.49	-2.01706
3146.76	-2.86858
3148.02	-4.06
3149.29	-3.88313
