#Acq. time (s)=	45
#Accumulations=	2
#Range (cm-¹)=	200...3150
#Windows=	2
#Auto scanning=	Off
#Autofocus=	Off
#Macrospot=	Off
#AutoExposure=	Off
#Spike filter=	Multiple accum.
#Delay time (s)=	0
#Binning=	1
#Readout mode=	Signal
#DeNoise=	Off
#ICS correction=	On
#Dark correction=	Off
#Inst. Process=	Off
#Detector Gain=	Best Dynamic Range
#Detector ADC=	20 kHz       
#Detector temperature (°C)=	-69.85
#Instrument=	LabRAM HR Evol
#Detector=	Synapse
#Objective=	x100
#Grating=	600 gr/mm
#ND Filter=	100%
#Laser (nm)=	532 
#Hole=	100.021
#Range=	Auto
#Laser Pol.=	No
#Raman. Pol.=	No
#Laser Pol. (°)=	-0.0007625
#Raman Pol. (°)=	89.9995
#Collection=	Microscope
#StageXY=	Marzhauser
#StageZ=	Marzhauser
#X (µm)=	2205.8
#Y (µm)=	1214.6
#Z (µm)=	442.15
#Full time(mm:ss)=	3:18
#Project=	
#Sample=	
#Site=	
#Title=	Thy_10_08_27_2x_45s_532 nm_x100_100%_600 gr_mm
#Remark=	
#Date=	05.07.2022 16:09
#Acquired=	05.07.2022 16:09:39
#Base:Fit=	10.08.2022 09:46:25
#Base:Sub=	10.08.2022 09:46:49
#Filter:Polynom=	16.08.2022 10:24:56
#AxisType[0]=Intens
#AxisUnit[0]=Cnt
#AxisType[1]=Spectr
#AxisUnit[1]=1/cm
200.43	2.7231
202.244	2.18913
204.059	2.13297
205.873	2.50195
207.688	2.54827
209.501	2.79286
211.314	3.16242
213.127	3.05663
214.941	3.45635
216.753	3.7471
218.564	4.97066
220.375	5.65342
222.186	6.52087
223.999	7.18157
225.809	7.00062
227.618	7.44426
229.428	8.13984
231.236	9.31069
233.045	9.68958
234.855	8.77157
236.663	9.17958
238.471	9.71362
240.278	10.908
242.085	10.1519
243.891	10.8419
245.698	10.894
247.503	11.5669
249.309	12.129
251.116	13.329
252.921	13.1136
254.725	12.7895
256.529	13.6498
258.333	14.9286
260.136	15.0989
261.939	14.8825
263.742	14.3863
265.544	15.4009
267.346	15.2257
269.148	16.001
270.949	16.6089
272.75	15.3429
274.55	15.4571
276.351	15.9338
278.15	15.4785
279.95	16.0088
281.749	15.6215
283.548	15.1342
285.346	15.1968
287.144	15.8692
288.942	16.2372
290.739	17.1766
292.536	17.7366
294.333	18.4475
296.129	18.9579
297.925	20.6181
299.721	21.4565
301.514	21.5048
303.309	22.2999
305.104	23.7247
306.898	24.2323
308.692	25.1981
310.486	26.017
312.279	26.1103
314.072	26.4494
315.862	26.679
317.654	27.6196
319.446	28.0899
321.238	27.9187
323.029	26.5198
324.819	26.0411
326.608	26.154
328.398	26.1634
330.188	26.3922
331.977	25.7228
333.766	26.9816
335.553	26.5252
337.341	27.3475
339.129	27.6968
340.917	28.346
342.704	27.3765
344.489	27.3796
346.275	26.9626
348.062	26.1163
349.845	24.301
351.631	23.2672
353.416	21.8868
355.201	20.8283
356.984	19.8992
358.768	19.194
360.552	17.0604
362.333	16.2777
364.116	15.6312
365.899	14.8389
367.68	13.6467
369.462	13.1583
371.243	12.7303
373.023	12.0345
374.804	12.0279
376.585	11.9496
378.363	12.0839
380.143	12.3561
381.923	11.993
383.7	12.7592
385.479	13.2443
387.256	12.2807
389.034	11.5933
390.812	11.2128
392.588	11.8268
394.365	12.3544
396.14	12.2736
397.916	12.5591
399.691	12.7572
401.467	12.1211
403.24	11.7205
405.015	10.8613
406.788	9.74784
408.563	9.4928
410.335	9.2286
412.109	9.23751
413.88	9.46065
415.654	9.37545
417.424	10.6585
419.197	10.5741
420.967	11.0882
422.739	11.1423
424.508	11.5603
426.279	11.537
428.048	12.0264
429.819	12.2767
431.587	10.9173
433.356	9.88371
435.124	9.30362
436.891	9.21395
438.66	9.42502
440.426	9.36332
442.194	8.934
443.96	8.5185
445.725	8.49654
447.492	7.50439
449.257	7.44359
451.021	7.98186
452.787	7.74398
454.551	8.0925
456.314	9.45672
458.079	10.6175
459.842	10.9898
461.604	10.6303
463.368	10.8367
465.13	11.5116
466.891	12.2412
468.654	13.1742
470.415	13.4383
472.175	13.4986
473.935	13.2801
475.696	11.8356
477.456	13.6216
479.215	14.0541
480.973	14.7387
482.733	15.7429
484.491	15.4237
486.249	15.7565
488.006	15.5472
489.765	15.5807
491.522	14.8093
493.278	15.5316
495.034	16.856
496.789	18.7968
498.544	19.4311
500.301	19.6451
502.056	19.7176
503.81	20.4406
505.564	21.653
507.317	21.5174
509.071	22.3342
510.825	21.8767
512.578	22.0809
514.33	21.4309
516.082	22.2778
517.833	21.482
519.585	19.7639
521.335	20.0418
523.086	20.5783
524.836	20.5301
526.586	19.8322
528.335	18.7799
530.085	17.2924
531.835	16.6195
533.584	17.2635
535.332	17.0621
537.08	16.9768
538.827	16.8367
540.574	16.9391
542.321	16.5672
544.068	16.8009
545.814	15.1016
547.56	14.7916
549.305	13.0825
551.05	12.0419
552.795	11.406
554.54	10.1323
556.282	9.34702
558.025	8.54894
559.769	8.08708
561.512	7.62947
563.255	7.81717
564.997	8.67945
566.739	7.98746
568.481	8.22415
570.223	7.66011
571.964	6.72837
573.705	6.2026
575.443	5.98115
577.183	5.76117
578.923	5.20763
580.663	6.32903
582.402	6.49591
584.141	6.6132
585.879	5.82866
587.615	5.73121
589.353	5.79117
591.09	6.52116
592.828	6.20969
594.564	5.53661
596.299	4.69929
598.035	4.45775
599.771	4.2423
601.506	4.70789
603.242	4.34942
604.974	4.27665
606.709	3.60937
608.443	4.29709
610.177	4.34826
611.908	4.96269
613.642	5.67728
615.374	6.01221
617.105	6.10776
618.837	7.40329
620.569	7.58622
622.3	7.17252
624.03	7.10959
625.761	7.47694
627.491	7.37867
629.219	7.04927
630.949	7.93493
632.677	7.83107
634.406	9.189
636.135	9.16774
637.861	9.36979
639.59	10.4302
641.318	11.5735
643.043	12.5456
644.77	12.8056
646.495	13.5361
648.222	13.8598
649.948	14.5477
651.672	14.5206
653.398	14.4268
655.121	15.1076
656.846	15.0944
658.569	15.6838
660.293	15.2306
662.015	15.8742
663.738	15.6611
665.46	15.9277
667.183	16.768
668.903	17.396
670.626	17.9429
672.346	18.022
674.067	18.3878
675.787	19.0039
677.508	19.397
679.226	18.7521
680.947	19.2356
682.665	19.7543
684.385	21.4069
686.102	21.475
687.821	22.575
689.538	21.9153
691.254	22.9476
692.972	23.0806
694.688	23.7704
696.406	24.4668
698.121	25.4408
699.835	25.2756
701.552	25.3026
703.266	25.0538
704.98	26.1387
706.695	26.0814
708.409	26.9546
710.121	27.9083
711.836	28.5528
713.548	29.5294
715.26	30.409
716.973	31.8754
718.685	33.1741
720.396	34.9115
722.108	35.8677
723.818	36.1786
725.528	37.6193
727.238	38.8069
728.949	39.2686
730.658	39.9752
732.367	42.7028
734.075	43.3981
735.785	44.1609
737.493	45.7872
739.2	46.3724
740.907	47.9621
742.614	49.1744
744.322	50.0884
746.028	50.59
747.734	51.8909
749.439	52.7712
751.144	53.6048
752.849	55.1427
754.555	56.3675
756.26	57.2984
757.963	58.5442
759.667	59.9073
761.37	61.1616
763.073	62.6133
764.775	63.8507
766.477	64.9014
768.179	65.221
769.883	65.4847
771.584	65.7861
773.285	66.6648
774.986	66.3669
776.686	67.2946
778.386	67.6004
780.085	68.0281
781.785	68.2411
783.484	68.4309
785.182	68.3917
786.881	68.7985
788.579	68.5676
790.276	69.0609
791.974	68.4385
793.671	69.1904
795.367	69.6148
797.064	69.5368
798.76	69.8628
800.456	71.4322
802.151	72.5402
803.846	72.6763
805.541	73.6066
807.234	73.1018
808.928	73.1352
810.622	73.69
812.315	73.2345
814.008	73.0768
815.701	73.3819
817.394	74.5528
819.086	73.2792
820.778	72.9313
822.468	73.1939
824.159	72.3651
825.85	72.8282
827.541	71.9652
829.231	70.6181
830.921	69.3976
832.609	68.8735
834.298	68.7164
835.987	67.8484
837.676	67.3433
839.364	66.2665
841.051	65.5739
842.738	65.3859
844.426	64.7376
846.113	63.3082
847.798	62.2094
849.484	59.8292
851.171	58.2091
852.857	56.9788
854.54	56.0815
856.226	56.1628
857.911	54.1401
859.593	52.6982
861.278	52.4475
862.961	51.3935
864.645	49.7826
866.327	47.7266
868.01	47.5429
869.692	47.4246
871.373	46.9
873.055	47.4752
874.735	47.7009
876.416	47.3946
878.097	47.1307
879.776	46.9966
881.457	46.8564
883.135	47.7359
884.815	48.1908
886.495	47.8486
888.172	47.7399
889.851	48.2579
891.528	47.915
893.206	48.5836
894.882	48.6284
896.56	48.0167
898.237	48.9445
899.912	49.2189
901.589	49.8511
903.263	49.1259
904.94	49.5955
906.614	50.109
908.289	50.0742
909.962	49.7988
911.635	49.2783
913.31	48.538
914.982	47.985
916.656	47.7213
918.328	47.5749
920.001	47.063
921.672	45.7664
923.345	44.931
925.015	44.7052
926.685	44.2505
928.357	43.0404
930.026	42.2687
931.698	41.0039
933.366	39.6427
935.035	39.5042
936.705	38.9224
938.373	37.8701
940.041	36.7618
941.71	34.2526
943.377	34.3463
945.044	34.2223
946.712	33.3183
948.378	32.7971
950.044	31.949
951.709	32.3983
953.376	32.2413
955.041	31.4254
956.706	30.1373
958.372	28.1747
960.036	25.823
961.699	24.3474
963.362	24.6619
965.027	25.082
966.69	25.6374
968.352	25.4408
970.014	26.1668
971.676	26.1313
973.339	24.6447
975	23.4475
976.661	25.0816
978.322	25.5585
979.982	26.6372
981.642	28.3956
983.303	28.9405
984.962	29.8785
986.621	29.6939
988.28	30.0258
989.938	29.8115
991.596	29.0786
993.254	28.9507
994.911	29.1213
996.57	28.8581
998.227	28.7896
999.884	29.0958
1001.54	28.9658
1003.2	29.1647
1004.85	28.1335
1006.51	29.2842
1008.16	29.3944
1009.82	28.8631
1011.47	28.4721
1013.12	27.352
1014.78	26.4226
1016.43	25.8557
1018.08	25.7148
1019.74	25.3402
1021.39	24.0734
1023.04	23.0502
1024.69	23.1693
1026.34	23.158
1028	22.0456
1029.65	20.9449
1031.3	18.8048
1032.95	16.5537
1034.6	15.9269
1036.25	14.3243
1037.9	12.6639
1039.54	11.0755
1041.19	9.6555
1042.84	8.63669
1044.49	7.64913
1046.14	8.36715
1047.78	6.96115
1049.43	5.6833
1051.08	4.82808
1052.72	4.31851
1054.37	4.23609
1056.02	2.54304
1057.66	3.29094
1059.31	4.51569
1060.95	3.77416
1062.6	3.26162
1064.24	2.798
1065.88	1.78074
1067.53	1.28656
1069.17	0.555733
1070.81	1.35598
1072.45	1.72805
1074.1	3.10098
1075.74	3.36716
1077.38	4.23103
1079.02	4.57046
1080.66	4.4836
1082.3	4.78761
1083.94	5.37303
1085.58	6.29384
1087.22	6.03829
1088.86	7.22535
1090.5	7.72891
1092.14	8.35909
1093.78	9.95032
1095.42	12.0119
1097.05	14.2059
1098.69	15.5299
1100.33	16.9354
1101.96	18.8671
1103.6	19.4562
1105.24	20.5789
1106.87	21.7543
1108.51	22.2554
1110.14	22.9358
1111.78	23.3939
1113.41	22.4991
1115.05	23.0595
1116.68	23.4305
1118.31	23.5408
1119.95	23.5671
1121.58	22.2898
1123.21	21.2339
1124.85	20.8163
1126.48	20.6897
1128.11	20.622
1129.74	19.4017
1131.37	20.51
1133	20.4514
1134.63	20.2027
1136.26	18.9021
1137.89	16.6579
1139.52	16.6515
1141.15	15.7116
1142.78	14.6286
1144.41	13.6596
1146.04	13.1318
1147.66	12.0988
1149.29	11.7587
1150.92	10.4901
1152.55	10.3771
1154.17	9.17967
1155.8	8.40228
1157.43	6.6859
1159.05	5.82836
1160.68	4.61773
1162.3	3.57617
1163.93	2.92633
1165.55	2.26188
1167.17	1.88279
1168.8	2.027
1170.42	3.13231
1172.05	3.49408
1173.67	4.25851
1175.29	6.03478
1176.91	6.23754
1178.54	6.68071
1180.16	7.14023
1181.78	7.33239
1183.4	7.40391
1185.02	7.37379
1186.64	7.41286
1188.26	7.98643
1189.88	9.08196
1191.5	9.71857
1193.12	10.4988
1194.74	10.6524
1196.36	12.0002
1197.97	12.8417
1199.59	14.8298
1201.21	15.6106
1202.83	17.4945
1204.44	20.2874
1206.06	23.0934
1207.68	25.5127
1209.29	26.8731
1210.91	29.6538
1212.52	31.633
1214.14	33.4396
1215.75	35.8602
1217.37	37.5955
1218.98	39.7075
1220.59	41.9106
1222.21	42.7204
1223.82	45.0588
1225.43	46.7769
1227.05	48.432
1228.66	50.2928
1230.27	52.0023
1231.88	53.9031
1233.49	56.1714
1235.1	57.5128
1236.72	59.2704
1238.33	59.8059
1239.94	60.6926
1241.55	60.4536
1243.16	60.382
1244.76	60.2887
1246.37	60.757
1247.98	61.4925
1249.59	62.1252
1251.2	62.1928
1252.8	62.3286
1254.41	62.4205
1256.02	61.6989
1257.62	59.7109
1259.23	59.7048
1260.84	59.3651
1262.44	58.64
1264.05	58.4685
1265.66	58.711
1267.26	58.9992
1268.86	59.286
1270.47	58.3595
1272.07	57.7756
1273.67	58.2879
1275.28	58.3383
1276.88	59.1837
1278.48	61.1429
1280.09	63.0098
1281.69	63.6991
1283.29	65.4399
1284.89	66.1836
1286.49	66.6489
1288.09	67.2643
1289.69	68.6275
1291.29	70.1557
1292.89	71.5383
1294.49	73.6415
1296.09	75.7205
1297.69	76.2649
1299.29	77.8587
1300.89	79.3843
1302.49	81.518
1304.08	83.6941
1305.68	83.9793
1307.28	85.2412
1308.88	86.9318
1310.47	88.4582
1312.07	89.555
1313.66	89.8479
1315.26	90.502
1316.85	90.6611
1318.45	89.9512
1320.04	90.0566
1321.64	89.4965
1323.23	89.9435
1324.83	89.5428
1326.42	89.8529
1328.01	89.8232
1329.61	89.7365
1331.2	88.4043
1332.79	88.0621
1334.38	86.3176
1335.97	84.9794
1337.56	84.134
1339.16	83.4763
1340.75	83.6334
1342.34	82.351
1343.93	81.2113
1345.52	80.3506
1347.11	78.9168
1348.7	76.4913
1350.29	75.2869
1351.87	75.2343
1353.46	74.6427
1355.05	73.7552
1356.64	74.1225
1358.22	73.8108
1359.81	72.5316
1361.4	70.9227
1362.98	70.3468
1364.57	68.8366
1366.16	68.2455
1367.74	67.8384
1369.33	66.996
1370.91	65.938
1372.5	65.5401
1374.08	64.8347
1375.67	63.7276
1377.25	62.7639
1378.83	62.3381
1380.41	61.7817
1382	61.4424
1383.58	60.3733
1385.16	59.368
1386.74	59.11
1388.33	58.7623
1389.91	57.0248
1391.49	55.4928
1393.07	53.8771
1394.65	52.1766
1396.23	51.391
1397.81	50.651
1399.39	50.017
1400.97	49.3255
1402.55	49.4316
1404.13	49.3702
1405.7	50.2201
1407.28	49.9153
1408.86	49.9929
1410.44	51.2649
1412.01	52.756
1413.59	53.3626
1415.17	55.3807
1416.74	57.8273
1418.32	59.6035
1419.89	62.6527
1421.47	63.9115
1423.04	66.1983
1424.62	68.722
1426.19	70.7988
1427.77	73.6517
1429.34	77.1866
1430.91	80.7972
1432.49	83.6576
1434.06	87.0017
1435.63	89.2996
1437.2	91.6026
1438.78	94.2263
1440.35	95.5791
1441.92	97.9721
1443.49	99.3884
1445.06	101.196
1446.63	101.98
1448.2	103.369
1449.77	103.098
1451.34	103.282
1452.91	102.276
1454.48	101.55
1456.05	101.266
1457.62	100.125
1459.18	99.107
1460.75	97.4601
1462.32	94.8016
1463.89	91.5799
1465.45	87.7931
1467.02	83.8322
1468.59	80.1099
1470.15	76.6116
1471.72	73.4254
1473.28	70.1625
1474.85	67.917
1476.41	64.6762
1477.98	61.7913
1479.54	58.4242
1481.1	55.7377
1482.67	51.9126
1484.23	49.3777
1485.79	46.4496
1487.36	44.1887
1488.92	42.0367
1490.48	38.9741
1492.04	37.1647
1493.61	35.8503
1495.17	33.7758
1496.73	31.8718
1498.29	31.3452
1499.85	29.7736
1501.41	29.2863
1502.97	28.4917
1504.53	28.4989
1506.09	28.4731
1507.65	28.1701
1509.2	27.9903
1510.76	27.4347
1512.32	27.7883
1513.88	27.3478
1515.43	28.445
1516.99	28.8322
1518.55	29.0738
1520.1	30.3799
1521.66	31.2232
1523.22	32.3645
1524.77	33.1511
1526.33	35.1765
1527.88	35.2185
1529.44	37.8637
1530.99	39.5323
1532.54	42.1865
1534.1	43.9297
1535.65	45.813
1537.21	47.6347
1538.76	49.5874
1540.31	51.3053
1541.86	52.8449
1543.42	54.7485
1544.97	57.0337
1546.52	59.3394
1548.07	61.7749
1549.62	64.5289
1551.17	66.7102
1552.72	68.9983
1554.27	71.2539
1555.82	73.4999
1557.37	76.2855
1558.92	78.9769
1560.47	80.4091
1562.02	82.1109
1563.56	84.7095
1565.11	86.9201
1566.66	89.2889
1568.21	91.1488
1569.75	92.8841
1571.3	94.6031
1572.85	95.1342
1574.39	97.1026
1575.94	99.0683
1577.49	100.08
1579.03	100.918
1580.57	101.22
1582.12	101.993
1583.66	102.349
1585.21	102.421
1586.75	101.987
1588.3	102.701
1589.84	103.298
1591.38	103.374
1592.92	103.603
1594.47	103.482
1596.01	102.385
1597.55	101.794
1599.09	101.004
1600.63	100.036
1602.17	98.8611
1603.71	98.0497
1605.25	95.6394
1606.79	94.84
1608.33	93.9414
1609.87	92.9478
1611.41	91.6371
1612.95	91.3992
1614.49	90.7369
1616.03	89.5438
1617.57	88.6911
1619.1	87.4315
1620.64	87.486
1622.18	88.0698
1623.72	87.5057
1625.25	88.22
1626.79	88.8295
1628.32	88.5335
1629.86	88.15
1631.39	88.7879
1632.93	89.3502
1634.46	90.0886
1636	89.3348
1637.53	89.095
1639.07	90.4316
1640.6	92.29
1642.13	92.5993
1643.67	92.704
1645.2	93.5239
1646.73	94.9414
1648.26	95.3555
1649.8	95.5314
1651.33	97.4505
1652.86	97.7631
1654.39	97.7714
1655.92	97.2852
1657.45	97.6731
1658.98	97.6272
1660.51	97.8576
1662.04	97.0437
1663.57	96.2557
1665.1	95.1502
1666.63	93.8427
1668.16	91.6727
1669.68	89.7309
1671.21	87.8027
1672.74	85.6779
1674.27	84.0755
1675.79	81.7831
1677.32	79.859
1678.85	76.982
1680.37	74.6502
1681.9	73.2601
1683.42	71.4727
1684.95	69.6273
1686.47	66.8044
1688	64.8985
1689.52	62.7035
1691.05	59.9817
1692.57	57.8512
1694.09	56.0456
1695.62	53.8103
1697.14	51.5735
1698.66	49.4689
1700.18	46.2541
1701.71	44.614
1703.23	41.9312
1704.75	39.9662
1706.27	39.0758
1707.79	38.0892
1709.31	36.8894
1710.83	35.5485
1712.35	33.9563
1713.87	33.5538
1715.39	33.566
1716.91	32.581
1718.43	32.0656
1719.95	31.5319
1721.47	31.8118
1722.99	31.7274
1724.5	30.5673
1726.02	29.9731
1727.54	30.0556
1729.06	29.4477
1730.57	29.1102
1732.09	28.4844
1733.61	28.509
1735.12	28.0053
1736.64	28.2413
1738.15	27.729
1739.67	27.6541
1741.18	26.6928
1742.7	27.4678
1744.21	26.987
1745.72	27.0567
1747.24	26.7873
1748.75	26.5228
1750.26	25.8528
1751.77	25.5303
1753.29	24.6759
1754.8	23.2844
1756.31	23.1004
1757.82	22.9566
1759.33	21.767
1760.84	21.5706
1762.36	20.6536
1763.87	20.0769
1765.38	18.9132
1766.89	18.19
1768.4	17.5738
1769.91	16.2067
1771.41	15.5504
1772.92	14.561
1774.43	14.2517
1775.94	13.6174
1777.45	13.4085
1778.95	12.8361
1780.46	12.2801
1781.97	11.7104
1783.48	10.6045
1784.98	10.1748
1786.49	9.58563
1787.99	9.36105
1789.5	9.83896
1791.01	9.45758
1792.51	8.71455
1794.01	8.77753
1795.52	7.95062
1797.02	7.3174
1798.53	6.82823
1800.03	5.91922
1801.53	5.16684
1803.04	5.20542
1804.54	4.49779
1806.04	3.8815
1807.54	3.45938
1809.05	3.35557
1810.55	3.0897
1812.05	2.89813
1813.55	2.83255
1815.05	2.53086
1816.55	1.68591
1818.05	1.9734
1819.55	1.32325
1821.05	1.33303
1822.55	1.17624
1824.05	0.75202
1825.55	0.533839
1827.05	0.357225
1828.55	-0.22888
1830.04	0.218869
1831.54	0.971213
1833.04	1.60621
1834.54	1.70525
1836.03	1.54158
1837.53	1.36984
1839.03	1.90406
1840.52	2.05248
1842.02	1.66297
1843.51	1.41252
1845.01	0.883376
1846.5	0.834241
1848	0.739885
1849.49	1.58928
1850.99	1.88669
1852.48	2.09382
1853.97	2.4956
1855.47	2.53189
1856.96	3.03622
1858.45	3.3393
1859.94	4.08336
1861.44	4.44242
1862.93	5.07993
1864.42	5.83247
1865.91	5.43648
1867.4	5.3841
1868.89	5.5247
1870.38	5.18563
1871.87	5.34449
1873.36	5.71778
1874.85	5.57864
1876.34	5.47469
1877.83	5.61672
1879.32	5.70665
1880.81	6.3191
1882.3	6.32884
1882.57	6.75324
1884.07	7.47901
1885.56	7.60773
1887.06	7.94529
1888.55	8.04697
1890.04	7.70955
1891.54	8.09303
1893.03	8.92022
1894.52	8.89746
1896.02	9.07815
1897.51	9.50843
1899	9.57985
1900.49	9.91619
1901.98	10.4006
1903.47	10.7
1904.96	10.1373
1906.45	10.4545
1907.94	9.4505
1909.43	8.63268
1910.92	8.95807
1912.41	7.90553
1913.9	7.16276
1915.39	6.51413
1916.88	6.37766
1918.37	6.07216
1919.85	6.42409
1921.34	6.56597
1922.83	6.40988
1924.32	5.80358
1925.8	5.35054
1927.29	5.2947
1928.78	4.74322
1930.26	4.65642
1931.75	5.07448
1933.23	4.90511
1934.72	4.93879
1936.2	4.95249
1937.69	5.45796
1939.17	4.25136
1940.66	4.09222
1942.14	3.59205
1943.63	3.15328
1945.11	3.42752
1946.59	4.23592
1948.07	4.66719
1949.56	4.91383
1951.04	5.49829
1952.52	6.00838
1954	5.65109
1955.48	5.11907
1956.96	5.42796
1958.45	5.10357
1959.93	5.01267
1961.41	5.72403
1962.89	5.90602
1964.37	5.8245
1965.85	6.38797
1967.32	6.28212
1968.8	5.98466
1970.28	6.49379
1971.76	6.94549
1973.24	6.17869
1974.72	6.78877
1976.19	6.70569
1977.67	6.38843
1979.15	6.33266
1980.63	6.29847
1982.1	5.63588
1983.58	6.28147
1985.05	6.81859
1986.53	5.81932
1988	6.78098
1989.48	7.13315
1990.95	7.15117
1992.43	7.93677
1993.9	8.10918
1995.38	7.69778
1996.85	8.2253
1998.32	9.23467
1999.8	9.47389
2001.27	9.39985
2002.74	9.78057
2004.22	10.149
2005.69	10.4378
2007.16	10.3654
2008.63	10.8805
2010.1	10.4944
2011.57	10.6499
2013.04	10.5815
2014.51	11.2676
2015.98	11.5992
2017.45	11.9893
2018.92	12.6952
2020.39	13.9131
2021.86	13.513
2023.33	13.5839
2024.8	14.5503
2026.27	14.5038
2027.74	13.8869
2029.2	14.7952
2030.67	15.3854
2032.14	15.5864
2033.61	15.7688
2035.07	15.6001
2036.54	15.0315
2038.01	14.4507
2039.47	13.8816
2040.94	14.0716
2042.4	14.1263
2043.87	13.5547
2045.33	13.7504
2046.8	12.9698
2048.26	12.9361
2049.72	12.5702
2051.19	12.258
2052.65	12.0318
2054.12	12.1772
2055.58	13.0692
2057.04	13.0722
2058.5	13.1089
2059.97	12.5818
2061.43	12.5561
2062.89	12.3085
2064.35	11.9623
2065.81	12.0814
2067.27	11.3322
2068.73	11.2505
2070.19	11.6944
2071.65	12.0852
2073.11	11.1186
2074.57	10.3753
2076.03	10.3915
2077.49	10.0183
2078.95	10.6897
2080.41	11.5743
2081.87	11.7137
2083.32	11.6576
2084.78	12.5947
2086.24	12.699
2087.7	13.2466
2089.15	13.2742
2090.61	13.7938
2092.07	14.3329
2093.52	15.6567
2094.98	15.7646
2096.43	16.2944
2097.89	16.8318
2099.34	16.8827
2100.8	16.9536
2102.25	17.5556
2103.71	17.3907
2105.16	17.7711
2106.61	17.7613
2108.07	18.637
2109.52	18.5272
2110.97	18.3445
2112.43	18.8923
2113.88	19.4673
2115.33	19.5646
2116.78	19.9453
2118.23	20.4021
2119.68	20.6455
2121.13	21.6422
2122.59	22.938
2124.04	23.3414
2125.49	24.0953
2126.94	25.1294
2128.39	25.5993
2129.83	25.6725
2131.28	25.8019
2132.73	25.8025
2134.18	25.7709
2135.63	26.5142
2137.08	27.4137
2138.53	27.9514
2139.97	28.3289
2141.42	28.2942
2142.87	28.9748
2144.31	29.4521
2145.76	28.7556
2147.21	29.0753
2148.65	29.5302
2150.1	30.2683
2151.54	30.9866
2152.99	31.3157
2154.43	30.9544
2155.88	31.0445
2157.32	31.6684
2158.77	32.0381
2160.21	32.5613
2161.65	32.0755
2163.1	32.189
2164.54	31.7303
2165.98	32.0985
2167.43	31.9321
2168.87	32.2302
2170.31	32.7705
2171.75	33.0075
2173.19	32.875
2174.64	33.3265
2176.07	32.9877
2177.52	33.4328
2178.96	32.9004
2180.4	32.5082
2181.84	31.4711
2183.28	31.8169
2184.72	31.987
2186.15	32.1911
2187.59	32.6875
2189.03	32.3321
2190.47	32.2852
2191.91	32.8481
2193.35	32.9933
2194.78	32.7585
2196.22	32.6275
2197.66	32.7409
2199.09	32.3073
2200.53	32.333
2201.97	32.1279
2203.4	30.9203
2204.84	30.5621
2206.27	30.577
2207.71	30.8777
2209.14	30.2514
2210.58	29.0361
2212.01	28.0038
2213.45	27.1895
2214.88	27.5669
2216.31	26.5464
2217.75	25.3609
2219.18	25.1321
2220.61	24.7633
2222.05	24.0438
2223.48	24.0879
2224.91	23.9984
2226.34	23.1089
2227.78	23.0979
2229.21	23.123
2230.64	22.5668
2232.07	21.9211
2233.5	21.8615
2234.93	21.549
2236.36	21.6784
2237.79	21.8406
2239.22	21.9088
2240.65	21.6952
2242.08	22.0281
2243.5	21.9187
2244.93	21.6907
2246.36	22.0854
2247.79	22.2402
2249.22	22.3902
2250.64	21.9906
2252.07	21.8592
2253.5	22.1703
2254.92	22.5322
2256.35	22.9527
2257.78	23.1209
2259.2	23.3683
2260.63	22.7847
2262.05	22.9418
2263.48	22.7509
2264.9	22.6024
2266.33	22.3622
2267.75	22.4337
2269.18	21.9085
2270.6	21.5693
2272.02	22.5444
2273.45	21.4133
2274.87	20.5395
2276.29	21.4776
2277.71	20.5183
2279.14	19.7941
2280.56	18.9486
2281.98	18.5581
2283.4	18.4848
2284.82	18.8631
2286.24	18.8344
2287.66	18.0129
2289.08	17.4544
2290.5	16.905
2291.92	16.0452
2293.34	15.5109
2294.76	15.5517
2296.18	14.8666
2297.6	15.4145
2299.02	16.1464
2300.44	15.9452
2301.86	15.7036
2303.27	15.891
2304.69	15.7907
2306.11	15.6398
2307.53	15.62
2308.94	15.4346
2310.36	16.0139
2311.78	16.1389
2313.19	16.5459
2314.61	15.6656
2316.02	15.7037
2317.44	16.1256
2318.85	15.268
2320.27	14.4798
2321.68	14.6765
2323.1	14.6122
2324.51	14.7995
2325.92	15.2722
2327.34	15.3622
2328.75	14.9341
2330.16	14.8513
2331.58	14.0686
2332.99	13.9067
2334.4	13.5774
2335.81	13.6944
2337.23	13.7559
2338.64	13.7182
2340.05	13.2305
2341.46	13.3103
2342.87	12.9915
2344.28	11.8702
2345.69	11.5329
2347.1	10.989
2348.51	10.2675
2349.92	10.5271
2351.33	10.1333
2352.74	10.0503
2354.15	10.7826
2355.55	10.5794
2356.96	9.88751
2358.37	9.11246
2359.78	8.86372
2361.19	9.02629
2362.59	9.43382
2364	9.9758
2365.41	10.5761
2366.81	10.8608
2368.22	11.5148
2369.62	11.153
2371.03	10.3359
2372.44	10.4532
2373.84	10.142
2375.24	9.85857
2376.65	9.90581
2378.05	9.61816
2379.46	9.07959
2380.86	9.31137
2382.26	8.5256
2383.67	7.82166
2385.07	7.25608
2386.47	7.14702
2387.88	6.87256
2389.28	6.50744
2390.68	7.27419
2392.08	7.54514
2393.48	7.09483
2394.89	7.65921
2396.29	7.95318
2397.69	7.18985
2399.09	7.05298
2400.49	6.51704
2401.89	6.44875
2403.29	6.55207
2404.69	7.05723
2406.09	6.65828
2407.48	6.4728
2408.88	5.714
2410.28	5.15803
2411.68	5.18776
2413.08	5.05187
2414.48	5.83196
2415.87	6.05177
2417.27	6.91869
2418.67	7.18383
2420.06	6.74061
2421.46	7.53644
2422.86	8.02799
2424.25	8.28102
2425.65	8.134
2427.04	8.59171
2428.44	8.28891
2429.83	8.99513
2431.23	9.03202
2432.62	8.94361
2434.02	8.70609
2435.41	8.64965
2436.81	8.78325
2438.2	9.38605
2439.59	8.93667
2440.99	8.40248
2442.38	8.43028
2443.77	7.58924
2445.16	7.45272
2446.56	7.23348
2447.95	6.75651
2449.34	6.15049
2450.73	6.21246
2452.12	5.9734
2453.51	5.77528
2454.9	6.22549
2456.29	6.3918
2457.68	6.29615
2459.07	6.16701
2460.46	6.50728
2461.85	6.44295
2463.24	6.30086
2464.63	6.52401
2466.02	6.18003
2467.4	5.93151
2468.79	6.48462
2470.18	6.71284
2471.57	6.85452
2472.95	6.55557
2474.34	6.5508
2475.73	5.73198
2477.12	5.7924
2478.5	5.67469
2479.89	5.58082
2481.27	5.47766
2482.66	5.62234
2484.04	5.89441
2485.43	5.57574
2486.81	5.11709
2488.2	4.19811
2489.58	4.27591
2490.97	5.06364
2492.35	4.57748
2493.73	4.83187
2495.12	4.73708
2496.5	4.05963
2497.88	3.31603
2499.27	3.42812
2500.65	3.43698
2502.03	3.69636
2503.41	3.60512
2504.79	3.13767
2506.17	3.19762
2507.56	2.42014
2508.94	1.65526
2510.32	1.53263
2511.7	1.47722
2513.08	0.658014
2514.46	0.982921
2515.84	1.06843
2517.22	1.05079
2518.59	0.744789
2519.97	1.33022
2521.35	0.771671
2522.73	0.580304
2524.11	0.411004
2525.49	0.199351
2526.86	-0.41179
2528.24	-0.34096
2529.62	-0.164677
2530.99	-0.368683
2532.37	-0.745119
2533.75	-0.557648
2535.12	0.0252545
2536.5	0.376526
2537.88	0.321028
2539.25	0.112953
2540.63	-0.382951
2542	-0.200055
2543.38	-0.131349
2544.75	-0.818066
2546.12	-0.772196
2547.5	-0.733677
2548.87	-0.491958
2550.24	-0.325061
2551.62	-0.244944
2552.99	0.0192094
2554.36	0.429429
2555.74	0.466278
2557.11	0.488101
2558.48	0.740777
2559.85	1.23449
2561.22	1.39681
2562.59	1.42914
2563.96	1.5522
2565.34	1.97726
2566.71	1.76088
2568.08	1.91674
2569.45	2.71075
2570.82	2.81138
2572.18	1.98758
2573.55	1.84183
2574.92	2.43912
2576.29	2.87618
2577.66	2.68851
2579.03	3.06084
2580.4	3.55038
2581.77	3.31848
2583.13	3.5953
2584.5	3.40778
2585.87	2.3886
2587.23	1.66652
2588.6	1.24999
2589.97	0.5356
2591.33	0.961468
2592.7	0.624128
2594.06	0.378414
2595.43	0.123319
2596.79	0.228553
2598.16	0.605135
2599.52	0.81458
2600.89	0.98697
2602.25	0.944521
2603.62	0.881245
2604.98	0.862266
2606.34	0.480126
2607.71	0.362919
2609.07	0.430464
2610.43	0.467948
2611.79	0.149998
2613.16	-0.138993
2614.52	0.00219505
2615.88	0.140758
2617.24	0.00490423
2618.6	-0.322087
2619.96	-0.299199
2621.32	-0.223152
2622.68	0.105267
2624.04	0.154652
2625.4	0.30365
2626.76	0.756406
2628.12	1.08718
2629.48	1.56077
2630.84	1.47617
2632.2	2.61248
2633.56	2.88051
2634.92	2.70011
2636.28	3.18253
2637.63	3.65212
2638.99	3.36794
2640.35	3.52721
2641.71	3.77954
2643.06	4.15685
2644.42	4.55382
2645.77	4.30377
2647.13	5.67677
2648.49	5.37988
2649.84	4.36747
2651.2	4.44403
2652.55	4.63367
2653.91	3.80683
2655.26	4.69883
2656.62	4.82564
2657.97	5.1101
2659.33	5.10434
2660.68	5.21919
2662.03	5.43312
2663.39	5.77515
2664.74	5.56401
2666.09	5.62144
2667.44	5.36732
2668.8	5.14371
2670.15	4.7739
2671.5	4.48327
2672.85	4.09458
2674.2	3.5772
2675.55	3.5443
2676.91	2.93169
2678.26	2.47691
2679.61	2.42445
2680.96	2.7947
2682.31	3.04869
2683.66	3.26646
2685	2.94073
2686.35	3.35802
2687.7	3.20098
2689.05	3.55541
2690.4	4.41606
2691.75	4.7959
2693.1	5.15487
2694.44	5.71151
2695.79	5.89888
2697.14	7.0006
2698.49	7.78615
2699.83	8.52486
2701.18	8.50469
2702.52	8.37051
2703.87	8.91144
2705.22	9.17192
2706.56	9.63175
2707.91	9.46269
2709.25	9.21283
2710.6	9.79706
2711.94	10.2694
2713.29	10.1162
2714.63	10.2418
2715.97	9.37391
2717.32	10.2278
2718.66	10.7435
2720.01	10.6054
2721.35	10.7869
2722.69	11.2442
2724.03	10.9556
2725.38	10.7328
2726.72	10.7494
2728.06	10.9736
2729.4	11.1048
2730.74	10.9801
2732.08	10.2997
2733.42	10.1674
2734.76	10.6545
2736.1	10.1901
2737.44	9.84798
2738.78	9.26725
2740.12	9.59376
2741.46	9.67798
2742.8	9.78864
2744.14	9.43365
2745.48	10.0543
2746.82	9.5958
2748.16	9.38292
2749.49	8.80296
2750.83	7.8204
2752.17	7.3791
2753.51	7.44161
2754.84	7.13086
2756.18	7.70539
2757.52	7.41521
2758.85	7.25085
2760.19	7.68642
2761.53	7.95514
2762.86	8.26464
2764.2	8.51655
2765.53	8.70474
2766.87	8.60874
2768.2	8.2728
2769.54	7.97148
2770.87	7.74104
2772.2	6.77725
2773.54	6.74146
2774.87	5.79566
2776.2	5.21526
2777.54	5.7206
2778.87	5.45217
2780.2	5.03613
2781.53	4.98795
2782.87	5.25719
2784.2	5.42171
2785.53	5.05371
2786.86	4.98261
2788.19	4.95752
2789.52	5.01133
2790.85	4.73846
2792.18	4.67629
2793.51	4.74326
2794.84	5.30569
2796.17	5.48653
2797.5	5.29759
2798.83	5.21257
2800.16	5.5106
2801.49	5.84992
2802.82	4.98933
2804.15	5.03608
2805.47	5.34586
2806.8	5.81356
2808.13	5.58459
2809.46	5.66546
2810.78	5.11384
2812.11	4.70068
2813.44	5.03456
2814.76	5.33711
2816.09	6.01438
2817.42	6.71134
2818.74	8.13266
2820.07	9.59701
2821.39	11.0773
2822.72	12.6636
2824.04	14.0524
2825.37	15.6011
2826.69	18.1243
2828.02	19.8417
2829.34	21.7246
2830.66	22.9694
2831.99	25.069
2833.31	27.474
2834.63	29.3191
2835.96	32.2529
2837.28	35.006
2838.6	37.236
2839.92	39.8974
2841.24	42.1191
2842.57	45.2159
2843.89	49.4717
2845.21	52.4809
2846.53	56.3157
2847.85	60.2207
2849.17	64.5
2850.49	69.3194
2851.81	74.7763
2853.13	78.8891
2854.45	84.1573
2855.77	88.6646
2857.09	92.5551
2858.41	97.3844
2859.72	101.821
2861.04	106.705
2862.36	109.912
2863.68	113.724
2865	117.01
2866.31	120.421
2867.63	123.72
2868.95	127.304
2870.26	130.77
2871.58	134.114
2872.9	136.606
2874.21	139.074
2875.53	141.661
2876.84	143.996
2878.16	146.852
2879.47	149.201
2880.79	150.613
2882.1	152.758
2883.42	154.442
2884.73	156.958
2886.05	158.606
2887.36	160.535
2888.67	162.163
2889.99	163.231
2891.3	164.717
2892.61	167.035
2893.92	168.514
2895.24	171.266
2896.55	173.637
2897.86	177.452
2899.17	180.779
2900.48	183.439
2901.79	186.378
2903.11	188.948
2904.42	192.507
2905.73	196.329
2907.04	200.542
2908.35	205.834
2909.66	210.996
2910.97	216.012
2912.27	221.74
2913.58	227.299
2914.89	233.337
2916.2	238.786
2917.51	243.884
2918.82	248.608
2920.13	253.233
2921.43	256.459
2922.74	260.266
2924.05	263.465
2925.35	265.971
2926.66	268.405
2927.97	268.765
2929.27	270.115
2930.58	270.449
2931.89	271.514
2933.19	271.81
2934.5	271.082
2935.8	270.221
2937.11	268.511
2938.41	266.802
2939.72	264.833
2941.02	262.108
2942.32	258.665
2943.63	255.283
2944.93	250.995
2946.24	247.439
2947.54	243.922
2948.84	240.179
2950.14	236.291
2951.45	231.359
2952.75	226.569
2954.05	221.644
2955.35	216.702
2956.65	212.289
2957.95	208.802
2959.26	204.865
2960.56	200.517
2961.86	195.351
2963.16	191.094
2964.46	186.478
2965.76	181.41
2967.06	176.496
2968.36	172.728
2969.66	168.769
2970.96	164.782
2972.25	160.847
2973.55	157.052
2974.85	152.991
2976.15	149.267
2977.45	145.669
2978.74	142.004
2980.04	138.264
2981.34	134.083
2982.64	130.086
2983.93	126.165
2985.23	121.085
2986.52	117.05
2987.82	112.59
2989.12	108.672
2990.41	104.547
2991.71	100.37
2993	95.4433
2994.3	92.0085
2995.59	88.1159
2996.89	84.1633
2998.18	80.5783
2999.48	76.1629
3000.77	72.8673
3002.06	69.0685
3003.36	66.6474
3004.65	62.9985
3005.94	59.2412
3007.23	56.71
3008.53	53.8845
3009.82	51.8586
3011.11	50.0173
3012.4	48.1407
3013.69	45.9741
3014.99	43.6816
3016.28	41.6336
3017.57	39.755
3018.86	38.7388
3020.15	37.1864
3021.44	36.0651
3022.73	35.0931
3024.02	33.3295
3025.31	31.4153
3026.6	30.3781
3027.89	29.7689
3029.18	28.7541
3030.46	27.4908
3031.75	26.7017
3033.04	26.5806
3034.33	26.0706
3035.62	25.8048
3036.9	25.1594
3038.19	24.9722
3039.48	25.2359
3040.76	25.7006
3042.05	26.3509
3043.34	26.8836
3044.62	27.325
3045.91	27.9015
3047.19	28.0241
3048.48	28.6617
3049.77	28.8877
3051.05	29.3633
3052.34	29.345
3053.62	29.6549
3054.9	29.4604
3056.19	29.0434
3057.47	28.692
3058.76	28.5258
3060.04	28.2652
3061.32	28.2398
3062.61	28.1152
3063.89	27.2602
3065.17	27.2757
3066.45	26.605
3067.74	25.6057
3069.02	24.116
3070.3	23.5974
3071.58	23.4303
3072.86	22.325
3074.14	22.0942
3075.42	21.1967
3076.7	20.2508
3077.99	18.7318
3079.26	17.4643
3080.54	16.7327
3081.82	15.2941
3083.1	13.8322
3084.38	12.1257
3085.66	11.205
3086.94	10.0731
3088.22	8.96058
3089.5	7.94504
3090.78	7.64541
3092.05	6.44614
3093.33	5.2847
3094.61	4.26955
3095.89	2.97595
3097.16	2.81738
3098.44	2.5357
3099.72	2.06355
3100.99	1.83502
3102.27	1.1722
3103.54	1.56477
3104.82	1.27574
3106.1	1.35036
3107.37	0.944233
3108.65	0.558924
3109.92	-0.0145522
3111.2	-0.354404
3112.47	-0.475452
3113.74	-0.0827794
3115.02	-0.501148
3116.29	-0.317421
3117.56	-0.441435
3118.84	-0.316656
3120.11	-0.54965
3121.38	-0.26232
3122.66	-0.107002
3123.93	0.124807
3125.2	0.124012
3126.47	-0.166054
3127.74	0.0736765
3129.01	-0.0692909
3130.29	-0.610387
3131.56	-0.15071
3132.83	0.636445
3134.1	1.33628
3135.37	1.55897
3136.64	1.62708
3137.91	2.06789
3139.18	2.32182
3140.45	2.15354
3141.72	2.22903
3142.99	2.69729
3144.26	2.98069
3145.52	3.4594
3146.79	3.79124
3148.06	3.76867
3149.33	2.86611
