#Acq. time (s)=	45
#Accumulations=	2
#Range (cm-¹)=	200...3150
#Windows=	2
#Auto scanning=	Off
#Autofocus=	Off
#Macrospot=	Off
#AutoExposure=	Off
#Spike filter=	Multiple accum.
#Delay time (s)=	0
#Binning=	1
#Readout mode=	Signal
#DeNoise=	Off
#ICS correction=	On
#Dark correction=	Off
#Inst. Process=	Off
#Detector Gain=	Best Dynamic Range
#Detector ADC=	20 kHz       
#Detector temperature (°C)=	-69.85
#Instrument=	LabRAM HR Evol
#Detector=	Synapse
#Objective=	x100
#Grating=	600 gr/mm
#ND Filter=	100%
#Laser (nm)=	532 
#Hole=	100.021
#Range=	Auto
#Laser Pol.=	No
#Raman. Pol.=	No
#Laser Pol. (°)=	-0.0007625
#Raman Pol. (°)=	89.9995
#Collection=	Microscope
#StageXY=	Marzhauser
#StageZ=	Marzhauser
#X (µm)=	8993.4
#Y (µm)=	-3090.6
#Z (µm)=	-54.55
#Full time(mm:ss)=	3:19
#Project=	
#Sample=	
#Site=	
#Title=	Thy_00_07_9_2x_45s_532 nm_x100_100%_600 gr_mm
#Remark=	
#Date=	28.06.2022 10:40
#Acquired=	28.06.2022 10:40:07
#Base:Fit=	10.08.2022 10:07:56
#Base:Sub=	10.08.2022 10:08:40
#Filter:Polynom=	16.08.2022 10:26:06
#AxisType[0]=Intens
#AxisUnit[0]=Cnt
#AxisType[1]=Spectr
#AxisUnit[1]=1/cm
200.407	41.5521
202.221	41.5741
204.035	39.1637
205.849	35.392
207.665	32.8437
209.478	31.2132
211.291	30.4144
213.104	28.6733
214.916	26.7382
216.73	24.7176
218.541	23.2239
220.352	21.953
222.163	20.0751
223.973	19.7324
225.785	19.0653
227.595	18.9752
229.404	16.8155
231.213	15.8946
233.022	14.3771
234.83	13.8014
236.638	13.4802
238.448	12.5109
240.255	11.3599
242.062	10.1075
243.868	8.79388
245.675	8.03316
247.48	7.45775
249.286	7.33711
251.091	7.96458
252.896	7.69848
254.702	7.70072
256.506	8.22261
258.31	7.27865
260.113	6.32671
261.916	7.07902
263.719	6.85625
265.521	5.54477
267.323	5.01614
269.125	3.63259
270.926	3.82198
272.727	2.83189
274.527	1.37464
276.328	1.45347
278.127	0.989439
279.927	0.659333
281.726	1.61915
283.525	2.30727
285.323	2.18464
287.121	3.13661
288.919	3.12336
290.716	2.18337
292.513	3.43562
294.31	5.2116
296.104	8.14045
297.9	9.81592
299.696	10.5869
301.491	10.8957
303.286	10.7404
305.081	11.5584
306.875	12.7883
308.669	13.867
310.463	14.685
312.256	15.9553
314.047	17.0157
315.839	16.6133
317.631	17.3361
319.423	16.0647
321.215	18.2901
323.006	18.8435
324.794	19.9254
326.585	19.6654
328.375	19.6396
330.165	19.3793
331.954	19.0586
333.741	18.9418
335.53	19.5746
337.318	18.8328
339.106	18.6004
340.894	18.9691
342.679	18.1624
344.466	17.5497
346.253	16.8882
348.039	16.4509
349.823	16.8797
351.608	17.1575
353.393	16.7685
355.176	17.1483
356.961	17.5813
358.745	18.0474
360.529	18.0626
362.31	18.906
364.093	19.2107
365.876	20.4404
367.657	22.046
369.439	23.8314
371.221	24.9541
373	25.7754
374.781	26.7112
376.56	27.2148
378.34	27.5557
380.12	29.4281
381.898	30.3898
383.677	31.8735
385.456	32.4472
387.233	32.7505
389.011	32.9796
390.787	33.0938
392.565	32.3776
394.34	30.987
396.117	30.3807
397.894	30.3826
399.668	30.1011
401.444	28.6683
403.217	27.7975
404.993	26.3102
406.766	25.6438
408.54	25.1414
410.312	24.7548
412.086	21.9618
413.858	20.1399
415.631	18.2179
417.402	16.2184
419.174	13.7433
420.944	11.6403
422.716	10.6792
424.486	9.41229
426.257	7.30556
428.025	6.58607
429.794	5.62394
431.564	5.0425
433.332	3.32235
435.101	2.61936
436.868	2.54056
438.637	1.94736
440.403	1.78229
442.169	2.10922
443.937	2.74608
445.703	3.63252
447.468	4.70001
449.234	4.61788
450.999	5.83092
452.765	5.53185
454.528	6.82515
456.292	7.99403
458.057	8.09198
459.819	9.56924
461.582	9.50037
463.344	11.4279
465.107	12.2805
466.868	13.8202
468.629	15.6591
470.392	16.2101
472.152	17.7998
473.912	16.9208
475.672	18.3465
477.433	20.0941
479.192	21.268
480.951	21.8964
482.709	23.5296
484.469	26.4189
486.226	28.7847
487.984	30.469
489.74	31.7412
491.499	34.052
493.255	34.73
495.011	37.1277
496.767	39.125
498.522	39.1382
500.277	40.5506
502.033	41.8874
503.788	42.5595
505.541	42.7365
507.295	44.1617
509.048	44.7392
510.801	45.1304
512.553	44.1531
514.308	42.9286
516.06	42.0033
517.811	41.7505
519.562	40.5987
521.313	39.4516
523.063	40.2917
524.814	39.034
526.563	37.7003
528.313	37.397
530.062	36.157
531.811	34.6843
533.559	32.8886
535.308	30.7692
537.055	28.7583
538.803	27.117
540.55	25.7139
542.297	24.2636
544.043	22.6425
545.789	21.1513
547.535	20.5803
549.281	17.9121
551.026	16.3009
552.771	13.9504
554.515	12.1257
556.259	11.311
558.003	9.62839
559.747	8.25174
561.49	7.27826
563.233	7.28469
564.975	6.6389
566.717	5.79909
568.459	5.02453
570.2	5.37009
571.942	6.11004
573.68	5.82883
575.421	5.00419
577.161	4.17198
578.901	4.56113
580.64	4.47299
582.379	5.88671
584.118	5.62636
585.855	5.15352
587.593	4.78385
589.331	4.42477
591.068	4.64315
592.805	4.39549
594.54	4.74105
596.277	3.77195
598.013	3.73884
599.749	3.50201
601.484	3.10043
603.217	2.76569
604.952	4.17911
606.687	4.3357
608.421	5.28014
610.153	4.13926
611.886	3.21305
613.619	3.69943
615.35	4.20181
617.083	3.62786
618.815	4.16665
620.547	3.65277
622.276	3.90814
624.008	3.94627
625.738	3.00861
627.467	3.12557
629.197	3.07193
630.927	3.82348
632.655	3.29416
634.384	2.76319
636.113	1.90972
637.839	1.75125
639.568	2.02932
641.293	1.78657
643.021	2.41408
644.748	1.08244
646.473	0.663981
648.2	0.138972
649.924	-0.0124174
651.65	0.252934
653.376	1.26407
655.099	1.07677
656.824	1.31017
658.546	1.86284
660.271	2.23547
661.993	2.58394
663.716	4.46207
665.438	5.00838
667.161	4.91696
668.881	5.17914
670.604	3.91802
672.324	5.04204
674.045	6.12501
675.765	7.4534
677.486	8.50137
679.204	9.14615
680.925	9.50064
682.643	9.80561
684.361	10.6886
686.08	10.4198
687.797	10.4354
689.516	11.4177
691.232	12.8035
692.95	12.7289
694.666	12.8803
696.382	13.3044
698.099	14.8212
699.813	15.7017
701.528	16.6327
703.244	16.5426
704.958	17.9821
706.673	17.4414
708.387	18.1181
710.099	18.5163
711.814	18.6887
713.526	20.3222
715.238	20.9531
716.949	21.4179
718.663	22.4988
720.374	24.5559
722.084	26.5512
723.796	27.2027
725.506	28.3092
727.216	28.3822
728.925	29.631
730.636	30.7033
732.345	33.2997
734.053	34.0905
735.761	36.0386
737.471	37.8194
739.178	41.2079
740.885	45.324
742.592	49.6855
744.298	54.8602
746.006	58.7742
747.712	62.2588
749.417	65.6633
751.122	68.1047
752.827	72.1016
754.532	75.4773
756.236	79.2227
757.942	82.8548
759.645	85.2734
761.348	87.018
763.051	89.1236
764.753	89.5384
766.456	89.6461
768.158	90.58
769.859	91.2272
771.56	91.0074
773.261	91.5816
774.964	91.6886
776.664	91.0042
778.364	90.8191
780.064	89.6246
781.763	87.4044
783.462	86.3684
785.16	84.5999
786.859	83.0227
788.557	81.2946
790.255	80.218
791.952	77.9859
793.649	76.4911
795.346	74.4019
797.042	72.6069
798.738	70.9053
800.434	68.6658
802.127	66.1038
803.823	64.5244
805.517	61.7509
807.212	58.7325
808.906	55.3263
810.6	53.0208
812.293	51.5784
813.987	51.7484
815.68	51.0929
817.372	49.4421
819.064	48.7607
820.754	50.4896
822.446	51.7651
824.137	53.9327
825.828	55.6985
827.519	55.9888
829.209	56.6583
830.897	57.4147
832.587	57.4648
834.276	57.2848
835.966	57.8048
837.654	58.6103
839.341	57.4054
841.029	57.4022
842.717	57.5406
844.404	53.6425
846.091	50.3098
847.776	48.8102
849.463	48.5672
851.149	49.08
852.833	49.2322
854.519	48.6638
856.204	48.2361
857.889	47.1337
859.572	46.3537
861.256	45.6176
862.94	45.338
864.622	44.5692
866.305	42.5478
867.988	42.9915
869.669	42.2047
871.351	40.5599
873.033	40.5741
874.713	39.3519
876.395	37.9058
878.074	36.577
879.755	35.2406
881.435	34.3046
883.114	33.5525
884.794	32.2875
886.471	31.5205
888.15	31.7139
889.829	30.1497
891.506	28.8526
893.184	27.9924
894.861	28.2389
896.538	29.4279
898.214	29.6607
899.891	29.6535
901.566	29.9589
903.242	31.7097
904.916	32.6702
906.592	32.8569
908.266	33.2288
909.941	33.8243
911.614	33.5518
913.288	33.4672
914.961	34.2589
916.635	32.722
918.306	32.9264
919.979	33.1207
921.651	32.6372
923.321	30.9082
924.994	30.0617
926.664	28.6659
928.336	26.0342
930.005	28.4371
931.674	30.384
933.345	31.4654
935.014	29.7183
936.682	27.8151
938.352	26.6728
940.019	26.5932
941.687	25.3722
943.356	24.3081
945.022	22.6692
946.689	21.3158
948.357	19.7903
950.022	18.1053
951.688	18.1432
953.355	17.0009
955.02	15.5665
956.684	15.6035
958.348	13.1119
960.014	11.2273
961.678	10.1484
963.341	9.65196
965.004	10.6715
966.669	10.8508
968.331	11.0472
969.993	11.936
971.655	13.1964
973.316	13.758
974.979	15.2085
976.64	16.755
978.3	19.2738
979.961	22.4432
981.62	23.2375
983.28	24.2094
984.941	25.0364
986.6	25.4783
988.259	25.1277
989.917	25.8167
991.575	27.4421
993.233	29.125
994.89	30.7892
996.547	32.9298
998.204	35.7727
999.86	37.9403
1001.52	41.2312
1003.17	44.0564
1004.83	46.666
1006.49	48.4125
1008.14	50.9691
1009.79	52.7031
1011.45	55.4413
1013.1	57.257
1014.76	57.7854
1016.41	58.8597
1018.06	59.3134
1019.72	60.1354
1021.37	61.1091
1023.02	61.0516
1024.67	60.3438
1026.32	60.3525
1027.97	60.0079
1029.62	59.0311
1031.27	57.8042
1032.92	55.6498
1034.57	52.863
1036.22	50.6573
1037.87	48.7411
1039.52	46.0998
1041.17	43.4765
1042.82	42.1829
1044.47	40.9312
1046.11	39.9502
1047.76	38.7188
1049.41	36.4725
1051.06	35.8447
1052.7	34.3953
1054.35	33.8675
1055.99	31.6905
1057.64	31.5536
1059.28	31.6472
1060.93	31.9821
1062.57	30.9321
1064.22	28.1555
1065.86	27.5994
1067.5	27.1185
1069.15	27.4473
1070.79	28.7725
1072.43	31.8935
1074.08	33.7091
1075.72	34.7484
1077.36	35.6689
1079	37.6945
1080.64	38.621
1082.28	39.8797
1083.92	41.731
1085.56	41.8528
1087.2	42.6356
1088.84	43.5611
1090.48	44.3611
1092.12	46.0331
1093.76	47.6249
1095.39	47.3755
1097.03	48.0526
1098.67	48.6067
1100.31	49.0131
1101.94	48.3826
1103.58	48.3963
1105.22	47.0899
1106.85	46.7612
1108.49	46.0396
1110.12	44.8743
1111.76	43.8427
1113.39	41.9998
1115.03	41.4473
1116.66	39.8603
1118.29	39.5054
1119.93	37.9646
1121.56	36.6903
1123.19	35.1364
1124.82	33.3888
1126.46	31.662
1128.09	31.5695
1129.72	31.097
1131.35	30.5313
1132.98	30.7745
1134.61	30.4081
1136.24	30.9882
1137.87	29.6067
1139.5	30.3692
1141.13	29.8535
1142.76	28.3888
1144.39	26.4722
1146.01	26.5514
1147.64	26.3571
1149.27	26.48
1150.9	25.9922
1152.53	24.6316
1154.15	22.5924
1155.78	19.8328
1157.4	17.0149
1159.03	15.6533
1160.65	15.2459
1162.28	13.0466
1163.9	11.673
1165.53	10.2921
1167.15	9.00481
1168.78	9.0248
1170.4	8.48002
1172.02	8.47393
1173.65	8.9073
1175.27	7.25544
1176.89	6.46429
1178.51	6.31771
1180.14	5.96206
1181.76	6.36057
1183.38	5.46646
1185	5.73433
1186.62	6.09099
1188.24	7.68155
1189.86	9.15826
1191.48	9.19701
1193.1	9.54163
1194.71	10.039
1196.33	12.2757
1197.95	14.2652
1199.57	16.5371
1201.19	17.031
1202.8	19.3618
1204.42	20.8624
1206.04	23.2476
1207.65	26.055
1209.27	28.8799
1210.88	30.9357
1212.5	33.1072
1214.12	35.3041
1215.73	37.3671
1217.35	38.8126
1218.96	40.38
1220.57	42.7168
1222.19	43.6605
1223.8	45.6635
1225.41	47.4338
1227.03	50.5014
1228.64	51.8675
1230.25	53.8536
1231.86	54.209
1233.47	54.8947
1235.08	55.7511
1236.69	56.4882
1238.31	56.8462
1239.92	57.2981
1241.52	57.3615
1243.13	56.2179
1244.74	54.6478
1246.35	54.9316
1247.96	54.709
1249.57	54.3996
1251.18	53.8068
1252.78	52.9351
1254.39	51.8523
1256	51.2269
1257.6	50.3161
1259.21	49.6615
1260.82	48.2722
1262.42	46.5341
1264.03	45.0006
1265.63	44.1785
1267.24	43.6692
1268.84	43.8583
1270.45	43.3145
1272.05	42.5239
1273.65	43.0532
1275.26	43.5665
1276.86	44.3732
1278.46	45.0009
1280.06	43.553
1281.67	44.4178
1283.27	46.3857
1284.87	47.5849
1286.47	48.5701
1288.07	49.754
1289.67	51.3319
1291.27	52.189
1292.87	53.8331
1294.47	55.2907
1296.07	58.4044
1297.67	61.1165
1299.27	62.9491
1300.87	65.7235
1302.47	70.0192
1304.06	74.477
1305.66	77.9125
1307.26	81.7877
1308.85	84.8871
1310.45	87.8455
1312.05	90.8221
1313.64	94.1004
1315.24	95.8285
1316.83	97.7007
1318.43	99.4372
1320.02	100.778
1321.62	102.519
1323.21	103.692
1324.8	104.984
1326.4	107.766
1327.99	107.623
1329.59	108.269
1331.18	108.509
1332.77	109.104
1334.36	109.637
1335.95	109.26
1337.54	107.923
1339.14	106.87
1340.73	105.291
1342.32	104.364
1343.91	103.291
1345.5	102.122
1347.09	101.485
1348.67	100.601
1350.26	99.2303
1351.85	98.2295
1353.44	96.6149
1355.03	95.538
1356.62	93.7892
1358.2	92.1807
1359.79	90.9103
1361.38	90.361
1362.96	88.8208
1364.55	86.9707
1366.14	85.3025
1367.72	84.2186
1369.31	82.95
1370.89	81.9615
1372.48	82.5039
1374.06	82.2648
1375.64	83.0172
1377.23	81.782
1378.81	80.1743
1380.39	81.2928
1381.98	80.7465
1383.56	78.9798
1385.14	79.0161
1386.72	77.9856
1388.3	76.9045
1389.89	75.6324
1391.47	74.7542
1393.05	72.6077
1394.63	70.6847
1396.21	68.9219
1397.79	67.7983
1399.37	66.5969
1400.95	65.7437
1402.52	65.0121
1404.1	65.2209
1405.68	64.7186
1407.26	63.7416
1408.84	65.2627
1410.42	66.3247
1411.99	67.8114
1413.57	68.9782
1415.15	70.4122
1416.72	71.0969
1418.3	73.0487
1419.87	75.0937
1421.45	78.6479
1423.02	81.7113
1424.6	84.7519
1426.17	88.523
1427.75	91.0608
1429.32	95.5742
1430.89	98.1546
1432.47	101.117
1434.04	105.252
1435.61	108.163
1437.18	111.02
1438.76	113.611
1440.33	116.067
1441.9	118.362
1443.47	119.998
1445.04	122.067
1446.61	122.882
1448.18	123.667
1449.75	125.109
1451.32	125.683
1452.89	124.854
1454.46	123.162
1456.03	121.9
1457.6	120.115
1459.16	118.981
1460.73	117.51
1462.3	114.337
1463.87	111.886
1465.43	107.188
1467	103.247
1468.56	97.4265
1470.13	92.197
1471.7	86.5418
1473.26	82.0255
1474.83	77.2931
1476.39	72.8483
1477.96	67.4125
1479.52	62.6047
1481.08	57.6201
1482.65	53.2606
1484.21	48.0609
1485.77	43.8731
1487.34	40.6459
1488.9	37.3639
1490.46	34.0456
1492.02	31.7693
1493.58	29.2954
1495.15	26.8307
1496.71	26.1666
1498.27	24.3081
1499.83	23.0952
1501.39	21.4317
1502.95	20.8005
1504.51	20.9827
1506.07	20.4724
1507.63	21.3123
1509.18	21.1947
1510.74	21.5012
1512.3	21.9134
1513.86	21.5702
1515.41	23.0095
1516.97	23.8243
1518.53	25.0563
1520.08	26.4561
1521.64	28.113
1523.2	30.1496
1524.75	32.4271
1526.31	34.7857
1527.86	37.3119
1529.42	39.4265
1530.97	41.3537
1532.52	43.0055
1534.08	45.9915
1535.63	47.1645
1537.19	50.0253
1538.74	52.3549
1540.29	52.4654
1541.84	53.455
1543.4	54.7163
1544.95	56.0433
1546.5	56.3688
1548.05	59.2788
1549.6	61.2477
1551.15	63.6758
1552.7	66.0434
1554.25	66.7976
1555.8	67.6198
1557.35	69.6077
1558.9	71.1304
1560.45	73.9627
1562	76.6748
1563.54	78.6486
1565.09	80.3661
1566.64	82.5119
1568.19	84.1309
1569.73	86.2064
1571.28	87.9771
1572.83	89.0514
1574.37	90.2116
1575.92	91.2243
1577.47	91.8102
1579.01	93.0648
1580.56	94.5391
1582.1	94.4446
1583.64	95.6277
1585.19	96.6848
1586.73	97.4471
1588.28	98.3692
1589.82	98.3441
1591.36	98.9827
1592.9	99.7302
1594.45	99.7492
1595.99	99.9656
1597.53	99.9956
1599.07	98.8938
1600.61	97.3951
1602.15	96.2059
1603.69	95.559
1605.23	95.158
1606.77	93.6867
1608.31	91.7577
1609.85	91.6164
1611.39	91.7733
1612.93	91.4519
1614.47	91.6399
1616.01	90.0245
1617.55	87.9503
1619.08	86.7652
1620.62	86.6321
1622.16	86.1334
1623.7	85.2305
1625.23	85.4531
1626.77	84.7861
1628.3	84.5114
1629.84	83.8223
1631.37	82.6095
1632.91	81.7489
1634.44	81.754
1635.98	81.7283
1637.51	82.0921
1639.05	81.6428
1640.58	81.0439
1642.11	81.2059
1643.65	81.4901
1645.18	82.9299
1646.71	83.721
1648.24	84.259
1649.78	83.4731
1651.31	84.3759
1652.84	84.5946
1654.37	83.4839
1655.9	83.3808
1657.43	83.5379
1658.96	83.0806
1660.49	83.2988
1662.02	82.6409
1663.55	81.4727
1665.08	80.9977
1666.61	79.8789
1668.14	78.6076
1669.66	77.2657
1671.19	75.1266
1672.72	72.6135
1674.25	70.8502
1675.77	67.9532
1677.3	65.9572
1678.83	64.4474
1680.35	63.145
1681.88	60.0166
1683.4	57.7932
1684.93	55.4772
1686.45	54.3425
1687.98	50.9646
1689.5	48.3325
1691.03	45.6286
1692.55	42.32
1694.07	39.6674
1695.6	37.5865
1697.12	34.2144
1698.64	31.3539
1700.17	29.1485
1701.69	27.2163
1703.21	24.5032
1704.73	21.9288
1706.25	19.9745
1707.77	18.1779
1709.29	16.2108
1710.81	15.4728
1712.33	14.1017
1713.85	12.8239
1715.37	12.4849
1716.89	11.5457
1718.41	10.7902
1719.93	10.2459
1721.45	9.95626
1722.97	8.40726
1724.49	7.53238
1726	7.70329
1727.52	7.40227
1729.04	6.56801
1730.55	6.28352
1732.07	6.20257
1733.59	6.71976
1735.1	6.76525
1736.62	6.31752
1738.13	6.47281
1739.65	5.95545
1741.16	6.73939
1742.68	5.68975
1744.19	4.24043
1745.7	4.35905
1747.22	4.09211
1748.73	3.51939
1750.24	2.70204
1751.76	1.35161
1753.27	1.42872
1754.78	1.80624
1756.29	1.88141
1757.8	1.36427
1759.31	1.41788
1760.83	1.20138
1762.34	1.5218
1763.85	1.59573
1765.36	1.77034
1766.87	1.33523
1768.38	0.823728
1769.89	0.046057
1771.39	-0.535158
1772.9	-1.07403
1774.41	-0.336404
1775.92	0.0909804
1777.43	-0.753643
1778.94	-1.25073
1780.44	-1.23513
1781.95	-1.2491
1783.46	-1.26203
1784.96	-1.59169
1786.47	-1.23448
1787.97	-1.23214
1789.48	-0.361664
1790.99	-0.0614221
1792.49	-0.734347
1794	-0.56759
1795.5	-0.641618
1797	-0.57278
1798.51	-0.340615
1800.01	-0.46772
1801.51	0.384966
1803.02	0.691147
1804.52	0.783961
1806.02	1.03761
1807.53	0.769008
1809.03	1.56832
1810.53	1.52633
1812.03	1.72198
1813.53	2.35665
1815.03	2.29105
1816.53	2.72705
1818.03	2.21686
1819.53	3.30566
1821.03	3.84698
1822.53	4.12639
1824.03	3.5838
1825.53	3.68152
1827.03	3.89923
1828.53	4.4348
1830.02	4.9095
1831.52	4.40734
1833.02	4.11597
1834.52	3.82125
1836.01	3.93896
1837.51	4.16311
1839.01	4.1366
1840.5	3.50329
1842	3.99128
1843.49	4.00579
1844.99	3.62072
1846.48	3.88339
1847.98	3.37775
1849.47	3.35922
1850.97	3.21986
1852.46	3.11145
1853.95	2.73981
1855.45	2.87367
1856.94	2.96025
1858.43	3.10797
1859.93	3.12238
1861.42	3.55833
1862.91	3.95061
1864.4	4.03654
1865.89	3.10398
1867.38	3.06057
1868.87	3.04807
1870.36	2.98473
1871.85	2.67984
1873.34	3.03124
1874.83	3.2433
1876.32	3.91838
1877.81	3.68805
1879.3	3.79895
1880.79	4.32786
1882.28	4.34551
1882.52	4.93511
1884.02	5.24313
1885.51	6.1549
1887.01	6.68846
1888.5	7.17677
1889.99	7.22302
1891.49	7.99233
1892.98	8.19631
1894.47	8.59614
1895.97	8.48571
1897.46	8.42918
1898.95	8.11375
1900.44	7.59982
1901.93	7.4388
1903.42	6.98696
1904.91	6.54124
1906.4	6.87832
1907.89	6.9063
1909.38	7.17464
1910.87	7.47147
1912.36	6.94967
1913.85	7.45259
1915.34	7.82495
1916.83	7.16353
1918.32	7.31213
1919.8	7.00484
1921.29	6.83561
1922.78	7.2112
1924.27	7.32628
1925.75	7.4378
1927.24	7.2503
1928.73	8.21199
1930.21	8.133
1931.7	8.33254
1933.18	8.59379
1934.67	8.422
1936.15	8.52609
1937.64	8.01869
1939.12	7.91699
1940.61	8.3501
1942.09	8.76027
1943.57	8.44132
1945.06	8.80425
1946.54	8.86381
1948.02	7.74454
1949.51	7.87785
1950.99	8.58042
1952.47	8.3672
1953.95	8.5835
1955.43	9.35765
1956.91	9.35561
1958.4	9.19223
1959.88	9.18313
1961.36	9.04447
1962.84	8.29092
1964.32	7.45536
1965.8	7.63073
1967.27	6.56803
1968.75	6.5368
1970.23	5.70968
1971.71	4.68539
1973.19	3.36765
1974.67	2.54828
1976.14	2.77068
1977.62	3.05501
1979.1	2.55354
1980.58	2.202
1982.05	1.57988
1983.53	1.44941
1985	1.46916
1986.48	1.08809
1987.95	1.17727
1989.43	1.20527
1990.9	1.17747
1992.38	1.40197
1993.85	0.949079
1995.33	1.06661
1996.8	0.862575
1998.27	1.40252
1999.75	0.905723
2001.22	1.26439
2002.69	1.3464
2004.16	1.13216
2005.64	1.31022
2007.11	1.15772
2008.58	1.43821
2010.05	2.04554
2011.52	2.82302
2012.99	3.6579
2014.46	3.95724
2015.93	4.23988
2017.4	4.05857
2018.87	4.71536
2020.34	5.15223
2021.81	5.95022
2023.28	7.21408
2024.75	8.1863
2026.22	8.55427
2027.69	9.46932
2029.15	9.80806
2030.62	9.71122
2032.09	9.93772
2033.56	10.0902
2035.02	10.638
2036.49	10.8295
2037.96	11.4805
2039.42	11.6558
2040.89	11.8061
2042.35	11.7324
2043.82	11.241
2045.28	11.1956
2046.75	11.4731
2048.21	11.3075
2049.67	11.5015
2051.14	11.35
2052.6	11.165
2054.07	11.8844
2055.53	12.3958
2056.99	12.5074
2058.45	12.8862
2059.92	13.3164
2061.38	13.3735
2062.84	12.8756
2064.3	11.9985
2065.76	10.7779
2067.22	10.0569
2068.68	10.0823
2070.14	9.74471
2071.6	9.14886
2073.06	7.95204
2074.52	7.66076
2075.98	6.59714
2077.44	6.37074
2078.9	5.40165
2080.36	5.13914
2081.82	5.0911
2083.27	4.7959
2084.73	4.80466
2086.19	4.1069
2087.65	3.84913
2089.1	3.13558
2090.56	3.66078
2092.02	3.67624
2093.47	3.96827
2094.93	3.95599
2096.38	3.77826
2097.84	3.93839
2099.29	3.67402
2100.75	3.68848
2102.2	4.01035
2103.66	3.80082
2105.11	3.74139
2106.56	3.45457
2108.02	4.31454
2109.47	4.14065
2110.92	3.57384
2112.38	3.11139
2113.83	3.11614
2115.28	2.88594
2116.73	2.96941
2118.18	4.09081
2119.63	4.30533
2121.09	4.38373
2122.54	5.18316
2123.99	5.65578
2125.44	6.53893
2126.89	6.69769
2128.34	7.03197
2129.79	7.02449
2131.23	6.39413
2132.68	6.49156
2134.13	5.80081
2135.58	5.45238
2137.03	5.36952
2138.48	5.03139
2139.92	5.53892
2141.37	5.35738
2142.82	4.69558
2144.27	4.02992
2145.71	3.61685
2147.16	3.07346
2148.6	2.83463
2150.05	3.25333
2151.49	2.29332
2152.94	3.19819
2154.38	3.26321
2155.83	3.84332
2157.27	4.31139
2158.72	4.52139
2160.16	4.61508
2161.6	4.33181
2163.05	5.34977
2164.49	5.62879
2165.93	6.17621
2167.38	6.43968
2168.82	5.99493
2170.26	6.43722
2171.7	6.46882
2173.14	6.59792
2174.58	6.15687
2176.03	5.80388
2177.47	5.75016
2178.91	5.81839
2180.35	5.97948
2181.79	5.70743
2183.23	6.22582
2184.67	6.98671
2186.1	6.88917
2187.54	6.96919
2188.98	7.24087
2190.42	7.46529
2191.86	6.62446
2193.3	6.46903
2194.73	6.6438
2196.17	6.91279
2197.61	7.93896
2199.05	8.02294
2200.48	8.70142
2201.92	8.83986
2203.35	8.98283
2204.79	9.55279
2206.22	8.99059
2207.66	8.22817
2209.1	8.20525
2210.53	8.90952
2211.97	8.66831
2213.4	8.82164
2214.83	8.82108
2216.27	8.67072
2217.7	8.35573
2219.13	8.17856
2220.57	8.60311
2222	8.56931
2223.43	8.7274
2224.86	10.2472
2226.29	10.2015
2227.72	10.1174
2229.16	9.5348
2230.59	8.54341
2232.02	7.79354
2233.45	7.60231
2234.88	7.38961
2236.31	7.16962
2237.74	6.30622
2239.17	5.70228
2240.6	5.00809
2242.03	5.33576
2243.45	5.72923
2244.88	6.20081
2246.31	6.23518
2247.74	6.63175
2249.17	6.75588
2250.59	7.60815
2252.02	8.34886
2253.45	9.51289
2254.87	10.0186
2256.3	9.48484
2257.73	9.42044
2259.15	9.8833
2260.58	10.0133
2262	10.5086
2263.43	11.2723
2264.85	12.3237
2266.28	13.0457
2267.7	13.3882
2269.13	14.0627
2270.55	14.3525
2271.97	13.8984
2273.4	14.0462
2274.82	14.1258
2276.24	13.762
2277.67	13.4207
2279.09	14.045
2280.51	15.2104
2281.93	15.2537
2283.35	14.717
2284.77	15.3806
2286.2	14.6457
2287.62	13.9197
2289.04	13.2402
2290.46	12.6517
2291.88	12.3518
2293.3	11.8827
2294.72	11.2693
2296.13	10.6039
2297.55	9.97191
2298.97	9.71235
2300.39	9.14446
2301.81	8.39986
2303.23	7.54456
2304.64	7.69097
2306.06	7.67459
2307.48	7.76734
2308.89	7.55505
2310.31	7.44955
2311.73	7.94763
2313.14	8.7288
2314.56	8.59584
2315.98	7.89428
2317.39	7.8328
2318.81	7.78222
2320.22	8.40516
2321.64	8.90798
2323.05	8.97534
2324.46	8.59191
2325.88	7.72884
2327.29	7.50798
2328.7	8.06958
2330.12	7.54604
2331.53	7.68378
2332.94	7.26014
2334.35	6.70969
2335.77	6.41507
2337.18	6.8707
2338.59	6.35599
2340	6.1305
2341.41	5.86722
2342.82	5.4279
2344.23	6.7281
2345.64	6.75625
2347.05	6.14952
2348.46	6.5233
2349.87	7.10277
2351.28	6.62286
2352.69	6.06679
2354.1	6.1776
2355.51	5.50301
2356.91	4.31475
2358.32	3.635
2359.73	2.7911
2361.14	2.25679
2362.54	2.34851
2363.95	2.36022
2365.36	3.34904
2366.76	3.91991
2368.17	4.00689
2369.58	3.63429
2370.98	3.42249
2372.39	3.57198
2373.79	4.18668
2375.2	3.88886
2376.6	3.19588
2378	2.22917
2379.41	1.87652
2380.81	2.01393
2382.22	2.25542
2383.62	1.83707
2385.02	1.20806
2386.43	1.18918
2387.83	1.73609
2389.23	1.29369
2390.63	1.26122
2392.03	0.889351
2393.44	1.24949
2394.84	1.18184
2396.24	1.44526
2397.64	2.37985
2399.04	2.71923
2400.44	2.11172
2401.84	2.19102
2403.24	2.88025
2404.64	4.0507
2406.04	5.6559
2407.44	6.4189
2408.84	6.03936
2410.23	7.25423
2411.63	8.5727
2413.03	9.59919
2414.43	10.878
2415.83	11.3272
2417.22	11.6282
2418.62	12.2195
2420.02	12.3955
2421.41	12.4615
2422.81	12.8383
2424.21	13.0298
2425.6	12.8944
2427	12.9996
2428.39	13.6329
2429.79	14.1733
2431.18	15.0893
2432.58	16.3624
2433.97	17.0356
2435.36	16.6295
2436.76	15.9336
2438.15	16.0161
2439.54	15.2184
2440.94	15.2221
2442.33	14.7325
2443.72	14.2147
2445.12	12.7007
2446.51	12.6405
2447.9	12.0373
2449.29	11.8466
2450.68	11.0101
2452.07	9.77363
2453.46	8.52874
2454.85	7.37371
2456.24	7.11171
2457.64	6.95793
2459.02	6.79913
2460.41	6.66659
2461.8	6.73532
2463.19	6.66169
2464.58	5.96371
2465.97	6.44636
2467.36	5.99944
2468.75	5.98079
2470.13	5.75641
2471.52	5.85107
2472.91	6.98162
2474.3	6.07937
2475.68	6.04226
2477.07	5.33433
2478.45	5.50286
2479.84	6.11667
2481.23	5.42978
2482.61	5.56234
2484	5.76101
2485.38	6.06219
2486.77	5.8304
2488.15	6.48664
2489.54	6.7561
2490.92	6.8361
2492.3	7.61931
2493.69	7.57476
2495.07	8.16717
2496.45	7.99415
2497.84	8.60042
2499.22	8.98381
2500.6	8.75644
2501.98	8.64667
2503.36	7.53992
2504.75	7.00086
2506.13	7.59791
2507.51	7.91011
2508.89	7.93616
2510.27	9.04382
2511.65	9.83207
2513.03	9.83224
2514.41	9.87191
2515.79	10.0115
2517.17	10.0154
2518.55	9.93997
2519.93	10.3754
2521.3	10.46
2522.68	11.0864
2524.06	11.345
2525.44	12.1549
2526.82	12.9554
2528.19	13.3831
2529.57	13.2259
2530.95	13.5289
2532.32	13.6684
2533.7	13.7408
2535.08	13.9286
2536.45	13.0079
2537.83	12.961
2539.2	12.4984
2540.58	12.4192
2541.95	12.6453
2543.33	11.5766
2544.7	11.4227
2546.08	10.5054
2547.45	10.7749
2548.82	10.6172
2550.2	9.58614
2551.57	10.346
2552.94	10.1653
2554.32	10.1799
2555.69	9.19688
2557.06	8.84043
2558.43	7.89085
2559.8	7.42939
2561.18	6.81989
2562.55	6.27148
2563.92	6.77052
2565.29	7.20571
2566.66	7.62681
2568.03	7.29628
2569.4	6.4878
2570.77	5.79314
2572.14	5.64029
2573.51	6.09672
2574.88	6.21891
2576.25	6.15518
2577.61	5.79224
2578.98	5.5578
2580.35	5.77886
2581.72	5.29026
2583.09	4.79684
2584.45	4.73963
2585.82	5.55985
2587.19	5.64366
2588.55	6.17039
2589.92	5.87484
2591.29	6.51481
2592.65	6.39617
2594.02	6.97105
2595.38	7.53589
2596.75	6.85284
2598.11	6.2941
2599.48	6.11662
2600.84	5.78546
2602.21	6.57487
2603.57	6.81843
2604.93	7.50839
2606.3	7.91024
2607.66	8.66339
2609.02	9.50595
2610.39	9.55154
2611.75	9.72736
2613.11	10.4808
2614.47	11.1057
2615.83	13.0793
2617.19	13.1003
2618.56	13.3878
2619.92	14.3225
2621.28	14.8222
2622.64	15.811
2624	16.1565
2625.36	16.9504
2626.72	17.4127
2628.08	18.2935
2629.44	18.6888
2630.8	19.6748
2632.15	20.0682
2633.51	19.6803
2634.87	18.7899
2636.23	18.2385
2637.59	17.8736
2638.94	18.2304
2640.3	18.8198
2641.66	19.0558
2643.02	19.1181
2644.37	18.8581
2645.73	19.041
2647.09	18.7698
2648.44	19.1304
2649.8	19.2676
2651.15	19.0873
2652.51	19.511
2653.86	19.2954
2655.22	17.9751
2656.57	16.7514
2657.93	16.8127
2659.28	16.2826
2660.63	15.4005
2661.99	15.1943
2663.34	14.0512
2664.69	12.9574
2666.05	12.6039
2667.4	12.8808
2668.75	12.4181
2670.1	13.0825
2671.45	12.4388
2672.81	12.3177
2674.16	12.154
2675.51	12.815
2676.86	12.8877
2678.21	12.7213
2679.56	12.2695
2680.91	12.4716
2682.26	12.3506
2683.61	12.372
2684.96	12.1411
2686.31	12.7085
2687.66	13.0012
2689	13.9206
2690.35	13.9692
2691.7	14.1427
2693.05	13.9925
2694.4	13.896
2695.74	14.9802
2697.09	15.071
2698.44	15.7036
2699.79	16.3395
2701.13	16.7456
2702.48	17.6416
2703.83	18.1769
2705.17	19.0356
2706.52	19.4884
2707.86	19.9727
2709.21	20.097
2710.55	20.4379
2711.9	20.5628
2713.24	21.0239
2714.58	20.9861
2715.93	21.4424
2717.27	20.8204
2718.62	20.0032
2719.96	19.6951
2721.3	19.3535
2722.65	18.8501
2723.99	18.5721
2725.33	19.1635
2726.67	18.4328
2728.01	17.5979
2729.35	17.5218
2730.7	16.393
2732.04	16.2786
2733.38	16.0567
2734.72	15.8142
2736.06	15.4236
2737.4	15.4961
2738.74	15.0519
2740.08	14.8206
2741.42	14.953
2742.76	14.3433
2744.1	13.6299
2745.43	12.9379
2746.77	12.4456
2748.11	12.8137
2749.45	12.4107
2750.79	12.4649
2752.12	12.7086
2753.46	12.5254
2754.8	12.2159
2756.14	11.8661
2757.47	11.7361
2758.81	12.1649
2760.14	11.8448
2761.48	11.7853
2762.81	11.7093
2764.15	11.2427
2765.49	10.6656
2766.82	10.3245
2768.16	9.48745
2769.49	8.9003
2770.82	8.58908
2772.16	8.61908
2773.49	8.61291
2774.82	8.48763
2776.16	7.46254
2777.49	7.16754
2778.82	6.50981
2780.16	6.35117
2781.49	5.67396
2782.82	5.14272
2784.15	4.07464
2785.48	3.73426
2786.82	3.17949
2788.15	3.02812
2789.48	2.5713
2790.81	2.18184
2792.14	1.97362
2793.47	1.11954
2794.8	0.0592449
2796.13	0.145169
2797.46	-0.194619
2798.79	0.0456776
2800.12	0.0176314
2801.44	0.0452033
2802.77	0.558247
2804.1	0.496335
2805.43	0.555268
2806.76	0.0870127
2808.08	-0.55668
2809.41	-1.07833
2810.74	-0.911321
2812.07	-0.956678
2813.39	-1.10614
2814.72	-0.72873
2816.05	0.176981
2817.37	1.15866
2818.7	2.59391
2820.02	4.2199
2821.35	5.47423
2822.67	6.84014
2824	8.95979
2825.32	11.1072
2826.65	13.517
2827.97	15.4124
2829.3	17.2368
2830.62	20.4005
2831.94	22.3256
2833.26	25.4591
2834.59	27.9779
2835.91	30.7427
2837.23	34.1827
2838.56	37.4241
2839.88	40.4456
2841.2	43.5628
2842.52	47.3207
2843.84	51.9566
2845.16	56.5946
2846.48	60.6587
2847.8	64.4822
2849.12	69.5663
2850.45	74.1164
2851.77	79.6981
2853.08	84.7414
2854.4	90.441
2855.72	95.6077
2857.04	100.96
2858.36	106.945
2859.68	112.062
2861	117.988
2862.32	123.381
2863.63	128.763
2864.95	133.636
2866.27	138.533
2867.59	142.46
2868.9	147.263
2870.22	151.454
2871.54	155.052
2872.85	158.098
2874.17	161.353
2875.48	165.103
2876.8	168.713
2878.11	172.325
2879.43	175.874
2880.74	179.531
2882.06	183.046
2883.37	185.733
2884.69	188.85
2886	192.203
2887.31	195.359
2888.63	198.502
2889.94	201.847
2891.25	205.224
2892.57	208.581
2893.88	211.069
2895.19	213.74
2896.5	217.866
2897.82	220.797
2899.13	224.764
2900.44	228.594
2901.75	234.125
2903.06	239.096
2904.37	244.167
2905.68	249.572
2906.99	255.135
2908.3	260.98
2909.61	267.611
2910.92	273.194
2912.23	280.186
2913.54	286.798
2914.85	294.122
2916.16	299.98
2917.46	306.027
2918.77	311.35
2920.08	317.377
2921.39	322.066
2922.7	326.571
2924	330.095
2925.31	332.483
2926.62	334.918
2927.92	336.675
2929.23	338.275
2930.54	338.482
2931.84	338.053
2933.15	336.909
2934.45	336.295
2935.76	334.253
2937.06	331.591
2938.37	328.283
2939.67	325.296
2940.98	321.308
2942.28	316.878
2943.58	311.42
2944.89	305.434
2946.19	299.552
2947.49	293.99
2948.8	288.851
2950.1	283.023
2951.4	277.205
2952.7	271.423
2954.01	265.279
2955.31	258.821
2956.61	253.159
2957.91	247.292
2959.21	241.006
2960.51	234.571
2961.81	229.708
2963.11	224.402
2964.41	219.573
2965.71	214.795
2967.01	210.094
2968.31	204.703
2969.61	200.492
2970.91	195.827
2972.21	190.906
2973.51	186.726
2974.81	182.548
2976.1	177.554
2977.4	173.619
2978.7	167.553
2980	162.723
2981.29	157.051
2982.59	151.741
2983.89	146.96
2985.18	141.412
2986.48	134.752
2987.78	129.381
2989.07	122.735
2990.37	117.447
2991.66	112.174
2992.96	106.564
2994.25	100.325
2995.55	93.8286
2996.84	87.9892
2998.14	83.1472
2999.43	78.2983
3000.73	72.9472
3002.02	67.412
3003.31	61.8342
3004.61	56.3411
3005.9	50.8442
3007.19	45.9544
3008.48	41.8859
3009.77	37.7522
3011.07	33.7081
3012.36	30.4072
3013.65	27.3484
3014.94	23.4396
3016.23	21.129
3017.52	18.4072
3018.81	15.1404
3020.1	12.806
3021.4	11.3435
3022.68	9.52002
3023.97	8.02114
3025.26	6.22927
3026.55	5.22727
3027.84	4.04565
3029.13	3.13378
3030.42	3.11941
3031.71	2.47966
3033	1.81794
3034.28	1.91529
3035.57	1.42236
3036.86	1.3257
3038.15	2.01198
3039.43	2.56865
3040.72	2.9398
3042.01	3.57337
3043.29	4.85694
3044.58	6.40557
3045.87	7.96228
3047.15	9.44436
3048.44	10.094
3049.72	10.5116
3051.01	11.5378
3052.29	13.2518
3053.58	13.1982
3054.86	15.0997
3056.15	15.3834
3057.43	15.58
3058.71	16.2229
3060	17.275
3061.28	17.9819
3062.56	17.9189
3063.84	17.5535
3065.13	17.0872
3066.41	16.6643
3067.69	16.5289
3068.97	15.1959
3070.26	14.9808
3071.54	14.0731
3072.82	14.0511
3074.1	12.3213
3075.38	11.2072
3076.66	10.5686
3077.94	9.37266
3079.22	8.37845
3080.5	7.98287
3081.78	7.01291
3083.06	6.86081
3084.34	6.62042
3085.62	6.39555
3086.9	6.13328
3088.18	5.57173
3089.45	4.36232
3090.73	4.44214
3092.01	4.555
3093.29	5.15168
3094.56	5.85177
3095.84	5.98039
3097.12	7.20069
3098.4	8.36728
3099.67	9.20385
3100.95	10.8186
3102.22	12.6439
3103.5	13.7736
3104.78	15.2414
3106.05	17.3995
3107.33	19.29
3108.6	20.6827
3109.88	22.1346
3111.15	22.9286
3112.43	23.9693
3113.7	25.8259
3114.97	27.6222
3116.25	29.2927
3117.52	30.3355
3118.79	32.5882
3120.07	33.6433
3121.34	35.4682
3122.61	37.0972
3123.88	38.3172
3125.16	38.8585
3126.43	39.796
3127.7	41.4854
3128.97	42.76
3130.24	43.7965
3131.51	45.1056
3132.79	45.7502
3134.06	47.6977
3135.33	48.5375
3136.6	49.8837
3137.87	50.2812
3139.14	51.7714
3140.41	53.2215
3141.67	54.6531
3142.94	56.227
3144.21	57.6227
3145.48	58.938
3146.75	60.2576
3148.02	61.9595
3149.29	63.3596
