#Acq. time (s)=	45
#Accumulations=	2
#Range (cm-¹)=	200...3150
#Windows=	2
#Auto scanning=	Off
#Autofocus=	Off
#Macrospot=	Off
#AutoExposure=	Off
#Spike filter=	Multiple accum.
#Delay time (s)=	0
#Binning=	1
#Readout mode=	Signal
#DeNoise=	Off
#ICS correction=	On
#Dark correction=	Off
#Inst. Process=	Off
#Detector Gain=	Best Dynamic Range
#Detector ADC=	20 kHz       
#Detector temperature (°C)=	-69.85
#Instrument=	LabRAM HR Evol
#Detector=	Synapse
#Objective=	x100
#Grating=	600 gr/mm
#ND Filter=	100%
#Laser (nm)=	532 
#Hole=	100.021
#Range=	Auto
#Laser Pol.=	No
#Raman. Pol.=	No
#Laser Pol. (°)=	-0.0007625
#Raman Pol. (°)=	89.9995
#Collection=	Microscope
#StageXY=	Marzhauser
#StageZ=	Marzhauser
#X (µm)=	-1439.6
#Y (µm)=	-615.3
#Z (µm)=	-227.95
#Full time(mm:ss)=	3:18
#Project=	
#Sample=	
#Site=	
#Title=	Thy_00_07_44_2x_45s_532 nm_x100_100%_600 gr_mm
#Remark=	
#Date=	29.06.2022 09:37
#Acquired=	29.06.2022 09:37:24
#Base:Fit=	10.08.2022 10:07:56
#Base:Sub=	10.08.2022 10:08:40
#Filter:Polynom=	16.08.2022 10:26:06
#AxisType[0]=Intens
#AxisUnit[0]=Cnt
#AxisType[1]=Spectr
#AxisUnit[1]=1/cm
200.523	39.755
202.339	36.8511
204.154	34.2676
205.967	31.9636
207.781	29.593
209.596	27.4908
211.409	26.2141
213.222	25.087
215.034	24.3673
216.848	22.8681
218.659	21.915
220.47	19.6358
222.281	18.4062
224.091	17.9227
225.903	16.8848
227.713	16.6468
229.522	15.675
231.331	14.5503
233.14	13.0506
234.948	12.2793
236.756	11.5464
238.566	10.8561
240.373	10.3142
242.18	9.3725
243.986	9.12275
245.792	9.12228
247.598	9.06624
249.403	8.16423
251.208	8.06514
253.013	8.7888
254.818	7.60946
256.624	8.04645
258.427	7.18159
260.231	7.26046
262.034	6.38727
263.836	5.71986
265.638	5.18162
267.44	5.08229
269.242	5.1226
271.043	4.29143
272.844	3.90248
274.645	3.12845
276.445	3.5554
278.245	4.08021
280.044	3.66863
281.843	3.43116
283.642	3.35382
285.44	3.32986
287.238	3.37673
289.036	4.48244
290.833	5.25547
292.63	6.62761
294.425	6.93181
296.221	7.28329
298.017	8.46339
299.813	9.77552
301.608	10.0837
303.403	9.96285
305.198	10.3871
306.992	10.7211
308.786	11.8866
310.579	11.8294
312.371	12.9052
314.163	13.2418
315.956	13.4613
317.748	13.9956
319.54	13.2607
321.331	13.3601
323.122	13.8329
324.911	13.7376
326.701	14.1208
328.491	13.9785
330.281	14.1139
332.071	13.9454
333.857	14.6725
335.646	14.2119
337.434	14.0559
339.222	13.8451
341.008	13.6763
342.795	13.2131
344.582	11.9145
346.369	11.6907
348.153	9.99766
349.939	9.00721
351.724	8.11787
353.51	7.79813
355.292	6.90986
357.077	6.98049
358.861	5.87808
360.643	4.91615
362.426	5.14311
364.21	4.39768
365.99	4.73063
367.773	4.3415
369.555	4.18941
371.335	2.98423
373.116	3.16441
374.897	3.62236
376.676	3.28165
378.456	3.37661
380.236	3.15892
382.014	2.84848
383.793	2.45716
385.57	1.71182
387.349	1.80448
389.127	1.31454
390.903	1.69434
392.681	1.58565
394.456	1.502
396.233	1.55999
398.007	1.43428
399.784	1.18417
401.56	1.20449
403.333	1.48249
405.108	1.49657
406.881	1.5757
408.656	1.51571
410.428	2.35531
412.202	2.34664
413.973	2.01676
415.746	1.75563
417.517	2.32482
419.29	3.21351
421.06	3.51432
422.831	3.75114
424.601	3.17618
426.37	3.33373
428.141	2.9414
429.909	2.95302
431.679	3.40257
433.447	3.44573
435.216	4.88728
436.983	5.59622
438.75	5.87811
440.519	5.78362
442.285	5.53731
444.052	5.69269
445.818	6.44126
447.583	6.10215
449.349	7.65677
451.114	7.7854
452.878	8.09381
454.643	8.80864
456.407	8.78083
458.169	8.80842
459.934	9.06047
461.696	8.87102
463.458	8.79851
465.222	9.23809
466.983	10.3648
468.744	11.459
470.507	11.9495
472.267	11.2824
474.027	11.3515
475.787	12.5599
477.548	12.7596
479.307	13.9478
481.065	13.7936
482.823	14.1162
484.583	14.8579
486.341	15.4302
488.098	16.5739
489.855	17.6768
491.612	18.8119
493.37	18.7875
495.126	20.1476
496.881	20.6678
498.636	21.5554
500.391	21.7156
502.148	22.261
503.902	21.9186
505.656	23.4256
507.409	22.4912
509.162	22.4169
510.915	22.2725
512.668	22.4737
514.42	23.5304
516.174	24.9961
517.925	25.5356
519.676	26.2711
521.427	26.8464
523.178	27.6885
524.928	26.3671
526.678	25.2674
528.427	24.3095
530.176	24.1875
531.925	23.9475
533.673	24.1301
535.422	23.6109
537.169	22.3224
538.917	21.1673
540.664	21.1513
542.411	20.0897
544.157	19.2732
545.903	18.406
547.649	17.4943
549.395	16.0049
551.14	15.7996
552.884	15.3619
554.629	14.7467
556.373	13.6829
558.117	13.1004
559.86	11.6057
561.603	12.4714
563.346	11.5865
565.089	10.4672
566.831	10.2086
568.573	9.48681
570.314	9.24372
572.053	9.95759
573.794	9.80387
575.534	9.48119
577.274	8.54343
579.014	7.73577
580.754	6.32403
582.493	6.18474
584.23	5.46585
585.968	5.61307
587.706	5.21309
589.444	5.38154
591.181	4.90501
592.919	5.51759
594.653	5.50258
596.39	6.00502
598.126	5.60161
599.862	6.14432
601.595	6.62108
603.33	7.37171
605.065	7.81966
606.8	8.69156
608.532	8.71594
610.266	8.55201
611.999	8.03697
613.732	8.27593
615.463	8.43838
617.196	8.42
618.928	8.51766
620.66	8.6922
622.389	8.45764
624.12	7.92464
625.851	9.72442
627.58	10.2144
629.31	9.08333
631.04	8.72531
632.767	8.88099
634.497	9.44196
636.223	9.73434
637.952	9.40947
639.68	10.7809
641.406	12.2792
643.134	13.2167
644.861	14.7524
646.586	14.7385
648.312	15.6183
650.037	15.6647
651.762	15.6063
653.486	16.9532
655.211	17.0882
656.936	17.5864
658.659	17.5503
660.383	16.8579
662.105	16.4146
663.829	17.3615
665.55	18.3384
667.273	19.3442
668.994	20.7593
670.716	22.4124
672.436	23.2735
674.158	23.9471
675.877	23.8704
677.598	23.5893
679.317	24.3246
681.035	24.6367
682.755	24.9089
684.473	25.9149
686.192	27.9629
687.909	29.9313
689.628	31.6481
691.344	32.4767
693.06	32.6686
694.778	33.0963
696.493	33.4174
698.211	34.188
699.925	35.43
701.64	35.6503
703.356	35.3571
705.07	36.4463
706.783	37.0543
708.498	37.6596
710.211	38.5284
711.924	39.6049
713.638	39.098
715.35	39.2603
717.061	41.2267
718.774	42.6509
720.485	43.6476
722.196	43.2928
723.906	44.2406
725.618	47.109
727.328	48.1662
729.037	49.2816
730.746	49.91
732.456	49.2753
734.165	50.0379
735.873	50.0672
737.58	49.8942
739.289	51.5949
740.997	51.5112
742.703	52.7715
744.41	54.2044
746.116	56.0076
747.823	57.7811
749.529	60.2271
751.234	61.3675
752.938	62.0496
754.643	62.5876
756.347	63.2094
758.051	64.0235
759.756	64.7175
761.459	65.2269
763.162	65.5698
764.865	66.6656
766.567	67.289
768.269	68.0035
769.97	69.0396
771.671	70.4906
773.372	71.126
775.073	71.4042
776.773	71.5855
778.473	71.7635
780.174	72.7614
781.874	73.186
783.573	74.3393
785.271	74.627
786.97	74.3528
788.668	74.2466
790.365	75.4548
792.063	75.8864
793.76	76.9842
795.456	77.564
797.153	78.0422
798.847	78.7996
800.543	80.1223
802.238	80.6351
803.933	79.9179
805.628	79.0626
807.322	79.1982
809.017	80.2806
810.71	81.3503
812.404	80.3019
814.097	79.3509
815.79	79.3273
817.483	79.7647
819.173	80.6444
820.865	80.751
822.556	81.8239
824.248	82.576
825.939	82.6798
827.629	82.8667
829.318	83.1658
831.008	81.9787
832.697	81.1834
834.387	80.0954
836.076	78.5282
837.765	77.1081
839.451	76.1025
841.139	74.9595
842.827	73.6882
844.514	71.6865
846.2	70.0617
847.886	68.3995
849.573	67.4956
851.259	65.3725
852.943	64.7295
854.629	63.5536
856.314	61.8584
857.997	60.3974
859.682	59.0494
861.366	58.2798
863.05	56.9494
864.732	56.3429
866.415	54.528
868.098	53.0826
869.779	51.7141
871.461	51.3225
873.141	50.7397
874.823	50.1673
876.505	50.0044
878.184	50.3993
879.865	49.2822
881.545	49.642
883.223	49.5206
884.903	49.1687
886.581	48.6746
888.26	48.1916
889.937	48.3594
891.616	49.4037
893.294	49.8528
894.97	50.461
896.648	50.4463
898.323	51.4505
900	53.425
901.675	53.5231
903.351	54.0232
905.026	54.5247
906.701	55.2877
908.375	55.9995
910.05	56.1089
911.723	56.5577
913.398	56.6779
915.07	56.6523
916.742	56.19
918.415	55.8557
920.087	55.6444
921.76	55.2961
923.43	55.0406
925.103	55.2982
926.773	55.8203
928.443	56.0626
930.114	55.4335
931.783	54.3596
933.454	53.6331
935.123	52.342
936.791	51.513
938.461	49.4702
940.128	48.3533
941.796	47.6734
943.464	46.5656
945.131	46.0759
946.797	44.0708
948.465	42.8771
950.131	41.6556
951.797	40.3169
953.462	39.1401
955.128	38.015
956.793	35.5918
958.457	33.679
960.121	33.0701
961.786	32.3754
963.45	31.9707
965.113	33.5006
966.775	33.9102
968.44	34.41
970.102	34.1662
971.763	35.0361
973.425	35.7328
975.086	36.7874
976.748	37.0058
978.409	37.2001
980.069	37.0038
981.729	37.3207
983.388	37.5442
985.048	36.7052
986.708	35.9362
988.367	35.5048
990.025	35.1225
991.683	35.1258
993.341	34.7022
994.998	35.0052
996.655	34.4711
998.312	34.459
999.969	34.1322
1001.62	35.2201
1003.28	36.048
1004.94	35.7703
1006.59	36.5433
1008.25	37.1576
1009.9	37.417
1011.56	37.2871
1013.21	36.428
1014.86	35.7121
1016.52	35.1328
1018.17	33.9432
1019.82	32.8475
1021.48	32.7356
1023.13	32.2055
1024.78	31.0652
1026.43	29.9195
1028.08	29.3994
1029.73	27.7003
1031.38	26.833
1033.03	24.9848
1034.68	23.2232
1036.33	22.4809
1037.98	22.2756
1039.63	21.1378
1041.28	21.8006
1042.93	22.3332
1044.57	22.9814
1046.22	23.8385
1047.87	23.9192
1049.52	22.7288
1051.16	22.0132
1052.81	21.7757
1054.45	21.4225
1056.1	19.959
1057.75	19.0173
1059.39	17.362
1061.04	16.2316
1062.68	15.6707
1064.32	15.102
1065.97	14.252
1067.61	13.5659
1069.25	13.4592
1070.9	13.8513
1072.54	14.4281
1074.18	15.0711
1075.82	15.1607
1077.47	15.3737
1079.11	16.0871
1080.75	16.701
1082.39	16.9429
1084.03	17.4469
1085.67	18.0614
1087.31	17.8689
1088.95	18.3905
1090.59	19.1838
1092.22	19.7514
1093.86	20.9066
1095.5	21.2353
1097.14	21.4067
1098.78	22.5389
1100.41	23.3975
1102.05	23.8809
1103.69	24.3391
1105.32	24.3727
1106.96	24.0097
1108.59	23.1182
1110.23	23.1731
1111.86	22.9024
1113.5	23.0344
1115.13	22.0515
1116.77	22.8956
1118.4	22.0984
1120.03	21.1902
1121.67	20.0653
1123.3	19.5223
1124.93	19.0284
1126.56	18.1816
1128.19	18.0434
1129.83	17.1425
1131.46	17.2229
1133.09	16.3586
1134.72	15.8948
1136.35	15.6543
1137.98	15.4996
1139.61	14.1936
1141.24	13.6664
1142.86	12.97
1144.49	13.1602
1146.12	12.084
1147.75	11.9579
1149.38	11.5242
1151	10.9924
1152.63	10.4985
1154.26	9.96608
1155.88	9.12278
1157.51	8.79377
1159.14	8.77158
1160.76	8.04598
1162.39	7.43437
1164.01	5.85451
1165.63	6.06366
1167.26	6.03396
1168.88	5.61655
1170.51	6.47614
1172.13	7.44198
1173.75	8.13914
1175.38	9.21794
1177	9.74327
1178.62	9.67289
1180.24	10.0069
1181.86	9.57299
1183.48	9.29865
1185.1	8.97284
1186.72	9.38977
1188.34	9.50825
1189.96	10.075
1191.58	11.3655
1193.2	11.6292
1194.82	11.6868
1196.44	10.8411
1198.06	11.2447
1199.68	10.7548
1201.29	12.0663
1202.91	12.8299
1204.53	14.1084
1206.14	15.7235
1207.76	17.1253
1209.38	18.7121
1210.99	19.9132
1212.61	21.9535
1214.22	22.8695
1215.84	25.0274
1217.45	26.6651
1219.07	27.8075
1220.68	29.8065
1222.29	32.3137
1223.91	34.5991
1225.52	36.8974
1227.13	37.9537
1228.74	39.4668
1230.36	40.502
1231.97	41.338
1233.58	42.4768
1235.19	43.4595
1236.8	44.4535
1238.41	45.9079
1240.02	46.9318
1241.63	47.5451
1243.24	48.6509
1244.85	49.2078
1246.46	50.7678
1248.07	51.5711
1249.67	52.5478
1251.28	53.2001
1252.89	52.1497
1254.5	52.3316
1256.1	51.9138
1257.71	50.6597
1259.32	50.3031
1260.92	49.6568
1262.53	49.4373
1264.13	47.4986
1265.74	46.7826
1267.34	45.917
1268.95	45.8895
1270.55	44.9506
1272.15	43.3874
1273.76	42.2592
1275.36	42.0744
1276.97	41.4343
1278.57	42.5616
1280.17	44.1235
1281.77	44.924
1283.37	45.398
1284.97	46.8022
1286.58	47.7811
1288.18	48.0284
1289.78	48.8498
1291.38	50.4591
1292.98	51.5344
1294.58	52.047
1296.18	52.8181
1297.78	53.7932
1299.37	56.3246
1300.97	57.3307
1302.57	58.5479
1304.17	59.6461
1305.77	60.5126
1307.36	62.2082
1308.96	64.5141
1310.55	66.3134
1312.15	68.0315
1313.75	70.2521
1315.34	71.7084
1316.94	73.3006
1318.53	75.0098
1320.13	76.347
1321.72	76.4164
1323.32	76.2152
1324.91	76.8382
1326.5	76.7845
1328.1	77.2128
1329.69	75.9831
1331.28	74.6238
1332.87	73.2184
1334.47	73.5458
1336.06	72.8439
1337.65	71.7383
1339.24	71.6416
1340.83	70.2375
1342.42	69.1831
1344.01	67.7124
1345.6	67.528
1347.19	66.7592
1348.78	65.8431
1350.37	63.872
1351.96	62.4237
1353.54	61.4489
1355.13	60.9507
1356.72	59.7591
1358.31	58.3271
1359.89	56.6639
1361.48	53.9146
1363.07	52.3284
1364.65	50.7964
1366.24	48.7819
1367.82	46.6431
1369.41	46.0102
1370.99	44.6196
1372.58	43.6708
1374.16	42.9519
1375.75	42.6105
1377.33	43.1587
1378.91	43.0199
1380.5	41.767
1382.08	41.7468
1383.66	41.5638
1385.25	42.0584
1386.83	42.4344
1388.41	41.574
1389.99	41.0058
1391.57	40.6028
1393.15	40.6417
1394.73	40.572
1396.31	40.077
1397.89	39.0303
1399.47	38.0955
1401.05	37.983
1402.63	38.6063
1404.21	39.8618
1405.78	39.9966
1407.36	40.5889
1408.94	40.6012
1410.52	42.5998
1412.1	43.9016
1413.67	45.9656
1415.25	47.1424
1416.82	47.986
1418.4	50.0116
1419.98	52.0279
1421.55	54.1113
1423.13	56.5628
1424.7	58.0508
1426.28	60.4434
1427.85	62.8562
1429.42	65.4291
1431	67.2463
1432.57	69.8092
1434.14	71.9717
1435.71	73.154
1437.29	74.6186
1438.86	76.9441
1440.43	78.2522
1442	80.084
1443.57	82.0435
1445.14	82.9543
1446.71	83.9347
1448.28	85.2142
1449.85	86.2316
1451.42	86.7469
1452.99	86.5781
1454.56	87.0662
1456.13	85.9566
1457.7	83.4107
1459.26	81.5971
1460.83	80.1585
1462.4	78.5577
1463.97	76.1298
1465.54	73.4698
1467.1	70.2234
1468.67	67.9086
1470.23	65.307
1471.8	62.6407
1473.36	59.2684
1474.93	55.4369
1476.49	51.4829
1478.06	49.4246
1479.62	47.1887
1481.19	44.1954
1482.75	41.3933
1484.31	38.3375
1485.88	35.4934
1487.44	33.0656
1489	30.1262
1490.56	27.4354
1492.13	26.1461
1493.69	23.679
1495.25	22.0341
1496.81	20.9057
1498.37	20.5042
1499.93	18.7239
1501.49	17.5114
1503.05	16.2059
1504.61	15.7606
1506.17	15.4033
1507.73	14.3098
1509.28	12.9535
1510.84	13.2082
1512.4	11.7052
1513.96	10.7266
1515.52	10.4286
1517.07	10.4273
1518.63	10.2044
1520.19	10.7668
1521.74	10.418
1523.3	9.71244
1524.85	9.90984
1526.41	10.6476
1527.96	11.6856
1529.52	12.9827
1531.07	13.9699
1532.63	14.5726
1534.18	14.7346
1535.73	16.4492
1537.29	19.062
1538.84	20.4886
1540.39	21.9155
1541.94	22.746
1543.5	24.2547
1545.05	26.2603
1546.6	28.1802
1548.15	29.9562
1549.7	31.3233
1551.25	33.967
1552.8	36.0996
1554.35	38.0697
1555.9	41.0969
1557.45	42.8679
1559	44.8485
1560.55	45.8737
1562.1	47.2666
1563.65	48.7341
1565.19	50.9445
1566.74	52.8741
1568.29	55.2188
1569.83	56.9583
1571.38	57.7685
1572.93	59.1519
1574.47	60.1895
1576.02	61.806
1577.56	62.5576
1579.11	63.639
1580.66	64.512
1582.2	64.7797
1583.74	66.5657
1585.29	66.712
1586.83	66.9928
1588.38	67.5729
1589.92	66.8329
1591.46	67.1023
1593.01	67.195
1594.55	66.523
1596.09	65.4686
1597.63	64.467
1599.17	63.9193
1600.71	63.7344
1602.25	63.8294
1603.79	64.125
1605.34	63.1914
1606.88	63.1846
1608.41	62.2102
1609.95	61.4246
1611.49	60.4849
1613.03	59.2463
1614.57	57.7678
1616.11	55.5652
1617.65	55.115
1619.18	54.282
1620.72	55.0655
1622.26	55.2717
1623.79	54.9905
1625.33	55.5524
1626.87	55.9878
1628.4	57.4466
1629.94	56.9146
1631.48	57.1154
1633.01	58.4848
1634.55	59.4562
1636.08	60.284
1637.61	61.6403
1639.15	63.9387
1640.68	66.1115
1642.21	68.2689
1643.75	69.4147
1645.28	70.7806
1646.81	71.7705
1648.34	72.8949
1649.88	73.7341
1651.41	75.1487
1652.94	76.6681
1654.47	78.6565
1656	79.4514
1657.53	80.9733
1659.06	81.5745
1660.59	82.1636
1662.12	81.1856
1663.65	81.1079
1665.18	80.2057
1666.71	79.2254
1668.24	77.7912
1669.76	75.9729
1671.29	74.324
1672.82	72.793
1674.35	71.3583
1675.87	69.9431
1677.4	67.2175
1678.93	64.6517
1680.45	62.4078
1681.98	58.3553
1683.5	54.9028
1685.03	51.1164
1686.55	47.5022
1688.08	44.399
1689.6	41.9526
1691.13	39.485
1692.65	36.5595
1694.17	34.3208
1695.7	32.0497
1697.22	30.1904
1698.74	27.6624
1700.27	25.7144
1701.79	23.7401
1703.31	22.1344
1704.83	20.3859
1706.35	18.472
1707.87	17.5153
1709.39	16.796
1710.91	15.8926
1712.43	14.7032
1713.95	14.2985
1715.47	13.4891
1716.99	12.6341
1718.51	11.5667
1720.03	10.31
1721.55	9.66641
1723.07	8.94226
1724.58	8.69284
1726.1	8.46922
1727.62	8.84893
1729.13	9.1769
1730.65	9.86685
1732.17	9.39126
1733.68	8.8787
1735.2	7.40553
1736.72	7.3155
1738.23	7.5758
1739.74	7.22976
1741.26	6.447
1742.77	6.24064
1744.29	5.81788
1745.8	5.92647
1747.32	5.72665
1748.83	5.43189
1750.34	4.82937
1751.85	4.65999
1753.37	3.88866
1754.88	3.66281
1756.39	3.39133
1757.9	2.07653
1759.41	2.05666
1760.92	2.31227
1762.44	2.425
1763.95	2.36597
1765.46	2.03854
1766.96	1.87651
1768.47	1.79433
1769.98	1.8668
1771.49	2.08013
1773	2.21622
1774.51	2.41689
1776.02	2.06319
1777.53	2.04301
1779.03	2.04
1780.54	1.93344
1782.05	2.22942
1783.55	2.07282
1785.06	2.30135
1786.57	2.39583
1788.07	1.98535
1789.58	2.39686
1791.08	2.10187
1792.59	1.82813
1794.09	1.50865
1795.6	1.33597
1797.1	1.17064
1798.61	1.26605
1800.11	1.23774
1801.61	1.3839
1803.12	0.850346
1804.62	0.726519
1806.12	0.385873
1807.62	0.482246
1809.12	0.274296
1810.63	0.0656817
1812.13	0.668095
1813.63	0.919687
1815.13	0.573809
1816.63	0.44212
1818.13	0.588533
1819.63	0.585045
1821.13	0.500076
1822.63	0.563677
1824.13	0.73859
1825.63	0.365288
1827.13	0.661533
1828.62	0.324553
1830.12	0.498019
1831.62	0.382551
1833.12	0.179649
1834.61	0.210191
1836.11	0.163748
1837.61	0.427411
1839.1	0.944384
1840.6	0.872844
1842.09	1.3049
1843.59	1.52341
1845.09	1.66227
1846.58	2.21775
1848.08	2.10705
1849.57	2.36313
1851.06	2.00505
1852.56	2.09483
1854.05	2.15671
1855.54	2.5886
1857.04	2.37979
1858.53	2.51671
1860.02	2.3012
1861.51	2.62049
1863.01	2.58635
1864.5	3.06449
1865.99	3.09914
1867.48	2.8509
1868.97	3.11551
1870.46	2.92677
1871.95	3.28708
1873.44	3.29888
1874.93	2.92095
1876.42	2.70367
1877.91	2.58534
1879.4	2.9531
1880.89	3.44291
1882.37	3.80693
1882.46	3.29227
1883.95	2.75471
1885.45	2.78527
1886.94	3.03689
1888.43	2.41922
1889.93	2.53311
1891.42	2.8561
1892.91	2.78984
1894.41	2.70574
1895.9	3.03134
1897.39	2.25134
1898.88	1.82471
1900.37	2.03962
1901.86	1.9646
1903.36	2.02439
1904.85	2.36563
1906.34	2.74995
1907.83	3.54379
1909.32	3.69766
1910.81	4.09349
1912.29	4.25708
1913.78	4.74578
1915.27	5.67669
1916.76	5.59617
1918.25	6.38886
1919.74	6.46041
1921.23	6.22042
1922.71	7.10174
1924.2	7.4443
1925.69	7.43679
1927.17	8.10804
1928.66	8.27618
1930.15	8.47986
1931.63	8.30344
1933.12	8.55757
1934.6	9.19027
1936.09	8.99963
1937.57	9.27887
1939.06	9.2353
1940.54	9.11524
1942.02	9.14214
1943.51	8.64201
1944.99	8.36504
1946.47	7.77849
1947.96	7.94135
1949.44	8.22661
1950.92	7.96229
1952.4	7.74848
1953.88	7.85766
1955.37	7.31639
1956.85	6.42361
1958.33	5.8066
1959.81	5.64716
1961.29	5.34794
1962.77	4.71438
1964.25	4.87737
1965.73	4.54716
1967.21	4.3802
1968.69	3.76503
1970.16	3.45745
1971.64	2.72148
1973.12	3.22899
1974.6	3.32241
1976.08	3.56343
1977.55	3.56938
1979.03	4.27531
1980.51	4.28438
1981.98	4.53641
1983.46	4.70918
1984.94	5.7173
1986.41	6.38846
1987.89	7.32637
1989.36	7.37378
1990.84	7.39903
1992.31	7.71905
1993.79	7.63104
1995.26	8.07562
1996.73	8.75593
1998.21	9.22575
1999.68	9.0036
2001.15	9.24385
2002.63	9.0946
2004.1	9.18125
2005.57	8.90976
2007.04	9.28499
2008.51	9.30114
2009.99	8.83995
2011.46	8.7944
2012.93	8.46913
2014.4	8.01073
2015.87	7.5807
2017.34	7.80871
2018.81	7.92612
2020.28	8.13449
2021.75	7.51203
2023.21	7.02112
2024.68	6.3043
2026.15	6.33357
2027.62	5.71837
2029.09	5.03123
2030.56	5.15868
2032.02	4.8522
2033.49	4.63726
2034.96	4.25415
2036.42	4.43374
2037.89	4.02459
2039.36	3.34922
2040.82	3.21807
2042.29	2.47816
2043.75	2.65661
2045.22	2.38659
2046.68	2.80383
2048.14	2.67048
2049.61	3.14452
2051.07	3.60172
2052.54	4.41105
2054	4.49095
2055.46	4.92204
2056.93	5.59279
2058.39	5.67012
2059.85	5.496
2061.31	5.95241
2062.77	5.91557
2064.23	6.83212
2065.7	7.18624
2067.16	7.27076
2068.62	7.73339
2070.08	7.6876
2071.54	7.98131
2073	7.58783
2074.46	7.27284
2075.92	8.25207
2077.38	8.19072
2078.83	8.07062
2080.29	8.14744
2081.75	8.63938
2083.21	8.43612
2084.67	8.64046
2086.12	8.6575
2087.58	9.25793
2089.04	10.0808
2090.49	10.8092
2091.95	10.3684
2093.41	10.0481
2094.86	9.84829
2096.32	10.4041
2097.77	10.3931
2099.23	10.6461
2100.68	10.1763
2102.14	10.3084
2103.59	9.5821
2105.05	9.13384
2106.5	9.05838
2107.95	8.85662
2109.41	8.98724
2110.86	8.15597
2112.31	8.09295
2113.76	7.9294
2115.21	7.27123
2116.67	6.90674
2118.12	6.68294
2119.57	7.02768
2121.02	7.22161
2122.47	6.91157
2123.92	6.86819
2125.37	6.80024
2126.82	6.12121
2128.27	5.9902
2129.72	5.85152
2131.17	5.51441
2132.62	5.57733
2134.07	5.07854
2135.51	5.17454
2136.96	4.87791
2138.41	3.79699
2139.86	3.51124
2141.31	3.26067
2142.75	3.34056
2144.2	3.4806
2145.65	3.81786
2147.09	3.74556
2148.54	3.9808
2149.98	3.10648
2151.43	3.43215
2152.87	4.24959
2154.32	4.44427
2155.76	4.34004
2157.21	4.9734
2158.65	5.71241
2160.1	6.51464
2161.54	6.90129
2162.98	7.11371
2164.43	7.02052
2165.87	7.68394
2167.31	7.93521
2168.75	8.69167
2170.2	8.92614
2171.64	8.83234
2173.08	8.97574
2174.52	9.30139
2175.96	9.40289
2177.4	9.87541
2178.84	9.58884
2180.28	9.76576
2181.72	9.79041
2183.16	9.66967
2184.6	9.37085
2186.04	9.20266
2187.48	9.3165
2188.92	9.43083
2190.36	9.77647
2191.79	9.27214
2193.23	8.86867
2194.67	8.03529
2196.11	7.73027
2197.54	7.20204
2198.98	6.26796
2200.42	5.53981
2201.85	4.71448
2203.29	4.46937
2204.72	4.10473
2206.16	3.416
2207.59	3.54652
2209.03	2.6209
2210.46	2.37977
2211.9	2.29707
2213.33	2.43948
2214.77	2.91079
2216.2	2.8401
2217.63	3.34602
2219.07	2.99933
2220.5	3.5042
2221.93	3.91029
2223.36	4.51366
2224.8	4.58967
2226.23	4.81825
2227.66	4.99912
2229.09	5.30589
2230.52	5.20477
2231.95	5.45231
2233.39	5.88705
2234.81	6.18403
2236.25	6.14337
2237.67	6.822
2239.1	7.01345
2240.53	7.30977
2241.96	6.70191
2243.39	6.93573
2244.82	7.82116
2246.25	8.22003
2247.68	8.71781
2249.1	8.58139
2250.53	9.21676
2251.96	9.28641
2253.38	9.02916
2254.81	9.18493
2256.24	9.08362
2257.66	9.26395
2259.09	9.22841
2260.51	8.71686
2261.94	8.41937
2263.36	7.9484
2264.79	8.14457
2266.21	8.16998
2267.64	8.2158
2269.06	7.94246
2270.49	7.80131
2271.91	7.63214
2273.33	7.63872
2274.76	8.24476
2276.18	8.58308
2277.6	8.5468
2279.02	8.55853
2280.44	8.9385
2281.87	8.94152
2283.29	9.18348
2284.71	9.38261
2286.13	9.385
2287.55	9.80891
2288.97	9.71149
2290.39	8.91486
2291.81	8.4919
2293.23	7.78982
2294.65	7.42504
2296.07	7.86135
2297.49	7.86998
2298.91	7.74257
2300.33	8.11367
2301.74	8.14775
2303.16	8.87398
2304.58	8.95937
2306	8.61408
2307.41	8.8054
2308.83	9.30316
2310.25	9.57274
2311.66	9.53184
2313.08	9.74119
2314.5	10.6643
2315.91	10.8281
2317.33	10.3151
2318.74	9.62761
2320.16	8.93098
2321.57	8.83431
2322.98	8.48304
2324.4	8.32475
2325.81	7.99109
2327.23	7.79853
2328.64	8.03818
2330.05	7.47735
2331.46	7.25798
2332.88	7.29455
2334.29	6.82437
2335.7	6.47903
2337.11	5.9181
2338.52	5.31849
2339.94	4.84003
2341.35	4.59976
2342.76	4.23253
2344.17	3.69085
2345.58	3.75361
2346.99	3.39782
2348.4	2.83169
2349.81	2.44409
2351.22	2.14557
2352.62	1.25411
2354.03	1.20097
2355.44	0.959467
2356.85	0.684754
2358.26	-0.109634
2359.67	-0.662666
2361.07	-0.896869
2362.48	-0.980637
2363.89	-0.451401
2365.29	0.138411
2366.7	0.77363
2368.11	0.636355
2369.51	1.71052
2370.92	1.55593
2372.32	1.80544
2373.73	2.30341
2375.13	1.96937
2376.54	2.30097
2377.94	2.46616
2379.35	2.44041
2380.75	2.69107
2382.15	2.52117
2383.56	2.46909
2384.96	2.04733
2386.36	1.78114
2387.76	1.36581
2389.17	1.41733
2390.57	1.443
2391.97	1.60447
2393.37	2.26724
2394.77	2.51462
2396.17	2.05384
2397.58	2.55738
2398.98	2.95488
2400.38	2.35713
2401.78	2.79276
2403.18	2.64681
2404.58	2.88355
2405.97	3.03253
2407.37	3.64254
2408.77	4.15136
2410.17	4.63593
2411.57	5.2231
2412.97	5.79928
2414.37	6.29629
2415.76	6.94371
2417.16	6.9538
2418.56	7.08291
2419.95	7.17962
2421.35	7.29521
2422.75	7.41268
2424.14	7.86452
2425.54	7.93957
2426.93	7.62116
2428.33	7.71369
2429.72	8.20528
2431.12	8.48294
2432.51	8.44942
2433.91	8.40219
2435.3	8.29168
2436.7	7.96534
2438.09	7.76905
2439.48	7.77089
2440.88	7.00346
2442.27	6.83371
2443.66	6.30221
2445.05	5.6931
2446.44	4.90059
2447.84	4.34712
2449.23	4.57787
2450.62	4.40337
2452.01	3.93832
2453.4	3.32999
2454.79	2.95618
2456.18	3.08056
2457.57	2.33884
2458.96	2.15371
2460.35	1.48051
2461.74	1.2889
2463.13	1.12507
2464.52	0.919006
2465.91	0.671509
2467.29	1.06254
2468.68	1.02679
2470.07	0.542077
2471.46	0.806531
2472.85	1.10428
2474.23	1.69698
2475.62	1.2206
2477.01	1.79683
2478.39	1.854
2479.78	2.12942
2481.16	2.53342
2482.55	2.47304
2483.93	2.78658
2485.32	2.8603
2486.7	2.72387
2488.09	2.59425
2489.47	2.97198
2490.86	3.14456
2492.24	3.68878
2493.62	3.84643
2495.01	3.57648
2496.39	3.45278
2497.77	3.37049
2499.15	3.25514
2500.54	2.97706
2501.92	2.57871
2503.3	2.00153
2504.68	2.09023
2506.06	2.11478
2507.45	2.33709
2508.83	2.49949
2510.21	2.81656
2511.59	2.75735
2512.97	2.03521
2514.35	2.14683
2515.73	2.22246
2517.11	2.76549
2518.48	2.79301
2519.86	2.83533
2521.24	2.9327
2522.62	2.70988
2524	2.56369
2525.38	2.69247
2526.75	2.06121
2528.13	2.26604
2529.51	2.0129
2530.89	2.16707
2532.26	2.58956
2533.64	2.82225
2535.02	2.78333
2536.39	2.37515
2537.77	2.7609
2539.14	2.78356
2540.52	3.02475
2541.89	3.20862
2543.27	3.22118
2544.64	2.84452
2546.01	3.53757
2547.39	3.72693
2548.76	3.71052
2550.14	3.58249
2551.51	3.80807
2552.88	3.87336
2554.25	3.98072
2555.63	3.88786
2557	3.63052
2558.37	4.24273
2559.74	3.87183
2561.11	3.68479
2562.49	3.22751
2563.86	2.80977
2565.23	3.00584
2566.6	2.71167
2567.97	2.939
2569.34	2.61541
2570.71	2.44358
2572.08	1.92857
2573.45	2.03739
2574.82	2.0639
2576.18	1.99593
2577.55	1.67391
2578.92	1.8054
2580.29	1.6368
2581.66	1.50354
2583.02	1.37245
2584.39	0.747968
2585.76	0.858679
2587.13	0.90956
2588.49	0.904305
2589.86	0.745786
2591.22	0.11154
2592.59	0.39825
2593.96	0.766954
2595.32	0.380014
2596.69	0.638964
2598.05	0.385442
2599.42	0.688386
2600.78	0.935494
2602.14	1.38557
2603.51	1.71671
2604.87	2.02129
2606.23	2.2387
2607.6	2.05997
2608.96	2.18231
2610.32	2.36516
2611.69	2.59479
2613.05	2.70041
2614.41	3.22744
2615.77	2.98508
2617.13	2.89125
2618.49	3.02639
2619.86	3.28226
2621.22	2.70104
2622.58	2.55228
2623.94	2.14665
2625.3	1.79386
2626.66	1.65352
2628.02	1.51574
2629.37	1.74448
2630.73	1.76293
2632.09	1.59818
2633.45	1.41889
2634.81	1.20773
2636.17	1.38784
2637.53	1.69012
2638.88	1.91464
2640.24	1.78953
2641.6	1.87995
2642.96	2.11191
2644.31	1.91523
2645.67	1.78768
2647.02	1.80891
2648.38	1.88756
2649.74	1.2605
2651.09	1.00643
2652.45	2.08839
2653.8	3.04698
2655.16	3.34951
2656.51	3.59323
2657.86	4.18126
2659.22	4.24352
2660.57	4.82925
2661.93	5.52443
2663.28	5.4245
2664.63	5.63511
2665.98	5.36602
2667.34	5.78563
2668.69	6.05468
2670.04	6.4625
2671.39	6.46488
2672.75	6.86967
2674.09	6.39329
2675.45	6.8778
2676.8	7.27254
2678.15	7.56715
2679.5	7.63987
2680.85	7.23942
2682.2	7.06965
2683.55	6.44974
2684.9	6.49752
2686.25	6.49187
2687.6	6.40844
2688.94	6.52804
2690.29	6.8346
2691.64	6.6609
2692.99	6.69775
2694.34	7.05183
2695.68	6.99608
2697.03	6.90197
2698.38	6.79653
2699.73	6.74392
2701.07	6.5721
2702.42	6.81971
2703.76	7.06289
2705.11	7.58419
2706.45	7.53981
2707.8	7.69636
2709.15	8.00766
2710.49	8.0744
2711.83	8.01393
2713.18	8.56145
2714.52	8.97072
2715.87	9.4486
2717.21	9.57364
2718.55	10.4519
2719.9	11.5423
2721.24	11.6031
2722.58	11.8762
2723.93	11.7921
2725.27	11.664
2726.61	11.3296
2727.95	11.5478
2729.29	11.6571
2730.63	11.1877
2731.98	11.0187
2733.32	10.582
2734.66	10.9845
2736	11.5417
2737.34	12.071
2738.68	11.8884
2740.02	11.7498
2741.36	11.089
2742.7	11.4905
2744.03	11.4113
2745.37	11.3751
2746.71	11.0727
2748.05	10.2818
2749.39	10.5031
2750.72	10.2902
2752.06	10.2137
2753.4	9.75349
2754.74	9.30814
2756.07	9.01189
2757.41	7.96672
2758.75	7.18429
2760.08	6.84479
2761.42	6.24432
2762.76	5.51014
2764.09	5.21486
2765.42	4.8342
2766.76	4.43102
2768.09	4.40296
2769.43	4.19598
2770.76	4.13502
2772.1	4.30912
2773.43	3.79347
2774.76	3.28649
2776.1	3.01525
2777.43	2.47061
2778.76	2.16993
2780.1	1.97881
2781.43	1.86483
2782.76	1.35583
2784.09	1.82246
2785.42	2.04241
2786.75	1.64423
2788.09	0.85559
2789.42	0.536583
2790.75	0.199015
2792.08	0.11448
2793.41	-0.0204501
2794.74	0.145504
2796.07	-0.237814
2797.4	-0.17748
2798.73	-0.463719
2800.06	-0.495743
2801.39	-0.103143
2802.71	-0.164979
2804.04	-0.325174
2805.37	-0.8642
2806.7	-0.961686
2808.03	-0.378368
2809.35	-0.0300499
2810.68	-0.29389
2812.01	-0.483499
2813.33	-0.870553
2814.66	-0.2798
2815.99	0.68817
2817.31	1.48815
2818.64	1.8856
2819.96	2.83906
2821.29	4.11618
2822.61	4.87114
2823.94	6.41182
2825.26	7.68567
2826.59	9.09435
2827.91	10.9694
2829.23	12.7528
2830.56	14.5752
2831.88	16.806
2833.21	18.9658
2834.53	21.7066
2835.85	24.1771
2837.17	27.0157
2838.5	30.4834
2839.82	33.2937
2841.14	37.0418
2842.46	41.1089
2843.78	45.1994
2845.1	49.9871
2846.42	55.0214
2847.74	60.4718
2849.06	66.04
2850.38	71.4452
2851.71	76.7553
2853.03	82.3744
2854.34	87.4346
2855.66	92.7418
2856.98	98.0501
2858.3	103.065
2859.62	108.02
2860.94	113.506
2862.26	117.907
2863.57	122.49
2864.89	127.388
2866.21	131.923
2867.53	136.495
2868.84	140.395
2870.16	144.505
2871.48	148.543
2872.79	152.63
2874.11	156.08
2875.42	158.895
2876.74	161.851
2878.05	165.354
2879.37	168.989
2880.68	171.981
2882	174.843
2883.31	176.845
2884.63	178.671
2885.94	181.297
2887.26	183.193
2888.57	185.269
2889.88	187.786
2891.19	189.294
2892.51	191.949
2893.82	194.497
2895.13	197.052
2896.44	200.043
2897.76	203.413
2899.07	206.065
2900.38	209.92
2901.69	213.849
2903	218.704
2904.31	224.007
2905.62	228.968
2906.93	234.97
2908.24	240.728
2909.55	246.9
2910.86	253.515
2912.17	259.321
2913.48	265.762
2914.79	271.265
2916.1	276.659
2917.41	282.1
2918.71	286.618
2920.02	290.05
2921.33	293.493
2922.64	296.788
2923.94	299.306
2925.25	301.563
2926.56	303.048
2927.86	303.626
2929.17	304.398
2930.48	304.794
2931.78	303.923
2933.09	302.94
2934.39	301.259
2935.7	299.654
2937	297.77
2938.31	294.775
2939.61	290.507
2940.92	286.747
2942.22	283.229
2943.53	278.981
2944.83	273.608
2946.13	268.146
2947.43	263.212
2948.74	256.788
2950.04	251.918
2951.34	246.595
2952.64	241.054
2953.95	236.039
2955.25	230.515
2956.55	224.895
2957.85	219.919
2959.15	215.06
2960.45	210.141
2961.75	205.42
2963.05	200.669
2964.35	196.652
2965.65	192.908
2966.95	188.838
2968.25	184.713
2969.55	180.76
2970.85	176.73
2972.15	173.28
2973.45	169.355
2974.75	165.647
2976.05	161.779
2977.34	157.242
2978.64	152.887
2979.94	147.828
2981.24	143.235
2982.53	137.728
2983.83	132.235
2985.13	126.533
2986.42	121.581
2987.72	116.623
2989.01	111.523
2990.31	106.69
2991.61	101.149
2992.9	95.8974
2994.19	90.8542
2995.49	85.7847
2996.78	80.8983
2998.08	75.8608
2999.37	71.1544
3000.67	66.6392
3001.96	61.9436
3003.25	56.8489
3004.55	52.51
3005.84	48.7437
3007.13	45.4052
3008.42	41.2786
3009.72	38.0443
3011.01	35.4121
3012.3	32.457
3013.59	29.8108
3014.88	27.8173
3016.17	25.6196
3017.46	23.4918
3018.76	22.0758
3020.05	19.7274
3021.34	18.2363
3022.63	17.3466
3023.92	16.164
3025.21	14.9357
3026.49	14.0482
3027.78	13.0025
3029.07	12.265
3030.36	10.7912
3031.65	10.1607
3032.94	10.0435
3034.23	10.2885
3035.51	10.2976
3036.8	10.3803
3038.09	10.2675
3039.38	10.5505
3040.66	10.8885
3041.95	11.5971
3043.23	12.194
3044.52	12.8656
3045.81	13.6659
3047.09	14.4175
3048.38	15.1933
3049.66	16.2041
3050.95	16.9264
3052.23	17.1821
3053.52	17.5781
3054.8	17.5341
3056.09	17.4876
3057.37	17.8818
3058.65	18.3008
3059.94	18.7032
3061.22	19.0317
3062.5	19.1393
3063.79	18.9402
3065.07	19.0648
3066.35	18.8815
3067.63	18.6312
3068.92	18.8384
3070.2	18.3383
3071.48	18.0279
3072.76	17.027
3074.04	16.4646
3075.32	15.435
3076.6	14.5287
3077.88	13.8913
3079.16	12.7832
3080.44	12.1474
3081.72	10.9441
3083	10.3927
3084.28	9.29334
3085.56	8.71524
3086.84	7.62003
3088.12	6.51295
3089.4	5.2942
3090.67	4.19383
3091.95	3.43108
3093.23	2.72505
3094.51	2.01189
3095.78	1.714
3097.06	1.77893
3098.34	1.51582
3099.61	1.79628
3100.89	1.35836
3102.17	1.3731
3103.44	1.35208
3104.72	1.56497
3105.99	2.13424
3107.27	2.21757
3108.54	2.28492
3109.82	2.40389
3111.09	2.75046
3112.37	2.98353
3113.64	3.03812
3114.92	2.67466
3116.19	2.97842
3117.46	3.50294
3118.74	4.05687
3120.01	4.67868
3121.28	5.24064
3122.55	5.8121
3123.83	6.34756
3125.1	6.52641
3126.37	6.72412
3127.64	6.84203
3128.91	7.72863
3130.19	7.76256
3131.46	7.97082
3132.73	8.34345
3134	8.3869
3135.27	8.66174
3136.54	9.11736
3137.81	9.85392
3139.08	10.2615
3140.35	10.6817
3141.62	11.0546
3142.89	11.3624
3144.16	11.5338
3145.42	11.5747
3146.69	11.2239
3147.96	11.0198
3149.23	11.9489
