#Acq. time (s)=	45
#Accumulations=	2
#Range (cm-¹)=	200...3150
#Windows=	2
#Auto scanning=	Off
#Autofocus=	Off
#Macrospot=	Off
#AutoExposure=	Off
#Spike filter=	Multiple accum.
#Delay time (s)=	0
#Binning=	1
#Readout mode=	Signal
#DeNoise=	Off
#ICS correction=	On
#Dark correction=	Off
#Inst. Process=	Off
#Detector Gain=	Best Dynamic Range
#Detector ADC=	20 kHz       
#Detector temperature (°C)=	-69.85
#Instrument=	LabRAM HR Evol
#Detector=	Synapse
#Objective=	x100
#Grating=	600 gr/mm
#ND Filter=	100%
#Laser (nm)=	532 
#Hole=	100.021
#Range=	Auto
#Laser Pol.=	No
#Raman. Pol.=	No
#Laser Pol. (°)=	-0.0007625
#Raman Pol. (°)=	89.9995
#Collection=	Microscope
#StageXY=	Marzhauser
#StageZ=	Marzhauser
#X (µm)=	-1465.2
#Y (µm)=	-615.7
#Z (µm)=	-228.2
#Full time(mm:ss)=	3:18
#Project=	
#Sample=	
#Site=	
#Title=	Thy_00_07_43_2x_45s_532 nm_x100_100%_600 gr_mm
#Remark=	
#Date=	29.06.2022 09:32
#Acquired=	29.06.2022 09:32:18
#Base:Fit=	10.08.2022 10:07:56
#Base:Sub=	10.08.2022 10:08:40
#Filter:Polynom=	16.08.2022 10:26:06
#AxisType[0]=Intens
#AxisUnit[0]=Cnt
#AxisType[1]=Spectr
#AxisUnit[1]=1/cm
200.523	30.3332
202.339	26.5952
204.154	23.7725
205.967	21.1636
207.781	18.7276
209.596	16.5731
211.409	15.0243
213.222	13.388
215.034	12.6835
216.848	12.0014
218.659	10.8583
220.47	9.85509
222.281	8.60382
224.091	7.72096
225.903	6.4728
227.713	5.00444
229.522	4.8081
231.331	5.32397
233.14	5.5145
234.948	5.47735
236.756	4.44461
238.566	4.25109
240.373	3.99472
242.18	4.14966
243.986	3.84942
245.792	3.43945
247.598	3.61033
249.403	3.20576
251.208	3.21257
253.013	3.2692
254.818	3.58105
256.624	4.32943
258.427	3.52453
260.231	4.98397
262.034	5.69961
263.836	5.39573
265.638	5.61183
267.44	6.36215
269.242	5.63676
271.043	4.81804
272.844	3.3548
274.645	2.55963
276.445	4.0404
278.245	4.67371
280.044	4.82933
281.843	5.03445
283.642	4.75746
285.44	6.14344
287.238	6.986
289.036	8.70295
290.833	10.3837
292.63	9.77139
294.425	10.5136
296.221	11.5121
298.017	12.5235
299.813	12.9088
301.608	14.0083
303.403	13.6147
305.198	13.3926
306.992	12.385
308.786	11.2803
310.579	10.3655
312.371	11.4349
314.163	12.3456
315.956	13.3245
317.748	14.9069
319.54	16.666
321.331	17.8051
323.122	18.0444
324.911	17.909
326.701	17.3929
328.491	18.1791
330.281	18.0465
332.071	18.182
333.857	17.2633
335.646	17.7717
337.434	17.2041
339.222	16.1619
341.008	17.1332
342.795	17.7774
344.582	17.3658
346.369	16.3063
348.153	15.8
349.939	16.664
351.724	16.0513
353.51	15.0772
355.292	13.9485
357.077	12.2859
358.861	11.1244
360.643	10.303
362.426	10.4634
364.21	11.891
365.99	12.7956
367.773	12.3036
369.555	12.348
371.335	11.8704
373.116	12.0434
374.897	12.921
376.676	12.8895
378.456	13.4828
380.236	12.9148
382.014	11.441
383.793	11.6934
385.57	10.9788
387.349	10.6646
389.127	9.62208
390.903	8.40835
392.681	7.75495
394.456	7.41638
396.233	7.64387
398.007	8.05762
399.784	9.01724
401.56	11.2235
403.333	11.1375
405.108	11.5273
406.881	12.4508
408.656	12.6528
410.428	13.4117
412.202	13.3072
413.973	13.3859
415.746	12.9002
417.517	13.8592
419.29	14.3206
421.06	14.5843
422.831	13.796
424.601	13.8966
426.37	12.7684
428.141	12.5437
429.909	12.8568
431.679	12.036
433.447	11.1569
435.216	10.6869
436.983	10.8622
438.75	10.3779
440.519	9.04917
442.285	8.37753
444.052	8.32221
445.818	8.91833
447.583	9.78543
449.349	8.95245
451.114	9.92919
452.878	12.0844
454.643	11.9395
456.407	11.1579
458.169	11.6764
459.934	12.0944
461.696	12.7885
463.458	13.0942
465.222	12.8549
466.983	13.5686
468.744	14.0083
470.507	14.2948
472.267	15.8176
474.027	17.0022
475.787	16.7776
477.548	16.3923
479.307	17.1307
481.065	17.9068
482.823	18.4183
484.583	18.9428
486.341	19.718
488.098	20.9156
489.855	22.3071
491.612	22.2706
493.37	23.459
495.126	24.855
496.881	25.6543
498.636	26.5429
500.391	26.7128
502.148	27.062
503.902	27.4884
505.656	28.9187
507.409	29.322
509.162	29.1477
510.915	27.3552
512.668	27.6432
514.42	27.5185
516.174	28.4376
517.925	28.2447
519.676	27.9631
521.427	27.6093
523.178	27.9
524.928	27.7775
526.678	27.9396
528.427	27.9044
530.176	28.1762
531.925	28.0218
533.673	27.8936
535.422	27.3417
537.169	26.8609
538.917	28.2252
540.664	27.589
542.411	25.4951
544.157	24.6447
545.903	25.3888
547.649	25.0033
549.395	24.1603
551.14	23.7169
552.884	23.6048
554.629	23.2045
556.373	22.7901
558.117	22.3217
559.86	22.1969
561.603	21.2839
563.346	19.6011
565.089	20.4063
566.831	20.7217
568.573	19.3318
570.314	18.7809
572.053	18.775
573.794	18.5453
575.534	18.3352
577.274	17.5378
579.014	17.0369
580.754	17.1094
582.493	17.4481
584.23	17.9697
585.968	18.1933
587.706	18.0254
589.444	17.7812
591.181	17.886
592.919	17.4567
594.653	17.9382
596.39	17.8797
598.126	16.4527
599.862	17.75
601.595	17.7915
603.33	18.9626
605.065	17.6806
606.8	17.8313
608.532	18.0516
610.266	18.9739
611.999	19.698
613.732	20.0156
615.463	19.6963
617.196	19.8749
618.928	19.6837
620.66	20.5613
622.389	21.0971
624.12	20.3658
625.851	21.3428
627.58	22.2266
629.31	22.4745
631.04	22.8311
632.767	23.2547
634.497	22.6125
636.223	22.7221
637.952	23.6767
639.68	24.064
641.406	24.7475
643.134	25.315
644.861	26.0366
646.586	26.7613
648.312	27.5585
650.037	27.8088
651.762	29.4375
653.486	28.9517
655.211	29.4601
656.936	30.9486
658.659	31.8484
660.383	32.764
662.105	34.126
663.829	34.6737
665.55	35.9791
667.273	36.7172
668.994	38.1364
670.716	39.1355
672.436	39.2805
674.158	39.624
675.877	40.7098
677.598	40.7968
679.317	42.0637
681.035	43.3685
682.755	43.2277
684.473	42.0255
686.192	43.3931
687.909	43.5746
689.628	44.5096
691.344	44.6276
693.06	45.6513
694.778	46.0315
696.493	46.517
698.211	45.7887
699.925	45.6314
701.64	44.9664
703.356	45.5586
705.07	45.7598
706.783	46.462
708.498	46.0002
710.211	46.5317
711.924	48.0041
713.638	48.263
715.35	47.7455
717.061	48.5747
718.774	48.8953
720.485	49.0803
722.196	50.8257
723.906	52.0766
725.618	52.6828
727.328	53.6842
729.037	54.4595
730.746	56.346
732.456	57.8898
734.165	58.8499
735.873	60.0841
737.58	61.0463
739.289	61.5688
740.997	63.5937
742.703	64.6642
744.41	66.5938
746.116	68.4524
747.823	70.218
749.529	72.147
751.234	74.1263
752.938	75.8576
754.643	77.6684
756.347	79.3452
758.051	80.633
759.756	81.9256
761.459	83.1907
763.162	84.2181
764.865	86.7224
766.567	87.4506
768.269	87.9018
769.97	88.8344
771.671	91.3258
773.372	91.9079
775.073	92.7656
776.773	93.2283
778.473	93.0511
780.174	92.7862
781.874	92.991
783.573	92.9213
785.271	94.0642
786.97	94.7901
788.668	96.4147
790.365	97.8813
792.063	97.9006
793.76	97.9621
795.456	98.7386
797.153	98.3498
798.847	98.3906
800.543	97.985
802.238	96.9716
803.933	95.1493
805.628	94.3876
807.322	94.0939
809.017	92.1236
810.71	91.1474
812.404	89.3721
814.097	88.4731
815.79	87.7871
817.483	86.5013
819.173	85.2773
820.865	84.5797
822.556	82.8167
824.248	82.2529
825.939	82.1935
827.629	82.3897
829.318	82.224
831.008	81.8743
832.697	81.8389
834.387	81.2124
836.076	81.2952
837.765	80.0127
839.451	79.222
841.139	78.6905
842.827	78.2478
844.514	76.946
846.2	77.3704
847.886	76.8655
849.573	76.4946
851.259	75.7132
852.943	75.9548
854.629	75.8816
856.314	76.0718
857.997	75.2081
859.682	74.363
861.366	74.1506
863.05	73.6855
864.732	73.8596
866.415	73.3528
868.098	73.3567
869.779	74.4963
871.461	73.8063
873.141	73.4681
874.823	72.3583
876.505	71.112
878.184	70.4837
879.865	69.2511
881.545	68.3581
883.223	67.0065
884.903	65.7391
886.581	63.8516
888.26	62.5242
889.937	62.6964
891.616	62.1715
893.294	61.346
894.97	61.3068
896.648	60.6999
898.323	61.1187
900	60.6636
901.675	60.2003
903.351	59.8275
905.026	59.5961
906.701	58.7509
908.375	58.7717
910.05	59.1758
911.723	59.3638
913.398	57.7564
915.07	57.4891
916.742	56.7418
918.415	56.889
920.087	56.8251
921.76	55.4707
923.43	55.8017
925.103	55.2234
926.773	54.3
928.443	54.1964
930.114	54.6687
931.783	54.7205
933.454	55.6284
935.123	55.1447
936.791	55.2134
938.461	54.1383
940.128	53.346
941.796	52.6914
943.464	52.184
945.131	52.2238
946.797	51.6478
948.465	51.3574
950.131	50.7927
951.797	50.6893
953.462	49.7371
955.128	48.2996
956.793	47.8082
958.457	46.1872
960.121	44.6137
961.786	43.1292
963.45	42.4559
965.113	43.6784
966.775	43.127
968.44	42.6553
970.102	42.734
971.763	43.269
973.425	44.8378
975.086	44.7103
976.748	44.1765
978.409	44.2539
980.069	44.7608
981.729	43.8967
983.388	43.1519
985.048	42.8233
986.708	42.5634
988.367	41.9411
990.025	40.8122
991.683	40.5241
993.341	40.4874
994.998	40.1945
996.655	38.3784
998.312	38.2853
999.969	37.8165
1001.62	37.6977
1003.28	36.7617
1004.94	35.8471
1006.59	35.3836
1008.25	35.2785
1009.9	34.716
1011.56	34.7037
1013.21	33.8242
1014.86	34.3439
1016.52	33.9054
1018.17	32.325
1019.82	32.3942
1021.48	31.5847
1023.13	30.8138
1024.78	30.4137
1026.43	29.4264
1028.08	28.378
1029.73	27.2349
1031.38	26.1046
1033.03	24.7241
1034.68	23.4171
1036.33	22.2758
1037.98	21.9524
1039.63	20.9283
1041.28	21.0614
1042.93	21.2277
1044.57	22.311
1046.22	22.8723
1047.87	23.1588
1049.52	21.8477
1051.16	22.2036
1052.81	23.1184
1054.45	23.269
1056.1	23.9702
1057.75	22.5961
1059.39	21.9361
1061.04	21.2918
1062.68	21.0098
1064.32	21.0141
1065.97	21.6713
1067.61	21.8856
1069.25	21.6659
1070.9	21.9018
1072.54	22.3225
1074.18	22.0292
1075.82	21.8647
1077.47	21.7078
1079.11	20.9041
1080.75	20.661
1082.39	20.5781
1084.03	20.3698
1085.67	20.0356
1087.31	18.8089
1088.95	19.0694
1090.59	18.114
1092.22	18.1826
1093.86	19.4271
1095.5	19.4989
1097.14	20.0083
1098.78	19.7327
1100.41	19.7849
1102.05	20.5908
1103.69	20.403
1105.32	20.801
1106.96	21.2141
1108.59	21.2143
1110.23	20.4597
1111.86	20.0436
1113.5	19.0456
1115.13	18.0765
1116.77	17.8158
1118.4	18.2933
1120.03	17.7534
1121.67	17.3619
1123.3	17.0439
1124.93	16.122
1126.56	15.9535
1128.19	15.3662
1129.83	14.9994
1131.46	15.0082
1133.09	15.9019
1134.72	15.5568
1136.35	15.8944
1137.98	15.491
1139.61	14.0663
1141.24	14.1738
1142.86	14.0587
1144.49	14.7761
1146.12	15.1645
1147.75	14.6499
1149.38	14.0753
1151	13.1317
1152.63	13.1289
1154.26	12.4047
1155.88	11.4845
1157.51	11.5308
1159.14	10.5266
1160.76	8.92225
1162.39	8.41911
1164.01	7.55497
1165.63	6.38111
1167.26	5.70617
1168.88	5.59502
1170.51	6.82093
1172.13	7.5338
1173.75	9.21352
1175.38	9.85479
1177	10.3705
1178.62	11.0063
1180.24	11.7896
1181.86	12.2488
1183.48	12.0628
1185.1	11.9742
1186.72	12.0573
1188.34	11.2654
1189.96	10.7628
1191.58	9.99784
1193.2	10.2826
1194.82	10.5244
1196.44	11.4465
1198.06	13.5311
1199.68	14.4214
1201.29	14.6527
1202.91	16.6759
1204.53	18.3672
1206.14	20.2744
1207.76	22.065
1209.38	23.377
1210.99	25.596
1212.61	27.5898
1214.22	29.4538
1215.84	30.9548
1217.45	33.3752
1219.07	33.8771
1220.68	34.9921
1222.29	36.924
1223.91	38.8544
1225.52	39.9701
1227.13	41.5212
1228.74	42.8506
1230.36	44.0812
1231.97	45.1366
1233.58	45.5703
1235.19	45.7497
1236.8	45.8793
1238.41	45.9346
1240.02	45.7858
1241.63	47.0961
1243.24	47.7439
1244.85	47.5935
1246.46	48.2787
1248.07	48.6869
1249.67	49.739
1251.28	49.9099
1252.89	49.2499
1254.5	48.786
1256.1	47.4393
1257.71	47.0819
1259.32	45.7314
1260.92	45.2279
1262.53	44.3787
1264.13	43.6054
1265.74	43.2755
1267.34	42.3936
1268.95	42.1854
1270.55	42.714
1272.15	42.6748
1273.76	43.7151
1275.36	45.1629
1276.97	46.2401
1278.57	46.6236
1280.17	46.8482
1281.77	47.8339
1283.37	48.8706
1284.97	49.9927
1286.58	50.285
1288.18	51.4402
1289.78	51.5999
1291.38	52.7932
1292.98	54.4751
1294.58	55.2606
1296.18	55.7805
1297.78	57.0465
1299.37	57.1704
1300.97	58.2897
1302.57	60.0372
1304.17	61.4148
1305.77	62.2063
1307.36	63.7453
1308.96	63.8614
1310.55	64.032
1312.15	65.1208
1313.75	66.0014
1315.34	67.7123
1316.94	68.9493
1318.53	70.4674
1320.13	70.5186
1321.72	71.2057
1323.32	70.0745
1324.91	70.2932
1326.5	69.9693
1328.1	69.4994
1329.69	69.8813
1331.28	68.7152
1332.87	67.5526
1334.47	67.7474
1336.06	67.017
1337.65	68.3126
1339.24	68.1596
1340.83	66.7225
1342.42	65.7865
1344.01	64.4672
1345.6	63.9897
1347.19	63.2583
1348.78	63.1242
1350.37	62.2383
1351.96	60.7217
1353.54	60.233
1355.13	59.6135
1356.72	58.525
1358.31	56.726
1359.89	55.5736
1361.48	54.3511
1363.07	53.6565
1364.65	52.4004
1366.24	50.584
1367.82	49.6458
1369.41	47.4923
1370.99	47.3656
1372.58	46.6476
1374.16	44.0162
1375.75	43.2482
1377.33	42.5956
1378.91	41.02
1380.5	40.3088
1382.08	39.7864
1383.66	39.4222
1385.25	38.36
1386.83	37.84
1388.41	37.8008
1389.99	37.8094
1391.57	38.0262
1393.15	37.2405
1394.73	35.8198
1396.31	35.1516
1397.89	35.4456
1399.47	35.2815
1401.05	35.5916
1402.63	35.6196
1404.21	36.3315
1405.78	35.8926
1407.36	36.9667
1408.94	38.1369
1410.52	38.4475
1412.1	40.0553
1413.67	42.7123
1415.25	44.496
1416.82	46.1009
1418.4	47.1915
1419.98	48.238
1421.55	50.038
1423.13	52.2386
1424.7	54.7448
1426.28	56.911
1427.85	59.7062
1429.42	61.6702
1431	64.8118
1432.57	67.746
1434.14	70.4809
1435.71	72.5955
1437.29	73.9191
1438.86	75.1466
1440.43	76.8612
1442	78.3577
1443.57	78.9044
1445.14	79.698
1446.71	80.3344
1448.28	80.6769
1449.85	81.1877
1451.42	81.1529
1452.99	80.615
1454.56	81.1399
1456.13	80.3429
1457.7	78.568
1459.26	77.5255
1460.83	76.6509
1462.4	74.2559
1463.97	71.5435
1465.54	69.3525
1467.1	66.4896
1468.67	63.3966
1470.23	60.4922
1471.8	57.9084
1473.36	55.4041
1474.93	53.6044
1476.49	51.5629
1478.06	48.2266
1479.62	45.0558
1481.19	42.8134
1482.75	40.504
1484.31	38.4839
1485.88	37.0255
1487.44	34.5272
1489	32.2088
1490.56	31.624
1492.13	30.1961
1493.69	28.4437
1495.25	26.7247
1496.81	25.3485
1498.37	24.6879
1499.93	24.022
1501.49	22.9733
1503.05	22.5706
1504.61	22.1547
1506.17	22.2148
1507.73	20.9186
1509.28	21.0961
1510.84	19.6116
1512.4	19.5131
1513.96	18.3199
1515.52	17.8911
1517.07	17.7706
1518.63	18.2799
1520.19	19.0109
1521.74	19.2986
1523.3	19.6683
1524.85	20.7694
1526.41	21.2853
1527.96	22.5076
1529.52	23.9133
1531.07	24.7247
1532.63	25.5172
1534.18	25.0206
1535.73	24.5671
1537.29	24.9917
1538.84	26.2858
1540.39	26.7196
1541.94	27.3831
1543.5	28.1827
1545.05	29.7611
1546.6	31.6623
1548.15	32.6016
1549.7	33.6351
1551.25	35.3599
1552.8	37.2802
1554.35	38.6991
1555.9	39.6118
1557.45	41.7221
1559	43.3225
1560.55	44.57
1562.1	46.1389
1563.65	46.7947
1565.19	48.1265
1566.74	49.8998
1568.29	51.6387
1569.83	52.5347
1571.38	53.1833
1572.93	54.0204
1574.47	54.4512
1576.02	55.8744
1577.56	56.1901
1579.11	56.151
1580.66	57.7269
1582.2	57.8239
1583.74	58.503
1585.29	58.5317
1586.83	59.0823
1588.38	59.3714
1589.92	60.2574
1591.46	59.7101
1593.01	60.053
1594.55	60.7146
1596.09	61.0588
1597.63	60.9373
1599.17	61.3741
1600.71	61.4709
1602.25	61.4059
1603.79	60.3749
1605.34	60.126
1606.88	59.4693
1608.41	58.7646
1609.95	58.1174
1611.49	57.1675
1613.03	55.9334
1614.57	55.4081
1616.11	56.6599
1617.65	56.2708
1619.18	55.9293
1620.72	56.6676
1622.26	56.4279
1623.79	56.1423
1625.33	55.6349
1626.87	56.8348
1628.4	57.9937
1629.94	58.4899
1631.48	58.7815
1633.01	59.8694
1634.55	61.4329
1636.08	62.0792
1637.61	63.0364
1639.15	64.0861
1640.68	64.266
1642.21	65.2693
1643.75	65.206
1645.28	66.3832
1646.81	67.5291
1648.34	68.7647
1649.88	69.9606
1651.41	70.1864
1652.94	71.2809
1654.47	71.6729
1656	72.3293
1657.53	72.3114
1659.06	73.2446
1660.59	72.9548
1662.12	72.2633
1663.65	71.8347
1665.18	71.741
1666.71	70.6519
1668.24	69.378
1669.76	68.914
1671.29	67.2165
1672.82	65.12
1674.35	63.2791
1675.87	62.2069
1677.4	59.6562
1678.93	57.1135
1680.45	54.9721
1681.98	53.5991
1683.5	52.3446
1685.03	50.9728
1686.55	49.2232
1688.08	46.557
1689.6	44.2791
1691.13	43.0881
1692.65	42.4518
1694.17	39.9812
1695.7	37.4371
1697.22	34.8247
1698.74	32.266
1700.27	30.8871
1701.79	29.4993
1703.31	28.5566
1704.83	26.8777
1706.35	25.6653
1707.87	24.4606
1709.39	23.1669
1710.91	22.1207
1712.43	20.6399
1713.95	18.8308
1715.47	17.4987
1716.99	16.2026
1718.51	15.1478
1720.03	14.5016
1721.55	14.9235
1723.07	14.2798
1724.58	13.9077
1726.1	12.4239
1727.62	12.1441
1729.13	12.4574
1730.65	11.9523
1732.17	11.4633
1733.68	11.1156
1735.2	11.1649
1736.72	9.37609
1738.23	9.28737
1739.74	8.74812
1741.26	8.16403
1742.77	7.30183
1744.29	6.90143
1745.8	6.54138
1747.32	5.72361
1748.83	6.10686
1750.34	6.4708
1751.85	6.38878
1753.37	6.23145
1754.88	6.51167
1756.39	6.79228
1757.9	7.15909
1759.41	7.30167
1760.92	6.7864
1762.44	6.04959
1763.95	5.18582
1765.46	5.27453
1766.96	4.95209
1768.47	4.52947
1769.98	3.43947
1771.49	2.86379
1773	2.36652
1774.51	2.50795
1776.02	3.39541
1777.53	3.4134
1779.03	3.37407
1780.54	3.26552
1782.05	2.72618
1783.55	2.98234
1785.06	3.13986
1786.57	2.63699
1788.07	2.30056
1789.58	1.97949
1791.08	2.18958
1792.59	2.24175
1794.09	2.70538
1795.6	2.94452
1797.1	3.13849
1798.61	3.24503
1800.11	3.22062
1801.61	2.82574
1803.12	3.55258
1804.62	3.46202
1806.12	2.65718
1807.62	2.71597
1809.12	3.23374
1810.63	3.33174
1812.13	3.38595
1813.63	3.61911
1815.13	3.47395
1816.63	4.03297
1818.13	4.41271
1819.63	4.14728
1821.13	4.30736
1822.63	4.3406
1824.13	4.50134
1825.63	4.778
1827.13	4.46147
1828.62	3.97536
1830.12	3.67276
1831.62	2.79112
1833.12	1.90933
1834.61	2.02469
1836.11	1.6961
1837.61	1.67755
1839.1	1.68135
1840.6	1.53932
1842.09	1.43492
1843.59	1.49829
1845.09	1.63154
1846.58	1.90703
1848.08	1.84004
1849.57	2.37017
1851.06	2.34154
1852.56	1.48792
1854.05	1.74163
1855.54	1.78235
1857.04	1.44676
1858.53	1.48482
1860.02	1.04692
1861.51	0.631931
1863.01	1.18249
1864.5	1.38485
1865.99	1.13473
1867.48	1.88569
1868.97	2.43735
1870.46	2.61509
1871.95	2.77425
1873.44	2.82139
1874.93	3.34184
1876.42	3.91375
1877.91	3.98618
1879.4	4.44108
1880.89	4.43562
1882.37	4.47562
1882.46	4.44104
1883.95	4.32447
1885.45	3.9197
1886.94	4.46594
1888.43	4.77551
1889.93	4.90153
1891.42	4.91657
1892.91	4.52751
1894.41	5.28501
1895.9	4.96967
1897.39	5.00563
1898.88	5.47126
1900.37	5.07481
1901.86	4.8778
1903.36	4.99341
1904.85	4.91683
1906.34	4.7824
1907.83	5.83272
1909.32	5.50302
1910.81	5.39028
1912.29	5.84588
1913.78	5.85965
1915.27	6.40449
1916.76	7.09175
1918.25	7.20996
1919.74	6.91164
1921.23	6.26583
1922.71	6.26268
1924.2	5.85952
1925.69	5.62148
1927.17	5.9547
1928.66	5.41324
1930.15	5.23119
1931.63	5.32278
1933.12	5.45991
1934.6	5.58766
1936.09	5.37727
1937.57	5.38715
1939.06	5.26608
1940.54	5.8549
1942.02	5.65647
1943.51	5.41755
1944.99	4.55683
1946.47	3.99485
1947.96	4.31786
1949.44	3.42975
1950.92	2.90145
1952.4	2.49339
1953.88	1.74117
1955.37	1.78041
1956.85	2.2951
1958.33	2.29491
1959.81	2.69195
1961.29	2.77005
1962.77	2.73041
1964.25	2.55638
1965.73	2.55253
1967.21	2.60308
1968.69	3.22455
1970.16	3.13343
1971.64	4.24983
1973.12	4.74274
1974.6	4.23669
1976.08	4.3755
1977.55	4.67573
1979.03	4.97812
1980.51	5.06832
1981.98	5.57118
1983.46	5.1579
1984.94	5.5707
1986.41	5.52002
1987.89	5.29084
1989.36	5.60343
1990.84	5.97344
1992.31	5.32912
1993.79	4.77099
1995.26	5.00969
1996.73	5.0567
1998.21	4.48471
1999.68	4.47078
2001.15	4.7054
2002.63	4.41949
2004.1	4.16817
2005.57	3.52699
2007.04	3.36739
2008.51	3.55562
2009.99	3.33695
2011.46	3.48915
2012.93	3.62412
2014.4	3.51747
2015.87	3.78976
2017.34	3.36141
2018.81	2.72381
2020.28	2.8504
2021.75	3.02956
2023.21	2.61841
2024.68	2.95963
2026.15	3.25056
2027.62	3.93126
2029.09	4.39891
2030.56	4.65044
2032.02	5.0055
2033.49	4.8641
2034.96	5.25343
2036.42	5.66529
2037.89	5.24071
2039.36	6.3209
2040.82	7.21804
2042.29	7.92704
2043.75	8.64716
2045.22	9.41135
2046.68	9.43392
2048.14	9.35387
2049.61	10.0778
2051.07	10.5535
2052.54	10.04
2054	10.3062
2055.46	9.85083
2056.93	9.75653
2058.39	10.1453
2059.85	9.80674
2061.31	10.0553
2062.77	10.4154
2064.23	10.6542
2065.7	9.97958
2067.16	9.62171
2068.62	9.48552
2070.08	9.23108
2071.54	8.91431
2073	9.40832
2074.46	9.53198
2075.92	9.34367
2077.38	9.09846
2078.83	9.5995
2080.29	10.6756
2081.75	10.8669
2083.21	10.9814
2084.67	10.8946
2086.12	10.7766
2087.58	10.715
2089.04	10.6569
2090.49	9.37473
2091.95	9.36125
2093.41	9.4384
2094.86	9.30817
2096.32	9.62652
2097.77	9.94551
2099.23	10.5848
2100.68	10.571
2102.14	10.2371
2103.59	9.81132
2105.05	9.72983
2106.5	8.82542
2107.95	9.12876
2109.41	8.35537
2110.86	8.64966
2112.31	8.91765
2113.76	8.23659
2115.21	7.58772
2116.67	7.3773
2118.12	6.62348
2119.57	6.06957
2121.02	5.34359
2122.47	4.8519
2123.92	4.26126
2125.37	3.52768
2126.82	3.7137
2128.27	2.82886
2129.72	2.7485
2131.17	2.41628
2132.62	1.68524
2134.07	1.75127
2135.51	1.03549
2136.96	0.782614
2138.41	0.298124
2139.86	-0.109202
2141.31	0.513738
2142.75	0.730945
2144.2	0.715573
2145.65	1.7207
2147.09	2.23984
2148.54	2.83252
2149.98	3.64807
2151.43	4.30038
2152.87	4.73972
2154.32	4.6634
2155.76	5.12313
2157.21	4.71716
2158.65	5.09361
2160.1	5.86794
2161.54	6.10464
2162.98	6.07842
2164.43	7.16704
2165.87	7.66038
2167.31	7.74758
2168.75	8.18746
2170.2	8.53074
2171.64	8.62278
2173.08	8.23521
2174.52	7.65009
2175.96	7.80419
2177.4	8.066
2178.84	7.94547
2180.28	8.4002
2181.72	7.88666
2183.16	8.49217
2184.6	8.27387
2186.04	7.82251
2187.48	8.26752
2188.92	8.73075
2190.36	8.55946
2191.79	8.18968
2193.23	7.71565
2194.67	7.52093
2196.11	7.08916
2197.54	6.72869
2198.98	6.13504
2200.42	5.59494
2201.85	5.30072
2203.29	5.32244
2204.72	5.22433
2206.16	5.39117
2207.59	4.68197
2209.03	5.44465
2210.46	5.41905
2211.9	6.04634
2213.33	7.23035
2214.77	7.03028
2216.2	7.13625
2217.63	6.79996
2219.07	6.39323
2220.5	6.80028
2221.93	6.2235
2223.36	5.99972
2224.8	5.81543
2226.23	5.15195
2227.66	5.02266
2229.09	4.49327
2230.52	4.80676
2231.95	4.72917
2233.39	4.19073
2234.81	4.31259
2236.25	4.12788
2237.67	3.89394
2239.1	3.56219
2240.53	3.81416
2241.96	3.63017
2243.39	3.53073
2244.82	3.26354
2246.25	3.52262
2247.68	3.76003
2249.1	4.07638
2250.53	4.41103
2251.96	4.24542
2253.38	4.44452
2254.81	4.95058
2256.24	4.84091
2257.66	5.06738
2259.09	6.07496
2260.51	5.79638
2261.94	5.31994
2263.36	4.81062
2264.79	4.4819
2266.21	4.54332
2267.64	3.89066
2269.06	4.52623
2270.49	5.16074
2271.91	5.44761
2273.33	5.7806
2274.76	5.63131
2276.18	5.90245
2277.6	6.27922
2279.02	6.61612
2280.44	7.17096
2281.87	7.19893
2283.29	7.11716
2284.71	6.6385
2286.13	5.65882
2287.55	5.25922
2288.97	5.13053
2290.39	4.99774
2291.81	5.43832
2293.23	4.80871
2294.65	5.70683
2296.07	5.42197
2297.49	5.60836
2298.91	5.67784
2300.33	5.48432
2301.74	5.98727
2303.16	6.13317
2304.58	6.3977
2306	6.82479
2307.41	6.20562
2308.83	6.83457
2310.25	6.82142
2311.66	6.90505
2313.08	6.43216
2314.5	6.51306
2315.91	6.35353
2317.33	6.57687
2318.74	5.91981
2320.16	6.08259
2321.57	6.2255
2322.98	6.38012
2324.4	6.72731
2325.81	6.99191
2327.23	7.31727
2328.64	7.37297
2330.05	7.65286
2331.46	6.82918
2332.88	6.97215
2334.29	6.52875
2335.7	6.18873
2337.11	5.99903
2338.52	6.04688
2339.94	6.56081
2341.35	5.82261
2342.76	5.16104
2344.17	5.19708
2345.58	5.4933
2346.99	5.97392
2348.4	5.46604
2349.81	5.535
2351.22	5.15941
2352.62	4.82793
2354.03	4.35929
2355.44	4.46086
2356.85	4.3804
2358.26	4.99879
2359.67	4.73573
2361.07	4.67797
2362.48	5.43081
2363.89	5.69733
2365.29	5.89522
2366.7	5.48021
2368.11	5.56339
2369.51	5.88024
2370.92	5.94282
2372.32	6.25822
2373.73	5.65433
2375.13	5.69615
2376.54	6.38432
2377.94	5.40984
2379.35	5.50686
2380.75	4.91796
2382.15	4.43054
2383.56	3.8185
2384.96	4.1639
2386.36	4.0263
2387.76	3.92998
2389.17	3.75815
2390.57	3.70956
2391.97	3.9198
2393.37	4.07592
2394.77	3.54571
2396.17	4.11982
2397.58	3.50958
2398.98	3.71824
2400.38	3.46844
2401.78	3.00011
2403.18	3.57208
2404.58	2.82494
2405.97	2.61258
2407.37	2.97675
2408.77	3.10213
2410.17	3.42984
2411.57	3.29522
2412.97	4.10652
2414.37	4.75103
2415.76	4.82574
2417.16	4.49785
2418.56	4.38228
2419.95	5.13783
2421.35	4.77422
2422.75	4.66843
2424.14	4.33071
2425.54	4.66368
2426.93	4.96323
2428.33	5.10207
2429.72	4.98823
2431.12	5.58358
2432.51	5.70399
2433.91	5.75339
2435.3	5.6601
2436.7	5.73228
2438.09	5.66696
2439.48	6.19993
2440.88	5.42618
2442.27	5.3245
2443.66	5.57412
2445.05	6.36835
2446.44	6.53155
2447.84	5.75482
2449.23	5.83697
2450.62	5.55072
2452.01	5.31182
2453.4	5.25237
2454.79	5.56288
2456.18	5.21399
2457.57	4.57187
2458.96	4.36397
2460.35	3.84087
2461.74	4.75318
2463.13	4.76747
2464.52	4.11731
2465.91	4.49569
2467.29	3.79952
2468.68	3.86098
2470.07	3.8288
2471.46	4.01464
2472.85	4.14535
2474.23	3.55399
2475.62	3.88639
2477.01	4.37027
2478.39	4.05197
2479.78	3.9777
2481.16	2.98877
2482.55	2.84401
2483.93	2.6623
2485.32	1.66143
2486.7	1.64549
2488.09	1.00877
2489.47	0.990595
2490.86	0.498992
2492.24	0.506514
2493.62	1.01824
2495.01	1.25343
2496.39	1.35591
2497.77	1.06547
2499.15	1.00259
2500.54	0.700736
2501.92	0.21329
2503.3	0.133573
2504.68	-0.132312
2506.06	-0.405731
2507.45	-0.475965
2508.83	-0.0663022
2510.21	-0.0185497
2511.59	0.0435153
2512.97	0.287879
2514.35	-0.0748859
2515.73	-0.269915
2517.11	-0.580158
2518.48	-1.57259
2519.86	-1.63275
2521.24	-1.96614
2522.62	-2.15082
2524	-1.97463
2525.38	-1.76991
2526.75	-1.87312
2528.13	-1.04998
2529.51	-0.651316
2530.89	-0.276767
2532.26	-0.14417
2533.64	0.265981
2535.02	0.940943
2536.39	0.806107
2537.77	1.22044
2539.14	1.61099
2540.52	1.64629
2541.89	1.94967
2543.27	2.57829
2544.64	3.8587
2546.01	4.07969
2547.39	4.14699
2548.76	4.36165
2550.14	4.95039
2551.51	5.85951
2552.88	6.33448
2554.25	6.39329
2555.63	7.95163
2557	8.34433
2558.37	8.91677
2559.74	9.38868
2561.11	9.69622
2562.49	10.2066
2563.86	9.60179
2565.23	9.67476
2566.6	9.60934
2567.97	10.0248
2569.34	9.94545
2570.71	9.80011
2572.08	9.75966
2573.45	9.33102
2574.82	9.585
2576.18	9.39146
2577.55	9.12445
2578.92	8.40346
2580.29	7.37988
2581.66	7.13589
2583.02	6.07213
2584.39	6.13176
2585.76	5.26155
2587.13	4.58694
2588.49	4.59097
2589.86	4.02981
2591.22	3.8794
2592.59	4.56533
2593.96	4.51941
2595.32	3.79675
2596.69	3.79135
2598.05	3.30548
2599.42	2.36536
2600.78	2.35502
2602.14	1.99788
2603.51	1.68186
2604.87	1.49003
2606.23	1.79243
2607.6	1.93187
2608.96	2.47359
2610.32	2.53271
2611.69	3.19431
2613.05	3.06346
2614.41	2.19566
2615.77	2.46094
2617.13	2.81542
2618.49	3.15119
2619.86	3.19217
2621.22	3.19057
2622.58	3.10251
2623.94	3.09805
2625.3	2.36789
2626.66	2.14915
2628.02	2.28575
2629.37	2.13863
2630.73	1.95117
2632.09	1.77173
2633.45	1.72752
2634.81	2.09371
2636.17	2.704
2637.53	2.18975
2638.88	2.43746
2640.24	2.31039
2641.6	2.56252
2642.96	2.5584
2644.31	2.19545
2645.67	1.82866
2647.02	2.11786
2648.38	3.02522
2649.74	3.25938
2651.09	2.84777
2652.45	3.7814
2653.8	3.53773
2655.16	4.14112
2656.51	4.78535
2657.86	4.59808
2659.22	4.87735
2660.57	5.42567
2661.93	5.11018
2663.28	5.455
2664.63	6.47794
2665.98	6.05393
2667.34	5.84184
2668.69	6.7631
2670.04	7.40328
2671.39	7.2846
2672.75	6.76867
2674.09	7.35882
2675.45	7.42152
2676.8	7.03592
2678.15	7.15832
2679.5	7.1752
2680.85	6.70974
2682.2	6.32063
2683.55	6.97072
2684.9	6.53821
2686.25	5.79269
2687.6	5.4951
2688.94	5.62669
2690.29	5.27054
2691.64	5.20755
2692.99	5.15891
2694.34	5.31179
2695.68	5.63335
2697.03	5.84515
2698.38	5.72774
2699.73	6.23505
2701.07	6.49213
2702.42	7.12724
2703.76	7.71849
2705.11	8.02976
2706.45	8.88223
2707.8	9.06821
2709.15	9.78139
2710.49	9.79314
2711.83	10.9874
2713.18	11.755
2714.52	13.02
2715.87	13.4049
2717.21	13.0543
2718.55	13.3674
2719.9	13.9376
2721.24	14.136
2722.58	14.3981
2723.93	14.4054
2725.27	13.6112
2726.61	13.9248
2727.95	14.3182
2729.29	14.2784
2730.63	14.3038
2731.98	14.0641
2733.32	12.9048
2734.66	12.3297
2736	12.0277
2737.34	11.8286
2738.68	10.9357
2740.02	10.9396
2741.36	11.0271
2742.7	9.97339
2744.03	9.09074
2745.37	8.21785
2746.71	7.3589
2748.05	6.50154
2749.39	5.74018
2750.72	5.45041
2752.06	4.32286
2753.4	4.40056
2754.74	4.0427
2756.07	3.5357
2757.41	2.77786
2758.75	2.22052
2760.08	1.73829
2761.42	1.87163
2762.76	1.71889
2764.09	1.52329
2765.42	0.910827
2766.76	1.06015
2768.09	0.839178
2769.43	0.768617
2770.76	1.0256
2772.1	1.24156
2773.43	0.663355
2774.76	0.237635
2776.1	-0.0348047
2777.43	0.153209
2778.76	0.701177
2780.1	0.33824
2781.43	0.122808
2782.76	-0.538912
2784.09	-0.309593
2785.42	-0.146882
2786.75	-0.490548
2788.09	-0.531438
2789.42	-0.27372
2790.75	-0.0254225
2792.08	0.296122
2793.41	0.760812
2794.74	0.741282
2796.07	0.798925
2797.4	1.17617
2798.73	1.15828
2800.06	0.72185
2801.39	0.808396
2802.71	1.04049
2804.04	1.65868
2805.37	0.518648
2806.7	0.313989
2808.03	-0.58354
2809.35	-1.20577
2810.68	-1.34955
2812.01	-1.46288
2813.33	-1.01264
2814.66	-1.27558
2815.99	-0.933244
2817.31	-0.605434
2818.64	-0.351429
2819.96	0.780542
2821.29	1.47202
2822.61	2.82128
2823.94	3.81642
2825.26	4.78703
2826.59	6.43661
2827.91	7.8101
2829.23	9.63771
2830.56	11.2841
2831.88	12.7646
2833.21	14.9246
2834.53	16.4679
2835.85	19.0638
2837.17	21.963
2838.5	24.8432
2839.82	27.671
2841.14	30.5093
2842.46	34.1336
2843.78	38.1717
2845.1	41.5316
2846.42	44.948
2847.74	48.9219
2849.06	52.9621
2850.38	57.1593
2851.71	61.6236
2853.03	66.1899
2854.34	71.4166
2855.66	76.2502
2856.98	80.9007
2858.3	85.2965
2859.62	89.4699
2860.94	93.9029
2862.26	98.6752
2863.57	102.869
2864.89	105.77
2866.21	109.101
2867.53	112.497
2868.84	115.376
2870.16	118.649
2871.48	120.71
2872.79	123.613
2874.11	125.913
2875.42	128.264
2876.74	130.42
2878.05	132.675
2879.37	134.491
2880.68	135.816
2882	138.565
2883.31	139.852
2884.63	141.882
2885.94	143.753
2887.26	145.508
2888.57	146.712
2889.88	147.827
2891.19	149.351
2892.51	151.698
2893.82	152.605
2895.13	154.56
2896.44	155.78
2897.76	157.925
2899.07	159.91
2900.38	162.357
2901.69	165.17
2903	167.569
2904.31	170.305
2905.62	174.032
2906.93	177.125
2908.24	181.052
2909.55	185.017
2910.86	188.821
2912.17	193.538
2913.48	198.623
2914.79	202.915
2916.1	206.942
2917.41	210.986
2918.71	214.808
2920.02	217.838
2921.33	220.678
2922.64	223.58
2923.94	225.721
2925.25	227.844
2926.56	229.293
2927.86	230.164
2929.17	230.476
2930.48	230.224
2931.78	231.001
2933.09	230.591
2934.39	229.81
2935.7	228.435
2937	226.271
2938.31	224.121
2939.61	221.727
2940.92	218.67
2942.22	215.267
2943.53	212.271
2944.83	208.366
2946.13	204.524
2947.43	200.778
2948.74	195.986
2950.04	192.28
2951.34	187.481
2952.64	183.256
2953.95	178.708
2955.25	174.378
2956.55	170.222
2957.85	166.24
2959.15	161.435
2960.45	157.369
2961.75	153.266
2963.05	149.87
2964.35	145.922
2965.65	142.726
2966.95	139.367
2968.25	136.366
2969.55	133.53
2970.85	131.422
2972.15	128.089
2973.45	125.215
2974.75	122.438
2976.05	119.753
2977.34	117.002
2978.64	114.1
2979.94	110.072
2981.24	106.897
2982.53	103.708
2983.83	100.601
2985.13	96.2422
2986.42	92.886
2987.72	89.4398
2989.01	85.6256
2990.31	82.1883
2991.61	78.2264
2992.9	74.4003
2994.19	70.846
2995.49	67.4217
2996.78	64.0947
2998.08	60.0892
2999.37	56.4612
3000.67	52.7812
3001.96	49.2956
3003.25	45.422
3004.55	41.8131
3005.84	38.6162
3007.13	35.5286
3008.42	33.1917
3009.72	30.4068
3011.01	27.8892
3012.3	25.2516
3013.59	23.0822
3014.88	21.0416
3016.17	18.7903
3017.46	17.6785
3018.76	15.8959
3020.05	14.6355
3021.34	13.1634
3022.63	12.113
3023.92	10.9992
3025.21	9.60341
3026.49	8.86553
3027.78	8.21289
3029.07	7.69427
3030.36	7.53617
3031.65	7.15065
3032.94	7.19118
3034.23	7.66442
3035.51	8.36355
3036.8	8.56433
3038.09	8.81411
3039.38	9.28153
3040.66	10.0966
3041.95	10.4045
3043.23	10.806
3044.52	11.2305
3045.81	11.6852
3047.09	11.9908
3048.38	12.1856
3049.66	12.0417
3050.95	13.0564
3052.23	13.0367
3053.52	12.8861
3054.8	12.9066
3056.09	12.6161
3057.37	12.7892
3058.65	13.0233
3059.94	13.1474
3061.22	13.1968
3062.5	13.1601
3063.79	13.2827
3065.07	13.4114
3066.35	13.2574
3067.63	12.712
3068.92	13.1029
3070.2	13.3048
3071.48	12.6896
3072.76	12.487
3074.04	11.6791
3075.32	11.5436
3076.6	10.4248
3077.88	9.78344
3079.16	9.21044
3080.44	8.24679
3081.72	8.00156
3083	6.75244
3084.28	6.42532
3085.56	5.36988
3086.84	4.99577
3088.12	4.07168
3089.4	3.64767
3090.67	3.38615
3091.95	3.61043
3093.23	3.84842
3094.51	4.09694
3095.78	3.84916
3097.06	3.87866
3098.34	3.98676
3099.61	3.68073
3100.89	3.78628
3102.17	3.85022
3103.44	3.66151
3104.72	3.54626
3105.99	3.82626
3107.27	3.93944
3108.54	4.5454
3109.82	4.56953
3111.09	4.96694
3112.37	4.9678
3113.64	4.79221
3114.92	5.08962
3116.19	5.03969
3117.46	5.34977
3118.74	5.68826
3120.01	6.1026
3121.28	6.9523
3122.55	7.51027
3123.83	8.20056
3125.1	9.04617
3126.37	9.66231
3127.64	10.2401
3128.91	10.5871
3130.19	10.7298
3131.46	10.9547
3132.73	11.7639
3134	12.0001
3135.27	12.0644
3136.54	12.6366
3137.81	12.9012
3139.08	13.3799
3140.35	13.2503
3141.62	13.9057
3142.89	14.5911
3144.16	15.3696
3145.42	16.2149
3146.69	17.553
3147.96	18.4828
3149.23	20.4681
