#Acq. time (s)=	45
#Accumulations=	2
#Range (cm-¹)=	200...3150
#Windows=	2
#Auto scanning=	Off
#Autofocus=	Off
#Macrospot=	Off
#AutoExposure=	Off
#Spike filter=	Multiple accum.
#Delay time (s)=	0
#Binning=	1
#Readout mode=	Signal
#DeNoise=	Off
#ICS correction=	On
#Dark correction=	Off
#Inst. Process=	Off
#Detector Gain=	Best Dynamic Range
#Detector ADC=	20 kHz       
#Detector temperature (°C)=	-69.85
#Instrument=	LabRAM HR Evol
#Detector=	Synapse
#Objective=	x100
#Grating=	600 gr/mm
#ND Filter=	100%
#Laser (nm)=	532 
#Hole=	100.021
#Range=	Auto
#Laser Pol.=	No
#Raman. Pol.=	No
#Laser Pol. (°)=	-0.0007625
#Raman Pol. (°)=	89.9995
#Collection=	Microscope
#StageXY=	Marzhauser
#StageZ=	Marzhauser
#X (µm)=	8994.2
#Y (µm)=	-3064.3
#Z (µm)=	-54.9
#Full time(mm:ss)=	3:19
#Project=	
#Sample=	
#Site=	
#Title=	Thy_00_07_21_2x_45s_532 nm_x100_100%_600 gr_mm
#Remark=	
#Date=	28.06.2022 11:41
#Acquired=	28.06.2022 11:41:30
#Base:Fit=	10.08.2022 10:07:56
#Base:Sub=	10.08.2022 10:08:40
#Filter:Polynom=	16.08.2022 10:26:06
#AxisType[0]=Intens
#AxisUnit[0]=Cnt
#AxisType[1]=Spectr
#AxisUnit[1]=1/cm
200.407	6.78962
202.221	10.2169
204.035	13.764
205.849	15.2071
207.665	16.1761
209.478	16.8349
211.291	17.4541
213.104	17.9314
214.916	18.2329
216.73	17.3851
218.541	16.6391
220.352	16.6715
222.163	15.7167
223.973	14.6892
225.785	13.8056
227.595	14.1378
229.404	12.5343
231.213	11.1492
233.022	10.0179
234.83	10.1593
236.638	9.29346
238.448	8.20851
240.255	7.91989
242.062	6.69245
243.868	6.92211
245.675	6.25549
247.48	5.97732
249.286	5.04392
251.091	4.11102
252.896	4.33752
254.702	3.31774
256.506	2.69517
258.31	2.20455
260.113	2.25801
261.916	2.04452
263.719	1.16322
265.521	1.67499
267.323	2.07082
269.125	2.50584
270.926	2.77907
272.727	3.06253
274.527	2.94128
276.328	2.56347
278.127	2.1811
279.927	2.60404
281.726	2.92181
283.525	2.96206
285.323	3.56896
287.121	4.21483
288.919	4.24989
290.716	4.62817
292.513	4.88488
294.31	5.17968
296.104	6.68768
297.9	8.05972
299.696	9.80841
301.491	9.44829
303.286	9.83738
305.081	9.2221
306.875	9.48187
308.669	10.4054
310.463	12.0132
312.256	11.9384
314.047	12.3112
315.839	12.3534
317.631	13.6551
319.423	13.0296
321.215	14.2757
323.006	14.811
324.794	15.3997
326.585	14.7148
328.375	14.3394
330.165	14.2181
331.954	14.039
333.741	14.2284
335.53	13.877
337.318	13.4609
339.106	12.8279
340.894	12.9254
342.679	12.6441
344.466	12.6836
346.253	12.7865
348.039	12.0986
349.823	11.8775
351.608	12.2019
353.393	11.3078
355.176	11.3663
356.961	10.3026
358.745	9.84242
360.529	8.56749
362.31	7.85568
364.093	7.32334
365.876	7.62034
367.657	7.25909
369.439	7.17311
371.221	5.76557
373	4.96141
374.781	5.82592
376.56	6.95514
378.34	7.0609
380.12	7.29858
381.898	7.30607
383.677	6.62103
385.456	6.09495
387.233	5.60591
389.011	5.26679
390.787	4.78543
392.565	5.34423
394.34	4.5049
396.117	5.44581
397.894	5.61305
399.668	6.53106
401.444	6.01508
403.217	6.66071
404.993	7.12982
406.766	7.4447
408.54	6.5696
410.312	6.901
412.086	5.53885
413.858	4.74767
415.631	4.04307
417.402	3.74554
419.174	4.17326
420.944	5.11146
422.716	4.84848
424.486	5.076
426.257	4.70378
428.025	4.89242
429.794	5.35134
431.564	4.98403
433.332	5.30396
435.101	4.58232
436.868	3.84631
438.637	3.30878
440.403	3.68675
442.169	4.40236
443.937	5.53992
445.703	6.8709
447.468	8.35452
449.234	10.7034
450.999	12.2474
452.765	13.6658
454.528	14.6848
456.292	15.3551
458.057	16.0563
459.819	17.9501
461.582	20.5138
463.344	22.4138
465.107	22.5787
466.868	23.5971
468.629	24.7854
470.392	26.56
472.152	26.8198
473.912	26.922
475.672	28.649
477.433	29.4455
479.192	30.5453
480.951	30.7847
482.709	31.4229
484.469	32.9553
486.226	34.4672
487.984	34.6594
489.74	34.9984
491.499	35.2681
493.255	35.3825
495.011	34.4489
496.767	35.3274
498.522	35.151
500.277	33.9162
502.033	34.2894
503.788	34.4313
505.541	34.6609
507.295	34.0286
509.048	32.5039
510.801	29.9905
512.553	28.2196
514.308	27.0978
516.06	25.6332
517.811	24.2559
519.562	21.7671
521.313	21.3547
523.063	20.841
524.814	19.9848
526.563	18.9011
528.313	19.058
530.062	17.7262
531.811	16.8075
533.559	16.3973
535.308	14.8635
537.055	14.2128
538.803	12.5838
540.55	12.3248
542.297	12.091
544.043	10.8471
545.789	11.0319
547.535	11.1793
549.281	10.1051
551.026	9.55719
552.771	9.15298
554.515	9.52145
556.259	8.40409
558.003	7.99459
559.747	6.40941
561.49	6.15744
563.233	6.78345
564.975	6.31482
566.717	6.03449
568.459	6.00003
570.2	7.10363
571.942	6.74137
573.68	7.19781
575.421	6.3308
577.161	6.67204
578.901	6.65592
580.64	7.07161
582.379	7.02211
584.118	8.59061
585.855	8.39489
587.593	7.95807
589.331	7.7018
591.068	6.69319
592.805	5.67742
594.54	4.52327
596.277	4.41425
598.013	3.51556
599.749	4.13545
601.484	4.02926
603.217	3.52777
604.952	3.11936
606.687	2.39364
608.421	3.9698
610.153	3.22002
611.886	3.0843
613.619	2.8388
615.35	2.59275
617.083	2.08268
618.815	3.27849
620.547	3.02439
622.276	3.62785
624.008	5.20059
625.738	5.73613
627.467	6.93477
629.197	7.15751
630.927	7.20851
632.655	8.0543
634.384	8.30233
636.113	9.90583
637.839	11.1999
639.568	12.0797
641.293	13.2672
643.021	12.8151
644.748	13.518
646.473	13.5332
648.2	13.7823
649.924	13.6674
651.65	15.2179
653.376	16.001
655.099	16.9553
656.824	16.9832
658.546	17.3353
660.271	18.3297
661.993	18.7785
663.716	19.6974
665.438	20.7231
667.161	20.7735
668.881	20.8519
670.604	21.0832
672.324	19.7726
674.045	20.0816
675.765	20.1964
677.486	20.3896
679.204	21.8122
680.925	22.8345
682.643	23.4755
684.361	23.8034
686.08	24.6575
687.797	24.9503
689.516	25.3663
691.232	25.6882
692.95	25.7708
694.666	27.371
696.382	26.1367
698.099	27.2076
699.813	26.7701
701.528	26.5066
703.244	27.5581
704.958	27.4717
706.673	28.0427
708.387	28.8943
710.099	29.0682
711.814	28.9954
713.526	28.6364
715.238	28.7816
716.949	29.5741
718.663	30.2178
720.374	31.5073
722.084	32.2865
723.796	32.9221
725.506	32.8302
727.216	32.7146
728.925	32.699
730.636	33.7936
732.345	34.1008
734.053	35.6478
735.761	37.9782
737.471	40.42
739.178	40.7905
740.885	42.0526
742.592	43.694
744.298	46.5406
746.006	47.6292
747.712	50.3501
749.417	52.191
751.122	54.4534
752.827	55.9756
754.532	58.3071
756.236	60.4812
757.942	61.771
759.645	64.8451
761.348	65.8394
763.051	67.7899
764.753	69.2644
766.456	69.4271
768.158	71.0072
769.859	72.5599
771.56	73.8862
773.261	74.2808
774.964	74.3931
776.664	75.0506
778.364	75.5727
780.064	75.5627
781.763	74.7597
783.462	75.4858
785.16	75.3235
786.859	74.7905
788.557	74.1015
790.255	73.4658
791.952	73.6458
793.649	72.9265
795.346	72.7269
797.042	72.66
798.738	71.7239
800.434	72.0124
802.127	71.6289
803.823	70.6558
805.517	70.4314
807.212	70.5685
808.906	70.795
810.6	69.3764
812.293	69.324
813.987	70.1115
815.68	70.1986
817.372	70.9642
819.064	72.8706
820.754	74.0441
822.446	74.3573
824.137	75.0379
825.828	76.9892
827.519	77.2064
829.209	78.8348
830.897	80.0746
832.587	81.7713
834.276	81.5568
835.966	83.1915
837.654	83.3861
839.341	83.9478
841.029	84.1549
842.717	84.3793
844.404	84.6051
846.091	83.6159
847.776	82.9799
849.463	82.9994
851.149	81.5855
852.833	80.6252
854.519	79.7925
856.204	77.7255
857.889	75.1704
859.572	73.0318
861.256	70.9068
862.94	69.2294
864.622	67.0988
866.305	65.302
867.988	63.7201
869.669	61.4346
871.351	58.9659
873.033	57.1794
874.713	55.4135
876.395	54.0217
878.074	53.0742
879.755	52.2569
881.435	50.2452
883.114	48.0686
884.794	46.8476
886.471	45.3782
888.15	44.3999
889.829	44.5258
891.506	44.8009
893.184	44.5615
894.861	43.8336
896.538	44.0458
898.214	44.4366
899.891	45.3105
901.566	46.8427
903.242	48.1513
904.916	50.062
906.592	50.5235
908.266	52.0137
909.941	53.7364
911.614	54.6459
913.288	56.9476
914.961	57.9509
916.635	58.9223
918.306	60.1877
919.979	62.392
921.651	61.6376
923.321	61.892
924.994	62.0196
926.664	62.2059
928.336	61.2219
930.005	60.9505
931.674	60.404
933.345	60.5631
935.014	57.9162
936.682	56.7318
938.352	55.6061
940.019	53.3999
941.687	52.6924
943.356	50.9992
945.022	50.0962
946.689	49.7172
948.357	48.2992
950.022	47.1307
951.688	45.5671
953.355	44.0367
955.02	43.2423
956.684	41.4558
958.348	39.5825
960.014	38.3525
961.678	36.8791
963.341	34.8603
965.004	32.8383
966.669	32.1119
968.331	31.3612
969.993	30.0346
971.655	30.189
973.316	29.7041
974.979	28.8033
976.64	28.4002
978.3	27.8272
979.961	28.3868
981.62	28.5035
983.28	28.7191
984.941	28.787
986.6	28.7533
988.259	29.0999
989.917	28.5187
991.575	29.1165
993.233	30.0111
994.89	30.9786
996.547	31.2351
998.204	32.7365
999.86	33.9981
1001.52	35.0278
1003.17	36.076
1004.83	36.0581
1006.49	37.8317
1008.14	39.1929
1009.79	40.1606
1011.45	40.1498
1013.1	40.694
1014.76	41.0669
1016.41	41.9342
1018.06	42.3315
1019.72	42.6571
1021.37	43.7113
1023.02	44.6055
1024.67	44.9698
1026.32	45.508
1027.97	45.8877
1029.62	45.8793
1031.27	45.8178
1032.92	45.0621
1034.57	44.1144
1036.22	43.5132
1037.87	42.8411
1039.52	41.9141
1041.17	40.1071
1042.82	40.2137
1044.47	39.7068
1046.11	38.7226
1047.76	38.0521
1049.41	38.0815
1051.06	36.9025
1052.7	35.6357
1054.35	36.2479
1055.99	35.7779
1057.64	35.1396
1059.28	35.1394
1060.93	34.2691
1062.57	32.7749
1064.22	31.5495
1065.86	31.7775
1067.5	31.782
1069.15	31.7272
1070.79	32.1524
1072.43	32.7403
1074.08	33.0006
1075.72	34.434
1077.36	35.0087
1079	35.1713
1080.64	36.6491
1082.28	37.1256
1083.92	38.2701
1085.56	38.9081
1087.2	39.8529
1088.84	41.3346
1090.48	41.8928
1092.12	42.9994
1093.76	43.5086
1095.39	45.3597
1097.03	47.6977
1098.67	49.3998
1100.31	51.1151
1101.94	51.46
1103.58	52.7762
1105.22	54.0302
1106.85	54.7192
1108.49	55.7824
1110.12	56.1895
1111.76	56.6303
1113.39	57.8864
1115.03	58.3693
1116.66	57.8698
1118.29	58.0808
1119.93	57.8384
1121.56	56.9096
1123.19	56.0589
1124.82	56.5093
1126.46	54.9609
1128.09	54.1889
1129.72	53.0082
1131.35	52.646
1132.98	51.1993
1134.61	50.1908
1136.24	50.2753
1137.87	49.1274
1139.5	47.7469
1141.13	46.6455
1142.76	45.4551
1144.39	44.1318
1146.01	42.019
1147.64	40.4952
1149.27	38.3902
1150.9	36.2941
1152.53	34.1056
1154.15	32.9732
1155.78	29.8546
1157.4	28.4902
1159.03	25.5755
1160.65	24.1441
1162.28	21.9755
1163.9	19.5313
1165.53	17.1738
1167.15	15.6126
1168.78	15.0801
1170.4	13.9464
1172.02	12.9832
1173.65	12.859
1175.27	11.314
1176.89	11.7021
1178.51	10.5024
1180.14	9.37498
1181.76	8.30296
1183.38	7.59344
1185	6.9035
1186.62	5.7944
1188.24	4.74066
1189.86	4.85151
1191.48	5.07774
1193.1	5.07944
1194.71	4.94874
1196.33	4.86481
1197.95	3.79054
1199.57	4.96127
1201.19	4.68214
1202.8	5.02362
1204.42	6.33108
1206.04	6.9023
1207.65	7.61934
1209.27	9.21665
1210.88	10.5893
1212.5	13.7793
1214.12	14.8492
1215.73	16.796
1217.35	19.2578
1218.96	20.5641
1220.57	22.3757
1222.19	23.5393
1223.8	25.4164
1225.41	26.7951
1227.03	28.1101
1228.64	30.3661
1230.25	32.3022
1231.86	33.752
1233.47	35.154
1235.08	36.7484
1236.69	37.0408
1238.31	39.2303
1239.92	39.7973
1241.52	40.6923
1243.13	41.1404
1244.74	42.069
1246.35	42.4661
1247.96	43.8803
1249.57	45.2425
1251.18	45.1424
1252.78	45.1196
1254.39	45.773
1256	45.2044
1257.6	44.6785
1259.21	43.9201
1260.82	43.8908
1262.42	42.7731
1264.03	41.9302
1265.63	41.0274
1267.24	41.1715
1268.84	41.9466
1270.45	42.6476
1272.05	42.2453
1273.65	41.8348
1275.26	41.3027
1276.86	42.0531
1278.46	41.4564
1280.06	41.2839
1281.67	40.1066
1283.27	41.0633
1284.87	41.9778
1286.47	42.7778
1288.07	43.5013
1289.67	43.9703
1291.27	43.9773
1292.87	44.4798
1294.47	45.5607
1296.07	46.8056
1297.67	48.1695
1299.27	50.1322
1300.87	52.9593
1302.47	55.8068
1304.06	58.8814
1305.66	61.6483
1307.26	63.5082
1308.85	65.7317
1310.45	68.8338
1312.05	70.8627
1313.64	73.384
1315.24	76.596
1316.83	79.0621
1318.43	81.311
1320.02	82.7017
1321.62	84.913
1323.21	87.4123
1324.8	88.549
1326.4	89.9066
1327.99	92.0287
1329.59	93.6638
1331.18	93.8574
1332.77	94.4977
1334.36	94.9572
1335.95	94.3937
1337.54	94.4972
1339.14	94.5682
1340.73	92.9081
1342.32	91.2844
1343.91	90.7112
1345.5	90.7145
1347.09	90.1628
1348.67	88.2151
1350.26	85.9296
1351.85	84.2993
1353.44	83.2426
1355.03	82.5173
1356.62	80.7672
1358.2	79.1685
1359.79	77.6636
1361.38	76.8774
1362.96	75.6866
1364.55	73.704
1366.14	72.9313
1367.72	71.2857
1369.31	70.1437
1370.89	68.7801
1372.48	68.6986
1374.06	68.7424
1375.64	67.5154
1377.23	67.7343
1378.81	68.2289
1380.39	68.9128
1381.98	68.1112
1383.56	67.8432
1385.14	66.9972
1386.72	66.9259
1388.3	66.4292
1389.89	66.3634
1391.47	65.6798
1393.05	66.0787
1394.63	66.0921
1396.21	65.8057
1397.79	64.5345
1399.37	63.38
1400.95	62.6022
1402.52	61.4246
1404.1	60.1073
1405.68	59.1015
1407.26	59.1033
1408.84	58.919
1410.42	57.7124
1411.99	57.8744
1413.57	58.2713
1415.15	58.7188
1416.72	58.6845
1418.3	58.2532
1419.87	58.1064
1421.45	58.6022
1423.02	59.1337
1424.6	60.3628
1426.17	62.0711
1427.75	64.0496
1429.32	66.2577
1430.89	69.3504
1432.47	71.3332
1434.04	74.3604
1435.61	76.102
1437.18	78.7559
1438.76	79.7613
1440.33	80.817
1441.9	82.4769
1443.47	85.4873
1445.04	87.7927
1446.61	88.4673
1448.18	89.9791
1449.75	90.8199
1451.32	90.1167
1452.89	89.4636
1454.46	88.9923
1456.03	88.7008
1457.6	87.5163
1459.16	85.5861
1460.73	83.4588
1462.3	81.9613
1463.87	78.629
1465.43	77.2416
1467	73.9299
1468.56	72.0588
1470.13	68.9556
1471.7	65.1356
1473.26	60.3862
1474.83	56.2925
1476.39	51.699
1477.96	47.8825
1479.52	44.0622
1481.08	40.3464
1482.65	36.6476
1484.21	32.2497
1485.77	29.8113
1487.34	27.2335
1488.9	24.7879
1490.46	22.5098
1492.02	19.3938
1493.58	16.7875
1495.15	13.8188
1496.71	11.7219
1498.27	10.5313
1499.83	9.23666
1501.39	9.30977
1502.95	10.4499
1504.51	11.3419
1506.07	11.6581
1507.63	11.5732
1509.18	12.4309
1510.74	12.0159
1512.3	12.7425
1513.86	12.0605
1515.41	12.8172
1516.97	13.6409
1518.53	15.5919
1520.08	17.7298
1521.64	18.566
1523.2	19.2331
1524.75	19.38
1526.31	19.3358
1527.86	19.169
1529.42	18.5252
1530.97	20.4723
1532.52	22.2328
1534.08	22.993
1535.63	23.3298
1537.19	24.6578
1538.74	25.906
1540.29	26.0855
1541.84	26.6355
1543.4	27.944
1544.95	27.6561
1546.5	27.7646
1548.05	27.1309
1549.6	26.9254
1551.15	28.3986
1552.7	30.116
1554.25	31.4755
1555.8	31.6205
1557.35	32.404
1558.9	33.2684
1560.45	33.9039
1562	35.1829
1563.54	37.3072
1565.09	38.8697
1566.64	39.2071
1568.19	40.0456
1569.73	41.5162
1571.28	42.1508
1572.83	43.0255
1574.37	44.8277
1575.92	46.3567
1577.47	47.3902
1579.01	48.7241
1580.56	50.2578
1582.1	51.2962
1583.64	51.8998
1585.19	53.1767
1586.73	53.7208
1588.28	54.5095
1589.82	56.282
1591.36	57.3756
1592.9	59.122
1594.45	59.7353
1595.99	60.1886
1597.53	60.0733
1599.07	59.8916
1600.61	59.5191
1602.15	58.4735
1603.69	58.1943
1605.23	58.7049
1606.77	58.7863
1608.31	58.6227
1609.85	58.2511
1611.39	57.1688
1612.93	56.9724
1614.47	57.108
1616.01	56.4287
1617.55	55.2865
1619.08	54.7309
1620.62	54.1228
1622.16	53.7105
1623.7	53.6965
1625.23	54.1031
1626.77	54.8081
1628.3	55.315
1629.84	55.2942
1631.37	54.2144
1632.91	53.232
1634.44	53.4636
1635.98	53.9643
1637.51	53.7968
1639.05	53.8963
1640.58	53.0203
1642.11	53.0591
1643.65	53.4152
1645.18	53.8574
1646.71	53.7945
1648.24	52.9519
1649.78	54.3464
1651.31	54.5742
1652.84	55.4511
1654.37	55.055
1655.9	55.6241
1657.43	56.2373
1658.96	56.3197
1660.49	56.2899
1662.02	56.8683
1663.55	56.4346
1665.08	57.0566
1666.61	56.6751
1668.14	55.7737
1669.66	55.454
1671.19	53.2215
1672.72	51.9852
1674.25	51.0696
1675.77	49.1983
1677.3	47.4701
1678.83	45.9568
1680.35	44.9886
1681.88	44.1279
1683.4	43.1358
1684.93	41.3004
1686.45	40.2873
1687.98	38.2889
1689.5	36.5889
1691.03	35.1795
1692.55	33.2099
1694.07	31.3922
1695.6	29.9662
1697.12	28.7007
1698.64	27.7787
1700.17	26.7926
1701.69	26.2614
1703.21	24.8323
1704.73	23.5406
1706.25	22.2776
1707.77	20.9234
1709.29	20.804
1710.81	20.0907
1712.33	19.1507
1713.85	18.3265
1715.37	17.4208
1716.89	16.3279
1718.41	15.7103
1719.93	15.1567
1721.45	13.9633
1722.97	13.5584
1724.49	13.5072
1726	13.6161
1727.52	12.3617
1729.04	11.9262
1730.55	11.0035
1732.07	11.3841
1733.59	11.1047
1735.1	11.1745
1736.62	10.8335
1738.13	10.9065
1739.65	10.4955
1741.16	10.3776
1742.68	9.66462
1744.19	9.21453
1745.7	8.72755
1747.22	7.19628
1748.73	7.02832
1750.24	6.71785
1751.76	6.01293
1753.27	6.03856
1754.78	6.06134
1756.29	6.50551
1757.8	6.96035
1759.31	6.62
1760.83	5.94879
1762.34	5.64715
1763.85	5.16321
1765.36	5.3786
1766.87	5.76314
1768.38	6.01542
1769.89	6.42498
1771.39	6.32951
1772.9	6.97331
1774.41	7.82733
1775.92	8.46571
1777.43	8.66194
1778.94	8.21435
1780.44	7.93787
1781.95	8.04239
1783.46	8.32739
1784.96	8.33316
1786.47	8.07583
1787.97	7.61273
1789.48	7.28647
1790.99	6.8321
1792.49	7.00857
1794	7.22586
1795.5	7.76815
1797	7.73854
1798.51	7.88495
1800.01	7.74785
1801.51	7.87499
1803.02	8.06443
1804.52	8.52397
1806.02	8.92423
1807.53	8.771
1809.03	8.73665
1810.53	8.6317
1812.03	8.84668
1813.53	8.7907
1815.03	9.01943
1816.53	9.32446
1818.03	9.21369
1819.53	8.67186
1821.03	8.25743
1822.53	8.25493
1824.03	8.03292
1825.53	8.48462
1827.03	8.73507
1828.53	8.59037
1830.02	8.63667
1831.52	8.74397
1833.02	8.37886
1834.52	7.77994
1836.01	8.43262
1837.51	8.90073
1839.01	8.85275
1840.5	9.13772
1842	9.36146
1843.49	9.50775
1844.99	10.1015
1846.48	10.5266
1847.98	10.4951
1849.47	10.4963
1850.97	10.2506
1852.46	9.65398
1853.95	9.64056
1855.45	9.51132
1856.94	10.4486
1858.43	10.896
1859.93	11.0128
1861.42	11.5495
1862.91	12.0803
1864.4	12.2932
1865.89	13.221
1867.38	12.9826
1868.87	12.6203
1870.36	12.5564
1871.85	12.339
1873.34	12.2685
1874.83	12.7966
1876.32	13.3856
1877.81	12.5264
1879.3	12.2613
1880.79	11.8021
1882.28	11.2175
1882.52	11.1326
1884.02	11.2446
1885.51	10.8337
1887.01	10.0211
1888.5	9.94706
1889.99	9.82904
1891.49	9.20235
1892.98	8.76741
1894.47	9.09897
1895.97	9.13193
1897.46	8.62514
1898.95	8.87554
1900.44	9.2012
1901.93	8.63263
1903.42	8.91755
1904.91	9.05154
1906.4	8.72038
1907.89	8.53261
1909.38	8.7235
1910.87	7.69702
1912.36	7.19972
1913.85	7.13201
1915.34	7.02759
1916.83	6.69846
1918.32	7.50519
1919.8	7.27283
1921.29	6.30651
1922.78	6.13959
1924.27	5.77966
1925.75	5.48789
1927.24	5.83671
1928.73	5.79517
1930.21	5.68664
1931.7	5.30267
1933.18	4.76896
1934.67	4.45337
1936.15	4.30686
1937.64	3.75779
1939.12	4.46173
1940.61	3.6949
1942.09	2.76513
1943.57	2.22835
1945.06	2.15113
1946.54	2.06871
1948.02	2.25119
1949.51	1.46208
1950.99	0.985392
1952.47	0.567324
1953.95	0.285096
1955.43	0.12405
1956.91	0.420409
1958.4	0.506549
1959.88	0.0895817
1961.36	0.553261
1962.84	0.8428
1964.32	0.728929
1965.8	0.580929
1967.27	1.20631
1968.75	2.07386
1970.23	2.82658
1971.71	3.58201
1973.19	3.68915
1974.67	3.76285
1976.14	3.5966
1977.62	4.00974
1979.1	4.05883
1980.58	4.01743
1982.05	4.41511
1983.53	4.98296
1985	4.80798
1986.48	4.88398
1987.95	5.00275
1989.43	4.6208
1990.9	5.26783
1992.38	6.04395
1993.85	5.62365
1995.33	4.85161
1996.8	4.95128
1998.27	5.23599
1999.75	5.33364
2001.22	5.71366
2002.69	6.28229
2004.16	6.26339
2005.64	7.058
2007.11	7.78488
2008.58	8.35289
2010.05	8.82161
2011.52	8.91546
2012.99	8.77518
2014.46	8.29121
2015.93	8.36053
2017.4	8.66717
2018.87	8.73934
2020.34	8.21702
2021.81	8.12034
2023.28	8.11344
2024.75	8.82637
2026.22	8.9082
2027.69	8.95917
2029.15	8.52113
2030.62	8.48436
2032.09	8.11923
2033.56	7.69763
2035.02	7.5463
2036.49	6.97974
2037.96	7.04235
2039.42	7.71541
2040.89	8.51922
2042.35	9.14995
2043.82	8.94983
2045.28	7.59716
2046.75	6.59556
2048.21	6.64753
2049.67	6.24877
2051.14	6.51854
2052.6	6.11122
2054.07	5.74843
2055.53	5.25604
2056.99	4.85922
2058.45	4.29337
2059.92	4.6696
2061.38	4.90205
2062.84	4.66701
2064.3	5.2151
2065.76	5.16274
2067.22	4.68383
2068.68	4.83568
2070.14	5.11858
2071.6	5.37185
2073.06	5.82037
2074.52	6.48536
2075.98	7.07196
2077.44	7.27526
2078.9	8.23774
2080.36	7.8829
2081.82	7.86001
2083.27	8.32988
2084.73	8.25222
2086.19	7.81211
2087.65	8.2201
2089.1	8.16807
2090.56	8.10569
2092.02	8.43584
2093.47	9.49739
2094.93	9.96826
2096.38	10.1693
2097.84	10.5376
2099.29	10.2747
2100.75	9.69747
2102.2	9.93344
2103.66	9.68507
2105.11	9.60881
2106.56	9.20128
2108.02	9.2355
2109.47	9.37149
2110.92	9.0449
2112.38	8.65648
2113.83	8.70724
2115.28	8.3015
2116.73	7.7276
2118.18	7.89552
2119.63	8.59904
2121.09	8.65459
2122.54	8.41332
2123.99	8.95321
2125.44	8.49657
2126.89	8.73195
2128.34	8.54414
2129.79	9.31172
2131.23	9.65132
2132.68	9.40395
2134.13	9.33905
2135.58	8.92829
2137.03	9.03129
2138.48	9.03879
2139.92	8.38724
2141.37	8.97188
2142.82	8.96751
2144.27	9.27485
2145.71	9.41288
2147.16	9.39638
2148.6	9.16412
2150.05	9.02345
2151.49	8.86123
2152.94	8.34373
2154.38	9.0481
2155.83	8.42047
2157.27	7.88445
2158.72	8.18754
2160.16	9.20157
2161.6	8.89784
2163.05	8.76573
2164.49	9.19203
2165.93	9.46684
2167.38	8.67993
2168.82	8.21324
2170.26	8.04939
2171.7	8.06345
2173.14	7.60822
2174.58	7.01885
2176.03	6.83134
2177.47	6.85306
2178.91	6.52548
2180.35	6.5107
2181.79	6.08744
2183.23	6.68107
2184.67	7.29466
2186.1	7.23841
2187.54	7.56233
2188.98	7.90528
2190.42	7.78736
2191.86	7.45977
2193.3	7.31241
2194.73	7.73075
2196.17	8.16131
2197.61	8.10939
2199.05	8.26589
2200.48	8.12342
2201.92	8.45083
2203.35	8.61915
2204.79	7.80928
2206.22	8.33263
2207.66	7.87045
2209.1	7.96634
2210.53	7.14683
2211.97	6.78351
2213.4	6.99689
2214.83	6.99488
2216.27	7.05479
2217.7	6.84175
2219.13	6.61229
2220.57	6.86778
2222	7.34228
2223.43	7.55393
2224.86	7.43515
2226.29	7.13468
2227.72	6.88465
2229.16	7.72177
2230.59	7.5985
2232.02	7.23104
2233.45	6.27304
2234.88	6.78307
2236.31	7.21845
2237.74	7.12075
2239.17	6.76205
2240.6	6.56159
2242.03	7.38298
2243.45	7.81558
2244.88	7.44716
2246.31	7.77489
2247.74	8.55457
2249.17	8.40636
2250.59	8.68427
2252.02	9.38508
2253.45	10.298
2254.87	11.4291
2256.3	10.6587
2257.73	9.91306
2259.15	10.3564
2260.58	10.0703
2262	9.94044
2263.43	10.2127
2264.85	9.82046
2266.28	9.71613
2267.7	9.37278
2269.13	8.61493
2270.55	8.4183
2271.97	7.77572
2273.4	7.13782
2274.82	6.74053
2276.24	5.99442
2277.67	6.11809
2279.09	5.82692
2280.51	5.73338
2281.93	5.93829
2283.35	6.55587
2284.77	6.87746
2286.2	6.82182
2287.62	6.59477
2289.04	6.3917
2290.46	6.17528
2291.88	5.19628
2293.3	4.46208
2294.72	4.15358
2296.13	4.62257
2297.55	4.6761
2298.97	5.43889
2300.39	5.69739
2301.81	5.50556
2303.23	6.23442
2304.64	7.14286
2306.06	7.58743
2307.48	8.27481
2308.89	8.60704
2310.31	8.61696
2311.73	9.20472
2313.14	10.1391
2314.56	9.45166
2315.98	9.80449
2317.39	10.1841
2318.81	9.64864
2320.22	9.73197
2321.64	10.4346
2323.05	10.32
2324.46	10.2967
2325.88	9.79264
2327.29	8.48766
2328.7	8.20724
2330.12	8.23019
2331.53	7.30784
2332.94	7.00102
2334.35	6.5806
2335.77	5.77139
2337.18	5.0997
2338.59	4.54636
2340	4.10553
2341.41	4.15439
2342.82	4.15927
2344.23	4.09137
2345.64	4.05956
2347.05	4.42737
2348.46	4.54577
2349.87	4.82001
2351.28	4.69555
2352.69	4.37828
2354.1	3.60122
2355.51	3.26092
2356.91	2.97536
2358.32	3.24304
2359.73	2.58925
2361.14	2.17923
2362.54	2.36729
2363.95	3.48687
2365.36	4.56673
2366.76	5.68455
2368.17	6.00556
2369.58	6.69935
2370.98	6.56641
2372.39	6.86138
2373.79	7.72442
2375.2	7.29753
2376.6	6.88559
2378	7.5336
2379.41	6.96418
2380.81	6.50835
2382.22	6.03967
2383.62	5.31054
2385.02	4.96485
2386.43	5.47629
2387.83	4.94071
2389.23	4.56672
2390.63	5.2883
2392.03	5.39972
2393.44	4.4617
2394.84	3.73287
2396.24	2.73597
2397.64	1.99651
2399.04	2.1681
2400.44	1.85176
2401.84	1.59326
2403.24	1.75835
2404.64	1.62172
2406.04	1.58852
2407.44	1.80235
2408.84	2.07012
2410.23	2.97845
2411.63	3.11785
2413.03	3.28504
2414.43	3.40789
2415.83	3.60002
2417.22	4.76552
2418.62	5.04845
2420.02	5.23022
2421.41	5.18894
2422.81	5.29949
2424.21	5.99514
2425.6	6.12758
2427	6.40002
2428.39	6.5475
2429.79	6.24364
2431.18	6.55034
2432.58	7.25871
2433.97	7.48045
2435.36	7.3976
2436.76	7.80351
2438.15	7.83744
2439.54	7.22248
2440.94	6.48592
2442.33	6.78854
2443.72	6.72929
2445.12	5.75899
2446.51	6.30756
2447.9	5.93679
2449.29	4.94965
2450.68	4.76927
2452.07	4.28943
2453.46	4.52779
2454.85	4.70515
2456.24	4.16027
2457.64	3.70033
2459.02	2.95194
2460.41	2.67064
2461.8	1.88044
2463.19	0.933029
2464.58	0.468125
2465.97	1.35385
2467.36	1.33739
2468.75	1.65069
2470.13	1.22946
2471.52	1.41541
2472.91	1.27909
2474.3	1.72832
2475.68	1.87309
2477.07	2.0462
2478.45	2.02706
2479.84	2.56406
2481.23	2.16643
2482.61	2.45343
2484	2.70126
2485.38	2.92967
2486.77	2.92692
2488.15	2.25671
2489.54	2.14319
2490.92	2.06735
2492.3	1.62131
2493.69	1.61608
2495.07	1.1836
2496.45	0.96821
2497.84	0.85054
2499.22	0.542227
2500.6	0.502769
2501.98	1.5277
2503.36	1.0313
2504.75	1.00902
2506.13	1.78931
2507.51	1.57379
2508.89	0.997107
2510.27	1.21141
2511.65	1.39874
2513.03	1.16313
2514.41	1.23119
2515.79	1.22453
2517.17	0.625018
2518.55	0.588981
2519.93	0.87886
2521.3	0.509218
2522.68	0.58115
2524.06	0.159289
2525.44	0.0879706
2526.82	-0.200271
2528.19	-0.0505217
2529.57	0.687911
2530.95	1.11626
2532.32	1.60086
2533.7	1.97153
2535.08	2.24883
2536.45	1.49828
2537.83	1.57277
2539.2	1.78542
2540.58	2.70392
2541.95	2.42721
2543.33	2.31223
2544.7	2.49292
2546.08	2.85426
2547.45	2.87117
2548.82	3.04014
2550.2	3.67066
2551.57	3.35666
2552.94	3.082
2554.32	2.99387
2555.69	2.92973
2557.06	3.11405
2558.43	2.92155
2559.8	2.58505
2561.18	2.41907
2562.55	2.29064
2563.92	1.88509
2565.29	1.16605
2566.66	1.5332
2568.03	1.63429
2569.4	2.51412
2570.77	2.81451
2572.14	2.50303
2573.51	2.35797
2574.88	2.52095
2576.25	2.30408
2577.61	2.27278
2578.98	2.56874
2580.35	2.42401
2581.72	2.37363
2583.09	2.26671
2584.45	1.63613
2585.82	1.64696
2587.19	1.17945
2588.55	1.26142
2589.92	0.884703
2591.29	1.32458
2592.65	1.33587
2594.02	1.81283
2595.38	1.80685
2596.75	2.15564
2598.11	2.09579
2599.48	2.18734
2600.84	1.90085
2602.21	1.66523
2603.57	1.6877
2604.93	2.01482
2606.3	2.41605
2607.66	3.01595
2609.02	2.97891
2610.39	3.02708
2611.75	3.16988
2613.11	3.86507
2614.47	3.89365
2615.83	3.13027
2617.19	3.34352
2618.56	3.91415
2619.92	3.5665
2621.28	3.74683
2622.64	4.1002
2624	3.99917
2625.36	3.56044
2626.72	2.87146
2628.08	2.77754
2629.44	2.84445
2630.8	2.27378
2632.15	1.97001
2633.51	2.12259
2634.87	2.94543
2636.23	3.13368
2637.59	3.47728
2638.94	2.9568
2640.3	3.15938
2641.66	3.24828
2643.02	3.59913
2644.37	3.03751
2645.73	3.04273
2647.09	3.3051
2648.44	2.87962
2649.8	2.55297
2651.15	2.89148
2652.51	2.75055
2653.86	2.67862
2655.22	2.40288
2656.57	2.66147
2657.93	2.46958
2659.28	3.02941
2660.63	2.86307
2661.99	3.24986
2663.34	3.19961
2664.69	3.5014
2666.05	3.88102
2667.4	4.31408
2668.75	4.62044
2670.1	5.46545
2671.45	6.06863
2672.81	6.51051
2674.16	6.23176
2675.51	6.28118
2676.86	6.35141
2678.21	6.73187
2679.56	6.54307
2680.91	6.89751
2682.26	7.08583
2683.61	6.98164
2684.96	7.8925
2686.31	8.00273
2687.66	8.17389
2689	8.19365
2690.35	8.41185
2691.7	8.67395
2693.05	8.77995
2694.4	9.12233
2695.74	9.76208
2697.09	9.93698
2698.44	9.8143
2699.79	10.068
2701.13	11.2762
2702.48	12.322
2703.83	12.1171
2705.17	12.3774
2706.52	12.3935
2707.86	13.2372
2709.21	13.0478
2710.55	12.8614
2711.9	12.8264
2713.24	13.0841
2714.58	13.2789
2715.93	13.2469
2717.27	12.8888
2718.62	13.0568
2719.96	12.4447
2721.3	12.5591
2722.65	12.7188
2723.99	12.7606
2725.33	13.336
2726.67	13.6009
2728.01	13.5228
2729.35	13.1534
2730.7	12.8233
2732.04	13.1015
2733.38	12.8982
2734.72	12.513
2736.06	12.4273
2737.4	11.9343
2738.74	10.9904
2740.08	10.1959
2741.42	9.45403
2742.76	9.77697
2744.1	9.59204
2745.43	9.29729
2746.77	8.59022
2748.11	8.50529
2749.45	8.11133
2750.79	7.58457
2752.12	7.59599
2753.46	7.61068
2754.8	7.6659
2756.14	6.98949
2757.47	6.98095
2758.81	7.30423
2760.14	7.26142
2761.48	7.3322
2762.81	6.90255
2764.15	6.31725
2765.49	6.41417
2766.82	6.04041
2768.16	5.86605
2769.49	4.96772
2770.82	3.79913
2772.16	3.73605
2773.49	3.92747
2774.82	4.23249
2776.16	3.30629
2777.49	3.10379
2778.82	2.82337
2780.16	2.73711
2781.49	3.29891
2782.82	2.59793
2784.15	2.22214
2785.48	2.30398
2786.82	1.73735
2788.15	1.94277
2789.48	2.23899
2790.81	2.25838
2792.14	2.70208
2793.47	2.27651
2794.8	2.29875
2796.13	1.98436
2797.46	1.5781
2798.79	1.67694
2800.12	1.30617
2801.44	1.55438
2802.77	1.33788
2804.1	1.10104
2805.43	1.28639
2806.76	1.52276
2808.08	1.58863
2809.41	1.29149
2810.74	1.14537
2812.07	1.63666
2813.39	1.80317
2814.72	2.74383
2816.05	3.22786
2817.37	3.77058
2818.7	4.81542
2820.02	6.00457
2821.35	7.58187
2822.67	8.60487
2824	10.1723
2825.32	11.208
2826.65	12.9857
2827.97	13.6868
2829.3	15.7186
2830.62	17.0613
2831.94	18.4408
2833.26	20.0477
2834.59	22.0997
2835.91	24.6549
2837.23	27.2132
2838.56	30.4381
2839.88	33.2307
2841.2	35.9234
2842.52	38.0305
2843.84	41.286
2845.16	44.7522
2846.48	48.4264
2847.8	51.3191
2849.12	54.9427
2850.45	59.2775
2851.77	63.6428
2853.08	68.7275
2854.4	74.2962
2855.72	79.1329
2857.04	84.0435
2858.36	88.8546
2859.68	94.292
2861	98.7933
2862.32	103.746
2863.63	108.912
2864.95	114.979
2866.27	120.457
2867.59	126.11
2868.9	131.141
2870.22	136.633
2871.54	142.065
2872.85	147.123
2874.17	152.616
2875.48	157.451
2876.8	163.201
2878.11	168.429
2879.43	173.503
2880.74	178.353
2882.06	183.186
2883.37	187.992
2884.69	193.075
2886	197.742
2887.31	202.189
2888.63	205.652
2889.94	210.004
2891.25	214.867
2892.57	219.027
2893.88	222.529
2895.19	226.661
2896.5	229.441
2897.82	232.597
2899.13	236.326
2900.44	239.388
2901.75	243.042
2903.06	246.163
2904.37	249.381
2905.68	252.145
2906.99	255.215
2908.3	258.331
2909.61	262.579
2910.92	266.066
2912.23	269.319
2913.54	272.673
2914.85	277.509
2916.16	280.404
2917.46	284.01
2918.77	287.082
2920.08	289.555
2921.39	291.61
2922.7	293.792
2924	294.832
2925.31	296.45
2926.62	296.561
2927.92	297.685
2929.23	297.772
2930.54	297.423
2931.84	296.284
2933.15	295.431
2934.45	293.4
2935.76	291.054
2937.06	288.841
2938.37	286.101
2939.67	283.23
2940.98	279.611
2942.28	276.651
2943.58	272.064
2944.89	268.476
2946.19	264.279
2947.49	260.05
2948.8	255.452
2950.1	251.124
2951.4	246.167
2952.7	241.671
2954.01	236.561
2955.31	232.193
2956.61	227.197
2957.91	221.815
2959.21	216.952
2960.51	211.608
2961.81	206.503
2963.11	201.037
2964.41	196.269
2965.71	191.456
2967.01	186.528
2968.31	181.303
2969.61	176.856
2970.91	172.493
2972.21	167.682
2973.51	163.517
2974.81	159.011
2976.1	153.906
2977.4	148.933
2978.7	144.596
2980	139.743
2981.29	134.172
2982.59	129.854
2983.89	124.769
2985.18	119.565
2986.48	114.658
2987.78	108.776
2989.07	103.318
2990.37	98.4085
2991.66	93.3808
2992.96	87.8651
2994.25	82.5115
2995.55	77.0731
2996.84	71.6861
2998.14	66.7502
2999.43	61.2505
3000.73	56.1179
3002.02	51.8323
3003.31	47.5955
3004.61	43.2053
3005.9	39.1481
3007.19	35.1141
3008.48	31.2434
3009.77	28.6287
3011.07	25.3267
3012.36	22.4583
3013.65	19.4056
3014.94	17.1381
3016.23	14.4814
3017.52	12.5337
3018.81	10.3182
3020.1	8.97793
3021.4	7.35425
3022.68	6.19963
3023.97	4.80719
3025.26	4.01358
3026.55	3.0451
3027.84	1.73383
3029.13	1.46322
3030.42	0.959676
3031.71	0.674178
3033	0.205856
3034.28	0.943624
3035.57	0.649837
3036.86	0.689518
3038.15	1.50785
3039.43	1.65837
3040.72	2.39926
3042.01	3.16231
3043.29	3.8044
3044.58	4.35452
3045.87	5.36809
3047.15	6.44468
3048.44	6.92258
3049.72	7.94425
3051.01	8.72465
3052.29	8.99592
3053.58	10.0325
3054.86	10.3674
3056.15	10.7998
3057.43	11.0008
3058.71	11.465
3060	11.321
3061.28	11.5239
3062.56	11.193
3063.84	10.9068
3065.13	11.2668
3066.41	11.4961
3067.69	11.4221
3068.97	11.0888
3070.26	10.7438
3071.54	9.90814
3072.82	9.96576
3074.1	9.19996
3075.38	8.7166
3076.66	7.62996
3077.94	6.23621
3079.22	5.98242
3080.5	5.16751
3081.78	4.52638
3083.06	4.48281
3084.34	3.95333
3085.62	3.5185
3086.9	3.3951
3088.18	3.02644
3089.45	2.8586
3090.73	2.11777
3092.01	2.17134
3093.29	2.32369
3094.56	2.2315
3095.84	2.22598
3097.12	2.2173
3098.4	2.92495
3099.67	2.82534
3100.95	2.98331
3102.22	3.40029
3103.5	3.26547
3104.78	3.12672
3106.05	3.52405
3107.33	3.60611
3108.6	4.30453
3109.88	4.90285
3111.15	5.76901
3112.43	6.785
3113.7	8.25596
3114.97	8.70017
3116.25	9.48773
3117.52	10.0425
3118.79	10.9123
3120.07	12.0639
3121.34	12.8766
3122.61	13.4709
3123.88	14.1808
3125.16	14.8902
3126.43	15.4104
3127.7	16.9275
3128.97	18.3288
3130.24	18.8181
3131.51	19.884
3132.79	20.6534
3134.06	21.4567
3135.33	22.6241
3136.6	24.2478
3137.87	24.9901
3139.14	26.6265
3140.41	27.7669
3141.67	29.4454
3142.94	31.1628
3144.21	32.7501
3145.48	34.2175
3146.75	35.3285
3148.02	37.1044
3149.29	37.8388
