#Acq. time (s)=	45
#Accumulations=	2
#Range (cm-¹)=	200...3150
#Windows=	2
#Auto scanning=	Off
#Autofocus=	Off
#Macrospot=	Off
#AutoExposure=	Off
#Spike filter=	Multiple accum.
#Delay time (s)=	0
#Binning=	1
#Readout mode=	Signal
#DeNoise=	Off
#ICS correction=	On
#Dark correction=	Off
#Inst. Process=	Off
#Detector Gain=	Best Dynamic Range
#Detector ADC=	20 kHz       
#Detector temperature (°C)=	-69.85
#Instrument=	LabRAM HR Evol
#Detector=	Synapse
#Objective=	x100
#Grating=	600 gr/mm
#ND Filter=	100%
#Laser (nm)=	532 
#Hole=	100.021
#Range=	Auto
#Laser Pol.=	No
#Raman. Pol.=	No
#Laser Pol. (°)=	-0.0007625
#Raman Pol. (°)=	89.9995
#Collection=	Microscope
#StageXY=	Marzhauser
#StageZ=	Marzhauser
#X (µm)=	-5891.4
#Y (µm)=	2848.3
#Z (µm)=	-223.65
#Full time(mm:ss)=	3:18
#Project=	
#Sample=	
#Site=	
#Title=	Thy_20_09_12_2x_45s_532 nm_x100_100%_600 gr_mm
#Remark=	
#Date=	29.06.2022 11:33
#Acquired=	29.06.2022 11:33:17
#Base:Fit=	10.08.2022 09:52:02
#Base:Fit=	10.08.2022 09:52:12
#Base:Sub=	10.08.2022 09:54:21
#Filter:Polynom=	16.08.2022 10:24:04
#AxisType[0]=Intens
#AxisUnit[0]=Cnt
#AxisType[1]=Spectr
#AxisUnit[1]=1/cm
200.523	17.9526
202.339	18.3942
204.154	18.8363
205.967	18.2261
207.781	17.8649
209.596	17.1244
211.409	16.3437
213.222	15.5414
215.034	15.151
216.848	14.906
218.659	12.8011
220.47	10.8235
222.281	10.2333
224.091	9.07152
225.903	8.45134
227.713	8.29606
229.522	7.53843
231.331	8.39758
233.14	8.0541
234.948	7.42704
236.756	7.50641
238.566	7.5643
240.373	7.56449
242.18	7.13023
243.986	7.07366
245.792	6.93346
247.598	7.16465
249.403	7.14491
251.208	7.49797
253.013	7.1527
254.818	6.3697
256.624	5.0024
258.427	4.17666
260.231	5.08099
262.034	5.73931
263.836	6.43559
265.638	5.95825
267.44	5.54483
269.242	5.59474
271.043	5.37123
272.844	5.20779
274.645	5.38098
276.445	6.35837
278.245	7.29882
280.044	7.83467
281.843	7.40518
283.642	8.05247
285.44	7.26936
287.238	7.25091
289.036	7.67795
290.833	7.33781
292.63	6.85018
294.425	7.64055
296.221	7.68032
298.017	7.22268
299.813	7.34298
301.608	7.19911
303.403	7.42062
305.198	7.79715
306.992	6.63651
308.786	5.776
310.579	6.99917
312.371	6.406
314.163	5.48438
315.956	4.89612
317.748	5.18796
319.54	6.06972
321.331	7.37189
323.122	7.42495
324.911	8.00923
326.701	8.96537
328.491	8.46208
330.281	8.95203
332.071	8.93863
333.857	9.46273
335.646	10.3598
337.434	11.0851
339.222	10.3181
341.008	9.97871
342.795	9.27371
344.582	8.97089
346.369	8.58594
348.153	8.42239
349.939	9.54498
351.724	8.13374
353.51	7.79497
355.292	6.92689
357.077	7.62443
358.861	8.31334
360.643	8.1686
362.426	8.23622
364.21	8.82384
365.99	8.30377
367.773	7.50265
369.555	7.99734
371.335	7.42808
373.116	6.98516
374.897	6.43166
376.676	6.62285
378.456	6.20572
380.236	6.35308
382.014	5.31766
383.793	5.76207
385.57	4.83961
387.349	5.05263
389.127	5.01066
390.903	4.65837
392.681	5.00758
394.456	4.01726
396.233	2.60842
398.007	2.58143
399.784	2.65436
401.56	1.64901
403.333	2.0031
405.108	2.08595
406.881	3.71556
408.656	4.94218
410.428	5.45769
412.202	4.72359
413.973	4.7805
415.746	4.97605
417.517	4.54429
419.29	5.07696
421.06	5.27315
422.831	5.13237
424.601	5.90286
426.37	5.47761
428.141	5.71995
429.909	6.05719
431.679	6.22035
433.447	5.57514
435.216	4.72463
436.983	4.46762
438.75	4.65269
440.519	4.076
442.285	5.13417
444.052	5.94685
445.818	6.87225
447.583	7.03799
449.349	7.14599
451.114	7.283
452.878	7.11583
454.643	7.00138
456.407	8.29472
458.169	9.03934
459.934	9.51789
461.696	9.78571
463.458	10.9571
465.222	10.6036
466.983	11.4784
468.744	11.2174
470.507	11.1675
472.267	12.4501
474.027	12.6242
475.787	12.8692
477.548	12.9747
479.307	13.7733
481.065	13.0022
482.823	13.2461
484.583	13.4643
486.341	13.6581
488.098	14.9615
489.855	14.6873
491.612	14.3814
493.37	15.506
495.126	16.1256
496.881	17.0679
498.636	17.1142
500.391	16.6973
502.148	17.8718
503.902	18.3341
505.656	18.3873
507.409	19.0861
509.162	19.1763
510.915	19.515
512.668	20.172
514.42	19.6452
516.174	19.5623
517.925	18.0546
519.676	17.7345
521.427	16.8485
523.178	16.996
524.928	17.8201
526.678	17.8595
528.427	18.176
530.176	18.3493
531.925	18.5248
533.673	17.6154
535.422	18.0851
537.169	17.4859
538.917	17.599
540.664	18.3918
542.411	18.071
544.157	18.1982
545.903	17.2952
547.649	17.3285
549.395	16.1971
551.14	15.765
552.884	14.7904
554.629	14.522
556.373	13.4564
558.117	12.6638
559.86	11.9334
561.603	10.9202
563.346	11.265
565.089	10.2857
566.831	9.82276
568.573	8.95508
570.314	8.93093
572.053	7.98269
573.794	8.04954
575.534	7.95345
577.274	6.70176
579.014	6.23343
580.754	5.84153
582.493	4.91478
584.23	5.90662
585.968	5.05074
587.706	4.76652
589.444	3.68423
591.181	3.27636
592.919	2.43841
594.653	1.95775
596.39	1.56119
598.126	1.41992
599.862	0.168827
601.595	0.35926
603.33	0.67386
605.065	1.30183
606.8	1.50133
608.532	1.56922
610.266	2.06425
611.999	1.71473
613.732	1.54886
615.463	2.36773
617.196	1.94
618.928	1.66655
620.66	2.17553
622.389	2.3056
624.12	2.52063
625.851	3.59774
627.58	4.42781
629.31	4.87512
631.04	5.38355
632.767	5.66685
634.497	6.11127
636.223	6.54352
637.952	7.21628
639.68	7.75869
641.406	8.40287
643.134	9.31888
644.861	10.4272
646.586	11.4865
648.312	11.5154
650.037	12.6181
651.762	13.086
653.486	14.7396
655.211	15.4574
656.936	15.9745
658.659	16.8159
660.383	18.1507
662.105	19.3097
663.829	20.5809
665.55	21.6388
667.273	22.4109
668.994	23.5208
670.716	24.2775
672.436	24.2789
674.158	25.6852
675.877	26.4516
677.598	28.2337
679.317	28.583
681.035	29.5984
682.755	30.4199
684.473	31.141
686.192	32.9625
687.909	33.7469
689.628	34.0593
691.344	34.4678
693.06	33.844
694.778	34.6401
696.493	35.276
698.211	35.466
699.925	37.0735
701.64	37.6695
703.356	37.6658
705.07	38.4128
706.783	39.9444
708.498	40.7805
710.211	41.4926
711.924	42.2432
713.638	42.4276
715.35	42.4415
717.061	42.2176
718.774	43.2902
720.485	44.5299
722.196	45.4473
723.906	46.5169
725.618	46.5028
727.328	47.0634
729.037	46.9374
730.746	46.7981
732.456	47.0852
734.165	47.5963
735.873	49.1592
737.58	49.9329
739.289	50.8849
740.997	51.7322
742.703	52.2809
744.41	53.2063
746.116	54.0212
747.823	54.7176
749.529	54.6049
751.234	55.1945
752.938	55.6844
754.643	57.4259
756.347	58.1144
758.051	59.5404
759.756	60.5444
761.459	61.5517
763.162	62.3291
764.865	62.8657
766.567	64.5379
768.269	65.1947
769.97	66.2827
771.671	66.8117
773.372	67.6318
775.073	68.5367
776.773	69.8815
778.473	71.4411
780.174	73.3593
781.874	73.9274
783.573	75.3934
785.271	77.3294
786.97	77.5605
788.668	77.6755
790.365	78.226
792.063	79.3166
793.76	79.968
795.456	79.4421
797.153	80.5526
798.847	80.7292
800.543	82.0919
802.238	82.9976
803.933	83.6555
805.628	83.8386
807.322	83.1365
809.017	83.3934
810.71	82.0509
812.404	81.8335
814.097	81.1042
815.79	81.263
817.483	81.1114
819.173	80.8585
820.865	80.9306
822.556	80.6906
824.248	80.2055
825.939	78.8474
827.629	78.0044
829.318	76.7527
831.008	75.7859
832.697	74.8998
834.387	73.8405
836.076	73.7173
837.765	73.5308
839.451	72.4784
841.139	71.2581
842.827	70.1841
844.514	69.0455
846.2	68.1205
847.886	66.4103
849.573	64.8083
851.259	63.5762
852.943	62.0669
854.629	61.4801
856.314	60.9211
857.997	59.6992
859.682	58.0358
861.366	57.5419
863.05	56.6153
864.732	55.759
866.415	54.1402
868.098	53.8846
869.779	52.0391
871.461	51.1123
873.141	50.5627
874.823	50.2779
876.505	50.7727
878.184	50.615
879.865	50.1359
881.545	49.9924
883.223	49.4271
884.903	49.245
886.581	48.8435
888.26	48.3512
889.937	48.1373
891.616	48.3608
893.294	48.0954
894.97	47.2135
896.648	46.5831
898.323	45.9152
900	45.8357
901.675	45.6788
903.351	45.3706
905.026	45.8072
906.701	46.1966
908.375	45.5952
910.05	44.8891
911.723	44.9623
913.398	44.4711
915.07	45.3239
916.742	44.1082
918.415	44.2676
920.087	44.6788
921.76	43.4567
923.43	42.5706
925.103	42.8454
926.773	42.0589
928.443	41.1041
930.114	41.008
931.783	40.6806
933.454	40.7152
935.123	41.1161
936.791	40.8577
938.461	40.7144
940.128	40.6619
941.796	39.8172
943.464	40.004
945.131	39.2242
946.797	38.5404
948.465	38.052
950.131	37.56
951.797	36.9909
953.462	36.966
955.128	37.764
956.793	36.1005
958.457	35.2268
960.121	34.4248
961.786	34.1538
963.45	34.0103
965.113	33.9431
966.775	34.4708
968.44	35.8509
970.102	37.0888
971.763	37.1968
973.425	36.6875
975.086	36.1014
976.748	35.0795
978.409	34.9407
980.069	34.3695
981.729	34.7673
983.388	35.3289
985.048	35.3316
986.708	35.4077
988.367	34.8567
990.025	33.6517
991.683	32.1756
993.341	30.4931
994.998	31.2485
996.655	30.8822
998.312	30.0914
999.969	29.0574
1001.62	29.936
1003.28	29.4933
1004.94	28.6318
1006.59	28.6154
1008.25	27.9942
1009.9	26.9756
1011.56	25.4459
1013.21	24.7099
1014.86	23.6462
1016.52	22.4022
1018.17	21.0597
1019.82	20.6627
1021.48	20.4512
1023.13	19.8355
1024.78	18.5194
1026.43	18.2368
1028.08	17.1596
1029.73	16.8099
1031.38	16.3066
1033.03	15.6587
1034.68	14.9829
1036.33	15.0125
1037.98	14.1976
1039.63	13.0124
1041.28	13.3173
1042.93	13.7253
1044.57	15.1815
1046.22	14.9183
1047.87	15.6866
1049.52	16.1296
1051.16	16.4045
1052.81	16.1085
1054.45	15.2723
1056.1	14.8773
1057.75	15.4876
1059.39	16.1245
1061.04	16.2913
1062.68	15.5642
1064.32	14.9431
1065.97	14.3289
1067.61	14.2193
1069.25	14.2883
1070.9	14.5589
1072.54	15.153
1074.18	15.1619
1075.82	16.2111
1077.47	17.0797
1079.11	16.2678
1080.75	16.0371
1082.39	15.976
1084.03	15.2813
1085.67	14.9641
1087.31	14.6405
1088.95	14.3854
1090.59	14.295
1092.22	13.734
1093.86	13.0978
1095.5	13.4911
1097.14	14.246
1098.78	14.3881
1100.41	15.76
1102.05	17.6595
1103.69	17.9864
1105.32	18.7206
1106.96	18.6002
1108.59	18.902
1110.23	18.5216
1111.86	17.8605
1113.5	17.3071
1115.13	17.2346
1116.77	17.8515
1118.4	16.8057
1120.03	15.9156
1121.67	15.3924
1123.3	15.1999
1124.93	14.3496
1126.56	13.7913
1128.19	13.1471
1129.83	13.0423
1131.46	12.7476
1133.09	12.1156
1134.72	12.1426
1136.35	12.2734
1137.98	12.2922
1139.61	11.7087
1141.24	11.1312
1142.86	9.35743
1144.49	8.77067
1146.12	9.04484
1147.75	9.45859
1149.38	9.91907
1151	9.70415
1152.63	8.70427
1154.26	7.75126
1155.88	7.13144
1157.51	7.33776
1159.14	6.89251
1160.76	6.25948
1162.39	5.90104
1164.01	5.46936
1165.63	5.47402
1167.26	6.4252
1168.88	6.3549
1170.51	6.66374
1172.13	6.82344
1173.75	7.33228
1175.38	8.64396
1177	10.5471
1178.62	11.5733
1180.24	12.9884
1181.86	14.2672
1183.48	14.8808
1185.1	14.2031
1186.72	14.5236
1188.34	15.0492
1189.96	15.8867
1191.58	16.2601
1193.2	16.2412
1194.82	17.5389
1196.44	18.4216
1198.06	20.2934
1199.68	21.7755
1201.29	23.074
1202.91	24.6228
1204.53	25.6367
1206.14	26.7809
1207.76	29.0257
1209.38	30.8888
1210.99	32.8157
1212.61	35.1841
1214.22	36.5309
1215.84	38.6276
1217.45	40.4027
1219.07	41.2945
1220.68	43.0348
1222.29	44.4084
1223.91	45.9102
1225.52	49.2943
1227.13	50.4611
1228.74	52.1635
1230.36	54.241
1231.97	54.9912
1233.58	56.2421
1235.19	58.6727
1236.8	60.1587
1238.41	60.888
1240.02	61.9072
1241.63	62.2461
1243.24	63.1055
1244.85	65.6967
1246.46	66.745
1248.07	68.3749
1249.67	69.0562
1251.28	69.6555
1252.89	69.8105
1254.5	71.037
1256.1	71.3503
1257.71	71.734
1259.32	72.1414
1260.92	72.4541
1262.53	72.3626
1264.13	72.3646
1265.74	72.8478
1267.34	73.794
1268.95	74.0773
1270.55	73.8267
1272.15	74.283
1273.76	75.6266
1275.36	77.6392
1276.97	79.2598
1278.57	81.2736
1280.17	81.9696
1281.77	82.2932
1283.37	83.5374
1284.97	84.26
1286.58	85.5276
1288.18	85.5175
1289.78	86.5112
1291.38	87.7129
1292.98	88.6703
1294.58	90.0818
1296.18	91.7133
1297.78	92.6912
1299.37	94.6977
1300.97	96.302
1302.57	97.0872
1304.17	99.0197
1305.77	101.284
1307.36	102.539
1308.96	104.601
1310.55	106.699
1312.15	107.434
1313.75	109.323
1315.34	111.026
1316.94	111.884
1318.53	112.441
1320.13	114.408
1321.72	114.888
1323.32	115.847
1324.91	117.612
1326.5	116.722
1328.1	117.233
1329.69	116.683
1331.28	117.157
1332.87	117.319
1334.47	116.851
1336.06	116.192
1337.65	116.472
1339.24	117.342
1340.83	116.753
1342.42	115.691
1344.01	114.637
1345.6	113.442
1347.19	111.862
1348.78	110.982
1350.37	110.919
1351.96	110.1
1353.54	108.413
1355.13	106.99
1356.72	104.739
1358.31	102.696
1359.89	100.063
1361.48	97.5294
1363.07	94.5311
1364.65	91.8269
1366.24	89.8836
1367.82	87.7969
1369.41	85.2135
1370.99	83.7476
1372.58	81.8581
1374.16	80.7156
1375.75	79.0702
1377.33	77.2821
1378.91	76.0088
1380.5	73.6855
1382.08	72.4165
1383.66	72.8179
1385.25	71.9539
1386.83	70.3035
1388.41	68.7333
1389.99	67.6934
1391.57	65.9473
1393.15	65.559
1394.73	64.3771
1396.31	62.8572
1397.89	61.7875
1399.47	61.0056
1401.05	60.3229
1402.63	59.972
1404.21	60.2292
1405.78	60.0908
1407.36	60.4635
1408.94	60.6406
1410.52	60.9689
1412.1	61.2631
1413.67	62.1162
1415.25	64.7124
1416.82	65.8302
1418.4	67.7516
1419.98	68.3716
1421.55	69.1037
1423.13	70.9507
1424.7	72.5885
1426.28	74.2585
1427.85	75.8143
1429.42	77.7188
1431	78.4178
1432.57	79.6312
1434.14	81.1573
1435.71	81.0706
1437.29	82.4719
1438.86	82.1092
1440.43	82.3301
1442	83.7125
1443.57	84.9043
1445.14	85.9031
1446.71	85.9265
1448.28	85.9165
1449.85	86.7617
1451.42	85.915
1452.99	86.0322
1454.56	85.6964
1456.13	84.9873
1457.7	84.1184
1459.26	83.5951
1460.83	82.9295
1462.4	81.8624
1463.97	79.4323
1465.54	77.0557
1467.1	75.4052
1468.67	73.1592
1470.23	71.1824
1471.8	69.3538
1473.36	66.6705
1474.93	64.3602
1476.49	62.308
1478.06	60.0558
1479.62	58.4753
1481.19	56.1613
1482.75	55.1786
1484.31	53.4433
1485.88	50.8606
1487.44	48.8544
1489	47.0436
1490.56	45.2876
1492.13	44.1762
1493.69	42.5365
1495.25	40.0451
1496.81	39.8815
1498.37	39.2157
1499.93	37.9333
1501.49	37.5942
1503.05	36.7553
1504.61	36.4645
1506.17	36.1057
1507.73	36.4877
1509.28	35.5776
1510.84	34.9817
1512.4	34.7753
1513.96	34.2924
1515.52	34.8348
1517.07	34.9087
1518.63	36.6753
1520.19	38.1726
1521.74	39.3391
1523.3	39.7784
1524.85	40.638
1526.41	41.496
1527.96	41.334
1529.52	43.635
1531.07	45.5915
1532.63	47.5736
1534.18	48.8973
1535.73	50.2815
1537.29	52.9704
1538.84	54.8921
1540.39	55.9166
1541.94	57.5384
1543.5	59.3926
1545.05	61.5195
1546.6	64.3038
1548.15	67.2571
1549.7	69.4868
1551.25	72.1208
1552.8	74.1273
1554.35	77.4887
1555.9	80.5928
1557.45	82.5923
1559	84.9134
1560.55	86.7706
1562.1	88.9639
1563.65	90.9583
1565.19	92.9849
1566.74	94.4935
1568.29	96.7036
1569.83	99.361
1571.38	101.805
1572.93	104.448
1574.47	107.634
1576.02	109.409
1577.56	109.917
1579.11	111.582
1580.66	113.072
1582.2	114.417
1583.74	115.64
1585.29	116.232
1586.83	116.148
1588.38	117.214
1589.92	117.336
1591.46	117.336
1593.01	118.423
1594.55	118.771
1596.09	117.824
1597.63	116.564
1599.17	115.817
1600.71	113.795
1602.25	112.956
1603.79	111.52
1605.34	110.549
1606.88	109.804
1608.41	107.893
1609.95	106.098
1611.49	103.836
1613.03	102.099
1614.57	101.415
1616.11	99.4764
1617.65	97.5728
1619.18	96.8963
1620.72	95.4104
1622.26	94.5695
1623.79	94.2435
1625.33	93.0825
1626.87	91.5972
1628.4	91.1457
1629.94	90.2183
1631.48	90.3092
1633.01	89.6193
1634.55	88.7808
1636.08	87.6339
1637.61	87.2506
1639.15	87.7327
1640.68	87.3766
1642.21	86.5169
1643.75	86.6516
1645.28	87.0655
1646.81	87.3237
1648.34	87.6726
1649.88	86.942
1651.41	86.1713
1652.94	84.8168
1654.47	83.994
1656	83.6176
1657.53	82.8665
1659.06	82.6807
1660.59	81.5084
1662.12	79.3012
1663.65	78.0191
1665.18	77.4604
1666.71	76.051
1668.24	75.4165
1669.76	73.3186
1671.29	70.704
1672.82	68.914
1674.35	66.542
1675.87	64.9969
1677.4	62.9319
1678.93	61.4157
1680.45	58.9658
1681.98	56.7966
1683.5	53.4952
1685.03	51.0538
1686.55	48.5849
1688.08	46.6105
1689.6	44.7253
1691.13	43.4177
1692.65	40.9926
1694.17	38.461
1695.7	36.4548
1697.22	34.2447
1698.74	32.5612
1700.27	29.9298
1701.79	27.6567
1703.31	25.402
1704.83	24.3302
1706.35	23.0278
1707.87	21.5557
1709.39	20.1308
1710.91	18.7639
1712.43	16.9358
1713.95	16.6821
1715.47	16.1065
1716.99	15.3951
1718.51	13.9983
1720.03	13.4121
1721.55	12.7281
1723.07	12.3589
1724.58	11.934
1726.1	11.1428
1727.62	10.4634
1729.13	9.41509
1730.65	9.55268
1732.17	8.59228
1733.68	8.23101
1735.2	8.30355
1736.72	7.12902
1738.23	6.62168
1739.74	6.48574
1741.26	6.52989
1742.77	5.86937
1744.29	5.3774
1745.8	4.41514
1747.32	4.45749
1748.83	4.14934
1750.34	3.4107
1751.85	4.10688
1753.37	3.95672
1754.88	3.40922
1756.39	2.83931
1757.9	2.70241
1759.41	1.83324
1760.92	2.1736
1762.44	2.01603
1763.95	1.53812
1765.46	1.48734
1766.96	1.45964
1768.47	0.977085
1769.98	0.440235
1771.49	0.149874
1773	-0.173789
1774.51	-0.739891
1776.02	-0.93521
1777.53	-0.613595
1779.03	-0.470816
1780.54	-0.375225
1782.05	0.0930054
1783.55	0.014054
1785.06	0.299422
1786.57	0.675801
1788.07	0.482347
1789.58	0.772401
1791.08	1.23177
1792.59	0.718011
1794.09	0.345586
1795.6	0.587965
1797.1	1.05945
1798.61	1.29675
1800.11	1.3977
1801.61	1.4343
1803.12	1.46912
1804.62	1.24693
1806.12	1.42738
1807.62	1.22614
1809.12	1.30574
1810.63	1.62409
1812.13	1.47802
1813.63	1.17196
1815.13	1.38111
1816.63	1.56074
1818.13	1.34662
1819.63	1.68761
1821.13	1.66686
1822.63	1.94141
1824.13	2.15318
1825.63	2.34813
1827.13	2.54158
1828.62	2.30413
1830.12	2.22835
1831.62	2.19036
1833.12	2.58893
1834.61	2.67557
1836.11	2.60776
1837.61	2.19312
1839.1	2.01209
1840.6	1.91079
1842.09	1.8929
1843.59	2.2389
1845.09	2.96288
1846.58	3.59503
1848.08	3.85674
1849.57	3.70588
1851.06	4.35325
1852.56	4.30637
1854.05	4.37864
1855.54	4.8149
1857.04	5.41199
1858.53	5.92474
1860.02	5.49345
1861.51	5.46406
1863.01	5.19286
1864.5	5.99178
1865.99	6.12629
1867.48	6.63643
1868.97	7.0688
1870.46	7.58538
1871.95	7.95276
1873.44	8.07348
1874.93	8.28557
1876.42	8.91924
1877.91	9.34518
1879.4	9.52182
1880.89	10.4426
1882.37	10.6783
1882.46	9.97212
1883.95	9.64349
1885.45	9.50142
1886.94	9.71126
1888.43	10.014
1889.93	9.77069
1891.42	10.0879
1892.91	10.5852
1894.41	11.052
1895.9	11.1499
1897.39	11.6254
1898.88	11.3189
1900.37	10.8188
1901.86	10.392
1903.36	10.4212
1904.85	9.73174
1906.34	8.98694
1907.83	7.57811
1909.32	6.95889
1910.81	6.48079
1912.29	6.31715
1913.78	6.33368
1915.27	6.52907
1916.76	6.38898
1918.25	6.30842
1919.74	6.29189
1921.23	5.43426
1922.71	4.78575
1924.2	4.45145
1925.69	3.44872
1927.17	3.48127
1928.66	3.97918
1930.15	4.36564
1931.63	3.82761
1933.12	3.25742
1934.6	3.98659
1936.09	4.40064
1937.57	5.17212
1939.06	5.11289
1940.54	4.94106
1942.02	4.28532
1943.51	4.81908
1944.99	4.96288
1946.47	5.18561
1947.96	4.89972
1949.44	5.44112
1950.92	5.44519
1952.4	5.95902
1953.88	6.2254
1955.37	5.80034
1956.85	5.95314
1958.33	6.85874
1959.81	8.56539
1961.29	9.15403
1962.77	9.60414
1964.25	10.0443
1965.73	10.7813
1967.21	10.8355
1968.69	10.9318
1970.16	9.97288
1971.64	10.0662
1973.12	8.50758
1974.6	8.17027
1976.08	8.23191
1977.55	8.62518
1979.03	8.19624
1980.51	7.75265
1981.98	8.5811
1983.46	9.30434
1984.94	8.85234
1986.41	9.16346
1987.89	8.40537
1989.36	7.91448
1990.84	7.83383
1992.31	8.059
1993.79	7.70372
1995.26	7.6107
1996.73	7.73882
1998.21	8.13329
1999.68	8.66516
2001.15	9.24738
2002.63	9.4867
2004.1	9.22643
2005.57	8.78568
2007.04	8.85156
2008.51	8.79502
2009.99	8.59764
2011.46	8.14108
2012.93	7.71134
2014.4	7.4827
2015.87	7.81014
2017.34	8.3774
2018.81	7.9568
2020.28	7.86602
2021.75	8.11903
2023.21	8.87632
2024.68	9.38576
2026.15	9.83687
2027.62	9.91195
2029.09	10.5496
2030.56	11.4068
2032.02	12.0437
2033.49	12.2609
2034.96	11.8239
2036.42	12.0934
2037.89	11.8831
2039.36	11.7257
2040.82	12.0045
2042.29	12.6506
2043.75	12.6348
2045.22	13.7577
2046.68	13.9663
2048.14	14.8638
2049.61	15.7339
2051.07	16.4328
2052.54	16.4462
2054	16.6927
2055.46	16.7332
2056.93	16.4185
2058.39	16.9665
2059.85	17.5464
2061.31	17.0738
2062.77	17.4693
2064.23	18.1272
2065.7	18.3011
2067.16	18.3934
2068.62	19.3325
2070.08	19.1228
2071.54	19.1475
2073	19.0991
2074.46	19.4413
2075.92	19.3603
2077.38	19.3673
2078.83	19.359
2080.29	19.3392
2081.75	19.2864
2083.21	19.319
2084.67	19.4406
2086.12	19.4164
2087.58	19.8803
2089.04	20.2189
2090.49	19.8599
2091.95	20.1385
2093.41	20.2758
2094.86	20.8873
2096.32	20.9033
2097.77	21.3048
2099.23	21.3036
2100.68	21.3135
2102.14	21.4289
2103.59	21.781
2105.05	21.697
2106.5	21.4681
2107.95	21.5275
2109.41	22.1142
2110.86	22.0764
2112.31	22.5543
2113.76	23.3809
2115.21	23.694
2116.67	23.9183
2118.12	24.3699
2119.57	24.5738
2121.02	25.1592
2122.47	25.4116
2123.92	25.004
2125.37	24.8599
2126.82	25.2553
2128.27	25.758
2129.72	27.2832
2131.17	28.4127
2132.62	28.385
2134.07	28.903
2135.51	29.7479
2136.96	30.7745
2138.41	31.1014
2139.86	32.3279
2141.31	33.1846
2142.75	34.367
2144.2	35.5378
2145.65	36.5629
2147.09	38.0006
2148.54	38.4385
2149.98	39.1066
2151.43	40.1004
2152.87	41.2715
2154.32	41.6581
2155.76	42.5467
2157.21	43.2918
2158.65	44.0212
2160.1	45.2832
2161.54	45.5638
2162.98	45.9724
2164.43	46.8563
2165.87	47.6331
2167.31	48.585
2168.75	48.8008
2170.2	49.2832
2171.64	49.7255
2173.08	49.8925
2174.52	50.6419
2175.96	51.4707
2177.4	50.9961
2178.84	50.8521
2180.28	51.3758
2181.72	51.7019
2183.16	51.2717
2184.6	50.9707
2186.04	50.7551
2187.48	50.5866
2188.92	49.8112
2190.36	49.122
2191.79	48.3134
2193.23	47.4907
2194.67	46.0667
2196.11	45.2131
2197.54	44.6724
2198.98	44.6056
2200.42	43.9884
2201.85	42.7203
2203.29	41.9575
2204.72	40.9401
2206.16	39.7599
2207.59	38.576
2209.03	37.7009
2210.46	36.7224
2211.9	36.2151
2213.33	34.9732
2214.77	33.8937
2216.2	32.6593
2217.63	31.5436
2219.07	29.9825
2220.5	28.5444
2221.93	27.5044
2223.36	26.611
2224.8	25.5791
2226.23	24.3947
2227.66	23.9186
2229.09	22.8204
2230.52	21.4414
2231.95	20.562
2233.39	20.2562
2234.81	20.0332
2236.25	19.8065
2237.67	20.0604
2239.1	20.1636
2240.53	19.5945
2241.96	18.8498
2243.39	19.0007
2244.82	18.2479
2246.25	18.095
2247.68	17.7351
2249.1	16.1242
2250.53	16.1204
2251.96	16.0768
2253.38	15.653
2254.81	14.9539
2256.24	14.5045
2257.66	14.646
2259.09	14.9361
2260.51	14.2197
2261.94	14.1207
2263.36	13.7539
2264.79	13.38
2266.21	12.9163
2267.64	12.8891
2269.06	12.4009
2270.49	12.5161
2271.91	11.5977
2273.33	11.5806
2274.76	11.9611
2276.18	11.7557
2277.6	11.4827
2279.02	11.2128
2280.44	11.7148
2281.87	11.5257
2283.29	10.6729
2284.71	9.79883
2286.13	9.20788
2287.55	9.19806
2288.97	8.462
2290.39	7.60978
2291.81	7.80172
2293.23	7.95649
2294.65	8.44804
2296.07	9.35357
2297.49	10.2101
2298.91	10.0559
2300.33	10.1407
2301.74	10.7709
2303.16	11.5787
2304.58	12.7332
2306	12.9668
2307.41	13.2153
2308.83	13.3674
2310.25	13.3684
2311.66	12.6916
2313.08	12.671
2314.5	13.406
2315.91	12.9407
2317.33	13.5597
2318.74	13.3214
2320.16	12.9511
2321.57	13.7913
2322.98	13.606
2324.4	12.9781
2325.81	12.7693
2327.23	12.952
2328.64	13.1429
2330.05	12.728
2331.46	11.693
2332.88	11.2039
2334.29	10.9479
2335.7	10.3517
2337.11	10.1191
2338.52	9.27113
2339.94	8.97158
2341.35	8.50323
2342.76	7.62666
2344.17	7.1523
2345.58	6.51961
2346.99	5.95656
2348.4	5.54833
2349.81	5.01631
2351.22	4.56773
2352.62	2.83102
2354.03	1.81349
2355.44	2.35957
2356.85	2.55012
2358.26	2.50668
2359.67	2.67538
2361.07	3.057
2362.48	3.5881
2363.89	4.4506
2365.29	5.16639
2366.7	5.31377
2368.11	4.84664
2369.51	3.89057
2370.92	4.24975
2372.32	4.07566
2373.73	4.39393
2375.13	5.19269
2376.54	4.87605
2377.94	4.71463
2379.35	5.42215
2380.75	6.1521
2382.15	6.44531
2383.56	6.74662
2384.96	7.15753
2386.36	6.84045
2387.76	7.03932
2389.17	6.7548
2390.57	7.02316
2391.97	7.25252
2393.37	6.66708
2394.77	6.5878
2396.17	6.9033
2397.58	7.41653
2398.98	7.43344
2400.38	7.48288
2401.78	7.48733
2403.18	7.45371
2404.58	7.51227
2405.97	6.90983
2407.37	6.60999
2408.77	6.33523
2410.17	6.32972
2411.57	5.16034
2412.97	5.16148
2414.37	5.05876
2415.76	5.08113
2417.16	5.24531
2418.56	4.92331
2419.95	4.5939
2421.35	4.78871
2422.75	4.56445
2424.14	5.14863
2425.54	5.18557
2426.93	4.78189
2428.33	4.22371
2429.72	3.94702
2431.12	3.83657
2432.51	3.22732
2433.91	2.9275
2435.3	2.76023
2436.7	2.10441
2438.09	1.70033
2439.48	1.59257
2440.88	1.92787
2442.27	2.04803
2443.66	2.20945
2445.05	2.0771
2446.44	1.36342
2447.84	1.14551
2449.23	1.43434
2450.62	0.920336
2452.01	0.802085
2453.4	1.18941
2454.79	1.59108
2456.18	1.27034
2457.57	1.51999
2458.96	1.54348
2460.35	1.61873
2461.74	1.38018
2463.13	1.08976
2464.52	1.06244
2465.91	1.24641
2467.29	1.10837
2468.68	0.459262
2470.07	0.559924
2471.46	0.327079
2472.85	0.0615918
2474.23	0.0459177
2475.62	-0.202265
2477.01	-0.14761
2478.39	0.301942
2479.78	0.219463
2481.16	0.101671
2482.55	0.597969
2483.93	0.431269
2485.32	-0.00753964
2486.7	0.429614
2488.09	0.175417
2489.47	0.208402
2490.86	0.45961
2492.24	0.292185
2493.62	0.603441
2495.01	-0.268712
2496.39	-0.633391
2497.77	-0.750232
2499.15	-1.08358
2500.54	-0.625703
2501.92	-0.675199
2503.3	-0.60561
2504.68	-0.6085
2506.06	-0.78546
2507.45	-0.71577
2508.83	-0.630413
2510.21	-0.731693
2511.59	-0.434982
2512.97	-0.390983
2514.35	-0.319506
2515.73	0.140475
2517.11	0.404681
2518.48	1.06605
2519.86	1.37572
2521.24	2.17986
2522.62	2.73274
2524	3.1465
2525.38	3.40577
2526.75	3.88162
2528.13	4.29442
2529.51	4.38555
2530.89	4.50798
2532.26	4.82415
2533.64	4.90635
2535.02	5.3591
2536.39	5.60371
2537.77	6.05923
2539.14	6.56552
2540.52	6.85925
2541.89	6.50067
2543.27	6.82534
2544.64	6.84401
2546.01	6.95994
2547.39	6.76404
2548.76	6.87998
2550.14	6.78387
2551.51	6.48028
2552.88	5.83766
2554.25	6.19904
2555.63	6.86229
2557	6.82214
2558.37	6.55403
2559.74	6.53381
2561.11	6.35355
2562.49	5.93178
2563.86	5.37596
2565.23	5.82718
2566.6	5.922
2567.97	5.28351
2569.34	5.39951
2570.71	5.07649
2572.08	4.28873
2573.45	4.11539
2574.82	3.8117
2576.18	3.90736
2577.55	3.45277
2578.92	3.17267
2580.29	3.19108
2581.66	3.09322
2583.02	2.77345
2584.39	3.03335
2585.76	2.5797
2587.13	3.2792
2588.49	3.73075
2589.86	4.19104
2591.22	4.27465
2592.59	4.08959
2593.96	4.02519
2595.32	3.69426
2596.69	3.97297
2598.05	3.64641
2599.42	3.99771
2600.78	3.72964
2602.14	4.39391
2603.51	4.42004
2604.87	4.13569
2606.23	3.73876
2607.6	3.82648
2608.96	3.99763
2610.32	3.24097
2611.69	3.76779
2613.05	3.10929
2614.41	3.27973
2615.77	3.68562
2617.13	4.09131
2618.49	3.56411
2619.86	3.18349
2621.22	3.66429
2622.58	4.40857
2623.94	4.42611
2625.3	4.22336
2626.66	4.07537
2628.02	4.15973
2629.37	4.75572
2630.73	4.81502
2632.09	4.53302
2633.45	4.28086
2634.81	4.41602
2636.17	4.19189
2637.53	4.41689
2638.88	4.15728
2640.24	3.75302
2641.6	3.7149
2642.96	3.68188
2644.31	4.14456
2645.67	3.58533
2647.02	4.17601
2648.38	4.62236
2649.74	4.27676
2651.09	4.4578
2652.45	5.07287
2653.8	4.89566
2655.16	5.30954
2656.51	4.79697
2657.86	4.35589
2659.22	4.24823
2660.57	4.12577
2661.93	3.9548
2663.28	4.49432
2664.63	4.8325
2665.98	4.72667
2667.34	4.88173
2668.69	4.64116
2670.04	4.68786
2671.39	3.98622
2672.75	3.85846
2674.09	4.12017
2675.45	4.4133
2676.8	4.31784
2678.15	4.23438
2679.5	5.13593
2680.85	5.42282
2682.2	5.93172
2683.55	6.41828
2684.9	5.99495
2686.25	5.86632
2687.6	6.26892
2688.94	6.72504
2690.29	6.84049
2691.64	7.20025
2692.99	7.16525
2694.34	7.79341
2695.68	8.13878
2697.03	8.70081
2698.38	8.40723
2699.73	8.39427
2701.07	8.6784
2702.42	9.37801
2703.76	8.66132
2705.11	9.15513
2706.45	8.84254
2707.8	9.5109
2709.15	9.60624
2710.49	10.2228
2711.83	10.2318
2713.18	10.6614
2714.52	10.7854
2715.87	10.1715
2717.21	10.1758
2718.55	10.6981
2719.9	10.5504
2721.24	9.92001
2722.58	9.60612
2723.93	9.06092
2725.27	9.0894
2726.61	9.54557
2727.95	9.12046
2729.29	9.09655
2730.63	9.19703
2731.98	8.53644
2733.32	8.21955
2734.66	7.90441
2736	7.66963
2737.34	7.85554
2738.68	7.81498
2740.02	8.11432
2741.36	7.88349
2742.7	7.36919
2744.03	7.24526
2745.37	6.64874
2746.71	6.54596
2748.05	6.31665
2749.39	5.54046
2750.72	5.13773
2752.06	4.17409
2753.4	4.1071
2754.74	4.30134
2756.07	4.32732
2757.41	3.70989
2758.75	3.87717
2760.08	3.32758
2761.42	2.95199
2762.76	2.35294
2764.09	1.99671
2765.42	1.56758
2766.76	1.47468
2768.09	1.28859
2769.43	0.906327
2770.76	0.402507
2772.1	0.590358
2773.43	0.473843
2774.76	1.02669
2776.1	0.579914
2777.43	0.660309
2778.76	0.471119
2780.1	0.13204
2781.43	-0.299735
2782.76	-0.126683
2784.09	0.589296
2785.42	0.00785543
2786.75	-0.214642
2788.09	-0.710723
2789.42	-0.703183
2790.75	-0.536882
2792.08	-0.22211
2793.41	-0.370795
2794.74	-0.952051
2796.07	-0.377967
2797.4	-0.426426
2798.73	0.147526
2800.06	0.393408
2801.39	0.169262
2802.71	-0.175325
2804.04	0.130574
2805.37	-0.465103
2806.7	0.0422442
2808.03	-0.403998
2809.35	-0.235256
2810.68	-0.169418
2812.01	-0.0686954
2813.33	0.316012
2814.66	0.40223
2815.99	0.55184
2817.31	1.01631
2818.64	1.98757
2819.96	2.81314
2821.29	3.5844
2822.61	3.86243
2823.94	4.21404
2825.26	5.77895
2826.59	6.92959
2827.91	7.94531
2829.23	9.25598
2830.56	10.6158
2831.88	12.4264
2833.21	14.4202
2834.53	15.9911
2835.85	17.3934
2837.17	19.3821
2838.5	20.8976
2839.82	22.9144
2841.14	25.5438
2842.46	27.5303
2843.78	30.1579
2845.1	33.0417
2846.42	36.1182
2847.74	40.0434
2849.06	43.6017
2850.38	47.4524
2851.71	50.9811
2853.03	54.8796
2854.34	58.8494
2855.66	63.0068
2856.98	67.223
2858.3	70.7345
2859.62	74.3855
2860.94	78.5313
2862.26	82.0637
2863.57	84.9971
2864.89	88.0624
2866.21	90.9922
2867.53	94.0868
2868.84	96.9905
2870.16	100.224
2871.48	102.568
2872.79	105.375
2874.11	107.391
2875.42	109.005
2876.74	111.277
2878.05	113.539
2879.37	115.159
2880.68	117.587
2882	119.43
2883.31	120.828
2884.63	122.3
2885.94	123.494
2887.26	124.842
2888.57	126.545
2889.88	128.412
2891.19	130.777
2892.51	132.001
2893.82	133.584
2895.13	135.978
2896.44	138.622
2897.76	141.177
2899.07	143.525
2900.38	145.155
2901.69	148.604
2903	152.016
2904.31	155.632
2905.62	160.757
2906.93	165.268
2908.24	169.591
2909.55	174.103
2910.86	178.87
2912.17	183.994
2913.48	189.149
2914.79	194.255
2916.1	199.396
2917.41	203.329
2918.71	207.334
2920.02	211.131
2921.33	214.505
2922.64	217.46
2923.94	219.896
2925.25	222.932
2926.56	224.881
2927.86	226.407
2929.17	227.693
2930.48	228.386
2931.78	229.042
2933.09	228.734
2934.39	228.215
2935.7	227.566
2937	225.778
2938.31	223.991
2939.61	222.196
2940.92	220.196
2942.22	218.283
2943.53	214.601
2944.83	211.328
2946.13	207.741
2947.43	204.005
2948.74	200.406
2950.04	196.488
2951.34	192.611
2952.64	188.857
2953.95	185.73
2955.25	182.053
2956.55	179.11
2957.85	174.773
2959.15	171.346
2960.45	167.491
2961.75	163.113
2963.05	159.314
2964.35	156.039
2965.65	153.103
2966.95	150.219
2968.25	146.542
2969.55	143.461
2970.85	140.628
2972.15	137.214
2973.45	134.145
2974.75	130.361
2976.05	127.67
2977.34	124.829
2978.64	121.405
2979.94	117.457
2981.24	113.971
2982.53	109.95
2983.83	106.028
2985.13	102.037
2986.42	98.5155
2987.72	94.9347
2989.01	91.7102
2990.31	87.9725
2991.61	83.2592
2992.9	79.7655
2994.19	75.7417
2995.49	71.8243
2996.78	68.2188
2998.08	64.9174
2999.37	61.2997
3000.67	57.505
3001.96	53.9017
3003.25	50.6175
3004.55	48.0713
3005.84	44.8314
3007.13	41.5223
3008.42	38.7255
3009.72	36.2781
3011.01	33.765
3012.3	32.1397
3013.59	30.1659
3014.88	28.5298
3016.17	27.1272
3017.46	26.1954
3018.76	25.1499
3020.05	24.3637
3021.34	23.0969
3022.63	21.5413
3023.92	20.6309
3025.21	19.7781
3026.49	18.865
3027.78	19.0222
3029.07	18.8506
3030.36	18.2258
3031.65	17.6436
3032.94	17.7375
3034.23	17.8841
3035.51	18.3429
3036.8	18.699
3038.09	18.682
3039.38	18.7668
3040.66	19.7993
3041.95	19.7408
3043.23	19.5592
3044.52	20.4457
3045.81	21.5116
3047.09	21.6502
3048.38	21.9682
3049.66	22.8979
3050.95	23.3325
3052.23	23.0219
3053.52	22.7819
3054.8	21.6284
3056.09	21.4713
3057.37	21.3255
3058.65	20.5552
3059.94	20.1886
3061.22	19.8511
3062.5	19.482
3063.79	18.7167
3065.07	18.6029
3066.35	17.6957
3067.63	17.0575
3068.92	16.5522
3070.2	15.0004
3071.48	14.1296
3072.76	13.2626
3074.04	12.4373
3075.32	11.6739
3076.6	11.0639
3077.88	9.84292
3079.16	8.72453
3080.44	7.1373
3081.72	6.61945
3083	6.07191
3084.28	5.78522
3085.56	4.43617
3086.84	3.70128
3088.12	3.18784
3089.4	2.75606
3090.67	2.22644
3091.95	1.99116
3093.23	1.3533
3094.51	1.08049
3095.78	1.1463
3097.06	0.87842
3098.34	0.722159
3099.61	1.27909
3100.89	1.38266
3102.17	1.65577
3103.44	2.01015
3104.72	2.41313
3105.99	2.85149
3107.27	3.50056
3108.54	4.42643
3109.82	3.98331
3111.09	3.90661
3112.37	3.93805
3113.64	4.23225
3114.92	3.84341
3116.19	3.51162
3117.46	4.26308
3118.74	4.44685
3120.01	5.31467
3121.28	5.29973
3122.55	5.90947
3123.83	6.51606
3125.1	6.85368
3126.37	7.28677
3127.64	7.38813
3128.91	7.43821
3130.19	6.99669
3131.46	7.38575
3132.73	7.17143
3134	7.18629
3135.27	7.78804
3136.54	7.98505
3137.81	8.18644
3139.08	8.01803
3140.35	8.33109
3141.62	8.4745
3142.89	8.89471
3144.16	9.2483
3145.42	9.1182
3146.69	8.64293
3147.96	8.35031
3149.23	8.56419
