#Acq. time (s)=	45
#Accumulations=	2
#Range (cm-¹)=	200...3150
#Windows=	2
#Auto scanning=	Off
#Autofocus=	Off
#Macrospot=	Off
#AutoExposure=	Off
#Spike filter=	Multiple accum.
#Delay time (s)=	0
#Binning=	1
#Readout mode=	Signal
#DeNoise=	Off
#ICS correction=	On
#Dark correction=	Off
#Inst. Process=	Off
#Detector Gain=	Best Dynamic Range
#Detector ADC=	20 kHz       
#Detector temperature (°C)=	-69.85
#Instrument=	LabRAM HR Evol
#Detector=	Synapse
#Objective=	x100
#Grating=	600 gr/mm
#ND Filter=	100%
#Laser (nm)=	532 
#Hole=	100.021
#Range=	Auto
#Laser Pol.=	No
#Raman. Pol.=	No
#Laser Pol. (°)=	-0.0007625
#Raman Pol. (°)=	89.9995
#Collection=	Microscope
#StageXY=	Marzhauser
#StageZ=	Marzhauser
#X (µm)=	2206.8
#Y (µm)=	1220.4
#Z (µm)=	443.5
#Full time(mm:ss)=	3:18
#Project=	
#Sample=	
#Site=	
#Title=	Thy_10_08_25_2x_45s_532 nm_x100_100%_600 gr_mm
#Remark=	
#Date=	05.07.2022 15:59
#Acquired=	05.07.2022 15:59:02
#Base:Fit=	10.08.2022 09:46:25
#Base:Sub=	10.08.2022 09:46:49
#Filter:Polynom=	16.08.2022 10:24:56
#AxisType[0]=Intens
#AxisUnit[0]=Cnt
#AxisType[1]=Spectr
#AxisUnit[1]=1/cm
200.43	36.6426
202.244	30.1672
204.059	25.5831
205.873	21.7448
207.688	18.12
209.501	15.3592
211.314	12.8066
213.127	10.4538
214.941	8.59353
216.753	6.72707
218.564	5.39938
220.375	3.87738
222.186	3.11903
223.999	2.63775
225.809	2.4666
227.618	2.05753
229.428	1.37057
231.236	1.22515
233.045	0.852634
234.855	1.05038
236.663	0.0595835
238.471	-0.305152
240.278	-1.01082
242.085	-0.958026
243.891	-1.09788
245.698	-0.989667
247.503	0.157444
249.309	0.524161
251.116	1.6796
252.921	1.79904
254.725	1.70917
256.529	2.03083
258.333	1.89409
260.136	2.06383
261.939	2.30626
263.742	2.39606
265.544	2.77181
267.346	3.18268
269.148	3.26264
270.949	2.9807
272.75	2.37983
274.55	2.39523
276.351	2.89541
278.15	3.12588
279.95	4.03953
281.749	4.62012
283.548	4.84414
285.346	5.49502
287.144	6.26476
288.942	6.01878
290.739	6.81006
292.536	7.51685
294.333	7.39068
296.129	7.43719
297.925	8.46014
299.721	8.52873
301.514	8.68373
303.309	9.93754
305.104	11.373
306.898	12.106
308.692	13.4434
310.486	13.6082
312.279	14.7609
314.072	15.8109
315.862	16.5075
317.654	17.0691
319.446	17.4164
321.238	17.4491
323.029	17.2468
324.819	17.5956
326.608	17.121
328.398	18.0664
330.188	17.8216
331.977	18.4127
333.766	19.3154
335.553	19.6951
337.341	19.4383
339.129	17.6105
340.917	17.0736
342.704	16.4959
344.489	15.637
346.275	15.8409
348.062	15.9215
349.845	16.2775
351.631	16.1507
353.416	15.7737
355.201	15.3815
356.984	15.7487
358.768	15.0958
360.552	14.1306
362.333	13.8143
364.116	15.5103
365.899	15.2208
367.68	14.6894
369.462	14.2342
371.243	13.8918
373.023	13.6196
374.804	13.3272
376.585	12.677
378.363	11.5418
380.143	11.0801
381.923	11.0361
383.7	10.6789
385.479	10.4399
387.256	11.5005
389.034	11.6938
390.812	11.6816
392.588	12.2837
394.365	12.0061
396.14	10.9551
397.916	10.1994
399.691	9.76075
401.467	9.8636
403.24	9.51889
405.015	9.21194
406.788	8.76264
408.563	8.30627
410.335	7.43934
412.109	7.37191
413.88	8.09643
415.654	7.77915
417.424	8.05211
419.197	7.06164
420.967	7.79572
422.739	7.95336
424.508	7.0541
426.279	5.74316
428.048	4.87512
429.819	5.12283
431.587	5.09671
433.356	4.19799
435.124	5.00875
436.891	5.80215
438.66	6.5657
440.426	6.66165
442.194	6.81934
443.96	7.19689
445.725	7.24201
447.492	6.83921
449.257	6.63864
451.021	7.47824
452.787	7.91289
454.551	6.7901
456.314	7.79732
458.079	8.24317
459.842	8.89006
461.604	9.41297
463.368	9.74754
465.13	10.096
466.891	10.6577
468.654	12.2259
470.415	13.5019
472.175	14.1057
473.935	14.6575
475.696	15.9078
477.456	16.2506
479.215	16.4125
480.973	17.25
482.733	17.1121
484.491	17.6812
486.249	18.6181
488.006	19.6679
489.765	19.5836
491.522	20.361
493.278	20.927
495.034	21.7013
496.789	22.0662
498.544	21.8136
500.301	21.8864
502.056	22.6445
503.81	22.5676
505.564	22.5846
507.317	22.1624
509.071	22.533
510.825	22.2591
512.578	21.6957
514.33	21.1944
516.082	20.8334
517.833	20.3622
519.585	20.0193
521.335	20.0216
523.086	20.6032
524.836	19.9537
526.586	19.0538
528.335	17.0751
530.085	15.8075
531.835	14.6434
533.584	13.6114
535.332	12.4596
537.08	12.0096
538.827	12.0974
540.574	10.4121
542.321	8.83082
544.068	8.12826
545.814	7.53502
547.56	7.04749
549.305	6.29899
551.05	5.52393
552.795	5.31265
554.54	5.16074
556.282	4.9659
558.025	4.16392
559.769	3.37542
561.512	3.23325
563.255	3.4268
564.997	3.4502
566.739	3.42652
568.481	3.18565
570.223	2.69512
571.964	2.90958
573.705	2.60421
575.443	1.8454
577.183	1.66777
578.923	2.08981
580.663	1.85255
582.402	2.30218
584.141	1.93586
585.879	1.80023
587.615	2.46502
589.353	3.57339
591.09	4.19021
592.828	4.71856
594.564	5.2144
596.299	5.91213
598.035	5.66865
599.771	5.65958
601.506	6.01738
603.242	5.63881
604.974	6.33264
606.709	6.622
608.443	6.33914
610.177	5.85349
611.908	5.49044
613.642	6.37814
615.374	6.76286
617.105	7.22786
618.837	7.78753
620.569	8.14026
622.3	7.60482
624.03	8.39622
625.761	7.87032
627.491	7.22986
629.219	8.27162
630.949	9.26608
632.677	10.5064
634.406	10.9549
636.135	10.7185
637.861	11.5539
639.59	12.2188
641.318	13.059
643.043	13.5015
644.77	14.6923
646.495	15.4472
648.222	17.2371
649.948	17.644
651.672	17.8329
653.398	18.3125
655.121	17.8076
656.846	18.6314
658.569	19.0815
660.293	20.1291
662.015	20.3058
663.738	21.1416
665.46	22.4071
667.183	23.3777
668.903	24.0386
670.626	24.1807
672.346	24.6646
674.067	24.7648
675.787	25.0001
677.508	25.455
679.226	25.3842
680.947	25.2105
682.665	25.3878
684.385	25.0523
686.102	25.7793
687.821	26.0112
689.538	26.2054
691.254	26.9145
692.972	26.5184
694.688	26.4754
696.406	27.3851
698.121	27.824
699.835	28.2253
701.552	27.9041
703.266	27.6589
704.98	28.6497
706.695	28.675
708.409	29.7044
710.121	30.2768
711.836	30.2546
713.548	31.3703
715.26	31.7402
716.973	32.3279
718.685	32.6532
720.396	32.9675
722.108	32.8521
723.818	33.8969
725.528	34.9483
727.238	35.4349
728.949	36.2182
730.658	37.2414
732.367	37.2107
734.075	37.5148
735.785	38.293
737.493	38.8254
739.2	39.7103
740.907	40.8153
742.614	42.4756
744.322	42.9369
746.028	44.1263
747.734	45.2736
749.439	46.6936
751.144	47.8344
752.849	48.3034
754.555	49.0364
756.26	50.7508
757.963	52.3744
759.667	53.4426
761.37	55.5902
763.073	57.0516
764.775	58.0516
766.477	59.8943
768.179	61.6456
769.883	63.1336
771.584	64.628
773.285	66.3079
774.986	67.7596
776.686	68.4456
778.386	69.0395
780.085	70.5735
781.785	71.4094
783.484	72.0266
785.182	73.8117
786.881	74.9405
788.579	75.9524
790.276	77.4432
791.974	77.6008
793.671	78.9044
795.367	79.1016
797.064	80.1997
798.76	80.6394
800.456	80.4493
802.151	81.3745
803.846	81.195
805.541	81.3649
807.234	81.1513
808.928	81.3514
810.622	81.1914
812.315	80.299
814.008	80.6381
815.701	80.7495
817.394	80.7204
819.086	80.9594
820.778	80.9188
822.468	79.9932
824.159	79.8509
825.85	79.6061
827.541	79.1928
829.231	78.2932
830.921	79.1773
832.609	79.5461
834.298	78.4706
835.987	77.9101
837.676	77.6592
839.364	77.6351
841.051	77.6794
842.738	76.4621
844.426	75.8445
846.113	75.4425
847.798	75.0933
849.484	74.4164
851.171	73.7845
852.857	72.6675
854.54	71.2917
856.226	69.6634
857.911	68.728
859.593	66.9732
861.278	65.7811
862.961	65.2765
864.645	64.4302
866.327	62.6956
868.01	62.6463
869.692	62.4447
871.373	61.0367
873.055	59.977
874.735	59.9839
876.416	59.3327
878.097	59.3352
879.776	57.9526
881.457	57.0397
883.135	56.4041
884.815	55.9906
886.495	55.8749
888.172	54.9784
889.851	53.9389
891.528	53.6264
893.206	53.9048
894.882	54.2025
896.56	55.2677
898.237	56.293
899.912	56.6812
901.589	55.8154
903.263	55.7182
904.94	55.2936
906.614	55.3088
908.289	56.3541
909.962	56.9165
911.635	56.6834
913.31	56.5396
914.982	57.1847
916.656	56.7486
918.328	56.2981
920.001	56.0095
921.672	56.0746
923.345	56.0496
925.015	55.8794
926.685	55.1615
928.357	55.1744
930.026	54.892
931.698	54.5673
933.366	53.076
935.035	52.2211
936.705	51.9438
938.373	51.2334
940.041	50.3611
941.71	50.1128
943.377	48.7158
945.044	48.1079
946.712	46.526
948.378	45.4821
950.044	44.7869
951.709	44.628
953.376	43.6992
955.041	42.4396
956.706	41.2271
958.372	39.9757
960.036	39.0446
961.699	38.5226
963.362	37.3509
965.027	37.687
966.69	37.5141
968.352	36.3461
970.014	36.6108
971.676	36.0189
973.339	35.9186
975	36.9941
976.661	37.5454
978.322	37.4763
979.982	37.2889
981.642	37.0829
983.303	36.1606
984.962	35.3058
986.621	35.3158
988.28	34.6318
989.938	34.3365
991.596	35.0014
993.254	34.7471
994.911	34.0603
996.57	34.5619
998.227	34.4889
999.884	33.7184
1001.54	32.7304
1003.2	31.5733
1004.85	31.4392
1006.51	31.2558
1008.16	30.8757
1009.82	30.1162
1011.47	29.6299
1013.12	29.067
1014.78	28.6476
1016.43	27.3927
1018.08	27.6371
1019.74	27.1346
1021.39	26.7741
1023.04	25.2597
1024.69	24.4241
1026.34	22.6347
1028	21.8506
1029.65	21.1421
1031.3	20.7488
1032.95	20.1653
1034.6	19.7654
1036.25	18.7415
1037.9	17.9847
1039.54	16.9672
1041.19	16.9024
1042.84	18.4891
1044.49	17.8774
1046.14	18.013
1047.78	18.2651
1049.43	17.6231
1051.08	17.5624
1052.72	18.1472
1054.37	17.9158
1056.02	18.0752
1057.66	18.3318
1059.31	18.1539
1060.95	17.672
1062.6	17.7746
1064.24	17.9975
1065.88	17.1682
1067.53	17.3318
1069.17	17.4881
1070.81	17.622
1072.45	17.3129
1074.1	18.1509
1075.74	17.5232
1077.38	16.1358
1079.02	15.8393
1080.66	15.1289
1082.3	13.8235
1083.94	14.1865
1085.58	14.31
1087.22	14.8441
1088.86	14.7812
1090.5	13.9321
1092.14	14.273
1093.78	14.3796
1095.42	14.596
1097.05	14.6359
1098.69	14.3975
1100.33	14.4102
1101.96	13.5624
1103.6	13.0422
1105.24	12.3618
1106.87	12.5445
1108.51	12.4087
1110.14	12.2587
1111.78	12.018
1113.41	11.7151
1115.05	11.5521
1116.68	11.3095
1118.31	10.8166
1119.95	11.1665
1121.58	10.7455
1123.21	10.8479
1124.85	11.3457
1126.48	10.0872
1128.11	10.5358
1129.74	10.0133
1131.37	9.03612
1133	8.69852
1134.63	8.50386
1136.26	8.34048
1137.89	8.09808
1139.52	8.47268
1141.15	8.04408
1142.78	8.3576
1144.41	8.16075
1146.04	8.15781
1147.66	7.37509
1149.29	6.77093
1150.92	6.1374
1152.55	6.17984
1154.17	6.46177
1155.8	6.9398
1157.43	5.94725
1159.05	5.61062
1160.68	5.95096
1162.3	5.54005
1163.93	4.77585
1165.55	4.89468
1167.17	4.21589
1168.8	4.13798
1170.42	4.3071
1172.05	4.16598
1173.67	5.10732
1175.29	5.12694
1176.91	5.08458
1178.54	4.96827
1180.16	5.30358
1181.78	5.34895
1183.4	5.94374
1185.02	6.38955
1186.64	6.59758
1188.26	6.33509
1189.88	6.68578
1191.5	6.30085
1193.12	7.21322
1194.74	7.2535
1196.36	7.51438
1197.97	7.98507
1199.59	8.01797
1201.21	8.00096
1202.83	7.77949
1204.44	8.29163
1206.06	9.17095
1207.68	9.4553
1209.29	9.74199
1210.91	9.76171
1212.52	9.93671
1214.14	11.6499
1215.75	13.0464
1217.37	14.3842
1218.98	16.3906
1220.59	17.8013
1222.21	18.5105
1223.82	19.3432
1225.43	20.0241
1227.05	21.1095
1228.66	21.6551
1230.27	23.0856
1231.88	24.1588
1233.49	25.5334
1235.1	26.8281
1236.72	26.426
1238.33	26.6976
1239.94	27.1928
1241.55	27.6751
1243.16	27.7553
1244.76	28.3678
1246.37	29.3712
1247.98	31.0001
1249.59	31.7809
1251.2	32.5466
1252.8	33.4222
1254.41	34.6285
1256.02	34.9437
1257.62	34.6673
1259.23	34.893
1260.84	35.3241
1262.44	35.2043
1264.05	34.5321
1265.66	33.9458
1267.26	33.9272
1268.86	34.044
1270.47	33.8431
1272.07	33.7971
1273.67	33.6072
1275.28	33.2988
1276.88	33.1591
1278.48	32.6244
1280.09	32.4833
1281.69	32.9243
1283.29	33.7566
1284.89	33.8894
1286.49	34.1333
1288.09	33.8813
1289.69	33.9081
1291.29	34.9435
1292.89	36.5212
1294.49	36.655
1296.09	37.2923
1297.69	37.7511
1299.29	37.81
1300.89	37.4317
1302.49	37.9821
1304.08	38.5435
1305.68	40.1927
1307.28	41.0736
1308.88	41.1577
1310.47	42.2269
1312.07	42.8263
1313.66	44.0108
1315.26	44.9197
1316.85	44.0808
1318.45	44.3705
1320.04	44.9381
1321.64	45.4588
1323.23	45.7807
1324.83	46.7411
1326.42	46.6721
1328.01	47.327
1329.61	46.9457
1331.2	47.1809
1332.79	46.9233
1334.38	46.1082
1335.97	45.0591
1337.56	44.3392
1339.16	43.928
1340.75	42.9677
1342.34	42.1923
1343.93	41.5058
1345.52	40.3633
1347.11	39.9964
1348.7	39.0759
1350.29	38.9908
1351.87	38.6437
1353.46	38.074
1355.05	37.4317
1356.64	36.1252
1358.22	35.7265
1359.81	35.4435
1361.4	35.1369
1362.98	33.4845
1364.57	32.1298
1366.16	31.0633
1367.74	30.0584
1369.33	28.9036
1370.91	27.9183
1372.5	27.1184
1374.08	24.8271
1375.67	25.0049
1377.25	24.2085
1378.83	23.6634
1380.41	23.444
1382	23.3228
1383.58	22.5646
1385.16	22.3302
1386.74	21.9099
1388.33	21.6333
1389.91	21.4223
1391.49	20.8789
1393.07	20.077
1394.65	19.3994
1396.23	19.0794
1397.81	19.0295
1399.39	19.4182
1400.97	19.3616
1402.55	18.8967
1404.13	18.9152
1405.7	19.1071
1407.28	19.9934
1408.86	20.719
1410.44	21.7827
1412.01	22.3444
1413.59	23.1164
1415.17	24.3809
1416.74	26.2676
1418.32	26.9957
1419.89	28.2236
1421.47	29.8886
1423.04	31.1988
1424.62	32.2469
1426.19	34.9318
1427.77	37.1211
1429.34	39.013
1430.91	40.3437
1432.49	41.8862
1434.06	43.1589
1435.63	44.2829
1437.2	45.3692
1438.78	46.1
1440.35	46.4636
1441.92	46.4747
1443.49	47.5171
1445.06	47.6116
1446.63	48.4915
1448.2	48.2658
1449.77	48.2335
1451.34	47.7731
1452.91	46.9006
1454.48	46.5048
1456.05	45.3683
1457.62	44.2603
1459.18	42.9257
1460.75	41.9813
1462.32	40.8085
1463.89	39.6993
1465.45	38.3774
1467.02	36.7126
1468.59	33.9951
1470.15	32.5808
1471.72	29.904
1473.28	27.6554
1474.85	25.5307
1476.41	23.6404
1477.98	21.4897
1479.54	19.3979
1481.1	17.5648
1482.67	16.4622
1484.23	15.0019
1485.79	13.4741
1487.36	12.9618
1488.92	11.5097
1490.48	9.94436
1492.04	9.42028
1493.61	8.96629
1495.17	8.38448
1496.73	7.40783
1498.29	7.31956
1499.85	7.79808
1501.41	7.83354
1502.97	7.83212
1504.53	8.5561
1506.09	8.3695
1507.65	8.08672
1509.2	8.49602
1510.76	8.3916
1512.32	8.42825
1513.88	8.68205
1515.43	9.05906
1516.99	10.0034
1518.55	10.1379
1520.1	10.645
1521.66	10.9455
1523.22	10.8991
1524.77	11.8414
1526.33	11.9286
1527.88	12.2808
1529.44	12.6372
1530.99	13.7182
1532.54	14.4292
1534.1	15.0849
1535.65	15.5711
1537.21	16.0558
1538.76	16.802
1540.31	17.28
1541.86	18.2359
1543.42	18.6217
1544.97	19.0313
1546.52	18.519
1548.07	19.0706
1549.62	19.4136
1551.17	20.2691
1552.72	20.7242
1554.27	22.0653
1555.82	22.356
1557.37	23.2562
1558.92	23.9841
1560.47	24.561
1562.02	25.7559
1563.56	27.1839
1565.11	28.8443
1566.66	28.8544
1568.21	29.5625
1569.75	31.0999
1571.3	32.0629
1572.85	33.2298
1574.39	34.5745
1575.94	35.709
1577.49	36.7175
1579.03	36.6839
1580.57	37.5868
1582.12	39.2437
1583.66	39.3167
1585.21	40.2168
1586.75	40.8824
1588.3	40.8052
1589.84	41.6995
1591.38	42.2585
1592.92	42.1486
1594.47	41.9981
1596.01	41.299
1597.55	41.3328
1599.09	41.4016
1600.63	41.9646
1602.17	42.2983
1603.71	41.524
1605.25	41.2102
1606.79	40.5989
1608.33	40.4806
1609.87	39.862
1611.41	39.243
1612.95	38.8399
1614.49	38.3405
1616.03	37.8357
1617.57	37.3296
1619.1	36.8083
1620.64	36.4562
1622.18	36.1748
1623.72	35.2704
1625.25	35.19
1626.79	34.8493
1628.32	34.7773
1629.86	35.0061
1631.39	35.0974
1632.93	34.9628
1634.46	35.0598
1636	35.3077
1637.53	36.1702
1639.07	36.4032
1640.6	36.5416
1642.13	37.553
1643.67	38.3556
1645.2	39.7063
1646.73	40.9656
1648.26	41.714
1649.8	43.237
1651.33	43.9997
1652.86	44.2455
1654.39	44.1875
1655.92	44.2962
1657.45	45.0401
1658.98	45.2486
1660.51	44.0535
1662.04	43.679
1663.57	42.7091
1665.1	41.8532
1666.63	41.7868
1668.16	40.8842
1669.68	39.9768
1671.21	38.8948
1672.74	38.1101
1674.27	36.9957
1675.79	35.9264
1677.32	34.7515
1678.85	32.9229
1680.37	32.2701
1681.9	30.87
1683.42	28.9704
1684.95	27.6266
1686.47	25.9633
1688	24.5329
1689.52	22.9029
1691.05	20.9161
1692.57	19.6533
1694.09	18.0515
1695.62	17.366
1697.14	16.3412
1698.66	14.644
1700.18	13.4398
1701.71	12.4035
1703.23	11.8304
1704.75	10.9934
1706.27	10.075
1707.79	9.14505
1709.31	8.89035
1710.83	8.18931
1712.35	7.62151
1713.87	7.54481
1715.39	7.53429
1716.91	7.94751
1718.43	8.42675
1719.95	8.11559
1721.47	7.83905
1722.99	7.61647
1724.5	7.9494
1726.02	7.50195
1727.54	6.39468
1729.06	5.79382
1730.57	5.175
1732.09	4.76727
1733.61	4.61358
1735.12	4.03507
1736.64	3.30948
1738.15	2.63085
1739.67	2.40361
1741.18	2.3596
1742.7	2.69082
1744.21	2.3289
1745.72	2.01104
1747.24	1.65048
1748.75	1.097
1750.26	1.03529
1751.77	0.43425
1753.29	0.235872
1754.8	0.13059
1756.31	0.13031
1757.82	-0.609645
1759.33	-0.728187
1760.84	-0.66232
1762.36	-0.559537
1763.87	-0.202077
1765.38	-0.372314
1766.89	0.0810895
1768.4	0.93458
1769.91	1.02147
1771.41	1.7187
1772.92	1.45273
1774.43	1.19576
1775.94	1.45647
1777.45	1.27009
1778.95	1.6745
1780.46	1.30745
1781.97	1.80919
1783.48	1.93378
1784.98	1.8177
1786.49	1.78967
1787.99	1.74094
1789.5	2.09253
1791.01	2.42845
1792.51	2.24078
1794.01	2.22558
1795.52	2.14746
1797.02	2.53705
1798.53	2.81472
1800.03	2.73491
1801.53	2.02382
1803.04	2.33095
1804.54	1.97207
1806.04	2.00252
1807.54	2.30374
1809.05	2.16115
1810.55	2.50191
1812.05	2.53888
1813.55	2.9884
1815.05	3.40594
1816.55	3.46966
1818.05	3.88115
1819.55	3.65508
1821.05	3.74286
1822.55	3.60881
1824.05	3.40284
1825.55	3.53688
1827.05	3.33878
1828.55	4.07852
1830.04	4.59781
1831.54	4.98482
1833.04	5.17517
1834.54	5.48711
1836.03	6.03209
1837.53	6.26713
1839.03	6.62981
1840.52	6.73616
1842.02	7.08356
1843.51	6.74658
1845.01	6.59193
1846.5	6.72312
1848	6.3044
1849.49	6.16453
1850.99	6.41592
1852.48	6.33838
1853.97	6.86719
1855.47	6.51972
1856.96	6.57006
1858.45	6.38363
1859.94	6.32886
1861.44	6.85748
1862.93	7.46487
1864.42	7.65739
1865.91	8.22161
1867.4	8.49021
1868.89	8.64914
1870.38	9.31676
1871.87	9.17627
1873.36	9.6534
1874.85	9.91258
1876.34	10.8235
1877.83	11.9959
1879.32	12.0646
1880.81	12.6631
1882.3	13.3959
1882.57	13.569
1884.07	14.0906
1885.56	14.1312
1887.06	14.2394
1888.55	14.3392
1890.04	14.2149
1891.54	14.2946
1893.03	14.5281
1894.52	14.4882
1896.02	14.7796
1897.51	14.4667
1899	14.9105
1900.49	15.45
1901.98	15.4063
1903.47	15.5266
1904.96	15.4292
1906.45	14.5504
1907.94	14.1799
1909.43	13.6684
1910.92	12.7312
1912.41	12.1443
1913.9	11.3133
1915.39	11.0799
1916.88	10.7843
1918.37	10.6989
1919.85	10.7227
1921.34	10.6447
1922.83	10.2272
1924.32	10.1952
1925.8	10.2734
1927.29	9.8303
1928.78	9.37222
1930.26	9.48504
1931.75	9.58278
1933.23	9.56012
1934.72	9.63636
1936.2	9.40426
1937.69	8.87852
1939.17	9.25236
1940.66	9.46143
1942.14	9.60864
1943.63	10.0268
1945.11	10.5859
1946.59	11.4612
1948.07	12.2668
1949.56	12.7413
1951.04	12.7721
1952.52	12.5744
1954	12.995
1955.48	13.459
1956.96	13.3687
1958.45	13.233
1959.93	13.317
1961.41	12.8649
1962.89	12.4843
1964.37	12.3347
1965.85	12.2128
1967.32	12.8551
1968.8	12.4823
1970.28	12.9865
1971.76	12.6019
1973.24	12.7838
1974.72	12.4343
1976.19	12.1115
1977.67	11.8969
1979.15	11.7726
1980.63	11.6624
1982.1	11.9508
1983.58	11.5292
1985.05	11.0906
1986.53	11.6748
1988	12.0524
1989.48	12.5031
1990.95	12.5518
1992.43	13.1367
1993.9	12.7545
1995.38	12.641
1996.85	12.3078
1998.32	12.7162
1999.8	12.7038
2001.27	12.6017
2002.74	13.1959
2004.22	12.8586
2005.69	12.2354
2007.16	12.0885
2008.63	12.4035
2010.1	12.4657
2011.57	12.2785
2013.04	12.7733
2014.51	13.2091
2015.98	12.8643
2017.45	13.2517
2018.92	13.5737
2020.39	13.2577
2021.86	13.294
2023.33	12.6305
2024.8	12.3008
2026.27	12.9276
2027.74	12.7021
2029.2	12.1423
2030.67	12.0665
2032.14	11.5134
2033.61	11.1557
2035.07	10.7712
2036.54	11.043
2038.01	11.3691
2039.47	11.5396
2040.94	11.9861
2042.4	11.8565
2043.87	12.2293
2045.33	11.6897
2046.8	11.6484
2048.26	11.9037
2049.72	12.1719
2051.19	12.2436
2052.65	12.8168
2054.12	12.7
2055.58	12.3226
2057.04	12.4957
2058.5	12.9258
2059.97	13.2934
2061.43	13.8024
2062.89	14.0833
2064.35	14.5104
2065.81	15.1762
2067.27	15.2048
2068.73	16.0446
2070.19	16.4327
2071.65	16.9587
2073.11	17.0591
2074.57	16.8515
2076.03	16.7691
2077.49	16.2972
2078.95	16.1837
2080.41	16.6807
2081.87	16.7015
2083.32	16.9111
2084.78	17.0676
2086.24	17.1097
2087.7	17.5036
2089.15	17.259
2090.61	17.6886
2092.07	17.3522
2093.52	17.2644
2094.98	17.9088
2096.43	18.3721
2097.89	19.1343
2099.34	19.6623
2100.8	19.2807
2102.25	19.0063
2103.71	19.3341
2105.16	18.9982
2106.61	19.4395
2108.07	19.022
2109.52	19.2455
2110.97	19.1573
2112.43	19.8042
2113.88	20.135
2115.33	20.1958
2116.78	19.9687
2118.23	19.8354
2119.68	20.2463
2121.13	20.3536
2122.59	20.4642
2124.04	20.6651
2125.49	20.7962
2126.94	20.5138
2128.39	20.895
2129.83	20.9464
2131.28	21.4366
2132.73	21.5561
2134.18	22.3036
2135.63	22.1456
2137.08	22.1059
2138.53	22.5617
2139.97	22.8459
2141.42	23.2994
2142.87	23.1942
2144.31	23.1196
2145.76	23.2116
2147.21	23.4802
2148.65	23.9134
2150.1	23.4888
2151.54	23.6793
2152.99	23.6956
2154.43	23.7333
2155.88	24.5368
2157.32	24.3305
2158.77	24.9111
2160.21	25.2737
2161.65	25.365
2163.1	25.1736
2164.54	25.3857
2165.98	25.7011
2167.43	26.144
2168.87	25.8568
2170.31	25.6239
2171.75	25.1364
2173.19	24.8868
2174.64	24.1458
2176.07	24.8867
2177.52	24.857
2178.96	24.9478
2180.4	24.5178
2181.84	25.167
2183.28	24.9511
2184.72	25.3084
2186.15	24.976
2187.59	24.5464
2189.03	24.2403
2190.47	24.3834
2191.91	24.0362
2193.35	23.3796
2194.78	23.0802
2196.22	22.1333
2197.66	22.0049
2199.09	21.9706
2200.53	21.7956
2201.97	21.4702
2203.4	21.9013
2204.84	21.3393
2206.27	21.1042
2207.71	20.8453
2209.14	20.7989
2210.58	21.463
2212.01	21.2074
2213.45	21.1513
2214.88	20.4782
2216.31	20.6294
2217.75	20.4312
2219.18	20.2367
2220.61	19.756
2222.05	19.4298
2223.48	20.3802
2224.91	20.4523
2226.34	19.9358
2227.78	19.3851
2229.21	18.6652
2230.64	18.6132
2232.07	18.2407
2233.5	18.1188
2234.93	17.6532
2236.36	18.0325
2237.79	17.6691
2239.22	17.6584
2240.65	17.3303
2242.08	16.9163
2243.5	17.0001
2244.93	16.5471
2246.36	16.3659
2247.79	16.5236
2249.22	16.0032
2250.64	15.5238
2252.07	15.3129
2253.5	15.2449
2254.92	15.1798
2256.35	15.2218
2257.78	14.6687
2259.2	14.8038
2260.63	14.6367
2262.05	15.154
2263.48	15.5174
2264.9	15.3923
2266.33	15.9585
2267.75	16.485
2269.18	17.5864
2270.6	17.8156
2272.02	18.1934
2273.45	18.5549
2274.87	18.7443
2276.29	18.6248
2277.71	18.2828
2279.14	18.5962
2280.56	18.3308
2281.98	18.4448
2283.4	17.9789
2284.82	17.3711
2286.24	17.164
2287.66	16.8408
2289.08	16.6903
2290.5	16.1861
2291.92	15.3675
2293.34	14.3584
2294.76	13.6028
2296.18	12.7327
2297.6	11.9868
2299.02	12.4921
2300.44	12.7501
2301.86	12.8026
2303.27	12.9398
2304.69	12.5415
2306.11	12.6227
2307.53	12.6599
2308.94	11.8108
2310.36	11.6744
2311.78	11.3114
2313.19	10.8398
2314.61	10.3447
2316.02	10.046
2317.44	10.1477
2318.85	9.66956
2320.27	9.38913
2321.68	9.02536
2323.1	9.29134
2324.51	9.621
2325.92	9.48655
2327.34	8.77166
2328.75	8.78961
2330.16	9.74225
2331.58	9.78183
2332.99	10.1677
2334.4	10.2711
2335.81	9.79534
2337.23	9.96802
2338.64	10.186
2340.05	10.6465
2341.46	10.2014
2342.87	10.5666
2344.28	10.2209
2345.69	9.99562
2347.1	9.89196
2348.51	8.94675
2349.92	8.65212
2351.33	8.10871
2352.74	7.93353
2354.15	7.33385
2355.55	6.50198
2356.96	6.76878
2358.37	6.25654
2359.78	5.97907
2361.19	5.30805
2362.59	4.94071
2364	4.61779
2365.41	5.33327
2366.81	5.68161
2368.22	5.56819
2369.62	5.45618
2371.03	4.83995
2372.44	4.61763
2373.84	4.66526
2375.24	4.30344
2376.65	4.13229
2378.05	4.0132
2379.46	3.76917
2380.86	3.80099
2382.26	3.53773
2383.67	3.79438
2385.07	3.67659
2386.47	4.08709
2387.88	3.55741
2389.28	3.50264
2390.68	4.11377
2392.08	4.50057
2393.48	4.68247
2394.89	4.65776
2396.29	4.20511
2397.69	3.91549
2399.09	4.859
2400.49	5.18968
2401.89	5.1618
2403.29	5.299
2404.69	5.76598
2406.09	6.0034
2407.48	6.32265
2408.88	7.28927
2410.28	7.86394
2411.68	8.04311
2413.08	8.92782
2414.48	8.74285
2415.87	9.01324
2417.27	9.10239
2418.67	8.94962
2420.06	9.4355
2421.46	9.9119
2422.86	10.1936
2424.25	10.5708
2425.65	10.757
2427.04	10.8035
2428.44	10.0807
2429.83	9.23255
2431.23	8.84872
2432.62	8.08393
2434.02	8.16717
2435.41	8.27327
2436.81	7.89527
2438.2	7.8114
2439.59	7.51695
2440.99	7.08073
2442.38	6.57054
2443.77	6.1563
2445.16	5.67106
2446.56	5.75258
2447.95	5.6024
2449.34	5.11194
2450.73	4.83741
2452.12	4.71011
2453.51	4.77254
2454.9	3.81519
2456.29	3.96223
2457.68	3.74426
2459.07	4.15412
2460.46	3.91541
2461.85	3.52623
2463.24	3.22529
2464.63	2.9011
2466.02	2.63122
2467.4	2.44184
2468.79	3.31872
2470.18	2.76438
2471.57	2.80887
2472.95	3.09422
2474.34	3.1673
2475.73	3.22598
2477.12	3.53911
2478.5	4.17696
2479.89	4.13577
2481.27	4.24765
2482.66	4.15811
2484.04	4.24835
2485.43	4.89462
2486.81	4.86661
2488.2	5.46761
2489.58	5.16429
2490.97	5.70489
2492.35	5.70292
2493.73	6.01786
2495.12	5.57463
2496.5	5.24818
2497.88	5.25266
2499.27	5.85368
2500.65	6.28014
2502.03	6.20962
2503.41	6.55314
2504.79	6.47866
2506.17	6.63807
2507.56	6.18155
2508.94	5.67128
2510.32	5.335
2511.7	4.99383
2513.08	5.18481
2514.46	5.13713
2515.84	4.94212
2517.22	4.29524
2518.59	4.11431
2519.97	4.22114
2521.35	3.95325
2522.73	3.79652
2524.11	3.75179
2525.49	3.99043
2526.86	3.59478
2528.24	3.63601
2529.62	2.91521
2530.99	3.36707
2532.37	2.82135
2533.75	2.66686
2535.12	2.78735
2536.5	2.65295
2537.88	3.03451
2539.25	2.30186
2540.63	2.25911
2542	2.06954
2543.38	1.42341
2544.75	1.84568
2546.12	1.76827
2547.5	1.38364
2548.87	1.29045
2550.24	1.40442
2551.62	1.23958
2552.99	1.41515
2554.36	1.28952
2555.74	1.26113
2557.11	1.50773
2558.48	1.36333
2559.85	1.60597
2561.22	1.52209
2562.59	1.68892
2563.96	1.25862
2565.34	1.59158
2566.71	1.85406
2568.08	1.7939
2569.45	1.15015
2570.82	1.12679
2572.18	1.0947
2573.55	1.03599
2574.92	0.949925
2576.29	0.354204
2577.66	0.321006
2579.03	0.513194
2580.4	0.419944
2581.77	0.322884
2583.13	0.303872
2584.5	0.505952
2585.87	0.67108
2587.23	1.03442
2588.6	1.34321
2589.97	1.12854
2591.33	1.57414
2592.7	1.75441
2594.06	1.53242
2595.43	1.46166
2596.79	1.39293
2598.16	1.18989
2599.52	1.6394
2600.89	1.25278
2602.25	1.68673
2603.62	1.69582
2604.98	1.55132
2606.34	1.54577
2607.71	1.05957
2609.07	1.12975
2610.43	0.766764
2611.79	0.908751
2613.16	1.12508
2614.52	0.657427
2615.88	0.333581
2617.24	0.295035
2618.6	0.203493
2619.96	-0.290644
2621.32	0.0656909
2622.68	0.0439722
2624.04	0.280699
2625.4	0.234472
2626.76	0.151133
2628.12	0.113991
2629.48	0.737762
2630.84	0.665199
2632.2	0.78244
2633.56	1.47787
2634.92	1.22213
2636.28	0.867131
2637.63	1.06806
2638.99	1.36212
2640.35	1.21778
2641.71	1.28713
2643.06	1.10721
2644.42	1.10315
2645.77	1.13073
2647.13	1.41347
2648.49	1.50825
2649.84	1.8127
2651.2	2.43915
2652.55	2.25729
2653.91	2.08013
2655.26	1.9273
2656.62	2.5046
2657.97	2.49147
2659.33	2.65722
2660.68	2.07904
2662.03	1.72352
2663.39	1.79066
2664.74	1.54986
2666.09	1.79672
2667.44	2.12411
2668.8	2.05494
2670.15	1.98576
2671.5	1.95877
2672.85	1.87705
2674.2	1.80218
2675.55	1.51035
2676.91	1.69836
2678.26	1.89341
2679.61	2.656
2680.96	2.93518
2682.31	3.11822
2683.66	2.79476
2685	3.33094
2686.35	3.82962
2687.7	3.31431
2689.05	3.88626
2690.4	3.64268
2691.75	3.62715
2693.1	3.60094
2694.44	3.28442
2695.79	3.51539
2697.14	3.29823
2698.49	3.34788
2699.83	3.86187
2701.18	4.08365
2702.52	3.86527
2703.87	3.67078
2705.22	3.81159
2706.56	3.88445
2707.91	3.61084
2709.25	3.58653
2710.6	3.36172
2711.94	3.78336
2713.29	4.09586
2714.63	4.53698
2715.97	4.73471
2717.32	4.81387
2718.66	4.96809
2720.01	4.72913
2721.35	5.06366
2722.69	4.64757
2724.03	4.60693
2725.38	4.24151
2726.72	4.14709
2728.06	3.80485
2729.4	3.89571
2730.74	4.05868
2732.08	4.19034
2733.42	4.2987
2734.76	4.32305
2736.1	4.23827
2737.44	4.3671
2738.78	4.81227
2740.12	4.82458
2741.46	4.99602
2742.8	4.8585
2744.14	5.20022
2745.48	5.18887
2746.82	5.21947
2748.16	4.85769
2749.49	4.52393
2750.83	4.4152
2752.17	4.62102
2753.51	3.97681
2754.84	3.22561
2756.18	2.92979
2757.52	2.74146
2758.85	2.85138
2760.19	2.76927
2761.53	2.82574
2762.86	3.55105
2764.2	3.50573
2765.53	3.99748
2766.87	4.21038
2768.2	4.39611
2769.54	4.3664
2770.87	4.11237
2772.2	4.21271
2773.54	4.4037
2774.87	4.20601
2776.2	4.43967
2777.54	4.38974
2778.87	5.1364
2780.2	5.359
2781.53	5.15053
2782.87	5.12545
2784.2	4.92071
2785.53	4.60991
2786.86	4.455
2788.19	3.97579
2789.52	3.50079
2790.85	3.69966
2792.18	3.64886
2793.51	3.25833
2794.84	3.07299
2796.17	3.556
2797.5	3.63971
2798.83	3.64233
2800.16	3.37381
2801.49	3.31625
2802.82	3.54627
2804.15	3.56151
2805.47	3.42593
2806.8	2.71655
2808.13	2.64584
2809.46	2.59073
2810.78	2.56397
2812.11	2.7206
2813.44	2.52688
2814.76	2.44468
2816.09	2.78391
2817.42	2.94053
2818.74	2.99434
2820.07	3.32288
2821.39	4.05837
2822.72	5.04985
2824.04	6.05385
2825.37	7.17208
2826.69	8.15082
2828.02	9.5806
2829.34	10.7158
2830.66	11.6
2831.99	13.2271
2833.31	15.2223
2834.63	16.3116
2835.96	17.5382
2837.28	18.8754
2838.6	20.4194
2839.92	22.6287
2841.24	24.9465
2842.57	27.6166
2843.89	30.229
2845.21	32.7077
2846.53	35.1974
2847.85	37.5136
2849.17	40.3508
2850.49	42.8336
2851.81	45.6704
2853.13	49.2793
2854.45	51.7863
2855.77	54.7548
2857.09	57.7635
2858.41	60.606
2859.72	63.2795
2861.04	66.3557
2862.36	69.1009
2863.68	71.1593
2865	73.0542
2866.31	75.7514
2867.63	77.9622
2868.95	79.9191
2870.26	81.7384
2871.58	83.6504
2872.9	85.2047
2874.21	87.068
2875.53	88.4147
2876.84	89.8769
2878.16	91.3573
2879.47	92.523
2880.79	93.7809
2882.1	95.224
2883.42	96.4681
2884.73	97.7795
2886.05	99.3801
2887.36	100.924
2888.67	102.598
2889.99	103.72
2891.3	105.006
2892.61	106.229
2893.92	107.969
2895.24	109.084
2896.55	110.764
2897.86	112.864
2899.17	114.551
2900.48	116.38
2901.79	118.78
2903.11	120.859
2904.42	123.704
2905.73	126.933
2907.04	130.253
2908.35	133.776
2909.66	136.805
2910.97	139.825
2912.27	143.105
2913.58	146.143
2914.89	150.267
2916.2	152.881
2917.51	156.055
2918.82	159.331
2920.13	161.454
2921.43	163.666
2922.74	165.541
2924.05	166.876
2925.35	167.801
2926.66	169.241
2927.97	169.899
2929.27	171.065
2930.58	171.314
2931.89	171.609
2933.19	170.516
2934.5	169.505
2935.8	168.57
2937.11	167.712
2938.41	165.783
2939.72	163.687
2941.02	161.434
2942.32	159.395
2943.63	156.939
2944.93	154.423
2946.24	151.512
2947.54	149.363
2948.84	146.583
2950.14	143.931
2951.45	141.162
2952.75	138.277
2954.05	135.367
2955.35	132.5
2956.65	129.611
2957.95	126.703
2959.26	123.885
2960.56	120.832
2961.86	118.206
2963.16	115.544
2964.46	112.804
2965.76	110.278
2967.06	107.338
2968.36	104.822
2969.66	102.482
2970.96	100.183
2972.25	97.6746
2973.55	95.44
2974.85	92.8212
2976.15	90.7633
2977.45	88.4803
2978.74	86.4147
2980.04	83.6251
2981.34	80.3662
2982.64	77.8884
2983.93	75.0395
2985.23	71.8897
2986.52	68.7686
2987.82	65.3582
2989.12	62.8963
2990.41	60.0945
2991.71	57.7733
2993	54.8811
2994.3	52.2405
2995.59	48.7093
2996.89	46.0057
2998.18	43.4174
2999.48	41.3301
3000.77	39.0067
3002.06	37.0373
3003.36	34.3685
3004.65	32.3716
3005.94	31.1492
3007.23	29.8624
3008.53	27.995
3009.82	26.2108
3011.11	25.2189
3012.4	24.0805
3013.69	23.0902
3014.99	22.5054
3016.28	21.7829
3017.57	20.9972
3018.86	20.3127
3020.15	19.7003
3021.44	18.5614
3022.73	17.599
3024.02	17.2774
3025.31	16.7623
3026.6	16.4661
3027.89	16.0996
3029.18	15.6688
3030.46	15.1518
3031.75	14.9592
3033.04	15.0763
3034.33	14.9581
3035.62	15.8118
3036.9	16.008
3038.19	16.8122
3039.48	16.8432
3040.76	16.8996
3042.05	16.8581
3043.34	16.8134
3044.62	16.7735
3045.91	17.2943
3047.19	17.3066
3048.48	17.6548
3049.77	18.0304
3051.05	18.0747
3052.34	18.0697
3053.62	18.5302
3054.9	18.1976
3056.19	18.0101
3057.47	17.8099
3058.76	17.9789
3060.04	17.6155
3061.32	17.4788
3062.61	17.6665
3063.89	17.3836
3065.17	17.12
3066.45	17.2335
3067.74	16.2548
3069.02	15.6185
3070.3	14.9627
3071.58	13.6589
3072.86	12.7306
3074.14	12.5764
3075.42	11.966
3076.7	11.1442
3077.99	10.3005
3079.26	9.69233
3080.54	8.97322
3081.82	8.10445
3083.1	7.82109
3084.38	7.06167
3085.66	6.54544
3086.94	6.16114
3088.22	6.08377
3089.5	5.32084
3090.78	5.14015
3092.05	4.6879
3093.33	4.41018
3094.61	4.29658
3095.89	4.43067
3097.16	4.49015
3098.44	4.11703
3099.72	4.40248
3100.99	3.83993
3102.27	3.78442
3103.54	3.61596
3104.82	3.75937
3106.1	4.00838
3107.37	3.9464
3108.65	3.90588
3109.92	3.55565
3111.2	3.60226
3112.47	3.70523
3113.74	3.35615
3115.02	3.37825
3116.29	3.0363
3117.56	2.77845
3118.84	2.72953
3120.11	2.60508
3121.38	2.74462
3122.66	2.69829
3123.93	2.43995
3125.2	2.48288
3126.47	2.45997
3127.74	1.86733
3129.01	1.56172
3130.29	0.905903
3131.56	-0.282415
3132.83	-0.246383
3134.1	-0.52855
3135.37	-0.665453
3136.64	-0.427844
3137.91	-0.456429
3139.18	-0.91896
3140.45	-0.82246
3141.72	-0.92912
3142.99	-0.715768
3144.26	-0.781056
3145.52	-0.792436
3146.79	-0.957873
3148.06	-0.786906
3149.33	-1.33261
