#Acq. time (s)=	45
#Accumulations=	2
#Range (cm-¹)=	200...3150
#Windows=	2
#Auto scanning=	Off
#Autofocus=	Off
#Macrospot=	Off
#AutoExposure=	Off
#Spike filter=	Multiple accum.
#Delay time (s)=	0
#Binning=	1
#Readout mode=	Signal
#DeNoise=	Off
#ICS correction=	On
#Dark correction=	Off
#Inst. Process=	Off
#Detector Gain=	Best Dynamic Range
#Detector ADC=	20 kHz       
#Detector temperature (°C)=	-69.85
#Instrument=	LabRAM HR Evol
#Detector=	Synapse
#Objective=	x100
#Grating=	600 gr/mm
#ND Filter=	100%
#Laser (nm)=	532 
#Hole=	100.021
#Range=	Auto
#Laser Pol.=	No
#Raman. Pol.=	No
#Laser Pol. (°)=	-0.0007625
#Raman Pol. (°)=	89.9995
#Collection=	Microscope
#StageXY=	Marzhauser
#StageZ=	Marzhauser
#X (µm)=	1956.8
#Y (µm)=	-74
#Z (µm)=	425.15
#Full time(mm:ss)=	3:22
#Project=	
#Sample=	
#Site=	
#Title=	Thy_40_11_08_2x_45s_532 nm_x100_100%_600 gr_mm
#Remark=	
#Date=	05.07.2022 10:26
#Acquired=	05.07.2022 10:26:01
#Base:Fit=	10.08.2022 10:00:48
#Base:Fit=	10.08.2022 10:01:07
#Base:Fit=	10.08.2022 10:01:15
#Base:Fit=	10.08.2022 10:01:35
#Base:Sub=	10.08.2022 10:01:52
#Filter:Polynom=	16.08.2022 10:21:53
#AxisType[0]=Intens
#AxisUnit[0]=Cnt
#AxisType[1]=Spectr
#AxisUnit[1]=1/cm
200.43	40.8175
202.244	36.4376
204.059	36.7686
205.873	35.0927
207.688	32.7132
209.501	30.5559
211.314	28.2231
213.127	25.7399
214.941	24.14
216.753	24.2832
218.564	22.0685
220.375	20.9015
222.186	20.6804
223.999	18.5952
225.809	16.3036
227.618	15.1094
229.428	13.8436
231.236	12.0085
233.045	10.1919
234.855	9.57474
236.663	9.49506
238.471	8.01891
240.278	6.50582
242.085	5.87744
243.891	6.12176
245.698	5.52922
247.503	5.18846
249.309	4.75724
251.116	5.02105
252.921	5.11925
254.725	5.66851
256.529	6.34129
258.333	6.08081
260.136	6.9929
261.939	7.08423
263.742	8.48884
265.544	8.91189
267.346	9.55078
269.148	9.83347
270.949	10.005
272.75	10.1641
274.55	11.0841
276.351	10.2861
278.15	10.8822
279.95	11.3123
281.749	11.3802
283.548	12.0105
285.346	12.2696
287.144	12.381
288.942	12.2532
290.739	11.6747
292.536	12.3121
294.333	10.5793
296.129	11.875
297.925	12.5879
299.721	13.2491
301.514	13.2507
303.309	14.3852
305.104	15.3912
306.898	15.4208
308.692	14.9012
310.486	15.3178
312.279	15.2479
314.072	13.6785
315.862	13.4874
317.654	13.6264
319.446	14.2421
321.238	13.7295
323.029	14.3431
324.819	14.8118
326.608	14.4846
328.398	14.4356
330.188	15.7023
331.977	16.529
333.766	17.5753
335.553	17.9993
337.341	18.9676
339.129	18.9113
340.917	19.1103
342.704	18.8905
344.489	18.9291
346.275	19.4719
348.062	19.2842
349.845	18.9925
351.631	17.6328
353.416	18.1244
355.201	17.5772
356.984	17.1186
358.768	15.9975
360.552	14.9909
362.333	14.0057
364.116	14.212
365.899	13.5289
367.68	13.3635
369.462	13.4392
371.243	13.4585
373.023	12.834
374.804	12.4038
376.585	11.1862
378.363	11.1953
380.143	10.4045
381.923	10.2651
383.7	10.3932
385.479	11.6607
387.256	11.599
389.034	12.4238
390.812	12.371
392.588	12.9425
394.365	12.6467
396.14	13.2974
397.916	13.9207
399.691	13.4449
401.467	12.9967
403.24	12.8679
405.015	13.083
406.788	13.6752
408.563	14.8364
410.335	14.913
412.109	16.2665
413.88	16.7995
415.654	17.2029
417.424	17.8429
419.197	17.3341
420.967	15.8621
422.739	15.7004
424.508	14.9023
426.279	14.0221
428.048	13.1496
429.819	12.0428
431.587	11.348
433.356	11.299
435.124	10.9005
436.891	10.5768
438.66	9.60788
440.426	10.0151
442.194	10.4188
443.96	10.2336
445.725	10.8449
447.492	10.9867
449.257	11.1396
451.021	11.3728
452.787	11.9229
454.551	12.6343
456.314	13.6582
458.079	14.2688
459.842	14.8592
461.604	14.8747
463.368	15.1052
465.13	15.1914
466.891	15.7015
468.654	15.7118
470.415	16.3142
472.175	17.5292
473.935	18.2508
475.696	19.1213
477.456	19.4801
479.215	19.652
480.973	20.9077
482.733	21.0682
484.491	22.5182
486.249	23.7116
488.006	23.9192
489.765	24.3197
491.522	25.1293
493.278	25.1343
495.034	26.1433
496.789	26.5882
498.544	27.451
500.301	27.978
502.056	27.1728
503.81	26.8192
505.564	26.595
507.317	25.7032
509.071	25.7656
510.825	26.2528
512.578	26.6929
514.33	26.5909
516.082	26.1002
517.833	25.0012
519.585	25.3263
521.335	25.251
523.086	24.9653
524.836	25.9407
526.586	25.6657
528.335	25.7268
530.085	25.1347
531.835	24.6682
533.584	24.504
535.332	23.5387
537.08	22.4029
538.827	21.8894
540.574	21.4657
542.321	21.5002
544.068	20.8083
545.814	20.1197
547.56	19.4057
549.305	17.4628
551.05	15.8443
552.795	14.0911
554.54	13.6952
556.282	13.4086
558.025	13.2436
559.769	13.1
561.512	12.1923
563.255	12.0164
564.997	9.92274
566.739	9.7562
568.481	8.83033
570.223	7.88506
571.964	7.1227
573.705	6.42151
575.443	5.53747
577.183	5.08937
578.923	4.55671
580.663	4.23135
582.402	4.59762
584.141	4.7519
585.879	5.3152
587.615	4.94195
589.353	4.33883
591.09	3.64491
592.828	3.02025
594.564	2.20222
596.299	1.87337
598.035	1.61097
599.771	2.026
601.506	1.67147
603.242	2.64525
604.974	1.93534
606.709	2.97172
608.443	3.2484
610.177	4.04935
611.908	4.93582
613.642	4.52261
615.374	5.40752
617.105	4.96604
618.837	4.99263
620.569	5.45071
622.3	6.10581
624.03	6.51094
625.761	6.95922
627.491	6.65374
629.219	7.21756
630.949	7.06636
632.677	8.07734
634.406	8.23457
636.135	7.81775
637.861	7.64598
639.59	8.09694
641.318	9.49745
643.043	9.32022
644.77	10.2411
646.495	9.98736
648.222	10.0338
649.948	10.169
651.672	9.99977
653.398	10.7856
655.121	11.2004
656.846	11.9215
658.569	13.1974
660.293	14.3409
662.015	15.1349
663.738	15.2193
665.46	16.135
667.183	15.6627
668.903	16.0508
670.626	16.4174
672.346	16.8131
674.067	17.5327
675.787	16.8064
677.508	16.636
679.226	17.4452
680.947	16.4772
682.665	16.6431
684.385	17.4261
686.102	18.0837
687.821	18.9045
689.538	19.5653
691.254	19.2832
692.972	20.7859
694.688	20.4955
696.406	20.5948
698.121	20.693
699.835	21.3711
701.552	22.1781
703.266	21.8382
704.98	22.2733
706.695	23.4114
708.409	24.5305
710.121	24.8642
711.836	26.0527
713.548	26.357
715.26	27.8195
716.973	30.1241
718.685	31.2937
720.396	31.479
722.108	32.3585
723.818	34.1707
725.528	35.3174
727.238	37.4078
728.949	38.7135
730.658	40.6275
732.367	41.2526
734.075	42.65
735.785	44.6408
737.493	46.7198
739.2	48.432
740.907	50.4189
742.614	51.7076
744.322	52.449
746.028	52.4895
747.734	53.0231
749.439	54.1016
751.144	54.8985
752.849	55.4402
754.555	56.5839
756.26	57.9312
757.963	59.4956
759.667	60.2239
761.37	59.9709
763.073	61.2975
764.775	60.7556
766.477	60.5099
768.179	61.126
769.883	61.8797
771.584	62.6006
773.285	63.6336
774.986	64.1464
776.686	65.317
778.386	65.5015
780.085	65.5473
781.785	66.837
783.484	67.558
785.182	68.4933
786.881	69.0012
788.579	69.4846
790.276	70.2247
791.974	73.2175
793.671	74.0354
795.367	75.4306
797.064	76.607
798.76	76.6313
800.456	77.6317
802.151	79.2658
803.846	79.3803
805.541	80.833
807.234	82.51
808.928	83.1317
810.622	83.9482
812.315	85.4149
814.008	85.968
815.701	85.942
817.394	86.4489
819.086	88.2523
820.778	89.4184
822.468	89.2108
824.159	89.123
825.85	88.7372
827.541	88.0852
829.231	87.0211
830.921	87.835
832.609	88.3151
834.298	88.2602
835.987	87.8641
837.676	88.3913
839.364	87.5587
841.051	88.1338
842.738	87.0009
844.426	86.0851
846.113	84.6769
847.798	83.0148
849.484	80.6517
851.171	79.2427
852.857	77.6999
854.54	75.8698
856.226	73.9942
857.911	72.4363
859.593	71.2259
861.278	69.5714
862.961	67.2212
864.645	65.9267
866.327	64.1277
868.01	62.0642
869.692	61.7498
871.373	60.745
873.055	58.4551
874.735	57.4131
876.416	56.0442
878.097	53.9476
879.776	52.9455
881.457	51.6725
883.135	50.4523
884.815	50.324
886.495	49.7417
888.172	49.1577
889.851	48.1145
891.528	47.6448
893.206	46.5628
894.882	46.9713
896.56	46.1509
898.237	45.9242
899.912	45.3867
901.589	46.7372
903.263	47.7652
904.94	47.4788
906.614	46.7327
908.289	45.4979
909.962	45.0964
911.635	44.6292
913.31	44.2355
914.982	44.2752
916.656	43.4686
918.328	42.6967
920.001	43.5083
921.672	43.4494
923.345	42.9132
925.015	42.5789
926.685	40.9654
928.357	40.6126
930.026	39.9144
931.698	38.631
933.366	37.5118
935.035	36.8186
936.705	36.5099
938.373	35.7705
940.041	36.0487
941.71	35.8656
943.377	35.9712
945.044	35.0459
946.712	33.8889
948.378	34.2407
950.044	34
951.709	35.291
953.376	36.0091
955.041	35.7322
956.706	35.9767
958.372	37.3722
960.036	37.4427
961.699	38.1212
963.362	38.5997
965.027	40.2069
966.69	40.4796
968.352	42.1896
970.014	42.7914
971.676	44.1823
973.339	44.7282
975	45.7352
976.661	46.9663
978.322	48.4569
979.982	48.9744
981.642	50.8328
983.303	51.6163
984.962	52.5585
986.621	53.0617
988.28	52.7885
989.938	53.0812
991.596	52.342
993.254	53.4282
994.911	54.1053
996.57	54.4009
998.227	54.5023
999.884	55.4823
1001.54	55.6931
1003.2	57.0337
1004.85	57.1363
1006.51	56.5144
1008.16	55.6337
1009.82	55.0332
1011.47	55.8676
1013.12	56.5378
1014.78	55.0491
1016.43	55.7336
1018.08	55.9039
1019.74	55.676
1021.39	55.0513
1023.04	54.0929
1024.69	53.1288
1026.34	53.6903
1028	52.964
1029.65	52.4324
1031.3	53.5579
1032.95	54.0971
1034.6	53.4636
1036.25	52.6794
1037.9	52.4286
1039.54	52.9281
1041.19	53.1848
1042.84	51.8817
1044.49	51.3415
1046.14	51.7729
1047.78	51.0785
1049.43	50.4367
1051.08	50.7761
1052.72	49.94
1054.37	48.1396
1056.02	46.4444
1057.66	46.0502
1059.31	45.0465
1060.95	44.2112
1062.6	43.403
1064.24	42.525
1065.88	41.2197
1067.53	41.2987
1069.17	41.3865
1070.81	40.7181
1072.45	40.7737
1074.1	39.9436
1075.74	40.3288
1077.38	39.9695
1079.02	39.3934
1080.66	39.4854
1082.3	39.6851
1083.94	39.2365
1085.58	40.3668
1087.22	39.3952
1088.86	37.9977
1090.5	39.0146
1092.14	38.0329
1093.78	38.0286
1095.42	37.2861
1097.05	36.94
1098.69	36.9327
1100.33	34.8959
1101.96	34.6706
1103.6	34.4015
1105.24	33.5336
1106.87	33.8052
1108.51	33.7902
1110.14	31.8413
1111.78	32.3106
1113.41	32.5146
1115.05	32.0278
1116.68	30.0545
1118.31	30.2144
1119.95	29.6307
1121.58	29.0555
1123.21	27.3758
1124.85	25.6869
1126.48	24.6145
1128.11	23.995
1129.74	21.4009
1131.37	20.7648
1133	19.0931
1134.63	17.4365
1136.26	14.5423
1137.89	13.2285
1139.52	13.2734
1141.15	11.8102
1142.78	11.6444
1144.41	10.7141
1146.04	10.8268
1147.66	11.0931
1149.29	10.648
1150.92	9.3568
1152.55	8.81717
1154.17	7.93814
1155.8	6.82171
1157.43	5.64528
1159.05	4.76841
1160.68	4.23984
1162.3	4.11242
1163.93	3.61849
1165.55	2.69854
1167.17	2.37908
1168.8	1.94125
1170.42	2.4081
1172.05	2.86934
1173.67	2.50502
1175.29	2.9259
1176.91	3.35925
1178.54	4.44688
1180.16	4.22363
1181.78	4.29439
1183.4	5.71038
1185.02	5.83849
1186.64	5.54482
1188.26	6.29962
1189.88	6.28791
1191.5	7.49471
1193.12	8.87747
1194.74	9.24845
1196.36	9.84619
1197.97	10.3017
1199.59	12.4781
1201.21	15.2539
1202.83	17.2336
1204.44	19.0786
1206.06	20.6925
1207.68	21.7889
1209.29	23.8853
1210.91	25.5624
1212.52	28.6821
1214.14	30.2825
1215.75	32.6284
1217.37	35.3088
1218.98	38.7559
1220.59	41.9903
1222.21	44.321
1223.82	47.151
1225.43	49.5679
1227.05	52.2667
1228.66	53.7528
1230.27	55.6555
1231.88	58.0292
1233.49	60.9109
1235.1	63.0052
1236.72	64.6607
1238.33	67.535
1239.94	70.1102
1241.55	71.9035
1243.16	74.051
1244.76	75.612
1246.37	76.9859
1247.98	79.1906
1249.59	81.3751
1251.2	82.5436
1252.8	82.6199
1254.41	83.7434
1256.02	84.7482
1257.62	86.2308
1259.23	86.8996
1260.84	87.8293
1262.44	88.8601
1264.05	89.6771
1265.66	90.2201
1267.26	90.1376
1268.86	91.8556
1270.47	92.8995
1272.07	94.0179
1273.67	94.2986
1275.28	95.1862
1276.88	95.8631
1278.48	96.86
1280.09	99.0111
1281.69	100.333
1283.29	100.163
1284.89	100.05
1286.49	99.7691
1288.09	101.103
1289.69	102.026
1291.29	101.961
1292.89	102.392
1294.49	103.024
1296.09	104.457
1297.69	104.772
1299.29	105.463
1300.89	104.653
1302.49	105.355
1304.08	106.312
1305.68	107.02
1307.28	108.244
1308.88	108.676
1310.47	110.024
1312.07	110.761
1313.66	110.725
1315.26	110.49
1316.85	109.377
1318.45	109.59
1320.04	108.293
1321.64	107.83
1323.23	107.525
1324.83	106.996
1326.42	105.793
1328.01	104.32
1329.61	103.693
1331.2	101.977
1332.79	99.684
1334.38	99.3353
1335.97	98.3732
1337.56	96.0927
1339.16	94.6031
1340.75	94.1492
1342.34	91.8047
1343.93	88.9086
1345.52	87.5586
1347.11	85.0191
1348.7	84.057
1350.29	81.795
1351.87	80.3394
1353.46	78.9854
1355.05	76.5974
1356.64	74.6613
1358.22	72.6833
1359.81	71.3978
1361.4	68.6899
1362.98	66.1918
1364.57	64.1043
1366.16	62.0034
1367.74	61.0767
1369.33	59.125
1370.91	56.8186
1372.5	55.28
1374.08	55.2022
1375.67	54.5699
1377.25	54.0263
1378.83	54.6366
1380.41	53.0012
1382	53.6492
1383.58	54.0416
1385.16	53.7172
1386.74	53.9689
1388.33	53.0242
1389.91	53.126
1391.49	51.735
1393.07	51.2483
1394.65	51.1264
1396.23	50.4501
1397.81	51.226
1399.39	51.5559
1400.97	51.9668
1402.55	51.3665
1404.13	51.3704
1405.7	50.615
1407.28	51.0592
1408.86	51.1156
1410.44	51.746
1412.01	52.6737
1413.59	53.9662
1415.17	54.7527
1416.74	55.8773
1418.32	58.1289
1419.89	60.1767
1421.47	62.2627
1423.04	64.9428
1424.62	68.3269
1426.19	71.2428
1427.77	74.6118
1429.34	77.941
1430.91	81.4044
1432.49	84.8378
1434.06	87.8926
1435.63	90.913
1437.2	93.6302
1438.78	96.231
1440.35	98.0625
1441.92	100.401
1443.49	101.65
1445.06	102.904
1446.63	103.949
1448.2	104.94
1449.77	105.392
1451.34	106.527
1452.91	107.545
1454.48	107.329
1456.05	105.673
1457.62	103.81
1459.18	101.511
1460.75	100.295
1462.32	98.4427
1463.89	95.4375
1465.45	93.0517
1467.02	89.2009
1468.59	85.8114
1470.15	81.6376
1471.72	78.4627
1473.28	74.336
1474.85	70.9711
1476.41	66.6654
1477.98	61.9095
1479.54	57.8863
1481.1	53.4871
1482.67	49.8102
1484.23	45.5487
1485.79	41.7249
1487.36	37.5453
1488.92	34.3672
1490.48	31.4069
1492.04	28.6719
1493.61	27.0893
1495.17	26.1381
1496.73	25.3173
1498.29	24.5612
1499.85	23.4643
1501.41	22.3358
1502.97	21.8888
1504.53	21.2059
1506.09	20.6791
1507.65	21.2477
1509.2	21.4481
1510.76	21.2141
1512.32	21.3919
1513.88	20.8244
1515.43	20.25
1516.99	20.2403
1518.55	20.1161
1520.1	20.4313
1521.66	21.2811
1523.22	21.9295
1524.77	21.8935
1526.33	22.4882
1527.88	22.6804
1529.44	22.2498
1530.99	22.1997
1532.54	22.1491
1534.1	22.4525
1535.65	24.1749
1537.21	25.9418
1538.76	27.0938
1540.31	28.425
1541.86	29.0744
1543.42	30.9726
1544.97	31.7584
1546.52	33.6789
1548.07	35.935
1549.62	37.9716
1551.17	39.7514
1552.72	42.3234
1554.27	43.5406
1555.82	45.7854
1557.37	48.2969
1558.92	50.0864
1560.47	53.095
1562.02	54.6419
1563.56	56.7638
1565.11	59.3409
1566.66	61.9039
1568.21	64.9552
1569.75	66.7435
1571.3	68.7845
1572.85	70.3739
1574.39	72.5856
1575.94	75.25
1577.49	76.3817
1579.03	78.4643
1580.57	81.3551
1582.12	83.4628
1583.66	85.4978
1585.21	86.9235
1586.75	88.2562
1588.3	90.0217
1589.84	90.9982
1591.38	90.9179
1592.92	90.9805
1594.47	92.0241
1596.01	92.3419
1597.55	92.4915
1599.09	92.9115
1600.63	91.7329
1602.17	91.102
1603.71	90.4463
1605.25	90.5575
1606.79	89.6921
1608.33	89.2858
1609.87	89.5675
1611.41	89.9468
1612.95	89.4153
1614.49	88.8391
1616.03	88.301
1617.57	89.4966
1619.1	90.7499
1620.64	91.7555
1622.18	92.2604
1623.72	93.7387
1625.25	95.5931
1626.79	96.6263
1628.32	98.6157
1629.86	100.204
1631.39	101.648
1632.93	103.769
1634.46	107.179
1636	110.359
1637.53	112.999
1639.07	114.361
1640.6	117.188
1642.13	119.563
1643.67	122.073
1645.2	124.665
1646.73	127.373
1648.26	129.071
1649.8	131.244
1651.33	133.42
1652.86	134.999
1654.39	135.686
1655.92	137.306
1657.45	138.402
1658.98	137.664
1660.51	137.294
1662.04	136.375
1663.57	135.739
1665.1	134.441
1666.63	132.085
1668.16	130.52
1669.68	128.453
1671.21	125.419
1672.74	122.198
1674.27	118.702
1675.79	114.973
1677.32	111.199
1678.85	106.945
1680.37	102.964
1681.9	99.0636
1683.42	93.8075
1684.95	89.5806
1686.47	85.596
1688	80.8254
1689.52	75.7629
1691.05	72.0776
1692.57	68.5715
1694.09	64.7015
1695.62	59.9555
1697.14	54.9736
1698.66	51.9191
1700.18	48.5369
1701.71	45.5034
1703.23	42.0152
1704.75	38.6896
1706.27	36.4413
1707.79	34.968
1709.31	32.4216
1710.83	31.235
1712.35	28.6119
1713.87	26.4241
1715.39	25.1634
1716.91	24.4489
1718.43	22.8416
1719.95	21.3814
1721.47	20.4562
1722.99	18.909
1724.5	17.1165
1726.02	16.2775
1727.54	15.6567
1729.06	15.6346
1730.57	15.2562
1732.09	14.8724
1733.61	14.3771
1735.12	14.0543
1736.64	14.2008
1738.15	13.6111
1739.67	13.9495
1741.18	14.0242
1742.7	13.6226
1744.21	13.1702
1745.72	12.6073
1747.24	12.3808
1748.75	12.6744
1750.26	12.7237
1751.77	12.9263
1753.29	13.2241
1754.8	12.7303
1756.31	12.4779
1757.82	12.4727
1759.33	11.9735
1760.84	12.279
1762.36	12.0268
1763.87	11.414
1765.38	11.3822
1766.89	11.4251
1768.4	10.6774
1769.91	9.73194
1771.41	9.02248
1772.92	8.47255
1774.43	8.146
1775.94	7.35124
1777.45	7.24642
1778.95	6.79356
1780.46	6.52131
1781.97	6.56103
1783.48	5.63731
1784.98	5.14114
1786.49	5.28473
1787.99	4.3124
1789.5	3.89622
1791.01	3.20776
1792.51	2.19637
1794.01	1.79233
1795.52	1.36669
1797.02	1.52113
1798.53	0.661921
1800.03	0.268913
1801.53	0.357177
1803.04	1.052
1804.54	1.39928
1806.04	1.28708
1807.54	1.01921
1809.05	0.792717
1810.55	0.874822
1812.05	0.760072
1813.55	0.626303
1815.05	0.782436
1816.55	0.760774
1818.05	0.577155
1819.55	1.12513
1821.05	1.84956
1822.55	2.25069
1824.05	2.27278
1825.55	2.64951
1827.05	2.40681
1828.55	2.05218
1830.04	2.67516
1831.54	3.20669
1833.04	3.74591
1834.54	3.71242
1836.03	3.88986
1837.53	4.00046
1839.03	4.11784
1840.52	4.3802
1842.02	4.11506
1843.51	4.27512
1845.01	4.41013
1846.5	4.59379
1848	4.2628
1849.49	3.89057
1850.99	3.5883
1852.48	3.22329
1853.97	2.91005
1855.47	3.06669
1856.96	2.53209
1858.45	2.25869
1859.94	2.51392
1861.44	1.84791
1862.93	1.85843
1864.42	2.38204
1865.91	2.55941
1867.4	2.68773
1868.89	3.37004
1870.38	2.88694
1871.87	3.04523
1873.36	3.06598
1874.85	3.52238
1876.34	3.92718
1877.83	3.75052
1879.32	3.54634
1880.81	3.63437
1882.3	3.82393
1882.57	3.87603
1884.07	3.94006
1885.56	4.38072
1887.06	5.09754
1888.55	6.25319
1890.04	6.46149
1891.54	7.19323
1893.03	7.55101
1894.52	7.52494
1896.02	7.74882
1897.51	8.24848
1899	8.64769
1900.49	8.82047
1901.98	9.10901
1903.47	9.10167
1904.96	8.99995
1906.45	9.0573
1907.94	9.54967
1909.43	10.2272
1910.92	9.99092
1912.41	9.48548
1913.9	9.81452
1915.39	9.78033
1916.88	9.55273
1918.37	9.46556
1919.85	9.10949
1921.34	7.80757
1922.83	7.61101
1924.32	7.31135
1925.8	7.31426
1927.29	7.32851
1928.78	7.64186
1930.26	6.49628
1931.75	6.38744
1933.23	6.59192
1934.72	6.0002
1936.2	6.31526
1937.69	6.58617
1939.17	5.73901
1940.66	5.97511
1942.14	6.11839
1943.63	5.40681
1945.11	5.05879
1946.59	4.65737
1948.07	4.40603
1949.56	4.14625
1951.04	3.91326
1952.52	4.4778
1954	4.82085
1955.48	4.78568
1956.96	5.06181
1958.45	5.52766
1959.93	6.46266
1961.41	7.45372
1962.89	7.92318
1964.37	7.38335
1965.85	7.38549
1967.32	7.09695
1968.8	7.72515
1970.28	7.98879
1971.76	8.23201
1973.24	7.78295
1974.72	6.76313
1976.19	6.50382
1977.67	6.68813
1979.15	7.1453
1980.63	7.39722
1982.1	7.41544
1983.58	7.49465
1985.05	6.79799
1986.53	6.86318
1988	7.00829
1989.48	6.80515
1990.95	6.88547
1992.43	6.50499
1993.9	6.13521
1995.38	6.08516
1996.85	5.98998
1998.32	6.22395
1999.8	6.45035
2001.27	6.46813
2002.74	6.57755
2004.22	6.08869
2005.69	6.55747
2007.16	6.78799
2008.63	6.7964
2010.1	6.92606
2011.57	6.5353
2013.04	5.64218
2014.51	5.70665
2015.98	5.19774
2017.45	4.79
2018.92	4.79344
2020.39	4.93773
2021.86	5.6707
2023.33	6.23365
2024.8	6.59348
2026.27	7.56752
2027.74	7.85644
2029.2	7.662
2030.67	7.72961
2032.14	7.84542
2033.61	8.31792
2035.07	8.29493
2036.54	8.34232
2038.01	8.02484
2039.47	8.10634
2040.94	8.38709
2042.4	9.06903
2043.87	8.72139
2045.33	9.4312
2046.8	9.11038
2048.26	9.92179
2049.72	11.2722
2051.19	11.903
2052.65	12.2723
2054.12	12.3761
2055.58	12.8492
2057.04	12.77
2058.5	12.4516
2059.97	13.0033
2061.43	13.491
2062.89	15.1268
2064.35	15.2883
2065.81	15.4854
2067.27	16.9402
2068.73	17.7619
2070.19	18.1241
2071.65	18.8583
2073.11	20.3263
2074.57	21.3471
2076.03	22.3153
2077.49	22.9871
2078.95	24.2766
2080.41	25.0679
2081.87	26.41
2083.32	27.3761
2084.78	28.4195
2086.24	29.4966
2087.7	31.0392
2089.15	31.9555
2090.61	33.0122
2092.07	34.3311
2093.52	35.9875
2094.98	37.2443
2096.43	38.6414
2097.89	39.7055
2099.34	41.1693
2100.8	42.6447
2102.25	44.1861
2103.71	45.3944
2105.16	46.8519
2106.61	49.218
2108.07	50.6868
2109.52	53.3537
2110.97	54.4385
2112.43	56.0412
2113.88	57.9628
2115.33	60.7941
2116.78	62.6193
2118.23	65.5607
2119.68	67.9134
2121.13	70.9083
2122.59	73.4716
2124.04	75.5378
2125.49	77.7323
2126.94	80.2159
2128.39	83.5001
2129.83	86.1203
2131.28	89.7604
2132.73	93.9758
2134.18	97.6491
2135.63	101.459
2137.08	104.48
2138.53	108.307
2139.97	112.297
2141.42	114.96
2142.87	118.239
2144.31	120.8
2145.76	124.557
2147.21	126.879
2148.65	130.726
2150.1	132.997
2151.54	135.944
2152.99	138.723
2154.43	142.242
2155.88	144.444
2157.32	145.842
2158.77	147.609
2160.21	149.208
2161.65	150.648
2163.1	152.252
2164.54	153.517
2165.98	154.378
2167.43	154.214
2168.87	155.101
2170.31	154.759
2171.75	154.846
2173.19	154.577
2174.64	153.208
2176.07	151.406
2177.52	150.337
2178.96	149.756
2180.4	147.993
2181.84	147.309
2183.28	145.124
2184.72	143.858
2186.15	142.664
2187.59	141.428
2189.03	139.89
2190.47	138.478
2191.91	135.839
2193.35	133.391
2194.78	131.021
2196.22	128.519
2197.66	126.093
2199.09	124.047
2200.53	121.891
2201.97	119.515
2203.4	117.473
2204.84	114.901
2206.27	111.836
2207.71	108.638
2209.14	105.952
2210.58	102.676
2212.01	100.087
2213.45	96.8127
2214.88	94.5053
2216.31	91.4946
2217.75	89.3108
2219.18	86.6737
2220.61	84.3848
2222.05	80.7506
2223.48	79.2673
2224.91	77.2747
2226.34	74.5392
2227.78	71.5568
2229.21	68.1738
2230.64	65.9091
2232.07	63.1807
2233.5	60.9331
2234.93	57.7933
2236.36	55.2908
2237.79	53.0928
2239.22	51.2055
2240.65	49.6022
2242.08	47.18
2243.5	45.0873
2244.93	42.6782
2246.36	40.6962
2247.79	39.5086
2249.22	38.9598
2250.64	38.3371
2252.07	37.2624
2253.5	36.7841
2254.92	35.4821
2256.35	34.5364
2257.78	34.1485
2259.2	32.8752
2260.63	31.9951
2262.05	30.8122
2263.48	30.0989
2264.9	30.0109
2266.33	29.567
2267.75	28.984
2269.18	28.4526
2270.6	28.5938
2272.02	28.9371
2273.45	28.5397
2274.87	27.9275
2276.29	27.4665
2277.71	26.7456
2279.14	25.9889
2280.56	25.4226
2281.98	24.6782
2283.4	23.8498
2284.82	22.8189
2286.24	21.8304
2287.66	20.7529
2289.08	20.1218
2290.5	18.8441
2291.92	18.1289
2293.34	16.5714
2294.76	16.0899
2296.18	14.8008
2297.6	14.0008
2299.02	13.813
2300.44	13.4876
2301.86	12.8588
2303.27	12.6375
2304.69	12.3666
2306.11	11.8156
2307.53	12.1143
2308.94	12.4448
2310.36	12.1221
2311.78	11.3387
2313.19	10.807
2314.61	10.2673
2316.02	10.0298
2317.44	10.52
2318.85	10.1097
2320.27	9.49678
2321.68	9.05104
2323.1	8.96064
2324.51	8.74192
2325.92	8.65884
2327.34	8.57722
2328.75	8.50811
2330.16	8.35263
2331.58	8.72189
2332.99	8.45723
2334.4	8.59893
2335.81	8.06761
2337.23	7.42779
2338.64	7.19762
2340.05	6.97516
2341.46	6.66147
2342.87	6.20362
2344.28	5.05908
2345.69	4.50188
2347.1	4.09341
2348.51	3.19936
2349.92	2.38671
2351.33	1.82598
2352.74	1.53626
2354.15	0.513349
2355.55	0.338162
2356.96	-0.520971
2358.37	-0.545221
2359.78	-0.372036
2361.19	-0.678686
2362.59	-0.671221
2364	-1.15879
2365.41	-0.165856
2366.81	0.189701
2368.22	0.60143
2369.62	1.22932
2371.03	0.861345
2372.44	0.838503
2373.84	1.49655
2375.24	0.931658
2376.65	0.715519
2378.05	0.784869
2379.46	0.435752
2380.86	-0.228504
2382.26	-0.218047
2383.67	-0.822333
2385.07	-1.17797
2386.47	-1.55923
2387.88	-1.41621
2389.28	-1.71513
2390.68	-1.08311
2392.08	-0.0508851
2393.48	-0.254096
2394.89	0.362137
2396.29	0.903269
2397.69	0.620297
2399.09	1.10051
2400.49	1.36576
2401.89	1.23203
2403.29	1.76888
2404.69	2.2801
2406.09	2.00658
2407.48	2.79603
2408.88	3.71871
2410.28	4.07033
2411.68	4.41231
2413.08	4.85018
2414.48	5.62687
2415.87	6.23678
2417.27	6.20824
2418.67	6.34149
2420.06	6.01212
2421.46	6.69803
2422.86	7.03361
2424.25	6.89603
2425.65	7.20324
2427.04	7.51715
2428.44	8.07588
2429.83	8.23608
2431.23	7.96574
2432.62	8.1031
2434.02	8.63014
2435.41	8.71114
2436.81	8.63841
2438.2	7.92977
2439.59	7.89098
2440.99	6.91706
2442.38	6.71267
2443.77	6.03971
2445.16	5.14306
2446.56	5.24884
2447.95	4.86795
2449.34	4.3815
2450.73	3.92489
2452.12	3.80424
2453.51	3.2587
2454.9	3.05127
2456.29	3.30852
2457.68	3.59349
2459.07	3.31272
2460.46	3.68268
2461.85	3.54567
2463.24	2.57557
2464.63	2.63532
2466.02	2.53089
2467.4	2.02208
2468.79	1.74441
2470.18	1.48786
2471.57	1.50046
2472.95	2.05958
2474.34	1.57132
2475.73	1.46442
2477.12	1.84033
2478.5	1.1204
2479.89	1.0614
2481.27	1.13629
2482.66	1.53292
2484.04	1.43682
2485.43	1.04118
2486.81	0.32312
2488.2	0.0311398
2489.58	-0.18336
2490.97	0.215027
2492.35	-0.529428
2493.73	-0.53685
2495.12	-0.449094
2496.5	-0.282463
2497.88	-0.286579
2499.27	-0.430019
2500.65	-0.641154
2502.03	0.0853574
2503.41	-0.266471
2504.79	-0.968173
2506.17	-0.253732
2507.56	-0.36567
2508.94	-0.0770465
2510.32	-0.0741335
2511.7	0.781063
2513.08	1.02404
2514.46	1.16335
2515.84	1.74216
2517.22	1.82306
2518.59	2.46344
2519.97	2.5564
2521.35	3.18704
2522.73	3.31183
2524.11	3.47156
2525.49	3.89588
2526.86	3.44811
2528.24	3.54524
2529.62	4.08592
2530.99	3.43721
2532.37	3.41906
2533.75	4.06801
2535.12	4.28356
2536.5	3.78187
2537.88	4.12951
2539.25	4.62331
2540.63	4.56812
2542	4.79259
2543.38	4.61419
2544.75	5.48521
2546.12	5.53322
2547.5	5.36531
2548.87	5.85479
2550.24	5.98961
2551.62	6.44584
2552.99	6.12159
2554.36	6.58593
2555.74	6.30967
2557.11	6.34298
2558.48	6.52094
2559.85	6.49908
2561.22	6.09145
2562.59	6.75442
2563.96	6.41178
2565.34	6.28757
2566.71	6.03812
2568.08	5.98657
2569.45	6.2071
2570.82	6.24358
2572.18	5.29148
2573.55	5.37177
2574.92	6.28637
2576.29	5.74509
2577.66	6.06904
2579.03	6.55466
2580.4	6.73792
2581.77	6.13439
2583.13	6.15045
2584.5	5.8224
2585.87	5.69387
2587.23	5.43404
2588.6	5.15696
2589.97	4.77283
2591.33	4.5972
2592.7	4.49874
2594.06	4.17875
2595.43	4.16189
2596.79	3.66443
2598.16	3.93317
2599.52	3.07163
2600.89	2.74079
2602.25	2.19157
2603.62	1.71588
2604.98	1.74424
2606.34	2.13478
2607.71	2.32727
2609.07	2.76379
2610.43	3.02979
2611.79	3.28812
2613.16	3.62138
2614.52	3.38746
2615.88	3.76135
2617.24	3.94703
2618.6	4.70208
2619.96	4.42461
2621.32	4.09895
2622.68	3.74926
2624.04	3.23889
2625.4	3.56867
2626.76	3.66686
2628.12	3.98665
2629.48	4.07987
2630.84	4.61899
2632.2	4.55249
2633.56	4.46814
2634.92	4.34335
2636.28	4.85896
2637.63	5.40693
2638.99	5.93479
2640.35	6.23309
2641.71	6.81557
2643.06	6.89982
2644.42	7.21227
2645.77	7.84
2647.13	7.67006
2648.49	7.29544
2649.84	7.39888
2651.2	7.0495
2652.55	7.02492
2653.91	7.28768
2655.26	7.07936
2656.62	7.1305
2657.97	6.86651
2659.33	7.33089
2660.68	7.47677
2662.03	7.16237
2663.39	7.15296
2664.74	6.73196
2666.09	7.40102
2667.44	7.12453
2668.8	6.80352
2670.15	7.21906
2671.5	7.42666
2672.85	7.03761
2674.2	7.23424
2675.55	7.02119
2676.91	6.96069
2678.26	6.99713
2679.61	7.45657
2680.96	7.49396
2682.31	7.78618
2683.66	7.2473
2685	7.46154
2686.35	7.75688
2687.7	7.71415
2689.05	7.9644
2690.4	8.00416
2691.75	8.1842
2693.1	8.76822
2694.44	9.06266
2695.79	9.40535
2697.14	9.09204
2698.49	8.74779
2699.83	9.29799
2701.18	9.21732
2702.52	9.64178
2703.87	10.2398
2705.22	10.6283
2706.56	10.8956
2707.91	10.7232
2709.25	10.644
2710.6	11.2492
2711.94	11.7659
2713.29	11.7483
2714.63	11.3722
2715.97	11.3428
2717.32	11.7721
2718.66	11.0021
2720.01	11.5835
2721.35	11.9153
2722.69	12.056
2724.03	12.7116
2725.38	12.7297
2726.72	12.8033
2728.06	12.6852
2729.4	12.5787
2730.74	13.2612
2732.08	12.338
2733.42	12.0732
2734.76	11.3927
2736.1	10.5951
2737.44	10.7992
2738.78	10.4777
2740.12	10.307
2741.46	10.6968
2742.8	10.9072
2744.14	11.4191
2745.48	11.0318
2746.82	10.3415
2748.16	9.72563
2749.49	9.24712
2750.83	8.54832
2752.17	8.46725
2753.51	7.94537
2754.84	7.66462
2756.18	6.88528
2757.52	6.06836
2758.85	5.56911
2760.19	5.357
2761.53	5.03152
2762.86	4.4662
2764.2	4.06828
2765.53	3.69758
2766.87	3.66726
2768.2	2.9835
2769.54	2.97372
2770.87	3.12232
2772.2	3.37292
2773.54	3.10386
2774.87	1.71673
2776.2	1.2992
2777.54	1.4054
2778.87	1.23785
2780.2	0.838061
2781.53	0.507179
2782.87	0.0227066
2784.2	0.0532773
2785.53	-0.552356
2786.86	-0.249619
2788.19	-0.205993
2789.52	-0.141669
2790.85	0.0537598
2792.18	-0.483112
2793.51	-0.0755766
2794.84	0.333356
2796.17	0.457627
2797.5	0.450625
2798.83	-0.460738
2800.16	0.345521
2801.49	0.250263
2802.82	-0.147059
2804.15	0.159012
2805.47	0.30706
2806.8	-0.0784467
2808.13	-0.51328
2809.46	-0.193896
2810.78	-0.693976
2812.11	-1.49818
2813.44	-1.5519
2814.76	-1.12028
2816.09	-1.08376
2817.42	-0.521521
2818.74	0.341415
2820.07	1.79993
2821.39	3.06025
2822.72	4.7603
2824.04	7.09089
2825.37	10.0005
2826.69	12.7101
2828.02	16.1978
2829.34	19.3152
2830.66	22.3716
2831.99	25.0319
2833.31	29.1875
2834.63	32.992
2835.96	36.2769
2837.28	39.9958
2838.6	43.3244
2839.92	46.6037
2841.24	50.5162
2842.57	55.7508
2843.89	61.266
2845.21	66.9656
2846.53	72.1403
2847.85	78.5934
2849.17	85.348
2850.49	92.6892
2851.81	99.4309
2853.13	106.267
2854.45	113.487
2855.77	120.066
2857.09	127.368
2858.41	134.036
2859.72	140.665
2861.04	146.762
2862.36	152.41
2863.68	157.973
2865	163.483
2866.31	169.261
2867.63	173.791
2868.95	178.241
2870.26	183.015
2871.58	186.727
2872.9	190.469
2874.21	194.725
2875.53	197.834
2876.84	200.71
2878.16	204.016
2879.47	207.388
2880.79	210.541
2882.1	213.658
2883.42	217.209
2884.73	221.525
2886.05	225.136
2887.36	228.685
2888.67	232.35
2889.99	235.818
2891.3	239.702
2892.61	243.616
2893.92	247.112
2895.24	250.883
2896.55	254.285
2897.86	259.258
2899.17	264.446
2900.48	268.428
2901.79	274.321
2903.11	280.406
2904.42	287.27
2905.73	295.501
2907.04	303.367
2908.35	312.121
2909.66	320.782
2910.97	329.674
2912.27	338.191
2913.58	348.106
2914.89	357.033
2916.2	365.499
2917.51	374.225
2918.82	382.656
2920.13	390.522
2921.43	397.809
2922.74	405.156
2924.05	410.758
2925.35	416.502
2926.66	420.868
2927.97	424.221
2929.27	426.883
2930.58	429.662
2931.89	430.844
2933.19	430.464
2934.5	429.924
2935.8	428.413
2937.11	425.932
2938.41	423.691
2939.72	419.799
2941.02	415.171
2942.32	411.174
2943.63	405.381
2944.93	399.348
2946.24	392.745
2947.54	385.659
2948.84	378.222
2950.14	370.549
2951.45	362.042
2952.75	353.525
2954.05	344.622
2955.35	335.726
2956.65	326.949
2957.95	317.547
2959.26	308.35
2960.56	299.704
2961.86	291.039
2963.16	282.559
2964.46	273.175
2965.76	264.4
2967.06	257.002
2968.36	248.299
2969.66	240.753
2970.96	233.046
2972.25	224.443
2973.55	217.258
2974.85	209.852
2976.15	203.041
2977.45	196.172
2978.74	189.619
2980.04	181.793
2981.34	175.592
2982.64	169.021
2983.93	161.324
2985.23	153.984
2986.52	147.396
2987.82	140.232
2989.12	133.003
2990.41	126.21
2991.71	118.777
2993	111.922
2994.3	105.56
2995.59	99.6325
2996.89	93.1682
2998.18	86.9732
2999.48	81.2431
3000.77	75.5982
3002.06	70.2643
3003.36	65.0883
3004.65	60.3121
3005.94	55.8098
3007.23	51.205
3008.53	46.818
3009.82	43.146
3011.11	39.5992
3012.4	35.6495
3013.69	32.5451
3014.99	29.5878
3016.28	27.1528
3017.57	24.352
3018.86	22.3847
3020.15	20.5064
3021.44	19.3436
3022.73	17.9114
3024.02	17.1334
3025.31	15.7952
3026.6	15.143
3027.89	13.0957
3029.18	12.564
3030.46	12.3795
3031.75	12.22
3033.04	12.0612
3034.33	12.292
3035.62	12.4665
3036.9	12.6267
3038.19	13.8367
3039.48	14.5976
3040.76	15.4181
3042.05	15.9889
3043.34	16.0729
3044.62	17.1337
3045.91	18.1738
3047.19	17.864
3048.48	18.0651
3049.77	19.4112
3051.05	20.0853
3052.34	20.1873
3053.62	20.4368
3054.9	20.8165
3056.19	20.7686
3057.47	20.6964
3058.76	21.2608
3060.04	21.6398
3061.32	20.9726
3062.61	20.2673
3063.89	19.6491
3065.17	18.8349
3066.45	17.9303
3067.74	16.9033
3069.02	17.0434
3070.3	15.6613
3071.58	14.9248
3072.86	14.2341
3074.14	13.2815
3075.42	12.7719
3076.7	11.7296
3077.99	11.0284
3079.26	10.2689
3080.54	9.54616
3081.82	8.59944
3083.1	8.09431
3084.38	6.97593
3085.66	6.48248
3086.94	4.99313
3088.22	4.05741
3089.5	2.6593
3090.78	1.54647
3092.05	0.282123
3093.33	0.559986
3094.61	-0.0768773
3095.89	-0.222282
3097.16	-0.171828
3098.44	-0.123166
3099.72	0.100559
3100.99	0.678944
3102.27	1.33961
3103.54	1.33456
3104.82	1.2642
3106.1	1.95578
3107.37	2.72365
3108.65	3.31615
3109.92	3.57528
3111.2	3.85817
3112.47	5.2983
3113.74	5.8836
3115.02	6.06681
3116.29	6.78215
3117.56	7.35329
3118.84	8.33434
3120.11	9.15601
3121.38	10.0732
3122.66	11.2171
3123.93	11.5205
3125.2	11.6446
3126.47	12.9252
3127.74	13.7987
3129.01	14.6409
3130.29	15.7882
3131.56	16.9427
3132.83	18.7025
3134.1	19.2715
3135.37	20.7136
3136.64	21.702
3137.91	22.7248
3139.18	23.6734
3140.45	24.1141
3141.72	24.5249
3142.99	25.1063
3144.26	25.5108
3145.52	25.8157
3146.79	26.1339
3148.06	26.7906
3149.33	27.7739
