#Acq. time (s)=	45
#Accumulations=	2
#Range (cm-¹)=	200...3150
#Windows=	2
#Auto scanning=	Off
#Autofocus=	Off
#Macrospot=	Off
#AutoExposure=	Off
#Spike filter=	Multiple accum.
#Delay time (s)=	0
#Binning=	1
#Readout mode=	Signal
#DeNoise=	Off
#ICS correction=	On
#Dark correction=	Off
#Inst. Process=	Off
#Detector Gain=	Best Dynamic Range
#Detector ADC=	20 kHz       
#Detector temperature (°C)=	-69.85
#Instrument=	LabRAM HR Evol
#Detector=	Synapse
#Objective=	x100
#Grating=	600 gr/mm
#ND Filter=	100%
#Laser (nm)=	532 
#Hole=	100.021
#Range=	Auto
#Laser Pol.=	No
#Raman. Pol.=	No
#Laser Pol. (°)=	-0.0007625
#Raman Pol. (°)=	89.9995
#Collection=	Microscope
#StageXY=	Marzhauser
#StageZ=	Marzhauser
#X (µm)=	1961.4
#Y (µm)=	-44.4
#Z (µm)=	425.15
#Full time(mm:ss)=	3:18
#Project=	
#Sample=	
#Site=	
#Title=	Thy_40_11_22_2x_45s_532 nm_x100_100%_600 gr_mm
#Remark=	
#Date=	05.07.2022 11:25
#Acquired=	05.07.2022 11:25:23
#Base:Fit=	10.08.2022 10:01:35
#Base:Sub=	10.08.2022 10:01:52
#Filter:Polynom=	16.08.2022 10:21:53
#AxisType[0]=Intens
#AxisUnit[0]=Cnt
#AxisType[1]=Spectr
#AxisUnit[1]=1/cm
200.43	23.7842
202.244	20.821
204.059	17.4911
205.873	15.4781
207.688	14.127
209.501	12.6733
211.314	10.6803
213.127	9.20134
214.941	8.2196
216.753	7.10148
218.564	6.84867
220.375	5.78475
222.186	6.14579
223.999	6.38619
225.809	6.39839
227.618	6.0302
229.428	5.69785
231.236	4.40941
233.045	4.04104
234.855	4.27032
236.663	4.63604
238.471	4.51069
240.278	4.77383
242.085	4.10422
243.891	4.13995
245.698	2.7713
247.503	3.00169
249.309	3.58609
251.116	3.4271
252.921	3.96023
254.725	4.48511
256.529	4.66359
258.333	4.29612
260.136	4.51965
261.939	5.39473
263.742	5.05777
265.544	4.93444
267.346	5.22802
269.148	5.53546
270.949	5.40244
272.75	6.57381
274.55	6.46487
276.351	5.20103
278.15	5.99942
279.95	6.00756
281.749	6.68721
283.548	7.2958
285.346	7.76159
287.144	7.83515
288.942	7.6572
290.739	7.98308
292.536	8.58623
294.333	8.26675
296.129	6.9749
297.925	6.797
299.721	6.94292
301.514	6.32316
303.309	7.17833
305.104	7.13804
306.898	6.91364
308.692	7.59882
310.486	7.114
312.279	8.15568
314.072	7.05742
315.862	6.01108
317.654	5.97832
319.446	5.74808
321.238	5.32963
323.029	5.97143
324.819	6.39763
326.608	6.2239
328.398	5.2745
330.188	4.85698
331.977	3.85232
333.766	4.33889
335.553	4.09163
337.341	6.25556
339.129	6.34137
340.917	6.25428
342.704	6.78319
344.489	6.93361
346.275	6.24315
348.062	6.48142
349.845	7.20621
351.631	6.80661
353.416	6.61943
355.201	7.03684
356.984	6.88633
358.768	7.15265
360.552	7.11366
362.333	7.70946
364.116	7.63288
365.899	7.76045
367.68	7.6723
369.462	7.64339
371.243	8.3378
373.023	8.75893
374.804	9.58691
376.585	9.64138
378.363	10.2042
380.143	10.5489
381.923	10.2209
383.7	9.62272
385.479	10.3557
387.256	11.4255
389.034	11.2354
390.812	11.4044
392.588	11.7818
394.365	11.8102
396.14	11.6403
397.916	11.9332
399.691	11.3833
401.467	11.267
403.24	10.0719
405.015	10.9135
406.788	11.7371
408.563	11.181
410.335	10.7683
412.109	11.1837
413.88	11.2239
415.654	10.5818
417.424	10.2779
419.197	10.268
420.967	9.44321
422.739	9.91294
424.508	9.51121
426.279	9.33621
428.048	8.68108
429.819	7.9515
431.587	6.82094
433.356	5.24818
435.124	4.28394
436.891	4.49211
438.66	2.4733
440.426	1.8283
442.194	1.38246
443.96	0.790241
445.725	0.723097
447.492	0.632014
449.257	-0.109637
451.021	0.676354
452.787	0.588785
454.551	0.0370979
456.314	-0.656822
458.079	0.167716
459.842	1.84555
461.604	2.68757
463.368	2.85675
465.13	3.35817
466.891	4.18405
468.654	4.80012
470.415	5.44588
472.175	7.03321
473.935	7.85113
475.696	8.44522
477.456	9.73223
479.215	10.5181
480.973	11.6745
482.733	12.6766
484.491	13.4832
486.249	14.5825
488.006	16.2428
489.765	17.1586
491.522	18.8924
493.278	20.2423
495.034	21.593
496.789	22.8076
498.544	23.9303
500.301	25.9236
502.056	26.1364
503.81	26.7955
505.564	27.0888
507.317	27.2274
509.071	27.2757
510.825	28.2923
512.578	28.2927
514.33	28.4583
516.082	28.147
517.833	27.051
519.585	27.308
521.335	26.7211
523.086	25.8721
524.836	25.2255
526.586	23.7554
528.335	22.9545
530.085	21.3544
531.835	20.6395
533.584	19.7238
535.332	19.1942
537.08	18.1286
538.827	17.3135
540.574	15.2856
542.321	13.0775
544.068	12.2552
545.814	12.4041
547.56	11.8654
549.305	10.4065
551.05	9.115
552.795	8.26659
554.54	7.99584
556.282	7.64764
558.025	7.74518
559.769	7.64513
561.512	7.01533
563.255	7.39466
564.997	8.34876
566.739	8.37715
568.481	8.45631
570.223	8.77906
571.964	8.72435
573.705	9.39746
575.443	10.3783
577.183	9.74233
578.923	10.7965
580.663	11.3193
582.402	12.3797
584.141	12.2484
585.879	11.9713
587.615	10.9756
589.353	10.5072
591.09	10.3426
592.828	9.36043
594.564	10.0737
596.299	9.88774
598.035	9.96384
599.771	9.6018
601.506	9.53773
603.242	9.39181
604.974	8.61551
606.709	9.17741
608.443	8.35805
610.177	7.44197
611.908	7.35236
613.642	6.47014
615.374	6.17076
617.105	7.13967
618.837	7.43653
620.569	7.07484
622.3	7.22115
624.03	6.68401
625.761	5.79353
627.491	6.12442
629.219	6.7189
630.949	7.59843
632.677	7.7425
634.406	8.18655
636.135	8.93491
637.861	9.83546
639.59	11.5573
641.318	13.6267
643.043	14.3612
644.77	16.5343
646.495	16.9757
648.222	17.5966
649.948	19.0297
651.672	20.3292
653.398	20.2318
655.121	21.2154
656.846	21.3188
658.569	20.8197
660.293	21.7418
662.015	21.7452
663.738	22.1159
665.46	22.7579
667.183	22.3554
668.903	22.5262
670.626	21.9842
672.346	21.8104
674.067	22.389
675.787	23.362
677.508	23.0205
679.226	23.1061
680.947	23.605
682.665	23.6281
684.385	23.4509
686.102	22.5298
687.821	23.1976
689.538	23.1077
691.254	23.6545
692.972	24.9973
694.688	24.6872
696.406	23.4381
698.121	23.5043
699.835	24.3778
701.552	25.7805
703.266	26.5473
704.98	27.3798
706.695	27.5711
708.409	29.6111
710.121	30.7804
711.836	31.5831
713.548	33.3605
715.26	35.5954
716.973	36.3476
718.685	38.1322
720.396	40.1899
722.108	41.8934
723.818	43.0472
725.528	43.8305
727.238	44.9718
728.949	46.0528
730.658	46.7651
732.367	47.2288
734.075	49.0721
735.785	49.9812
737.493	50.2279
739.2	51.4418
740.907	53.1721
742.614	52.8017
744.322	53.8807
746.028	56.0137
747.734	56.5197
749.439	57.6045
751.144	58.3631
752.849	59.2213
754.555	60.3591
756.26	61.4346
757.963	62.6353
759.667	63.131
761.37	63.5682
763.073	63.6245
764.775	63.6371
766.477	63.9777
768.179	64.3274
769.883	63.9796
771.584	64.3791
773.285	65.4008
774.986	65.8661
776.686	67.1515
778.386	67.1015
780.085	67.4227
781.785	67.6179
783.484	69.2646
785.182	71.4291
786.881	73.4704
788.579	75.1316
790.276	76.6019
791.974	77.177
793.671	79.0806
795.367	79.8814
797.064	80.7227
798.76	82.2644
800.456	83.6501
802.151	83.0582
803.846	84.3103
805.541	84.0318
807.234	83.7049
808.928	83.1233
810.622	82.6656
812.315	83.2808
814.008	83.3977
815.701	83.0002
817.394	84.204
819.086	84.6541
820.778	83.3589
822.468	83.5402
824.159	84.1845
825.85	83.4292
827.541	82.2264
829.231	81.763
830.921	81.1791
832.609	80.6395
834.298	79.1602
835.987	78.4287
837.676	78.1174
839.364	76.4794
841.051	74.8038
842.738	72.4641
844.426	70.7434
846.113	68.9082
847.798	66.7382
849.484	65.229
851.171	64.7178
852.857	62.701
854.54	61.1894
856.226	59.9297
857.911	58.6178
859.593	57.5599
861.278	56.4315
862.961	54.9786
864.645	54.203
866.327	53.9268
868.01	53.6145
869.692	53.6254
871.373	52.6049
873.055	51.6451
874.735	50.5115
876.416	50.0676
878.097	49.9365
879.776	49.5936
881.457	48.5719
883.135	49.0613
884.815	47.7196
886.495	46.9643
888.172	46.8976
889.851	45.8918
891.528	45.395
893.206	44.732
894.882	44.8257
896.56	46.0744
898.237	47.543
899.912	47.9835
901.589	48.7703
903.263	48.5342
904.94	48.081
906.614	49.1521
908.289	49.2402
909.962	48.8135
911.635	48.2823
913.31	48.0058
914.982	48.2291
916.656	48.0091
918.328	46.7607
920.001	47.0947
921.672	46.3319
923.345	44.7555
925.015	44.9831
926.685	44.7709
928.357	45.0189
930.026	43.8778
931.698	44.0016
933.366	43.1
935.035	42.3563
936.705	40.1033
938.373	39.724
940.041	39.4837
941.71	37.7571
943.377	36.1301
945.044	34.662
946.712	34.0933
948.378	33.4095
950.044	33.3315
951.709	32.0213
953.376	31.7134
955.041	31.388
956.706	31.8431
958.372	31.1754
960.036	30.273
961.699	31.1453
963.362	31.3543
965.027	30.741
966.69	31.2074
968.352	30.5756
970.014	31.4271
971.676	31.7253
973.339	31.8156
975	32.6485
976.661	32.7574
978.322	34.2796
979.982	35.1779
981.642	35.6697
983.303	35.3342
984.962	35.2265
986.621	34.6845
988.28	35.1973
989.938	35.3134
991.596	35.3744
993.254	35.5436
994.911	35.505
996.57	35.6916
998.227	35.5229
999.884	34.5791
1001.54	34.3374
1003.2	34.1206
1004.85	33.1778
1006.51	33.1403
1008.16	33.1016
1009.82	32.1004
1011.47	32.3329
1013.12	31.2716
1014.78	30.9579
1016.43	30.663
1018.08	30.6681
1019.74	30.5827
1021.39	30.9738
1023.04	30.1833
1024.69	28.7689
1026.34	28.9732
1028	28.5253
1029.65	28.7295
1031.3	28.2148
1032.95	28.4968
1034.6	27.5647
1036.25	27.691
1037.9	26.8505
1039.54	25.8505
1041.19	24.8367
1042.84	24.4466
1044.49	24.6497
1046.14	23.7741
1047.78	22.7975
1049.43	23.2396
1051.08	23.607
1052.72	23.6875
1054.37	23.2984
1056.02	23.551
1057.66	23.495
1059.31	22.8266
1060.95	22.7815
1062.6	21.8397
1064.24	21.222
1065.88	19.8334
1067.53	19.1658
1069.17	19.0264
1070.81	18.8312
1072.45	18.8334
1074.1	17.9628
1075.74	17.3129
1077.38	17.0218
1079.02	16.1287
1080.66	16.125
1082.3	15.8199
1083.94	15.8439
1085.58	16.3111
1087.22	15.8083
1088.86	15.6336
1090.5	15.7876
1092.14	15.8951
1093.78	16.0608
1095.42	16.2569
1097.05	16.8179
1098.69	17.8868
1100.33	18.325
1101.96	17.8751
1103.6	17.176
1105.24	16.4437
1106.87	16.0665
1108.51	15.6674
1110.14	14.0959
1111.78	14.0606
1113.41	14.395
1115.05	13.2289
1116.68	11.3698
1118.31	10.9872
1119.95	11.09
1121.58	11.1576
1123.21	11.4869
1124.85	11.3263
1126.48	12.1161
1128.11	12.6534
1129.74	12.4841
1131.37	12.5756
1133	12.8455
1134.63	12.1421
1136.26	11.7313
1137.89	11.9418
1139.52	10.5543
1141.15	10.3595
1142.78	9.51471
1144.41	8.71715
1146.04	8.61933
1147.66	8.08793
1149.29	8.03482
1150.92	7.44474
1152.55	6.9353
1154.17	7.45923
1155.8	7.07342
1157.43	7.8882
1159.05	6.89131
1160.68	5.8083
1162.3	5.64381
1163.93	4.9974
1165.55	4.64192
1167.17	3.47672
1168.8	2.14442
1170.42	1.99687
1172.05	3.04309
1173.67	2.98385
1175.29	3.18157
1176.91	3.37102
1178.54	3.19642
1180.16	3.21755
1181.78	2.6641
1183.4	2.14114
1185.02	1.85753
1186.64	2.00723
1188.26	1.42472
1189.88	1.34885
1191.5	1.12591
1193.12	1.45808
1194.74	1.12506
1196.36	1.06805
1197.97	3.17349
1199.59	5.44567
1201.21	6.89058
1202.83	7.29302
1204.44	9.04729
1206.06	10.2957
1207.68	12.2942
1209.29	13.1853
1210.91	14.0742
1212.52	15.8721
1214.14	17.3457
1215.75	18.8916
1217.37	21.0353
1218.98	22.7513
1220.59	24.3015
1222.21	26.9785
1223.82	28.2657
1225.43	29.7462
1227.05	31.3004
1228.66	32.378
1230.27	33.5288
1231.88	34.8527
1233.49	36.2732
1235.1	37.6829
1236.72	38.4625
1238.33	39.6286
1239.94	39.7674
1241.55	41.1417
1243.16	43.0134
1244.76	45.0355
1246.37	45.4258
1247.98	46.4593
1249.59	47.26
1251.2	48.9687
1252.8	49.501
1254.41	49.1202
1256.02	50.32
1257.62	50.1959
1259.23	50.9983
1260.84	51.465
1262.44	52.0084
1264.05	53.3428
1265.66	54.1018
1267.26	55.0976
1268.86	55.3351
1270.47	56.7565
1272.07	56.7488
1273.67	57.5428
1275.28	58.6581
1276.88	60.5925
1278.48	61.2587
1280.09	61.1587
1281.69	61.6945
1283.29	63.145
1284.89	64.6336
1286.49	65.7986
1288.09	66.4034
1289.69	66.6645
1291.29	66.5557
1292.89	67.9443
1294.49	68.2676
1296.09	68.774
1297.69	68.4003
1299.29	68.5607
1300.89	68.4169
1302.49	68.2065
1304.08	67.9548
1305.68	67.5748
1307.28	68.1245
1308.88	67.9627
1310.47	68.2001
1312.07	68.6059
1313.66	68.62
1315.26	68.5851
1316.85	68.2619
1318.45	67.7076
1320.04	66.7209
1321.64	67.0974
1323.23	66.3689
1324.83	65.1761
1326.42	62.9638
1328.01	61.6765
1329.61	61.0773
1331.2	60.9152
1332.79	59.4375
1334.38	59.2304
1335.97	58.4714
1337.56	56.6066
1339.16	56.5883
1340.75	55.4112
1342.34	55.0102
1343.93	54.4216
1345.52	53.9102
1347.11	52.383
1348.7	50.8053
1350.29	49.8123
1351.87	47.9163
1353.46	47.5278
1355.05	46.2219
1356.64	44.553
1358.22	42.9946
1359.81	43.0348
1361.4	42.6043
1362.98	42.0322
1364.57	41.4406
1366.16	40.8215
1367.74	39.2608
1369.33	38.1735
1370.91	37.1654
1372.5	36.4768
1374.08	35.4169
1375.67	34.8199
1377.25	34.5171
1378.83	34.6015
1380.41	34.6387
1382	35.6001
1383.58	35.2946
1385.16	35.1776
1386.74	35.3989
1388.33	34.6509
1389.91	34.7223
1391.49	33.4969
1393.07	32.0991
1394.65	30.8283
1396.23	30.7067
1397.81	29.9056
1399.39	29.7801
1400.97	30.8201
1402.55	29.7003
1404.13	29.6491
1405.7	29.3476
1407.28	29.8202
1408.86	30.8242
1410.44	30.7173
1412.01	30.4358
1413.59	31.0059
1415.17	31.1337
1416.74	32.5179
1418.32	34.0293
1419.89	35.4647
1421.47	38.1382
1423.04	40.1182
1424.62	42.8293
1426.19	44.098
1427.77	46.192
1429.34	47.9644
1430.91	49.8144
1432.49	51.4721
1434.06	53.4408
1435.63	55.5636
1437.2	57.6602
1438.78	59.7294
1440.35	61.1161
1441.92	62.4048
1443.49	63.2058
1445.06	64.0576
1446.63	64.1295
1448.2	64.9469
1449.77	65.7008
1451.34	65.6095
1452.91	65.8883
1454.48	64.6913
1456.05	63.8875
1457.62	64.033
1459.18	63.4266
1460.75	62.0032
1462.32	59.5629
1463.89	58.1526
1465.45	55.6186
1467.02	53.1003
1468.59	49.8815
1470.15	46.7731
1471.72	44.7272
1473.28	43.0678
1474.85	41.0538
1476.41	37.8646
1477.98	36.4106
1479.54	34.2662
1481.1	30.1499
1482.67	27.9375
1484.23	24.9429
1485.79	23.2791
1487.36	21.9813
1488.92	20.2987
1490.48	17.9378
1492.04	17.7242
1493.61	16.5662
1495.17	16.1344
1496.73	15.8805
1498.29	15.8498
1499.85	15.4856
1501.41	14.8273
1502.97	14.6304
1504.53	13.9603
1506.09	13.0217
1507.65	12.9462
1509.2	13.5208
1510.76	13.1972
1512.32	13.12
1513.88	12.6353
1515.43	12.0436
1516.99	12.4918
1518.55	12.9864
1520.1	13.7634
1521.66	14.3879
1523.22	15.9225
1524.77	16.6869
1526.33	18.2529
1527.88	19.1438
1529.44	20.2033
1530.99	21.256
1532.54	22.6605
1534.1	24.3651
1535.65	25.3324
1537.21	25.0159
1538.76	25.4911
1540.31	26.9331
1541.86	28.2575
1543.42	29.4779
1544.97	31.3301
1546.52	32.7439
1548.07	34.2509
1549.62	35.9158
1551.17	37.0447
1552.72	37.875
1554.27	39.1182
1555.82	41.2749
1557.37	41.6323
1558.92	42.4874
1560.47	43.248
1562.02	43.6543
1563.56	44.4717
1565.11	45.3116
1566.66	45.426
1568.21	46.9364
1569.75	48.7478
1571.3	49.7276
1572.85	49.9708
1574.39	50.54
1575.94	51.5205
1577.49	52.0291
1579.03	52.8552
1580.57	53.1117
1582.12	54.0021
1583.66	53.7392
1585.21	55.1225
1586.75	55.645
1588.3	55.5498
1589.84	55.8051
1591.38	56.2317
1592.92	57.0418
1594.47	57.9502
1596.01	58.9469
1597.55	59.5649
1599.09	59.4862
1600.63	60.4512
1602.17	61.1955
1603.71	61.2373
1605.25	60.4647
1606.79	60.1383
1608.33	59.6278
1609.87	60.019
1611.41	60.3111
1612.95	60.1191
1614.49	60.1024
1616.03	60.4014
1617.57	61.5137
1619.1	60.9995
1620.64	61.8658
1622.18	62.2805
1623.72	61.6287
1625.25	62.1818
1626.79	62.526
1628.32	63.0239
1629.86	63.8099
1631.39	63.8156
1632.93	64.9051
1634.46	65.0783
1636	65.1391
1637.53	65.4031
1639.07	66.2522
1640.6	67.0924
1642.13	68.5629
1643.67	69.7213
1645.2	71.018
1646.73	71.0204
1648.26	70.7329
1649.8	70.7811
1651.33	71.9718
1652.86	72.5011
1654.39	72.4436
1655.92	72.502
1657.45	72.2944
1658.98	73.082
1660.51	73.3412
1662.04	73.9543
1663.57	72.9746
1665.1	72.2871
1666.63	71.2733
1668.16	70.1739
1669.68	69.2158
1671.21	67.4229
1672.74	65.0857
1674.27	61.972
1675.79	59.8366
1677.32	57.4539
1678.85	55.7313
1680.37	52.6143
1681.9	50.2628
1683.42	48.3579
1684.95	46.1
1686.47	43.7205
1688	40.5106
1689.52	37.236
1691.05	34.8229
1692.57	31.933
1694.09	30.045
1695.62	27.5634
1697.14	26.015
1698.66	24.0875
1700.18	22.4505
1701.71	21.0679
1703.23	18.4466
1704.75	17.5691
1706.27	15.3444
1707.79	13.7189
1709.31	13.0445
1710.83	11.6308
1712.35	10.3072
1713.87	9.73178
1715.39	8.67457
1716.91	8.34716
1718.43	8.04785
1719.95	7.56213
1721.47	6.70407
1722.99	6.54221
1724.5	6.36108
1726.02	6.91499
1727.54	7.29791
1729.06	7.30352
1730.57	7.22972
1732.09	7.0794
1733.61	8.0218
1735.12	8.11457
1736.64	8.62243
1738.15	7.88401
1739.67	7.21596
1741.18	7.00192
1742.7	6.43449
1744.21	6.18064
1745.72	6.13171
1747.24	5.18212
1748.75	4.65261
1750.26	4.90223
1751.77	5.66813
1753.29	5.5005
1754.8	5.71601
1756.31	4.65152
1757.82	4.4051
1759.33	3.84533
1760.84	3.57391
1762.36	2.72408
1763.87	2.41544
1765.38	2.75673
1766.89	2.40278
1768.4	1.52878
1769.91	1.50454
1771.41	1.26192
1772.92	1.16787
1774.43	1.54941
1775.94	1.29603
1777.45	0.788653
1778.95	0.661263
1780.46	1.19108
1781.97	0.617538
1783.48	1.4957
1784.98	1.44501
1786.49	1.52305
1787.99	2.00272
1789.5	2.08825
1791.01	2.18238
1792.51	2.91181
1794.01	2.82301
1795.52	2.64358
1797.02	2.67283
1798.53	3.06258
1800.03	3.25574
1801.53	3.11241
1803.04	3.03877
1804.54	2.88162
1806.04	2.62914
1807.54	2.92663
1809.05	3.53901
1810.55	3.76905
1812.05	4.44868
1813.55	4.02634
1815.05	4.46267
1816.55	4.7191
1818.05	5.0336
1819.55	5.28274
1821.05	5.69101
1822.55	5.37683
1824.05	5.71086
1825.55	5.65377
1827.05	5.30606
1828.55	5.11004
1830.04	4.90186
1831.54	4.40549
1833.04	4.37891
1834.54	4.30268
1836.03	4.21074
1837.53	4.41092
1839.03	4.56382
1840.52	4.29402
1842.02	4.17282
1843.51	3.75036
1845.01	3.66375
1846.5	3.85723
1848	4.24127
1849.49	3.98463
1850.99	3.83866
1852.48	3.41564
1853.97	3.67436
1855.47	4.12851
1856.96	3.48535
1858.45	3.26574
1859.94	3.0152
1861.44	2.93814
1862.93	2.66926
1864.42	2.24721
1865.91	1.9071
1867.4	1.53299
1868.89	0.845071
1870.38	0.501837
1871.87	0.563514
1873.36	0.447208
1874.85	1.08981
1876.34	0.83919
1877.83	1.12636
1879.32	1.71014
1880.81	1.6992
1882.3	1.66325
1882.57	2.26726
1884.07	2.72844
1885.56	3.2053
1887.06	3.99485
1888.55	4.68764
1890.04	4.78087
1891.54	4.95323
1893.03	5.47146
1894.52	5.9574
1896.02	5.64649
1897.51	5.3025
1899	4.94954
1900.49	4.77907
1901.98	4.75407
1903.47	5.12025
1904.96	6.03442
1906.45	6.03107
1907.94	6.26796
1909.43	6.30523
1910.92	6.77528
1912.41	6.37274
1913.9	6.7859
1915.39	7.17932
1916.88	7.25301
1918.37	7.58051
1919.85	8.08598
1921.34	8.0385
1922.83	7.78399
1924.32	7.76714
1925.8	8.04097
1927.29	7.57719
1928.78	6.9724
1930.26	6.09028
1931.75	5.60226
1933.23	5.8797
1934.72	5.42956
1936.2	4.9615
1937.69	4.55984
1939.17	4.68959
1940.66	4.61882
1942.14	4.56726
1943.63	4.75625
1945.11	4.7474
1946.59	4.68829
1948.07	5.15108
1949.56	4.97007
1951.04	5.50932
1952.52	5.70799
1954	5.15641
1955.48	5.739
1956.96	6.73711
1958.45	6.95471
1959.93	6.84297
1961.41	6.19245
1962.89	5.65274
1964.37	5.82812
1965.85	5.84034
1967.32	5.95677
1968.8	5.38291
1970.28	5.4723
1971.76	5.0451
1973.24	5.31803
1974.72	5.45277
1976.19	5.29139
1977.67	5.8375
1979.15	5.80923
1980.63	5.40247
1982.1	6.02892
1983.58	6.35111
1985.05	6.81249
1986.53	7.30579
1988	8.08484
1989.48	7.86366
1990.95	8.51657
1992.43	8.63359
1993.9	8.33002
1995.38	7.97967
1996.85	8.63262
1998.32	8.67227
1999.8	8.62316
2001.27	8.22827
2002.74	8.23895
2004.22	7.67841
2005.69	7.17198
2007.16	7.22536
2008.63	6.69118
2010.1	6.15936
2011.57	6.23718
2013.04	7.19026
2014.51	6.92326
2015.98	7.2146
2017.45	7.24617
2018.92	7.53678
2020.39	8.06618
2021.86	8.06129
2023.33	8.6679
2024.8	8.87918
2026.27	8.72141
2027.74	8.67984
2029.2	8.75932
2030.67	8.02269
2032.14	7.88225
2033.61	7.2616
2035.07	7.34415
2036.54	7.98795
2038.01	8.33824
2039.47	8.39205
2040.94	8.54331
2042.4	8.762
2043.87	9.18091
2045.33	8.93797
2046.8	9.39722
2048.26	9.37725
2049.72	9.5134
2051.19	10.3235
2052.65	10.4316
2054.12	11.0988
2055.58	11.0481
2057.04	11.6591
2058.5	12.0222
2059.97	12.2551
2061.43	12.6826
2062.89	13.0205
2064.35	14.0875
2065.81	14.5215
2067.27	14.6436
2068.73	15.7975
2070.19	16.0758
2071.65	15.5597
2073.11	15.8656
2074.57	16.1215
2076.03	16.4698
2077.49	16.7969
2078.95	17.5771
2080.41	18.6956
2081.87	20.065
2083.32	20.8895
2084.78	22.0671
2086.24	22.6064
2087.7	23.093
2089.15	23.7311
2090.61	24.0535
2092.07	24.3668
2093.52	24.3688
2094.98	24.9302
2096.43	25.9991
2097.89	26.1003
2099.34	25.8111
2100.8	26.5615
2102.25	26.7994
2103.71	27.9525
2105.16	28.5178
2106.61	28.7308
2108.07	30.3089
2109.52	30.9686
2110.97	31.607
2112.43	32.2428
2113.88	32.5773
2115.33	33.0573
2116.78	33.7752
2118.23	35.0166
2119.68	36.1419
2121.13	37.5086
2122.59	38.4072
2124.04	39.6728
2125.49	40.9181
2126.94	42.7014
2128.39	44.0091
2129.83	46.3994
2131.28	48.2871
2132.73	50.3827
2134.18	52.6623
2135.63	54.134
2137.08	55.9531
2138.53	57.1809
2139.97	58.6573
2141.42	60.6461
2142.87	62.3272
2144.31	63.9569
2145.76	66.0189
2147.21	68.0697
2148.65	69.7517
2150.1	71.4423
2151.54	73.5553
2152.99	75.0199
2154.43	76.028
2155.88	76.7798
2157.32	77.9222
2158.77	79.2747
2160.21	80.9774
2161.65	81.5259
2163.1	82.0317
2164.54	82.3471
2165.98	83.1789
2167.43	83.7821
2168.87	84.257
2170.31	84.3803
2171.75	84.4939
2173.19	85.1073
2174.64	84.317
2176.07	83.7526
2177.52	83.2609
2178.96	83.4886
2180.4	83.2176
2181.84	82.2445
2183.28	81.2576
2184.72	80.7788
2186.15	79.9059
2187.59	79.2153
2189.03	78.9566
2190.47	78.5632
2191.91	77.8721
2193.35	76.8066
2194.78	75.7752
2196.22	75.2387
2197.66	74.025
2199.09	73.3751
2200.53	72.5234
2201.97	71.2458
2203.4	69.3087
2204.84	67.7392
2206.27	66.0443
2207.71	65.0486
2209.14	63.3788
2210.58	61.9842
2212.01	60.9088
2213.45	59.6176
2214.88	58.2905
2216.31	56.6557
2217.75	55.2263
2219.18	53.4794
2220.61	51.5917
2222.05	50.0107
2223.48	48.4098
2224.91	46.4411
2226.34	44.8466
2227.78	43.8263
2229.21	42.5317
2230.64	41.1575
2232.07	39.778
2233.5	37.5598
2234.93	35.8848
2236.36	35.22
2237.79	34.2109
2239.22	32.7211
2240.65	31.664
2242.08	30.2882
2243.5	28.9
2244.93	28.4573
2246.36	27.4821
2247.79	26.8625
2249.22	26.9852
2250.64	26.2487
2252.07	25.0988
2253.5	23.9877
2254.92	22.8255
2256.35	22.8011
2257.78	22.2163
2259.2	21.5817
2260.63	21.2797
2262.05	21.0033
2263.48	21.0766
2264.9	20.5872
2266.33	20.738
2267.75	20.1863
2269.18	20
2270.6	20.3978
2272.02	19.7088
2273.45	19.437
2274.87	19.3951
2276.29	19.686
2277.71	19.9067
2279.14	19.6721
2280.56	18.409
2281.98	17.7147
2283.4	16.7347
2284.82	16.098
2286.24	15.444
2287.66	15.2025
2289.08	14.743
2290.5	13.3665
2291.92	12.8881
2293.34	12.1424
2294.76	12.2583
2296.18	11.8335
2297.6	12.6196
2299.02	13.2357
2300.44	13.334
2301.86	12.7226
2303.27	12.6205
2304.69	12.1247
2306.11	12.418
2307.53	12.505
2308.94	12.0239
2310.36	11.8575
2311.78	12.7279
2313.19	13.18
2314.61	13.0958
2316.02	13.4452
2317.44	13.5699
2318.85	13.9682
2320.27	13.9287
2321.68	13.7375
2323.1	13.5337
2324.51	13.1571
2325.92	13.1465
2327.34	13.2233
2328.75	12.8381
2330.16	12.4175
2331.58	12.4663
2332.99	12.4667
2334.4	12.1473
2335.81	10.8484
2337.23	10.3544
2338.64	9.91735
2340.05	9.35128
2341.46	8.87259
2342.87	8.5164
2344.28	8.4548
2345.69	7.62034
2347.1	6.99808
2348.51	6.19133
2349.92	5.17952
2351.33	4.37249
2352.74	3.79432
2354.15	3.54216
2355.55	3.26808
2356.96	3.09145
2358.37	2.99383
2359.78	2.02328
2361.19	1.30736
2362.59	1.79237
2364	1.77919
2365.41	2.62159
2366.81	2.48105
2368.22	2.75139
2369.62	2.14702
2371.03	1.2756
2372.44	0.586325
2373.84	0.905038
2375.24	1.09282
2376.65	1.88934
2378.05	1.86498
2379.46	2.44683
2380.86	2.83569
2382.26	3.47983
2383.67	3.51921
2385.07	3.61901
2386.47	4.43807
2387.88	4.46448
2389.28	4.12408
2390.68	4.13145
2392.08	3.61932
2393.48	3.26127
2394.89	3.2625
2396.29	2.87969
2397.69	3.1083
2399.09	3.3041
2400.49	3.03486
2401.89	2.63252
2403.29	2.50768
2404.69	2.69678
2406.09	2.80034
2407.48	3.02402
2408.88	3.5776
2410.28	4.35951
2411.68	5.34496
2413.08	5.69593
2414.48	5.49766
2415.87	5.3581
2417.27	5.22757
2418.67	5.4697
2420.06	6.06429
2421.46	6.0455
2422.86	6.31326
2424.25	5.81305
2425.65	5.95093
2427.04	6.45398
2428.44	6.67529
2429.83	6.46582
2431.23	6.66573
2432.62	6.66688
2434.02	6.2145
2435.41	6.57619
2436.81	5.74057
2438.2	5.81832
2439.59	5.38609
2440.99	5.20855
2442.38	5.84014
2443.77	6.382
2445.16	7.17569
2446.56	7.29435
2447.95	6.98508
2449.34	7.29784
2450.73	7.55685
2452.12	7.33834
2453.51	7.21755
2454.9	6.85847
2456.29	6.42613
2457.68	5.45638
2459.07	5.61552
2460.46	5.33316
2461.85	4.87731
2463.24	5.45017
2464.63	5.42284
2466.02	4.80052
2467.4	4.96196
2468.79	5.3352
2470.18	5.58119
2471.57	5.4902
2472.95	5.86641
2474.34	5.34012
2475.73	4.23175
2477.12	4.30567
2478.5	4.29046
2479.89	4.56078
2481.27	3.73261
2482.66	3.4968
2484.04	3.28054
2485.43	3.17355
2486.81	3.44555
2488.2	3.61646
2489.58	3.31891
2490.97	3.37052
2492.35	3.42632
2493.73	3.31053
2495.12	4.02863
2496.5	4.18329
2497.88	4.09645
2499.27	3.86827
2500.65	3.89124
2502.03	3.47272
2503.41	3.31811
2504.79	3.71783
2506.17	3.42044
2507.56	3.83769
2508.94	4.09827
2510.32	4.86251
2511.7	4.91958
2513.08	5.10232
2514.46	5.36661
2515.84	5.37698
2517.22	5.2049
2518.59	5.26397
2519.97	5.32195
2521.35	5.21913
2522.73	5.26357
2524.11	5.02695
2525.49	5.14501
2526.86	4.74374
2528.24	4.88585
2529.62	4.89104
2530.99	5.17743
2532.37	4.6201
2533.75	4.90013
2535.12	5.2954
2536.5	5.33151
2537.88	5.84112
2539.25	5.90281
2540.63	5.17097
2542	5.06377
2543.38	4.77438
2544.75	5.53085
2546.12	6.52824
2547.5	6.28874
2548.87	6.68709
2550.24	6.54077
2551.62	7.05658
2552.99	6.47549
2554.36	6.17604
2555.74	6.73126
2557.11	6.93117
2558.48	7.61801
2559.85	8.00709
2561.22	8.14361
2562.59	8.08973
2563.96	7.59373
2565.34	7.92396
2566.71	7.7134
2568.08	7.52352
2569.45	7.7194
2570.82	7.55723
2572.18	7.25922
2573.55	6.64615
2574.92	6.36499
2576.29	5.93077
2577.66	5.90229
2579.03	5.35115
2580.4	4.89958
2581.77	4.42144
2583.13	4.28283
2584.5	3.24218
2585.87	2.88295
2587.23	2.96401
2588.6	2.30396
2589.97	1.88687
2591.33	1.56234
2592.7	1.39785
2594.06	1.48204
2595.43	0.756873
2596.79	0.838259
2598.16	1.17747
2599.52	0.749974
2600.89	1.05911
2602.25	1.5066
2603.62	1.3527
2604.98	1.2597
2606.34	1.46312
2607.71	1.78677
2609.07	1.70919
2610.43	1.71065
2611.79	1.88157
2613.16	1.51583
2614.52	1.1565
2615.88	0.828484
2617.24	0.912643
2618.6	0.959084
2619.96	1.13542
2621.32	1.2549
2622.68	1.80098
2624.04	2.86202
2625.4	3.17395
2626.76	2.99279
2628.12	2.84021
2629.48	3.0176
2630.84	2.85949
2632.2	2.80672
2633.56	3.1572
2634.92	2.71267
2636.28	2.87246
2637.63	2.57611
2638.99	2.19581
2640.35	1.41826
2641.71	1.80574
2643.06	2.14743
2644.42	2.52701
2645.77	2.68468
2647.13	2.15899
2648.49	2.28203
2649.84	2.02055
2651.2	2.34449
2652.55	2.23249
2653.91	2.80329
2655.26	2.56293
2656.62	2.93024
2657.97	4.037
2659.33	3.74164
2660.68	4.03685
2662.03	3.68362
2663.39	3.41707
2664.74	3.8377
2666.09	4.19385
2667.44	3.77722
2668.8	3.52904
2670.15	2.78291
2671.5	2.89584
2672.85	2.6621
2674.2	2.91993
2675.55	3.30332
2676.91	2.77752
2678.26	1.99858
2679.61	1.87466
2680.96	2.00332
2682.31	2.02385
2683.66	2.76732
2685	3.39006
2686.35	3.26038
2687.7	3.2982
2689.05	3.55697
2690.4	3.33112
2691.75	3.59657
2693.1	3.5645
2694.44	3.14647
2695.79	3.5448
2697.14	3.58116
2698.49	3.51769
2699.83	3.06743
2701.18	3.26034
2702.52	3.54174
2703.87	3.39884
2705.22	3.24824
2706.56	3.81353
2707.91	4.11409
2709.25	5.00671
2710.6	5.12496
2711.94	5.38341
2713.29	4.99736
2714.63	4.96827
2715.97	5.91199
2717.32	6.22423
2718.66	6.82449
2720.01	7.88355
2721.35	8.22243
2722.69	9.0989
2724.03	9.11484
2725.38	9.09606
2726.72	9.25771
2728.06	9.89155
2729.4	9.63761
2730.74	10.2075
2732.08	10.249
2733.42	9.82441
2734.76	9.13711
2736.1	8.81164
2737.44	8.92836
2738.78	9.18614
2740.12	9.38363
2741.46	9.46533
2742.8	8.59528
2744.14	7.97841
2745.48	8.00111
2746.82	8.03306
2748.16	8.53583
2749.49	7.99348
2750.83	8.15978
2752.17	6.8269
2753.51	6.32908
2754.84	6.55006
2756.18	6.33271
2757.52	5.67683
2758.85	5.24021
2760.19	4.80498
2761.53	4.11037
2762.86	3.70432
2764.2	3.03926
2765.53	2.52581
2766.87	2.00748
2768.2	1.84546
2769.54	1.88915
2770.87	0.993269
2772.2	0.760333
2773.54	0.737946
2774.87	0.498603
2776.2	0.480339
2777.54	0.521191
2778.87	0.609724
2780.2	0.247744
2781.53	0.234636
2782.87	0.87232
2784.2	0.554123
2785.53	0.767565
2786.86	1.01551
2788.19	0.806335
2789.52	0.845323
2790.85	0.859378
2792.18	1.3323
2793.51	1.30718
2794.84	0.812097
2796.17	0.67752
2797.5	0.635162
2798.83	0.377662
2800.16	0.260844
2801.49	-0.136598
2802.82	-0.369701
2804.15	-0.405667
2805.47	-0.319113
2806.8	-0.537003
2808.13	-0.496272
2809.46	-0.773788
2810.78	-0.572342
2812.11	-0.474319
2813.44	-0.183948
2814.76	0.227485
2816.09	0.148675
2817.42	0.202562
2818.74	0.434585
2820.07	1.56184
2821.39	2.1399
2822.72	2.32619
2824.04	3.25728
2825.37	4.24532
2826.69	5.43061
2828.02	6.43014
2829.34	7.91015
2830.66	9.19415
2831.99	10.3906
2833.31	11.6171
2834.63	13.1738
2835.96	14.2403
2837.28	15.235
2838.6	17.041
2839.92	19.1778
2841.24	21.3774
2842.57	23.4236
2843.89	25.7103
2845.21	28.355
2846.53	31.0625
2847.85	33.87
2849.17	36.994
2850.49	39.8727
2851.81	43.2093
2853.13	46.6763
2854.45	49.6539
2855.77	53.3168
2857.09	56.9535
2858.41	60.3223
2859.72	64.2813
2861.04	68.1686
2862.36	71.2614
2863.68	74.4455
2865	77.8088
2866.31	80.6117
2867.63	83.4625
2868.95	86.7158
2870.26	89.431
2871.58	92.273
2872.9	95.2466
2874.21	97.4279
2875.53	98.9969
2876.84	101.237
2878.16	102.957
2879.47	105.012
2880.79	106.934
2882.1	109.285
2883.42	110.851
2884.73	112.607
2886.05	114.859
2887.36	116.831
2888.67	118.542
2889.99	120.212
2891.3	121.845
2892.61	122.676
2893.92	123.989
2895.24	125.117
2896.55	126.595
2897.86	128.306
2899.17	130.491
2900.48	132.972
2901.79	134.985
2903.11	138.112
2904.42	141.139
2905.73	145.353
2907.04	149.04
2908.35	153.056
2909.66	158.133
2910.97	162.845
2912.27	166.977
2913.58	171.354
2914.89	176.858
2916.2	181.631
2917.51	185.951
2918.82	190.29
2920.13	194.143
2921.43	197.867
2922.74	201.554
2924.05	205.214
2925.35	207.52
2926.66	209.45
2927.97	211.532
2929.27	213.15
2930.58	214.292
2931.89	214.751
2933.19	214.951
2934.5	214.947
2935.8	213.952
2937.11	213.199
2938.41	212.316
2939.72	209.68
2941.02	208.101
2942.32	205.785
2943.63	203.48
2944.93	201.149
2946.24	198.387
2947.54	195.284
2948.84	190.873
2950.14	186.864
2951.45	183.202
2952.75	179.263
2954.05	174.989
2955.35	170.613
2956.65	166.228
2957.95	161.249
2959.26	157.134
2960.56	153.468
2961.86	150.232
2963.16	146.498
2964.46	142.407
2965.76	138.431
2967.06	134.174
2968.36	131.091
2969.66	127.562
2970.96	124.445
2972.25	120.83
2973.55	117.708
2974.85	115.092
2976.15	111.495
2977.45	107.958
2978.74	104.749
2980.04	101.385
2981.34	96.6087
2982.64	92.66
2983.93	88.8027
2985.23	84.5424
2986.52	80.9818
2987.82	77.7269
2989.12	73.5667
2990.41	69.2539
2991.71	65.6295
2993	61.8848
2994.3	57.4635
2995.59	53.586
2996.89	50.0722
2998.18	46.3705
2999.48	43.3421
3000.77	39.7144
3002.06	36.7431
3003.36	33.8384
3004.65	30.4513
3005.94	28.3828
3007.23	25.5713
3008.53	23.5967
3009.82	20.9601
3011.11	18.8441
3012.4	17.0245
3013.69	15.0983
3014.99	14.1687
3016.28	12.9676
3017.57	12.2029
3018.86	10.8098
3020.15	9.76455
3021.44	8.93751
3022.73	8.06604
3024.02	7.77685
3025.31	7.62688
3026.6	7.15016
3027.89	6.96005
3029.18	5.79546
3030.46	5.8906
3031.75	5.94749
3033.04	6.61215
3034.33	6.7578
3035.62	6.8739
3036.9	7.42207
3038.19	8.02838
3039.48	8.78353
3040.76	9.20974
3042.05	9.57552
3043.34	10.1802
3044.62	10.0372
3045.91	10.3738
3047.19	11.4904
3048.48	11.938
3049.77	12.3665
3051.05	13.1516
3052.34	12.8258
3053.62	13.4839
3054.9	13.9851
3056.19	13.9591
3057.47	13.5249
3058.76	13.3961
3060.04	13.396
3061.32	13.0231
3062.61	13.2411
3063.89	13.2551
3065.17	12.7784
3066.45	12.1597
3067.74	11.4802
3069.02	11.0477
3070.3	10.7184
3071.58	10.4268
3072.86	9.92556
3074.14	9.20567
3075.42	8.78006
3076.7	8.10686
3077.99	7.61906
3079.26	6.74368
3080.54	5.9144
3081.82	5.17785
3083.1	4.71045
3084.38	4.3768
3085.66	3.70003
3086.94	3.18965
3088.22	2.81904
3089.5	2.21121
3090.78	1.2805
3092.05	0.530382
3093.33	-0.414994
3094.61	-0.240984
3095.89	-0.392251
3097.16	-0.815989
3098.44	-1.114
3099.72	-1.3254
3100.99	-0.966143
3102.27	-0.937092
3103.54	-0.509194
3104.82	-0.515425
3106.1	-0.727829
3107.37	-0.161422
3108.65	0.168061
3109.92	0.96222
3111.2	1.90748
3112.47	2.29108
3113.74	2.67673
3115.02	3.10205
3116.29	3.57271
3117.56	4.61057
3118.84	4.72077
3120.11	4.86768
3121.38	5.22571
3122.66	6.14765
3123.93	6.72105
3125.2	7.51772
3126.47	8.70431
3127.74	8.71249
3129.01	9.10175
3130.29	9.67389
3131.56	10.6813
3132.83	11.878
3134.1	12.7725
3135.37	13.7288
3136.64	13.794
3137.91	14.6174
3139.18	15.5595
3140.45	16.4908
3141.72	17.4711
3142.99	18.1574
3144.26	18.8596
3145.52	19.4373
3146.79	19.4457
3148.06	19.9274
3149.33	21.2794
