#Acq. time (s)=	45
#Accumulations=	2
#Range (cm-¹)=	200...3150
#Windows=	2
#Auto scanning=	Off
#Autofocus=	Off
#Macrospot=	Off
#AutoExposure=	Off
#Spike filter=	Multiple accum.
#Delay time (s)=	0
#Binning=	1
#Readout mode=	Signal
#DeNoise=	Off
#ICS correction=	On
#Dark correction=	Off
#Inst. Process=	Off
#Detector Gain=	Best Dynamic Range
#Detector ADC=	20 kHz       
#Detector temperature (°C)=	-69.85
#Instrument=	LabRAM HR Evol
#Detector=	Synapse
#Objective=	x100
#Grating=	600 gr/mm
#ND Filter=	100%
#Laser (nm)=	532 
#Hole=	100.021
#Range=	Auto
#Laser Pol.=	No
#Raman. Pol.=	No
#Laser Pol. (°)=	-0.0007625
#Raman Pol. (°)=	89.9995
#Collection=	Microscope
#StageXY=	Marzhauser
#StageZ=	Marzhauser
#X (µm)=	-5927.4
#Y (µm)=	2836.4
#Z (µm)=	-223.85
#Full time(mm:ss)=	3:18
#Project=	
#Sample=	
#Site=	
#Title=	Thy_20_09_02_2x_45s_532 nm_x100_100%_600 gr_mm
#Remark=	
#Date=	29.06.2022 10:42
#Acquired=	29.06.2022 10:42:41
#Base:Fit=	10.08.2022 09:49:32
#Base:Fit=	10.08.2022 09:49:42
#Base:Fit=	10.08.2022 09:49:53
#Base:Fit=	10.08.2022 09:50:12
#Base:Fit=	10.08.2022 09:50:26
#Base:Fit=	10.08.2022 09:50:30
#Base:Fit=	10.08.2022 09:50:43
#Base:Fit=	10.08.2022 09:52:02
#Base:Fit=	10.08.2022 09:52:12
#Base:Sub=	10.08.2022 09:54:21
#Filter:Polynom=	16.08.2022 10:24:04
#AxisType[0]=Intens
#AxisUnit[0]=Cnt
#AxisType[1]=Spectr
#AxisUnit[1]=1/cm
200.523	9.37964
202.339	10.0679
204.154	8.27156
205.967	7.63887
207.781	6.71482
209.596	5.92431
211.409	5.40006
213.222	4.49693
215.034	3.44114
216.848	2.60545
218.659	2.90831
220.47	3.93998
222.281	4.06654
224.091	4.31971
225.903	4.71826
227.713	4.58305
229.522	4.54531
231.331	4.9752
233.14	5.16477
234.948	5.80296
236.756	5.87573
238.566	6.72509
240.373	7.16861
242.18	7.99319
243.986	8.30093
245.792	8.87635
247.598	8.88163
249.403	9.32335
251.208	10.4432
253.013	10.3553
254.818	10.4085
256.624	11.8557
258.427	12.2165
260.231	12.6597
262.034	13.6233
263.836	14.9123
265.638	14.974
267.44	15.4016
269.242	15.9285
271.043	15.3102
272.844	15.8425
274.645	15.8957
276.445	15.4671
278.245	16.3789
280.044	15.7594
281.843	15.2893
283.642	14.9934
285.44	14.8611
287.238	15.0655
289.036	15.5285
290.833	15.0812
292.63	14.19
294.425	14.6387
296.221	14.2303
298.017	14.651
299.813	14.8579
301.608	15.0362
303.403	14.9209
305.198	15.413
306.992	16.9246
308.786	18.6099
310.579	19.3566
312.371	18.6432
314.163	18.176
315.956	18.7478
317.748	18.2274
319.54	18.1952
321.331	19.0111
323.122	19.6984
324.911	20.0977
326.701	20.2222
328.491	20.4763
330.281	20.7528
332.071	21.4234
333.857	21.4785
335.646	21.4825
337.434	21.5154
339.222	21.6089
341.008	21.4536
342.795	20.8158
344.582	20.7048
346.369	20.3618
348.153	19.1116
349.939	18.3935
351.724	18.655
353.51	17.3537
355.292	15.7214
357.077	14.7716
358.861	13.5536
360.643	13.5907
362.426	13.3733
364.21	12.6604
365.99	12.4071
367.773	12.2552
369.555	10.554
371.335	10.7962
373.116	10.0231
374.897	9.93452
376.676	9.15042
378.456	9.28447
380.236	8.24536
382.014	7.70309
383.793	7.87771
385.57	7.5553
387.349	7.26202
389.127	7.17121
390.903	8.04098
392.681	7.13417
394.456	6.81275
396.233	7.47854
398.007	6.96601
399.784	6.51872
401.56	5.71403
403.333	6.05896
405.108	7.3743
406.881	7.30708
408.656	8.1296
410.428	8.364
412.202	8.37493
413.973	7.93542
415.746	8.63403
417.517	8.75296
419.29	9.02319
421.06	8.73563
422.831	8.31401
424.601	8.4658
426.37	8.28372
428.141	7.89535
429.909	7.79966
431.679	6.89851
433.447	5.95845
435.216	6.16843
436.983	5.82022
438.75	7.15678
440.519	7.31632
442.285	6.29655
444.052	7.61385
445.818	8.15184
447.583	9.3558
449.349	10.7854
451.114	11.7868
452.878	12.2012
454.643	13.1337
456.407	13.3994
458.169	13.3311
459.934	13.6723
461.696	12.8202
463.458	13.1689
465.222	12.7852
466.983	12.7932
468.744	12.3205
470.507	12.2555
472.267	11.8229
474.027	11.807
475.787	11.8651
477.548	12.0988
479.307	11.4526
481.065	10.8373
482.823	11.5847
484.583	12.4153
486.341	12.1403
488.098	12.9677
489.855	13.8421
491.612	14.0602
493.37	14.6028
495.126	13.9328
496.881	14.0226
498.636	13.7799
500.391	14.464
502.148	14.3216
503.902	14.4157
505.656	13.7854
507.409	12.9429
509.162	12.4057
510.915	12.3795
512.668	12.455
514.42	11.723
516.174	11.5855
517.925	11.0907
519.676	11.4612
521.427	11.7004
523.178	11.3843
524.928	10.6901
526.678	11.0079
528.427	9.5511
530.176	9.30005
531.925	9.63346
533.673	9.75469
535.422	9.17904
537.169	8.29336
538.917	8.29599
540.664	7.28918
542.411	6.73565
544.157	5.67731
545.903	4.63377
547.649	3.73446
549.395	3.5275
551.14	3.77784
552.884	3.50106
554.629	3.12386
556.373	2.93655
558.117	2.76442
559.86	1.9739
561.603	2.04168
563.346	2.3527
565.089	2.65047
566.831	3.22086
568.573	3.93015
570.314	4.87521
572.053	4.41574
573.794	5.02932
575.534	5.82378
577.274	6.23707
579.014	6.1466
580.754	6.58983
582.493	6.15129
584.23	6.57755
585.968	5.82053
587.706	5.70682
589.444	4.78224
591.181	4.53358
592.919	4.96134
594.653	4.07483
596.39	4.26581
598.126	4.63977
599.862	4.95206
601.595	5.73595
603.33	5.46585
605.065	5.56912
606.8	6.03659
608.532	5.06838
610.266	5.10966
611.999	5.15041
613.732	5.77822
615.463	6.16854
617.196	7.22602
618.928	7.7511
620.66	8.20046
622.389	7.65276
624.12	8.38362
625.851	8.90403
627.58	9.04003
629.31	9.29887
631.04	10.2445
632.767	10.3684
634.497	11.1674
636.223	12.4299
637.952	13.0666
639.68	13.3902
641.406	14.1784
643.134	15.1559
644.861	14.9253
646.586	15.0525
648.312	15.914
650.037	17.128
651.762	17.5702
653.486	17.2862
655.211	17.0472
656.936	18.168
658.659	18.2564
660.383	19.1859
662.105	19.3672
663.829	19.3028
665.55	19.2498
667.273	18.8417
668.994	18.4054
670.716	18.2117
672.436	17.5299
674.158	17.6395
675.877	17.6025
677.598	18.3428
679.317	19.1617
681.035	18.0402
682.755	18.7078
684.473	19.3352
686.192	20.0483
687.909	19.9909
689.628	19.6155
691.344	20.0909
693.06	21.0526
694.778	21.4673
696.493	22.8384
698.211	23.4664
699.925	24.7471
701.64	25.0843
703.356	25.0453
705.07	25.2252
706.783	25.26
708.498	25.8079
710.211	26.3144
711.924	27.0153
713.638	27.8748
715.35	28.8254
717.061	30.4564
718.774	31.0382
720.485	31.945
722.196	33.0522
723.906	33.6667
725.618	35.2418
727.328	36.2911
729.037	35.8551
730.746	36.7217
732.456	38.2401
734.165	39.6819
735.873	41.3584
737.58	42.1147
739.289	42.7844
740.997	44.3512
742.703	45.3741
744.41	45.6961
746.116	46.6586
747.823	47.0093
749.529	47.576
751.234	48.0504
752.938	48.1808
754.643	47.9912
756.347	48.8529
758.051	49.8689
759.756	51.1758
761.459	51.9975
763.162	52.7046
764.865	52.976
766.567	52.5049
768.269	53.8
769.97	54.6301
771.671	54.5652
773.372	55.5797
775.073	57.0704
776.773	57.8969
778.473	59.5663
780.174	59.4885
781.874	60.1887
783.573	60.9303
785.271	61.5341
786.97	62.4806
788.668	64.2219
790.365	65.221
792.063	65.8931
793.76	67.4682
795.456	68.3978
797.153	69.1462
798.847	69.4762
800.543	70.1139
802.238	69.7973
803.933	69.6013
805.628	70.1463
807.322	70.7693
809.017	71.0478
810.71	71.036
812.404	70.7096
814.097	71.1179
815.79	72.1705
817.483	71.5905
819.173	71.6316
820.865	72.1888
822.556	71.5869
824.248	70.7343
825.939	71.0593
827.629	70.6153
829.318	70.1057
831.008	69.6999
832.697	68.8242
834.387	67.8651
836.076	66.6195
837.765	65.4799
839.451	65.1253
841.139	65.2413
842.827	64.4718
844.514	64.312
846.2	62.7895
847.886	61.528
849.573	60.6392
851.259	59.9584
852.943	59.4588
854.629	58.9094
856.314	58.0849
857.997	58.1823
859.682	56.9178
861.366	55.5266
863.05	55.1944
864.732	54.3378
866.415	54.7131
868.098	53.6202
869.779	52.6387
871.461	52.4337
873.141	51.2818
874.823	50.8224
876.505	50.361
878.184	49.6362
879.865	49.0933
881.545	47.7385
883.223	46.9848
884.903	46.1714
886.581	45.6897
888.26	45.7185
889.937	45.271
891.616	44.1999
893.294	43.7904
894.97	43.0404
896.648	43.6677
898.323	44.0988
900	42.9381
901.675	41.9829
903.351	42.7653
905.026	42.8722
906.701	40.9959
908.375	40.4927
910.05	41.2846
911.723	40.0063
913.398	39.9418
915.07	39.9996
916.742	39.6151
918.415	39.847
920.087	39.9165
921.76	39.7365
923.43	40.0549
925.103	39.7247
926.773	39.4076
928.443	38.4027
930.114	36.7405
931.783	36.8643
933.454	37.1294
935.123	36.3403
936.791	36.0776
938.461	35.8778
940.128	34.9896
941.796	33.6887
943.464	32.353
945.131	31.2456
946.797	31.2305
948.465	30.4317
950.131	30.1257
951.797	29.5202
953.462	29.5561
955.128	29.2084
956.793	28.4669
958.457	28.2017
960.121	26.9749
961.786	26.1571
963.45	25.209
965.113	23.8487
966.775	24.4235
968.44	23.9741
970.102	23.9943
971.763	23.9115
973.425	23.9893
975.086	23.072
976.748	23.1486
978.409	22.9177
980.069	23.2086
981.729	23.5599
983.388	22.8242
985.048	23.2122
986.708	23.4776
988.367	23.2945
990.025	22.5629
991.683	23.9556
993.341	24.2644
994.998	24.2152
996.655	24.7948
998.312	25.4076
999.969	25.9299
1001.62	26.0023
1003.28	24.4893
1004.94	24.3553
1006.59	24.0409
1008.25	23.4343
1009.9	21.8062
1011.56	20.48
1013.21	20.5814
1014.86	20.7896
1016.52	19.81
1018.17	18.3276
1019.82	17.973
1021.48	16.6429
1023.13	15.5022
1024.78	14.2384
1026.43	13.5008
1028.08	13.6649
1029.73	14.4694
1031.38	12.8328
1033.03	12.2937
1034.68	11.2492
1036.33	10.1039
1037.98	8.68383
1039.63	8.20396
1041.28	7.35521
1042.93	8.09647
1044.57	8.58914
1046.22	8.964
1047.87	9.93687
1049.52	10.9394
1051.16	10.4661
1052.81	10.4678
1054.45	10.6935
1056.1	11.0768
1057.75	10.6883
1059.39	11.6342
1061.04	11.2715
1062.68	11.6943
1064.32	11.5966
1065.97	10.9939
1067.61	11.307
1069.25	12.3698
1070.9	12.8389
1072.54	13.0367
1074.18	14.0853
1075.82	14.5172
1077.47	15.5413
1079.11	15.9444
1080.75	17.2551
1082.39	17.2975
1084.03	16.6219
1085.67	16.3939
1087.31	16.8976
1088.95	16.7801
1090.59	16.4929
1092.22	16.6368
1093.86	18.2979
1095.5	18.7143
1097.14	18.2323
1098.78	17.9777
1100.41	17.6941
1102.05	17.7792
1103.69	16.9576
1105.32	16.4422
1106.96	15.6338
1108.59	16.0578
1110.23	15.8323
1111.86	14.8879
1113.5	13.7261
1115.13	14.4363
1116.77	14.4126
1118.4	14.7633
1120.03	15.4235
1121.67	16.3492
1123.3	15.9264
1124.93	16.4906
1126.56	15.6776
1128.19	15.3835
1129.83	14.9842
1131.46	15.3836
1133.09	14.8107
1134.72	14.8538
1136.35	14.5197
1137.98	14.4727
1139.61	13.4387
1141.24	13.5726
1142.86	12.8712
1144.49	12.814
1146.12	13.191
1147.75	14.0894
1149.38	15.1381
1151	15.7253
1152.63	14.9052
1154.26	16.2021
1155.88	17.0685
1157.51	17.8543
1159.14	18.5006
1160.76	18.7196
1162.39	19.2588
1164.01	19.9034
1165.63	20.1521
1167.26	21.1401
1168.88	21.7688
1170.51	22.4452
1172.13	22.6936
1173.75	23.6773
1175.38	23.5101
1177	22.8031
1178.62	21.8344
1180.24	21.5489
1181.86	20.4351
1183.48	19.8813
1185.1	18.7387
1186.72	17.8243
1188.34	18.5659
1189.96	18.5544
1191.58	18.2732
1193.2	19.299
1194.82	19.6691
1196.44	20.7256
1198.06	21.676
1199.68	22.7536
1201.29	22.9485
1202.91	22.4419
1204.53	22.4432
1206.14	22.423
1207.76	23.3911
1209.38	24.7952
1210.99	25.6452
1212.61	26.6082
1214.22	26.8074
1215.84	26.8827
1217.45	26.6525
1219.07	26.8596
1220.68	27.774
1222.29	28.5547
1223.91	28.8838
1225.52	29.4064
1227.13	30.7913
1228.74	32.4228
1230.36	34.1105
1231.97	34.6628
1233.58	35.4046
1235.19	36.6791
1236.8	37.5438
1238.41	37.7896
1240.02	38.6011
1241.63	39.0259
1243.24	39.9809
1244.85	40.044
1246.46	39.2405
1248.07	39.0975
1249.67	39.1531
1251.28	38.7581
1252.89	38.5603
1254.5	38.5424
1256.1	37.3676
1257.71	36.7934
1259.32	35.7679
1260.92	35.6513
1262.53	35.839
1264.13	35.6154
1265.74	35.6218
1267.34	36.5178
1268.95	37.4291
1270.55	36.9568
1272.15	37.8134
1273.76	38.6091
1275.36	39.4917
1276.97	41.3419
1278.57	41.8494
1280.17	42.6594
1281.77	43.6553
1283.37	44.3805
1284.97	45.4767
1286.58	46.023
1288.18	47.4921
1289.78	47.5948
1291.38	47.7786
1292.98	46.6654
1294.58	47.5445
1296.18	48.0397
1297.78	48.8263
1299.37	49.819
1300.97	50.6425
1302.57	51.0684
1304.17	51.854
1305.77	53.7244
1307.36	55.2903
1308.96	56.65
1310.55	57.3187
1312.15	57.5926
1313.75	58.262
1315.34	58.4441
1316.94	59.2268
1318.53	59.8093
1320.13	60.8467
1321.72	61.4123
1323.32	60.7696
1324.91	60.4916
1326.5	61.6298
1328.1	62.495
1329.69	62.6962
1331.28	62.3351
1332.87	62.8813
1334.47	63.808
1336.06	63.846
1337.65	63.885
1339.24	64.1159
1340.83	63.6498
1342.42	64.11
1344.01	63.5966
1345.6	64.0985
1347.19	64.1308
1348.78	63.857
1350.37	64.3478
1351.96	65.6396
1353.54	66.1575
1355.13	66.4495
1356.72	66.0715
1358.31	64.7306
1359.89	64.4215
1361.48	63.757
1363.07	62.6125
1364.65	61.8335
1366.24	61.3631
1367.82	61.0693
1369.41	60.3206
1370.99	60.0425
1372.58	58.5852
1374.16	59.174
1375.75	58.5987
1377.33	56.8746
1378.91	55.6728
1380.5	54.7107
1382.08	54.0351
1383.66	53.5855
1385.25	53.3481
1386.83	52.2803
1388.41	51.8873
1389.99	50.72
1391.57	50.2308
1393.15	49.335
1394.73	47.8383
1396.31	48.0732
1397.89	47.5338
1399.47	46.3121
1401.05	45.2236
1402.63	44.5448
1404.21	44.3274
1405.78	44.7297
1407.36	43.7709
1408.94	42.5615
1410.52	42.4772
1412.1	43.4601
1413.67	42.9679
1415.25	42.2178
1416.82	41.4563
1418.4	41.6046
1419.98	41.2315
1421.55	42.0547
1423.13	42.4421
1424.7	43.6876
1426.28	44.4651
1427.85	45.7184
1429.42	46.3674
1431	47.8133
1432.57	48.6064
1434.14	49.4589
1435.71	49.9731
1437.29	50.7107
1438.86	51.7959
1440.43	53.1795
1442	55.0627
1443.57	55.9784
1445.14	56.788
1446.71	56.7338
1448.28	57.1395
1449.85	57.0874
1451.42	56.9916
1452.99	57.2573
1454.56	56.858
1456.13	55.2873
1457.7	55.3032
1459.26	54.2568
1460.83	53.3616
1462.4	53.2732
1463.97	51.9011
1465.54	51.3017
1467.1	50.4603
1468.67	49.4569
1470.23	48.3191
1471.8	46.4589
1473.36	44.0245
1474.93	43.275
1476.49	41.1337
1478.06	40.6293
1479.62	39.5182
1481.19	38.3856
1482.75	37.3874
1484.31	36.6342
1485.88	34.6313
1487.44	33.3923
1489	32.8144
1490.56	31.7634
1492.13	30.4487
1493.69	30.9374
1495.25	30.5116
1496.81	29.98
1498.37	29.9259
1499.93	30.4491
1501.49	30.9303
1503.05	30.6087
1504.61	30.3541
1506.17	30.6646
1507.73	30.3296
1509.28	30.8823
1510.84	30.3013
1512.4	29.4926
1513.96	29.5866
1515.52	29.9922
1517.07	30.0515
1518.63	30.4446
1520.19	30.8415
1521.74	30.7852
1523.3	31.1475
1524.85	31.9439
1526.41	32.3616
1527.96	32.854
1529.52	33.2459
1531.07	33.2938
1532.63	33.0612
1534.18	34.0638
1535.73	35.5446
1537.29	35.0729
1538.84	36.8344
1540.39	37.8534
1541.94	39.2493
1543.5	40.5332
1545.05	42.1328
1546.6	44.0899
1548.15	44.9829
1549.7	46.4535
1551.25	47.9319
1552.8	51.3121
1554.35	52.9917
1555.9	55.7564
1557.45	56.9046
1559	58.7433
1560.55	60.8807
1562.1	61.805
1563.65	63.0063
1565.19	64.6489
1566.74	66.5229
1568.29	67.8322
1569.83	69.4503
1571.38	70.6095
1572.93	71.2281
1574.47	72.1654
1576.02	73.2694
1577.56	73.4489
1579.11	73.4132
1580.66	73.5948
1582.2	74.3545
1583.74	74.1649
1585.29	73.6859
1586.83	73.5647
1588.38	72.9763
1589.92	72.412
1591.46	71.6471
1593.01	70.4473
1594.55	69.044
1596.09	67.6228
1597.63	66.9312
1599.17	65.4698
1600.71	64.0616
1602.25	62.8956
1603.79	61.214
1605.34	60.9076
1606.88	59.0737
1608.41	57.9841
1609.95	57.4598
1611.49	57.8369
1613.03	56.146
1614.57	55.0704
1616.11	55.7977
1617.65	55.335
1619.18	55.3474
1620.72	54.1774
1622.26	54.3304
1623.79	53.4935
1625.33	52.8676
1626.87	53.0409
1628.4	52.9282
1629.94	53.1645
1631.48	51.7994
1633.01	51.9198
1634.55	51.627
1636.08	51.5706
1637.61	51.9208
1639.15	51.7891
1640.68	51.6535
1642.21	51.5177
1643.75	51.2281
1645.28	50.7902
1646.81	50.5186
1648.34	50.6404
1649.88	50.3605
1651.41	50.1487
1652.94	49.3469
1654.47	48.8561
1656	48.7825
1657.53	48.7332
1659.06	47.8168
1660.59	46.6164
1662.12	45.7927
1663.65	44.9163
1665.18	42.5098
1666.71	41.4689
1668.24	40.7599
1669.76	39.2307
1671.29	37.1854
1672.82	35.5167
1674.35	35.4437
1675.87	34.5646
1677.4	34.0401
1678.93	33.3604
1680.45	32.5813
1681.98	32.4064
1683.5	31.044
1685.03	30.3324
1686.55	29.3766
1688.08	28.0743
1689.6	26.7339
1691.13	26.0077
1692.65	25.7285
1694.17	24.7827
1695.7	23.8171
1697.22	22.7106
1698.74	21.7111
1700.27	21.5304
1701.79	20.8676
1703.31	19.7189
1704.83	18.3171
1706.35	17.6888
1707.87	16.0899
1709.39	15.6731
1710.91	14.9679
1712.43	13.7362
1713.95	12.7527
1715.47	11.2821
1716.99	9.66105
1718.51	8.90818
1720.03	7.89384
1721.55	7.66409
1723.07	7.53201
1724.58	7.77838
1726.1	6.89244
1727.62	6.72873
1729.13	5.61497
1730.65	4.94456
1732.17	4.65723
1733.68	4.33147
1735.2	3.32173
1736.72	2.78308
1738.23	1.91861
1739.74	1.2264
1741.26	0.653574
1742.77	1.19393
1744.29	0.852508
1745.8	0.0189138
1747.32	-0.15987
1748.83	0.991342
1750.34	1.9649
1751.85	1.44121
1753.37	1.64941
1754.88	1.62256
1756.39	1.73006
1757.9	1.86601
1759.41	1.76361
1760.92	1.71716
1762.44	2.02955
1763.95	2.50041
1765.46	2.90031
1766.96	3.18246
1768.47	3.99498
1769.98	3.6636
1771.49	3.70909
1773	3.41772
1774.51	3.62049
1776.02	4.49361
1777.53	4.32242
1779.03	4.35698
1780.54	4.0539
1782.05	4.28406
1783.55	3.93726
1785.06	4.35132
1786.57	4.13237
1788.07	3.98084
1789.58	4.1472
1791.08	4.45722
1792.59	4.63211
1794.09	5.10968
1795.6	5.3944
1797.1	6.04398
1798.61	6.00761
1800.11	5.54961
1801.61	4.62957
1803.12	4.4121
1804.62	3.99739
1806.12	4.5099
1807.62	4.3216
1809.12	4.05955
1810.63	3.80793
1812.13	3.79182
1813.63	3.53609
1815.13	3.92673
1816.63	3.80484
1818.13	3.91931
1819.63	4.06917
1821.13	4.04972
1822.63	4.21206
1824.13	4.00932
1825.63	3.85249
1827.13	3.69863
1828.62	3.75051
1830.12	3.69109
1831.62	3.64132
1833.12	2.79247
1834.61	2.73818
1836.11	2.66506
1837.61	2.51497
1839.1	2.31698
1840.6	2.16221
1842.09	1.97841
1843.59	2.0215
1845.09	1.58958
1846.58	1.65647
1848.08	2.0168
1849.57	2.66603
1851.06	2.65481
1852.56	2.99537
1854.05	3.18769
1855.54	3.55545
1857.04	3.9263
1858.53	4.27252
1860.02	4.17665
1861.51	4.04747
1863.01	4.17001
1864.5	4.32364
1865.99	4.06055
1867.48	3.84831
1868.97	4.3891
1870.46	4.55741
1871.95	4.45906
1873.44	4.63299
1874.93	4.63645
1876.42	4.62015
1877.91	5.03396
1879.4	5.17716
1880.89	5.73337
1882.37	5.13408
1882.46	5.62847
1883.95	6.75782
1885.45	6.25469
1886.94	6.62812
1888.43	6.92011
1889.93	6.80257
1891.42	7.38554
1892.91	7.71641
1894.41	7.88582
1895.9	7.94834
1897.39	7.26873
1898.88	7.51529
1900.37	7.39535
1901.86	7.02974
1903.36	6.89522
1904.85	5.59213
1906.34	5.74332
1907.83	5.93925
1909.32	6.25213
1910.81	6.19584
1912.29	6.46855
1913.78	5.98249
1915.27	5.71287
1916.76	5.79011
1918.25	5.82023
1919.74	6.63878
1921.23	7.07681
1922.71	6.82781
1924.2	6.55175
1925.69	6.41748
1927.17	5.61124
1928.66	5.83429
1930.15	5.33382
1931.63	5.63353
1933.12	5.29985
1934.6	4.72677
1936.09	3.8347
1937.57	3.44805
1939.06	2.9173
1940.54	2.66746
1942.02	2.79686
1943.51	2.59317
1944.99	3.1589
1946.47	3.22845
1947.96	3.00089
1949.44	2.61247
1950.92	2.20883
1952.4	2.19072
1953.88	2.74923
1955.37	2.58604
1956.85	3.11715
1958.33	2.77529
1959.81	2.26991
1961.29	2.68152
1962.77	2.63485
1964.25	2.73259
1965.73	3.46144
1967.21	3.81519
1968.69	3.59359
1970.16	3.1112
1971.64	2.46603
1973.12	3.19806
1974.6	3.0764
1976.08	3.1041
1977.55	2.62228
1979.03	2.1907
1980.51	3.28815
1981.98	3.32565
1983.46	3.44517
1984.94	3.04121
1986.41	2.64347
1987.89	2.5284
1989.36	3.16309
1990.84	3.72759
1992.31	3.794
1993.79	3.52549
1995.26	2.80042
1996.73	2.22256
1998.21	2.33843
1999.68	3.0735
2001.15	3.53742
2002.63	4.02097
2004.1	3.28482
2005.57	3.9182
2007.04	2.73964
2008.51	2.1107
2009.99	2.06922
2011.46	2.83863
2012.93	2.38451
2014.4	2.58409
2015.87	2.95045
2017.34	2.99414
2018.81	2.48143
2020.28	2.04691
2021.75	1.97222
2023.21	2.38446
2024.68	2.25405
2026.15	2.72989
2027.62	2.21908
2029.09	2.19652
2030.56	2.3971
2032.02	2.52462
2033.49	3.02463
2034.96	2.97962
2036.42	3.54818
2037.89	4.07288
2039.36	4.26679
2040.82	3.65164
2042.29	3.39212
2043.75	2.79054
2045.22	3.00194
2046.68	3.81095
2048.14	3.75048
2049.61	4.48344
2051.07	4.56971
2052.54	6.07709
2054	6.34786
2055.46	6.83346
2056.93	6.8791
2058.39	7.64747
2059.85	7.63504
2061.31	8.41277
2062.77	8.2657
2064.23	8.52627
2065.7	8.67599
2067.16	8.86168
2068.62	9.20638
2070.08	9.67112
2071.54	10.761
2073	11.2079
2074.46	10.3771
2075.92	10.4121
2077.38	10.6461
2078.83	11.3287
2080.29	10.9489
2081.75	11.6558
2083.21	11.7266
2084.67	12.3729
2086.12	11.8333
2087.58	11.9942
2089.04	12.2368
2090.49	12.254
2091.95	12.4201
2093.41	12.3323
2094.86	12.4146
2096.32	12.9088
2097.77	12.7731
2099.23	12.5286
2100.68	12.7099
2102.14	13.1457
2103.59	13.0872
2105.05	12.762
2106.5	12.8478
2107.95	12.9894
2109.41	13.505
2110.86	13.7852
2112.31	13.7647
2113.76	13.6653
2115.21	14.4724
2116.67	14.5215
2118.12	14.7694
2119.57	15.3718
2121.02	16.1337
2122.47	16.6063
2123.92	16.7721
2125.37	17.0363
2126.82	16.3232
2128.27	17.2734
2129.72	16.9071
2131.17	16.5018
2132.62	16.9704
2134.07	17.6484
2135.51	17.7934
2136.96	18.1051
2138.41	18.4649
2139.86	18.3126
2141.31	18.3691
2142.75	18.713
2144.2	18.8286
2145.65	19.2209
2147.09	19.9823
2148.54	21.0574
2149.98	21.8007
2151.43	22.8525
2152.87	22.9556
2154.32	24.0262
2155.76	24.262
2157.21	25.076
2158.65	24.2941
2160.1	24.62
2161.54	24.977
2162.98	24.7465
2164.43	25.011
2165.87	24.5566
2167.31	25.1427
2168.75	25.6737
2170.2	25.2512
2171.64	24.289
2173.08	24.2967
2174.52	23.6611
2175.96	23.9404
2177.4	23.8219
2178.84	24.7869
2180.28	25.6065
2181.72	26.1522
2183.16	25.6648
2184.6	25.0748
2186.04	24.9483
2187.48	25.2658
2188.92	25.3583
2190.36	25.8349
2191.79	26.6043
2193.23	26.8914
2194.67	26.5069
2196.11	25.9761
2197.54	25.846
2198.98	25.3739
2200.42	25.4224
2201.85	25.5002
2203.29	25.5125
2204.72	26.0107
2206.16	24.7848
2207.59	24.5996
2209.03	24.1801
2210.46	24.5389
2211.9	23.9835
2213.33	24.3979
2214.77	24.2222
2216.2	23.903
2217.63	24.217
2219.07	23.924
2220.5	23.6984
2221.93	23.4581
2223.36	22.8936
2224.8	22.4721
2226.23	22.0867
2227.66	21.315
2229.09	21.2379
2230.52	20.2429
2231.95	20.3436
2233.39	19.7293
2234.81	19.6669
2236.25	19.1882
2237.67	18.4128
2239.1	18.6181
2240.53	18.4371
2241.96	17.3741
2243.39	17.1109
2244.82	17.757
2246.25	17.7315
2247.68	17.8598
2249.1	17.3789
2250.53	18.3352
2251.96	17.7643
2253.38	17.2504
2254.81	16.5669
2256.24	16.8342
2257.66	17.4186
2259.09	17.6784
2260.51	17.9795
2261.94	17.3329
2263.36	17.0552
2264.79	16.7169
2266.21	16.2725
2267.64	16.6176
2269.06	17.0067
2270.49	16.4414
2271.91	16.5131
2273.33	16.1735
2274.76	14.9448
2276.18	14.7981
2277.6	14.5406
2279.02	14.5465
2280.44	13.7979
2281.87	13.6565
2283.29	13.1548
2284.71	13.112
2286.13	12.403
2287.55	11.7447
2288.97	11.4989
2290.39	9.82274
2291.81	9.24483
2293.23	8.53472
2294.65	8.17112
2296.07	8.94773
2297.49	9.05202
2298.91	9.74211
2300.33	10.2526
2301.74	10.212
2303.16	10.9057
2304.58	11.3925
2306	12.0306
2307.41	12.2912
2308.83	12.4769
2310.25	12.6707
2311.66	12.6594
2313.08	12.8519
2314.5	12.9163
2315.91	12.7079
2317.33	12.1113
2318.74	12.3056
2320.16	12.5135
2321.57	12.9021
2322.98	12.1913
2324.4	12.5085
2325.81	12.4836
2327.23	12.7929
2328.64	13.0509
2330.05	13.0777
2331.46	12.9628
2332.88	12.5785
2334.29	12.7598
2335.7	11.8688
2337.11	11.2983
2338.52	10.8285
2339.94	9.7902
2341.35	9.21067
2342.76	8.65087
2344.17	7.70037
2345.58	7.25899
2346.99	6.85725
2348.4	6.32587
2349.81	5.33853
2351.22	4.76569
2352.62	4.5247
2354.03	3.06839
2355.44	2.05189
2356.85	0.78672
2358.26	-0.142516
2359.67	-0.818161
2361.07	-1.77294
2362.48	-0.706921
2363.89	-0.258051
2365.29	0.67722
2366.7	1.1573
2368.11	0.744099
2369.51	0.732688
2370.92	0.848772
2372.32	0.841552
2373.73	1.55842
2375.13	1.16672
2376.54	1.14489
2377.94	1.11934
2379.35	1.12741
2380.75	1.50317
2382.15	2.16826
2383.56	2.5852
2384.96	2.80077
2386.36	3.06949
2387.76	3.80566
2389.17	4.39352
2390.57	4.59064
2391.97	4.61166
2393.37	4.87015
2394.77	5.08127
2396.17	4.87317
2397.58	5.60746
2398.98	5.99849
2400.38	6.48776
2401.78	6.83292
2403.18	6.94183
2404.58	7.12938
2405.97	7.11564
2407.37	7.64533
2408.77	7.96002
2410.17	7.95394
2411.57	7.80465
2412.97	7.96571
2414.37	8.11336
2415.76	8.19458
2417.16	7.34446
2418.56	7.32346
2419.95	6.89888
2421.35	6.50056
2422.75	5.66396
2424.14	4.88512
2425.54	4.9526
2426.93	4.79813
2428.33	4.75901
2429.72	4.10353
2431.12	3.76667
2432.51	3.74863
2433.91	3.7522
2435.3	3.64854
2436.7	3.50345
2438.09	3.71784
2439.48	3.61929
2440.88	3.415
2442.27	2.81834
2443.66	2.71449
2445.05	2.61847
2446.44	2.74458
2447.84	2.58538
2449.23	2.65476
2450.62	2.32387
2452.01	2.67031
2453.4	2.3497
2454.79	1.8973
2456.18	1.68668
2457.57	1.73611
2458.96	1.25379
2460.35	1.06648
2461.74	1.21677
2463.13	1.27583
2464.52	1.26845
2465.91	2.15833
2467.29	2.52489
2468.68	2.78872
2470.07	3.26002
2471.46	3.58448
2472.85	4.27801
2474.23	4.38599
2475.62	4.6413
2477.01	5.21852
2478.39	5.4926
2479.78	5.1704
2481.16	5.64655
2482.55	6.21789
2483.93	6.00258
2485.32	5.83532
2486.7	5.32945
2488.09	5.69659
2489.47	5.8166
2490.86	5.48664
2492.24	5.81047
2493.62	6.12668
2495.01	5.87222
2496.39	6.00826
2497.77	6.1417
2499.15	6.32011
2500.54	6.48329
2501.92	6.68021
2503.3	7.20794
2504.68	6.82038
2506.06	6.45283
2507.45	6.65062
2508.83	6.66236
2510.21	7.28747
2511.59	7.43237
2512.97	7.83266
2514.35	7.75987
2515.73	7.56005
2517.11	7.60598
2518.48	7.57082
2519.86	7.79385
2521.24	8.14092
2522.62	7.58437
2524	7.65449
2525.38	8.20641
2526.75	8.46453
2528.13	8.27155
2529.51	8.5939
2530.89	8.537
2532.26	8.52878
2533.64	9.15079
2535.02	9.06736
2536.39	9.32665
2537.77	9.83673
2539.14	10.1796
2540.52	10.5885
2541.89	10.7136
2543.27	10.6525
2544.64	10.6023
2546.01	10.5111
2547.39	9.84172
2548.76	10.0269
2550.14	10.0878
2551.51	9.84031
2552.88	9.86406
2554.25	10.0086
2555.63	10.2575
2557	10.457
2558.37	10.8763
2559.74	10.7499
2561.11	11.1648
2562.49	10.9205
2563.86	10.9405
2565.23	11.4526
2566.6	11.8528
2567.97	12.0089
2569.34	11.6882
2570.71	11.4476
2572.08	12.1278
2573.45	12.6273
2574.82	13.3946
2576.18	14.214
2577.55	14.5649
2578.92	14.9088
2580.29	14.2029
2581.66	14.5023
2583.02	15.0352
2584.39	15.138
2585.76	14.6233
2587.13	14.4845
2588.49	14.4836
2589.86	14.1272
2591.22	13.4579
2592.59	13.3108
2593.96	13.1193
2595.32	12.429
2596.69	11.444
2598.05	11.3532
2599.42	11.2708
2600.78	10.7219
2602.14	10.1883
2603.51	9.82496
2604.87	9.96208
2606.23	8.6669
2607.6	8.42742
2608.96	8.66281
2610.32	8.02711
2611.69	7.56712
2613.05	6.97112
2614.41	6.97305
2615.77	7.04567
2617.13	7.07415
2618.49	6.27312
2619.86	6.79544
2621.22	7.17217
2622.58	7.38921
2623.94	6.88412
2625.3	6.45506
2626.66	7.17458
2628.02	7.23289
2629.37	7.1748
2630.73	7.22887
2632.09	7.35704
2633.45	7.30831
2634.81	7.23427
2636.17	7.51511
2637.53	7.10344
2638.88	8.06024
2640.24	9.15109
2641.6	8.89704
2642.96	9.18177
2644.31	9.40557
2645.67	9.58327
2647.02	9.43536
2648.38	9.27778
2649.74	9.91667
2651.09	9.57285
2652.45	8.54888
2653.8	8.45475
2655.16	8.04875
2656.51	7.96338
2657.86	7.76768
2659.22	7.49062
2660.57	8.12479
2661.93	7.83302
2663.28	8.24555
2664.63	7.85939
2665.98	8.12285
2667.34	8.05572
2668.69	7.7486
2670.04	7.9997
2671.39	7.75375
2672.75	7.49974
2674.09	7.60697
2675.45	8.89861
2676.8	9.78517
2678.15	9.39635
2679.5	9.90085
2680.85	9.97879
2682.2	10.1856
2683.55	10.7949
2684.9	10.518
2686.25	10.4077
2687.6	10.5262
2688.94	9.93826
2690.29	9.95628
2691.64	9.88071
2692.99	10.5005
2694.34	10.5811
2695.68	10.0104
2697.03	9.86689
2698.38	9.97477
2699.73	10.1111
2701.07	10.4486
2702.42	10.5501
2703.76	11.3282
2705.11	11.2189
2706.45	11.6528
2707.8	11.2918
2709.15	11.1965
2710.49	11.9273
2711.83	12.311
2713.18	12.4341
2714.52	12.9819
2715.87	13.1342
2717.21	13.1778
2718.55	12.7675
2719.9	12.7805
2721.24	12.9257
2722.58	12.5113
2723.93	12.6935
2725.27	12.6286
2726.61	12.5081
2727.95	12.6957
2729.29	11.9125
2730.63	11.941
2731.98	11.476
2733.32	11.711
2734.66	11.4082
2736	11.1055
2737.34	11.514
2738.68	11.5919
2740.02	11.9164
2741.36	11.7904
2742.7	11.5661
2744.03	11.1341
2745.37	10.5763
2746.71	10.0266
2748.05	9.33048
2749.39	9.24414
2750.72	8.68952
2752.06	7.60994
2753.4	7.77783
2754.74	7.09392
2756.07	7.00263
2757.41	7.14571
2758.75	7.40913
2760.08	7.53568
2761.42	7.16649
2762.76	6.95632
2764.09	7.75683
2765.42	7.95109
2766.76	8.17962
2768.09	7.69707
2769.43	7.62578
2770.76	7.44174
2772.1	6.89901
2773.43	6.65647
2774.76	6.89637
2776.1	7.38789
2777.43	7.03032
2778.76	6.3788
2780.1	6.69819
2781.43	6.14699
2782.76	5.11033
2784.09	4.82918
2785.42	4.05866
2786.75	3.92518
2788.09	3.26088
2789.42	3.48567
2790.75	3.4797
2792.08	3.14647
2793.41	2.84166
2794.74	3.00062
2796.07	2.70438
2797.4	2.93298
2798.73	3.07007
2800.06	2.70051
2801.39	2.33522
2802.71	2.58001
2804.04	2.95564
2805.37	2.23617
2806.7	2.54835
2808.03	2.75857
2809.35	3.09294
2810.68	3.19003
2812.01	2.94345
2813.33	3.30662
2814.66	3.24055
2815.99	3.61427
2817.31	4.58114
2818.64	5.26743
2819.96	6.50611
2821.29	6.85609
2822.61	8.60234
2823.94	9.6719
2825.26	11.3905
2826.59	12.1929
2827.91	13.2303
2829.23	14.3221
2830.56	15.8133
2831.88	16.7966
2833.21	17.5908
2834.53	18.7408
2835.85	19.9827
2837.17	20.6071
2838.5	22.3992
2839.82	23.8018
2841.14	25.4876
2842.46	26.9111
2843.78	27.7854
2845.1	30.202
2846.42	33.2435
2847.74	34.5304
2849.06	36.6628
2850.38	40.0038
2851.71	42.3641
2853.03	45.5036
2854.34	47.9798
2855.66	50.9043
2856.98	52.7914
2858.3	55.2654
2859.62	57.5766
2860.94	60.2293
2862.26	62.5077
2863.57	64.3018
2864.89	66.6523
2866.21	68.269
2867.53	70.0597
2868.84	71.7775
2870.16	72.7319
2871.48	73.5814
2872.79	74.9958
2874.11	75.8835
2875.42	76.6049
2876.74	77.3661
2878.05	78.1626
2879.37	79.5582
2880.68	80.273
2882	81.6357
2883.31	82.9719
2884.63	83.6528
2885.94	85.0594
2887.26	85.6044
2888.57	86.719
2889.88	87.4976
2891.19	88.72
2892.51	89.4658
2893.82	90.1464
2895.13	91.3532
2896.44	92.2468
2897.76	93.7954
2899.07	94.7293
2900.38	95.8775
2901.69	97.9326
2903	99.6332
2904.31	101.785
2905.62	103.777
2906.93	106.374
2908.24	109.076
2909.55	112.071
2910.86	115.289
2912.17	117.881
2913.48	120.4
2914.79	123.228
2916.1	125.605
2917.41	126.938
2918.71	128.929
2920.02	130.073
2921.33	131.217
2922.64	132.372
2923.94	134.201
2925.25	134.244
2926.56	134.663
2927.86	134.84
2929.17	133.967
2930.48	133.278
2931.78	132.295
2933.09	131.397
2934.39	130.472
2935.7	128.685
2937	127.241
2938.31	126.305
2939.61	124.434
2940.92	122.145
2942.22	119.998
2943.53	117.818
2944.83	115.614
2946.13	113.322
2947.43	110.638
2948.74	108.088
2950.04	105.807
2951.34	103.269
2952.64	100.701
2953.95	98.3712
2955.25	96.1985
2956.55	94.031
2957.85	91.356
2959.15	88.4886
2960.45	86.3361
2961.75	84.0489
2963.05	82.3686
2964.35	80.0704
2965.65	78.2674
2966.95	76.4744
2968.25	73.6012
2969.55	72.0415
2970.85	70.3655
2972.15	68.9026
2973.45	66.761
2974.75	64.6942
2976.05	62.5712
2977.34	60.6555
2978.64	58.6123
2979.94	56.9092
2981.24	54.3967
2982.53	51.8877
2983.83	49.7534
2985.13	47.1576
2986.42	44.8056
2987.72	42.0747
2989.01	39.936
2990.31	36.7614
2991.61	35.1935
2992.9	33.2071
2994.19	31.3455
2995.49	29.5023
2996.78	27.9893
2998.08	25.8364
2999.37	24.4246
3000.67	22.2019
3001.96	20.3964
3003.25	19.1723
3004.55	17.0918
3005.84	15.2508
3007.13	13.8179
3008.42	12.6189
3009.72	11.2697
3011.01	10.3448
3012.3	9.03071
3013.59	7.88987
3014.88	7.63485
3016.17	6.35487
3017.46	5.37959
3018.76	4.66701
3020.05	4.50967
3021.34	3.72853
3022.63	3.03455
3023.92	2.44409
3025.21	3.03867
3026.49	3.55094
3027.78	3.32396
3029.07	2.87812
3030.36	3.34072
3031.65	3.25655
3032.94	3.72768
3034.23	4.20766
3035.51	4.32335
3036.8	5.04781
3038.09	5.14154
3039.38	5.45957
3040.66	5.8662
3041.95	6.5382
3043.23	6.80425
3044.52	7.2897
3045.81	7.1818
3047.09	7.07168
3048.38	7.94741
3049.66	8.39363
3050.95	8.85051
3052.23	9.17042
3053.52	9.82286
3054.8	10.3115
3056.09	10.9498
3057.37	10.6242
3058.65	10.5586
3059.94	10.081
3061.22	9.94556
3062.5	9.6212
3063.79	9.6997
3065.07	9.1554
3066.35	8.57838
3067.63	8.47347
3068.92	7.23941
3070.2	6.95734
3071.48	7.17189
3072.76	7.27037
3074.04	6.67479
3075.32	6.1293
3076.6	5.55896
3077.88	5.07088
3079.16	4.46028
3080.44	3.31508
3081.72	2.84973
3083	3.07878
3084.28	2.30864
3085.56	1.65459
3086.84	1.66883
3088.12	1.45087
3089.4	2.27563
3090.67	1.88419
3091.95	1.89355
3093.23	1.8851
3094.51	2.31959
3095.78	1.80489
3097.06	1.99502
3098.34	2.5409
3099.61	2.63586
3100.89	2.99259
3102.17	2.96469
3103.44	3.12411
3104.72	3.98548
3105.99	5.01947
3107.27	5.38172
3108.54	6.15207
3109.82	6.46296
3111.09	7.14612
3112.37	7.73466
3113.64	7.95817
3114.92	8.47518
3116.19	8.78434
3117.46	9.14754
3118.74	9.97704
3120.01	10.156
3121.28	10.2881
3122.55	10.9089
3123.83	11.5789
3125.1	12.0848
3126.37	12.7187
3127.64	13.5385
3128.91	13.8622
3130.19	14.2256
3131.46	14.9386
3132.73	15.5967
3134	16.8989
3135.27	17.2751
3136.54	17.2674
3137.81	16.7314
3139.08	16.7908
3140.35	16.8377
3141.62	16.8163
3142.89	16.8649
3144.16	17.2319
3145.42	17.6538
3146.69	17.9423
3147.96	18.9606
3149.23	18.4736
