#Acq. time (s)=	45
#Accumulations=	2
#Range (cm-¹)=	200...3150
#Windows=	2
#Auto scanning=	Off
#Autofocus=	Off
#Macrospot=	Off
#AutoExposure=	Off
#Spike filter=	Multiple accum.
#Delay time (s)=	0
#Binning=	1
#Readout mode=	Signal
#DeNoise=	Off
#ICS correction=	On
#Dark correction=	Off
#Inst. Process=	Off
#Detector Gain=	Best Dynamic Range
#Detector ADC=	20 kHz       
#Detector temperature (°C)=	-69.85
#Instrument=	LabRAM HR Evol
#Detector=	Synapse
#Objective=	x100
#Grating=	600 gr/mm
#ND Filter=	100%
#Laser (nm)=	532 
#Hole=	100.021
#Range=	Auto
#Laser Pol.=	No
#Raman. Pol.=	No
#Laser Pol. (°)=	-0.0007625
#Raman Pol. (°)=	89.9995
#Collection=	Microscope
#StageXY=	Marzhauser
#StageZ=	Marzhauser
#X (µm)=	-5912.3
#Y (µm)=	2863.7
#Z (µm)=	-223.6
#Full time(mm:ss)=	3:19
#Project=	
#Sample=	
#Site=	
#Title=	Thy_20_09_38_2x_45s_532 nm_x100_100%_600 gr_mm
#Remark=	
#Date=	29.06.2022 13:20
#Acquired=	29.06.2022 13:20:02
#Base:Fit=	10.08.2022 09:52:02
#Base:Fit=	10.08.2022 09:52:12
#Base:Sub=	10.08.2022 09:54:21
#Filter:Polynom=	16.08.2022 10:24:04
#AxisType[0]=Intens
#AxisUnit[0]=Cnt
#AxisType[1]=Spectr
#AxisUnit[1]=1/cm
200.523	5.03945
202.339	4.647
204.154	3.58414
205.967	4.04602
207.781	4.51486
209.596	4.9801
211.409	5.53998
213.222	6.36429
215.034	7.03231
216.848	7.94136
218.659	8.04093
220.47	8.12854
222.281	8.14527
224.091	7.85681
225.903	7.64057
227.713	7.68023
229.522	7.34629
231.331	8.02744
233.14	8.91295
234.948	9.76684
236.756	10.0048
238.566	9.88856
240.373	10.4382
242.18	10.4721
243.986	10.3187
245.792	9.58399
247.598	8.95872
249.403	9.07719
251.208	8.84487
253.013	9.16064
254.818	9.712
256.624	10.0835
258.427	10.434
260.231	11.0205
262.034	11.0425
263.836	9.66063
265.638	10.1175
267.44	9.69618
269.242	10.6321
271.043	9.41799
272.844	8.41946
274.645	8.3836
276.445	8.03239
278.245	8.53839
280.044	9.23572
281.843	8.64248
283.642	8.53527
285.44	9.37346
287.238	9.86366
289.036	9.64454
290.833	10.6318
292.63	11.2984
294.425	11.5162
296.221	12.0339
298.017	13.1503
299.813	13.8851
301.608	14.3438
303.403	14.6606
305.198	15.1877
306.992	15.4965
308.786	15.6996
310.579	16.4976
312.371	17.2522
314.163	18.0163
315.956	17.5473
317.748	18.2333
319.54	18.7663
321.331	19.3955
323.122	20.0773
324.911	19.8653
326.701	19.7459
328.491	19.1672
330.281	19.4201
332.071	19.3812
333.857	18.8622
335.646	18.4503
337.434	19.3123
339.222	19.3463
341.008	19.1101
342.795	19.374
344.582	19.0277
346.369	18.2124
348.153	17.1127
349.939	17.2948
351.724	16.0544
353.51	15.5102
355.292	15.3687
357.077	14.3851
358.861	14.5668
360.643	13.6313
362.426	13.7422
364.21	13.0509
365.99	12.6827
367.773	12.1926
369.555	12.464
371.335	11.7967
373.116	11.4571
374.897	11.4848
376.676	11.1158
378.456	10.958
380.236	11.0015
382.014	10.7538
383.793	10.4905
385.57	11.0043
387.349	11.0088
389.127	11.5524
390.903	11.3571
392.681	10.7254
394.456	10.54
396.233	9.65991
398.007	9.10425
399.784	8.42175
401.56	7.79207
403.333	6.59859
405.108	5.74571
406.881	6.01052
408.656	5.52857
410.428	5.42842
412.202	5.46809
413.973	5.63169
415.746	5.57962
417.517	5.46986
419.29	4.95149
421.06	5.82266
422.831	5.59355
424.601	5.45263
426.37	5.66738
428.141	5.59531
429.909	6.38977
431.679	6.84779
433.447	6.33867
435.216	6.24013
436.983	6.74865
438.75	7.23725
440.519	6.23515
442.285	6.94213
444.052	7.36773
445.818	7.80124
447.583	8.42957
449.349	8.88583
451.114	9.95263
452.878	10.705
454.643	11.0405
456.407	11.2841
458.169	12.0408
459.934	12.134
461.696	12.4032
463.458	13.2923
465.222	13.8194
466.983	13.8691
468.744	14.0393
470.507	14.7595
472.267	15.2208
474.027	15.7663
475.787	16.4169
477.548	17.2706
479.307	16.0561
481.065	14.7349
482.823	15.0906
484.583	15.5395
486.341	16.1432
488.098	16.8217
489.855	17.0627
491.612	16.6294
493.37	16.4577
495.126	16.9733
496.881	17.1479
498.636	18.8729
500.391	19.3509
502.148	19.7926
503.902	20.1597
505.656	19.579
507.409	18.6277
509.162	19.6429
510.915	18.3076
512.668	17.2804
514.42	17.8307
516.174	16.8916
517.925	16.8242
519.676	16.1036
521.427	15.5537
523.178	14.7965
524.928	14.9125
526.678	14.2893
528.427	13.4681
530.176	14.5331
531.925	14.1073
533.673	13.4239
535.422	13.542
537.169	13.5031
538.917	13.1529
540.664	12.8692
542.411	12.2758
544.157	12.3388
545.903	12.1899
547.649	12.0243
549.395	11.726
551.14	11.7794
552.884	11.9622
554.629	11.3556
556.373	11.6853
558.117	11.0671
559.86	11.0553
561.603	10.5875
563.346	10.3018
565.089	9.95737
566.831	8.96246
568.573	8.60059
570.314	8.72811
572.053	9.13645
573.794	8.8464
575.534	8.29868
577.274	8.25426
579.014	7.61967
580.754	7.74935
582.493	8.79849
584.23	8.20178
585.968	8.76191
587.706	7.1117
589.444	6.14144
591.181	5.36229
592.919	4.02542
594.653	3.06325
596.39	2.9945
598.126	2.80388
599.862	3.03762
601.595	2.9972
603.33	1.3865
605.065	2.07028
606.8	2.59562
608.532	3.20612
610.266	3.75258
611.999	4.46532
613.732	5.05718
615.463	5.52507
617.196	6.37824
618.928	6.23479
620.66	6.30111
622.389	6.58427
624.12	7.13385
625.851	7.75643
627.58	8.85395
629.31	9.1679
631.04	10.0599
632.767	9.99905
634.497	10.3329
636.223	10.8526
637.952	11.4725
639.68	12.5706
641.406	12.6645
643.134	13.8945
644.861	13.6307
646.586	14.3112
648.312	14.8107
650.037	14.9755
651.762	15.455
653.486	15.4536
655.211	14.9665
656.936	15.9762
658.659	16.8113
660.383	16.3679
662.105	16.114
663.829	16.649
665.55	16.1096
667.273	16.3769
668.994	16.8112
670.716	16.0194
672.436	15.5839
674.158	15.4959
675.877	16.0488
677.598	17.009
679.317	17.6495
681.035	18.0917
682.755	19.2747
684.473	19.9898
686.192	20.3803
687.909	20.6383
689.628	21.7554
691.344	23.0351
693.06	25.1029
694.778	25.1979
696.493	26.8989
698.211	28.0886
699.925	28.7583
701.64	28.8796
703.356	29.4685
705.07	29.6212
706.783	30.2503
708.498	31.1654
710.211	33.1875
711.924	34.0704
713.638	35.741
715.35	35.5756
717.061	36.4559
718.774	36.6505
720.485	38.3427
722.196	38.4585
723.906	39.157
725.618	40.1557
727.328	40.6396
729.037	41.9698
730.746	41.8447
732.456	42.5355
734.165	43.3272
735.873	43.4096
737.58	44.1939
739.289	44.3602
740.997	45.0532
742.703	46.5251
744.41	46.5375
746.116	47.0064
747.823	48.5037
749.529	49.7861
751.234	50.0026
752.938	50.5931
754.643	51.8686
756.347	51.5781
758.051	53.0123
759.756	54.7097
761.459	55.9441
763.162	56.7742
764.865	57.4261
766.567	58.609
768.269	58.8054
769.97	59.4227
771.671	59.5896
773.372	60.0426
775.073	61.3296
776.773	61.9535
778.473	63.0156
780.174	62.1815
781.874	63.1854
783.573	62.9533
785.271	62.5247
786.97	62.6872
788.668	62.7276
790.365	63.1902
792.063	64.0763
793.76	64.7375
795.456	65.8
797.153	65.6176
798.847	66.4142
800.543	65.417
802.238	65.764
803.933	65.2671
805.628	66.5464
807.322	66.5466
809.017	68.1871
810.71	69.0442
812.404	70.4432
814.097	70.3962
815.79	70.4644
817.483	71.6322
819.173	72.471
820.865	72.6722
822.556	72.7758
824.248	72.8926
825.939	72.1615
827.629	72.0501
829.318	71.7955
831.008	71.9906
832.697	71.6297
834.387	70.3011
836.076	69.8103
837.765	69.2471
839.451	68.1691
841.139	66.4708
842.827	65.6436
844.514	64.5051
846.2	63.1071
847.886	61.1774
849.573	59.1956
851.259	57.2054
852.943	55.8372
854.629	54.3814
856.314	52.8872
857.997	51.5257
859.682	49.9496
861.366	47.9468
863.05	46.108
864.732	45.0246
866.415	44.4052
868.098	43.3211
869.779	42.9477
871.461	41.8788
873.141	40.6712
874.823	41.0428
876.505	40.4938
878.184	40.0908
879.865	40.2552
881.545	39.5004
883.223	38.0714
884.903	37.2745
886.581	37.5015
888.26	38.2205
889.937	39.5772
891.616	39.9145
893.294	39.1832
894.97	39.3566
896.648	40.0082
898.323	38.4563
900	38.7636
901.675	38.7545
903.351	37.351
905.026	36.4588
906.701	35.5955
908.375	34.9429
910.05	34.1808
911.723	34.3539
913.398	34.688
915.07	34.8486
916.742	34.5344
918.415	33.8458
920.087	33.7687
921.76	33.108
923.43	32.6646
925.103	32.823
926.773	32.8381
928.443	32.8828
930.114	31.7953
931.783	30.8173
933.454	31.0068
935.123	30.5496
936.791	30.6193
938.461	29.5393
940.128	28.7388
941.796	27.3047
943.464	27.4036
945.131	27.5604
946.797	27.4928
948.465	27.7731
950.131	27.1037
951.797	27.2601
953.462	27.3799
955.128	26.4159
956.793	25.9171
958.457	25.3438
960.121	24.0287
961.786	23.1859
963.45	23.1111
965.113	22.5304
966.775	22.4788
968.44	23.7707
970.102	23.8764
971.763	23.9409
973.425	23.3848
975.086	22.973
976.748	22.0982
978.409	23.0423
980.069	22.5572
981.729	21.9381
983.388	22.3636
985.048	22.3878
986.708	22.2178
988.367	21.7712
990.025	21.6299
991.683	21.3334
993.341	20.6771
994.998	20.5602
996.655	20.2795
998.312	20.1804
999.969	19.8074
1001.62	19.5579
1003.28	18.7478
1004.94	18.1718
1006.59	17.6173
1008.25	17.4406
1009.9	16.4933
1011.56	16.0077
1013.21	14.9514
1014.86	15.2129
1016.52	15.3695
1018.17	13.6484
1019.82	13.0477
1021.48	12.6459
1023.13	11.6257
1024.78	10.8375
1026.43	10.6049
1028.08	10.1444
1029.73	9.70787
1031.38	8.41384
1033.03	7.76799
1034.68	7.71963
1036.33	6.04117
1037.98	5.04044
1039.63	3.79705
1041.28	3.01608
1042.93	3.399
1044.57	4.3291
1046.22	5.35631
1047.87	5.38201
1049.52	5.85749
1051.16	6.36046
1052.81	6.29222
1054.45	6.86441
1056.1	6.22674
1057.75	6.81365
1059.39	6.4575
1061.04	7.28535
1062.68	7.24992
1064.32	7.51492
1065.97	8.01864
1067.61	8.18629
1069.25	7.49616
1070.9	6.99788
1072.54	7.76933
1074.18	7.73017
1075.82	7.54433
1077.47	7.75105
1079.11	8.68541
1080.75	9.42812
1082.39	9.48481
1084.03	9.39473
1085.67	9.33128
1087.31	9.90424
1088.95	9.90872
1090.59	10.692
1092.22	10.8474
1093.86	11.8345
1095.5	11.004
1097.14	11.153
1098.78	10.1211
1100.41	9.75283
1102.05	9.54325
1103.69	9.41338
1105.32	8.36722
1106.96	7.75481
1108.59	7.95147
1110.23	8.23088
1111.86	8.05296
1113.5	7.30455
1115.13	6.57848
1116.77	5.68299
1118.4	5.05222
1120.03	5.3257
1121.67	5.40364
1123.3	5.10219
1124.93	5.17788
1126.56	5.17861
1128.19	4.07207
1129.83	3.39475
1131.46	3.06449
1133.09	3.1204
1134.72	2.54066
1136.35	2.42864
1137.98	1.49317
1139.61	1.34451
1141.24	2.05503
1142.86	3.40927
1144.49	3.5553
1146.12	4.02591
1147.75	3.51512
1149.38	3.10639
1151	3.40955
1152.63	4.57007
1154.26	4.43983
1155.88	4.47562
1157.51	4.93199
1159.14	5.63138
1160.76	6.45147
1162.39	6.05419
1164.01	5.61705
1165.63	5.03442
1167.26	4.75298
1168.88	4.72313
1170.51	4.27426
1172.13	4.63932
1173.75	4.67441
1175.38	4.8951
1177	4.04902
1178.62	4.32547
1180.24	4.14208
1181.86	5.30301
1183.48	5.37956
1185.1	6.23913
1186.72	6.65274
1188.34	6.03846
1189.96	6.6864
1191.58	7.37324
1193.2	7.8289
1194.82	8.21742
1196.44	9.07587
1198.06	10.8814
1199.68	11.3468
1201.29	12.3214
1202.91	13.0086
1204.53	13.0053
1206.14	13.7196
1207.76	14.7373
1209.38	15.3875
1210.99	16.4174
1212.61	17.8315
1214.22	19.9835
1215.84	21.4405
1217.45	22.549
1219.07	23.1044
1220.68	25.0152
1222.29	27.2809
1223.91	28.3939
1225.52	29.1562
1227.13	30.4585
1228.74	32.1429
1230.36	34.1517
1231.97	36.4125
1233.58	38.4216
1235.19	39.4365
1236.8	40.9546
1238.41	42.0803
1240.02	42.5443
1241.63	42.9019
1243.24	43.9067
1244.85	44.0484
1246.46	45.3851
1248.07	46.5055
1249.67	47.2128
1251.28	48.0868
1252.89	48.8232
1254.5	49.9784
1256.1	50.1766
1257.71	50.6037
1259.32	51.3693
1260.92	52.5159
1262.53	54.3434
1264.13	54.6229
1265.74	54.7705
1267.34	54.6839
1268.95	55.7528
1270.55	56.8687
1272.15	58.0842
1273.76	57.8799
1275.36	58.3049
1276.97	58.6463
1278.57	58.8433
1280.17	57.3964
1281.77	58.3786
1283.37	58.1118
1284.97	58.083
1286.58	58.078
1288.18	59.1095
1289.78	59.5803
1291.38	59.8736
1292.98	60.3752
1294.58	61.2365
1296.18	61.4836
1297.78	61.1396
1299.37	61.6587
1300.97	62.7555
1302.57	62.801
1304.17	63.3807
1305.77	63.8039
1307.36	65.6275
1308.96	66.2217
1310.55	66.9561
1312.15	67.3214
1313.75	67.261
1315.34	67.0419
1316.94	67.0894
1318.53	67.6117
1320.13	67.8188
1321.72	68.1174
1323.32	68.4736
1324.91	68.723
1326.5	68.4918
1328.1	67.9064
1329.69	67.4787
1331.28	68.8263
1332.87	67.9773
1334.47	68.6812
1336.06	67.8804
1337.65	67.2065
1339.24	67.2177
1340.83	66.8258
1342.42	67.0379
1344.01	65.782
1345.6	65.0611
1347.19	64.5643
1348.78	64.3908
1350.37	63.3948
1351.96	63.1404
1353.54	62.7373
1355.13	62.802
1356.72	62.1673
1358.31	60.9783
1359.89	59.8694
1361.48	60.4041
1363.07	60.0349
1364.65	59.6768
1366.24	59.3588
1367.82	58.7488
1369.41	57.7612
1370.99	56.051
1372.58	55.5903
1374.16	54.6189
1375.75	53.5178
1377.33	52.7598
1378.91	52.1807
1380.5	51.6461
1382.08	50.994
1383.66	50.8107
1385.25	50.1268
1386.83	49.3634
1388.41	47.8034
1389.99	47.1565
1391.57	45.0754
1393.15	44.765
1394.73	44.3664
1396.31	43.753
1397.89	43.197
1399.47	42.7683
1401.05	42.0334
1402.63	41.2611
1404.21	40.9888
1405.78	40.3429
1407.36	40.2554
1408.94	41.3793
1410.52	42.404
1412.1	42.2547
1413.67	43.3982
1415.25	43.8395
1416.82	44.881
1418.4	47.3959
1419.98	48.3242
1421.55	51.4238
1423.13	52.6144
1424.7	55.2283
1426.28	57.2125
1427.85	59.193
1429.42	61.0675
1431	63.3345
1432.57	65.2875
1434.14	66.6143
1435.71	67.3786
1437.29	69.2132
1438.86	71.2313
1440.43	73.0138
1442	73.9971
1443.57	75.0576
1445.14	75.8344
1446.71	76.1927
1448.28	76.6382
1449.85	77.0826
1451.42	78.1145
1452.99	77.7209
1454.56	78.3654
1456.13	78.5222
1457.7	77.1732
1459.26	76.3484
1460.83	74.2686
1462.4	72.4235
1463.97	69.8926
1465.54	68.2064
1467.1	65.7019
1468.67	63.8408
1470.23	61.3099
1471.8	59.4027
1473.36	56.8789
1474.93	53.5855
1476.49	50.4986
1478.06	47.5828
1479.62	44.2104
1481.19	41.4114
1482.75	38.36
1484.31	35.7651
1485.88	34.0009
1487.44	33.0958
1489	30.9593
1490.56	28.7153
1492.13	27.0551
1493.69	26.132
1495.25	24.5707
1496.81	23.8267
1498.37	22.7019
1499.93	22.5936
1501.49	21.5895
1503.05	21.374
1504.61	20.9723
1506.17	20.5665
1507.73	20.5326
1509.28	21.0834
1510.84	20.5209
1512.4	21.2032
1513.96	22.1957
1515.52	23.6377
1517.07	24.3893
1518.63	25.9101
1520.19	26.802
1521.74	28.4443
1523.3	29.5967
1524.85	31.177
1526.41	32.0619
1527.96	33.7568
1529.52	34.3696
1531.07	35.1016
1532.63	36.0339
1534.18	36.533
1535.73	37.8169
1537.29	39.3751
1538.84	40.7109
1540.39	42.687
1541.94	44.1056
1543.5	45.8694
1545.05	46.9624
1546.6	48.7565
1548.15	50.0373
1549.7	51.0496
1551.25	52.9484
1552.8	54.4782
1554.35	56.2897
1555.9	57.9782
1557.45	59.152
1559	60.8802
1560.55	62.3589
1562.1	64.2856
1563.65	65.9733
1565.19	67.6512
1566.74	68.8427
1568.29	70.3781
1569.83	72.9462
1571.38	73.8968
1572.93	74.9377
1574.47	76.1041
1576.02	78.3384
1577.56	79.56
1579.11	81.647
1580.66	82.6421
1582.2	83.8319
1583.74	84.0825
1585.29	85.086
1586.83	86.2701
1588.38	86.2878
1589.92	86.7297
1591.46	87.0973
1593.01	87.1126
1594.55	86.7314
1596.09	85.9363
1597.63	84.2512
1599.17	82.807
1600.71	80.7687
1602.25	79.1371
1603.79	77.4985
1605.34	75.6968
1606.88	74.2365
1608.41	73.5034
1609.95	72.2867
1611.49	71.7803
1613.03	71.0576
1614.57	69.0685
1616.11	67.8058
1617.65	66.8684
1619.18	65.7925
1620.72	65.1663
1622.26	65.0703
1623.79	64.7815
1625.33	65.2459
1626.87	65.111
1628.4	65.898
1629.94	65.8543
1631.48	65.4083
1633.01	64.9932
1634.55	64.6559
1636.08	65.8135
1637.61	65.928
1639.15	65.6607
1640.68	66.4284
1642.21	67.7462
1643.75	68.4755
1645.28	69.6238
1646.81	71.2731
1648.34	71.8124
1649.88	72.8049
1651.41	73.8248
1652.94	74.3514
1654.47	75.1409
1656	76.0229
1657.53	76.1301
1659.06	75.4642
1660.59	74.5523
1662.12	73.9076
1663.65	73.6268
1665.18	72.3468
1666.71	71.2329
1668.24	69.4397
1669.76	67.4312
1671.29	64.4865
1672.82	61.8819
1674.35	59.2413
1675.87	56.6112
1677.4	54.2588
1678.93	52.1706
1680.45	49.6786
1681.98	47.3783
1683.5	45.4543
1685.03	43.0549
1686.55	40.0793
1688.08	37.4165
1689.6	34.2474
1691.13	32.1809
1692.65	30.7434
1694.17	28.5877
1695.7	26.3385
1697.22	24.7921
1698.74	23.7737
1700.27	22
1701.79	20.2929
1703.31	17.8358
1704.83	16.0192
1706.35	13.8968
1707.87	12.2689
1709.39	11.1571
1710.91	10.5701
1712.43	10.5397
1713.95	8.71216
1715.47	7.68313
1716.99	8.4679
1718.51	8.72902
1720.03	8.5995
1721.55	8.12105
1723.07	7.9281
1724.58	6.93109
1726.1	7.07699
1727.62	7.64796
1729.13	7.46058
1730.65	8.58851
1732.17	7.81505
1733.68	7.80568
1735.2	6.83914
1736.72	7.35731
1738.23	7.58896
1739.74	8.0015
1741.26	7.46396
1742.77	7.0897
1744.29	7.13682
1745.8	7.33328
1747.32	6.79469
1748.83	6.80256
1750.34	6.54734
1751.85	6.53571
1753.37	6.50837
1754.88	5.90619
1756.39	6.28876
1757.9	6.28557
1759.41	5.53043
1760.92	5.50438
1762.44	4.73395
1763.95	4.61452
1765.46	5.11787
1766.96	5.22653
1768.47	4.56062
1769.98	3.64284
1771.49	3.5365
1773	3.09533
1774.51	2.50833
1776.02	1.48838
1777.53	0.842342
1779.03	0.329718
1780.54	0.219379
1782.05	0.357859
1783.55	0.484322
1785.06	0.584781
1786.57	1.18919
1788.07	1.48931
1789.58	0.981233
1791.08	1.4287
1792.59	2.45591
1794.09	2.26825
1795.6	1.9535
1797.1	1.86239
1798.61	2.55803
1800.11	3.34775
1801.61	3.77956
1803.12	4.01849
1804.62	4.59886
1806.12	4.78477
1807.62	4.79867
1809.12	5.30401
1810.63	5.40786
1812.13	6.35594
1813.63	6.71505
1815.13	7.23064
1816.63	7.79251
1818.13	7.93727
1819.63	8.52424
1821.13	8.02465
1822.63	7.912
1824.13	7.94072
1825.63	7.99535
1827.13	8.2881
1828.62	8.47134
1830.12	8.3919
1831.62	8.65748
1833.12	8.46063
1834.61	8.19974
1836.11	8.67478
1837.61	8.57991
1839.1	8.8945
1840.6	8.42971
1842.09	7.46995
1843.59	6.88961
1845.09	6.14588
1846.58	5.58668
1848.08	5.36359
1849.57	5.46217
1851.06	5.43732
1852.56	5.13408
1854.05	5.2888
1855.54	5.12373
1857.04	4.72798
1858.53	4.94446
1860.02	5.35257
1861.51	4.80643
1863.01	4.2414
1864.5	4.19395
1865.99	4.14066
1867.48	4.46413
1868.97	3.51405
1870.46	3.23655
1871.95	3.40017
1873.44	3.59325
1874.93	3.4583
1876.42	3.33209
1877.91	3.68385
1879.4	3.6143
1880.89	2.74184
1882.37	3.08609
1882.46	3.10879
1883.95	3.6227
1885.45	4.42719
1886.94	5.09029
1888.43	5.3211
1889.93	5.0609
1891.42	5.08736
1892.91	5.45257
1894.41	5.88923
1895.9	6.27452
1897.39	6.65111
1898.88	7.09885
1900.37	7.59768
1901.86	7.5777
1903.36	7.57777
1904.85	7.39587
1906.34	7.55243
1907.83	7.44242
1909.32	7.67487
1910.81	7.35873
1912.29	6.49323
1913.78	6.21195
1915.27	6.01745
1916.76	5.84187
1918.25	5.55407
1919.74	5.66431
1921.23	5.99523
1922.71	5.91707
1924.2	6.04156
1925.69	6.312
1927.17	6.34792
1928.66	6.23919
1930.15	5.99199
1931.63	6.92482
1933.12	7.4714
1934.6	7.2258
1936.09	8.48905
1937.57	9.01917
1939.06	9.22388
1940.54	9.35869
1942.02	9.02547
1943.51	9.44614
1944.99	9.68168
1946.47	9.5885
1947.96	9.08212
1949.44	9.23904
1950.92	9.30426
1952.4	9.30241
1953.88	9.66829
1955.37	10.6216
1956.85	10.8112
1958.33	11.2192
1959.81	11.4779
1961.29	11.094
1962.77	10.2611
1964.25	10.4622
1965.73	10.9517
1967.21	10.9353
1968.69	11.5667
1970.16	11.2026
1971.64	11.3337
1973.12	11.1803
1974.6	10.7939
1976.08	10.0902
1977.55	9.49934
1979.03	8.8458
1980.51	8.85119
1981.98	7.87146
1983.46	7.27595
1984.94	6.55067
1986.41	5.53521
1987.89	5.39874
1989.36	4.6229
1990.84	4.42062
1992.31	4.25381
1993.79	4.18653
1995.26	3.87127
1996.73	4.22802
1998.21	4.85618
1999.68	4.81579
2001.15	4.60519
2002.63	5.08678
2004.1	5.51286
2005.57	6.47004
2007.04	6.21712
2008.51	5.58752
2009.99	6.5049
2011.46	6.4543
2012.93	6.39549
2014.4	6.08636
2015.87	6.37157
2017.34	6.50487
2018.81	7.28676
2020.28	7.56269
2021.75	7.93696
2023.21	8.95526
2024.68	9.1533
2026.15	9.63355
2027.62	10.0919
2029.09	9.91128
2030.56	10.0727
2032.02	10.5767
2033.49	10.8061
2034.96	10.9204
2036.42	11.2273
2037.89	11.8232
2039.36	11.8026
2040.82	11.9217
2042.29	12.5036
2043.75	11.6646
2045.22	11.4831
2046.68	11.3457
2048.14	11.4251
2049.61	11.7166
2051.07	11.7578
2052.54	11.4344
2054	11.5132
2055.46	10.8378
2056.93	10.3765
2058.39	10.5867
2059.85	10.8438
2061.31	11.348
2062.77	11.3834
2064.23	11.2075
2065.7	11.4199
2067.16	11.6389
2068.62	11.4775
2070.08	11.6879
2071.54	11.7208
2073	11.718
2074.46	11.8327
2075.92	12.5491
2077.38	13.1838
2078.83	13.1099
2080.29	13.1975
2081.75	13.4165
2083.21	14.0959
2084.67	13.9802
2086.12	14.3122
2087.58	14.0817
2089.04	14.6425
2090.49	14.4154
2091.95	14.8655
2093.41	14.5217
2094.86	14.0563
2096.32	14.1003
2097.77	13.5601
2099.23	13.573
2100.68	13.4542
2102.14	13.3964
2103.59	13.3837
2105.05	13.3944
2106.5	13.4345
2107.95	13.7103
2109.41	13.9728
2110.86	13.9006
2112.31	14.3757
2113.76	15.211
2115.21	15.9535
2116.67	16.1713
2118.12	16.8183
2119.57	17.9282
2121.02	18.1764
2122.47	18.3963
2123.92	18.6356
2125.37	19.2281
2126.82	20.1016
2128.27	20.6092
2129.72	21.3049
2131.17	22.5504
2132.62	23.0143
2134.07	24.4345
2135.51	25.0329
2136.96	26.204
2138.41	27.4585
2139.86	28.1288
2141.31	29.2964
2142.75	30.5109
2144.2	32.1184
2145.65	33.1709
2147.09	34.4978
2148.54	35.6893
2149.98	36.275
2151.43	36.5348
2152.87	37.1139
2154.32	37.2804
2155.76	37.4568
2157.21	37.8732
2158.65	38.2673
2160.1	38.436
2161.54	38.9853
2162.98	39.5161
2164.43	40.5216
2165.87	41.0456
2167.31	40.8344
2168.75	41.2675
2170.2	41.1792
2171.64	41.2044
2173.08	41.6137
2174.52	41.5635
2175.96	41.2834
2177.4	41.679
2178.84	41.9649
2180.28	42.1904
2181.72	41.6412
2183.16	41.1545
2184.6	41.1574
2186.04	41.0835
2187.48	40.877
2188.92	40.9038
2190.36	40.2954
2191.79	39.6169
2193.23	38.7857
2194.67	38.1666
2196.11	37.4916
2197.54	36.9145
2198.98	36.1164
2200.42	35.5397
2201.85	35.0101
2203.29	34.8095
2204.72	33.9259
2206.16	33.1436
2207.59	32.1346
2209.03	31.2516
2210.46	30.7254
2211.9	29.8161
2213.33	29.4781
2214.77	28.391
2216.2	28.1173
2217.63	27.3079
2219.07	27.056
2220.5	25.924
2221.93	25.2231
2223.36	24.4608
2224.8	22.7139
2226.23	21.3552
2227.66	20.7768
2229.09	20.9196
2230.52	20.4531
2231.95	19.9677
2233.39	19.417
2234.81	19.4204
2236.25	19.1912
2237.67	18.6317
2239.1	17.9972
2240.53	18.0153
2241.96	17.4161
2243.39	17.1555
2244.82	17.2968
2246.25	17.1968
2247.68	17.1999
2249.1	17.0608
2250.53	17.1335
2251.96	17.4272
2253.38	17.3034
2254.81	17.709
2256.24	18.3231
2257.66	18.2825
2259.09	17.9917
2260.51	17.4298
2261.94	16.8146
2263.36	16.2038
2264.79	15.9439
2266.21	14.9738
2267.64	15.0163
2269.06	14.7488
2270.49	14.843
2271.91	14.6668
2273.33	14.5519
2274.76	13.9348
2276.18	13.2065
2277.6	13.3967
2279.02	13.7295
2280.44	13.7129
2281.87	13.5629
2283.29	13.2521
2284.71	13.0564
2286.13	12.7376
2287.55	12.3822
2288.97	11.4663
2290.39	11.0541
2291.81	9.22622
2293.23	8.61417
2294.65	7.87489
2296.07	7.50149
2297.49	8.05502
2298.91	8.46355
2300.33	8.30846
2301.74	8.01079
2303.16	8.10514
2304.58	8.3433
2306	9.14933
2307.41	9.22344
2308.83	9.52269
2310.25	9.73134
2311.66	9.91519
2313.08	9.55437
2314.5	9.95564
2315.91	9.76954
2317.33	10.2026
2318.74	10.1367
2320.16	10.0763
2321.57	10.3881
2322.98	10.7536
2324.4	9.96504
2325.81	9.81672
2327.23	9.37897
2328.64	8.48009
2330.05	8.11325
2331.46	8.21353
2332.88	7.91053
2334.29	7.18752
2335.7	6.64963
2337.11	6.56671
2338.52	6.55888
2339.94	5.27834
2341.35	5.32059
2342.76	4.40303
2344.17	4.17643
2345.58	3.37848
2346.99	3.32223
2348.4	3.49394
2349.81	3.24142
2351.22	2.86833
2352.62	2.07632
2354.03	1.94909
2355.44	1.55757
2356.85	1.50929
2358.26	1.00828
2359.67	0.867932
2361.07	1.20401
2362.48	0.766751
2363.89	1.88382
2365.29	2.23103
2366.7	2.34534
2368.11	2.5943
2369.51	2.65684
2370.92	3.04066
2372.32	3.61009
2373.73	4.02765
2375.13	4.48907
2376.54	5.04917
2377.94	4.79697
2379.35	5.73778
2380.75	5.47953
2382.15	5.28395
2383.56	4.73704
2384.96	4.80671
2386.36	5.17054
2387.76	5.36862
2389.17	5.25846
2390.57	5.384
2391.97	5.35351
2393.37	5.60359
2394.77	5.13595
2396.17	5.39865
2397.58	5.28727
2398.98	5.3132
2400.38	5.18825
2401.78	5.0879
2403.18	5.01919
2404.58	5.14467
2405.97	5.1559
2407.37	5.07831
2408.77	4.84363
2410.17	5.03662
2411.57	5.49806
2412.97	5.40999
2414.37	5.76384
2415.76	5.82075
2417.16	6.61858
2418.56	7.19633
2419.95	7.2032
2421.35	6.82154
2422.75	6.94332
2424.14	6.98422
2425.54	7.50484
2426.93	7.35506
2428.33	7.57176
2429.72	7.07562
2431.12	7.03034
2432.51	6.0552
2433.91	6.3827
2435.3	5.7459
2436.7	5.65575
2438.09	5.84021
2439.48	5.54281
2440.88	5.18573
2442.27	4.75906
2443.66	4.59587
2445.05	4.43883
2446.44	4.3082
2447.84	3.42228
2449.23	3.42954
2450.62	2.5803
2452.01	1.86671
2453.4	1.67623
2454.79	1.70933
2456.18	1.78724
2457.57	1.2308
2458.96	1.82921
2460.35	1.6232
2461.74	1.90872
2463.13	1.88351
2464.52	1.90628
2465.91	1.89971
2467.29	1.8213
2468.68	1.88904
2470.07	1.70571
2471.46	1.818
2472.85	2.33448
2474.23	2.08318
2475.62	1.88238
2477.01	1.90411
2478.39	2.01168
2479.78	2.01647
2481.16	1.1128
2482.55	1.22519
2483.93	1.56109
2485.32	1.89399
2486.7	1.95831
2488.09	1.69478
2489.47	1.76252
2490.86	1.33189
2492.24	2.09988
2493.62	1.9136
2495.01	2.01092
2496.39	1.3885
2497.77	0.945461
2499.15	0.133181
2500.54	0.147355
2501.92	0.0263515
2503.3	0.170583
2504.68	0.104039
2506.06	0.462133
2507.45	0.164599
2508.83	-0.11394
2510.21	-0.335773
2511.59	-0.0842456
2512.97	0.625013
2514.35	0.340484
2515.73	0.639033
2517.11	0.282785
2518.48	1.03505
2519.86	1.55622
2521.24	2.11745
2522.62	2.33625
2524	2.71858
2525.38	3.2377
2526.75	3.46267
2528.13	3.87161
2529.51	3.93538
2530.89	3.93104
2532.26	3.64725
2533.64	4.0828
2535.02	3.8811
2536.39	4.02282
2537.77	4.19583
2539.14	3.88797
2540.52	3.94141
2541.89	4.11327
2543.27	3.60083
2544.64	3.44506
2546.01	3.47914
2547.39	3.09628
2548.76	3.22264
2550.14	2.84271
2551.51	2.94245
2552.88	3.40504
2554.25	3.21018
2555.63	3.03831
2557	3.14913
2558.37	3.34114
2559.74	2.59677
2561.11	2.32927
2562.49	2.20414
2563.86	1.95195
2565.23	1.67562
2566.6	1.77721
2567.97	1.70812
2569.34	1.69688
2570.71	1.34233
2572.08	1.0285
2573.45	1.28669
2574.82	1.12611
2576.18	1.04333
2577.55	1.40468
2578.92	1.84041
2580.29	2.05426
2581.66	2.25708
2583.02	2.04216
2584.39	2.63773
2585.76	2.86853
2587.13	3.1601
2588.49	3.29842
2589.86	3.02825
2591.22	3.10061
2592.59	3.84646
2593.96	3.40506
2595.32	3.28621
2596.69	3.84103
2598.05	3.77324
2599.42	3.66005
2600.78	4.10934
2602.14	4.39726
2603.51	3.78809
2604.87	3.70982
2606.23	3.64583
2607.6	3.22891
2608.96	3.29244
2610.32	3.39118
2611.69	3.17309
2613.05	3.35299
2614.41	3.21735
2615.77	3.6473
2617.13	4.02887
2618.49	3.80585
2619.86	4.02646
2621.22	4.79781
2622.58	4.2727
2623.94	4.18819
2625.3	3.97579
2626.66	3.91489
2628.02	3.56108
2629.37	3.96288
2630.73	4.669
2632.09	4.03047
2633.45	3.82195
2634.81	3.89787
2636.17	3.19294
2637.53	3.37341
2638.88	3.02361
2640.24	3.70858
2641.6	4.00378
2642.96	4.39599
2644.31	4.3188
2645.67	4.18533
2647.02	4.06153
2648.38	3.74896
2649.74	4.02191
2651.09	4.50728
2652.45	4.54626
2653.8	4.6235
2655.16	4.58578
2656.51	5.01555
2657.86	5.16838
2659.22	5.05641
2660.57	4.64961
2661.93	4.39143
2663.28	5.107
2664.63	5.4036
2665.98	4.92264
2667.34	5.19347
2668.69	5.38121
2670.04	5.4671
2671.39	4.8977
2672.75	5.40253
2674.09	5.74476
2675.45	5.46243
2676.8	6.22648
2678.15	6.3224
2679.5	6.43923
2680.85	6.70954
2682.2	7.20944
2683.55	7.79521
2684.9	7.76078
2686.25	7.77332
2687.6	7.34974
2688.94	7.21908
2690.29	6.73985
2691.64	6.79694
2692.99	6.74543
2694.34	7.12606
2695.68	7.19172
2697.03	7.10119
2698.38	6.83217
2699.73	6.37222
2701.07	6.3154
2702.42	6.46998
2703.76	6.34761
2705.11	6.55817
2706.45	6.5593
2707.8	7.32781
2709.15	7.19784
2710.49	7.5078
2711.83	7.3817
2713.18	7.33955
2714.52	7.38321
2715.87	7.98198
2717.21	8.01376
2718.55	8.13128
2719.9	7.38126
2721.24	7.53606
2722.58	7.50719
2723.93	7.36195
2725.27	7.00053
2726.61	6.75431
2727.95	6.53949
2729.29	6.72505
2730.63	6.71598
2731.98	6.23197
2733.32	5.45963
2734.66	5.87104
2736	5.20301
2737.34	4.39104
2738.68	4.51878
2740.02	4.50114
2741.36	4.22094
2742.7	3.99328
2744.03	4.21752
2745.37	3.63639
2746.71	3.34101
2748.05	2.91845
2749.39	2.70815
2750.72	2.46068
2752.06	2.52533
2753.4	2.12823
2754.74	1.8787
2756.07	2.06965
2757.41	2.25532
2758.75	1.7683
2760.08	1.24877
2761.42	1.34251
2762.76	1.23472
2764.09	0.910263
2765.42	1.13457
2766.76	1.18127
2768.09	1.36138
2769.43	1.14151
2770.76	1.35308
2772.1	1.23773
2773.43	1.71948
2774.76	1.94935
2776.1	1.60892
2777.43	1.99078
2778.76	1.7469
2780.1	1.98398
2781.43	2.15483
2782.76	1.9121
2784.09	1.31418
2785.42	1.69894
2786.75	1.71482
2788.09	1.82181
2789.42	1.71897
2790.75	1.56852
2792.08	1.12935
2793.41	0.898795
2794.74	0.502719
2796.07	0.665774
2797.4	0.175434
2798.73	0.140283
2800.06	-0.0763424
2801.39	-0.371585
2802.71	-1.16904
2804.04	-0.882586
2805.37	-0.180598
2806.7	-0.171411
2808.03	0.4045
2809.35	0.605024
2810.68	0.821129
2812.01	0.900121
2813.33	1.07945
2814.66	1.53273
2815.99	2.4831
2817.31	2.58605
2818.64	2.99202
2819.96	3.29814
2821.29	4.20862
2822.61	4.67168
2823.94	5.39722
2825.26	5.882
2826.59	6.50068
2827.91	7.7377
2829.23	8.73338
2830.56	9.58958
2831.88	10.5451
2833.21	11.6908
2834.53	13.1993
2835.85	14.6214
2837.17	16.6442
2838.5	18.4733
2839.82	20.3343
2841.14	22.2402
2842.46	24.1853
2843.78	26.8494
2845.1	29.3708
2846.42	32.2104
2847.74	34.693
2849.06	37.5704
2850.38	41.2274
2851.71	44.7779
2853.03	48.0432
2854.34	50.5402
2855.66	53.9414
2856.98	57.008
2858.3	60.2067
2859.62	63.2312
2860.94	66.4021
2862.26	69.3232
2863.57	71.8831
2864.89	74.6469
2866.21	77.0003
2867.53	79.8954
2868.84	83.1135
2870.16	85.6047
2871.48	88.5173
2872.79	90.5397
2874.11	92.3284
2875.42	93.9379
2876.74	95.0745
2878.05	96.3896
2879.37	97.8301
2880.68	99.466
2882	100.666
2883.31	101.556
2884.63	103.123
2885.94	103.965
2887.26	105.289
2888.57	106.24
2889.88	107.357
2891.19	108.491
2892.51	109.814
2893.82	111.907
2895.13	113.45
2896.44	114.765
2897.76	117.581
2899.07	120.021
2900.38	122.577
2901.69	125.209
2903	127.888
2904.31	131.416
2905.62	135.102
2906.93	138.854
2908.24	143.288
2909.55	147.922
2910.86	152.15
2912.17	156.499
2913.48	160.988
2914.79	165.737
2916.1	169.695
2917.41	173.414
2918.71	177.131
2920.02	180.675
2921.33	183.746
2922.64	186.555
2923.94	189.395
2925.25	191.325
2926.56	193.653
2927.86	195.112
2929.17	196.305
2930.48	197.278
2931.78	197.94
2933.09	198.341
2934.39	197.312
2935.7	196.604
2937	196.117
2938.31	194.545
2939.61	193.168
2940.92	191.384
2942.22	188.69
2943.53	186.852
2944.83	184.416
2946.13	181.458
2947.43	178.356
2948.74	175.273
2950.04	172.273
2951.34	168.593
2952.64	165.72
2953.95	162.917
2955.25	159.796
2956.55	156.595
2957.85	153.558
2959.15	150.416
2960.45	146.932
2961.75	144.616
2963.05	142.415
2964.35	138.78
2965.65	135.687
2966.95	132.845
2968.25	129.676
2969.55	126.946
2970.85	123.703
2972.15	120.572
2973.45	118.247
2974.75	115.22
2976.05	111.996
2977.34	108.767
2978.64	105.239
2979.94	102.057
2981.24	98.0136
2982.53	94.4629
2983.83	91.0017
2985.13	87.1563
2986.42	82.9532
2987.72	79.5087
2989.01	75.4535
2990.31	71.399
2991.61	67.5619
2992.9	63.1849
2994.19	58.9057
2995.49	54.9814
2996.78	51.724
2998.08	48.0546
2999.37	44.5359
3000.67	41.8535
3001.96	39.003
3003.25	35.9073
3004.55	33.115
3005.84	30.3609
3007.13	27.4275
3008.42	25.1388
3009.72	22.6599
3011.01	20.6026
3012.3	19.4538
3013.59	18.2156
3014.88	17.0302
3016.17	15.7354
3017.46	14.8361
3018.76	14.0015
3020.05	12.6717
3021.34	11.8907
3022.63	11.5945
3023.92	11.1059
3025.21	10.0573
3026.49	10.2284
3027.78	9.30722
3029.07	8.78701
3030.36	8.60644
3031.65	8.93283
3032.94	8.73785
3034.23	9.25033
3035.51	9.89591
3036.8	10.6313
3038.09	11.065
3039.38	11.6233
3040.66	12.167
3041.95	13.1325
3043.23	13.6687
3044.52	14.2305
3045.81	14.2056
3047.09	14.7877
3048.38	15.242
3049.66	15.6699
3050.95	15.8344
3052.23	15.9214
3053.52	16.0895
3054.8	15.94
3056.09	15.5263
3057.37	15.6463
3058.65	15.4132
3059.94	15.6153
3061.22	15.9562
3062.5	15.5386
3063.79	15.4601
3065.07	15.1437
3066.35	14.6175
3067.63	13.5912
3068.92	13.0909
3070.2	12.2841
3071.48	11.2041
3072.76	10.3496
3074.04	9.83792
3075.32	9.17141
3076.6	8.92177
3077.88	7.58163
3079.16	6.39705
3080.44	5.46188
3081.72	4.49283
3083	3.80193
3084.28	2.76522
3085.56	2.29138
3086.84	1.69517
3088.12	0.81234
3089.4	-0.224378
3090.67	-0.0425198
3091.95	-0.702058
3093.23	-0.341644
3094.51	-0.152724
3095.78	-0.208942
3097.06	-0.539385
3098.34	-0.340817
3099.61	-0.334062
3100.89	0.0429696
3102.17	0.087955
3103.44	0.175685
3104.72	0.432395
3105.99	0.456026
3107.27	-0.0767046
3108.54	0.317278
3109.82	0.293666
3111.09	0.515631
3112.37	0.5202
3113.64	0.863478
3114.92	0.929617
3116.19	1.05136
3117.46	1.16445
3118.74	1.15457
3120.01	1.7005
3121.28	2.37544
3122.55	2.53617
3123.83	3.18271
3125.1	3.49202
3126.37	3.53633
3127.64	3.77705
3128.91	4.02151
3130.19	4.12889
3131.46	4.57557
3132.73	5.23194
3134	5.28242
3135.27	5.62239
3136.54	6.43713
3137.81	7.31828
3139.08	8.17659
3140.35	9.31886
3141.62	10.2384
3142.89	11.5217
3144.16	12.7821
3145.42	14.1583
3146.69	15.7931
3147.96	17.6613
3149.23	18.7571
