#Acq. time (s)=	45
#Accumulations=	2
#Range (cm-¹)=	200...3150
#Windows=	2
#Auto scanning=	Off
#Autofocus=	Off
#Macrospot=	Off
#AutoExposure=	Off
#Spike filter=	Multiple accum.
#Delay time (s)=	0
#Binning=	1
#Readout mode=	Signal
#DeNoise=	Off
#ICS correction=	On
#Dark correction=	Off
#Inst. Process=	Off
#Detector Gain=	Best Dynamic Range
#Detector ADC=	20 kHz       
#Detector temperature (°C)=	-69.85
#Instrument=	LabRAM HR Evol
#Detector=	Synapse
#Objective=	x100
#Grating=	600 gr/mm
#ND Filter=	100%
#Laser (nm)=	532 
#Hole=	100.021
#Range=	Auto
#Laser Pol.=	No
#Raman. Pol.=	No
#Laser Pol. (°)=	-0.0007625
#Raman Pol. (°)=	89.9995
#Collection=	Microscope
#StageXY=	Marzhauser
#StageZ=	Marzhauser
#X (µm)=	1976.8
#Y (µm)=	-66.7
#Z (µm)=	425.7
#Full time(mm:ss)=	3:18
#Project=	
#Sample=	
#Site=	
#Title=	Thy_40_11_10_2x_45s_532 nm_x100_100%_600 gr_mm
#Remark=	
#Date=	05.07.2022 10:34
#Acquired=	05.07.2022 10:34:02
#Base:Fit=	10.08.2022 10:01:35
#Base:Sub=	10.08.2022 10:01:52
#Filter:Polynom=	16.08.2022 10:21:53
#AxisType[0]=Intens
#AxisUnit[0]=Cnt
#AxisType[1]=Spectr
#AxisUnit[1]=1/cm
200.43	5.58175
202.244	5.2996
204.059	5.05615
205.873	5.47048
207.688	5.44561
209.501	4.96144
211.314	4.85253
213.127	4.0212
214.941	3.25503
216.753	2.56985
218.564	2.09923
220.375	2.15269
222.186	1.48382
223.999	1.93494
225.809	1.85405
227.618	2.72005
229.428	2.84076
231.236	3.66151
233.045	4.11677
234.855	3.70758
236.663	3.99017
238.471	4.36047
240.278	4.49009
242.085	4.2368
243.891	5.08812
245.698	5.37085
247.503	5.71277
249.309	6.50239
251.116	6.94768
252.921	6.42954
254.725	7.65761
256.529	8.43475
258.333	9.21811
260.136	10.0211
261.939	10.5579
263.742	10.8012
265.544	12.4685
267.346	12.3291
269.148	12.5255
270.949	13.3307
272.75	13.3751
274.55	14.1412
276.351	14.5417
278.15	14.7389
279.95	15.2399
281.749	14.7317
283.548	14.574
285.346	15.0988
287.144	14.5808
288.942	14.3152
290.739	14.5229
292.536	14.7625
294.333	14.0968
296.129	13.5226
297.925	13.6538
299.721	13.6644
301.514	14.0451
303.309	13.5052
305.104	14.0689
306.898	14.4957
308.692	14.9686
310.486	14.9882
312.279	15.3478
314.072	16.2326
315.862	16.0244
317.654	16.3852
319.446	16.2386
321.238	16.3021
323.029	16.1969
324.819	15.9364
326.608	17.277
328.398	17.4991
330.188	17.4908
331.977	17.9288
333.766	19.2637
335.553	19.9631
337.341	20.5113
339.129	21.0171
340.917	20.7611
342.704	21.0087
344.489	21.1032
346.275	20.5665
348.062	20.7649
349.845	20.6119
351.631	20.2014
353.416	20.8731
355.201	21.0843
356.984	20.0189
358.768	19.3889
360.552	19.3812
362.333	19.6338
364.116	19.0316
365.899	18.1745
367.68	18.0781
369.462	17.2577
371.243	16.2133
373.023	16.9178
374.804	16.6617
376.585	15.5227
378.363	14.281
380.143	13.985
381.923	12.9821
383.7	12.5648
385.479	12.9347
387.256	12.9176
389.034	12.4837
390.812	12.3872
392.588	12.1696
394.365	11.9347
396.14	10.9186
397.916	10.4119
399.691	10.086
401.467	11.2691
403.24	10.8455
405.015	10.4231
406.788	11.1418
408.563	11.3258
410.335	11.2286
412.109	11.6501
413.88	11.6972
415.654	12.2404
417.424	11.8991
419.197	12.1493
420.967	12.431
422.739	12.6204
424.508	12.0378
426.279	10.5307
428.048	9.68076
429.819	9.28632
431.587	8.81964
433.356	8.15238
435.124	7.9649
436.891	8.08207
438.66	7.94637
440.426	7.5195
442.194	7.77183
443.96	7.1711
445.725	6.79724
447.492	6.97054
449.257	7.72778
451.021	8.33044
452.787	7.95443
454.551	7.8704
456.314	7.84561
458.079	6.30535
459.842	5.87517
461.604	6.82295
463.368	6.05395
465.13	5.67951
466.891	6.0669
468.654	7.11911
470.415	7.82743
472.175	8.51149
473.935	8.69532
475.696	8.77695
477.456	8.90803
479.215	9.60097
480.973	10.0937
482.733	10.4389
484.491	9.80833
486.249	11.1326
488.006	12.2681
489.765	13.2819
491.522	12.9171
493.278	12.9745
495.034	13.798
496.789	13.0523
498.544	13.016
500.301	13.8823
502.056	14.3535
503.81	14.4933
505.564	14.1358
507.317	14.2265
509.071	14.3266
510.825	14.0951
512.578	13.3826
514.33	12.9521
516.082	13.4575
517.833	14.0018
519.585	13.5319
521.335	13.969
523.086	14.3548
524.836	14.5249
526.586	14.7734
528.335	14.6233
530.085	14.2408
531.835	14.1906
533.584	14.0358
535.332	14.1934
537.08	13.6478
538.827	13.0185
540.574	12.7039
542.321	12.1639
544.068	11.9548
545.814	12.0975
547.56	12.6514
549.305	12.287
551.05	12.5431
552.795	12.3326
554.54	11.7051
556.282	11.587
558.025	11.1323
559.769	10.8922
561.512	10.9262
563.255	10.7652
564.997	10.5861
566.739	10.1236
568.481	9.59528
570.223	8.22659
571.964	7.54148
573.705	8.05355
575.443	7.7882
577.183	7.24375
578.923	6.52846
580.663	6.01268
582.402	6.12668
584.141	5.65663
585.879	5.5635
587.615	5.97875
589.353	5.22874
591.09	5.18052
592.828	4.55338
594.564	4.51524
596.299	4.43385
598.035	3.67729
599.771	2.77894
601.506	2.24594
603.242	2.74109
604.974	1.98687
606.709	2.0848
608.443	2.33442
610.177	1.80893
611.908	1.63509
613.642	1.25488
615.374	0.517639
617.105	-0.272247
618.837	0.891491
620.569	0.804045
622.3	1.77244
624.03	2.25768
625.761	2.69667
627.491	2.94846
629.219	2.92721
630.949	3.28192
632.677	2.90545
634.406	3.10045
636.135	3.88707
637.861	5.66041
639.59	5.11589
641.318	4.93783
643.043	6.00567
644.77	6.74482
646.495	7.45914
648.222	7.97351
649.948	8.60822
651.672	8.21773
653.398	9.59065
655.121	10.3056
656.846	10.7695
658.569	11.143
660.293	12.5906
662.015	13.4913
663.738	14.1916
665.46	15.0852
667.183	15.7176
668.903	16.0297
670.626	16.1361
672.346	16.2016
674.067	16.3583
675.787	16.3769
677.508	16.6886
679.226	16.6548
680.947	16.8524
682.665	17.2334
684.385	17.2793
686.102	16.7469
687.821	17.7326
689.538	18.58
691.254	18.8887
692.972	19.8859
694.688	19.6642
696.406	20.4267
698.121	21.2444
699.835	21.8042
701.552	22.328
703.266	24.16
704.98	25.6129
706.695	25.8706
708.409	25.9319
710.121	25.5624
711.836	26.3738
713.548	27.2135
715.26	28.0922
716.973	28.6764
718.685	29.4774
720.396	30.4746
722.108	31.2931
723.818	31.5831
725.528	31.64
727.238	32.6847
728.949	34.2971
730.658	35.713
732.367	36.9924
734.075	37.6968
735.785	39.0354
737.493	39.9655
739.2	42.4271
740.907	42.4742
742.614	43.6224
744.322	43.9711
746.028	45.3102
747.734	45.748
749.439	46.4968
751.144	46.9502
752.849	47.4719
754.555	48.533
756.26	49.5614
757.963	50.7374
759.667	50.9959
761.37	52.6535
763.073	53.0468
764.775	53.8409
766.477	54.4711
768.179	56.0266
769.883	57.4514
771.584	57.5945
773.285	59.3216
774.986	59.9707
776.686	60.6891
778.386	62.1958
780.085	62.8966
781.785	63.8464
783.484	64.573
785.182	65.4824
786.881	66.2327
788.579	66.9405
790.276	67.4789
791.974	67.3731
793.671	67.7422
795.367	69.2805
797.064	70.9965
798.76	71.9617
800.456	71.3893
802.151	71.6502
803.846	71.8963
805.541	72.4843
807.234	73.8505
808.928	73.3103
810.622	73.1698
812.315	73.8696
814.008	73.3056
815.701	73.5607
817.394	73.7404
819.086	73.0275
820.778	72.513
822.468	71.6799
824.159	71.2391
825.85	70.0608
827.541	68.7423
829.231	67.8723
830.921	67.3118
832.609	66.6919
834.298	65.9358
835.987	65.747
837.676	64.8306
839.364	63.3485
841.051	61.7626
842.738	60.7
844.426	59.7046
846.113	58.8318
847.798	57.5395
849.484	56.8863
851.171	55.5679
852.857	53.7205
854.54	51.6815
856.226	50.0864
857.911	49.1865
859.593	47.8271
861.278	47.3164
862.961	46.6981
864.645	44.4176
866.327	43.8963
868.01	43.7767
869.692	44.3104
871.373	43.9247
873.055	43.6851
874.735	43.2378
876.416	43.2747
878.097	43.7219
879.776	44.7067
881.457	45.1652
883.135	44.3646
884.815	43.6909
886.495	43.6784
888.172	44.3177
889.851	44.3717
891.528	44.9929
893.206	45.0661
894.882	45.2354
896.56	44.9069
898.237	44.7088
899.912	46.1514
901.589	45.5865
903.263	44.5873
904.94	44.93
906.614	45.5316
908.289	45.3924
909.962	44.6135
911.635	44.0274
913.31	45.3156
914.982	45.3418
916.656	45.055
918.328	44.3262
920.001	44.3569
921.672	43.3703
923.345	42.4368
925.015	42.7806
926.685	41.9804
928.357	40.7974
930.026	39.6495
931.698	39.1662
933.366	37.4616
935.035	36.2585
936.705	35.3334
938.373	34.8337
940.041	34.3795
941.71	32.883
943.377	32.4094
945.044	31.934
946.712	31.591
948.378	31.6858
950.044	32.2806
951.709	32.5882
953.376	32.7037
955.041	31.5903
956.706	31.7902
958.372	31.1702
960.036	31.039
961.699	30.6096
963.362	31.0852
965.027	30.6641
966.69	30.2034
968.352	30.6316
970.014	29.9333
971.676	30.0725
973.339	29.672
975	30.4664
976.661	30.042
978.322	28.9137
979.982	28.879
981.642	29.2686
983.303	28.9267
984.962	27.9078
986.621	27.3726
988.28	27.7863
989.938	27.4835
991.596	26.9023
993.254	26.6517
994.911	26.7485
996.57	26.8874
998.227	25.6953
999.884	24.4816
1001.54	23.8599
1003.2	23.5743
1004.85	22.2848
1006.51	21.4912
1008.16	21.6523
1009.82	20.1186
1011.47	19.4408
1013.12	18.7227
1014.78	17.6242
1016.43	17.1046
1018.08	17.5193
1019.74	17.2267
1021.39	16.9728
1023.04	17.1633
1024.69	15.9325
1026.34	16.7137
1028	17.1903
1029.65	17.3888
1031.3	17.2174
1032.95	15.9246
1034.6	15.7759
1036.25	15.5067
1037.9	14.9929
1039.54	14.5722
1041.19	13.6278
1042.84	13.8118
1044.49	14.0499
1046.14	13.2837
1047.78	13.2839
1049.43	13.4331
1051.08	12.8719
1052.72	12.2672
1054.37	11.7568
1056.02	11.8845
1057.66	11.2488
1059.31	10.3104
1060.95	9.35703
1062.6	8.99636
1064.24	7.82964
1065.88	7.02427
1067.53	7.07029
1069.17	7.25867
1070.81	7.83193
1072.45	7.49837
1074.1	7.357
1075.74	7.52381
1077.38	7.34755
1079.02	7.17108
1080.66	6.71928
1082.3	6.30243
1083.94	5.81989
1085.58	5.29963
1087.22	5.09249
1088.86	4.99638
1090.5	5.25019
1092.14	5.14973
1093.78	5.84029
1095.42	5.97843
1097.05	6.45663
1098.69	7.40182
1100.33	7.77827
1101.96	7.69638
1103.6	7.76667
1105.24	7.52803
1106.87	7.85158
1108.51	9.33702
1110.14	9.79372
1111.78	8.85199
1113.41	9.01438
1115.05	8.54882
1116.68	9.79358
1118.31	9.57965
1119.95	9.50812
1121.58	9.85687
1123.21	10.1078
1124.85	9.92774
1126.48	9.5679
1128.11	10.7093
1129.74	11.6519
1131.37	11.4432
1133	11.0804
1134.63	10.553
1136.26	9.66124
1137.89	8.67757
1139.52	7.98779
1141.15	7.24333
1142.78	7.63887
1144.41	7.37067
1146.04	7.28211
1147.66	7.99091
1149.29	8.59747
1150.92	8.55294
1152.55	7.84239
1154.17	6.74205
1155.8	6.73521
1157.43	7.33376
1159.05	7.40288
1160.68	7.20524
1162.3	6.57222
1163.93	6.70156
1165.55	6.59264
1167.17	6.94349
1168.8	7.67921
1170.42	6.90319
1172.05	7.52769
1173.67	7.7016
1175.29	7.38636
1176.91	7.01651
1178.54	7.10582
1180.16	7.26782
1181.78	7.29375
1183.4	6.99855
1185.02	7.03343
1186.64	7.86638
1188.26	8.71969
1189.88	8.16766
1191.5	7.83134
1193.12	7.19415
1194.74	8.28382
1196.36	8.51161
1197.97	8.94187
1199.59	8.65333
1201.21	9.7078
1202.83	9.69685
1204.44	10.0029
1206.06	9.89907
1207.68	10.6649
1209.29	11.8529
1210.91	11.7024
1212.52	11.9923
1214.14	11.8391
1215.75	11.1561
1217.37	11.5404
1218.98	12.0653
1220.59	13.493
1222.21	14.0336
1223.82	15.624
1225.43	15.9514
1227.05	17.4596
1228.66	18.5239
1230.27	19.512
1231.88	19.838
1233.49	20.9278
1235.1	21.76
1236.72	23.2042
1238.33	24.0057
1239.94	24.2483
1241.55	24.2666
1243.16	25.1993
1244.76	26.3426
1246.37	27.1483
1247.98	27.7339
1249.59	28.9615
1251.2	28.9115
1252.8	30.4333
1254.41	31.1253
1256.02	31.1866
1257.62	31.5756
1259.23	31.2591
1260.84	31.733
1262.44	32.4422
1264.05	33.775
1265.66	34.0887
1267.26	34.6997
1268.86	34.7876
1270.47	35.2513
1272.07	36.5418
1273.67	37.3852
1275.28	37.9058
1276.88	38.7565
1278.48	38.8939
1280.09	39.0996
1281.69	38.8085
1283.29	38.9291
1284.89	39.1406
1286.49	39.3996
1288.09	40.3223
1289.69	41.2783
1291.29	41.3825
1292.89	41.3276
1294.49	41.4012
1296.09	41.2717
1297.69	42.3164
1299.29	42.2816
1300.89	42.4679
1302.49	42.5165
1304.08	43.6175
1305.68	43.6547
1307.28	44.2251
1308.88	44.734
1310.47	44.8933
1312.07	44.187
1313.66	44.8796
1315.26	44.0382
1316.85	44.3382
1318.45	44.204
1320.04	43.9486
1321.64	44.2042
1323.23	44.0316
1324.83	44.175
1326.42	44.2231
1328.01	44.0731
1329.61	44.4899
1331.2	43.5546
1332.79	43.3937
1334.38	43.5977
1335.97	42.6688
1337.56	43.2238
1339.16	43.2223
1340.75	43.5984
1342.34	43.7719
1343.93	42.9979
1345.52	41.4196
1347.11	41.8537
1348.7	41.5893
1350.29	41.1152
1351.87	40.6973
1353.46	39.2041
1355.05	38.5421
1356.64	38.4936
1358.22	36.6665
1359.81	35.7316
1361.4	34.4367
1362.98	34.5951
1364.57	33.3474
1366.16	32.5386
1367.74	31.5618
1369.33	31.503
1370.91	30.3534
1372.5	29.9545
1374.08	29.6936
1375.67	29.3207
1377.25	29.5865
1378.83	29.1549
1380.41	29.0499
1382	29.2302
1383.58	29.8018
1385.16	29.0978
1386.74	28.5009
1388.33	28.2044
1389.91	27.5908
1391.49	26.713
1393.07	26.336
1394.65	26.0476
1396.23	26.4196
1397.81	25.8328
1399.39	25.9039
1400.97	26.4035
1402.55	26.3325
1404.13	26.6308
1405.7	27.2794
1407.28	28.1616
1408.86	28.8014
1410.44	29.2078
1412.01	29.9726
1413.59	31.5178
1415.17	31.9094
1416.74	33.2458
1418.32	33.0338
1419.89	33.1825
1421.47	33.3233
1423.04	34.4365
1424.62	35.235
1426.19	36.9103
1427.77	37.0434
1429.34	38.4646
1430.91	40.1215
1432.49	41.2389
1434.06	42.8631
1435.63	44.1176
1437.2	44.8194
1438.78	45.8938
1440.35	47.2735
1441.92	48.746
1443.49	49.4725
1445.06	51.1853
1446.63	51.9319
1448.2	52.8662
1449.77	53.4601
1451.34	54.2889
1452.91	54.3057
1454.48	54.1011
1456.05	53.7751
1457.62	52.6257
1459.18	52.0599
1460.75	50.8434
1462.32	49.3541
1463.89	47.8188
1465.45	46.2214
1467.02	45.6565
1468.59	44.5957
1470.15	43.3252
1471.72	42.007
1473.28	40.4515
1474.85	38.2026
1476.41	36.5205
1477.98	35.0293
1479.54	33.7884
1481.1	32.4431
1482.67	31.0298
1484.23	30.5295
1485.79	28.6739
1487.36	26.4654
1488.92	24.7437
1490.48	23.3524
1492.04	21.9794
1493.61	20.3374
1495.17	18.7525
1496.73	17.4488
1498.29	17.3162
1499.85	16.5195
1501.41	16.6097
1502.97	15.8304
1504.53	15.9199
1506.09	16.186
1507.65	17.2356
1509.2	17.6492
1510.76	17.4995
1512.32	17.9716
1513.88	17.8396
1515.43	17.9223
1516.99	18.6695
1518.55	18.9749
1520.1	19.04
1521.66	19.5744
1523.22	20.2411
1524.77	19.7363
1526.33	20.3282
1527.88	20.9403
1529.44	21.4957
1530.99	22.1697
1532.54	22.9398
1534.1	23.3299
1535.65	23.0566
1537.21	23.603
1538.76	24.4522
1540.31	25.5666
1541.86	27.4279
1543.42	27.7971
1544.97	29.4455
1546.52	30.7175
1548.07	31.6104
1549.62	31.9417
1551.17	32.8083
1552.72	33.9585
1554.27	35.5617
1555.82	36.2174
1557.37	37.0744
1558.92	37.75
1560.47	38.6748
1562.02	39.3146
1563.56	39.8288
1565.11	40.0894
1566.66	40.4931
1568.21	41.6609
1569.75	41.8667
1571.3	43.5417
1572.85	45.3804
1574.39	46.5913
1575.94	47.589
1577.49	47.9857
1579.03	48.9516
1580.57	49.3573
1582.12	49.3729
1583.66	49.8435
1585.21	49.0816
1586.75	48.9474
1588.3	48.2846
1589.84	47.8383
1591.38	46.9806
1592.92	46.1445
1594.47	45.5323
1596.01	44.6628
1597.55	44.0703
1599.09	43.1391
1600.63	42.2554
1602.17	40.9411
1603.71	40.8429
1605.25	41.3632
1606.79	40.9858
1608.33	40.1439
1609.87	39.6706
1611.41	39.1034
1612.95	38.5452
1614.49	38.7353
1616.03	38.9103
1617.57	38.0187
1619.1	37.7557
1620.64	37.4434
1622.18	37.5303
1623.72	37.8832
1625.25	37.4757
1626.79	37.5673
1628.32	37.9483
1629.86	38.1586
1631.39	38.4188
1632.93	39.2112
1634.46	40.1139
1636	40.6545
1637.53	41.1832
1639.07	41.3248
1640.6	42.2221
1642.13	42.8535
1643.67	43.7475
1645.2	45.2334
1646.73	45.6996
1648.26	47.324
1649.8	47.4056
1651.33	46.2762
1652.86	46.5429
1654.39	46.3881
1655.92	45.9705
1657.45	45.4876
1658.98	45.0483
1660.51	44.2546
1662.04	43.3321
1663.57	42.2125
1665.1	40.7881
1666.63	39.911
1668.16	38.7395
1669.68	37.4001
1671.21	36.4451
1672.74	34.9651
1674.27	33.9311
1675.79	33.0194
1677.32	32.3081
1678.85	31.6545
1680.37	31.1965
1681.9	29.7317
1683.42	28.0254
1684.95	27.4443
1686.47	26.7091
1688	25.1151
1689.52	23.347
1691.05	22.4447
1692.57	21.6437
1694.09	21.0173
1695.62	19.9588
1697.14	19.3432
1698.66	18.6002
1700.18	18.6491
1701.71	18.3053
1703.23	17.6615
1704.75	17.0717
1706.27	16.3942
1707.79	15.4996
1709.31	15.3105
1710.83	14.5713
1712.35	14.2164
1713.87	14.0638
1715.39	13.8137
1716.91	13.7511
1718.43	12.9652
1719.95	12.0416
1721.47	11.2921
1722.99	10.7083
1724.5	10.6111
1726.02	9.7178
1727.54	9.66997
1729.06	9.33065
1730.57	8.73503
1732.09	8.84364
1733.61	8.24304
1735.12	7.41624
1736.64	6.97287
1738.15	6.78883
1739.67	6.0932
1741.18	6.53644
1742.7	6.27048
1744.21	5.80089
1745.72	5.63802
1747.24	5.40418
1748.75	5.24503
1750.26	5.1943
1751.77	4.25615
1753.29	3.77513
1754.8	3.9793
1756.31	3.80026
1757.82	3.71626
1759.33	3.9753
1760.84	4.50356
1762.36	4.15734
1763.87	3.60993
1765.38	3.83429
1766.89	4.52279
1768.4	4.38962
1769.91	3.88689
1771.41	3.40916
1772.92	3.92872
1774.43	3.80397
1775.94	3.605
1777.45	3.24527
1778.95	2.70212
1780.46	2.69933
1781.97	2.53919
1783.48	2.49129
1784.98	2.32903
1786.49	2.10573
1787.99	2.07321
1789.5	1.96967
1791.01	1.39385
1792.51	1.26818
1794.01	0.981922
1795.52	1.27735
1797.02	1.73083
1798.53	2.22277
1800.03	2.68327
1801.53	2.7584
1803.04	3.32642
1804.54	3.11008
1806.04	3.32839
1807.54	3.38468
1809.05	3.0929
1810.55	3.26656
1812.05	3.79471
1813.55	4.04554
1815.05	3.60534
1816.55	4.15253
1818.05	4.42361
1819.55	4.37167
1821.05	4.16788
1822.55	4.10936
1824.05	4.61623
1825.55	4.42058
1827.05	4.75073
1828.55	5.34916
1830.04	6.03523
1831.54	6.04621
1833.04	6.02389
1834.54	6.3978
1836.03	6.90467
1837.53	6.86216
1839.03	6.87773
1840.52	7.45623
1842.02	7.92434
1843.51	7.69877
1845.01	7.75551
1846.5	8.1084
1848	8.07086
1849.49	7.92456
1850.99	7.79106
1852.48	8.34468
1853.97	9.0461
1855.47	8.79174
1856.96	8.62906
1858.45	8.67428
1859.94	8.06879
1861.44	8.36147
1862.93	8.3962
1864.42	8.88794
1865.91	8.69076
1867.4	8.74997
1868.89	9.20614
1870.38	9.33127
1871.87	9.41566
1873.36	9.28957
1874.85	9.74959
1876.34	9.75772
1877.83	10.1011
1879.32	9.57389
1880.81	9.36476
1882.3	10.0687
1882.57	10.2629
1884.07	10.2843
1885.56	10.4069
1887.06	10.1904
1888.55	9.7628
1890.04	9.92246
1891.54	9.194
1893.03	8.53709
1894.52	8.75227
1896.02	8.48297
1897.51	8.27949
1899	7.58107
1900.49	8.20549
1901.98	8.11262
1903.47	8.23632
1904.96	8.44533
1906.45	8.44488
1907.94	8.09415
1909.43	7.72572
1910.92	6.88925
1912.41	6.84514
1913.9	6.90328
1915.39	6.6761
1916.88	5.98818
1918.37	5.67102
1919.85	5.5829
1921.34	5.21719
1922.83	4.81606
1924.32	4.44044
1925.8	5.17848
1927.29	4.61284
1928.78	4.61687
1930.26	3.88608
1931.75	4.33333
1933.23	3.52788
1934.72	3.30521
1936.2	3.09249
1937.69	3.22071
1939.17	2.94501
1940.66	3.29731
1942.14	3.4915
1943.63	3.595
1945.11	3.80342
1946.59	4.27026
1948.07	4.6328
1949.56	4.11277
1951.04	3.78786
1952.52	3.59101
1954	3.40224
1955.48	3.59773
1956.96	2.54688
1958.45	2.55313
1959.93	2.49373
1961.41	2.12003
1962.89	2.05639
1964.37	2.09135
1965.85	1.91534
1967.32	2.29291
1968.8	2.42446
1970.28	2.63827
1971.76	3.14378
1973.24	3.67213
1974.72	3.8182
1976.19	3.64963
1977.67	3.96781
1979.15	4.55277
1980.63	3.88964
1982.1	3.44659
1983.58	3.60069
1985.05	3.47889
1986.53	4.2327
1988	4.04946
1989.48	3.90188
1990.95	3.4964
1992.43	3.28982
1993.9	3.90323
1995.38	3.72899
1996.85	3.61185
1998.32	3.59527
1999.8	3.7559
2001.27	3.32014
2002.74	3.96582
2004.22	3.7702
2005.69	4.1656
2007.16	3.6476
2008.63	3.61946
2010.1	3.91753
2011.57	3.7161
2013.04	3.38812
2014.51	3.88365
2015.98	3.80227
2017.45	4.13714
2018.92	3.80761
2020.39	4.29364
2021.86	4.08243
2023.33	4.61417
2024.8	4.88802
2026.27	5.21564
2027.74	4.82961
2029.2	5.20464
2030.67	4.97524
2032.14	5.85008
2033.61	6.08094
2035.07	5.99957
2036.54	6.55136
2038.01	6.51801
2039.47	6.6192
2040.94	7.06317
2042.4	7.08962
2043.87	7.33746
2045.33	7.39385
2046.8	8.29073
2048.26	8.35194
2049.72	9.20204
2051.19	9.52023
2052.65	9.53339
2054.12	9.04508
2055.58	9.15939
2057.04	9.3674
2058.5	9.23432
2059.97	9.25855
2061.43	9.17519
2062.89	8.93764
2064.35	9.54083
2065.81	9.70957
2067.27	10.4825
2068.73	9.86876
2070.19	10.3042
2071.65	10.3434
2073.11	10.4229
2074.57	10.5295
2076.03	10.9012
2077.49	10.944
2078.95	10.3658
2080.41	10.635
2081.87	10.7295
2083.32	11.1158
2084.78	11.1087
2086.24	11.7639
2087.7	12.4997
2089.15	12.2293
2090.61	12.0676
2092.07	11.9031
2093.52	11.7681
2094.98	11.3289
2096.43	11.4706
2097.89	11.1304
2099.34	11.5969
2100.8	12.152
2102.25	12.3182
2103.71	12.5069
2105.16	12.7481
2106.61	13.02
2108.07	13.4044
2109.52	13.2687
2110.97	13.1546
2112.43	13.8778
2113.88	14.3461
2115.33	15.0532
2116.78	16.7636
2118.23	17.9776
2119.68	19.0586
2121.13	19.5082
2122.59	20.6976
2124.04	21.7189
2125.49	22.9637
2126.94	24.2351
2128.39	25.0966
2129.83	25.9584
2131.28	27.0663
2132.73	28.6264
2134.18	30.151
2135.63	30.6577
2137.08	31.7541
2138.53	32.1551
2139.97	32.7119
2141.42	33.4178
2142.87	34.7035
2144.31	35.2955
2145.76	36.3181
2147.21	37.7306
2148.65	38.8493
2150.1	39.5746
2151.54	40.2938
2152.99	40.865
2154.43	41.9348
2155.88	41.7977
2157.32	41.7873
2158.77	42.4879
2160.21	42.7552
2161.65	42.197
2163.1	42.4622
2164.54	42.9137
2165.98	43.5733
2167.43	44.1203
2168.87	44.8304
2170.31	45.68
2171.75	45.973
2173.19	46.3098
2174.64	45.6946
2176.07	46.1046
2177.52	45.5999
2178.96	45.4855
2180.4	44.9353
2181.84	43.9789
2183.28	44.1525
2184.72	44.6378
2186.15	44.4944
2187.59	44.3944
2189.03	44.102
2190.47	43.7558
2191.91	43.4737
2193.35	42.9548
2194.78	42.3173
2196.22	41.8642
2197.66	40.6856
2199.09	39.267
2200.53	38.1289
2201.97	37.7183
2203.4	37.3905
2204.84	36.6197
2206.27	35.1364
2207.71	33.6124
2209.14	33.1264
2210.58	31.8162
2212.01	30.636
2213.45	29.8677
2214.88	28.817
2216.31	28.185
2217.75	26.437
2219.18	25.0331
2220.61	24.1748
2222.05	22.927
2223.48	21.9033
2224.91	20.5835
2226.34	20.1744
2227.78	18.617
2229.21	18.6748
2230.64	18.2958
2232.07	17.3072
2233.5	16.7805
2234.93	17.4746
2236.36	17.1262
2237.79	16.8667
2239.22	16.4392
2240.65	16.5846
2242.08	16.5044
2243.5	16.091
2244.93	16.1691
2246.36	15.1745
2247.79	15.3175
2249.22	14.0174
2250.64	14.2193
2252.07	14.2183
2253.5	14.1929
2254.92	13.9428
2256.35	14.4961
2257.78	13.9704
2259.2	13.8572
2260.63	14.3227
2262.05	14.5652
2263.48	13.8076
2264.9	13.4235
2266.33	13.2211
2267.75	13.6299
2269.18	13.3053
2270.6	13.3167
2272.02	13.0278
2273.45	12.9044
2274.87	12.4375
2276.29	11.8748
2277.71	11.203
2279.14	10.8187
2280.56	10.3806
2281.98	9.61936
2283.4	9.5175
2284.82	9.70417
2286.24	9.27302
2287.66	8.82498
2289.08	8.08711
2290.5	7.9765
2291.92	7.7454
2293.34	6.22594
2294.76	5.90461
2296.18	6.17637
2297.6	6.51364
2299.02	6.51842
2300.44	6.83155
2301.86	6.78817
2303.27	7.3165
2304.69	8.19452
2306.11	8.11373
2307.53	8.05462
2308.94	8.55476
2310.36	8.66798
2311.78	8.54649
2313.19	8.23527
2314.61	7.79179
2316.02	7.61214
2317.44	7.34388
2318.85	7.95507
2320.27	7.96334
2321.68	8.47875
2323.1	8.14203
2324.51	7.95524
2325.92	8.26357
2327.34	8.56379
2328.75	8.27381
2330.16	8.11158
2331.58	7.73641
2332.99	7.09577
2334.4	6.04417
2335.81	6.03513
2337.23	5.68978
2338.64	5.43743
2340.05	4.5758
2341.46	4.43044
2342.87	3.74741
2344.28	3.5249
2345.69	3.38305
2347.1	3.02548
2348.51	2.71807
2349.92	2.47845
2351.33	2.08763
2352.74	1.94861
2354.15	1.84242
2355.55	2.01515
2356.96	1.02866
2358.37	1.19984
2359.78	0.788057
2361.19	0.103437
2362.59	0.290764
2364	0.0559481
2365.41	0.754735
2366.81	1.29975
2368.22	1.33602
2369.62	1.17149
2371.03	1.28276
2372.44	1.3865
2373.84	1.72861
2375.24	1.81817
2376.65	1.43426
2378.05	1.92941
2379.46	1.92286
2380.86	1.83822
2382.26	1.76924
2383.67	2.06768
2385.07	2.24227
2386.47	2.47852
2387.88	2.84494
2389.28	2.81735
2390.68	2.68617
2392.08	2.42765
2393.48	2.30447
2394.89	2.68452
2396.29	2.82033
2397.69	2.33106
2399.09	2.38277
2400.49	2.17338
2401.89	1.93371
2403.29	2.06478
2404.69	1.91808
2406.09	2.05103
2407.48	2.08089
2408.88	2.46677
2410.28	2.86861
2411.68	2.92005
2413.08	2.84867
2414.48	2.85785
2415.87	3.19792
2417.27	3.13942
2418.67	3.30905
2420.06	3.70576
2421.46	3.9199
2422.86	4.06195
2424.25	3.95366
2425.65	4.17032
2427.04	3.93843
2428.44	4.14225
2429.83	4.00078
2431.23	4.18364
2432.62	3.92902
2434.02	3.78469
2435.41	3.95785
2436.81	3.938
2438.2	3.63024
2439.59	3.36757
2440.99	3.17783
2442.38	3.24454
2443.77	3.50376
2445.16	3.30373
2446.56	3.12278
2447.95	3.16894
2449.34	2.84528
2450.73	2.51392
2452.12	2.01706
2453.51	1.69933
2454.9	1.48818
2456.29	1.67724
2457.68	1.57986
2459.07	1.46342
2460.46	1.21723
2461.85	0.788012
2463.24	1.20548
2464.63	1.22276
2466.02	0.799088
2467.4	0.574936
2468.79	0.838445
2470.18	0.665988
2471.57	0.402431
2472.95	0.662825
2474.34	0.211137
2475.73	0.0804442
2477.12	0.40309
2478.5	0.659002
2479.89	0.756009
2481.27	0.710993
2482.66	0.838334
2484.04	0.62435
2485.43	1.01734
2486.81	1.43147
2488.2	1.37946
2489.58	1.07842
2490.97	1.08489
2492.35	1.15815
2493.73	1.29809
2495.12	1.91188
2496.5	1.69472
2497.88	1.72817
2499.27	2.2771
2500.65	2.00494
2502.03	1.51639
2503.41	1.76694
2504.79	1.60386
2506.17	1.89463
2507.56	1.56908
2508.94	1.67509
2510.32	1.67673
2511.7	1.93558
2513.08	2.07574
2514.46	1.94424
2515.84	2.18571
2517.22	2.40948
2518.59	2.84262
2519.97	3.16885
2521.35	3.73296
2522.73	4.18773
2524.11	4.53809
2525.49	4.54012
2526.86	4.16533
2528.24	4.2869
2529.62	4.47991
2530.99	5.19802
2532.37	5.6882
2533.75	5.53298
2535.12	5.77288
2536.5	5.81588
2537.88	6.10254
2539.25	5.31261
2540.63	4.85117
2542	5.09661
2543.38	4.76653
2544.75	5.04839
2546.12	5.22488
2547.5	5.27243
2548.87	5.35825
2550.24	5.36488
2551.62	5.12748
2552.99	5.33939
2554.36	5.38628
2555.74	5.33021
2557.11	4.62402
2558.48	4.45711
2559.85	4.86265
2561.22	4.93014
2562.59	4.72624
2563.96	4.56162
2565.34	4.26335
2566.71	4.39822
2568.08	4.19428
2569.45	3.68863
2570.82	3.59248
2572.18	4.1706
2573.55	4.0925
2574.92	3.65064
2576.29	3.10864
2577.66	3.28158
2579.03	3.00039
2580.4	2.87057
2581.77	3.15547
2583.13	2.84515
2584.5	3.61521
2585.87	3.70344
2587.23	4.12893
2588.6	4.155
2589.97	4.55436
2591.33	4.93828
2592.7	4.7385
2594.06	4.5514
2595.43	5.10023
2596.79	4.94762
2598.16	5.32014
2599.52	5.09756
2600.89	4.45754
2602.25	4.43014
2603.62	4.25572
2604.98	3.69758
2606.34	3.49053
2607.71	2.74361
2609.07	3.03411
2610.43	3.28451
2611.79	3.09135
2613.16	3.00109
2614.52	3.2588
2615.88	2.96889
2617.24	2.95422
2618.6	3.00793
2619.96	2.87926
2621.32	2.97573
2622.68	3.38677
2624.04	3.37539
2625.4	3.30893
2626.76	3.44157
2628.12	3.73502
2629.48	3.68837
2630.84	3.09903
2632.2	2.91944
2633.56	3.41745
2634.92	3.60462
2636.28	3.92905
2637.63	3.92056
2638.99	4.32145
2640.35	4.26937
2641.71	3.87375
2643.06	4.06667
2644.42	4.14362
2645.77	3.9636
2647.13	3.99768
2648.49	3.77354
2649.84	3.85164
2651.2	3.91925
2652.55	4.10104
2653.91	3.93028
2655.26	4.1475
2656.62	4.20804
2657.97	4.15812
2659.33	3.80891
2660.68	3.44609
2662.03	3.64516
2663.39	3.76306
2664.74	2.87915
2666.09	2.99822
2667.44	2.68668
2668.8	2.32806
2670.15	2.55128
2671.5	2.17295
2672.85	1.90686
2674.2	1.22171
2675.55	1.15051
2676.91	1.36211
2678.26	1.46012
2679.61	1.03062
2680.96	0.727079
2682.31	0.740967
2683.66	0.448607
2685	0.93776
2686.35	0.905092
2687.7	1.13346
2689.05	1.67226
2690.4	1.52998
2691.75	1.29822
2693.1	1.29983
2694.44	1.57169
2695.79	1.63438
2697.14	2.02467
2698.49	2.21182
2699.83	2.56914
2701.18	3.13375
2702.52	3.3739
2703.87	3.24164
2705.22	3.12104
2706.56	3.70045
2707.91	3.30739
2709.25	3.62555
2710.6	3.34831
2711.94	2.69511
2713.29	2.88754
2714.63	3.07395
2715.97	2.72286
2717.32	3.38508
2718.66	3.56411
2720.01	3.96348
2721.35	4.09319
2722.69	4.43194
2724.03	5.08615
2725.38	5.30858
2726.72	5.41611
2728.06	5.48365
2729.4	5.11807
2730.74	4.60087
2732.08	4.48889
2733.42	4.70046
2734.76	4.62126
2736.1	4.13117
2737.44	3.9675
2738.78	3.61604
2740.12	3.91136
2741.46	3.6713
2742.8	3.76029
2744.14	3.48747
2745.48	3.19104
2746.82	2.74552
2748.16	2.5246
2749.49	2.55069
2750.83	2.48369
2752.17	2.52921
2753.51	2.47538
2754.84	3.06907
2756.18	2.89329
2757.52	2.65733
2758.85	2.85505
2760.19	2.42682
2761.53	2.42428
2762.86	1.91714
2764.2	1.88263
2765.53	1.07499
2766.87	0.754387
2768.2	0.814353
2769.54	1.11207
2770.87	0.97524
2772.2	1.26314
2773.54	1.58213
2774.87	1.34479
2776.2	1.55298
2777.54	1.4154
2778.87	1.65928
2780.2	2.24413
2781.53	2.29648
2782.87	2.28815
2784.2	2.68177
2785.53	2.72877
2786.86	3.10029
2788.19	2.65725
2789.52	3.01458
2790.85	3.28456
2792.18	2.84315
2793.51	2.55988
2794.84	2.51026
2796.17	2.03601
2797.5	2.30722
2798.83	2.25213
2800.16	2.20546
2801.49	2.08165
2802.82	2.06659
2804.15	1.92389
2805.47	1.8898
2806.8	1.9403
2808.13	1.4262
2809.46	0.642565
2810.78	0.507491
2812.11	0.152841
2813.44	-0.130109
2814.76	-0.419596
2816.09	-0.266184
2817.42	-0.328411
2818.74	-0.00938572
2820.07	0.40341
2821.39	0.258651
2822.72	0.833658
2824.04	0.89727
2825.37	1.10238
2826.69	2.02191
2828.02	2.70549
2829.34	3.51271
2830.66	4.28367
2831.99	4.92194
2833.31	6.52882
2834.63	7.71864
2835.96	9.01205
2837.28	9.95023
2838.6	11.0138
2839.92	12.2016
2841.24	12.9234
2842.57	14.5218
2843.89	15.8712
2845.21	17.0124
2846.53	18.0659
2847.85	19.3111
2849.17	20.6186
2850.49	22.2356
2851.81	23.8476
2853.13	25.6176
2854.45	26.9103
2855.77	28.7304
2857.09	30.6064
2858.41	31.6821
2859.72	33.2429
2861.04	34.5582
2862.36	35.6233
2863.68	37.055
2865	37.9108
2866.31	39.4532
2867.63	40.6336
2868.95	41.4528
2870.26	42.3612
2871.58	43.3411
2872.9	44.2124
2874.21	44.6281
2875.53	45.07
2876.84	46.3032
2878.16	47.435
2879.47	47.8311
2880.79	48.9651
2882.1	50.0798
2883.42	51.2634
2884.73	52.3458
2886.05	53.6664
2887.36	54.2603
2888.67	55.2753
2889.99	56.3727
2891.3	58.1353
2892.61	59.3589
2893.92	60.2802
2895.24	61.5123
2896.55	63.013
2897.86	64.5067
2899.17	66.3824
2900.48	68.1932
2901.79	70.1178
2903.11	72.3083
2904.42	74.0498
2905.73	75.7067
2907.04	77.9364
2908.35	80.1672
2909.66	82.1306
2910.97	84.5109
2912.27	86.9405
2913.58	90.0519
2914.89	92.1133
2916.2	94.6531
2917.51	97.0459
2918.82	99.199
2920.13	100.669
2921.43	102.75
2922.74	104.846
2924.05	106.361
2925.35	107.548
2926.66	108.602
2927.97	109.129
2929.27	109.66
2930.58	110.03
2931.89	110.656
2933.19	110.727
2934.5	110.506
2935.8	110.401
2937.11	109.703
2938.41	109.31
2939.72	108.583
2941.02	108.14
2942.32	107.501
2943.63	106.381
2944.93	104.627
2946.24	103.391
2947.54	101.889
2948.84	100.042
2950.14	97.98
2951.45	96.2626
2952.75	94.033
2954.05	92.8235
2955.35	91.0851
2956.65	89.0104
2957.95	86.8877
2959.26	85.292
2960.56	83.4024
2961.86	81.9567
2963.16	79.4924
2964.46	78.1375
2965.76	76.4746
2967.06	74.7876
2968.36	73.4862
2969.66	71.6514
2970.96	69.6993
2972.25	68.2954
2973.55	66.2178
2974.85	64.917
2976.15	62.6125
2977.45	60.5409
2978.74	58.417
2980.04	55.7824
2981.34	53.6011
2982.64	51.1267
2983.93	48.8161
2985.23	46.2651
2986.52	44.4011
2987.82	42.1842
2989.12	39.2632
2990.41	36.0136
2991.71	33.5093
2993	30.7134
2994.3	28.5707
2995.59	26.0904
2996.89	24.0249
2998.18	21.8324
2999.48	20.042
3000.77	18.1647
3002.06	16.5792
3003.36	15.3398
3004.65	13.9252
3005.94	12.287
3007.23	10.6026
3008.53	9.21786
3009.82	8.01753
3011.11	7.13228
3012.4	6.33305
3013.69	5.40387
3014.99	4.60197
3016.28	4.10049
3017.57	3.23565
3018.86	2.6589
3020.15	1.75775
3021.44	1.58045
3022.73	1.34219
3024.02	1.09298
3025.31	0.978911
3026.6	1.28507
3027.89	1.76942
3029.18	2.58184
3030.46	3.24852
3031.75	3.65247
3033.04	3.99187
3034.33	3.88654
3035.62	3.61104
3036.9	4.20069
3038.19	4.55071
3039.48	5.03752
3040.76	4.82421
3042.05	5.61987
3043.34	5.30692
3044.62	5.57196
3045.91	6.2156
3047.19	6.67853
3048.48	7.01049
3049.77	7.31997
3051.05	7.80426
3052.34	7.83667
3053.62	7.9302
3054.9	7.73468
3056.19	7.95199
3057.47	7.60775
3058.76	7.27849
3060.04	6.73658
3061.32	6.98584
3062.61	7.05454
3063.89	7.15664
3065.17	6.76791
3066.45	6.55916
3067.74	6.49794
3069.02	5.78031
3070.3	5.69732
3071.58	5.85581
3072.86	5.48663
3074.14	5.14218
3075.42	4.62717
3076.7	4.16126
3077.99	3.78983
3079.26	3.12168
3080.54	2.51371
3081.82	1.50002
3083.1	1.37894
3084.38	1.24276
3085.66	0.861618
3086.94	0.555638
3088.22	-0.0973491
3089.5	0.0568656
3090.78	0.638303
3092.05	0.86959
3093.33	0.802476
3094.61	1.32285
3095.89	0.773324
3097.16	0.813385
3098.44	1.12962
3099.72	1.34989
3100.99	2.0796
3102.27	2.44126
3103.54	2.59469
3104.82	3.03114
3106.1	3.51699
3107.37	3.7431
3108.65	4.66209
3109.92	5.23579
3111.2	5.37272
3112.47	5.7525
3113.74	6.04425
3115.02	6.50133
3116.29	6.79557
3117.56	7.00883
3118.84	6.83743
3120.11	6.93151
3121.38	6.92391
3122.66	7.20227
3123.93	7.71759
3125.2	8.27055
3126.47	8.49794
3127.74	8.76964
3129.01	8.75348
3130.29	9.08171
3131.56	9.48486
3132.83	9.49672
3134.1	10.1225
3135.37	9.75937
3136.64	9.57329
3137.91	9.88559
3139.18	9.87179
3140.45	9.68893
3141.72	9.30143
3142.99	9.07989
3144.26	8.88396
3145.52	8.83509
3146.79	8.49322
3148.06	8.87885
3149.33	10.1963
