#Acq. time (s)=	45
#Accumulations=	2
#Range (cm-¹)=	200...3150
#Windows=	2
#Auto scanning=	Off
#Autofocus=	Off
#Macrospot=	Off
#AutoExposure=	Off
#Spike filter=	Multiple accum.
#Delay time (s)=	0
#Binning=	1
#Readout mode=	Signal
#DeNoise=	Off
#ICS correction=	On
#Dark correction=	Off
#Inst. Process=	Off
#Detector Gain=	Best Dynamic Range
#Detector ADC=	20 kHz       
#Detector temperature (°C)=	-69.85
#Instrument=	LabRAM HR Evol
#Detector=	Synapse
#Objective=	x100
#Grating=	600 gr/mm
#ND Filter=	100%
#Laser (nm)=	532 
#Hole=	100.021
#Range=	Auto
#Laser Pol.=	No
#Raman. Pol.=	No
#Laser Pol. (°)=	-0.0007625
#Raman Pol. (°)=	89.9995
#Collection=	Microscope
#StageXY=	Marzhauser
#StageZ=	Marzhauser
#X (µm)=	-5087.5
#Y (µm)=	1509.6
#Z (µm)=	62.85
#Full time(mm:ss)=	3:18
#Project=	
#Sample=	
#Site=	
#Title=	Thy_50_12_1_2x_45s_532 nm_x100_100%_600 gr_mm
#Remark=	
#Date=	07.07.2022 09:09
#Acquired=	07.07.2022 09:09:55
#Base:Fit=	10.08.2022 10:04:29
#Base:Sub=	10.08.2022 10:04:45
#Filter:Polynom=	16.08.2022 10:20:24
#AxisType[0]=Intens
#AxisUnit[0]=Cnt
#AxisType[1]=Spectr
#AxisUnit[1]=1/cm
200.43	58.7417
202.246	55.3042
204.061	51.0737
205.875	48.5573
207.688	46.2279
209.501	43.991
211.316	42.0468
213.129	40.8465
214.941	39.9674
216.753	38.32
218.566	36.4815
220.377	34.6126
222.188	33.4321
223.999	32.0338
225.809	29.7566
227.618	27.9642
229.43	27.5657
231.239	26.4193
233.047	24.6179
234.855	23.2477
236.663	22.3701
238.471	21.2845
240.278	21.2745
242.087	20.0522
243.894	18.3486
245.7	16.8661
247.506	15.1879
249.311	13.6972
251.116	12.3169
252.921	12.0039
254.725	11.8617
256.529	11.1847
258.333	11.4305
260.136	11.0515
261.939	10.5283
263.744	10.9722
265.546	9.68845
267.348	8.57653
269.15	8.82067
270.951	8.08314
272.752	7.1876
274.552	7.09868
276.353	6.18598
278.152	4.19174
279.952	2.53013
281.751	2.43689
283.55	0.973093
285.348	0.90696
287.146	1.27492
288.942	0.678136
290.739	0.219889
292.536	2.39401
294.333	3.05529
296.129	2.75179
297.925	2.73169
299.721	4.08542
301.516	4.48741
303.311	4.58114
305.106	4.10238
306.9	3.85186
308.694	3.7545
310.486	3.75656
312.279	4.20346
314.072	4.22328
315.864	4.69897
317.656	5.75246
319.448	5.09923
321.24	5.06887
323.029	5.42805
324.819	5.90213
326.61	6.34248
328.4	6.70938
330.19	7.12588
331.977	6.83941
333.766	7.07559
335.555	7.85034
337.343	8.31788
339.131	8.99777
340.917	9.06114
342.704	9.96345
344.491	9.7597
346.277	9.31419
348.062	9.03116
349.848	9.06133
351.633	8.17473
353.416	7.92968
355.201	7.22787
356.986	8.47412
358.77	8.68076
360.552	7.5737
362.335	6.42542
364.118	5.47096
365.899	5.04701
367.682	4.21826
369.464	4.99278
371.243	5.15824
373.025	4.52309
374.806	5.41712
376.585	5.37947
378.365	4.7729
380.143	4.68796
381.923	5.03554
383.702	3.39055
385.479	2.22536
387.258	2.5525
389.034	3.44331
390.812	2.92259
392.59	2.21531
394.365	3.04874
396.142	2.94218
397.916	2.56167
399.693	2.72868
401.467	2.98127
403.242	3.49518
405.015	3.57853
406.79	3.07943
408.565	2.47025
410.337	3.90574
412.111	4.22802
413.882	4.64271
415.656	6.23867
417.426	6.21444
419.197	6.54706
420.969	6.13673
422.739	4.92169
424.51	4.63249
426.279	4.38832
428.05	4.72065
429.819	4.67117
431.589	5.18899
433.356	4.71085
435.124	3.63779
436.893	3.60939
438.66	4.30371
440.428	4.91389
442.194	5.91663
443.96	5.84326
445.727	5.91211
447.492	5.77782
449.259	5.84513
451.023	5.69611
452.787	5.02181
454.553	4.93615
456.316	4.10924
458.079	4.61456
459.844	5.04722
461.606	5.20307
463.368	5.37295
465.132	5.20359
466.893	5.352
468.654	5.82272
470.415	7.34074
472.177	7.52012
473.937	7.87514
475.696	8.88837
477.456	8.74132
479.217	8.75052
480.975	8.20891
482.733	9.46191
484.491	9.28925
486.251	10.3585
488.008	11.5164
489.765	12.0927
491.522	12.5778
493.278	12.2936
495.036	13.2922
496.791	13.9228
498.546	15.2958
500.301	16.486
502.056	16.8563
503.81	17.8855
505.566	17.4095
507.319	18.6647
509.073	19.4639
510.825	20.8082
512.578	21.5701
514.33	22.2798
516.082	22.3152
517.833	22.4438
519.587	22.4469
521.337	23.3545
523.088	23.9066
524.838	24.9974
526.588	25.731
528.337	25.4717
530.087	24.9532
531.835	24.332
533.584	24.7023
535.332	24.5592
537.08	24.2081
538.827	23.0695
540.574	23.1856
542.321	22.5747
544.068	22.1799
545.814	22.0139
547.56	21.7927
549.305	20.5552
551.05	19.7502
552.795	18.7984
554.54	18.2763
556.284	16.9354
558.027	15.1162
559.771	12.9803
561.514	11.4286
563.257	9.50825
564.999	7.57223
566.742	6.95867
568.481	6.36817
570.223	5.63976
571.964	6.13995
573.705	5.93948
575.445	5.26622
577.185	4.37422
578.925	3.68617
580.665	3.52322
582.402	4.18019
584.141	3.99363
585.879	3.47894
587.617	2.86913
589.355	2.54273
591.092	3.30812
592.828	2.92424
594.564	2.87522
596.301	2.69472
598.037	2.72489
599.773	2.29089
601.506	3.41634
603.242	3.66491
604.976	4.93907
606.711	6.24799
608.443	6.6231
610.177	6.53248
611.91	7.1513
613.644	8.06668
615.374	9.30959
617.107	11.2305
618.839	12
620.569	13.1432
622.3	14.5659
624.032	15.9743
625.761	16.9653
627.491	18.1013
629.221	18.2247
630.949	19.5321
632.679	20.2195
634.408	20.6872
636.135	21.1754
637.863	22.093
639.592	22.9104
641.318	24.2689
643.045	24.5345
644.77	24.8156
646.497	25.3619
648.224	26.3849
649.948	26.434
651.674	28.0664
653.398	30.5728
655.123	30.7179
656.846	31.0319
658.57	32.697
660.293	31.9042
662.017	32.6237
663.738	32.9348
665.462	33.6367
667.185	34.0317
668.905	34.2395
670.628	34.2616
672.348	34.4621
674.067	34.9175
675.789	35.4985
677.508	37.0979
679.228	36.8731
680.947	38.1107
682.667	39.3875
684.385	40.616
686.104	40.7126
687.821	41.8694
689.538	42.788
691.256	44.2097
692.972	43.7809
694.69	43.8049
696.406	44.8725
698.121	46.2018
699.837	47.9289
701.552	48.6797
703.268	49.3055
704.982	50.1962
706.695	50.8277
708.41	52.594
710.123	53.7085
711.836	54.1471
713.55	54.5553
715.262	54.475
716.973	54.5027
718.685	54.3311
720.398	54.6543
722.108	55.5111
723.818	57.504
725.53	58.2806
727.24	58.779
728.949	57.6576
730.658	57.4026
732.369	58.0975
734.077	59.6972
735.785	59.6494
737.493	60.2608
739.2	60.24
740.909	60.5853
742.616	61.7232
744.322	61.6752
746.028	62.1894
747.734	63.4778
749.441	63.4937
751.146	64.1544
752.851	65.0506
754.555	65.2192
756.26	66.514
757.963	68.4954
759.667	69.3871
761.372	70.3664
763.075	71.7536
764.777	72.4225
766.479	74.1782
768.181	75.0894
769.883	74.9811
771.584	76.194
773.285	77.2344
774.986	78.7457
776.686	79.1761
778.386	79.7529
780.085	81.2956
781.785	82.2319
783.484	83.8238
785.182	85.4698
786.881	85.4889
788.579	86.0564
790.276	87.6033
791.974	88.6398
793.671	89.9153
795.367	90.8421
797.064	90.2145
798.76	91.2583
800.456	91.7118
802.151	92.7762
803.846	93.3519
805.541	93.7722
807.236	93.5648
808.93	95.0791
810.624	93.9302
812.317	93.9983
814.01	93.2373
815.703	94.0313
817.394	95.0088
819.086	94.9832
820.778	94.7167
822.47	94.3201
824.161	93.8862
825.852	94.1776
827.543	93.9989
829.231	92.7622
830.921	92.9372
832.611	91.2263
834.3	89.9663
835.989	89.6538
837.676	89.364
839.364	87.9931
841.053	88.344
842.74	87.9675
844.426	86.6324
846.113	85.7616
847.8	84.6862
849.486	84.2059
851.171	83.384
852.857	82.4979
854.542	80.4212
856.227	80.067
857.911	79.5645
859.595	79.0264
861.279	77.4628
862.961	76.642
864.645	74.7687
866.329	73.0838
868.01	72.0513
869.692	70.7922
871.375	69.7141
873.055	70.1261
874.737	69.698
876.418	68.8308
878.097	67.9991
879.778	67.098
881.457	65.6981
883.137	65.4658
884.817	64.7125
886.495	63.7989
888.174	62.0824
889.851	60.5215
891.53	60.0859
893.206	60.2103
894.884	58.9937
896.562	60.1244
898.237	59.9104
899.914	61.0764
901.589	61.4147
903.265	60.1846
904.94	60.2393
906.615	59.2673
908.289	59.5227
909.964	59.5527
911.637	58.4466
913.31	56.3832
914.984	56.692
916.656	55.9721
918.33	56.6524
920.001	56.4533
921.674	56.0495
923.345	55.3474
925.015	55.1329
926.687	54.7069
928.357	53.3723
930.028	52.8263
931.698	51.3382
933.366	51.8062
935.037	50.8285
936.705	49.9242
938.373	49.6701
940.043	50.8004
941.71	51.171
943.379	50.8816
945.046	49.4634
946.712	48.6046
948.378	47.1006
950.046	46.9653
951.711	47.98
953.376	48.2532
955.043	48.2121
956.708	47.5162
958.372	46.3775
960.036	45.9036
961.701	45.8614
963.364	44.849
965.027	44.4908
966.69	45.3848
968.354	45.6733
970.016	43.9335
971.678	43.1744
973.339	43.0721
975	44.0462
976.661	43.2522
978.324	43.7005
979.984	43.0483
981.644	41.6272
983.303	41.4209
984.962	39.8045
986.621	38.5797
988.282	38.0957
989.94	37.9901
991.598	37.2559
993.256	35.9055
994.913	35.2231
996.57	34.9842
998.227	35.7205
999.884	33.7489
1001.54	32.393
1003.2	30.9956
1004.85	29.2089
1006.51	28.2456
1008.16	28.0868
1009.82	28.4182
1011.47	28.2163
1013.12	29.0758
1014.78	28.5687
1016.43	28.6982
1018.08	28.4987
1019.74	29.2366
1021.39	30.7338
1023.04	30.7593
1024.69	29.9185
1026.34	31.0293
1028	30.8723
1029.65	32.0302
1031.3	32.7636
1032.95	34.0662
1034.6	34.4464
1036.25	33.9473
1037.9	34.2215
1039.55	35.1637
1041.19	36.5813
1042.84	37.3678
1044.49	37.8996
1046.14	38.0019
1047.79	38.6026
1049.43	38.4909
1051.08	37.2119
1052.73	36.4038
1054.37	36.7583
1056.02	35.9907
1057.66	35.879
1059.31	34.8958
1060.95	34.3794
1062.6	32.2658
1064.24	31.7891
1065.88	31.9771
1067.53	31.7456
1069.17	31.7996
1070.81	31.7316
1072.46	31.026
1074.1	28.7499
1075.74	27.6533
1077.38	27.6156
1079.02	25.3434
1080.66	24.4715
1082.3	22.205
1083.94	21.5412
1085.58	20.599
1087.22	20.0977
1088.86	20.3071
1090.5	19.6141
1092.14	19.8616
1093.78	19.0213
1095.42	18.4448
1097.05	17.6879
1098.69	18.2322
1100.33	18.8726
1101.97	19.2955
1103.6	18.8263
1105.24	17.4504
1106.87	17.3134
1108.51	17.863
1110.15	18.5732
1111.78	18.1075
1113.41	17.9644
1115.05	17.5934
1116.68	16.691
1118.31	17.6838
1119.95	18.5962
1121.58	18.7064
1123.21	18.806
1124.85	18.2661
1126.48	17.7914
1128.11	17.8796
1129.74	17.8328
1131.37	17.9599
1133	17.9804
1134.63	17.2427
1136.26	16.4884
1137.89	15.8468
1139.52	16.1499
1141.15	16.1364
1142.78	15.1537
1144.41	14.933
1146.04	16.0146
1147.66	16.7952
1149.29	15.7152
1150.92	14.8208
1152.55	13.8506
1154.17	11.7202
1155.8	10.7314
1157.43	10.0474
1159.05	8.96165
1160.68	7.78601
1162.3	8.95261
1163.93	8.95384
1165.55	8.69932
1167.17	8.69377
1168.8	8.31298
1170.42	8.58503
1172.05	7.71745
1173.67	8.40745
1175.29	7.81461
1176.91	6.49499
1178.54	6.39079
1180.16	6.77209
1181.78	4.93764
1183.4	3.76693
1185.02	3.1115
1186.64	3.35857
1188.26	4.3825
1189.88	4.96726
1191.5	5.99696
1193.12	4.812
1194.74	5.42281
1196.36	4.77296
1197.97	5.07111
1199.59	6.69005
1201.21	6.51268
1202.83	7.13277
1204.44	7.63225
1206.06	7.7597
1207.68	8.59981
1209.29	9.85563
1210.91	10.1382
1212.52	10.6028
1214.14	11.2337
1215.75	11.1086
1217.37	13.1835
1218.98	13.9078
1220.6	15.2417
1222.21	16.1939
1223.82	16.986
1225.44	17.9178
1227.05	20.0782
1228.66	19.8048
1230.27	20.0313
1231.88	21.2555
1233.49	21.8501
1235.1	22.5116
1236.72	23.7981
1238.33	25.2689
1239.94	27.3129
1241.55	29.1889
1243.16	30.6058
1244.76	30.8173
1246.37	30.9377
1247.98	32.0256
1249.59	32.7386
1251.2	33.8563
1252.8	34.3645
1254.41	36.3852
1256.02	37.0982
1257.63	37.9584
1259.23	38.7699
1260.84	39.4044
1262.44	40.2418
1264.05	42.5683
1265.66	44.7465
1267.26	46.4222
1268.87	49.3947
1270.47	51.0432
1272.07	51.5489
1273.68	52.0196
1275.28	52.4825
1276.88	52.5803
1278.48	54.0796
1280.09	54.1081
1281.69	54.2742
1283.29	54.7858
1284.89	54.6184
1286.49	54.9281
1288.09	55.052
1289.69	54.4812
1291.3	53.3621
1292.9	53.7337
1294.49	54.0101
1296.09	52.9468
1297.69	54.4858
1299.29	53.248
1300.89	53.0398
1302.49	52.2817
1304.09	51.4382
1305.68	50.7572
1307.28	50.2628
1308.88	49.2721
1310.47	49.3586
1312.07	49.0214
1313.66	48.4605
1315.26	47.7559
1316.86	46.8131
1318.45	46.2387
1320.05	46.1459
1321.64	44.6043
1323.23	43.7926
1324.83	42.8317
1326.42	42.6582
1328.01	41.8836
1329.61	41.2251
1331.2	39.9217
1332.79	39.5396
1334.38	39.2608
1335.98	38.6521
1337.57	38.2587
1339.16	37.5485
1340.75	39.0045
1342.34	39.7748
1343.93	39.8025
1345.52	40.3239
1347.11	40.1325
1348.7	40.7087
1350.29	40.0752
1351.87	39.5386
1353.46	39.0754
1355.05	38.2885
1356.64	37.4583
1358.23	37.1458
1359.81	36.4674
1361.4	36.7203
1362.99	36.0974
1364.57	34.0714
1366.16	33.6144
1367.74	32.4925
1369.33	32.6916
1370.91	32.1259
1372.5	32.538
1374.08	32.6654
1375.67	31.6873
1377.25	31.4192
1378.83	29.4881
1380.42	28.913
1382	29.1123
1383.58	29.3137
1385.16	29.1347
1386.75	28.2529
1388.33	29.2651
1389.91	27.6527
1391.49	27.1138
1393.07	27.026
1394.65	26.3365
1396.23	25.8521
1397.81	25.672
1399.39	26.0187
1400.97	25.9487
1402.55	25.999
1404.13	26.7916
1405.7	27.397
1407.28	27.6857
1408.86	28.1113
1410.44	28.9068
1412.01	31.1647
1413.59	31.8238
1415.17	32.44
1416.74	33.1863
1418.32	35.0498
1419.89	37.2208
1421.47	38.1925
1423.05	40.1946
1424.62	42.27
1426.19	44.0843
1427.77	45.7337
1429.34	46.7488
1430.92	47.6012
1432.49	47.9768
1434.06	48.9334
1435.63	50.8265
1437.2	52.7125
1438.78	53.6169
1440.35	53.7802
1441.92	55.005
1443.49	55.5067
1445.06	58.3827
1446.63	59.1631
1448.2	59.6981
1449.77	60.1465
1451.34	60.5782
1452.91	58.8153
1454.48	57.1643
1456.05	56.0609
1457.62	55.3462
1459.18	55.0486
1460.75	54.5967
1462.32	52.4991
1463.89	50.121
1465.45	48.374
1467.02	47.9154
1468.59	45.0277
1470.15	43.8814
1471.72	43.3804
1473.28	41.8484
1474.85	40.73
1476.41	40.1014
1477.98	38.9459
1479.54	37.1817
1481.11	35.1292
1482.67	33.309
1484.23	31.1895
1485.8	28.7701
1487.36	26.7321
1488.92	25.8767
1490.48	24.7649
1492.05	22.7636
1493.61	22.4072
1495.17	21.3738
1496.73	21.5805
1498.29	20.6804
1499.85	18.8818
1501.41	18.9686
1502.97	18.3584
1504.53	16.7961
1506.09	14.9213
1507.65	15.1146
1509.2	15.7362
1510.76	15.7879
1512.32	16.2898
1513.88	17.3117
1515.44	17.5412
1516.99	18.1329
1518.55	18.471
1520.1	19.7562
1521.66	18.9668
1523.22	20.197
1524.77	18.9898
1526.33	18.7575
1527.88	18.8933
1529.44	18.1743
1530.99	17.9494
1532.55	19.2621
1534.1	20.1919
1535.65	21.1465
1537.21	23.0909
1538.76	23.4311
1540.31	23.1394
1541.86	24.9116
1543.42	27.6636
1544.97	29.6554
1546.52	30.7355
1548.07	32.4734
1549.62	34.7201
1551.17	35.5441
1552.72	36.8596
1554.27	38.3672
1555.82	39.0667
1557.37	40.1176
1558.92	40.6209
1560.47	41.8739
1562.02	43.779
1563.57	45.3307
1565.11	46.954
1566.66	47.9028
1568.21	48.533
1569.75	49.3945
1571.3	50.3957
1572.85	50.7947
1574.39	52.1799
1575.94	52.2578
1577.49	52.7239
1579.03	54.5663
1580.58	54.697
1582.12	54.752
1583.67	55.5462
1585.21	56.4341
1586.75	56.9457
1588.3	57.072
1589.84	57.2353
1591.38	56.4009
1592.93	56.703
1594.47	55.7111
1596.01	55.3361
1597.55	54.791
1599.09	53.6377
1600.63	52.5792
1602.18	50.874
1603.72	50.944
1605.26	50.1746
1606.8	49.8822
1608.34	48.7031
1609.87	47.5621
1611.41	47.3667
1612.95	47.1682
1614.49	47.8864
1616.03	48.0092
1617.57	48.3656
1619.11	49.674
1620.64	49.8443
1622.18	49.4206
1623.72	49.0573
1625.25	49.3545
1626.79	49.3538
1628.32	49.1103
1629.86	49.7824
1631.4	49.4498
1632.93	49.7251
1634.47	49.306
1636	49.5881
1637.53	50.8415
1639.07	50.4278
1640.6	50.4829
1642.14	50.5827
1643.67	50.8448
1645.2	51.2812
1646.73	51.6505
1648.27	51.8707
1649.8	52.182
1651.33	52.3941
1652.86	52.0285
1654.39	52.2802
1655.92	52.6105
1657.45	51.6734
1658.98	51.967
1660.51	51.0065
1662.04	50.457
1663.57	50.0481
1665.1	48.7826
1666.63	47.0635
1668.16	45.2824
1669.69	44.4086
1671.21	42.2597
1672.74	42.0992
1674.27	40.3774
1675.79	37.7872
1677.32	36.0295
1678.85	35.2538
1680.37	34.4629
1681.9	33.2196
1683.42	31.6023
1684.95	30.1957
1686.47	29.7971
1688	30.6969
1689.52	29.6068
1691.05	28.7954
1692.57	27.4659
1694.1	26.1691
1695.62	25.1968
1697.14	23.8189
1698.66	23.499
1700.19	23.1087
1701.71	22.2052
1703.23	21.9941
1704.75	21.5322
1706.27	21.2456
1707.79	19.9867
1709.32	19.513
1710.83	18.1498
1712.35	17.7232
1713.88	16.7028
1715.39	15.9689
1716.91	16.5063
1718.43	16.393
1719.95	15.5029
1721.47	14.7
1722.99	14.5524
1724.5	14.9053
1726.02	14.6153
1727.54	14.2829
1729.06	13.8064
1730.57	13.8953
1732.09	13.7254
1733.61	13.141
1735.12	12.6556
1736.64	11.1646
1738.15	11.1311
1739.67	10.7456
1741.18	10.1292
1742.7	9.538
1744.21	9.51425
1745.72	9.57308
1747.24	9.90842
1748.75	9.35105
1750.26	8.31578
1751.78	7.63213
1753.29	7.63926
1754.8	7.50202
1756.31	7.5063
1757.82	6.43322
1759.34	5.80973
1760.85	6.48987
1762.36	6.29738
1763.87	6.00139
1765.38	4.82827
1766.89	4.65976
1768.4	4.64026
1769.91	4.86342
1771.41	4.03714
1772.92	4.22462
1774.43	4.21948
1775.94	3.71913
1777.45	3.07565
1778.96	2.51504
1780.46	1.66186
1781.97	1.62687
1783.48	1.57879
1784.98	1.68651
1786.49	1.66657
1788	1.71367
1789.5	1.82887
1791.01	2.48868
1792.51	3.01022
1794.01	3.28764
1795.52	3.52781
1797.02	4.75939
1798.53	5.04256
1800.03	5.5676
1801.54	5.18093
1803.04	5.47203
1804.54	6.19727
1806.04	7.13662
1807.54	7.53329
1809.05	7.62651
1810.55	7.63158
1812.05	7.79501
1813.55	8.39181
1815.05	7.69832
1816.55	7.50916
1818.05	7.28939
1819.55	6.97381
1821.05	6.61658
1822.55	6.87538
1824.05	6.6657
1825.55	7.52284
1827.05	7.45127
1828.55	6.6819
1830.04	6.42845
1831.54	5.92853
1833.04	5.7676
1834.54	5.75354
1836.03	5.8149
1837.53	4.94577
1839.03	4.2028
1840.52	4.07249
1842.02	3.95588
1843.51	3.53787
1845.01	3.14282
1846.5	2.64729
1848	2.45567
1849.49	2.51754
1850.99	2.68014
1852.48	2.82245
1853.97	2.08307
1855.47	2.82431
1856.96	3.06992
1858.45	2.53358
1859.94	2.78225
1861.44	3.2548
1862.93	3.33232
1864.42	3.89475
1865.91	4.68161
1867.4	5.63221
1868.89	5.74427
1870.38	5.74259
1871.87	5.72676
1873.36	5.26076
1874.85	5.71536
1876.34	5.5951
1877.83	6.23803
1879.32	6.49315
1880.81	6.4468
1882.3	6.1692
1882.56	5.91801
1884.06	6.33939
1885.55	6.931
1887.04	6.77387
1888.54	6.74755
1890.03	6.84075
1891.52	6.5758
1893.02	6.32526
1894.51	7.10991
1896	7.37545
1897.49	7.33363
1898.99	7.18752
1900.48	6.59446
1901.97	6.45827
1903.46	5.7251
1904.95	5.25124
1906.44	5.65315
1907.93	5.41883
1909.42	5.59171
1910.91	4.92335
1912.4	4.4983
1913.89	5.48645
1915.38	5.40195
1916.86	5.70517
1918.35	5.43377
1919.84	6.37972
1921.33	6.98304
1922.82	7.08468
1924.3	6.35834
1925.79	6.37676
1927.28	5.56836
1928.76	5.42467
1930.25	5.40132
1931.74	5.29693
1933.22	6.32881
1934.71	6.20357
1936.19	4.87226
1937.67	4.15601
1939.16	4.06217
1940.64	4.00596
1942.13	3.35843
1943.61	3.40134
1945.09	3.5037
1946.58	3.20596
1948.06	2.72784
1949.54	2.29804
1951.03	2.5367
1952.51	2.81964
1953.99	2.68882
1955.47	2.08067
1956.95	1.99988
1958.43	1.68679
1959.91	1.09397
1961.39	-0.0306351
1962.87	-0.111036
1964.35	-0.779518
1965.83	-1.10396
1967.31	-0.944261
1968.79	-0.412348
1970.27	-1.35429
1971.75	-0.898463
1973.22	-0.944734
1974.7	-0.99528
1976.18	-0.643641
1977.66	-1.24677
1979.13	-0.422817
1980.61	-0.151361
1982.09	-0.115738
1983.56	0.55331
1985.04	1.1222
1986.52	2.08834
1987.99	3.41009
1989.47	3.43726
1990.94	4.37461
1992.41	3.83786
1993.89	4.90196
1995.36	4.60693
1996.84	4.09825
1998.31	4.55637
1999.78	5.27025
2001.26	4.59214
2002.73	4.64005
2004.2	4.91468
2005.67	4.93089
2007.15	4.93364
2008.62	5.15602
2010.09	5.302
2011.56	6.01092
2013.03	6.54542
2014.5	6.98033
2015.97	7.52871
2017.44	7.56963
2018.91	7.47437
2020.38	7.22347
2021.85	6.55798
2023.32	7.11705
2024.79	8.27488
2026.25	8.88226
2027.72	8.86767
2029.19	8.65612
2030.66	8.5721
2032.13	8.87519
2033.59	9.81053
2035.06	10.0485
2036.53	9.84089
2037.99	9.68522
2039.46	10.0739
2040.92	10.3976
2042.39	10.1973
2043.85	9.6884
2045.32	11.1756
2046.78	11.6978
2048.25	12.1469
2049.71	12.5333
2051.18	12.4439
2052.64	12.8583
2054.1	13.7255
2055.56	14.0259
2057.03	14.6851
2058.49	14.7659
2059.95	15.3022
2061.42	15.2601
2062.88	14.8837
2064.34	15.0345
2065.8	14.9113
2067.26	15.402
2068.72	15.2136
2070.18	15.1854
2071.64	15.9903
2073.1	16.1531
2074.56	15.612
2076.02	16.1688
2077.48	17.1236
2078.94	18.5943
2080.39	19.0369
2081.85	19.2805
2083.31	19.721
2084.77	20.451
2086.22	21.2442
2087.68	22.5121
2089.14	22.6919
2090.6	22.1572
2092.05	22.8704
2093.51	23.2658
2094.96	23.7653
2096.42	24.6311
2097.87	25.0104
2099.33	25.7713
2100.78	26.4158
2102.24	26.851
2103.69	28.2708
2105.15	29.6338
2106.6	30.1325
2108.05	30.6616
2109.51	30.4266
2110.96	31.6293
2112.41	32.7092
2113.86	34.0116
2115.32	34.5573
2116.77	36.2788
2118.22	38.4688
2119.67	39.5752
2121.12	39.7858
2122.57	41.3493
2124.02	42.5187
2125.47	43.1505
2126.92	44.7935
2128.37	46.0031
2129.82	47.8359
2131.27	49.1456
2132.72	50.9344
2134.17	52.0681
2135.62	53.7889
2137.06	56.1148
2138.51	57.9205
2139.96	59.2696
2141.41	60.7313
2142.85	61.8549
2144.3	63.2611
2145.75	64.4389
2147.19	65.6904
2148.64	67.4637
2150.09	69.5681
2151.53	71.5675
2152.97	71.8222
2154.42	73.4232
2155.86	75.4669
2157.31	76.6321
2158.75	77.7714
2160.2	78.0263
2161.64	78.9639
2163.08	79.4752
2164.53	80.5498
2165.97	80.7481
2167.41	80.8996
2168.86	81.6998
2170.3	82.4946
2171.74	83.6403
2173.18	83.6999
2174.62	83.5221
2176.06	83.6209
2177.5	83.0361
2178.94	82.007
2180.38	81.607
2181.82	80.2319
2183.26	80.3538
2184.7	79.7643
2186.14	78.9891
2187.58	77.7968
2189.02	77.4471
2190.46	76.1478
2191.89	75.0229
2193.33	73.7425
2194.77	73.1071
2196.21	72.0105
2197.64	70.8663
2199.08	70.1923
2200.52	69.0042
2201.95	67.1306
2203.39	66.977
2204.83	65.7336
2206.26	63.9471
2207.7	62.7382
2209.13	60.8349
2210.57	58.285
2212	57.2574
2213.43	56.4508
2214.87	54.5411
2216.3	54.0478
2217.73	53.0001
2219.17	52.0482
2220.6	51.1774
2222.03	50.858
2223.47	49.6552
2224.9	47.5515
2226.33	47.2659
2227.76	46.5989
2229.19	45.6169
2230.62	43.6162
2232.05	42.4113
2233.49	41.5904
2234.91	39.4975
2236.34	38.8424
2237.77	37.9997
2239.2	37.6068
2240.63	36.9976
2242.06	35.5529
2243.49	34.5756
2244.92	33.1761
2246.35	32.2801
2247.78	31.4482
2249.2	31.0546
2250.63	29.9421
2252.06	29.1737
2253.48	28.0191
2254.91	28.0505
2256.34	26.8976
2257.76	26.2286
2259.19	25.7538
2260.61	25.0562
2262.04	24.7927
2263.46	24.5182
2264.89	23.3759
2266.31	23.1614
2267.74	22.8888
2269.16	21.8207
2270.59	20.7738
2272.01	20.7557
2273.43	20.1243
2274.85	19.0268
2276.28	17.0328
2277.7	16.6488
2279.12	16.3177
2280.54	15.9644
2281.97	15.6606
2283.39	15.4072
2284.81	13.6367
2286.23	12.8323
2287.65	12.2374
2289.07	11.0521
2290.49	11.2743
2291.91	10.646
2293.33	10.5859
2294.75	9.33722
2296.17	9.45034
2297.59	9.36711
2299.01	9.62062
2300.42	9.73925
2301.84	9.06426
2303.26	10.0153
2304.68	9.87103
2306.1	10.2526
2307.51	10.8456
2308.93	11.262
2310.35	11.3741
2311.76	10.8308
2313.18	10.2582
2314.59	10.4607
2316.01	10.7763
2317.43	10.9407
2318.84	10.803
2320.26	10.3995
2321.67	9.99049
2323.08	10.1271
2324.5	10.6854
2325.91	10.9797
2327.33	10.6677
2328.74	10.6698
2330.15	10.9485
2331.56	11.0375
2332.98	11.0242
2334.39	9.63256
2335.8	8.98015
2337.21	8.78614
2338.62	7.75564
2340.04	6.12804
2341.45	6.23497
2342.86	5.83598
2344.27	4.88228
2345.68	4.32091
2347.09	4.41531
2348.5	4.74624
2349.91	4.08001
2351.31	3.34163
2352.72	2.29875
2354.13	2.01146
2355.54	1.37476
2356.95	1.58722
2358.36	0.516882
2359.76	0.622628
2361.17	0.677296
2362.58	0.587033
2363.98	0.62229
2365.39	0.128203
2366.8	0.90542
2368.21	0.509473
2369.61	1.09475
2371.02	1.04966
2372.42	1.02038
2373.83	1.62963
2375.23	1.83007
2376.64	2.03952
2378.04	2.28614
2379.44	3.40803
2380.85	3.62796
2382.25	3.58632
2383.66	4.33741
2385.06	5.06803
2386.46	5.26343
2387.86	5.51866
2389.26	5.00282
2390.67	5.56764
2392.07	6.65939
2393.47	7.03584
2394.87	6.89997
2396.27	6.3463
2397.67	6.17653
2399.07	6.27728
2400.47	6.59753
2401.87	6.25232
2403.27	6.24951
2404.67	6.33273
2406.07	7.36867
2407.47	7.90398
2408.87	8.64483
2410.27	9.59844
2411.67	10.6273
2413.07	10.2102
2414.46	10.4394
2415.86	11.2292
2417.26	11.4007
2418.66	11.9312
2420.05	12.0211
2421.45	12.5466
2422.84	12.472
2424.24	12.6258
2425.64	12.021
2427.03	12.0091
2428.43	11.7457
2429.82	11.3318
2431.22	10.9937
2432.61	10.9851
2434.01	10.3211
2435.4	10.1307
2436.79	10.2033
2438.19	9.95881
2439.58	10.4901
2440.97	10.5053
2442.37	10.9704
2443.76	10.8597
2445.15	10.5763
2446.54	10.7163
2447.93	10.5906
2449.33	10.5692
2450.72	10.3359
2452.11	9.9778
2453.5	10.6655
2454.89	10.1341
2456.28	10.2984
2457.67	9.90104
2459.06	9.81944
2460.45	10.5897
2461.84	10.5987
2463.23	10.3147
2464.62	10.1284
2466	10.4696
2467.39	10.6479
2468.78	11.0525
2470.17	11.2173
2471.55	11.9704
2472.94	12.6745
2474.33	13.1722
2475.72	13.281
2477.1	13.0219
2478.49	12.9693
2479.87	12.8691
2481.26	12.1798
2482.65	12.0253
2484.03	12.2199
2485.42	12.8378
2486.8	12.8205
2488.19	12.958
2489.57	12.863
2490.95	11.8527
2492.34	10.8052
2493.72	10.2198
2495.1	9.5948
2496.49	8.91421
2497.87	8.62321
2499.25	7.58551
2500.63	7.66814
2502.02	7.80781
2503.4	7.41452
2504.78	7.41385
2506.16	7.16313
2507.54	6.58078
2508.92	6.38311
2510.3	6.39846
2511.68	6.36866
2513.06	5.69289
2514.44	5.38882
2515.82	5.00972
2517.2	5.44647
2518.58	6.19598
2519.96	7.15451
2521.34	7.40041
2522.72	8.36837
2524.1	8.32711
2525.47	9.35872
2526.85	9.72901
2528.23	10.5377
2529.6	10.7225
2530.98	10.1409
2532.36	9.71749
2533.74	9.33256
2535.11	9.37387
2536.49	9.38457
2537.86	9.38453
2539.24	8.98168
2540.61	8.72496
2541.99	8.17808
2543.36	8.01581
2544.74	7.7143
2546.11	6.94747
2547.49	6.94653
2548.86	6.47148
2550.23	5.6759
2551.61	5.5567
2552.98	6.10576
2554.35	6.11189
2555.72	5.86214
2557.09	5.58945
2558.47	5.01798
2559.84	4.69411
2561.21	4.6211
2562.58	4.04969
2563.95	4.76259
2565.32	4.10902
2566.69	3.68758
2568.06	2.80331
2569.43	3.15229
2570.8	3.2511
2572.17	2.92837
2573.54	2.96776
2574.91	3.29989
2576.28	3.6029
2577.65	4.00785
2579.02	4.87965
2580.39	4.60158
2581.75	4.93663
2583.12	5.04371
2584.49	5.36411
2585.85	6.19253
2587.22	6.49762
2588.59	6.80006
2589.95	7.26198
2591.32	7.48727
2592.68	7.64185
2594.05	8.2024
2595.42	8.16072
2596.78	7.97058
2598.15	7.80132
2599.51	7.37351
2600.88	8.25601
2602.24	8.70013
2603.6	9.59548
2604.97	9.71959
2606.33	8.69857
2607.69	8.78641
2609.06	9.12105
2610.42	8.75465
2611.78	8.74662
2613.14	8.54356
2614.51	7.81733
2615.87	7.7427
2617.23	7.57974
2618.59	7.17994
2619.95	7.01165
2621.31	6.94823
2622.67	6.78666
2624.03	6.39576
2625.39	6.46991
2626.75	5.77758
2628.11	5.48216
2629.47	5.04303
2630.83	5.22344
2632.19	5.58337
2633.55	4.85613
2634.91	4.66878
2636.26	5.31932
2637.62	6.23573
2638.98	6.70586
2640.34	6.74434
2641.69	7.41072
2643.05	7.68991
2644.41	7.44404
2645.76	7.9602
2647.12	8.59006
2648.48	8.23536
2649.83	8.41523
2651.19	8.51236
2652.54	8.72791
2653.9	8.88876
2655.25	9.7263
2656.6	10.6276
2657.96	11.3645
2659.31	11.8147
2660.67	12.487
2662.02	12.8576
2663.37	12.8583
2664.73	13.3665
2666.08	13.6707
2667.43	13.4892
2668.78	14.2664
2670.14	14.2702
2671.49	14.1334
2672.84	13.2393
2674.19	13.04
2675.54	13.3974
2676.89	13.2553
2678.24	12.1194
2679.59	12.0519
2680.94	11.5707
2682.29	11.0796
2683.64	10.9579
2684.99	10.5221
2686.34	10.3051
2687.69	10.8843
2689.04	11.2274
2690.39	11.3626
2691.74	11.2117
2693.08	11.0972
2694.43	10.5707
2695.78	10.9855
2697.13	11.4267
2698.47	11.6125
2699.82	11.2773
2701.17	12.2131
2702.51	11.9316
2703.86	12.6083
2705.21	12.6884
2706.55	12.7805
2707.9	12.6291
2709.24	12.606
2710.58	11.9395
2711.93	12.2967
2713.27	12.8126
2714.62	13.2983
2715.96	13.3643
2717.3	13.956
2718.65	14.3729
2719.99	14.5802
2721.33	14.9394
2722.68	15.3921
2724.02	15.582
2725.36	15.2955
2726.71	14.3749
2728.05	14.9158
2729.39	14.7061
2730.73	14.8714
2732.07	15.3277
2733.41	15.2091
2734.75	15.3857
2736.09	15.5546
2737.43	15.2061
2738.77	14.4814
2740.11	13.8573
2741.45	13.7008
2742.79	13.4529
2744.13	12.7538
2745.47	12.0892
2746.81	12.6857
2748.14	12.1612
2749.48	12.4112
2750.82	13.4587
2752.16	13.2572
2753.49	13.1673
2754.83	12.9063
2756.17	12.0435
2757.5	11.5815
2758.84	11.2344
2760.18	10.576
2761.51	10.876
2762.85	10.7617
2764.18	10.719
2765.52	10.7939
2766.85	10.7324
2768.19	10.8586
2769.52	9.8077
2770.86	10.0485
2772.19	9.14444
2773.52	8.87372
2774.86	8.2901
2776.19	7.67743
2777.52	7.10221
2778.86	7.35218
2780.19	7.09605
2781.52	6.48136
2782.85	6.12655
2784.19	5.63453
2785.52	5.07709
2786.85	4.18237
2788.18	3.49695
2789.51	3.19819
2790.84	3.18824
2792.17	3.00112
2793.5	3.02543
2794.83	3.97815
2796.16	3.17017
2797.49	3.31927
2798.82	3.21937
2800.15	2.981
2801.48	2.56348
2802.81	2.06633
2804.13	1.89591
2805.46	0.991639
2806.79	1.28579
2808.12	1.34413
2809.45	1.2386
2810.77	1.40425
2812.1	1.61788
2813.43	1.66885
2814.75	1.97871
2816.08	2.68592
2817.41	3.07665
2818.73	2.92001
2820.06	4.2231
2821.38	5.13991
2822.71	6.20645
2824.03	7.76757
2825.36	9.34875
2826.68	11.2423
2828	13.8849
2829.33	15.9222
2830.65	18.7881
2831.98	21.0393
2833.3	22.3604
2834.62	23.998
2835.94	26.3894
2837.27	28.7304
2838.59	30.0136
2839.91	31.9126
2841.23	33.3743
2842.55	34.858
2843.87	36.6548
2845.2	39.1717
2846.52	41.1963
2847.84	43.6001
2849.16	46.552
2850.48	48.7137
2851.8	51.4271
2853.12	54.1496
2854.44	57.0083
2855.76	60.6231
2857.08	63.9899
2858.39	67.1232
2859.71	70.0217
2861.03	72.1635
2862.35	74.2885
2863.67	76.4311
2864.98	78.8039
2866.3	80.6603
2867.62	82.127
2868.94	83.4162
2870.25	85.0377
2871.57	85.7733
2872.88	87.4159
2874.2	88.2181
2875.52	90.2459
2876.83	92.0548
2878.15	93.7744
2879.46	94.5784
2880.78	95.4915
2882.09	96.3326
2883.41	97.8357
2884.72	99.6479
2886.03	100.533
2887.35	101.459
2888.66	103.805
2889.97	105.667
2891.29	106.807
2892.6	109.574
2893.91	111.73
2895.22	112.227
2896.54	114.103
2897.85	115.216
2899.16	116.608
2900.47	118.365
2901.78	121.099
2903.09	122.678
2904.4	125.108
2905.71	128.08
2907.02	131.011
2908.33	133.397
2909.64	136.634
2910.95	140.194
2912.26	143.73
2913.57	146.662
2914.88	149.523
2916.19	152.696
2917.5	155.678
2918.81	158.317
2920.11	161.046
2921.42	164.314
2922.73	166.586
2924.04	168.304
2925.34	168.997
2926.65	170.028
2927.96	170.874
2929.26	171.645
2930.57	172.239
2931.87	171.88
2933.18	171.446
2934.49	170.848
2935.79	170.329
2937.1	168.997
2938.4	167.502
2939.7	166.431
2941.01	164.531
2942.31	162.039
2943.62	159.477
2944.92	155.679
2946.22	152.882
2947.53	150.975
2948.83	147.992
2950.13	144.877
2951.43	141.822
2952.74	139.149
2954.04	136.297
2955.34	131.733
2956.64	128.295
2957.94	125.303
2959.24	121.111
2960.54	116.746
2961.84	114.654
2963.15	111.294
2964.45	108.886
2965.75	106.323
2967.05	104.024
2968.34	101.387
2969.64	98.9111
2970.94	96.1137
2972.24	92.4874
2973.54	89.6389
2974.84	87.5355
2976.14	84.7121
2977.43	81.7721
2978.73	78.5143
2980.03	75.6897
2981.33	73.1913
2982.62	70.7178
2983.92	67.6502
2985.22	65.0334
2986.51	62.2039
2987.81	59.0113
2989.11	56.2053
2990.4	53.0801
2991.7	50.1418
2992.99	47.2356
2994.29	44.865
2995.58	41.7216
2996.88	38.9602
2998.17	35.8831
2999.46	33.2609
3000.76	30.596
3002.05	28.0248
3003.34	25.3961
3004.64	23.6503
3005.93	21.0483
3007.22	19.2895
3008.52	16.9325
3009.81	15.3173
3011.1	13.6831
3012.39	12.2672
3013.68	9.41519
3014.97	8.42356
3016.27	7.40637
3017.56	5.98359
3018.85	4.21715
3020.14	2.4312
3021.43	1.96039
3022.72	1.33846
3024.01	0.553299
3025.3	0.206272
3026.59	0.209103
3027.88	-0.111418
3029.16	-0.458235
3030.45	-1.3025
3031.74	-1.69812
3033.03	-1.76516
3034.32	-2.06608
3035.6	-1.28843
3036.89	-1.47667
3038.18	-0.580147
3039.47	-0.532825
3040.75	-0.913816
3042.04	-0.155133
3043.33	0.259744
3044.61	0.663852
3045.9	0.913426
3047.18	1.07163
3048.47	0.689119
3049.75	0.772827
3051.04	1.34861
3052.32	1.42519
3053.61	1.44725
3054.89	1.61411
3056.18	1.5861
3057.46	2.15848
3058.74	1.65044
3060.03	0.830077
3061.31	0.727188
3062.59	0.916251
3063.88	2.07844
3065.16	2.39318
3066.44	2.60466
3067.72	2.6962
3069	3.12522
3070.29	3.63928
3071.57	4.04965
3072.85	3.85347
3074.13	4.08387
3075.41	4.32339
3076.69	4.51211
3077.97	5.12895
3079.25	5.41865
3080.53	4.98045
3081.81	3.89563
3083.09	3.89433
3084.37	4.09388
3085.65	3.91557
3086.93	3.67672
3088.21	2.99098
3089.49	2.78389
3090.76	2.21922
3092.04	2.16461
3093.32	1.78022
3094.6	1.78356
3095.87	2.51051
3097.15	2.97149
3098.43	3.26591
3099.7	3.2938
3100.98	3.07704
3102.26	2.75534
3103.53	2.36666
3104.81	2.5726
3106.08	3.44261
3107.36	3.00413
3108.63	3.23304
3109.91	3.1139
3111.18	3.44558
3112.46	3.89954
3113.73	4.6226
3115	5.47202
3116.28	5.78865
3117.55	6.55401
3118.83	7.11214
3120.1	7.04565
3121.37	7.32802
3122.64	7.31739
3123.92	8.23862
3125.19	9.75784
3126.46	11.2702
3127.73	12.4533
3129	12.3901
3130.27	13.1212
3131.55	14.0531
3132.82	14.7377
3134.09	15.3754
3135.36	15.664
3136.63	15.7362
3137.9	16.5974
3139.17	17.2111
3140.44	17.0069
3141.71	16.7916
3142.98	16.2928
3144.24	16.0793
3145.51	15.7144
3146.78	14.5018
3148.05	14.1318
3149.32	14.4585
