#Acq. time (s)=	45
#Accumulations=	2
#Range (cm-¹)=	200...3150
#Windows=	2
#Auto scanning=	Off
#Autofocus=	Off
#Macrospot=	Off
#AutoExposure=	Off
#Spike filter=	Multiple accum.
#Delay time (s)=	0
#Binning=	1
#Readout mode=	Signal
#DeNoise=	Off
#ICS correction=	On
#Dark correction=	Off
#Inst. Process=	Off
#Detector Gain=	Best Dynamic Range
#Detector ADC=	20 kHz       
#Detector temperature (°C)=	-69.85
#Instrument=	LabRAM HR Evol
#Detector=	Synapse
#Objective=	x100
#Grating=	600 gr/mm
#ND Filter=	100%
#Laser (nm)=	532 
#Hole=	100.021
#Range=	Auto
#Laser Pol.=	No
#Raman. Pol.=	No
#Laser Pol. (°)=	-0.0007625
#Raman Pol. (°)=	89.9995
#Collection=	Microscope
#StageXY=	Marzhauser
#StageZ=	Marzhauser
#X (µm)=	1960.3
#Y (µm)=	-96.4
#Z (µm)=	425.3
#Full time(mm:ss)=	3:09
#Project=	
#Sample=	
#Site=	
#Title=	Thy_40_11_01_2x_45s_532 nm_x100_100%_600 gr_mm
#Remark=	
#Date=	05.07.2022 09:52
#Acquired=	05.07.2022 09:52:11
#Base:Fit=	10.08.2022 10:00:48
#Base:Fit=	10.08.2022 10:01:07
#Base:Fit=	10.08.2022 10:01:15
#Base:Fit=	10.08.2022 10:01:35
#Base:Sub=	10.08.2022 10:01:52
#Filter:Polynom=	16.08.2022 10:21:53
#AxisType[0]=Intens
#AxisUnit[0]=Cnt
#AxisType[1]=Spectr
#AxisUnit[1]=1/cm
200.43	35.7013
202.244	38.0052
204.059	37.6996
205.873	39.0564
207.688	39.5904
209.501	40.2099
211.314	41.1018
213.127	41.8359
214.941	41.7621
216.753	41.5742
218.564	40.9067
220.375	39.8468
222.186	38.4218
223.999	37.0199
225.809	35.5842
227.618	33.8871
229.428	33.0282
231.236	31.4607
233.045	30.2535
234.855	29.56
236.663	28.1948
238.471	26.9189
240.278	26.1596
242.085	24.8854
243.891	23.7718
245.698	22.6272
247.503	20.9425
249.309	18.8699
251.116	15.6093
252.921	14.1202
254.725	12.6365
256.529	10.3949
258.333	10.0575
260.136	9.13989
261.939	9.20338
263.742	9.74376
265.544	8.35767
267.346	7.96812
269.148	6.47523
270.949	5.85036
272.75	5.6126
274.55	5.13923
276.351	3.92265
278.15	3.82471
279.95	4.06047
281.749	4.64573
283.548	3.82675
285.346	3.3546
287.144	3.49955
288.942	3.78955
290.739	4.2174
292.536	5.7958
294.333	6.45314
296.129	6.03927
297.925	6.55509
299.721	6.08186
301.514	6.41275
303.309	6.2632
305.104	5.69934
306.898	6.1649
308.692	6.24704
310.486	5.85969
312.279	6.16513
314.072	6.45953
315.862	5.93262
317.654	5.9643
319.446	6.7017
321.238	6.47401
323.029	6.76626
324.819	6.96688
326.608	7.06917
328.398	6.50109
330.188	6.51549
331.977	5.42183
333.766	4.75001
335.553	3.88352
337.341	3.2282
339.129	2.39701
340.917	2.42522
342.704	3.07684
344.489	3.25817
346.275	3.63252
348.062	4.0424
349.845	4.70399
351.631	2.51574
353.416	1.86192
355.201	1.49729
356.984	1.42951
358.768	1.49574
360.552	2.13287
362.333	2.98985
364.116	2.51376
365.899	2.70785
367.68	3.55157
369.462	3.93396
371.243	4.92581
373.023	4.44938
374.804	4.11053
376.585	5.3141
378.363	5.38662
380.143	5.97459
381.923	6.81658
383.7	6.30641
385.479	7.16545
387.256	7.26709
389.034	8.64217
390.812	9.59399
392.588	9.86313
394.365	10.1306
396.14	10.5067
397.916	10.3463
399.691	10.0778
401.467	10.26
403.24	10.097
405.015	9.60025
406.788	10.6647
408.563	11.0153
410.335	9.8709
412.109	9.64525
413.88	8.67333
415.654	7.83298
417.424	6.13788
419.197	5.67094
420.967	4.60824
422.739	4.78997
424.508	4.9406
426.279	4.69599
428.048	4.72847
429.819	4.85356
431.587	4.57508
433.356	3.66156
435.124	2.77871
436.891	2.67356
438.66	2.9123
440.426	1.91849
442.194	3.12724
443.96	4.71025
445.725	5.39303
447.492	5.91025
449.257	6.94815
451.021	8.06565
452.787	8.4517
454.551	9.56185
456.314	10.0667
458.079	11.1313
459.842	12.3767
461.604	12.989
463.368	13.6449
465.13	15.4513
466.891	15.7579
468.654	16.4454
470.415	16.8692
472.175	17.2135
473.935	17.7003
475.696	18.3108
477.456	19.3422
479.215	18.9061
480.973	19.8187
482.733	20.8206
484.491	21.7692
486.249	21.845
488.006	22.4791
489.765	23.4901
491.522	23.9428
493.278	24.0994
495.034	24.322
496.789	23.8763
498.544	23.4523
500.301	23.9814
502.056	23.8665
503.81	24.3034
505.564	24.3349
507.317	25.0906
509.071	25.346
510.825	25.7808
512.578	25.4846
514.33	25.5971
516.082	25.9022
517.833	25.7412
519.585	25.3643
521.335	25.335
523.086	26.0641
524.836	26.0385
526.586	26.1924
528.335	26.8122
530.085	27.2019
531.835	27.2169
533.584	27.3683
535.332	27.3568
537.08	27.2888
538.827	27.0619
540.574	26.2108
542.321	26.8922
544.068	26.4804
545.814	26.2185
547.56	25.6993
549.305	25.0225
551.05	24.7343
552.795	25.4053
554.54	24.3388
556.282	22.9798
558.025	22.226
559.769	21.3688
561.512	20.5123
563.255	19.8434
564.997	18.3404
566.739	17.4622
568.481	16.8901
570.223	16.658
571.964	15.7708
573.705	15.2304
575.443	15.4354
577.183	15.5151
578.923	14.0992
580.663	12.9491
582.402	12.7639
584.141	13.123
585.879	13.9779
587.615	13.934
589.353	13.4842
591.09	13.0741
592.828	13.5145
594.564	14.289
596.299	13.263
598.035	13.574
599.771	13.309
601.506	14.3614
603.242	14.4105
604.974	14.4865
606.709	15.8157
608.443	16.8835
610.177	17.4153
611.908	18.7698
613.642	19.1243
615.374	20.0353
617.105	19.7788
618.837	21.1417
620.569	22.2524
622.3	23.1146
624.03	24.7925
625.761	26.4366
627.491	27.1606
629.219	28.0926
630.949	28.6365
632.677	29.4283
634.406	30.079
636.135	30.3876
637.861	31.1042
639.59	30.4756
641.318	29.5613
643.043	28.7417
644.77	28.9633
646.495	28.9854
648.222	29.3139
649.948	30.5773
651.672	30.6916
653.398	31.627
655.121	32.5648
656.846	32.9944
658.569	32.9855
660.293	32.9597
662.015	32.8461
663.738	33.0546
665.46	32.3056
667.183	33.2262
668.903	34.622
670.626	35.195
672.346	35.5977
674.067	34.5841
675.787	34.5734
677.508	35.2012
679.226	36.1688
680.947	36.2003
682.665	36.1114
684.385	38.5688
686.102	39.233
687.821	40.7893
689.538	41.2827
691.254	43.2368
692.972	44.7288
694.688	45.4229
696.406	46.6557
698.121	47.1376
699.835	47.424
701.552	48.7214
703.266	49.6695
704.98	51.1919
706.695	51.5859
708.409	52.8414
710.121	54.3616
711.836	54.9079
713.548	55.7604
715.26	56.9768
716.973	58.4441
718.685	58.9868
720.396	60.261
722.108	62.0703
723.818	63.7679
725.528	64.9816
727.238	65.6783
728.949	66.4741
730.658	68.3634
732.367	70.3831
734.075	71.5745
735.785	72.0566
737.493	71.6162
739.2	72.581
740.907	72.6985
742.614	72.4417
744.322	73.5908
746.028	74.4679
747.734	76.157
749.439	76.9858
751.144	78.0509
752.849	79.4204
754.555	80.8204
756.26	81.5388
757.963	82.276
759.667	82.6894
761.37	84.1454
763.073	85.8847
764.775	86.7834
766.477	87.7953
768.179	88.9739
769.883	89.979
771.584	90.132
773.285	90.2519
774.986	90.839
776.686	91.1181
778.386	90.5667
780.085	91.221
781.785	90.8586
783.484	90.4512
785.182	90.8615
786.881	91.1033
788.579	91.9272
790.276	91.3892
791.974	92.7219
793.671	93.8866
795.367	95.1973
797.064	95.7228
798.76	96.8878
800.456	98.6687
802.151	99.8039
803.846	99.8746
805.541	101.223
807.234	101.677
808.928	101.793
810.622	101.778
812.315	102.396
814.008	103.356
815.701	103.07
817.394	103.567
819.086	103.24
820.778	103.285
822.468	103.812
824.159	104.289
825.85	103.728
827.541	104.578
829.231	104.796
830.921	104.301
832.609	104.114
834.298	103.072
835.987	101.844
837.676	101.248
839.364	101
841.051	98.7142
842.738	97.7061
844.426	96.5538
846.113	94.9769
847.798	94.4922
849.484	92.6524
851.171	91.3542
852.857	89.6825
854.54	88.0568
856.226	86.5245
857.911	83.8307
859.593	82.916
861.278	81.0919
862.961	80.0535
864.645	79.416
866.327	77.4523
868.01	76.8048
869.692	75.9933
871.373	75.2948
873.055	74.8587
874.735	73.6041
876.416	73.8798
878.097	73.8215
879.776	72.7156
881.457	71.998
883.135	71.7938
884.815	71.8269
886.495	70.8552
888.172	70.4507
889.851	71.4045
891.528	70.5587
893.206	70.7083
894.882	70.9175
896.56	71.0138
898.237	70.0571
899.912	68.8092
901.589	70.1049
903.263	69.3889
904.94	69.2998
906.614	68.5512
908.289	68.3256
909.962	68.1367
911.635	67.851
913.31	66.3412
914.982	65.7498
916.656	65.0823
918.328	63.5408
920.001	63.1507
921.672	63.2156
923.345	62.9241
925.015	61.7235
926.685	61.9633
928.357	61.853
930.026	61.3752
931.698	61.7992
933.366	60.9346
935.035	60.4298
936.705	60.383
938.373	60.1849
940.041	59.7912
941.71	59.2447
943.377	59.1992
945.044	58.0712
946.712	56.5133
948.378	55.4238
950.044	54.191
951.709	55.0062
953.376	55.2204
955.041	55.4397
956.706	55.6697
958.372	55.6762
960.036	55.2239
961.699	55.2962
963.362	54.8563
965.027	55.7768
966.69	56.6419
968.352	57.5201
970.014	57.1507
971.676	58.2688
973.339	58.0408
975	57.5917
976.661	58.3447
978.322	58.3091
979.982	58.4568
981.642	57.9614
983.303	57.31
984.962	58.3297
986.621	58.4042
988.28	59.2186
989.938	58.5973
991.596	58.5259
993.254	58.2635
994.911	56.9939
996.57	57.5118
998.227	57.3647
999.884	56.6245
1001.54	56.6704
1003.2	57.4052
1004.85	57.4528
1006.51	57.2111
1008.16	56.6153
1009.82	56.1671
1011.47	54.8215
1013.12	54.0658
1014.78	54.0405
1016.43	53.5079
1018.08	51.6649
1019.74	51.0003
1021.39	49.9395
1023.04	49.0827
1024.69	48.1916
1026.34	46.8368
1028	47.0263
1029.65	47.682
1031.3	48.6131
1032.95	49.8169
1034.6	50.5026
1036.25	49.5131
1037.9	49.286
1039.54	49.0643
1041.19	48.3868
1042.84	47.2332
1044.49	47.4525
1046.14	47.8827
1047.78	46.7301
1049.43	47.0344
1051.08	46.7042
1052.72	45.058
1054.37	44.1206
1056.02	42.1719
1057.66	41.5502
1059.31	40.7558
1060.95	40.1708
1062.6	39.0974
1064.24	38.2697
1065.88	38.0762
1067.53	38.7462
1069.17	39.0933
1070.81	38.2644
1072.45	38.1946
1074.1	38.2873
1075.74	38.2748
1077.38	37.3407
1079.02	37.2882
1080.66	35.634
1082.3	34.8605
1083.94	34.9603
1085.58	34.592
1087.22	33.4929
1088.86	31.7982
1090.5	30.9892
1092.14	29.7801
1093.78	29.339
1095.42	29.9377
1097.05	29.7593
1098.69	28.7772
1100.33	28.5999
1101.96	29.576
1103.6	29.3172
1105.24	29.5461
1106.87	29.5788
1108.51	29.4272
1110.14	29.837
1111.78	28.9783
1113.41	27.6726
1115.05	26.88
1116.68	25.4032
1118.31	24.2863
1119.95	23.722
1121.58	22.2561
1123.21	20.9796
1124.85	19.7033
1126.48	19.2514
1128.11	18.3412
1129.74	16.4717
1131.37	15.8385
1133	14.1147
1134.63	12.3409
1136.26	12.2962
1137.89	11.2325
1139.52	10.3801
1141.15	9.5341
1142.78	8.92994
1144.41	7.77892
1146.04	7.97952
1147.66	8.01026
1149.29	8.46265
1150.92	8.12181
1152.55	6.49959
1154.17	6.6233
1155.8	4.98631
1157.43	3.42016
1159.05	2.20277
1160.68	1.57438
1162.3	0.187366
1163.93	-0.0603382
1165.55	0.52162
1167.17	0.325827
1168.8	0.274319
1170.42	0.578571
1172.05	0.944426
1173.67	1.75072
1175.29	3.10752
1176.91	3.3554
1178.54	3.65924
1180.16	3.71595
1181.78	4.17933
1183.4	4.09014
1185.02	3.83666
1186.64	3.55829
1188.26	3.75906
1189.88	3.78462
1191.5	3.897
1193.12	4.24284
1194.74	3.79771
1196.36	4.46154
1197.97	5.01724
1199.59	6.12026
1201.21	6.84019
1202.83	7.11208
1204.44	7.77327
1206.06	7.90438
1207.68	9.66377
1209.29	10.3676
1210.91	11.4255
1212.52	12.549
1214.14	13.9984
1215.75	15.1275
1217.37	15.4295
1218.98	16.5846
1220.59	18.4436
1222.21	20.2624
1223.82	21.3579
1225.43	22.0518
1227.05	24.1484
1228.66	25.8279
1230.27	27.6829
1231.88	29.4588
1233.49	29.9605
1235.1	32.527
1236.72	33.1552
1238.33	34.3004
1239.94	36.5176
1241.55	38.0699
1243.16	40.1094
1244.76	42.677
1246.37	45.1726
1247.98	46.2963
1249.59	48.4658
1251.2	49.9132
1252.8	51.827
1254.41	54.5964
1256.02	55.7619
1257.62	55.7447
1259.23	57.11
1260.84	59.0084
1262.44	60.5225
1264.05	62.0119
1265.66	63.5312
1267.26	64.3917
1268.86	65.9925
1270.47	66.97
1272.07	68.452
1273.67	69.6657
1275.28	70.4043
1276.88	72.6677
1278.48	73.1321
1280.09	74.182
1281.69	74.9453
1283.29	74.1466
1284.89	74.2977
1286.49	75.2345
1288.09	76.7796
1289.69	78.1019
1291.29	79.313
1292.89	79.1508
1294.49	80.0399
1296.09	80.348
1297.69	79.5179
1299.29	80.9579
1300.89	81.1012
1302.49	80.373
1304.08	78.9706
1305.68	78.79
1307.28	80.6857
1308.88	81.0441
1310.47	80.7149
1312.07	80.0405
1313.66	78.8433
1315.26	78.7964
1316.85	77.7742
1318.45	77.9286
1320.04	76.796
1321.64	74.8745
1323.23	74.0547
1324.83	73.0746
1326.42	72.4613
1328.01	71.1647
1329.61	71.1664
1331.2	69.874
1332.79	68.9386
1334.38	66.6314
1335.97	64.9965
1337.56	63.9662
1339.16	63.3384
1340.75	62.8485
1342.34	60.4074
1343.93	58.925
1345.52	57.187
1347.11	55.6031
1348.7	54.1226
1350.29	52.9677
1351.87	51.8357
1353.46	50.1559
1355.05	48.0864
1356.64	47.3304
1358.22	45.1526
1359.81	44.6083
1361.4	43.4028
1362.98	41.9857
1364.57	42.0769
1366.16	42.2968
1367.74	41.5535
1369.33	42.0129
1370.91	40.6011
1372.5	39.2701
1374.08	38.8772
1375.67	38.0221
1377.25	37.1202
1378.83	37.1245
1380.41	36.1294
1382	34.2409
1383.58	33.8636
1385.16	34.2681
1386.74	33.946
1388.33	32.4877
1389.91	32.0731
1391.49	31.5931
1393.07	31.5902
1394.65	31.2761
1396.23	31.2539
1397.81	29.9095
1399.39	28.5318
1400.97	27.8793
1402.55	28.4369
1404.13	28.6386
1405.7	29.0381
1407.28	28.9637
1408.86	29.103
1410.44	28.9864
1412.01	29.4659
1413.59	29.6147
1415.17	31.288
1416.74	32.1577
1418.32	32.742
1419.89	34.7165
1421.47	36.2899
1423.04	38.5675
1424.62	40.4305
1426.19	42.8394
1427.77	44.673
1429.34	46.9803
1430.91	50.5697
1432.49	53.7766
1434.06	55.4832
1435.63	59.1335
1437.2	61.7967
1438.78	64.8423
1440.35	67.0792
1441.92	69.103
1443.49	70.9153
1445.06	73.2242
1446.63	74.8884
1448.2	75.7341
1449.77	75.9819
1451.34	76.6797
1452.91	76.3012
1454.48	76.0428
1456.05	75.5093
1457.62	74.3907
1459.18	74.0195
1460.75	72.7513
1462.32	71.8885
1463.89	69.918
1465.45	67.8441
1467.02	66.741
1468.59	64.7871
1470.15	62.4845
1471.72	59.3695
1473.28	56.4036
1474.85	53.2997
1476.41	49.5548
1477.98	46.744
1479.54	43.8518
1481.1	40.8973
1482.67	38.5715
1484.23	35.5116
1485.79	32.7815
1487.36	30.2271
1488.92	27.6156
1490.48	25.332
1492.04	23.4107
1493.61	22.1062
1495.17	20.5983
1496.73	18.769
1498.29	17.4102
1499.85	17.0788
1501.41	15.9555
1502.97	15.497
1504.53	15.035
1506.09	14.1389
1507.65	13.8569
1509.2	14.8031
1510.76	14.0976
1512.32	13.4907
1513.88	14.5209
1515.43	14.8837
1516.99	15.2537
1518.55	15.8603
1520.1	14.8291
1521.66	15.8822
1523.22	16.0719
1524.77	16.1269
1526.33	16.4311
1527.88	17.0327
1529.44	17.4507
1530.99	17.5122
1532.54	18.5984
1534.1	19.4591
1535.65	20.262
1537.21	21.5216
1538.76	22.92
1540.31	23.907
1541.86	24.839
1543.42	26.4483
1544.97	28.0179
1546.52	29.9488
1548.07	31.4665
1549.62	32.1987
1551.17	34.9015
1552.72	35.6359
1554.27	37.0511
1555.82	38.738
1557.37	40.7565
1558.92	41.8977
1560.47	43.7562
1562.02	44.6928
1563.56	46.4525
1565.11	48.2293
1566.66	49.4067
1568.21	51.7708
1569.75	53.3977
1571.3	55.2286
1572.85	56.5224
1574.39	57.4916
1575.94	59.3933
1577.49	61.2687
1579.03	62.7495
1580.57	63.5945
1582.12	65.2476
1583.66	66.3826
1585.21	67.969
1586.75	69.1088
1588.3	69.3395
1589.84	70.2065
1591.38	71.2868
1592.92	72.2472
1594.47	72.6738
1596.01	72.8125
1597.55	72.7349
1599.09	73.6291
1600.63	73.4748
1602.17	73.2461
1603.71	72.7145
1605.25	72.3818
1606.79	72.4196
1608.33	72.1391
1609.87	72.523
1611.41	72.7458
1612.95	72.6096
1614.49	73.1791
1616.03	74.2139
1617.57	74.2348
1619.1	74.2783
1620.64	75.8787
1622.18	77.0409
1623.72	78.7127
1625.25	79.0767
1626.79	79.6433
1628.32	80.555
1629.86	81.7625
1631.39	83.6282
1632.93	85.1763
1634.46	86.6291
1636	87.6904
1637.53	89.5162
1639.07	92.0162
1640.6	94.2618
1642.13	96.3591
1643.67	97.7649
1645.2	100.406
1646.73	101.69
1648.26	103.095
1649.8	104.961
1651.33	106.116
1652.86	107.628
1654.39	108.866
1655.92	110.514
1657.45	110.702
1658.98	111.308
1660.51	110.742
1662.04	110.653
1663.57	110.32
1665.1	110.113
1666.63	109.972
1668.16	108.42
1669.68	106.36
1671.21	103.6
1672.74	101.376
1674.27	98.4329
1675.79	94.8932
1677.32	92.532
1678.85	88.5486
1680.37	86.1329
1681.9	82.5669
1683.42	79.302
1684.95	75.8568
1686.47	72.7657
1688	68.7628
1689.52	65.5486
1691.05	63.0512
1692.57	59.6792
1694.09	56.116
1695.62	52.6759
1697.14	50.4127
1698.66	47.7323
1700.18	44.8988
1701.71	42.4303
1703.23	39.9167
1704.75	38.1903
1706.27	36.3696
1707.79	33.9208
1709.31	32.6074
1710.83	31.2094
1712.35	30.24
1713.87	29.2868
1715.39	28.5283
1716.91	28.0733
1718.43	27.6117
1719.95	27.3328
1721.47	27.3324
1722.99	26.5235
1724.5	26.5051
1726.02	26.4191
1727.54	25.4764
1729.06	25.5128
1730.57	25.227
1732.09	25.2604
1733.61	25.3938
1735.12	25.1061
1736.64	24.8256
1738.15	23.9877
1739.67	23.8817
1741.18	23.2792
1742.7	23.0679
1744.21	21.8064
1745.72	21.3288
1747.24	21.7013
1748.75	21.1782
1750.26	20.4819
1751.77	20.0033
1753.29	19.9293
1754.8	19.0136
1756.31	18.7978
1757.82	17.7705
1759.33	18.0404
1760.84	17.2506
1762.36	16.5716
1763.87	16.0898
1765.38	15.6406
1766.89	14.7031
1768.4	14.2969
1769.91	13.9306
1771.41	13.7259
1772.92	14.3074
1774.43	14.9191
1775.94	14.2372
1777.45	14.5159
1778.95	13.6371
1780.46	13.1934
1781.97	12.8734
1783.48	13.0971
1784.98	13.2583
1786.49	13.2197
1787.99	13.379
1789.5	13.0872
1791.01	12.9608
1792.51	12.5056
1794.01	11.9729
1795.52	11.9329
1797.02	11.213
1798.53	10.5912
1800.03	10.0841
1801.53	9.37565
1803.04	9.08948
1804.54	9.06316
1806.04	8.75067
1807.54	8.93454
1809.05	8.48675
1810.55	7.26989
1812.05	7.00336
1813.55	6.73679
1815.05	7.41957
1816.55	7.44468
1818.05	7.33948
1819.55	6.29311
1821.05	6.0663
1822.55	6.09454
1824.05	5.07128
1825.55	5.35503
1827.05	4.96517
1828.55	4.41489
1830.04	4.41903
1831.54	4.36242
1833.04	4.57767
1834.54	4.18484
1836.03	3.57759
1837.53	3.19538
1839.03	3.3744
1840.52	3.20889
1842.02	3.52125
1843.51	3.87831
1845.01	4.14044
1846.5	4.71281
1848	4.66783
1849.49	4.17317
1850.99	3.47918
1852.48	3.36396
1853.97	2.9465
1855.47	3.23029
1856.96	3.29016
1858.45	3.53012
1859.94	3.15266
1861.44	2.8342
1862.93	1.71286
1864.42	1.06751
1865.91	0.79747
1867.4	0.521884
1868.89	0.431516
1870.38	-0.267995
1871.87	-0.414843
1873.36	-0.195695
1874.85	-1.0842
1876.34	-1.00208
1877.83	-1.22599
1879.32	-1.1899
1880.81	-1.22971
1882.3	-1.5154
1882.57	-1.29382
1884.07	-1.80298
1885.56	-1.51119
1887.06	-2.14457
1888.55	-2.21261
1890.04	-2.27457
1891.54	-2.17971
1893.03	-1.84735
1894.52	-1.23143
1896.02	-1.13388
1897.51	-1.21064
1899	-0.798601
1900.49	-0.581496
1901.98	-0.608233
1903.47	0.522682
1904.96	0.754143
1906.45	0.808834
1907.94	1.21007
1909.43	1.67729
1910.92	2.28878
1912.41	2.31316
1913.9	2.78185
1915.39	3.55401
1916.88	4.10186
1918.37	4.29698
1919.85	4.15009
1921.34	4.09618
1922.83	4.35916
1924.32	4.87147
1925.8	5.46203
1927.29	5.81552
1928.78	5.90012
1930.26	5.92363
1931.75	5.85137
1933.23	5.64668
1934.72	5.58993
1936.2	5.52324
1937.69	6.43005
1939.17	5.99952
1940.66	5.9961
1942.14	6.4712
1943.63	6.82817
1945.11	6.84631
1946.59	5.81106
1948.07	5.19181
1949.56	6.05958
1951.04	5.83472
1952.52	5.93595
1954	6.03125
1955.48	5.05261
1956.96	5.11834
1958.45	4.4129
1959.93	4.37771
1961.41	4.60003
1962.89	4.88871
1964.37	4.96163
1965.85	5.22502
1967.32	5.42652
1968.8	5.69352
1970.28	5.37037
1971.76	5.18169
1973.24	5.25292
1974.72	4.5496
1976.19	4.26452
1977.67	4.57985
1979.15	4.2919
1980.63	5.04814
1982.1	5.02627
1983.58	4.49137
1985.05	4.69201
1986.53	4.5249
1988	4.68392
1989.48	4.92564
1990.95	5.04163
1992.43	4.29754
1993.9	3.90284
1995.38	4.25572
1996.85	4.17776
1998.32	4.47873
1999.8	4.86754
2001.27	4.8989
2002.74	4.94217
2004.22	5.2011
2005.69	5.01185
2007.16	5.06638
2008.63	4.83622
2010.1	5.05921
2011.57	4.94633
2013.04	3.88002
2014.51	4.43707
2015.98	4.70511
2017.45	3.9065
2018.92	3.60816
2020.39	3.72827
2021.86	4.3221
2023.33	4.32561
2024.8	3.93848
2026.27	3.69989
2027.74	3.51707
2029.2	3.30082
2030.67	4.0217
2032.14	4.00652
2033.61	4.63871
2035.07	4.73865
2036.54	4.22104
2038.01	4.82688
2039.47	5.97081
2040.94	6.29343
2042.4	6.44319
2043.87	5.93332
2045.33	5.7168
2046.8	6.08139
2048.26	6.42583
2049.72	7.33194
2051.19	7.69433
2052.65	8.54928
2054.12	9.6247
2055.58	9.2287
2057.04	10.2781
2058.5	10.9245
2059.97	11.4233
2061.43	12.0651
2062.89	13.2516
2064.35	13.8843
2065.81	13.3895
2067.27	14.0149
2068.73	15.3845
2070.19	15.654
2071.65	16.8632
2073.11	17.9178
2074.57	17.986
2076.03	18.0241
2077.49	18.016
2078.95	17.8182
2080.41	18.5611
2081.87	18.9785
2083.32	18.8238
2084.78	19.4248
2086.24	20.21
2087.7	21.4677
2089.15	22.7845
2090.61	23.3907
2092.07	24.081
2093.52	24.2235
2094.98	24.6291
2096.43	25.1931
2097.89	25.871
2099.34	27.0691
2100.8	28.11
2102.25	30.0218
2103.71	31.2343
2105.16	32.1454
2106.61	33.5502
2108.07	34.3754
2109.52	36.9038
2110.97	38.6608
2112.43	40.4477
2113.88	41.7398
2115.33	43.7904
2116.78	45.1494
2118.23	47.1844
2119.68	49.3487
2121.13	51.6456
2122.59	53.5546
2124.04	55.4653
2125.49	58.4687
2126.94	60.9162
2128.39	62.298
2129.83	65.4325
2131.28	67.47
2132.73	69.8968
2134.18	72.2711
2135.63	74.0234
2137.08	75.6177
2138.53	77.4341
2139.97	80.2073
2141.42	82.8563
2142.87	84.8866
2144.31	87.5191
2145.76	89.2443
2147.21	91.1072
2148.65	93.4235
2150.1	94.9748
2151.54	96.7284
2152.99	98.7587
2154.43	100.728
2155.88	102.249
2157.32	104.36
2158.77	105.511
2160.21	106.892
2161.65	108.479
2163.1	108.546
2164.54	109.216
2165.98	109.835
2167.43	111.149
2168.87	111.947
2170.31	112.661
2171.75	113.773
2173.19	113.673
2174.64	113.587
2176.07	113.284
2177.52	113.155
2178.96	112.754
2180.4	112.493
2181.84	112.444
2183.28	111.048
2184.72	110.39
2186.15	109.148
2187.59	107.83
2189.03	106.963
2190.47	105.728
2191.91	104.3
2193.35	102.393
2194.78	100.453
2196.22	99.0689
2197.66	97.5443
2199.09	95.2203
2200.53	93.566
2201.97	92.6407
2203.4	90.3308
2204.84	88.0097
2206.27	86.1659
2207.71	83.6449
2209.14	81.6357
2210.58	79.8595
2212.01	77.6677
2213.45	75.959
2214.88	73.2522
2216.31	71.2801
2217.75	68.5719
2219.18	66.3002
2220.61	63.903
2222.05	60.7423
2223.48	58.8664
2224.91	56.8101
2226.34	54.9828
2227.78	52.5828
2229.21	50.429
2230.64	48.4566
2232.07	46.6275
2233.5	44.5111
2234.93	43.0329
2236.36	41.5675
2237.79	39.7207
2239.22	38.2927
2240.65	37.4047
2242.08	36.6604
2243.5	35.432
2244.93	33.2399
2246.36	32.0848
2247.79	31.2483
2249.22	30.5858
2250.64	29.2913
2252.07	28.845
2253.5	28.4394
2254.92	27.6864
2256.35	26.9443
2257.78	26.4798
2259.2	26.0146
2260.63	25.6342
2262.05	24.832
2263.48	23.9368
2264.9	23.0598
2266.33	23.4046
2267.75	23.0423
2269.18	23.3623
2270.6	22.8898
2272.02	23.1547
2273.45	23.0376
2274.87	21.9526
2276.29	21.4424
2277.71	20.4065
2279.14	19.5244
2280.56	18.6687
2281.98	18.2852
2283.4	17.7427
2284.82	17.2942
2286.24	15.5758
2287.66	15.3455
2289.08	13.898
2290.5	13.2635
2291.92	11.9913
2293.34	11.1221
2294.76	10.695
2296.18	10.1678
2297.6	9.91662
2299.02	9.76056
2300.44	8.88882
2301.86	9.18573
2303.27	9.48739
2304.69	9.42939
2306.11	9.52938
2307.53	8.82233
2308.94	8.88941
2310.36	8.97506
2311.78	9.68608
2313.19	9.82952
2314.61	9.89192
2316.02	9.93626
2317.44	10.6124
2318.85	11.1821
2320.27	11.8579
2321.68	11.569
2323.1	11.6874
2324.51	11.5552
2325.92	10.4419
2327.34	9.85234
2328.75	9.84109
2330.16	9.52792
2331.58	9.34048
2332.99	9.81936
2334.4	9.07339
2335.81	9.13381
2337.23	9.57398
2338.64	9.05532
2340.05	8.75619
2341.46	7.78331
2342.87	7.73103
2344.28	7.23754
2345.69	6.66903
2347.1	6.39934
2348.51	5.45069
2349.92	5.02415
2351.33	4.32379
2352.74	4.10114
2354.15	3.04879
2355.55	2.29368
2356.96	1.43158
2358.37	0.76195
2359.78	-0.0255051
2361.19	-0.156517
2362.59	-0.449426
2364	0.508094
2365.41	0.869307
2366.81	0.670309
2368.22	0.634595
2369.62	0.810551
2371.03	0.842449
2372.44	1.74364
2373.84	2.00359
2375.24	1.87081
2376.65	2.33835
2378.05	2.95128
2379.46	3.50706
2380.86	3.70801
2382.26	4.56063
2383.67	5.04676
2385.07	5.33941
2386.47	5.34304
2387.88	5.44964
2389.28	5.26255
2390.68	4.6609
2392.08	5.25184
2393.48	4.69232
2394.89	4.93887
2396.29	4.88047
2397.69	5.29834
2399.09	5.83538
2400.49	6.57769
2401.89	6.80545
2403.29	6.93196
2404.69	7.32503
2406.09	7.72066
2407.48	8.56983
2408.88	9.26821
2410.28	9.33386
2411.68	9.59621
2413.08	10.3586
2414.48	11.0704
2415.87	11.1424
2417.27	10.5238
2418.67	10.6081
2420.06	10.3565
2421.46	10.9212
2422.86	11.1315
2424.25	11.0327
2425.65	10.8964
2427.04	11.1606
2428.44	11.0224
2429.83	11.4596
2431.23	11.6267
2432.62	11.3949
2434.02	11.2356
2435.41	11.0181
2436.81	10.9802
2438.2	11.3275
2439.59	11.7522
2440.99	11.7217
2442.38	10.9685
2443.77	9.89548
2445.16	9.09812
2446.56	8.25334
2447.95	8.35145
2449.34	7.56399
2450.73	6.98132
2452.12	6.78177
2453.51	6.63571
2454.9	6.55736
2456.29	5.68215
2457.68	5.63972
2459.07	5.02328
2460.46	5.10704
2461.85	5.3846
2463.24	5.02451
2464.63	5.14552
2466.02	5.3555
2467.4	5.84042
2468.79	6.33545
2470.18	6.74816
2471.57	5.75899
2472.95	6.00134
2474.34	6.44168
2475.73	5.92334
2477.12	6.67944
2478.5	6.64424
2479.89	5.67898
2481.27	5.60368
2482.66	6.80543
2484.04	6.53507
2485.43	6.60493
2486.81	6.61178
2488.2	7.07013
2489.58	6.52597
2490.97	6.84465
2492.35	6.64366
2493.73	6.31287
2495.12	5.906
2496.5	5.97523
2497.88	5.41304
2499.27	5.27309
2500.65	4.4794
2502.03	3.78069
2503.41	2.94465
2504.79	3.1895
2506.17	2.57084
2507.56	1.8461
2508.94	1.08946
2510.32	0.664719
2511.7	0.511788
2513.08	-0.0605073
2514.46	0.932353
2515.84	-0.0162532
2517.22	0.208247
2518.59	-0.769481
2519.97	-0.754911
2521.35	-0.562776
2522.73	-0.152243
2524.11	-0.357992
2525.49	0.265554
2526.86	0.759907
2528.24	0.449903
2529.62	0.370558
2530.99	0.714204
2532.37	1.283
2533.75	1.01795
2535.12	1.33511
2536.5	0.85628
2537.88	0.876685
2539.25	0.868081
2540.63	0.712028
2542	1.17905
2543.38	1.74244
2544.75	1.88735
2546.12	2.52147
2547.5	2.1561
2548.87	2.35165
2550.24	3.15785
2551.62	3.60702
2552.99	3.12211
2554.36	2.93386
2555.74	2.23719
2557.11	3.02581
2558.48	2.48708
2559.85	2.77471
2561.22	2.44416
2562.59	2.53721
2563.96	2.41523
2565.34	2.11843
2566.71	2.0183
2568.08	1.46919
2569.45	1.19713
2570.82	0.752261
2572.18	0.760608
2573.55	1.51942
2574.92	1.61782
2576.29	1.64772
2577.66	2.09378
2579.03	2.75843
2580.4	2.82767
2581.77	2.64607
2583.13	3.50028
2584.5	2.83364
2585.87	4.14405
2587.23	5.45781
2588.6	6.51143
2589.97	6.86563
2591.33	7.24578
2592.7	7.15014
2594.06	7.86096
2595.43	7.70422
2596.79	8.07971
2598.16	8.5917
2599.52	9.45671
2600.89	9.5791
2602.25	10.2667
2603.62	10.3858
2604.98	11.033
2606.34	12.1635
2607.71	12.1069
2609.07	12.2728
2610.43	12.4444
2611.79	12.2239
2613.16	12.0468
2614.52	11.9873
2615.88	11.814
2617.24	11.7421
2618.6	11.0462
2619.96	10.7398
2621.32	10.3591
2622.68	10.0206
2624.04	9.99146
2625.4	9.64406
2626.76	8.00516
2628.12	7.7154
2629.48	6.76147
2630.84	6.04042
2632.2	5.47724
2633.56	5.10281
2634.92	4.92281
2636.28	4.26699
2637.63	3.75456
2638.99	2.42565
2640.35	2.32514
2641.71	2.64147
2643.06	2.4287
2644.42	2.53512
2645.77	3.00072
2647.13	2.80656
2648.49	2.96786
2649.84	2.5866
2651.2	2.99143
2652.55	2.78591
2653.91	2.52942
2655.26	2.64055
2656.62	2.05459
2657.97	1.86519
2659.33	1.69868
2660.68	2.32038
2662.03	3.06149
2663.39	3.76323
2664.74	3.88875
2666.09	3.87466
2667.44	3.91627
2668.8	4.06339
2670.15	4.56392
2671.5	4.76059
2672.85	5.19567
2674.2	5.39681
2675.55	5.21201
2676.91	5.52387
2678.26	5.93614
2679.61	6.10731
2680.96	6.66558
2682.31	6.30795
2683.66	6.35583
2685	5.99378
2686.35	5.45062
2687.7	5.37497
2689.05	4.83562
2690.4	5.15841
2691.75	5.01631
2693.1	4.8508
2694.44	5.16833
2695.79	5.71679
2697.14	5.6543
2698.49	6.66396
2699.83	7.66944
2701.18	7.95833
2702.52	7.934
2703.87	8.14731
2705.22	8.14411
2706.56	7.9085
2707.91	8.16128
2709.25	8.79802
2710.6	8.25142
2711.94	8.86731
2713.29	9.90978
2714.63	10.3962
2715.97	10.5327
2717.32	10.4152
2718.66	10.9994
2720.01	10.8885
2721.35	11.5811
2722.69	11.8962
2724.03	11.9696
2725.38	12.3047
2726.72	12.6199
2728.06	14.2663
2729.4	14.7044
2730.74	14.9697
2732.08	14.3646
2733.42	14.7489
2734.76	14.8152
2736.1	14.9966
2737.44	15.3744
2738.78	15.3884
2740.12	15.6882
2741.46	15.6547
2742.8	15.2883
2744.14	14.7372
2745.48	14.0416
2746.82	13.2998
2748.16	12.1974
2749.49	11.8731
2750.83	11.0849
2752.17	10.7763
2753.51	10.0426
2754.84	10.4747
2756.18	10.2779
2757.52	10.7362
2758.85	10.4456
2760.19	9.96676
2761.53	9.25675
2762.86	8.72367
2764.2	7.9741
2765.53	7.25773
2766.87	6.49664
2768.2	5.5406
2769.54	4.19378
2770.87	3.24095
2772.2	2.0398
2773.54	1.3323
2774.87	0.990482
2776.2	1.89037
2777.54	2.24446
2778.87	2.64104
2780.2	2.54565
2781.53	1.66183
2782.87	1.15367
2784.2	1.56959
2785.53	1.28884
2786.86	1.58062
2788.19	1.75721
2789.52	1.3228
2790.85	1.78097
2792.18	2.3862
2793.51	3.1667
2794.84	3.76152
2796.17	3.03833
2797.5	2.489
2798.83	2.44448
2800.16	3.05028
2801.49	3.04842
2802.82	3.69345
2804.15	4.16377
2805.47	4.41058
2806.8	4.81459
2808.13	3.74741
2809.46	3.55825
2810.78	3.40264
2812.11	3.3953
2813.44	3.77011
2814.76	3.91144
2816.09	4.92967
2817.42	4.7118
2818.74	5.75319
2820.07	6.4919
2821.39	7.4657
2822.72	8.21676
2824.04	9.68781
2825.37	10.9682
2826.69	12.3526
2828.02	13.7885
2829.34	15.5576
2830.66	16.7562
2831.99	18.0808
2833.31	20.7527
2834.63	22.294
2835.96	24.3589
2837.28	27.2889
2838.6	30.3047
2839.92	33.4794
2841.24	36.646
2842.57	40.2082
2843.89	43.6817
2845.21	46.3874
2846.53	49.57
2847.85	53.3516
2849.17	57.512
2850.49	62.1851
2851.81	65.5458
2853.13	70.0299
2854.45	74.1833
2855.77	78.5587
2857.09	82.4155
2858.41	87.3216
2859.72	91.3192
2861.04	94.8892
2862.36	99.1128
2863.68	103.25
2865	106.988
2866.31	110.1
2867.63	113.43
2868.95	116.772
2870.26	120.178
2871.58	122.599
2872.9	125.346
2874.21	127.718
2875.53	130.175
2876.84	132.628
2878.16	134.76
2879.47	137.895
2880.79	140.206
2882.1	142.606
2883.42	143.9
2884.73	147.33
2886.05	149.782
2887.36	151.964
2888.67	155.174
2889.99	157.408
2891.3	160.448
2892.61	162.644
2893.92	164.619
2895.24	167.607
2896.55	170.983
2897.86	174.075
2899.17	178.719
2900.48	181.567
2901.79	185.767
2903.11	190.494
2904.42	196.085
2905.73	201.496
2907.04	206.762
2908.35	212.842
2909.66	218.822
2910.97	224.636
2912.27	231.323
2913.58	238.056
2914.89	244.926
2916.2	251.639
2917.51	257.18
2918.82	263.194
2920.13	268.789
2921.43	273.656
2922.74	278.027
2924.05	283.022
2925.35	286.46
2926.66	290.037
2927.97	293.183
2929.27	294.591
2930.58	296.415
2931.89	297.67
2933.19	298.712
2934.5	297.623
2935.8	297.245
2937.11	295.313
2938.41	293.271
2939.72	290.431
2941.02	287.645
2942.32	283.975
2943.63	279.949
2944.93	275.719
2946.24	270.249
2947.54	264.71
2948.84	259.04
2950.14	254.012
2951.45	247.906
2952.75	241.953
2954.05	236.723
2955.35	230.851
2956.65	225.07
2957.95	218.416
2959.26	212.65
2960.56	206.682
2961.86	200.123
2963.16	193.312
2964.46	188.059
2965.76	181.869
2967.06	177.435
2968.36	172.85
2969.66	167.892
2970.96	162.997
2972.25	158.28
2973.55	153.777
2974.85	148.594
2976.15	144.145
2977.45	138.953
2978.74	133.737
2980.04	129.199
2981.34	124.142
2982.64	118.837
2983.93	113.719
2985.23	108.593
2986.52	103.482
2987.82	99.1185
2989.12	94.4878
2990.41	90.0192
2991.71	85.1926
2993	80.4178
2994.3	75.2169
2995.59	70.688
2996.89	65.9607
2998.18	61.4563
2999.48	56.3163
3000.77	53.5086
3002.06	48.7841
3003.36	44.4818
3004.65	41.2973
3005.94	37.6926
3007.23	33.6518
3008.53	30.865
3009.82	27.9329
3011.11	25.8214
3012.4	23.8261
3013.69	22.2276
3014.99	21.2226
3016.28	20.1305
3017.57	18.4953
3018.86	17.6224
3020.15	16.0699
3021.44	14.7028
3022.73	13.8655
3024.02	12.9052
3025.31	12.0381
3026.6	11.4303
3027.89	11.2096
3029.18	11.3644
3030.46	11.1146
3031.75	11.3072
3033.04	11.1991
3034.33	11.471
3035.62	12.5203
3036.9	12.133
3038.19	11.5975
3039.48	11.7069
3040.76	12.3709
3042.05	12.5926
3043.34	13.3049
3044.62	14.5333
3045.91	15.0663
3047.19	15.1932
3048.48	15.6093
3049.77	16.2621
3051.05	17.034
3052.34	17.5473
3053.62	17.3719
3054.9	17.0845
3056.19	16.6021
3057.47	15.9755
3058.76	15.4455
3060.04	15.4102
3061.32	15.2164
3062.61	14.3114
3063.89	13.8112
3065.17	13.7321
3066.45	12.7862
3067.74	12.4043
3069.02	12.2424
3070.3	11.4181
3071.58	11.0057
3072.86	10.6616
3074.14	10.7542
3075.42	10.9416
3076.7	10.083
3077.99	9.15939
3079.26	7.87942
3080.54	6.70709
3081.82	6.01809
3083.1	5.11881
3084.38	4.29849
3085.66	3.51405
3086.94	2.80053
3088.22	1.92977
3089.5	1.13876
3090.78	0.58459
3092.05	0.161125
3093.33	-0.0209878
3094.61	0.0459584
3095.89	0.285011
3097.16	0.703526
3098.44	1.21295
3099.72	1.41767
3100.99	1.40998
3102.27	1.9326
3103.54	2.91327
3104.82	3.17695
3106.1	3.91359
3107.37	4.56193
3108.65	4.88611
3109.92	4.74072
3111.2	4.8154
3112.47	5.54767
3113.74	5.78218
3115.02	6.00772
3116.29	6.54372
3117.56	6.4926
3118.84	6.79728
3120.11	7.4772
3121.38	7.95912
3122.66	9.05096
3123.93	9.7945
3125.2	10.5399
3126.47	11.4355
3127.74	12.6214
3129.01	13.146
3130.29	13.9926
3131.56	14.4675
3132.83	15.4939
3134.1	16.0547
3135.37	16.96
3136.64	17.7693
3137.91	18.712
3139.18	18.8123
3140.45	18.9344
3141.72	19.6375
3142.99	20.4775
3144.26	21.456
3145.52	22.422
3146.79	23.8189
3148.06	24.8885
3149.33	26.4437
