#Acq. time (s)=	45
#Accumulations=	2
#Range (cm-¹)=	200...3150
#Windows=	2
#Auto scanning=	Off
#Autofocus=	Off
#Macrospot=	Off
#AutoExposure=	Off
#Spike filter=	Multiple accum.
#Delay time (s)=	0
#Binning=	1
#Readout mode=	Signal
#DeNoise=	Off
#ICS correction=	On
#Dark correction=	Off
#Inst. Process=	Off
#Detector Gain=	Best Dynamic Range
#Detector ADC=	20 kHz       
#Detector temperature (°C)=	-69.85
#Instrument=	LabRAM HR Evol
#Detector=	Synapse
#Objective=	x100
#Grating=	600 gr/mm
#ND Filter=	100%
#Laser (nm)=	532 
#Hole=	100.021
#Range=	Auto
#Laser Pol.=	No
#Raman. Pol.=	No
#Laser Pol. (°)=	-0.0007625
#Raman Pol. (°)=	89.9995
#Collection=	Microscope
#StageXY=	Marzhauser
#StageZ=	Marzhauser
#X (µm)=	-2354.8
#Y (µm)=	245.2
#Z (µm)=	521.65
#Full time(mm:ss)=	3:18
#Project=	
#Sample=	
#Site=	
#Title=	Thy_10_08_47_2x_45s_532 nm_x100_100%_600 gr_mm
#Remark=	
#Date=	06.07.2022 15:14
#Acquired=	06.07.2022 15:14:55
#Base:Fit=	10.08.2022 09:46:25
#Base:Sub=	10.08.2022 09:46:49
#Filter:Polynom=	16.08.2022 10:24:56
#AxisType[0]=Intens
#AxisUnit[0]=Cnt
#AxisType[1]=Spectr
#AxisUnit[1]=1/cm
200.398	-1.83008
202.213	-1.8
204.027	-0.410754
205.843	0.532535
207.657	1.36686
209.47	1.52176
211.283	1.74997
213.097	1.89248
214.909	2.5004
216.721	3.17337
218.533	3.72282
220.344	4.19354
222.157	3.79902
223.967	3.61557
225.777	4.24085
227.587	3.83416
229.396	4.01324
231.205	3.74099
233.016	4.17781
234.824	5.09371
236.632	4.53631
238.439	4.23357
240.247	3.89155
242.053	3.8905
243.86	3.88419
245.666	3.95476
247.474	4.24148
249.279	3.68634
251.085	3.17097
252.889	2.93714
254.694	2.81566
256.498	2.78679
258.301	1.91323
260.105	1.38796
261.908	1.49871
263.71	0.780652
265.513	1.11781
267.315	0.746918
269.116	1.54968
270.918	1.87907
272.718	2.06333
274.519	2.09803
276.319	1.39067
278.119	0.949004
279.918	1.78153
281.718	2.43171
283.516	3.24132
285.315	2.84274
287.113	3.01966
288.911	3.02233
290.708	3.15409
292.505	3.14333
294.302	3.40502
296.098	3.47634
297.894	3.70178
299.69	5.43789
301.485	7.2194
303.278	8.19087
305.073	8.97242
306.867	9.45403
308.661	10.0897
310.454	10.897
312.247	11.4029
314.04	12.5322
315.833	13.4035
317.623	13.0641
319.415	13.4577
321.206	13.853
322.997	14.7329
324.788	15.3965
326.579	14.3632
328.367	15.0882
330.156	14.7903
331.946	15.1502
333.735	15.3755
335.523	15.4826
337.31	15.2169
339.098	14.3351
340.885	14.0905
342.673	14.4996
344.458	14.1912
346.244	14.4946
348.03	13.8451
349.816	13.9106
351.6	13.6043
353.385	12.709
355.17	12.5057
356.953	12.0985
358.737	11.8799
360.521	10.9461
362.304	9.55476
364.085	9.28835
365.868	8.34236
367.65	8.66342
369.431	7.61321
371.212	7.00909
372.994	5.7351
374.773	4.98124
376.554	5.10364
378.332	4.29315
380.112	3.74664
381.892	3.65078
383.669	3.9634
385.448	3.62426
387.225	3.41044
389.003	3.613
390.781	2.86847
392.557	2.05836
394.334	1.84046
396.109	2.3237
397.885	2.017
399.66	2.01401
401.436	1.49774
403.211	1.20212
404.984	0.610331
406.759	-0.106555
408.532	-0.069124
410.306	0.645218
412.078	0.459787
413.851	0.54498
415.623	0.64544
417.395	0.983942
419.166	0.793585
420.938	1.32979
422.708	1.91787
424.477	1.98487
426.248	2.39747
428.017	3.22478
429.788	3.29555
431.556	3.62193
433.326	3.48909
435.093	4.37088
436.86	4.09325
438.629	4.73585
440.395	5.56387
442.163	6.03275
443.929	6.61772
445.694	7.45242
447.461	7.8966
449.226	8.28992
450.99	9.05433
452.756	10.1636
454.52	10.5496
456.285	11.2176
458.048	10.6405
459.811	11.7652
461.573	12.0572
463.337	13.1046
465.099	13.4613
466.86	13.0167
468.623	13.5133
470.384	13.6592
472.144	14.3407
473.906	14.036
475.666	14.1035
477.425	15.1168
479.184	15.3769
480.944	16.1443
482.703	16.4702
484.461	16.9991
486.218	16.9212
487.975	17.5913
489.734	17.8401
491.491	18.2149
493.247	18.337
495.003	18.1784
496.759	18.4887
498.516	18.8446
500.271	18.5735
502.025	18.545
503.779	18.8906
505.533	18.8325
507.287	19.1303
509.042	18.5933
510.795	19.0159
512.547	19.044
514.299	19.2578
516.051	19.3247
517.803	18.3839
519.554	19.3014
521.305	19.6269
523.055	19.7073
524.805	19.5188
526.555	20.1608
528.307	20.047
530.056	20.0112
531.805	20.2598
533.553	19.5084
535.301	19.165
537.049	18.4384
538.797	18.0779
540.544	17.4262
542.291	17.1615
544.037	16.8882
545.783	16.5188
547.529	16.0927
549.275	15.9537
551.02	15.7848
552.765	15.362
554.509	14.1334
556.253	13.6645
557.997	13.9187
559.738	14.1542
561.482	13.6599
563.224	13.0763
564.967	12.6787
566.709	12.4438
568.451	11.9402
570.192	11.5451
571.933	11.7742
573.674	11.4436
575.415	11.7115
577.153	11.5894
578.893	11.2189
580.632	10.7379
582.371	9.94952
584.11	9.17457
585.849	8.4559
587.587	7.72126
589.323	7.08545
591.06	7.53467
592.797	6.98133
594.534	6.21462
596.271	5.69446
598.005	6.0629
599.741	6.24832
601.476	6.56371
603.211	6.94072
604.944	7.03304
606.679	7.08189
608.413	7.07724
610.147	7.15114
611.878	7.59454
613.611	8.24501
615.344	8.14241
617.077	8.40779
618.807	7.75168
620.539	7.87757
622.27	8.61908
623.999	8.66126
625.73	8.99744
627.461	9.85728
629.189	11.0759
630.919	11.6454
632.648	11.9435
634.376	11.831
636.105	12.622
637.833	13.4424
639.559	13.6928
641.287	14.0316
643.013	16.0045
644.74	17.1341
646.467	17.1143
648.192	17.9678
649.918	18.8654
651.642	20.7258
653.368	21.5608
655.091	22.8134
656.816	24.1692
658.538	25.8305
660.263	26.8586
661.987	27.6977
663.708	27.1744
665.432	27.0174
667.153	27.553
668.875	27.4092
670.596	27.8101
672.318	27.9947
674.037	28.2083
675.759	29.1764
677.478	29.8472
679.196	30.4733
680.917	31.0181
682.635	32.0899
684.355	33.1538
686.072	34.016
687.791	34.441
689.508	34.901
691.224	34.8684
692.942	35.5253
694.658	36.5097
696.376	36.3051
698.091	36.5171
699.805	36.6671
701.522	36.5633
703.236	36.6432
704.95	37.0619
706.665	38.0538
708.379	38.8068
710.093	39.3897
711.806	39.8765
713.518	41.0389
715.23	42.3207
716.943	42.8074
718.655	43.5496
720.366	45.3757
722.078	46.9554
723.788	48.8807
725.498	50.0027
727.208	51.3868
728.919	53.109
730.628	53.2353
732.337	54.3668
734.045	56.2157
735.755	57.2163
737.463	58.6335
739.17	59.432
740.877	60.8215
742.584	62.2208
744.292	63.5524
745.998	64.7867
747.704	65.6751
749.409	66.651
751.114	68.6634
752.819	70.9124
754.526	71.7378
756.23	72.9157
757.934	74.0245
759.637	74.9635
761.34	76.3031
763.043	77.6052
764.746	78.7731
766.448	79.8179
768.152	80.7873
769.853	81.0362
771.554	81.343
773.255	81.9302
774.956	82.2917
776.656	82.4538
778.356	84.1348
780.056	84.374
781.755	84.9207
783.454	84.8678
785.153	85.371
786.851	86.016
788.549	87.0118
790.247	88.5771
791.944	90.0487
793.641	90.7131
795.338	90.8525
797.034	91.6486
798.73	93.3507
800.426	93.8469
802.121	94.0892
803.817	94.8253
805.511	96.1701
807.206	96.0661
808.9	96.555
810.592	96.0275
812.286	95.6722
813.979	95.5592
815.672	95.4631
817.364	95.8109
819.057	96.2062
820.748	96.0106
822.44	96.0884
824.129	95.7648
825.82	96.1089
827.511	96.3389
829.201	95.4853
830.891	95.0392
832.581	94.5754
834.269	94.4284
835.958	93.9427
837.646	92.8507
839.335	91.4024
841.023	90.2846
842.709	89.4707
844.396	87.3562
846.084	86.2343
847.77	85.3609
849.455	83.4504
851.141	82.2144
852.827	80.4058
854.513	79.2459
856.196	77.6412
857.881	76.6272
859.566	75.1008
861.248	73.8557
862.932	73.3574
864.616	72.3301
866.297	71.6098
867.98	69.9072
869.663	70.7928
871.343	70.4793
873.026	70.5656
874.707	70.1372
876.387	69.5062
878.068	68.0573
879.747	68.0124
881.428	67.8277
883.108	67.7651
884.786	67.1922
886.465	67.1953
888.143	67.2728
889.822	67.3599
891.498	67.3809
893.177	66.7763
894.855	66.7133
896.53	66.1239
898.208	66.0264
899.883	66.1175
901.56	65.7217
903.234	65.4945
904.91	64.9767
906.584	65.0702
908.26	65.1564
909.933	65.131
911.608	64.0248
913.28	64.2089
914.955	64.0381
916.627	64.2008
918.298	63.5904
919.972	62.4973
921.643	62.0413
923.315	61.7429
924.986	61.6813
926.656	61.4809
928.328	60.4707
929.997	60.5884
931.668	60.4504
933.337	59.9389
935.006	59.782
936.676	58.9999
938.344	58.3869
940.012	57.9199
941.681	57.8411
943.348	57.2481
945.014	58.2336
946.683	59.2031
948.349	59.3001
950.015	59.5487
951.682	59.2145
953.347	59.9229
955.012	58.0422
956.676	57.1462
958.343	55.1564
960.006	54.5213
961.67	54.8322
963.333	56.0808
964.998	56.2694
966.661	57.1418
968.323	57.6906
969.985	57.2584
971.649	57.5809
973.31	57.2267
974.971	57.0439
976.632	56.4781
978.293	56.9385
979.953	56.2962
981.615	56.2552
983.274	56.2663
984.933	55.3999
986.592	55.161
988.251	54.7861
989.909	54.4885
991.567	53.6341
993.225	52.6968
994.884	52.2777
996.541	51.7311
998.198	50.4169
999.855	50.5272
1001.51	49.6135
1003.17	49.5548
1004.82	49.885
1006.48	48.9434
1008.13	48.5909
1009.79	47.9666
1011.44	47.4306
1013.1	47.4528
1014.75	47.7586
1016.4	47.2343
1018.06	46.5726
1019.71	46.1096
1021.36	45.584
1023.01	45.1896
1024.66	44.9027
1026.32	44.7792
1027.97	44.1996
1029.62	43.1124
1031.27	42.3747
1032.92	41.9009
1034.57	40.5382
1036.22	39.2912
1037.87	37.9527
1039.52	37.4625
1041.16	37.154
1042.81	38.8715
1044.46	39.8914
1046.11	40.4326
1047.76	40.0954
1049.4	39.8623
1051.05	39.6111
1052.7	38.7221
1054.34	38.4085
1055.99	38.0783
1057.63	37.8282
1059.28	36.8527
1060.92	36.0668
1062.57	35.7313
1064.21	34.7693
1065.85	34.4538
1067.5	33.1318
1069.14	33.2378
1070.78	32.2529
1072.43	31.2136
1074.07	31.0101
1075.71	30.5218
1077.35	30.6278
1078.99	29.3242
1080.63	29.4217
1082.27	29.6385
1083.91	29.171
1085.55	29.614
1087.19	29.5955
1088.83	29.3217
1090.47	29.8997
1092.11	30.5688
1093.75	31.483
1095.39	31.1291
1097.03	31.0307
1098.66	30.0483
1100.3	30.3453
1101.94	30.4006
1103.57	30.4852
1105.21	30.5841
1106.84	31.3734
1108.48	31.439
1110.11	30.8145
1111.75	30.8054
1113.38	30.4899
1115.02	30.0362
1116.65	29.4339
1118.29	28.9769
1119.92	28.7467
1121.55	28.2425
1123.19	28.3386
1124.82	28.9168
1126.45	29.0931
1128.08	28.4708
1129.71	27.2272
1131.34	26.6527
1132.97	25.3806
1134.6	24.5712
1136.23	24.5944
1137.86	24.0718
1139.49	23.3936
1141.12	23.452
1142.75	23.4791
1144.38	22.8433
1146.01	22.1547
1147.64	21.5465
1149.26	20.0478
1150.89	19.7471
1152.52	18.4103
1154.15	16.9976
1155.77	16.7093
1157.4	15.969
1159.02	15.503
1160.65	14.6141
1162.27	14.8312
1163.9	15.2499
1165.52	15.0947
1167.15	14.9724
1168.77	15.2267
1170.39	14.8689
1172.02	15.5001
1173.64	16.6742
1175.26	17.0275
1176.89	17.386
1178.51	18.6259
1180.13	18.8855
1181.75	19.7413
1183.37	19.7043
1184.99	20.0702
1186.61	20.834
1188.23	21.3331
1189.85	21.3127
1191.47	20.9947
1193.09	22.003
1194.71	22.6957
1196.33	23.9175
1197.94	25.1684
1199.56	26.7092
1201.18	27.6477
1202.8	29.1784
1204.41	30.9589
1206.03	32.0751
1207.65	33.825
1209.26	34.3853
1210.88	36.2958
1212.49	38.1126
1214.11	39.0147
1215.72	41.2652
1217.34	43.4302
1218.95	44.7934
1220.57	45.9787
1222.18	47.5265
1223.79	48.2068
1225.41	48.9612
1227.02	50.0484
1228.63	49.9422
1230.24	50.9563
1231.85	52.1595
1233.47	52.8291
1235.08	53.8659
1236.69	55.0539
1238.3	55.7376
1239.91	56.4277
1241.52	56.762
1243.13	57.3267
1244.74	58.0416
1246.34	57.921
1247.95	58.3814
1249.56	59.5189
1251.17	59.3343
1252.78	59.5622
1254.38	59.2908
1255.99	58.6439
1257.6	57.9089
1259.2	57.0201
1260.81	56.5043
1262.42	56.6138
1264.02	56.5849
1265.63	56.6769
1267.23	56.6471
1268.84	55.9553
1270.44	56.3217
1272.04	56.1947
1273.65	56.5442
1275.25	56.9564
1276.85	57.2634
1278.46	57.3546
1280.06	57.4495
1281.66	57.8687
1283.26	58.1346
1284.86	59.0559
1286.46	59.3831
1288.07	61.1639
1289.67	61.3621
1291.27	62.5796
1292.87	63.432
1294.47	63.7613
1296.06	65.4424
1297.66	66.6306
1299.26	68.0083
1300.86	69.0188
1302.46	70.5899
1304.06	72.0028
1305.65	73.3311
1307.25	74.5732
1308.85	75.8674
1310.44	77.4663
1312.04	77.2032
1313.64	77.8713
1315.23	78.8124
1316.83	78.8445
1318.42	79.1803
1320.02	79.2305
1321.61	78.9091
1323.2	78.7665
1324.8	78.6215
1326.39	78.24
1327.99	77.9406
1329.58	77.4387
1331.17	75.8396
1332.76	75.26
1334.36	74.8782
1335.95	74.6087
1337.54	73.8407
1339.13	73.4974
1340.72	72.667
1342.31	71.7991
1343.9	70.7638
1345.49	68.916
1347.08	67.4139
1348.67	66.061
1350.26	64.7787
1351.85	63.2696
1353.43	62.3252
1355.02	61.44
1356.61	59.5606
1358.2	59.0275
1359.78	57.5311
1361.37	56.547
1362.96	55.3526
1364.54	54.9697
1366.13	53.6446
1367.71	53.454
1369.3	52.5202
1370.88	51.5825
1372.47	51.0858
1374.05	50.3482
1375.64	50.3463
1377.22	49.8832
1378.8	49.6777
1380.39	49.0751
1381.97	48.3153
1383.55	47.9443
1385.13	47.3821
1386.72	46.3881
1388.3	45.5857
1389.88	44.5569
1391.46	43.1633
1393.04	43.4453
1394.62	42.9288
1396.2	41.1565
1397.78	40.458
1399.36	39.97
1400.94	39.9392
1402.52	39.6816
1404.1	39.8191
1405.68	40.2236
1407.25	40.3839
1408.83	40.5347
1410.41	41.2962
1411.98	43.1839
1413.56	44.3594
1415.14	45.0421
1416.71	46.117
1418.29	47.2031
1419.87	49.0842
1421.44	50.4276
1423.02	51.6034
1424.59	53.6062
1426.16	55.434
1427.74	57.5908
1429.31	60.4295
1430.89	62.9201
1432.46	65.1516
1434.03	67.0946
1435.6	68.9751
1437.18	70.3614
1438.75	71.4399
1440.32	72.6901
1441.89	74.52
1443.46	75.3599
1445.03	76.5559
1446.6	77.1568
1448.17	77.1093
1449.74	76.6327
1451.31	75.8377
1452.88	75.023
1454.45	73.8825
1456.02	73.6258
1457.59	72.4811
1459.16	71.6295
1460.72	69.706
1462.29	67.3832
1463.86	65.1333
1465.43	62.5119
1466.99	60.6246
1468.56	57.7901
1470.13	54.7575
1471.69	52.7719
1473.26	49.5765
1474.82	46.8153
1476.38	44.9015
1477.95	42.3831
1479.51	39.9766
1481.08	37.3636
1482.64	35.8295
1484.2	34.2814
1485.77	32.7031
1487.33	30.6953
1488.89	29.5208
1490.46	28.3191
1492.02	26.6235
1493.58	25.538
1495.14	24.5844
1496.7	23.7563
1498.26	23.0296
1499.82	21.8576
1501.38	21.6714
1502.94	21.4745
1504.5	21.0163
1506.06	21.1723
1507.62	21.8081
1509.18	21.713
1510.73	21.7842
1512.29	22.0214
1513.85	21.6157
1515.41	21.5537
1516.96	22.5703
1518.52	22.9009
1520.08	23.3176
1521.63	23.3544
1523.19	23.5125
1524.75	23.7713
1526.3	24.3176
1527.85	24.8593
1529.41	25.0703
1530.96	26.0341
1532.52	27.3653
1534.07	28.9821
1535.62	28.7644
1537.18	30.2902
1538.73	30.0537
1540.28	31.1892
1541.84	32.1031
1543.39	32.7309
1544.94	33.815
1546.49	34.8807
1548.04	36.1178
1549.59	38.0558
1551.14	39.3455
1552.69	40.8913
1554.25	42.2542
1555.79	44.0339
1557.34	45.6468
1558.89	47.3701
1560.44	48.9727
1561.99	50.1413
1563.54	51.3273
1565.08	51.59
1566.63	52.4117
1568.18	53.2156
1569.73	54.6494
1571.27	54.8549
1572.82	55.2032
1574.37	56.3008
1575.91	56.407
1577.46	56.8497
1579	57.6029
1580.55	58.7055
1582.09	59.6074
1583.64	60.1899
1585.18	61.0174
1586.73	61.047
1588.27	61.3163
1589.81	61.3169
1591.35	61.4677
1592.9	62.6069
1594.44	62.6889
1595.98	61.5425
1597.52	60.8165
1599.06	60.701
1600.61	59.917
1602.15	59.4263
1603.69	58.7347
1605.23	58.3284
1606.77	58.1976
1608.31	58.295
1609.85	58.3502
1611.39	58.2112
1612.93	57.3974
1614.46	57.6781
1616	56.4992
1617.54	56.5008
1619.08	56.0501
1620.61	57.134
1622.15	58.6825
1623.69	59.3141
1625.23	59.283
1626.76	60.1597
1628.3	60.6152
1629.83	61.3458
1631.37	62.4782
1632.9	63.6945
1634.44	64.0628
1635.97	65.379
1637.51	65.9199
1639.04	66.5951
1640.57	67.7604
1642.11	68.5211
1643.64	69.2452
1645.17	70.8887
1646.71	72.2185
1648.24	72.8028
1649.77	73.8094
1651.3	74.513
1652.83	75.0188
1654.36	75.9657
1655.89	76.5228
1657.42	77.4267
1658.96	77.6397
1660.48	77.2123
1662.01	77.2922
1663.54	76.8398
1665.07	76.3361
1666.6	75.2606
1668.13	75.1287
1669.66	73.3342
1671.19	71.1313
1672.71	69.0061
1674.24	67.0251
1675.77	64.6621
1677.29	62.2964
1678.82	59.4112
1680.35	57.4573
1681.87	55.5843
1683.4	53.0942
1684.92	50.8305
1686.45	48.0933
1687.97	45.8607
1689.5	43.2596
1691.02	40.706
1692.54	37.736
1694.07	35.4014
1695.59	33.4571
1697.11	32.2394
1698.64	29.9534
1700.16	27.1503
1701.68	25.1492
1703.2	23.4583
1704.72	22.0039
1706.25	20.5655
1707.77	18.8945
1709.29	17.1036
1710.81	15.5251
1712.33	15.2053
1713.85	14.0391
1715.37	13.8242
1716.89	13.5725
1718.41	12.8423
1719.92	11.8231
1721.44	12.3393
1722.96	12.1511
1724.48	11.6792
1725.99	10.9118
1727.51	10.9928
1729.03	11.3331
1730.55	11.2556
1732.06	10.6746
1733.58	10.6982
1735.09	9.81589
1736.61	9.43858
1738.13	9.43383
1739.64	8.9244
1741.15	8.54103
1742.67	8.35095
1744.18	8.25677
1745.7	7.51389
1747.21	7.33985
1748.72	6.40239
1750.24	5.45812
1751.75	5.08843
1753.26	4.61857
1754.77	4.02345
1756.29	4.29106
1757.8	4.06718
1759.31	3.65566
1760.82	3.62833
1762.33	2.75535
1763.84	2.57265
1765.35	2.20704
1766.86	1.673
1768.37	1.05159
1769.88	0.947648
1771.39	1.07627
1772.9	1.06607
1774.4	0.346725
1775.91	0.315726
1777.42	0.860073
1778.93	0.96241
1780.44	1.14831
1781.94	1.05342
1783.45	0.967275
1784.96	0.849509
1786.46	1.18008
1787.97	1.8289
1789.47	1.99981
1790.98	2.19009
1792.48	2.059
1793.99	2.07897
1795.49	1.7937
1797	1.92278
1798.5	1.46458
1800.01	0.960819
1801.51	1.09955
1803.01	1.4237
1804.51	1.15231
1806.02	0.419776
1807.52	-0.0172563
1809.02	0.254063
1810.52	0.567695
1812.02	0.858122
1813.52	0.756312
1815.02	0.926967
1816.53	1.14222
1818.03	1.31851
1819.52	1.11271
1821.02	1.46531
1822.52	1.25338
1824.02	0.998359
1825.52	1.0335
1827.02	0.918396
1828.52	0.752114
1830.02	0.816302
1831.51	1.11351
1833.01	1.13868
1834.51	1.22359
1836.01	1.23813
1837.5	1.1458
1839	1.03291
1840.49	0.893279
1841.99	0.981405
1843.49	0.730665
1844.98	0.659563
1846.48	0.666281
1847.97	1.22637
1849.47	1.99924
1850.96	2.41837
1852.45	2.49882
1853.95	2.28686
1855.44	1.92454
1856.93	1.96171
1858.42	1.60431
1859.92	1.59793
1861.41	1.78586
1862.9	2.0623
1864.39	1.47107
1865.88	1.71022
1867.38	2.04254
1868.87	1.49617
1870.36	0.914889
1871.85	0.827326
1873.34	0.63773
1874.83	0.728111
1876.32	1.01691
1877.81	1.15579
1879.29	0.934106
1880.78	0.740121
1882.27	1.40058
1882.53	1.83389
1884.03	1.83503
1885.52	1.70874
1887.01	2.03675
1888.51	1.65077
1890	1.96579
1891.5	2.23255
1892.99	2.28423
1894.48	2.90055
1895.97	2.66116
1897.47	2.5469
1898.96	2.59643
1900.45	2.87299
1901.94	3.83273
1903.43	3.81724
1904.92	4.30462
1906.41	4.30171
1907.9	4.33719
1909.39	4.5369
1910.88	4.65749
1912.37	5.01741
1913.86	5.06486
1915.35	4.96398
1916.84	4.66898
1918.33	4.62108
1919.81	4.57263
1921.3	5.43541
1922.79	5.62262
1924.28	5.30098
1925.76	4.62781
1927.25	4.4536
1928.73	4.05849
1930.22	4.16386
1931.71	3.87769
1933.19	3.67692
1934.68	3.80712
1936.16	3.75977
1937.65	3.69763
1939.13	4.06057
1940.62	3.5308
1942.1	3.50956
1943.58	3.80513
1945.07	3.73735
1946.55	3.53563
1948.03	3.79234
1949.51	4.01259
1951	4.29938
1952.48	4.3278
1953.96	4.7092
1955.44	5.21704
1956.92	4.98007
1958.4	4.48022
1959.88	4.5983
1961.36	4.1225
1962.84	3.5858
1964.32	4.22817
1965.8	3.8623
1967.28	3.54183
1968.76	3.74588
1970.24	3.6013
1971.72	3.91633
1973.2	4.52378
1974.67	4.71481
1976.15	5.15224
1977.63	4.82044
1979.1	5.2356
1980.58	5.28787
1982.06	5.4183
1983.54	5.77434
1985.01	5.81888
1986.49	5.59718
1987.96	5.08785
1989.44	5.30804
1990.91	5.28531
1992.39	5.38983
1993.86	5.59879
1995.33	5.55932
1996.81	4.91902
1998.28	4.18153
1999.75	4.05306
2001.23	4.53179
2002.7	4.88855
2004.17	4.74534
2005.65	5.10395
2007.12	5.41286
2008.59	6.01096
2010.06	6.28481
2011.53	6.13688
2013	6.16886
2014.47	6.44135
2015.94	7.01238
2017.41	6.99526
2018.88	6.93017
2020.35	6.85285
2021.82	6.97918
2023.29	7.10141
2024.76	6.9166
2026.23	6.57232
2027.69	6.70061
2029.16	6.25017
2030.63	5.77929
2032.1	5.36547
2033.56	5.42035
2035.03	6.04286
2036.5	6.7657
2037.96	7.10706
2039.43	6.85606
2040.89	7.32249
2042.36	7.37735
2043.83	7.46602
2045.29	8.13716
2046.75	8.55898
2048.22	8.15321
2049.68	8.48707
2051.15	8.56823
2052.61	8.8766
2054.07	9.0187
2055.54	8.93959
2057	9.15704
2058.46	8.8872
2059.92	9.0456
2061.39	9.38298
2062.85	9.72387
2064.31	9.74886
2065.77	9.7623
2067.23	9.91986
2068.69	9.5415
2070.15	9.70214
2071.61	10.2269
2073.07	10.4692
2074.53	10.3054
2075.99	10.3249
2077.45	9.79824
2078.91	10.5876
2080.37	10.397
2081.82	10.6644
2083.28	10.9554
2084.74	10.4562
2086.2	11.1365
2087.65	10.9862
2089.11	11.015
2090.57	10.8921
2092.02	10.2558
2093.48	9.6117
2094.94	9.92411
2096.39	10.4025
2097.85	11.0181
2099.3	11.5162
2100.76	12.1552
2102.21	12.2207
2103.66	12.9104
2105.12	13.4491
2106.57	13.9307
2108.03	15.1826
2109.48	14.9311
2110.93	15.0158
2112.38	15.1938
2113.84	15.4251
2115.29	14.9458
2116.74	15.711
2118.19	16.2095
2119.64	16.081
2121.09	16.2183
2122.54	16.7895
2123.99	17.4054
2125.45	17.9795
2126.89	18.0286
2128.34	18.4071
2129.79	19.0031
2131.24	19.7483
2132.69	20.2704
2134.14	20.6453
2135.59	20.9018
2137.04	21.2605
2138.48	21.4485
2139.93	21.6393
2141.38	21.5265
2142.83	21.934
2144.27	22.2289
2145.72	22.3645
2147.17	22.6278
2148.61	23.3597
2150.06	23.9776
2151.5	24.8278
2152.95	25.2543
2154.39	25.5239
2155.84	26.071
2157.28	25.9712
2158.73	26.7267
2160.17	26.7124
2161.61	27.1157
2163.06	27.2948
2164.5	27.1946
2165.94	27.7483
2167.38	28.9155
2168.83	29.847
2170.27	30.2635
2171.71	30.1551
2173.15	29.445
2174.59	29.5018
2176.03	29.2906
2177.47	29.2379
2178.91	29.3118
2180.36	29.6831
2181.8	29.0376
2183.23	28.6598
2184.67	28.2518
2186.11	28.0702
2187.55	27.4088
2188.99	27.7467
2190.43	27.4741
2191.87	27.3938
2193.3	26.6767
2194.74	26.5124
2196.18	26.1815
2197.62	25.4165
2199.05	24.7535
2200.49	24.6499
2201.93	23.9756
2203.36	23.5034
2204.8	22.7408
2206.23	22.0172
2207.67	21.0879
2209.1	20.6168
2210.54	19.6995
2211.97	19.1838
2213.41	18.6991
2214.84	18.2229
2216.27	18.0934
2217.71	17.8085
2219.14	17.1882
2220.57	16.9442
2222.01	16.5417
2223.44	16.3193
2224.87	15.6098
2226.3	15.3495
2227.73	15.5466
2229.16	15.2393
2230.6	14.7366
2232.03	14.0892
2233.46	13.228
2234.89	13.2673
2236.32	13.166
2237.75	13.1088
2239.18	13.3236
2240.61	12.4814
2242.03	11.2954
2243.46	10.7136
2244.89	10.2433
2246.32	10.7907
2247.75	10.6834
2249.17	10.7589
2250.6	10.4219
2252.03	10.0092
2253.46	9.48973
2254.88	9.75628
2256.31	9.80001
2257.73	9.58882
2259.16	9.45583
2260.59	9.53545
2262.01	9.47187
2263.44	9.23564
2264.86	8.48588
2266.29	8.77903
2267.71	8.48241
2269.14	8.18727
2270.56	8.03095
2271.98	8.24778
2273.4	8.06333
2274.83	7.96147
2276.25	7.78168
2277.67	7.09772
2279.09	6.9444
2280.52	6.97968
2281.94	6.8613
2283.36	7.32743
2284.78	7.18954
2286.2	7.16132
2287.62	6.87526
2289.04	6.23914
2290.46	5.78703
2291.88	5.41253
2293.3	5.65818
2294.72	6.31202
2296.14	6.96587
2297.56	7.92565
2298.98	8.27193
2300.4	8.35064
2301.82	8.59437
2303.23	9.12837
2304.65	8.98325
2306.07	9.38051
2307.49	9.10555
2308.9	9.19984
2310.32	9.48575
2311.73	8.78332
2313.15	8.54839
2314.57	9.08163
2315.98	9.33718
2317.4	9.24936
2318.81	9.16248
2320.23	9.2598
2321.64	8.46663
2323.06	8.63682
2324.47	8.89906
2325.88	9.34545
2327.3	8.89195
2328.71	8.90444
2330.12	8.75343
2331.54	8.53208
2332.95	8.22438
2334.36	8.28011
2335.77	8.14346
2337.18	7.99047
2338.6	7.52486
2340.01	7.00922
2341.42	6.6022
2342.83	6.86421
2344.24	6.25314
2345.65	5.81703
2347.06	5.90889
2348.47	5.26665
2349.88	5.32475
2351.29	4.84424
2352.7	4.38408
2354.1	3.82516
2355.51	3.45066
2356.92	2.92799
2358.33	2.7206
2359.74	3.08685
2361.14	3.2849
2362.55	3.63127
2363.96	4.17324
2365.36	4.93382
2366.77	4.55985
2368.18	4.32555
2369.58	4.21743
2370.99	4.08741
2372.39	3.83171
2373.8	3.37795
2375.2	2.76245
2376.61	2.66996
2378.01	2.93694
2379.42	3.00707
2380.82	2.70322
2382.22	2.55118
2383.63	2.42384
2385.03	2.87195
2386.43	2.47941
2387.84	2.01465
2389.24	2.1863
2390.64	1.90403
2392.04	1.11556
2393.44	1.94683
2394.84	2.25489
2396.25	2.34928
2397.65	2.03864
2399.05	2.56377
2400.45	2.53823
2401.85	2.71904
2403.25	2.66842
2404.65	3.34819
2406.05	3.2924
2407.45	2.9769
2408.84	3.09408
2410.24	3.52143
2411.64	3.71814
2413.04	4.23885
2414.44	4.23408
2415.83	4.47903
2417.23	4.93418
2418.63	5.01581
2420.02	5.25791
2421.42	5.33666
2422.82	5.74778
2424.21	6.15456
2425.61	6.93435
2427	6.94332
2428.4	7.15753
2429.8	7.70968
2431.19	7.81765
2432.58	7.53313
2433.98	7.29861
2435.37	7.88814
2436.77	7.74634
2438.16	8.53714
2439.55	8.27598
2440.95	8.52706
2442.34	8.34012
2443.73	8.85049
2445.12	8.59336
2446.51	8.91105
2447.91	9.12966
2449.3	8.78133
2450.69	8.60316
2452.08	8.37565
2453.47	7.55876
2454.86	7.2512
2456.25	6.43366
2457.64	6.22865
2459.03	6.09977
2460.42	6.12655
2461.81	5.81144
2463.2	6.06955
2464.59	5.51333
2465.98	4.59253
2467.36	4.14477
2468.75	3.84194
2470.14	3.65601
2471.53	3.0029
2472.92	2.18314
2474.3	2.0714
2475.69	1.50655
2477.08	1.08439
2478.46	1.07307
2479.85	0.918562
2481.23	0.586598
2482.62	0.68479
2484	0.612807
2485.39	1.07848
2486.77	1.31165
2488.16	1.26204
2489.54	1.33576
2490.93	1.67706
2492.31	1.56353
2493.69	1.45728
2495.08	1.43135
2496.46	1.37509
2497.84	1.59498
2499.23	1.87092
2500.61	1.28604
2501.99	1.27016
2503.37	1.52398
2504.75	2.16487
2506.13	2.05753
2507.52	2.23336
2508.9	2.17846
2510.28	3.11054
2511.66	2.99712
2513.04	2.96071
2514.42	2.72753
2515.8	2.85358
2517.18	2.54155
2518.55	2.37502
2519.93	2.55076
2521.31	2.10596
2522.69	2.41451
2524.07	2.83856
2525.45	2.66045
2526.82	2.7555
2528.2	2.67739
2529.58	2.66992
2530.95	2.22329
2532.33	2.38439
2533.71	2.01682
2535.08	2.1812
2536.46	2.08764
2537.84	2.40362
2539.21	2.75738
2540.59	2.47725
2541.96	2.87111
2543.34	3.05333
2544.71	3.10966
2546.08	2.86067
2547.46	2.87974
2548.83	2.94154
2550.2	3.23428
2551.58	3.12552
2552.95	3.19187
2554.32	3.39257
2555.7	3.18798
2557.07	3.15922
2558.44	3.35358
2559.81	3.02574
2561.18	3.20853
2562.55	2.78739
2563.93	2.82279
2565.3	3.20728
2566.67	3.27967
2568.04	2.9793
2569.41	2.9208
2570.78	2.6156
2572.15	2.14177
2573.51	1.80455
2574.88	1.38577
2576.25	1.35413
2577.62	1.13761
2578.99	1.01397
2580.36	-0.270052
2581.73	-0.415573
2583.09	-0.116219
2584.46	-0.104238
2585.83	0.0734247
2587.19	0.230886
2588.56	-0.0125582
2589.93	0.121163
2591.29	0.326737
2592.66	-0.108968
2594.02	-0.303995
2595.39	-0.016714
2596.75	-0.139327
2598.12	-0.19513
2599.48	-0.0259732
2600.85	-0.111523
2602.21	-0.0402939
2603.58	0.14808
2604.94	-0.00845486
2606.3	0.263484
2607.67	0.243375
2609.03	0.22431
2610.39	0.320496
2611.76	0.230868
2613.12	0.0931287
2614.48	0.253932
2615.84	0.470886
2617.2	0.474293
2618.56	0.528276
2619.92	0.261324
2621.28	0.871301
2622.65	1.44879
2624.01	1.71761
2625.37	1.99574
2626.72	2.05142
2628.08	2.04086
2629.44	2.26311
2630.8	2.26276
2632.16	2.87672
2633.52	3.04818
2634.88	2.62973
2636.24	2.16825
2637.59	1.88685
2638.95	1.59901
2640.31	1.70328
2641.67	2.08219
2643.02	2.1605
2644.38	2.60144
2645.74	2.63834
2647.09	2.81539
2648.45	2.86207
2649.8	3.48207
2651.16	3.61326
2652.51	3.42674
2653.87	3.17152
2655.22	3.13398
2656.58	2.73023
2657.93	2.95396
2659.29	2.72145
2660.64	2.57112
2661.99	2.63839
2663.35	2.37824
2664.7	2.49852
2666.05	2.50014
2667.41	2.60041
2668.76	2.68474
2670.11	2.84551
2671.46	2.96651
2672.81	2.87655
2674.16	3.23465
2675.51	3.39919
2676.87	3.54884
2678.22	3.56078
2679.57	3.84358
2680.92	3.50159
2682.27	4.09219
2683.62	3.99196
2684.97	4.39196
2686.31	4.91058
2687.66	5.69462
2689.01	6.11873
2690.36	6.55427
2691.71	6.35475
2693.06	6.72369
2694.4	6.88663
2695.75	7.08381
2697.1	7.38189
2698.45	7.74847
2699.79	7.82138
2701.14	8.29745
2702.49	8.64475
2703.83	8.85128
2705.18	9.86138
2706.52	10.6249
2707.87	11.0931
2709.21	11.2668
2710.56	11.0625
2711.9	11.4347
2713.25	11.396
2714.59	11.6052
2715.94	12.2229
2717.28	12.1511
2718.62	12.6064
2719.97	12.481
2721.31	12.2227
2722.65	12.7923
2723.99	12.6402
2725.34	13.1036
2726.68	12.9607
2728.02	12.4377
2729.36	12.5307
2730.7	12.3523
2732.04	12.1813
2733.39	11.9981
2734.73	11.7573
2736.07	11.4418
2737.41	10.9124
2738.75	10.7206
2740.08	10.3113
2741.43	10.3694
2742.76	10.3016
2744.1	10.1284
2745.44	9.54855
2746.78	9.34092
2748.12	9.10081
2749.46	9.05551
2750.79	8.86638
2752.13	8.73545
2753.47	8.45477
2754.81	8.06869
2756.14	7.39423
2757.48	7.36976
2758.81	6.86616
2760.15	6.71669
2761.49	6.3553
2762.82	6.36891
2764.16	6.64438
2765.49	6.36619
2766.83	6.41906
2768.16	6.60998
2769.5	6.44585
2770.83	6.90434
2772.16	7.10869
2773.5	6.77456
2774.83	6.76211
2776.17	6.74534
2777.5	7.33553
2778.83	8.16059
2780.16	8.66066
2781.5	9.15097
2782.83	9.55775
2784.16	8.92703
2785.49	8.94225
2786.82	8.66538
2788.15	8.77651
2789.49	9.37667
2790.82	9.47472
2792.15	9.9802
2793.48	9.80089
2794.81	9.62776
2796.14	9.86777
2797.46	9.8625
2798.79	10.169
2800.12	10.2686
2801.45	9.73459
2802.78	9.48223
2804.11	9.93417
2805.44	9.64637
2806.76	9.31927
2808.09	9.39105
2809.42	9.23088
2810.75	8.8297
2812.07	8.7259
2813.4	9.03016
2814.73	9.3105
2816.05	9.42107
2817.38	9.99244
2818.7	10.4654
2820.03	11.3525
2821.36	12.6683
2822.68	14.2656
2824.01	16.3376
2825.33	18.197
2826.65	20.227
2827.98	22.2109
2829.3	24.1062
2830.63	26.1831
2831.95	28.3083
2833.27	30.7243
2834.6	32.9179
2835.92	35.3787
2837.24	38.208
2838.56	41.1797
2839.88	44.8546
2841.21	48.904
2842.53	52.8352
2843.85	56.8875
2845.17	61.0046
2846.49	64.6884
2847.81	68.8746
2849.13	73.2968
2850.45	77.9166
2851.77	82.7044
2853.09	87.6559
2854.41	93.2187
2855.73	98.6046
2857.05	103.781
2858.37	108.293
2859.69	112.275
2861	116.362
2862.32	120.756
2863.64	124.785
2864.96	128.757
2866.28	132.271
2867.59	135.424
2868.91	138.661
2870.23	141.392
2871.54	143.626
2872.86	146.755
2874.17	149.853
2875.49	151.759
2876.81	153.681
2878.12	155.751
2879.44	157.777
2880.75	159.552
2882.07	161.975
2883.38	164.042
2884.69	166.11
2886.01	167.956
2887.32	170.04
2888.63	172.032
2889.95	173.719
2891.26	175.464
2892.57	176.739
2893.89	178.243
2895.2	180.275
2896.51	182.415
2897.82	184.433
2899.13	186.892
2900.44	189.832
2901.76	193.922
2903.07	197.903
2904.38	201.918
2905.69	206.314
2907	210.625
2908.31	214.736
2909.62	219.66
2910.93	224.95
2912.24	230.007
2913.55	235.364
2914.85	240.651
2916.16	245.052
2917.47	249.868
2918.78	254.892
2920.09	259.596
2921.4	262.268
2922.7	265.068
2924.01	267.381
2925.32	269.401
2926.62	271.029
2927.93	272.264
2929.24	272.408
2930.54	272.732
2931.85	272.119
2933.15	270.608
2934.46	269.127
2935.76	267.281
2937.07	265.572
2938.37	263.102
2939.68	260.072
2940.98	255.883
2942.29	252.159
2943.59	248.518
2944.89	243.994
2946.2	239.518
2947.5	234.932
2948.8	229.992
2950.11	225.07
2951.41	219.826
2952.71	214.685
2954.01	209.866
2955.32	205.039
2956.62	200.07
2957.92	194.625
2959.22	190.324
2960.52	186.052
2961.82	181.257
2963.12	176.927
2964.42	173.137
2965.72	169.124
2967.02	165.513
2968.32	161.147
2969.62	157.234
2970.92	153.964
2972.22	150.051
2973.51	147.374
2974.81	144.327
2976.11	141.114
2977.41	137.273
2978.71	133.495
2980	129.873
2981.3	125.817
2982.6	122.19
2983.9	118.074
2985.19	113.812
2986.49	109.322
2987.78	105.713
2989.08	101.5
2990.38	97.0452
2991.67	92.8013
2992.97	88.4753
2994.26	84.1736
2995.56	81.1866
2996.85	77.1708
2998.14	73.5612
2999.44	70.3197
3000.73	67.0323
3002.03	63.7739
3003.32	60.3544
3004.61	56.8767
3005.91	53.499
3007.2	50.5589
3008.49	47.7171
3009.78	44.744
3011.07	42.2268
3012.37	39.8804
3013.66	38.6846
3014.95	36.7591
3016.24	34.7358
3017.53	33.2086
3018.82	32.1816
3020.11	30.5038
3021.4	28.7845
3022.69	28.3342
3023.98	27.7398
3025.27	26.5964
3026.56	25.9986
3027.85	25.284
3029.14	24.7536
3030.43	24.1692
3031.71	23.9124
3033	23.3274
3034.29	23.7811
3035.58	24.1177
3036.87	24.7387
3038.15	25.5856
3039.44	25.3284
3040.73	25.7301
3042.01	25.5412
3043.3	25.9993
3044.59	26.5521
3045.87	27.0869
3047.16	27.6735
3048.44	28.1737
3049.73	28.4871
3051.01	28.5033
3052.3	28.2296
3053.58	28.2482
3054.87	28.2014
3056.15	28.422
3057.43	28.5669
3058.72	28.812
3060	29.041
3061.29	28.3215
3062.57	28.1451
3063.85	27.5902
3065.13	27.1628
3066.42	26.591
3067.7	25.4378
3068.98	24.2751
3070.26	23.8344
3071.54	22.96
3072.82	22.377
3074.11	21.5524
3075.39	20.8931
3076.67	20.0309
3077.95	19.1828
3079.23	17.4494
3080.51	16.0428
3081.79	14.9142
3083.07	13.3521
3084.35	12.494
3085.63	11.7544
3086.9	10.7669
3088.18	9.28819
3089.46	8.20174
3090.74	8.12878
3092.02	6.99516
3093.29	6.63155
3094.57	6.43885
3095.85	5.84253
3097.13	5.40933
3098.4	5.27588
3099.68	4.88023
3100.95	4.72202
3102.23	4.5087
3103.51	3.92004
3104.78	3.76978
3106.06	3.81925
3107.33	4.1263
3108.61	4.02678
3109.88	3.74645
3111.16	3.62277
3112.43	3.22868
3113.71	2.96003
3114.98	2.85181
3116.25	2.90433
3117.53	3.04312
3118.8	2.99286
3120.07	3.07743
3121.35	3.19377
3122.62	3.1889
3123.89	3.21151
3125.16	3.07928
3126.44	3.12329
3127.71	2.86102
3128.98	2.72472
3130.25	2.49037
3131.52	2.28607
3132.79	2.41602
3134.06	2.75478
3135.33	2.25537
3136.6	1.87242
3137.87	1.19552
3139.14	0.837117
3140.41	0.151095
3141.68	-0.0392253
3142.95	-0.209321
3144.22	-0.278084
3145.49	-0.280095
3146.76	-0.181824
3148.02	-0.7891
3149.29	0.270428
