#Acq. time (s)=	45
#Accumulations=	2
#Range (cm-¹)=	200...3150
#Windows=	2
#Auto scanning=	Off
#Autofocus=	Off
#Macrospot=	Off
#AutoExposure=	Off
#Spike filter=	Multiple accum.
#Delay time (s)=	0
#Binning=	1
#Readout mode=	Signal
#DeNoise=	Off
#ICS correction=	On
#Dark correction=	Off
#Inst. Process=	Off
#Detector Gain=	Best Dynamic Range
#Detector ADC=	20 kHz       
#Detector temperature (°C)=	-69.85
#Instrument=	LabRAM HR Evol
#Detector=	Synapse
#Objective=	x100
#Grating=	600 gr/mm
#ND Filter=	100%
#Laser (nm)=	532 
#Hole=	100.021
#Range=	Auto
#Laser Pol.=	No
#Raman. Pol.=	No
#Laser Pol. (°)=	-0.0007625
#Raman Pol. (°)=	89.9995
#Collection=	Microscope
#StageXY=	Marzhauser
#StageZ=	Marzhauser
#X (µm)=	-5910.6
#Y (µm)=	2880.2
#Z (µm)=	-223.55
#Full time(mm:ss)=	3:18
#Project=	
#Sample=	
#Site=	
#Title=	Thy_20_09_24_2x_45s_532 nm_x100_100%_600 gr_mm
#Remark=	
#Date=	29.06.2022 12:20
#Acquired=	29.06.2022 12:20:56
#Base:Fit=	10.08.2022 09:52:02
#Base:Fit=	10.08.2022 09:52:12
#Base:Sub=	10.08.2022 09:54:21
#Filter:Polynom=	16.08.2022 10:24:04
#AxisType[0]=Intens
#AxisUnit[0]=Cnt
#AxisType[1]=Spectr
#AxisUnit[1]=1/cm
200.523	-0.105492
202.339	5.63233
204.154	12.8773
205.967	17.7294
207.781	21.2348
209.596	23.5847
211.409	25.0868
213.222	25.9895
215.034	26.8448
216.848	26.5823
218.659	27.2829
220.47	27.2442
222.281	27.6864
224.091	26.7245
225.903	25.9544
227.713	26.5846
229.522	25.4757
231.331	24.3627
233.14	23.6957
234.948	23.9766
236.756	23.6854
238.566	23.4453
240.373	23.2506
242.18	24.0238
243.986	23.5433
245.792	24.5434
247.598	23.3862
249.403	21.3328
251.208	19.5739
253.013	18.435
254.818	18.1351
256.624	17.3939
258.427	16.0878
260.231	15.6199
262.034	15.2913
263.836	15.9385
265.638	16.1869
267.44	16.5222
269.242	16.8479
271.043	17.1959
272.844	17.4683
274.645	16.4961
276.445	16.0413
278.245	15.0705
280.044	16.0621
281.843	16.8775
283.642	17.3722
285.44	16.8573
287.238	17.1752
289.036	17.5382
290.833	17.3805
292.63	16.9331
294.425	15.433
296.221	15.3343
298.017	14.6406
299.813	14.9574
301.608	15.4086
303.403	15.7006
305.198	15.4108
306.992	15.3855
308.786	16.2732
310.579	15.987
312.371	16.6128
314.163	16.4596
315.956	16.5651
317.748	16.7333
319.54	16.4608
321.331	17.1482
323.122	18.3446
324.911	19.0382
326.701	18.4768
328.491	18.7175
330.281	19.7609
332.071	19.9493
333.857	20.0201
335.646	19.6981
337.434	18.3356
339.222	17.8448
341.008	17.7417
342.795	16.6199
344.582	16.3577
346.369	14.8029
348.153	14.3199
349.939	13.8323
351.724	14.638
353.51	14.3127
355.292	12.7443
357.077	12.8168
358.861	13.7306
360.643	14.2801
362.426	14.077
364.21	13.8323
365.99	12.9269
367.773	12.4096
369.555	12.4372
371.335	12.3043
373.116	11.5869
374.897	11.0314
376.676	11.1247
378.456	11.7818
380.236	11.1027
382.014	11.0153
383.793	10.6528
385.57	10.762
387.349	11.1633
389.127	12.3818
390.903	12.3882
392.681	11.6631
394.456	11.1516
396.233	11.6311
398.007	11.0413
399.784	10.652
401.56	11.5801
403.333	11.297
405.108	10.7654
406.881	11.0265
408.656	11.6706
410.428	11.5786
412.202	10.7016
413.973	10.4949
415.746	10.171
417.517	11.6495
419.29	11.8549
421.06	10.9398
422.831	10.126
424.601	8.42414
426.37	8.36906
428.141	7.94186
429.909	6.91473
431.679	5.79354
433.447	6.26768
435.216	6.07044
436.983	6.44809
438.75	6.71997
440.519	5.98767
442.285	4.86878
444.052	4.47544
445.818	5.54206
447.583	5.88382
449.349	5.13113
451.114	3.79774
452.878	2.81036
454.643	3.25513
456.407	3.7556
458.169	5.08058
459.934	6.32617
461.696	6.89723
463.458	7.57065
465.222	8.45229
466.983	9.07621
468.744	8.79842
470.507	9.30417
472.267	10.0183
474.027	11.5456
475.787	12.6935
477.548	12.7835
479.307	12.8927
481.065	12.9424
482.823	14.0212
484.583	15.1442
486.341	15.999
488.098	17.2827
489.855	18.7912
491.612	18.685
493.37	19.7277
495.126	20.7798
496.881	21.8681
498.636	22.5424
500.391	22.2244
502.148	23.0995
503.902	23.7671
505.656	24.2296
507.409	23.0062
509.162	23.2554
510.915	23.4461
512.668	24.2409
514.42	24.3645
516.174	24.0523
517.925	23.6869
519.676	23.1897
521.427	23.6935
523.178	24.0683
524.928	24.0555
526.678	22.9698
528.427	21.6271
530.176	21.6942
531.925	22.3788
533.673	21.9159
535.422	22.1077
537.169	22.1582
538.917	21.065
540.664	21.929
542.411	21.6651
544.157	20.3482
545.903	20.3999
547.649	19.6821
549.395	19.6485
551.14	18.9447
552.884	17.9406
554.629	16.983
556.373	17.257
558.117	17.3217
559.86	17.3538
561.603	17.3203
563.346	17.192
565.089	16.1766
566.831	16.6691
568.573	16.6532
570.314	16.7233
572.053	15.8505
573.794	15.4995
575.534	14.6702
577.274	14.409
579.014	14.2045
580.754	13.742
582.493	12.9382
584.23	12.3004
585.968	10.9527
587.706	9.96869
589.444	10.0732
591.181	10.7627
592.919	10.6649
594.653	10.9632
596.39	10.9166
598.126	10.5971
599.862	9.98351
601.595	9.82268
603.33	10.234
605.065	11.1917
606.8	11.5712
608.532	11.7466
610.266	11.8685
611.999	11.5587
613.732	10.8536
615.463	11.4257
617.196	11.6967
618.928	11.9929
620.66	11.9195
622.389	12.6257
624.12	12.4803
625.851	11.3243
627.58	12.0725
629.31	12.3194
631.04	12.725
632.767	13.3871
634.497	13.7484
636.223	14.0922
637.952	13.7416
639.68	14.5366
641.406	15.3693
643.134	16.3118
644.861	17.0406
646.586	18.1204
648.312	19.8824
650.037	20.3754
651.762	20.225
653.486	21.4657
655.211	22.2702
656.936	21.6846
658.659	21.433
660.383	21.9489
662.105	22.164
663.829	22.3891
665.55	22.3388
667.273	21.3376
668.994	22.2371
670.716	21.9053
672.436	22.4768
674.158	23.1595
675.877	22.8337
677.598	23.716
679.317	23.8126
681.035	23.2461
682.755	23.481
684.473	24.7574
686.192	24.84
687.909	25.6867
689.628	26.2268
691.344	26.7187
693.06	26.5277
694.778	27.2035
696.493	28.3075
698.211	28.5971
699.925	28.0053
701.64	28.9103
703.356	30.0294
705.07	30.5515
706.783	30.8857
708.498	30.2672
710.211	31.3369
711.924	32.3492
713.638	32.9431
715.35	34.3839
717.061	34.052
718.774	34.8291
720.485	35.7483
722.196	36.9818
723.906	37.7967
725.618	39.2189
727.328	39.4062
729.037	41.0013
730.746	41.8425
732.456	43.2618
734.165	44.6879
735.873	45.0154
737.58	45.8324
739.289	47.2373
740.997	49.04
742.703	48.6474
744.41	50.4692
746.116	52.3716
747.823	53.2449
749.529	53.4541
751.234	54.7292
752.938	56.2937
754.643	57.6278
756.347	57.6937
758.051	58.4403
759.756	59.1378
761.459	59.6937
763.162	61.5505
764.865	61.8866
766.567	62.715
768.269	64.3728
769.97	64.9677
771.671	64.9526
773.372	66.0356
775.073	66.0468
776.773	65.8614
778.473	65.901
780.174	65.9873
781.874	65.5218
783.573	66.143
785.271	66.7599
786.97	66.9932
788.668	67.7083
790.365	67.9648
792.063	68.7789
793.76	69.1621
795.456	69.8706
797.153	70.1382
798.847	70.8586
800.543	72.1117
802.238	72.2167
803.933	73.0427
805.628	73.5766
807.322	73.7896
809.017	73.3673
810.71	73.8849
812.404	72.9
814.097	74.5301
815.79	74.4946
817.483	76.3355
819.173	76.7675
820.865	77.1065
822.556	77.7138
824.248	78.6327
825.939	79.5772
827.629	78.931
829.318	79.7992
831.008	79.4139
832.697	78.3527
834.387	78.4228
836.076	79.2165
837.765	78.4211
839.451	77.4117
841.139	76.1373
842.827	75.4599
844.514	75.1126
846.2	73.4186
847.886	73.1002
849.573	71.0649
851.259	69.8764
852.943	68.0846
854.629	65.7749
856.314	63.0891
857.997	61.1382
859.682	58.4625
861.366	57.0791
863.05	56.0026
864.732	54.5076
866.415	53.5329
868.098	52.4648
869.779	51.2235
871.461	50.3729
873.141	50.5404
874.823	49.7
876.505	48.3105
878.184	46.1196
879.865	46.0553
881.545	46.0518
883.223	45.1685
884.903	44.3511
886.581	44.0977
888.26	42.8792
889.937	42.5468
891.616	42.1756
893.294	41.8806
894.97	40.9755
896.648	39.6196
898.323	39.7467
900	38.6535
901.675	39.0217
903.351	38.3945
905.026	38.3671
906.701	37.8504
908.375	38.2935
910.05	38.2313
911.723	37.4796
913.398	37.6734
915.07	37.6894
916.742	37.8956
918.415	37.9756
920.087	37.721
921.76	36.7718
923.43	37.0835
925.103	36.5364
926.773	36.753
928.443	37.4311
930.114	36.4137
931.783	36.043
933.454	34.3418
935.123	33.557
936.791	32.8072
938.461	32.1826
940.128	31.6843
941.796	31.0224
943.464	29.9768
945.131	28.656
946.797	28.5558
948.465	28.3224
950.131	28.8671
951.797	29.1176
953.462	29.5558
955.128	28.3442
956.793	27.1815
958.457	25.8961
960.121	24.4142
961.786	24.3031
963.45	25.4677
965.113	24.6728
966.775	25.1453
968.44	25.305
970.102	26.4609
971.763	25.3659
973.425	26.4072
975.086	26.057
976.748	25.8614
978.409	26.0451
980.069	26.4979
981.729	26.71
983.388	27.4994
985.048	28.2562
986.708	28.3516
988.367	28.5385
990.025	28.9201
991.683	30.1512
993.341	30.7261
994.998	30.9893
996.655	31.4053
998.312	31.6401
999.969	32.0616
1001.62	32.0987
1003.28	33.4793
1004.94	33.1893
1006.59	33.2207
1008.25	32.6967
1009.9	32.5746
1011.56	32.0398
1013.21	30.4804
1014.86	30.7114
1016.52	29.6264
1018.17	28.4363
1019.82	27.6742
1021.48	26.2697
1023.13	25.1146
1024.78	23.5283
1026.43	21.8499
1028.08	21.156
1029.73	21.7234
1031.38	20.8019
1033.03	19.0084
1034.68	17.5015
1036.33	15.6146
1037.98	13.539
1039.63	13.128
1041.28	12.5298
1042.93	12.7247
1044.57	13.2049
1046.22	13.8794
1047.87	13.3447
1049.52	14.1885
1051.16	13.7633
1052.81	14.3808
1054.45	13.5172
1056.1	13.8184
1057.75	14.1746
1059.39	14.4784
1061.04	14.5771
1062.68	13.9555
1064.32	13.7429
1065.97	14.3969
1067.61	15.6054
1069.25	16.1713
1070.9	17.2474
1072.54	17.9633
1074.18	18.8789
1075.82	19.3334
1077.47	20.0584
1079.11	21.3006
1080.75	22.2814
1082.39	22.779
1084.03	22.8289
1085.67	23.3855
1087.31	22.0565
1088.95	22.5014
1090.59	22.0486
1092.22	21.9609
1093.86	22.5221
1095.5	22.3196
1097.14	22.3441
1098.78	21.3927
1100.41	21.5362
1102.05	21.2837
1103.69	20.4946
1105.32	20.5004
1106.96	19.5531
1108.59	18.3322
1110.23	19.0871
1111.86	18.1838
1113.5	16.0762
1115.13	14.9425
1116.77	14.4871
1118.4	13.4527
1120.03	12.777
1121.67	12.4472
1123.3	11.1005
1124.93	10.7312
1126.56	10.4305
1128.19	10.1875
1129.83	9.35201
1131.46	8.89079
1133.09	8.41763
1134.72	7.98625
1136.35	8.6313
1137.98	8.61953
1139.61	9.6483
1141.24	8.80345
1142.86	8.30011
1144.49	7.79949
1146.12	8.14812
1147.75	8.44444
1149.38	9.48334
1151	8.6605
1152.63	7.88711
1154.26	7.72619
1155.88	7.66671
1157.51	7.78039
1159.14	8.03358
1160.76	7.32466
1162.39	5.79356
1164.01	5.21235
1165.63	5.13576
1167.26	5.1714
1168.88	4.33719
1170.51	4.5966
1172.13	4.66267
1173.75	5.54946
1175.38	7.12918
1177	5.94301
1178.62	6.72323
1180.24	5.90067
1181.86	5.1985
1183.48	4.51051
1185.1	5.24434
1186.72	6.33382
1188.34	6.65882
1189.96	7.29529
1191.58	7.65655
1193.2	6.8315
1194.82	7.34045
1196.44	9.36321
1198.06	9.5957
1199.68	11.1847
1201.29	12.9889
1202.91	15.1644
1204.53	17.3866
1206.14	20.0389
1207.76	22.6701
1209.38	24.6678
1210.99	27.562
1212.61	29.2809
1214.22	31.7824
1215.84	33.7061
1217.45	36.183
1219.07	37.9274
1220.68	40.2326
1222.29	42.2241
1223.91	44.0465
1225.52	46.2701
1227.13	47.8168
1228.74	49.08
1230.36	50.8938
1231.97	52.2548
1233.58	53.1366
1235.19	55.2626
1236.8	56.7595
1238.41	58.0577
1240.02	59.0021
1241.63	59.849
1243.24	60.5623
1244.85	61.2534
1246.46	61.9633
1248.07	61.5036
1249.67	61.8173
1251.28	62.5446
1252.89	62.7152
1254.5	63.6204
1256.1	63.7886
1257.71	62.9974
1259.32	64.28
1260.92	64.8508
1262.53	65.9931
1264.13	68.2136
1265.74	69.328
1267.34	69.4418
1268.95	69.9296
1270.55	70.0168
1272.15	70.5795
1273.76	72.7569
1275.36	74.5046
1276.97	76.5858
1278.57	77.713
1280.17	80.7422
1281.77	83.6667
1283.37	85.2457
1284.97	86.5801
1286.58	86.8988
1288.18	88.7941
1289.78	89.7183
1291.38	90.895
1292.98	91.4353
1294.58	93.3175
1296.18	94.2513
1297.78	95.6944
1299.37	96.8668
1300.97	97.7128
1302.57	98.4981
1304.17	98.9843
1305.77	100.694
1307.36	101.849
1308.96	104.154
1310.55	105.26
1312.15	105.854
1313.75	106.397
1315.34	106.693
1316.94	106.558
1318.53	106.232
1320.13	106.123
1321.72	105.252
1323.32	104.256
1324.91	102.744
1326.5	101.827
1328.1	100.543
1329.69	99.7693
1331.28	98.3743
1332.87	97.3643
1334.47	96.6752
1336.06	95.5687
1337.65	94.9153
1339.24	93.2379
1340.83	92.3599
1342.42	91.5402
1344.01	90.4741
1345.6	89.117
1347.19	87.8106
1348.78	86.0224
1350.37	84.8932
1351.96	83.9382
1353.54	83.3141
1355.13	81.4665
1356.72	80.421
1358.31	78.5503
1359.89	77.9752
1361.48	76.3583
1363.07	73.8945
1364.65	72.9159
1366.24	71.7064
1367.82	71.9285
1369.41	70.3213
1370.99	69.5094
1372.58	68.4663
1374.16	67.7553
1375.75	66.3053
1377.33	65.9699
1378.91	65.1985
1380.5	65.2478
1382.08	65.6541
1383.66	64.859
1385.25	64.7598
1386.83	64.3295
1388.41	63.3944
1389.99	61.3017
1391.57	60.1311
1393.15	59.1243
1394.73	57.3678
1396.31	56.7915
1397.89	56.8004
1399.47	55.2195
1401.05	54.8627
1402.63	54.4528
1404.21	53.7101
1405.78	52.6693
1407.36	52.7699
1408.94	52.8883
1410.52	53.7576
1412.1	54.197
1413.67	55.4534
1415.25	56.9791
1416.82	57.8981
1418.4	58.9555
1419.98	61.4047
1421.55	63.364
1423.13	65.5563
1424.7	67.7049
1426.28	69.5049
1427.85	71.9376
1429.42	76.1811
1431	78.6644
1432.57	82.4252
1434.14	84.8603
1435.71	87.3267
1437.29	89.9747
1438.86	92.5814
1440.43	94.6226
1442	97.062
1443.57	98.9156
1445.14	99.353
1446.71	99.7751
1448.28	99.7676
1449.85	100.015
1451.42	100.088
1452.99	100.895
1454.56	99.7819
1456.13	99.3423
1457.7	97.7899
1459.26	96.4413
1460.83	93.8743
1462.4	91.0661
1463.97	88.9974
1465.54	86.0434
1467.1	82.2954
1468.67	78.7372
1470.23	74.9749
1471.8	71.2019
1473.36	68.0721
1474.93	64.2209
1476.49	60.1055
1478.06	55.6559
1479.62	52.8358
1481.19	48.7578
1482.75	44.5645
1484.31	40.7692
1485.88	38.7822
1487.44	35.9546
1489	33.0111
1490.56	30.3482
1492.13	28.4099
1493.69	25.9811
1495.25	25.1395
1496.81	23.8986
1498.37	24.3023
1499.93	24.6857
1501.49	24.1166
1503.05	23.5126
1504.61	24.3731
1506.17	24.9699
1507.73	25.2292
1509.28	24.0758
1510.84	24.5123
1512.4	23.8966
1513.96	23.4568
1515.52	25.1959
1517.07	26.1232
1518.63	27.7615
1520.19	28.8475
1521.74	29.4746
1523.3	30.3825
1524.85	32.6097
1526.41	34.3941
1527.96	36.779
1529.52	37.937
1531.07	40.2361
1532.63	40.6952
1534.18	43.1375
1535.73	43.9861
1537.29	45.5441
1538.84	46.5839
1540.39	47.8275
1541.94	50.0617
1543.5	51.5189
1545.05	53.0379
1546.6	54.2646
1548.15	55.9905
1549.7	57.0027
1551.25	58.9739
1552.8	60.7181
1554.35	61.7562
1555.9	64.2273
1557.45	65.754
1559	67.3187
1560.55	68.7109
1562.1	70.5608
1563.65	72.2961
1565.19	74.332
1566.74	76.2366
1568.29	78.3686
1569.83	80.8808
1571.38	84.0645
1572.93	86.6702
1574.47	88.3827
1576.02	90.1254
1577.56	91.504
1579.11	92.8862
1580.66	95.2257
1582.2	96.5479
1583.74	97.125
1585.29	97.3617
1586.83	98.3109
1588.38	100.401
1589.92	101.077
1591.46	101.624
1593.01	102.903
1594.55	102.044
1596.09	102.629
1597.63	103.017
1599.17	102.623
1600.71	102.107
1602.25	101.917
1603.79	100.758
1605.34	99.6181
1606.88	97.7601
1608.41	97.1086
1609.95	95.9158
1611.49	94.5048
1613.03	92.7047
1614.57	91.5965
1616.11	90.3925
1617.65	89.0801
1619.18	88.3617
1620.72	86.0788
1622.26	84.6366
1623.79	83.0829
1625.33	82.4478
1626.87	81.1175
1628.4	81.5975
1629.94	81.7495
1631.48	81.2408
1633.01	81.5138
1634.55	80.7174
1636.08	81.1424
1637.61	80.9587
1639.15	81.4082
1640.68	81.5947
1642.21	83.0137
1643.75	83.8455
1645.28	85.2669
1646.81	86.5269
1648.34	87.524
1649.88	87.9972
1651.41	88.9866
1652.94	89.1753
1654.47	91.1337
1656	91.1419
1657.53	91.0923
1659.06	90.5035
1660.59	89.8325
1662.12	89.2156
1663.65	88.8262
1665.18	87.2999
1666.71	86.0048
1668.24	85.1841
1669.76	84.4981
1671.29	82.8424
1672.82	81.4881
1674.35	79.1505
1675.87	76.0047
1677.4	73.7739
1678.93	71.2836
1680.45	68.5131
1681.98	65.5829
1683.5	63.4185
1685.03	60.8273
1686.55	58.7143
1688.08	54.3999
1689.6	51.5875
1691.13	48.2481
1692.65	44.3982
1694.17	41.4964
1695.7	38.2349
1697.22	35.5047
1698.74	33.1849
1700.27	30.8269
1701.79	28.472
1703.31	25.6145
1704.83	24.0248
1706.35	21.9513
1707.87	19.4214
1709.39	17.7822
1710.91	16.033
1712.43	14.8445
1713.95	13.5007
1715.47	13.1099
1716.99	12.754
1718.51	12.8943
1720.03	12.11
1721.55	11.536
1723.07	10.3489
1724.58	10.1046
1726.1	9.9327
1727.62	9.33696
1729.13	8.92477
1730.65	8.63299
1732.17	7.04452
1733.68	6.68837
1735.2	6.03253
1736.72	5.78805
1738.23	5.97425
1739.74	6.25039
1741.26	6.06308
1742.77	7.20823
1744.29	6.47726
1745.8	6.35278
1747.32	5.5067
1748.83	5.80397
1750.34	6.13307
1751.85	6.72917
1753.37	7.02349
1754.88	6.16832
1756.39	6.14654
1757.9	6.24208
1759.41	6.28908
1760.92	5.56496
1762.44	5.01478
1763.95	3.87459
1765.46	3.79351
1766.96	3.20386
1768.47	2.88564
1769.98	3.09931
1771.49	2.42138
1773	2.45044
1774.51	1.78089
1776.02	1.86925
1777.53	1.58689
1779.03	2.0074
1780.54	2.70856
1782.05	2.67322
1783.55	2.49931
1785.06	2.35884
1786.57	1.79373
1788.07	1.82903
1789.58	1.79908
1791.08	1.8469
1792.59	1.6147
1794.09	1.30857
1795.6	0.854427
1797.1	0.370116
1798.61	0.310472
1800.11	0.868874
1801.61	0.580564
1803.12	-0.0727923
1804.62	0.552295
1806.12	0.0484866
1807.62	0.26454
1809.12	-0.0271427
1810.63	-0.0408692
1812.13	0.204255
1813.63	-0.344652
1815.13	-0.737969
1816.63	-0.31027
1818.13	0.400041
1819.63	0.20277
1821.13	0.339516
1822.63	0.102243
1824.13	0.660172
1825.63	0.621211
1827.13	1.43539
1828.62	0.920586
1830.12	0.494352
1831.62	0.603906
1833.12	0.796216
1834.61	0.397948
1836.11	0.15024
1837.61	0.203559
1839.1	0.464294
1840.6	0.279685
1842.09	0.295516
1843.59	0.401816
1845.09	-0.150579
1846.58	-0.302537
1848.08	0.161722
1849.57	-0.14241
1851.06	0.29802
1852.56	0.648422
1854.05	1.77796
1855.54	2.05542
1857.04	2.42554
1858.53	2.91399
1860.02	2.87938
1861.51	2.67127
1863.01	2.88804
1864.5	3.33601
1865.99	3.03358
1867.48	3.20256
1868.97	2.89287
1870.46	2.88314
1871.95	3.3027
1873.44	4.50337
1874.93	5.14999
1876.42	5.26849
1877.91	5.65672
1879.4	6.07242
1880.89	5.7833
1882.37	5.504
1882.46	4.68786
1883.95	5.0068
1885.45	5.36733
1886.94	5.52784
1888.43	5.89295
1889.93	6.36718
1891.42	6.49393
1892.91	6.48762
1894.41	6.78596
1895.9	7.14921
1897.39	7.10882
1898.88	6.52613
1900.37	6.51193
1901.86	5.74687
1903.36	5.69425
1904.85	5.78486
1906.34	6.18191
1907.83	6.50987
1909.32	6.43966
1910.81	6.10514
1912.29	5.89527
1913.78	5.57265
1915.27	5.92292
1916.76	6.05208
1918.25	6.01761
1919.74	6.69635
1921.23	7.83833
1922.71	7.78499
1924.2	8.92989
1925.69	9.6031
1927.17	10.3035
1928.66	9.8204
1930.15	10.0209
1931.63	9.59925
1933.12	9.13656
1934.6	9.04998
1936.09	9.39626
1937.57	9.65746
1939.06	9.13387
1940.54	9.08342
1942.02	9.06362
1943.51	9.44056
1944.99	9.72004
1946.47	9.64743
1947.96	9.21639
1949.44	9.03513
1950.92	8.37422
1952.4	8.15018
1953.88	7.38611
1955.37	6.56117
1956.85	6.23504
1958.33	6.39087
1959.81	5.93781
1961.29	5.61932
1962.77	5.05431
1964.25	5.20632
1965.73	5.76836
1967.21	5.39878
1968.69	4.82915
1970.16	3.83828
1971.64	2.9863
1973.12	2.66023
1974.6	3.01672
1976.08	3.23006
1977.55	3.07588
1979.03	3.47338
1980.51	3.56314
1981.98	3.67767
1983.46	3.05932
1984.94	2.64524
1986.41	3.58244
1987.89	4.34845
1989.36	4.83022
1990.84	5.16598
1992.31	5.91696
1993.79	6.76882
1995.26	7.7891
1996.73	7.87524
1998.21	9.13029
1999.68	9.43519
2001.15	9.75978
2002.63	9.20249
2004.1	9.48873
2005.57	8.86642
2007.04	9.07042
2008.51	8.65233
2009.99	8.3811
2011.46	8.80395
2012.93	8.02191
2014.4	7.79985
2015.87	8.07202
2017.34	8.53357
2018.81	8.83948
2020.28	9.0053
2021.75	8.84496
2023.21	8.96941
2024.68	8.08784
2026.15	7.44728
2027.62	7.40657
2029.09	7.66262
2030.56	7.35763
2032.02	7.93905
2033.49	7.76671
2034.96	8.02732
2036.42	8.07263
2037.89	8.46904
2039.36	8.8522
2040.82	9.06222
2042.29	9.10927
2043.75	8.99229
2045.22	9.42051
2046.68	9.9007
2048.14	10.0087
2049.61	9.95286
2051.07	10.2176
2052.54	10.6437
2054	10.8282
2055.46	11.1529
2056.93	11.5458
2058.39	12.4588
2059.85	13.3209
2061.31	13.5579
2062.77	14.3323
2064.23	14.4637
2065.7	14.6381
2067.16	14.5165
2068.62	14.3971
2070.08	14.016
2071.54	14.6413
2073	14.4487
2074.46	14.6168
2075.92	14.5537
2077.38	14.8428
2078.83	14.7817
2080.29	14.7043
2081.75	15.2319
2083.21	15.9273
2084.67	15.9735
2086.12	15.6315
2087.58	15.9544
2089.04	16.5545
2090.49	17.1585
2091.95	17.5889
2093.41	17.5836
2094.86	17.8166
2096.32	18.0382
2097.77	17.9523
2099.23	18.8274
2100.68	20.0779
2102.14	20.106
2103.59	20.2067
2105.05	21.0168
2106.5	21.2774
2107.95	22.0819
2109.41	23.0398
2110.86	24.1295
2112.31	25.3868
2113.76	25.9579
2115.21	26.0872
2116.67	26.3659
2118.12	27.0294
2119.57	27.5506
2121.02	28.638
2122.47	29.9343
2123.92	31.0369
2125.37	32.6818
2126.82	33.8944
2128.27	34.8939
2129.72	35.7245
2131.17	36.9092
2132.62	38.02
2134.07	38.5172
2135.51	39.0624
2136.96	40.1709
2138.41	41.4966
2139.86	42.6376
2141.31	43.0693
2142.75	44.5798
2144.2	46.1246
2145.65	46.6927
2147.09	47.359
2148.54	48.3444
2149.98	49.2619
2151.43	49.9968
2152.87	50.9609
2154.32	52.3211
2155.76	53.1786
2157.21	53.8776
2158.65	54.756
2160.1	55.3891
2161.54	56.5093
2162.98	56.8252
2164.43	57.5984
2165.87	57.7194
2167.31	58.1146
2168.75	58.2114
2170.2	58.3626
2171.64	58.9209
2173.08	59.4249
2174.52	59.8407
2175.96	60.045
2177.4	60.1151
2178.84	59.728
2180.28	59.7357
2181.72	59.4424
2183.16	59.2056
2184.6	58.7023
2186.04	58.1015
2187.48	57.4285
2188.92	56.8143
2190.36	55.9428
2191.79	55.3696
2193.23	55.3973
2194.67	54.5415
2196.11	53.7857
2197.54	53.1854
2198.98	51.5487
2200.42	51.0132
2201.85	49.9137
2203.29	49.3373
2204.72	48.0761
2206.16	46.7706
2207.59	46.2735
2209.03	45.3752
2210.46	43.1842
2211.9	41.3286
2213.33	40.5896
2214.77	40.4379
2216.2	39.073
2217.63	37.0302
2219.07	36.4984
2220.5	35.9504
2221.93	34.392
2223.36	33.7709
2224.8	32.7126
2226.23	32.1021
2227.66	31.7365
2229.09	30.2098
2230.52	28.6735
2231.95	27.8822
2233.39	26.719
2234.81	25.9859
2236.25	25.5874
2237.67	25.2105
2239.1	24.8879
2240.53	24.2483
2241.96	23.612
2243.39	23.3326
2244.82	23.1513
2246.25	22.335
2247.68	21.4452
2249.1	21.1497
2250.53	20.5231
2251.96	20.1109
2253.38	19.6608
2254.81	19.5448
2256.24	19.5981
2257.66	19.2264
2259.09	18.7657
2260.51	19.3741
2261.94	18.8772
2263.36	19.6178
2264.79	19.8155
2266.21	19.7031
2267.64	19.1064
2269.06	19.2876
2270.49	19.2761
2271.91	20.1382
2273.33	19.4426
2274.76	19.436
2276.18	18.9749
2277.6	18.5335
2279.02	17.9059
2280.44	17.5798
2281.87	17.6081
2283.29	17.4141
2284.71	17.1659
2286.13	16.0316
2287.55	15.4323
2288.97	14.8568
2290.39	13.9369
2291.81	13.402
2293.23	12.2567
2294.65	11.9558
2296.07	11.6311
2297.49	12.4763
2298.91	11.71
2300.33	11.3691
2301.74	11.163
2303.16	11.5244
2304.58	11.6112
2306	11.7069
2307.41	11.4089
2308.83	11.5765
2310.25	11.1579
2311.66	10.6662
2313.08	11.2196
2314.5	11.3382
2315.91	12.0213
2317.33	12.0969
2318.74	12.45
2320.16	12.6617
2321.57	12.5451
2322.98	11.9813
2324.4	12.37
2325.81	12.4756
2327.23	12.5
2328.64	11.8979
2330.05	11.9575
2331.46	12.3025
2332.88	12.1879
2334.29	12.5507
2335.7	11.9484
2337.11	12.1882
2338.52	11.5749
2339.94	12.1518
2341.35	12.0443
2342.76	11.643
2344.17	10.6446
2345.58	10.3922
2346.99	9.53796
2348.4	9.54478
2349.81	9.65058
2351.22	9.37739
2352.62	8.83841
2354.03	8.13738
2355.44	7.2277
2356.85	6.72811
2358.26	6.18198
2359.67	5.59432
2361.07	4.97543
2362.48	5.80266
2363.89	5.90826
2365.29	7.13677
2366.7	7.0215
2368.11	7.205
2369.51	6.02308
2370.92	5.66043
2372.32	5.27547
2373.73	5.17628
2375.13	4.64059
2376.54	4.40003
2377.94	4.72549
2379.35	4.94124
2380.75	4.79479
2382.15	4.26637
2383.56	4.73982
2384.96	4.38364
2386.36	4.41108
2387.76	4.23654
2389.17	4.15297
2390.57	3.25868
2391.97	2.75479
2393.37	1.83236
2394.77	2.20787
2396.17	1.94527
2397.58	2.10182
2398.98	1.75432
2400.38	2.16089
2401.78	2.90827
2403.18	2.66659
2404.58	3.07576
2405.97	2.65792
2407.37	3.16739
2408.77	3.36765
2410.17	3.88837
2411.57	4.2307
2412.97	4.5104
2414.37	5.52747
2415.76	6.1717
2417.16	6.18296
2418.56	7.32502
2419.95	7.8002
2421.35	7.85379
2422.75	7.9938
2424.14	8.31937
2425.54	7.94283
2426.93	8.48062
2428.33	8.56536
2429.72	8.69074
2431.12	9.68887
2432.51	9.65663
2433.91	9.84945
2435.3	9.81779
2436.7	8.70095
2438.09	8.96978
2439.48	8.30521
2440.88	8.19658
2442.27	8.81404
2443.66	8.90289
2445.05	8.5617
2446.44	8.85391
2447.84	8.72435
2449.23	8.03247
2450.62	7.67084
2452.01	7.01727
2453.4	7.59352
2454.79	7.09484
2456.18	6.80177
2457.57	6.59048
2458.96	5.81004
2460.35	4.44589
2461.74	4.1244
2463.13	3.32462
2464.52	3.22608
2465.91	2.92809
2467.29	3.02997
2468.68	2.28141
2470.07	2.45598
2471.46	2.01258
2472.85	1.81325
2474.23	1.99811
2475.62	0.90965
2477.01	1.6094
2478.39	1.8597
2479.78	2.5089
2481.16	2.67771
2482.55	2.71356
2483.93	2.69852
2485.32	2.57353
2486.7	2.00644
2488.09	1.98883
2489.47	1.91055
2490.86	1.15655
2492.24	1.05922
2493.62	0.84325
2495.01	0.481573
2496.39	0.463281
2497.77	0.28777
2499.15	0.33731
2500.54	0.701498
2501.92	-0.929289
2503.3	-0.949116
2504.68	-1.28993
2506.06	-1.65341
2507.45	-1.0299
2508.83	-0.878423
2510.21	-0.639577
2511.59	-0.35792
2512.97	-0.692859
2514.35	-1.11128
2515.73	-0.325497
2517.11	-0.215936
2518.48	-0.400113
2519.86	-0.0237583
2521.24	-0.0746395
2522.62	0.244168
2524	-0.000700209
2525.38	-0.331132
2526.75	0.0447776
2528.13	-0.191857
2529.51	-0.245812
2530.89	0.545742
2532.26	0.412769
2533.64	1.45004
2535.02	2.02724
2536.39	2.28342
2537.77	2.52264
2539.14	2.95298
2540.52	2.93892
2541.89	3.94254
2543.27	3.78105
2544.64	4.81005
2546.01	5.54966
2547.39	5.88822
2548.76	6.69176
2550.14	6.54309
2551.51	6.66595
2552.88	6.83597
2554.25	6.99817
2555.63	6.08884
2557	5.99094
2558.37	6.36334
2559.74	5.80947
2561.11	5.76089
2562.49	5.38116
2563.86	5.31665
2565.23	5.13221
2566.6	4.89944
2567.97	4.6659
2569.34	4.30838
2570.71	3.95473
2572.08	4.0862
2573.45	3.90921
2574.82	4.26745
2576.18	4.26116
2577.55	3.53336
2578.92	3.7549
2580.29	3.50574
2581.66	3.08719
2583.02	3.73129
2584.39	3.94427
2585.76	3.2675
2587.13	2.45641
2588.49	1.95934
2589.86	1.69831
2591.22	2.27939
2592.59	2.40515
2593.96	2.69853
2595.32	3.28821
2596.69	3.59808
2598.05	3.86639
2599.42	4.27104
2600.78	4.08522
2602.14	4.65024
2603.51	4.38936
2604.87	4.71501
2606.23	5.0017
2607.6	4.67075
2608.96	4.75622
2610.32	4.7505
2611.69	4.66343
2613.05	5.9747
2614.41	6.14137
2615.77	6.76346
2617.13	6.86511
2618.49	6.41461
2619.86	6.79688
2621.22	7.02383
2622.58	6.43157
2623.94	5.6311
2625.3	5.77108
2626.66	6.06527
2628.02	5.71481
2629.37	5.94965
2630.73	6.26193
2632.09	6.02832
2633.45	5.73586
2634.81	5.39922
2636.17	5.70692
2637.53	5.87567
2638.88	5.8869
2640.24	5.58675
2641.6	5.55999
2642.96	5.61032
2644.31	5.49318
2645.67	5.22899
2647.02	5.78251
2648.38	4.79125
2649.74	4.65594
2651.09	4.84746
2652.45	4.09177
2653.8	3.89947
2655.16	3.85494
2656.51	3.9438
2657.86	4.49784
2659.22	5.06485
2660.57	4.44488
2661.93	4.18534
2663.28	3.68541
2664.63	3.33398
2665.98	2.61271
2667.34	2.84936
2668.69	3.29409
2670.04	3.01685
2671.39	3.35509
2672.75	3.67052
2674.09	3.28215
2675.45	3.02263
2676.8	3.75201
2678.15	3.72759
2679.5	4.61072
2680.85	5.07552
2682.2	4.93705
2683.55	4.54422
2684.9	4.2861
2686.25	4.47578
2687.6	5.07659
2688.94	4.32576
2690.29	4.00935
2691.64	4.43138
2692.99	5.08218
2694.34	5.3232
2695.68	5.40714
2697.03	6.33794
2698.38	6.56408
2699.73	6.7034
2701.07	7.35632
2702.42	7.98143
2703.76	8.4686
2705.11	8.48358
2706.45	8.20339
2707.8	8.83852
2709.15	9.03948
2710.49	9.56529
2711.83	10.1497
2713.18	10.7908
2714.52	11.6459
2715.87	11.787
2717.21	12.6696
2718.55	13.3907
2719.9	13.644
2721.24	13.6538
2722.58	13.8665
2723.93	14.1559
2725.27	14.1746
2726.61	13.7493
2727.95	13.675
2729.29	13.9464
2730.63	14.1421
2731.98	14.441
2733.32	14.6519
2734.66	14.6845
2736	14.4939
2737.34	13.7879
2738.68	13.5958
2740.02	13.0046
2741.36	12.549
2742.7	12.2339
2744.03	11.8586
2745.37	10.6747
2746.71	10.4202
2748.05	9.89771
2749.39	9.09046
2750.72	8.95435
2752.06	8.61903
2753.4	8.14864
2754.74	7.76881
2756.07	6.9113
2757.41	6.84038
2758.75	5.51142
2760.08	5.51927
2761.42	5.64791
2762.76	5.70496
2764.09	5.23363
2765.42	4.23233
2766.76	3.97055
2768.09	3.64423
2769.43	3.53254
2770.76	2.98842
2772.1	2.6737
2773.43	3.2766
2774.76	3.46527
2776.1	3.73272
2777.43	4.32045
2778.76	4.94984
2780.1	5.23176
2781.43	4.72879
2782.76	4.62048
2784.09	4.83577
2785.42	5.11302
2786.75	5.17576
2788.09	4.88786
2789.42	5.15647
2790.75	5.17258
2792.08	4.89927
2793.41	5.51657
2794.74	6.02971
2796.07	5.56272
2797.4	5.09984
2798.73	4.94163
2800.06	4.39457
2801.39	3.60348
2802.71	3.03878
2804.04	2.42255
2805.37	1.9616
2806.7	1.02847
2808.03	0.457219
2809.35	-0.262864
2810.68	-0.790183
2812.01	-0.837749
2813.33	-0.840788
2814.66	-0.861629
2815.99	-1.56173
2817.31	-0.859681
2818.64	-1.32088
2819.96	-0.68806
2821.29	-0.195118
2822.61	1.20445
2823.94	2.50233
2825.26	4.0664
2826.59	6.4646
2827.91	7.99951
2829.23	9.56399
2830.56	10.9565
2831.88	13.111
2833.21	15.4074
2834.53	17.2686
2835.85	19.6994
2837.17	22.6219
2838.5	25.8427
2839.82	29.2185
2841.14	33.2652
2842.46	37.2116
2843.78	40.8421
2845.1	45.2353
2846.42	49.0505
2847.74	53.3186
2849.06	58.5935
2850.38	63.4146
2851.71	68.9617
2853.03	73.6995
2854.34	78.8189
2855.66	84.1712
2856.98	89.0231
2858.3	93.6244
2859.62	98.0449
2860.94	101.828
2862.26	105.29
2863.57	109.021
2864.89	112.916
2866.21	115.933
2867.53	119.475
2868.84	122.906
2870.16	126.95
2871.48	130.159
2872.79	132.82
2874.11	135.899
2875.42	138.017
2876.74	140.568
2878.05	143.623
2879.37	146.212
2880.68	147.863
2882	149.879
2883.31	153.415
2884.63	155.641
2885.94	158.279
2887.26	160.681
2888.57	163.461
2889.88	166.062
2891.19	168.389
2892.51	170.625
2893.82	172.843
2895.13	175.648
2896.44	178.173
2897.76	181.934
2899.07	185.343
2900.38	189.308
2901.69	194.144
2903	199.167
2904.31	203.768
2905.62	209.658
2906.93	215.657
2908.24	220.515
2909.55	225.914
2910.86	231.302
2912.17	237.256
2913.48	242.857
2914.79	248.717
2916.1	254.364
2917.41	260.423
2918.71	265.029
2920.02	269.399
2921.33	272.294
2922.64	275.647
2923.94	278.555
2925.25	280.578
2926.56	282.199
2927.86	283.684
2929.17	284.177
2930.48	285.295
2931.78	285.533
2933.09	285.311
2934.39	284.43
2935.7	283.422
2937	280.593
2938.31	277.754
2939.61	275.307
2940.92	271.9
2942.22	269.022
2943.53	265.523
2944.83	261.044
2946.13	256.401
2947.43	252.011
2948.74	247.373
2950.04	241.7
2951.34	236.663
2952.64	231.562
2953.95	226.532
2955.25	221.455
2956.55	216.077
2957.85	210.76
2959.15	205.265
2960.45	200.482
2961.75	195.794
2963.05	191.171
2964.35	186.308
2965.65	182.083
2966.95	177.978
2968.25	174.422
2969.55	170.018
2970.85	165.895
2972.15	161.237
2973.45	156.597
2974.75	151.702
2976.05	146.961
2977.34	142.731
2978.64	137.553
2979.94	132.816
2981.24	128.376
2982.53	122.689
2983.83	116.886
2985.13	111.415
2986.42	105.643
2987.72	100.926
2989.01	95.2354
2990.31	90.1065
2991.61	85.3651
2992.9	80.2301
2994.19	74.7316
2995.49	70.795
2996.78	65.6531
2998.08	60.5889
2999.37	56.4393
3000.67	51.8361
3001.96	47.684
3003.25	44.3127
3004.55	41.397
3005.84	37.3024
3007.13	34.302
3008.42	31.6003
3009.72	28.6363
3011.01	26.0502
3012.3	23.3131
3013.59	21.462
3014.88	19.5484
3016.17	18.2628
3017.46	16.5134
3018.76	15.2408
3020.05	14.0035
3021.34	12.9882
3022.63	11.3275
3023.92	10.594
3025.21	10.2354
3026.49	10.0058
3027.78	9.40071
3029.07	9.26977
3030.36	8.96684
3031.65	9.4563
3032.94	9.65584
3034.23	9.03519
3035.51	9.4255
3036.8	9.52988
3038.09	9.7745
3039.38	10.0279
3040.66	10.7355
3041.95	11.3164
3043.23	12.1617
3044.52	12.5015
3045.81	13.0899
3047.09	13.146
3048.38	13.6705
3049.66	14.2803
3050.95	14.7221
3052.23	15.4048
3053.52	15.3386
3054.8	15.4775
3056.09	15.5159
3057.37	14.7389
3058.65	14.8627
3059.94	14.94
3061.22	14.625
3062.5	14.4641
3063.79	14.4271
3065.07	14.0983
3066.35	13.9125
3067.63	13.4901
3068.92	12.8999
3070.2	12.2078
3071.48	12.3489
3072.76	11.5436
3074.04	10.2098
3075.32	9.48748
3076.6	9.15258
3077.88	8.42168
3079.16	7.42827
3080.44	6.86699
3081.72	5.52564
3083	4.58829
3084.28	3.52075
3085.56	2.8307
3086.84	2.26091
3088.12	1.5456
3089.4	1.00642
3090.67	0.584663
3091.95	-0.067003
3093.23	0.0356897
3094.51	-0.264337
3095.78	-0.136175
3097.06	-0.360441
3098.34	-0.770387
3099.61	-0.580962
3100.89	-0.98394
3102.17	-0.795094
3103.44	-0.720769
3104.72	-0.363287
3105.99	-0.103719
3107.27	0.423876
3108.54	0.319343
3109.82	0.786389
3111.09	1.03317
3112.37	1.36917
3113.64	1.78156
3114.92	1.78958
3116.19	1.75035
3117.46	2.38289
3118.74	2.91454
3120.01	3.45195
3121.28	3.46417
3122.55	4.22254
3123.83	4.61089
3125.1	5.20061
3126.37	5.55884
3127.64	6.25612
3128.91	6.92285
3130.19	7.12909
3131.46	7.71094
3132.73	8.43214
3134	9.48523
3135.27	10.2756
3136.54	10.2892
3137.81	11.5944
3139.08	13.1082
3140.35	14.3327
3141.62	14.8633
3142.89	15.9038
3144.16	17.0859
3145.42	18.3933
3146.69	19.5746
3147.96	20.154
3149.23	20.0825
