#Acq. time (s)=	45
#Accumulations=	2
#Range (cm-¹)=	200...3150
#Windows=	2
#Auto scanning=	Off
#Autofocus=	Off
#Macrospot=	Off
#AutoExposure=	Off
#Spike filter=	Multiple accum.
#Delay time (s)=	0
#Binning=	1
#Readout mode=	Signal
#DeNoise=	Off
#ICS correction=	On
#Dark correction=	Off
#Inst. Process=	Off
#Detector Gain=	Best Dynamic Range
#Detector ADC=	20 kHz       
#Detector temperature (°C)=	-69.85
#Instrument=	LabRAM HR Evol
#Detector=	Synapse
#Objective=	x100
#Grating=	600 gr/mm
#ND Filter=	100%
#Laser (nm)=	532 
#Hole=	100.021
#Range=	Auto
#Laser Pol.=	No
#Raman. Pol.=	No
#Laser Pol. (°)=	-0.0007625
#Raman Pol. (°)=	89.9995
#Collection=	Microscope
#StageXY=	Marzhauser
#StageZ=	Marzhauser
#X (µm)=	4769
#Y (µm)=	-7717.4
#Z (µm)=	584.6
#Full time(mm:ss)=	3:18
#Project=	
#Sample=	
#Site=	
#Title=	Thy_30_10_24_2x_45s_532 nm_x100_100%_600 gr_mm
#Remark=	
#Date=	30.06.2022 13:13
#Acquired=	30.06.2022 13:13:30
#Base:Fit=	10.08.2022 09:58:11
#Base:Sub=	10.08.2022 09:58:44
#Filter:Polynom=	16.08.2022 10:22:53
#AxisType[0]=Intens
#AxisUnit[0]=Cnt
#AxisType[1]=Spectr
#AxisUnit[1]=1/cm
200.533	27.1797
202.348	24.2032
204.162	21.6036
205.976	18.9837
207.792	16.6743
209.605	14.263
211.418	12.2578
213.23	9.90261
215.044	7.63192
216.856	6.742
218.667	5.8469
220.478	5.32861
222.289	5.1218
224.102	4.37545
225.912	4.00244
227.721	4.0697
229.531	4.30939
231.34	4.8721
233.148	4.84885
234.956	4.45189
236.766	4.15988
238.574	3.4935
240.381	4.00748
242.188	3.82391
243.994	3.90718
245.801	3.67505
247.606	3.56175
249.412	3.89885
251.217	3.48298
253.024	4.22553
254.828	4.16107
256.632	4.28552
258.436	4.16616
260.239	4.93538
262.042	5.21198
263.845	4.76795
265.647	4.80722
267.449	4.2891
269.25	3.74338
271.052	4.42493
272.852	4.45177
274.653	4.26072
276.453	3.71057
278.253	2.68666
280.052	2.09289
281.852	1.9947
283.65	2.38541
285.449	1.82195
287.247	1.11195
289.044	1.11667
290.842	1.2599
292.639	1.77736
294.436	2.28593
296.232	2.21095
298.028	2.22563
299.821	3.54596
301.617	4.2162
303.412	4.77129
305.206	5.83609
307	7.19544
308.794	8.17913
310.588	9.14113
312.381	9.2581
314.172	9.66461
315.964	9.92165
317.756	10.4205
319.548	10.564
321.34	10.9452
323.131	10.9673
324.921	10.5838
326.71	10.9653
328.5	11.2109
330.29	12.1794
332.079	12.2567
333.868	12.3881
335.654	12.0317
337.443	11.5337
339.231	11.5473
341.018	11.2925
342.804	11.4279
344.591	11.4626
346.377	11.5677
348.163	11.6898
349.947	11.2274
351.733	10.9329
353.518	10.4771
355.303	10.3428
357.085	9.81828
358.869	9.35213
360.653	8.53914
362.435	8.03585
364.218	7.22843
366.001	6.47687
367.781	6.18453
369.563	5.47472
371.345	5.54311
373.124	5.7369
374.905	5.80557
376.686	6.11131
378.464	5.98744
380.244	7.38886
382.022	7.30682
383.801	7.16529
385.58	7.2055
387.357	7.64663
389.135	8.65776
390.911	8.71167
392.689	8.08883
394.466	7.32144
396.241	6.36772
398.018	6.07561
399.792	5.74835
401.568	5.36534
403.341	5.86737
405.117	5.13719
406.889	5.26147
408.664	5.31777
410.436	4.92006
412.21	4.3557
413.981	4.20518
415.755	4.58805
417.525	4.70378
419.298	4.9762
421.068	4.84874
422.84	4.65781
424.609	4.08495
426.38	4.18438
428.149	5.07155
429.919	5.71446
431.688	5.49727
433.455	5.74667
435.225	6.3475
436.992	6.60123
438.76	6.23156
440.527	6.64111
442.293	6.37607
444.06	5.82404
445.826	4.88936
447.593	4.47227
449.357	4.26735
451.122	4.0968
452.888	3.94402
454.651	4.33679
456.415	4.06867
458.18	4.87863
459.942	5.74365
461.705	6.11676
463.469	6.26724
465.23	6.78687
466.991	6.91757
468.752	7.38642
470.515	6.81429
472.275	7.23132
474.035	7.64527
475.797	7.50219
477.556	7.61632
479.315	6.99403
481.073	6.70584
482.834	6.69005
484.592	7.64863
486.349	9.13874
488.106	10.3378
489.863	10.3493
491.622	10.878
493.378	10.7204
495.134	11.7307
496.889	12.0197
498.645	12.484
500.401	12.737
502.156	13.7526
503.91	13.2852
505.664	13.6058
507.417	13.9207
509.171	15.0034
510.923	14.9054
512.678	14.7545
514.43	16.2021
516.182	17.005
517.933	17.4178
519.684	17.0012
521.435	16.7385
523.186	17.3641
524.936	16.6709
526.686	15.9704
528.435	16.2465
530.184	16.1678
531.933	15.1784
533.682	15.1779
535.43	15.7351
537.18	15.7164
538.927	15.8108
540.674	15.7908
542.421	14.9037
544.167	14.4341
545.913	13.973
547.659	13.6023
549.403	13.4776
551.148	12.6433
552.893	12.1078
554.637	10.7796
556.381	9.8737
558.125	8.60107
559.868	8.04325
561.611	7.25945
563.354	6.60461
565.097	6.49
566.839	5.51583
568.581	5.56044
570.322	5.11852
572.063	5.85202
573.802	5.14385
575.542	4.4499
577.283	4.08084
579.022	3.81703
580.762	3.75008
582.501	3.29774
584.24	2.84469
585.976	2.82516
587.714	2.4216
589.452	2.28772
591.19	1.67472
592.927	1.36212
594.663	1.26671
596.398	1.73136
598.134	0.995834
599.87	1.24643
601.605	2.19823
603.338	2.24342
605.073	2.61565
606.808	2.75233
608.542	3.05578
610.274	4.62662
612.007	5.24921
613.74	6.21082
615.473	6.5255
617.204	7.17335
618.936	7.29358
620.668	8.85174
622.397	9.32896
624.128	9.94371
625.859	10.1871
627.588	9.97514
629.318	9.98639
631.048	10.4438
632.775	11.0615
634.505	11.1145
636.233	12.2215
637.96	11.4902
639.688	12.0747
641.416	12.2128
643.142	12.6785
644.869	13.2724
646.594	13.4012
648.32	14.3299
650.045	14.9468
651.771	15.8443
653.496	15.469
655.219	16.2722
656.944	16.0552
658.667	17.1885
660.391	17.1506
662.113	17.0131
663.837	16.4911
665.558	16.4614
667.281	16.4842
669.002	15.7594
670.724	16.5614
672.444	15.6043
674.166	14.9322
675.885	14.9059
677.606	15.3677
679.325	15.4977
681.045	16.4894
682.763	17.222
684.483	17.532
686.2	18.0465
687.917	18.8827
689.636	19.3624
691.352	20.2281
693.07	20.3519
694.786	20.4206
696.501	21.5914
698.219	21.8655
699.933	21.888
701.65	21.8155
703.364	23.173
705.078	23.3676
706.793	24.6525
708.506	25.383
710.219	25.6071
711.934	25.785
713.646	25.8001
715.358	26.7398
717.071	28.7651
718.782	30.2267
720.493	31.1778
722.204	32.746
723.916	33.6359
725.626	35.6478
727.336	36.1505
729.045	36.5457
730.756	37.3356
732.464	38.7847
734.173	41.16
735.881	41.6974
737.59	42.7056
739.297	43.2084
741.004	44.6956
742.711	45.9815
744.417	48.0846
746.125	49.5236
747.831	50.847
749.537	52.5694
751.242	55.1122
752.946	56.6193
754.651	58.433
756.357	60.6833
758.061	61.6619
759.764	63.6318
761.467	65.3469
763.17	66.1093
764.872	66.856
766.575	67.8939
768.276	68.8416
769.978	70.2509
771.679	71.2615
773.382	71.184
775.083	71.7531
776.783	72.1533
778.483	72.0292
780.182	72.7611
781.882	73.1999
783.581	73.252
785.279	73.4089
786.978	73.7978
788.676	74.251
790.373	74.4657
792.071	74.6653
793.768	73.7002
795.464	73.3318
797.161	72.518
798.857	73.1495
800.552	73.6086
802.248	73.5824
803.941	72.2381
805.636	71.2588
807.33	71.2116
809.024	71.4989
810.718	70.7132
812.412	70.2244
814.105	71.33
815.798	71.1893
817.49	71.8167
819.183	72.3839
820.873	72.2099
822.564	73.1711
824.256	73.669
825.947	73.7725
827.637	73.5406
829.328	74.8604
831.016	75.3769
832.705	75.2779
834.395	74.7987
836.084	74.1836
837.772	72.3727
839.459	70.7737
841.147	70.0899
842.835	68.2856
844.522	66.6432
846.209	65.8336
847.894	65.2996
849.581	64.5329
851.267	63.253
852.953	62.3194
854.637	60.8393
856.322	59.5741
858.007	57.9014
859.689	57.8258
861.374	56.7539
863.058	55.7232
864.739	54.6932
866.423	53.0975
868.106	52.374
869.787	51.9374
871.469	51.3865
873.151	50.764
874.831	50.1298
876.512	49.2611
878.193	48.4133
879.872	48.7401
881.553	48.303
883.231	48.631
884.911	47.7956
886.591	48.014
888.268	48.0852
889.947	49.0402
891.623	49.8056
893.302	49.2092
894.978	49.1301
896.656	49.0428
898.331	49.1207
900.008	47.3881
901.683	48.0987
903.359	48.1955
905.033	46.804
906.709	46.5952
908.383	45.602
910.058	44.5426
911.731	44.4446
913.405	45.194
915.078	44.8005
916.752	43.8732
918.423	41.9802
920.096	40.9553
921.768	39.5462
923.438	39.3706
925.111	39.3676
926.781	38.8134
928.452	38.8627
930.122	38.8163
931.791	37.5756
933.462	36.9676
935.13	36.5186
936.799	35.7884
938.468	34.4329
940.136	33.9577
941.803	33.6336
943.472	34.0335
945.139	33.5786
946.805	34.5465
948.473	35.4137
950.139	36.314
951.804	37.6435
953.471	38.7335
955.136	39.3947
956.801	40.4432
958.465	41.5567
960.131	42.039
961.794	42.1847
963.458	43.1197
965.12	43.9991
966.785	44.4335
968.447	45.4447
970.109	46.2586
971.771	47.4344
973.432	47.5556
975.095	46.9915
976.756	47.7056
978.417	48.5253
980.077	48.6309
981.737	47.8654
983.396	47.4299
985.057	48.1103
986.716	48.2005
988.375	47.821
990.033	47.5003
991.691	47.37
993.349	47.7898
995.006	48.6743
996.663	48.4356
998.32	47.8841
999.976	46.8824
1001.63	46.5172
1003.29	46.4156
1004.95	45.2218
1006.6	44.8459
1008.26	44.3767
1009.91	43.7808
1011.56	43.1195
1013.22	42.0119
1014.87	41.1504
1016.53	40.9485
1018.18	39.681
1019.83	38.3554
1021.48	38.0209
1023.14	38.6202
1024.79	40.2713
1026.44	40.2695
1028.09	39.3671
1029.74	39.4248
1031.39	39.4082
1033.04	38.5139
1034.69	39.003
1036.34	38.9521
1037.99	39.3934
1039.64	38.7988
1041.29	38.2136
1042.94	37.3411
1044.58	37.0723
1046.23	37.242
1047.88	37.6064
1049.52	37.5265
1051.17	36.9909
1052.82	36.0833
1054.46	35.4383
1056.11	33.6886
1057.75	33.3929
1059.4	32.824
1061.04	31.4736
1062.69	29.9707
1064.33	29.418
1065.98	29.584
1067.62	28.7227
1069.26	28.1571
1070.9	27.4841
1072.55	26.7201
1074.19	25.9052
1075.83	25.7186
1077.47	25.0894
1079.11	23.8263
1080.76	23.2269
1082.4	22.7982
1084.04	22.0187
1085.68	20.8174
1087.32	20.4488
1088.95	20.5652
1090.59	20.2762
1092.23	19.5831
1093.87	19.6385
1095.51	19.3917
1097.15	19.6854
1098.78	20.018
1100.42	19.9296
1102.06	20.0015
1103.69	20.3339
1105.33	20.9573
1106.97	20.5617
1108.6	19.6407
1110.24	19.6744
1111.87	20.1739
1113.51	20.835
1115.14	20.563
1116.77	20.627
1118.41	20.1433
1120.04	19.6086
1121.67	18.0663
1123.31	17.3293
1124.94	16.6702
1126.57	16.0175
1128.2	15.2754
1129.83	14.6167
1131.47	13.3846
1133.1	11.714
1134.72	11.3883
1136.36	10.9627
1137.98	10.5294
1139.62	9.69823
1141.24	9.31516
1142.87	8.89009
1144.5	8.43809
1146.13	7.68221
1147.76	6.16737
1149.38	5.11623
1151.01	3.96087
1152.64	3.2969
1154.27	2.23561
1155.89	1.16398
1157.52	1.17816
1159.14	0.301643
1160.77	-0.0141628
1162.39	0.328243
1164.02	0.929265
1165.64	0.205221
1167.27	0.110019
1168.89	0.414404
1170.51	0.961866
1172.14	1.95316
1173.76	2.82981
1175.38	4.07819
1177	4.15583
1178.63	4.43248
1180.25	4.3861
1181.87	5.05227
1183.49	5.75411
1185.11	6.37985
1186.73	6.82917
1188.35	7.96019
1189.97	9.17398
1191.59	9.12239
1193.21	10.0046
1194.83	10.4694
1196.45	11.2662
1198.07	12.3144
1199.68	12.7472
1201.3	13.9916
1202.92	15.4142
1204.53	16.9944
1206.15	18.1651
1207.77	18.5734
1209.38	19.6982
1211	21.1951
1212.62	22.3173
1214.23	23.4766
1215.84	25.4116
1217.46	26.4837
1219.07	27.6331
1220.69	28.4707
1222.3	30.6156
1223.91	30.7596
1225.53	31.4659
1227.14	32.9431
1228.75	34.6133
1230.36	35.3108
1231.97	36.1183
1233.59	37.553
1235.2	38.1153
1236.81	39.172
1238.42	39.9693
1240.03	41.4368
1241.64	42.6941
1243.25	42.6961
1244.85	43.4519
1246.46	43.3904
1248.07	45.2051
1249.68	47.0219
1251.29	47.542
1252.9	48.6633
1254.5	48.0152
1256.11	47.8643
1257.72	47.9624
1259.32	49.1055
1260.93	49.5972
1262.54	49.9158
1264.14	49.6739
1265.75	50.2239
1267.35	51.1127
1268.96	51.7368
1270.56	51.5049
1272.16	52.1066
1273.77	53.172
1275.37	53.2315
1276.97	54.0977
1278.57	54.6806
1280.18	54.1866
1281.78	55.6228
1283.38	56.3451
1284.98	55.61
1286.58	55.7925
1288.18	56.3533
1289.78	56.0112
1291.38	56.1004
1292.99	56.1842
1294.58	56.6647
1296.18	56.864
1297.78	57.0981
1299.38	56.9047
1300.98	57.7102
1302.58	59.0179
1304.17	58.2379
1305.77	58.3141
1307.37	58.0918
1308.97	57.2544
1310.56	57.2473
1312.16	57.5802
1313.76	57.585
1315.35	56.9806
1316.95	56.5562
1318.54	56.8638
1320.14	56.8117
1321.73	56.8197
1323.32	56.718
1324.92	57.7867
1326.51	56.9248
1328.1	57.6113
1329.7	56.985
1331.29	55.7933
1332.88	56.5061
1334.47	54.9449
1336.07	55.1102
1337.66	54.6453
1339.25	54.1491
1340.84	53.0516
1342.43	52.9149
1344.02	53.4162
1345.61	52.4392
1347.2	51.2905
1348.79	50.2068
1350.37	50.03
1351.96	49.7758
1353.55	49.2021
1355.14	48.6819
1356.73	47.3992
1358.31	46.9682
1359.9	45.5456
1361.49	45.1798
1363.07	44.459
1364.66	42.7461
1366.25	41.6282
1367.83	40.2067
1369.42	39.1986
1371	39.084
1372.59	38.381
1374.17	37.0967
1375.75	35.7073
1377.34	34.9776
1378.92	33.5751
1380.5	33.1892
1382.09	32.1153
1383.67	30.0421
1385.25	29.5628
1386.83	29.4125
1388.42	28.8588
1390	28.9344
1391.58	27.4406
1393.16	26.977
1394.74	26.8151
1396.32	26.6083
1397.9	26.5782
1399.48	25.2287
1401.06	25.4504
1402.64	25.5397
1404.21	25.3878
1405.79	25.2539
1407.37	26.3366
1408.95	25.453
1410.53	25.7459
1412.1	26.1067
1413.68	25.9749
1415.26	27.1081
1416.83	27.5902
1418.41	28.7759
1419.98	29.9089
1421.56	30.9553
1423.13	32.6617
1424.71	34.7595
1426.28	37.6962
1427.86	40.3556
1429.43	43.1804
1431	44.8603
1432.58	46.5362
1434.15	47.9238
1435.72	49.1628
1437.29	51.6588
1438.87	53.0087
1440.44	55.1441
1442.01	55.81
1443.58	56.6392
1445.15	57.1892
1446.72	58.0611
1448.29	57.9042
1449.86	57.3012
1451.43	57.3918
1453	57.0271
1454.57	56.9816
1456.14	56.6289
1457.71	56.5369
1459.27	55.4647
1460.84	54.2329
1462.41	52.5296
1463.98	51.7892
1465.54	50.1856
1467.11	47.8222
1468.67	46.6667
1470.24	44.1504
1471.81	42.0902
1473.37	39.5122
1474.94	37.2329
1476.5	35.0945
1478.07	33.4174
1479.63	31.2785
1481.19	28.3988
1482.76	26.3541
1484.32	24.2386
1485.88	20.8574
1487.45	18.3461
1489.01	17.1796
1490.57	15.555
1492.13	15.043
1493.69	14.1062
1495.26	12.9096
1496.82	12.6573
1498.38	12.2347
1499.94	12.1381
1501.5	12.5241
1503.06	12.1367
1504.62	11.3743
1506.17	11.1383
1507.73	10.9459
1509.29	10.4734
1510.85	10.3257
1512.41	10.9392
1513.97	9.71902
1515.52	8.7301
1517.08	7.43051
1518.64	8.26985
1520.19	8.53904
1521.75	10.3128
1523.31	10.9132
1524.86	12.3432
1526.42	13.2065
1527.97	15.0518
1529.52	17.0175
1531.08	17.7928
1532.63	18.9442
1534.19	19.9613
1535.74	20.9383
1537.29	21.3406
1538.85	23.1399
1540.4	24.7383
1541.95	25.8915
1543.5	26.6394
1545.06	28.0083
1546.61	29.7875
1548.16	31.9788
1549.71	33.7375
1551.26	36.5233
1552.81	38.9052
1554.36	39.91
1555.91	41.1494
1557.46	41.6422
1559.01	42.5738
1560.56	43.7638
1562.11	44.3828
1563.65	44.5538
1565.2	46.9315
1566.75	48.6631
1568.29	49.889
1569.84	51.2306
1571.39	51.6159
1572.94	51.9942
1574.48	53.2507
1576.03	53.3741
1577.57	52.8279
1579.12	52.6699
1580.66	53.0235
1582.21	53.5331
1583.75	53.6603
1585.3	53.603
1586.84	53.0472
1588.38	51.8429
1589.93	51.0939
1591.47	49.8078
1593.01	50.4271
1594.55	51.3449
1596.1	53.2008
1597.64	52.7084
1599.18	52.0836
1600.72	51.4785
1602.26	50.7121
1603.8	49.708
1605.34	48.7623
1606.88	46.9977
1608.42	45.9592
1609.96	45.8737
1611.5	44.9939
1613.04	44.078
1614.58	43.6236
1616.12	43.9698
1617.65	44.1397
1619.19	44.1457
1620.73	45.4027
1622.27	46.5595
1623.8	47.6385
1625.34	48.824
1626.87	49.0484
1628.41	50.7986
1629.95	49.9609
1631.48	50.2782
1633.02	50.804
1634.55	51.7278
1636.09	52.6418
1637.62	54.0298
1639.15	54.8623
1640.69	56.5833
1642.22	58.794
1643.76	59.5669
1645.29	60.4768
1646.82	61.4988
1648.35	61.8849
1649.88	62.8979
1651.42	63.8284
1652.95	64.2809
1654.48	65.2174
1656.01	66.6267
1657.54	67.7081
1659.07	67.8566
1660.6	67.9539
1662.13	67.9329
1663.66	66.8734
1665.19	66.0382
1666.72	65.9067
1668.24	64.7667
1669.77	63.8305
1671.3	61.9382
1672.83	60.5205
1674.35	58.2822
1675.88	56.217
1677.41	53.8456
1678.93	50.8413
1680.46	49.2035
1681.99	46.8119
1683.51	44.4436
1685.04	43.2628
1686.56	40.8746
1688.09	38.4111
1689.61	36.3053
1691.13	33.7433
1692.66	32.0099
1694.18	30.2827
1695.71	28.1009
1697.23	26.1826
1698.75	24.4025
1700.27	22.9033
1701.8	20.8724
1703.32	19.8361
1704.84	18.5402
1706.36	15.8226
1707.88	14.7302
1709.4	13.3556
1710.92	12.288
1712.44	10.8235
1713.96	9.38719
1715.48	8.63366
1717	8.43725
1718.52	7.0801
1720.04	5.84294
1721.56	5.5806
1723.07	5.15665
1724.59	4.73636
1726.11	4.95309
1727.63	5.1112
1729.14	4.83607
1730.66	4.38033
1732.18	3.73798
1733.69	3.24645
1735.21	3.31988
1736.72	2.94521
1738.24	2.40277
1739.75	1.68902
1741.27	1.34218
1742.78	1.29945
1744.3	0.721919
1745.81	0.996764
1747.32	0.357667
1748.84	0.478913
1750.35	0.0332484
1751.86	-0.350088
1753.37	-0.0100303
1754.89	0.0788091
1756.4	0.390677
1757.91	0.0157066
1759.42	-0.524672
1760.93	0.0286791
1762.44	-0.552274
1763.95	-0.654845
1765.46	-0.668806
1766.97	-0.774681
1768.48	0.214467
1769.99	0.555024
1771.5	0.615907
1773.01	1.14772
1774.52	1.71863
1776.03	1.80443
1777.53	2.08731
1779.04	2.08244
1780.55	1.37097
1782.06	1.08897
1783.56	0.783421
1785.07	0.957806
1786.57	0.93173
1788.08	1.03663
1789.59	1.03217
1791.09	1.19541
1792.6	1.02355
1794.1	0.837841
1795.6	0.778517
1797.11	0.711876
1798.61	0.502725
1800.12	0.322255
1801.62	-0.0204262
1803.12	-0.403921
1804.63	-0.859364
1806.13	-0.912464
1807.63	-1.0591
1809.13	-1.02209
1810.63	-0.564595
1812.14	-1.06296
1813.64	-0.818858
1815.14	-0.546625
1816.64	-0.154292
1818.14	0.302347
1819.64	0.189542
1821.14	0.848392
1822.64	0.9768
1824.14	1.48772
1825.63	1.58997
1827.13	2.05664
1828.63	2.15309
1830.13	1.78288
1831.63	2.06305
1833.12	2.38662
1834.62	2.88129
1836.12	3.64133
1837.62	4.09245
1839.11	4.55608
1840.61	4.93277
1842.1	5.21552
1843.6	5.77414
1845.09	5.78317
1846.59	6.06876
1848.08	6.00848
1849.58	5.67131
1851.07	5.94032
1852.57	5.92868
1854.06	5.80268
1855.55	6.04584
1857.04	6.23448
1858.54	5.9141
1860.03	6.00927
1861.52	6.33256
1863.01	6.15652
1864.5	5.67754
1866	5.42115
1867.49	5.5946
1868.98	4.95716
1870.47	4.23108
1871.96	3.82573
1873.45	3.47352
1874.94	3.31363
1876.43	3.45234
1877.92	3.81316
1879.41	4.00658
1880.89	3.7477
1882.38	3.88464
1882.48	4.30931
1883.97	4.49859
1885.47	4.50363
1886.96	5.26807
1888.46	5.80148
1889.95	6.37889
1891.44	6.56298
1892.94	6.54216
1894.43	6.41654
1895.92	6.33567
1897.41	6.81189
1898.9	6.79334
1900.4	6.02954
1901.89	5.87442
1903.38	6.32032
1904.87	6.80109
1906.36	7.03981
1907.85	7.65909
1909.34	7.82578
1910.83	7.77984
1912.32	7.2248
1913.81	7.55716
1915.29	8.04107
1916.78	8.57007
1918.27	8.66676
1919.76	8.25399
1921.25	8.00989
1922.74	7.98458
1924.22	8.54029
1925.71	8.83205
1927.2	8.93606
1928.68	8.66423
1930.17	7.98893
1931.65	7.50476
1933.14	7.60403
1934.63	7.48171
1936.11	6.76217
1937.59	6.2219
1939.08	5.96978
1940.56	6.416
1942.05	5.60616
1943.53	5.42499
1945.01	5.54573
1946.5	5.72175
1947.98	6.38006
1949.46	6.92884
1950.94	6.97211
1952.43	6.6247
1953.91	6.61706
1955.39	6.74559
1956.87	6.99255
1958.35	6.86153
1959.83	7.09086
1961.31	7.46577
1962.79	7.17267
1964.27	7.49148
1965.75	7.55939
1967.23	7.40525
1968.71	7.54109
1970.19	7.65545
1971.67	7.71034
1973.14	7.85433
1974.62	7.81465
1976.1	8.79269
1977.58	9.28507
1979.05	9.41931
1980.53	9.6211
1982.01	9.75171
1983.48	9.25129
1984.96	9.11462
1986.43	9.26624
1987.91	9.78534
1989.38	9.47618
1990.86	8.91795
1992.33	8.5641
1993.81	8.16338
1995.28	8.57513
1996.76	8.45668
1998.23	8.7314
1999.7	8.59831
2001.18	8.09915
2002.65	7.65823
2004.12	7.63274
2005.59	8.01035
2007.06	8.07607
2008.54	7.9476
2010.01	8.31842
2011.48	8.04678
2012.95	8.36839
2014.42	9.14292
2015.89	8.37583
2017.36	8.73998
2018.83	8.59434
2020.3	9.37439
2021.77	9.76353
2023.24	9.57174
2024.71	9.16813
2026.17	9.01716
2027.64	9.52361
2029.11	9.46362
2030.58	9.87611
2032.04	10.5687
2033.51	11.2477
2034.98	11.7321
2036.45	12.2333
2037.91	12.8083
2039.38	13.0107
2040.84	13.3422
2042.31	13.571
2043.77	13.2973
2045.24	14.0506
2046.7	14.1565
2048.17	13.8341
2049.63	14.2599
2051.1	14.1758
2052.56	13.9159
2054.02	13.7647
2055.48	13.1256
2056.95	13.7809
2058.41	14.2457
2059.87	14.5282
2061.33	14.2188
2062.8	14.0447
2064.26	14.2612
2065.72	14.7346
2067.18	14.2628
2068.64	14.3274
2070.1	14.169
2071.56	14.8387
2073.02	15.3634
2074.48	15.758
2075.94	16.2891
2077.4	17.1469
2078.86	17.5264
2080.31	17.891
2081.77	18.525
2083.23	19.4275
2084.69	19.4572
2086.14	20.8139
2087.6	21.3488
2089.06	21.7234
2090.52	22.6401
2091.97	23.3954
2093.43	24.7905
2094.88	25.2248
2096.34	26.0454
2097.79	27.103
2099.25	27.5522
2100.7	27.855
2102.16	28.2499
2103.61	29.5276
2105.07	30.467
2106.52	30.7594
2107.97	31.6272
2109.43	32.8616
2110.88	33.2019
2112.33	33.7912
2113.78	34.9086
2115.24	34.7948
2116.69	34.9482
2118.14	35.9066
2119.59	36.8298
2121.04	37.4611
2122.49	38.7854
2123.94	39.2123
2125.39	40.1468
2126.84	41.2676
2128.29	42.0407
2129.74	43.8037
2131.19	44.1566
2132.64	45.0148
2134.09	45.6089
2135.54	46.4686
2136.98	47.5267
2138.43	49.0204
2139.88	50.3442
2141.33	52.1914
2142.77	53.2586
2144.22	55.6255
2145.67	57.2668
2147.11	58.8654
2148.56	60.5051
2150.01	62.1921
2151.45	63.7144
2152.9	65.3308
2154.34	67.2108
2155.79	68.874
2157.23	70.3109
2158.67	71.6208
2160.12	73.0567
2161.56	74.4023
2163	75.1479
2164.45	76.3013
2165.89	77.6834
2167.33	78.261
2168.78	79.2774
2170.22	80.1051
2171.66	80.3307
2173.1	81.4384
2174.54	81.0104
2175.98	81.6195
2177.42	81.5281
2178.86	81.2718
2180.3	80.9367
2181.74	79.9458
2183.18	78.6992
2184.62	77.9995
2186.06	77.4657
2187.5	75.5385
2188.94	74.8564
2190.38	74.1652
2191.82	72.9578
2193.25	71.6085
2194.69	71.0255
2196.13	69.2319
2197.57	67.5415
2199	66.0147
2200.44	64.0914
2201.88	62.6849
2203.31	60.7802
2204.75	59.3568
2206.18	57.502
2207.62	56.4309
2209.05	55.1236
2210.49	53.6612
2211.92	52.1391
2213.36	50.7055
2214.79	48.6766
2216.22	47.9614
2217.66	46.6712
2219.09	45.7974
2220.52	44.2434
2221.96	42.6078
2223.39	41.5217
2224.82	40.2052
2226.25	39.3631
2227.68	37.9197
2229.11	37.4341
2230.55	36.2598
2231.98	35.9656
2233.41	34.7255
2234.84	34.1735
2236.27	34.2697
2237.7	33.7118
2239.12	32.9214
2240.55	32.8868
2241.98	32.6262
2243.41	31.4594
2244.84	30.8833
2246.27	30.0093
2247.7	30.4686
2249.12	29.6305
2250.55	29.1385
2251.98	28.2452
2253.41	27.4736
2254.83	27.1881
2256.26	26.8054
2257.68	26.4291
2259.11	25.6153
2260.54	25.6339
2261.96	25.08
2263.39	24.5259
2264.81	24.4187
2266.24	24.2452
2267.66	23.5495
2269.08	23.6187
2270.51	23.8036
2271.93	23.4698
2273.35	23.2471
2274.78	23.0717
2276.2	22.6686
2277.62	22.2146
2279.04	21.9712
2280.47	21.2124
2281.89	20.8469
2283.31	20.3583
2284.73	19.4828
2286.15	19.3724
2287.57	19.0862
2288.99	18.8298
2290.41	17.7325
2291.83	16.5574
2293.25	15.8972
2294.67	16.0594
2296.09	16.1276
2297.51	16.1064
2298.93	15.9817
2300.35	16.4745
2301.76	16.6044
2303.18	17.0911
2304.6	17.4233
2306.02	17.928
2307.44	18.3773
2308.85	18.5632
2310.27	19.4402
2311.69	19.9796
2313.1	19.6029
2314.52	19.2909
2315.93	19.617
2317.35	19.1211
2318.76	18.7864
2320.18	18.4244
2321.59	18.3311
2323.01	17.5063
2324.42	17.4974
2325.83	17.3351
2327.25	17.3005
2328.66	16.9262
2330.07	17.2604
2331.49	17.3033
2332.9	17.3193
2334.31	17.0684
2335.72	17.0179
2337.13	16.4816
2338.55	15.902
2339.96	15.7677
2341.37	15.1899
2342.78	14.217
2344.19	13.5744
2345.6	13.0945
2347.01	12.3388
2348.42	11.6564
2349.83	11.3068
2351.24	10.7796
2352.65	10.0967
2354.05	9.4576
2355.46	9.14224
2356.87	9.30986
2358.28	8.3999
2359.69	8.21722
2361.09	7.87903
2362.5	7.87042
2363.91	7.92158
2365.31	8.17478
2366.72	8.4583
2368.13	8.79202
2369.53	9.13055
2370.94	9.6886
2372.34	10.0898
2373.75	10.168
2375.15	10.2061
2376.56	9.93304
2377.96	9.86405
2379.37	9.85916
2380.77	9.65339
2382.17	9.03054
2383.58	8.68372
2384.98	9.2525
2386.38	9.13405
2387.79	9.15683
2389.19	9.43795
2390.59	9.45805
2391.99	9.76388
2393.39	9.31705
2394.8	9.53265
2396.2	9.64184
2397.6	9.66701
2399	9.29577
2400.4	9.52006
2401.8	9.55716
2403.2	9.80345
2404.6	9.16419
2406	9.25596
2407.4	9.38703
2408.79	9.70718
2410.19	9.48419
2411.59	9.41932
2412.99	8.72841
2414.39	8.7443
2415.78	8.71906
2417.18	8.4985
2418.58	8.23382
2419.98	7.93743
2421.37	7.55247
2422.77	7.18144
2424.16	6.9036
2425.56	6.43584
2426.96	5.83709
2428.35	5.41137
2429.74	5.08102
2431.14	5.09129
2432.53	4.74742
2433.93	4.49975
2435.32	4.26516
2436.72	4.53098
2438.11	4.273
2439.5	3.9379
2440.9	3.89787
2442.29	3.5919
2443.68	3.74588
2445.07	3.01948
2446.47	2.86978
2447.86	2.69925
2449.25	2.82566
2450.64	2.37464
2452.03	2.55448
2453.42	2.53545
2454.81	2.7728
2456.2	2.42153
2457.59	3.00514
2458.98	3.00555
2460.37	3.02411
2461.76	3.02943
2463.15	3.11365
2464.54	3.37472
2465.93	3.2727
2467.32	3.14621
2468.7	3.77679
2470.09	4.41492
2471.48	5.15058
2472.87	5.22875
2474.25	4.99538
2475.64	5.57734
2477.03	5.84881
2478.41	5.65857
2479.8	5.26675
2481.18	5.32727
2482.57	5.06502
2483.95	5.67388
2485.34	5.48426
2486.72	5.28942
2488.11	5.33334
2489.49	5.45323
2490.88	5.41866
2492.26	5.40037
2493.65	5.3917
2495.03	5.00421
2496.41	5.48955
2497.79	5.24885
2499.18	5.2939
2500.56	5.13391
2501.94	5.37757
2503.32	5.15657
2504.7	5.11279
2506.09	4.99309
2507.47	4.66661
2508.85	5.24374
2510.23	5.15406
2511.61	4.91324
2512.99	4.89319
2514.37	4.37798
2515.75	4.31368
2517.13	4.16576
2518.51	3.93682
2519.89	3.72664
2521.26	3.9047
2522.64	3.80244
2524.02	3.64206
2525.4	3.7828
2526.78	3.69397
2528.15	3.29062
2529.53	3.07469
2530.91	2.76708
2532.28	2.67946
2533.66	1.93788
2535.04	1.54296
2536.41	1.61104
2537.79	1.61944
2539.16	1.59523
2540.54	1.95595
2541.91	2.01562
2543.29	1.53204
2544.66	1.48085
2546.04	1.29582
2547.41	1.17775
2548.78	1.01887
2550.16	1.00042
2551.53	1.3741
2552.9	1.68535
2554.27	1.59616
2555.65	1.9754
2557.02	2.01576
2558.39	1.97121
2559.76	1.89547
2561.13	2.21905
2562.51	2.25759
2563.88	2.18371
2565.25	2.68363
2566.62	2.35701
2567.99	3.08747
2569.36	3.26673
2570.73	4.06736
2572.1	3.74679
2573.47	4.2974
2574.84	4.36541
2576.2	4.66629
2577.57	4.68409
2578.94	4.29053
2580.31	4.28214
2581.68	4.28896
2583.05	4.02402
2584.41	4.02279
2585.78	4.10099
2587.15	3.9865
2588.51	4.50298
2589.88	4.5916
2591.24	4.3822
2592.61	3.5887
2593.98	3.80473
2595.34	2.63249
2596.71	2.14641
2598.07	1.77541
2599.44	1.32065
2600.8	0.916676
2602.16	0.562605
2603.53	-0.0743065
2604.89	-0.673095
2606.26	-0.398032
2607.62	-0.611787
2608.98	-0.980922
2610.34	-1.69401
2611.71	-2.2859
2613.07	-2.03373
2614.43	-2.43421
2615.79	-2.23344
2617.15	-2.43575
2618.52	-2.40029
2619.88	-2.06834
2621.24	-1.84833
2622.6	-1.43597
2623.96	-1.59321
2625.32	-1.03408
2626.68	-1.32431
2628.04	-1.0489
2629.4	-0.475974
2630.75	-0.329735
2632.11	-0.450129
2633.47	-0.65139
2634.83	-0.368571
2636.19	0.037182
2637.55	0.639348
2638.9	0.871974
2640.26	0.884654
2641.62	0.989291
2642.98	0.718184
2644.33	0.879963
2645.69	1.02958
2647.04	1.97481
2648.4	2.51403
2649.76	2.74971
2651.11	3.27331
2652.47	3.877
2653.82	4.1269
2655.18	4.69535
2656.53	4.82743
2657.88	4.43188
2659.24	4.3719
2660.59	4.3043
2661.95	4.56873
2663.3	4.01516
2664.65	4.36279
2666	4.12173
2667.36	4.2365
2668.71	3.6667
2670.06	3.59844
2671.41	3.02961
2672.76	3.01841
2674.12	3.26883
2675.47	2.67218
2676.82	2.53407
2678.17	2.44793
2679.52	2.4726
2680.87	2.30173
2682.22	2.08227
2683.57	2.86525
2684.92	2.68682
2686.27	3.01621
2687.62	2.99239
2688.97	2.65007
2690.31	2.29746
2691.66	1.90997
2693.01	2.14646
2694.36	1.64814
2695.71	2.73197
2697.05	2.49464
2698.4	2.27503
2699.75	1.91865
2701.09	2.30632
2702.44	3.14976
2703.78	3.81126
2705.13	4.52632
2706.48	5.19989
2707.82	5.80014
2709.17	6.08956
2710.51	6.3824
2711.86	7.24624
2713.2	8.06937
2714.54	8.37139
2715.89	8.60125
2717.23	8.47559
2718.57	8.40188
2719.92	8.88217
2721.26	9.09942
2722.6	9.5531
2723.95	9.82978
2725.29	10.0679
2726.63	10.2578
2727.97	10.1296
2729.31	10.7398
2730.65	10.5609
2732	10.4117
2733.34	10.518
2734.68	10.6618
2736.02	10.1105
2737.36	10.3203
2738.7	10.1096
2740.04	10.1412
2741.38	9.95642
2742.72	9.60062
2744.05	9.31616
2745.39	9.36413
2746.73	9.40159
2748.07	9.0372
2749.41	8.48894
2750.75	8.06573
2752.08	8.03859
2753.42	7.64376
2754.76	6.80716
2756.09	6.73798
2757.43	6.8274
2758.77	6.88891
2760.1	6.55643
2761.44	5.98904
2762.78	6.31231
2764.11	5.96099
2765.44	6.28512
2766.78	6.59959
2768.11	7.19922
2769.45	7.12787
2770.78	7.45288
2772.12	7.53587
2773.45	7.15856
2774.78	6.55823
2776.12	6.18457
2777.45	5.8181
2778.78	5.97196
2780.12	5.78901
2781.45	5.02029
2782.78	4.74779
2784.11	4.06085
2785.44	4.35367
2786.78	4.6656
2788.11	4.76947
2789.44	5.34619
2790.77	5.14363
2792.1	4.64144
2793.43	4.72599
2794.76	4.91913
2796.09	5.35459
2797.42	4.82226
2798.75	4.9929
2800.08	5.37984
2801.4	4.8369
2802.73	5.22744
2804.06	5.37984
2805.39	5.38092
2806.72	5.11912
2808.05	5.06443
2809.37	4.96173
2810.7	5.06226
2812.03	5.08288
2813.35	5.16318
2814.68	4.74741
2816.01	4.8036
2817.33	5.58016
2818.66	6.0463
2819.98	5.93152
2821.31	6.66667
2822.63	7.90329
2823.96	8.75016
2825.28	10.3554
2826.61	11.6642
2827.93	13.4669
2829.25	15.8398
2830.58	17.5371
2831.9	19.4385
2833.23	21.2021
2834.55	22.985
2835.87	24.5598
2837.19	26.819
2838.52	28.7087
2839.84	30.3466
2841.16	32.6662
2842.48	34.927
2843.8	37.6581
2845.12	40.6109
2846.44	43.824
2847.77	47.0597
2849.08	50.9237
2850.4	54.7409
2851.73	58.7213
2853.05	62.9921
2854.36	66.8743
2855.68	71.0969
2857	74.9438
2858.32	79.0728
2859.64	83.2869
2860.96	87.0302
2862.28	91.4688
2863.59	94.42
2864.91	97.9542
2866.23	101.154
2867.55	103.909
2868.86	107.751
2870.18	109.88
2871.5	112.01
2872.81	114.697
2874.13	117.069
2875.44	118.638
2876.76	120.623
2878.07	122.583
2879.39	124.753
2880.7	126.314
2882.02	127.779
2883.33	129.529
2884.65	131.455
2885.96	134.011
2887.28	136.421
2888.59	138.749
2889.9	140.649
2891.21	143.233
2892.53	145.095
2893.84	147.232
2895.15	149.024
2896.46	151.17
2897.78	153.764
2899.09	156.373
2900.4	159.601
2901.71	162.15
2903.02	165.723
2904.33	169.764
2905.64	174.104
2906.95	178.467
2908.26	183.975
2909.57	189.895
2910.88	195.583
2912.19	201.046
2913.5	206.442
2914.81	211.89
2916.12	217.394
2917.43	222.834
2918.73	228.646
2920.04	232.999
2921.35	237.872
2922.66	241.224
2923.96	244.817
2925.27	247.487
2926.58	250.232
2927.88	252.814
2929.19	253.952
2930.5	255.403
2931.8	256.297
2933.11	256.493
2934.41	256.043
2935.72	254.975
2937.02	253.81
2938.33	252.607
2939.63	250.003
2940.94	247.881
2942.24	246.255
2943.54	243.51
2944.85	240.547
2946.15	236.606
2947.45	232.586
2948.76	229.263
2950.06	225.063
2951.36	220.491
2952.66	215.978
2953.97	211.614
2955.27	206.856
2956.57	202.417
2957.87	197.104
2959.17	191.938
2960.47	187.672
2961.77	183.588
2963.07	179.468
2964.37	174.976
2965.67	170.897
2966.97	166.6
2968.27	163.015
2969.57	159.402
2970.87	155.563
2972.17	151.888
2973.47	148.759
2974.77	145.07
2976.07	141.26
2977.36	137.172
2978.66	133.677
2979.96	130.098
2981.26	126.11
2982.55	121.934
2983.85	117.926
2985.15	113.227
2986.44	108.974
2987.74	104.296
2989.03	100.709
2990.33	96.1619
2991.63	92.5526
2992.92	88.9567
2994.21	84.477
2995.51	80.2866
2996.8	76.6173
2998.1	72.5873
2999.39	68.6227
3000.69	65.5969
3001.98	62.1985
3003.27	59.4031
3004.57	56.6423
3005.86	54.4779
3007.15	51.6949
3008.44	48.7804
3009.74	46.0872
3011.03	43.4254
3012.32	41.3274
3013.61	38.7359
3014.9	36.3979
3016.19	34.7901
3017.48	34.0666
3018.78	32.7574
3020.07	31.0137
3021.36	29.7702
3022.65	28.9782
3023.94	28.0083
3025.23	27.792
3026.51	26.8618
3027.8	26.2197
3029.09	25.851
3030.38	25.9093
3031.67	25.3158
3032.96	25.3833
3034.24	25.2904
3035.53	25.612
3036.82	25.9313
3038.11	26.034
3039.39	26.5181
3040.68	27.1054
3041.97	27.563
3043.25	28.2938
3044.54	28.4637
3045.83	29.0293
3047.11	29.4463
3048.4	30.2572
3049.68	30.3414
3050.97	30.2981
3052.25	30.4184
3053.54	31.1242
3054.82	30.9116
3056.11	30.963
3057.39	30.5553
3058.67	29.9417
3059.96	30.1328
3061.24	30.2383
3062.52	29.573
3063.81	29.4186
3065.09	29.2736
3066.37	28.6566
3067.65	28.3104
3068.94	27.3861
3070.22	26.4924
3071.5	25.3273
3072.78	24.2457
3074.06	23.3247
3075.34	22.5773
3076.62	21.4787
3077.9	20.36
3079.18	19.9054
3080.46	19.0968
3081.74	18.5762
3083.02	17.0287
3084.3	15.7793
3085.58	15.2433
3086.86	14.4605
3088.14	13.0873
3089.42	12.5717
3090.69	11.6981
3091.97	10.8961
3093.25	10.2237
3094.53	9.66455
3095.8	8.76768
3097.08	8.81569
3098.36	8.60115
3099.63	8.72846
3100.91	8.39237
3102.19	8.09459
3103.46	8.71932
3104.74	8.87231
3106.01	8.793
3107.29	8.74303
3108.56	8.54981
3109.84	9.20078
3111.11	8.86807
3112.39	8.92675
3113.66	8.4884
3114.94	8.63071
3116.21	9.02532
3117.48	8.93203
3118.76	8.46275
3120.03	8.41524
3121.3	8.41991
3122.57	8.77505
3123.85	8.91847
3125.12	8.62237
3126.39	8.23598
3127.66	8.33684
3128.93	7.91422
3130.21	7.56119
3131.48	7.36467
3132.75	6.65061
3134.02	6.53154
3135.29	6.18018
3136.56	5.96752
3137.83	5.88669
3139.1	4.96593
3140.37	3.93899
3141.64	3.02355
3142.91	1.88646
3144.17	0.619339
3145.44	-0.86608
3146.71	-2.22107
3147.98	-3.80986
3149.25	-5.97738
