#Acq. time (s)=	45
#Accumulations=	2
#Range (cm-¹)=	200...3150
#Windows=	2
#Auto scanning=	Off
#Autofocus=	Off
#Macrospot=	Off
#AutoExposure=	Off
#Spike filter=	Multiple accum.
#Delay time (s)=	0
#Binning=	1
#Readout mode=	Signal
#DeNoise=	Off
#ICS correction=	On
#Dark correction=	Off
#Inst. Process=	Off
#Detector Gain=	Best Dynamic Range
#Detector ADC=	20 kHz       
#Detector temperature (°C)=	-69.85
#Instrument=	LabRAM HR Evol
#Detector=	Synapse
#Objective=	x100
#Grating=	600 gr/mm
#ND Filter=	100%
#Laser (nm)=	532 
#Hole=	100.021
#Range=	Auto
#Laser Pol.=	No
#Raman. Pol.=	No
#Laser Pol. (°)=	-0.0007625
#Raman Pol. (°)=	89.9995
#Collection=	Microscope
#StageXY=	Marzhauser
#StageZ=	Marzhauser
#X (µm)=	-5919.4
#Y (µm)=	2884.6
#Z (µm)=	-223.4
#Full time(mm:ss)=	3:18
#Project=	
#Sample=	
#Site=	
#Title=	Thy_20_09_28_2x_45s_532 nm_x100_100%_600 gr_mm
#Remark=	
#Date=	29.06.2022 12:36
#Acquired=	29.06.2022 12:36:45
#Base:Fit=	10.08.2022 09:52:02
#Base:Fit=	10.08.2022 09:52:12
#Base:Sub=	10.08.2022 09:54:21
#Filter:Polynom=	16.08.2022 10:24:04
#AxisType[0]=Intens
#AxisUnit[0]=Cnt
#AxisType[1]=Spectr
#AxisUnit[1]=1/cm
200.523	36.2791
202.339	33.6984
204.154	31.2008
205.967	28.9788
207.781	26.999
209.596	25.3626
211.409	23.9251
213.222	22.8149
215.034	21.2672
216.848	20.2283
218.659	19.9922
220.47	17.856
222.281	16.7602
224.091	15.437
225.903	13.7193
227.713	12.5805
229.522	11.5042
231.331	9.75513
233.14	9.54722
234.948	9.18125
236.756	8.32116
238.566	8.43225
240.373	7.02002
242.18	6.6567
243.986	5.91113
245.792	5.23555
247.598	4.39083
249.403	3.86991
251.208	4.0923
253.013	3.14034
254.818	3.48079
256.624	3.66827
258.427	3.9332
260.231	3.20602
262.034	2.91059
263.836	2.15842
265.638	2.16943
267.44	3.17963
269.242	2.6738
271.043	3.01947
272.844	2.76142
274.645	3.0935
276.445	3.44666
278.245	3.17947
280.044	3.78897
281.843	3.87035
283.642	4.37834
285.44	4.6944
287.238	5.13583
289.036	5.93539
290.833	7.19028
292.63	7.79899
294.425	8.73619
296.221	9.53385
298.017	10.2858
299.813	10.9266
301.608	11.5016
303.403	12.01
305.198	12.1402
306.992	13.3248
308.786	13.4126
310.579	13.3864
312.371	14.3847
314.163	15.0302
315.956	14.9484
317.748	15.4948
319.54	15.0307
321.331	14.3521
323.122	14.7997
324.911	13.9878
326.701	13.955
328.491	13.0436
330.281	12.9692
332.071	13.6052
333.857	13.1345
335.646	13.0818
337.434	12.6604
339.222	12.2421
341.008	11.3784
342.795	10.1872
344.582	9.79575
346.369	9.43866
348.153	8.43016
349.939	7.5671
351.724	7.09382
353.51	5.917
355.292	5.66818
357.077	5.099
358.861	4.37514
360.643	3.35713
362.426	2.85144
364.21	1.98722
365.99	2.19607
367.773	1.91274
369.555	2.25341
371.335	2.18514
373.116	2.13484
374.897	1.39151
376.676	0.53287
378.456	0.421887
380.236	0.229811
382.014	-0.292405
383.793	0.675231
385.57	0.58352
387.349	0.826911
389.127	1.17665
390.903	1.28894
392.681	1.64123
394.456	2.84731
396.233	3.32197
398.007	3.10683
399.784	3.58936
401.56	2.92656
403.333	2.37716
405.108	1.48079
406.881	1.52271
408.656	0.968815
410.428	1.3898
412.202	2.25511
413.973	2.89524
415.746	3.3015
417.517	3.29247
419.29	5.14756
421.06	4.68032
422.831	4.24468
424.601	4.08707
426.37	3.34443
428.141	2.61849
429.909	2.80939
431.679	3.50368
433.447	3.31242
435.216	4.28491
436.983	3.38758
438.75	3.5052
440.519	3.23436
442.285	3.36644
444.052	3.31683
445.818	4.23968
447.583	5.05429
449.349	4.64842
451.114	6.00458
452.878	6.67734
454.643	7.43616
456.407	7.20005
458.169	7.93076
459.934	8.57541
461.696	9.29014
463.458	9.83387
465.222	10.976
466.983	11.9985
468.744	13.4478
470.507	14.0006
472.267	16.0493
474.027	16.3513
475.787	16.284
477.548	17.0084
479.307	16.9259
481.065	17.6729
482.823	17.5925
484.583	16.6598
486.341	16.5675
488.098	17.0033
489.855	17.0801
491.612	16.9926
493.37	17.4225
495.126	18.4563
496.881	18.6384
498.636	19.2576
500.391	18.7566
502.148	18.3019
503.902	17.5756
505.656	17.9789
507.409	17.9047
509.162	17.0434
510.915	15.7277
512.668	14.6588
514.42	13.4286
516.174	13.1373
517.925	13.451
519.676	12.5174
521.427	11.276
523.178	11.2301
524.928	8.89537
526.678	9.23146
528.427	8.92807
530.176	9.30895
531.925	9.35595
533.673	9.99537
535.422	8.88579
537.169	8.35693
538.917	8.78346
540.664	8.21241
542.411	8.33393
544.157	8.64382
545.903	8.69868
547.649	9.87521
549.395	9.83846
551.14	9.71768
552.884	10.845
554.629	11.3981
556.373	11.0049
558.117	9.72028
559.86	9.30574
561.603	8.30818
563.346	8.28761
565.089	7.98949
566.831	6.82233
568.573	7.27514
570.314	6.74672
572.053	6.414
573.794	7.27584
575.534	6.96109
577.274	6.47742
579.014	6.17462
580.754	7.1069
582.493	7.29239
584.23	7.50971
585.968	7.51197
587.706	7.37174
589.444	7.2692
591.181	7.69728
592.919	7.83458
594.653	7.06402
596.39	6.56795
598.126	6.1328
599.862	6.21917
601.595	6.39634
603.33	7.21578
605.065	7.59295
606.8	6.88125
608.532	6.97265
610.266	7.3384
611.999	6.7045
613.732	7.73951
615.463	6.88404
617.196	6.40536
618.928	6.26662
620.66	7.48562
622.389	7.05452
624.12	7.89005
625.851	8.51184
627.58	8.03078
629.31	9.65672
631.04	9.92787
632.767	10.0857
634.497	11.2271
636.223	11.0078
637.952	11.4803
639.68	11.5216
641.406	11.4733
643.134	10.0315
644.861	10.4303
646.586	11.6629
648.312	11.9863
650.037	11.7383
651.762	11.9734
653.486	12.8241
655.211	13.3324
656.936	13.3761
658.659	13.8558
660.383	14.1771
662.105	14.2155
663.829	15.3745
665.55	16.4578
667.273	17.8429
668.994	18.7137
670.716	19.1005
672.436	19.0237
674.158	19.1949
675.877	18.871
677.598	19.9694
679.317	20.8445
681.035	21.5906
682.755	22.366
684.473	22.8007
686.192	23.9713
687.909	24.1884
689.628	25.0928
691.344	24.9915
693.06	24.2187
694.778	24.4856
696.493	24.6778
698.211	24.8793
699.925	25.307
701.64	25.4874
703.356	26.6866
705.07	28.0184
706.783	28.167
708.498	27.9317
710.211	29.3602
711.924	30.3542
713.638	31.0908
715.35	33.231
717.061	32.5398
718.774	32.7404
720.485	33.3363
722.196	34.3336
723.906	35.4109
725.618	35.7104
727.328	36.2609
729.037	36.5908
730.746	38.5932
732.456	39.0487
734.165	39.5502
735.873	41.3056
737.58	42.1936
739.289	42.0226
740.997	42.772
742.703	44.4578
744.41	45.0412
746.116	46.0885
747.823	48.086
749.529	50.0433
751.234	51.6306
752.938	53.6214
754.643	55.2324
756.347	55.8967
758.051	57.8413
759.756	59.7263
761.459	61.4286
763.162	62.9467
764.865	64.7796
766.567	65.9906
768.269	67.2806
769.97	68.5454
771.671	69.632
773.372	69.7204
775.073	71.5068
776.773	72.1144
778.473	71.7954
780.174	72.7798
781.874	73.8664
783.573	74.6275
785.271	75.1024
786.97	76.4825
788.668	77.4799
790.365	77.7922
792.063	78.6478
793.76	79.4055
795.456	79.3525
797.153	79.1427
798.847	79.5629
800.543	80.1757
802.238	79.2695
803.933	79.3365
805.628	79.0559
807.322	78.4715
809.017	77.6582
810.71	76.0717
812.404	76.1058
814.097	75.481
815.79	74.3403
817.483	73.1763
819.173	72.2463
820.865	71.7795
822.556	70.5463
824.248	69.9022
825.939	70.4838
827.629	69.7429
829.318	69.4402
831.008	69.7897
832.697	69.8736
834.387	69.7681
836.076	69.4891
837.765	68.5416
839.451	68.1846
841.139	66.1858
842.827	65.805
844.514	64.9235
846.2	63.2234
847.886	62.1165
849.573	60.7564
851.259	58.6188
852.943	56.9093
854.629	54.9969
856.314	53.453
857.997	52.5383
859.682	51.6399
861.366	49.5442
863.05	47.8637
864.732	48.0097
866.415	46.5587
868.098	45.434
869.779	44.6367
871.461	44.7216
873.141	42.9193
874.823	41.5905
876.505	41.7205
878.184	40.966
879.865	39.836
881.545	40.4256
883.223	41.1207
884.903	40.0153
886.581	37.5437
888.26	36.3769
889.937	35.2731
891.616	35.2245
893.294	35.173
894.97	34.7894
896.648	34.2948
898.323	33.312
900	32.8369
901.675	33.0357
903.351	33.0943
905.026	33.849
906.701	33.456
908.375	33.3109
910.05	34.4508
911.723	34.0583
913.398	35.2387
915.07	34.5474
916.742	34.1704
918.415	34.0164
920.087	33.7363
921.76	32.6707
923.43	32.0009
925.103	30.3383
926.773	30.4591
928.443	29.4301
930.114	29.1008
931.783	27.4864
933.454	25.9382
935.123	25.7545
936.791	25.7103
938.461	25.1687
940.128	24.8998
941.796	24.5618
943.464	24.3125
945.131	23.6632
946.797	22.6935
948.465	22.3402
950.131	22.2379
951.797	22.701
953.462	22.7756
955.128	23.3501
956.793	22.7029
958.457	22.9302
960.121	21.7176
961.786	20.5857
963.45	21.3158
965.113	22.201
966.775	22.3553
968.44	21.4854
970.102	22.0303
971.763	23.9565
973.425	24.6887
975.086	24.0728
976.748	24.1677
978.409	24.1757
980.069	24.3615
981.729	24.601
983.388	24.8328
985.048	25.2452
986.708	25.0203
988.367	23.5105
990.025	23.4989
991.683	23.752
993.341	23.8502
994.998	23.0023
996.655	22.3445
998.312	20.8409
999.969	20.4572
1001.62	18.7763
1003.28	17.8078
1004.94	17.1069
1006.59	16.1632
1008.25	15.8445
1009.9	16.1531
1011.56	15.4414
1013.21	14.4107
1014.86	12.7316
1016.52	13.1473
1018.17	13.4698
1019.82	13.7316
1021.48	13.3361
1023.13	12.647
1024.78	12.6805
1026.43	11.8055
1028.08	10.2826
1029.73	10.3649
1031.38	10.9843
1033.03	11.6229
1034.68	11.0075
1036.33	11.4683
1037.98	11.127
1039.63	10.1874
1041.28	9.90252
1042.93	9.75362
1044.57	11.9771
1046.22	13.6408
1047.87	13.2607
1049.52	14.6329
1051.16	15.3452
1052.81	15.4561
1054.45	15.3733
1056.1	14.73
1057.75	14.122
1059.39	14.709
1061.04	15.0564
1062.68	14.8938
1064.32	15.1497
1065.97	15.6905
1067.61	16.3225
1069.25	16.0432
1070.9	15.1686
1072.54	16.1929
1074.18	15.6896
1075.82	15.8338
1077.47	16.4551
1079.11	16.2108
1080.75	16.7704
1082.39	16.8811
1084.03	16.8537
1085.67	17.9048
1087.31	18.349
1088.95	18.1803
1090.59	17.8271
1092.22	18.1427
1093.86	16.8563
1095.5	16.7915
1097.14	16.9463
1098.78	17.1511
1100.41	17.2792
1102.05	16.9216
1103.69	16.8833
1105.32	16.5958
1106.96	15.8472
1108.59	15.3183
1110.23	14.6589
1111.86	14.8134
1113.5	13.7847
1115.13	13.5269
1116.77	12.3633
1118.4	11.6135
1120.03	9.58407
1121.67	9.32963
1123.3	9.59303
1124.93	9.37481
1126.56	8.85484
1128.19	7.81745
1129.83	7.7369
1131.46	7.35473
1133.09	6.61884
1134.72	5.79809
1136.35	5.6139
1137.98	4.37888
1139.61	3.49339
1141.24	4.50195
1142.86	4.35534
1144.49	4.14094
1146.12	4.40073
1147.75	4.00407
1149.38	3.71698
1151	2.9286
1152.63	3.25514
1154.26	3.89703
1155.88	4.20779
1157.51	4.68151
1159.14	4.61784
1160.76	3.44914
1162.39	3.72891
1164.01	2.81147
1165.63	2.58514
1167.26	1.91613
1168.88	2.32827
1170.51	2.19448
1172.13	2.10334
1173.75	2.23411
1175.38	2.09136
1177	2.99007
1178.62	3.14747
1180.24	3.36168
1181.86	5.0954
1183.48	5.0508
1185.1	5.0605
1186.72	4.80632
1188.34	5.13949
1189.96	6.95016
1191.58	6.93206
1193.2	7.94119
1194.82	8.45599
1196.44	9.0368
1198.06	9.11313
1199.68	9.68033
1201.29	11.4037
1202.91	14.2356
1204.53	15.4917
1206.14	17.261
1207.76	18.6425
1209.38	20.3084
1210.99	22.5193
1212.61	23.865
1214.22	26.1492
1215.84	27.3424
1217.45	28.813
1219.07	30.25
1220.68	31.7716
1222.29	33.7077
1223.91	34.2516
1225.52	35.8468
1227.13	38.112
1228.74	39.7822
1230.36	40.9552
1231.97	41.9384
1233.58	43.33
1235.19	43.4315
1236.8	43.7143
1238.41	44.0357
1240.02	44.4991
1241.63	45.7055
1243.24	47.6983
1244.85	48.4153
1246.46	50.2578
1248.07	51.3206
1249.67	52.092
1251.28	51.3708
1252.89	51.6638
1254.5	52.198
1256.1	52.6506
1257.71	53.4583
1259.32	54.9045
1260.92	55.8126
1262.53	57.3942
1264.13	57.4599
1265.74	58.807
1267.34	60.4128
1268.95	60.9877
1270.55	62.3741
1272.15	62.8933
1273.76	64.7013
1275.36	66.4868
1276.97	68.2067
1278.57	70.0313
1280.17	72.4552
1281.77	75.158
1283.37	77.6096
1284.97	79.2849
1286.58	81.0881
1288.18	82.323
1289.78	83.8842
1291.38	85.4925
1292.98	87.5047
1294.58	88.2987
1296.18	89.2758
1297.78	90.4924
1299.37	91.2768
1300.97	93.023
1302.57	95.2037
1304.17	96.2441
1305.77	98.4452
1307.36	100.581
1308.96	100.651
1310.55	100.973
1312.15	101.992
1313.75	102.116
1315.34	102.724
1316.94	104.315
1318.53	104.762
1320.13	105.971
1321.72	106.275
1323.32	106.278
1324.91	105.865
1326.5	105.451
1328.1	104.209
1329.69	103.657
1331.28	102.909
1332.87	102.289
1334.47	101.507
1336.06	101.528
1337.65	101.191
1339.24	100.309
1340.83	98.4055
1342.42	96.4418
1344.01	94.7429
1345.6	93.2114
1347.19	91.154
1348.78	90.3153
1350.37	89.5201
1351.96	88.2992
1353.54	86.8299
1355.13	84.4151
1356.72	83.0265
1358.31	81.4532
1359.89	80.1269
1361.48	78.3313
1363.07	77.2924
1364.65	75.6074
1366.24	73.9859
1367.82	73.2653
1369.41	72.2927
1370.99	71.4346
1372.58	71.1799
1374.16	69.755
1375.75	69.7911
1377.33	68.6517
1378.91	67.5459
1380.5	65.9888
1382.08	64.089
1383.66	62.4528
1385.25	61.5461
1386.83	60.2818
1388.41	59.7981
1389.99	59.6015
1391.57	59.1861
1393.15	58.6855
1394.73	58.2263
1396.31	57.3095
1397.89	55.9923
1399.47	55.3405
1401.05	55.7173
1402.63	55.9132
1404.21	55.3522
1405.78	55.2362
1407.36	55.1816
1408.94	54.8087
1410.52	55.0542
1412.1	55.3679
1413.67	56.4259
1415.25	57.4245
1416.82	57.26
1418.4	57.8734
1419.98	58.3868
1421.55	58.9996
1423.13	60.3142
1424.7	61.7857
1426.28	64.0459
1427.85	67.242
1429.42	69.0234
1431	72.0561
1432.57	74.2822
1434.14	77.0284
1435.71	79.4036
1437.29	80.7837
1438.86	82.8534
1440.43	84.2571
1442	86.3461
1443.57	87.2252
1445.14	88.4105
1446.71	89.2215
1448.28	90.3169
1449.85	90.3884
1451.42	90.3302
1452.99	89.2147
1454.56	87.9264
1456.13	85.9959
1457.7	84.0516
1459.26	82.7647
1460.83	82.8674
1462.4	81.7765
1463.97	80.8257
1465.54	79.5937
1467.1	76.7986
1468.67	73.877
1470.23	71.0101
1471.8	68.0972
1473.36	64.5361
1474.93	62.3847
1476.49	60.0175
1478.06	57.6324
1479.62	55.8682
1481.19	52.0155
1482.75	49.3054
1484.31	46.8664
1485.88	44.8229
1487.44	42.9932
1489	42.2696
1490.56	39.8739
1492.13	39.3276
1493.69	38.107
1495.25	36.1226
1496.81	34.8334
1498.37	34.6296
1499.93	33.4622
1501.49	33.526
1503.05	33.623
1504.61	34.0435
1506.17	33.471
1507.73	33.3113
1509.28	32.8831
1510.84	31.3929
1512.4	31.4922
1513.96	30.7832
1515.52	30.7495
1517.07	31.1891
1518.63	31.546
1520.19	31.9645
1521.74	31.9583
1523.3	33.0885
1524.85	33.7925
1526.41	34.8182
1527.96	35.5957
1529.52	35.9892
1531.07	36.7441
1532.63	37.7321
1534.18	38.4345
1535.73	39.4475
1537.29	41.707
1538.84	43.1421
1540.39	44.0273
1541.94	44.9469
1543.5	46.4737
1545.05	47.2433
1546.6	50.0967
1548.15	52.023
1549.7	53.3917
1551.25	56.8256
1552.8	59.2601
1554.35	62.0259
1555.9	64.1224
1557.45	66.6498
1559	69.1874
1560.55	71.3212
1562.1	74.1413
1563.65	76.3226
1565.19	78.1304
1566.74	81.044
1568.29	82.6686
1569.83	84.6544
1571.38	86.5941
1572.93	88.4325
1574.47	90.7168
1576.02	92.2481
1577.56	92.2873
1579.11	93.9834
1580.66	95.3816
1582.2	96.2908
1583.74	97.0857
1585.29	97.531
1586.83	97.725
1588.38	98.085
1589.92	99.0667
1591.46	98.3713
1593.01	97.4412
1594.55	97.9209
1596.09	97.2471
1597.63	96.4249
1599.17	96.5132
1600.71	95.556
1602.25	94.1881
1603.79	92.6611
1605.34	90.9171
1606.88	89.2082
1608.41	87.8393
1609.95	85.7645
1611.49	84.5379
1613.03	85.0114
1614.57	83.5716
1616.11	82.3839
1617.65	80.6902
1619.18	79.3418
1620.72	78.2505
1622.26	77.211
1623.79	77.7638
1625.33	77.3373
1626.87	77.4931
1628.4	77.9768
1629.94	76.957
1631.48	78.0205
1633.01	77.5527
1634.55	78.4012
1636.08	77.9085
1637.61	77.5386
1639.15	78.4555
1640.68	78.9876
1642.21	79.7019
1643.75	81.1191
1645.28	81.139
1646.81	81.5549
1648.34	83.4469
1649.88	83.2092
1651.41	82.9656
1652.94	83.5435
1654.47	84.4552
1656	85.2329
1657.53	84.7854
1659.06	83.9969
1660.59	83.7512
1662.12	83.0646
1663.65	83.3006
1665.18	82.6255
1666.71	81.8813
1668.24	80.6432
1669.76	79.6984
1671.29	79.5193
1672.82	77.8039
1674.35	75.741
1675.87	73.7731
1677.4	70.2872
1678.93	67.9907
1680.45	65.3957
1681.98	63.3355
1683.5	60.9106
1685.03	58.414
1686.55	54.8745
1688.08	53.2894
1689.6	49.6116
1691.13	46.0908
1692.65	43.463
1694.17	40.9867
1695.7	38.9946
1697.22	37.0451
1698.74	35.5612
1700.27	34.0005
1701.79	31.5567
1703.31	29.4923
1704.83	27.1726
1706.35	24.539
1707.87	22.9243
1709.39	20.3727
1710.91	18.4035
1712.43	16.1666
1713.95	14.8031
1715.47	13.7776
1716.99	12.3846
1718.51	10.9709
1720.03	10.6821
1721.55	9.61986
1723.07	8.94517
1724.58	8.79445
1726.1	7.82064
1727.62	7.57228
1729.13	7.41288
1730.65	6.85612
1732.17	6.15241
1733.68	5.96045
1735.2	6.85933
1736.72	6.7276
1738.23	7.10285
1739.74	7.48607
1741.26	7.27358
1742.77	6.81403
1744.29	6.87053
1745.8	6.96578
1747.32	6.80101
1748.83	6.15497
1750.34	5.88181
1751.85	6.27357
1753.37	5.95149
1754.88	6.40094
1756.39	6.46091
1757.9	6.82736
1759.41	6.25814
1760.92	6.58664
1762.44	5.95267
1763.95	7.18128
1765.46	6.71074
1766.96	7.69712
1768.47	7.8883
1769.98	8.92668
1771.49	8.87107
1773	8.72738
1774.51	8.33789
1776.02	7.88617
1777.53	7.35081
1779.03	6.92303
1780.54	6.28753
1782.05	6.03439
1783.55	6.41962
1785.06	6.31595
1786.57	5.76179
1788.07	5.85057
1789.58	5.58907
1791.08	5.67402
1792.59	5.63158
1794.09	5.70088
1795.6	6.06378
1797.1	5.73825
1798.61	5.69704
1800.11	5.43393
1801.61	5.07625
1803.12	4.91867
1804.62	4.44009
1806.12	4.4481
1807.62	4.46802
1809.12	4.43068
1810.63	4.27184
1812.13	4.2137
1813.63	4.42051
1815.13	4.0162
1816.63	4.06074
1818.13	3.648
1819.63	4.04856
1821.13	3.6775
1822.63	3.72209
1824.13	3.88813
1825.63	4.42774
1827.13	4.2332
1828.62	4.21709
1830.12	4.7416
1831.62	4.47888
1833.12	5.05993
1834.61	5.0549
1836.11	5.80734
1837.61	6.17993
1839.1	6.69636
1840.6	6.67511
1842.09	6.48622
1843.59	6.87323
1845.09	6.71798
1846.58	6.31389
1848.08	6.26207
1849.57	6.19509
1851.06	5.48305
1852.56	6.40377
1854.05	6.09611
1855.54	5.25036
1857.04	4.98567
1858.53	4.36737
1860.02	4.14562
1861.51	3.32472
1863.01	3.73785
1864.5	3.97338
1865.99	4.39228
1867.48	4.65988
1868.97	4.06212
1870.46	3.79687
1871.95	3.09894
1873.44	2.41184
1874.93	1.95092
1876.42	1.43847
1877.91	1.29496
1879.4	0.679111
1880.89	1.18394
1882.37	1.22477
1882.46	1.26512
1883.95	1.37257
1885.45	1.07261
1886.94	0.959216
1888.43	0.744225
1889.93	0.905808
1891.42	0.627569
1892.91	0.818625
1894.41	0.918298
1895.9	1.34829
1897.39	1.13049
1898.88	1.3969
1900.37	1.72706
1901.86	2.62221
1903.36	2.87014
1904.85	2.79603
1906.34	3.84646
1907.83	4.40223
1909.32	5.27188
1910.81	6.13966
1912.29	6.43783
1913.78	6.52152
1915.27	6.754
1916.76	6.98274
1918.25	6.55018
1919.74	6.89305
1921.23	7.54293
1922.71	7.38639
1924.2	7.44904
1925.69	8.12133
1927.17	7.98814
1928.66	7.4748
1930.15	8.44955
1931.63	8.57417
1933.12	8.98359
1934.6	9.07783
1936.09	9.8173
1937.57	9.49679
1939.06	9.76688
1940.54	9.52192
1942.02	8.36794
1943.51	8.71177
1944.99	8.55945
1946.47	7.89613
1947.96	8.0374
1949.44	7.64123
1950.92	7.75151
1952.4	7.6239
1953.88	7.34256
1955.37	7.09423
1956.85	7.47807
1958.33	7.69698
1959.81	6.82986
1961.29	7.04769
1962.77	6.25368
1964.25	5.39466
1965.73	4.8398
1967.21	4.56439
1968.69	4.01914
1970.16	3.81217
1971.64	4.12266
1973.12	4.21951
1974.6	3.7548
1976.08	3.95544
1977.55	3.38749
1979.03	3.40492
1980.51	3.85089
1981.98	4.06983
1983.46	3.59429
1984.94	4.15849
1986.41	3.59316
1987.89	3.06671
1989.36	2.65465
1990.84	2.13158
1992.31	2.32826
1993.79	3.14294
1995.26	3.1107
1996.73	2.70038
1998.21	2.61085
1999.68	2.48807
2001.15	2.74558
2002.63	2.14661
2004.1	3.05307
2005.57	2.57419
2007.04	2.77406
2008.51	3.28881
2009.99	3.225
2011.46	3.1165
2012.93	3.80427
2014.4	3.58472
2015.87	3.24657
2017.34	4.30123
2018.81	3.97171
2020.28	3.63579
2021.75	3.8518
2023.21	3.96491
2024.68	4.18752
2026.15	4.3698
2027.62	4.26326
2029.09	5.2974
2030.56	5.50057
2032.02	5.2251
2033.49	4.50224
2034.96	4.91758
2036.42	4.38793
2037.89	4.09137
2039.36	5.19427
2040.82	5.52505
2042.29	5.2749
2043.75	6.84082
2045.22	6.98852
2046.68	7.57994
2048.14	7.46711
2049.61	7.79191
2051.07	7.002
2052.54	7.84759
2054	8.31822
2055.46	8.02708
2056.93	7.76594
2058.39	8.12739
2059.85	7.10242
2061.31	6.84838
2062.77	6.88319
2064.23	6.44987
2065.7	6.74013
2067.16	6.94576
2068.62	6.92676
2070.08	6.55531
2071.54	6.89946
2073	7.24363
2074.46	7.86253
2075.92	7.99377
2077.38	8.22497
2078.83	8.02447
2080.29	8.52971
2081.75	8.78604
2083.21	8.30074
2084.67	9.08353
2086.12	8.87123
2087.58	9.01519
2089.04	9.26401
2090.49	9.46928
2091.95	9.16727
2093.41	9.51885
2094.86	10.1071
2096.32	10.8515
2097.77	11.1025
2099.23	11.2475
2100.68	11.3459
2102.14	12.2484
2103.59	12.1936
2105.05	12.5457
2106.5	12.926
2107.95	13.9079
2109.41	14.2918
2110.86	14.6555
2112.31	15.9373
2113.76	15.2656
2115.21	15.5631
2116.67	16.9918
2118.12	17.311
2119.57	18.1019
2121.02	17.6573
2122.47	18.0068
2123.92	18.9203
2125.37	19.5433
2126.82	20.2675
2128.27	20.967
2129.72	21.9429
2131.17	22.7917
2132.62	23.2309
2134.07	24.7998
2135.51	25.7748
2136.96	27.1546
2138.41	28.6975
2139.86	29.933
2141.31	31.646
2142.75	32.9424
2144.2	34.5824
2145.65	35.8852
2147.09	37.0839
2148.54	37.9557
2149.98	39.3782
2151.43	40.0798
2152.87	41.0073
2154.32	41.7508
2155.76	42.9328
2157.21	45.3085
2158.65	46.3533
2160.1	47.4233
2161.54	48.4333
2162.98	48.4091
2164.43	49.1523
2165.87	49.1943
2167.31	49.0754
2168.75	49.3641
2170.2	49.3415
2171.64	48.8239
2173.08	48.4314
2174.52	48.1288
2175.96	48.187
2177.4	47.9138
2178.84	46.9943
2180.28	46.1853
2181.72	44.7833
2183.16	44.3209
2184.6	43.6273
2186.04	42.1438
2187.48	41.5173
2188.92	40.7984
2190.36	39.8674
2191.79	38.1593
2193.23	37.0573
2194.67	36.2926
2196.11	35.2472
2197.54	34.0886
2198.98	33.7147
2200.42	32.3632
2201.85	31.5221
2203.29	30.8077
2204.72	29.2003
2206.16	29.1565
2207.59	27.5823
2209.03	26.7387
2210.46	25.3413
2211.9	25.0858
2213.33	24.9021
2214.77	23.1824
2216.2	21.5166
2217.63	20.9193
2219.07	20.2718
2220.5	19.9499
2221.93	20.309
2223.36	19.9268
2224.8	19.8906
2226.23	19.4665
2227.66	18.8353
2229.09	18.9733
2230.52	17.7901
2231.95	16.8793
2233.39	16.5171
2234.81	15.5509
2236.25	15.4297
2237.67	15.9558
2239.1	16.3908
2240.53	16.8038
2241.96	16.2905
2243.39	15.5153
2244.82	15.5985
2246.25	15.295
2247.68	15.3274
2249.1	14.1214
2250.53	13.8452
2251.96	13.325
2253.38	13.013
2254.81	12.9217
2256.24	12.2284
2257.66	11.6885
2259.09	11.6839
2260.51	12.0375
2261.94	12.6598
2263.36	12.1726
2264.79	12.2918
2266.21	11.8785
2267.64	10.828
2269.06	10.573
2270.49	10.6419
2271.91	10.9766
2273.33	9.99256
2274.76	9.87333
2276.18	8.81618
2277.6	9.25603
2279.02	8.82017
2280.44	8.11988
2281.87	8.24755
2283.29	7.98085
2284.71	7.43933
2286.13	6.96918
2287.55	7.33524
2288.97	7.89452
2290.39	7.47879
2291.81	7.02769
2293.23	6.36213
2294.65	5.79165
2296.07	6.26524
2297.49	6.42611
2298.91	7.3362
2300.33	8.62802
2301.74	8.49456
2303.16	8.4705
2304.58	8.93366
2306	9.52522
2307.41	9.82285
2308.83	10.4266
2310.25	10.1054
2311.66	9.36763
2313.08	9.11055
2314.5	9.00293
2315.91	9.0985
2317.33	9.02331
2318.74	9.21155
2320.16	9.39126
2321.57	10.0261
2322.98	10.0021
2324.4	10.4608
2325.81	10.6077
2327.23	10.5541
2328.64	10.4349
2330.05	10.7481
2331.46	10.5145
2332.88	10.275
2334.29	9.19346
2335.7	8.51518
2337.11	7.50591
2338.52	7.1618
2339.94	7.12311
2341.35	6.65902
2342.76	5.37969
2344.17	4.29922
2345.58	4.77499
2346.99	3.87352
2348.4	3.73755
2349.81	3.14272
2351.22	2.0607
2352.62	2.03862
2354.03	0.801115
2355.44	0.528685
2356.85	0.269384
2358.26	-0.0099949
2359.67	-0.117099
2361.07	-0.542786
2362.48	-0.0774742
2363.89	0.451076
2365.29	1.3356
2366.7	2.0666
2368.11	1.68766
2369.51	1.38573
2370.92	1.11917
2372.32	0.928944
2373.73	0.943431
2375.13	0.889817
2376.54	0.942964
2377.94	1.09515
2379.35	1.56646
2380.75	2.09421
2382.15	1.64029
2383.56	2.2315
2384.96	2.75771
2386.36	3.13808
2387.76	3.79606
2389.17	4.15208
2390.57	4.81492
2391.97	5.19182
2393.37	4.97529
2394.77	4.8951
2396.17	5.07312
2397.58	5.11557
2398.98	4.82287
2400.38	4.75397
2401.78	4.95766
2403.18	4.36356
2404.58	3.96984
2405.97	3.82591
2407.37	3.18884
2408.77	3.42926
2410.17	3.46683
2411.57	3.34436
2412.97	3.30135
2414.37	4.16282
2415.76	4.3342
2417.16	3.82194
2418.56	4.19272
2419.95	4.00033
2421.35	3.982
2422.75	3.71734
2424.14	3.2395
2425.54	3.93161
2426.93	4.12438
2428.33	3.56266
2429.72	3.33434
2431.12	3.02056
2432.51	3.71326
2433.91	3.49742
2435.3	3.5367
2436.7	3.88673
2438.09	3.27682
2439.48	3.27618
2440.88	3.42828
2442.27	3.12761
2443.66	3.3171
2445.05	3.3871
2446.44	3.37285
2447.84	3.04223
2449.23	3.10956
2450.62	3.22656
2452.01	2.8486
2453.4	2.8868
2454.79	3.05841
2456.18	3.01862
2457.57	2.98399
2458.96	2.81649
2460.35	2.54487
2461.74	2.49349
2463.13	2.30655
2464.52	2.59769
2465.91	2.32695
2467.29	2.13146
2468.68	1.71494
2470.07	1.97872
2471.46	1.85828
2472.85	0.954325
2474.23	1.13845
2475.62	0.949937
2477.01	0.692006
2478.39	1.50708
2479.78	1.74416
2481.16	1.57049
2482.55	0.843964
2483.93	1.2286
2485.32	0.783683
2486.7	0.346001
2488.09	0.792471
2489.47	0.558114
2490.86	0.943095
2492.24	1.16665
2493.62	0.614285
2495.01	1.13346
2496.39	0.943442
2497.77	1.32918
2499.15	2.60796
2500.54	3.06337
2501.92	3.84089
2503.3	3.77804
2504.68	3.90012
2506.06	3.99735
2507.45	3.57351
2508.83	3.95472
2510.21	3.47544
2511.59	4.09904
2512.97	4.54806
2514.35	4.32956
2515.73	4.13355
2517.11	4.75578
2518.48	5.44172
2519.86	5.04003
2521.24	4.83186
2522.62	4.83369
2524	5.43956
2525.38	6.14039
2526.75	6.6608
2528.13	6.85676
2529.51	7.57666
2530.89	8.86601
2532.26	9.26738
2533.64	9.07536
2535.02	8.90875
2536.39	8.79603
2537.77	8.9091
2539.14	8.60136
2540.52	8.38514
2541.89	8.1437
2543.27	8.21979
2544.64	8.67532
2546.01	9.02712
2547.39	8.74344
2548.76	8.33025
2550.14	8.20732
2551.51	7.72881
2552.88	8.31744
2554.25	8.82968
2555.63	9.32311
2557	9.42105
2558.37	8.87178
2559.74	8.58585
2561.11	8.24297
2562.49	7.79308
2563.86	8.70899
2565.23	8.8602
2566.6	8.90601
2567.97	8.16459
2569.34	7.34935
2570.71	7.06584
2572.08	6.45586
2573.45	6.2785
2574.82	6.08647
2576.18	5.4097
2577.55	5.97495
2578.92	5.90785
2580.29	6.04554
2581.66	5.82017
2583.02	5.62772
2584.39	5.83029
2585.76	6.37196
2587.13	6.4141
2588.49	6.22603
2589.86	6.88952
2591.22	7.41135
2592.59	7.59573
2593.96	7.60793
2595.32	7.71114
2596.69	7.38236
2598.05	8.14601
2599.42	7.99088
2600.78	7.72105
2602.14	7.38263
2603.51	7.2142
2604.87	7.05873
2606.23	8.01043
2607.6	8.05622
2608.96	8.35318
2610.32	8.13564
2611.69	8.82406
2613.05	8.89841
2614.41	9.01476
2615.77	8.59641
2617.13	9.11802
2618.49	9.68869
2619.86	9.67094
2621.22	10.3524
2622.58	10.9479
2623.94	10.3703
2625.3	9.85419
2626.66	10.1034
2628.02	10.8059
2629.37	11.1927
2630.73	11.6484
2632.09	11.909
2633.45	11.3003
2634.81	11.4998
2636.17	11.6663
2637.53	12.1021
2638.88	12.5469
2640.24	12.7194
2641.6	12.7779
2642.96	12.7562
2644.31	12.7379
2645.67	13.6145
2647.02	13.0214
2648.38	12.6115
2649.74	12.5587
2651.09	12.2582
2652.45	12.6457
2653.8	12.3262
2655.16	12.2613
2656.51	11.486
2657.86	11.3889
2659.22	10.9573
2660.57	10.3487
2661.93	10.7032
2663.28	10.5902
2664.63	10.3164
2665.98	10.65
2667.34	10.4271
2668.69	10.1947
2670.04	9.54251
2671.39	9.53929
2672.75	10.3044
2674.09	10.8111
2675.45	10.0957
2676.8	9.60644
2678.15	8.96834
2679.5	9.34639
2680.85	8.7063
2682.2	8.89967
2683.55	8.45669
2684.9	8.79975
2686.25	8.75903
2687.6	8.87055
2688.94	9.22717
2690.29	9.05245
2691.64	8.57386
2692.99	8.50257
2694.34	8.85158
2695.68	9.30873
2697.03	9.27822
2698.38	10.0619
2699.73	10.0163
2701.07	10.057
2702.42	10.7991
2703.76	11.1703
2705.11	11.7431
2706.45	11.7373
2707.8	11.3256
2709.15	11.5871
2710.49	12.46
2711.83	12.8315
2713.18	13.2202
2714.52	13.3185
2715.87	13.4995
2717.21	13.712
2718.55	14.3154
2719.9	14.7649
2721.24	15.0618
2722.58	15.6831
2723.93	15.815
2725.27	15.7158
2726.61	15.8454
2727.95	16.361
2729.29	16.8512
2730.63	16.8584
2731.98	17.2628
2733.32	16.83
2734.66	16.3345
2736	15.7756
2737.34	15.5802
2738.68	15.8483
2740.02	15.9833
2741.36	15.1408
2742.7	14.1901
2744.03	13.9905
2745.37	13.6611
2746.71	13.3603
2748.05	12.9103
2749.39	12.8379
2750.72	11.7357
2752.06	11.2583
2753.4	11.2034
2754.74	11.3343
2756.07	10.2078
2757.41	9.65714
2758.75	9.85187
2760.08	9.56477
2761.42	9.11574
2762.76	8.51995
2764.09	7.80817
2765.42	7.36759
2766.76	5.99383
2768.09	6.51814
2769.43	6.33362
2770.76	5.8254
2772.1	5.35898
2773.43	3.75569
2774.76	3.19466
2776.1	3.23832
2777.43	3.1274
2778.76	3.02901
2780.1	3.2054
2781.43	3.20045
2782.76	2.08441
2784.09	2.40245
2785.42	1.7977
2786.75	1.32876
2788.09	1.43203
2789.42	1.118
2790.75	0.379441
2792.08	-0.0241236
2793.41	0.389247
2794.74	-0.00275524
2796.07	-0.202244
2797.4	0.346244
2798.73	0.0945209
2800.06	-0.856815
2801.39	-0.4546
2802.71	-0.584778
2804.04	0.0150304
2805.37	0.496808
2806.7	0.211541
2808.03	-0.077582
2809.35	0.313703
2810.68	1.12766
2812.01	1.05352
2813.33	1.36592
2814.66	2.32513
2815.99	2.72526
2817.31	2.9509
2818.64	4.21869
2819.96	5.46217
2821.29	6.03519
2822.61	6.3681
2823.94	8.16307
2825.26	9.59643
2826.59	10.6179
2827.91	11.4714
2829.23	12.8874
2830.56	14.4138
2831.88	16.3238
2833.21	17.9738
2834.53	19.8614
2835.85	20.5037
2837.17	22.2172
2838.5	24.1769
2839.82	26.41
2841.14	29.0911
2842.46	32.2133
2843.78	35.3451
2845.1	38.844
2846.42	41.747
2847.74	44.7673
2849.06	48.1754
2850.38	52.1342
2851.71	55.2539
2853.03	59.1991
2854.34	63.6284
2855.66	67.7703
2856.98	71.8761
2858.3	76.388
2859.62	80.1393
2860.94	84.6028
2862.26	89.1719
2863.57	92.9597
2864.89	95.5961
2866.21	98.5903
2867.53	102.923
2868.84	105.807
2870.16	109.314
2871.48	111.847
2872.79	114.647
2874.11	117.988
2875.42	120.599
2876.74	123.123
2878.05	124.95
2879.37	127.789
2880.68	130.369
2882	132.199
2883.31	134.429
2884.63	136.987
2885.94	139.812
2887.26	142.28
2888.57	144.815
2889.88	147.114
2891.19	149.082
2892.51	150.996
2893.82	153.037
2895.13	156.128
2896.44	158.779
2897.76	160.922
2899.07	163.868
2900.38	166.899
2901.69	170.154
2903	173.797
2904.31	177.891
2905.62	182.491
2906.93	187.153
2908.24	192.179
2909.55	196.58
2910.86	201.863
2912.17	206.334
2913.48	211.847
2914.79	216.314
2916.1	220.771
2917.41	225.689
2918.71	229.478
2920.02	233.725
2921.33	237.04
2922.64	239.877
2923.94	242.944
2925.25	244.477
2926.56	246.125
2927.86	246.893
2929.17	247.065
2930.48	247.227
2931.78	247.523
2933.09	246.358
2934.39	244.721
2935.7	243.142
2937	240.117
2938.31	237.943
2939.61	234.525
2940.92	230.602
2942.22	227.297
2943.53	223.943
2944.83	220.589
2946.13	216.595
2947.43	212.682
2948.74	208.957
2950.04	204.568
2951.34	200.191
2952.64	195.769
2953.95	191.006
2955.25	186.316
2956.55	182.092
2957.85	177.848
2959.15	173.847
2960.45	169.781
2961.75	164.677
2963.05	160.312
2964.35	157.064
2965.65	152.595
2966.95	148.682
2968.25	145.199
2969.55	141.842
2970.85	138.673
2972.15	135.26
2973.45	131.447
2974.75	128.013
2976.05	124.579
2977.34	120.344
2978.64	117.108
2979.94	112.935
2981.24	108.58
2982.53	104.183
2983.83	99.2207
2985.13	95.295
2986.42	90.4085
2987.72	85.3006
2989.01	81.222
2990.31	76.3874
2991.61	72.2113
2992.9	67.7061
2994.19	63.513
2995.49	59.2666
2996.78	55.0293
2998.08	50.2146
2999.37	47.0356
3000.67	43.0383
3001.96	39.3707
3003.25	36.2459
3004.55	32.2647
3005.84	29.5275
3007.13	26.6757
3008.42	24.1581
3009.72	21.5209
3011.01	19.3627
3012.3	17.3616
3013.59	15.4873
3014.88	13.8199
3016.17	12.2808
3017.46	11.0287
3018.76	9.32375
3020.05	8.51447
3021.34	7.35958
3022.63	6.64834
3023.92	5.6556
3025.21	4.98947
3026.49	4.04974
3027.78	3.81363
3029.07	4.31647
3030.36	4.55712
3031.65	4.77352
3032.94	4.73725
3034.23	5.45177
3035.51	6.31515
3036.8	6.5979
3038.09	7.25715
3039.38	7.74355
3040.66	7.57886
3041.95	7.9036
3043.23	8.56626
3044.52	8.82605
3045.81	9.03176
3047.09	9.97873
3048.38	11.0541
3049.66	11.9642
3050.95	12.5968
3052.23	13.8366
3053.52	14.8045
3054.8	15.6332
3056.09	15.7991
3057.37	16.3836
3058.65	16.9215
3059.94	17.6624
3061.22	17.8607
3062.5	17.6477
3063.79	17.6306
3065.07	17.4889
3066.35	16.9702
3067.63	16.0551
3068.92	15.2082
3070.2	14.5393
3071.48	13.8864
3072.76	13.892
3074.04	12.7454
3075.32	12.2618
3076.6	11.8318
3077.88	11.2952
3079.16	10.2132
3080.44	9.24566
3081.72	9.05645
3083	8.13801
3084.28	7.77227
3085.56	6.66929
3086.84	6.35318
3088.12	5.43121
3089.4	5.03265
3090.67	5.28275
3091.95	4.8382
3093.23	5.29793
3094.51	5.13059
3095.78	4.99176
3097.06	4.88304
3098.34	6.10939
3099.61	6.21138
3100.89	6.55953
3102.17	6.78656
3103.44	7.44966
3104.72	7.74588
3105.99	8.91713
3107.27	9.80694
3108.54	10.554
3109.82	11.2915
3111.09	11.8244
3112.37	12.4852
3113.64	13.3696
3114.92	14.2187
3116.19	15.0302
3117.46	15.9168
3118.74	17.319
3120.01	18.0295
3121.28	19.1799
3122.55	19.9936
3123.83	21.0758
3125.1	21.0568
3126.37	21.7074
3127.64	22.4449
3128.91	23.327
3130.19	23.4256
3131.46	24.1611
3132.73	24.9525
3134	26.1581
3135.27	27.4801
3136.54	28.2257
3137.81	28.8437
3139.08	30.488
3140.35	31.4183
3141.62	32.255
3142.89	33.2357
3144.16	34.3154
3145.42	35.356
3146.69	36.9172
3147.96	38.4244
3149.23	41.0429
