#Acq. time (s)=	45
#Accumulations=	2
#Range (cm-¹)=	200...3150
#Windows=	2
#Auto scanning=	Off
#Autofocus=	Off
#Macrospot=	Off
#AutoExposure=	Off
#Spike filter=	Multiple accum.
#Delay time (s)=	0
#Binning=	1
#Readout mode=	Signal
#DeNoise=	Off
#ICS correction=	On
#Dark correction=	Off
#Inst. Process=	Off
#Detector Gain=	Best Dynamic Range
#Detector ADC=	20 kHz       
#Detector temperature (°C)=	-69.85
#Instrument=	LabRAM HR Evol
#Detector=	Synapse
#Objective=	x100
#Grating=	600 gr/mm
#ND Filter=	100%
#Laser (nm)=	532 
#Hole=	100.021
#Range=	Auto
#Laser Pol.=	No
#Raman. Pol.=	No
#Laser Pol. (°)=	-0.0007625
#Raman Pol. (°)=	89.9995
#Collection=	Microscope
#StageXY=	Marzhauser
#StageZ=	Marzhauser
#X (µm)=	4767.7
#Y (µm)=	-7736.3
#Z (µm)=	584
#Full time(mm:ss)=	3:18
#Project=	
#Sample=	
#Site=	
#Title=	Thy_30_10_03_2x_45s_532 nm_x100_100%_600 gr_mm
#Remark=	
#Date=	30.06.2022 11:36
#Acquired=	30.06.2022 11:36:39
#Base:Fit=	10.08.2022 09:56:48
#Base:Fit=	10.08.2022 09:57:06
#Base:Fit=	10.08.2022 09:57:43
#Base:Fit=	10.08.2022 09:57:50
#Base:Fit=	10.08.2022 09:58:11
#Base:Sub=	10.08.2022 09:58:44
#Filter:Polynom=	16.08.2022 10:22:53
#AxisType[0]=Intens
#AxisUnit[0]=Cnt
#AxisType[1]=Spectr
#AxisUnit[1]=1/cm
200.533	30.8153
202.348	26.3972
204.162	23.4348
205.976	21.0325
207.792	19.2065
209.605	17.5837
211.418	16.0825
213.23	14.4807
215.044	13.1832
216.856	12.022
218.667	10.5852
220.478	9.34419
222.289	9.33875
224.102	8.31276
225.912	7.38622
227.721	7.72647
229.531	7.82808
231.34	5.90556
233.148	5.10583
234.956	4.42057
236.766	3.33709
238.574	3.2335
240.381	3.48737
242.188	3.80456
243.994	3.58526
245.801	4.39236
247.606	4.86958
249.412	4.92752
251.217	5.87421
253.024	6.86136
254.828	7.12913
256.632	7.40702
258.436	6.83472
260.239	7.86095
262.042	7.80498
263.845	8.13874
265.647	9.34591
267.449	9.87135
269.25	10.1041
271.052	11.0681
272.852	10.6963
274.653	10.8708
276.453	10.0906
278.253	9.80222
280.052	9.49987
281.852	9.93497
283.65	9.9664
285.449	10.2556
287.247	10.4573
289.044	11.549
290.842	13.297
292.639	13.7782
294.436	13.9242
296.232	14.1757
298.028	13.6649
299.821	14.4964
301.617	14.6446
303.412	15.1975
305.206	15.7555
307	15.7032
308.794	16.6269
310.588	17.2843
312.381	18.3596
314.172	17.9079
315.964	17.5484
317.756	17.6719
319.548	17.1635
321.34	16.477
323.131	17.0792
324.921	18.1116
326.71	18.3305
328.5	19.3266
330.29	19.3348
332.079	19.1344
333.868	19.0491
335.654	19.047
337.443	18.3507
339.231	18.1432
341.018	17.9135
342.804	16.9192
344.591	16.705
346.377	16.3344
348.163	15.6673
349.947	14.5199
351.733	12.9882
353.518	12.553
355.303	12.2555
357.085	11.0955
358.869	10.6238
360.653	9.99466
362.435	8.84404
364.218	7.46478
366.001	6.96131
367.781	6.52033
369.563	7.52007
371.345	6.73745
373.124	5.90663
374.905	5.77297
376.686	4.63937
378.464	4.39029
380.244	5.09795
382.022	3.33347
383.801	2.76782
385.58	2.09875
387.357	1.99785
389.135	2.15111
390.911	1.94394
392.689	1.82963
394.466	2.39408
396.241	2.19074
398.018	2.60692
399.792	2.09825
401.568	2.31511
403.341	1.51031
405.117	1.10955
406.889	2.27275
408.664	3.11368
410.436	3.37066
412.21	3.1989
413.981	4.40533
415.755	3.44305
417.525	3.70079
419.298	2.53118
421.068	3.00476
422.84	2.99146
424.609	3.22606
426.38	3.28584
428.149	3.49129
429.919	3.2992
431.688	2.66679
433.455	2.53094
435.225	1.09923
436.992	0.564792
438.76	0.267451
440.527	2.24901
442.293	2.49341
444.06	2.22269
445.826	2.04112
447.593	2.13453
449.357	1.12538
451.122	2.07363
452.888	1.87588
454.651	2.01591
456.415	1.40928
458.18	1.69758
459.942	1.54584
461.705	2.51962
463.469	2.99254
465.23	2.7511
466.991	3.5896
468.752	4.11757
470.515	3.63072
472.275	5.13698
474.035	5.9561
475.797	6.82865
477.556	7.52733
479.315	8.85236
481.073	10.1295
482.834	11.3927
484.592	12.2397
486.349	13.9471
488.106	14.8797
489.863	15.5358
491.622	16.177
493.378	17.1775
495.134	18.8736
496.889	19.5212
498.645	20.4941
500.401	21.0017
502.156	21.7427
503.91	21.2262
505.664	21.645
507.417	20.923
509.171	21.5955
510.923	22.0167
512.678	22.2128
514.43	21.617
516.182	22.3377
517.933	22.7652
519.684	21.6221
521.435	21.9449
523.186	21.8135
524.936	21.1481
526.686	20.8239
528.435	20.2189
530.184	18.0676
531.933	16.8361
533.682	16.2968
535.43	14.9569
537.18	14.6093
538.927	14.9659
540.674	13.5193
542.421	13.1681
544.167	12.6519
545.913	12.3307
547.659	11.1454
549.403	10.1752
551.148	8.4647
552.893	8.50693
554.637	8.73408
556.381	8.41358
558.125	7.6431
559.868	7.37101
561.611	6.89875
563.354	6.06515
565.097	6.25445
566.839	6.29587
568.581	5.78818
570.322	5.95062
572.063	5.89381
573.802	5.24425
575.542	3.96184
577.283	4.05075
579.022	4.24465
580.762	3.84074
582.501	4.40725
584.24	4.05875
585.976	4.04353
587.714	3.14942
589.452	2.74885
591.19	2.36488
592.927	2.11946
594.663	1.76822
596.398	2.17271
598.134	2.49746
599.87	2.25741
601.605	2.83659
603.338	3.28894
605.073	3.19504
606.808	2.60004
608.542	3.29488
610.274	3.19323
612.007	3.20295
613.74	4.27328
615.473	4.28707
617.204	4.76847
618.936	5.0995
620.668	5.922
622.397	6.19792
624.128	7.84075
625.859	8.21214
627.588	7.93007
629.318	9.12801
631.048	9.72985
632.775	9.41167
634.505	9.4412
636.233	10.7024
637.96	11.1008
639.688	12.2329
641.416	11.6156
643.142	11.2459
644.869	11.0565
646.594	11.0937
648.32	11.1088
650.045	10.4728
651.771	11.9192
653.496	11.9081
655.219	12.6632
656.944	13.3165
658.667	13.5743
660.391	13.3074
662.113	12.9101
663.837	13.7274
665.558	13.2664
667.281	12.5774
669.002	12.6497
670.724	12.187
672.444	11.4644
674.166	11.4044
675.885	11.1122
677.606	10.3626
679.325	10.8325
681.045	11.9806
682.763	12.7042
684.483	13.451
686.2	14.8955
687.917	16.5059
689.636	16.8511
691.352	18.2284
693.07	19.6583
694.786	19.7503
696.501	19.5779
698.219	20.4072
699.933	20.6854
701.65	22.0639
703.364	24.3315
705.078	24.8737
706.793	25.6554
708.506	26.6302
710.219	27.2915
711.934	28.0315
713.646	29.0599
715.358	29.8978
717.071	30.4409
718.782	30.4734
720.493	32.2461
722.204	33.0545
723.916	33.2459
725.626	33.8918
727.336	34.4754
729.045	35.2655
730.756	35.8366
732.464	37.0856
734.173	38.6364
735.881	39.9714
737.59	41.7131
739.297	42.0903
741.004	43.7701
742.711	43.5128
744.417	44.3834
746.125	44.5214
747.831	44.5241
749.537	45.3292
751.242	45.456
752.946	45.6118
754.651	46.4754
756.357	47.7315
758.061	47.9248
759.764	49.1843
761.467	49.4009
763.17	51.1512
764.872	53.0843
766.575	54.8986
768.276	56.4931
769.978	57.5558
771.679	58.8956
773.382	60.1619
775.083	61.0255
776.783	62.8722
778.483	64.2913
780.182	63.8886
781.882	64.4926
783.581	65.9314
785.279	67.3439
786.978	68.2543
788.676	68.4201
790.373	67.8509
792.071	68.708
793.768	69.6726
795.464	71.0927
797.161	71.9215
798.857	73.5867
800.552	74.026
802.248	74.8682
803.941	74.9754
805.636	75.3493
807.33	74.625
809.024	75.4054
810.718	75.0245
812.412	75.4727
814.105	75.5782
815.798	76.0347
817.49	76.5105
819.183	76.4072
820.873	76.7751
822.564	76.6666
824.256	76.8953
825.947	76.1256
827.637	75.411
829.328	74.8321
831.016	73.2035
832.705	72.6552
834.395	71.9827
836.084	71.9749
837.772	71.4425
839.459	70.6826
841.147	69.0915
842.835	66.6538
844.522	66.2361
846.209	66.3139
847.894	66.5324
849.581	65.11
851.267	64.8104
852.953	64.1462
854.637	62.1124
856.322	61.613
858.007	61.6351
859.689	61.3924
861.374	59.9908
863.058	58.4676
864.739	56.5718
866.423	55.6672
868.106	55.0905
869.787	54.0122
871.469	53.2569
873.151	52.0403
874.831	51.1308
876.512	50.6178
878.193	50.4868
879.872	49.922
881.553	48.9832
883.231	48.9847
884.911	47.1127
886.591	45.4347
888.268	44.624
889.947	43.9063
891.623	43.1252
893.302	42.9246
894.978	41.7418
896.656	42.0768
898.331	41.5894
900.008	41.7279
901.683	41.0942
903.359	41.2171
905.033	40.9374
906.709	40.9383
908.383	40.7742
910.058	40.0978
911.731	39.5589
913.405	38.2535
915.078	38.4853
916.752	39.0022
918.423	38.641
920.096	38.3943
921.768	37.2979
923.438	35.8774
925.111	34.7809
926.781	35.0791
928.452	35.1251
930.122	35.1308
931.791	35.0473
933.462	35.0457
935.13	35.8171
936.799	35.6409
938.468	35.6613
940.136	36.7072
941.803	37.4402
943.472	36.9317
945.139	36.0397
946.805	35.9842
948.473	36.02
950.139	36.6264
951.804	37.7943
953.471	38.8636
955.136	39.1109
956.801	38.237
958.465	37.6789
960.131	37.2245
961.794	37.0284
963.458	36.9592
965.12	37.3025
966.785	36.6941
968.447	36.571
970.109	36.6951
971.771	38.0559
973.432	38.7325
975.095	39.1195
976.756	40.1885
978.417	39.5441
980.077	39.491
981.737	39.3301
983.396	39.491
985.057	38.4197
986.716	38.2373
988.375	37.8486
990.033	38.4164
991.691	37.2766
993.349	36.2492
995.006	36.0598
996.663	37.2811
998.32	37.582
999.976	36.1441
1001.63	35.9784
1003.29	34.9548
1004.95	34.3142
1006.6	33.4944
1008.26	33.394
1009.91	32.9017
1011.56	32.4479
1013.22	32.9594
1014.87	32.781
1016.53	32.3532
1018.18	32.071
1019.83	32.06
1021.48	31.7665
1023.14	31.7222
1024.79	30.807
1026.44	29.6147
1028.09	29.3507
1029.74	29.9895
1031.39	30.3801
1033.04	30.7542
1034.69	29.61
1036.34	27.6573
1037.99	26.5453
1039.64	25.9034
1041.29	25.0437
1042.94	25.4943
1044.58	26.0149
1046.23	26.5614
1047.88	26.3908
1049.52	25.568
1051.17	25.4102
1052.82	25.3658
1054.46	24.0154
1056.11	22.9347
1057.75	21.88
1059.4	20.0365
1061.04	18.3792
1062.69	18.8705
1064.33	17.4069
1065.98	17.3062
1067.62	15.86
1069.26	16.1696
1070.9	17.1955
1072.55	17.4025
1074.19	16.9275
1075.83	16.9573
1077.47	16.9501
1079.11	16.1499
1080.76	14.8523
1082.4	14.2758
1084.04	15.0677
1085.68	13.9217
1087.32	13.6906
1088.95	14.6637
1090.59	14.4511
1092.23	14.5023
1093.87	15.0533
1095.51	15.8698
1097.15	15.7599
1098.78	16.4763
1100.42	16.6259
1102.06	16.1607
1103.69	15.7913
1105.33	15.6353
1106.97	14.9155
1108.6	15.2677
1110.24	16.0238
1111.87	16.132
1113.51	14.8034
1115.14	13.9442
1116.77	13.158
1118.41	13.7526
1120.04	14.018
1121.67	13.587
1123.31	13.6098
1124.94	13.1168
1126.57	12.3256
1128.2	11.5715
1129.83	11.1478
1131.47	10.186
1133.1	10.2311
1134.72	9.9138
1136.36	8.93199
1137.98	9.21451
1139.62	9.13712
1141.24	8.72642
1142.87	9.77667
1144.5	9.18222
1146.13	7.79724
1147.76	8.46742
1149.38	7.31259
1151.01	7.02425
1152.64	5.92071
1154.27	4.9154
1155.89	4.51386
1157.52	3.32683
1159.14	3.23449
1160.77	2.59238
1162.39	2.88662
1164.02	2.87012
1165.64	3.05025
1167.27	2.50884
1168.89	2.97077
1170.51	2.96667
1172.14	3.06236
1173.76	3.76389
1175.38	3.47259
1177	3.00945
1178.63	1.93861
1180.25	1.41078
1181.87	0.521326
1183.49	0.393904
1185.11	0.343269
1186.73	0.090281
1188.35	0.0673895
1189.97	0.967597
1191.59	1.31271
1193.21	0.524725
1194.83	1.25309
1196.45	2.44541
1198.07	3.62215
1199.68	4.31231
1201.3	4.85469
1202.92	5.71722
1204.53	7.03298
1206.15	8.17525
1207.77	9.55119
1209.38	11.1125
1211	11.9358
1212.62	12.9208
1214.23	14.9933
1215.84	15.881
1217.46	17.0532
1219.07	19.7789
1220.69	21.1138
1222.3	22.4851
1223.91	24.7038
1225.53	24.9972
1227.14	26.8379
1228.75	28.7474
1230.36	29.4227
1231.97	30.7697
1233.59	32.8811
1235.2	35.8788
1236.81	37.4822
1238.42	38.5127
1240.03	39.9269
1241.64	39.8159
1243.25	41.1197
1244.85	41.2666
1246.46	41.8788
1248.07	42.8251
1249.68	43.9208
1251.29	45.5148
1252.9	46.1607
1254.5	45.1958
1256.11	44.9195
1257.72	44.7804
1259.32	45.6733
1260.93	45.8681
1262.54	47.4849
1264.14	48.6677
1265.75	48.8955
1267.35	50.0138
1268.96	50.4591
1270.56	51.7492
1272.16	51.9627
1273.77	52.3775
1275.37	53.9937
1276.97	54.4692
1278.57	54.5572
1280.18	53.9414
1281.78	54.8733
1283.38	55.3289
1284.98	56.5238
1286.58	57.1838
1288.18	57.4711
1289.78	56.9662
1291.38	56.557
1292.99	57.7927
1294.58	58.2421
1296.18	58.1072
1297.78	59.3654
1299.38	61.0942
1300.98	60.7832
1302.58	61.6439
1304.17	62.7957
1305.77	62.8404
1307.37	64.3208
1308.97	65.283
1310.56	65.9101
1312.16	67.1821
1313.76	67.5479
1315.35	67.1325
1316.95	66.6992
1318.54	65.814
1320.14	64.878
1321.73	63.4842
1323.32	64.0559
1324.92	63.4324
1326.51	63.4417
1328.1	63.1525
1329.7	62.8757
1331.29	61.7187
1332.88	59.5832
1334.47	59.3273
1336.07	59.611
1337.66	59.1793
1339.25	58.6369
1340.84	57.1064
1342.43	57.2157
1344.02	56.2994
1345.61	55.182
1347.2	54.2129
1348.79	52.8754
1350.37	51.4916
1351.96	50.0051
1353.55	47.997
1355.14	45.6306
1356.73	43.2146
1358.31	41.1595
1359.9	38.5972
1361.49	37.3993
1363.07	35.4852
1364.66	34.4214
1366.25	32.4744
1367.83	30.4453
1369.42	29.2048
1371	28.5611
1372.59	28.0283
1374.17	27.1025
1375.75	26.5136
1377.34	25.8374
1378.92	25.6339
1380.5	24.4825
1382.09	23.9944
1383.67	23.1031
1385.25	22.3536
1386.83	21.8796
1388.42	21.4732
1390	20.5274
1391.58	19.6968
1393.16	17.9435
1394.74	16.9706
1396.32	16.7245
1397.9	15.3832
1399.48	15.4617
1401.06	14.8271
1402.64	16.0131
1404.21	15.445
1405.79	16.0435
1407.37	17.5245
1408.95	19.0469
1410.53	20.6184
1412.1	21.9677
1413.68	23.6436
1415.26	25.8625
1416.83	27.4881
1418.41	28.9212
1419.98	30.9846
1421.56	34.1239
1423.13	36.0711
1424.71	37.1644
1426.28	39.3822
1427.86	41.2092
1429.43	43.388
1431	46.0506
1432.58	48.3789
1434.15	51.3983
1435.72	54.0939
1437.29	56.0479
1438.87	57.2261
1440.44	59.5226
1442.01	62.2448
1443.58	64.0949
1445.15	65.0197
1446.72	66.0259
1448.29	67.1737
1449.86	67.477
1451.43	67.6735
1453	68.0816
1454.57	67.6779
1456.14	66.8103
1457.71	65.9349
1459.27	63.4756
1460.84	61.715
1462.41	59.5633
1463.98	58.2796
1465.54	55.9699
1467.11	53.2006
1468.67	49.7006
1470.24	46.689
1471.81	42.7696
1473.37	39.7376
1474.94	36.8372
1476.5	33.8624
1478.07	31.4304
1479.63	28.4762
1481.19	26.3006
1482.76	23.3022
1484.32	21.4763
1485.88	19.9261
1487.45	17.4882
1489.01	14.2699
1490.57	10.8663
1492.13	9.00418
1493.69	8.07989
1495.26	5.43125
1496.82	4.4337
1498.38	3.70961
1499.94	2.93298
1501.5	1.82057
1503.06	0.603061
1504.62	1.02051
1506.17	0.172818
1507.73	0.360989
1509.29	0.30103
1510.85	-0.18018
1512.41	-0.658589
1513.97	-1.40861
1515.52	-1.73735
1517.08	-0.885415
1518.64	-0.319613
1520.19	0.110772
1521.75	0.753343
1523.31	1.85361
1524.86	2.78655
1526.42	3.95762
1527.97	4.48212
1529.52	4.65785
1531.08	5.63127
1532.63	6.40789
1534.19	6.71728
1535.74	7.5211
1537.29	8.91353
1538.85	10.4992
1540.4	11.7406
1541.95	12.4043
1543.5	13.0927
1545.06	13.9743
1546.61	14.7204
1548.16	15.6399
1549.71	16.3389
1551.26	18.4095
1552.81	19.1687
1554.36	21.038
1555.91	22.3729
1557.46	24.1086
1559.01	24.5282
1560.56	25.7028
1562.11	26.9095
1563.65	27.9167
1565.2	29.6285
1566.75	31.2114
1568.29	33.0678
1569.84	35.0658
1571.39	36.6517
1572.94	37.4805
1574.48	39.0144
1576.03	39.7463
1577.57	41.326
1579.12	42.829
1580.66	44.4747
1582.21	45.2485
1583.75	45.9929
1585.3	47.37
1586.84	48.3892
1588.38	48.1809
1589.93	49.2841
1591.47	49.2236
1593.01	49.7251
1594.55	49.9169
1596.1	49.464
1597.64	50.3991
1599.18	50.3005
1600.72	49.2866
1602.26	48.5744
1603.8	48.4364
1605.34	48.9535
1606.88	49.6096
1608.42	50.6039
1609.96	50.6432
1611.5	51.1823
1613.04	51.5688
1614.58	51.209
1616.12	50.6612
1617.65	50.5903
1619.19	50.3494
1620.73	50.9586
1622.27	51.2516
1623.8	51.2876
1625.34	52.2458
1626.87	54.2749
1628.41	55.7513
1629.95	56.8531
1631.48	58.9295
1633.02	59.2785
1634.55	60.5757
1636.09	60.6794
1637.62	63.4714
1639.15	65.5135
1640.69	67.0443
1642.22	68.7706
1643.76	70.3837
1645.29	70.8871
1646.82	71.3274
1648.35	72.2109
1649.88	74.2432
1651.42	75.5473
1652.95	76.4009
1654.48	77.5309
1656.01	77.3555
1657.54	76.7912
1659.07	76.1239
1660.6	76.0081
1662.13	75.6044
1663.66	74.1107
1665.19	72.6766
1666.72	72.0493
1668.24	70.2571
1669.77	68.7448
1671.3	66.7069
1672.83	64.5473
1674.35	62.7853
1675.88	59.1929
1677.41	58.1322
1678.93	56.6844
1680.46	54.6135
1681.99	52.4464
1683.51	50.2479
1685.04	47.0763
1686.56	43.7778
1688.09	41.317
1689.61	38.083
1691.13	35.0482
1692.66	33.0931
1694.18	30.7659
1695.71	27.976
1697.23	25.6584
1698.75	23.6204
1700.27	21.0726
1701.8	19.2415
1703.32	17.4197
1704.84	15.0931
1706.36	13.5046
1707.88	11.955
1709.4	10.5128
1710.92	9.70165
1712.44	8.37126
1713.96	8.08556
1715.48	7.14431
1717	6.02741
1718.52	5.54121
1720.04	5.93613
1721.56	4.67071
1723.07	4.62628
1724.59	5.0396
1726.11	5.39952
1727.63	4.21632
1729.14	4.10044
1730.66	4.15671
1732.18	3.13222
1733.69	2.8399
1735.21	3.11519
1736.72	3.01131
1738.24	3.13366
1739.75	2.76187
1741.27	2.9591
1742.78	2.6777
1744.3	2.48479
1745.81	1.79935
1747.32	1.65628
1748.84	1.83825
1750.35	1.95624
1751.86	2.08773
1753.37	2.78053
1754.89	2.2715
1756.4	1.86478
1757.91	2.55073
1759.42	2.68355
1760.93	1.55852
1762.44	1.89112
1763.95	1.88415
1765.46	1.63202
1766.97	1.0931
1768.48	0.73737
1769.99	-0.104568
1771.5	-0.654009
1773.01	-0.600655
1774.52	-0.715593
1776.03	-1.25665
1777.53	-0.704112
1779.04	-0.537639
1780.55	-0.107328
1782.06	0.178514
1783.56	0.811662
1785.07	0.862692
1786.57	1.23987
1788.08	1.79871
1789.59	2.29454
1791.09	2.87427
1792.6	2.88063
1794.1	3.15829
1795.6	3.34232
1797.11	2.83898
1798.61	2.96431
1800.12	2.82344
1801.62	2.97034
1803.12	2.80389
1804.63	2.67339
1806.13	2.39992
1807.63	2.05917
1809.13	2.4169
1810.63	3.34159
1812.14	3.97819
1813.64	4.42543
1815.14	4.69764
1816.64	4.35181
1818.14	4.73635
1819.64	5.18055
1821.14	5.41329
1822.64	5.83989
1824.14	6.02139
1825.63	6.06159
1827.13	6.08741
1828.63	6.28924
1830.13	6.75185
1831.63	7.32168
1833.12	8.21214
1834.62	7.99944
1836.12	7.88098
1837.62	7.99563
1839.11	8.45808
1840.61	8.17952
1842.1	7.78374
1843.6	7.65023
1845.09	7.11512
1846.59	6.87224
1848.08	6.75247
1849.58	6.72222
1851.07	7.03539
1852.57	7.24939
1854.06	6.96021
1855.55	6.84306
1857.04	7.38624
1858.54	7.8645
1860.03	7.53442
1861.52	7.77754
1863.01	7.54024
1864.5	7.37627
1866	7.48581
1867.49	7.66559
1868.98	7.70884
1870.47	7.93945
1871.96	8.73207
1873.45	8.93973
1874.94	9.60635
1876.43	9.66706
1877.92	10.1357
1879.41	10.6466
1880.89	11.4611
1882.38	11.1643
1882.48	12.1351
1883.97	12.8246
1885.47	12.6883
1886.96	12.7866
1888.46	12.4954
1889.95	12.1039
1891.44	12.6642
1892.94	12.6434
1894.43	12.5716
1895.92	12.7623
1897.41	12.8675
1898.9	12.3906
1900.4	12.3584
1901.89	12.7967
1903.38	12.2487
1904.87	12.4105
1906.36	12.7117
1907.85	13.0495
1909.34	13.25
1910.83	13.074
1912.32	13.3052
1913.81	12.4318
1915.29	11.7903
1916.78	11.371
1918.27	11.397
1919.76	11.6927
1921.25	11.7814
1922.74	12.3305
1924.22	12.16
1925.71	12.1356
1927.2	11.8497
1928.68	12.0089
1930.17	12.4237
1931.65	12.1604
1933.14	12.1859
1934.63	12.8288
1936.11	12.6392
1937.59	13.1514
1939.08	13.445
1940.56	13.3311
1942.05	13.1072
1943.53	13.3252
1945.01	13.8995
1946.5	13.7367
1947.98	14.3535
1949.46	13.9378
1950.94	14.333
1952.43	14.4622
1953.91	14.2904
1955.39	13.9499
1956.87	14.5097
1958.35	13.3558
1959.83	12.8713
1961.31	13.0522
1962.79	12.3003
1964.27	12.4307
1965.75	12.9846
1967.23	13.1898
1968.71	13.3436
1970.19	13.0859
1971.67	13.0278
1973.14	12.7703
1974.62	12.9618
1976.1	12.8678
1977.58	13.3454
1979.05	14.3041
1980.53	14.8545
1982.01	15.1624
1983.48	14.6029
1984.96	13.8125
1986.43	14.5594
1987.91	14.2274
1989.38	13.8859
1990.86	14.7534
1992.33	15.4026
1993.81	15.8809
1995.28	15.8442
1996.76	16.2389
1998.23	15.9402
1999.7	15.8928
2001.18	15.8417
2002.65	16.1716
2004.12	16.5993
2005.59	16.4464
2007.06	16.2639
2008.54	16.1178
2010.01	15.6715
2011.48	15.6984
2012.95	15.4621
2014.42	14.9601
2015.89	15.081
2017.36	15.5372
2018.83	15.4097
2020.3	15.3878
2021.77	15.6043
2023.24	15.9445
2024.71	16.8123
2026.17	16.9992
2027.64	17.4658
2029.11	18.0636
2030.58	18.3721
2032.04	18.4323
2033.51	19.512
2034.98	20.7105
2036.45	21.0457
2037.91	21.3481
2039.38	21.9867
2040.84	22.6493
2042.31	23.1054
2043.77	23.7061
2045.24	23.9491
2046.7	23.9937
2048.17	24.979
2049.63	25.9927
2051.1	26.6473
2052.56	26.815
2054.02	26.5596
2055.48	27.0339
2056.95	26.6468
2058.41	27.2586
2059.87	28.2826
2061.33	27.6391
2062.8	28.3889
2064.26	28.8479
2065.72	29.0514
2067.18	29.1161
2068.64	29.2349
2070.1	29.2482
2071.56	29.2217
2073.02	29.1482
2074.48	30.0039
2075.94	29.8062
2077.4	29.4049
2078.86	29.026
2080.31	29.3235
2081.77	29.571
2083.23	29.7162
2084.69	29.5259
2086.14	29.6179
2087.6	30.0734
2089.06	30.7066
2090.52	31.442
2091.97	32.0583
2093.43	32.6933
2094.88	33.4004
2096.34	34.1987
2097.79	35.1643
2099.25	35.7403
2100.7	37.0663
2102.16	37.726
2103.61	37.9299
2105.07	38.7369
2106.52	40.5239
2107.97	41.3479
2109.43	41.5466
2110.88	42.4531
2112.33	44.1596
2113.78	45.3999
2115.24	46.3865
2116.69	48.2156
2118.14	48.9677
2119.59	50.8403
2121.04	52.2311
2122.49	53.8387
2123.94	55.1203
2125.39	56.1453
2126.84	57.7211
2128.29	58.7143
2129.74	60.1074
2131.19	62.0153
2132.64	63.742
2134.09	64.8128
2135.54	66.4375
2136.98	67.6539
2138.43	69.6902
2139.88	71.5592
2141.33	73.5259
2142.77	74.9849
2144.22	76.3686
2145.67	78.119
2147.11	79.8334
2148.56	80.1751
2150.01	82.075
2151.45	84.032
2152.9	85.4656
2154.34	86.5297
2155.79	87.4173
2157.23	88.0765
2158.67	89.2886
2160.12	90.0225
2161.56	90.2663
2163	90.5663
2164.45	90.7339
2165.89	91.0942
2167.33	91.6274
2168.78	92.4984
2170.22	93.3124
2171.66	93.0491
2173.1	93.0125
2174.54	92.6058
2175.98	92.3375
2177.42	92.3025
2178.86	92.5698
2180.3	91.2512
2181.74	90.5436
2183.18	90.0154
2184.62	89.6695
2186.06	89.8087
2187.5	89.4516
2188.94	89.4432
2190.38	89.2175
2191.82	88.9142
2193.25	88.2404
2194.69	87.7984
2196.13	85.8055
2197.57	84.8087
2199	83.5657
2200.44	81.9548
2201.88	81.6694
2203.31	80.0036
2204.75	78.9091
2206.18	77.0851
2207.62	76.1259
2209.05	74.8981
2210.49	73.3665
2211.92	71.7831
2213.36	69.6599
2214.79	67.8565
2216.22	66.2788
2217.66	64.857
2219.09	62.8134
2220.52	60.8299
2221.96	59.6635
2223.39	57.9055
2224.82	55.7638
2226.25	53.5316
2227.68	52.2647
2229.11	50.0429
2230.55	47.7967
2231.98	45.9815
2233.41	44.7904
2234.84	43.1346
2236.27	42.3007
2237.7	41.2487
2239.12	40.3979
2240.55	39.5938
2241.98	37.7842
2243.41	35.986
2244.84	35.036
2246.27	33.9312
2247.7	33.1376
2249.12	32.4853
2250.55	31.6537
2251.98	31.1362
2253.41	31.1316
2254.83	31.342
2256.26	31.2258
2257.68	31.3414
2259.11	31.3281
2260.54	31.34
2261.96	31.1068
2263.39	30.1695
2264.81	29.4787
2266.24	28.9395
2267.66	28.4086
2269.08	28.5261
2270.51	27.2468
2271.93	27.1865
2273.35	26.7972
2274.78	25.8676
2276.2	25.9553
2277.62	25.2188
2279.04	24.535
2280.47	23.8643
2281.89	23.3352
2283.31	22.7911
2284.73	22.0433
2286.15	22.0908
2287.57	21.7558
2288.99	20.5139
2290.41	20.2593
2291.83	19.5054
2293.25	18.664
2294.67	18.5774
2296.09	17.97
2297.51	18.2356
2298.93	18.2081
2300.35	16.9179
2301.76	17.202
2303.18	17.9521
2304.6	18.0387
2306.02	18.12
2307.44	17.9995
2308.85	18.2536
2310.27	18.5105
2311.69	17.8754
2313.1	17.7797
2314.52	17.9353
2315.93	18.59
2317.35	19.2378
2318.76	19.5416
2320.18	19.655
2321.59	19.7986
2323.01	20.3959
2324.42	20.3484
2325.83	20.3141
2327.25	20.0782
2328.66	20.6033
2330.07	20.3245
2331.49	19.7045
2332.9	19.6237
2334.31	19.389
2335.72	19.0505
2337.13	18.0173
2338.55	17.2347
2339.96	16.6547
2341.37	15.0973
2342.78	14.5431
2344.19	13.466
2345.6	12.4612
2347.01	12.0805
2348.42	10.7864
2349.83	10.0532
2351.24	9.312
2352.65	8.33038
2354.05	8.0463
2355.46	7.73343
2356.87	7.41127
2358.28	7.38858
2359.69	6.61803
2361.09	7.0683
2362.5	6.39493
2363.91	6.18231
2365.31	7.33812
2366.72	7.02516
2368.13	7.29103
2369.53	6.72064
2370.94	7.0526
2372.34	7.46839
2373.75	7.82228
2375.15	7.48821
2376.56	7.89292
2377.96	8.04027
2379.37	9.0203
2380.77	8.71676
2382.17	9.21365
2383.58	10.0683
2384.98	10.271
2386.38	10.9427
2387.79	10.981
2389.19	11.4333
2390.59	11.7723
2391.99	11.983
2393.39	12.398
2394.8	13.2109
2396.2	13.534
2397.6	13.2569
2399	12.9258
2400.4	12.869
2401.8	12.7461
2403.2	12.2333
2404.6	11.7562
2406	11.1905
2407.4	10.0766
2408.79	10.3679
2410.19	9.89458
2411.59	9.10242
2412.99	9.34706
2414.39	9.51816
2415.78	9.68215
2417.18	9.90507
2418.58	10.0634
2419.98	10.118
2421.37	10.2523
2422.77	10.5518
2424.16	10.8573
2425.56	10.7952
2426.96	10.5963
2428.35	10.9798
2429.74	10.6343
2431.14	10.9614
2432.53	10.4158
2433.93	10.1685
2435.32	10.1619
2436.72	9.73482
2438.11	9.50982
2439.5	9.43303
2440.9	9.58079
2442.29	9.17198
2443.68	9.43047
2445.07	8.73491
2446.47	8.74073
2447.86	8.60413
2449.25	8.77928
2450.64	8.46588
2452.03	8.46936
2453.42	8.55657
2454.81	8.15855
2456.2	8.37631
2457.59	8.54192
2458.98	8.50967
2460.37	8.00437
2461.76	7.74441
2463.15	7.94701
2464.54	7.87099
2465.93	7.21119
2467.32	6.26253
2468.7	6.14739
2470.09	6.3388
2471.48	5.9512
2472.87	5.59384
2474.25	5.49325
2475.64	5.68824
2477.03	5.28542
2478.41	5.63853
2479.8	5.41486
2481.18	5.87008
2482.57	6.41756
2483.95	6.86847
2485.34	6.94259
2486.72	6.93205
2488.11	6.89473
2489.49	6.69649
2490.88	6.64171
2492.26	6.25339
2493.65	5.72788
2495.03	5.6329
2496.41	5.38993
2497.79	5.58879
2499.18	4.87433
2500.56	4.3696
2501.94	3.9241
2503.32	3.83325
2504.7	3.64236
2506.09	3.73358
2507.47	3.4029
2508.85	3.6726
2510.23	3.66211
2511.61	3.72124
2512.99	3.73002
2514.37	3.43599
2515.75	3.40523
2517.13	3.90057
2518.51	3.97238
2519.89	3.58599
2521.26	3.87486
2522.64	4.56906
2524.02	4.44464
2525.4	4.5133
2526.78	4.18129
2528.15	3.84833
2529.53	3.82809
2530.91	3.33765
2532.28	2.96188
2533.66	2.3412
2535.04	2.05021
2536.41	1.89457
2537.79	2.27114
2539.16	2.28868
2540.54	1.85543
2541.91	1.69295
2543.29	1.35393
2544.66	2.14154
2546.04	2.20507
2547.41	2.85369
2548.78	3.09352
2550.16	2.77142
2551.53	2.68461
2552.9	2.8321
2554.27	2.61643
2555.65	2.67288
2557.02	2.36095
2558.39	2.24605
2559.76	2.09129
2561.13	2.0533
2562.51	2.12661
2563.88	2.60118
2565.25	2.75349
2566.62	2.43644
2567.99	2.3255
2569.36	2.48177
2570.73	2.74016
2572.1	2.51634
2573.47	2.7535
2574.84	3.48056
2576.2	4.28489
2577.57	4.6973
2578.94	5.7791
2580.31	5.73564
2581.68	5.79532
2583.05	6.25135
2584.41	6.1819
2585.78	6.39238
2587.15	6.48892
2588.51	6.66068
2589.88	7.59336
2591.24	7.936
2592.61	8.29661
2593.98	8.17787
2595.34	7.65498
2596.71	7.64909
2598.07	6.74953
2599.44	6.16553
2600.8	5.69301
2602.16	5.73441
2603.53	5.36485
2604.89	5.31924
2606.26	5.06903
2607.62	4.42024
2608.98	4.53125
2610.34	4.57237
2611.71	4.02601
2613.07	4.31205
2614.43	3.46206
2615.79	2.64615
2617.15	2.48446
2618.52	2.48832
2619.88	3.32185
2621.24	3.51842
2622.6	3.13759
2623.96	3.00661
2625.32	2.89803
2626.68	2.55321
2628.04	2.03516
2629.4	1.41461
2630.75	1.11753
2632.11	0.713681
2633.47	0.0236073
2634.83	-0.119697
2636.19	-0.0135496
2637.55	-0.480636
2638.9	-0.546076
2640.26	-0.496731
2641.62	-0.00926987
2642.98	0.662988
2644.33	0.744615
2645.69	0.272264
2647.04	0.402148
2648.4	0.418797
2649.76	0.669393
2651.11	1.26169
2652.47	1.65335
2653.82	2.69629
2655.18	3.92874
2656.53	4.78985
2657.88	5.32598
2659.24	5.59224
2660.59	5.89977
2661.95	5.49927
2663.3	5.46606
2664.65	5.80074
2666	5.411
2667.36	5.74328
2668.71	5.99751
2670.06	6.75988
2671.41	6.59075
2672.76	7.36436
2674.12	7.34272
2675.47	7.46559
2676.82	7.31269
2678.17	6.59932
2679.52	6.46927
2680.87	6.75753
2682.22	6.54657
2683.57	7.22126
2684.92	7.81796
2686.27	7.87041
2687.62	7.89378
2688.97	6.89281
2690.31	6.21982
2691.66	6.14896
2693.01	5.51334
2694.36	4.90655
2695.71	4.94264
2697.05	4.64227
2698.4	4.56171
2699.75	3.97282
2701.09	3.76031
2702.44	4.17075
2703.78	4.22566
2705.13	4.21877
2706.48	4.32006
2707.82	4.26814
2709.17	4.46915
2710.51	5.15348
2711.86	4.67954
2713.2	5.31355
2714.54	6.40898
2715.89	7.21051
2717.23	7.18189
2718.57	8.30443
2719.92	8.74946
2721.26	9.61323
2722.6	9.88992
2723.95	10.2025
2725.29	10.0916
2726.63	10.5545
2727.97	10.3335
2729.31	10.3283
2730.65	10.9317
2732	10.4104
2733.34	10.4039
2734.68	10.1136
2736.02	10.4032
2737.36	9.89928
2738.7	9.00032
2740.04	8.79527
2741.38	8.35454
2742.72	7.94995
2744.05	7.66204
2745.39	7.95061
2746.73	8.50009
2748.07	7.94732
2749.41	7.67638
2750.75	7.8605
2752.08	7.18927
2753.42	7.12757
2754.76	6.90037
2756.09	6.30981
2757.43	6.39618
2758.77	6.11809
2760.1	5.77165
2761.44	5.59909
2762.78	5.47891
2764.11	5.49903
2765.44	5.54963
2766.78	5.41214
2768.11	5.69905
2769.45	5.54224
2770.78	5.75201
2772.12	5.46269
2773.45	5.18724
2774.78	5.53755
2776.12	6.23347
2777.45	6.17186
2778.78	6.12355
2780.12	6.61609
2781.45	6.79825
2782.78	7.00545
2784.11	7.15935
2785.44	7.68712
2786.78	7.38736
2788.11	7.64072
2789.44	7.65436
2790.77	7.54001
2792.1	7.66088
2793.43	7.77936
2794.76	7.89654
2796.09	8.26712
2797.42	8.39136
2798.75	7.92592
2800.08	7.9096
2801.4	7.66895
2802.73	7.22187
2804.06	6.73334
2805.39	7.00759
2806.72	6.87237
2808.05	6.75653
2809.37	6.02701
2810.7	6.05053
2812.03	5.51115
2813.35	5.3877
2814.68	5.01923
2816.01	5.48804
2817.33	5.68324
2818.66	6.19029
2819.98	7.4032
2821.31	8.27782
2822.63	9.18779
2823.96	10.7995
2825.28	12.3332
2826.61	14.6173
2827.93	17.0927
2829.25	19.3459
2830.58	21.4469
2831.9	23.4031
2833.23	25.4434
2834.55	27.6607
2835.87	29.9579
2837.19	33.3896
2838.52	35.9806
2839.84	39.303
2841.16	42.6147
2842.48	46.6885
2843.8	50.3776
2845.12	54.5913
2846.44	58.9032
2847.77	63.5515
2849.08	68.6228
2850.4	73.1715
2851.73	78.5768
2853.05	83.9989
2854.36	88.8854
2855.68	94.8779
2857	99.9361
2858.32	104.682
2859.64	109.055
2860.96	114.15
2862.28	118.466
2863.59	122.823
2864.91	126.867
2866.23	130.063
2867.55	133.29
2868.86	136.047
2870.18	139.866
2871.5	142.61
2872.81	145.175
2874.13	147.027
2875.44	149.67
2876.76	152.154
2878.07	154.281
2879.39	156.848
2880.7	158.378
2882.02	160.166
2883.33	162.549
2884.65	165.007
2885.96	167.262
2887.28	168.981
2888.59	171.059
2889.9	173.411
2891.21	175.074
2892.53	177.334
2893.84	179.132
2895.15	180.749
2896.46	182.995
2897.78	185.743
2899.09	188.828
2900.4	191.723
2901.71	195.416
2903.02	199.294
2904.33	203.683
2905.64	208.997
2906.95	214.204
2908.26	220.697
2909.57	226.44
2910.88	232.867
2912.19	239.24
2913.5	245.842
2914.81	252.01
2916.12	257.738
2917.43	263.719
2918.73	269.376
2920.04	274.557
2921.35	279.668
2922.66	283.141
2923.96	286.962
2925.27	290.814
2926.58	294.036
2927.88	296.522
2929.19	298.26
2930.5	299.514
2931.8	299.712
2933.11	299.995
2934.41	299.52
2935.72	299.424
2937.02	297.561
2938.33	295.511
2939.63	293.068
2940.94	290.547
2942.24	286.607
2943.54	282.652
2944.85	278.655
2946.15	273.766
2947.45	269.721
2948.76	264.927
2950.06	259.608
2951.36	254.322
2952.66	248.723
2953.97	243.333
2955.27	238.086
2956.57	232.907
2957.87	227.652
2959.17	222.04
2960.47	216.389
2961.77	210.913
2963.07	205.725
2964.37	200.567
2965.67	195.253
2966.97	190.691
2968.27	186.489
2969.57	182.577
2970.87	178.243
2972.17	174.46
2973.47	170.496
2974.77	165.84
2976.07	161.929
2977.36	157.223
2978.66	152.766
2979.96	147.887
2981.26	143.358
2982.55	138.362
2983.85	133.376
2985.15	128.025
2986.44	122.915
2987.74	118.753
2989.03	113.964
2990.33	109.245
2991.63	104.266
2992.92	99.6631
2994.21	94.2632
2995.51	89.6914
2996.8	85.0983
2998.1	80.5022
2999.39	76.731
3000.69	73.2738
3001.98	68.6156
3003.27	65.016
3004.57	60.943
3005.86	56.5009
3007.15	52.91
3008.44	49.9872
3009.74	47.6665
3011.03	44.9435
3012.32	42.8222
3013.61	40.1764
3014.9	38.4332
3016.19	36.5152
3017.48	34.8878
3018.78	33.218
3020.07	31.9977
3021.36	30.184
3022.65	28.9088
3023.94	27.2091
3025.23	26.1114
3026.51	25.9172
3027.8	25.1529
3029.09	24.8975
3030.38	24.7345
3031.67	24.27
3032.96	24.3398
3034.24	24.6177
3035.53	25.0889
3036.82	25.7941
3038.11	26.1194
3039.39	26.3748
3040.68	26.9839
3041.97	27.2948
3043.25	27.652
3044.54	28.2573
3045.83	29.1068
3047.11	29.6734
3048.4	30.1656
3049.68	30.9259
3050.97	31.6604
3052.25	32.1066
3053.54	31.9266
3054.82	32.4046
3056.11	32.6824
3057.39	32.8471
3058.67	32.2522
3059.96	32.5584
3061.24	32.0323
3062.52	31.5615
3063.81	31.2763
3065.09	29.9844
3066.37	28.5861
3067.65	27.5236
3068.94	25.5428
3070.22	24.7119
3071.5	23.9172
3072.78	23.0283
3074.06	22.2005
3075.34	20.7102
3076.62	19.302
3077.9	17.6814
3079.18	16.3122
3080.46	14.6445
3081.74	13.1616
3083.02	11.744
3084.3	10.2279
3085.58	8.78302
3086.86	7.68971
3088.14	5.97879
3089.42	4.83468
3090.69	3.82028
3091.97	2.97535
3093.25	2.38516
3094.53	1.5999
3095.8	1.0695
3097.08	0.980118
3098.36	0.87209
3099.63	0.146243
3100.91	0.140686
3102.19	0.0988768
3103.46	-0.526239
3104.74	-0.280439
3106.01	0.293403
3107.29	0.280577
3108.56	0.32206
3109.84	0.370135
3111.11	0.518727
3112.39	0.747235
3113.66	0.959526
3114.94	1.22921
3116.21	1.55033
3117.48	1.59703
3118.76	1.72963
3120.03	1.85982
3121.3	1.4642
3122.57	1.16468
3123.85	1.39922
3125.12	0.842132
3126.39	1.10296
3127.66	0.58207
3128.93	0.38342
3130.21	0.227731
3131.48	0.187968
3132.75	0.110046
3134.02	0.88463
3135.29	0.723904
3136.56	0.743393
3137.83	0.682512
3139.1	0.21625
3140.37	-0.0747916
3141.64	-0.463786
3142.91	-0.713173
3144.17	-0.969428
3145.44	-1.20682
3146.71	-1.56319
3147.98	-1.39018
3149.25	-1.58713
