#Acq. time (s)=	45
#Accumulations=	2
#Range (cm-¹)=	200...3150
#Windows=	2
#Auto scanning=	Off
#Autofocus=	Off
#Macrospot=	Off
#AutoExposure=	Off
#Spike filter=	Multiple accum.
#Delay time (s)=	0
#Binning=	1
#Readout mode=	Signal
#DeNoise=	Off
#ICS correction=	On
#Dark correction=	Off
#Inst. Process=	Off
#Detector Gain=	Best Dynamic Range
#Detector ADC=	20 kHz       
#Detector temperature (°C)=	-69.85
#Instrument=	LabRAM HR Evol
#Detector=	Synapse
#Objective=	x100
#Grating=	600 gr/mm
#ND Filter=	100%
#Laser (nm)=	532 
#Hole=	100.021
#Range=	Auto
#Laser Pol.=	No
#Raman. Pol.=	No
#Laser Pol. (°)=	-0.0007625
#Raman Pol. (°)=	89.9995
#Collection=	Microscope
#StageXY=	Marzhauser
#StageZ=	Marzhauser
#X (µm)=	-5086.5
#Y (µm)=	1500.5
#Z (µm)=	62.65
#Full time(mm:ss)=	3:18
#Project=	
#Sample=	
#Site=	
#Title=	Thy_50_12_04_2x_45s_532 nm_x100_100%_600 gr_mm
#Remark=	
#Date=	07.07.2022 09:26
#Acquired=	07.07.2022 09:26:26
#Base:Fit=	10.08.2022 10:03:08
#Base:Fit=	10.08.2022 10:03:15
#Base:Fit=	10.08.2022 10:03:19
#Base:Fit=	10.08.2022 10:04:29
#Base:Sub=	10.08.2022 10:04:45
#Filter:Polynom=	16.08.2022 10:20:24
#AxisType[0]=Intens
#AxisUnit[0]=Cnt
#AxisType[1]=Spectr
#AxisUnit[1]=1/cm
200.43	52.415
202.246	49.9466
204.061	46.5129
205.875	44.5761
207.688	42.3139
209.501	39.8209
211.316	37.1137
213.129	34.2924
214.941	30.9408
216.753	29.1521
218.566	25.8224
220.377	23.6468
222.188	21.5922
223.999	18.7008
225.809	18.0242
227.618	17.0008
229.43	15.1779
231.239	14.002
233.047	12.8537
234.855	12.1643
236.663	10.1389
238.471	9.15008
240.278	7.57814
242.087	6.60627
243.894	6.45293
245.7	5.90637
247.506	5.27559
249.311	4.52187
251.116	3.61807
252.921	3.18887
254.725	3.76114
256.529	4.10328
258.333	3.58643
260.136	3.04562
261.939	2.8289
263.744	3.1671
265.546	2.89904
267.348	1.92821
269.15	2.17608
270.951	2.22714
272.752	1.99944
274.552	1.96646
276.353	2.35092
278.152	3.61053
279.952	4.71031
281.751	5.62632
283.55	4.80476
285.348	4.91843
287.146	4.61259
288.942	4.24224
290.739	5.27498
292.536	5.08038
294.333	5.61506
296.129	4.46201
297.925	4.2479
299.721	3.33679
301.516	2.14447
303.311	2.46792
305.106	3.03452
306.9	3.6362
308.694	3.70676
310.486	4.94208
312.279	5.29074
314.072	5.26781
315.864	6.04903
317.656	5.40473
319.448	5.95153
321.24	5.78644
323.029	6.36648
324.819	5.73503
326.61	6.08316
328.4	6.71144
330.19	7.12053
331.977	8.02911
333.766	8.38762
335.555	8.77176
337.343	8.62985
339.131	9.10364
340.917	9.4361
342.704	9.39968
344.491	9.0497
346.277	8.82649
348.062	8.45033
349.848	8.22969
351.633	8.83499
353.416	7.90684
355.201	8.02664
356.986	7.99592
358.77	8.8546
360.552	9.17001
362.335	8.48629
364.118	8.83924
365.899	7.86792
367.682	7.5986
369.464	7.67092
371.243	7.27987
373.025	6.54451
374.806	7.24942
376.585	7.81403
378.365	8.7968
380.143	8.66071
381.923	7.31964
383.702	7.78351
385.479	6.92593
387.258	6.68213
389.034	6.80306
390.812	7.27602
392.59	8.40107
394.365	7.74484
396.142	7.81721
397.916	7.36284
399.693	6.27558
401.467	5.61609
403.242	6.19313
405.015	5.80581
406.79	6.11203
408.565	7.00544
410.337	5.76206
412.111	5.75152
413.882	5.0863
415.656	6.21347
417.426	5.75209
419.197	5.35369
420.969	5.15313
422.739	4.71256
424.51	4.81985
426.279	3.8277
428.05	3.42068
429.819	1.81656
431.589	0.746166
433.356	-0.506208
435.124	0.0853165
436.893	0.242909
438.66	0.551121
440.428	0.0307773
442.194	-0.159993
443.96	1.227
445.727	1.15432
447.492	0.666341
449.259	-0.307544
451.023	0.340228
452.787	1.44591
454.553	0.962959
456.316	2.50176
458.079	3.21359
459.844	3.62574
461.606	4.23923
463.368	5.60867
465.132	5.72558
466.893	5.73668
468.654	6.35867
470.415	7.28125
472.177	8.85661
473.937	8.65033
475.696	9.01353
477.456	10.1009
479.217	10.4056
480.975	11.1047
482.733	11.4854
484.491	12.8862
486.251	13.6001
488.008	15.1899
489.765	16.8059
491.522	18.459
493.278	18.0776
495.036	18.8408
496.791	19.782
498.546	20.4101
500.301	21.1625
502.056	21.9487
503.81	22.7463
505.566	22.8124
507.319	22.7127
509.073	23.6432
510.825	23.9048
512.578	24.0668
514.33	23.2018
516.082	22.4695
517.833	23.237
519.587	23.6328
521.337	24.6283
523.088	26.089
524.838	26.4775
526.588	26.7193
528.337	26.2529
530.087	26.8226
531.835	27.1257
533.584	26.2453
535.332	26.6462
537.08	26.7049
538.827	26.4431
540.574	24.5694
542.321	23.0292
544.068	22.9099
545.814	21.5627
547.56	20.9967
549.305	19.7875
551.05	19.4151
552.795	17.7578
554.54	16.3804
556.284	16.1379
558.027	15.2819
559.771	14.7185
561.514	13.154
563.257	12.8613
564.999	12.9204
566.742	12.5763
568.481	12.8673
570.223	11.2266
571.964	11.2639
573.705	11.5632
575.445	11.7641
577.185	11.5102
578.925	11.3242
580.665	10.9733
582.402	10.9357
584.141	11.6378
585.879	10.7731
587.617	9.85681
589.355	9.67156
591.092	9.99224
592.828	9.15944
594.564	9.59568
596.301	9.72834
598.037	9.31988
599.773	8.67873
601.506	8.60008
603.242	9.59594
604.976	11.0157
606.711	11.3389
608.443	11.4908
610.177	11.0873
611.91	11.8552
613.644	11.3049
615.374	11.0601
617.107	11.5109
618.839	11.2798
620.569	10.844
622.3	10.7173
624.032	10.065
625.761	10.1491
627.491	10.2891
629.221	10.4252
630.949	10.6958
632.679	10.768
634.408	11.532
636.135	11.7268
637.863	12.2035
639.592	12.373
641.318	13.2713
643.045	14.509
644.77	15.4987
646.497	16.4984
648.224	17.3023
649.948	18.6806
651.674	19.6798
653.398	20.4386
655.123	22.0704
656.846	22.4065
658.57	24.9501
660.293	27.3308
662.017	28.2706
663.738	27.8799
665.462	28.3475
667.185	29.3328
668.905	29.7342
670.628	31.7027
672.348	32.267
674.067	33.5739
675.789	34.3078
677.508	34.9483
679.228	35.2625
680.947	36.5167
682.667	37.1142
684.385	37.4478
686.104	38.3592
687.821	39.5484
689.538	39.7576
691.256	40.106
692.972	41.0126
694.69	41.6525
696.406	42.77
698.121	42.5693
699.837	41.9744
701.552	42.2889
703.268	42.1543
704.982	42.3595
706.695	42.938
708.41	43.9012
710.123	43.6702
711.836	43.9964
713.55	43.8854
715.262	43.9334
716.973	44.045
718.685	44.5791
720.398	44.9248
722.108	44.3219
723.818	45.1075
725.53	46.9032
727.24	46.8778
728.949	47.6891
730.658	48.6038
732.369	48.8666
734.077	49.3828
735.785	51.3291
737.493	52.4132
739.2	54.0947
740.909	55.2088
742.616	55.8693
744.322	56.5864
746.028	57.8608
747.734	57.797
749.441	59.3191
751.146	62.6718
752.851	65.0452
754.555	66.9219
756.26	69.2339
757.963	69.5987
759.667	70.4381
761.372	72.835
763.075	74.8999
764.777	77.3525
766.479	78.9201
768.181	80.7045
769.883	81.4612
771.584	83.1696
773.285	85.3158
774.986	86.1729
776.686	87.6316
778.386	88.1901
780.085	88.6934
781.785	88.8019
783.484	89.297
785.182	89.5427
786.881	90.8747
788.579	91.0429
790.276	92.187
791.974	93.2845
793.671	93.2353
795.367	93.6215
797.064	94.5288
798.76	94.1152
800.456	94.1341
802.151	94.0645
803.846	94.6644
805.541	94.7906
807.236	94.4581
808.93	94.4791
810.624	94.2932
812.317	92.2927
814.01	92.017
815.703	91.7419
817.394	92.1027
819.086	92.9673
820.778	93.9682
822.47	92.1629
824.161	92.3439
825.852	91.0566
827.543	91.916
829.231	91.5151
830.921	91.5538
832.611	90.9376
834.3	91.4796
835.989	90.2886
837.676	89.3232
839.364	88.8292
841.053	87.8541
842.74	87.0349
844.426	87.3423
846.113	87.233
847.8	85.9335
849.486	84.0668
851.171	82.5718
852.857	81.3689
854.542	80.1545
856.227	79.8315
857.911	79.2665
859.595	77.0884
861.279	76.4747
862.961	75.6556
864.645	75.2851
866.329	74.7502
868.01	74.0264
869.692	73.3373
871.375	73.2165
873.055	72.0559
874.737	71.7399
876.418	70.839
878.097	70.1929
879.778	70.3843
881.457	68.9049
883.137	68.5487
884.817	68.4936
886.495	67.573
888.174	66.7583
889.851	65.6009
891.53	64.7124
893.206	63.4814
894.884	63.7785
896.562	62.9871
898.237	63.4432
899.914	63.5396
901.589	63.7299
903.265	63.9006
904.94	62.9689
906.615	62.4493
908.289	62.0456
909.964	60.2098
911.637	59.9988
913.31	58.8997
914.984	58.3084
916.656	58.4509
918.33	58.9681
920.001	58.0929
921.674	57.8648
923.345	56.0174
925.015	55.0995
926.687	55.0418
928.357	54.8387
930.028	53.6187
931.698	53.023
933.366	51.5522
935.037	51.3603
936.705	49.954
938.373	49.4242
940.043	49.0961
941.71	48.065
943.379	46.8782
945.046	46.9492
946.712	46.142
948.378	45.3147
950.046	46.1134
951.711	45.8822
953.376	45.9388
955.043	45.3242
956.708	45.423
958.372	44.581
960.036	45.1479
961.701	45.79
963.364	45.3296
965.027	45.0508
966.69	45.195
968.354	45.6452
970.016	45.4172
971.678	46.1155
973.339	46.7106
975	46.895
976.661	46.3579
978.324	46.9833
979.984	47.0006
981.644	47.4151
983.303	47.4299
984.962	48.3956
986.621	48.1878
988.282	47.7256
989.94	47.8529
991.598	46.2777
993.256	45.9285
994.913	46.345
996.57	46.9801
998.227	46.9395
999.884	46.5234
1001.54	46.336
1003.2	44.3155
1004.85	43.2709
1006.51	43.0693
1008.16	44.0331
1009.82	43.8893
1011.47	43.0008
1013.12	42.2535
1014.78	41.4169
1016.43	41.4296
1018.08	41.3075
1019.74	41.2638
1021.39	41.3131
1023.04	41.9986
1024.69	42.0858
1026.34	42.2208
1028	41.9054
1029.65	41.6554
1031.3	41.2229
1032.95	41.231
1034.6	40.8379
1036.25	40.8462
1037.9	39.839
1039.55	39.2677
1041.19	38.3797
1042.84	38.5616
1044.49	38.0665
1046.14	37.2338
1047.79	36.772
1049.43	35.9768
1051.08	36.3665
1052.73	34.8019
1054.37	34.6158
1056.02	34.462
1057.66	33.7093
1059.31	33.283
1060.95	33.8229
1062.6	33.4538
1064.24	32.9958
1065.88	31.5937
1067.53	30.4553
1069.17	29.417
1070.81	29.2559
1072.46	28.7061
1074.1	27.2653
1075.74	26.5684
1077.38	26.9589
1079.02	25.9992
1080.66	26.212
1082.3	26.1281
1083.94	26.6838
1085.58	26.0776
1087.22	27.3454
1088.86	27.7264
1090.5	25.3775
1092.14	23.4548
1093.78	22.5617
1095.42	24.6936
1097.05	27.1413
1098.69	29.3587
1100.33	31.5972
1101.97	34.1907
1103.6	34.9785
1105.24	37.3129
1106.87	37.724
1108.51	37.2745
1110.15	38.4079
1111.78	40.5667
1113.41	41.5342
1115.05	42.3302
1116.68	42.0854
1118.31	42.2429
1119.95	41.296
1121.58	40.7193
1123.21	39.2693
1124.85	38.4615
1126.48	38.2852
1128.11	36.7648
1129.74	36.3602
1131.37	36.3757
1133	35.2005
1134.63	33.9303
1136.26	34.5899
1137.89	33.7521
1139.52	32.052
1141.15	30.5513
1142.78	29.8663
1144.41	28.2021
1146.04	26.4198
1147.66	24.5728
1149.29	23.186
1150.92	23.2768
1152.55	21.4017
1154.17	20.1169
1155.8	17.8391
1157.43	16.7889
1159.05	16.2933
1160.68	14.4394
1162.3	14.5066
1163.93	12.3207
1165.55	11.385
1167.17	9.42106
1168.8	8.02167
1170.42	5.95168
1172.05	3.8691
1173.67	5.6693
1175.29	8.34661
1176.91	10.8207
1178.54	12.2335
1180.16	12.4983
1181.78	13.1498
1183.4	12.2747
1185.02	11.4777
1186.64	12.5776
1188.26	12.7245
1189.88	13.2537
1191.5	15.7146
1193.12	16.4953
1194.74	15.8598
1196.36	16.2712
1197.97	16.1523
1199.59	17.0807
1201.21	16.668
1202.83	17.7713
1204.44	18.4277
1206.06	19.1539
1207.68	20.2257
1209.29	20.8714
1210.91	22.5872
1212.52	23.2534
1214.14	23.9267
1215.75	25.8833
1217.37	27.1733
1218.98	27.7738
1220.6	29.4808
1222.21	30.8511
1223.82	31.859
1225.44	32.7176
1227.05	32.959
1228.66	34.021
1230.27	33.9909
1231.88	36.7572
1233.49	36.9685
1235.1	38.4483
1236.72	39.7178
1238.33	41.0908
1239.94	42.3215
1241.55	42.8844
1243.16	44.5679
1244.76	44.8421
1246.37	46.2571
1247.98	46.8264
1249.59	47.5061
1251.2	47.5532
1252.8	47.1777
1254.41	48.9045
1256.02	50.6005
1257.63	50.5244
1259.23	52.1673
1260.84	52.8595
1262.44	52.9708
1264.05	54.0275
1265.66	56.0445
1267.26	58.4811
1268.87	59.9531
1270.47	60.6079
1272.07	61.0385
1273.68	62.1912
1275.28	63.0342
1276.88	65.1861
1278.48	65.9284
1280.09	67.1082
1281.69	68.2636
1283.29	69.1483
1284.89	69.5746
1286.49	70.0388
1288.09	71.1206
1289.69	72.6272
1291.3	72.5389
1292.9	72.8528
1294.49	73.1288
1296.09	73.544
1297.69	73.2049
1299.29	72.9366
1300.89	72.1986
1302.49	71.3136
1304.09	70.4759
1305.68	70.4513
1307.28	68.871
1308.88	69.2565
1310.47	69.4457
1312.07	70.2639
1313.66	69.0183
1315.26	69.0991
1316.86	69.4911
1318.45	68.5969
1320.05	68.115
1321.64	68.3244
1323.23	67.7253
1324.83	66.3556
1326.42	65.8194
1328.01	64.6852
1329.61	62.7747
1331.2	62.2653
1332.79	61.3571
1334.38	61.8862
1335.98	61.2532
1337.57	60.3297
1339.16	60.0198
1340.75	59.2219
1342.34	58.5594
1343.93	58.3153
1345.52	58.0675
1347.11	57.2667
1348.7	55.4987
1350.29	54.7229
1351.87	54.4634
1353.46	55.6488
1355.05	54.646
1356.64	54.3311
1358.23	52.857
1359.81	52.3603
1361.4	51.7229
1362.99	51.525
1364.57	50.5134
1366.16	49.646
1367.74	48.9108
1369.33	47.7366
1370.91	46.5272
1372.5	47.0775
1374.08	46.0729
1375.67	44.986
1377.25	44.303
1378.83	44.2335
1380.42	44.2455
1382	44.4685
1383.58	44.7822
1385.16	44.0911
1386.75	43.1508
1388.33	43.5707
1389.91	43.385
1391.49	42.4279
1393.07	41.9277
1394.65	42.0409
1396.23	41.9208
1397.81	41.9795
1399.39	40.7822
1400.97	41.3141
1402.55	39.7282
1404.13	39.4345
1405.7	40.7604
1407.28	41.3814
1408.86	41.5747
1410.44	42.8026
1412.01	42.7781
1413.59	44.5722
1415.17	45.6037
1416.74	47.0611
1418.32	48.3223
1419.89	49.7717
1421.47	51.3474
1423.05	53.0698
1424.62	54.3379
1426.19	55.5686
1427.77	57.0349
1429.34	60.352
1430.92	62.2878
1432.49	65.049
1434.06	66.9796
1435.63	69.8322
1437.2	71.6444
1438.78	73.8137
1440.35	75.0056
1441.92	77.0556
1443.49	77.3111
1445.06	79.3172
1446.63	80.5047
1448.2	80.855
1449.77	82.0435
1451.34	82.524
1452.91	81.1395
1454.48	80.9166
1456.05	81.2478
1457.62	80.2969
1459.18	78.2643
1460.75	75.7656
1462.32	73.0265
1463.89	69.5586
1465.45	67.7775
1467.02	65.6648
1468.59	63.17
1470.15	59.9306
1471.72	57.4273
1473.28	54.674
1474.85	52.508
1476.41	50.0065
1477.98	46.1466
1479.54	44.2724
1481.11	41.7754
1482.67	39.7457
1484.23	37.4034
1485.8	34.4455
1487.36	31.7773
1488.92	30.0269
1490.48	29.5065
1492.05	29.2689
1493.61	27.3012
1495.17	25.6907
1496.73	24.6233
1498.29	23.3732
1499.85	23.0693
1501.41	21.9569
1502.97	20.5243
1504.53	21.7154
1506.09	21.8406
1507.65	22.3233
1509.2	21.8
1510.76	22.8448
1512.32	22.8472
1513.88	23.1115
1515.44	22.5568
1516.99	22.7589
1518.55	23.2997
1520.1	24.4421
1521.66	24.2704
1523.22	24.9335
1524.77	24.7514
1526.33	24.8878
1527.88	25.0451
1529.44	24.9742
1530.99	25.1214
1532.55	26.0798
1534.1	26.2025
1535.65	25.909
1537.21	26.3866
1538.76	28.2433
1540.31	29.9366
1541.86	31.5962
1543.42	33.6208
1544.97	34.4896
1546.52	35.9558
1548.07	37.5332
1549.62	39.5881
1551.17	41.412
1552.72	43.262
1554.27	44.2982
1555.82	46.0647
1557.37	47.4583
1558.92	49.6644
1560.47	50.7617
1562.02	52.3596
1563.57	54.8668
1565.11	55.9023
1566.66	57.1884
1568.21	58.797
1569.75	59.1855
1571.3	59.6459
1572.85	60.8883
1574.39	62.0972
1575.94	62.7248
1577.49	63.8804
1579.03	64.0577
1580.58	64.5071
1582.12	65.8198
1583.67	65.8737
1585.21	66.1596
1586.75	66.5811
1588.3	66.4302
1589.84	66.3056
1591.38	65.5771
1592.93	65.7004
1594.47	65.6285
1596.01	65.072
1597.55	65.3646
1599.09	64.5201
1600.63	64.0449
1602.18	62.8641
1603.72	62.0935
1605.26	61.2193
1606.8	61.2457
1608.34	61.2786
1609.87	61.2767
1611.41	61.2795
1612.95	61.6427
1614.49	62.3677
1616.03	62.5215
1617.57	61.4291
1619.11	61.6682
1620.64	61.4587
1622.18	62.4041
1623.72	64.0423
1625.25	64.8595
1626.79	65.4637
1628.32	66.6191
1629.86	67.253
1631.4	68.2326
1632.93	68.8228
1634.47	69.0569
1636	70.8786
1637.53	71.5832
1639.07	72.2363
1640.6	72.305
1642.14	72.2688
1643.67	72.7553
1645.2	73.317
1646.73	74.4125
1648.27	74.8781
1649.8	75.3878
1651.33	75.2661
1652.86	75.4964
1654.39	75.2808
1655.92	74.4628
1657.45	74.7047
1658.98	75.0143
1660.51	74.3388
1662.04	72.8352
1663.57	71.6876
1665.1	69.904
1666.63	68.1484
1668.16	66.5448
1669.69	65.1881
1671.21	62.4699
1672.74	60.227
1674.27	58.7847
1675.79	56.1576
1677.32	54.0608
1678.85	50.762
1680.37	49.3262
1681.9	46.9547
1683.42	44.3587
1684.95	41.5338
1686.47	39.2937
1688	36.69
1689.52	33.8903
1691.05	31.2106
1692.57	28.0096
1694.1	26.2173
1695.62	25.4417
1697.14	23.9848
1698.66	23.6374
1700.19	21.9273
1701.71	20.148
1703.23	19.0776
1704.75	18.355
1706.27	16.839
1707.79	14.9015
1709.32	14.02
1710.83	13.36
1712.35	12.558
1713.88	11.4128
1715.39	10.2489
1716.91	9.3461
1718.43	9.17301
1719.95	9.03604
1721.47	9.12084
1722.99	9.57749
1724.5	9.23968
1726.02	8.9031
1727.54	9.12885
1729.06	9.80778
1730.57	10.2714
1732.09	10.9954
1733.61	11.057
1735.12	9.89129
1736.64	9.26636
1738.15	9.06616
1739.67	8.42037
1741.18	7.58832
1742.7	7.18312
1744.21	7.85636
1745.72	7.01228
1747.24	6.83853
1748.75	7.35117
1750.26	7.75662
1751.78	7.29476
1753.29	6.70754
1754.8	6.0139
1756.31	5.73392
1757.82	4.77314
1759.34	4.72947
1760.85	4.2344
1762.36	3.78022
1763.87	3.33188
1765.38	2.39172
1766.89	2.18754
1768.4	1.88379
1769.91	2.7749
1771.41	2.35539
1772.92	2.04206
1774.43	1.71708
1775.94	1.01581
1777.45	1.0342
1778.96	1.16927
1780.46	0.523298
1781.97	-0.0961117
1783.48	-0.474737
1784.98	0.273216
1786.49	-0.0581066
1788	-0.356749
1789.5	0.0824008
1791.01	-0.259745
1792.51	-0.341088
1794.01	-0.0424784
1795.52	0.25274
1797.02	0.504311
1798.53	1.03111
1800.03	1.15005
1801.54	1.72375
1803.04	2.60637
1804.54	2.97404
1806.04	3.05486
1807.54	3.0062
1809.05	2.23912
1810.55	2.36034
1812.05	3.13781
1813.55	3.65249
1815.05	3.20697
1816.55	2.93311
1818.05	2.73513
1819.55	3.27632
1821.05	2.58246
1822.55	2.70348
1824.05	2.92658
1825.55	2.51038
1827.05	2.40257
1828.55	2.76437
1830.04	2.94125
1831.54	2.76475
1833.04	2.93775
1834.54	2.99391
1836.03	2.42977
1837.53	2.82131
1839.03	2.88189
1840.52	2.89874
1842.02	3.39747
1843.51	3.1781
1845.01	3.10224
1846.5	2.97796
1848	3.22665
1849.49	3.01579
1850.99	3.2232
1852.48	4.27839
1853.97	4.23438
1855.47	4.04678
1856.96	4.45024
1858.45	4.93099
1859.94	4.97923
1861.44	4.92477
1862.93	4.78307
1864.42	5.30027
1865.91	5.13728
1867.4	5.65339
1868.89	6.30974
1870.38	5.84882
1871.87	6.86373
1873.36	7.35596
1874.85	7.38141
1876.34	7.97784
1877.83	8.22226
1879.32	8.76191
1880.81	8.23276
1882.3	8.69618
1882.56	8.26039
1884.06	8.6398
1885.55	7.71051
1887.04	7.22565
1888.54	6.66765
1890.03	6.71922
1891.52	6.94543
1893.02	7.10809
1894.51	6.07077
1896	5.93457
1897.49	5.59994
1898.99	5.55302
1900.48	4.91798
1901.97	4.66984
1903.46	4.12864
1904.95	4.64171
1906.44	4.56222
1907.93	4.29129
1909.42	4.02917
1910.91	4.55581
1912.4	4.52402
1913.89	4.41114
1915.38	4.39784
1916.86	4.77279
1918.35	4.70203
1919.84	4.50818
1921.33	4.64972
1922.82	5.29493
1924.3	5.66524
1925.79	5.4108
1927.28	4.73278
1928.76	4.49499
1930.25	4.48245
1931.74	4.66138
1933.22	3.98731
1934.71	4.1401
1936.19	4.1093
1937.67	4.86017
1939.16	4.13395
1940.64	4.14208
1942.13	3.96473
1943.61	3.86326
1945.09	4.9871
1946.58	4.6358
1948.06	4.33477
1949.54	4.67745
1951.03	4.26394
1952.51	4.57856
1953.99	3.72364
1955.47	4.06744
1956.95	3.70458
1958.43	3.45937
1959.91	2.93769
1961.39	3.41055
1962.87	3.85642
1964.35	4.58034
1965.83	4.06441
1967.31	3.93786
1968.79	3.55239
1970.27	3.7434
1971.75	3.94544
1973.22	4.36802
1974.7	4.54789
1976.18	5.27251
1977.66	5.73075
1979.13	6.56827
1980.61	6.32104
1982.09	6.57497
1983.56	7.03862
1985.04	7.34139
1986.52	7.84711
1987.99	8.07364
1989.47	8.65661
1990.94	8.75926
1992.41	8.57582
1993.89	8.95141
1995.36	9.39247
1996.84	10.1029
1998.31	9.74986
1999.78	10.542
2001.26	10.5921
2002.73	10.8125
2004.2	11.6305
2005.67	12.1798
2007.15	12.4434
2008.62	12.5461
2010.09	12.2195
2011.56	11.7121
2013.03	10.9411
2014.5	11.2536
2015.97	11.2429
2017.44	11.0741
2018.91	10.9939
2020.38	10.8118
2021.85	10.2852
2023.32	10.5145
2024.79	10.1325
2026.25	10.1243
2027.72	9.85178
2029.19	10.6389
2030.66	10.7594
2032.13	10.481
2033.59	10.4755
2035.06	10.2293
2036.53	10.9781
2037.99	11.2458
2039.46	10.2193
2040.92	10.3952
2042.39	9.73193
2043.85	10.5877
2045.32	11.1436
2046.78	10.7856
2048.25	10.9332
2049.71	10.7419
2051.18	10.8875
2052.64	11.1288
2054.1	10.5852
2055.56	10.6437
2057.03	10.9232
2058.49	11.1869
2059.95	11.9046
2061.42	11.9664
2062.88	12.1597
2064.34	12.7226
2065.8	13.5169
2067.26	14.5116
2068.72	15.1917
2070.18	16.7279
2071.64	17.0608
2073.1	17.9462
2074.56	17.961
2076.02	19.8901
2077.48	20.7373
2078.94	20.6117
2080.39	20.9319
2081.85	20.7208
2083.31	21.2099
2084.77	21.6356
2086.22	23.1315
2087.68	23.8295
2089.14	24.1887
2090.6	24.6612
2092.05	25.1343
2093.51	25.8876
2094.96	26.4477
2096.42	27.8763
2097.87	28.6012
2099.33	28.9186
2100.78	30.3633
2102.24	31.5171
2103.69	32.2909
2105.15	32.8007
2106.6	33.1876
2108.05	34.6935
2109.51	36.9721
2110.96	37.5922
2112.41	38.3504
2113.86	39.9017
2115.32	41.0958
2116.77	43.3124
2118.22	44.0934
2119.67	45.2278
2121.12	46.9808
2122.57	48.1761
2124.02	49.8264
2125.47	51.6209
2126.92	52.7065
2128.37	54.7895
2129.82	56.7584
2131.27	58.299
2132.72	60.1528
2134.17	62.5131
2135.62	64.2026
2137.06	66.3218
2138.51	68.7121
2139.96	69.7713
2141.41	71.8082
2142.85	73.2305
2144.3	74.1424
2145.75	76.8708
2147.19	79.0739
2148.64	81.0977
2150.09	81.6043
2151.53	82.6765
2152.97	84.7612
2154.42	85.622
2155.86	86.8482
2157.31	87.9533
2158.75	88.9007
2160.2	88.6597
2161.64	88.8766
2163.08	89.0385
2164.53	89.2471
2165.97	89.3402
2167.41	88.5884
2168.86	88.4215
2170.3	87.851
2171.74	87.4443
2173.18	87.2697
2174.62	86.5952
2176.06	85.5422
2177.5	84.4455
2178.94	84.1769
2180.38	84.2771
2181.82	83.5601
2183.26	82.2284
2184.7	81.8587
2186.14	81.0828
2187.58	80.2764
2189.02	79.8685
2190.46	78.9693
2191.89	78.2417
2193.33	77.1098
2194.77	76.2905
2196.21	75.6801
2197.64	74.8011
2199.08	73.6533
2200.52	72.8869
2201.95	72.5609
2203.39	71.2817
2204.83	70.0655
2206.26	68.7446
2207.7	66.5798
2209.13	65.7626
2210.57	64.7379
2212	63.248
2213.43	62.476
2214.87	61.0243
2216.3	60.7317
2217.73	60.4115
2219.17	58.773
2220.6	57.4216
2222.03	56.1906
2223.47	54.8306
2224.9	53.2792
2226.33	50.9139
2227.76	49.4447
2229.19	47.9823
2230.62	46.3202
2232.05	45.0087
2233.49	43.4557
2234.91	41.6592
2236.34	40.6026
2237.77	38.9753
2239.2	38.1541
2240.63	37.6837
2242.06	36.5089
2243.49	34.7993
2244.92	33.3168
2246.35	32.8671
2247.78	32.5
2249.2	32.313
2250.63	31.9991
2252.06	31.7391
2253.48	31.3682
2254.91	31.2257
2256.34	31.3135
2257.76	30.9957
2259.19	31.1054
2260.61	30.8801
2262.04	30.4641
2263.46	30.2536
2264.89	29.8593
2266.31	29.7498
2267.74	29.273
2269.16	28.9597
2270.59	29.0743
2272.01	28.6617
2273.43	28.3742
2274.85	26.9643
2276.28	26.5141
2277.7	26.1124
2279.12	26.4028
2280.54	26.3734
2281.97	25.5029
2283.39	25.0513
2284.81	24.2158
2286.23	23.8353
2287.65	23.2946
2289.07	22.3968
2290.49	21.7934
2291.91	20.7527
2293.33	19.965
2294.75	18.718
2296.17	18.3921
2297.59	18.917
2299.01	19.412
2300.42	19.8026
2301.84	19.7513
2303.26	19.4696
2304.68	19.5229
2306.1	19.8399
2307.51	19.7663
2308.93	19.5795
2310.35	19.4252
2311.76	19.0528
2313.18	18.6653
2314.59	18.8877
2316.01	19.4303
2317.43	19.6646
2318.84	19.7573
2320.26	19.5262
2321.67	19.3581
2323.08	19.0567
2324.5	18.9122
2325.91	18.9847
2327.33	18.5866
2328.74	17.483
2330.15	17.0634
2331.56	16.2891
2332.98	15.9411
2334.39	15.8917
2335.8	15.2521
2337.21	14.7296
2338.62	14.3947
2340.04	13.9127
2341.45	13.3629
2342.86	12.1355
2344.27	11.1204
2345.68	9.90416
2347.09	8.50151
2348.5	7.28854
2349.91	7.02699
2351.31	5.82651
2352.72	4.82636
2354.13	4.378
2355.54	3.32043
2356.95	2.73371
2358.36	2.60297
2359.76	1.97507
2361.17	2.11916
2362.58	0.924068
2363.98	1.24031
2365.39	1.25954
2366.8	2.10839
2368.21	2.60546
2369.61	2.16578
2371.02	1.63219
2372.42	0.773313
2373.83	0.674077
2375.23	0.962885
2376.64	0.6146
2378.04	0.239847
2379.44	0.279291
2380.85	0.166323
2382.25	-0.153354
2383.66	0.129747
2385.06	0.412957
2386.46	0.620054
2387.86	0.832266
2389.26	1.03457
2390.67	0.917941
2392.07	1.1915
2393.47	0.707971
2394.87	0.941162
2396.27	1.17398
2397.67	1.30657
2399.07	1.97786
2400.47	2.37059
2401.87	2.44944
2403.27	3.21395
2404.67	3.39133
2406.07	2.71139
2407.47	3.28687
2408.87	3.52532
2410.27	3.11416
2411.67	3.12975
2413.07	3.15872
2414.46	3.26879
2415.86	3.47876
2417.26	3.97451
2418.66	4.52326
2420.05	4.60722
2421.45	4.65468
2422.84	5.14718
2424.24	5.49282
2425.64	5.91577
2427.03	6.84167
2428.43	6.84425
2429.82	6.38762
2431.22	6.46497
2432.61	5.54347
2434.01	6.27384
2435.4	6.28836
2436.79	6.51363
2438.19	6.67226
2439.58	5.69282
2440.97	5.46492
2442.37	5.55096
2443.76	6.02811
2445.15	6.26818
2446.54	5.64164
2447.93	5.58958
2449.33	5.78643
2450.72	5.89743
2452.11	5.31691
2453.5	5.97118
2454.89	5.6734
2456.28	5.53681
2457.67	4.92499
2459.06	4.35485
2460.45	4.32429
2461.84	4.39004
2463.23	4.22902
2464.62	4.63223
2466	5.04466
2467.39	4.93205
2468.78	5.03835
2470.17	4.84635
2471.55	4.99987
2472.94	4.9065
2474.33	4.60775
2475.72	4.77538
2477.1	5.0226
2478.49	4.5664
2479.87	4.13366
2481.26	4.47725
2482.65	4.64
2484.03	4.62317
2485.42	4.29575
2486.8	3.6575
2488.19	3.12351
2489.57	3.10935
2490.95	3.69692
2492.34	3.89326
2493.72	3.57487
2495.1	3.8161
2496.49	3.27637
2497.87	2.64989
2499.25	2.50454
2500.63	2.88917
2502.02	2.76255
2503.4	2.93529
2504.78	2.52857
2506.16	2.65706
2507.54	2.63482
2508.92	2.36473
2510.3	2.85117
2511.68	3.31622
2513.06	2.87937
2514.44	2.82171
2515.82	2.45097
2517.2	2.6307
2518.58	2.32437
2519.96	1.9659
2521.34	2.47162
2522.72	2.72176
2524.1	2.60471
2525.47	2.98512
2526.85	2.99942
2528.23	3.2285
2529.6	3.95052
2530.98	3.43688
2532.36	3.18157
2533.74	2.91431
2535.11	2.96502
2536.49	3.16482
2537.86	3.4846
2539.24	3.55286
2540.61	3.12152
2541.99	2.90835
2543.36	3.59192
2544.74	3.70731
2546.11	3.84667
2547.49	4.38464
2548.86	4.3966
2550.23	4.54369
2551.61	4.50068
2552.98	4.37506
2554.35	4.30371
2555.72	4.33095
2557.09	5.2782
2558.47	5.16802
2559.84	5.19949
2561.21	5.47762
2562.58	5.65486
2563.95	5.66598
2565.32	5.38932
2566.69	5.52635
2568.06	5.69251
2569.43	5.60046
2570.8	4.87765
2572.17	4.66082
2573.54	4.65268
2574.91	4.67176
2576.28	4.16542
2577.65	4.61591
2579.02	4.48928
2580.39	4.17625
2581.75	3.58029
2583.12	3.39713
2584.49	3.26135
2585.85	2.79241
2587.22	2.85827
2588.59	2.93145
2589.95	3.05186
2591.32	2.22646
2592.68	2.19025
2594.05	1.87765
2595.42	1.62524
2596.78	1.35608
2598.15	0.87735
2599.51	0.618077
2600.88	0.846571
2602.24	1.16728
2603.6	1.10447
2604.97	1.3789
2606.33	1.70216
2607.69	1.75508
2609.06	1.98786
2610.42	2.33536
2611.78	3.14423
2613.14	3.42845
2614.51	3.50932
2615.87	3.4663
2617.23	3.05118
2618.59	3.15714
2619.95	3.28643
2621.31	2.93163
2622.67	3.11578
2624.03	3.1307
2625.39	3.53228
2626.75	3.19606
2628.11	2.90515
2629.47	3.00566
2630.83	3.49612
2632.19	3.11497
2633.55	2.91449
2634.91	2.87014
2636.26	2.28601
2637.62	1.4187
2638.98	1.16543
2640.34	1.19858
2641.69	1.17257
2643.05	0.837766
2644.41	0.705521
2645.76	0.933094
2647.12	0.737643
2648.48	0.754193
2649.83	0.295816
2651.19	-0.319148
2652.54	-0.395178
2653.9	-0.220726
2655.25	0.505221
2656.6	0.0596142
2657.96	0.434898
2659.31	0.289968
2660.67	0.553245
2662.02	0.330014
2663.37	0.245483
2664.73	0.522801
2666.08	0.830678
2667.43	1.77392
2668.78	1.83002
2670.14	2.00887
2671.49	1.83315
2672.84	2.19152
2674.19	2.95415
2675.54	3.16745
2676.89	3.73624
2678.24	3.15307
2679.59	3.30387
2680.94	3.37834
2682.29	2.72784
2683.64	3.00298
2684.99	3.25933
2686.34	3.89274
2687.69	4.003
2689.04	4.36391
2690.39	5.0798
2691.74	5.1515
2693.08	4.98316
2694.43	5.08646
2695.78	4.61404
2697.13	5.33361
2698.47	6.0312
2699.82	6.02464
2701.17	6.18349
2702.51	6.74876
2703.86	7.25287
2705.21	8.15269
2706.55	9.06164
2707.9	9.36476
2709.24	9.81771
2710.58	10.2733
2711.93	10.6229
2713.27	11.1366
2714.62	11.2163
2715.96	10.5921
2717.3	10.4038
2718.65	10.4165
2719.99	11.0212
2721.33	11.7328
2722.68	11.1877
2724.02	10.3511
2725.36	10.8932
2726.71	10.6912
2728.05	11.101
2729.39	10.4973
2730.73	10.6706
2732.07	10.7571
2733.41	10.6783
2734.75	11.2714
2736.09	9.90511
2737.43	9.36036
2738.77	8.91901
2740.11	9.05762
2741.45	8.74255
2742.79	8.18965
2744.13	7.55991
2745.47	7.18706
2746.81	7.60608
2748.14	7.50673
2749.48	7.72423
2750.82	8.22576
2752.16	7.99544
2753.49	7.27665
2754.83	6.51197
2756.17	6.54624
2757.5	5.67214
2758.84	5.18514
2760.18	5.36661
2761.51	5.89364
2762.85	5.86755
2764.18	7.12754
2765.52	7.27124
2766.85	7.52351
2768.19	7.59545
2769.52	8.2922
2770.86	8.66236
2772.19	8.08617
2773.52	7.85632
2774.86	7.68904
2776.19	7.81795
2777.52	7.98258
2778.86	7.99796
2780.19	8.31674
2781.52	8.23793
2782.85	8.29825
2784.19	8.59142
2785.52	7.73793
2786.85	7.59773
2788.18	7.16781
2789.51	6.59853
2790.84	6.34783
2792.17	6.70334
2793.5	6.00713
2794.83	6.24772
2796.16	5.70564
2797.49	5.29832
2798.82	5.32762
2800.15	5.47887
2801.48	5.14644
2802.81	3.75074
2804.13	4.85989
2805.46	4.64532
2806.79	4.69972
2808.12	4.07642
2809.45	4.35822
2810.77	3.88369
2812.1	3.98616
2813.43	3.80826
2814.75	3.73478
2816.08	4.35357
2817.41	4.7625
2818.73	5.04291
2820.06	5.3422
2821.38	6.39045
2822.71	7.45624
2824.03	8.53172
2825.36	10.8559
2826.68	13.0575
2828	15.3198
2829.33	17.1056
2830.65	19.6935
2831.98	20.9998
2833.3	23.0376
2834.62	25.3041
2835.94	27.6045
2837.27	28.8877
2838.59	30.5972
2839.91	33.3771
2841.23	36.207
2842.55	38.7933
2843.87	41.798
2845.2	44.8427
2846.52	47.4722
2847.84	49.7583
2849.16	52.2094
2850.48	55.4185
2851.8	58.016
2853.12	61.4321
2854.44	64.7354
2855.76	68.0958
2857.08	71.1798
2858.39	74.792
2859.71	78.192
2861.03	82.3854
2862.35	84.8662
2863.67	87.4617
2864.98	90.7756
2866.3	93.0805
2867.62	95.2537
2868.94	97.1417
2870.25	100.01
2871.57	101.031
2872.88	102.448
2874.2	103.977
2875.52	105.867
2876.83	107.246
2878.15	109.023
2879.46	110.235
2880.78	111.986
2882.09	113.646
2883.41	114.951
2884.72	116.177
2886.03	117.759
2887.35	119.066
2888.66	121.258
2889.97	123.213
2891.29	124.401
2892.6	126.094
2893.91	127.448
2895.22	128.321
2896.54	129.453
2897.85	130.339
2899.16	132.418
2900.47	134.124
2901.78	135.98
2903.09	137.542
2904.4	140.541
2905.71	144.336
2907.02	147.963
2908.33	151.536
2909.64	155.444
2910.95	159.507
2912.26	163.649
2913.57	168.07
2914.88	171.697
2916.19	175.414
2917.5	178.213
2918.81	181.625
2920.11	184.872
2921.42	188.48
2922.73	191.1
2924.04	193.177
2925.34	195.482
2926.65	197.04
2927.96	197.98
2929.26	199.137
2930.57	200.251
2931.87	200.649
2933.18	201.11
2934.49	201.38
2935.79	201.355
2937.1	200.744
2938.4	200.129
2939.7	198.818
2941.01	197.082
2942.31	195.057
2943.62	192.76
2944.92	190.426
2946.22	188.144
2947.53	185.307
2948.83	182.433
2950.13	179.29
2951.43	175.958
2952.74	172.422
2954.04	169.191
2955.34	165.13
2956.64	161.048
2957.94	158.259
2959.24	154.36
2960.54	151.161
2961.84	147.529
2963.15	144.749
2964.45	141.145
2965.75	137.541
2967.05	134.386
2968.34	131.727
2969.64	129.277
2970.94	126.261
2972.24	122.857
2973.54	119.505
2974.84	116.594
2976.14	113.684
2977.43	109.675
2978.73	105.85
2980.03	101.583
2981.33	98.5487
2982.62	94.9121
2983.92	91.856
2985.22	88.6764
2986.51	85.2195
2987.81	81.456
2989.11	77.723
2990.4	74.3135
2991.7	71.3696
2992.99	68.7334
2994.29	66.0658
2995.58	63.2343
2996.88	60.0514
2998.17	57.726
2999.46	54.7011
3000.76	52.1255
3002.05	49.414
3003.34	46.892
3004.64	44.425
3005.93	42.5057
3007.22	40.7461
3008.52	39.1971
3009.81	37.3002
3011.1	35.6089
3012.39	33.7607
3013.68	32.0402
3014.97	30.5567
3016.27	29.4545
3017.56	28.1055
3018.85	27.3563
3020.14	26.2795
3021.43	25.1031
3022.72	24.6773
3024.01	23.7257
3025.3	23.2389
3026.59	21.9348
3027.88	21.0422
3029.16	20.197
3030.45	20.2754
3031.74	19.7682
3033.03	20.0321
3034.32	19.2742
3035.6	18.5349
3036.89	19.4801
3038.18	19.2926
3039.47	19.7403
3040.75	19.9378
3042.04	19.5305
3043.33	19.7038
3044.61	19.6938
3045.9	19.6921
3047.18	19.0254
3048.47	19.0489
3049.75	18.4765
3051.04	18.2842
3052.32	18.3121
3053.61	18.4406
3054.89	18.1313
3056.18	18.6156
3057.46	18.4024
3058.74	17.8746
3060.03	17.5153
3061.31	17.3213
3062.59	16.7301
3063.88	15.6562
3065.16	15.4001
3066.44	14.9701
3067.72	14.8149
3069	14.3445
3070.29	13.7759
3071.57	13.0505
3072.85	12.079
3074.13	10.766
3075.41	10.114
3076.69	9.2371
3077.97	8.92603
3079.25	8.5726
3080.53	8.14896
3081.81	7.58245
3083.09	7.10527
3084.37	6.04572
3085.65	6.00949
3086.93	5.66658
3088.21	5.37856
3089.49	4.77738
3090.76	4.28214
3092.04	4.07469
3093.32	3.86442
3094.6	3.90005
3095.87	2.97643
3097.15	2.94749
3098.43	2.18928
3099.7	2.41368
3100.98	2.85279
3102.26	2.3797
3103.53	2.52749
3104.81	2.36785
3106.08	1.87799
3107.36	1.78278
3108.63	1.84275
3109.91	2.03378
3111.18	2.02083
3112.46	2.32817
3113.73	2.56133
3115	3.72546
3116.28	4.49007
3117.55	4.63636
3118.83	4.36246
3120.1	4.86469
3121.37	5.07116
3122.64	5.17786
3123.92	5.33096
3125.19	5.10349
3126.46	4.58022
3127.73	5.27847
3129	6.02547
3130.27	6.47996
3131.55	6.73021
3132.82	7.14278
3134.09	7.48518
3135.36	8.06159
3136.63	8.67716
3137.9	9.50394
3139.17	10.5509
3140.44	11.3547
3141.71	12.0042
3142.98	12.4783
3144.24	12.798
3145.51	13.0592
3146.78	13.3637
3148.05	13.429
3149.32	12.6927
