#Acq. time (s)=	45
#Accumulations=	2
#Range (cm-¹)=	200...3150
#Windows=	2
#Auto scanning=	Off
#Autofocus=	Off
#Macrospot=	Off
#AutoExposure=	Off
#Spike filter=	Multiple accum.
#Delay time (s)=	0
#Binning=	1
#Readout mode=	Signal
#DeNoise=	Off
#ICS correction=	On
#Dark correction=	Off
#Inst. Process=	Off
#Detector Gain=	Best Dynamic Range
#Detector ADC=	20 kHz       
#Detector temperature (°C)=	-69.85
#Instrument=	LabRAM HR Evol
#Detector=	Synapse
#Objective=	x100
#Grating=	600 gr/mm
#ND Filter=	100%
#Laser (nm)=	532 
#Hole=	100.021
#Range=	Auto
#Laser Pol.=	No
#Raman. Pol.=	No
#Laser Pol. (°)=	-0.0007625
#Raman Pol. (°)=	89.9995
#Collection=	Microscope
#StageXY=	Marzhauser
#StageZ=	Marzhauser
#X (µm)=	8966
#Y (µm)=	-3072.6
#Z (µm)=	-54.85
#Full time(mm:ss)=	3:19
#Project=	
#Sample=	
#Site=	
#Title=	Thy_00_07_33_2x_45s_532 nm_x100_100%_600 gr_mm
#Remark=	
#Date=	28.06.2022 12:33
#Acquired=	28.06.2022 12:33:44
#Base:Fit=	10.08.2022 10:07:56
#Base:Sub=	10.08.2022 10:08:40
#Filter:Polynom=	16.08.2022 10:26:06
#AxisType[0]=Intens
#AxisUnit[0]=Cnt
#AxisType[1]=Spectr
#AxisUnit[1]=1/cm
200.407	5.82397
202.221	3.45866
204.035	2.23815
205.849	1.6796
207.665	0.881682
209.478	0.627657
211.291	0.549802
213.104	0.659514
214.916	0.341453
216.73	1.43568
218.541	2.15584
220.352	2.03476
222.163	2.41542
223.973	3.36727
225.785	3.59519
227.595	3.08728
229.404	3.03177
231.213	2.229
233.022	1.61935
234.83	1.70342
236.638	2.31879
238.448	2.49396
240.255	3.30368
242.062	2.61161
243.868	3.03852
245.675	4.09802
247.48	3.81002
249.286	4.12043
251.091	3.38838
252.896	4.31264
254.702	5.01011
256.506	5.36493
258.31	5.46741
260.113	6.10508
261.916	6.58172
263.719	7.79779
265.521	8.44181
267.323	8.2826
269.125	8.76005
270.926	8.69164
272.727	9.09488
274.527	8.85141
276.328	9.21905
278.127	9.95637
279.927	10.127
281.726	10.572
283.525	9.82897
285.323	9.37145
287.121	10.3917
288.919	9.57166
290.716	11.6489
292.513	12.396
294.31	12.585
296.104	13.243
297.9	14.4449
299.696	15.2728
301.491	14.8197
303.286	15.7257
305.081	16.7282
306.875	18.6575
308.669	19.2876
310.463	19.5778
312.256	20.6765
314.047	20.9605
315.839	20.2129
317.631	20.834
319.423	21.3191
321.215	21.9867
323.006	22.5584
324.794	23.6341
326.585	24.9855
328.375	24.3805
330.165	24.7427
331.954	24.1395
333.741	25.0696
335.53	25.1839
337.318	23.5968
339.106	23.492
340.894	23.9542
342.679	24.1431
344.466	23.8006
346.253	23.6269
348.039	23.2848
349.823	23.5814
351.608	23.1715
353.393	23.0515
355.176	21.0159
356.961	20.3679
358.745	20.8032
360.529	20.3377
362.31	21.1624
364.093	20.9146
365.876	19.4942
367.657	19.9714
369.439	19.3513
371.221	20.0494
373	19.3247
374.781	19.3755
376.56	20.3759
378.34	19.7204
380.12	20.7554
381.898	20.4153
383.677	21.1847
385.456	21.3794
387.233	22.2669
389.011	22.7586
390.787	23.3466
392.565	24.1136
394.34	25.4228
396.117	26.1229
397.894	26.4318
399.668	26.005
401.444	25.8855
403.217	25.3974
404.993	26.1435
406.766	26.0941
408.54	25.5011
410.312	25.0201
412.086	24.2874
413.858	23.7896
415.631	23.4642
417.402	22.3873
419.174	22.1194
420.944	21.9903
422.716	21.5398
424.486	21.0218
426.257	19.8937
428.025	19.6395
429.794	18.0651
431.564	15.8155
433.332	15.4937
435.101	13.62
436.868	12.6879
438.637	12.3777
440.403	11.451
442.169	10.9591
443.937	10.9956
445.703	11.5435
447.468	11.4553
449.234	11.569
450.999	11.7541
452.765	11.3102
454.528	11.3659
456.292	13.3738
458.057	13.1645
459.819	13.2758
461.582	13.6298
463.344	15.8314
465.107	16.4527
466.868	17.3944
468.629	19.2971
470.392	20.1794
472.152	20.3678
473.912	21.6668
475.672	23.2212
477.433	24.8015
479.192	26.2576
480.951	27.2618
482.709	29.1041
484.469	28.7287
486.226	28.6003
487.984	28.6697
489.74	29.175
491.499	30.0218
493.255	31.0489
495.011	30.6244
496.767	30.8493
498.522	31.4783
500.277	32.4522
502.033	33.5364
503.788	34.9445
505.541	35.2421
507.295	35.0653
509.048	34.9796
510.801	34.3538
512.553	34.0376
514.308	32.2276
516.06	31.2003
517.811	29.9703
519.562	29.7379
521.313	28.9064
523.063	28.3985
524.814	29.407
526.563	29.6039
528.313	29.5806
530.062	29.9909
531.811	30.6754
533.559	29.9924
535.308	29.2792
537.055	29.3262
538.803	28.3119
540.55	28.2846
542.297	28.0002
544.043	28.766
545.789	27.3296
547.535	27.5415
549.281	27.8845
551.026	28.2853
552.771	27.9774
554.515	29.2973
556.259	29.1132
558.003	29.2386
559.747	29.7321
561.49	30.4584
563.233	30.3569
564.975	31.0138
566.717	29.4707
568.459	28.4778
570.2	27.604
571.942	26.2325
573.68	26.3993
575.421	26.0164
577.161	25.5647
578.901	25.8413
580.64	26.5236
582.379	26.2773
584.118	25.6727
585.855	26.1764
587.593	25.6813
589.331	24.1045
591.068	23.3466
592.805	21.522
594.54	19.7408
596.277	18.1663
598.013	16.4654
599.749	15.9815
601.484	14.9654
603.217	14.329
604.952	14.2101
606.687	13.5928
608.421	13.6631
610.153	14.4203
611.886	14.2055
613.619	13.4166
615.35	12.5942
617.083	11.8703
618.815	11.9884
620.547	11.5235
622.276	11.0974
624.008	12.109
625.738	11.8852
627.467	12.9683
629.197	13.8584
630.927	14.956
632.655	15.3021
634.384	16.285
636.113	18.0479
637.839	19.2327
639.568	20.0975
641.293	20.5762
643.021	21.7939
644.748	22.626
646.473	23.0346
648.2	23.1389
649.924	23.6667
651.65	24.0347
653.376	23.3482
655.099	25.0829
656.824	26.4023
658.546	27.939
660.271	28.9122
661.993	29.4021
663.716	29.8868
665.438	31.2747
667.161	31.3266
668.881	29.7874
670.604	29.4631
672.324	28.8703
674.045	28.5072
675.765	28.2024
677.486	27.8583
679.204	25.6711
680.925	25.617
682.643	25.8229
684.361	25.2852
686.08	26.3846
687.797	25.6096
689.516	25.1685
691.232	26.2437
692.95	26.1026
694.666	26.9224
696.382	27.6546
698.099	28.0011
699.813	27.8813
701.528	27.6806
703.244	28.9099
704.958	30.7345
706.673	31.1898
708.387	31.7044
710.099	32.7571
711.814	33.7243
713.526	35.4905
715.238	36.6788
716.949	38.2688
718.663	39.7651
720.374	40.052
722.084	41.8979
723.796	42.5829
725.506	44.6772
727.216	45.7394
728.925	47.6455
730.636	48.0237
732.345	49.4556
734.053	50.8864
735.761	52.0579
737.471	52.3293
739.178	53.3997
740.885	55.9511
742.592	56.44
744.298	56.6905
746.006	57.8969
747.712	58.7861
749.417	59.1222
751.122	60.0731
752.827	60.4092
754.532	60.9929
756.236	62.4777
757.942	62.5328
759.645	63.3992
761.348	63.5298
763.051	63.3311
764.753	64.2503
766.456	65.8189
768.158	66.5127
769.859	67.2346
771.56	69.5663
773.261	70.1517
774.964	71.2607
776.664	72.3837
778.364	72.8041
780.064	73.4301
781.763	73.7163
783.462	73.1124
785.16	71.5323
786.859	71.6154
788.557	72.4898
790.255	72.9904
791.952	72.5453
793.649	72.5048
795.346	73.1335
797.042	74.7564
798.738	76.0293
800.434	76.1588
802.127	75.6886
803.823	75.1081
805.517	74.5848
807.212	75.0152
808.906	73.8941
810.6	74.0516
812.293	72.4683
813.987	71.9077
815.68	71.1127
817.372	70.486
819.064	70.1088
820.754	68.3853
822.446	67.5056
824.137	67.8064
825.828	67.9149
827.519	67.8327
829.209	67.7381
830.897	67.8941
832.587	66.7251
834.276	67.4974
835.966	67.7825
837.654	67.1018
839.341	66.7992
841.029	66.0826
842.717	65.8714
844.404	65.2631
846.091	65.099
847.776	64.1728
849.463	63.0803
851.149	62.052
852.833	61.475
854.519	60.7881
856.204	59.9793
857.889	57.883
859.572	58.0248
861.256	58.1838
862.94	58.0384
864.622	57.7048
866.305	56.0295
867.988	54.4833
869.669	53.5793
871.351	53.7254
873.033	53.1215
874.713	52.7853
876.395	52.0893
878.074	51.8647
879.755	52.1145
881.435	51.3754
883.114	50.2318
884.794	48.334
886.471	47.2998
888.15	47.7643
889.829	46.9367
891.506	46.3927
893.184	45.6103
894.861	45.8629
896.538	44.6308
898.214	44.7727
899.891	44.6221
901.566	44.293
903.242	44.686
904.916	43.2302
906.592	43.3585
908.266	43.109
909.941	43.2143
911.614	43.7118
913.288	43.6244
914.961	44.366
916.635	44.704
918.306	45.5153
919.979	44.4843
921.651	44.3394
923.321	44.3484
924.994	43.3982
926.664	43.0686
928.336	41.3823
930.005	41.5115
931.674	41.1145
933.345	41.457
935.014	41.9564
936.682	42.1154
938.352	42.1747
940.019	42.191
941.687	41.5433
943.356	42.319
945.022	42.3575
946.689	41.4593
948.357	40.118
950.022	39.1704
951.688	38.9743
953.355	38.3955
955.02	38.0474
956.684	37.7483
958.348	37.1425
960.014	35.4042
961.678	34.2891
963.341	34.3104
965.004	34.6825
966.669	35.563
968.331	35.5357
969.993	36.0334
971.655	36.4975
973.316	35.812
974.979	35.9438
976.64	35.4702
978.3	34.347
979.961	33.9182
981.62	34.7186
983.28	35.1143
984.941	34.8335
986.6	34.5055
988.259	33.6408
989.917	33.7517
991.575	33.7457
993.233	34.8185
994.89	35.476
996.547	35.4328
998.204	36.2172
999.86	35.5356
1001.52	35.6954
1003.17	35.3926
1004.83	35.2576
1006.49	34.5207
1008.14	34.2394
1009.79	34.4644
1011.45	34.6992
1013.1	35.6212
1014.76	35.7462
1016.41	34.4733
1018.06	33.6207
1019.72	32.3229
1021.37	31.3223
1023.02	30.7373
1024.67	29.789
1026.32	30.6025
1027.97	30.6006
1029.62	29.9793
1031.27	29.0027
1032.92	28.3988
1034.57	27.3841
1036.22	25.9445
1037.87	25.3105
1039.52	24.4036
1041.17	23.3094
1042.82	22.2567
1044.47	23.1863
1046.11	25.035
1047.76	24.9814
1049.41	24.2162
1051.06	23.1915
1052.7	23.6875
1054.35	23.0506
1055.99	21.6004
1057.64	21.3783
1059.28	21.2093
1060.93	20.8873
1062.57	21.9657
1064.22	21.8335
1065.86	21.0124
1067.5	21.1991
1069.15	20.7368
1070.79	21.0737
1072.43	21.2057
1074.08	21.1036
1075.72	20.3526
1077.36	19.8921
1079	19.618
1080.64	18.6038
1082.28	17.3524
1083.92	17.6106
1085.56	16.944
1087.2	16.8236
1088.84	16.3633
1090.48	16.2495
1092.12	16.4085
1093.76	17.1554
1095.39	18.0588
1097.03	18.1646
1098.67	19.0908
1100.31	20.2358
1101.94	20.686
1103.58	22.0528
1105.22	22.45
1106.85	22.8085
1108.49	24.1407
1110.12	24.7169
1111.76	25.0165
1113.39	24.6943
1115.03	25.6133
1116.66	25.8757
1118.29	26.0991
1119.93	27.5428
1121.56	28.3036
1123.19	29.5201
1124.82	30.8082
1126.46	32.1661
1128.09	32.3426
1129.72	31.9539
1131.35	32.1776
1132.98	32.4697
1134.61	33.0898
1136.24	32.7768
1137.87	33.1242
1139.5	34.5748
1141.13	34.7683
1142.76	35.308
1144.39	35.3625
1146.01	35.1192
1147.64	35.0714
1149.27	34.9923
1150.9	32.6301
1152.53	31.4546
1154.15	29.9282
1155.78	27.3383
1157.4	24.708
1159.03	23.3074
1160.65	21.1853
1162.28	18.4984
1163.9	17.9339
1165.53	16.3284
1167.15	14.8614
1168.78	14.0244
1170.4	13.7189
1172.02	13.1884
1173.65	13.6761
1175.27	14.4897
1176.89	14.5603
1178.51	13.904
1180.14	13.3569
1181.76	12.0962
1183.38	11.513
1185	11.6345
1186.62	10.8844
1188.24	11.4159
1189.86	11.9421
1191.48	12.2033
1193.1	12.7939
1194.71	13.4996
1196.33	14.6034
1197.95	15.1269
1199.57	16.8969
1201.19	18.0756
1202.8	19.4592
1204.42	20.9291
1206.04	21.1754
1207.65	21.1991
1209.27	22.7096
1210.88	23.2477
1212.5	25.1726
1214.12	27.3009
1215.73	29.9942
1217.35	32.1796
1218.96	33.6655
1220.57	35.9338
1222.19	37.1926
1223.8	40.359
1225.41	41.5831
1227.03	43.0101
1228.64	44.2892
1230.25	45.8119
1231.86	46.6575
1233.47	47.8827
1235.08	49.3424
1236.69	49.4519
1238.31	50.1563
1239.92	51.358
1241.52	52.3226
1243.13	52.7722
1244.74	53.8102
1246.35	54.2682
1247.96	55.2458
1249.57	56.1778
1251.18	57.825
1252.78	57.9401
1254.39	59.101
1256	59.2724
1257.6	58.7521
1259.21	58.5361
1260.82	58.9772
1262.42	59.6568
1264.03	59.872
1265.63	60.4015
1267.24	60.0044
1268.84	60.3157
1270.45	60.3572
1272.05	60.5154
1273.65	60.1017
1275.26	60.7375
1276.86	60.6846
1278.46	61.7322
1280.06	62.4907
1281.67	62.4091
1283.27	63.3801
1284.87	63.702
1286.47	64.4512
1288.07	64.6097
1289.67	66.0636
1291.27	66.5554
1292.87	70.561
1294.47	71.6343
1296.07	72.551
1297.67	73.535
1299.27	74.9771
1300.87	77.9288
1302.47	79.7082
1304.06	81.81
1305.66	82.3226
1307.26	84.2698
1308.85	85.7472
1310.45	87.5784
1312.05	88.8283
1313.64	90.0831
1315.24	90.7129
1316.83	91.3478
1318.43	93.7129
1320.02	95.6669
1321.62	97.1017
1323.21	97.604
1324.8	98.2282
1326.4	99.8846
1327.99	100.798
1329.59	101.825
1331.18	102.353
1332.77	102.074
1334.36	102.441
1335.95	101.817
1337.54	101.826
1339.14	102.713
1340.73	101.917
1342.32	101.089
1343.91	101.016
1345.5	99.7406
1347.09	98.7333
1348.67	98.3652
1350.26	97.3014
1351.85	96.5424
1353.44	96.4001
1355.03	95.8953
1356.62	94.2663
1358.2	93.6482
1359.79	91.7493
1361.38	91.1747
1362.96	90.2714
1364.55	89.1088
1366.14	88.1507
1367.72	86.3709
1369.31	86.266
1370.89	84.8389
1372.48	82.875
1374.06	80.5728
1375.64	80.1249
1377.23	79.4405
1378.81	78.5768
1380.39	77.601
1381.98	76.5005
1383.56	75.6262
1385.14	75.0713
1386.72	75.0249
1388.3	73.8297
1389.89	72.9702
1391.47	72.0775
1393.05	71.9317
1394.63	71.4596
1396.21	71.1797
1397.79	71.9624
1399.37	70.5746
1400.95	69.6002
1402.52	69.2231
1404.1	68.6497
1405.68	68.4434
1407.26	67.8334
1408.84	67.5823
1410.42	67.2675
1411.99	67.6098
1413.57	68.1545
1415.15	70.0029
1416.72	70.8965
1418.3	71.6953
1419.87	73.0129
1421.45	75.2434
1423.02	77.2441
1424.6	78.0179
1426.17	81.1445
1427.75	83.9328
1429.32	86.1896
1430.89	89.0494
1432.47	91.6296
1434.04	93.3468
1435.61	96.5466
1437.18	99.1291
1438.76	101.338
1440.33	103.752
1441.9	104.907
1443.47	105.818
1445.04	106.13
1446.61	106.847
1448.18	107.272
1449.75	106.959
1451.32	107.799
1452.89	108.762
1454.46	108.302
1456.03	107.705
1457.6	107.422
1459.16	106.154
1460.73	105.364
1462.3	104.486
1463.87	102.967
1465.43	101.366
1467	98.4679
1468.56	96.0281
1470.13	92.806
1471.7	89.7556
1473.26	86.3288
1474.83	82.8856
1476.39	80.2004
1477.96	76.2367
1479.52	72.9908
1481.08	69.4733
1482.65	65.4082
1484.21	61.8659
1485.77	59.5174
1487.34	56.4161
1488.9	53.7243
1490.46	51.8611
1492.02	49.0841
1493.58	47.198
1495.15	43.9965
1496.71	42.4585
1498.27	42.1492
1499.83	40.7104
1501.39	39.8712
1502.95	39.1605
1504.51	39.6005
1506.07	39.5659
1507.63	39.1727
1509.18	39.1546
1510.74	38.8345
1512.3	38.8028
1513.86	38.2927
1515.41	37.3434
1516.97	36.4584
1518.53	36.1261
1520.08	36.2809
1521.64	35.3578
1523.2	36.4852
1524.75	38.0447
1526.31	38.797
1527.86	40.1989
1529.42	41.9789
1530.97	42.9908
1532.52	44.1992
1534.08	46.9462
1535.63	49.0203
1537.19	51.0725
1538.74	52.6407
1540.29	53.5857
1541.84	54.9597
1543.4	56.1821
1544.95	57.6767
1546.5	59.4554
1548.05	61.1645
1549.6	63.4529
1551.15	66.5562
1552.7	68.0645
1554.25	70.6037
1555.8	72.6616
1557.35	75.1312
1558.9	76.4865
1560.45	78.0181
1562	79.9885
1563.54	82.0015
1565.09	83.0232
1566.64	85.1304
1568.19	86.3727
1569.73	88.1817
1571.28	90.7279
1572.83	91.2178
1574.37	92.6568
1575.92	95.0244
1577.47	95.4777
1579.01	97.2977
1580.56	98.0118
1582.1	100.103
1583.64	100.915
1585.19	101.592
1586.73	101.921
1588.28	101.571
1589.82	100.789
1591.36	100.922
1592.9	101.235
1594.45	101.145
1595.99	100.914
1597.53	99.7174
1599.07	99.0895
1600.61	98.8616
1602.15	98.246
1603.69	97.6204
1605.23	97.2424
1606.77	96.5599
1608.31	95.1902
1609.85	94.2257
1611.39	92.91
1612.93	91.5502
1614.47	89.9965
1616.01	88.1774
1617.55	87.9736
1619.08	87.398
1620.62	86.6459
1622.16	86.1065
1623.7	85.2529
1625.23	84.7917
1626.77	84.235
1628.3	83.8922
1629.84	82.8515
1631.37	83.33
1632.91	82.8587
1634.44	82.5827
1635.98	81.6936
1637.51	80.9867
1639.05	81.0791
1640.58	80.3401
1642.11	80.7578
1643.65	80.7869
1645.18	81.0903
1646.71	81.7566
1648.24	81.2694
1649.78	81.3672
1651.31	81.9019
1652.84	82.2338
1654.37	82.6638
1655.9	82.9405
1657.43	82.3709
1658.96	82.2159
1660.49	81.0039
1662.02	80.4431
1663.55	79.0844
1665.08	78.6426
1666.61	78.0347
1668.14	77.5482
1669.66	75.8501
1671.19	74.1993
1672.72	72.4874
1674.25	70.5784
1675.77	69.4697
1677.3	67.6737
1678.83	65.7408
1680.35	63.8256
1681.88	62.1666
1683.4	59.9477
1684.93	58.1254
1686.45	56.1509
1687.98	54.1446
1689.5	53.2383
1691.03	50.8544
1692.55	48.5904
1694.07	46.6457
1695.6	44.1636
1697.12	42.7801
1698.64	40.7584
1700.17	39.4088
1701.69	37.7001
1703.21	36.3024
1704.73	34.7154
1706.25	33.2245
1707.77	31.8494
1709.29	30.2213
1710.81	28.0044
1712.33	26.9566
1713.85	25.892
1715.37	25.1588
1716.89	23.6192
1718.41	22.6511
1719.93	21.0734
1721.45	20.7058
1722.97	19.9974
1724.49	19.7668
1726	19.0448
1727.52	17.8736
1729.04	17.3491
1730.55	16.6694
1732.07	15.8334
1733.59	15.6036
1735.1	15.706
1736.62	15.7503
1738.13	15.3488
1739.65	15.1332
1741.16	14.7682
1742.68	13.6132
1744.19	13.3722
1745.7	12.9804
1747.22	12.2339
1748.73	12.1039
1750.24	11.3609
1751.76	11.6332
1753.27	11.1729
1754.78	10.6383
1756.29	10.8387
1757.8	10.9013
1759.31	10.8337
1760.83	10.3888
1762.34	9.38003
1763.85	9.07936
1765.36	9.18547
1766.87	8.56477
1768.38	8.75842
1769.89	8.55759
1771.39	8.04614
1772.9	7.71908
1774.41	7.32388
1775.92	6.8523
1777.43	6.31371
1778.94	6.13986
1780.44	5.75402
1781.95	5.75894
1783.46	5.47323
1784.96	5.52813
1786.47	4.99857
1787.97	5.43625
1789.48	5.91289
1790.99	5.42862
1792.49	5.60082
1794	6.10799
1795.5	7.01624
1797	7.8381
1798.51	8.45755
1800.01	8.54135
1801.51	8.53376
1803.02	8.98765
1804.52	8.91959
1806.02	9.38205
1807.53	10.1436
1809.03	10.2228
1810.53	10.5158
1812.03	10.0888
1813.53	10.2957
1815.03	10.4123
1816.53	10.8095
1818.03	11.1787
1819.53	11.4868
1821.03	11.8906
1822.53	11.8274
1824.03	12.3485
1825.53	11.9837
1827.03	11.9008
1828.53	11.3273
1830.02	10.826
1831.52	10.7854
1833.02	11.5078
1834.52	11.5955
1836.01	10.9615
1837.51	10.9648
1839.01	10.9765
1840.5	11.2915
1842	11.327
1843.49	11.4444
1844.99	10.7439
1846.48	10.5035
1847.98	10.5462
1849.47	10.7115
1850.97	10.7072
1852.46	11.2114
1853.95	11.2373
1855.45	11.6465
1856.94	11.6174
1858.43	11.6546
1859.93	12.5314
1861.42	12.8717
1862.91	13.6297
1864.4	14.7665
1865.89	14.2111
1867.38	14.4114
1868.87	14.8173
1870.36	15.1534
1871.85	15.5935
1873.34	15.1145
1874.83	15.3011
1876.32	15.2943
1877.81	13.9451
1879.3	13.6486
1880.79	12.968
1882.28	12.8086
1882.52	11.926
1884.02	11.3322
1885.51	10.2006
1887.01	10.1829
1888.5	9.80298
1889.99	9.56956
1891.49	8.86709
1892.98	8.44795
1894.47	7.86564
1895.97	6.63246
1897.46	6.37095
1898.95	6.34656
1900.44	6.4205
1901.93	6.46639
1903.42	6.09899
1904.91	6.47787
1906.4	6.41239
1907.89	6.20925
1909.38	6.12295
1910.87	6.03213
1912.36	6.58427
1913.85	6.8734
1915.34	6.86265
1916.83	6.64307
1918.32	6.84532
1919.8	7.33395
1921.29	8.47225
1922.78	9.07717
1924.27	9.902
1925.75	10.2663
1927.24	10.4858
1928.73	10.9736
1930.21	10.8808
1931.7	11.2918
1933.18	12.0415
1934.67	11.7764
1936.15	12.1566
1937.64	12.869
1939.12	12.3889
1940.61	12.548
1942.09	12.8489
1943.57	12.4278
1945.06	12.4696
1946.54	11.9731
1948.02	12.6151
1949.51	11.4185
1950.99	10.8849
1952.47	11.025
1953.95	10.8898
1955.43	10.739
1956.91	9.80559
1958.4	9.58636
1959.88	8.49772
1961.36	8.52544
1962.84	7.77227
1964.32	7.80248
1965.8	7.21271
1967.27	6.72572
1968.75	6.19031
1970.23	6.402
1971.71	7.27853
1973.19	6.52302
1974.67	5.75978
1976.14	4.81194
1977.62	4.38646
1979.1	4.71774
1980.58	4.5528
1982.05	4.94095
1983.53	4.18317
1985	4.25681
1986.48	4.77833
1987.95	4.61303
1989.43	4.64018
1990.9	5.47122
1992.38	5.95896
1993.85	6.10156
1995.33	6.66152
1996.8	6.25176
1998.27	6.11521
1999.75	5.82619
2001.22	6.11293
2002.69	5.36436
2004.16	5.36756
2005.64	5.84049
2007.11	6.42166
2008.58	6.04133
2010.05	6.6525
2011.52	7.01973
2012.99	6.95619
2014.46	6.90133
2015.93	6.62181
2017.4	6.61376
2018.87	7.99697
2020.34	8.46029
2021.81	8.97134
2023.28	8.35233
2024.75	8.44851
2026.22	7.96879
2027.69	8.28064
2029.15	7.76767
2030.62	7.76424
2032.09	7.41792
2033.56	6.75478
2035.02	7.00467
2036.49	7.28133
2037.96	7.71393
2039.42	7.37249
2040.89	7.44177
2042.35	7.98226
2043.82	7.83068
2045.28	7.68059
2046.75	7.01432
2048.21	7.93979
2049.67	7.89918
2051.14	8.23717
2052.6	8.60423
2054.07	7.97066
2055.53	8.10961
2056.99	7.60611
2058.45	8.27002
2059.92	8.07061
2061.38	8.38382
2062.84	8.31305
2064.3	8.86704
2065.76	9.00965
2067.22	8.89972
2068.68	8.91388
2070.14	8.56415
2071.6	9.1951
2073.06	9.58813
2074.52	9.46902
2075.98	9.25572
2077.44	9.78015
2078.9	9.58636
2080.36	10.145
2081.82	9.67788
2083.27	9.84739
2084.73	9.66768
2086.19	9.2375
2087.65	8.36991
2089.1	8.54945
2090.56	8.95414
2092.02	9.80122
2093.47	9.23056
2094.93	10.0086
2096.38	9.08858
2097.84	8.80304
2099.29	9.17748
2100.75	8.75186
2102.2	8.47995
2103.66	7.99366
2105.11	7.21808
2106.56	7.09322
2108.02	6.7888
2109.47	7.0734
2110.92	6.54638
2112.38	5.91235
2113.83	4.90307
2115.28	4.3333
2116.73	3.72753
2118.18	3.66525
2119.63	4.14756
2121.09	3.73879
2122.54	2.61931
2123.99	2.5484
2125.44	2.50993
2126.89	1.95628
2128.34	2.33899
2129.79	2.188
2131.23	1.80876
2132.68	1.25017
2134.13	1.01229
2135.58	0.873327
2137.03	0.81972
2138.48	1.11676
2139.92	0.963511
2141.37	1.5955
2142.82	2.2927
2144.27	2.87248
2145.71	3.133
2147.16	3.3174
2148.6	3.94248
2150.05	4.85232
2151.49	4.72098
2152.94	5.1338
2154.38	5.38307
2155.83	5.08985
2157.27	5.26318
2158.72	5.33372
2160.16	5.69156
2161.6	6.50035
2163.05	6.9349
2164.49	7.66008
2165.93	8.09196
2167.38	8.62426
2168.82	7.55078
2170.26	7.98872
2171.7	8.09585
2173.14	7.75751
2174.58	8.15288
2176.03	8.14895
2177.47	8.04529
2178.91	7.80137
2180.35	7.36064
2181.79	7.14303
2183.23	6.91792
2184.67	7.07958
2186.1	6.65641
2187.54	7.36131
2188.98	7.569
2190.42	7.40634
2191.86	7.56911
2193.3	6.68801
2194.73	5.96387
2196.17	5.89521
2197.61	5.42694
2199.05	4.89814
2200.48	4.09289
2201.92	3.35398
2203.35	3.21153
2204.79	3.19723
2206.22	2.99847
2207.66	2.80459
2209.1	2.39525
2210.53	2.6939
2211.97	3.04384
2213.4	3.41196
2214.83	3.22698
2216.27	2.44933
2217.7	2.84144
2219.13	3.15683
2220.57	3.1937
2222	3.51273
2223.43	2.90909
2224.86	3.05918
2226.29	3.67635
2227.72	3.47891
2229.16	4.31622
2230.59	4.51297
2232.02	4.86648
2233.45	5.20727
2234.88	5.44071
2236.31	5.7333
2237.74	6.89507
2239.17	6.72938
2240.6	7.01437
2242.03	8.12416
2243.45	8.54707
2244.88	8.71311
2246.31	8.52668
2247.74	8.66653
2249.17	8.91704
2250.59	8.90984
2252.02	9.09274
2253.45	9.26172
2254.87	9.50987
2256.3	9.06108
2257.73	8.45628
2259.15	8.31993
2260.58	7.73834
2262	6.98714
2263.43	7.04652
2264.85	6.67683
2266.28	6.57367
2267.7	6.64111
2269.13	6.58107
2270.55	5.65614
2271.97	4.81194
2273.4	4.37939
2274.82	3.34485
2276.24	2.63856
2277.67	2.0601
2279.09	2.1867
2280.51	2.25807
2281.93	2.20466
2283.35	2.3722
2284.77	1.78979
2286.2	1.00921
2287.62	0.776303
2289.04	1.38417
2290.46	1.36481
2291.88	1.08423
2293.3	1.30171
2294.72	1.01244
2296.13	1.38432
2297.55	2.61488
2298.97	2.8128
2300.39	3.16783
2301.81	3.57926
2303.23	4.17127
2304.64	5.57664
2306.06	6.78503
2307.48	7.87087
2308.89	9.00224
2310.31	8.7838
2311.73	9.60095
2313.14	10.3881
2314.56	10.8057
2315.98	11.4733
2317.39	11.5953
2318.81	12.137
2320.22	12.8919
2321.64	12.7445
2323.05	12.2559
2324.46	13.0203
2325.88	13.2176
2327.29	13.2687
2328.7	12.8313
2330.12	12.9466
2331.53	13.1194
2332.94	13.3806
2334.35	13.5296
2335.77	12.8621
2337.18	11.8855
2338.59	10.7273
2340	10.2513
2341.41	9.02688
2342.82	8.67795
2344.23	8.01245
2345.64	7.37204
2347.05	7.10201
2348.46	5.88606
2349.87	5.36052
2351.28	4.35802
2352.69	3.97605
2354.1	2.77189
2355.51	2.02137
2356.91	1.25336
2358.32	1.51811
2359.73	1.2249
2361.14	0.716351
2362.54	0.617868
2363.95	1.02805
2365.36	1.68949
2366.76	1.75541
2368.17	2.02581
2369.58	1.60459
2370.98	1.73383
2372.39	1.97819
2373.79	2.37834
2375.2	2.57541
2376.6	2.16462
2378	1.73906
2379.41	2.10367
2380.81	2.14072
2382.22	2.5875
2383.62	2.90408
2385.02	2.95498
2386.43	2.64788
2387.83	2.39073
2389.23	2.39241
2390.63	2.43029
2392.03	2.56893
2393.44	2.76206
2394.84	3.92667
2396.24	3.59952
2397.64	3.23836
2399.04	3.00873
2400.44	3.34911
2401.84	3.3758
2403.24	3.76563
2404.64	3.10944
2406.04	3.57841
2407.44	4.13076
2408.84	4.80557
2410.23	4.95052
2411.63	4.72027
2413.03	5.3051
2414.43	5.50963
2415.83	5.56472
2417.22	6.01776
2418.62	7.25271
2420.02	7.49917
2421.41	8.77
2422.81	8.90007
2424.21	9.14058
2425.6	9.59594
2427	9.81219
2428.39	10.4031
2429.79	10.0964
2431.18	9.63071
2432.58	10.2114
2433.97	10.3236
2435.36	10.7833
2436.76	10.4643
2438.15	10.2616
2439.54	10.4174
2440.94	10.18
2442.33	9.93663
2443.72	9.95597
2445.12	9.98606
2446.51	10.1917
2447.9	10.3892
2449.29	10.6734
2450.68	10.0458
2452.07	9.72504
2453.46	9.62993
2454.85	9.21014
2456.24	8.75988
2457.64	8.24309
2459.02	7.54228
2460.41	6.88804
2461.8	6.46558
2463.19	5.60025
2464.58	5.29337
2465.97	4.99096
2467.36	4.78277
2468.75	4.31937
2470.13	3.97586
2471.52	4.46802
2472.91	4.16018
2474.3	3.05544
2475.68	2.91217
2477.07	2.5387
2478.45	1.90318
2479.84	1.6101
2481.23	1.80745
2482.61	1.96239
2484	1.93186
2485.38	1.66649
2486.77	1.7016
2488.15	1.63565
2489.54	0.909275
2490.92	2.33569
2492.3	1.46803
2493.69	1.43967
2495.07	0.832545
2496.45	1.33116
2497.84	1.09655
2499.22	1.10925
2500.6	0.957404
2501.98	1.87744
2503.36	2.4056
2504.75	3.26627
2506.13	2.4783
2507.51	2.55293
2508.89	3.17415
2510.27	3.27716
2511.65	3.80685
2513.03	4.73981
2514.41	4.8132
2515.79	4.719
2517.17	4.99638
2518.55	5.11991
2519.93	5.37064
2521.3	5.4348
2522.68	5.61797
2524.06	5.50837
2525.44	5.25911
2526.82	5.13685
2528.19	5.25589
2529.57	5.57599
2530.95	5.76217
2532.32	6.61678
2533.7	6.53145
2535.08	6.38009
2536.45	6.22336
2537.83	6.14428
2539.2	6.09771
2540.58	6.36168
2541.95	5.69778
2543.33	5.27616
2544.7	5.6271
2546.08	6.00757
2547.45	5.76096
2548.82	5.82237
2550.2	6.15588
2551.57	6.36369
2552.94	6.78049
2554.32	6.27601
2555.69	6.86861
2557.06	7.76271
2558.43	8.00783
2559.8	8.508
2561.18	8.52199
2562.55	8.15068
2563.92	8.18397
2565.29	8.29892
2566.66	7.9734
2568.03	8.31022
2569.4	8.31062
2570.77	8.27939
2572.14	8.23852
2573.51	8.24643
2574.88	8.29076
2576.25	8.38945
2577.61	8.75876
2578.98	9.0979
2580.35	9.57392
2581.72	9.86619
2583.09	10.02
2584.45	10.2828
2585.82	10.1601
2587.19	10.4856
2588.55	11.0933
2589.92	11.0981
2591.29	11.481
2592.65	10.726
2594.02	10.5421
2595.38	10.2471
2596.75	10.223
2598.11	10.2575
2599.48	9.53858
2600.84	9.45637
2602.21	8.61135
2603.57	7.77645
2604.93	7.50783
2606.3	6.62603
2607.66	5.89393
2609.02	5.64345
2610.39	4.85612
2611.75	4.75388
2613.11	4.87811
2614.47	4.50394
2615.83	4.43475
2617.19	4.60752
2618.56	4.82931
2619.92	4.62395
2621.28	4.13388
2622.64	3.4989
2624	3.99909
2625.36	3.34799
2626.72	2.58622
2628.08	2.58187
2629.44	1.97619
2630.8	1.56804
2632.15	2.05118
2633.51	2.10868
2634.87	2.46008
2636.23	2.52117
2637.59	3.25167
2638.94	3.43604
2640.3	4.58054
2641.66	4.91378
2643.02	4.62781
2644.37	4.31761
2645.73	4.93555
2647.09	5.59185
2648.44	6.15435
2649.8	6.30457
2651.15	6.32554
2652.51	6.83412
2653.86	6.8922
2655.22	7.58485
2656.57	7.63546
2657.93	7.00869
2659.28	6.71323
2660.63	6.40418
2661.99	6.49545
2663.34	6.08819
2664.69	6.61423
2666.05	6.63756
2667.4	5.87827
2668.75	5.2125
2670.1	4.53046
2671.45	4.64827
2672.81	5.24124
2674.16	5.73516
2675.51	6.09939
2676.86	6.38193
2678.21	6.74408
2679.56	7.059
2680.91	6.60871
2682.26	6.80668
2683.61	7.55317
2684.96	7.27649
2686.31	6.94372
2687.66	6.65635
2689	6.6462
2690.35	7.53465
2691.7	8.39544
2693.05	8.60643
2694.4	9.62257
2695.74	10.1689
2697.09	10.8202
2698.44	12.0761
2699.79	12.4206
2701.13	12.8287
2702.48	13.8696
2703.83	14.6317
2705.17	15.8003
2706.52	16.1299
2707.86	16.0533
2709.21	15.788
2710.55	15.8808
2711.9	16.9176
2713.24	17.2904
2714.58	17.8232
2715.93	18.0664
2717.27	18.0702
2718.62	18.1169
2719.96	18.6095
2721.3	18.1537
2722.65	18.6434
2723.99	18.306
2725.33	18.164
2726.67	17.5625
2728.01	17.7511
2729.35	17.3906
2730.7	16.9171
2732.04	16.309
2733.38	15.2575
2734.72	14.6695
2736.06	13.8765
2737.4	14.5226
2738.74	14.6294
2740.08	13.912
2741.42	13.6176
2742.76	12.5901
2744.1	11.6331
2745.43	10.514
2746.77	8.96484
2748.11	8.35362
2749.45	8.398
2750.79	7.34846
2752.12	6.1491
2753.46	5.02793
2754.8	4.59852
2756.14	4.05649
2757.47	3.93724
2758.81	3.5336
2760.14	2.80048
2761.48	2.45353
2762.81	2.03305
2764.15	1.68609
2765.49	1.61119
2766.82	1.00571
2768.16	1.25199
2769.49	1.79595
2770.82	1.56906
2772.16	1.42589
2773.49	0.691359
2774.82	-0.00238303
2776.16	0.177069
2777.49	0.328004
2778.82	0.694305
2780.16	-0.0265722
2781.49	0.106634
2782.82	0.50383
2784.15	0.512789
2785.48	0.767896
2786.82	1.16176
2788.15	0.873892
2789.48	1.10979
2790.81	0.582355
2792.14	1.15915
2793.47	1.17482
2794.8	1.76126
2796.13	1.45233
2797.46	1.46923
2798.79	1.97503
2800.12	2.51259
2801.44	2.9655
2802.77	2.82242
2804.1	3.77445
2805.43	3.54453
2806.76	3.32953
2808.08	2.95972
2809.41	2.37253
2810.74	1.80153
2812.07	1.39483
2813.39	2.12362
2814.72	2.71941
2816.05	2.86681
2817.37	2.85059
2818.7	2.80454
2820.02	3.5015
2821.35	4.56374
2822.67	5.85846
2824	7.58308
2825.32	8.63724
2826.65	10.1214
2827.97	11.306
2829.3	12.9468
2830.62	14.4069
2831.94	16.2029
2833.26	18.4836
2834.59	21.1535
2835.91	23.2172
2837.23	24.9726
2838.56	27.4025
2839.88	29.5601
2841.2	33.0508
2842.52	36.401
2843.84	39.3232
2845.16	42.2316
2846.48	45.1569
2847.8	49.1731
2849.12	53.2713
2850.45	57.3504
2851.77	60.9423
2853.08	64.8446
2854.4	68.8776
2855.72	73.4045
2857.04	77.5897
2858.36	82.2137
2859.68	86.3803
2861	90.3753
2862.32	94.4664
2863.63	98.1897
2864.95	102.255
2866.27	105.702
2867.59	109.143
2868.9	112.48
2870.22	115.609
2871.54	117.958
2872.85	120.139
2874.17	123.438
2875.48	125.597
2876.8	128.104
2878.11	130.339
2879.43	133.149
2880.74	134.759
2882.06	136.618
2883.37	138.606
2884.69	139.587
2886	141.84
2887.31	143.765
2888.63	145.812
2889.94	146.777
2891.25	148.316
2892.57	150.498
2893.88	151.54
2895.19	153.405
2896.5	154.89
2897.82	156.844
2899.13	159.518
2900.44	161.693
2901.75	163.714
2903.06	165.769
2904.37	169.674
2905.68	172.23
2906.99	176.272
2908.3	179.62
2909.61	183.725
2910.92	187.805
2912.23	191.657
2913.54	196.038
2914.85	200.463
2916.16	204.49
2917.46	208.07
2918.77	212.156
2920.08	215.62
2921.39	219.053
2922.7	222.271
2924	224.922
2925.31	226.769
2926.62	228.486
2927.92	229.939
2929.23	230.449
2930.54	231.04
2931.84	231.565
2933.15	231.094
2934.45	230.46
2935.76	229.236
2937.06	227.896
2938.37	226.524
2939.67	224.781
2940.98	221.179
2942.28	218.561
2943.58	215.061
2944.89	212.015
2946.19	208.301
2947.49	204.786
2948.8	201.202
2950.1	196.696
2951.4	193.61
2952.7	189.936
2954.01	185.522
2955.31	181.282
2956.61	177.805
2957.91	173.754
2959.21	169.153
2960.51	165.556
2961.81	161.652
2963.11	157.902
2964.41	154.442
2965.71	150.764
2967.01	146.726
2968.31	143.854
2969.61	141.166
2970.91	137.294
2972.21	134.67
2973.51	131.553
2974.81	128.095
2976.1	124.127
2977.4	120.794
2978.7	118.075
2980	114.845
2981.29	110.823
2982.59	106.707
2983.89	103.122
2985.18	99.2107
2986.48	95.1291
2987.78	90.4926
2989.07	85.8242
2990.37	81.2298
2991.66	77.3857
2992.96	73.1162
2994.25	68.3775
2995.55	64.9016
2996.84	61.026
2998.14	56.3009
2999.43	52.7059
3000.73	49.0508
3002.02	44.802
3003.31	40.8151
3004.61	37.2434
3005.9	33.5239
3007.19	30.391
3008.48	27.8419
3009.77	25.8954
3011.07	23.9854
3012.36	21.9562
3013.65	19.1371
3014.94	17.0784
3016.23	15.45
3017.52	13.6153
3018.81	11.9724
3020.1	10.7042
3021.4	9.18447
3022.68	8.3888
3023.97	7.61976
3025.26	6.28192
3026.55	4.77065
3027.84	4.16285
3029.13	3.49682
3030.42	2.95615
3031.71	1.90829
3033	1.95434
3034.28	1.66522
3035.57	1.8496
3036.86	1.98526
3038.15	2.56902
3039.43	2.62197
3040.72	3.12236
3042.01	4.17216
3043.29	4.92154
3044.58	5.35269
3045.87	5.3599
3047.15	5.64324
3048.44	6.41577
3049.72	6.37511
3051.01	6.39728
3052.29	6.26243
3053.58	6.95338
3054.86	7.48621
3056.15	8.24869
3057.43	8.66006
3058.71	8.33101
3060	9.06297
3061.28	8.61225
3062.56	8.78617
3063.84	9.1725
3065.13	8.72216
3066.41	7.80353
3067.69	7.76829
3068.97	8.0513
3070.26	7.43721
3071.54	7.51604
3072.82	7.22367
3074.1	6.71666
3075.38	6.00396
3076.66	5.08418
3077.94	4.59596
3079.22	4.37816
3080.5	3.77103
3081.78	3.12333
3083.06	2.46985
3084.34	2.00228
3085.62	1.14657
3086.9	0.871797
3088.18	0.17069
3089.45	-1.01959
3090.73	-1.19302
3092.01	-0.951666
3093.29	-1.2219
3094.56	-0.876554
3095.84	-0.830538
3097.12	-0.160964
3098.4	-0.173277
3099.67	0.285329
3100.95	0.400193
3102.22	0.898927
3103.5	0.953364
3104.78	1.85421
3106.05	2.27403
3107.33	2.10035
3108.6	2.20072
3109.88	2.42255
3111.15	3.06591
3112.43	3.73081
3113.7	4.55303
3114.97	4.93459
3116.25	5.37401
3117.52	6.93871
3118.79	7.68559
3120.07	8.56676
3121.34	9.24493
3122.61	9.48782
3123.88	10.7847
3125.16	11.1315
3126.43	12.3985
3127.7	13.2021
3128.97	13.4501
3130.24	14.4165
3131.51	15.7499
3132.79	17.0954
3134.06	17.6445
3135.33	19.1639
3136.6	20.112
3137.87	21.4836
3139.14	22.7997
3140.41	24.0731
3141.67	25.4009
3142.94	26.7404
3144.21	28.3603
3145.48	30.1965
3146.75	31.849
3148.02	33.8501
3149.29	36.4228
