#Acq. time (s)=	45
#Accumulations=	2
#Range (cm-¹)=	200...3150
#Windows=	2
#Auto scanning=	Off
#Autofocus=	Off
#Macrospot=	Off
#AutoExposure=	Off
#Spike filter=	Multiple accum.
#Delay time (s)=	0
#Binning=	1
#Readout mode=	Signal
#DeNoise=	Off
#ICS correction=	On
#Dark correction=	Off
#Inst. Process=	Off
#Detector Gain=	Best Dynamic Range
#Detector ADC=	20 kHz       
#Detector temperature (°C)=	-69.85
#Instrument=	LabRAM HR Evol
#Detector=	Synapse
#Objective=	x100
#Grating=	600 gr/mm
#ND Filter=	100%
#Laser (nm)=	532 
#Hole=	100.021
#Range=	Auto
#Laser Pol.=	No
#Raman. Pol.=	No
#Laser Pol. (°)=	-0.0007625
#Raman Pol. (°)=	89.9995
#Collection=	Microscope
#StageXY=	Marzhauser
#StageZ=	Marzhauser
#X (µm)=	-5139.9
#Y (µm)=	1481.1
#Z (µm)=	63.15
#Full time(mm:ss)=	3:18
#Project=	
#Sample=	
#Site=	
#Title=	Thy_50_12_19_2x_45s_532 nm_x100_100%_600 gr_mm
#Remark=	
#Date=	07.07.2022 10:37
#Acquired=	07.07.2022 10:37:40
#Base:Fit=	10.08.2022 10:04:29
#Base:Sub=	10.08.2022 10:04:45
#Filter:Polynom=	16.08.2022 10:20:24
#AxisType[0]=Intens
#AxisUnit[0]=Cnt
#AxisType[1]=Spectr
#AxisUnit[1]=1/cm
200.43	17.0388
202.246	16.1406
204.061	15.6914
205.875	15.6286
207.688	15.8794
209.501	15.7724
211.316	15.543
213.129	15.1377
214.941	14.6157
216.753	14.8141
218.566	13.5461
220.377	13.0043
222.188	11.3255
223.999	9.99911
225.809	9.89415
227.618	9.06856
229.43	8.40282
231.239	8.41881
233.047	8.10658
234.855	7.81902
236.663	7.29245
238.471	7.06746
240.278	6.82479
242.087	5.99199
243.894	5.4778
245.7	5.38086
247.506	5.10216
249.311	4.84817
251.116	4.12882
252.921	3.3904
254.725	3.59285
256.529	3.20481
258.333	4.48965
260.136	4.45557
261.939	4.52806
263.744	4.17023
265.546	3.27775
267.348	3.14659
269.15	3.47556
270.951	4.11606
272.752	5.15405
274.552	5.32463
276.353	5.33184
278.152	5.46929
279.952	5.81985
281.751	5.21625
283.55	4.49956
285.348	4.51835
287.146	4.24579
288.942	6.07864
290.739	6.55553
292.536	7.81145
294.333	8.91625
296.129	9.40687
297.925	8.48408
299.721	8.87583
301.516	9.40692
303.311	9.90883
305.106	9.56098
306.9	9.96606
308.694	8.84194
310.486	9.14246
312.279	8.87991
314.072	9.69738
315.864	10.9437
317.656	10.5102
319.448	10.3923
321.24	11.0676
323.029	11.6024
324.819	11.9112
326.61	11.842
328.4	11.9724
330.19	12.0163
331.977	11.8856
333.766	12.5684
335.555	13.0097
337.343	13.7429
339.131	12.8946
340.917	12.5107
342.704	12.0818
344.491	12.1812
346.277	12.5336
348.062	12.2594
349.848	11.3976
351.633	10.3793
353.416	10.0434
355.201	9.50613
356.986	8.96715
358.77	8.94966
360.552	7.96715
362.335	7.00748
364.118	6.27451
365.899	5.92462
367.682	5.62414
369.464	4.74294
371.243	3.53504
373.025	3.71992
374.806	3.28324
376.585	3.46405
378.365	4.55206
380.143	4.12863
381.923	4.00651
383.702	3.52577
385.479	2.66511
387.258	1.95666
389.034	2.44762
390.812	2.00276
392.59	1.3949
394.365	1.07512
396.142	0.610546
397.916	0.315884
399.693	0.639893
401.467	0.505254
403.242	0.292206
405.015	0.368042
406.79	0.323102
408.565	1.09117
410.337	1.63741
412.111	1.99325
413.882	1.07486
415.656	1.53803
417.426	1.67214
419.197	2.14002
420.969	2.29024
422.739	2.45613
424.51	2.65586
426.279	2.15977
428.05	1.64793
429.819	2.63152
431.589	3.32174
433.356	4.14373
435.124	5.58058
436.893	5.08029
438.66	5.58504
440.428	5.5334
442.194	5.60146
443.96	5.45693
445.727	5.851
447.492	6.34267
449.259	6.20317
451.023	6.40947
452.787	7.64564
454.553	8.40988
456.316	8.30254
458.079	7.79463
459.844	9.24587
461.606	9.64167
463.368	10.4148
465.132	11.2474
466.893	11.6372
468.654	11.1283
470.415	11.7419
472.177	11.963
473.937	12.51
475.696	12.9411
477.456	13.4503
479.217	13.7053
480.975	14.1936
482.733	14.0362
484.491	13.2133
486.251	14.0708
488.008	14.1718
489.765	15.0807
491.522	16.0376
493.278	17.117
495.036	17.7032
496.791	17.4723
498.546	16.8536
500.301	17.1284
502.056	17.3922
503.81	17.6504
505.566	17.457
507.319	17.224
509.073	16.71
510.825	16.9364
512.578	17.337
514.33	17.4693
516.082	17.9303
517.833	18.9143
519.587	19.3093
521.337	19.1107
523.088	19.0118
524.838	18.5168
526.588	18.5128
528.337	18.0941
530.087	17.1858
531.835	17.8
533.584	17.1556
535.332	16.7372
537.08	16.9614
538.827	16.9773
540.574	17.9363
542.321	17.1379
544.068	15.8951
545.814	15.114
547.56	14.8635
549.305	14.0511
551.05	14.4053
552.795	13.0224
554.54	12.5888
556.284	11.7989
558.027	11.8482
559.771	11.8377
561.514	11.9429
563.257	12.3889
564.999	12.1221
566.742	12.1427
568.481	12.1864
570.223	11.3475
571.964	11.9412
573.705	12.9419
575.445	13.03
577.185	13.2005
578.925	12.2293
580.665	11.5068
582.402	10.5356
584.141	9.5076
585.879	8.43827
587.617	8.17155
589.355	7.73004
591.092	6.67423
592.828	6.40443
594.564	6.34144
596.301	6.36144
598.037	6.59592
599.773	5.5836
601.506	5.71494
603.242	5.89942
604.976	6.54686
606.711	6.84593
608.443	6.53163
610.177	6.72292
611.91	7.38055
613.644	7.89124
615.374	8.39337
617.107	7.41522
618.839	8.79549
620.569	8.84519
622.3	9.71698
624.032	10.2788
625.761	10.4535
627.491	11.4508
629.221	11.4309
630.949	11.8184
632.679	12.7203
634.408	12.9173
636.135	14.0026
637.863	15.4446
639.592	16.8713
641.318	18.5288
643.045	19.6774
644.77	20.796
646.497	22.1429
648.224	22.8845
649.948	23.9205
651.674	24.4395
653.398	25.0271
655.123	25.7873
656.846	26.3108
658.57	26.287
660.293	25.7858
662.017	26.4169
663.738	25.6556
665.462	26.5418
667.185	26.7893
668.905	26.8611
670.628	26.9987
672.348	27.3738
674.067	27.8823
675.789	27.7338
677.508	27.6778
679.228	27.7721
680.947	27.8309
682.667	27.4738
684.385	27.2479
686.104	27.2999
687.821	29.175
689.538	30.5648
691.256	30.9855
692.972	31.6867
694.69	32.0346
696.406	33.184
698.121	33.9828
699.837	34.8568
701.552	35.1606
703.268	35.4923
704.982	36.8429
706.695	37.498
708.41	37.5734
710.123	38.3251
711.836	39.5015
713.55	40.2552
715.262	41.1561
716.973	40.956
718.685	41.582
720.398	42.6363
722.108	44.9161
723.818	47.2311
725.53	48.3615
727.24	48.8179
728.949	49.0919
730.658	49.4045
732.369	50.2435
734.077	50.6554
735.785	51.6417
737.493	52.6885
739.2	53.7211
740.909	55.0005
742.616	55.2358
744.322	55.4337
746.028	56.8638
747.734	59.102
749.441	59.2321
751.146	61.4865
752.851	61.4007
754.555	63.2225
756.26	64.678
757.963	65.5636
759.667	66.7181
761.372	67.2701
763.075	68.1779
764.777	69.1835
766.479	69.8555
768.181	70.7074
769.883	72.0003
771.584	73.8709
773.285	75.3412
774.986	76.455
776.686	76.7416
778.386	77.9291
780.085	79.3744
781.785	81.1035
783.484	82.0839
785.182	82.1932
786.881	82.6934
788.579	83.5986
790.276	84.5893
791.974	85.7515
793.671	85.7915
795.367	87.541
797.064	87.8558
798.76	88.0579
800.456	88.4635
802.151	88.7216
803.846	89.8129
805.541	90.426
807.236	90.8501
808.93	90.4799
810.624	90.3794
812.317	89.6077
814.01	89.4693
815.703	88.7588
817.394	88.1481
819.086	88.0479
820.778	88.1709
822.47	87.8549
824.161	87.0481
825.852	86.1296
827.543	85.2532
829.231	84.8492
830.921	84.4773
832.611	83.1761
834.3	81.7149
835.989	80.9572
837.676	80.31
839.364	80.0633
841.053	77.7599
842.74	75.2225
844.426	72.9119
846.113	69.6808
847.8	68.3717
849.486	66.8615
851.171	64.5985
852.857	63.3659
854.542	63.7268
856.227	62.8797
857.911	62.5416
859.595	61.7522
861.279	60.1036
862.961	58.6489
864.645	57.3416
866.329	57.2149
868.01	56.1435
869.692	55.6699
871.375	56.1763
873.055	56.1708
874.737	54.9584
876.418	54.0511
878.097	53.3452
879.778	53.4527
881.457	52.2904
883.137	52.4313
884.817	52.2805
886.495	52.6324
888.174	52.5493
889.851	52.0485
891.53	52.1682
893.206	51.8563
894.884	52.8547
896.562	52.2849
898.237	53.139
899.914	52.4375
901.589	53.0589
903.265	53.386
904.94	53.218
906.615	53.4459
908.289	53.2593
909.964	53.1114
911.637	52.3339
913.31	52.3114
914.984	51.8326
916.656	50.8381
918.33	51.1961
920.001	50.7719
921.674	49.9106
923.345	47.9649
925.015	45.7411
926.687	44.0995
928.357	42.6746
930.028	41.5847
931.698	41.5652
933.366	40.315
935.037	39.8303
936.705	40.5809
938.373	40.496
940.043	38.7793
941.71	38.1294
943.379	36.2719
945.046	35.2385
946.712	35.3071
948.378	35.3895
950.046	36.3151
951.711	36.9707
953.376	36.8046
955.043	36.0047
956.708	34.556
958.372	33.7008
960.036	34.1068
961.701	33.8293
963.364	33.9305
965.027	33.6509
966.69	33.6032
968.354	33.5482
970.016	34.5301
971.678	34.4475
973.339	34.0607
975	34.5587
976.661	34.526
978.324	34.421
979.984	34.1208
981.644	34.1198
983.303	33.6266
984.962	33.6689
986.621	33.4245
988.282	33.4895
989.94	33.3103
991.598	33.6659
993.256	33.8245
994.913	33.9309
996.57	34.499
998.227	34.1877
999.884	33.8369
1001.54	33.1541
1003.2	31.9393
1004.85	30.4235
1006.51	29.6843
1008.16	29.2734
1009.82	29.5284
1011.47	28.9773
1013.12	29.0158
1014.78	28.9657
1016.43	29.3432
1018.08	29.7027
1019.74	29.0343
1021.39	28.6845
1023.04	28.4399
1024.69	29.9027
1026.34	29.4369
1028	30.001
1029.65	29.9297
1031.3	30.4672
1032.95	31.0783
1034.6	30.7182
1036.25	29.8313
1037.9	28.6605
1039.55	28.8186
1041.19	28.8556
1042.84	28.6994
1044.49	27.2856
1046.14	27.2656
1047.79	27.1103
1049.43	27.3387
1051.08	28.1379
1052.73	28.1606
1054.37	26.6116
1056.02	26.2435
1057.66	25.9019
1059.31	24.5319
1060.95	22.8236
1062.6	22.5945
1064.24	21.8882
1065.88	21.2395
1067.53	20.0623
1069.17	19.6735
1070.81	19.1464
1072.46	19.26
1074.1	18.6521
1075.74	17.7957
1077.38	16.5111
1079.02	16.184
1080.66	15.3399
1082.3	13.901
1083.94	12.5489
1085.58	12.0763
1087.22	11.799
1088.86	12.4371
1090.5	12.0489
1092.14	12.3384
1093.78	11.835
1095.42	11.9978
1097.05	11.2524
1098.69	12.2023
1100.33	12.473
1101.97	12.5559
1103.6	13.5383
1105.24	13.8687
1106.87	14.1685
1108.51	13.9384
1110.15	13.649
1111.78	13.2154
1113.41	13.8982
1115.05	13.7752
1116.68	13.1212
1118.31	13.9357
1119.95	13.4832
1121.58	13.6476
1123.21	12.3554
1124.85	12.6073
1126.48	12.2281
1128.11	13.0836
1129.74	13.5592
1131.37	14.0468
1133	14.1808
1134.63	13.0599
1136.26	11.8414
1137.89	11.0188
1139.52	10.1464
1141.15	8.72447
1142.78	8.34031
1144.41	8.43845
1146.04	7.23736
1147.66	6.7388
1149.29	6.11745
1150.92	6.06151
1152.55	5.6942
1154.17	5.24862
1155.8	4.08161
1157.43	4.35667
1159.05	3.98342
1160.68	3.29793
1162.3	1.92547
1163.93	1.59649
1165.55	2.37283
1167.17	2.44322
1168.8	2.83426
1170.42	3.06389
1172.05	2.60521
1173.67	2.77221
1175.29	1.8366
1176.91	2.05874
1178.54	1.67304
1180.16	2.24058
1181.78	1.99492
1183.4	1.76959
1185.02	1.47313
1186.64	1.31451
1188.26	0.548898
1189.88	0.696114
1191.5	0.670562
1193.12	0.866486
1194.74	0.738192
1196.36	1.05715
1197.97	0.847782
1199.59	1.77061
1201.21	2.12023
1202.83	1.89657
1204.44	2.26986
1206.06	3.85195
1207.68	5.23827
1209.29	6.24831
1210.91	8.04313
1212.52	8.5443
1214.14	8.95287
1215.75	9.15761
1217.37	9.84087
1218.98	10.5298
1220.6	12.2044
1222.21	13.2443
1223.82	14.838
1225.44	16.1061
1227.05	17.7464
1228.66	19.0607
1230.27	19.635
1231.88	20.7868
1233.49	22.5911
1235.1	23.8695
1236.72	24.4697
1238.33	25.8549
1239.94	26.9901
1241.55	28.1411
1243.16	29.9052
1244.76	30.7599
1246.37	31.8743
1247.98	32.7085
1249.59	34.5744
1251.2	35.2167
1252.8	35.8361
1254.41	37.2371
1256.02	37.67
1257.63	39.3842
1259.23	40.2231
1260.84	41.2696
1262.44	42.1541
1264.05	43.1544
1265.66	43.3897
1267.26	44.1497
1268.87	44.2919
1270.47	45.0154
1272.07	45.6791
1273.68	45.5503
1275.28	46.5264
1276.88	47.6661
1278.48	47.9038
1280.09	49.0174
1281.69	49.5863
1283.29	50.0419
1284.89	51.3613
1286.49	52.4605
1288.09	52.9178
1289.69	52.1012
1291.3	52.8423
1292.9	51.6079
1294.49	51.2367
1296.09	51.1256
1297.69	50.847
1299.29	51.3366
1300.89	51.8972
1302.49	51.8376
1304.09	52.0824
1305.68	51.8787
1307.28	51.7295
1308.88	50.8975
1310.47	51.2194
1312.07	51.4604
1313.66	51.6286
1315.26	50.9818
1316.86	50.2402
1318.45	50.5762
1320.05	50.049
1321.64	49.086
1323.23	47.999
1324.83	47.0438
1326.42	47.8343
1328.01	46.9623
1329.61	46.4698
1331.2	45.8458
1332.79	45.3571
1334.38	45.7131
1335.98	45.3306
1337.57	45.3822
1339.16	44.1543
1340.75	42.8167
1342.34	42.4932
1343.93	41.745
1345.52	40.2496
1347.11	39.046
1348.7	38.4147
1350.29	37.9814
1351.87	37.599
1353.46	37.3686
1355.05	37.0654
1356.64	36.7944
1358.23	36.359
1359.81	35.9851
1361.4	34.436
1362.99	33.6121
1364.57	32.3399
1366.16	31.2228
1367.74	30.0398
1369.33	29.3558
1370.91	29.4089
1372.5	27.7982
1374.08	27.1707
1375.67	27.2878
1377.25	27.2432
1378.83	27.541
1380.42	26.8629
1382	26.9072
1383.58	26.5862
1385.16	26.6582
1386.75	25.7969
1388.33	25.1569
1389.91	24.9141
1391.49	24.8759
1393.07	24.097
1394.65	23.5038
1396.23	22.9177
1397.81	22.9154
1399.39	23.3981
1400.97	24.3611
1402.55	24.8752
1404.13	25.9058
1405.7	27.3088
1407.28	27.0831
1408.86	28.1877
1410.44	29.1694
1412.01	30.7597
1413.59	32.7421
1415.17	32.3417
1416.74	32.9643
1418.32	34.8943
1419.89	37.3125
1421.47	39.5177
1423.05	41.3387
1424.62	43.5937
1426.19	46.0203
1427.77	48.3584
1429.34	49.9042
1430.92	51.388
1432.49	53.366
1434.06	54.8572
1435.63	56.1136
1437.2	56.8453
1438.78	57.6692
1440.35	58.5568
1441.92	59.2267
1443.49	59.4088
1445.06	59.3554
1446.63	59.2823
1448.2	59.4931
1449.77	59.4163
1451.34	58.4236
1452.91	58.2353
1454.48	58.2542
1456.05	57.1881
1457.62	55.5508
1459.18	53.9274
1460.75	52.2064
1462.32	49.3141
1463.89	47.3875
1465.45	44.8423
1467.02	43.3013
1468.59	41.512
1470.15	39.4419
1471.72	37.0905
1473.28	35.9981
1474.85	34.4278
1476.41	32.5037
1477.98	30.6109
1479.54	28.7908
1481.11	26.761
1482.67	24.6882
1484.23	22.2818
1485.8	20.2036
1487.36	19.1469
1488.92	18.3178
1490.48	17.5509
1492.05	15.8646
1493.61	15.1602
1495.17	15.5491
1496.73	15.5999
1498.29	14.8494
1499.85	15.2619
1501.41	14.5088
1502.97	13.9417
1504.53	13.1409
1506.09	12.8047
1507.65	12.799
1509.2	12.5388
1510.76	12.9816
1512.32	12.714
1513.88	12.4865
1515.44	12.894
1516.99	13.3393
1518.55	13.6007
1520.1	13.4745
1521.66	13.6993
1523.22	14.3839
1524.77	15.5348
1526.33	16.3863
1527.88	17.2139
1529.44	17.5115
1530.99	17.7375
1532.55	18.8047
1534.1	19.518
1535.65	20.0658
1537.21	21.2668
1538.76	22.7379
1540.31	23.7858
1541.86	25.2453
1543.42	26.7542
1544.97	27.6614
1546.52	28.9012
1548.07	29.7957
1549.62	31.341
1551.17	32.4684
1552.72	33.1776
1554.27	33.5115
1555.82	34.548
1557.37	35.2175
1558.92	35.5357
1560.47	35.8131
1562.02	36.5769
1563.57	37.2997
1565.11	38.1593
1566.66	38.4288
1568.21	39.5526
1569.75	40.5927
1571.3	41.8147
1572.85	42.2239
1574.39	43.3582
1575.94	44.4157
1577.49	45.1891
1579.03	45.0851
1580.58	45.7958
1582.12	46.4194
1583.67	46.7207
1585.21	46.2783
1586.75	46.287
1588.3	46.3351
1589.84	46.9464
1591.38	47.6065
1592.93	47.579
1594.47	47.4508
1596.01	46.966
1597.55	46.5815
1599.09	46.3531
1600.63	46.3446
1602.18	45.8274
1603.72	45.1028
1605.26	45.4011
1606.8	45.103
1608.34	43.8164
1609.87	43.7811
1611.41	43.9677
1612.95	44.0177
1614.49	44.5148
1616.03	44.6801
1617.57	44.5801
1619.11	44.4779
1620.64	45.0201
1622.18	44.8693
1623.72	45.2075
1625.25	45.4771
1626.79	46.4735
1628.32	46.4473
1629.86	47.1628
1631.4	47.5602
1632.93	47.9955
1634.47	48.4118
1636	49.0766
1637.53	50.4437
1639.07	51.4529
1640.6	52.8989
1642.14	54.8379
1643.67	54.9045
1645.2	55.9804
1646.73	56.3644
1648.27	57.2759
1649.8	57.8367
1651.33	58.7296
1652.86	58.6252
1654.39	58.5883
1655.92	59.4213
1657.45	58.6135
1658.98	58.57
1660.51	56.9057
1662.04	56.3056
1663.57	56.4342
1665.1	55.469
1666.63	54.7111
1668.16	53.0189
1669.69	51.6227
1671.21	50.8578
1672.74	48.9188
1674.27	47.4012
1675.79	45.6771
1677.32	44.0962
1678.85	42.496
1680.37	40.4299
1681.9	38.5068
1683.42	36.1554
1684.95	35.1088
1686.47	34.1037
1688	33.2207
1689.52	31.5381
1691.05	29.692
1692.57	28.1771
1694.1	27.0869
1695.62	25.2891
1697.14	24.0468
1698.66	21.8353
1700.19	21.1049
1701.71	20.2547
1703.23	19.2164
1704.75	17.6743
1706.27	16.9898
1707.79	16.2313
1709.32	15.715
1710.83	14.8287
1712.35	14.7312
1713.88	14.6674
1715.39	13.0248
1716.91	12.0729
1718.43	11.1435
1719.95	10.408
1721.47	10.4875
1722.99	10.5758
1724.5	10.828
1726.02	10.3535
1727.54	9.9366
1729.06	9.62813
1730.57	9.35203
1732.09	9.1725
1733.61	8.25684
1735.12	7.7916
1736.64	7.21014
1738.15	8.05758
1739.67	7.79768
1741.18	7.24513
1742.7	6.99959
1744.21	7.08111
1745.72	6.95815
1747.24	6.40279
1748.75	5.57839
1750.26	5.37757
1751.78	5.30148
1753.29	4.98645
1754.8	3.93738
1756.31	3.16941
1757.82	3.42796
1759.34	3.35626
1760.85	3.38342
1762.36	2.0983
1763.87	2.2389
1765.38	1.94561
1766.89	1.55613
1768.4	1.68085
1769.91	1.24661
1771.41	1.10237
1772.92	0.815663
1774.43	0.57304
1775.94	1.31319
1777.45	1.18871
1778.96	1.1356
1780.46	1.19008
1781.97	2.0701
1783.48	2.32801
1784.98	1.73907
1786.49	1.38415
1788	1.74998
1789.5	1.54933
1791.01	1.33284
1792.51	1.80446
1794.01	2.99902
1795.52	3.74329
1797.02	3.30105
1798.53	3.1983
1800.03	2.7441
1801.54	3.00569
1803.04	3.20548
1804.54	3.28042
1806.04	3.00039
1807.54	3.11181
1809.05	2.94785
1810.55	2.927
1812.05	3.36619
1813.55	3.53982
1815.05	3.2674
1816.55	3.29591
1818.05	3.09007
1819.55	2.96144
1821.05	3.02945
1822.55	2.59902
1824.05	2.49138
1825.55	2.5594
1827.05	2.5112
1828.55	2.25983
1830.04	2.04931
1831.54	2.25134
1833.04	2.15507
1834.54	2.22089
1836.03	2.56504
1837.53	2.50898
1839.03	2.64723
1840.52	1.69979
1842.02	1.47192
1843.51	1.7732
1845.01	1.59138
1846.5	1.73503
1848	2.21122
1849.49	2.24255
1850.99	1.76565
1852.48	1.45463
1853.97	1.34778
1855.47	1.80102
1856.96	2.40977
1858.45	2.36357
1859.94	1.92775
1861.44	2.90355
1862.93	3.33243
1864.42	3.50266
1865.91	3.75929
1867.4	3.93875
1868.89	4.95738
1870.38	4.56626
1871.87	4.20728
1873.36	4.55381
1874.85	4.72292
1876.34	5.47262
1877.83	4.82374
1879.32	4.99996
1880.81	5.14792
1882.3	4.68856
1882.56	4.57831
1884.06	5.26621
1885.55	5.79999
1887.04	6.4292
1888.54	6.46471
1890.03	6.3993
1891.52	7.04062
1893.02	7.27856
1894.51	7.37502
1896	7.49416
1897.49	7.73354
1898.99	7.7372
1900.48	7.50331
1901.97	7.56805
1903.46	7.36933
1904.95	7.47926
1906.44	7.40022
1907.93	7.41933
1909.42	6.97066
1910.91	6.85816
1912.4	6.15269
1913.89	6.14998
1915.38	6.54642
1916.86	6.71044
1918.35	6.90806
1919.84	6.78203
1921.33	7.21418
1922.82	6.39568
1924.3	5.91217
1925.79	6.46696
1927.28	6.42119
1928.76	7.1657
1930.25	6.9331
1931.74	5.63004
1933.22	5.12709
1934.71	5.83517
1936.19	5.8288
1937.67	5.73746
1939.16	5.58087
1940.64	5.27491
1942.13	5.38255
1943.61	5.07423
1945.09	4.65583
1946.58	4.69367
1948.06	4.32186
1949.54	4.38272
1951.03	4.13323
1952.51	4.13001
1953.99	3.83115
1955.47	3.97307
1956.95	4.58212
1958.43	4.58248
1959.91	4.7786
1961.39	4.59824
1962.87	4.77439
1964.35	4.94831
1965.83	5.65233
1967.31	5.35403
1968.79	5.80159
1970.27	5.9387
1971.75	5.26702
1973.22	4.34783
1974.7	3.94012
1976.18	4.01321
1977.66	3.98274
1979.13	4.00649
1980.61	3.55184
1982.09	3.10938
1983.56	3.22224
1985.04	3.47267
1986.52	2.88341
1987.99	3.31547
1989.47	2.99417
1990.94	3.04472
1992.41	2.94751
1993.89	2.2983
1995.36	2.32175
1996.84	1.24905
1998.31	0.997732
1999.78	0.993773
2001.26	0.274255
2002.73	0.353781
2004.2	-0.777982
2005.67	-1.1146
2007.15	0.0433789
2008.62	0.156353
2010.09	0.0298157
2011.56	-0.0255532
2013.03	-0.221416
2014.5	0.0487138
2015.97	0.284207
2017.44	0.583943
2018.91	0.70248
2020.38	1.99102
2021.85	2.44157
2023.32	3.08643
2024.79	3.25237
2026.25	3.23223
2027.72	3.71305
2029.19	4.34001
2030.66	4.74639
2032.13	5.23688
2033.59	6.78527
2035.06	7.11264
2036.53	7.19719
2037.99	6.92313
2039.46	7.48571
2040.92	7.44697
2042.39	7.6635
2043.85	7.19175
2045.32	7.30913
2046.78	7.68802
2048.25	8.9188
2049.71	9.61922
2051.18	9.64872
2052.64	9.81855
2054.1	9.84899
2055.56	9.8971
2057.03	10.6971
2058.49	11.2986
2059.95	11.8773
2061.42	12.6467
2062.88	12.6885
2064.34	12.6737
2065.8	13.1176
2067.26	13.0722
2068.72	13.4764
2070.18	14.0207
2071.64	15.0954
2073.1	16.0194
2074.56	16.5822
2076.02	17.2391
2077.48	17.61
2078.94	18.5954
2080.39	19.3275
2081.85	19.3023
2083.31	20.1145
2084.77	20.7096
2086.22	21.2745
2087.68	22.4061
2089.14	23.2455
2090.6	24.3301
2092.05	25.4262
2093.51	26.5033
2094.96	27.2293
2096.42	28.0797
2097.87	28.467
2099.33	29.176
2100.78	30.3322
2102.24	31.2587
2103.69	31.9997
2105.15	32.4381
2106.6	33.6455
2108.05	34.2326
2109.51	35.348
2110.96	36.9558
2112.41	38.6046
2113.86	39.2837
2115.32	40.7735
2116.77	42.6532
2118.22	44.2884
2119.67	45.5985
2121.12	46.4377
2122.57	47.2569
2124.02	48.4984
2125.47	50.5773
2126.92	52.0182
2128.37	53.3804
2129.82	55.7433
2131.27	57.1161
2132.72	58.2854
2134.17	59.4234
2135.62	60.5197
2137.06	62.1138
2138.51	63.6197
2139.96	64.9313
2141.41	66.8635
2142.85	68.7147
2144.3	69.8804
2145.75	71.4034
2147.19	72.1611
2148.64	73.0875
2150.09	73.5204
2151.53	74.0544
2152.97	74.6813
2154.42	75.5865
2155.86	77.0417
2157.31	77.8285
2158.75	78.8594
2160.2	79.2522
2161.64	79.3685
2163.08	79.5818
2164.53	80.5959
2165.97	80.7714
2167.41	80.674
2168.86	81.1057
2170.3	81.0577
2171.74	81.4481
2173.18	81.1672
2174.62	80.8992
2176.06	80.5854
2177.5	80.3318
2178.94	80.2406
2180.38	79.74
2181.82	79.3902
2183.26	78.7895
2184.7	77.8453
2186.14	76.8872
2187.58	76.2749
2189.02	75.341
2190.46	74.2278
2191.89	73.2332
2193.33	72.0875
2194.77	71.5841
2196.21	70.6928
2197.64	69.8018
2199.08	68.548
2200.52	67.1555
2201.95	66.2584
2203.39	64.6372
2204.83	63.5417
2206.26	62.5538
2207.7	60.9957
2209.13	59.8356
2210.57	58.2199
2212	56.5705
2213.43	54.9197
2214.87	53.7434
2216.3	51.7551
2217.73	49.7733
2219.17	48.0887
2220.6	46.4764
2222.03	44.7914
2223.47	43.9343
2224.9	43.0231
2226.33	42.368
2227.76	41.4194
2229.19	40.0608
2230.62	38.986
2232.05	37.214
2233.49	36.4561
2234.91	35.4884
2236.34	34.5735
2237.77	32.5329
2239.2	31.7409
2240.63	30.8836
2242.06	29.7799
2243.49	28.8346
2244.92	27.4805
2246.35	26.9456
2247.78	25.8586
2249.2	25.7942
2250.63	25.0938
2252.06	24.7676
2253.48	23.8904
2254.91	22.838
2256.34	21.7636
2257.76	20.983
2259.19	20.5516
2260.61	20.2165
2262.04	19.3808
2263.46	18.7878
2264.89	18.1173
2266.31	17.4557
2267.74	16.9674
2269.16	16.9444
2270.59	16.5923
2272.01	15.3592
2273.43	14.9862
2274.85	14.2703
2276.28	13.7783
2277.7	12.9894
2279.12	12.2933
2280.54	11.778
2281.97	10.6168
2283.39	10.035
2284.81	9.67786
2286.23	9.22308
2287.65	8.12172
2289.07	7.81912
2290.49	7.69632
2291.91	6.94146
2293.33	6.29145
2294.75	6.49381
2296.17	6.11486
2297.59	6.60346
2299.01	6.80288
2300.42	7.24788
2301.84	7.16525
2303.26	7.31374
2304.68	7.6666
2306.1	7.76864
2307.51	8.00275
2308.93	8.12906
2310.35	9.27055
2311.76	9.20065
2313.18	10.2279
2314.59	10.3953
2316.01	10.6751
2317.43	11.2614
2318.84	11.266
2320.26	11.5374
2321.67	11.3695
2323.08	10.9783
2324.5	10.992
2325.91	10.8508
2327.33	10.8213
2328.74	11.2248
2330.15	11.3969
2331.56	10.8118
2332.98	11.3078
2334.39	11.3164
2335.8	10.8316
2337.21	10.8662
2338.62	10.9957
2340.04	10.5377
2341.45	10.1487
2342.86	9.4046
2344.27	8.96392
2345.68	8.56685
2347.09	8.46096
2348.5	7.79859
2349.91	7.70901
2351.31	7.00405
2352.72	6.10326
2354.13	5.68988
2355.54	4.68057
2356.95	4.57299
2358.36	3.69781
2359.76	3.38886
2361.17	2.71665
2362.58	2.29866
2363.98	2.71837
2365.39	2.992
2366.8	2.77679
2368.21	3.01466
2369.61	2.88308
2371.02	2.33693
2372.42	2.13448
2373.83	1.85157
2375.23	1.37885
2376.64	1.3954
2378.04	1.04821
2379.44	0.865396
2380.85	0.627809
2382.25	0.544569
2383.66	1.36031
2385.06	0.861772
2386.46	0.859489
2387.86	0.774427
2389.26	1.41425
2390.67	1.21686
2392.07	2.05625
2393.47	1.90989
2394.87	2.3208
2396.27	2.3881
2397.67	2.99161
2399.07	3.38934
2400.47	3.59627
2401.87	4.25043
2403.27	5.30996
2404.67	5.03552
2406.07	5.33819
2407.47	5.5869
2408.87	6.02087
2410.27	6.05632
2411.67	6.10744
2413.07	5.88917
2414.46	6.06477
2415.86	6.34975
2417.26	6.45332
2418.66	6.56925
2420.05	6.87657
2421.45	6.8702
2422.84	6.86122
2424.24	6.73825
2425.64	6.34886
2427.03	6.748
2428.43	6.14266
2429.82	6.60433
2431.22	6.4514
2432.61	6.58958
2434.01	6.75692
2435.4	6.31984
2436.79	6.18607
2438.19	5.87481
2439.58	5.8171
2440.97	5.5776
2442.37	6.09562
2443.76	5.84168
2445.15	6.03097
2446.54	6.04668
2447.93	5.76208
2449.33	5.82398
2450.72	6.29119
2452.11	6.68426
2453.5	6.27997
2454.89	5.73094
2456.28	5.83233
2457.67	5.93511
2459.06	6.48414
2460.45	5.9399
2461.84	6.76477
2463.23	6.1472
2464.62	6.68149
2466	7.5623
2467.39	7.54041
2468.78	8.15506
2470.17	7.83628
2471.55	7.92677
2472.94	7.46389
2474.33	6.74572
2475.72	6.15825
2477.1	6.06356
2478.49	6.15721
2479.87	5.77563
2481.26	5.45231
2482.65	5.11957
2484.03	4.9763
2485.42	4.5949
2486.8	4.32673
2488.19	3.85718
2489.57	3.34532
2490.95	3.13071
2492.34	2.62154
2493.72	2.26907
2495.1	2.06954
2496.49	2.38048
2497.87	1.92765
2499.25	2.06759
2500.63	1.83291
2502.02	1.6956
2503.4	1.51584
2504.78	1.67353
2506.16	1.58847
2507.54	2.27383
2508.92	2.48482
2510.3	2.76028
2511.68	3.37165
2513.06	3.16652
2514.44	3.28179
2515.82	2.88293
2517.2	2.65882
2518.58	2.88254
2519.96	2.7477
2521.34	2.19715
2522.72	2.17778
2524.1	2.43519
2525.47	3.10109
2526.85	3.44588
2528.23	3.54954
2529.6	4.00406
2530.98	4.53699
2532.36	4.65539
2533.74	4.96514
2535.11	4.95014
2536.49	4.66083
2537.86	4.89505
2539.24	4.62285
2540.61	5.20519
2541.99	5.40728
2543.36	5.4957
2544.74	5.43908
2546.11	5.82434
2547.49	5.7768
2548.86	5.47817
2550.23	5.36332
2551.61	4.99261
2552.98	5.26588
2554.35	4.75241
2555.72	4.78215
2557.09	4.95091
2558.47	5.69372
2559.84	6.51222
2561.21	6.65134
2562.58	6.59593
2563.95	6.35906
2565.32	6.65433
2566.69	6.56131
2568.06	7.19608
2569.43	7.39786
2570.8	7.55622
2572.17	8.08782
2573.54	7.82273
2574.91	7.79845
2576.28	8.32746
2577.65	8.27448
2579.02	8.76151
2580.39	8.75911
2581.75	8.433
2583.12	8.00366
2584.49	8.01641
2585.85	8.10078
2587.22	8.09641
2588.59	8.57238
2589.95	8.9009
2591.32	9.41306
2592.68	9.83999
2594.05	10.2034
2595.42	9.94962
2596.78	9.95615
2598.15	10.6124
2599.51	10.9372
2600.88	10.7344
2602.24	10.4663
2603.6	10.6335
2604.97	10.4192
2606.33	9.79412
2607.69	10.0882
2609.06	9.84819
2610.42	9.7012
2611.78	9.2522
2613.14	9.00643
2614.51	9.33255
2615.87	8.96811
2617.23	9.39208
2618.59	9.88422
2619.95	9.58942
2621.31	9.97677
2622.67	9.67074
2624.03	10.5829
2625.39	10.337
2626.75	10.5221
2628.11	10.2268
2629.47	9.19426
2630.83	8.68901
2632.19	8.44032
2633.55	8.25834
2634.91	7.7851
2636.26	7.57204
2637.62	7.22964
2638.98	6.94134
2640.34	6.58418
2641.69	5.96136
2643.05	6.56983
2644.41	6.88167
2645.76	6.89254
2647.12	6.89231
2648.48	5.85629
2649.83	5.77035
2651.19	5.7511
2652.54	6.25409
2653.9	5.86284
2655.25	6.1861
2656.6	6.77619
2657.96	6.99797
2659.31	6.63008
2660.67	5.95043
2662.02	6.04811
2663.37	6.12849
2664.73	6.06363
2666.08	6.17872
2667.43	5.86001
2668.78	5.39134
2670.14	5.18685
2671.49	5.0615
2672.84	4.70854
2674.19	4.9596
2675.54	5.62513
2676.89	5.6533
2678.24	6.38192
2679.59	6.27674
2680.94	6.71944
2682.29	6.99247
2683.64	7.19825
2684.99	7.66576
2686.34	8.08795
2687.69	8.52807
2689.04	8.86125
2690.39	8.95552
2691.74	9.51734
2693.08	9.28651
2694.43	10.1583
2695.78	10.3506
2697.13	10.4129
2698.47	10.7395
2699.82	11.0052
2701.17	11.3398
2702.51	11.7315
2703.86	12.0275
2705.21	12.1454
2706.55	12.1255
2707.9	12.633
2709.24	12.9626
2710.58	13.5159
2711.93	13.5588
2713.27	13.9252
2714.62	13.9984
2715.96	14.0674
2717.3	14.3529
2718.65	14.6478
2719.99	14.3606
2721.33	13.7538
2722.68	13.7694
2724.02	13.4328
2725.36	13.8147
2726.71	13.1495
2728.05	13.3696
2729.39	13.6489
2730.73	12.6603
2732.07	12.2431
2733.41	12.1853
2734.75	12.0306
2736.09	11.6806
2737.43	10.9016
2738.77	10.8831
2740.11	10.5683
2741.45	10.3018
2742.79	10.0589
2744.13	9.61412
2745.47	9.20574
2746.81	8.2743
2748.14	7.98008
2749.48	7.7999
2750.82	7.59977
2752.16	7.2614
2753.49	7.65189
2754.83	7.13829
2756.17	6.54015
2757.5	6.70815
2758.84	6.93186
2760.18	7.05263
2761.51	6.80268
2762.85	6.55682
2764.18	6.66112
2765.52	6.58007
2766.85	6.43929
2768.19	6.3661
2769.52	5.54042
2770.86	4.9229
2772.19	4.5952
2773.52	4.74876
2774.86	4.6792
2776.19	4.48206
2777.52	3.77933
2778.86	3.25627
2780.19	3.50252
2781.52	3.18468
2782.85	3.16518
2784.19	2.54565
2785.52	2.72739
2786.85	2.66938
2788.18	2.5251
2789.51	2.34793
2790.84	2.49123
2792.17	2.73068
2793.5	2.03611
2794.83	1.88689
2796.16	1.0763
2797.49	0.925093
2798.82	1.43205
2800.15	1.12939
2801.48	0.445699
2802.81	0.260673
2804.13	0.484935
2805.46	0.290973
2806.79	-0.282902
2808.12	-0.539629
2809.45	-0.769388
2810.77	-1.34614
2812.1	-1.40896
2813.43	-1.37388
2814.75	-0.859102
2816.08	0.653952
2817.41	1.63867
2818.73	2.89439
2820.06	4.70242
2821.38	5.7493
2822.71	7.69606
2824.03	10.3476
2825.36	12.9277
2826.68	15.0338
2828	16.9691
2829.33	19.3747
2830.65	21.5292
2831.98	23.1509
2833.3	25.5403
2834.62	28.2266
2835.94	30.1087
2837.27	32.6065
2838.59	35.8522
2839.91	38.7833
2841.23	40.7413
2842.55	43.3027
2843.87	45.9842
2845.2	49.1823
2846.52	52.2642
2847.84	55.1099
2849.16	58.5642
2850.48	62.0876
2851.8	65.7566
2853.12	69.31
2854.44	72.341
2855.76	75.6839
2857.08	79.5181
2858.39	82.3209
2859.71	85.3484
2861.03	88.2764
2862.35	90.8349
2863.67	93.8816
2864.98	96.0055
2866.3	97.7371
2867.62	99.6541
2868.94	102.002
2870.25	103.227
2871.57	104.142
2872.88	105.076
2874.2	106.574
2875.52	108.007
2876.83	108.994
2878.15	110.721
2879.46	112.216
2880.78	113.991
2882.09	115.815
2883.41	116.737
2884.72	117.623
2886.03	118.72
2887.35	119.404
2888.66	120.993
2889.97	122.252
2891.29	123.298
2892.6	123.632
2893.91	124.405
2895.22	125.502
2896.54	126.947
2897.85	128.203
2899.16	129.876
2900.47	131.482
2901.78	132.689
2903.09	134.655
2904.4	137.513
2905.71	139.35
2907.02	142.021
2908.33	145.347
2909.64	148.404
2910.95	152.032
2912.26	155.853
2913.57	159.11
2914.88	162.741
2916.19	166.257
2917.5	169.008
2918.81	171.671
2920.11	174.519
2921.42	176.543
2922.73	178.279
2924.04	180.003
2925.34	181.57
2926.65	182.329
2927.96	182.731
2929.26	182.853
2930.57	182.761
2931.87	182.068
2933.18	181.39
2934.49	180.317
2935.79	178.84
2937.1	177.419
2938.4	175.039
2939.7	173.652
2941.01	171.165
2942.31	168.539
2943.62	165.644
2944.92	163.076
2946.22	159.739
2947.53	155.899
2948.83	151.841
2950.13	147.975
2951.43	144.275
2952.74	140.544
2954.04	137.127
2955.34	133.032
2956.64	128.654
2957.94	124.789
2959.24	120.999
2960.54	117.697
2961.84	114.055
2963.15	110.361
2964.45	106.892
2965.75	103.712
2967.05	100.436
2968.34	97.673
2969.64	94.895
2970.94	91.8132
2972.24	88.977
2973.54	86.1189
2974.84	83.2135
2976.14	80.3126
2977.43	76.8013
2978.73	72.9961
2980.03	70.0911
2981.33	66.9305
2982.62	62.9578
2983.92	60.2072
2985.22	57.2017
2986.51	53.8955
2987.81	50.7066
2989.11	47.7101
2990.4	44.488
2991.7	41.4194
2992.99	38.8477
2994.29	36.1711
2995.58	33.3359
2996.88	30.6101
2998.17	28.5812
2999.46	26.1744
3000.76	24.05
3002.05	21.5307
3003.34	19.5316
3004.64	18.488
3005.93	17.0935
3007.22	15.265
3008.52	13.3093
3009.81	12.4407
3011.1	10.3394
3012.39	9.03239
3013.68	8.07535
3014.97	7.09596
3016.27	6.20308
3017.56	4.95045
3018.85	4.09768
3020.14	3.31434
3021.43	2.50627
3022.72	2.25423
3024.01	1.4982
3025.3	1.0892
3026.59	0.5892
3027.88	0.721383
3029.16	0.700308
3030.45	0.88205
3031.74	0.931206
3033.03	1.22219
3034.32	1.60945
3035.6	2.34613
3036.89	2.39528
3038.18	2.61329
3039.47	2.17833
3040.75	1.98129
3042.04	2.30902
3043.33	2.28176
3044.61	2.25206
3045.9	2.85177
3047.18	2.67195
3048.47	3.58474
3049.75	3.29932
3051.04	3.0055
3052.32	3.31519
3053.61	3.64431
3054.89	3.91703
3056.18	4.22285
3057.46	4.23992
3058.74	3.76725
3060.03	3.55765
3061.31	3.70856
3062.59	3.198
3063.88	3.26078
3065.16	2.76744
3066.44	2.917
3067.72	3.55527
3069	3.5223
3070.29	2.90845
3071.57	2.81405
3072.85	3.08073
3074.13	3.1079
3075.41	3.03488
3076.69	2.81692
3077.97	2.57669
3079.25	1.95524
3080.53	1.46017
3081.81	0.965181
3083.09	1.39638
3084.37	0.79819
3085.65	0.203347
3086.93	0.249561
3088.21	0.34171
3089.49	0.839438
3090.76	1.43822
3092.04	1.32106
3093.32	1.36385
3094.6	1.85938
3095.87	1.7502
3097.15	1.80306
3098.43	2.28274
3099.7	2.17243
3100.98	1.72733
3102.26	1.51755
3103.53	1.51757
3104.81	1.80618
3106.08	2.27367
3107.36	2.32242
3108.63	2.45487
3109.91	3.01031
3111.18	2.99335
3112.46	3.80625
3113.73	3.68836
3115	4.47852
3116.28	5.35771
3117.55	5.19959
3118.83	5.65924
3120.1	6.07375
3121.37	5.9765
3122.64	6.36378
3123.92	7.08799
3125.19	7.66784
3126.46	8.22994
3127.73	9.43351
3129	9.62551
3130.27	11.2168
3131.55	12.0465
3132.82	12.5404
3134.09	13.5145
3135.36	15.0272
3136.63	15.6553
3137.9	16.3759
3139.17	17.1279
3140.44	17.6837
3141.71	18.6176
3142.98	19.5315
3144.24	20.6407
3145.51	21.7026
3146.78	22.7791
3148.05	24.8059
3149.32	25.6722
