#Acq. time (s)=	45
#Accumulations=	2
#Range (cm-¹)=	200...3150
#Windows=	2
#Auto scanning=	Off
#Autofocus=	Off
#Macrospot=	Off
#AutoExposure=	Off
#Spike filter=	Multiple accum.
#Delay time (s)=	0
#Binning=	1
#Readout mode=	Signal
#DeNoise=	Off
#ICS correction=	On
#Dark correction=	Off
#Inst. Process=	Off
#Detector Gain=	Best Dynamic Range
#Detector ADC=	20 kHz       
#Detector temperature (°C)=	-69.85
#Instrument=	LabRAM HR Evol
#Detector=	Synapse
#Objective=	x100
#Grating=	600 gr/mm
#ND Filter=	100%
#Laser (nm)=	532 
#Hole=	100.021
#Range=	Auto
#Laser Pol.=	No
#Raman. Pol.=	No
#Laser Pol. (°)=	-0.0007625
#Raman Pol. (°)=	89.9995
#Collection=	Microscope
#StageXY=	Marzhauser
#StageZ=	Marzhauser
#X (µm)=	4730.9
#Y (µm)=	-7742.5
#Z (µm)=	584.6
#Full time(mm:ss)=	3:18
#Project=	
#Sample=	
#Site=	
#Title=	Thy_30_10_11_2x_45s_532 nm_x100_100%_600 gr_mm
#Remark=	
#Date=	30.06.2022 12:07
#Acquired=	30.06.2022 12:07:40
#Base:Fit=	10.08.2022 09:58:11
#Base:Sub=	10.08.2022 09:58:44
#Filter:Polynom=	16.08.2022 10:22:53
#AxisType[0]=Intens
#AxisUnit[0]=Cnt
#AxisType[1]=Spectr
#AxisUnit[1]=1/cm
200.533	4.23566
202.348	4.80282
204.162	5.06551
205.976	5.79266
207.792	5.69748
209.605	5.3828
211.418	5.04053
213.23	4.24296
215.044	4.24438
216.856	4.18928
218.667	4.2037
220.478	3.9249
222.289	3.79856
224.102	2.15953
225.912	1.73584
227.721	2.25822
229.531	2.37985
231.34	2.30753
233.148	2.49483
234.956	2.64428
236.766	2.65308
238.574	2.49394
240.381	3.04112
242.188	3.36392
243.994	3.05726
245.801	3.44813
247.606	3.01281
249.412	3.09203
251.217	3.19726
253.024	3.31329
254.828	3.84035
256.632	3.38763
258.436	3.5121
260.239	2.80952
262.042	2.83445
263.845	2.73763
265.647	3.17927
267.449	3.8283
269.25	3.47666
271.052	3.53735
272.852	4.18062
274.653	5.28843
276.453	5.0596
278.253	5.17781
280.052	5.66125
281.852	6.2425
283.65	7.69253
285.449	8.71129
287.247	9.77631
289.044	9.28596
290.842	10.9693
292.639	11.5358
294.436	12.4243
296.232	12.9344
298.028	13.5982
299.821	13.7631
301.617	14.2986
303.412	14.5872
305.206	15.6204
307	15.5751
308.794	15.5224
310.588	14.9439
312.381	14.9918
314.172	14.7844
315.964	15.1479
317.756	15.7289
319.548	15.6903
321.34	15.8752
323.131	16.0063
324.921	15.7527
326.71	15.7413
328.5	15.0847
330.29	14.6007
332.079	13.6518
333.868	12.0742
335.654	11.5608
337.443	10.9162
339.231	10.3802
341.018	8.91163
342.804	8.2018
344.591	7.5165
346.377	7.1254
348.163	6.64745
349.947	5.85406
351.733	5.12397
353.518	4.66981
355.303	4.67418
357.085	4.36162
358.869	4.43964
360.653	4.64018
362.435	4.54515
364.218	5.00132
366.001	5.60826
367.781	7.07563
369.563	8.17093
371.345	8.67545
373.124	8.99986
374.905	8.83581
376.686	7.99319
378.464	7.43506
380.244	8.078
382.022	8.50436
383.801	8.80716
385.58	8.35316
387.357	7.50393
389.135	8.16862
390.911	8.85053
392.689	9.15286
394.466	8.66619
396.241	8.67991
398.018	8.02662
399.792	8.23107
401.568	8.68883
403.341	8.17027
405.117	8.56058
406.889	8.68489
408.664	8.31167
410.436	7.92591
412.21	7.33727
413.981	6.40138
415.755	5.60572
417.525	4.83759
419.298	4.22509
421.068	3.77308
422.84	3.68644
424.609	3.69907
426.38	3.93551
428.149	3.9203
429.919	4.07091
431.688	5.1633
433.455	5.51115
435.225	4.86577
436.992	4.14954
438.76	4.09798
440.527	4.86251
442.293	5.57115
444.06	6.24489
445.826	6.96377
447.593	7.9875
449.357	7.71515
451.122	7.84151
452.888	9.2996
454.651	9.24095
456.415	9.16903
458.18	9.3714
459.942	8.48923
461.705	7.82533
463.469	7.76773
465.23	7.97033
466.991	8.93747
468.752	10.1615
470.515	10.8605
472.275	10.1301
474.035	10.3124
475.797	11.2053
477.556	11.4684
479.315	11.4522
481.073	11.0848
482.834	10.6483
484.592	11.1329
486.349	11.0769
488.106	11.7489
489.863	10.8785
491.622	10.444
493.378	10.1787
495.134	9.7182
496.889	9.89777
498.645	10.068
500.401	10.7209
502.156	10.6935
503.91	11.3934
505.664	11.4394
507.417	11.4463
509.171	11.5287
510.923	12.0617
512.678	12.2788
514.43	12.3241
516.182	12.1319
517.933	11.7022
519.684	12.4914
521.435	12.1992
523.186	11.6763
524.936	11.3273
526.686	12.0769
528.435	11.7975
530.184	11.9352
531.933	11.5504
533.682	11.5695
535.43	10.3725
537.18	8.75552
538.927	9.20155
540.674	10.3021
542.421	9.86445
544.167	9.60333
545.913	9.41383
547.659	9.25955
549.403	9.31965
551.148	9.15352
552.893	9.26209
554.637	9.01284
556.381	8.62031
558.125	7.89716
559.868	7.15462
561.611	7.56177
563.354	7.47128
565.097	6.7238
566.839	6.76651
568.581	6.49696
570.322	6.86842
572.063	7.01189
573.802	7.05323
575.542	7.30536
577.283	7.33211
579.022	7.92604
580.762	7.44357
582.501	8.17656
584.24	8.00448
585.976	8.11393
587.714	8.40377
589.452	7.51163
591.19	7.4502
592.927	6.33663
594.663	5.93715
596.398	4.88845
598.134	4.24977
599.87	4.04846
601.605	3.09146
603.338	3.77793
605.073	4.39928
606.808	4.4161
608.542	3.95999
610.274	3.56643
612.007	3.27979
613.74	4.31843
615.473	3.86386
617.204	4.18115
618.936	3.68749
620.668	3.64905
622.397	2.80706
624.128	3.92393
625.859	5.21128
627.588	5.22345
629.318	5.25752
631.048	5.30503
632.775	6.50794
634.505	7.67979
636.233	7.68455
637.96	7.68809
639.688	8.74933
641.416	8.95776
643.142	9.19947
644.869	9.79853
646.594	10.746
648.32	11.4656
650.045	11.9446
651.771	13.0591
653.496	13.7775
655.219	14.0173
656.944	14.2419
658.667	14.405
660.391	14.3591
662.113	14.4938
663.837	13.1923
665.558	12.3757
667.281	12.5968
669.002	13.6685
670.724	13.5077
672.444	13.5367
674.166	13.5299
675.885	13.3831
677.606	13.9635
679.325	13.9361
681.045	14.4307
682.763	14.8408
684.483	15.8146
686.2	17.4762
687.917	17.612
689.636	19.1635
691.352	20.4254
693.07	21.274
694.786	22.3524
696.501	22.2578
698.219	23.0155
699.933	23.4796
701.65	24.02
703.364	24.9548
705.078	25.2699
706.793	26.6325
708.506	28.4861
710.219	30.3731
711.934	31.427
713.646	32.5677
715.358	34.5009
717.071	36.154
718.782	37.2415
720.493	37.7856
722.204	37.9695
723.916	38.1552
725.626	38.8995
727.336	39.5406
729.045	40.6846
730.756	41.3405
732.464	42.2301
734.173	42.5775
735.881	43.0733
737.59	43.2564
739.297	42.7521
741.004	42.6582
742.711	43.5534
744.417	43.9184
746.125	44.4548
747.831	45.9741
749.537	46.8141
751.242	48.7274
752.946	50.4764
754.651	50.4141
756.357	51.6066
758.061	52.2287
759.764	53.3413
761.467	54.3255
763.17	55.214
764.872	55.1721
766.575	56.0324
768.276	56.833
769.978	57.9732
771.679	58.9866
773.382	60.0349
775.083	61.4199
776.783	62.0406
778.483	62.3671
780.182	62.8246
781.882	62.8209
783.581	63.6216
785.279	64.3762
786.978	65.5988
788.676	66.4762
790.373	67.5927
792.071	69.0173
793.768	70.1926
795.464	70.4395
797.161	70.1671
798.857	71.0238
800.552	71.8419
802.248	71.3029
803.941	70.771
805.636	70.7468
807.33	70.8704
809.024	71.1826
810.718	71.7101
812.412	72.242
814.105	72.2135
815.798	71.6487
817.49	71.888
819.183	72.0588
820.873	71.9211
822.564	71.6784
824.256	71.6973
825.947	71.637
827.637	71.7051
829.328	71.0567
831.016	70.5754
832.705	70.5131
834.395	69.2744
836.084	68.8102
837.772	68.4045
839.459	67.9195
841.147	68.1298
842.835	66.7979
844.522	66.1052
846.209	64.9465
847.894	64.4082
849.581	63.6391
851.267	63.0244
852.953	61.7702
854.637	60.7061
856.322	60.0556
858.007	59.0185
859.689	57.5008
861.374	56.9475
863.058	56.9386
864.739	56.8425
866.423	55.3794
868.106	55.3485
869.787	54.8384
871.469	54.7989
873.151	53.5201
874.831	52.836
876.512	51.8802
878.193	51.7518
879.872	50.4726
881.553	49.9794
883.231	49.9427
884.911	48.8263
886.591	48.2726
888.268	48.4222
889.947	48.2611
891.623	47.8439
893.302	47.4592
894.978	47.0356
896.656	46.2704
898.331	45.8152
900.008	45.2325
901.683	45.4544
903.359	44.8633
905.033	44.1143
906.709	43.1475
908.383	42.3721
910.058	42.3406
911.731	42.1712
913.405	42.0166
915.078	42.2994
916.752	42.4805
918.423	41.8678
920.096	41.3237
921.768	41.3486
923.438	41.2661
925.111	41.0507
926.781	40.373
928.452	39.7974
930.122	39.9122
931.791	39.2843
933.462	38.4653
935.13	37.4845
936.799	37.8531
938.468	37.7718
940.136	37.3401
941.803	36.569
943.472	35.5176
945.139	35.313
946.805	34.3879
948.473	33.3515
950.139	32.3309
951.804	32.8056
953.471	32.333
955.136	32.6021
956.801	32.0265
958.465	32.4446
960.131	32.1933
961.794	31.5391
963.458	30.3733
965.12	30.5701
966.785	31.4717
968.447	32.7695
970.109	33.5539
971.771	34.3857
973.432	34.3491
975.095	34.9184
976.756	35.8799
978.417	35.4497
980.077	35.4633
981.737	36.6672
983.396	37.2794
985.057	37.5111
986.716	37.8714
988.375	37.9392
990.033	38.1991
991.691	38.3901
993.349	38.0627
995.006	38.1954
996.663	37.9835
998.32	37.622
999.976	36.6812
1001.63	35.7678
1003.29	36.3758
1004.95	36.7713
1006.6	35.8564
1008.26	35.0536
1009.91	34.3803
1011.56	33.6981
1013.22	33.278
1014.87	31.4028
1016.53	30.5578
1018.18	29.2605
1019.83	29.5155
1021.48	28.01
1023.14	27.5588
1024.79	26.7831
1026.44	25.4006
1028.09	25.4712
1029.74	25.8101
1031.39	26.1376
1033.04	25.8735
1034.69	25.4696
1036.34	24.9086
1037.99	24.7838
1039.64	24.2399
1041.29	23.6072
1042.94	23.3669
1044.58	23.5528
1046.23	24.6973
1047.88	26.2253
1049.52	27.0525
1051.17	26.6174
1052.82	26.0933
1054.46	26.1458
1056.11	25.1233
1057.75	24.8106
1059.4	24.1731
1061.04	23.0701
1062.69	23.9872
1064.33	23.9654
1065.98	23.3064
1067.62	22.9251
1069.26	22.5695
1070.9	22.8748
1072.55	23.0163
1074.19	22.8064
1075.83	22.7242
1077.47	23.8913
1079.11	23.9064
1080.76	23.6307
1082.4	23.362
1084.04	23.0591
1085.68	23.7344
1087.32	21.5948
1088.95	21.1011
1090.59	21.1929
1092.23	21.2987
1093.87	20.1378
1095.51	19.824
1097.15	19.0817
1098.78	19.1649
1100.42	19.2809
1102.06	20.5364
1103.69	19.8156
1105.33	20.3767
1106.97	20.1501
1108.6	20.3215
1110.24	20.4305
1111.87	20.1826
1113.51	19.5961
1115.14	19.3186
1116.77	18.8507
1118.41	18.7275
1120.04	17.8543
1121.67	16.8709
1123.31	16.4489
1124.94	16.4543
1126.57	15.3366
1128.2	14.5643
1129.83	14.2048
1131.47	12.86
1133.1	11.7785
1134.72	11.4605
1136.36	10.9671
1137.98	9.5413
1139.62	9.09156
1141.24	8.9498
1142.87	8.43734
1144.5	7.69678
1146.13	7.40529
1147.76	7.51404
1149.38	6.86196
1151.01	6.87198
1152.64	6.8186
1154.27	6.4629
1155.89	6.89207
1157.52	6.61556
1159.14	7.24574
1160.77	6.87366
1162.39	6.5689
1164.02	6.71846
1165.64	6.16833
1167.27	5.71528
1168.89	5.72742
1170.51	6.94479
1172.14	7.36079
1173.76	7.36402
1175.38	7.11444
1177	8.43841
1178.63	9.25469
1180.25	10.1649
1181.87	11.475
1183.49	13.0604
1185.11	12.8695
1186.73	13.6926
1188.35	14.3071
1189.97	14.4414
1191.59	14.2927
1193.21	15.4418
1194.83	16.2798
1196.45	16.5281
1198.07	16.7995
1199.68	17.2446
1201.3	17.9551
1202.92	19.3518
1204.53	20.1766
1206.15	21.1946
1207.77	21.8032
1209.38	23.1356
1211	24.2581
1212.62	25.1907
1214.23	26.7297
1215.84	27.8313
1217.46	29.2302
1219.07	29.325
1220.69	30.713
1222.3	30.9327
1223.91	31.458
1225.53	32.2078
1227.14	34.4054
1228.75	35.4769
1230.36	35.4944
1231.97	36.9928
1233.59	38.5174
1235.2	39.9817
1236.81	40.368
1238.42	41.0041
1240.03	42.6867
1241.64	42.7053
1243.25	43.8342
1244.85	44.3923
1246.46	45.0472
1248.07	46.0525
1249.68	47.4291
1251.29	47.6951
1252.9	48.4345
1254.5	49.0208
1256.11	49.7728
1257.72	50.66
1259.32	51.6083
1260.93	52.0186
1262.54	52.6936
1264.14	52.4734
1265.75	52.4779
1267.35	53.6975
1268.96	53.9026
1270.56	52.7828
1272.16	53.3201
1273.77	54.5175
1275.37	54.5976
1276.97	54.7875
1278.57	55.2303
1280.18	54.9038
1281.78	55.8056
1283.38	55.5324
1284.98	55.1668
1286.58	55.9654
1288.18	55.8298
1289.78	56.2234
1291.38	55.8618
1292.99	56.0806
1294.58	56.909
1296.18	56.5117
1297.78	57.1319
1299.38	56.4221
1300.98	56.8832
1302.58	56.095
1304.17	56.4211
1305.77	56.9973
1307.37	57.6477
1308.97	56.9436
1310.56	55.8775
1312.16	56.1432
1313.76	55.4917
1315.35	54.8803
1316.95	54.2926
1318.54	54.4278
1320.14	54.77
1321.73	54.1359
1323.32	54.6671
1324.92	53.8964
1326.51	54.1299
1328.1	53.8495
1329.7	53.554
1331.29	52.9484
1332.88	52.7963
1334.47	53.1069
1336.07	52.4024
1337.66	52.3888
1339.25	52.1291
1340.84	51.0362
1342.43	51.0357
1344.02	50.6312
1345.61	50.7417
1347.2	50.4957
1348.79	49.2403
1350.37	48.6593
1351.96	49.2615
1353.55	48.3834
1355.14	46.8973
1356.73	46.2718
1358.31	44.68
1359.9	43.0331
1361.49	42.7658
1363.07	42.03
1364.66	41.5472
1366.25	41.0705
1367.83	40.2724
1369.42	40.1316
1371	39.6618
1372.59	40.0884
1374.17	39.9644
1375.75	38.5398
1377.34	38.2805
1378.92	37.1877
1380.5	36.6661
1382.09	35.6555
1383.67	35.4222
1385.25	34.8384
1386.83	33.7348
1388.42	32.2285
1390	31.3911
1391.58	30.4875
1393.16	29.7456
1394.74	29.5974
1396.32	28.7374
1397.9	28.3598
1399.48	28.0726
1401.06	27.6024
1402.64	26.2841
1404.21	25.3699
1405.79	25.5917
1407.37	25.049
1408.95	25.0604
1410.53	24.7906
1412.1	25.2772
1413.68	25.9439
1415.26	26.3815
1416.83	28.0488
1418.41	29.8559
1419.98	30.9694
1421.56	33.1857
1423.13	34.3674
1424.71	36.256
1426.28	37.4457
1427.86	39.3962
1429.43	41.0062
1431	43.2984
1432.58	45.0671
1434.15	47.4521
1435.72	49.7795
1437.29	51.8647
1438.87	53.6731
1440.44	55.9927
1442.01	57.3085
1443.58	58.4355
1445.15	59.6313
1446.72	60.349
1448.29	61.3704
1449.86	61.8335
1451.43	62.3971
1453	62.0178
1454.57	61.8289
1456.14	62.0358
1457.71	60.7386
1459.27	60.2846
1460.84	60.1086
1462.41	58.3555
1463.98	57.2413
1465.54	55.3418
1467.11	53.65
1468.67	51.4673
1470.24	49.1663
1471.81	47.3235
1473.37	45.0339
1474.94	42.507
1476.5	39.5925
1478.07	37.0484
1479.63	34.0358
1481.19	30.8684
1482.76	28.4848
1484.32	26.3023
1485.88	24.0789
1487.45	21.722
1489.01	19.3515
1490.57	18.2351
1492.13	17.4063
1493.69	17.0578
1495.26	16.1793
1496.82	15.2615
1498.38	14.0823
1499.94	14.1293
1501.5	13.5218
1503.06	13.7919
1504.62	13.4261
1506.17	14.2753
1507.73	14.0474
1509.29	14.8961
1510.85	14.1223
1512.41	14.1573
1513.97	14.2152
1515.52	13.8527
1517.08	13.5221
1518.64	14.5515
1520.19	14.8172
1521.75	15.7754
1523.31	16.0982
1524.86	17.1986
1526.42	18.7052
1527.97	19.4184
1529.52	21.0606
1531.08	21.2822
1532.63	23.2138
1534.19	23.8372
1535.74	24.9118
1537.29	27.0394
1538.85	28.0955
1540.4	27.6545
1541.95	28.8735
1543.5	29.6548
1545.06	31.9613
1546.61	33.2044
1548.16	34.4824
1549.71	35.7287
1551.26	36.4589
1552.81	37.7255
1554.36	38.3377
1555.91	39.5131
1557.46	39.9473
1559.01	41.0507
1560.56	41.7267
1562.11	43.0394
1563.65	43.9815
1565.2	44.8491
1566.75	46.7932
1568.29	48.6043
1569.84	50.2756
1571.39	50.5981
1572.94	51.0438
1574.48	52.0348
1576.03	52.5482
1577.57	53.3605
1579.12	53.4101
1580.66	54.1313
1582.21	54.4181
1583.75	55.17
1585.3	55.1574
1586.84	55.1621
1588.38	54.8463
1589.93	55.8587
1591.47	56.6046
1593.01	56.6833
1594.55	57.2336
1596.1	57.8946
1597.64	58.5231
1599.18	58.2453
1600.72	57.5897
1602.26	57.8736
1603.8	57.7047
1605.34	57.4607
1606.88	57.4123
1608.42	56.6182
1609.96	56.8552
1611.5	56.203
1613.04	56.6261
1614.58	56.1524
1616.12	55.4715
1617.65	55.3043
1619.19	55.9164
1620.73	56.7928
1622.27	57.755
1623.8	57.6733
1625.34	58.7798
1626.87	59.4097
1628.41	60.4593
1629.95	61.8567
1631.48	62.8747
1633.02	63.8789
1634.55	64.4995
1636.09	66.0701
1637.62	67.4382
1639.15	69.4827
1640.69	70.5062
1642.22	71.6352
1643.76	72.3314
1645.29	73.1158
1646.82	73.6472
1648.35	73.0755
1649.88	74.3136
1651.42	74.9978
1652.95	75.0672
1654.48	75.8599
1656.01	76.0817
1657.54	76.9576
1659.07	77.6426
1660.6	77.8553
1662.13	77.5374
1663.66	77.2074
1665.19	76.7842
1666.72	76.6204
1668.24	75.2912
1669.77	73.6869
1671.3	72.3
1672.83	70.8479
1674.35	68.5988
1675.88	65.692
1677.41	63.7546
1678.93	61.9559
1680.46	59.6483
1681.99	57.1738
1683.51	54.8875
1685.04	53.0536
1686.56	50.6626
1688.09	48.3411
1689.61	45.5802
1691.13	42.7563
1692.66	40.7508
1694.18	39.0989
1695.71	37.8309
1697.23	36.3484
1698.75	34.224
1700.27	32.3471
1701.8	30.7932
1703.32	28.3429
1704.84	27.044
1706.36	25.3974
1707.88	23.7984
1709.4	21.6816
1710.92	20.4129
1712.44	19.3141
1713.96	18.0073
1715.48	16.6852
1717	14.8596
1718.52	13.6357
1720.04	12.8809
1721.56	12.9095
1723.07	11.9923
1724.59	11.7435
1726.11	11.94
1727.63	11.5312
1729.14	11.5166
1730.66	11.9985
1732.18	11.9612
1733.69	12.1832
1735.21	12.5525
1736.72	12.2498
1738.24	12.7732
1739.75	12.4094
1741.27	12.6708
1742.78	12.4518
1744.3	11.6124
1745.81	11.6426
1747.32	11.8708
1748.84	11.84
1750.35	11.599
1751.86	11.3207
1753.37	11.5157
1754.89	11.5278
1756.4	11.3569
1757.91	11.615
1759.42	11.8725
1760.93	11.6851
1762.44	11.4399
1763.95	11.3903
1765.46	11.094
1766.97	11.1348
1768.48	11.1167
1769.99	10.9897
1771.5	10.7856
1773.01	9.32119
1774.52	8.72728
1776.03	8.38697
1777.53	7.66183
1779.04	6.85407
1780.55	6.36905
1782.06	5.71915
1783.56	5.14543
1785.07	4.45511
1786.57	4.25218
1788.08	3.7534
1789.59	3.42278
1791.09	2.89795
1792.6	2.88196
1794.1	2.62831
1795.6	2.79135
1797.11	3.07293
1798.61	3.22548
1800.12	3.48787
1801.62	3.55987
1803.12	3.73847
1804.63	4.51888
1806.13	4.96196
1807.63	5.25822
1809.13	5.69291
1810.63	5.96696
1812.14	6.19559
1813.64	6.98877
1815.14	6.84713
1816.64	7.53656
1818.14	7.71532
1819.64	8.06227
1821.14	8.45
1822.64	8.33324
1824.14	8.02719
1825.63	7.63208
1827.13	8.26919
1828.63	8.31513
1830.13	8.07807
1831.63	7.88046
1833.12	7.47476
1834.62	7.61876
1836.12	7.47597
1837.62	8.17102
1839.11	7.89858
1840.61	7.56272
1842.1	6.97509
1843.6	6.83084
1845.09	7.03634
1846.59	6.59335
1848.08	5.90725
1849.58	5.75614
1851.07	5.05027
1852.57	4.90904
1854.06	4.42976
1855.55	3.19175
1857.04	2.96131
1858.54	2.65789
1860.03	2.18364
1861.52	1.88689
1863.01	1.33562
1864.5	1.00338
1866	1.04132
1867.49	0.821125
1868.98	0.317624
1870.47	0.17513
1871.96	1.09871
1873.45	1.66962
1874.94	1.37677
1876.43	1.53735
1877.92	1.49623
1879.41	1.62516
1880.89	1.87951
1882.38	2.1232
1882.48	2.24861
1883.97	2.13193
1885.47	2.63633
1886.96	3.24742
1888.46	2.58458
1889.95	2.87343
1891.44	2.72627
1892.94	2.45749
1894.43	2.12145
1895.92	2.22272
1897.41	2.4451
1898.9	2.47071
1900.4	3.1343
1901.89	3.26012
1903.38	3.35498
1904.87	3.60366
1906.36	4.03405
1907.85	5.24785
1909.34	5.70717
1910.83	6.71739
1912.32	7.18898
1913.81	7.73525
1915.29	8.61601
1916.78	10.084
1918.27	10.3367
1919.76	9.81972
1921.25	9.8631
1922.74	10.2581
1924.22	10.9121
1925.71	11.1751
1927.2	10.6285
1928.68	10.4241
1930.17	10.5836
1931.65	10.1395
1933.14	10.2583
1934.63	10.0793
1936.11	9.58505
1937.59	9.82245
1939.08	9.50727
1940.56	9.2231
1942.05	9.20756
1943.53	9.70565
1945.01	10.1491
1946.5	9.8072
1947.98	9.31415
1949.46	9.59936
1950.94	9.05457
1952.43	8.5768
1953.91	8.46793
1955.39	7.98677
1956.87	7.32417
1958.35	7.15723
1959.83	7.19881
1961.31	6.64908
1962.79	5.96512
1964.27	6.47478
1965.75	6.35826
1967.23	6.16364
1968.71	6.08379
1970.19	6.48317
1971.67	6.61013
1973.14	6.40692
1974.62	7.02368
1976.1	7.14322
1977.58	6.9844
1979.05	7.76951
1980.53	8.16496
1982.01	8.75073
1983.48	9.38618
1984.96	9.97275
1986.43	10.2089
1987.91	11.0389
1989.38	11.0701
1990.86	11.2445
1992.33	10.849
1993.81	11.3589
1995.28	12.421
1996.76	12.6118
1998.23	12.3879
1999.7	12.3511
2001.18	11.8196
2002.65	11.8436
2004.12	11.3528
2005.59	11.7009
2007.06	11.8572
2008.54	11.3865
2010.01	11.2321
2011.48	11.7978
2012.95	11.8316
2014.42	12.2324
2015.89	12.0845
2017.36	12.3457
2018.83	12.5209
2020.3	13.0254
2021.77	13.3583
2023.24	13.3099
2024.71	13.2198
2026.17	13.6496
2027.64	14.7862
2029.11	14.8557
2030.58	15.2088
2032.04	15.196
2033.51	14.9555
2034.98	15.0867
2036.45	16.071
2037.91	16.286
2039.38	16.169
2040.84	16.1191
2042.31	16.4406
2043.77	17.233
2045.24	17.6221
2046.7	17.5384
2048.17	18.3082
2049.63	18.7608
2051.1	18.8952
2052.56	19.9359
2054.02	20.0495
2055.48	20.1242
2056.95	20.5433
2058.41	21.0698
2059.87	20.9497
2061.33	21.5795
2062.8	21.213
2064.26	21.4684
2065.72	21.5137
2067.18	21.1787
2068.64	20.8706
2070.1	20.744
2071.56	20.662
2073.02	20.1593
2074.48	19.4493
2075.94	20.2958
2077.4	19.6844
2078.86	20.2793
2080.31	20.0372
2081.77	20.3262
2083.23	20.6293
2084.69	21.0681
2086.14	21.0608
2087.6	21.3531
2089.06	21.2237
2090.52	21.5431
2091.97	22.185
2093.43	22.796
2094.88	23.0837
2096.34	23.0567
2097.79	23.7901
2099.25	24.6634
2100.7	25.7143
2102.16	25.836
2103.61	26.7598
2105.07	27.4389
2106.52	28.8597
2107.97	30.1028
2109.43	31.2786
2110.88	31.9478
2112.33	33.0391
2113.78	34.3834
2115.24	35.5724
2116.69	37.0527
2118.14	38.2496
2119.59	39.5831
2121.04	41.0663
2122.49	42.0234
2123.94	43.2177
2125.39	45.0369
2126.84	45.9189
2128.29	46.5715
2129.74	47.9031
2131.19	49.1142
2132.64	49.9645
2134.09	51.8245
2135.54	52.7392
2136.98	53.6508
2138.43	54.3625
2139.88	55.4311
2141.33	57.0929
2142.77	57.9612
2144.22	58.8
2145.67	59.2537
2147.11	60.631
2148.56	62.0337
2150.01	62.5772
2151.45	63.5104
2152.9	64.1919
2154.34	65.0471
2155.79	65.5053
2157.23	66.5118
2158.67	67.2765
2160.12	67.4749
2161.56	67.2981
2163	67.2333
2164.45	68.4842
2165.89	69.3971
2167.33	69.541
2168.78	70.1271
2170.22	70.7705
2171.66	71.4709
2173.1	71.8835
2174.54	71.9839
2175.98	72.2296
2177.42	71.8481
2178.86	71.203
2180.3	70.661
2181.74	70.6897
2183.18	70.3305
2184.62	69.4434
2186.06	69.1534
2187.5	68.5438
2188.94	67.6217
2190.38	66.9201
2191.82	65.9057
2193.25	64.9034
2194.69	64.1071
2196.13	62.9989
2197.57	62.2347
2199	60.7586
2200.44	59.5941
2201.88	59.1223
2203.31	58.0878
2204.75	57.2308
2206.18	55.7858
2207.62	53.609
2209.05	52.0622
2210.49	50.69
2211.92	49.8474
2213.36	48.3582
2214.79	46.956
2216.22	45.8619
2217.66	44.8566
2219.09	44.0816
2220.52	43.4301
2221.96	42.542
2223.39	41.1836
2224.82	40.5688
2226.25	39.9528
2227.68	39.488
2229.11	38.7812
2230.55	37.8352
2231.98	36.8708
2233.41	36.3858
2234.84	35.9937
2236.27	35.9186
2237.7	34.7405
2239.12	34.0569
2240.55	33.6753
2241.98	33.1484
2243.41	32.7274
2244.84	31.9818
2246.27	31.5364
2247.7	30.4686
2249.12	29.5504
2250.55	28.8722
2251.98	28.6175
2253.41	28.9619
2254.83	27.9386
2256.26	27.334
2257.68	26.8315
2259.11	25.8859
2260.54	24.7509
2261.96	24.6452
2263.39	24.7036
2264.81	24.4609
2266.24	23.8269
2267.66	23.5671
2269.08	23.5948
2270.51	22.837
2271.93	22.21
2273.35	21.8573
2274.78	20.6164
2276.2	20.1968
2277.62	19.2543
2279.04	18.3137
2280.47	18.3376
2281.89	17.8479
2283.31	17.5791
2284.73	16.8468
2286.15	17.1821
2287.57	16.5059
2288.99	16.4201
2290.41	15.9483
2291.83	15.534
2293.25	15.1106
2294.67	14.6557
2296.09	15.0205
2297.51	15.3392
2298.93	15.2402
2300.35	15.4157
2301.76	15.9777
2303.18	15.8858
2304.6	15.594
2306.02	15.2301
2307.44	15.4554
2308.85	15.4451
2310.27	15.9293
2311.69	15.6499
2313.1	15.6726
2314.52	15.9975
2315.93	15.9766
2317.35	15.9729
2318.76	15.9103
2320.18	15.6332
2321.59	15.7498
2323.01	16.0011
2324.42	16.3282
2325.83	15.8829
2327.25	15.8654
2328.66	15.3174
2330.07	15.1172
2331.49	15.0394
2332.9	15.6065
2334.31	15.7005
2335.72	15.0777
2337.13	14.8494
2338.55	15.2331
2339.96	14.5444
2341.37	13.785
2342.78	13.5638
2344.19	13.4076
2345.6	12.5554
2347.01	12.1624
2348.42	11.3735
2349.83	10.846
2351.24	10.6347
2352.65	10.0722
2354.05	10.0379
2355.46	9.5425
2356.87	9.27417
2358.28	8.27384
2359.69	7.75963
2361.09	7.32773
2362.5	7.29116
2363.91	7.35748
2365.31	7.96504
2366.72	8.47528
2368.13	8.64812
2369.53	8.38635
2370.94	8.06582
2372.34	7.93707
2373.75	7.17797
2375.15	7.14708
2376.56	6.95468
2377.96	7.25198
2379.37	7.02223
2380.77	7.14216
2382.17	7.1536
2383.58	7.31437
2384.98	7.70594
2386.38	7.54983
2387.79	7.91766
2389.19	8.09592
2390.59	7.85654
2391.99	8.55922
2393.39	8.68936
2394.8	9.63028
2396.2	10.0215
2397.6	9.97522
2399	9.86218
2400.4	10.5358
2401.8	10.9775
2403.2	11.1389
2404.6	11.4603
2406	11.944
2407.4	12.0109
2408.79	12.2083
2410.19	11.8649
2411.59	12.2611
2412.99	13.0019
2414.39	13.0413
2415.78	13.1097
2417.18	12.9491
2418.58	13.3869
2419.98	14.4389
2421.37	14.2052
2422.77	14.1417
2424.16	14.247
2425.56	13.8774
2426.96	13.4366
2428.35	13.3646
2429.74	13.2634
2431.14	13.487
2432.53	13.6781
2433.93	13.3781
2435.32	13.2385
2436.72	12.521
2438.11	11.909
2439.5	11.3956
2440.9	11.0876
2442.29	11.2883
2443.68	10.2809
2445.07	9.92631
2446.47	9.10309
2447.86	8.68102
2449.25	8.47009
2450.64	8.28806
2452.03	7.76193
2453.42	7.98814
2454.81	7.92829
2456.2	7.74761
2457.59	7.29732
2458.98	7.2495
2460.37	7.10035
2461.76	7.23258
2463.15	7.27426
2464.54	7.36472
2465.93	6.66893
2467.32	5.9191
2468.7	5.70251
2470.09	5.60439
2471.48	5.21844
2472.87	4.21769
2474.25	4.51814
2475.64	4.38054
2477.03	4.30982
2478.41	4.60339
2479.8	4.89836
2481.18	4.65869
2482.57	4.53625
2483.95	4.41917
2485.34	4.28082
2486.72	4.60469
2488.11	5.1335
2489.49	4.92784
2490.88	4.13038
2492.26	4.37222
2493.65	4.49665
2495.03	3.86643
2496.41	3.93367
2497.79	3.99613
2499.18	4.03075
2500.56	4.28106
2501.94	4.26876
2503.32	3.74846
2504.7	3.92377
2506.09	3.67113
2507.47	3.24183
2508.85	3.37296
2510.23	2.91338
2511.61	2.42038
2512.99	1.85962
2514.37	2.41098
2515.75	2.34367
2517.13	2.84778
2518.51	3.07754
2519.89	2.82229
2521.26	2.16351
2522.64	2.42392
2524.02	2.02385
2525.4	1.84905
2526.78	1.53328
2528.15	1.38052
2529.53	0.819372
2530.91	0.560377
2532.28	0.673875
2533.66	0.541751
2535.04	0.419315
2536.41	0.351446
2537.79	0.370537
2539.16	0.638198
2540.54	0.876367
2541.91	1.06718
2543.29	1.80468
2544.66	2.24399
2546.04	2.75033
2547.41	3.07034
2548.78	3.2326
2550.16	3.46502
2551.53	4.05476
2552.9	4.29223
2554.27	4.12933
2555.65	4.60812
2557.02	4.63563
2558.39	4.17712
2559.76	4.74649
2561.13	4.85502
2562.51	4.35569
2563.88	3.85334
2565.25	4.09593
2566.62	4.15946
2567.99	4.53396
2569.36	4.18811
2570.73	4.06353
2572.1	3.79425
2573.47	3.99755
2574.84	3.35696
2576.2	2.82034
2577.57	2.71571
2578.94	2.51057
2580.31	2.53053
2581.68	2.60992
2583.05	3.06285
2584.41	2.4697
2585.78	2.25979
2587.15	1.69012
2588.51	1.25646
2589.88	0.547214
2591.24	0.45597
2592.61	0.0722012
2593.98	-0.302555
2595.34	-0.526119
2596.71	-0.724266
2598.07	-0.478264
2599.44	-0.311238
2600.8	0.0649782
2602.16	0.278208
2603.53	0.440902
2604.89	0.752754
2606.26	0.377457
2607.62	0.939155
2608.98	1.16871
2610.34	1.38485
2611.71	1.61175
2613.07	2.4495
2614.43	2.17126
2615.79	2.3577
2617.15	2.35389
2618.52	2.73332
2619.88	2.72271
2621.24	2.82018
2622.6	2.38265
2623.96	2.86155
2625.32	2.8798
2626.68	2.42218
2628.04	2.93727
2629.4	2.63656
2630.75	2.78236
2632.11	3.32097
2633.47	3.71296
2634.83	4.69757
2636.19	5.5233
2637.55	5.45119
2638.9	5.73248
2640.26	4.99869
2641.62	4.91632
2642.98	4.65672
2644.33	4.75133
2645.69	4.85923
2647.04	4.8286
2648.4	4.58314
2649.76	3.85463
2651.11	3.87838
2652.47	2.88212
2653.82	2.46176
2655.18	1.95744
2656.53	1.45189
2657.88	1.28582
2659.24	1.49387
2660.59	1.25047
2661.95	1.14839
2663.3	0.973585
2664.65	1.03521
2666	0.91715
2667.36	0.963243
2668.71	0.813997
2670.06	0.877567
2671.41	1.09154
2672.76	1.13588
2674.12	1.18028
2675.47	2.04426
2676.82	1.85805
2678.17	1.54464
2679.52	1.66679
2680.87	1.92992
2682.22	1.61255
2683.57	1.79663
2684.92	1.80509
2686.27	2.13935
2687.62	2.14262
2688.97	2.53313
2690.31	2.28258
2691.66	2.99149
2693.01	2.89384
2694.36	2.8871
2695.71	3.58016
2697.05	3.69745
2698.4	4.33245
2699.75	4.60481
2701.09	4.90279
2702.44	4.85967
2703.78	4.41783
2705.13	3.92338
2706.48	3.34508
2707.82	2.90992
2709.17	3.44156
2710.51	3.70087
2711.86	3.86317
2713.2	3.08638
2714.54	3.20825
2715.89	3.15896
2717.23	3.70838
2718.57	3.50365
2719.92	2.9728
2721.26	2.95376
2722.6	2.80571
2723.95	2.82412
2725.29	2.87118
2726.63	2.97927
2727.97	2.86745
2729.31	3.14259
2730.65	3.48287
2732	3.42216
2733.34	3.31396
2734.68	3.61888
2736.02	3.46349
2737.36	3.93959
2738.7	3.91051
2740.04	4.19312
2741.38	3.98564
2742.72	3.85141
2744.05	3.42202
2745.39	3.7333
2746.73	3.77115
2748.07	3.70975
2749.41	3.40193
2750.75	3.20294
2752.08	3.77831
2753.42	4.03483
2754.76	3.89303
2756.09	4.04834
2757.43	4.03356
2758.77	4.01213
2760.1	3.68782
2761.44	4.40844
2762.78	4.41223
2764.11	4.4685
2765.44	4.20681
2766.78	3.95732
2768.11	4.07066
2769.45	3.74338
2770.78	3.79879
2772.12	4.04627
2773.45	3.8479
2774.78	4.44999
2776.12	4.80779
2777.45	4.58156
2778.78	4.156
2780.12	3.90004
2781.45	4.37834
2782.78	3.85631
2784.11	3.53444
2785.44	2.39559
2786.78	2.05989
2788.11	1.99417
2789.44	1.92523
2790.77	1.98933
2792.1	2.04798
2793.43	2.34379
2794.76	2.03049
2796.09	1.80706
2797.42	1.02727
2798.75	0.283967
2800.08	0.146073
2801.4	-0.0131958
2802.73	-0.218115
2804.06	0.0569248
2805.39	-0.0870314
2806.72	0.54831
2808.05	0.0968052
2809.37	0.333014
2810.7	0.283136
2812.03	0.185906
2813.35	-0.200116
2814.68	0.170522
2816.01	0.0713911
2817.33	0.392808
2818.66	1.3497
2819.98	2.42031
2821.31	3.54033
2822.63	5.10463
2823.96	6.35157
2825.28	7.45159
2826.61	8.62403
2827.93	10.4225
2829.25	11.697
2830.58	13.7375
2831.9	15.0558
2833.23	17.2643
2834.55	19.1055
2835.87	21.091
2837.19	23.0378
2838.52	25.5161
2839.84	27.8911
2841.16	30.3043
2842.48	32.5909
2843.8	35.1875
2845.12	38.5302
2846.44	41.6419
2847.77	44.8782
2849.08	48.0588
2850.4	51.167
2851.73	54.5886
2853.05	58.4904
2854.36	62.7244
2855.68	66.7251
2857	70.6665
2858.32	74.312
2859.64	77.5078
2860.96	80.2972
2862.28	83.5883
2863.59	87.0484
2864.91	90.6398
2866.23	93.7129
2867.55	96.7665
2868.86	99.8544
2870.18	102.579
2871.5	105.209
2872.81	107.86
2874.13	109.642
2875.44	111.518
2876.76	113.188
2878.07	114.472
2879.39	116.411
2880.7	118.741
2882.02	120.51
2883.33	122.584
2884.65	124.902
2885.96	126.741
2887.28	128.942
2888.59	130.614
2889.9	131.667
2891.21	132.863
2892.53	134.22
2893.84	136.565
2895.15	138.565
2896.46	140.68
2897.78	142.649
2899.09	145.319
2900.4	148.001
2901.71	151.111
2903.02	154.69
2904.33	158.106
2905.64	162.148
2906.95	165.796
2908.26	170.41
2909.57	175.539
2910.88	180.564
2912.19	185.308
2913.5	190.224
2914.81	194.778
2916.12	199.237
2917.43	204.345
2918.73	208.527
2920.04	212.649
2921.35	216.922
2922.66	219.981
2923.96	222.497
2925.27	224.551
2926.58	227.164
2927.88	230.22
2929.19	231.79
2930.5	232.686
2931.8	233.065
2933.11	233.668
2934.41	233.492
2935.72	233.709
2937.02	232.937
2938.33	231.329
2939.63	229.142
2940.94	226.799
2942.24	224.527
2943.54	221.887
2944.85	219.376
2946.15	216.148
2947.45	211.646
2948.76	207.512
2950.06	203.476
2951.36	199.433
2952.66	195.331
2953.97	190.1
2955.27	185.566
2956.57	181.468
2957.87	177.567
2959.17	173.528
2960.47	169.268
2961.77	165.142
2963.07	160.706
2964.37	156.111
2965.67	152.032
2966.97	148.147
2968.27	144.662
2969.57	140.432
2970.87	137.066
2972.17	133.23
2973.47	130.102
2974.77	126.489
2976.07	122.336
2977.36	118.854
2978.66	115.115
2979.96	111.454
2981.26	107.739
2982.55	104.173
2983.85	100.394
2985.15	97.124
2986.44	93.7207
2987.74	89.5265
2989.03	86.1397
2990.33	83.0825
2991.63	79.9725
2992.92	76.6122
2994.21	72.577
2995.51	69.4505
2996.8	66.5727
2998.1	63.464
2999.39	61.0934
3000.69	58.3365
3001.98	54.546
3003.27	51.9128
3004.57	49.3524
3005.86	46.7992
3007.15	44.3019
3008.44	41.7619
3009.74	39.3636
3011.03	36.9114
3012.32	34.8066
3013.61	33.3709
3014.9	31.6864
3016.19	30.5132
3017.48	29.3961
3018.78	27.8672
3020.07	26.664
3021.36	25.113
3022.65	23.7497
3023.94	22.8584
3025.23	22.0167
3026.51	21.0585
3027.8	20.5702
3029.09	20.2676
3030.38	19.9254
3031.67	20.294
3032.96	20.736
3034.24	20.7181
3035.53	21.1129
3036.82	21.6038
3038.11	22.0149
3039.39	22.1999
3040.68	23.1208
3041.97	23.9241
3043.25	24.257
3044.54	24.8719
3045.83	25.5715
3047.11	26.256
3048.4	26.9283
3049.68	27.5423
3050.97	28.0695
3052.25	28.0856
3053.54	28.4183
3054.82	28.5299
3056.11	28.3448
3057.39	28.4411
3058.67	28.4754
3059.96	28.5565
3061.24	28.3565
3062.52	27.6549
3063.81	27.8391
3065.09	26.7278
3066.37	26.3315
3067.65	25.5647
3068.94	24.1384
3070.22	22.8514
3071.5	21.5127
3072.78	20.5312
3074.06	19.1746
3075.34	18.0905
3076.62	17.2119
3077.9	15.8882
3079.18	15.0948
3080.46	14.2264
3081.74	12.7272
3083.02	11.1847
3084.3	9.84233
3085.58	8.84348
3086.86	7.81048
3088.14	6.92402
3089.42	5.79526
3090.69	4.63219
3091.97	4.13167
3093.25	3.39145
3094.53	2.76233
3095.8	2.89053
3097.08	2.64659
3098.36	2.27492
3099.63	2.00438
3100.91	1.43467
3102.19	0.945577
3103.46	0.642116
3104.74	1.02966
3106.01	0.842054
3107.29	0.99441
3108.56	1.21388
3109.84	1.08529
3111.11	0.75495
3112.39	0.620972
3113.66	0.613811
3114.94	0.709492
3116.21	0.773869
3117.48	0.787168
3118.76	0.756979
3120.03	0.781625
3121.3	0.873127
3122.57	1.01978
3123.85	1.15095
3125.12	1.14348
3126.39	1.32969
3127.66	1.67797
3128.93	1.21307
3130.21	0.982597
3131.48	0.443377
3132.75	0.317562
3134.02	0.431636
3135.29	0.418807
3136.56	0.831402
3137.83	1.02605
3139.1	1.49534
3140.37	1.4663
3141.64	1.25534
3142.91	0.979774
3144.17	0.612754
3145.44	0.552464
3146.71	0.386183
3147.98	0.932224
3149.25	1.16684
