#Acq. time (s)=	45
#Accumulations=	2
#Range (cm-¹)=	200...3150
#Windows=	2
#Auto scanning=	Off
#Autofocus=	Off
#Macrospot=	Off
#AutoExposure=	Off
#Spike filter=	Multiple accum.
#Delay time (s)=	0
#Binning=	1
#Readout mode=	Signal
#DeNoise=	Off
#ICS correction=	On
#Dark correction=	Off
#Inst. Process=	Off
#Detector Gain=	Best Dynamic Range
#Detector ADC=	20 kHz       
#Detector temperature (°C)=	-69.85
#Instrument=	LabRAM HR Evol
#Detector=	Synapse
#Objective=	x100
#Grating=	600 gr/mm
#ND Filter=	100%
#Laser (nm)=	532 
#Hole=	100.021
#Range=	Auto
#Laser Pol.=	No
#Raman. Pol.=	No
#Laser Pol. (°)=	-0.0007625
#Raman Pol. (°)=	89.9995
#Collection=	Microscope
#StageXY=	Marzhauser
#StageZ=	Marzhauser
#X (µm)=	8989.2
#Y (µm)=	-3069.7
#Z (µm)=	-55.15
#Full time(mm:ss)=	3:18
#Project=	
#Sample=	
#Site=	
#Title=	Thy_00_07_27_2x_45s_532 nm_x100_100%_600 gr_mm
#Remark=	
#Date=	28.06.2022 12:05
#Acquired=	28.06.2022 12:05:44
#Base:Fit=	10.08.2022 10:07:56
#Base:Sub=	10.08.2022 10:08:40
#Filter:Polynom=	16.08.2022 10:26:06
#AxisType[0]=Intens
#AxisUnit[0]=Cnt
#AxisType[1]=Spectr
#AxisUnit[1]=1/cm
200.407	28.9773
202.221	28.5761
204.035	28.1924
205.849	28.8095
207.665	28.6821
209.478	28.8834
211.291	28.8196
213.104	28.0742
214.916	28.0914
216.73	27.4764
218.541	25.0314
220.352	24.0924
222.163	22.8198
223.973	21.881
225.785	20.973
227.595	19.7084
229.404	18.895
231.213	17.2
233.022	16.1514
234.83	14.4909
236.638	13.3932
238.448	12.0655
240.255	11.9408
242.062	11.7313
243.868	10.9015
245.675	10.4628
247.48	9.74233
249.286	9.04993
251.091	7.66699
252.896	6.18
254.702	6.48484
256.506	5.7779
258.31	5.9757
260.113	6.888
261.916	5.7072
263.719	6.15326
265.521	6.47858
267.323	5.42278
269.125	4.4667
270.926	4.54579
272.727	4.80583
274.527	4.61809
276.328	4.36738
278.127	4.71209
279.927	5.11996
281.726	5.40504
283.525	6.24403
285.323	6.52645
287.121	7.07643
288.919	7.55485
290.716	7.8121
292.513	9.44517
294.31	9.78448
296.104	9.94031
297.9	10.5086
299.696	10.6553
301.491	11.3534
303.286	11.0893
305.081	11.4788
306.875	10.4976
308.669	10.6179
310.463	11.9378
312.256	11.6957
314.047	11.9883
315.839	11.4502
317.631	11.3855
319.423	12.0847
321.215	11.7448
323.006	12.5656
324.794	12.6216
326.585	12.8497
328.375	13.6862
330.165	14.7115
331.954	14.7595
333.741	14.5868
335.53	14.9582
337.318	14.8052
339.106	14.6882
340.894	14.1991
342.679	14.2536
344.466	15.5621
346.253	15.6914
348.039	16.4865
349.823	16.7552
351.608	15.6671
353.393	15.4685
355.176	15.3219
356.961	14.9427
358.745	15.9499
360.529	17.3132
362.31	17.5278
364.093	17.2337
365.876	17.3617
367.657	17.237
369.439	15.5833
371.221	14.8504
373	14.6158
374.781	14.5064
376.56	15.3194
378.34	15.2118
380.12	16.1044
381.898	16.4138
383.677	16.4034
385.456	16.8706
387.233	16.8366
389.011	16.9378
390.787	16.937
392.565	16.1601
394.34	16.1539
396.117	16.015
397.894	16.2216
399.668	16.0503
401.444	15.6682
403.217	15.8809
404.993	15.7018
406.766	16.25
408.54	17.092
410.312	17.3763
412.086	17.9774
413.858	17.7448
415.631	17.5071
417.402	18.1678
419.174	18.3725
420.944	17.53
422.716	16.9298
424.486	15.9136
426.257	14.7507
428.025	13.8697
429.794	13.0036
431.564	12.2467
433.332	11.8181
435.101	10.6891
436.868	9.46557
438.637	9.52625
440.403	9.1455
442.169	9.13818
443.937	10.6348
445.703	12.0066
447.468	13.3207
449.234	13.3871
450.999	13.9943
452.765	15.5922
454.528	16.1503
456.292	17.3675
458.057	18.9883
459.819	22.1646
461.582	24.7514
463.344	27.1483
465.107	29.0301
466.868	30.8783
468.629	33.1512
470.392	34.9329
472.152	36.9289
473.912	38.3213
475.672	39.679
477.433	41.4306
479.192	42.9886
480.951	44.4454
482.709	45.8792
484.469	47.3335
486.226	49.3289
487.984	50.5783
489.74	51.9356
491.499	53.3002
493.255	54.1872
495.011	55.2211
496.767	55.8586
498.522	56.1192
500.277	55.4374
502.033	54.3183
503.788	53.4432
505.541	52.5326
507.295	50.211
509.048	47.2146
510.801	44.8284
512.553	41.9051
514.308	39.2016
516.06	36.2128
517.811	32.6568
519.562	30.5883
521.313	28.3234
523.063	26.7695
524.814	25.0578
526.563	24.0125
528.313	22.2327
530.062	21.1663
531.811	20.2075
533.559	19.3045
535.308	16.9585
537.055	15.7268
538.803	15.3649
540.55	15.3169
542.297	13.5224
544.043	13.271
545.789	13.2637
547.535	12.1237
549.281	11.6217
551.026	11.6956
552.771	11.4345
554.515	11.5553
556.259	10.9668
558.003	11.5705
559.747	12.4847
561.49	12.733
563.233	12.9953
564.975	12.946
566.717	13.7525
568.459	14.9973
570.2	15.2179
571.942	15.9477
573.68	16.3624
575.421	16.1233
577.161	16.6667
578.901	17.0462
580.64	16.7212
582.379	16.3021
584.118	16.5325
585.855	16.6943
587.593	15.4348
589.331	15.0502
591.068	14.6531
592.805	13.1524
594.54	11.6873
596.277	10.5981
598.013	10.2377
599.749	9.28605
601.484	7.81848
603.217	5.88868
604.952	5.08028
606.687	5.2017
608.421	4.45801
610.153	4.02349
611.886	2.89066
613.619	2.71806
615.35	2.48384
617.083	1.56406
618.815	0.695859
620.547	0.0477884
622.276	-0.802128
624.008	0.251854
625.738	0.513523
627.467	0.418131
629.197	0.195173
630.927	0.965108
632.655	1.68599
634.384	1.57993
636.113	2.59902
637.839	3.62217
639.568	4.49285
641.293	4.77307
643.021	5.93645
644.748	6.91144
646.473	7.28202
648.2	7.02579
649.924	7.18753
651.65	7.82484
653.376	8.67511
655.099	8.1827
656.824	8.52103
658.546	8.417
660.271	8.14958
661.993	7.60317
663.716	7.95835
665.438	7.67598
667.161	7.11708
668.881	7.53724
670.604	8.25462
672.324	8.42709
674.045	8.27784
675.765	9.46849
677.486	9.92424
679.204	9.50279
680.925	10.2097
682.643	10.433
684.361	11.4758
686.08	10.8594
687.797	11.1038
689.516	11.3491
691.232	13.0514
692.95	13.3792
694.666	14.1183
696.382	14.2738
698.099	14.0054
699.813	13.884
701.528	14.284
703.244	13.9277
704.958	13.5353
706.673	14.1488
708.387	15.0244
710.099	16.6941
711.814	17.1367
713.526	17.8436
715.238	19.1405
716.949	19.8938
718.663	20.3828
720.374	21.2437
722.084	22.2794
723.796	23.6841
725.506	24.4254
727.216	24.654
728.925	25.9234
730.636	26.3607
732.345	26.6228
734.053	27.9302
735.761	28.2312
737.471	30.0675
739.178	30.6787
740.885	32.3844
742.592	34.271
744.298	34.7033
746.006	36.4427
747.712	38.252
749.417	41.0148
751.122	42.8507
752.827	45.2571
754.532	47.1254
756.236	49.0142
757.942	50.5872
759.645	52.5022
761.348	54.7079
763.051	56.1567
764.753	57.2758
766.456	58.2092
768.158	59.3932
769.859	60.3519
771.56	60.5076
773.261	61.1319
774.964	61.3145
776.664	62.1336
778.364	62.0812
780.064	62.0946
781.763	62.3927
783.462	61.9578
785.16	62.587
786.859	62.1567
788.557	62.1206
790.255	61.4083
791.952	62.4161
793.649	62.1143
795.346	62.5151
797.042	60.9016
798.738	61.52
800.434	61.533
802.127	60.9623
803.823	59.7616
805.517	59.2618
807.212	58.7929
808.906	58.2909
810.6	58.1987
812.293	57.5396
813.987	57.7883
815.68	58.8873
817.372	60.2219
819.064	62.5588
820.754	63.4077
822.446	66.371
824.137	67.1997
825.828	68.9854
827.519	69.9357
829.209	71.344
830.897	73.5331
832.587	75.728
834.276	77.0304
835.966	77.8352
837.654	78.5752
839.341	79.3891
841.029	80.306
842.717	80.1654
844.404	80.2444
846.091	79.3602
847.776	78.2048
849.463	76.502
851.149	75.289
852.833	74.4178
854.519	73.3389
856.204	73.0576
857.889	71.7266
859.572	69.9017
861.256	68.4148
862.94	66.6585
864.622	64.4262
866.305	62.2825
867.988	59.95
869.669	58.6458
871.351	55.6863
873.033	54.6926
874.713	52.9603
876.395	51.2168
878.074	49.1337
879.755	47.5857
881.435	45.6326
883.114	44.5915
884.794	42.3547
886.471	40.3056
888.15	39.3627
889.829	38.365
891.506	37.8607
893.184	38.5052
894.861	39.8761
896.538	40.813
898.214	41.7658
899.891	43.5082
901.566	44.739
903.242	46.0265
904.916	47.7192
906.592	49.035
908.266	50.1067
909.941	52.3722
911.614	53.6776
913.288	55.5025
914.961	57.275
916.635	58.33
918.306	58.6654
919.979	58.8427
921.651	59.1451
923.321	59.1736
924.994	58.1258
926.664	56.8112
928.336	55.3896
930.005	54.637
931.674	53.6805
933.345	52.394
935.014	51.8947
936.682	51.0774
938.352	50.6975
940.019	49.414
941.687	47.6601
943.356	45.5487
945.022	43.8104
946.689	41.8228
948.357	39.8947
950.022	38.8311
951.688	38.1175
953.355	36.8141
955.02	34.7899
956.684	33.3345
958.348	30.8553
960.014	27.1516
961.678	26.2293
963.341	25.3096
965.004	24.885
966.669	24.0468
968.331	25.3813
969.993	25.0771
971.655	25.671
973.316	25.1725
974.979	27.0292
976.64	29.4814
978.3	30.2719
979.961	30.1241
981.62	30.2916
983.28	31.393
984.941	32.682
986.6	32.9361
988.259	33.8179
989.917	33.1317
991.575	34.1484
993.233	34.5142
994.89	34.7059
996.547	36.0383
998.204	37.3195
999.86	37.0018
1001.52	37.0774
1003.17	37.752
1004.83	38.2007
1006.49	39.3399
1008.14	39.4114
1009.79	40.3856
1011.45	40.501
1013.1	42.4191
1014.76	43.8754
1016.41	44.1612
1018.06	44.382
1019.72	44.3273
1021.37	42.7831
1023.02	42.8781
1024.67	42.2163
1026.32	40.9399
1027.97	40.5291
1029.62	39.1942
1031.27	39.2158
1032.92	38.5927
1034.57	36.5872
1036.22	35.0557
1037.87	33.5989
1039.52	32.7837
1041.17	32.6571
1042.82	32.0832
1044.47	34.2727
1046.11	34.2242
1047.76	34.8261
1049.41	34.8786
1051.06	35.7235
1052.7	34.5715
1054.35	34.9624
1055.99	35.6075
1057.64	36.9679
1059.28	35.6444
1060.93	34.673
1062.57	34.017
1064.22	34.2356
1065.86	34.1348
1067.5	34.0989
1069.15	34.1724
1070.79	34.1743
1072.43	34.6802
1074.08	36.6893
1075.72	36.8519
1077.36	38.2328
1079	38.8138
1080.64	40.4571
1082.28	40.5763
1083.92	41.5408
1085.56	42.2808
1087.2	42.6881
1088.84	44.2045
1090.48	44.4447
1092.12	46.0593
1093.76	46.2414
1095.39	47.9551
1097.03	47.6737
1098.67	46.5159
1100.31	47.211
1101.94	47.3372
1103.58	48.1783
1105.22	48.7103
1106.85	48.7003
1108.49	47.9261
1110.12	48.099
1111.76	47.3242
1113.39	47.8667
1115.03	47.3561
1116.66	46.7707
1118.29	46.7668
1119.93	46.6097
1121.56	45.8517
1123.19	45.1375
1124.82	43.7157
1126.46	44.0756
1128.09	43.4509
1129.72	42.6303
1131.35	41.1411
1132.98	40.9805
1134.61	39.4092
1136.24	39.0744
1137.87	36.9921
1139.5	35.1705
1141.13	32.5596
1142.76	32.6528
1144.39	31.943
1146.01	30.5935
1147.64	29.2131
1149.27	27.3816
1150.9	26.2732
1152.53	23.0562
1154.15	21.863
1155.78	20.1155
1157.4	17.0042
1159.03	15.8269
1160.65	13.943
1162.28	12.3519
1163.9	9.98039
1165.53	8.39753
1167.15	7.8386
1168.78	7.49027
1170.4	7.8111
1172.02	7.89146
1173.65	7.36968
1175.27	7.5727
1176.89	7.62015
1178.51	6.71519
1180.14	6.07462
1181.76	6.72103
1183.38	6.07249
1185	6.76108
1186.62	6.26063
1188.24	8.4654
1189.86	8.35849
1191.48	8.67244
1193.1	8.76498
1194.71	9.67692
1196.33	10.5985
1197.95	10.617
1199.57	11.6119
1201.19	12.9079
1202.8	13.4344
1204.42	15.0851
1206.04	17.4216
1207.65	20.1591
1209.27	22.3558
1210.88	23.8037
1212.5	25.9275
1214.12	28.1558
1215.73	29.5268
1217.35	31.5592
1218.96	33.2781
1220.57	35.7238
1222.19	37.7376
1223.8	39.9421
1225.41	41.344
1227.03	41.2251
1228.64	42.7724
1230.25	43.7943
1231.86	44.08
1233.47	44.6971
1235.08	45.9922
1236.69	47.4397
1238.31	48.5487
1239.92	50.0716
1241.52	50.5757
1243.13	51.6762
1244.74	53.7131
1246.35	54.3669
1247.96	55.6843
1249.57	56.5131
1251.18	57.1298
1252.78	57.6367
1254.39	57.0256
1256	57.5414
1257.6	56.2029
1259.21	56.2487
1260.82	56.1461
1262.42	56.5322
1264.03	56.2123
1265.63	55.8658
1267.24	55.9085
1268.84	54.848
1270.45	52.8029
1272.05	53.5777
1273.65	54.0055
1275.26	53.9042
1276.86	53.5868
1278.46	53.4124
1280.06	54.1205
1281.67	54.3771
1283.27	55.3488
1284.87	57.5864
1286.47	58.6736
1288.07	59.4035
1289.67	59.5023
1291.27	59.7871
1292.87	59.9467
1294.47	61.1678
1296.07	62.946
1297.67	64.4926
1299.27	65.8342
1300.87	66.1557
1302.47	67.5327
1304.06	68.5497
1305.66	70.803
1307.26	72.824
1308.85	76.3424
1310.45	78.8188
1312.05	80.8187
1313.64	84.6545
1315.24	87.6983
1316.83	91.2053
1318.43	93.5106
1320.02	95.3053
1321.62	96.8715
1323.21	100.333
1324.8	101.453
1326.4	102.491
1327.99	104.739
1329.59	105.135
1331.18	105.591
1332.77	106.594
1334.36	106.561
1335.95	106.759
1337.54	106.142
1339.14	105.82
1340.73	104.885
1342.32	104.592
1343.91	103.649
1345.5	103.188
1347.09	102.655
1348.67	101.035
1350.26	100.665
1351.85	99.9246
1353.44	97.382
1355.03	95.0078
1356.62	93.0842
1358.2	91.5589
1359.79	89.9253
1361.38	88.6026
1362.96	88.0789
1364.55	86.8792
1366.14	84.4416
1367.72	83.1685
1369.31	81.4626
1370.89	80.0766
1372.48	78.9622
1374.06	78.2793
1375.64	77.079
1377.23	75.6718
1378.81	74.1308
1380.39	73.3692
1381.98	73.551
1383.56	74.0449
1385.14	74.1145
1386.72	74.3457
1388.3	74.2805
1389.89	73.2683
1391.47	72.0423
1393.05	71.574
1394.63	70.4103
1396.21	69.0844
1397.79	67.8839
1399.37	67.588
1400.95	66.9343
1402.52	65.7656
1404.1	64.1386
1405.68	64.1192
1407.26	63.6536
1408.84	63.1997
1410.42	64.0208
1411.99	64.5546
1413.57	64.2733
1415.15	65.2409
1416.72	66.7826
1418.3	68.2399
1419.87	69.9621
1421.45	71.7769
1423.02	74.2366
1424.6	77.122
1426.17	79.7547
1427.75	81.6489
1429.32	83.7715
1430.89	86.3123
1432.47	89.684
1434.04	92.7423
1435.61	96.4611
1437.18	100.144
1438.76	102.516
1440.33	105.556
1441.9	107.817
1443.47	109.692
1445.04	111.888
1446.61	113.861
1448.18	114.338
1449.75	115.055
1451.32	115.293
1452.89	114.78
1454.46	114.305
1456.03	112.552
1457.6	110.509
1459.16	109.1
1460.73	106.296
1462.3	103.295
1463.87	100.42
1465.43	97.7861
1467	93.4853
1468.56	89.7141
1470.13	85.7159
1471.7	82.4759
1473.26	77.8213
1474.83	73.9977
1476.39	70.1087
1477.96	66.059
1479.52	61.0771
1481.08	57.0899
1482.65	54.3047
1484.21	50.6711
1485.77	47.6414
1487.34	44.7389
1488.9	41.3841
1490.46	38.2254
1492.02	35.5473
1493.58	33.2488
1495.15	30.1215
1496.71	27.9799
1498.27	25.7269
1499.83	24.3179
1501.39	23.7788
1502.95	22.2695
1504.51	21.5003
1506.07	20.3076
1507.63	20.6777
1509.18	20.6318
1510.74	20.5577
1512.3	20.1118
1513.86	18.9102
1515.41	18.4004
1516.97	18.0357
1518.53	19.2812
1520.08	19.6758
1521.64	20.6374
1523.2	21.7882
1524.75	21.284
1526.31	21.3233
1527.86	21.4922
1529.42	20.93
1530.97	21.2524
1532.52	21.843
1534.08	21.9584
1535.63	22.7942
1537.19	25.1578
1538.74	26.5601
1540.29	28.8818
1541.84	29.867
1543.4	31.5445
1544.95	32.5979
1546.5	34.8356
1548.05	35.852
1549.6	38.048
1551.15	39.4375
1552.7	41.2966
1554.25	43.3082
1555.8	44.93
1557.35	47.3744
1558.9	49.3517
1560.45	51.5813
1562	53.4246
1563.54	55.7271
1565.09	57.609
1566.64	59.5485
1568.19	62.2073
1569.73	64.4799
1571.28	65.7128
1572.83	67.7793
1574.37	70.2412
1575.92	71.2905
1577.47	72.9807
1579.01	74.8825
1580.56	76.6442
1582.1	78.4551
1583.64	79.0972
1585.19	80.7787
1586.73	81.275
1588.28	81.539
1589.82	81.8036
1591.36	82.3348
1592.9	83.2781
1594.45	84.8984
1595.99	85.3658
1597.53	85.6795
1599.07	86.4051
1600.61	86.0789
1602.15	85.3481
1603.69	84.5685
1605.23	83.4007
1606.77	83.0317
1608.31	82.8842
1609.85	82.7622
1611.39	82.9414
1612.93	82.1622
1614.47	82.359
1616.01	80.5118
1617.55	79.2971
1619.08	78.1802
1620.62	78.2847
1622.16	77.7371
1623.7	77.8041
1625.23	77.2791
1626.77	77.4762
1628.3	77.3393
1629.84	78.0373
1631.37	79.2103
1632.91	79.8101
1634.44	79.7455
1635.98	79.3447
1637.51	80.4736
1639.05	81.5687
1640.58	83.325
1642.11	84.561
1643.65	86.2492
1645.18	87.9165
1646.71	88.6673
1648.24	88.78
1649.78	90.0899
1651.31	89.8788
1652.84	89.5522
1654.37	90.1321
1655.9	90.8472
1657.43	90.4415
1658.96	89.6781
1660.49	89.5571
1662.02	89.6428
1663.55	88.1383
1665.08	86.7228
1666.61	86.3317
1668.14	85.5793
1669.66	83.8726
1671.19	82.9925
1672.72	81.0969
1674.25	79.0458
1675.77	76.3729
1677.3	73.666
1678.83	72.1181
1680.35	69.6807
1681.88	67.7722
1683.4	65.705
1684.93	63.2166
1686.45	60.7494
1687.98	58.2179
1689.5	55.2468
1691.03	53.202
1692.55	51.512
1694.07	49.2701
1695.6	47.0851
1697.12	45.4927
1698.64	43.6304
1700.17	41.3133
1701.69	39.1255
1703.21	37.4179
1704.73	36.2528
1706.25	34.9179
1707.77	32.6056
1709.29	30.3624
1710.81	29.0493
1712.33	28.9445
1713.85	28.6908
1715.37	27.7136
1716.89	26.5038
1718.41	25.4605
1719.93	24.6803
1721.45	23.5472
1722.97	22.4546
1724.49	21.3983
1726	20.715
1727.52	19.4238
1729.04	18.9703
1730.55	18.7279
1732.07	17.961
1733.59	16.7123
1735.1	16.8292
1736.62	16.6765
1738.13	15.8959
1739.65	15.3704
1741.16	14.7092
1742.68	14.5012
1744.19	13.4614
1745.7	13.2996
1747.22	12.7047
1748.73	11.7669
1750.24	11.2456
1751.76	11.1146
1753.27	11.2306
1754.78	10.6572
1756.29	9.80826
1757.8	9.45246
1759.31	9.2184
1760.83	8.61551
1762.34	8.50714
1763.85	8.62163
1765.36	8.9521
1766.87	9.18414
1768.38	9.15501
1769.89	7.98466
1771.39	8.1949
1772.9	8.40589
1774.41	8.50747
1775.92	8.33127
1777.43	8.43447
1778.94	8.72017
1780.44	9.04666
1781.95	8.50279
1783.46	8.46551
1784.96	8.55594
1786.47	9.18418
1787.97	8.92818
1789.48	8.67913
1790.99	8.55214
1792.49	8.17505
1794	8.27149
1795.5	7.97375
1797	7.5172
1798.51	7.34035
1800.01	6.91417
1801.51	6.33362
1803.02	6.05469
1804.52	5.55883
1806.02	4.89807
1807.53	4.62671
1809.03	4.51826
1810.53	5.27152
1812.03	4.96431
1813.53	4.91069
1815.03	4.91926
1816.53	4.83873
1818.03	4.56301
1819.53	4.05866
1821.03	4.14257
1822.53	3.35684
1824.03	3.63627
1825.53	3.74029
1827.03	3.44515
1828.53	3.27174
1830.02	3.0069
1831.52	3.15406
1833.02	3.53623
1834.52	3.8293
1836.01	3.63476
1837.51	4.21277
1839.01	5.17818
1840.5	5.70672
1842	5.74753
1843.49	5.98023
1844.99	6.84617
1846.48	7.72406
1847.98	8.27265
1849.47	8.73895
1850.97	7.87109
1852.46	8.73412
1853.95	8.43081
1855.45	8.62264
1856.94	7.98533
1858.43	8.34159
1859.93	7.57548
1861.42	7.67053
1862.91	7.25884
1864.4	6.62449
1865.89	6.40255
1867.38	6.4493
1868.87	7.15551
1870.36	6.3319
1871.85	5.79137
1873.34	5.34456
1874.83	5.04505
1876.32	4.82337
1877.81	4.02321
1879.3	3.68757
1880.79	3.1329
1882.28	3.23556
1882.52	3.26895
1884.02	2.84957
1885.51	2.72294
1887.01	2.74888
1888.5	3.03222
1889.99	2.82327
1891.49	2.86069
1892.98	3.36797
1894.47	3.49639
1895.97	3.41403
1897.46	3.78114
1898.95	3.87266
1900.44	4.28743
1901.93	4.79575
1903.42	4.81675
1904.91	5.19335
1906.4	5.46619
1907.89	5.24235
1909.38	5.19686
1910.87	6.21107
1912.36	6.73348
1913.85	6.43131
1915.34	6.61515
1916.83	7.16363
1918.32	6.85506
1919.8	6.85537
1921.29	6.96073
1922.78	6.15156
1924.27	5.91662
1925.75	6.41244
1927.24	5.75596
1928.73	5.85235
1930.21	6.0056
1931.7	6.38847
1933.18	6.45962
1934.67	7.92182
1936.15	7.30228
1937.64	7.10041
1939.12	7.62371
1940.61	7.77853
1942.09	7.30339
1943.57	6.24527
1945.06	5.88892
1946.54	6.16786
1948.02	6.08368
1949.51	5.3311
1950.99	4.77576
1952.47	4.51371
1953.95	4.32968
1955.43	4.43537
1956.91	4.11147
1958.4	3.42676
1959.88	4.16566
1961.36	4.04991
1962.84	4.84382
1964.32	4.07
1965.8	3.9654
1967.27	3.79218
1968.75	3.40594
1970.23	3.27098
1971.71	2.94423
1973.19	2.82911
1974.67	3.13454
1976.14	2.99607
1977.62	2.29883
1979.1	2.35123
1980.58	2.13195
1982.05	1.87296
1983.53	2.44121
1985	3.07173
1986.48	2.98309
1987.95	2.87296
1989.43	3.80278
1990.9	3.89506
1992.38	4.27788
1993.85	5.4238
1995.33	5.48686
1996.8	5.27049
1998.27	6.11109
1999.75	6.50521
2001.22	6.77266
2002.69	7.56453
2004.16	8.02063
2005.64	8.60495
2007.11	9.02598
2008.58	9.0247
2010.05	8.70729
2011.52	9.37076
2012.99	9.85834
2014.46	9.87088
2015.93	9.88911
2017.4	9.67547
2018.87	9.84348
2020.34	10.1244
2021.81	9.66999
2023.28	9.21248
2024.75	9.09479
2026.22	9.08679
2027.69	10.0004
2029.15	9.44228
2030.62	8.85574
2032.09	8.97583
2033.56	9.08398
2035.02	8.40418
2036.49	7.98902
2037.96	7.12881
2039.42	6.62304
2040.89	6.4961
2042.35	6.63398
2043.82	6.38909
2045.28	6.45111
2046.75	7.02465
2048.21	6.33786
2049.67	6.20568
2051.14	6.01933
2052.6	6.07369
2054.07	6.63292
2055.53	6.87289
2056.99	7.14114
2058.45	7.33542
2059.92	6.84908
2061.38	6.4781
2062.84	6.53631
2064.3	5.72408
2065.76	5.73961
2067.22	5.09105
2068.68	4.53423
2070.14	4.91143
2071.6	4.81676
2073.06	4.76177
2074.52	4.65369
2075.98	5.33681
2077.44	4.80087
2078.9	5.0989
2080.36	4.69228
2081.82	4.38509
2083.27	4.16961
2084.73	3.8221
2086.19	4.19836
2087.65	4.63833
2089.1	5.06037
2090.56	5.09934
2092.02	5.14007
2093.47	5.31548
2094.93	5.39465
2096.38	5.96079
2097.84	6.39002
2099.29	6.95948
2100.75	6.70997
2102.2	5.84467
2103.66	5.62877
2105.11	6.49385
2106.56	5.99807
2108.02	6.66924
2109.47	6.76619
2110.92	7.25392
2112.38	7.16751
2113.83	8.13274
2115.28	8.18428
2116.73	7.42632
2118.18	7.29059
2119.63	6.62086
2121.09	5.9836
2122.54	6.28582
2123.99	5.51727
2125.44	5.59805
2126.89	6.13715
2128.34	6.22479
2129.79	5.57036
2131.23	4.85909
2132.68	3.91512
2134.13	4.05176
2135.58	3.9369
2137.03	3.52523
2138.48	3.54605
2139.92	3.44414
2141.37	3.67584
2142.82	4.16732
2144.27	3.53186
2145.71	3.63601
2147.16	3.92554
2148.6	3.39772
2150.05	3.38288
2151.49	3.80908
2152.94	3.30913
2154.38	2.93748
2155.83	3.09205
2157.27	3.8262
2158.72	4.3068
2160.16	4.58495
2161.6	4.29941
2163.05	4.66437
2164.49	5.38501
2165.93	5.71295
2167.38	5.89586
2168.82	6.40045
2170.26	5.81793
2171.7	6.34616
2173.14	6.12036
2174.58	6.27083
2176.03	6.56089
2177.47	7.47991
2178.91	6.95988
2180.35	7.15087
2181.79	6.95634
2183.23	6.22119
2184.67	5.74545
2186.1	5.79074
2187.54	4.72004
2188.98	4.47052
2190.42	4.12384
2191.86	3.91437
2193.3	4.44562
2194.73	5.31941
2196.17	5.48673
2197.61	6.10509
2199.05	5.9045
2200.48	5.29643
2201.92	4.39198
2203.35	4.43586
2204.79	4.604
2206.22	4.00379
2207.66	3.80504
2209.1	3.4399
2210.53	3.28744
2211.97	3.44927
2213.4	3.31523
2214.83	3.40546
2216.27	2.9779
2217.7	2.97539
2219.13	3.18094
2220.57	2.54187
2222	3.35289
2223.43	2.96942
2224.86	3.07297
2226.29	3.24639
2227.72	4.06073
2229.16	4.19062
2230.59	4.17961
2232.02	4.12717
2233.45	4.02232
2234.88	4.5703
2236.31	4.28476
2237.74	4.2357
2239.17	5.09247
2240.6	5.51528
2242.03	5.54769
2243.45	6.62948
2244.88	6.2402
2246.31	6.96899
2247.74	8.26589
2249.17	8.15256
2250.59	7.77676
2252.02	7.67169
2253.45	7.90181
2254.87	7.76383
2256.3	8.95881
2257.73	9.44926
2259.15	8.66302
2260.58	9.12213
2262	8.67033
2263.43	8.81017
2264.85	8.50961
2266.28	8.00221
2267.7	6.95813
2269.13	6.91081
2270.55	6.24364
2271.97	5.60452
2273.4	5.02937
2274.82	4.53037
2276.24	4.03617
2277.67	3.74423
2279.09	3.98431
2280.51	3.7286
2281.93	3.31725
2283.35	3.02438
2284.77	2.70055
2286.2	2.78734
2287.62	2.39585
2289.04	2.13449
2290.46	2.63862
2291.88	0.868281
2293.3	1.04319
2294.72	0.770595
2296.13	0.818807
2297.55	0.832759
2298.97	0.598925
2300.39	0.10693
2301.81	0.412059
2303.23	1.33535
2304.64	1.95986
2306.06	2.63499
2307.48	3.91755
2308.89	4.83882
2310.31	5.44897
2311.73	5.01866
2313.14	5.09945
2314.56	5.89766
2315.98	6.12221
2317.39	6.7002
2318.81	7.05061
2320.22	6.42624
2321.64	6.61981
2323.05	6.75905
2324.46	7.56678
2325.88	7.87968
2327.29	8.00315
2328.7	6.77985
2330.12	6.64271
2331.53	6.68413
2332.94	6.28938
2334.35	6.41342
2335.77	6.50702
2337.18	6.72143
2338.59	6.9901
2340	7.26231
2341.41	6.44357
2342.82	5.84504
2344.23	6.13469
2345.64	5.72206
2347.05	5.81887
2348.46	5.38406
2349.87	5.05875
2351.28	4.42286
2352.69	3.2443
2354.1	2.8102
2355.51	3.04426
2356.91	2.28952
2358.32	1.47593
2359.73	1.57871
2361.14	1.42852
2362.54	0.792275
2363.95	1.20476
2365.36	0.847834
2366.76	1.01243
2368.17	1.14837
2369.58	0.536994
2370.98	0.966726
2372.39	1.25625
2373.79	1.73046
2375.2	1.52843
2376.6	1.45941
2378	1.77358
2379.41	1.138
2380.81	1.19226
2382.22	0.702301
2383.62	1.34797
2385.02	1.75002
2386.43	1.66543
2387.83	1.42546
2389.23	2.43928
2390.63	2.26294
2392.03	2.229
2393.44	3.31157
2394.84	4.14109
2396.24	4.32264
2397.64	4.46858
2399.04	4.70646
2400.44	6.23189
2401.84	6.29671
2403.24	6.66108
2404.64	7.42192
2406.04	7.86896
2407.44	8.45529
2408.84	8.49704
2410.23	8.91654
2411.63	8.95685
2413.03	8.99557
2414.43	9.4522
2415.83	9.31921
2417.22	10.3025
2418.62	10.4524
2420.02	11.031
2421.41	11.567
2422.81	11.7206
2424.21	12.1297
2425.6	13.0234
2427	13.3267
2428.39	13.2547
2429.79	13.3487
2431.18	12.8861
2432.58	12.5232
2433.97	11.4081
2435.36	10.9777
2436.76	11.2696
2438.15	11.4287
2439.54	11.1318
2440.94	10.9608
2442.33	10.5003
2443.72	9.93016
2445.12	9.43715
2446.51	8.5365
2447.9	8.63175
2449.29	7.99656
2450.68	7.33177
2452.07	6.24159
2453.46	6.02076
2454.85	4.97996
2456.24	4.55142
2457.64	4.10033
2459.02	4.19051
2460.41	3.66789
2461.8	3.41428
2463.19	3.49535
2464.58	2.79407
2465.97	2.27687
2467.36	1.61396
2468.75	1.12673
2470.13	0.615963
2471.52	0.524965
2472.91	0.654683
2474.3	0.496576
2475.68	0.366556
2477.07	0.277333
2478.45	0.358053
2479.84	0.707677
2481.23	1.01489
2482.61	1.34967
2484	1.94692
2485.38	2.29241
2486.77	2.58101
2488.15	3.0573
2489.54	3.41332
2490.92	3.79323
2492.3	3.87158
2493.69	4.13997
2495.07	4.39546
2496.45	4.13222
2497.84	3.40111
2499.22	3.64813
2500.6	4.0434
2501.98	4.09169
2503.36	3.30309
2504.75	3.89402
2506.13	4.96344
2507.51	5.17922
2508.89	5.15976
2510.27	5.3704
2511.65	5.66735
2513.03	6.29967
2514.41	6.57562
2515.79	6.181
2517.17	6.26045
2518.55	5.8
2519.93	5.76022
2521.3	5.46293
2522.68	5.95302
2524.06	5.85276
2525.44	6.09124
2526.82	5.6575
2528.19	5.78767
2529.57	5.39424
2530.95	4.60932
2532.32	4.369
2533.7	4.40254
2535.08	4.22233
2536.45	3.91604
2537.83	4.05811
2539.2	4.42092
2540.58	5.29839
2541.95	5.45676
2543.33	5.79843
2544.7	6.35799
2546.08	6.36379
2547.45	6.19558
2548.82	5.77338
2550.2	6.19546
2551.57	5.40437
2552.94	5.21869
2554.32	4.90466
2555.69	5.04848
2557.06	4.78877
2558.43	4.4442
2559.8	4.23956
2561.18	4.4035
2562.55	3.86433
2563.92	3.57018
2565.29	3.31148
2566.66	2.86828
2568.03	2.63761
2569.4	2.51637
2570.77	2.20657
2572.14	2.04455
2573.51	2.84276
2574.88	3.00369
2576.25	2.80829
2577.61	3.27295
2578.98	3.45206
2580.35	3.39872
2581.72	3.75329
2583.09	3.84828
2584.45	3.47763
2585.82	4.2495
2587.19	4.33481
2588.55	4.54334
2589.92	4.51349
2591.29	4.46171
2592.65	3.74354
2594.02	3.62788
2595.38	3.10841
2596.75	3.72159
2598.11	3.71918
2599.48	4.31768
2600.84	4.6846
2602.21	5.34314
2603.57	5.37143
2604.93	6.10321
2606.3	6.50027
2607.66	6.9137
2609.02	7.01309
2610.39	6.91445
2611.75	7.27582
2613.11	7.28556
2614.47	7.23775
2615.83	7.59373
2617.19	8.02239
2618.56	8.39144
2619.92	8.3429
2621.28	9.01667
2622.64	8.98529
2624	9.40916
2625.36	8.82347
2626.72	8.96114
2628.08	8.73472
2629.44	8.70493
2630.8	7.79863
2632.15	7.52218
2633.51	7.40465
2634.87	7.26572
2636.23	7.32247
2637.59	7.39645
2638.94	7.95892
2640.3	8.00599
2641.66	8.41934
2643.02	9.54384
2644.37	9.7585
2645.73	9.98709
2647.09	9.59663
2648.44	9.80364
2649.8	10.2172
2651.15	10.0116
2652.51	9.64984
2653.86	10.1845
2655.22	9.56647
2656.57	9.69056
2657.93	9.41322
2659.28	8.60681
2660.63	8.27982
2661.99	8.32542
2663.34	8.40707
2664.69	9.03103
2666.05	8.85501
2667.4	9.16574
2668.75	8.85178
2670.1	8.52082
2671.45	8.02346
2672.81	8.34526
2674.16	7.89963
2675.51	8.31656
2676.86	8.59451
2678.21	9.27546
2679.56	9.97839
2680.91	9.92464
2682.26	10.2882
2683.61	10.2729
2684.96	10.0897
2686.31	10.6857
2687.66	10.9608
2689	10.2954
2690.35	10.7222
2691.7	10.6308
2693.05	10.2202
2694.4	10.367
2695.74	10.317
2697.09	10.4908
2698.44	11.0143
2699.79	11.3883
2701.13	12.4731
2702.48	12.669
2703.83	13.5801
2705.17	14.2971
2706.52	14.7722
2707.86	14.5357
2709.21	15.1495
2710.55	15.5249
2711.9	14.9769
2713.24	15.5807
2714.58	16.3326
2715.93	16.7169
2717.27	17.2208
2718.62	17.1196
2719.96	17.2885
2721.3	17.5471
2722.65	17.204
2723.99	16.904
2725.33	16.4666
2726.67	15.8645
2728.01	16.0728
2729.35	16.1192
2730.7	16.4709
2732.04	15.9974
2733.38	15.4318
2734.72	15.4735
2736.06	15.2167
2737.4	15.0337
2738.74	14.7757
2740.08	15.1882
2741.42	15.2012
2742.76	15.2115
2744.1	15.0609
2745.43	14.5912
2746.77	14.2107
2748.11	13.6269
2749.45	13.5491
2750.79	13.0758
2752.12	12.8696
2753.46	13.0272
2754.8	12.3093
2756.14	11.8125
2757.47	11.8007
2758.81	11.0172
2760.14	10.3511
2761.48	9.86582
2762.81	9.91699
2764.15	9.5478
2765.49	9.84828
2766.82	9.3251
2768.16	9.32198
2769.49	8.10612
2770.82	8.04463
2772.16	6.90053
2773.49	5.71887
2774.82	5.56766
2776.16	5.43695
2777.49	4.7651
2778.82	4.46938
2780.16	3.86686
2781.49	3.21869
2782.82	2.23521
2784.15	1.96075
2785.48	1.03409
2786.82	0.927954
2788.15	0.395262
2789.48	0.148358
2790.81	-0.513998
2792.14	-0.372924
2793.47	-0.904872
2794.8	-0.62894
2796.13	-0.772043
2797.46	-0.552882
2798.79	-0.558171
2800.12	-0.0928785
2801.44	0.2932
2802.77	-0.0336618
2804.1	0.0462563
2805.43	-0.0243089
2806.76	0.703127
2808.08	0.515428
2809.41	0.32259
2810.74	0.501992
2812.07	0.516156
2813.39	0.822249
2814.72	1.33625
2816.05	2.34938
2817.37	3.69769
2818.7	5.20477
2820.02	6.84872
2821.35	8.91527
2822.67	11.0664
2824	13.4234
2825.32	16.1863
2826.65	19.3411
2827.97	22.4575
2829.3	25.8263
2830.62	29.4174
2831.94	33.12
2833.26	35.7926
2834.59	38.7508
2835.91	41.9885
2837.23	46.0285
2838.56	49.9942
2839.88	54.3796
2841.2	59.453
2842.52	64.0107
2843.84	69.1569
2845.16	74.9483
2846.48	80.1947
2847.8	86.8085
2849.12	92.7942
2850.45	99.5286
2851.77	106.995
2853.08	115.629
2854.4	123.417
2855.72	131.113
2857.04	138.759
2858.36	147.219
2859.68	154.627
2861	163.52
2862.32	171.724
2863.63	179.911
2864.95	188.933
2866.27	195.982
2867.59	202.75
2868.9	209.63
2870.22	217.501
2871.54	224.261
2872.85	232
2874.17	238.837
2875.48	245.146
2876.8	251.964
2878.11	258.726
2879.43	264.586
2880.74	271.053
2882.06	277.595
2883.37	284.481
2884.69	289.98
2886	296.408
2887.31	302.279
2888.63	307.149
2889.94	312.941
2891.25	318.458
2892.57	324.436
2893.88	328.413
2895.19	332.369
2896.5	336.774
2897.82	340.099
2899.13	344.179
2900.44	349.025
2901.75	353.621
2903.06	358.772
2904.37	363.872
2905.68	369.626
2906.99	375.761
2908.3	381.883
2909.61	388.257
2910.92	395.001
2912.23	402.05
2913.54	409.181
2914.85	415.51
2916.16	422.642
2917.46	429.581
2918.77	435.975
2920.08	441.162
2921.39	445.488
2922.7	450.139
2924	453.694
2925.31	456.534
2926.62	459.023
2927.92	460.334
2929.23	460.462
2930.54	460.521
2931.84	457.641
2933.15	455.56
2934.45	453.368
2935.76	451.177
2937.06	447.124
2938.37	443.796
2939.67	437.834
2940.98	431.766
2942.28	426.333
2943.58	419.299
2944.89	412.287
2946.19	405.751
2947.49	398.803
2948.8	391.759
2950.1	384.234
2951.4	376.664
2952.7	367.772
2954.01	358.757
2955.31	350.567
2956.61	341.663
2957.91	332.276
2959.21	322.416
2960.51	313.405
2961.81	305.053
2963.11	296.767
2964.41	289.146
2965.71	281.211
2967.01	273.273
2968.31	266.574
2969.61	260.128
2970.91	253.172
2972.21	246.705
2973.51	240.145
2974.81	233.631
2976.1	227.425
2977.4	220.709
2978.7	212.952
2980	205.854
2981.29	199.057
2982.59	192.118
2983.89	184.464
2985.18	176.899
2986.48	168.853
2987.78	161.317
2989.07	152.956
2990.37	144.778
2991.66	136.498
2992.96	128.525
2994.25	119.871
2995.55	111.97
2996.84	103.706
2998.14	96.9072
2999.43	90.5788
3000.73	83.9376
3002.02	76.937
3003.31	70.527
3004.61	63.8982
3005.9	58.9232
3007.19	53.5642
3008.48	47.9722
3009.77	43.686
3011.07	39.0679
3012.36	34.9195
3013.65	31.2126
3014.94	27.3538
3016.23	22.8746
3017.52	19.3126
3018.81	15.8628
3020.1	13.8278
3021.4	11.4073
3022.68	8.82372
3023.97	6.70698
3025.26	4.42093
3026.55	3.65297
3027.84	2.3292
3029.13	1.32577
3030.42	0.378091
3031.71	-0.530645
3033	-0.570912
3034.28	-0.959638
3035.57	-0.912451
3036.86	-0.00319407
3038.15	-0.114826
3039.43	0.251721
3040.72	1.28957
3042.01	2.28483
3043.29	3.11176
3044.58	3.90565
3045.87	5.21527
3047.15	6.70416
3048.44	7.64541
3049.72	8.54468
3051.01	9.61939
3052.29	10.1662
3053.58	11.1106
3054.86	11.9487
3056.15	12.9747
3057.43	14.0343
3058.71	14.2739
3060	15.6346
3061.28	16.3549
3062.56	16.935
3063.84	16.8417
3065.13	16.3608
3066.41	16.3983
3067.69	16.0734
3068.97	16.065
3070.26	15.9294
3071.54	15.0641
3072.82	14.6273
3074.1	14.5025
3075.38	13.7954
3076.66	13.8543
3077.94	13.1391
3079.22	11.9841
3080.5	10.6126
3081.78	9.89178
3083.06	8.88525
3084.34	8.03395
3085.62	6.67939
3086.9	5.47773
3088.18	5.14801
3089.45	4.917
3090.73	4.70611
3092.01	3.58
3093.29	3.27811
3094.56	3.14922
3095.84	3.55415
3097.12	4.1747
3098.4	4.26022
3099.67	5.07365
3100.95	5.5437
3102.22	5.72687
3103.5	6.40747
3104.78	7.37338
3106.05	7.98026
3107.33	8.74388
3108.6	9.54879
3109.88	11.2933
3111.15	12.1832
3112.43	13.2706
3113.7	14.2411
3114.97	16.3705
3116.25	17.6466
3117.52	19.128
3118.79	20.1549
3120.07	21.781
3121.34	22.9769
3122.61	23.8986
3123.88	25.6
3125.16	26.1111
3126.43	27.128
3127.7	28.2092
3128.97	29.3473
3130.24	30.94
3131.51	32.0487
3132.79	33.8876
3134.06	35.3725
3135.33	36.4579
3136.6	37.7356
3137.87	39.2321
3139.14	40.4368
3140.41	41.7793
3141.67	42.5397
3142.94	43.7846
3144.21	45.0533
3145.48	46.3184
3146.75	47.7631
3148.02	49.038
3149.29	49.9085
