#Acq. time (s)=	45
#Accumulations=	2
#Range (cm-¹)=	200...3150
#Windows=	2
#Auto scanning=	Off
#Autofocus=	Off
#Macrospot=	Off
#AutoExposure=	Off
#Spike filter=	Multiple accum.
#Delay time (s)=	0
#Binning=	1
#Readout mode=	Signal
#DeNoise=	Off
#ICS correction=	On
#Dark correction=	Off
#Inst. Process=	Off
#Detector Gain=	Best Dynamic Range
#Detector ADC=	20 kHz       
#Detector temperature (°C)=	-69.85
#Instrument=	LabRAM HR Evol
#Detector=	Synapse
#Objective=	x100
#Grating=	600 gr/mm
#ND Filter=	100%
#Laser (nm)=	532 
#Hole=	100.021
#Range=	Auto
#Laser Pol.=	No
#Raman. Pol.=	No
#Laser Pol. (°)=	-0.0007625
#Raman Pol. (°)=	89.9995
#Collection=	Microscope
#StageXY=	Marzhauser
#StageZ=	Marzhauser
#X (µm)=	-5089
#Y (µm)=	1503.4
#Z (µm)=	62.65
#Full time(mm:ss)=	3:18
#Project=	
#Sample=	
#Site=	
#Title=	Thy_50_12_03_2x_45s_532 nm_x100_100%_600 gr_mm
#Remark=	
#Date=	07.07.2022 09:21
#Acquired=	07.07.2022 09:21:48
#Base:Fit=	10.08.2022 10:03:08
#Base:Fit=	10.08.2022 10:03:15
#Base:Fit=	10.08.2022 10:03:19
#Base:Fit=	10.08.2022 10:04:29
#Base:Sub=	10.08.2022 10:04:45
#Filter:Polynom=	16.08.2022 10:20:24
#AxisType[0]=Intens
#AxisUnit[0]=Cnt
#AxisType[1]=Spectr
#AxisUnit[1]=1/cm
200.43	0.808368
202.246	2.52609
204.061	4.3583
205.875	4.90185
207.688	5.18069
209.501	5.23974
211.316	5.29298
213.129	5.06432
214.941	4.56301
216.753	4.64116
218.566	4.46701
220.377	5.2864
222.188	5.57555
223.999	5.32272
225.809	4.83576
227.618	5.64378
229.43	4.83884
231.239	4.86765
233.047	5.06242
234.855	4.75931
236.663	4.77301
238.471	4.27907
240.278	4.8376
242.087	4.87355
243.894	4.997
245.7	4.52064
247.506	4.29804
249.311	4.90627
251.116	4.68659
252.921	4.3841
254.725	4.69561
256.529	4.47698
258.333	4.22847
260.136	3.45093
261.939	4.97866
263.744	4.38576
265.546	4.74256
267.348	5.56749
269.15	6.52112
270.951	7.28995
272.752	7.4687
274.552	7.50475
276.353	8.03608
278.152	8.16407
279.952	8.38333
281.751	8.88138
283.55	9.82912
285.348	10.6309
287.146	11.6802
288.942	11.1214
290.739	12.7598
292.536	13.4691
294.333	13.7262
296.129	14.0339
297.925	14.696
299.721	16.0863
301.516	16.1546
303.311	16.4882
305.106	17.271
306.9	19.6121
308.694	19.8777
310.486	20.9634
312.279	20.9282
314.072	20.601
315.864	20.5613
317.656	20.0469
319.448	19.7022
321.24	20.69
323.029	20.4982
324.819	19.2967
326.61	17.8881
328.4	17.2721
330.19	17.3705
331.977	16.891
333.766	15.8085
335.555	15.108
337.343	14.8343
339.131	14.267
340.917	13.1783
342.704	12.6358
344.491	11.2906
346.277	9.21009
348.062	8.99664
349.848	8.99918
351.633	9.12651
353.416	6.69847
355.201	6.51857
356.986	6.04233
358.77	4.79017
360.552	4.15641
362.335	2.82613
364.118	2.92602
365.899	3.1871
367.682	3.36915
369.464	4.30105
371.243	5.28756
373.025	5.53606
374.806	5.53688
376.585	5.84672
378.365	5.7141
380.143	6.506
381.923	6.33138
383.702	6.5586
385.479	7.64593
387.258	8.9949
389.034	9.32206
390.812	10.1259
392.59	11.0287
394.365	12.2907
396.142	13.8096
397.916	13.5833
399.693	14.5697
401.467	14.1235
403.242	14.1022
405.015	14.5548
406.79	14.6357
408.565	15.9887
410.337	15.6536
412.111	15.0209
413.882	14.7343
415.656	14.8438
417.426	16.0811
419.197	16.9741
420.969	17.1593
422.739	17.1454
424.51	17.2016
426.279	17.3945
428.05	16.8133
429.819	17.2741
431.589	16.8888
433.356	16.8295
435.124	16.7688
436.893	18.3703
438.66	18.4214
440.428	18.0655
442.194	17.8141
443.96	17.8129
445.727	17.6909
447.492	18.5381
449.259	19.3559
451.023	19.6095
452.787	20.6744
454.553	20.9639
456.316	22.0668
458.079	22.4053
459.844	22.2986
461.606	22.08
463.368	21.9498
465.132	21.9026
466.893	21.506
468.654	21.7216
470.415	22.5626
472.177	22.4739
473.937	22.4635
475.696	22.0158
477.456	21.895
479.217	23.113
480.975	23.2147
482.733	23.2779
484.491	23.9307
486.251	23.4567
488.008	23.7225
489.765	23.0701
491.522	23.168
493.278	23.6043
495.036	23.8499
496.791	25.2655
498.546	25.2619
500.301	25.886
502.056	26.0455
503.81	25.3574
505.566	26.2911
507.319	26.7341
509.073	25.9238
510.825	25.4801
512.578	24.8573
514.33	25.1784
516.082	24.6343
517.833	24.8783
519.587	24.6516
521.337	25.4721
523.088	25.3973
524.838	24.9734
526.588	23.9901
528.337	23.9008
530.087	24.2166
531.835	24.0357
533.584	25.209
535.332	25.4648
537.08	24.839
538.827	23.4864
540.574	23.9289
542.321	23.238
544.068	22.6793
545.814	21.0432
547.56	20.236
549.305	19.8309
551.05	18.6862
552.795	16.9651
554.54	16.5284
556.284	15.698
558.027	15.1549
559.771	13.9957
561.514	13.8499
563.257	12.7582
564.999	12.6735
566.742	11.9656
568.481	10.4437
570.223	9.60132
571.964	9.51141
573.705	8.14428
575.445	8.66012
577.185	8.76616
578.925	8.98534
580.665	9.30622
582.402	9.46482
584.141	10.0058
585.879	8.6766
587.617	7.97443
589.355	6.68358
591.092	5.76409
592.828	6.0232
594.564	5.27758
596.301	4.57545
598.037	4.02114
599.773	4.10584
601.506	4.45883
603.242	4.48712
604.976	4.78328
606.711	5.09067
608.443	5.03986
610.177	4.56482
611.91	5.25245
613.644	6.80011
615.374	8.18455
617.107	9.31383
618.839	9.0589
620.569	9.1437
622.3	9.19498
624.032	9.73758
625.761	9.5676
627.491	11.4763
629.221	12.5609
630.949	13.358
632.679	14.8089
634.408	15.8719
636.135	16.7093
637.863	16.3148
639.592	17.1557
641.318	17.4429
643.045	17.0873
644.77	17.3546
646.497	17.705
648.224	18.7763
649.948	18.4508
651.674	19.7891
653.398	19.5051
655.123	20.1868
656.846	20.4799
658.57	20.2523
660.293	20.1444
662.017	21.7754
663.738	22.0406
665.462	22.2154
667.185	22.3754
668.905	22.4796
670.628	22.5731
672.348	21.7128
674.067	21.2209
675.789	21.4509
677.508	21.2879
679.228	21.5528
680.947	21.5776
682.667	21.1005
684.385	21.3683
686.104	21.8872
687.821	22.9049
689.538	23.823
691.256	24.7706
692.972	26.0347
694.69	27.0347
696.406	28.2292
698.121	30.1365
699.837	31.5211
701.552	33.2227
703.268	33.791
704.982	34.2187
706.695	35.8717
708.41	37.9023
710.123	39.3189
711.836	40.9269
713.55	42.6552
715.262	43.6139
716.973	44.4336
718.685	45.7865
720.398	46.9622
722.108	47.4362
723.818	47.348
725.53	48.8553
727.24	49.1411
728.949	50.5983
730.658	51.8229
732.369	52.7249
734.077	52.1135
735.785	52.8671
737.493	53.8782
739.2	53.7948
740.909	55.1544
742.616	54.6927
744.322	55.5088
746.028	57.5999
747.734	58.7783
749.441	60.0366
751.146	60.9999
752.851	61.7412
754.555	62.7285
756.26	63.9133
757.963	64.4676
759.667	65.3256
761.372	66.4238
763.075	67.6412
764.777	69.6291
766.479	70.8417
768.181	72.0813
769.883	73.0875
771.584	74.8989
773.285	77.3639
774.986	79.0204
776.686	81.2796
778.386	82.4597
780.085	83.5027
781.785	83.6615
783.484	85.3757
785.182	86.4202
786.881	86.5521
788.579	86.8807
790.276	88.4887
791.974	89.4825
793.671	90.1978
795.367	90.078
797.064	90.4858
798.76	90.7504
800.456	91.2629
802.151	91.8488
803.846	91.8597
805.541	91.0654
807.236	89.6884
808.93	89.0649
810.624	88.0458
812.317	87.2597
814.01	86.3559
815.703	84.8531
817.394	83.6896
819.086	82.1521
820.778	81.8321
822.47	80.8969
824.161	80.47
825.852	80.3971
827.543	77.9947
829.231	76.823
830.921	75.9335
832.611	74.8343
834.3	74.6393
835.989	73.502
837.676	73.1124
839.364	73.1741
841.053	72.4727
842.74	71.9627
844.426	70.3028
846.113	69.4289
847.8	69.5622
849.486	68.1375
851.171	66.3451
852.857	65.9258
854.542	65.0492
856.227	65.3555
857.911	64.9401
859.595	64.951
861.279	65.1301
862.961	63.7732
864.645	63.8633
866.329	62.8717
868.01	63.8858
869.692	63.0597
871.375	61.9903
873.055	62.1556
874.737	61.7515
876.418	60.5537
878.097	58.649
879.778	58.235
881.457	57.8249
883.137	57.0443
884.817	55.5412
886.495	53.7771
888.174	52.0312
889.851	50.8386
891.53	49.8271
893.206	49.1755
894.884	48.0391
896.562	47.8136
898.237	46.3678
899.914	45.1082
901.589	44.1369
903.265	42.9401
904.94	42.5417
906.615	42.8573
908.289	42.5342
909.964	41.9347
911.637	40.9468
913.31	40.8906
914.984	42.234
916.656	41.9867
918.33	42.445
920.001	42.5004
921.674	42.3963
923.345	42.3627
925.015	41.2255
926.687	40.7137
928.357	39.7621
930.028	39.4251
931.698	39.2731
933.366	36.9192
935.037	37.1601
936.705	37.1908
938.373	36.7138
940.043	37.3226
941.71	37.7022
943.379	37.3182
945.046	36.5013
946.712	36.1011
948.378	36.5238
950.046	35.9227
951.711	35.7612
953.376	35.3858
955.043	35.8111
956.708	35.1821
958.372	35.5486
960.036	35.0676
961.701	33.6626
963.364	34.5028
965.027	33.6785
966.69	32.8931
968.354	31.7201
970.016	32.0974
971.678	32.2336
973.339	32.7654
975	32.8932
976.661	33.7066
978.324	32.873
979.984	33.3341
981.644	33.5933
983.303	34.2421
984.962	34.6394
986.621	35.2744
988.282	35.6724
989.94	35.3658
991.598	35.1412
993.256	34.8126
994.913	34.6312
996.57	33.9512
998.227	33.7391
999.884	32.0137
1001.54	31.6313
1003.2	30.4432
1004.85	29.885
1006.51	29.4366
1008.16	28.5601
1009.82	27.6076
1011.47	27.1085
1013.12	25.8859
1014.78	25.9056
1016.43	24.3479
1018.08	25.5884
1019.74	25.3587
1021.39	26.1596
1023.04	25.167
1024.69	24.3824
1026.34	23.7758
1028	24.6253
1029.65	25.7578
1031.3	26.4068
1032.95	25.8841
1034.6	25.0849
1036.25	25.3345
1037.9	25.9424
1039.55	25.8754
1041.19	26.4043
1042.84	26.3117
1044.49	25.945
1046.14	26.6212
1047.79	26.509
1049.43	26.7788
1051.08	27.0435
1052.73	27.5216
1054.37	26.8928
1056.02	27.469
1057.66	27.5856
1059.31	27.9848
1060.95	27.3773
1062.6	28.112
1064.24	27.6653
1065.88	27.5537
1067.53	27.2565
1069.17	25.7557
1070.81	25.6699
1072.46	24.9328
1074.1	24.6685
1075.74	23.9431
1077.38	23.0244
1079.02	22.4916
1080.66	21.3192
1082.3	20.9306
1083.94	20.5415
1085.58	19.8913
1087.22	19.7326
1088.86	19.1361
1090.5	19.3096
1092.14	18.8758
1093.78	18.7269
1095.42	17.6786
1097.05	17.6149
1098.69	16.7364
1100.33	17.1749
1101.97	16.8657
1103.6	16.04
1105.24	14.3563
1106.87	15.2875
1108.51	16.2973
1110.15	17.0135
1111.78	16.1209
1113.41	16.5612
1115.05	15.3184
1116.68	16.0456
1118.31	16.2842
1119.95	16.5349
1121.58	15.9998
1123.21	15.471
1124.85	15.5575
1126.48	14.0767
1128.11	12.6946
1129.74	12.1182
1131.37	10.7781
1133	10.54
1134.63	10.0664
1136.26	10.0744
1137.89	10.516
1139.52	10.5066
1141.15	11.0774
1142.78	10.8069
1144.41	10.5039
1146.04	10.4966
1147.66	10.5178
1149.29	10.0943
1150.92	9.32822
1152.55	9.61058
1154.17	8.26915
1155.8	7.69742
1157.43	7.45127
1159.05	6.88269
1160.68	7.02888
1162.3	6.77889
1163.93	7.44984
1165.55	6.64862
1167.17	6.65756
1168.8	6.91671
1170.42	7.95294
1172.05	8.31828
1173.67	8.26741
1175.29	8.17999
1176.91	8.45421
1178.54	9.13341
1180.16	8.8026
1181.78	8.29503
1183.4	8.83842
1185.02	8.22618
1186.64	8.38845
1188.26	9.47282
1189.88	9.80554
1191.5	9.31618
1193.12	9.78992
1194.74	10.3905
1196.36	9.41385
1197.97	10.3583
1199.59	9.47457
1201.21	10.5631
1202.83	10.3675
1204.44	9.91718
1206.06	9.97367
1207.68	10.3807
1209.29	11.1234
1210.91	13.0407
1212.52	14.125
1214.14	16.2274
1215.75	17.8331
1217.37	19.2261
1218.98	20.9267
1220.6	22.2563
1222.21	22.9324
1223.82	24.3723
1225.44	24.8892
1227.05	26.6165
1228.66	27.5176
1230.27	28.8592
1231.88	30.3854
1233.49	32.0315
1235.1	33.7106
1236.72	35.9995
1238.33	37.0748
1239.94	37.5777
1241.55	38.7186
1243.16	39.9376
1244.76	40.9305
1246.37	42.3858
1247.98	44.3951
1249.59	46.1682
1251.2	48.5976
1252.8	49.46
1254.41	50.3875
1256.02	51.809
1257.63	53.3642
1259.23	54.4931
1260.84	54.786
1262.44	55.2972
1264.05	57.1821
1265.66	58.3038
1267.26	59.8796
1268.87	60.9093
1270.47	62.3874
1272.07	63.3489
1273.68	64.2373
1275.28	65.3921
1276.88	66.699
1278.48	67.6541
1280.09	68.2652
1281.69	69.9513
1283.29	70.9475
1284.89	71.3496
1286.49	72.9176
1288.09	74.2051
1289.69	74.9806
1291.3	76.1216
1292.9	76.1909
1294.49	76.9628
1296.09	76.231
1297.69	76.4214
1299.29	77.4391
1300.89	76.851
1302.49	76.5193
1304.09	77.5025
1305.68	77.0214
1307.28	77.7409
1308.88	77.2178
1310.47	77.004
1312.07	76.8173
1313.66	76.8118
1315.26	76.9624
1316.86	75.8357
1318.45	75.752
1320.05	75.0808
1321.64	74.6135
1323.23	74.6895
1324.83	74.7412
1326.42	74.4703
1328.01	73.3577
1329.61	73.0631
1331.2	72.5999
1332.79	70.7829
1334.38	69.4588
1335.98	69.3984
1337.57	67.8621
1339.16	66.6546
1340.75	66.0971
1342.34	64.9805
1343.93	64.4322
1345.52	63.4457
1347.11	62.3985
1348.7	61.3621
1350.29	61.1829
1351.87	59.9244
1353.46	59.0396
1355.05	58.5433
1356.64	56.5055
1358.23	55.1527
1359.81	54.0017
1361.4	52.6203
1362.99	50.2682
1364.57	48.6674
1366.16	47.3373
1367.74	45.6719
1369.33	44.4841
1370.91	43.3703
1372.5	41.468
1374.08	40.9673
1375.67	40.0867
1377.25	40.5816
1378.83	39.742
1380.42	39.046
1382	38.476
1383.58	38.3401
1385.16	37.0727
1386.75	37.0691
1388.33	36.5995
1389.91	35.927
1391.49	36.3858
1393.07	36.3929
1394.65	36.1809
1396.23	36.5202
1397.81	36.4554
1399.39	35.2498
1400.97	35.5987
1402.55	35.8473
1404.13	36.4296
1405.7	37.5142
1407.28	38.1027
1408.86	39.6572
1410.44	40.0171
1412.01	41.2784
1413.59	43.3947
1415.17	45.3982
1416.74	46.5581
1418.32	49.0662
1419.89	51.0472
1421.47	52.8187
1423.05	54.9557
1424.62	57.547
1426.19	60.5626
1427.77	62.5074
1429.34	65.4796
1430.92	67.3208
1432.49	69.8952
1434.06	72.0161
1435.63	73.4498
1437.2	75.2979
1438.78	76.0207
1440.35	76.8693
1441.92	77.9433
1443.49	78.6891
1445.06	79.1169
1446.63	80.4558
1448.2	81.6221
1449.77	81.7383
1451.34	80.9367
1452.91	80.7118
1454.48	79.456
1456.05	78.1141
1457.62	76.7133
1459.18	75.9806
1460.75	74.5734
1462.32	73.3201
1463.89	70.6794
1465.45	69.792
1467.02	66.9028
1468.59	64.1621
1470.15	62.3449
1471.72	59.7269
1473.28	56.9898
1474.85	54.9914
1476.41	51.212
1477.98	49.6982
1479.54	47.9168
1481.11	45.3929
1482.67	43.1222
1484.23	40.5841
1485.8	37.7075
1487.36	36.1999
1488.92	33.4971
1490.48	32.055
1492.05	29.8112
1493.61	28.1798
1495.17	26.8712
1496.73	27.2252
1498.29	26.1517
1499.85	25.6789
1501.41	24.8073
1502.97	25.0832
1504.53	25.3697
1506.09	24.6489
1507.65	24.9003
1509.2	23.6683
1510.76	23.3625
1512.32	22.7608
1513.88	21.8319
1515.44	22.1824
1516.99	22.1383
1518.55	22.7658
1520.1	23.6387
1521.66	23.7627
1523.22	24.5984
1524.77	25.6188
1526.33	25.6889
1527.88	24.9815
1529.44	25.8419
1530.99	27.0504
1532.55	28.4229
1534.1	29.9547
1535.65	30.8445
1537.21	31.8484
1538.76	32.9798
1540.31	34.1394
1541.86	34.9295
1543.42	37.0082
1544.97	37.8498
1546.52	40.0566
1548.07	42.1064
1549.62	43.3569
1551.17	44.9512
1552.72	46.8382
1554.27	48.7331
1555.82	51.3482
1557.37	51.8756
1558.92	52.8684
1560.47	53.8413
1562.02	54.8916
1563.57	57.1945
1565.11	59.1888
1566.66	60.9266
1568.21	63.1149
1569.75	64.8949
1571.3	66.8699
1572.85	69.2927
1574.39	72.0245
1575.94	71.9567
1577.49	73.5407
1579.03	75.3949
1580.58	76.8522
1582.12	77.1549
1583.67	77.5307
1585.21	77.8652
1586.75	79.2605
1588.3	79.695
1589.84	79.7607
1591.38	79.6298
1592.93	80.7659
1594.47	80.7619
1596.01	80.6841
1597.55	80.2074
1599.09	78.6748
1600.63	77.9467
1602.18	77.374
1603.72	75.3664
1605.26	75.3987
1606.8	75.4419
1608.34	73.7956
1609.87	72.7218
1611.41	71.4387
1612.95	70.0087
1614.49	69.224
1616.03	68.2094
1617.57	67.1113
1619.11	66.1993
1620.64	65.7173
1622.18	64.8939
1623.72	63.8777
1625.25	63.2894
1626.79	62.2569
1628.32	62.3487
1629.86	62.2188
1631.4	62.6078
1632.93	62.4355
1634.47	61.732
1636	61.9906
1637.53	62.1842
1639.07	62.9832
1640.6	65.0927
1642.14	65.6814
1643.67	66.6205
1645.2	67.5528
1646.73	68.3559
1648.27	69.4563
1649.8	70.6085
1651.33	70.7536
1652.86	70.2816
1654.39	71.8163
1655.92	72.1491
1657.45	72.9135
1658.98	73.7381
1660.51	74.1453
1662.04	73.641
1663.57	74.0753
1665.1	72.6681
1666.63	72.5366
1668.16	72.7043
1669.69	72.9204
1671.21	70.7878
1672.74	68.5905
1674.27	66.6362
1675.79	65.0016
1677.32	63.6251
1678.85	61.3979
1680.37	59.0825
1681.9	57.1656
1683.42	54.2697
1684.95	51.5874
1686.47	49.7941
1688	47.0588
1689.52	44.1825
1691.05	41.846
1692.57	39.2022
1694.1	37.3784
1695.62	35.3388
1697.14	33.4055
1698.66	31.67
1700.19	28.9703
1701.71	27.3651
1703.23	24.5668
1704.75	23.126
1706.27	21.217
1707.79	19.5779
1709.32	18.269
1710.83	16.3402
1712.35	14.9037
1713.88	14.7951
1715.39	14.0004
1716.91	13.38
1718.43	12.2447
1719.95	11.4639
1721.47	10.5534
1722.99	9.70192
1724.5	9.17117
1726.02	9.55129
1727.54	9.66982
1729.06	9.52114
1730.57	10.2978
1732.09	10.0601
1733.61	9.83613
1735.12	9.20015
1736.64	8.03689
1738.15	8.14692
1739.67	8.63657
1741.18	7.78408
1742.7	6.96123
1744.21	6.346
1745.72	5.56549
1747.24	4.37062
1748.75	4.56645
1750.26	5.06865
1751.78	4.89864
1753.29	4.34054
1754.8	3.99201
1756.31	4.00622
1757.82	4.05334
1759.34	4.38507
1760.85	3.84033
1762.36	3.7777
1763.87	3.1917
1765.38	3.08162
1766.89	3.26518
1768.4	3.30874
1769.91	3.42282
1771.41	3.43075
1772.92	3.73986
1774.43	3.27419
1775.94	2.38641
1777.45	3.19359
1778.96	3.19743
1780.46	4.09627
1781.97	4.21973
1783.48	4.18545
1784.98	4.0798
1786.49	3.79472
1788	4.25328
1789.5	4.80384
1791.01	4.47028
1792.51	4.53502
1794.01	4.58773
1795.52	4.22057
1797.02	4.6203
1798.53	5.0128
1800.03	5.22714
1801.54	5.08266
1803.04	3.90615
1804.54	3.41264
1806.04	3.46153
1807.54	2.86848
1809.05	2.54997
1810.55	2.85819
1812.05	3.09647
1813.55	3.26494
1815.05	3.06539
1816.55	2.92095
1818.05	3.48275
1819.55	3.73638
1821.05	4.03187
1822.55	4.04198
1824.05	3.94327
1825.55	3.97173
1827.05	3.61692
1828.55	3.79331
1830.04	3.72218
1831.54	3.49645
1833.04	3.59143
1834.54	4.10808
1836.03	3.51015
1837.53	3.89801
1839.03	4.21755
1840.52	4.53721
1842.02	4.66061
1843.51	4.48496
1845.01	4.24264
1846.5	4.35423
1848	4.37527
1849.49	4.04375
1850.99	3.78718
1852.48	4.17905
1853.97	4.03907
1855.47	4.59972
1856.96	4.4147
1858.45	4.29423
1859.94	4.85211
1861.44	5.02595
1862.93	5.49886
1864.42	5.33208
1865.91	5.05804
1867.4	4.20294
1868.89	4.05849
1870.38	3.87089
1871.87	3.62923
1873.36	3.08324
1874.85	2.7402
1876.34	2.70251
1877.83	3.30425
1879.32	3.82374
1880.81	3.80855
1882.3	3.96012
1882.56	3.63132
1884.06	4.14318
1885.55	4.67264
1887.04	4.85175
1888.54	5.02707
1890.03	5.35732
1891.52	5.82229
1893.02	5.71326
1894.51	5.84725
1896	5.76122
1897.49	5.58669
1898.99	5.24545
1900.48	5.51307
1901.97	6.48209
1903.46	6.57973
1904.95	6.93203
1906.44	7.28144
1907.93	7.4744
1909.42	6.93461
1910.91	7.09548
1912.4	7.24133
1913.89	6.97381
1915.38	6.25844
1916.86	6.35242
1918.35	6.59204
1919.84	5.92892
1921.33	5.8473
1922.82	5.66188
1924.3	5.49607
1925.79	5.90763
1927.28	5.59454
1928.76	5.42487
1930.25	4.99883
1931.74	5.323
1933.22	5.26415
1934.71	3.72849
1936.19	3.48448
1937.67	3.00765
1939.16	2.20793
1940.64	2.05498
1942.13	2.30056
1943.61	1.38316
1945.09	1.06863
1946.58	1.46145
1948.06	1.35317
1949.54	1.70365
1951.03	1.27192
1952.51	1.65342
1953.99	0.934567
1955.47	1.09775
1956.95	1.07058
1958.43	1.73175
1959.91	1.88022
1961.39	1.38058
1962.87	1.2786
1964.35	0.735384
1965.83	0.622486
1967.31	0.286198
1968.79	0.118542
1970.27	-0.0418672
1971.75	0.0248775
1973.22	-0.458731
1974.7	0.502134
1976.18	1.01409
1977.66	0.74033
1979.13	0.46649
1980.61	0.673497
1982.09	0.97591
1983.56	0.603037
1985.04	0.157092
1986.52	-0.222244
1987.99	-0.196582
1989.47	-0.313597
1990.94	0.622805
1992.41	0.398491
1993.89	0.161511
1995.36	0.484257
1996.84	0.457845
1998.31	0.90291
1999.78	0.609776
2001.26	0.597511
2002.73	0.755971
2004.2	0.675757
2005.67	0.305737
2007.15	-0.408742
2008.62	-0.388417
2010.09	0.329657
2011.56	0.637273
2013.03	0.387756
2014.5	0.892086
2015.97	0.666127
2017.44	0.754197
2018.91	1.36762
2020.38	2.1017
2021.85	2.40777
2023.32	2.93274
2024.79	2.90855
2026.25	3.48126
2027.72	3.37003
2029.19	3.82255
2030.66	3.95982
2032.13	4.78631
2033.59	4.81899
2035.06	5.24405
2036.53	5.73635
2037.99	5.88583
2039.46	6.55393
2040.92	6.74054
2042.39	7.07066
2043.85	7.39532
2045.32	7.48114
2046.78	8.09173
2048.25	9.15167
2049.71	8.9921
2051.18	9.58222
2052.64	9.99486
2054.1	10.6423
2055.56	10.7261
2057.03	10.5895
2058.49	11.3862
2059.95	11.9161
2061.42	12.9221
2062.88	13.3809
2064.34	13.7395
2065.8	14.273
2067.26	14.5087
2068.72	14.2301
2070.18	15.1043
2071.64	15.6706
2073.1	15.4159
2074.56	15.9028
2076.02	16.1754
2077.48	16.9661
2078.94	17.4135
2080.39	18.4972
2081.85	19.2019
2083.31	19.8956
2084.77	20.3224
2086.22	20.5795
2087.68	21.2709
2089.14	21.6769
2090.6	22.2334
2092.05	22.8527
2093.51	23.6098
2094.96	24.3079
2096.42	24.6621
2097.87	25.1847
2099.33	26.1798
2100.78	27.1248
2102.24	28.1683
2103.69	29.2888
2105.15	30.8574
2106.6	31.5911
2108.05	32.8014
2109.51	33.4318
2110.96	34.0868
2112.41	35.096
2113.86	36.2778
2115.32	37.3157
2116.77	38.073
2118.22	39.4399
2119.67	40.4897
2121.12	41.2096
2122.57	42.6108
2124.02	43.8944
2125.47	44.8399
2126.92	45.6744
2128.37	47.6932
2129.82	49.6553
2131.27	51.4546
2132.72	52.9607
2134.17	55.1101
2135.62	56.8769
2137.06	58.3923
2138.51	60.7663
2139.96	62.3897
2141.41	64.414
2142.85	66.5309
2144.3	67.9736
2145.75	68.9105
2147.19	70.3896
2148.64	72.1592
2150.09	73.6085
2151.53	74.6377
2152.97	76.0523
2154.42	77.3701
2155.86	78.8848
2157.31	79.9885
2158.75	82.0075
2160.2	82.8782
2161.64	83.3301
2163.08	83.8683
2164.53	83.9303
2165.97	84.7264
2167.41	85.1344
2168.86	85.9849
2170.3	86.5863
2171.74	86.7111
2173.18	86.5902
2174.62	86.297
2176.06	85.4527
2177.5	85.2856
2178.94	84.1137
2180.38	82.9889
2181.82	81.5977
2183.26	80.6225
2184.7	80.018
2186.14	78.0822
2187.58	76.5249
2189.02	75.0231
2190.46	73.0993
2191.89	71.9974
2193.33	70.5901
2194.77	69.4233
2196.21	67.3861
2197.64	66.2764
2199.08	65.147
2200.52	63.9769
2201.95	62.2822
2203.39	61.0177
2204.83	59.8906
2206.26	57.9757
2207.7	56.4893
2209.13	55.5415
2210.57	54.8333
2212	53.1789
2213.43	51.4154
2214.87	49.7636
2216.3	48.4359
2217.73	46.708
2219.17	45.9529
2220.6	45.5782
2222.03	44.8293
2223.47	44.3132
2224.9	43.2901
2226.33	42.7867
2227.76	42.381
2229.19	42.1751
2230.62	41.5759
2232.05	40.0402
2233.49	39.3403
2234.91	38.7683
2236.34	38.3983
2237.77	38.5202
2239.2	37.2041
2240.63	36.9758
2242.06	35.931
2243.49	34.7842
2244.92	33.6762
2246.35	32.9369
2247.78	31.8447
2249.2	31.2978
2250.63	29.9458
2252.06	29.1825
2253.48	28.3173
2254.91	28.0278
2256.34	27.0048
2257.76	25.5363
2259.19	24.865
2260.61	24.1115
2262.04	23.2317
2263.46	23.1553
2264.89	21.3239
2266.31	20.648
2267.74	19.095
2269.16	18.3756
2270.59	17.5938
2272.01	16.9135
2273.43	16.6689
2274.85	16.0755
2276.28	15.2351
2277.7	14.4043
2279.12	14.3266
2280.54	13.9593
2281.97	13.3309
2283.39	12.3423
2284.81	11.7346
2286.23	10.6333
2287.65	10.139
2289.07	9.91308
2290.49	10.1058
2291.91	9.6328
2293.33	8.55266
2294.75	8.25825
2296.17	8.00374
2297.59	8.74727
2299.01	9.65434
2300.42	10.2904
2301.84	10.7293
2303.26	10.8081
2304.68	11.2362
2306.1	11.1847
2307.51	11.1768
2308.93	11.0754
2310.35	10.8386
2311.76	11.6684
2313.18	11.493
2314.59	11.3455
2316.01	11.1321
2317.43	10.841
2318.84	11.0138
2320.26	11.1994
2321.67	10.8268
2323.08	10.5852
2324.5	10.9864
2325.91	10.9058
2327.33	10.4522
2328.74	10.4705
2330.15	9.80462
2331.56	9.74813
2332.98	9.62821
2334.39	9.73166
2335.8	9.19505
2337.21	8.42459
2338.62	7.85315
2340.04	7.77762
2341.45	7.65968
2342.86	7.62112
2344.27	6.91151
2345.68	6.21488
2347.09	5.77425
2348.5	5.31832
2349.91	4.54403
2351.31	4.00594
2352.72	3.4256
2354.13	2.68099
2355.54	1.77783
2356.95	1.01326
2358.36	1.34318
2359.76	1.53792
2361.17	1.22308
2362.58	0.82619
2363.98	1.45429
2365.39	2.26406
2366.8	2.6985
2368.21	3.45732
2369.61	4.29788
2371.02	4.20511
2372.42	3.99525
2373.83	4.08266
2375.23	4.16872
2376.64	3.96844
2378.04	4.39003
2379.44	4.52724
2380.85	4.72815
2382.25	4.81849
2383.66	5.25527
2385.06	5.3567
2386.46	5.09222
2387.86	5.4109
2389.26	5.69762
2390.67	5.08963
2392.07	4.92225
2393.47	5.96272
2394.87	6.47022
2396.27	6.03292
2397.67	6.27103
2399.07	6.13415
2400.47	6.08098
2401.87	6.22596
2403.27	6.04734
2404.67	5.22359
2406.07	4.65276
2407.47	4.47482
2408.87	5.78284
2410.27	5.47377
2411.67	5.46587
2413.07	5.40408
2414.46	5.11775
2415.86	4.35697
2417.26	3.86135
2418.66	3.60701
2420.05	4.18561
2421.45	4.54252
2422.84	4.67414
2424.24	4.72976
2425.64	4.90066
2427.03	4.89343
2428.43	5.1312
2429.82	4.93734
2431.22	4.92407
2432.61	5.31975
2434.01	5.22177
2435.4	5.03027
2436.79	5.14831
2438.19	5.48661
2439.58	5.59067
2440.97	5.76999
2442.37	6.09346
2443.76	6.64147
2445.15	7.27364
2446.54	7.14679
2447.93	7.60286
2449.33	7.32464
2450.72	7.37997
2452.11	7.13769
2453.5	7.71939
2454.89	7.47803
2456.28	7.73108
2457.67	7.94216
2459.06	7.19686
2460.45	7.11685
2461.84	7.4422
2463.23	7.53801
2464.62	7.10438
2466	6.50037
2467.39	6.51322
2468.78	6.28902
2470.17	6.64973
2471.55	5.7631
2472.94	5.60021
2474.33	5.25143
2475.72	5.59477
2477.1	5.2477
2478.49	4.88033
2479.87	4.05367
2481.26	3.40907
2482.65	3.37838
2484.03	2.98188
2485.42	2.22378
2486.8	2.96399
2488.19	3.02126
2489.57	3.11459
2490.95	1.86509
2492.34	1.63285
2493.72	1.49697
2495.1	1.4994
2496.49	1.31752
2497.87	1.46452
2499.25	1.06711
2500.63	1.06792
2502.02	0.91323
2503.4	0.971056
2504.78	0.922769
2506.16	0.745871
2507.54	1.29549
2508.92	1.14323
2510.3	1.17413
2511.68	0.761009
2513.06	0.845472
2514.44	1.33307
2515.82	0.733966
2517.2	0.894715
2518.58	0.711021
2519.96	0.639099
2521.34	1.11167
2522.72	1.44541
2524.1	1.45209
2525.47	1.26987
2526.85	1.45912
2528.23	1.83275
2529.6	1.95249
2530.98	2.40969
2532.36	2.55405
2533.74	2.6859
2535.11	2.47916
2536.49	2.70714
2537.86	2.67273
2539.24	3.11839
2540.61	2.51065
2541.99	2.73253
2543.36	2.83157
2544.74	2.79302
2546.11	2.90715
2547.49	3.87125
2548.86	4.16338
2550.23	4.33483
2551.61	5.78392
2552.98	5.63318
2554.35	5.83518
2555.72	6.55467
2557.09	6.74799
2558.47	7.06143
2559.84	6.70618
2561.21	7.64073
2562.58	7.69712
2563.95	7.80297
2565.32	7.39803
2566.69	7.06477
2568.06	6.50636
2569.43	6.91294
2570.8	6.93497
2572.17	6.80955
2573.54	6.39181
2574.91	6.53126
2576.28	6.59051
2577.65	5.54856
2579.02	5.26989
2580.39	5.24369
2581.75	5.92145
2583.12	5.8106
2584.49	4.94227
2585.85	5.08839
2587.22	4.85603
2588.59	4.71693
2589.95	5.20618
2591.32	4.85715
2592.68	5.15687
2594.05	5.00682
2595.42	5.30541
2596.78	5.43235
2598.15	5.2655
2599.51	5.11305
2600.88	5.10588
2602.24	4.70275
2603.6	5.40467
2604.97	5.69358
2606.33	6.31597
2607.69	6.35321
2609.06	6.05902
2610.42	5.91518
2611.78	6.12179
2613.14	6.19067
2614.51	6.48903
2615.87	6.74285
2617.23	6.69741
2618.59	6.48636
2619.95	6.44543
2621.31	6.16646
2622.67	6.17982
2624.03	5.69457
2625.39	5.13151
2626.75	4.14174
2628.11	4.14571
2629.47	4.54994
2630.83	3.75971
2632.19	3.51009
2633.55	3.22825
2634.91	3.06507
2636.26	2.67421
2637.62	2.78948
2638.98	2.99696
2640.34	3.26171
2641.69	3.43779
2643.05	3.36287
2644.41	3.11832
2645.76	3.46991
2647.12	3.7136
2648.48	3.90146
2649.83	3.96517
2651.19	3.6507
2652.54	4.27023
2653.9	4.40087
2655.25	4.18164
2656.6	4.00842
2657.96	4.20957
2659.31	4.55363
2660.67	5.32908
2662.02	5.29055
2663.37	6.13179
2664.73	6.27071
2666.08	6.3486
2667.43	5.75666
2668.78	6.12608
2670.14	5.92389
2671.49	6.15869
2672.84	5.20156
2674.19	4.72602
2675.54	4.38371
2676.89	3.74257
2678.24	3.50488
2679.59	3.39204
2680.94	2.93165
2682.29	2.64098
2683.64	3.0339
2684.99	2.73672
2686.34	2.62708
2687.69	2.86037
2689.04	2.50131
2690.39	2.35023
2691.74	1.68603
2693.08	1.78573
2694.43	1.85506
2695.78	2.46591
2697.13	2.97271
2698.47	3.24299
2699.82	3.81445
2701.17	4.4109
2702.51	5.41834
2703.86	6.26359
2705.21	7.21065
2706.55	7.47707
2707.9	7.64064
2709.24	8.09189
2710.58	7.98619
2711.93	8.04185
2713.27	8.59551
2714.62	8.33516
2715.96	8.84909
2717.3	9.57636
2718.65	10.4619
2719.99	11.3525
2721.33	11.2445
2722.68	12.0597
2724.02	13.2324
2725.36	13.9336
2726.71	14.9037
2728.05	15.2704
2729.39	15.2276
2730.73	15.3553
2732.07	14.7407
2733.41	14.7279
2734.75	14.1488
2736.09	13.961
2737.43	13.386
2738.77	13.2898
2740.11	13.1025
2741.45	12.9692
2742.79	12.6136
2744.13	11.7052
2745.47	11.7224
2746.81	11.2925
2748.14	10.8525
2749.48	10.3839
2750.82	9.88527
2752.16	9.39992
2753.49	8.97273
2754.83	8.18557
2756.17	7.43035
2757.5	7.48076
2758.84	6.51912
2760.18	6.71443
2761.51	6.14319
2762.85	5.56786
2764.18	5.32934
2765.52	4.77769
2766.85	4.29391
2768.19	4.00826
2769.52	3.61545
2770.86	2.67822
2772.19	1.71106
2773.52	0.973241
2774.86	1.14705
2776.19	0.259074
2777.52	-0.452346
2778.86	-0.495864
2780.19	-0.480499
2781.52	0.16302
2782.85	0.378954
2784.19	0.318736
2785.52	0.388459
2786.85	0.332863
2788.18	0.030996
2789.51	0.755724
2790.84	0.813163
2792.17	0.465755
2793.5	0.837164
2794.83	0.839551
2796.16	0.206261
2797.49	-0.169154
2798.82	-0.0197325
2800.15	0.0750871
2801.48	-0.209547
2802.81	-0.0211159
2804.13	-0.200602
2805.46	-0.308794
2806.79	-0.431598
2808.12	-1.13202
2809.45	-1.12461
2810.77	-1.54945
2812.1	-2.27091
2813.43	-2.12526
2814.75	-2.4776
2816.08	-1.17457
2817.41	-0.806423
2818.73	-0.0307652
2820.06	0.294119
2821.38	1.0712
2822.71	2.07053
2824.03	3.51643
2825.36	4.01747
2826.68	5.21832
2828	6.6884
2829.33	8.15701
2830.65	10.0553
2831.98	11.566
2833.3	13.0185
2834.62	14.1235
2835.94	15.4143
2837.27	17.0448
2838.59	18.8235
2839.91	20.9504
2841.23	23.1344
2842.55	25.3924
2843.87	28.4423
2845.2	31.1706
2846.52	34.0972
2847.84	36.9744
2849.16	39.4078
2850.48	42.3022
2851.8	45.5819
2853.12	49.5732
2854.44	52.7649
2855.76	56.7332
2857.08	59.4295
2858.39	62.7565
2859.71	65.9298
2861.03	68.7078
2862.35	71.7875
2863.67	74.7693
2864.98	77.3744
2866.3	79.6937
2867.62	81.6981
2868.94	83.9927
2870.25	85.2948
2871.57	87.4411
2872.88	89.4494
2874.2	91.5308
2875.52	93.2649
2876.83	94.3201
2878.15	96.1915
2879.46	98.4135
2880.78	100.06
2882.09	102.455
2883.41	103.244
2884.72	105.019
2886.03	106.219
2887.35	107.968
2888.66	108.866
2889.97	109.359
2891.29	110.218
2892.6	112.41
2893.91	113.799
2895.22	115.043
2896.54	116.002
2897.85	117.564
2899.16	119.496
2900.47	121.324
2901.78	123.566
2903.09	126.163
2904.4	128.903
2905.71	132.498
2907.02	136.168
2908.33	140.304
2909.64	143.808
2910.95	147.08
2912.26	150.812
2913.57	154.023
2914.88	157.734
2916.19	161.526
2917.5	165.146
2918.81	169.031
2920.11	171.592
2921.42	174.642
2922.73	176.921
2924.04	179.331
2925.34	181.33
2926.65	182.652
2927.96	184.554
2929.26	185.078
2930.57	185.798
2931.87	186.647
2933.18	187.063
2934.49	186.936
2935.79	186.625
2937.1	185.916
2938.4	185.02
2939.7	184.162
2941.01	181.921
2942.31	180.199
2943.62	178.566
2944.92	176.36
2946.22	174.135
2947.53	170.877
2948.83	167.848
2950.13	164.937
2951.43	161.94
2952.74	158.79
2954.04	155.104
2955.34	151.732
2956.64	148.632
2957.94	146.016
2959.24	141.461
2960.54	138.034
2961.84	134.414
2963.15	131.37
2964.45	127.878
2965.75	124.235
2967.05	120.743
2968.34	117.934
2969.64	115.261
2970.94	112.463
2972.24	109.498
2973.54	106.22
2974.84	102.671
2976.14	99.4491
2977.43	96.8067
2978.73	93.7258
2980.03	90.7153
2981.33	87.1548
2982.62	83.3828
2983.92	80.2881
2985.22	76.4793
2986.51	72.7175
2987.81	69.2501
2989.11	65.4143
2990.4	62.3644
2991.7	58.5954
2992.99	55.6584
2994.29	52.6985
2995.58	49.1921
2996.88	46.5973
2998.17	43.0737
2999.46	40.255
3000.76	37.4578
3002.05	34.8025
3003.34	32.4289
3004.64	29.9242
3005.93	27.4015
3007.22	25.2485
3008.52	22.9627
3009.81	20.7039
3011.1	18.5621
3012.39	16.5069
3013.68	15.686
3014.97	14.3311
3016.27	12.8247
3017.56	11.0807
3018.85	9.66169
3020.14	8.38749
3021.43	7.74558
3022.72	7.11858
3024.01	6.07897
3025.3	5.79581
3026.59	4.8763
3027.88	3.75525
3029.16	3.71233
3030.45	3.54607
3031.74	3.56881
3033.03	4.27873
3034.32	5.10489
3035.6	5.26591
3036.89	5.60032
3038.18	5.54633
3039.47	6.52231
3040.75	6.85544
3042.04	7.11963
3043.33	6.69395
3044.61	6.70413
3045.9	6.88584
3047.18	7.48715
3048.47	8.13233
3049.75	8.09546
3051.04	8.06803
3052.32	8.95029
3053.61	9.20499
3054.89	9.42269
3056.18	9.64356
3057.46	10.2264
3058.74	10.6542
3060.03	10.1356
3061.31	10.6131
3062.59	10.1253
3063.88	10.8077
3065.16	10.092
3066.44	9.55606
3067.72	8.78672
3069	8.81351
3070.29	8.40168
3071.57	7.70537
3072.85	7.1357
3074.13	6.55555
3075.41	6.27513
3076.69	5.89722
3077.97	5.34383
3079.25	4.85993
3080.53	4.43465
3081.81	3.66275
3083.09	3.39973
3084.37	3.2304
3085.65	2.60925
3086.93	2.43927
3088.21	2.31216
3089.49	1.90275
3090.76	1.8005
3092.04	1.81829
3093.32	2.20789
3094.6	2.24993
3095.87	2.92409
3097.15	3.30871
3098.43	3.30995
3099.7	3.36864
3100.98	3.50409
3102.26	3.94952
3103.53	4.454
3104.81	4.40109
3106.08	5.18836
3107.36	5.54506
3108.63	6.69193
3109.91	7.3711
3111.18	8.00578
3112.46	8.47744
3113.73	9.02915
3115	10.0591
3116.28	11.2561
3117.55	11.6794
3118.83	12.5503
3120.1	13.6593
3121.37	14.2527
3122.64	15.2724
3123.92	15.7158
3125.19	16.6821
3126.46	17.2199
3127.73	17.9837
3129	17.9502
3130.27	18.6533
3131.55	19.965
3132.82	20.7542
3134.09	21.1438
3135.36	21.9403
3136.63	22.9157
3137.9	23.5596
3139.17	24.3931
3140.44	25.03
3141.71	25.7908
3142.98	26.7717
3144.24	27.6621
3145.51	28.6577
3146.78	29.4443
3148.05	30.5152
3149.32	31.6763
