#Acq. time (s)=	45
#Accumulations=	2
#Range (cm-¹)=	200...3150
#Windows=	2
#Auto scanning=	Off
#Autofocus=	Off
#Macrospot=	Off
#AutoExposure=	Off
#Spike filter=	Multiple accum.
#Delay time (s)=	0
#Binning=	1
#Readout mode=	Signal
#DeNoise=	Off
#ICS correction=	On
#Dark correction=	Off
#Inst. Process=	Off
#Detector Gain=	Best Dynamic Range
#Detector ADC=	20 kHz       
#Detector temperature (°C)=	-69.85
#Instrument=	LabRAM HR Evol
#Detector=	Synapse
#Objective=	x100
#Grating=	600 gr/mm
#ND Filter=	100%
#Laser (nm)=	532 
#Hole=	100.021
#Range=	Auto
#Laser Pol.=	No
#Raman. Pol.=	No
#Laser Pol. (°)=	-0.0007625
#Raman Pol. (°)=	89.9995
#Collection=	Microscope
#StageXY=	Marzhauser
#StageZ=	Marzhauser
#X (µm)=	-5133.5
#Y (µm)=	1481.1
#Z (µm)=	63.25
#Full time(mm:ss)=	3:18
#Project=	
#Sample=	
#Site=	
#Title=	Thy_50_12_20_2x_45s_532 nm_x100_100%_600 gr_mm
#Remark=	
#Date=	07.07.2022 10:42
#Acquired=	07.07.2022 10:42:09
#Base:Fit=	10.08.2022 10:04:29
#Base:Sub=	10.08.2022 10:04:45
#Filter:Polynom=	16.08.2022 10:20:24
#AxisType[0]=Intens
#AxisUnit[0]=Cnt
#AxisType[1]=Spectr
#AxisUnit[1]=1/cm
200.43	67.6826
202.246	63.0614
204.061	58.1981
205.875	53.982
207.688	51.1833
209.501	48.5595
211.316	45.6998
213.129	42.6472
214.941	40.034
216.753	38.1419
218.566	35.1808
220.377	33.1183
222.188	30.7869
223.999	29.6173
225.809	27.237
227.618	24.6143
229.43	21.2536
231.239	19.5987
233.047	17.5996
234.855	15.3864
236.663	13.8228
238.471	12.7085
240.278	11.1324
242.087	9.98646
243.894	9.30777
245.7	8.71319
247.506	7.70669
249.311	6.55549
251.116	5.92059
252.921	7.26913
254.725	5.49063
256.529	5.63115
258.333	7.09851
260.136	8.35085
261.939	8.69045
263.744	7.3205
265.546	7.38145
267.348	8.43892
269.15	7.91667
270.951	8.45766
272.752	8.23854
274.552	7.94459
276.353	8.08466
278.152	8.56186
279.952	8.26509
281.751	7.57301
283.55	9.03054
285.348	10.8013
287.146	11.815
288.942	13.4504
290.739	14.9842
292.536	15.9928
294.333	17.0425
296.129	17.5603
297.925	17.7948
299.721	17.5391
301.516	17.4876
303.311	18.1469
305.106	19.5412
306.9	19.8684
308.694	19.577
310.486	19.7899
312.279	19.2542
314.072	18.5013
315.864	16.6623
317.656	16.5739
319.448	16.3902
321.24	16.6473
323.029	16.7769
324.819	16.1616
326.61	16.1352
328.4	16.1601
330.19	15.2763
331.977	15.5579
333.766	15.535
335.555	15.5906
337.343	15.3864
339.131	14.4777
340.917	13.7856
342.704	13.1398
344.491	11.5798
346.277	11.4703
348.062	10.7024
349.848	8.9528
351.633	7.45484
353.416	6.33559
355.201	6.22117
356.986	4.64191
358.77	4.39333
360.552	4.3967
362.335	4.12744
364.118	4.14131
365.899	4.38292
367.682	4.84056
369.464	3.99066
371.243	3.94302
373.025	6.40175
374.806	7.13538
376.585	7.27511
378.365	8.26007
380.143	7.8832
381.923	8.14571
383.702	7.77814
385.479	7.74233
387.258	7.94638
389.034	7.7367
390.812	8.83352
392.59	8.42168
394.365	8.30618
396.142	7.85401
397.916	7.71948
399.693	7.16046
401.467	7.3326
403.242	7.82145
405.015	8.49324
406.79	9.24055
408.565	8.72897
410.337	8.47284
412.111	8.91599
413.882	8.43566
415.656	8.72312
417.426	9.45587
419.197	9.06199
420.969	9.86195
422.739	8.80318
424.51	8.19376
426.279	7.37877
428.05	6.02248
429.819	5.18922
431.589	4.29047
433.356	4.61862
435.124	4.02398
436.893	3.8402
438.66	3.02687
440.428	3.38107
442.194	2.97758
443.96	2.55293
445.727	2.8862
447.492	3.12371
449.259	3.21048
451.023	3.73323
452.787	4.19516
454.553	4.01591
456.316	4.57408
458.079	4.26184
459.844	6.26354
461.606	8.26099
463.368	8.41053
465.132	9.8729
466.893	10.8614
468.654	11.2585
470.415	12.3451
472.177	13.6762
473.937	14.7829
475.696	15.7766
477.456	16.6186
479.217	17.1929
480.975	18.5163
482.733	19.6268
484.491	20.796
486.251	21.5317
488.008	23.0026
489.765	24.8602
491.522	25.7494
493.278	27.3726
495.036	27.7853
496.791	29.6961
498.546	30.7716
500.301	31.4657
502.056	31.7677
503.81	32.8992
505.566	32.6002
507.319	31.6842
509.073	32.0425
510.825	30.418
512.578	30.0675
514.33	30.2642
516.082	29.9638
517.833	29.424
519.587	29.2243
521.337	29.5763
523.088	28.2054
524.838	27.3869
526.588	25.4057
528.337	24.2857
530.087	23.0386
531.835	21.8299
533.584	20.8492
535.332	19.8797
537.08	18.9454
538.827	17.3402
540.574	16.0563
542.321	14.1426
544.068	14.0103
545.814	13.9446
547.56	14.3638
549.305	13.6814
551.05	13.3525
552.795	12.9528
554.54	11.4786
556.284	11.1372
558.027	10.2761
559.771	9.59084
561.514	7.54279
563.257	6.66962
564.999	5.82941
566.742	5.78713
568.481	5.61865
570.223	5.21356
571.964	5.67696
573.705	5.26514
575.445	5.66642
577.185	5.95152
578.925	5.12435
580.665	5.31988
582.402	4.31541
584.141	5.27646
585.879	4.24527
587.617	3.59625
589.355	3.31121
591.092	3.32035
592.828	1.44543
594.564	2.13926
596.301	3.12556
598.037	3.04929
599.773	4.94843
601.506	6.03976
603.242	6.70308
604.976	7.40648
606.711	7.84272
608.443	8.01582
610.177	7.58011
611.91	8.07349
613.644	7.92301
615.374	8.15051
617.107	8.50416
618.839	6.82996
620.569	7.6531
622.3	7.51364
624.032	7.14416
625.761	7.64267
627.491	9.0463
629.221	8.99081
630.949	10.2721
632.679	10.319
634.408	10.2055
636.135	10.1741
637.863	9.98609
639.592	8.77446
641.318	8.78676
643.045	8.85349
644.77	8.50615
646.497	8.79326
648.224	9.1001
649.948	10.7522
651.674	11.8509
653.398	12.3297
655.123	13.1724
656.846	12.8227
658.57	12.9689
660.293	12.7029
662.017	13.1572
663.738	13.9045
665.462	14.0552
667.185	14.6812
668.905	15.4572
670.628	16.0071
672.348	15.9069
674.067	16.1693
675.789	16.9205
677.508	18.0758
679.228	20.1664
680.947	22.4604
682.667	24.4018
684.385	26.0028
686.104	27.9185
687.821	28.9596
689.538	31.0583
691.256	32.9721
692.972	34.0404
694.69	34.6172
696.406	36.2502
698.121	37.8279
699.837	37.9219
701.552	38.769
703.268	39.9584
704.982	40.4484
706.695	42.0881
708.41	43.0101
710.123	43.8498
711.836	44.9307
713.55	46.0882
715.262	46.628
716.973	47.8448
718.685	48.5658
720.398	49.7958
722.108	50.0376
723.818	51.2012
725.53	51.615
727.24	53.2278
728.949	54.9062
730.658	56.6049
732.369	57.4722
734.077	58.149
735.785	59.4261
737.493	59.6161
739.2	58.954
740.909	59.635
742.616	59.8864
744.322	62.0701
746.028	63.9378
747.734	64.7002
749.441	65.7402
751.146	66.9725
752.851	68.5684
754.555	69.8961
756.26	70.5734
757.963	72.2825
759.667	73.7529
761.372	75.2787
763.075	76.6331
764.777	78.5148
766.479	78.8955
768.181	80.5336
769.883	80.6074
771.584	81.4646
773.285	81.7746
774.986	82.6244
776.686	81.6482
778.386	80.6071
780.085	80.8487
781.785	81.2912
783.484	80.363
785.182	79.9075
786.881	79.5832
788.579	78.9042
790.276	79.0028
791.974	79.0747
793.671	79.5435
795.367	79.5407
797.064	80.5146
798.76	81.8828
800.456	81.2835
802.151	81.6689
803.846	80.4773
805.541	80.6107
807.236	80.5707
808.93	80.4003
810.624	80.3268
812.317	80.817
814.01	81.3622
815.703	80.6309
817.394	80.6447
819.086	80.3082
820.778	80.544
822.47	80.1431
824.161	80.7288
825.852	81.4767
827.543	82.2045
829.231	82.1587
830.921	80.9379
832.611	79.5443
834.3	79.8511
835.989	79.3909
837.676	79.8403
839.364	77.6993
841.053	77.0286
842.74	75.9094
844.426	74.3419
846.113	72.7021
847.8	71.398
849.486	69.8157
851.171	68.0665
852.857	67.5267
854.542	65.9076
856.227	65.4799
857.911	64.0794
859.595	63.4476
861.279	62.4667
862.961	62.6155
864.645	61.8294
866.329	59.4694
868.01	60.1481
869.692	59.6758
871.375	58.6848
873.055	58.7977
874.737	58.7515
876.418	58.0479
878.097	58.0683
879.778	57.9096
881.457	57.509
883.137	55.5453
884.817	54.0895
886.495	53.0863
888.174	52.3088
889.851	52.7937
891.53	51.2907
893.206	49.1147
894.884	48.5856
896.562	48.3159
898.237	48.062
899.914	47.5274
901.589	46.6938
903.265	44.9362
904.94	44.3481
906.615	42.9263
908.289	41.9121
909.964	39.5891
911.637	38.1899
913.31	36.6927
914.984	35.2991
916.656	34.6267
918.33	33.803
920.001	31.4475
921.674	31.2357
923.345	29.2868
925.015	28.9578
926.687	27.9048
928.357	27.1338
930.028	26.4909
931.698	25.7311
933.366	24.6444
935.037	25.9563
936.705	26.7577
938.373	26.9571
940.043	27.7937
941.71	28.6188
943.379	29.0697
945.046	29.2467
946.712	29.4608
948.378	30.3838
950.046	32.4117
951.711	35.9596
953.376	35.789
955.043	36.7549
956.708	37.3228
958.372	37.7853
960.036	37.865
961.701	38.9879
963.364	40.2218
965.027	40.9608
966.69	40.9762
968.354	42.6428
970.016	43.1484
971.678	44.9975
973.339	45.3003
975	46.159
976.661	46.4433
978.324	47.7677
979.984	49.0852
981.644	49.5804
983.303	50.0401
984.962	49.3222
986.621	49.2349
988.282	48.8213
989.94	48.4069
991.598	48.6076
993.256	47.8397
994.913	47.5077
996.57	47.0225
998.227	46.3088
999.884	46.752
1001.54	46.8757
1003.2	45.3308
1004.85	45.3603
1006.51	45.1624
1008.16	43.9662
1009.82	44.0033
1011.47	44.2745
1013.12	44.606
1014.78	45.8772
1016.43	47.4239
1018.08	48.9662
1019.74	49.1313
1021.39	49.5498
1023.04	50.5955
1024.69	51.3318
1026.34	51.8114
1028	52.6969
1029.65	53.6561
1031.3	54.1991
1032.95	54.6563
1034.6	55.1768
1036.25	54.1199
1037.9	53.256
1039.55	52.7487
1041.19	52.8997
1042.84	53.3125
1044.49	54.2569
1046.14	53.073
1047.79	51.5378
1049.43	50.6497
1051.08	50.0206
1052.73	49.735
1054.37	48.6624
1056.02	46.2252
1057.66	44.8852
1059.31	43.2004
1060.95	42.1898
1062.6	40.9712
1064.24	39.2135
1065.88	37.1796
1067.53	34.9354
1069.17	33.5886
1070.81	31.8003
1072.46	31.2182
1074.1	30.3912
1075.74	29.2571
1077.38	28.1198
1079.02	27.7158
1080.66	26.6897
1082.3	26.5783
1083.94	24.8961
1085.58	22.8946
1087.22	23.3379
1088.86	22.8231
1090.5	22.6534
1092.14	24.1508
1093.78	25.0363
1095.42	24.6818
1097.05	26.3217
1098.69	26.1652
1100.33	25.7488
1101.97	26.9546
1103.6	27.254
1105.24	28.9011
1106.87	28.8651
1108.51	28.9728
1110.15	29.7768
1111.78	30.1841
1113.41	30.4538
1115.05	30.403
1116.68	29.7676
1118.31	28.2429
1119.95	27.6282
1121.58	28.3168
1123.21	28.5303
1124.85	28.3308
1126.48	27.5873
1128.11	26.676
1129.74	26.8611
1131.37	27.1125
1133	26.3026
1134.63	26.2731
1136.26	24.9206
1137.89	23.8631
1139.52	23.9658
1141.15	23.8174
1142.78	23.352
1144.41	21.6478
1146.04	21.1039
1147.66	20.121
1149.29	18.9647
1150.92	17.9131
1152.55	16.3477
1154.17	15.4326
1155.8	14.5717
1157.43	13.1732
1159.05	12.2542
1160.68	11.6573
1162.3	9.61058
1163.93	8.79097
1165.55	6.97547
1167.17	6.03266
1168.8	6.22982
1170.42	5.80742
1172.05	6.63471
1173.67	7.66899
1175.29	7.66448
1176.91	7.85605
1178.54	8.74087
1180.16	7.92203
1181.78	7.96133
1183.4	8.48157
1185.02	7.57178
1186.64	8.36272
1188.26	8.15177
1189.88	9.14685
1191.5	9.64506
1193.12	8.89609
1194.74	8.28127
1196.36	8.831
1197.97	10.1608
1199.59	12.0247
1201.21	14.8081
1202.83	16.4073
1204.44	18.4744
1206.06	20.5022
1207.68	21.8966
1209.29	22.7617
1210.91	24.4691
1212.52	26.5756
1214.14	28.0319
1215.75	31.2011
1217.37	32.6118
1218.98	34.0974
1220.6	37.302
1222.21	38.7789
1223.82	40.7983
1225.44	42.4439
1227.05	45.5656
1228.66	47.4454
1230.27	48.907
1231.88	52.1244
1233.49	55.106
1235.1	59.5124
1236.72	62.0039
1238.33	65.2023
1239.94	67.0418
1241.55	68.3989
1243.16	70.1624
1244.76	72.8733
1246.37	75.1062
1247.98	78.6142
1249.59	80.1951
1251.2	82.715
1252.8	85.4469
1254.41	87.6693
1256.02	89.4615
1257.63	91.838
1259.23	93.7062
1260.84	95.0798
1262.44	97.3736
1264.05	100.665
1265.66	103.242
1267.26	106.096
1268.87	108.083
1270.47	110.634
1272.07	111.432
1273.68	113.485
1275.28	115.018
1276.88	116.895
1278.48	117.994
1280.09	119.212
1281.69	120.037
1283.29	120.814
1284.89	121.795
1286.49	121.602
1288.09	121.541
1289.69	121.757
1291.3	122.496
1292.9	122.228
1294.49	122.377
1296.09	123.242
1297.69	123.368
1299.29	123.466
1300.89	124.294
1302.49	123.999
1304.09	124.607
1305.68	124.183
1307.28	123.697
1308.88	122.728
1310.47	122.854
1312.07	123.63
1313.66	123.365
1315.26	122.685
1316.86	120.329
1318.45	119.509
1320.05	117.122
1321.64	115.914
1323.23	115.678
1324.83	114.301
1326.42	113.188
1328.01	112.02
1329.61	110.392
1331.2	109.158
1332.79	106.671
1334.38	105.673
1335.98	104.401
1337.57	102.965
1339.16	101.536
1340.75	99.939
1342.34	99.5837
1343.93	98.3908
1345.52	96.1571
1347.11	94.1084
1348.7	92.5509
1350.29	91.1583
1351.87	88.4794
1353.46	87.0216
1355.05	84.1587
1356.64	81.9432
1358.23	80.085
1359.81	78.8782
1361.4	77.6213
1362.99	75.7382
1364.57	73.4198
1366.16	71.5291
1367.74	70.2728
1369.33	68.9118
1370.91	67.6628
1372.5	66.5576
1374.08	65.944
1375.67	64.9002
1377.25	63.7178
1378.83	62.6239
1380.42	61.5864
1382	60.182
1383.58	59.3026
1385.16	58.6291
1386.75	58.384
1388.33	58.0966
1389.91	58.4051
1391.49	57.7132
1393.07	56.8754
1394.65	56.5424
1396.23	56.1264
1397.81	56.0377
1399.39	56.0003
1400.97	56.52
1402.55	57.4418
1404.13	56.1143
1405.7	56.7307
1407.28	56.9763
1408.86	58.9487
1410.44	59.5264
1412.01	60.6416
1413.59	63.8836
1415.17	65.7368
1416.74	68.7243
1418.32	72.6155
1419.89	75.9921
1421.47	79.6601
1423.05	82.6086
1424.62	85.9817
1426.19	89.5115
1427.77	92.9146
1429.34	96.2878
1430.92	100.299
1432.49	104.482
1434.06	108.111
1435.63	111.595
1437.2	115.35
1438.78	119.155
1440.35	121.348
1441.92	121.923
1443.49	124.106
1445.06	125.673
1446.63	128.136
1448.2	129.231
1449.77	128.558
1451.34	126.914
1452.91	126.299
1454.48	125.677
1456.05	124.624
1457.62	122.86
1459.18	119.827
1460.75	117.704
1462.32	115.868
1463.89	112.435
1465.45	109.91
1467.02	106.331
1468.59	102.947
1470.15	98.7657
1471.72	93.6734
1473.28	90.1967
1474.85	85.6364
1476.41	81.3093
1477.98	76.0277
1479.54	71.594
1481.11	67.0642
1482.67	61.6776
1484.23	58.6272
1485.8	55.3124
1487.36	52.0608
1488.92	47.8834
1490.48	45.1328
1492.05	42.9275
1493.61	41.1399
1495.17	39.7481
1496.73	38.2406
1498.29	36.9977
1499.85	36.118
1501.41	34.6072
1502.97	33.7899
1504.53	34.4436
1506.09	34.9422
1507.65	36.0079
1509.2	36.665
1510.76	37.1362
1512.32	37.6859
1513.88	37.4491
1515.44	38.6457
1516.99	39.7151
1518.55	40.4606
1520.1	42.0385
1521.66	44.0318
1523.22	44.9929
1524.77	47.2066
1526.33	46.9641
1527.88	47.4654
1529.44	48.6449
1530.99	51.14
1532.55	53.095
1534.1	55.4705
1535.65	57.6153
1537.21	60.4711
1538.76	63.6466
1540.31	66.6044
1541.86	70.2875
1543.42	73.8147
1544.97	76.3591
1546.52	78.8765
1548.07	81.7122
1549.62	85.8037
1551.17	89.1761
1552.72	91.063
1554.27	93.0836
1555.82	94.9283
1557.37	98.2558
1558.92	101.592
1560.47	103.943
1562.02	106.001
1563.57	109.091
1565.11	110.798
1566.66	114.031
1568.21	117.319
1569.75	119.399
1571.3	122.669
1572.85	124.134
1574.39	126.797
1575.94	128.187
1577.49	130.043
1579.03	131.84
1580.58	133.587
1582.12	134.763
1583.67	134.718
1585.21	134.673
1586.75	134.363
1588.3	134.518
1589.84	133.689
1591.38	131.924
1592.93	130.364
1594.47	129.393
1596.01	127.387
1597.55	125.263
1599.09	122.755
1600.63	121.395
1602.18	120.316
1603.72	117.935
1605.26	116.965
1606.8	115.201
1608.34	114.116
1609.87	113.103
1611.41	112.316
1612.95	111.446
1614.49	111.375
1616.03	111.494
1617.57	111.449
1619.11	111.677
1620.64	111.991
1622.18	112.792
1623.72	113.615
1625.25	114.738
1626.79	115.6
1628.32	116.428
1629.86	117.416
1631.4	118.964
1632.93	121.64
1634.47	124.363
1636	126.399
1637.53	128.285
1639.07	130.505
1640.6	132.76
1642.14	133.957
1643.67	136.477
1645.2	137.806
1646.73	138.8
1648.27	139.805
1649.8	140.6
1651.33	142.386
1652.86	141.857
1654.39	142.71
1655.92	141.027
1657.45	139.744
1658.98	137.894
1660.51	136.718
1662.04	134.461
1663.57	132.111
1665.1	129.8
1666.63	126.597
1668.16	122.841
1669.69	118.869
1671.21	116.045
1672.74	111.004
1674.27	106.445
1675.79	102.665
1677.32	98.5839
1678.85	94.4086
1680.37	89.3666
1681.9	85.1087
1683.42	79.9212
1684.95	75.7383
1686.47	70.8694
1688	67.3302
1689.52	63.7597
1691.05	59.5267
1692.57	55.3935
1694.1	51.4934
1695.62	48.2728
1697.14	45.8589
1698.66	42.4594
1700.19	39.3499
1701.71	36.8005
1703.23	34.6867
1704.75	32.4213
1706.27	29.6708
1707.79	28.9186
1709.32	28.0439
1710.83	25.7455
1712.35	23.9594
1713.88	23.4817
1715.39	22.0521
1716.91	20.0565
1718.43	20.2086
1719.95	20.05
1721.47	19.8355
1722.99	20.1947
1724.5	19.6117
1726.02	19.3585
1727.54	19.1037
1729.06	18.0583
1730.57	17.8434
1732.09	17.6594
1733.61	18.0626
1735.12	17.5915
1736.64	17.3763
1738.15	17.0955
1739.67	16.7939
1741.18	17.0076
1742.7	15.8859
1744.21	14.3775
1745.72	13.3824
1747.24	12.7909
1748.75	12.1085
1750.26	12.201
1751.78	12.5207
1753.29	11.7892
1754.8	11.5577
1756.31	10.8709
1757.82	10.5065
1759.34	9.71886
1760.85	9.27487
1762.36	8.35118
1763.87	8.1912
1765.38	7.08298
1766.89	6.1196
1768.4	5.38545
1769.91	5.19053
1771.41	4.59565
1772.92	4.19452
1774.43	3.15953
1775.94	1.78193
1777.45	1.40517
1778.96	0.860991
1780.46	0.255965
1781.97	0.446527
1783.48	0.549826
1784.98	0.358508
1786.49	0.354633
1788	1.31887
1789.5	2.00314
1791.01	1.99706
1792.51	1.98882
1794.01	2.46123
1795.52	2.05614
1797.02	2.09526
1798.53	2.10634
1800.03	1.98684
1801.54	1.81368
1803.04	1.71251
1804.54	2.4233
1806.04	2.81691
1807.54	3.17311
1809.05	3.25963
1810.55	3.34917
1812.05	3.139
1813.55	3.19117
1815.05	3.06556
1816.55	3.523
1818.05	2.83565
1819.55	2.93966
1821.05	3.48386
1822.55	3.924
1824.05	4.1247
1825.55	4.5256
1827.05	4.52716
1828.55	4.49512
1830.04	4.53338
1831.54	4.36269
1833.04	4.11488
1834.54	4.59569
1836.03	4.40909
1837.53	4.34722
1839.03	4.32253
1840.52	4.72542
1842.02	4.62473
1843.51	4.14702
1845.01	4.43388
1846.5	4.23427
1848	3.93228
1849.49	4.13273
1850.99	3.8736
1852.48	4.14134
1853.97	4.12618
1855.47	3.48209
1856.96	3.48597
1858.45	3.17439
1859.94	3.05818
1861.44	2.84893
1862.93	2.49924
1864.42	2.07589
1865.91	1.82878
1867.4	1.9631
1868.89	1.69785
1870.38	1.92941
1871.87	1.79133
1873.36	1.79732
1874.85	1.57058
1876.34	1.16825
1877.83	1.02094
1879.32	1.22365
1880.81	0.94043
1882.3	0.674786
1882.56	0.654682
1884.06	1.08404
1885.55	1.62755
1887.04	1.14858
1888.54	1.63405
1890.03	1.79536
1891.52	2.18927
1893.02	1.89138
1894.51	1.84508
1896	1.63444
1897.49	1.25896
1898.99	1.7934
1900.48	1.93244
1901.97	1.61351
1903.46	1.72304
1904.95	2.23978
1906.44	3.66832
1907.93	4.81868
1909.42	4.86117
1910.91	5.00949
1912.4	5.20655
1913.89	6.37677
1915.38	6.85777
1916.86	7.58159
1918.35	8.06496
1919.84	8.16601
1921.33	8.02059
1922.82	7.98383
1924.3	6.97712
1925.79	6.54792
1927.28	7.14373
1928.76	6.49098
1930.25	6.72392
1931.74	6.45466
1933.22	7.32078
1934.71	7.13773
1936.19	6.79084
1937.67	6.74797
1939.16	6.96152
1940.64	7.15961
1942.13	6.69316
1943.61	6.76836
1945.09	6.76882
1946.58	6.73802
1948.06	6.73997
1949.54	6.34565
1951.03	6.29151
1952.51	6.61118
1953.99	6.18489
1955.47	6.03924
1956.95	6.22004
1958.43	6.02376
1959.91	5.72738
1961.39	4.74262
1962.87	5.25783
1964.35	5.19139
1965.83	4.21285
1967.31	3.15623
1968.79	3.06848
1970.27	3.07849
1971.75	3.12761
1973.22	2.88929
1974.7	2.15953
1976.18	2.51497
1977.66	2.5837
1979.13	2.99557
1980.61	3.4943
1982.09	3.28495
1983.56	3.09605
1985.04	3.07081
1986.52	3.53913
1987.99	4.8687
1989.47	5.13952
1990.94	4.86997
1992.41	4.61359
1993.89	4.674
1995.36	4.58632
1996.84	4.35786
1998.31	4.39119
1999.78	4.59957
2001.26	4.49878
2002.73	3.64856
2004.2	4.33424
2005.67	4.92936
2007.15	5.54109
2008.62	4.69611
2010.09	4.81071
2011.56	5.41178
2013.03	5.79449
2014.5	5.67074
2015.97	5.44092
2017.44	5.38322
2018.91	5.88458
2020.38	5.42228
2021.85	5.64667
2023.32	5.53833
2024.79	6.44688
2026.25	6.49271
2027.72	5.77469
2029.19	6.01446
2030.66	6.85762
2032.13	6.49447
2033.59	6.48066
2035.06	6.51384
2036.53	7.25042
2037.99	7.13316
2039.46	6.72384
2040.92	7.64524
2042.39	9.2297
2043.85	9.41521
2045.32	10.6502
2046.78	10.8516
2048.25	12.1875
2049.71	13.6853
2051.18	13.9985
2052.64	15.5607
2054.1	16.4713
2055.56	17.4952
2057.03	18.144
2058.49	19.8039
2059.95	21.8636
2061.42	23.4957
2062.88	23.9811
2064.34	25.1029
2065.8	26.5039
2067.26	27.524
2068.72	28.2055
2070.18	28.9773
2071.64	30.5625
2073.1	31.0141
2074.56	32.1316
2076.02	34.2809
2077.48	35.2392
2078.94	36.2735
2080.39	36.784
2081.85	37.7179
2083.31	38.9961
2084.77	40.2875
2086.22	41.2472
2087.68	41.4492
2089.14	42.8758
2090.6	44.4628
2092.05	46.7979
2093.51	47.6051
2094.96	48.6107
2096.42	49.7289
2097.87	51.1034
2099.33	52.2857
2100.78	53.5409
2102.24	56.105
2103.69	58.2403
2105.15	59.3846
2106.6	61.3482
2108.05	63.7753
2109.51	65.7151
2110.96	67.7929
2112.41	70.1017
2113.86	73.3459
2115.32	76.2179
2116.77	77.7784
2118.22	81.6296
2119.67	83.7233
2121.12	87.292
2122.57	90.4331
2124.02	93.5451
2125.47	97.4386
2126.92	101.537
2128.37	104.939
2129.82	107.997
2131.27	112.211
2132.72	114.954
2134.17	118.282
2135.62	121.441
2137.06	125.195
2138.51	127.925
2139.96	130.703
2141.41	133.952
2142.85	136.88
2144.3	138.935
2145.75	141.084
2147.19	143.101
2148.64	145.951
2150.09	147.871
2151.53	150.704
2152.97	153.032
2154.42	155.138
2155.86	157.038
2157.31	158.59
2158.75	159.581
2160.2	160.45
2161.64	162.255
2163.08	163.172
2164.53	163.092
2165.97	162.429
2167.41	163.145
2168.86	163.312
2170.3	163.373
2171.74	163.009
2173.18	161.533
2174.62	161.194
2176.06	160.354
2177.5	158.86
2178.94	157.14
2180.38	155.554
2181.82	153.683
2183.26	151.794
2184.7	149.842
2186.14	149.083
2187.58	147.218
2189.02	144.832
2190.46	144.164
2191.89	142.038
2193.33	139.982
2194.77	137.353
2196.21	134.306
2197.64	132.505
2199.08	130.285
2200.52	127.219
2201.95	124.347
2203.39	122.24
2204.83	118.85
2206.26	116.424
2207.7	113.423
2209.13	110.786
2210.57	107.648
2212	105.349
2213.43	103.027
2214.87	99.3063
2216.3	95.9088
2217.73	93.5544
2219.17	90.7329
2220.6	89.0575
2222.03	86.1487
2223.47	83.6195
2224.9	80.734
2226.33	77.7593
2227.76	75.4086
2229.19	72.6413
2230.62	69.7252
2232.05	67.88
2233.49	65.308
2234.91	62.9153
2236.34	61.2591
2237.77	59.5261
2239.2	57.8676
2240.63	55.2497
2242.06	53.1213
2243.49	50.6456
2244.92	48.3813
2246.35	46.7174
2247.78	43.9927
2249.2	41.8229
2250.63	40.2649
2252.06	38.9509
2253.48	38.1377
2254.91	37.4199
2256.34	36.9565
2257.76	37.284
2259.19	36.242
2260.61	35.6001
2262.04	35.5556
2263.46	34.6252
2264.89	33.7272
2266.31	33.1475
2267.74	32.7079
2269.16	33.0275
2270.59	31.9081
2272.01	30.6784
2273.43	29.9647
2274.85	29.3876
2276.28	28.8137
2277.7	29.0127
2279.12	28.6902
2280.54	28.3775
2281.97	27.8172
2283.39	27.1617
2284.81	26.4198
2286.23	24.7695
2287.65	25.087
2289.07	24.1502
2290.49	22.8833
2291.91	22.1115
2293.33	21.4025
2294.75	21.2671
2296.17	20.6259
2297.59	20.4752
2299.01	20.6319
2300.42	19.4912
2301.84	18.957
2303.26	18.7154
2304.68	17.4018
2306.1	16.8149
2307.51	15.597
2308.93	13.7576
2310.35	13.6229
2311.76	12.5978
2313.18	11.366
2314.59	10.1278
2316.01	9.49355
2317.43	9.47618
2318.84	9.47359
2320.26	10.2519
2321.67	9.791
2323.08	9.65611
2324.5	9.14464
2325.91	9.75502
2327.33	9.47043
2328.74	9.61323
2330.15	8.29494
2331.56	7.81446
2332.98	7.07629
2334.39	6.11025
2335.8	4.9185
2337.21	4.4989
2338.62	4.16536
2340.04	3.94409
2341.45	3.29249
2342.86	3.21469
2344.27	3.32824
2345.68	2.84203
2347.09	3.06727
2348.5	2.66617
2349.91	2.76659
2351.31	3.21993
2352.72	3.51455
2354.13	3.58907
2355.54	3.92816
2356.95	3.82714
2358.36	4.42759
2359.76	3.98272
2361.17	4.43781
2362.58	5.3811
2363.98	6.13847
2365.39	6.16919
2366.8	5.88122
2368.21	5.73729
2369.61	5.72601
2371.02	4.73205
2372.42	5.28021
2373.83	5.26743
2375.23	5.23514
2376.64	5.23565
2378.04	4.33385
2379.44	4.85071
2380.85	5.44011
2382.25	4.50886
2383.66	3.74799
2385.06	3.7146
2386.46	4.2472
2387.86	4.01872
2389.26	3.66315
2390.67	3.43458
2392.07	2.63422
2393.47	2.5391
2394.87	1.8441
2396.27	2.19374
2397.67	1.33379
2399.07	1.05047
2400.47	0.695333
2401.87	1.24502
2403.27	1.07187
2404.67	1.26057
2406.07	2.26036
2407.47	2.77411
2408.87	2.55188
2410.27	2.25563
2411.67	2.14816
2413.07	2.72308
2414.46	3.2673
2415.86	3.9982
2417.26	4.46354
2418.66	5.52892
2420.05	6.38518
2421.45	6.24978
2422.84	6.31008
2424.24	6.98832
2425.64	7.04487
2427.03	7.69766
2428.43	8.67221
2429.82	8.9905
2431.22	9.09408
2432.61	9.31063
2434.01	9.68775
2435.4	8.52513
2436.79	8.0091
2438.19	8.07848
2439.58	8.04623
2440.97	7.70917
2442.37	7.70494
2443.76	7.418
2445.15	6.65458
2446.54	6.03237
2447.93	5.79198
2449.33	6.5604
2450.72	5.84716
2452.11	5.26335
2453.5	5.03185
2454.89	5.71113
2456.28	5.66923
2457.67	4.64106
2459.06	4.63048
2460.45	4.54621
2461.84	4.90139
2463.23	4.80986
2464.62	4.6696
2466	4.75678
2467.39	4.40173
2468.78	4.59256
2470.17	4.97285
2471.55	4.95601
2472.94	4.45822
2474.33	4.63322
2475.72	4.36187
2477.1	3.88233
2478.49	3.44779
2479.87	3.18969
2481.26	4.01033
2482.65	4.13995
2484.03	3.88379
2485.42	3.53567
2486.8	3.47848
2488.19	3.51728
2489.57	2.51922
2490.95	2.59688
2492.34	2.83325
2493.72	3.42369
2495.1	2.74604
2496.49	3.31633
2497.87	2.90603
2499.25	2.12408
2500.63	1.77183
2502.02	1.04252
2503.4	0.315375
2504.78	-0.261794
2506.16	0.00145963
2507.54	-0.0221236
2508.92	-0.381616
2510.3	0.0840648
2511.68	0.746987
2513.06	1.31731
2514.44	1.45763
2515.82	2.16931
2517.2	2.87495
2518.58	3.17952
2519.96	3.03989
2521.34	3.00098
2522.72	3.55514
2524.1	3.45433
2525.47	3.78797
2526.85	3.49026
2528.23	4.25529
2529.6	4.96047
2530.98	5.66949
2532.36	5.20546
2533.74	5.22353
2535.11	5.67265
2536.49	5.7303
2537.86	6.12896
2539.24	5.809
2540.61	5.79867
2541.99	5.68936
2543.36	6.11709
2544.74	6.36788
2546.11	6.47902
2547.49	6.29432
2548.86	6.60123
2550.23	7.10519
2551.61	6.43547
2552.98	6.47484
2554.35	6.07905
2555.72	6.5157
2557.09	5.90037
2558.47	6.21892
2559.84	6.60687
2561.21	6.57229
2562.58	7.46811
2563.95	6.81658
2565.32	7.08205
2566.69	6.54192
2568.06	6.76003
2569.43	6.91456
2570.8	6.71173
2572.17	6.81226
2573.54	6.98371
2574.91	6.63307
2576.28	6.32078
2577.65	6.83218
2579.02	7.15769
2580.39	7.35844
2581.75	7.01143
2583.12	7.29219
2584.49	7.42043
2585.85	7.35846
2587.22	6.42694
2588.59	6.6454
2589.95	6.19428
2591.32	6.62652
2592.68	6.33205
2594.05	7.14617
2595.42	6.18865
2596.78	6.47722
2598.15	6.10339
2599.51	5.29356
2600.88	4.15183
2602.24	3.67921
2603.6	3.23758
2604.97	2.44389
2606.33	2.21013
2607.69	1.79138
2609.06	1.98945
2610.42	1.85018
2611.78	2.38524
2613.14	2.01059
2614.51	1.85659
2615.87	2.18592
2617.23	1.88442
2618.59	2.15827
2619.95	1.89088
2621.31	1.83877
2622.67	1.41435
2624.03	2.41873
2625.39	2.93563
2626.75	2.93676
2628.11	2.41493
2629.47	2.76126
2630.83	3.28441
2632.19	2.74882
2633.55	3.4004
2634.91	3.67369
2636.26	3.86838
2637.62	4.22497
2638.98	4.23213
2640.34	4.67247
2641.69	4.60529
2643.05	5.22137
2644.41	5.68569
2645.76	6.65346
2647.12	7.07324
2648.48	7.41167
2649.83	7.45187
2651.19	8.76939
2652.54	8.65986
2653.9	8.68365
2655.25	8.20308
2656.6	8.01803
2657.96	7.59834
2659.31	7.63403
2660.67	7.26046
2662.02	7.27539
2663.37	6.89902
2664.73	6.89113
2666.08	6.26748
2667.43	6.6602
2668.78	7.11716
2670.14	7.20717
2671.49	7.26604
2672.84	7.33429
2674.19	7.77239
2675.54	8.13729
2676.89	8.44071
2678.24	8.29721
2679.59	8.35603
2680.94	7.87475
2682.29	7.71654
2683.64	6.95857
2684.99	6.39643
2686.34	6.58733
2687.69	5.80161
2689.04	5.47853
2690.39	5.6234
2691.74	6.10612
2693.08	5.43386
2694.43	4.75917
2695.78	4.71478
2697.13	5.59327
2698.47	6.24137
2699.82	6.04189
2701.17	6.57171
2702.51	7.23411
2703.86	7.51789
2705.21	8.28245
2706.55	8.40573
2707.9	8.46667
2709.24	9.09762
2710.58	10.0695
2711.93	10.5152
2713.27	11.5027
2714.62	11.2255
2715.96	11.4415
2717.3	12.3304
2718.65	13.2217
2719.99	12.9493
2721.33	13.2076
2722.68	13.2704
2724.02	13.8314
2725.36	14.476
2726.71	14.3025
2728.05	14.7922
2729.39	15.5259
2730.73	15.8361
2732.07	15.5104
2733.41	15.7247
2734.75	15.9437
2736.09	16.0075
2737.43	16.0044
2738.77	15.9491
2740.11	15.301
2741.45	15.0929
2742.79	14.2848
2744.13	13.4277
2745.47	13.0584
2746.81	12.7898
2748.14	12.6054
2749.48	11.7249
2750.82	11.333
2752.16	10.8523
2753.49	10.247
2754.83	9.42321
2756.17	8.83923
2757.5	8.15294
2758.84	7.31825
2760.18	6.85814
2761.51	6.36691
2762.85	5.64556
2764.18	5.78767
2765.52	4.6921
2766.85	3.80332
2768.19	4.00136
2769.52	3.13201
2770.86	2.94434
2772.19	2.17778
2773.52	1.70549
2774.86	1.25821
2776.19	1.35822
2777.52	0.879267
2778.86	0.880378
2780.19	1.10959
2781.52	0.407216
2782.85	0.180963
2784.19	0.413576
2785.52	0.214391
2786.85	-0.031797
2788.18	-0.00744813
2789.51	-0.157633
2790.84	-0.658122
2792.17	-1.39789
2793.5	-1.17885
2794.83	-1.02233
2796.16	-0.602929
2797.49	-0.504823
2798.82	-0.835933
2800.15	-0.151409
2801.48	-0.17422
2802.81	-0.146802
2804.13	-0.422853
2805.46	-0.798383
2806.79	-0.914642
2808.12	-1.28338
2809.45	-1.75149
2810.77	-1.50803
2812.1	-1.38871
2813.43	-1.23329
2814.75	-1.15775
2816.08	-0.34516
2817.41	0.731742
2818.73	1.97214
2820.06	3.90817
2821.38	5.8318
2822.71	7.95926
2824.03	10.6903
2825.36	13.3653
2826.68	16.3974
2828	18.6448
2829.33	21.8304
2830.65	25.196
2831.98	28.4064
2833.3	32.2165
2834.62	36.4479
2835.94	40.4646
2837.27	45.9521
2838.59	49.5828
2839.91	54.2662
2841.23	58.1665
2842.55	63.3428
2843.87	68.358
2845.2	74.6995
2846.52	80.1181
2847.84	85.2053
2849.16	91.3533
2850.48	97.8549
2851.8	104.14
2853.12	110.699
2854.44	117.461
2855.76	123.189
2857.08	129.939
2858.39	136.21
2859.71	142.915
2861.03	148.467
2862.35	154.069
2863.67	158.771
2864.98	163.284
2866.3	167.903
2867.62	171.884
2868.94	175.949
2870.25	179.967
2871.57	182.952
2872.88	185.826
2874.2	188.614
2875.52	191.859
2876.83	194.433
2878.15	197.003
2879.46	200.091
2880.78	202.98
2882.09	206.378
2883.41	208.524
2884.72	211.522
2886.03	215.091
2887.35	217.899
2888.66	220.427
2889.97	223.008
2891.29	225.268
2892.6	228.428
2893.91	231.148
2895.22	234.922
2896.54	238.541
2897.85	242.845
2899.16	247.565
2900.47	252.087
2901.78	256.884
2903.09	262.288
2904.4	267.102
2905.71	273.368
2907.02	280.607
2908.33	288.44
2909.64	296.62
2910.95	304.881
2912.26	311.624
2913.57	319.163
2914.88	326.857
2916.19	333.862
2917.5	340.79
2918.81	347.894
2920.11	354.411
2921.42	360.109
2922.73	365.12
2924.04	369.192
2925.34	373.133
2926.65	375.588
2927.96	377.2
2929.26	378.102
2930.57	378.623
2931.87	378.755
2933.18	378.173
2934.49	376.95
2935.79	374.458
2937.1	371.859
2938.4	369.15
2939.7	365.621
2941.01	360.534
2942.31	355.652
2943.62	351.232
2944.92	345.769
2946.22	339.344
2947.53	333.131
2948.83	325.613
2950.13	318.803
2951.43	311.706
2952.74	303.476
2954.04	295.844
2955.34	288.213
2956.64	280.957
2957.94	273.848
2959.24	266.002
2960.54	258.867
2961.84	251.267
2963.15	244.593
2964.45	237.625
2965.75	230.862
2967.05	225.214
2968.34	219.509
2969.64	213.141
2970.94	207.319
2972.24	200.946
2973.54	194.179
2974.84	188.036
2976.14	180.795
2977.43	174.243
2978.73	167.681
2980.03	160.563
2981.33	153.756
2982.62	147.434
2983.92	141.258
2985.22	134.647
2986.51	127.473
2987.81	119.987
2989.11	113.269
2990.4	105.994
2991.7	98.8102
2992.99	92.0865
2994.29	86.9224
2995.58	81.1557
2996.88	75.4858
2998.17	69.9062
2999.46	64.6775
3000.76	59.3375
3002.05	54.7951
3003.34	49.0353
3004.64	44.1358
3005.93	39.7372
3007.22	36.5354
3008.52	32.7875
3009.81	29.0958
3011.1	25.292
3012.39	22.5155
3013.68	20.0285
3014.97	18.1886
3016.27	15.9812
3017.56	13.5683
3018.85	11.5371
3020.14	10.0942
3021.43	8.79747
3022.72	7.16211
3024.01	5.73093
3025.3	5.25061
3026.59	4.51598
3027.88	5.05106
3029.16	5.01351
3030.45	5.10115
3031.74	4.73197
3033.03	5.0526
3034.32	4.91413
3035.6	5.6753
3036.89	6.05273
3038.18	7.15899
3039.47	8.32223
3040.75	8.74951
3042.04	9.23959
3043.33	9.50317
3044.61	9.54406
3045.9	10.5996
3047.18	11.6755
3048.47	11.6873
3049.75	11.3976
3051.04	11.3887
3052.32	11.5255
3053.61	11.8262
3054.89	12.0336
3056.18	12.9443
3057.46	13.5804
3058.74	13.2558
3060.03	11.8078
3061.31	11.4243
3062.59	11.231
3063.88	10.5844
3065.16	10.0649
3066.44	9.77819
3067.72	8.85505
3069	8.75407
3070.29	8.34286
3071.57	8.10017
3072.85	7.35774
3074.13	6.44411
3075.41	5.61038
3076.69	4.96521
3077.97	4.25688
3079.25	2.82865
3080.53	1.68534
3081.81	0.801275
3083.09	0.29358
3084.37	-0.592949
3085.65	-1.51241
3086.93	-1.37194
3088.21	-1.09427
3089.49	-0.653666
3090.76	-0.28536
3092.04	0.00273009
3093.32	-0.165665
3094.6	0.0485572
3095.87	0.505477
3097.15	1.45915
3098.43	1.47497
3099.7	2.1012
3100.98	2.19453
3102.26	2.461
3103.53	2.51303
3104.81	2.16594
3106.08	2.29872
3107.36	3.12696
3108.63	3.79756
3109.91	4.79276
3111.18	5.37238
3112.46	5.99921
3113.73	7.25717
3115	8.82271
3116.28	9.50099
3117.55	10.669
3118.83	11.9256
3120.1	13.2917
3121.37	13.6975
3122.64	13.9102
3123.92	15.0679
3125.19	16.416
3126.46	17.6591
3127.73	18.4873
3129	19.8404
3130.27	20.8825
3131.55	21.5017
3132.82	23.0043
3134.09	24.5811
3135.36	26.0136
3136.63	26.866
3137.9	27.8451
3139.17	29.3302
3140.44	30.5567
3141.71	31.8432
3142.98	33.1366
3144.24	34.5941
3145.51	36.1087
3146.78	37.807
3148.05	39.243
3149.32	38.1863
