#Acq. time (s)=	45
#Accumulations=	2
#Range (cm-¹)=	200...3150
#Windows=	2
#Auto scanning=	Off
#Autofocus=	Off
#Macrospot=	Off
#AutoExposure=	Off
#Spike filter=	Multiple accum.
#Delay time (s)=	0
#Binning=	1
#Readout mode=	Signal
#DeNoise=	Off
#ICS correction=	On
#Dark correction=	Off
#Inst. Process=	Off
#Detector Gain=	Best Dynamic Range
#Detector ADC=	20 kHz       
#Detector temperature (°C)=	-69.85
#Instrument=	LabRAM HR Evol
#Detector=	Synapse
#Objective=	x100
#Grating=	600 gr/mm
#ND Filter=	100%
#Laser (nm)=	532 
#Hole=	100.021
#Range=	Auto
#Laser Pol.=	No
#Raman. Pol.=	No
#Laser Pol. (°)=	-0.0007625
#Raman Pol. (°)=	89.9995
#Collection=	Microscope
#StageXY=	Marzhauser
#StageZ=	Marzhauser
#X (µm)=	1978.6
#Y (µm)=	-57.7
#Z (µm)=	425.3
#Full time(mm:ss)=	3:18
#Project=	
#Sample=	
#Site=	
#Title=	Thy_40_11_12_2x_45s_532 nm_x100_100%_600 gr_mm
#Remark=	
#Date=	05.07.2022 10:42
#Acquired=	05.07.2022 10:42:32
#Base:Fit=	10.08.2022 10:01:35
#Base:Sub=	10.08.2022 10:01:52
#Filter:Polynom=	16.08.2022 10:21:53
#AxisType[0]=Intens
#AxisUnit[0]=Cnt
#AxisType[1]=Spectr
#AxisUnit[1]=1/cm
200.43	0.63434
202.244	5.39788
204.059	6.6796
205.873	8.29575
207.688	9.25661
209.501	10.106
211.314	10.8745
213.127	10.7872
214.941	10.6293
216.753	11.163
218.564	11.8452
220.375	12.4208
222.186	12.776
223.999	12.3534
225.809	10.7671
227.618	9.67635
229.428	10.0602
231.236	10.3163
233.045	9.9889
234.855	10.404
236.663	9.95144
238.471	9.99655
240.278	11.2253
242.085	10.674
243.891	11.0577
245.698	11.0509
247.503	11.1092
249.309	10.4102
251.116	10.0078
252.921	10.3545
254.725	9.91681
256.529	10.1151
258.333	9.78508
260.136	10.4224
261.939	9.9214
263.742	11.8803
265.544	12.4495
267.346	12.4199
269.148	12.3929
270.949	12.1375
272.75	12.2084
274.55	11.836
276.351	13.6851
278.15	13.1566
279.95	14.2008
281.749	14.2957
283.548	14.5158
285.346	14.6386
287.144	14.1533
288.942	14.6337
290.739	14.7892
292.536	15.0397
294.333	15.9478
296.129	16.5598
297.925	17.0333
299.721	17.0663
301.514	17.274
303.309	17.6753
305.104	18.7381
306.898	19.0978
308.692	18.868
310.486	18.0963
312.279	17.1306
314.072	16.6372
315.862	17.3921
317.654	17.8129
319.446	17.9786
321.238	17.842
323.029	18.2404
324.819	19.8435
326.608	20.3502
328.398	20.3142
330.188	21.1582
331.977	20.4023
333.766	20.3498
335.553	20.2893
337.341	19.6706
339.129	19.0752
340.917	19.7975
342.704	19.9187
344.489	18.4128
346.275	18.6934
348.062	17.2392
349.845	17.6773
351.631	16.9518
353.416	16.6652
355.201	15.2739
356.984	15.1563
358.768	14.8497
360.552	14.5043
362.333	14.9116
364.116	14.3782
365.899	15.3628
367.68	13.8347
369.462	13.9837
371.243	13.7666
373.023	12.5921
374.804	12.8539
376.585	12.2568
378.363	12.0226
380.143	11.1248
381.923	11.7338
383.7	12.3063
385.479	12.6609
387.256	11.8418
389.034	11.7208
390.812	11.5007
392.588	10.9717
394.365	9.5334
396.14	9.40547
397.916	8.10572
399.691	6.97284
401.467	7.5763
403.24	8.29779
405.015	8.35271
406.788	6.70652
408.563	6.53095
410.335	7.7872
412.109	7.87036
413.88	7.08035
415.654	5.2866
417.424	4.35623
419.197	4.2681
420.967	3.49212
422.739	3.10107
424.508	3.20347
426.279	3.07782
428.048	3.35605
429.819	3.92142
431.587	3.50975
433.356	3.40383
435.124	4.15524
436.891	3.02642
438.66	4.10536
440.426	3.33655
442.194	3.3788
443.96	4.174
445.725	3.85019
447.492	3.99203
449.257	4.3887
451.021	4.92179
452.787	5.78927
454.551	7.50553
456.314	7.82299
458.079	8.93795
459.842	10.2068
461.604	11.2115
463.368	13.1436
465.13	15.0346
466.891	15.6052
468.654	16.9922
470.415	19.0184
472.175	20.7374
473.935	20.7879
475.696	21.5865
477.456	22.6767
479.215	23.7806
480.973	23.7273
482.733	24.6899
484.491	24.9453
486.249	23.4519
488.006	25.0908
489.765	26.3977
491.522	26.2629
493.278	25.7145
495.034	25.2357
496.789	25.7037
498.544	26.3084
500.301	25.0069
502.056	24.4205
503.81	24.7075
505.564	25.1959
507.317	25.5877
509.071	26.7894
510.825	26.7916
512.578	25.8974
514.33	26.2687
516.082	25.8733
517.833	25.4012
519.585	23.7921
521.335	22.7801
523.086	22.305
524.836	21.1899
526.586	20.3506
528.335	20.3495
530.085	19.5012
531.835	18.4937
533.584	16.8768
535.332	16.3575
537.08	16.3
538.827	16.1022
540.574	16.6563
542.321	16.3456
544.068	14.86
545.814	14.9953
547.56	14.5202
549.305	13.5663
551.05	12.7794
552.795	12.2398
554.54	10.5834
556.282	11.0002
558.025	9.80311
559.769	9.79288
561.512	8.8992
563.255	7.86613
564.997	6.55866
566.739	5.77349
568.481	3.55617
570.223	3.21386
571.964	2.37427
573.705	2.54371
575.443	3.63411
577.183	2.55215
578.923	1.91563
580.663	1.4567
582.402	0.651593
584.141	0.166998
585.879	-0.225097
587.615	-0.213817
589.353	0.369597
591.09	1.35535
592.828	1.69154
594.564	2.21825
596.299	1.87213
598.035	0.817074
599.771	1.6504
601.506	2.35256
603.242	2.52619
604.974	3.46908
606.709	4.4099
608.443	4.91439
610.177	5.60466
611.908	5.39712
613.642	5.61459
615.374	6.59749
617.105	6.15796
618.837	6.61701
620.569	6.95491
622.3	8.13079
624.03	9.22535
625.761	9.36017
627.491	10.594
629.219	9.35112
630.949	9.20502
632.677	10.1265
634.406	10.2466
636.135	11.2369
637.861	11.5645
639.59	11.7105
641.318	12.1428
643.043	12.4682
644.77	13.6052
646.495	14.7502
648.222	14.8087
649.948	13.7434
651.672	15.1969
653.398	15.6477
655.121	15.5323
656.846	16.8385
658.569	17.0019
660.293	17.1618
662.015	17.4291
663.738	17.049
665.46	17.1944
667.183	17.4104
668.903	17.7179
670.626	18.1459
672.346	18.5202
674.067	19.8423
675.787	19.3722
677.508	19.9968
679.226	20.5007
680.947	21.2506
682.665	22.0662
684.385	23.9946
686.102	25.2751
687.821	25.9067
689.538	26.6703
691.254	27.4449
692.972	27.0908
694.688	27.7727
696.406	29.9998
698.121	31.128
699.835	31.9979
701.552	32.3476
703.266	32.8481
704.98	33.1216
706.695	33.2221
708.409	33.8868
710.121	34.743
711.836	35.3739
713.548	36.6576
715.26	36.1833
716.973	38.0758
718.685	39.2636
720.396	40.2648
722.108	41.5805
723.818	42.2374
725.528	42.816
727.238	43.5105
728.949	43.8188
730.658	44.857
732.367	44.5652
734.075	44.4243
735.785	45.6856
737.493	47.1693
739.2	47.6569
740.907	48.603
742.614	49.0864
744.322	49.3151
746.028	50.7101
747.734	52.3143
749.439	53.825
751.144	54.3951
752.849	54.4618
754.555	54.9781
756.26	55.6013
757.963	56.2606
759.667	57.0777
761.37	56.7961
763.073	57.8468
764.775	57.6619
766.477	58.4951
768.179	59.4175
769.883	60.5923
771.584	60.6927
773.285	62.3989
774.986	63.0608
776.686	64.9432
778.386	66.3258
780.085	67.9353
781.785	69.0384
783.484	68.3221
785.182	68.4524
786.881	69.0495
788.579	70.9177
790.276	71.7215
791.974	71.9061
793.671	72.5083
795.367	74.6411
797.064	74.5876
798.76	75.1924
800.456	75.787
802.151	76.8801
803.846	76.6484
805.541	76.9596
807.234	77.226
808.928	76.7633
810.622	76.6615
812.315	77.7308
814.008	77.2907
815.701	77.1816
817.394	77.9746
819.086	78.7342
820.778	80.2043
822.468	80.1637
824.159	80.0053
825.85	80.1615
827.541	80.4902
829.231	80.4357
830.921	80.9932
832.609	80.5955
834.298	79.6658
835.987	78.1742
837.676	77.5434
839.364	77.237
841.051	76.6368
842.738	75.2014
844.426	73.9555
846.113	73.2358
847.798	71.9617
849.484	70.7084
851.171	70.9099
852.857	70.4373
854.54	69.4954
856.226	68.6786
857.911	68.1221
859.593	66.6314
861.278	65.5102
862.961	64.3976
864.645	63.889
866.327	62.9846
868.01	60.8549
869.692	59.9143
871.373	59.1899
873.055	57.9945
874.735	56.3033
876.416	55.1242
878.097	53.7256
879.776	53.6278
881.457	52.4049
883.135	52.3398
884.815	52.0124
886.495	51.0795
888.172	50.7294
889.851	50.569
891.528	50.3373
893.206	49.9884
894.882	49.1619
896.56	48.8328
898.237	47.6602
899.912	47.8828
901.589	49.1457
903.263	48.3025
904.94	47.7155
906.614	47.3494
908.289	46.8896
909.962	46.5692
911.635	45.6089
913.31	44.2316
914.982	44.573
916.656	44.6527
918.328	45.7878
920.001	46.133
921.672	45.9628
923.345	45.6636
925.015	45.6398
926.685	45.4899
928.357	45.5338
930.026	45.1388
931.698	44.3826
933.366	44.2715
935.035	44.1625
936.705	44.3617
938.373	43.8123
940.041	43.5418
941.71	42.2899
943.377	42.1107
945.044	41.2554
946.712	41.3177
948.378	41.5744
950.044	41.5308
951.709	40.7551
953.376	41.6518
955.041	42.8519
956.706	42.4577
958.372	42.3086
960.036	42.8245
961.699	42.9456
963.362	44.7492
965.027	45.0917
966.69	45.4842
968.352	45.7623
970.014	45.157
971.676	45.3255
973.339	44.8146
975	44.3729
976.661	43.9149
978.322	43.6117
979.982	43.1023
981.642	42.7277
983.303	42.0919
984.962	42.3195
986.621	40.8911
988.28	40.4413
989.938	40.2886
991.596	39.1251
993.254	38.2566
994.911	37.3934
996.57	36.8889
998.227	37.6274
999.884	36.3403
1001.54	35.7194
1003.2	34.9258
1004.85	34.4379
1006.51	33.8688
1008.16	33.2196
1009.82	32.3368
1011.47	31.0187
1013.12	29.5083
1014.78	28.5254
1016.43	28.6742
1018.08	27.6691
1019.74	28.3059
1021.39	27.4448
1023.04	27.695
1024.69	28.1622
1026.34	28.9973
1028	28.9658
1029.65	29.5857
1031.3	30.2382
1032.95	31.0026
1034.6	30.621
1036.25	31.1442
1037.9	30.1186
1039.54	29.3843
1041.19	30.0241
1042.84	31.1157
1044.49	30.8191
1046.14	30.8491
1047.78	30.2236
1049.43	29.1684
1051.08	27.7048
1052.72	26.653
1054.37	26.1641
1056.02	25.3651
1057.66	25.0544
1059.31	24.9219
1060.95	24.4063
1062.6	23.5605
1064.24	23.7357
1065.88	23.0128
1067.53	22.8437
1069.17	21.1962
1070.81	20.0406
1072.45	19.4828
1074.1	18.3485
1075.74	17.77
1077.38	17.4306
1079.02	17.5523
1080.66	17.4736
1082.3	16.516
1083.94	17.1566
1085.58	16.885
1087.22	16.381
1088.86	15.7683
1090.5	15.5385
1092.14	15.4913
1093.78	15.7653
1095.42	16.5258
1097.05	17.5458
1098.69	18.8438
1100.33	18.8648
1101.96	19.7162
1103.6	19.3292
1105.24	19.6564
1106.87	19.0879
1108.51	18.7538
1110.14	18.9226
1111.78	18.6455
1113.41	19.8634
1115.05	20.0226
1116.68	19.4047
1118.31	19.2218
1119.95	18.4522
1121.58	18.5596
1123.21	18.7805
1124.85	18.7473
1126.48	17.324
1128.11	17.4655
1129.74	16.5762
1131.37	16.092
1133	17.0129
1134.63	17.0523
1136.26	16.3891
1137.89	16.897
1139.52	16.6677
1141.15	15.8805
1142.78	15.3854
1144.41	13.8818
1146.04	13.7892
1147.66	13.1338
1149.29	12.3895
1150.92	11.2905
1152.55	11.3631
1154.17	10.9747
1155.8	9.91206
1157.43	9.61345
1159.05	9.35418
1160.68	8.6673
1162.3	8.15837
1163.93	7.77318
1165.55	7.22407
1167.17	6.75951
1168.8	6.7208
1170.42	7.38539
1172.05	7.1081
1173.67	7.97961
1175.29	7.68415
1176.91	8.00519
1178.54	7.35119
1180.16	6.7006
1181.78	6.75416
1183.4	6.99384
1185.02	7.75118
1186.64	8.26559
1188.26	9.49601
1189.88	10.0625
1191.5	10.5925
1193.12	10.8567
1194.74	11.4584
1196.36	11.4612
1197.97	12.3159
1199.59	13.5679
1201.21	13.924
1202.83	15.7784
1204.44	17.8013
1206.06	19.887
1207.68	21.4533
1209.29	23.5749
1210.91	24.8809
1212.52	26.4129
1214.14	27.8319
1215.75	27.527
1217.37	28.7422
1218.98	30.4734
1220.59	30.4663
1222.21	32.0149
1223.82	33.4514
1225.43	34.0102
1227.05	36.0601
1228.66	36.4427
1230.27	37.2875
1231.88	38.1666
1233.49	40.4907
1235.1	41.4333
1236.72	42.7109
1238.33	44.1699
1239.94	46.4414
1241.55	47.6894
1243.16	49.4374
1244.76	50.8083
1246.37	51.4414
1247.98	52.5201
1249.59	53.5802
1251.2	54.9713
1252.8	55.0768
1254.41	55.7354
1256.02	55.9115
1257.62	56.8288
1259.23	57.5696
1260.84	58.9285
1262.44	59.8462
1264.05	60.5828
1265.66	61.0355
1267.26	61.9086
1268.86	61.911
1270.47	61.6593
1272.07	63.0207
1273.67	63.7057
1275.28	65.0815
1276.88	66.3669
1278.48	67.4073
1280.09	68.1894
1281.69	68.4012
1283.29	69.486
1284.89	69.6265
1286.49	70.4881
1288.09	69.354
1289.69	69.7141
1291.29	69.8611
1292.89	70.1324
1294.49	70.1973
1296.09	69.2378
1297.69	70.1949
1299.29	70.427
1300.89	70.0474
1302.49	70.1019
1304.08	70.3434
1305.68	69.9774
1307.28	70.3984
1308.88	70.5803
1310.47	71.3948
1312.07	72.3375
1313.66	72.6139
1315.26	71.7329
1316.85	71.6912
1318.45	71.3587
1320.04	71.9181
1321.64	71.1477
1323.23	71.5119
1324.83	70.939
1326.42	69.3395
1328.01	68.3348
1329.61	67.285
1331.2	66.5102
1332.79	65.2956
1334.38	64.5954
1335.97	63.9937
1337.56	63.3754
1339.16	63.0223
1340.75	61.3525
1342.34	59.8123
1343.93	59.8474
1345.52	58.8401
1347.11	57.1945
1348.7	55.2296
1350.29	54.5077
1351.87	52.3831
1353.46	51.4615
1355.05	50.0226
1356.64	47.8009
1358.22	45.8375
1359.81	44.7912
1361.4	43.1581
1362.98	41.9266
1364.57	41.8114
1366.16	41.3678
1367.74	40.4375
1369.33	41.5484
1370.91	40.7453
1372.5	40.3347
1374.08	39.439
1375.67	38.3734
1377.25	39.0758
1378.83	39.1738
1380.41	38.389
1382	38.5551
1383.58	39.1896
1385.16	38.4754
1386.74	38.8237
1388.33	39.0907
1389.91	39.4604
1391.49	39.686
1393.07	39.2404
1394.65	39.0774
1396.23	38.9226
1397.81	38.7771
1399.39	38.9877
1400.97	37.5241
1402.55	36.9177
1404.13	36.617
1405.7	36.1046
1407.28	36.4502
1408.86	36.7543
1410.44	36.6456
1412.01	36.3238
1413.59	37.439
1415.17	38.9997
1416.74	40.595
1418.32	41.5771
1419.89	42.2054
1421.47	44.1075
1423.04	45.4528
1424.62	46.9578
1426.19	48.9276
1427.77	51.2536
1429.34	54.3576
1430.91	56.6177
1432.49	59.608
1434.06	60.7659
1435.63	63.0397
1437.2	65.8272
1438.78	67.5875
1440.35	68.6859
1441.92	70.5268
1443.49	71.7408
1445.06	72.0311
1446.63	72.9151
1448.2	73.0365
1449.77	72.9137
1451.34	73.1648
1452.91	73.3889
1454.48	73.2821
1456.05	73.8184
1457.62	73.0371
1459.18	71.8348
1460.75	71.5918
1462.32	69.8807
1463.89	68.0594
1465.45	66.4819
1467.02	64.0822
1468.59	61.6284
1470.15	58.6169
1471.72	55.397
1473.28	51.7826
1474.85	48.7656
1476.41	45.0354
1477.98	41.1643
1479.54	38.0075
1481.1	36.5136
1482.67	34.6765
1484.23	31.4953
1485.79	29.29
1487.36	27.5795
1488.92	25.5496
1490.48	24.517
1492.04	23.6271
1493.61	22.9857
1495.17	21.1485
1496.73	19.1807
1498.29	18.6738
1499.85	18.2234
1501.41	18.1656
1502.97	19.3283
1504.53	18.7973
1506.09	17.7295
1507.65	17.3564
1509.2	16.1773
1510.76	16.0217
1512.32	15.7387
1513.88	15.1335
1515.43	14.3171
1516.99	14.1223
1518.55	14.5694
1520.1	14.5244
1521.66	14.5921
1523.22	15.1168
1524.77	15.6923
1526.33	16.017
1527.88	17.5358
1529.44	18.7779
1530.99	19.5091
1532.54	20.9672
1534.1	21.3313
1535.65	22.015
1537.21	23.0871
1538.76	24.1119
1540.31	24.3921
1541.86	26.1417
1543.42	26.952
1544.97	28.5308
1546.52	29.1
1548.07	30.341
1549.62	31.3119
1551.17	32.3318
1552.72	33.9708
1554.27	34.9483
1555.82	36.6415
1557.37	38.6752
1558.92	39.9215
1560.47	40.8765
1562.02	41.3558
1563.56	42.9642
1565.11	44.0268
1566.66	44.4627
1568.21	45.2823
1569.75	45.8045
1571.3	47.4851
1572.85	48.1064
1574.39	48.9086
1575.94	50.5437
1577.49	51.6092
1579.03	52.5311
1580.57	52.8463
1582.12	53.0981
1583.66	53.568
1585.21	54.1804
1586.75	55.0525
1588.3	55.6264
1589.84	54.3928
1591.38	55.2723
1592.92	55.6905
1594.47	56.5454
1596.01	55.7525
1597.55	55.0837
1599.09	55.4361
1600.63	54.6036
1602.17	54.428
1603.71	54.3043
1605.25	54.1275
1606.79	53.7532
1608.33	52.1686
1609.87	53
1611.41	52.5453
1612.95	53.0635
1614.49	53.4313
1616.03	53.5419
1617.57	53.1981
1619.1	54.0414
1620.64	52.7359
1622.18	53.2726
1623.72	53.6539
1625.25	55.4512
1626.79	57.144
1628.32	57.729
1629.86	58.1291
1631.39	58.356
1632.93	60.0597
1634.46	61.0948
1636	61.8528
1637.53	63.0717
1639.07	64.544
1640.6	66.4463
1642.13	68.2029
1643.67	69.1825
1645.2	70.1667
1646.73	71.5411
1648.26	72.6483
1649.8	73.2942
1651.33	74.578
1652.86	76.0139
1654.39	76.4543
1655.92	76.4447
1657.45	76.5545
1658.98	76.6352
1660.51	76.1306
1662.04	75.935
1663.57	76.0508
1665.1	75.7915
1666.63	74.5232
1668.16	74.7211
1669.68	72.6032
1671.21	71.2316
1672.74	69.5094
1674.27	68.1672
1675.79	66.3649
1677.32	63.7374
1678.85	61.7877
1680.37	59.6921
1681.9	57.1349
1683.42	55.1967
1684.95	52.672
1686.47	51.4028
1688	48.5075
1689.52	45.9277
1691.05	43.5416
1692.57	41.4429
1694.09	38.5905
1695.62	36.2314
1697.14	33.2237
1698.66	31.4791
1700.18	29.5993
1701.71	27.5804
1703.23	25.455
1704.75	22.2287
1706.27	20.513
1707.79	19.688
1709.31	18.6584
1710.83	16.3876
1712.35	14.9741
1713.87	13.8276
1715.39	13.2885
1716.91	11.4942
1718.43	10.013
1719.95	8.81309
1721.47	7.43416
1722.99	6.96439
1724.5	5.55407
1726.02	5.4236
1727.54	4.99058
1729.06	3.61792
1730.57	2.32621
1732.09	2.10767
1733.61	1.37205
1735.12	1.19014
1736.64	1.37425
1738.15	1.47472
1739.67	1.24536
1741.18	1.71196
1742.7	0.823221
1744.21	0.886657
1745.72	0.482167
1747.24	1.40832
1748.75	1.47173
1750.26	1.23658
1751.77	1.25507
1753.29	1.75549
1754.8	2.15719
1756.31	2.79601
1757.82	2.79191
1759.33	3.11324
1760.84	2.98093
1762.36	3.1187
1763.87	2.98724
1765.38	2.90674
1766.89	2.75484
1768.4	2.58831
1769.91	2.19362
1771.41	2.06436
1772.92	2.42661
1774.43	2.8708
1775.94	2.95671
1777.45	3.24636
1778.95	3.27469
1780.46	3.01257
1781.97	3.36078
1783.48	3.59737
1784.98	2.97157
1786.49	2.91021
1787.99	2.772
1789.5	2.72429
1791.01	2.67829
1792.51	2.13305
1794.01	2.47627
1795.52	2.15186
1797.02	1.71042
1798.53	1.87452
1800.03	1.25145
1801.53	1.60478
1803.04	1.31189
1804.54	1.17008
1806.04	0.664301
1807.54	0.535794
1809.05	0.561458
1810.55	1.23602
1812.05	1.28648
1813.55	0.959985
1815.05	1.10239
1816.55	1.72981
1818.05	0.877212
1819.55	0.786071
1821.05	0.801157
1822.55	1.08061
1824.05	0.519608
1825.55	0.610357
1827.05	0.989223
1828.55	0.59467
1830.04	0.657306
1831.54	0.588721
1833.04	0.654928
1834.54	0.539168
1836.03	0.376105
1837.53	0.243615
1839.03	0.435625
1840.52	0.733725
1842.02	1.03161
1843.51	1.30597
1845.01	1.08431
1846.5	0.561559
1848	1.50328
1849.49	1.68901
1850.99	1.74089
1852.48	2.60445
1853.97	2.9174
1855.47	2.35504
1856.96	2.72443
1858.45	2.37397
1859.94	1.93746
1861.44	2.03206
1862.93	2.06768
1864.42	1.90851
1865.91	1.96952
1867.4	1.79696
1868.89	1.94087
1870.38	2.04124
1871.87	2.63913
1873.36	2.67206
1874.85	2.54218
1876.34	2.66493
1877.83	2.41051
1879.32	2.4705
1880.81	2.42986
1882.3	3.4368
1882.57	3.32214
1884.07	3.14655
1885.56	3.70754
1887.06	3.59509
1888.55	3.96633
1890.04	3.5356
1891.54	3.07787
1893.03	3.3801
1894.52	3.62758
1896.02	3.41
1897.51	3.09903
1899	2.63372
1900.49	2.43651
1901.98	2.61125
1903.47	3.00927
1904.96	2.9464
1906.45	2.88473
1907.94	2.34132
1909.43	2.44988
1910.92	2.712
1912.41	2.73439
1913.9	2.52235
1915.39	2.66369
1916.88	2.56617
1918.37	2.30759
1919.85	2.91644
1921.34	3.79053
1922.83	3.63289
1924.32	3.67914
1925.8	3.69121
1927.29	2.86708
1928.78	1.88458
1930.26	1.56
1931.75	0.644416
1933.23	0.71407
1934.72	0.348746
1936.2	0.49648
1937.69	0.250647
1939.17	0.514694
1940.66	0.409399
1942.14	0.185141
1943.63	0.321256
1945.11	0.0641474
1946.59	0.460909
1948.07	0.539465
1949.56	0.806793
1951.04	0.809717
1952.52	1.62816
1954	1.54696
1955.48	2.12195
1956.96	1.67281
1958.45	2.48511
1959.93	3.08398
1961.41	2.44172
1962.89	2.76327
1964.37	2.98069
1965.85	3.45278
1967.32	3.89719
1968.8	3.71183
1970.28	3.8164
1971.76	4.18765
1973.24	4.0375
1974.72	4.77169
1976.19	5.52574
1977.67	5.58716
1979.15	5.70164
1980.63	5.68795
1982.1	5.37532
1983.58	6.03006
1985.05	6.02976
1986.53	5.9998
1988	6.56318
1989.48	6.53254
1990.95	6.06674
1992.43	5.83579
1993.9	6.11489
1995.38	5.78188
1996.85	5.395
1998.32	4.91925
1999.8	4.54384
2001.27	3.73319
2002.74	2.90648
2004.22	2.91146
2005.69	3.29858
2007.16	2.93108
2008.63	2.45925
2010.1	2.84781
2011.57	2.69564
2013.04	2.73322
2014.51	2.61727
2015.98	2.34493
2017.45	3.01064
2018.92	2.76406
2020.39	2.46139
2021.86	2.26174
2023.33	2.43878
2024.8	2.86939
2026.27	3.49744
2027.74	3.529
2029.2	3.81732
2030.67	3.62928
2032.14	3.69221
2033.61	4.19173
2035.07	4.55193
2036.54	5.2414
2038.01	5.65702
2039.47	5.63081
2040.94	5.89173
2042.4	5.99484
2043.87	6.53095
2045.33	6.79645
2046.8	6.69421
2048.26	7.58228
2049.72	8.07897
2051.19	8.42138
2052.65	8.8308
2054.12	9.46373
2055.58	9.94301
2057.04	10.5065
2058.5	10.2778
2059.97	10.9191
2061.43	11.0857
2062.89	10.2721
2064.35	11.1418
2065.81	11.1166
2067.27	10.9992
2068.73	11.1575
2070.19	11.2244
2071.65	11.1728
2073.11	11.2581
2074.57	11.1778
2076.03	11.4942
2077.49	12.0181
2078.95	12.6129
2080.41	12.8587
2081.87	13.5032
2083.32	14.3783
2084.78	14.2129
2086.24	14.289
2087.7	14.2091
2089.15	14.449
2090.61	15.3016
2092.07	15.467
2093.52	15.9877
2094.98	17.2544
2096.43	18.139
2097.89	18.127
2099.34	18.4278
2100.8	18.9395
2102.25	19.6311
2103.71	19.8296
2105.16	21.4788
2106.61	22.8059
2108.07	23.3013
2109.52	23.7675
2110.97	24.3682
2112.43	25.3145
2113.88	26.4928
2115.33	27.5877
2116.78	28.687
2118.23	30.1057
2119.68	31.7964
2121.13	33.4602
2122.59	35.0313
2124.04	36.6344
2125.49	38.1912
2126.94	39.5022
2128.39	40.5843
2129.83	41.7567
2131.28	42.8538
2132.73	44.4577
2134.18	45.5764
2135.63	47.6592
2137.08	49.2278
2138.53	50.2025
2139.97	51.8812
2141.42	54.1732
2142.87	55.48
2144.31	56.9956
2145.76	59.4707
2147.21	61.3416
2148.65	62.998
2150.1	64.7303
2151.54	66.4517
2152.99	67.3183
2154.43	68.1721
2155.88	69.3949
2157.32	70.1893
2158.77	71.0299
2160.21	72.0498
2161.65	72.4919
2163.1	73.4698
2164.54	74.0754
2165.98	74.7438
2167.43	74.8073
2168.87	75.7669
2170.31	75.7886
2171.75	76.443
2173.19	76.7076
2174.64	77.0791
2176.07	77.2019
2177.52	77.1342
2178.96	75.9397
2180.4	75.3733
2181.84	74.8599
2183.28	74.391
2184.72	73.4705
2186.15	72.8787
2187.59	71.7099
2189.03	70.7528
2190.47	69.8424
2191.91	68.4408
2193.35	66.6408
2194.78	65.3837
2196.22	63.7421
2197.66	62.3657
2199.09	60.2402
2200.53	59.1063
2201.97	58.0726
2203.4	56.9294
2204.84	55.7843
2206.27	54.037
2207.71	52.5761
2209.14	50.5303
2210.58	48.9361
2212.01	47.3953
2213.45	46.2217
2214.88	44.2965
2216.31	43.2482
2217.75	42.5582
2219.18	40.5998
2220.61	38.5688
2222.05	37.4185
2223.48	35.8504
2224.91	34.4339
2226.34	33.6949
2227.78	32.3009
2229.21	30.7957
2230.64	29.4293
2232.07	28.7022
2233.5	27.5496
2234.93	27.3345
2236.36	26.2574
2237.79	24.9471
2239.22	24.5892
2240.65	23.8075
2242.08	23.0744
2243.5	22.2521
2244.93	21.7559
2246.36	21.5724
2247.79	20.6298
2249.22	19.1069
2250.64	19.1978
2252.07	19.0872
2253.5	18.7128
2254.92	18.1818
2256.35	17.97
2257.78	17.6776
2259.2	17.4919
2260.63	17.7143
2262.05	17.4213
2263.48	17.2591
2264.9	16.8375
2266.33	16.6568
2267.75	16.4883
2269.18	16.3848
2270.6	16.1233
2272.02	17.0576
2273.45	16.4791
2274.87	15.4183
2276.29	14.221
2277.71	14.0438
2279.14	13.9787
2280.56	13.5848
2281.98	12.9732
2283.4	13.2085
2284.82	12.9604
2286.24	12.8287
2287.66	12.7261
2289.08	11.9123
2290.5	10.6857
2291.92	10.3216
2293.34	9.78275
2294.76	9.22933
2296.18	8.96926
2297.6	8.93644
2299.02	8.56994
2300.44	8.95249
2301.86	9.30026
2303.27	9.16073
2304.69	9.06771
2306.11	9.25016
2307.53	9.06999
2308.94	10.0885
2310.36	10.579
2311.78	10.4184
2313.19	11.3655
2314.61	11.3233
2316.02	11.6261
2317.44	11.546
2318.85	11.3334
2320.27	11.5684
2321.68	12.1246
2323.1	12.6203
2324.51	12.5846
2325.92	12.4491
2327.34	12.0589
2328.75	12.1645
2330.16	12.5202
2331.58	11.7838
2332.99	11.0145
2334.4	11.1797
2335.81	11.0846
2337.23	10.8597
2338.64	10.7768
2340.05	10.1486
2341.46	9.44027
2342.87	9.30625
2344.28	7.64316
2345.69	6.73702
2347.1	6.28164
2348.51	6.1253
2349.92	5.67498
2351.33	4.93788
2352.74	4.33238
2354.15	3.99538
2355.55	3.23027
2356.96	2.19379
2358.37	0.972196
2359.78	0.240822
2361.19	-0.335313
2362.59	-0.494381
2364	-0.671698
2365.41	0.139181
2366.81	-0.214397
2368.22	-0.0832764
2369.62	0.225758
2371.03	0.0255184
2372.44	-0.026921
2373.84	-0.0297686
2375.24	0.380205
2376.65	0.644608
2378.05	0.818936
2379.46	1.29797
2380.86	1.30632
2382.26	1.83695
2383.67	1.67258
2385.07	1.24018
2386.47	0.983276
2387.88	1.10991
2389.28	1.41868
2390.68	1.59239
2392.08	1.7953
2393.48	2.16058
2394.89	2.4113
2396.29	2.37066
2397.69	2.75792
2399.09	3.44733
2400.49	3.61426
2401.89	4.31165
2403.29	4.91016
2404.69	5.274
2406.09	5.29761
2407.48	5.40017
2408.88	5.81514
2410.28	5.90003
2411.68	6.60597
2413.08	7.33643
2414.48	7.12973
2415.87	7.76399
2417.27	8.07656
2418.67	8.2951
2420.06	8.4115
2421.46	7.9387
2422.86	7.98772
2424.25	7.66606
2425.65	7.21104
2427.04	7.47342
2428.44	7.1039
2429.83	8.03638
2431.23	8.07172
2432.62	8.24864
2434.02	8.87498
2435.41	8.44228
2436.81	7.49953
2438.2	7.67852
2439.59	7.60168
2440.99	7.56821
2442.38	7.92352
2443.77	7.69375
2445.16	7.7521
2446.56	7.62755
2447.95	7.26903
2449.34	6.88763
2450.73	6.44368
2452.12	5.65931
2453.51	5.00558
2454.9	4.75228
2456.29	5.25294
2457.68	4.99246
2459.07	4.12728
2460.46	4.31778
2461.85	4.50673
2463.24	4.52848
2464.63	4.96466
2466.02	4.6101
2467.4	4.51579
2468.79	4.06036
2470.18	4.18029
2471.57	3.96864
2472.95	3.35297
2474.34	3.48908
2475.73	3.27245
2477.12	3.34801
2478.5	3.17138
2479.89	2.77189
2481.27	2.62013
2482.66	1.78742
2484.04	1.39805
2485.43	0.867484
2486.81	0.361014
2488.2	0.274428
2489.58	0.619659
2490.97	0.444661
2492.35	0.624552
2493.73	0.353219
2495.12	0.778425
2496.5	0.973525
2497.88	0.255961
2499.27	0.817714
2500.65	0.617259
2502.03	0.431687
2503.41	0.193508
2504.79	-0.84915
2506.17	-0.889042
2507.56	-0.0341205
2508.94	0.772759
2510.32	1.19622
2511.7	1.41887
2513.08	1.99149
2514.46	2.6521
2515.84	2.36733
2517.22	1.99747
2518.59	2.61154
2519.97	3.07748
2521.35	3.21423
2522.73	3.92517
2524.11	4.04596
2525.49	4.20554
2526.86	3.80546
2528.24	4.18066
2529.62	5.17086
2530.99	5.88268
2532.37	6.49527
2533.75	6.81883
2535.12	7.09273
2536.5	7.42279
2537.88	7.94976
2539.25	8.43538
2540.63	8.47969
2542	9.22433
2543.38	9.39206
2544.75	9.00877
2546.12	8.79245
2547.5	8.70617
2548.87	9.02888
2550.24	9.41342
2551.62	9.23118
2552.99	9.47197
2554.36	9.69513
2555.74	10.2681
2557.11	10.2855
2558.48	10.4417
2559.85	9.65167
2561.22	9.11802
2562.59	8.59758
2563.96	8.59733
2565.34	8.15789
2566.71	7.94785
2568.08	7.90503
2569.45	7.80231
2570.82	6.70703
2572.18	6.80617
2573.55	7.13045
2574.92	7.73186
2576.29	7.99456
2577.66	7.68677
2579.03	7.23303
2580.4	7.44567
2581.77	7.24377
2583.13	6.6745
2584.5	6.13551
2585.87	5.99948
2587.23	6.42286
2588.6	5.46406
2589.97	4.7027
2591.33	5.2533
2592.7	4.55028
2594.06	4.44598
2595.43	4.81537
2596.79	5.13983
2598.16	5.31684
2599.52	5.27841
2600.89	4.97189
2602.25	4.77573
2603.62	5.6291
2604.98	5.27441
2606.34	5.08018
2607.71	4.93586
2609.07	4.70089
2610.43	4.79049
2611.79	4.57579
2613.16	4.56651
2614.52	4.73281
2615.88	5.38804
2617.24	6.16029
2618.6	6.29675
2619.96	5.9329
2621.32	6.0477
2622.68	6.1504
2624.04	5.84126
2625.4	4.82409
2626.76	4.34113
2628.12	4.20487
2629.48	3.95181
2630.84	3.93381
2632.2	3.63642
2633.56	3.71374
2634.92	3.79938
2636.28	3.31252
2637.63	3.64158
2638.99	3.94539
2640.35	4.76709
2641.71	4.737
2643.06	4.48362
2644.42	4.52463
2645.77	5.08264
2647.13	5.37452
2648.49	5.93314
2649.84	5.78102
2651.2	6.25465
2652.55	5.86087
2653.91	6.08573
2655.26	6.09582
2656.62	5.96096
2657.97	6.57144
2659.33	7.53907
2660.68	7.62166
2662.03	7.9055
2663.39	7.65192
2664.74	7.58839
2666.09	7.62468
2667.44	7.42161
2668.8	7.88338
2670.15	8.10655
2671.5	8.41993
2672.85	7.89223
2674.2	8.48769
2675.55	8.63487
2676.91	8.80933
2678.26	9.30222
2679.61	8.87656
2680.96	8.65837
2682.31	8.84006
2683.66	8.74129
2685	8.72383
2686.35	8.05266
2687.7	7.35664
2689.05	7.3726
2690.4	7.14597
2691.75	7.09763
2693.1	6.90134
2694.44	7.18091
2695.79	7.53805
2697.14	7.15857
2698.49	7.03395
2699.83	7.23305
2701.18	7.80145
2702.52	7.54044
2703.87	8.16166
2705.22	8.72277
2706.56	8.87321
2707.91	8.67358
2709.25	9.09747
2710.6	9.22662
2711.94	10.0202
2713.29	10.4162
2714.63	10.6045
2715.97	9.98251
2717.32	9.76868
2718.66	9.81005
2720.01	9.4628
2721.35	10.0888
2722.69	10.1259
2724.03	10.5586
2725.38	10.4747
2726.72	10.0965
2728.06	9.88646
2729.4	9.68781
2730.74	10.1114
2732.08	10.4247
2733.42	10.4625
2734.76	10.13
2736.1	10.21
2737.44	9.97208
2738.78	9.92034
2740.12	10.2303
2741.46	10.8107
2742.8	11.0049
2744.14	11.0903
2745.48	10.4155
2746.82	9.45373
2748.16	9.82957
2749.49	9.42086
2750.83	8.75932
2752.17	8.34256
2753.51	7.76136
2754.84	7.3994
2756.18	7.33436
2757.52	6.92619
2758.85	6.43052
2760.19	6.36649
2761.53	6.50522
2762.86	6.31716
2764.2	5.83439
2765.53	5.29548
2766.87	5.28654
2768.2	4.92988
2769.54	4.66448
2770.87	5.13605
2772.2	4.07236
2773.54	4.0658
2774.87	3.86302
2776.2	4.24829
2777.54	3.51514
2778.87	3.45768
2780.2	2.84368
2781.53	2.22439
2782.87	1.53415
2784.2	1.83732
2785.53	2.28742
2786.86	2.71799
2788.19	3.10279
2789.52	3.14806
2790.85	3.51304
2792.18	3.64793
2793.51	3.79895
2794.84	4.30469
2796.17	4.54674
2797.5	4.77342
2798.83	4.63598
2800.16	5.04925
2801.49	5.42824
2802.82	6.03259
2804.15	6.28379
2805.47	6.97895
2806.8	8.00154
2808.13	8.46602
2809.46	8.25688
2810.78	8.11588
2812.11	7.96147
2813.44	7.72369
2814.76	8.48083
2816.09	7.87269
2817.42	7.72946
2818.74	7.74137
2820.07	7.8231
2821.39	8.55251
2822.72	9.4871
2824.04	10.5684
2825.37	11.3471
2826.69	12.4155
2828.02	13.3277
2829.34	13.7386
2830.66	15.212
2831.99	16.3869
2833.31	17.1524
2834.63	18.3257
2835.96	19.6184
2837.28	21.2304
2838.6	22.3745
2839.92	24.6383
2841.24	26.0193
2842.57	27.9543
2843.89	29.7181
2845.21	32.8979
2846.53	35.1751
2847.85	37.8268
2849.17	41.2652
2850.49	43.8691
2851.81	47.153
2853.13	49.6415
2854.45	52.5434
2855.77	55.7836
2857.09	58.8934
2858.41	61.4403
2859.72	64.6049
2861.04	67.5592
2862.36	70.6617
2863.68	73.3929
2865	75.9045
2866.31	78.3417
2867.63	81.1208
2868.95	83.3938
2870.26	85.3657
2871.58	88.145
2872.9	90.4282
2874.21	92.162
2875.53	93.8139
2876.84	95.6268
2878.16	97.2355
2879.47	99.028
2880.79	101.713
2882.1	102.758
2883.42	104.666
2884.73	106.606
2886.05	108.409
2887.36	110.422
2888.67	112.319
2889.99	114.816
2891.3	116.074
2892.61	117.961
2893.92	120.066
2895.24	121.881
2896.55	124.227
2897.86	125.485
2899.17	127.548
2900.48	130.242
2901.79	133.014
2903.11	136.155
2904.42	139.592
2905.73	142.993
2907.04	146.533
2908.35	151.424
2909.66	156.016
2910.97	160.768
2912.27	164.647
2913.58	169.234
2914.89	173.469
2916.2	177.202
2917.51	181.629
2918.82	185.972
2920.13	189.933
2921.43	193.358
2922.74	196.135
2924.05	199.159
2925.35	201.482
2926.66	203.101
2927.97	204.904
2929.27	206.496
2930.58	207.788
2931.89	208.469
2933.19	208.995
2934.5	209.212
2935.8	208.787
2937.11	208.307
2938.41	207.144
2939.72	205.549
2941.02	203.795
2942.32	202.532
2943.63	200.711
2944.93	198.938
2946.24	195.793
2947.54	192.319
2948.84	189.491
2950.14	186.541
2951.45	182.844
2952.75	179.381
2954.05	175.703
2955.35	171.808
2956.65	167.274
2957.95	163.678
2959.26	159.835
2960.56	156.285
2961.86	152.379
2963.16	148.638
2964.46	145.415
2965.76	141.314
2967.06	137.602
2968.36	133.983
2969.66	130.396
2970.96	126.721
2972.25	123.792
2973.55	120.493
2974.85	117.011
2976.15	113.291
2977.45	110.247
2978.74	106.356
2980.04	102.773
2981.34	99.2432
2982.64	95.912
2983.93	92.1712
2985.23	87.8451
2986.52	84.1429
2987.82	80.1094
2989.12	76.1158
2990.41	72.1222
2991.71	68.883
2993	65.3683
2994.3	61.7261
2995.59	57.6219
2996.89	53.9464
2998.18	50.7308
2999.48	47.3817
3000.77	43.6457
3002.06	40.5889
3003.36	37.2979
3004.65	34.2885
3005.94	31.9892
3007.23	29.6796
3008.53	26.666
3009.82	24.7298
3011.11	22.1582
3012.4	20.7415
3013.69	19.1941
3014.99	18.0104
3016.28	16.7928
3017.57	15.736
3018.86	14.6464
3020.15	13.6365
3021.44	13.2596
3022.73	12.757
3024.02	12.1836
3025.31	11.9425
3026.6	11.3561
3027.89	11.5682
3029.18	11.2562
3030.46	10.9752
3031.75	11.1385
3033.04	11.4893
3034.33	11.7865
3035.62	12.7772
3036.9	13.3593
3038.19	14.1297
3039.48	14.8645
3040.76	15.1931
3042.05	16.0564
3043.34	15.9096
3044.62	16.5214
3045.91	17.0471
3047.19	17.9689
3048.48	17.985
3049.77	17.9254
3051.05	18.5624
3052.34	18.2117
3053.62	18.1708
3054.9	18.5854
3056.19	18.0867
3057.47	17.6144
3058.76	17.2327
3060.04	17.2073
3061.32	16.6894
3062.61	16.4814
3063.89	16.3414
3065.17	15.7712
3066.45	14.8197
3067.74	13.7728
3069.02	12.8782
3070.3	12.0943
3071.58	11.3736
3072.86	10.3907
3074.14	10.1583
3075.42	9.68113
3076.7	9.19508
3077.99	8.65372
3079.26	8.03634
3080.54	7.38588
3081.82	6.09663
3083.1	5.83369
3084.38	5.04619
3085.66	4.86443
3086.94	4.24539
3088.22	4.01784
3089.5	3.94593
3090.78	3.64448
3092.05	3.86791
3093.33	3.22484
3094.61	3.45206
3095.89	3.34069
3097.16	3.80116
3098.44	4.11307
3099.72	4.35113
3100.99	4.22101
3102.27	4.72307
3103.54	4.86472
3104.82	5.18945
3106.1	5.59178
3107.37	5.82415
3108.65	6.41361
3109.92	6.99393
3111.2	6.66289
3112.47	6.62189
3113.74	7.22636
3115.02	7.69541
3116.29	7.32519
3117.56	7.93067
3118.84	8.53914
3120.11	8.73102
3121.38	9.59401
3122.66	10.3074
3123.93	11.143
3125.2	11.3501
3126.47	12.223
3127.74	12.1327
3129.01	11.614
3130.29	11.5625
3131.56	12.0664
3132.83	12.3341
3134.1	13.1946
3135.37	13.7796
3136.64	13.9684
3137.91	14.817
3139.18	15.2076
3140.45	15.4974
3141.72	16.0868
3142.99	16.6502
3144.26	17.2413
3145.52	18.0695
3146.79	18.9023
3148.06	20.6127
3149.33	21.3473
